,Time,ppg,hr
0,2018-06-29 08:44:52.000000,0.0,76.0
1,2018-06-29 08:44:52.031250,0.0,76.0
2,2018-06-29 08:44:52.062500,0.0,76.0
3,2018-06-29 08:44:52.093750,0.0,76.0
4,2018-06-29 08:44:52.125000,0.0,76.0
5,2018-06-29 08:44:52.156250,0.0,76.0
6,2018-06-29 08:44:52.187500,0.01,76.0
7,2018-06-29 08:44:52.218750,-0.03,76.0
8,2018-06-29 08:44:52.250000,-0.05,76.0
9,2018-06-29 08:44:52.281250,0.13,76.0
10,2018-06-29 08:44:52.312500,0.66,76.0
11,2018-06-29 08:44:52.343750,1.37,76.0
12,2018-06-29 08:44:52.375000,2.06,76.0
13,2018-06-29 08:44:52.406250,2.79,76.0
14,2018-06-29 08:44:52.437500,3.8,76.0
15,2018-06-29 08:44:52.468750,5.06,76.0
16,2018-06-29 08:44:52.500000,6.2,76.0
17,2018-06-29 08:44:52.531250,7.15,76.0
18,2018-06-29 08:44:52.562500,8.31,76.0
19,2018-06-29 08:44:52.593750,10.09,76.0
20,2018-06-29 08:44:52.625000,11.88,76.0
21,2018-06-29 08:44:52.656250,13.14,76.0
22,2018-06-29 08:44:52.687500,14.65,76.0
23,2018-06-29 08:44:52.718750,17.91,76.0
24,2018-06-29 08:44:52.750000,22.9,76.0
25,2018-06-29 08:44:52.781250,27.58,76.0
26,2018-06-29 08:44:52.812500,31.68,76.0
27,2018-06-29 08:44:52.843750,37.81,76.0
28,2018-06-29 08:44:52.875000,48.15,76.0
29,2018-06-29 08:44:52.906250,59.83,76.0
30,2018-06-29 08:44:52.937500,69.58,76.0
31,2018-06-29 08:44:52.968750,79.34,76.0
32,2018-06-29 08:44:53.000000,93.76,76.0
33,2018-06-29 08:44:53.031250,112.62,76.0
34,2018-06-29 08:44:53.062500,129.77,76.0
35,2018-06-29 08:44:53.093750,143.3,76.0
36,2018-06-29 08:44:53.125000,157.77,76.0
37,2018-06-29 08:44:53.156250,177.95,76.0
38,2018-06-29 08:44:53.187500,206.97,76.0
39,2018-06-29 08:44:53.218750,228.25,76.0
40,2018-06-29 08:44:53.250000,208.53,76.0
41,2018-06-29 08:44:53.281250,132.76,76.0
42,2018-06-29 08:44:53.312500,23.07,76.0
43,2018-06-29 08:44:53.343750,-92.44,76.0
44,2018-06-29 08:44:53.375000,-205.23,76.0
45,2018-06-29 08:44:53.406250,-313.74,76.0
46,2018-06-29 08:44:53.437500,-409.83,76.0
47,2018-06-29 08:44:53.468750,-486.5,76.0
48,2018-06-29 08:44:53.500000,-537.23,76.0
49,2018-06-29 08:44:53.531250,-549.96,76.0
50,2018-06-29 08:44:53.562500,-514.21,76.0
51,2018-06-29 08:44:53.593750,-433.88,76.0
52,2018-06-29 08:44:53.625000,-327.02,76.0
53,2018-06-29 08:44:53.656250,-212.63,76.0
54,2018-06-29 08:44:53.687500,-102.95,76.0
55,2018-06-29 08:44:53.718750,-5.9,76.0
56,2018-06-29 08:44:53.750000,71.43,76.0
57,2018-06-29 08:44:53.781250,125.5,76.0
58,2018-06-29 08:44:53.812500,158.69,76.0
59,2018-06-29 08:44:53.843750,176.37,76.0
60,2018-06-29 08:44:53.875000,182.57,76.0
61,2018-06-29 08:44:53.906250,179.51,76.0
62,2018-06-29 08:44:53.937500,169.65,76.0
63,2018-06-29 08:44:53.968750,156.15,76.0
64,2018-06-29 08:44:54.000000,141.3,76.0
65,2018-06-29 08:44:54.031250,126.02,76.0
66,2018-06-29 08:44:54.062500,110.69,76.0
67,2018-06-29 08:44:54.093750,95.8,76.0
68,2018-06-29 08:44:54.125000,81.83,76.0
69,2018-06-29 08:44:54.156250,68.95,76.0
70,2018-06-29 08:44:54.187500,57.25,76.0
71,2018-06-29 08:44:54.218750,46.78,76.0
72,2018-06-29 08:44:54.250000,37.59,76.0
73,2018-06-29 08:44:54.281250,29.61,76.0
74,2018-06-29 08:44:54.312500,22.81,76.0
75,2018-06-29 08:44:54.343750,17.11,76.0
76,2018-06-29 08:44:54.375000,12.48,76.0
77,2018-06-29 08:44:54.406250,8.83,76.0
78,2018-06-29 08:44:54.437500,6.07,76.0
79,2018-06-29 08:44:54.468750,4.05,76.0
80,2018-06-29 08:44:54.500000,2.62,76.0
81,2018-06-29 08:44:54.531250,1.65,76.0
82,2018-06-29 08:44:54.562500,1.01,76.0
83,2018-06-29 08:44:54.593750,0.61,76.0
84,2018-06-29 08:44:54.625000,0.37,76.0
85,2018-06-29 08:44:54.656250,0.23,76.0
86,2018-06-29 08:44:54.687500,0.16,76.0
87,2018-06-29 08:44:54.718750,0.15,76.0
88,2018-06-29 08:44:54.750000,0.17,76.0
89,2018-06-29 08:44:54.781250,0.22,76.0
90,2018-06-29 08:44:54.812500,0.3,76.0
91,2018-06-29 08:44:54.843750,0.38,76.0
92,2018-06-29 08:44:54.875000,0.47,76.0
93,2018-06-29 08:44:54.906250,0.57,76.0
94,2018-06-29 08:44:54.937500,0.67,76.0
95,2018-06-29 08:44:54.968750,0.79,76.0
96,2018-06-29 08:44:55.000000,0.93,76.0
97,2018-06-29 08:44:55.031250,1.1,76.0
98,2018-06-29 08:44:55.062500,1.31,76.0
99,2018-06-29 08:44:55.093750,1.58,76.0
100,2018-06-29 08:44:55.125000,1.91,76.0
101,2018-06-29 08:44:55.156250,2.32,76.0
102,2018-06-29 08:44:55.187500,2.83,76.0
103,2018-06-29 08:44:55.218750,3.44,76.0
104,2018-06-29 08:44:55.250000,4.18,76.0
105,2018-06-29 08:44:55.281250,5.06,76.0
106,2018-06-29 08:44:55.312500,6.08,76.0
107,2018-06-29 08:44:55.343750,7.26,76.0
108,2018-06-29 08:44:55.375000,8.62,76.0
109,2018-06-29 08:44:55.406250,10.15,76.0
110,2018-06-29 08:44:55.437500,11.86,76.0
111,2018-06-29 08:44:55.468750,13.75,76.0
112,2018-06-29 08:44:55.500000,15.89,76.0
113,2018-06-29 08:44:55.531250,18.26,76.0
114,2018-06-29 08:44:55.562500,20.8,76.0
115,2018-06-29 08:44:55.593750,23.16,76.0
116,2018-06-29 08:44:55.625000,24.67,76.0
117,2018-06-29 08:44:55.656250,24.42,76.0
118,2018-06-29 08:44:55.687500,21.65,76.0
119,2018-06-29 08:44:55.718750,16.02,76.0
120,2018-06-29 08:44:55.750000,7.86,76.0
121,2018-06-29 08:44:55.781250,-1.52,76.0
122,2018-06-29 08:44:55.812500,-10.31,76.0
123,2018-06-29 08:44:55.843750,-16.86,76.0
124,2018-06-29 08:44:55.875000,-20.54,76.0
125,2018-06-29 08:44:55.906250,-21.61,76.0
126,2018-06-29 08:44:55.937500,-20.72,76.0
127,2018-06-29 08:44:55.968750,-18.49,76.0
128,2018-06-29 08:44:56.000000,-15.69,76.0
129,2018-06-29 08:44:56.031250,-13.09,76.0
130,2018-06-29 08:44:56.062500,-10.97,76.0
131,2018-06-29 08:44:56.093750,-8.77,76.0
132,2018-06-29 08:44:56.125000,-6.05,76.0
133,2018-06-29 08:44:56.156250,-3.58,76.0
134,2018-06-29 08:44:56.187500,-2.25,76.0
135,2018-06-29 08:44:56.218750,-1.8,76.0
136,2018-06-29 08:44:56.250000,-0.52,76.0
137,2018-06-29 08:44:56.281250,1.48,76.0
138,2018-06-29 08:44:56.312500,2.14,76.0
139,2018-06-29 08:44:56.343750,0.31,76.0
140,2018-06-29 08:44:56.375000,-1.62,76.0
141,2018-06-29 08:44:56.406250,-1.31,76.0
142,2018-06-29 08:44:56.437500,-1.08,76.0
143,2018-06-29 08:44:56.468750,-4.23,76.0
144,2018-06-29 08:44:56.500000,-10.7,76.0
145,2018-06-29 08:44:56.531250,-15.87,76.0
146,2018-06-29 08:44:56.562500,-18.68,76.0
147,2018-06-29 08:44:56.593750,-23.35,76.0
148,2018-06-29 08:44:56.625000,-37.99,76.0
149,2018-06-29 08:44:56.656250,-64.32,76.0
150,2018-06-29 08:44:56.687500,-86.65,76.0
151,2018-06-29 08:44:56.718750,-86.93,76.0
152,2018-06-29 08:44:56.750000,-57.61,76.0
153,2018-06-29 08:44:56.781250,-18.02,76.0
154,2018-06-29 08:44:56.812500,8.98,76.0
155,2018-06-29 08:44:56.843750,22.55,76.0
156,2018-06-29 08:44:56.875000,30.12,76.0
157,2018-06-29 08:44:56.906250,32.99,76.0
158,2018-06-29 08:44:56.937500,33.21,76.0
159,2018-06-29 08:44:56.968750,35.16,76.0
160,2018-06-29 08:44:57.000000,38.34,76.0
161,2018-06-29 08:44:57.031250,39.05,76.0
162,2018-06-29 08:44:57.062500,35.46,76.0
163,2018-06-29 08:44:57.093750,31.35,76.0
164,2018-06-29 08:44:57.125000,29.14,76.0
165,2018-06-29 08:44:57.156250,27.0,76.0
166,2018-06-29 08:44:57.187500,22.58,76.0
167,2018-06-29 08:44:57.218750,16.92,76.0
168,2018-06-29 08:44:57.250000,12.29,76.0
169,2018-06-29 08:44:57.281250,8.76,76.0
170,2018-06-29 08:44:57.312500,5.29,76.0
171,2018-06-29 08:44:57.343750,0.79,76.0
172,2018-06-29 08:44:57.375000,-4.62,76.0
173,2018-06-29 08:44:57.406250,-9.99,76.0
174,2018-06-29 08:44:57.437500,-14.61,76.0
175,2018-06-29 08:44:57.468750,-19.17,76.0
176,2018-06-29 08:44:57.500000,-24.99,76.0
177,2018-06-29 08:44:57.531250,-32.29,76.0
178,2018-06-29 08:44:57.562500,-40.14,76.0
179,2018-06-29 08:44:57.593750,-47.79,76.0
180,2018-06-29 08:44:57.625000,-56.27,76.0
181,2018-06-29 08:44:57.656250,-68.17,76.0
182,2018-06-29 08:44:57.687500,-83.24,76.0
183,2018-06-29 08:44:57.718750,-94.01,76.0
184,2018-06-29 08:44:57.750000,-90.47,76.0
185,2018-06-29 08:44:57.781250,-70.92,76.0
186,2018-06-29 08:44:57.812500,-44.54,76.0
187,2018-06-29 08:44:57.843750,-21.5,76.0
188,2018-06-29 08:44:57.875000,-4.18,76.0
189,2018-06-29 08:44:57.906250,10.45,76.0
190,2018-06-29 08:44:57.937500,24.01,76.0
191,2018-06-29 08:44:57.968750,35.21,76.0
192,2018-06-29 08:44:58.000000,42.88,76.0
193,2018-06-29 08:44:58.031250,47.6,76.0
194,2018-06-29 08:44:58.062500,50.29,76.0
195,2018-06-29 08:44:58.093750,51.93,76.0
196,2018-06-29 08:44:58.125000,54.08,76.0
197,2018-06-29 08:44:58.156250,56.99,76.0
198,2018-06-29 08:44:58.187500,58.48,76.0
199,2018-06-29 08:44:58.218750,56.79,76.0
200,2018-06-29 08:44:58.250000,53.24,76.0
201,2018-06-29 08:44:58.281250,49.96,76.0
202,2018-06-29 08:44:58.312500,47.06,76.0
203,2018-06-29 08:44:58.343750,43.54,76.0
204,2018-06-29 08:44:58.375000,39.59,76.0
205,2018-06-29 08:44:58.406250,36.27,76.0
206,2018-06-29 08:44:58.437500,33.81,76.0
207,2018-06-29 08:44:58.468750,31.57,76.0
208,2018-06-29 08:44:58.500000,28.98,76.0
209,2018-06-29 08:44:58.531250,25.9,76.0
210,2018-06-29 08:44:58.562500,22.41,76.0
211,2018-06-29 08:44:58.593750,18.61,76.0
212,2018-06-29 08:44:58.625000,14.52,76.0
213,2018-06-29 08:44:58.656250,10.04,76.0
214,2018-06-29 08:44:58.687500,4.73,76.0
215,2018-06-29 08:44:58.718750,-1.14,76.0
216,2018-06-29 08:44:58.750000,-6.32,76.0
217,2018-06-29 08:44:58.781250,-10.58,76.0
218,2018-06-29 08:44:58.812500,-15.58,76.0
219,2018-06-29 08:44:58.843750,-22.41,76.0
220,2018-06-29 08:44:58.875000,-30.31,76.0
221,2018-06-29 08:44:58.906250,-38.2,76.0
222,2018-06-29 08:44:58.937500,-45.37,76.0
223,2018-06-29 08:44:58.968750,-52.08,76.0
224,2018-06-29 08:44:59.000000,-61.01,76.0
225,2018-06-29 08:44:59.031250,-74.29,76.0
226,2018-06-29 08:44:59.062500,-87.16,76.0
227,2018-06-29 08:44:59.093750,-88.85,76.0
228,2018-06-29 08:44:59.125000,-73.78,76.0
229,2018-06-29 08:44:59.156250,-48.74,76.0
230,2018-06-29 08:44:59.187500,-24.76,76.0
231,2018-06-29 08:44:59.218750,-5.95,76.0
232,2018-06-29 08:44:59.250000,9.45,76.0
233,2018-06-29 08:44:59.281250,21.49,76.0
234,2018-06-29 08:44:59.312500,27.77,76.0
235,2018-06-29 08:44:59.343750,27.64,76.0
236,2018-06-29 08:44:59.375000,23.63,76.0
237,2018-06-29 08:44:59.406250,19.24,76.0
238,2018-06-29 08:44:59.437500,16.34,76.0
239,2018-06-29 08:44:59.468750,13.58,76.0
240,2018-06-29 08:44:59.500000,8.48,76.0
241,2018-06-29 08:44:59.531250,1.98,76.0
242,2018-06-29 08:44:59.562500,-2.56,76.0
243,2018-06-29 08:44:59.593750,-4.49,76.0
244,2018-06-29 08:44:59.625000,-4.71,76.0
245,2018-06-29 08:44:59.656250,-1.99,76.0
246,2018-06-29 08:44:59.687500,5.12,76.0
247,2018-06-29 08:44:59.718750,16.29,76.0
248,2018-06-29 08:44:59.750000,30.73,76.0
249,2018-06-29 08:44:59.781250,46.43,76.0
250,2018-06-29 08:44:59.812500,59.42,76.0
251,2018-06-29 08:44:59.843750,66.98,76.0
252,2018-06-29 08:44:59.875000,69.81,76.0
253,2018-06-29 08:44:59.906250,70.51,76.0
254,2018-06-29 08:44:59.937500,70.85,76.0
255,2018-06-29 08:44:59.968750,69.07,76.0
256,2018-06-29 08:45:00.000000,61.66,76.0
257,2018-06-29 08:45:00.031250,49.25,76.0
258,2018-06-29 08:45:00.062500,36.85,76.0
259,2018-06-29 08:45:00.093750,26.51,76.0
260,2018-06-29 08:45:00.125000,15.16,76.0
261,2018-06-29 08:45:00.156250,0.95,76.0
262,2018-06-29 08:45:00.187500,-13.53,76.0
263,2018-06-29 08:45:00.218750,-25.03,76.0
264,2018-06-29 08:45:00.250000,-33.24,76.0
265,2018-06-29 08:45:00.281250,-41.26,76.0
266,2018-06-29 08:45:00.312500,-55.15,76.0
267,2018-06-29 08:45:00.343750,-77.69,76.0
268,2018-06-29 08:45:00.375000,-99.44,76.0
269,2018-06-29 08:45:00.406250,-104.19,76.0
270,2018-06-29 08:45:00.437500,-87.73,76.0
271,2018-06-29 08:45:00.468750,-63.2,76.0
272,2018-06-29 08:45:00.500000,-46.15,76.0
273,2018-06-29 08:45:00.531250,-42.94,76.0
274,2018-06-29 08:45:00.562500,-51.5,76.0
275,2018-06-29 08:45:00.593750,-63.16,76.0
276,2018-06-29 08:45:00.625000,-64.24,76.0
277,2018-06-29 08:45:00.656250,-48.75,76.0
278,2018-06-29 08:45:00.687500,-28.05,76.0
279,2018-06-29 08:45:00.718750,-15.52,76.0
280,2018-06-29 08:45:00.750000,-7.79,76.0
281,2018-06-29 08:45:00.781250,5.34,76.0
282,2018-06-29 08:45:00.812500,22.76,76.0
283,2018-06-29 08:45:00.843750,36.84,76.0
284,2018-06-29 08:45:00.875000,47.08,76.0
285,2018-06-29 08:45:00.906250,60.42,76.0
286,2018-06-29 08:45:00.937500,79.6,76.0
287,2018-06-29 08:45:00.968750,98.07,76.0
288,2018-06-29 08:45:01.000000,114.27,76.0
289,2018-06-29 08:45:01.031250,139.24,76.0
290,2018-06-29 08:45:01.062500,171.89,76.0
291,2018-06-29 08:45:01.093750,180.44,76.0
292,2018-06-29 08:45:01.125000,133.48,76.0
293,2018-06-29 08:45:01.156250,38.28,76.0
294,2018-06-29 08:45:01.187500,-71.28,76.0
295,2018-06-29 08:45:01.218750,-173.55,76.0
296,2018-06-29 08:45:01.250000,-271.84,76.0
297,2018-06-29 08:45:01.281250,-380.03,76.0
298,2018-06-29 08:45:01.312500,-489.55,76.0
299,2018-06-29 08:45:01.343750,-546.41,76.0
300,2018-06-29 08:45:01.375000,-491.34,76.0
301,2018-06-29 08:45:01.406250,-328.13,76.0
302,2018-06-29 08:45:01.437500,-123.97,76.0
303,2018-06-29 08:45:01.468750,50.9,76.0
304,2018-06-29 08:45:01.500000,161.67,76.0
305,2018-06-29 08:45:01.531250,210.09,76.0
306,2018-06-29 08:45:01.562500,220.79,76.0
307,2018-06-29 08:45:01.593750,216.44,76.0
308,2018-06-29 08:45:01.625000,201.3,76.0
309,2018-06-29 08:45:01.656250,170.19,76.0
310,2018-06-29 08:45:01.687500,125.13,76.0
311,2018-06-29 08:45:01.718750,82.14,76.0
312,2018-06-29 08:45:01.750000,58.89,76.0
313,2018-06-29 08:45:01.781250,55.22,76.0
314,2018-06-29 08:45:01.812500,55.74,76.0
315,2018-06-29 08:45:01.843750,50.5,76.0
316,2018-06-29 08:45:01.875000,43.23,76.0
317,2018-06-29 08:45:01.906250,40.27,76.0
318,2018-06-29 08:45:01.937500,40.84,76.0
319,2018-06-29 08:45:01.968750,39.67,76.0
320,2018-06-29 08:45:02.000000,34.43,76.0
321,2018-06-29 08:45:02.031250,26.84,76.0
322,2018-06-29 08:45:02.062500,19.19,76.0
323,2018-06-29 08:45:02.093750,12.8,76.0
324,2018-06-29 08:45:02.125000,8.96,76.0
325,2018-06-29 08:45:02.156250,7.66,76.0
326,2018-06-29 08:45:02.187500,6.59,76.0
327,2018-06-29 08:45:02.218750,4.2,76.0
328,2018-06-29 08:45:02.250000,2.14,76.0
329,2018-06-29 08:45:02.281250,2.17,76.0
330,2018-06-29 08:45:02.312500,3.41,76.0
331,2018-06-29 08:45:02.343750,5.05,76.0
332,2018-06-29 08:45:02.375000,7.72,76.0
333,2018-06-29 08:45:02.406250,10.78,76.0
334,2018-06-29 08:45:02.437500,12.76,76.0
335,2018-06-29 08:45:02.468750,14.04,76.0
336,2018-06-29 08:45:02.500000,15.81,76.0
337,2018-06-29 08:45:02.531250,17.35,80.5
338,2018-06-29 08:45:02.562500,16.89,80.5
339,2018-06-29 08:45:02.593750,14.94,80.5
340,2018-06-29 08:45:02.625000,15.3,80.5
341,2018-06-29 08:45:02.656250,20.85,80.5
342,2018-06-29 08:45:02.687500,30.31,80.5
343,2018-06-29 08:45:02.718750,41.51,80.5
344,2018-06-29 08:45:02.750000,53.31,80.5
345,2018-06-29 08:45:02.781250,62.9,80.5
346,2018-06-29 08:45:02.812500,68.01,80.5
347,2018-06-29 08:45:02.843750,70.11,80.5
348,2018-06-29 08:45:02.875000,69.86,80.5
349,2018-06-29 08:45:02.906250,66.56,80.5
350,2018-06-29 08:45:02.937500,65.06,80.5
351,2018-06-29 08:45:02.968750,72.67,80.5
352,2018-06-29 08:45:03.000000,88.43,80.5
353,2018-06-29 08:45:03.031250,103.01,80.5
354,2018-06-29 08:45:03.062500,105.84,80.5
355,2018-06-29 08:45:03.093750,88.98,80.5
356,2018-06-29 08:45:03.125000,51.05,80.5
357,2018-06-29 08:45:03.156250,2.54,80.5
358,2018-06-29 08:45:03.187500,-36.24,80.5
359,2018-06-29 08:45:03.218750,-48.58,80.5
360,2018-06-29 08:45:03.250000,-37.03,80.5
361,2018-06-29 08:45:03.281250,-21.19,80.5
362,2018-06-29 08:45:03.312500,-15.84,80.5
363,2018-06-29 08:45:03.343750,-17.95,80.5
364,2018-06-29 08:45:03.375000,-18.6,80.5
365,2018-06-29 08:45:03.406250,-16.41,80.5
366,2018-06-29 08:45:03.437500,-14.01,80.5
367,2018-06-29 08:45:03.468750,-11.49,80.5
368,2018-06-29 08:45:03.500000,-8.17,80.5
369,2018-06-29 08:45:03.531250,-4.57,80.0
370,2018-06-29 08:45:03.562500,-0.82,80.0
371,2018-06-29 08:45:03.593750,3.43,80.0
372,2018-06-29 08:45:03.625000,7.65,80.0
373,2018-06-29 08:45:03.656250,10.29,80.0
374,2018-06-29 08:45:03.687500,9.74,80.0
375,2018-06-29 08:45:03.718750,6.47,80.0
376,2018-06-29 08:45:03.750000,3.93,80.0
377,2018-06-29 08:45:03.781250,4.33,80.0
378,2018-06-29 08:45:03.812500,5.37,80.0
379,2018-06-29 08:45:03.843750,4.39,80.0
380,2018-06-29 08:45:03.875000,2.71,80.0
381,2018-06-29 08:45:03.906250,2.32,80.0
382,2018-06-29 08:45:03.937500,1.92,80.0
383,2018-06-29 08:45:03.968750,-0.22,80.0
384,2018-06-29 08:45:04.000000,-3.12,80.0
385,2018-06-29 08:45:04.031250,-5.13,80.0
386,2018-06-29 08:45:04.062500,-6.22,80.0
387,2018-06-29 08:45:04.093750,-7.33,80.0
388,2018-06-29 08:45:04.125000,-9.3,80.0
389,2018-06-29 08:45:04.156250,-12.46,80.0
390,2018-06-29 08:45:04.187500,-16.35,80.0
391,2018-06-29 08:45:04.218750,-20.1,80.0
392,2018-06-29 08:45:04.250000,-23.66,80.0
393,2018-06-29 08:45:04.281250,-27.89,80.0
394,2018-06-29 08:45:04.312500,-33.1,80.0
395,2018-06-29 08:45:04.343750,-38.27,80.0
396,2018-06-29 08:45:04.375000,-42.83,80.0
397,2018-06-29 08:45:04.406250,-48.28,80.0
398,2018-06-29 08:45:04.437500,-56.29,80.0
399,2018-06-29 08:45:04.468750,-64.79,80.0
400,2018-06-29 08:45:04.500000,-67.53,80.0
401,2018-06-29 08:45:04.531250,-59.47,85.0
402,2018-06-29 08:45:04.562500,-42.63,85.0
403,2018-06-29 08:45:04.593750,-24.43,85.0
404,2018-06-29 08:45:04.625000,-10.27,85.0
405,2018-06-29 08:45:04.656250,0.07,85.0
406,2018-06-29 08:45:04.687500,8.86,85.0
407,2018-06-29 08:45:04.718750,16.66,85.0
408,2018-06-29 08:45:04.750000,22.29,85.0
409,2018-06-29 08:45:04.781250,24.83,85.0
410,2018-06-29 08:45:04.812500,24.83,85.0
411,2018-06-29 08:45:04.843750,23.96,85.0
412,2018-06-29 08:45:04.875000,23.57,85.0
413,2018-06-29 08:45:04.906250,23.79,85.0
414,2018-06-29 08:45:04.937500,23.8,85.0
415,2018-06-29 08:45:04.968750,23.11,85.0
416,2018-06-29 08:45:05.000000,22.07,85.0
417,2018-06-29 08:45:05.031250,20.73,85.0
418,2018-06-29 08:45:05.062500,18.25,85.0
419,2018-06-29 08:45:05.093750,14.76,85.0
420,2018-06-29 08:45:05.125000,11.85,85.0
421,2018-06-29 08:45:05.156250,9.98,85.0
422,2018-06-29 08:45:05.187500,7.89,85.0
423,2018-06-29 08:45:05.218750,5.58,85.0
424,2018-06-29 08:45:05.250000,4.39,85.0
425,2018-06-29 08:45:05.281250,3.54,85.0
426,2018-06-29 08:45:05.312500,1.11,85.0
427,2018-06-29 08:45:05.343750,-2.27,85.0
428,2018-06-29 08:45:05.375000,-5.17,85.0
429,2018-06-29 08:45:05.406250,-8.11,85.0
430,2018-06-29 08:45:05.437500,-10.85,85.0
431,2018-06-29 08:45:05.468750,-11.56,85.0
432,2018-06-29 08:45:05.500000,-10.92,85.0
433,2018-06-29 08:45:05.531250,-11.96,78.4
434,2018-06-29 08:45:05.562500,-15.28,78.4
435,2018-06-29 08:45:05.593750,-19.38,78.4
436,2018-06-29 08:45:05.625000,-24.07,78.4
437,2018-06-29 08:45:05.656250,-29.34,78.4
438,2018-06-29 08:45:05.687500,-33.91,78.4
439,2018-06-29 08:45:05.718750,-37.9,78.4
440,2018-06-29 08:45:05.750000,-43.73,78.4
441,2018-06-29 08:45:05.781250,-52.48,78.4
442,2018-06-29 08:45:05.812500,-61.01,78.4
443,2018-06-29 08:45:05.843750,-63.55,78.4
444,2018-06-29 08:45:05.875000,-56.15,78.4
445,2018-06-29 08:45:05.906250,-40.58,78.4
446,2018-06-29 08:45:05.937500,-23.11,78.4
447,2018-06-29 08:45:05.968750,-8.76,78.4
448,2018-06-29 08:45:06.000000,1.89,78.4
449,2018-06-29 08:45:06.031250,10.3,78.4
450,2018-06-29 08:45:06.062500,17.13,78.4
451,2018-06-29 08:45:06.093750,22.3,78.4
452,2018-06-29 08:45:06.125000,25.92,78.4
453,2018-06-29 08:45:06.156250,28.12,78.4
454,2018-06-29 08:45:06.187500,28.78,78.4
455,2018-06-29 08:45:06.218750,28.43,78.4
456,2018-06-29 08:45:06.250000,28.42,78.4
457,2018-06-29 08:45:06.281250,28.73,78.4
458,2018-06-29 08:45:06.312500,27.6,78.4
459,2018-06-29 08:45:06.343750,24.4,78.4
460,2018-06-29 08:45:06.375000,21.02,78.4
461,2018-06-29 08:45:06.406250,18.94,78.4
462,2018-06-29 08:45:06.437500,17.17,78.4
463,2018-06-29 08:45:06.468750,14.59,78.4
464,2018-06-29 08:45:06.500000,11.74,78.4
465,2018-06-29 08:45:06.531250,9.29,74.17
466,2018-06-29 08:45:06.562500,7.02,74.17
467,2018-06-29 08:45:06.593750,4.95,74.17
468,2018-06-29 08:45:06.625000,3.32,74.17
469,2018-06-29 08:45:06.656250,1.85,74.17
470,2018-06-29 08:45:06.687500,-0.11,74.17
471,2018-06-29 08:45:06.718750,-2.75,74.17
472,2018-06-29 08:45:06.750000,-5.98,74.17
473,2018-06-29 08:45:06.781250,-9.82,74.17
474,2018-06-29 08:45:06.812500,-13.91,74.17
475,2018-06-29 08:45:06.843750,-17.48,74.17
476,2018-06-29 08:45:06.875000,-20.35,74.17
477,2018-06-29 08:45:06.906250,-23.73,74.17
478,2018-06-29 08:45:06.937500,-28.4,74.17
479,2018-06-29 08:45:06.968750,-32.93,74.17
480,2018-06-29 08:45:07.000000,-36.19,74.17
481,2018-06-29 08:45:07.031250,-40.14,74.17
482,2018-06-29 08:45:07.062500,-47.59,74.17
483,2018-06-29 08:45:07.093750,-57.85,74.17
484,2018-06-29 08:45:07.125000,-65.6,74.17
485,2018-06-29 08:45:07.156250,-64.38,74.17
486,2018-06-29 08:45:07.187500,-52.4,74.17
487,2018-06-29 08:45:07.218750,-34.7,74.17
488,2018-06-29 08:45:07.250000,-18.2,74.17
489,2018-06-29 08:45:07.281250,-5.47,74.17
490,2018-06-29 08:45:07.312500,4.93,74.17
491,2018-06-29 08:45:07.343750,14.49,74.17
492,2018-06-29 08:45:07.375000,23.03,74.17
493,2018-06-29 08:45:07.406250,29.38,74.17
494,2018-06-29 08:45:07.437500,32.57,74.17
495,2018-06-29 08:45:07.468750,32.93,74.17
496,2018-06-29 08:45:07.500000,32.27,74.17
497,2018-06-29 08:45:07.531250,32.74,71.14
498,2018-06-29 08:45:07.562500,34.81,71.14
499,2018-06-29 08:45:07.593750,36.49,71.14
500,2018-06-29 08:45:07.625000,35.55,71.14
501,2018-06-29 08:45:07.656250,32.34,71.14
502,2018-06-29 08:45:07.687500,28.82,71.14
503,2018-06-29 08:45:07.718750,26.01,71.14
504,2018-06-29 08:45:07.750000,23.62,71.14
505,2018-06-29 08:45:07.781250,21.05,71.14
506,2018-06-29 08:45:07.812500,17.86,71.14
507,2018-06-29 08:45:07.843750,14.43,71.14
508,2018-06-29 08:45:07.875000,11.99,71.14
509,2018-06-29 08:45:07.906250,10.76,71.14
510,2018-06-29 08:45:07.937500,9.66,71.14
511,2018-06-29 08:45:07.968750,8.59,71.14
512,2018-06-29 08:45:08.000000,8.18,71.14
513,2018-06-29 08:45:08.031250,7.26,71.14
514,2018-06-29 08:45:08.062500,4.58,71.14
515,2018-06-29 08:45:08.093750,1.66,71.14
516,2018-06-29 08:45:08.125000,0.17,71.14
517,2018-06-29 08:45:08.156250,-1.21,71.14
518,2018-06-29 08:45:08.187500,-4.12,71.14
519,2018-06-29 08:45:08.218750,-7.67,71.14
520,2018-06-29 08:45:08.250000,-10.27,71.14
521,2018-06-29 08:45:08.281250,-12.24,71.14
522,2018-06-29 08:45:08.312500,-15.69,71.14
523,2018-06-29 08:45:08.343750,-21.88,71.14
524,2018-06-29 08:45:08.375000,-28.97,71.14
525,2018-06-29 08:45:08.406250,-34.64,71.14
526,2018-06-29 08:45:08.437500,-40.38,71.14
527,2018-06-29 08:45:08.468750,-49.7,71.14
528,2018-06-29 08:45:08.500000,-62.48,71.14
529,2018-06-29 08:45:08.531250,-73.68,68.88
530,2018-06-29 08:45:08.562500,-76.84,68.88
531,2018-06-29 08:45:08.593750,-68.73,68.88
532,2018-06-29 08:45:08.625000,-52.17,68.88
533,2018-06-29 08:45:08.656250,-34.08,68.88
534,2018-06-29 08:45:08.687500,-19.64,68.88
535,2018-06-29 08:45:08.718750,-8.75,68.88
536,2018-06-29 08:45:08.750000,1.49,68.88
537,2018-06-29 08:45:08.781250,11.8,68.88
538,2018-06-29 08:45:08.812500,20.13,68.88
539,2018-06-29 08:45:08.843750,25.82,68.88
540,2018-06-29 08:45:08.875000,30.79,68.88
541,2018-06-29 08:45:08.906250,36.42,68.88
542,2018-06-29 08:45:08.937500,42.47,68.88
543,2018-06-29 08:45:08.968750,48.21,68.88
544,2018-06-29 08:45:09.000000,52.01,68.88
545,2018-06-29 08:45:09.031250,51.85,68.88
546,2018-06-29 08:45:09.062500,48.06,68.88
547,2018-06-29 08:45:09.093750,43.3,68.88
548,2018-06-29 08:45:09.125000,39.5,68.88
549,2018-06-29 08:45:09.156250,36.47,68.88
550,2018-06-29 08:45:09.187500,33.06,68.88
551,2018-06-29 08:45:09.218750,28.95,68.88
552,2018-06-29 08:45:09.250000,25.14,68.88
553,2018-06-29 08:45:09.281250,22.25,68.88
554,2018-06-29 08:45:09.312500,18.89,68.88
555,2018-06-29 08:45:09.343750,13.78,68.88
556,2018-06-29 08:45:09.375000,8.52,68.88
557,2018-06-29 08:45:09.406250,5.41,68.88
558,2018-06-29 08:45:09.437500,3.4,68.88
559,2018-06-29 08:45:09.468750,-0.02,68.88
560,2018-06-29 08:45:09.500000,-4.37,68.88
561,2018-06-29 08:45:09.531250,-7.29,66.78
562,2018-06-29 08:45:09.562500,-8.83,66.78
563,2018-06-29 08:45:09.593750,-11.13,66.78
564,2018-06-29 08:45:09.625000,-15.39,66.78
565,2018-06-29 08:45:09.656250,-20.9,66.78
566,2018-06-29 08:45:09.687500,-26.46,66.78
567,2018-06-29 08:45:09.718750,-31.99,66.78
568,2018-06-29 08:45:09.750000,-39.5,66.78
569,2018-06-29 08:45:09.781250,-51.74,66.78
570,2018-06-29 08:45:09.812500,-67.99,66.78
571,2018-06-29 08:45:09.843750,-81.42,66.78
572,2018-06-29 08:45:09.875000,-83.44,66.78
573,2018-06-29 08:45:09.906250,-72.36,66.78
574,2018-06-29 08:45:09.937500,-55.62,66.78
575,2018-06-29 08:45:09.968750,-41.73,66.78
576,2018-06-29 08:45:10.000000,-32.15,66.78
577,2018-06-29 08:45:10.031250,-23.87,66.78
578,2018-06-29 08:45:10.062500,-16.26,66.78
579,2018-06-29 08:45:10.093750,-10.61,66.78
580,2018-06-29 08:45:10.125000,-5.51,66.78
581,2018-06-29 08:45:10.156250,2.58,66.78
582,2018-06-29 08:45:10.187500,15.41,66.78
583,2018-06-29 08:45:10.218750,31.73,66.78
584,2018-06-29 08:45:10.250000,47.79,66.78
585,2018-06-29 08:45:10.281250,58.76,66.78
586,2018-06-29 08:45:10.312500,62.51,66.78
587,2018-06-29 08:45:10.343750,61.91,66.78
588,2018-06-29 08:45:10.375000,61.81,66.78
589,2018-06-29 08:45:10.406250,64.14,66.78
590,2018-06-29 08:45:10.437500,66.86,66.78
591,2018-06-29 08:45:10.468750,66.93,66.78
592,2018-06-29 08:45:10.500000,63.37,66.78
593,2018-06-29 08:45:10.531250,57.62,65.0
594,2018-06-29 08:45:10.562500,50.85,65.0
595,2018-06-29 08:45:10.593750,41.14,65.0
596,2018-06-29 08:45:10.625000,25.38,65.0
597,2018-06-29 08:45:10.656250,5.03,65.0
598,2018-06-29 08:45:10.687500,-13.54,65.0
599,2018-06-29 08:45:10.718750,-26.19,65.0
600,2018-06-29 08:45:10.750000,-34.77,65.0
601,2018-06-29 08:45:10.781250,-42.74,65.0
602,2018-06-29 08:45:10.812500,-50.89,65.0
603,2018-06-29 08:45:10.843750,-58.46,65.0
604,2018-06-29 08:45:10.875000,-65.44,65.0
605,2018-06-29 08:45:10.906250,-72.7,65.0
606,2018-06-29 08:45:10.937500,-80.94,65.0
607,2018-06-29 08:45:10.968750,-89.71,65.0
608,2018-06-29 08:45:11.000000,-97.81,65.0
609,2018-06-29 08:45:11.031250,-105.5,65.0
610,2018-06-29 08:45:11.062500,-115.64,65.0
611,2018-06-29 08:45:11.093750,-130.17,65.0
612,2018-06-29 08:45:11.125000,-144.21,65.0
613,2018-06-29 08:45:11.156250,-147.37,65.0
614,2018-06-29 08:45:11.187500,-133.97,65.0
615,2018-06-29 08:45:11.218750,-108.81,65.0
616,2018-06-29 08:45:11.250000,-80.8,65.0
617,2018-06-29 08:45:11.281250,-55.11,65.0
618,2018-06-29 08:45:11.312500,-32.61,65.0
619,2018-06-29 08:45:11.343750,-12.44,65.0
620,2018-06-29 08:45:11.375000,5.79,65.0
621,2018-06-29 08:45:11.406250,20.79,65.0
622,2018-06-29 08:45:11.437500,31.38,65.0
623,2018-06-29 08:45:11.468750,38.16,65.0
624,2018-06-29 08:45:11.500000,42.28,65.0
625,2018-06-29 08:45:11.531250,45.25,64.09
626,2018-06-29 08:45:11.562500,49.77,64.09
627,2018-06-29 08:45:11.593750,57.29,64.09
628,2018-06-29 08:45:11.625000,65.85,64.09
629,2018-06-29 08:45:11.656250,72.71,64.09
630,2018-06-29 08:45:11.687500,77.8,64.09
631,2018-06-29 08:45:11.718750,83.45,64.09
632,2018-06-29 08:45:11.750000,91.54,64.09
633,2018-06-29 08:45:11.781250,101.49,64.09
634,2018-06-29 08:45:11.812500,110.69,64.09
635,2018-06-29 08:45:11.843750,116.5,64.09
636,2018-06-29 08:45:11.875000,117.57,64.09
637,2018-06-29 08:45:11.906250,113.42,64.09
638,2018-06-29 08:45:11.937500,104.03,64.09
639,2018-06-29 08:45:11.968750,90.59,64.09
640,2018-06-29 08:45:12.000000,74.28,64.09
641,2018-06-29 08:45:12.031250,55.03,64.09
642,2018-06-29 08:45:12.062500,34.53,64.09
643,2018-06-29 08:45:12.093750,17.84,64.09
644,2018-06-29 08:45:12.125000,6.37,64.09
645,2018-06-29 08:45:12.156250,-5.64,64.09
646,2018-06-29 08:45:12.187500,-20.75,64.09
647,2018-06-29 08:45:12.218750,-31.65,64.09
648,2018-06-29 08:45:12.250000,-31.07,64.09
649,2018-06-29 08:45:12.281250,-21.85,64.09
650,2018-06-29 08:45:12.312500,-11.61,64.09
651,2018-06-29 08:45:12.343750,-2.84,64.09
652,2018-06-29 08:45:12.375000,5.91,64.09
653,2018-06-29 08:45:12.406250,12.81,64.09
654,2018-06-29 08:45:12.437500,13.91,64.09
655,2018-06-29 08:45:12.468750,10.37,64.09
656,2018-06-29 08:45:12.500000,7.68,64.09
657,2018-06-29 08:45:12.531250,8.24,63.33
658,2018-06-29 08:45:12.562500,10.92,63.33
659,2018-06-29 08:45:12.593750,15.43,63.33
660,2018-06-29 08:45:12.625000,21.2,63.33
661,2018-06-29 08:45:12.656250,24.92,63.33
662,2018-06-29 08:45:12.687500,23.88,63.33
663,2018-06-29 08:45:12.718750,19.21,63.33
664,2018-06-29 08:45:12.750000,13.81,63.33
665,2018-06-29 08:45:12.781250,9.49,63.33
666,2018-06-29 08:45:12.812500,6.61,63.33
667,2018-06-29 08:45:12.843750,4.3,63.33
668,2018-06-29 08:45:12.875000,0.81,63.33
669,2018-06-29 08:45:12.906250,-4.78,63.33
670,2018-06-29 08:45:12.937500,-11.34,63.33
671,2018-06-29 08:45:12.968750,-17.48,63.33
672,2018-06-29 08:45:13.000000,-24.07,63.33
673,2018-06-29 08:45:13.031250,-33.78,63.33
674,2018-06-29 08:45:13.062500,-47.86,63.33
675,2018-06-29 08:45:13.093750,-62.86,63.33
676,2018-06-29 08:45:13.125000,-70.69,63.33
677,2018-06-29 08:45:13.156250,-64.6,63.33
678,2018-06-29 08:45:13.187500,-46.14,63.33
679,2018-06-29 08:45:13.218750,-23.56,63.33
680,2018-06-29 08:45:13.250000,-3.03,63.33
681,2018-06-29 08:45:13.281250,15.02,63.33
682,2018-06-29 08:45:13.312500,31.39,63.33
683,2018-06-29 08:45:13.343750,44.36,63.33
684,2018-06-29 08:45:13.375000,51.47,63.33
685,2018-06-29 08:45:13.406250,53.13,63.33
686,2018-06-29 08:45:13.437500,53.0,63.33
687,2018-06-29 08:45:13.468750,54.33,63.33
688,2018-06-29 08:45:13.500000,57.05,63.33
689,2018-06-29 08:45:13.531250,59.13,62.69
690,2018-06-29 08:45:13.562500,59.26,62.69
691,2018-06-29 08:45:13.593750,57.21,62.69
692,2018-06-29 08:45:13.625000,53.03,62.69
693,2018-06-29 08:45:13.656250,47.78,62.69
694,2018-06-29 08:45:13.687500,43.47,62.69
695,2018-06-29 08:45:13.718750,40.47,62.69
696,2018-06-29 08:45:13.750000,37.09,62.69
697,2018-06-29 08:45:13.781250,32.94,62.69
698,2018-06-29 08:45:13.812500,29.65,62.69
699,2018-06-29 08:45:13.843750,27.2,62.69
700,2018-06-29 08:45:13.875000,24.01,62.69
701,2018-06-29 08:45:13.906250,20.24,62.69
702,2018-06-29 08:45:13.937500,16.79,62.69
703,2018-06-29 08:45:13.968750,13.25,62.69
704,2018-06-29 08:45:14.000000,9.49,62.69
705,2018-06-29 08:45:14.031250,6.23,62.69
706,2018-06-29 08:45:14.062500,3.22,62.69
707,2018-06-29 08:45:14.093750,-0.47,62.69
708,2018-06-29 08:45:14.125000,-4.84,62.69
709,2018-06-29 08:45:14.156250,-9.38,62.69
710,2018-06-29 08:45:14.187500,-13.95,62.69
711,2018-06-29 08:45:14.218750,-18.55,62.69
712,2018-06-29 08:45:14.250000,-23.33,62.69
713,2018-06-29 08:45:14.281250,-29.02,62.69
714,2018-06-29 08:45:14.312500,-36.08,62.69
715,2018-06-29 08:45:14.343750,-43.66,62.69
716,2018-06-29 08:45:14.375000,-50.49,62.69
717,2018-06-29 08:45:14.406250,-57.01,62.69
718,2018-06-29 08:45:14.437500,-65.83,62.69
719,2018-06-29 08:45:14.468750,-78.22,62.69
720,2018-06-29 08:45:14.500000,-88.93,62.69
721,2018-06-29 08:45:14.531250,-88.18,62.21
722,2018-06-29 08:45:14.562500,-72.53,62.21
723,2018-06-29 08:45:14.593750,-49.56,62.21
724,2018-06-29 08:45:14.625000,-28.61,62.21
725,2018-06-29 08:45:14.656250,-12.24,62.21
726,2018-06-29 08:45:14.687500,1.12,62.21
727,2018-06-29 08:45:14.718750,12.46,62.21
728,2018-06-29 08:45:14.750000,21.82,62.21
729,2018-06-29 08:45:14.781250,28.51,62.21
730,2018-06-29 08:45:14.812500,31.91,62.21
731,2018-06-29 08:45:14.843750,33.18,62.21
732,2018-06-29 08:45:14.875000,34.89,62.21
733,2018-06-29 08:45:14.906250,37.78,62.21
734,2018-06-29 08:45:14.937500,40.2,62.21
735,2018-06-29 08:45:14.968750,40.74,62.21
736,2018-06-29 08:45:15.000000,39.33,62.21
737,2018-06-29 08:45:15.031250,36.47,62.21
738,2018-06-29 08:45:15.062500,32.71,62.21
739,2018-06-29 08:45:15.093750,28.61,62.21
740,2018-06-29 08:45:15.125000,24.73,62.21
741,2018-06-29 08:45:15.156250,21.61,62.21
742,2018-06-29 08:45:15.187500,19.33,62.21
743,2018-06-29 08:45:15.218750,17.22,62.21
744,2018-06-29 08:45:15.250000,14.8,62.21
745,2018-06-29 08:45:15.281250,12.12,62.21
746,2018-06-29 08:45:15.312500,9.02,62.21
747,2018-06-29 08:45:15.343750,5.28,62.21
748,2018-06-29 08:45:15.375000,1.09,62.21
749,2018-06-29 08:45:15.406250,-3.46,62.21
750,2018-06-29 08:45:15.437500,-8.33,62.21
751,2018-06-29 08:45:15.468750,-12.86,62.21
752,2018-06-29 08:45:15.500000,-16.94,62.21
753,2018-06-29 08:45:15.531250,-22.12,61.33
754,2018-06-29 08:45:15.562500,-29.25,61.33
755,2018-06-29 08:45:15.593750,-36.45,61.33
756,2018-06-29 08:45:15.625000,-42.08,61.33
757,2018-06-29 08:45:15.656250,-47.54,61.33
758,2018-06-29 08:45:15.687500,-55.62,61.33
759,2018-06-29 08:45:15.718750,-67.15,61.33
760,2018-06-29 08:45:15.750000,-78.1,61.33
761,2018-06-29 08:45:15.781250,-80.14,61.33
762,2018-06-29 08:45:15.812500,-68.19,61.33
763,2018-06-29 08:45:15.843750,-47.52,61.33
764,2018-06-29 08:45:15.875000,-28.49,61.33
765,2018-06-29 08:45:15.906250,-15.46,61.33
766,2018-06-29 08:45:15.937500,-5.53,61.33
767,2018-06-29 08:45:15.968750,4.67,61.33
768,2018-06-29 08:45:16.000000,14.81,61.33
769,2018-06-29 08:45:16.031250,22.72,61.33
770,2018-06-29 08:45:16.062500,27.4,61.33
771,2018-06-29 08:45:16.093750,29.63,61.33
772,2018-06-29 08:45:16.125000,30.78,61.33
773,2018-06-29 08:45:16.156250,32.2,61.33
774,2018-06-29 08:45:16.187500,34.63,61.33
775,2018-06-29 08:45:16.218750,37.05,61.33
776,2018-06-29 08:45:16.250000,37.36,61.33
777,2018-06-29 08:45:16.281250,34.83,61.33
778,2018-06-29 08:45:16.312500,30.93,61.33
779,2018-06-29 08:45:16.343750,27.58,61.33
780,2018-06-29 08:45:16.375000,25.3,61.33
781,2018-06-29 08:45:16.406250,23.46,61.33
782,2018-06-29 08:45:16.437500,21.46,61.33
783,2018-06-29 08:45:16.468750,18.98,61.33
784,2018-06-29 08:45:16.500000,15.95,61.33
785,2018-06-29 08:45:16.531250,13.08,60.62
786,2018-06-29 08:45:16.562500,10.99,60.62
787,2018-06-29 08:45:16.593750,8.77,60.62
788,2018-06-29 08:45:16.625000,5.81,60.62
789,2018-06-29 08:45:16.656250,3.15,60.62
790,2018-06-29 08:45:16.687500,0.97,60.62
791,2018-06-29 08:45:16.718750,-2.02,60.62
792,2018-06-29 08:45:16.750000,-5.79,60.62
793,2018-06-29 08:45:16.781250,-9.43,60.62
794,2018-06-29 08:45:16.812500,-13.37,60.62
795,2018-06-29 08:45:16.843750,-18.07,60.62
796,2018-06-29 08:45:16.875000,-23.04,60.62
797,2018-06-29 08:45:16.906250,-28.36,60.62
798,2018-06-29 08:45:16.937500,-34.21,60.62
799,2018-06-29 08:45:16.968750,-39.49,60.62
800,2018-06-29 08:45:17.000000,-43.82,60.62
801,2018-06-29 08:45:17.031250,-49.33,60.62
802,2018-06-29 08:45:17.062500,-58.1,60.62
803,2018-06-29 08:45:17.093750,-68.09,60.62
804,2018-06-29 08:45:17.125000,-72.6,60.62
805,2018-06-29 08:45:17.156250,-65.51,60.62
806,2018-06-29 08:45:17.187500,-48.18,60.62
807,2018-06-29 08:45:17.218750,-28.75,60.62
808,2018-06-29 08:45:17.250000,-13.82,60.62
809,2018-06-29 08:45:17.281250,-3.75,60.62
810,2018-06-29 08:45:17.312500,4.34,60.62
811,2018-06-29 08:45:17.343750,12.05,60.62
812,2018-06-29 08:45:17.375000,18.49,60.62
813,2018-06-29 08:45:17.406250,22.42,60.62
814,2018-06-29 08:45:17.437500,24.13,60.62
815,2018-06-29 08:45:17.468750,24.85,60.62
816,2018-06-29 08:45:17.500000,25.38,60.62
817,2018-06-29 08:45:17.531250,26.3,60.0
818,2018-06-29 08:45:17.562500,27.99,60.0
819,2018-06-29 08:45:17.593750,29.5,60.0
820,2018-06-29 08:45:17.625000,29.35,60.0
821,2018-06-29 08:45:17.656250,27.57,60.0
822,2018-06-29 08:45:17.687500,25.43,60.0
823,2018-06-29 08:45:17.718750,23.47,60.0
824,2018-06-29 08:45:17.750000,21.17,60.0
825,2018-06-29 08:45:17.781250,18.53,60.0
826,2018-06-29 08:45:17.812500,16.14,60.0
827,2018-06-29 08:45:17.843750,14.01,60.0
828,2018-06-29 08:45:17.875000,11.68,60.0
829,2018-06-29 08:45:17.906250,9.27,60.0
830,2018-06-29 08:45:17.937500,7.17,60.0
831,2018-06-29 08:45:17.968750,5.36,60.0
832,2018-06-29 08:45:18.000000,3.63,60.0
833,2018-06-29 08:45:18.031250,1.71,60.0
834,2018-06-29 08:45:18.062500,-0.97,60.0
835,2018-06-29 08:45:18.093750,-4.69,60.0
836,2018-06-29 08:45:18.125000,-8.68,60.0
837,2018-06-29 08:45:18.156250,-12.22,60.0
838,2018-06-29 08:45:18.187500,-16.09,60.0
839,2018-06-29 08:45:18.218750,-21.23,60.0
840,2018-06-29 08:45:18.250000,-26.85,60.0
841,2018-06-29 08:45:18.281250,-31.67,60.0
842,2018-06-29 08:45:18.312500,-36.33,60.0
843,2018-06-29 08:45:18.343750,-42.71,60.0
844,2018-06-29 08:45:18.375000,-51.9,60.0
845,2018-06-29 08:45:18.406250,-62.36,60.0
846,2018-06-29 08:45:18.437500,-68.08,60.0
847,2018-06-29 08:45:18.468750,-62.09,60.0
848,2018-06-29 08:45:18.500000,-45.0,60.0
849,2018-06-29 08:45:18.531250,-25.75,59.33
850,2018-06-29 08:45:18.562500,-11.68,59.33
851,2018-06-29 08:45:18.593750,-2.52,59.33
852,2018-06-29 08:45:18.625000,5.11,59.33
853,2018-06-29 08:45:18.656250,12.46,59.33
854,2018-06-29 08:45:18.687500,18.45,59.33
855,2018-06-29 08:45:18.718750,21.78,59.33
856,2018-06-29 08:45:18.750000,22.64,59.33
857,2018-06-29 08:45:18.781250,22.87,59.33
858,2018-06-29 08:45:18.812500,24.27,59.33
859,2018-06-29 08:45:18.843750,27.0,59.33
860,2018-06-29 08:45:18.875000,29.89,59.33
861,2018-06-29 08:45:18.906250,31.25,59.33
862,2018-06-29 08:45:18.937500,29.94,59.33
863,2018-06-29 08:45:18.968750,26.72,59.33
864,2018-06-29 08:45:19.000000,23.92,59.33
865,2018-06-29 08:45:19.031250,22.29,59.33
866,2018-06-29 08:45:19.062500,20.24,59.33
867,2018-06-29 08:45:19.093750,17.13,59.33
868,2018-06-29 08:45:19.125000,14.4,59.33
869,2018-06-29 08:45:19.156250,12.44,59.33
870,2018-06-29 08:45:19.187500,9.93,59.33
871,2018-06-29 08:45:19.218750,7.11,59.33
872,2018-06-29 08:45:19.250000,5.54,59.33
873,2018-06-29 08:45:19.281250,4.33,59.33
874,2018-06-29 08:45:19.312500,1.11,59.33
875,2018-06-29 08:45:19.343750,-3.96,59.33
876,2018-06-29 08:45:19.375000,-8.7,59.33
877,2018-06-29 08:45:19.406250,-12.3,59.33
878,2018-06-29 08:45:19.437500,-15.79,59.33
879,2018-06-29 08:45:19.468750,-20.19,59.33
880,2018-06-29 08:45:19.500000,-25.31,59.33
881,2018-06-29 08:45:19.531250,-30.39,58.74
882,2018-06-29 08:45:19.562500,-35.71,58.74
883,2018-06-29 08:45:19.593750,-43.2,58.74
884,2018-06-29 08:45:19.625000,-54.0,58.74
885,2018-06-29 08:45:19.656250,-64.66,58.74
886,2018-06-29 08:45:19.687500,-67.28,58.74
887,2018-06-29 08:45:19.718750,-56.93,58.74
888,2018-06-29 08:45:19.750000,-38.23,58.74
889,2018-06-29 08:45:19.781250,-20.37,58.74
890,2018-06-29 08:45:19.812500,-7.55,58.74
891,2018-06-29 08:45:19.843750,2.01,58.74
892,2018-06-29 08:45:19.875000,10.63,58.74
893,2018-06-29 08:45:19.906250,18.28,58.74
894,2018-06-29 08:45:19.937500,23.69,58.74
895,2018-06-29 08:45:19.968750,26.83,58.74
896,2018-06-29 08:45:20.000000,29.05,58.74
897,2018-06-29 08:45:20.031250,30.9,58.74
898,2018-06-29 08:45:20.062500,32.2,58.74
899,2018-06-29 08:45:20.093750,33.62,58.74
900,2018-06-29 08:45:20.125000,35.25,58.74
901,2018-06-29 08:45:20.156250,35.55,58.74
902,2018-06-29 08:45:20.187500,33.7,58.74
903,2018-06-29 08:45:20.218750,30.87,58.74
904,2018-06-29 08:45:20.250000,28.17,58.74
905,2018-06-29 08:45:20.281250,25.62,58.74
906,2018-06-29 08:45:20.312500,23.02,58.74
907,2018-06-29 08:45:20.343750,20.58,58.74
908,2018-06-29 08:45:20.375000,18.55,58.74
909,2018-06-29 08:45:20.406250,16.48,58.74
910,2018-06-29 08:45:20.437500,13.49,58.74
911,2018-06-29 08:45:20.468750,9.83,58.74
912,2018-06-29 08:45:20.500000,6.73,58.74
913,2018-06-29 08:45:20.531250,4.49,58.2
914,2018-06-29 08:45:20.562500,1.88,58.2
915,2018-06-29 08:45:20.593750,-1.96,58.2
916,2018-06-29 08:45:20.625000,-6.33,58.2
917,2018-06-29 08:45:20.656250,-9.93,58.2
918,2018-06-29 08:45:20.687500,-13.1,58.2
919,2018-06-29 08:45:20.718750,-17.72,58.2
920,2018-06-29 08:45:20.750000,-24.53,58.2
921,2018-06-29 08:45:20.781250,-31.82,58.2
922,2018-06-29 08:45:20.812500,-38.24,58.2
923,2018-06-29 08:45:20.843750,-45.23,58.2
924,2018-06-29 08:45:20.875000,-55.23,58.2
925,2018-06-29 08:45:20.906250,-67.16,58.2
926,2018-06-29 08:45:20.937500,-74.49,58.2
927,2018-06-29 08:45:20.968750,-69.99,58.2
928,2018-06-29 08:45:21.000000,-53.48,58.2
929,2018-06-29 08:45:21.031250,-32.62,58.2
930,2018-06-29 08:45:21.062500,-15.25,58.2
931,2018-06-29 08:45:21.093750,-3.52,58.2
932,2018-06-29 08:45:21.125000,4.82,58.2
933,2018-06-29 08:45:21.156250,12.46,58.2
934,2018-06-29 08:45:21.187500,20.21,58.2
935,2018-06-29 08:45:21.218750,26.72,58.2
936,2018-06-29 08:45:21.250000,30.37,58.2
937,2018-06-29 08:45:21.281250,31.61,58.2
938,2018-06-29 08:45:21.312500,32.72,58.2
939,2018-06-29 08:45:21.343750,34.96,58.2
940,2018-06-29 08:45:21.375000,37.44,58.2
941,2018-06-29 08:45:21.406250,38.57,58.2
942,2018-06-29 08:45:21.437500,37.55,58.2
943,2018-06-29 08:45:21.468750,34.91,58.2
944,2018-06-29 08:45:21.500000,32.15,58.2
945,2018-06-29 08:45:21.531250,30.3,57.71
946,2018-06-29 08:45:21.562500,28.53,57.71
947,2018-06-29 08:45:21.593750,25.62,57.71
948,2018-06-29 08:45:21.625000,22.24,57.71
949,2018-06-29 08:45:21.656250,19.86,57.71
950,2018-06-29 08:45:21.687500,18.18,57.71
951,2018-06-29 08:45:21.718750,15.88,57.71
952,2018-06-29 08:45:21.750000,12.97,57.71
953,2018-06-29 08:45:21.781250,10.13,57.71
954,2018-06-29 08:45:21.812500,7.11,57.71
955,2018-06-29 08:45:21.843750,3.37,57.71
956,2018-06-29 08:45:21.875000,-0.85,57.71
957,2018-06-29 08:45:21.906250,-5.16,57.71
958,2018-06-29 08:45:21.937500,-9.39,57.71
959,2018-06-29 08:45:21.968750,-13.66,57.71
960,2018-06-29 08:45:22.000000,-18.66,57.71
961,2018-06-29 08:45:22.031250,-24.73,57.71
962,2018-06-29 08:45:22.062500,-30.86,57.71
963,2018-06-29 08:45:22.093750,-36.06,57.71
964,2018-06-29 08:45:22.125000,-41.39,57.71
965,2018-06-29 08:45:22.156250,-49.36,57.71
966,2018-06-29 08:45:22.187500,-60.99,57.71
967,2018-06-29 08:45:22.218750,-72.3,57.71
968,2018-06-29 08:45:22.250000,-74.79,57.71
969,2018-06-29 08:45:22.281250,-63.27,57.71
970,2018-06-29 08:45:22.312500,-42.66,57.71
971,2018-06-29 08:45:22.343750,-22.89,57.71
972,2018-06-29 08:45:22.375000,-8.65,57.71
973,2018-06-29 08:45:22.406250,1.89,57.71
974,2018-06-29 08:45:22.437500,10.93,57.71
975,2018-06-29 08:45:22.468750,18.43,57.71
976,2018-06-29 08:45:22.500000,23.83,57.71
977,2018-06-29 08:45:22.531250,27.26,57.27
978,2018-06-29 08:45:22.562500,29.36,57.27
979,2018-06-29 08:45:22.593750,31.22,57.27
980,2018-06-29 08:45:22.625000,33.99,57.27
981,2018-06-29 08:45:22.656250,37.47,57.27
982,2018-06-29 08:45:22.687500,39.62,57.27
983,2018-06-29 08:45:22.718750,38.97,57.27
984,2018-06-29 08:45:22.750000,36.71,57.27
985,2018-06-29 08:45:22.781250,34.88,57.27
986,2018-06-29 08:45:22.812500,33.31,57.27
987,2018-06-29 08:45:22.843750,30.63,57.27
988,2018-06-29 08:45:22.875000,27.09,57.27
989,2018-06-29 08:45:22.906250,23.92,57.27
990,2018-06-29 08:45:22.937500,21.19,57.27
991,2018-06-29 08:45:22.968750,18.13,57.27
992,2018-06-29 08:45:23.000000,14.51,57.27
993,2018-06-29 08:45:23.031250,10.84,57.27
994,2018-06-29 08:45:23.062500,7.39,57.27
995,2018-06-29 08:45:23.093750,3.62,57.27
996,2018-06-29 08:45:23.125000,-1.2,57.27
997,2018-06-29 08:45:23.156250,-6.47,57.27
998,2018-06-29 08:45:23.187500,-10.97,57.27
999,2018-06-29 08:45:23.218750,-15.08,57.27
1000,2018-06-29 08:45:23.250000,-20.62,57.27
1001,2018-06-29 08:45:23.281250,-28.33,57.27
1002,2018-06-29 08:45:23.312500,-36.74,57.27
1003,2018-06-29 08:45:23.343750,-44.09,57.27
1004,2018-06-29 08:45:23.375000,-51.24,57.27
1005,2018-06-29 08:45:23.406250,-61.32,57.27
1006,2018-06-29 08:45:23.437500,-74.38,57.27
1007,2018-06-29 08:45:23.468750,-83.09,57.27
1008,2018-06-29 08:45:23.500000,-78.64,57.27
1009,2018-06-29 08:45:23.531250,-61.29,56.83
1010,2018-06-29 08:45:23.562500,-40.31,56.83
1011,2018-06-29 08:45:23.593750,-23.12,56.83
1012,2018-06-29 08:45:23.625000,-9.55,56.83
1013,2018-06-29 08:45:23.656250,3.12,56.83
1014,2018-06-29 08:45:23.687500,14.97,56.83
1015,2018-06-29 08:45:23.718750,24.41,56.83
1016,2018-06-29 08:45:23.750000,30.97,56.83
1017,2018-06-29 08:45:23.781250,35.28,56.83
1018,2018-06-29 08:45:23.812500,38.1,56.83
1019,2018-06-29 08:45:23.843750,40.42,56.83
1020,2018-06-29 08:45:23.875000,43.11,56.83
1021,2018-06-29 08:45:23.906250,45.72,56.83
1022,2018-06-29 08:45:23.937500,46.51,56.83
1023,2018-06-29 08:45:23.968750,44.35,56.83
1024,2018-06-29 08:45:24.000000,40.35,56.83
1025,2018-06-29 08:45:24.031250,37.02,56.83
1026,2018-06-29 08:45:24.062500,35.68,56.83
1027,2018-06-29 08:45:24.093750,35.24,56.83
1028,2018-06-29 08:45:24.125000,33.92,56.83
1029,2018-06-29 08:45:24.156250,31.45,56.83
1030,2018-06-29 08:45:24.187500,28.83,56.83
1031,2018-06-29 08:45:24.218750,26.6,56.83
1032,2018-06-29 08:45:24.250000,24.21,56.83
1033,2018-06-29 08:45:24.281250,21.1,56.83
1034,2018-06-29 08:45:24.312500,17.22,56.83
1035,2018-06-29 08:45:24.343750,12.75,56.83
1036,2018-06-29 08:45:24.375000,8.24,56.83
1037,2018-06-29 08:45:24.406250,4.22,56.83
1038,2018-06-29 08:45:24.437500,0.02,56.83
1039,2018-06-29 08:45:24.468750,-5.22,56.83
1040,2018-06-29 08:45:24.500000,-10.45,56.83
1041,2018-06-29 08:45:24.531250,-14.39,56.38
1042,2018-06-29 08:45:24.562500,-18.57,56.38
1043,2018-06-29 08:45:24.593750,-25.38,56.38
1044,2018-06-29 08:45:24.625000,-34.26,56.38
1045,2018-06-29 08:45:24.656250,-42.43,56.38
1046,2018-06-29 08:45:24.687500,-48.8,56.38
1047,2018-06-29 08:45:24.718750,-55.62,56.38
1048,2018-06-29 08:45:24.750000,-66.32,56.38
1049,2018-06-29 08:45:24.781250,-80.57,56.38
1050,2018-06-29 08:45:24.812500,-90.92,56.38
1051,2018-06-29 08:45:24.843750,-88.11,56.38
1052,2018-06-29 08:45:24.875000,-71.11,56.38
1053,2018-06-29 08:45:24.906250,-48.65,56.38
1054,2018-06-29 08:45:24.937500,-29.29,56.38
1055,2018-06-29 08:45:24.968750,-14.11,56.38
1056,2018-06-29 08:45:25.000000,-0.39,56.38
1057,2018-06-29 08:45:25.031250,12.35,56.38
1058,2018-06-29 08:45:25.062500,22.33,56.38
1059,2018-06-29 08:45:25.093750,29.05,56.38
1060,2018-06-29 08:45:25.125000,33.97,56.38
1061,2018-06-29 08:45:25.156250,38.02,56.38
1062,2018-06-29 08:45:25.187500,41.12,56.38
1063,2018-06-29 08:45:25.218750,43.95,56.38
1064,2018-06-29 08:45:25.250000,47.11,56.38
1065,2018-06-29 08:45:25.281250,49.2,56.38
1066,2018-06-29 08:45:25.312500,48.49,56.38
1067,2018-06-29 08:45:25.343750,45.4,56.38
1068,2018-06-29 08:45:25.375000,41.68,56.38
1069,2018-06-29 08:45:25.406250,38.26,56.38
1070,2018-06-29 08:45:25.437500,35.33,56.38
1071,2018-06-29 08:45:25.468750,32.82,56.38
1072,2018-06-29 08:45:25.500000,30.31,56.38
1073,2018-06-29 08:45:25.531250,27.18,56.0
1074,2018-06-29 08:45:25.562500,23.39,56.0
1075,2018-06-29 08:45:25.593750,19.18,56.0
1076,2018-06-29 08:45:25.625000,14.1,56.0
1077,2018-06-29 08:45:25.656250,7.82,56.0
1078,2018-06-29 08:45:25.687500,1.33,56.0
1079,2018-06-29 08:45:25.718750,-4.46,56.0
1080,2018-06-29 08:45:25.750000,-10.52,56.0
1081,2018-06-29 08:45:25.781250,-18.11,56.0
1082,2018-06-29 08:45:25.812500,-26.41,56.0
1083,2018-06-29 08:45:25.843750,-33.67,56.0
1084,2018-06-29 08:45:25.875000,-40.38,56.0
1085,2018-06-29 08:45:25.906250,-49.64,56.0
1086,2018-06-29 08:45:25.937500,-63.0,56.0
1087,2018-06-29 08:45:25.968750,-75.46,56.0
1088,2018-06-29 08:45:26.000000,-77.62,56.0
1089,2018-06-29 08:45:26.031250,-65.32,56.0
1090,2018-06-29 08:45:26.062500,-44.52,56.0
1091,2018-06-29 08:45:26.093750,-24.07,56.0
1092,2018-06-29 08:45:26.125000,-7.53,56.0
1093,2018-06-29 08:45:26.156250,5.95,56.0
1094,2018-06-29 08:45:26.187500,17.47,56.0
1095,2018-06-29 08:45:26.218750,27.02,56.0
1096,2018-06-29 08:45:26.250000,33.83,56.0
1097,2018-06-29 08:45:26.281250,37.69,56.0
1098,2018-06-29 08:45:26.312500,40.01,56.0
1099,2018-06-29 08:45:26.343750,42.44,56.0
1100,2018-06-29 08:45:26.375000,45.36,56.0
1101,2018-06-29 08:45:26.406250,48.22,56.0
1102,2018-06-29 08:45:26.437500,49.6,56.0
1103,2018-06-29 08:45:26.468750,48.31,56.0
1104,2018-06-29 08:45:26.500000,45.26,56.0
1105,2018-06-29 08:45:26.531250,42.46,55.62
1106,2018-06-29 08:45:26.562500,40.15,55.62
1107,2018-06-29 08:45:26.593750,37.18,55.62
1108,2018-06-29 08:45:26.625000,33.4,55.62
1109,2018-06-29 08:45:26.656250,29.71,55.62
1110,2018-06-29 08:45:26.687500,26.81,55.62
1111,2018-06-29 08:45:26.718750,24.78,55.62
1112,2018-06-29 08:45:26.750000,23.09,55.62
1113,2018-06-29 08:45:26.781250,21.02,55.62
1114,2018-06-29 08:45:26.812500,18.32,55.62
1115,2018-06-29 08:45:26.843750,15.24,55.62
1116,2018-06-29 08:45:26.875000,11.97,55.62
1117,2018-06-29 08:45:26.906250,8.53,55.62
1118,2018-06-29 08:45:26.937500,4.84,55.62
1119,2018-06-29 08:45:26.968750,0.9,55.62
1120,2018-06-29 08:45:27.000000,-3.35,55.62
1121,2018-06-29 08:45:27.031250,-8.18,55.62
1122,2018-06-29 08:45:27.062500,-13.67,55.62
1123,2018-06-29 08:45:27.093750,-19.45,55.62
1124,2018-06-29 08:45:27.125000,-25.68,55.62
1125,2018-06-29 08:45:27.156250,-33.23,55.62
1126,2018-06-29 08:45:27.187500,-41.62,55.62
1127,2018-06-29 08:45:27.218750,-49.21,55.62
1128,2018-06-29 08:45:27.250000,-56.35,55.62
1129,2018-06-29 08:45:27.281250,-66.29,55.62
1130,2018-06-29 08:45:27.312500,-80.32,55.62
1131,2018-06-29 08:45:27.343750,-92.21,55.62
1132,2018-06-29 08:45:27.375000,-91.58,55.62
1133,2018-06-29 08:45:27.406250,-75.53,55.62
1134,2018-06-29 08:45:27.437500,-52.43,55.62
1135,2018-06-29 08:45:27.468750,-31.7,55.62
1136,2018-06-29 08:45:27.500000,-15.25,55.62
1137,2018-06-29 08:45:27.531250,-0.79,55.26
1138,2018-06-29 08:45:27.562500,12.48,55.26
1139,2018-06-29 08:45:27.593750,23.51,55.26
1140,2018-06-29 08:45:27.625000,31.23,55.26
1141,2018-06-29 08:45:27.656250,35.84,55.26
1142,2018-06-29 08:45:27.687500,38.6,55.26
1143,2018-06-29 08:45:27.718750,40.71,55.26
1144,2018-06-29 08:45:27.750000,42.92,55.26
1145,2018-06-29 08:45:27.781250,45.24,55.26
1146,2018-06-29 08:45:27.812500,46.61,55.26
1147,2018-06-29 08:45:27.843750,45.99,55.26
1148,2018-06-29 08:45:27.875000,43.68,55.26
1149,2018-06-29 08:45:27.906250,40.93,55.26
1150,2018-06-29 08:45:27.937500,38.39,55.26
1151,2018-06-29 08:45:27.968750,35.82,55.26
1152,2018-06-29 08:45:28.000000,33.06,55.26
1153,2018-06-29 08:45:28.031250,30.44,55.26
1154,2018-06-29 08:45:28.062500,28.09,55.26
1155,2018-06-29 08:45:28.093750,25.59,55.26
1156,2018-06-29 08:45:28.125000,22.61,55.26
1157,2018-06-29 08:45:28.156250,19.17,55.26
1158,2018-06-29 08:45:28.187500,15.46,55.26
1159,2018-06-29 08:45:28.218750,12.04,55.26
1160,2018-06-29 08:45:28.250000,9.07,55.26
1161,2018-06-29 08:45:28.281250,5.53,55.26
1162,2018-06-29 08:45:28.312500,0.6,55.26
1163,2018-06-29 08:45:28.343750,-4.7,55.26
1164,2018-06-29 08:45:28.375000,-8.79,55.26
1165,2018-06-29 08:45:28.406250,-11.83,55.26
1166,2018-06-29 08:45:28.437500,-15.63,55.26
1167,2018-06-29 08:45:28.468750,-21.5,55.26
1168,2018-06-29 08:45:28.500000,-28.89,55.26
1169,2018-06-29 08:45:28.531250,-36.34,54.93
1170,2018-06-29 08:45:28.562500,-43.78,54.93
1171,2018-06-29 08:45:28.593750,-53.32,54.93
1172,2018-06-29 08:45:28.625000,-65.72,54.93
1173,2018-06-29 08:45:28.656250,-75.84,54.93
1174,2018-06-29 08:45:28.687500,-75.1,54.93
1175,2018-06-29 08:45:28.718750,-60.75,54.93
1176,2018-06-29 08:45:28.750000,-39.29,54.93
1177,2018-06-29 08:45:28.781250,-19.34,54.93
1178,2018-06-29 08:45:28.812500,-4.06,54.93
1179,2018-06-29 08:45:28.843750,7.9,54.93
1180,2018-06-29 08:45:28.875000,17.72,54.93
1181,2018-06-29 08:45:28.906250,24.83,54.93
1182,2018-06-29 08:45:28.937500,28.82,54.93
1183,2018-06-29 08:45:28.968750,30.81,54.93
1184,2018-06-29 08:45:29.000000,32.51,54.93
1185,2018-06-29 08:45:29.031250,34.82,54.93
1186,2018-06-29 08:45:29.062500,37.49,54.93
1187,2018-06-29 08:45:29.093750,39.47,54.93
1188,2018-06-29 08:45:29.125000,39.67,54.93
1189,2018-06-29 08:45:29.156250,37.71,54.93
1190,2018-06-29 08:45:29.187500,34.53,54.93
1191,2018-06-29 08:45:29.218750,32.01,54.93
1192,2018-06-29 08:45:29.250000,30.7,54.93
1193,2018-06-29 08:45:29.281250,28.9,54.93
1194,2018-06-29 08:45:29.312500,25.42,54.93
1195,2018-06-29 08:45:29.343750,21.7,54.93
1196,2018-06-29 08:45:29.375000,19.69,54.93
1197,2018-06-29 08:45:29.406250,18.94,54.93
1198,2018-06-29 08:45:29.437500,17.36,54.93
1199,2018-06-29 08:45:29.468750,14.12,54.93
1200,2018-06-29 08:45:29.500000,10.21,54.93
1201,2018-06-29 08:45:29.531250,6.58,54.66
1202,2018-06-29 08:45:29.562500,3.07,54.66
1203,2018-06-29 08:45:29.593750,-0.78,54.66
1204,2018-06-29 08:45:29.625000,-5.12,54.66
1205,2018-06-29 08:45:29.656250,-9.84,54.66
1206,2018-06-29 08:45:29.687500,-14.84,54.66
1207,2018-06-29 08:45:29.718750,-20.6,54.66
1208,2018-06-29 08:45:29.750000,-27.66,54.66
1209,2018-06-29 08:45:29.781250,-35.18,54.66
1210,2018-06-29 08:45:29.812500,-41.85,54.66
1211,2018-06-29 08:45:29.843750,-48.16,54.66
1212,2018-06-29 08:45:29.875000,-56.63,54.66
1213,2018-06-29 08:45:29.906250,-68.99,54.66
1214,2018-06-29 08:45:29.937500,-82.15,54.66
1215,2018-06-29 08:45:29.968750,-87.71,54.66
1216,2018-06-29 08:45:30.000000,-78.85,54.66
1217,2018-06-29 08:45:30.031250,-58.44,54.66
1218,2018-06-29 08:45:30.062500,-36.57,54.66
1219,2018-06-29 08:45:30.093750,-19.97,54.66
1220,2018-06-29 08:45:30.125000,-7.76,54.66
1221,2018-06-29 08:45:30.156250,3.48,54.66
1222,2018-06-29 08:45:30.187500,14.76,54.66
1223,2018-06-29 08:45:30.218750,24.75,54.66
1224,2018-06-29 08:45:30.250000,31.88,54.66
1225,2018-06-29 08:45:30.281250,35.8,54.66
1226,2018-06-29 08:45:30.312500,37.69,54.66
1227,2018-06-29 08:45:30.343750,39.3,54.66
1228,2018-06-29 08:45:30.375000,41.62,54.66
1229,2018-06-29 08:45:30.406250,43.85,54.66
1230,2018-06-29 08:45:30.437500,44.26,54.66
1231,2018-06-29 08:45:30.468750,42.3,54.66
1232,2018-06-29 08:45:30.500000,39.43,54.66
1233,2018-06-29 08:45:30.531250,37.34,54.4
1234,2018-06-29 08:45:30.562500,35.75,54.4
1235,2018-06-29 08:45:30.593750,33.24,54.4
1236,2018-06-29 08:45:30.625000,29.97,54.4
1237,2018-06-29 08:45:30.656250,27.25,54.4
1238,2018-06-29 08:45:30.687500,25.05,54.4
1239,2018-06-29 08:45:30.718750,22.71,54.4
1240,2018-06-29 08:45:30.750000,20.4,54.4
1241,2018-06-29 08:45:30.781250,17.81,54.4
1242,2018-06-29 08:45:30.812500,14.27,54.4
1243,2018-06-29 08:45:30.843750,10.35,54.4
1244,2018-06-29 08:45:30.875000,6.83,54.4
1245,2018-06-29 08:45:30.906250,3.58,54.4
1246,2018-06-29 08:45:30.937500,0.62,54.4
1247,2018-06-29 08:45:30.968750,-2.13,54.4
1248,2018-06-29 08:45:31.000000,-5.6,54.4
1249,2018-06-29 08:45:31.031250,-10.04,54.4
1250,2018-06-29 08:45:31.062500,-14.63,54.4
1251,2018-06-29 08:45:31.093750,-19.42,54.4
1252,2018-06-29 08:45:31.125000,-25.09,54.4
1253,2018-06-29 08:45:31.156250,-31.36,54.4
1254,2018-06-29 08:45:31.187500,-37.79,54.4
1255,2018-06-29 08:45:31.218750,-44.83,54.4
1256,2018-06-29 08:45:31.250000,-53.4,54.4
1257,2018-06-29 08:45:31.281250,-64.56,54.4
1258,2018-06-29 08:45:31.312500,-77.67,54.4
1259,2018-06-29 08:45:31.343750,-86.52,54.4
1260,2018-06-29 08:45:31.375000,-82.42,54.4
1261,2018-06-29 08:45:31.406250,-64.83,54.4
1262,2018-06-29 08:45:31.437500,-43.53,54.4
1263,2018-06-29 08:45:31.468750,-26.83,54.4
1264,2018-06-29 08:45:31.500000,-14.02,54.4
1265,2018-06-29 08:45:31.531250,-1.46,54.13
1266,2018-06-29 08:45:31.562500,10.61,54.13
1267,2018-06-29 08:45:31.593750,19.86,54.13
1268,2018-06-29 08:45:31.625000,25.66,54.13
1269,2018-06-29 08:45:31.656250,29.06,54.13
1270,2018-06-29 08:45:31.687500,31.32,54.13
1271,2018-06-29 08:45:31.718750,33.76,54.13
1272,2018-06-29 08:45:31.750000,37.24,54.13
1273,2018-06-29 08:45:31.781250,40.73,54.13
1274,2018-06-29 08:45:31.812500,42.17,54.13
1275,2018-06-29 08:45:31.843750,40.97,54.13
1276,2018-06-29 08:45:31.875000,38.25,54.13
1277,2018-06-29 08:45:31.906250,35.14,54.13
1278,2018-06-29 08:45:31.937500,32.02,54.13
1279,2018-06-29 08:45:31.968750,29.03,54.13
1280,2018-06-29 08:45:32.000000,26.04,54.13
1281,2018-06-29 08:45:32.031250,22.97,54.13
1282,2018-06-29 08:45:32.062500,19.84,54.13
1283,2018-06-29 08:45:32.093750,16.55,54.13
1284,2018-06-29 08:45:32.125000,13.06,54.13
1285,2018-06-29 08:45:32.156250,9.8,54.13
1286,2018-06-29 08:45:32.187500,7.0,54.13
1287,2018-06-29 08:45:32.218750,4.11,54.13
1288,2018-06-29 08:45:32.250000,0.41,54.13
1289,2018-06-29 08:45:32.281250,-4.09,54.13
1290,2018-06-29 08:45:32.312500,-9.0,54.13
1291,2018-06-29 08:45:32.343750,-14.37,54.13
1292,2018-06-29 08:45:32.375000,-20.17,54.13
1293,2018-06-29 08:45:32.406250,-26.12,54.13
1294,2018-06-29 08:45:32.437500,-32.33,54.13
1295,2018-06-29 08:45:32.468750,-38.85,54.13
1296,2018-06-29 08:45:32.500000,-45.95,54.13
1297,2018-06-29 08:45:32.531250,-55.41,53.88
1298,2018-06-29 08:45:32.562500,-67.41,53.88
1299,2018-06-29 08:45:32.593750,-75.63,53.88
1300,2018-06-29 08:45:32.625000,-71.65,53.88
1301,2018-06-29 08:45:32.656250,-55.36,53.88
1302,2018-06-29 08:45:32.687500,-35.25,53.88
1303,2018-06-29 08:45:32.718750,-18.42,53.88
1304,2018-06-29 08:45:32.750000,-5.4,53.88
1305,2018-06-29 08:45:32.781250,5.88,53.88
1306,2018-06-29 08:45:32.812500,15.92,53.88
1307,2018-06-29 08:45:32.843750,23.8,53.88
1308,2018-06-29 08:45:32.875000,29.05,53.88
1309,2018-06-29 08:45:32.906250,32.3,53.88
1310,2018-06-29 08:45:32.937500,34.28,53.88
1311,2018-06-29 08:45:32.968750,35.77,53.88
1312,2018-06-29 08:45:33.000000,38.22,53.88
1313,2018-06-29 08:45:33.031250,41.91,53.88
1314,2018-06-29 08:45:33.062500,44.1,53.88
1315,2018-06-29 08:45:33.093750,42.39,53.88
1316,2018-06-29 08:45:33.125000,38.45,53.88
1317,2018-06-29 08:45:33.156250,35.14,53.88
1318,2018-06-29 08:45:33.187500,32.48,53.88
1319,2018-06-29 08:45:33.218750,29.49,53.88
1320,2018-06-29 08:45:33.250000,26.51,53.88
1321,2018-06-29 08:45:33.281250,23.92,53.88
1322,2018-06-29 08:45:33.312500,21.45,53.88
1323,2018-06-29 08:45:33.343750,19.05,53.88
1324,2018-06-29 08:45:33.375000,16.94,53.88
1325,2018-06-29 08:45:33.406250,14.98,53.88
1326,2018-06-29 08:45:33.437500,12.69,53.88
1327,2018-06-29 08:45:33.468750,9.83,53.88
1328,2018-06-29 08:45:33.500000,6.74,53.88
1329,2018-06-29 08:45:33.531250,3.81,53.64
1330,2018-06-29 08:45:33.562500,1.07,53.64
1331,2018-06-29 08:45:33.593750,-1.79,53.64
1332,2018-06-29 08:45:33.625000,-5.09,53.64
1333,2018-06-29 08:45:33.656250,-8.72,53.64
1334,2018-06-29 08:45:33.687500,-12.17,53.64
1335,2018-06-29 08:45:33.718750,-15.48,53.64
1336,2018-06-29 08:45:33.750000,-19.82,53.64
1337,2018-06-29 08:45:33.781250,-25.9,53.64
1338,2018-06-29 08:45:33.812500,-32.94,53.64
1339,2018-06-29 08:45:33.843750,-39.81,53.64
1340,2018-06-29 08:45:33.875000,-46.56,53.64
1341,2018-06-29 08:45:33.906250,-54.92,53.64
1342,2018-06-29 08:45:33.937500,-66.65,53.64
1343,2018-06-29 08:45:33.968750,-79.38,53.64
1344,2018-06-29 08:45:34.000000,-84.83,53.64
1345,2018-06-29 08:45:34.031250,-76.1,53.64
1346,2018-06-29 08:45:34.062500,-56.39,53.64
1347,2018-06-29 08:45:34.093750,-35.71,53.64
1348,2018-06-29 08:45:34.125000,-20.09,53.64
1349,2018-06-29 08:45:34.156250,-8.67,53.64
1350,2018-06-29 08:45:34.187500,1.35,53.64
1351,2018-06-29 08:45:34.218750,11.43,53.64
1352,2018-06-29 08:45:34.250000,20.88,53.64
1353,2018-06-29 08:45:34.281250,27.43,53.64
1354,2018-06-29 08:45:34.312500,30.44,53.64
1355,2018-06-29 08:45:34.343750,32.46,53.64
1356,2018-06-29 08:45:34.375000,35.65,53.64
1357,2018-06-29 08:45:34.406250,39.3,53.64
1358,2018-06-29 08:45:34.437500,41.8,53.64
1359,2018-06-29 08:45:34.468750,42.55,53.64
1360,2018-06-29 08:45:34.500000,41.52,53.64
1361,2018-06-29 08:45:34.531250,39.51,53.41
1362,2018-06-29 08:45:34.562500,38.06,53.41
1363,2018-06-29 08:45:34.593750,37.2,53.41
1364,2018-06-29 08:45:34.625000,35.41,53.41
1365,2018-06-29 08:45:34.656250,32.58,53.41
1366,2018-06-29 08:45:34.687500,30.28,53.41
1367,2018-06-29 08:45:34.718750,28.78,53.41
1368,2018-06-29 08:45:34.750000,26.57,53.41
1369,2018-06-29 08:45:34.781250,22.99,53.41
1370,2018-06-29 08:45:34.812500,18.76,53.41
1371,2018-06-29 08:45:34.843750,15.03,53.41
1372,2018-06-29 08:45:34.875000,12.34,53.41
1373,2018-06-29 08:45:34.906250,10.07,53.41
1374,2018-06-29 08:45:34.937500,7.27,53.41
1375,2018-06-29 08:45:34.968750,4.11,53.41
1376,2018-06-29 08:45:35.000000,1.38,53.41
1377,2018-06-29 08:45:35.031250,-1.27,53.41
1378,2018-06-29 08:45:35.062500,-4.79,53.41
1379,2018-06-29 08:45:35.093750,-9.03,53.41
1380,2018-06-29 08:45:35.125000,-12.89,53.41
1381,2018-06-29 08:45:35.156250,-16.49,53.41
1382,2018-06-29 08:45:35.187500,-21.28,53.41
1383,2018-06-29 08:45:35.218750,-27.46,53.41
1384,2018-06-29 08:45:35.250000,-33.75,53.41
1385,2018-06-29 08:45:35.281250,-39.61,53.41
1386,2018-06-29 08:45:35.312500,-46.18,53.41
1387,2018-06-29 08:45:35.343750,-55.47,53.41
1388,2018-06-29 08:45:35.375000,-67.95,53.41
1389,2018-06-29 08:45:35.406250,-78.63,53.41
1390,2018-06-29 08:45:35.437500,-78.54,53.41
1391,2018-06-29 08:45:35.468750,-64.47,53.41
1392,2018-06-29 08:45:35.500000,-43.45,53.41
1393,2018-06-29 08:45:35.531250,-24.9,53.17
1394,2018-06-29 08:45:35.562500,-12.0,53.17
1395,2018-06-29 08:45:35.593750,-2.68,53.17
1396,2018-06-29 08:45:35.625000,5.56,53.17
1397,2018-06-29 08:45:35.656250,13.17,53.17
1398,2018-06-29 08:45:35.687500,19.15,53.17
1399,2018-06-29 08:45:35.718750,23.21,53.17
1400,2018-06-29 08:45:35.750000,26.68,53.17
1401,2018-06-29 08:45:35.781250,30.84,53.17
1402,2018-06-29 08:45:35.812500,35.23,53.17
1403,2018-06-29 08:45:35.843750,38.47,53.17
1404,2018-06-29 08:45:35.875000,39.72,53.17
1405,2018-06-29 08:45:35.906250,38.72,53.17
1406,2018-06-29 08:45:35.937500,35.8,53.17
1407,2018-06-29 08:45:35.968750,32.38,53.17
1408,2018-06-29 08:45:36.000000,29.71,53.17
1409,2018-06-29 08:45:36.031250,27.57,53.17
1410,2018-06-29 08:45:36.062500,25.47,53.17
1411,2018-06-29 08:45:36.093750,23.57,53.17
1412,2018-06-29 08:45:36.125000,21.58,53.17
1413,2018-06-29 08:45:36.156250,18.89,53.17
1414,2018-06-29 08:45:36.187500,15.92,53.17
1415,2018-06-29 08:45:36.218750,13.62,53.17
1416,2018-06-29 08:45:36.250000,11.78,53.17
1417,2018-06-29 08:45:36.281250,9.29,53.17
1418,2018-06-29 08:45:36.312500,5.46,53.17
1419,2018-06-29 08:45:36.343750,0.6,53.17
1420,2018-06-29 08:45:36.375000,-4.57,53.17
1421,2018-06-29 08:45:36.406250,-9.92,53.17
1422,2018-06-29 08:45:36.437500,-16.05,53.17
1423,2018-06-29 08:45:36.468750,-23.13,53.17
1424,2018-06-29 08:45:36.500000,-30.11,53.17
1425,2018-06-29 08:45:36.531250,-36.04,52.94
1426,2018-06-29 08:45:36.562500,-42.0,52.94
1427,2018-06-29 08:45:36.593750,-50.62,52.94
1428,2018-06-29 08:45:36.625000,-62.64,52.94
1429,2018-06-29 08:45:36.656250,-73.36,52.94
1430,2018-06-29 08:45:36.687500,-74.53,52.94
1431,2018-06-29 08:45:36.718750,-62.47,52.94
1432,2018-06-29 08:45:36.750000,-42.91,52.94
1433,2018-06-29 08:45:36.781250,-24.96,52.94
1434,2018-06-29 08:45:36.812500,-12.29,52.94
1435,2018-06-29 08:45:36.843750,-2.35,52.94
1436,2018-06-29 08:45:36.875000,8.01,52.94
1437,2018-06-29 08:45:36.906250,18.49,52.94
1438,2018-06-29 08:45:36.937500,26.45,52.94
1439,2018-06-29 08:45:36.968750,30.69,52.94
1440,2018-06-29 08:45:37.000000,32.84,52.94
1441,2018-06-29 08:45:37.031250,35.01,52.94
1442,2018-06-29 08:45:37.062500,37.94,52.94
1443,2018-06-29 08:45:37.093750,40.96,52.94
1444,2018-06-29 08:45:37.125000,42.74,52.94
1445,2018-06-29 08:45:37.156250,42.33,52.94
1446,2018-06-29 08:45:37.187500,39.7,52.94
1447,2018-06-29 08:45:37.218750,36.0,52.94
1448,2018-06-29 08:45:37.250000,33.04,52.94
1449,2018-06-29 08:45:37.281250,31.59,52.94
1450,2018-06-29 08:45:37.312500,30.23,52.94
1451,2018-06-29 08:45:37.343750,27.44,52.94
1452,2018-06-29 08:45:37.375000,24.13,52.94
1453,2018-06-29 08:45:37.406250,21.64,52.94
1454,2018-06-29 08:45:37.437500,19.21,52.94
1455,2018-06-29 08:45:37.468750,15.58,52.94
1456,2018-06-29 08:45:37.500000,11.44,52.94
1457,2018-06-29 08:45:37.531250,8.13,52.73
1458,2018-06-29 08:45:37.562500,5.49,52.73
1459,2018-06-29 08:45:37.593750,2.34,52.73
1460,2018-06-29 08:45:37.625000,-1.97,52.73
1461,2018-06-29 08:45:37.656250,-6.88,52.73
1462,2018-06-29 08:45:37.687500,-11.43,52.73
1463,2018-06-29 08:45:37.718750,-15.81,52.73
1464,2018-06-29 08:45:37.750000,-21.18,52.73
1465,2018-06-29 08:45:37.781250,-27.64,52.73
1466,2018-06-29 08:45:37.812500,-34.02,52.73
1467,2018-06-29 08:45:37.843750,-40.0,52.73
1468,2018-06-29 08:45:37.875000,-46.65,52.73
1469,2018-06-29 08:45:37.906250,-55.55,52.73
1470,2018-06-29 08:45:37.937500,-67.29,52.73
1471,2018-06-29 08:45:37.968750,-77.78,52.73
1472,2018-06-29 08:45:38.000000,-78.5,52.73
1473,2018-06-29 08:45:38.031250,-65.57,52.73
1474,2018-06-29 08:45:38.062500,-45.4,52.73
1475,2018-06-29 08:45:38.093750,-26.9,52.73
1476,2018-06-29 08:45:38.125000,-12.84,52.73
1477,2018-06-29 08:45:38.156250,-1.43,52.73
1478,2018-06-29 08:45:38.187500,8.8,52.73
1479,2018-06-29 08:45:38.218750,18.15,52.73
1480,2018-06-29 08:45:38.250000,25.95,52.73
1481,2018-06-29 08:45:38.281250,30.94,52.73
1482,2018-06-29 08:45:38.312500,33.26,52.73
1483,2018-06-29 08:45:38.343750,35.09,52.73
1484,2018-06-29 08:45:38.375000,38.2,52.73
1485,2018-06-29 08:45:38.406250,41.78,52.73
1486,2018-06-29 08:45:38.437500,43.51,52.73
1487,2018-06-29 08:45:38.468750,42.22,52.73
1488,2018-06-29 08:45:38.500000,38.84,52.73
1489,2018-06-29 08:45:38.531250,35.44,52.53
1490,2018-06-29 08:45:38.562500,33.37,52.53
1491,2018-06-29 08:45:38.593750,32.0,52.53
1492,2018-06-29 08:45:38.625000,30.1,52.53
1493,2018-06-29 08:45:38.656250,27.48,52.53
1494,2018-06-29 08:45:38.687500,24.67,52.53
1495,2018-06-29 08:45:38.718750,21.98,52.53
1496,2018-06-29 08:45:38.750000,19.32,52.53
1497,2018-06-29 08:45:38.781250,16.28,52.53
1498,2018-06-29 08:45:38.812500,12.41,52.53
1499,2018-06-29 08:45:38.843750,8.01,52.53
1500,2018-06-29 08:45:38.875000,3.75,52.53
1501,2018-06-29 08:45:38.906250,-0.18,52.53
1502,2018-06-29 08:45:38.937500,-4.1,52.53
1503,2018-06-29 08:45:38.968750,-8.26,52.53
1504,2018-06-29 08:45:39.000000,-13.1,52.53
1505,2018-06-29 08:45:39.031250,-19.12,52.53
1506,2018-06-29 08:45:39.062500,-25.97,52.53
1507,2018-06-29 08:45:39.093750,-32.37,52.53
1508,2018-06-29 08:45:39.125000,-38.51,52.53
1509,2018-06-29 08:45:39.156250,-47.02,52.53
1510,2018-06-29 08:45:39.187500,-59.44,52.53
1511,2018-06-29 08:45:39.218750,-71.55,52.53
1512,2018-06-29 08:45:39.250000,-74.79,52.53
1513,2018-06-29 08:45:39.281250,-64.51,52.53
1514,2018-06-29 08:45:39.312500,-45.16,52.53
1515,2018-06-29 08:45:39.343750,-25.81,52.53
1516,2018-06-29 08:45:39.375000,-11.52,52.53
1517,2018-06-29 08:45:39.406250,-1.03,52.53
1518,2018-06-29 08:45:39.437500,8.47,52.53
1519,2018-06-29 08:45:39.468750,17.32,52.53
1520,2018-06-29 08:45:39.500000,24.04,52.53
1521,2018-06-29 08:45:39.531250,28.13,52.33
1522,2018-06-29 08:45:39.562500,31.11,52.33
1523,2018-06-29 08:45:39.593750,34.26,52.33
1524,2018-06-29 08:45:39.625000,37.22,52.33
1525,2018-06-29 08:45:39.656250,39.48,52.33
1526,2018-06-29 08:45:39.687500,41.09,52.33
1527,2018-06-29 08:45:39.718750,41.25,52.33
1528,2018-06-29 08:45:39.750000,39.08,52.33
1529,2018-06-29 08:45:39.781250,35.64,52.33
1530,2018-06-29 08:45:39.812500,32.59,52.33
1531,2018-06-29 08:45:39.843750,30.24,52.33
1532,2018-06-29 08:45:39.875000,28.56,52.33
1533,2018-06-29 08:45:39.906250,27.53,52.33
1534,2018-06-29 08:45:39.937500,26.13,52.33
1535,2018-06-29 08:45:39.968750,23.65,52.33
1536,2018-06-29 08:45:40.000000,21.09,52.33
1537,2018-06-29 08:45:40.031250,19.3,52.33
1538,2018-06-29 08:45:40.062500,17.56,52.33
1539,2018-06-29 08:45:40.093750,15.11,52.33
1540,2018-06-29 08:45:40.125000,12.23,52.33
1541,2018-06-29 08:45:40.156250,9.02,52.33
1542,2018-06-29 08:45:40.187500,5.39,52.33
1543,2018-06-29 08:45:40.218750,1.89,52.33
1544,2018-06-29 08:45:40.250000,-1.24,52.33
1545,2018-06-29 08:45:40.281250,-4.91,52.33
1546,2018-06-29 08:45:40.312500,-9.6,52.33
1547,2018-06-29 08:45:40.343750,-14.74,52.33
1548,2018-06-29 08:45:40.375000,-19.88,52.33
1549,2018-06-29 08:45:40.406250,-25.06,52.33
1550,2018-06-29 08:45:40.437500,-30.32,52.33
1551,2018-06-29 08:45:40.468750,-36.15,52.33
1552,2018-06-29 08:45:40.500000,-42.73,52.33
1553,2018-06-29 08:45:40.531250,-49.42,52.15
1554,2018-06-29 08:45:40.562500,-57.22,52.15
1555,2018-06-29 08:45:40.593750,-68.7,52.15
1556,2018-06-29 08:45:40.625000,-81.83,52.15
1557,2018-06-29 08:45:40.656250,-87.55,52.15
1558,2018-06-29 08:45:40.687500,-78.59,52.15
1559,2018-06-29 08:45:40.718750,-58.23,52.15
1560,2018-06-29 08:45:40.750000,-36.34,52.15
1561,2018-06-29 08:45:40.781250,-19.33,52.15
1562,2018-06-29 08:45:40.812500,-6.94,52.15
1563,2018-06-29 08:45:40.843750,3.83,52.15
1564,2018-06-29 08:45:40.875000,14.77,52.15
1565,2018-06-29 08:45:40.906250,24.87,52.15
1566,2018-06-29 08:45:40.937500,31.76,52.15
1567,2018-06-29 08:45:40.968750,34.99,52.15
1568,2018-06-29 08:45:41.000000,36.97,52.15
1569,2018-06-29 08:45:41.031250,39.75,52.15
1570,2018-06-29 08:45:41.062500,42.92,52.15
1571,2018-06-29 08:45:41.093750,45.23,52.15
1572,2018-06-29 08:45:41.125000,45.87,52.15
1573,2018-06-29 08:45:41.156250,44.04,52.15
1574,2018-06-29 08:45:41.187500,40.22,52.15
1575,2018-06-29 08:45:41.218750,36.81,52.15
1576,2018-06-29 08:45:41.250000,35.08,52.15
1577,2018-06-29 08:45:41.281250,33.56,52.15
1578,2018-06-29 08:45:41.312500,31.12,52.15
1579,2018-06-29 08:45:41.343750,28.4,52.15
1580,2018-06-29 08:45:41.375000,26.17,52.15
1581,2018-06-29 08:45:41.406250,24.56,52.15
1582,2018-06-29 08:45:41.437500,23.04,52.15
1583,2018-06-29 08:45:41.468750,20.56,52.15
1584,2018-06-29 08:45:41.500000,17.01,52.15
1585,2018-06-29 08:45:41.531250,13.84,51.98
1586,2018-06-29 08:45:41.562500,11.82,51.98
1587,2018-06-29 08:45:41.593750,10.06,51.98
1588,2018-06-29 08:45:41.625000,7.86,51.98
1589,2018-06-29 08:45:41.656250,5.39,51.98
1590,2018-06-29 08:45:41.687500,2.62,51.98
1591,2018-06-29 08:45:41.718750,-0.69,51.98
1592,2018-06-29 08:45:41.750000,-4.53,51.98
1593,2018-06-29 08:45:41.781250,-8.8,51.98
1594,2018-06-29 08:45:41.812500,-13.25,51.98
1595,2018-06-29 08:45:41.843750,-17.58,51.98
1596,2018-06-29 08:45:41.875000,-22.48,51.98
1597,2018-06-29 08:45:41.906250,-28.84,51.98
1598,2018-06-29 08:45:41.937500,-35.78,51.98
1599,2018-06-29 08:45:41.968750,-41.8,51.98
1600,2018-06-29 08:45:42.000000,-47.19,51.98
1601,2018-06-29 08:45:42.031250,-53.86,51.98
1602,2018-06-29 08:45:42.062500,-63.89,51.98
1603,2018-06-29 08:45:42.093750,-75.86,51.98
1604,2018-06-29 08:45:42.125000,-81.7,51.98
1605,2018-06-29 08:45:42.156250,-73.47,51.98
1606,2018-06-29 08:45:42.187500,-53.97,51.98
1607,2018-06-29 08:45:42.218750,-33.55,51.98
1608,2018-06-29 08:45:42.250000,-18.06,51.98
1609,2018-06-29 08:45:42.281250,-6.59,51.98
1610,2018-06-29 08:45:42.312500,2.98,51.98
1611,2018-06-29 08:45:42.343750,11.71,51.98
1612,2018-06-29 08:45:42.375000,19.55,51.98
1613,2018-06-29 08:45:42.406250,25.18,51.98
1614,2018-06-29 08:45:42.437500,27.94,51.98
1615,2018-06-29 08:45:42.468750,29.32,51.98
1616,2018-06-29 08:45:42.500000,31.6,51.98
1617,2018-06-29 08:45:42.531250,35.65,51.79
1618,2018-06-29 08:45:42.562500,39.8,51.79
1619,2018-06-29 08:45:42.593750,41.2,51.79
1620,2018-06-29 08:45:42.625000,38.74,51.79
1621,2018-06-29 08:45:42.656250,34.21,51.79
1622,2018-06-29 08:45:42.687500,30.26,51.79
1623,2018-06-29 08:45:42.718750,28.15,51.79
1624,2018-06-29 08:45:42.750000,27.04,51.79
1625,2018-06-29 08:45:42.781250,25.35,51.79
1626,2018-06-29 08:45:42.812500,22.92,51.79
1627,2018-06-29 08:45:42.843750,20.59,51.79
1628,2018-06-29 08:45:42.875000,18.3,51.79
1629,2018-06-29 08:45:42.906250,15.4,51.79
1630,2018-06-29 08:45:42.937500,11.93,51.79
1631,2018-06-29 08:45:42.968750,8.15,51.79
1632,2018-06-29 08:45:43.000000,4.04,51.79
1633,2018-06-29 08:45:43.031250,-0.27,51.79
1634,2018-06-29 08:45:43.062500,-4.59,51.79
1635,2018-06-29 08:45:43.093750,-9.15,51.79
1636,2018-06-29 08:45:43.125000,-14.37,51.79
1637,2018-06-29 08:45:43.156250,-20.39,51.79
1638,2018-06-29 08:45:43.187500,-26.49,51.79
1639,2018-06-29 08:45:43.218750,-31.9,51.79
1640,2018-06-29 08:45:43.250000,-37.16,51.79
1641,2018-06-29 08:45:43.281250,-43.97,51.79
1642,2018-06-29 08:45:43.312500,-53.91,51.79
1643,2018-06-29 08:45:43.343750,-65.8,51.79
1644,2018-06-29 08:45:43.375000,-73.28,51.79
1645,2018-06-29 08:45:43.406250,-68.99,51.79
1646,2018-06-29 08:45:43.437500,-53.64,51.79
1647,2018-06-29 08:45:43.468750,-35.33,51.79
1648,2018-06-29 08:45:43.500000,-19.77,51.79
1649,2018-06-29 08:45:43.531250,-7.29,51.6
1650,2018-06-29 08:45:43.562500,2.87,51.6
1651,2018-06-29 08:45:43.593750,11.38,51.6
1652,2018-06-29 08:45:43.625000,19.43,51.6
1653,2018-06-29 08:45:43.656250,26.83,51.6
1654,2018-06-29 08:45:43.687500,31.79,51.6
1655,2018-06-29 08:45:43.718750,34.06,51.6
1656,2018-06-29 08:45:43.750000,35.87,51.6
1657,2018-06-29 08:45:43.781250,38.52,51.6
1658,2018-06-29 08:45:43.812500,40.67,51.6
1659,2018-06-29 08:45:43.843750,41.14,51.6
1660,2018-06-29 08:45:43.875000,40.41,51.6
1661,2018-06-29 08:45:43.906250,38.49,51.6
1662,2018-06-29 08:45:43.937500,34.89,51.6
1663,2018-06-29 08:45:43.968750,30.77,51.6
1664,2018-06-29 08:45:44.000000,27.81,51.6
1665,2018-06-29 08:45:44.031250,25.96,51.6
1666,2018-06-29 08:45:44.062500,24.38,51.6
1667,2018-06-29 08:45:44.093750,22.63,51.6
1668,2018-06-29 08:45:44.125000,20.32,51.6
1669,2018-06-29 08:45:44.156250,17.56,51.6
1670,2018-06-29 08:45:44.187500,14.99,51.6
1671,2018-06-29 08:45:44.218750,12.64,51.6
1672,2018-06-29 08:45:44.250000,10.17,51.6
1673,2018-06-29 08:45:44.281250,7.68,51.6
1674,2018-06-29 08:45:44.312500,5.13,51.6
1675,2018-06-29 08:45:44.343750,2.16,51.6
1676,2018-06-29 08:45:44.375000,-1.43,51.6
1677,2018-06-29 08:45:44.406250,-5.72,51.6
1678,2018-06-29 08:45:44.437500,-10.27,51.6
1679,2018-06-29 08:45:44.468750,-14.19,51.6
1680,2018-06-29 08:45:44.500000,-17.84,51.6
1681,2018-06-29 08:45:44.531250,-22.86,51.43
1682,2018-06-29 08:45:44.562500,-29.41,51.43
1683,2018-06-29 08:45:44.593750,-35.77,51.43
1684,2018-06-29 08:45:44.625000,-41.25,51.43
1685,2018-06-29 08:45:44.656250,-47.96,51.43
1686,2018-06-29 08:45:44.687500,-58.32,51.43
1687,2018-06-29 08:45:44.718750,-70.77,51.43
1688,2018-06-29 08:45:44.750000,-78.33,51.43
1689,2018-06-29 08:45:44.781250,-74.0,51.43
1690,2018-06-29 08:45:44.812500,-58.39,51.43
1691,2018-06-29 08:45:44.843750,-39.46,51.43
1692,2018-06-29 08:45:44.875000,-24.19,51.43
1693,2018-06-29 08:45:44.906250,-13.14,51.43
1694,2018-06-29 08:45:44.937500,-3.08,51.43
1695,2018-06-29 08:45:44.968750,7.67,51.43
1696,2018-06-29 08:45:45.000000,17.25,51.43
1697,2018-06-29 08:45:45.031250,23.2,51.43
1698,2018-06-29 08:45:45.062500,25.95,51.43
1699,2018-06-29 08:45:45.093750,28.15,51.43
1700,2018-06-29 08:45:45.125000,31.25,51.43
1701,2018-06-29 08:45:45.156250,34.74,51.43
1702,2018-06-29 08:45:45.187500,37.61,51.43
1703,2018-06-29 08:45:45.218750,39.06,51.43
1704,2018-06-29 08:45:45.250000,38.67,51.43
1705,2018-06-29 08:45:45.281250,37.19,51.43
1706,2018-06-29 08:45:45.312500,35.63,51.43
1707,2018-06-29 08:45:45.343750,33.44,51.43
1708,2018-06-29 08:45:45.375000,29.83,51.43
1709,2018-06-29 08:45:45.406250,25.9,51.43
1710,2018-06-29 08:45:45.437500,23.16,51.43
1711,2018-06-29 08:45:45.468750,21.03,51.43
1712,2018-06-29 08:45:45.500000,18.1,51.43
1713,2018-06-29 08:45:45.531250,14.68,51.27
1714,2018-06-29 08:45:45.562500,11.78,51.27
1715,2018-06-29 08:45:45.593750,9.19,51.27
1716,2018-06-29 08:45:45.625000,6.0,51.27
1717,2018-06-29 08:45:45.656250,1.86,51.27
1718,2018-06-29 08:45:45.687500,-2.77,51.27
1719,2018-06-29 08:45:45.718750,-7.09,51.27
1720,2018-06-29 08:45:45.750000,-11.07,51.27
1721,2018-06-29 08:45:45.781250,-15.6,51.27
1722,2018-06-29 08:45:45.812500,-21.11,51.27
1723,2018-06-29 08:45:45.843750,-26.95,51.27
1724,2018-06-29 08:45:45.875000,-32.72,51.27
1725,2018-06-29 08:45:45.906250,-39.35,51.27
1726,2018-06-29 08:45:45.937500,-48.58,51.27
1727,2018-06-29 08:45:45.968750,-59.79,51.27
1728,2018-06-29 08:45:46.000000,-66.93,51.27
1729,2018-06-29 08:45:46.031250,-63.01,51.27
1730,2018-06-29 08:45:46.062500,-48.5,51.27
1731,2018-06-29 08:45:46.093750,-30.92,51.27
1732,2018-06-29 08:45:46.125000,-16.25,51.27
1733,2018-06-29 08:45:46.156250,-5.25,51.27
1734,2018-06-29 08:45:46.187500,3.69,51.27
1735,2018-06-29 08:45:46.218750,11.95,51.27
1736,2018-06-29 08:45:46.250000,19.35,51.27
1737,2018-06-29 08:45:46.281250,24.54,51.27
1738,2018-06-29 08:45:46.312500,27.43,51.27
1739,2018-06-29 08:45:46.343750,29.85,51.27
1740,2018-06-29 08:45:46.375000,32.72,51.27
1741,2018-06-29 08:45:46.406250,35.32,51.27
1742,2018-06-29 08:45:46.437500,37.09,51.27
1743,2018-06-29 08:45:46.468750,37.93,51.27
1744,2018-06-29 08:45:46.500000,37.33,51.27
1745,2018-06-29 08:45:46.531250,35.05,51.11
1746,2018-06-29 08:45:46.562500,32.05,51.11
1747,2018-06-29 08:45:46.593750,29.45,51.11
1748,2018-06-29 08:45:46.625000,27.24,51.11
1749,2018-06-29 08:45:46.656250,25.02,51.11
1750,2018-06-29 08:45:46.687500,23.06,51.11
1751,2018-06-29 08:45:46.718750,21.68,51.11
1752,2018-06-29 08:45:46.750000,20.21,51.11
1753,2018-06-29 08:45:46.781250,17.84,51.11
1754,2018-06-29 08:45:46.812500,14.54,51.11
1755,2018-06-29 08:45:46.843750,10.9,51.11
1756,2018-06-29 08:45:46.875000,7.57,51.11
1757,2018-06-29 08:45:46.906250,4.89,51.11
1758,2018-06-29 08:45:46.937500,2.16,51.11
1759,2018-06-29 08:45:46.968750,-1.84,51.11
1760,2018-06-29 08:45:47.000000,-6.96,51.11
1761,2018-06-29 08:45:47.031250,-11.66,51.11
1762,2018-06-29 08:45:47.062500,-15.53,51.11
1763,2018-06-29 08:45:47.093750,-20.51,51.11
1764,2018-06-29 08:45:47.125000,-27.78,51.11
1765,2018-06-29 08:45:47.156250,-35.39,51.11
1766,2018-06-29 08:45:47.187500,-41.41,51.11
1767,2018-06-29 08:45:47.218750,-47.25,51.11
1768,2018-06-29 08:45:47.250000,-55.97,51.11
1769,2018-06-29 08:45:47.281250,-68.03,51.11
1770,2018-06-29 08:45:47.312500,-78.35,51.11
1771,2018-06-29 08:45:47.343750,-78.53,51.11
1772,2018-06-29 08:45:47.375000,-65.5,51.11
1773,2018-06-29 08:45:47.406250,-45.97,51.11
1774,2018-06-29 08:45:47.437500,-28.48,51.11
1775,2018-06-29 08:45:47.468750,-14.84,51.11
1776,2018-06-29 08:45:47.500000,-2.65,51.11
1777,2018-06-29 08:45:47.531250,8.84,50.98
1778,2018-06-29 08:45:47.562500,18.71,50.98
1779,2018-06-29 08:45:47.593750,26.23,50.98
1780,2018-06-29 08:45:47.625000,31.11,50.98
1781,2018-06-29 08:45:47.656250,33.84,50.98
1782,2018-06-29 08:45:47.687500,35.67,50.98
1783,2018-06-29 08:45:47.718750,37.74,50.98
1784,2018-06-29 08:45:47.750000,40.01,50.98
1785,2018-06-29 08:45:47.781250,41.3,50.98
1786,2018-06-29 08:45:47.812500,40.38,50.98
1787,2018-06-29 08:45:47.843750,37.43,50.98
1788,2018-06-29 08:45:47.875000,34.1,50.98
1789,2018-06-29 08:45:47.906250,31.66,50.98
1790,2018-06-29 08:45:47.937500,29.5,50.98
1791,2018-06-29 08:45:47.968750,26.6,50.98
1792,2018-06-29 08:45:48.000000,23.64,50.98
1793,2018-06-29 08:45:48.031250,21.66,50.98
1794,2018-06-29 08:45:48.062500,19.74,50.98
1795,2018-06-29 08:45:48.093750,16.55,50.98
1796,2018-06-29 08:45:48.125000,12.32,50.98
1797,2018-06-29 08:45:48.156250,7.56,50.98
1798,2018-06-29 08:45:48.187500,2.52,50.98
1799,2018-06-29 08:45:48.218750,-1.33,50.98
1800,2018-06-29 08:45:48.250000,-2.2,50.98
1801,2018-06-29 08:45:48.281250,-1.09,50.98
1802,2018-06-29 08:45:48.312500,-0.89,50.98
1803,2018-06-29 08:45:48.343750,-2.9,50.98
1804,2018-06-29 08:45:48.375000,-6.7,50.98
1805,2018-06-29 08:45:48.406250,-12.21,50.98
1806,2018-06-29 08:45:48.437500,-18.89,50.98
1807,2018-06-29 08:45:48.468750,-24.43,50.98
1808,2018-06-29 08:45:48.500000,-26.78,50.98
1809,2018-06-29 08:45:48.531250,-26.69,51.79
1810,2018-06-29 08:45:48.562500,-27.98,51.79
1811,2018-06-29 08:45:48.593750,-34.98,51.79
1812,2018-06-29 08:45:48.625000,-48.01,51.79
1813,2018-06-29 08:45:48.656250,-60.86,51.79
1814,2018-06-29 08:45:48.687500,-64.29,51.79
1815,2018-06-29 08:45:48.718750,-53.85,51.79
1816,2018-06-29 08:45:48.750000,-34.48,51.79
1817,2018-06-29 08:45:48.781250,-16.02,51.79
1818,2018-06-29 08:45:48.812500,-4.1,51.79
1819,2018-06-29 08:45:48.843750,3.26,51.79
1820,2018-06-29 08:45:48.875000,10.7,51.79
1821,2018-06-29 08:45:48.906250,20.13,51.79
1822,2018-06-29 08:45:48.937500,29.45,51.79
1823,2018-06-29 08:45:48.968750,35.26,51.79
1824,2018-06-29 08:45:49.000000,36.83,51.79
1825,2018-06-29 08:45:49.031250,36.51,51.79
1826,2018-06-29 08:45:49.062500,36.05,51.79
1827,2018-06-29 08:45:49.093750,35.29,51.79
1828,2018-06-29 08:45:49.125000,34.14,51.79
1829,2018-06-29 08:45:49.156250,32.73,51.79
1830,2018-06-29 08:45:49.187500,30.43,51.79
1831,2018-06-29 08:45:49.218750,26.87,51.79
1832,2018-06-29 08:45:49.250000,22.25,51.79
1833,2018-06-29 08:45:49.281250,16.41,51.79
1834,2018-06-29 08:45:49.312500,9.5,51.79
1835,2018-06-29 08:45:49.343750,2.74,51.79
1836,2018-06-29 08:45:49.375000,-2.78,51.79
1837,2018-06-29 08:45:49.406250,-6.72,51.79
1838,2018-06-29 08:45:49.437500,-8.64,51.79
1839,2018-06-29 08:45:49.468750,-8.84,51.79
1840,2018-06-29 08:45:49.500000,-9.89,51.79
1841,2018-06-29 08:45:49.531250,-14.48,52.55
1842,2018-06-29 08:45:49.562500,-22.39,52.55
1843,2018-06-29 08:45:49.593750,-31.05,52.55
1844,2018-06-29 08:45:49.625000,-38.58,52.55
1845,2018-06-29 08:45:49.656250,-44.67,52.55
1846,2018-06-29 08:45:49.687500,-49.77,52.55
1847,2018-06-29 08:45:49.718750,-53.34,52.55
1848,2018-06-29 08:45:49.750000,-52.43,52.55
1849,2018-06-29 08:45:49.781250,-43.23,52.55
1850,2018-06-29 08:45:49.812500,-25.92,52.55
1851,2018-06-29 08:45:49.843750,-6.53,52.55
1852,2018-06-29 08:45:49.875000,8.47,52.55
1853,2018-06-29 08:45:49.906250,18.61,52.55
1854,2018-06-29 08:45:49.937500,27.48,52.55
1855,2018-06-29 08:45:49.968750,35.67,52.55
1856,2018-06-29 08:45:50.000000,41.11,52.55
1857,2018-06-29 08:45:50.031250,44.69,52.55
1858,2018-06-29 08:45:50.062500,48.23,52.55
1859,2018-06-29 08:45:50.093750,49.28,52.55
1860,2018-06-29 08:45:50.125000,44.64,52.55
1861,2018-06-29 08:45:50.156250,35.52,52.55
1862,2018-06-29 08:45:50.187500,24.2,52.55
1863,2018-06-29 08:45:50.218750,10.44,52.55
1864,2018-06-29 08:45:50.250000,-6.68,52.55
1865,2018-06-29 08:45:50.281250,-25.97,52.55
1866,2018-06-29 08:45:50.312500,-42.91,52.55
1867,2018-06-29 08:45:50.343750,-52.17,52.55
1868,2018-06-29 08:45:50.375000,-52.39,52.55
1869,2018-06-29 08:45:50.406250,-45.87,52.55
1870,2018-06-29 08:45:50.437500,-34.51,52.55
1871,2018-06-29 08:45:50.468750,-20.2,52.55
1872,2018-06-29 08:45:50.500000,-6.64,52.55
1873,2018-06-29 08:45:50.531250,3.11,53.22
1874,2018-06-29 08:45:50.562500,8.53,53.22
1875,2018-06-29 08:45:50.593750,9.96,53.22
1876,2018-06-29 08:45:50.625000,8.11,53.22
1877,2018-06-29 08:45:50.656250,6.02,53.22
1878,2018-06-29 08:45:50.687500,7.97,53.22
1879,2018-06-29 08:45:50.718750,15.07,53.22
1880,2018-06-29 08:45:50.750000,24.45,53.22
1881,2018-06-29 08:45:50.781250,33.27,53.22
1882,2018-06-29 08:45:50.812500,40.92,53.22
1883,2018-06-29 08:45:50.843750,47.42,53.22
1884,2018-06-29 08:45:50.875000,52.28,53.22
1885,2018-06-29 08:45:50.906250,54.95,53.22
1886,2018-06-29 08:45:50.937500,55.72,53.22
1887,2018-06-29 08:45:50.968750,57.04,53.22
1888,2018-06-29 08:45:51.000000,61.95,53.22
1889,2018-06-29 08:45:51.031250,69.6,53.22
1890,2018-06-29 08:45:51.062500,74.77,53.22
1891,2018-06-29 08:45:51.093750,73.58,53.22
1892,2018-06-29 08:45:51.125000,66.85,53.22
1893,2018-06-29 08:45:51.156250,57.21,53.22
1894,2018-06-29 08:45:51.187500,45.93,53.22
1895,2018-06-29 08:45:51.218750,31.76,53.22
1896,2018-06-29 08:45:51.250000,10.53,53.22
1897,2018-06-29 08:45:51.281250,-20.65,53.22
1898,2018-06-29 08:45:51.312500,-57.03,53.22
1899,2018-06-29 08:45:51.343750,-88.27,53.22
1900,2018-06-29 08:45:51.375000,-107.23,53.22
1901,2018-06-29 08:45:51.406250,-113.66,53.22
1902,2018-06-29 08:45:51.437500,-111.18,53.22
1903,2018-06-29 08:45:51.468750,-106.02,53.22
1904,2018-06-29 08:45:51.500000,-107.66,53.22
1905,2018-06-29 08:45:51.531250,-122.81,53.92
1906,2018-06-29 08:45:51.562500,-144.92,53.92
1907,2018-06-29 08:45:51.593750,-156.94,53.92
1908,2018-06-29 08:45:51.625000,-149.28,53.92
1909,2018-06-29 08:45:51.656250,-127.2,53.92
1910,2018-06-29 08:45:51.687500,-99.74,53.92
1911,2018-06-29 08:45:51.718750,-70.92,53.92
1912,2018-06-29 08:45:51.750000,-41.54,53.92
1913,2018-06-29 08:45:51.781250,-10.67,53.92
1914,2018-06-29 08:45:51.812500,20.58,53.92
1915,2018-06-29 08:45:51.843750,41.83,53.92
1916,2018-06-29 08:45:51.875000,42.5,53.92
1917,2018-06-29 08:45:51.906250,29.55,53.92
1918,2018-06-29 08:45:51.937500,20.57,53.92
1919,2018-06-29 08:45:51.968750,23.85,53.92
1920,2018-06-29 08:45:52.000000,39.52,53.92
1921,2018-06-29 08:45:52.031250,66.7,53.92
1922,2018-06-29 08:45:52.062500,95.21,53.92
1923,2018-06-29 08:45:52.093750,107.99,53.92
1924,2018-06-29 08:45:52.125000,100.99,53.92
1925,2018-06-29 08:45:52.156250,84.87,53.92
1926,2018-06-29 08:45:52.187500,68.0,53.92
1927,2018-06-29 08:45:52.218750,52.16,53.92
1928,2018-06-29 08:45:52.250000,38.85,53.92
1929,2018-06-29 08:45:52.281250,29.89,53.92
1930,2018-06-29 08:45:52.312500,24.95,53.92
1931,2018-06-29 08:45:52.343750,21.42,53.92
1932,2018-06-29 08:45:52.375000,16.03,53.92
1933,2018-06-29 08:45:52.406250,9.09,53.92
1934,2018-06-29 08:45:52.437500,5.59,53.92
1935,2018-06-29 08:45:52.468750,8.33,53.92
1936,2018-06-29 08:45:52.500000,14.72,53.92
1937,2018-06-29 08:45:52.531250,23.07,54.56
1938,2018-06-29 08:45:52.562500,34.96,54.56
1939,2018-06-29 08:45:52.593750,49.1,54.56
1940,2018-06-29 08:45:52.625000,59.58,54.56
1941,2018-06-29 08:45:52.656250,62.28,54.56
1942,2018-06-29 08:45:52.687500,58.72,54.56
1943,2018-06-29 08:45:52.718750,52.81,54.56
1944,2018-06-29 08:45:52.750000,46.33,54.56
1945,2018-06-29 08:45:52.781250,38.45,54.56
1946,2018-06-29 08:45:52.812500,27.73,54.56
1947,2018-06-29 08:45:52.843750,13.22,54.56
1948,2018-06-29 08:45:52.875000,-3.74,54.56
1949,2018-06-29 08:45:52.906250,-17.41,54.56
1950,2018-06-29 08:45:52.937500,-21.95,54.56
1951,2018-06-29 08:45:52.968750,-18.96,54.56
1952,2018-06-29 08:45:53.000000,-14.95,54.56
1953,2018-06-29 08:45:53.031250,-11.68,54.56
1954,2018-06-29 08:45:53.062500,-5.91,54.56
1955,2018-06-29 08:45:53.093750,2.75,54.56
1956,2018-06-29 08:45:53.125000,11.3,54.56
1957,2018-06-29 08:45:53.156250,18.89,54.56
1958,2018-06-29 08:45:53.187500,26.83,54.56
1959,2018-06-29 08:45:53.218750,34.41,54.56
1960,2018-06-29 08:45:53.250000,39.07,54.56
1961,2018-06-29 08:45:53.281250,39.25,54.56
1962,2018-06-29 08:45:53.312500,34.94,54.56
1963,2018-06-29 08:45:53.343750,26.96,54.56
1964,2018-06-29 08:45:53.375000,17.28,54.56
1965,2018-06-29 08:45:53.406250,8.48,54.56
1966,2018-06-29 08:45:53.437500,1.99,54.56
1967,2018-06-29 08:45:53.468750,-2.37,54.56
1968,2018-06-29 08:45:53.500000,-5.54,54.56
1969,2018-06-29 08:45:53.531250,-8.53,55.13
1970,2018-06-29 08:45:53.562500,-11.91,55.13
1971,2018-06-29 08:45:53.593750,-15.31,55.13
1972,2018-06-29 08:45:53.625000,-17.91,55.13
1973,2018-06-29 08:45:53.656250,-19.69,55.13
1974,2018-06-29 08:45:53.687500,-20.99,55.13
1975,2018-06-29 08:45:53.718750,-21.45,55.13
1976,2018-06-29 08:45:53.750000,-20.63,55.13
1977,2018-06-29 08:45:53.781250,-19.67,55.13
1978,2018-06-29 08:45:53.812500,-20.57,55.13
1979,2018-06-29 08:45:53.843750,-23.4,55.13
1980,2018-06-29 08:45:53.875000,-26.16,55.13
1981,2018-06-29 08:45:53.906250,-27.67,55.13
1982,2018-06-29 08:45:53.937500,-28.55,55.13
1983,2018-06-29 08:45:53.968750,-29.04,55.13
1984,2018-06-29 08:45:54.000000,-28.6,55.13
1985,2018-06-29 08:45:54.031250,-28.23,55.13
1986,2018-06-29 08:45:54.062500,-30.78,55.13
1987,2018-06-29 08:45:54.093750,-37.28,55.13
1988,2018-06-29 08:45:54.125000,-44.54,55.13
1989,2018-06-29 08:45:54.156250,-47.25,55.13
1990,2018-06-29 08:45:54.187500,-42.3,55.13
1991,2018-06-29 08:45:54.218750,-31.26,55.13
1992,2018-06-29 08:45:54.250000,-19.15,55.13
1993,2018-06-29 08:45:54.281250,-9.79,55.13
1994,2018-06-29 08:45:54.312500,-2.92,55.13
1995,2018-06-29 08:45:54.343750,3.51,55.13
1996,2018-06-29 08:45:54.375000,9.84,55.13
1997,2018-06-29 08:45:54.406250,14.63,55.13
1998,2018-06-29 08:45:54.437500,16.6,55.13
1999,2018-06-29 08:45:54.468750,15.5,55.13
2000,2018-06-29 08:45:54.500000,12.3,55.13
2001,2018-06-29 08:45:54.531250,9.16,55.69
2002,2018-06-29 08:45:54.562500,7.9,55.69
2003,2018-06-29 08:45:54.593750,8.22,55.69
2004,2018-06-29 08:45:54.625000,8.57,55.69
2005,2018-06-29 08:45:54.656250,8.48,55.69
2006,2018-06-29 08:45:54.687500,8.87,55.69
2007,2018-06-29 08:45:54.718750,10.73,55.69
2008,2018-06-29 08:45:54.750000,13.77,55.69
2009,2018-06-29 08:45:54.781250,16.08,55.69
2010,2018-06-29 08:45:54.812500,15.91,55.69
2011,2018-06-29 08:45:54.843750,14.1,55.69
2012,2018-06-29 08:45:54.875000,12.81,55.69
2013,2018-06-29 08:45:54.906250,12.45,55.69
2014,2018-06-29 08:45:54.937500,12.07,55.69
2015,2018-06-29 08:45:54.968750,11.42,55.69
2016,2018-06-29 08:45:55.000000,10.58,55.69
2017,2018-06-29 08:45:55.031250,9.23,55.69
2018,2018-06-29 08:45:55.062500,6.67,55.69
2019,2018-06-29 08:45:55.093750,2.56,55.69
2020,2018-06-29 08:45:55.125000,-2.07,55.69
2021,2018-06-29 08:45:55.156250,-5.77,55.69
2022,2018-06-29 08:45:55.187500,-8.78,55.69
2023,2018-06-29 08:45:55.218750,-12.21,55.69
2024,2018-06-29 08:45:55.250000,-15.36,55.69
2025,2018-06-29 08:45:55.281250,-17.05,55.69
2026,2018-06-29 08:45:55.312500,-18.36,55.69
2027,2018-06-29 08:45:55.343750,-21.11,55.69
2028,2018-06-29 08:45:55.375000,-24.58,55.69
2029,2018-06-29 08:45:55.406250,-26.76,55.69
2030,2018-06-29 08:45:55.437500,-28.21,55.69
2031,2018-06-29 08:45:55.468750,-31.69,55.69
2032,2018-06-29 08:45:55.500000,-38.22,55.69
2033,2018-06-29 08:45:55.531250,-45.37,56.25
2034,2018-06-29 08:45:55.562500,-48.25,56.25
2035,2018-06-29 08:45:55.593750,-42.56,56.25
2036,2018-06-29 08:45:55.625000,-29.14,56.25
2037,2018-06-29 08:45:55.656250,-14.23,56.25
2038,2018-06-29 08:45:55.687500,-2.94,56.25
2039,2018-06-29 08:45:55.718750,5.04,56.25
2040,2018-06-29 08:45:55.750000,12.16,56.25
2041,2018-06-29 08:45:55.781250,18.86,56.25
2042,2018-06-29 08:45:55.812500,24.08,56.25
2043,2018-06-29 08:45:55.843750,27.3,56.25
2044,2018-06-29 08:45:55.875000,28.81,56.25
2045,2018-06-29 08:45:55.906250,29.3,56.25
2046,2018-06-29 08:45:55.937500,29.82,56.25
2047,2018-06-29 08:45:55.968750,30.62,56.25
2048,2018-06-29 08:45:56.000000,30.35,56.25
2049,2018-06-29 08:45:56.031250,27.93,56.25
2050,2018-06-29 08:45:56.062500,23.8,56.25
2051,2018-06-29 08:45:56.093750,18.53,56.25
2052,2018-06-29 08:45:56.125000,11.98,56.25
2053,2018-06-29 08:45:56.156250,3.7,56.25
2054,2018-06-29 08:45:56.187500,-6.74,56.25
2055,2018-06-29 08:45:56.218750,-18.34,56.25
2056,2018-06-29 08:45:56.250000,-28.01,56.25
2057,2018-06-29 08:45:56.281250,-33.46,56.25
2058,2018-06-29 08:45:56.312500,-35.85,56.25
2059,2018-06-29 08:45:56.343750,-37.11,56.25
2060,2018-06-29 08:45:56.375000,-36.73,56.25
2061,2018-06-29 08:45:56.406250,-34.02,56.25
2062,2018-06-29 08:45:56.437500,-29.96,56.25
2063,2018-06-29 08:45:56.468750,-24.7,56.25
2064,2018-06-29 08:45:56.500000,-16.95,56.25
2065,2018-06-29 08:45:56.531250,-7.28,56.8
2066,2018-06-29 08:45:56.562500,1.49,56.8
2067,2018-06-29 08:45:56.593750,7.36,56.8
2068,2018-06-29 08:45:56.625000,9.91,56.8
2069,2018-06-29 08:45:56.656250,9.28,56.8
2070,2018-06-29 08:45:56.687500,6.78,56.8
2071,2018-06-29 08:45:56.718750,6.15,56.8
2072,2018-06-29 08:45:56.750000,10.34,56.8
2073,2018-06-29 08:45:56.781250,16.19,56.8
2074,2018-06-29 08:45:56.812500,16.28,56.8
2075,2018-06-29 08:45:56.843750,6.55,56.8
2076,2018-06-29 08:45:56.875000,-11.97,56.8
2077,2018-06-29 08:45:56.906250,-35.25,56.8
2078,2018-06-29 08:45:56.937500,-54.82,56.8
2079,2018-06-29 08:45:56.968750,-60.59,56.8
2080,2018-06-29 08:45:57.000000,-51.08,56.8
2081,2018-06-29 08:45:57.031250,-35.69,56.8
2082,2018-06-29 08:45:57.062500,-24.34,56.8
2083,2018-06-29 08:45:57.093750,-19.45,56.8
2084,2018-06-29 08:45:57.125000,-17.59,56.8
2085,2018-06-29 08:45:57.156250,-15.27,56.8
2086,2018-06-29 08:45:57.187500,-12.59,56.8
2087,2018-06-29 08:45:57.218750,-11.42,56.8
2088,2018-06-29 08:45:57.250000,-11.19,56.8
2089,2018-06-29 08:45:57.281250,-9.57,56.8
2090,2018-06-29 08:45:57.312500,-6.36,56.8
2091,2018-06-29 08:45:57.343750,-2.9,56.8
2092,2018-06-29 08:45:57.375000,0.7,56.8
2093,2018-06-29 08:45:57.406250,4.79,56.8
2094,2018-06-29 08:45:57.437500,8.63,56.8
2095,2018-06-29 08:45:57.468750,11.88,56.8
2096,2018-06-29 08:45:57.500000,15.41,56.8
2097,2018-06-29 08:45:57.531250,19.16,57.39
2098,2018-06-29 08:45:57.562500,21.68,57.39
2099,2018-06-29 08:45:57.593750,22.5,57.39
2100,2018-06-29 08:45:57.625000,22.54,57.39
2101,2018-06-29 08:45:57.656250,22.1,57.39
2102,2018-06-29 08:45:57.687500,21.14,57.39
2103,2018-06-29 08:45:57.718750,20.15,57.39
2104,2018-06-29 08:45:57.750000,18.58,57.39
2105,2018-06-29 08:45:57.781250,15.08,57.39
2106,2018-06-29 08:45:57.812500,10.36,57.39
2107,2018-06-29 08:45:57.843750,6.15,57.39
2108,2018-06-29 08:45:57.875000,2.21,57.39
2109,2018-06-29 08:45:57.906250,-2.54,57.39
2110,2018-06-29 08:45:57.937500,-7.35,57.39
2111,2018-06-29 08:45:57.968750,-10.89,57.39
2112,2018-06-29 08:45:58.000000,-13.7,57.39
2113,2018-06-29 08:45:58.031250,-17.98,57.39
2114,2018-06-29 08:45:58.062500,-25.84,57.39
2115,2018-06-29 08:45:58.093750,-37.22,57.39
2116,2018-06-29 08:45:58.125000,-47.05,57.39
2117,2018-06-29 08:45:58.156250,-47.67,57.39
2118,2018-06-29 08:45:58.187500,-37.13,57.39
2119,2018-06-29 08:45:58.218750,-21.74,57.39
2120,2018-06-29 08:45:58.250000,-8.32,57.39
2121,2018-06-29 08:45:58.281250,1.79,57.39
2122,2018-06-29 08:45:58.312500,10.32,57.39
2123,2018-06-29 08:45:58.343750,18.25,57.39
2124,2018-06-29 08:45:58.375000,24.97,57.39
2125,2018-06-29 08:45:58.406250,29.08,57.39
2126,2018-06-29 08:45:58.437500,30.58,57.39
2127,2018-06-29 08:45:58.468750,31.31,57.39
2128,2018-06-29 08:45:58.500000,32.85,57.39
2129,2018-06-29 08:45:58.531250,35.17,57.95
2130,2018-06-29 08:45:58.562500,37.14,57.95
2131,2018-06-29 08:45:58.593750,37.64,57.95
2132,2018-06-29 08:45:58.625000,36.53,57.95
2133,2018-06-29 08:45:58.656250,34.98,57.95
2134,2018-06-29 08:45:58.687500,33.76,57.95
2135,2018-06-29 08:45:58.718750,32.1,57.95
2136,2018-06-29 08:45:58.750000,29.11,57.95
2137,2018-06-29 08:45:58.781250,25.48,57.95
2138,2018-06-29 08:45:58.812500,22.22,57.95
2139,2018-06-29 08:45:58.843750,18.92,57.95
2140,2018-06-29 08:45:58.875000,14.49,57.95
2141,2018-06-29 08:45:58.906250,8.62,57.95
2142,2018-06-29 08:45:58.937500,2.33,57.95
2143,2018-06-29 08:45:58.968750,-2.9,57.95
2144,2018-06-29 08:45:59.000000,-6.68,57.95
2145,2018-06-29 08:45:59.031250,-10.08,57.95
2146,2018-06-29 08:45:59.062500,-14.05,57.95
2147,2018-06-29 08:45:59.093750,-18.72,57.95
2148,2018-06-29 08:45:59.125000,-24.12,57.95
2149,2018-06-29 08:45:59.156250,-30.39,57.95
2150,2018-06-29 08:45:59.187500,-37.38,57.95
2151,2018-06-29 08:45:59.218750,-44.34,57.95
2152,2018-06-29 08:45:59.250000,-50.47,57.95
2153,2018-06-29 08:45:59.281250,-56.55,57.95
2154,2018-06-29 08:45:59.312500,-65.35,57.95
2155,2018-06-29 08:45:59.343750,-78.23,57.95
2156,2018-06-29 08:45:59.375000,-89.91,57.95
2157,2018-06-29 08:45:59.406250,-90.41,57.95
2158,2018-06-29 08:45:59.437500,-75.73,57.95
2159,2018-06-29 08:45:59.468750,-53.42,57.95
2160,2018-06-29 08:45:59.500000,-33.41,57.95
2161,2018-06-29 08:45:59.531250,-18.02,58.51
2162,2018-06-29 08:45:59.562500,-4.35,58.51
2163,2018-06-29 08:45:59.593750,8.95,58.51
2164,2018-06-29 08:45:59.625000,20.38,58.51
2165,2018-06-29 08:45:59.656250,28.11,58.51
2166,2018-06-29 08:45:59.687500,32.51,58.51
2167,2018-06-29 08:45:59.718750,35.85,58.51
2168,2018-06-29 08:45:59.750000,39.7,58.51
2169,2018-06-29 08:45:59.781250,44.23,58.51
2170,2018-06-29 08:45:59.812500,48.77,58.51
2171,2018-06-29 08:45:59.843750,51.18,58.51
2172,2018-06-29 08:45:59.875000,49.41,58.51
2173,2018-06-29 08:45:59.906250,44.92,58.51
2174,2018-06-29 08:45:59.937500,41.43,58.51
2175,2018-06-29 08:45:59.968750,39.93,58.51
2176,2018-06-29 08:46:00.000000,38.26,58.51
2177,2018-06-29 08:46:00.031250,35.47,58.51
2178,2018-06-29 08:46:00.062500,32.8,58.51
2179,2018-06-29 08:46:00.093750,30.92,58.51
2180,2018-06-29 08:46:00.125000,28.73,58.51
2181,2018-06-29 08:46:00.156250,25.1,58.51
2182,2018-06-29 08:46:00.187500,20.49,58.51
2183,2018-06-29 08:46:00.218750,16.41,58.51
2184,2018-06-29 08:46:00.250000,13.45,58.51
2185,2018-06-29 08:46:00.281250,10.34,58.51
2186,2018-06-29 08:46:00.312500,5.58,58.51
2187,2018-06-29 08:46:00.343750,-0.35,58.51
2188,2018-06-29 08:46:00.375000,-5.9,58.51
2189,2018-06-29 08:46:00.406250,-10.91,58.51
2190,2018-06-29 08:46:00.437500,-16.68,58.51
2191,2018-06-29 08:46:00.468750,-24.22,58.51
2192,2018-06-29 08:46:00.500000,-33.0,58.51
2193,2018-06-29 08:46:00.531250,-41.32,59.05
2194,2018-06-29 08:46:00.562500,-48.65,59.05
2195,2018-06-29 08:46:00.593750,-57.57,59.05
2196,2018-06-29 08:46:00.625000,-71.23,59.05
2197,2018-06-29 08:46:00.656250,-87.47,59.05
2198,2018-06-29 08:46:00.687500,-97.09,59.05
2199,2018-06-29 08:46:00.718750,-90.98,59.05
2200,2018-06-29 08:46:00.750000,-69.94,59.05
2201,2018-06-29 08:46:00.781250,-44.43,59.05
2202,2018-06-29 08:46:00.812500,-23.37,59.05
2203,2018-06-29 08:46:00.843750,-7.13,59.05
2204,2018-06-29 08:46:00.875000,7.77,59.05
2205,2018-06-29 08:46:00.906250,21.84,59.05
2206,2018-06-29 08:46:00.937500,32.85,59.05
2207,2018-06-29 08:46:00.968750,39.8,59.05
2208,2018-06-29 08:46:01.000000,43.93,59.05
2209,2018-06-29 08:46:01.031250,46.83,59.05
2210,2018-06-29 08:46:01.062500,49.5,59.05
2211,2018-06-29 08:46:01.093750,52.57,59.05
2212,2018-06-29 08:46:01.125000,55.34,59.05
2213,2018-06-29 08:46:01.156250,55.55,59.05
2214,2018-06-29 08:46:01.187500,51.66,59.05
2215,2018-06-29 08:46:01.218750,45.35,59.05
2216,2018-06-29 08:46:01.250000,39.87,59.05
2217,2018-06-29 08:46:01.281250,36.09,59.05
2218,2018-06-29 08:46:01.312500,31.98,59.05
2219,2018-06-29 08:46:01.343750,26.03,59.05
2220,2018-06-29 08:46:01.375000,19.11,59.05
2221,2018-06-29 08:46:01.406250,12.62,59.05
2222,2018-06-29 08:46:01.437500,6.27,59.05
2223,2018-06-29 08:46:01.468750,-1.39,59.05
2224,2018-06-29 08:46:01.500000,-10.38,59.05
2225,2018-06-29 08:46:01.531250,-19.03,59.33
2226,2018-06-29 08:46:01.562500,-26.68,59.33
2227,2018-06-29 08:46:01.593750,-35.18,59.33
2228,2018-06-29 08:46:01.625000,-46.76,59.33
2229,2018-06-29 08:46:01.656250,-60.81,59.33
2230,2018-06-29 08:46:01.687500,-71.73,59.33
2231,2018-06-29 08:46:01.718750,-71.52,59.33
2232,2018-06-29 08:46:01.750000,-57.58,59.33
2233,2018-06-29 08:46:01.781250,-36.34,59.33
2234,2018-06-29 08:46:01.812500,-16.17,59.33
2235,2018-06-29 08:46:01.843750,0.6,59.33
2236,2018-06-29 08:46:01.875000,15.96,59.33
2237,2018-06-29 08:46:01.906250,29.81,59.33
2238,2018-06-29 08:46:01.937500,39.51,59.33
2239,2018-06-29 08:46:01.968750,44.42,59.33
2240,2018-06-29 08:46:02.000000,46.98,59.33
2241,2018-06-29 08:46:02.031250,49.4,59.33
2242,2018-06-29 08:46:02.062500,52.07,59.33
2243,2018-06-29 08:46:02.093750,54.72,59.33
2244,2018-06-29 08:46:02.125000,56.73,59.33
2245,2018-06-29 08:46:02.156250,57.0,59.33
2246,2018-06-29 08:46:02.187500,54.98,59.33
2247,2018-06-29 08:46:02.218750,51.38,59.33
2248,2018-06-29 08:46:02.250000,47.47,59.33
2249,2018-06-29 08:46:02.281250,43.58,59.33
2250,2018-06-29 08:46:02.312500,38.66,59.33
2251,2018-06-29 08:46:02.343750,32.55,59.33
2252,2018-06-29 08:46:02.375000,26.98,59.33
2253,2018-06-29 08:46:02.406250,22.73,59.33
2254,2018-06-29 08:46:02.437500,17.88,59.33
2255,2018-06-29 08:46:02.468750,11.15,59.33
2256,2018-06-29 08:46:02.500000,4.22,59.33
2257,2018-06-29 08:46:02.531250,-1.15,59.43
2258,2018-06-29 08:46:02.562500,-6.13,59.43
2259,2018-06-29 08:46:02.593750,-13.2,59.43
2260,2018-06-29 08:46:02.625000,-22.16,59.43
2261,2018-06-29 08:46:02.656250,-30.56,59.43
2262,2018-06-29 08:46:02.687500,-37.4,59.43
2263,2018-06-29 08:46:02.718750,-44.43,59.43
2264,2018-06-29 08:46:02.750000,-54.63,59.43
2265,2018-06-29 08:46:02.781250,-69.06,59.43
2266,2018-06-29 08:46:02.812500,-82.03,59.43
2267,2018-06-29 08:46:02.843750,-82.53,59.43
2268,2018-06-29 08:46:02.875000,-66.03,59.43
2269,2018-06-29 08:46:02.906250,-40.79,59.43
2270,2018-06-29 08:46:02.937500,-17.64,59.43
2271,2018-06-29 08:46:02.968750,0.72,59.43
2272,2018-06-29 08:46:03.000000,16.79,59.43
2273,2018-06-29 08:46:03.031250,30.79,59.43
2274,2018-06-29 08:46:03.062500,40.4,59.43
2275,2018-06-29 08:46:03.093750,44.87,59.43
2276,2018-06-29 08:46:03.125000,46.39,59.43
2277,2018-06-29 08:46:03.156250,47.34,59.43
2278,2018-06-29 08:46:03.187500,48.57,59.43
2279,2018-06-29 08:46:03.218750,50.43,59.43
2280,2018-06-29 08:46:03.250000,52.49,59.43
2281,2018-06-29 08:46:03.281250,52.74,59.43
2282,2018-06-29 08:46:03.312500,49.89,59.43
2283,2018-06-29 08:46:03.343750,45.35,59.43
2284,2018-06-29 08:46:03.375000,41.05,59.43
2285,2018-06-29 08:46:03.406250,37.03,59.43
2286,2018-06-29 08:46:03.437500,32.76,59.43
2287,2018-06-29 08:46:03.468750,28.55,59.43
2288,2018-06-29 08:46:03.500000,25.11,59.43
2289,2018-06-29 08:46:03.531250,22.83,59.62
2290,2018-06-29 08:46:03.562500,21.05,59.62
2291,2018-06-29 08:46:03.593750,18.06,59.62
2292,2018-06-29 08:46:03.625000,13.07,59.62
2293,2018-06-29 08:46:03.656250,7.77,59.62
2294,2018-06-29 08:46:03.687500,3.78,59.62
2295,2018-06-29 08:46:03.718750,0.1,59.62
2296,2018-06-29 08:46:03.750000,-4.94,59.62
2297,2018-06-29 08:46:03.781250,-10.6,59.62
2298,2018-06-29 08:46:03.812500,-15.12,59.62
2299,2018-06-29 08:46:03.843750,-18.68,59.62
2300,2018-06-29 08:46:03.875000,-23.08,59.62
2301,2018-06-29 08:46:03.906250,-29.26,59.62
2302,2018-06-29 08:46:03.937500,-36.4,59.62
2303,2018-06-29 08:46:03.968750,-42.96,59.62
2304,2018-06-29 08:46:04.000000,-49.04,59.62
2305,2018-06-29 08:46:04.031250,-57.4,59.62
2306,2018-06-29 08:46:04.062500,-69.48,59.62
2307,2018-06-29 08:46:04.093750,-79.88,59.62
2308,2018-06-29 08:46:04.125000,-78.98,59.62
2309,2018-06-29 08:46:04.156250,-63.38,59.62
2310,2018-06-29 08:46:04.187500,-40.06,59.62
2311,2018-06-29 08:46:04.218750,-18.51,59.62
2312,2018-06-29 08:46:04.250000,-2.5,59.62
2313,2018-06-29 08:46:04.281250,9.52,59.62
2314,2018-06-29 08:46:04.312500,19.78,59.62
2315,2018-06-29 08:46:04.343750,28.34,59.62
2316,2018-06-29 08:46:04.375000,33.76,59.62
2317,2018-06-29 08:46:04.406250,35.7,59.62
2318,2018-06-29 08:46:04.437500,36.14,59.62
2319,2018-06-29 08:46:04.468750,37.33,59.62
2320,2018-06-29 08:46:04.500000,39.73,59.62
2321,2018-06-29 08:46:04.531250,41.78,59.45
2322,2018-06-29 08:46:04.562500,41.5,59.45
2323,2018-06-29 08:46:04.593750,38.57,59.45
2324,2018-06-29 08:46:04.625000,34.65,59.45
2325,2018-06-29 08:46:04.656250,31.2,59.45
2326,2018-06-29 08:46:04.687500,28.21,59.45
2327,2018-06-29 08:46:04.718750,25.15,59.45
2328,2018-06-29 08:46:04.750000,22.05,59.45
2329,2018-06-29 08:46:04.781250,19.19,59.45
2330,2018-06-29 08:46:04.812500,16.72,59.45
2331,2018-06-29 08:46:04.843750,14.69,59.45
2332,2018-06-29 08:46:04.875000,12.73,59.45
2333,2018-06-29 08:46:04.906250,9.92,59.45
2334,2018-06-29 08:46:04.937500,6.22,59.45
2335,2018-06-29 08:46:04.968750,2.9,59.45
2336,2018-06-29 08:46:05.000000,0.44,59.45
2337,2018-06-29 08:46:05.031250,-2.33,59.45
2338,2018-06-29 08:46:05.062500,-6.02,59.45
2339,2018-06-29 08:46:05.093750,-10.09,59.45
2340,2018-06-29 08:46:05.125000,-14.33,59.45
2341,2018-06-29 08:46:05.156250,-18.54,59.45
2342,2018-06-29 08:46:05.187500,-22.58,59.45
2343,2018-06-29 08:46:05.218750,-27.26,59.45
2344,2018-06-29 08:46:05.250000,-32.97,59.45
2345,2018-06-29 08:46:05.281250,-38.4,59.45
2346,2018-06-29 08:46:05.312500,-43.11,59.45
2347,2018-06-29 08:46:05.343750,-49.29,59.45
2348,2018-06-29 08:46:05.375000,-58.95,59.45
2349,2018-06-29 08:46:05.406250,-70.18,59.45
2350,2018-06-29 08:46:05.437500,-75.83,59.45
2351,2018-06-29 08:46:05.468750,-68.21,59.45
2352,2018-06-29 08:46:05.500000,-47.85,59.45
2353,2018-06-29 08:46:05.531250,-24.51,60.1
2354,2018-06-29 08:46:05.562500,-7.35,60.1
2355,2018-06-29 08:46:05.593750,2.81,60.1
2356,2018-06-29 08:46:05.625000,10.25,60.1
2357,2018-06-29 08:46:05.656250,17.46,60.1
2358,2018-06-29 08:46:05.687500,23.44,60.1
2359,2018-06-29 08:46:05.718750,26.92,60.1
2360,2018-06-29 08:46:05.750000,28.42,60.1
2361,2018-06-29 08:46:05.781250,29.23,60.1
2362,2018-06-29 08:46:05.812500,30.28,60.1
2363,2018-06-29 08:46:05.843750,32.11,60.1
2364,2018-06-29 08:46:05.875000,34.06,60.1
2365,2018-06-29 08:46:05.906250,34.09,60.1
2366,2018-06-29 08:46:05.937500,31.36,60.1
2367,2018-06-29 08:46:05.968750,27.61,60.1
2368,2018-06-29 08:46:06.000000,24.99,60.1
2369,2018-06-29 08:46:06.031250,23.19,60.1
2370,2018-06-29 08:46:06.062500,20.39,60.1
2371,2018-06-29 08:46:06.093750,16.57,60.1
2372,2018-06-29 08:46:06.125000,13.32,60.1
2373,2018-06-29 08:46:06.156250,10.95,60.1
2374,2018-06-29 08:46:06.187500,8.33,60.1
2375,2018-06-29 08:46:06.218750,5.12,60.1
2376,2018-06-29 08:46:06.250000,2.08,60.1
2377,2018-06-29 08:46:06.281250,-0.69,60.1
2378,2018-06-29 08:46:06.312500,-3.6,60.1
2379,2018-06-29 08:46:06.343750,-6.65,60.1
2380,2018-06-29 08:46:06.375000,-9.7,60.1
2381,2018-06-29 08:46:06.406250,-13.01,60.1
2382,2018-06-29 08:46:06.437500,-16.82,60.1
2383,2018-06-29 08:46:06.468750,-21.1,60.1
2384,2018-06-29 08:46:06.500000,-25.8,60.1
2385,2018-06-29 08:46:06.531250,-30.47,60.72
2386,2018-06-29 08:46:06.562500,-34.18,60.72
2387,2018-06-29 08:46:06.593750,-37.44,60.72
2388,2018-06-29 08:46:06.625000,-42.85,60.72
2389,2018-06-29 08:46:06.656250,-51.42,60.72
2390,2018-06-29 08:46:06.687500,-58.57,60.72
2391,2018-06-29 08:46:06.718750,-56.22,60.72
2392,2018-06-29 08:46:06.750000,-41.68,60.72
2393,2018-06-29 08:46:06.781250,-21.86,60.72
2394,2018-06-29 08:46:06.812500,-5.64,60.72
2395,2018-06-29 08:46:06.843750,4.87,60.72
2396,2018-06-29 08:46:06.875000,12.37,60.72
2397,2018-06-29 08:46:06.906250,18.03,60.72
2398,2018-06-29 08:46:06.937500,21.08,60.72
2399,2018-06-29 08:46:06.968750,21.87,60.72
2400,2018-06-29 08:46:07.000000,22.28,60.72
2401,2018-06-29 08:46:07.031250,23.55,60.72
2402,2018-06-29 08:46:07.062500,25.13,60.72
2403,2018-06-29 08:46:07.093750,26.14,60.72
2404,2018-06-29 08:46:07.125000,26.28,60.72
2405,2018-06-29 08:46:07.156250,25.34,60.72
2406,2018-06-29 08:46:07.187500,23.28,60.72
2407,2018-06-29 08:46:07.218750,20.81,60.72
2408,2018-06-29 08:46:07.250000,18.7,60.72
2409,2018-06-29 08:46:07.281250,16.77,60.72
2410,2018-06-29 08:46:07.312500,14.49,60.72
2411,2018-06-29 08:46:07.343750,12.21,60.72
2412,2018-06-29 08:46:07.375000,10.7,60.72
2413,2018-06-29 08:46:07.406250,10.02,60.72
2414,2018-06-29 08:46:07.437500,9.26,60.72
2415,2018-06-29 08:46:07.468750,7.4,60.72
2416,2018-06-29 08:46:07.500000,4.42,60.72
2417,2018-06-29 08:46:07.531250,1.31,61.33
2418,2018-06-29 08:46:07.562500,-1.28,61.33
2419,2018-06-29 08:46:07.593750,-3.75,61.33
2420,2018-06-29 08:46:07.625000,-6.47,61.33
2421,2018-06-29 08:46:07.656250,-9.42,61.33
2422,2018-06-29 08:46:07.687500,-12.87,61.33
2423,2018-06-29 08:46:07.718750,-16.77,61.33
2424,2018-06-29 08:46:07.750000,-20.55,61.33
2425,2018-06-29 08:46:07.781250,-24.11,61.33
2426,2018-06-29 08:46:07.812500,-27.87,61.33
2427,2018-06-29 08:46:07.843750,-31.88,61.33
2428,2018-06-29 08:46:07.875000,-36.24,61.33
2429,2018-06-29 08:46:07.906250,-41.75,61.33
2430,2018-06-29 08:46:07.937500,-49.6,61.33
2431,2018-06-29 08:46:07.968750,-59.4,61.33
2432,2018-06-29 08:46:08.000000,-66.32,61.33
2433,2018-06-29 08:46:08.031250,-62.95,61.33
2434,2018-06-29 08:46:08.062500,-47.62,61.33
2435,2018-06-29 08:46:08.093750,-27.64,61.33
2436,2018-06-29 08:46:08.125000,-11.42,61.33
2437,2018-06-29 08:46:08.156250,-0.73,61.33
2438,2018-06-29 08:46:08.187500,7.45,61.33
2439,2018-06-29 08:46:08.218750,15.4,61.33
2440,2018-06-29 08:46:08.250000,22.57,61.33
2441,2018-06-29 08:46:08.281250,27.24,61.33
2442,2018-06-29 08:46:08.312500,28.78,61.33
2443,2018-06-29 08:46:08.343750,28.57,61.33
2444,2018-06-29 08:46:08.375000,28.56,61.33
2445,2018-06-29 08:46:08.406250,29.49,61.33
2446,2018-06-29 08:46:08.437500,30.62,61.33
2447,2018-06-29 08:46:08.468750,30.81,61.33
2448,2018-06-29 08:46:08.500000,29.24,61.33
2449,2018-06-29 08:46:08.531250,25.86,61.95
2450,2018-06-29 08:46:08.562500,21.46,61.95
2451,2018-06-29 08:46:08.593750,17.22,61.95
2452,2018-06-29 08:46:08.625000,14.18,61.95
2453,2018-06-29 08:46:08.656250,12.46,61.95
2454,2018-06-29 08:46:08.687500,10.95,61.95
2455,2018-06-29 08:46:08.718750,8.83,61.95
2456,2018-06-29 08:46:08.750000,6.75,61.95
2457,2018-06-29 08:46:08.781250,5.05,61.95
2458,2018-06-29 08:46:08.812500,2.3,61.95
2459,2018-06-29 08:46:08.843750,-2.25,61.95
2460,2018-06-29 08:46:08.875000,-7.25,61.95
2461,2018-06-29 08:46:08.906250,-11.76,61.95
2462,2018-06-29 08:46:08.937500,-16.27,61.95
2463,2018-06-29 08:46:08.968750,-20.19,61.95
2464,2018-06-29 08:46:09.000000,-22.21,61.95
2465,2018-06-29 08:46:09.031250,-23.15,61.95
2466,2018-06-29 08:46:09.062500,-25.22,61.95
2467,2018-06-29 08:46:09.093750,-29.7,61.95
2468,2018-06-29 08:46:09.125000,-37.12,61.95
2469,2018-06-29 08:46:09.156250,-46.6,61.95
2470,2018-06-29 08:46:09.187500,-53.23,61.95
2471,2018-06-29 08:46:09.218750,-50.28,61.95
2472,2018-06-29 08:46:09.250000,-36.35,61.95
2473,2018-06-29 08:46:09.281250,-17.62,61.95
2474,2018-06-29 08:46:09.312500,-1.81,61.95
2475,2018-06-29 08:46:09.343750,8.51,61.95
2476,2018-06-29 08:46:09.375000,15.43,61.95
2477,2018-06-29 08:46:09.406250,20.39,61.95
2478,2018-06-29 08:46:09.437500,22.81,61.95
2479,2018-06-29 08:46:09.468750,23.09,61.95
2480,2018-06-29 08:46:09.500000,23.46,61.95
2481,2018-06-29 08:46:09.531250,25.0,62.67
2482,2018-06-29 08:46:09.562500,26.76,62.67
2483,2018-06-29 08:46:09.593750,27.82,62.67
2484,2018-06-29 08:46:09.625000,28.26,62.67
2485,2018-06-29 08:46:09.656250,27.89,62.67
2486,2018-06-29 08:46:09.687500,25.92,62.67
2487,2018-06-29 08:46:09.718750,22.73,62.67
2488,2018-06-29 08:46:09.750000,19.94,62.67
2489,2018-06-29 08:46:09.781250,18.17,62.67
2490,2018-06-29 08:46:09.812500,15.94,62.67
2491,2018-06-29 08:46:09.843750,12.27,62.67
2492,2018-06-29 08:46:09.875000,8.41,62.67
2493,2018-06-29 08:46:09.906250,5.47,62.67
2494,2018-06-29 08:46:09.937500,2.55,62.67
2495,2018-06-29 08:46:09.968750,-1.6,62.67
2496,2018-06-29 08:46:10.000000,-6.92,62.67
2497,2018-06-29 08:46:10.031250,-12.65,62.67
2498,2018-06-29 08:46:10.062500,-18.03,62.67
2499,2018-06-29 08:46:10.093750,-22.57,62.67
2500,2018-06-29 08:46:10.125000,-27.44,62.67
2501,2018-06-29 08:46:10.156250,-34.67,62.67
2502,2018-06-29 08:46:10.187500,-43.52,62.67
2503,2018-06-29 08:46:10.218750,-51.16,62.67
2504,2018-06-29 08:46:10.250000,-57.23,62.67
2505,2018-06-29 08:46:10.281250,-64.65,62.67
2506,2018-06-29 08:46:10.312500,-75.22,62.67
2507,2018-06-29 08:46:10.343750,-85.85,62.67
2508,2018-06-29 08:46:10.375000,-88.21,62.67
2509,2018-06-29 08:46:10.406250,-74.39,62.67
2510,2018-06-29 08:46:10.437500,-45.69,62.67
2511,2018-06-29 08:46:10.468750,-12.81,62.67
2512,2018-06-29 08:46:10.500000,14.87,62.67
2513,2018-06-29 08:46:10.531250,35.55,63.43
2514,2018-06-29 08:46:10.562500,51.17,63.43
2515,2018-06-29 08:46:10.593750,62.87,63.43
2516,2018-06-29 08:46:10.625000,70.45,63.43
2517,2018-06-29 08:46:10.656250,73.2,63.43
2518,2018-06-29 08:46:10.687500,71.47,63.43
2519,2018-06-29 08:46:10.718750,66.92,63.43
2520,2018-06-29 08:46:10.750000,60.82,63.43
2521,2018-06-29 08:46:10.781250,53.78,63.43
2522,2018-06-29 08:46:10.812500,46.84,63.43
2523,2018-06-29 08:46:10.843750,40.31,63.43
2524,2018-06-29 08:46:10.875000,33.85,63.43
2525,2018-06-29 08:46:10.906250,28.32,63.43
2526,2018-06-29 08:46:10.937500,24.95,63.43
2527,2018-06-29 08:46:10.968750,22.83,63.43
2528,2018-06-29 08:46:11.000000,20.26,63.43
2529,2018-06-29 08:46:11.031250,17.32,63.43
2530,2018-06-29 08:46:11.062500,15.11,63.43
2531,2018-06-29 08:46:11.093750,13.63,63.43
2532,2018-06-29 08:46:11.125000,12.01,63.43
2533,2018-06-29 08:46:11.156250,9.87,63.43
2534,2018-06-29 08:46:11.187500,7.58,63.43
2535,2018-06-29 08:46:11.218750,5.91,63.43
2536,2018-06-29 08:46:11.250000,5.02,63.43
2537,2018-06-29 08:46:11.281250,3.96,63.43
2538,2018-06-29 08:46:11.312500,1.97,63.43
2539,2018-06-29 08:46:11.343750,-0.22,63.43
2540,2018-06-29 08:46:11.375000,-1.9,63.43
2541,2018-06-29 08:46:11.406250,-3.98,63.43
2542,2018-06-29 08:46:11.437500,-7.52,63.43
2543,2018-06-29 08:46:11.468750,-11.89,63.43
2544,2018-06-29 08:46:11.500000,-15.8,63.43
2545,2018-06-29 08:46:11.531250,-19.36,64.08
2546,2018-06-29 08:46:11.562500,-23.65,64.08
2547,2018-06-29 08:46:11.593750,-29.14,64.08
2548,2018-06-29 08:46:11.625000,-35.3,64.08
2549,2018-06-29 08:46:11.656250,-41.65,64.08
2550,2018-06-29 08:46:11.687500,-48.63,64.08
2551,2018-06-29 08:46:11.718750,-57.43,64.08
2552,2018-06-29 08:46:11.750000,-68.27,64.08
2553,2018-06-29 08:46:11.781250,-77.67,64.08
2554,2018-06-29 08:46:11.812500,-78.6,64.08
2555,2018-06-29 08:46:11.843750,-66.77,64.08
2556,2018-06-29 08:46:11.875000,-46.49,64.08
2557,2018-06-29 08:46:11.906250,-26.82,64.08
2558,2018-06-29 08:46:11.937500,-12.37,64.08
2559,2018-06-29 08:46:11.968750,-0.99,64.08
2560,2018-06-29 08:46:12.000000,10.76,64.08
2561,2018-06-29 08:46:12.031250,22.68,64.08
2562,2018-06-29 08:46:12.062500,31.92,64.08
2563,2018-06-29 08:46:12.093750,36.96,64.08
2564,2018-06-29 08:46:12.125000,39.24,64.08
2565,2018-06-29 08:46:12.156250,40.78,64.08
2566,2018-06-29 08:46:12.187500,42.26,64.08
2567,2018-06-29 08:46:12.218750,43.86,64.08
2568,2018-06-29 08:46:12.250000,45.49,64.08
2569,2018-06-29 08:46:12.281250,45.82,64.08
2570,2018-06-29 08:46:12.312500,43.48,64.08
2571,2018-06-29 08:46:12.343750,39.51,64.08
2572,2018-06-29 08:46:12.375000,36.27,64.08
2573,2018-06-29 08:46:12.406250,34.23,64.08
2574,2018-06-29 08:46:12.437500,32.0,64.08
2575,2018-06-29 08:46:12.468750,29.08,64.08
2576,2018-06-29 08:46:12.500000,26.58,64.08
2577,2018-06-29 08:46:12.531250,25.07,64.73
2578,2018-06-29 08:46:12.562500,23.41,64.73
2579,2018-06-29 08:46:12.593750,20.51,64.73
2580,2018-06-29 08:46:12.625000,16.8,64.73
2581,2018-06-29 08:46:12.656250,13.21,64.73
2582,2018-06-29 08:46:12.687500,10.13,64.73
2583,2018-06-29 08:46:12.718750,7.94,64.73
2584,2018-06-29 08:46:12.750000,6.69,64.73
2585,2018-06-29 08:46:12.781250,5.1,64.73
2586,2018-06-29 08:46:12.812500,2.19,64.73
2587,2018-06-29 08:46:12.843750,-1.03,64.73
2588,2018-06-29 08:46:12.875000,-3.22,64.73
2589,2018-06-29 08:46:12.906250,-5.06,64.73
2590,2018-06-29 08:46:12.937500,-8.0,64.73
2591,2018-06-29 08:46:12.968750,-11.7,64.73
2592,2018-06-29 08:46:13.000000,-15.17,64.73
2593,2018-06-29 08:46:13.031250,-19.16,64.73
2594,2018-06-29 08:46:13.062500,-25.09,64.73
2595,2018-06-29 08:46:13.093750,-32.28,64.73
2596,2018-06-29 08:46:13.125000,-38.51,64.73
2597,2018-06-29 08:46:13.156250,-43.75,64.73
2598,2018-06-29 08:46:13.187500,-51.17,64.73
2599,2018-06-29 08:46:13.218750,-62.53,64.73
2600,2018-06-29 08:46:13.250000,-73.36,64.73
2601,2018-06-29 08:46:13.281250,-75.03,64.73
2602,2018-06-29 08:46:13.312500,-63.05,64.73
2603,2018-06-29 08:46:13.343750,-42.2,64.73
2604,2018-06-29 08:46:13.375000,-22.02,64.73
2605,2018-06-29 08:46:13.406250,-7.95,64.73
2606,2018-06-29 08:46:13.437500,1.6,64.73
2607,2018-06-29 08:46:13.468750,10.29,64.73
2608,2018-06-29 08:46:13.500000,18.81,64.73
2609,2018-06-29 08:46:13.531250,25.36,65.4
2610,2018-06-29 08:46:13.562500,29.09,65.4
2611,2018-06-29 08:46:13.593750,31.15,65.4
2612,2018-06-29 08:46:13.625000,33.04,65.4
2613,2018-06-29 08:46:13.656250,35.17,65.4
2614,2018-06-29 08:46:13.687500,36.8,65.4
2615,2018-06-29 08:46:13.718750,36.83,65.4
2616,2018-06-29 08:46:13.750000,35.05,65.4
2617,2018-06-29 08:46:13.781250,32.37,65.4
2618,2018-06-29 08:46:13.812500,29.76,65.4
2619,2018-06-29 08:46:13.843750,27.58,65.4
2620,2018-06-29 08:46:13.875000,25.8,65.4
2621,2018-06-29 08:46:13.906250,24.09,65.4
2622,2018-06-29 08:46:13.937500,22.1,65.4
2623,2018-06-29 08:46:13.968750,19.87,65.4
2624,2018-06-29 08:46:14.000000,17.44,65.4
2625,2018-06-29 08:46:14.031250,14.33,65.4
2626,2018-06-29 08:46:14.062500,10.33,65.4
2627,2018-06-29 08:46:14.093750,5.97,65.4
2628,2018-06-29 08:46:14.125000,1.7,65.4
2629,2018-06-29 08:46:14.156250,-2.83,65.4
2630,2018-06-29 08:46:14.187500,-7.79,65.4
2631,2018-06-29 08:46:14.218750,-12.37,65.4
2632,2018-06-29 08:46:14.250000,-16.27,65.4
2633,2018-06-29 08:46:14.281250,-20.86,65.4
2634,2018-06-29 08:46:14.312500,-27.37,65.4
2635,2018-06-29 08:46:14.343750,-34.78,65.4
2636,2018-06-29 08:46:14.375000,-41.46,65.4
2637,2018-06-29 08:46:14.406250,-48.25,65.4
2638,2018-06-29 08:46:14.437500,-57.88,65.4
2639,2018-06-29 08:46:14.468750,-70.76,65.4
2640,2018-06-29 08:46:14.500000,-81.8,65.4
2641,2018-06-29 08:46:14.531250,-82.54,66.12
2642,2018-06-29 08:46:14.562500,-69.06,66.12
2643,2018-06-29 08:46:14.593750,-46.88,66.12
2644,2018-06-29 08:46:14.625000,-25.57,66.12
2645,2018-06-29 08:46:14.656250,-9.61,66.12
2646,2018-06-29 08:46:14.687500,2.71,66.12
2647,2018-06-29 08:46:14.718750,14.01,66.12
2648,2018-06-29 08:46:14.750000,24.41,66.12
2649,2018-06-29 08:46:14.781250,32.19,66.12
2650,2018-06-29 08:46:14.812500,36.0,66.12
2651,2018-06-29 08:46:14.843750,36.92,66.12
2652,2018-06-29 08:46:14.875000,37.9,66.12
2653,2018-06-29 08:46:14.906250,40.62,66.12
2654,2018-06-29 08:46:14.937500,43.9,66.12
2655,2018-06-29 08:46:14.968750,45.31,66.12
2656,2018-06-29 08:46:15.000000,44.24,66.12
2657,2018-06-29 08:46:15.031250,42.31,66.12
2658,2018-06-29 08:46:15.062500,40.54,66.12
2659,2018-06-29 08:46:15.093750,38.21,66.12
2660,2018-06-29 08:46:15.125000,35.18,66.12
2661,2018-06-29 08:46:15.156250,32.25,66.12
2662,2018-06-29 08:46:15.187500,29.16,66.12
2663,2018-06-29 08:46:15.218750,25.42,66.12
2664,2018-06-29 08:46:15.250000,22.01,66.12
2665,2018-06-29 08:46:15.281250,19.68,66.12
2666,2018-06-29 08:46:15.312500,17.82,66.12
2667,2018-06-29 08:46:15.343750,15.76,66.12
2668,2018-06-29 08:46:15.375000,13.05,66.12
2669,2018-06-29 08:46:15.406250,9.2,66.12
2670,2018-06-29 08:46:15.437500,4.63,66.12
2671,2018-06-29 08:46:15.468750,0.31,66.12
2672,2018-06-29 08:46:15.500000,-3.58,66.12
2673,2018-06-29 08:46:15.531250,-7.81,66.95
2674,2018-06-29 08:46:15.562500,-12.7,66.95
2675,2018-06-29 08:46:15.593750,-17.42,66.95
2676,2018-06-29 08:46:15.625000,-21.29,66.95
2677,2018-06-29 08:46:15.656250,-25.43,66.95
2678,2018-06-29 08:46:15.687500,-31.36,66.95
2679,2018-06-29 08:46:15.718750,-38.39,66.95
2680,2018-06-29 08:46:15.750000,-44.45,66.95
2681,2018-06-29 08:46:15.781250,-49.77,66.95
2682,2018-06-29 08:46:15.812500,-57.78,66.95
2683,2018-06-29 08:46:15.843750,-70.85,66.95
2684,2018-06-29 08:46:15.875000,-84.52,66.95
2685,2018-06-29 08:46:15.906250,-88.4,66.95
2686,2018-06-29 08:46:15.937500,-76.33,66.95
2687,2018-06-29 08:46:15.968750,-53.46,66.95
2688,2018-06-29 08:46:16.000000,-30.33,66.95
2689,2018-06-29 08:46:16.031250,-12.71,66.95
2690,2018-06-29 08:46:16.062500,-0.03,66.95
2691,2018-06-29 08:46:16.093750,10.46,66.95
2692,2018-06-29 08:46:16.125000,20.32,66.95
2693,2018-06-29 08:46:16.156250,28.74,66.95
2694,2018-06-29 08:46:16.187500,34.51,66.95
2695,2018-06-29 08:46:16.218750,38.56,66.95
2696,2018-06-29 08:46:16.250000,42.36,66.95
2697,2018-06-29 08:46:16.281250,45.69,66.95
2698,2018-06-29 08:46:16.312500,47.91,66.95
2699,2018-06-29 08:46:16.343750,48.93,66.95
2700,2018-06-29 08:46:16.375000,48.26,66.95
2701,2018-06-29 08:46:16.406250,45.81,66.95
2702,2018-06-29 08:46:16.437500,42.84,66.95
2703,2018-06-29 08:46:16.468750,40.29,66.95
2704,2018-06-29 08:46:16.500000,37.66,66.95
2705,2018-06-29 08:46:16.531250,34.6,67.78
2706,2018-06-29 08:46:16.562500,31.7,67.78
2707,2018-06-29 08:46:16.593750,29.16,67.78
2708,2018-06-29 08:46:16.625000,26.32,67.78
2709,2018-06-29 08:46:16.656250,23.05,67.78
2710,2018-06-29 08:46:16.687500,20.02,67.78
2711,2018-06-29 08:46:16.718750,17.24,67.78
2712,2018-06-29 08:46:16.750000,14.16,67.78
2713,2018-06-29 08:46:16.781250,10.65,67.78
2714,2018-06-29 08:46:16.812500,6.83,67.78
2715,2018-06-29 08:46:16.843750,2.76,67.78
2716,2018-06-29 08:46:16.875000,-1.59,67.78
2717,2018-06-29 08:46:16.906250,-6.36,67.78
2718,2018-06-29 08:46:16.937500,-11.53,67.78
2719,2018-06-29 08:46:16.968750,-16.94,67.78
2720,2018-06-29 08:46:17.000000,-22.97,67.78
2721,2018-06-29 08:46:17.031250,-30.11,67.78
2722,2018-06-29 08:46:17.062500,-37.44,67.78
2723,2018-06-29 08:46:17.093750,-43.53,67.78
2724,2018-06-29 08:46:17.125000,-49.37,67.78
2725,2018-06-29 08:46:17.156250,-58.91,67.78
2726,2018-06-29 08:46:17.187500,-74.0,67.78
2727,2018-06-29 08:46:17.218750,-88.02,67.78
2728,2018-06-29 08:46:17.250000,-89.06,67.78
2729,2018-06-29 08:46:17.281250,-72.89,67.78
2730,2018-06-29 08:46:17.312500,-48.18,67.78
2731,2018-06-29 08:46:17.343750,-25.83,67.78
2732,2018-06-29 08:46:17.375000,-9.01,67.78
2733,2018-06-29 08:46:17.406250,4.32,67.78
2734,2018-06-29 08:46:17.437500,15.52,67.78
2735,2018-06-29 08:46:17.468750,24.37,67.78
2736,2018-06-29 08:46:17.500000,30.3,67.78
2737,2018-06-29 08:46:17.531250,33.43,68.58
2738,2018-06-29 08:46:17.562500,35.11,68.58
2739,2018-06-29 08:46:17.593750,37.26,68.58
2740,2018-06-29 08:46:17.625000,40.73,68.58
2741,2018-06-29 08:46:17.656250,44.67,68.58
2742,2018-06-29 08:46:17.687500,46.95,68.58
2743,2018-06-29 08:46:17.718750,46.24,68.58
2744,2018-06-29 08:46:17.750000,43.37,68.58
2745,2018-06-29 08:46:17.781250,40.15,68.58
2746,2018-06-29 08:46:17.812500,37.21,68.58
2747,2018-06-29 08:46:17.843750,34.05,68.58
2748,2018-06-29 08:46:17.875000,30.53,68.58
2749,2018-06-29 08:46:17.906250,27.17,68.58
2750,2018-06-29 08:46:17.937500,24.04,68.58
2751,2018-06-29 08:46:17.968750,20.59,68.58
2752,2018-06-29 08:46:18.000000,16.58,68.58
2753,2018-06-29 08:46:18.031250,12.26,68.58
2754,2018-06-29 08:46:18.062500,7.42,68.58
2755,2018-06-29 08:46:18.093750,1.62,68.58
2756,2018-06-29 08:46:18.125000,-4.75,68.58
2757,2018-06-29 08:46:18.156250,-10.8,68.58
2758,2018-06-29 08:46:18.187500,-16.62,68.58
2759,2018-06-29 08:46:18.218750,-23.4,68.58
