,Time,ppg,hr
32000,2018-06-29 09:01:32.000000,53.98,89.57
32001,2018-06-29 09:01:32.031250,53.46,89.57
32002,2018-06-29 09:01:32.062500,27.54,89.57
32003,2018-06-29 09:01:32.093750,-8.98,89.57
32004,2018-06-29 09:01:32.125000,-36.81,89.57
32005,2018-06-29 09:01:32.156250,-53.45,89.57
32006,2018-06-29 09:01:32.187500,-61.13,89.57
32007,2018-06-29 09:01:32.218750,-54.13,89.57
32008,2018-06-29 09:01:32.250000,-34.17,89.57
32009,2018-06-29 09:01:32.281250,-15.13,89.57
32010,2018-06-29 09:01:32.312500,-1.24,89.57
32011,2018-06-29 09:01:32.343750,17.24,89.57
32012,2018-06-29 09:01:32.375000,42.09,89.57
32013,2018-06-29 09:01:32.406250,61.61,89.57
32014,2018-06-29 09:01:32.437500,68.62,89.57
32015,2018-06-29 09:01:32.468750,68.35,89.57
32016,2018-06-29 09:01:32.500000,68.91,89.57
32017,2018-06-29 09:01:32.531250,75.7,89.33
32018,2018-06-29 09:01:32.562500,87.66,89.33
32019,2018-06-29 09:01:32.593750,89.63,89.33
32020,2018-06-29 09:01:32.625000,64.68,89.33
32021,2018-06-29 09:01:32.656250,20.96,89.33
32022,2018-06-29 09:01:32.687500,-15.87,89.33
32023,2018-06-29 09:01:32.718750,-35.86,89.33
32024,2018-06-29 09:01:32.750000,-45.52,89.33
32025,2018-06-29 09:01:32.781250,-45.53,89.33
32026,2018-06-29 09:01:32.812500,-33.53,89.33
32027,2018-06-29 09:01:32.843750,-16.54,89.33
32028,2018-06-29 09:01:32.875000,-2.15,89.33
32029,2018-06-29 09:01:32.906250,10.19,89.33
32030,2018-06-29 09:01:32.937500,21.09,89.33
32031,2018-06-29 09:01:32.968750,28.71,89.33
32032,2018-06-29 09:01:33.000000,37.99,89.33
32033,2018-06-29 09:01:33.031250,58.95,89.33
32034,2018-06-29 09:01:33.062500,87.42,89.33
32035,2018-06-29 09:01:33.093750,97.58,89.33
32036,2018-06-29 09:01:33.125000,67.89,89.33
32037,2018-06-29 09:01:33.156250,10.42,89.33
32038,2018-06-29 09:01:33.187500,-40.51,89.33
32039,2018-06-29 09:01:33.218750,-66.65,89.33
32040,2018-06-29 09:01:33.250000,-77.36,89.33
32041,2018-06-29 09:01:33.281250,-86.17,89.33
32042,2018-06-29 09:01:33.312500,-93.36,89.33
32043,2018-06-29 09:01:33.343750,-93.64,89.33
32044,2018-06-29 09:01:33.375000,-86.21,89.33
32045,2018-06-29 09:01:33.406250,-72.39,89.33
32046,2018-06-29 09:01:33.437500,-53.33,89.33
32047,2018-06-29 09:01:33.468750,-33.24,89.33
32048,2018-06-29 09:01:33.500000,-16.57,89.33
32049,2018-06-29 09:01:33.531250,-1.43,89.03
32050,2018-06-29 09:01:33.562500,16.56,89.03
32051,2018-06-29 09:01:33.593750,35.37,89.03
32052,2018-06-29 09:01:33.625000,48.43,89.03
32053,2018-06-29 09:01:33.656250,53.95,89.03
32054,2018-06-29 09:01:33.687500,57.79,89.03
32055,2018-06-29 09:01:33.718750,67.28,89.03
32056,2018-06-29 09:01:33.750000,79.34,89.03
32057,2018-06-29 09:01:33.781250,75.81,89.03
32058,2018-06-29 09:01:33.812500,42.22,89.03
32059,2018-06-29 09:01:33.843750,-7.85,89.03
32060,2018-06-29 09:01:33.875000,-42.85,89.03
32061,2018-06-29 09:01:33.906250,-48.24,89.03
32062,2018-06-29 09:01:33.937500,-35.73,89.03
32063,2018-06-29 09:01:33.968750,-21.25,89.03
32064,2018-06-29 09:01:34.000000,-10.78,89.03
32065,2018-06-29 09:01:34.031250,-4.61,89.03
32066,2018-06-29 09:01:34.062500,-1.09,89.03
32067,2018-06-29 09:01:34.093750,2.89,89.03
32068,2018-06-29 09:01:34.125000,8.0,89.03
32069,2018-06-29 09:01:34.156250,11.51,89.03
32070,2018-06-29 09:01:34.187500,13.56,89.03
32071,2018-06-29 09:01:34.218750,19.9,89.03
32072,2018-06-29 09:01:34.250000,33.45,89.03
32073,2018-06-29 09:01:34.281250,43.56,89.03
32074,2018-06-29 09:01:34.312500,31.6,89.03
32075,2018-06-29 09:01:34.343750,-6.16,89.03
32076,2018-06-29 09:01:34.375000,-48.47,89.03
32077,2018-06-29 09:01:34.406250,-72.1,89.03
32078,2018-06-29 09:01:34.437500,-74.83,89.03
32079,2018-06-29 09:01:34.468750,-66.03,89.03
32080,2018-06-29 09:01:34.500000,-49.88,89.03
32081,2018-06-29 09:01:34.531250,-28.88,88.72
32082,2018-06-29 09:01:34.562500,-8.97,88.72
32083,2018-06-29 09:01:34.593750,6.66,88.72
32084,2018-06-29 09:01:34.625000,18.86,88.72
32085,2018-06-29 09:01:34.656250,26.57,88.72
32086,2018-06-29 09:01:34.687500,27.48,88.72
32087,2018-06-29 09:01:34.718750,23.51,88.72
32088,2018-06-29 09:01:34.750000,19.97,88.72
32089,2018-06-29 09:01:34.781250,19.1,88.72
32090,2018-06-29 09:01:34.812500,18.17,88.72
32091,2018-06-29 09:01:34.843750,15.55,88.72
32092,2018-06-29 09:01:34.875000,14.3,88.72
32093,2018-06-29 09:01:34.906250,15.48,88.72
32094,2018-06-29 09:01:34.937500,13.12,88.72
32095,2018-06-29 09:01:34.968750,1.74,88.72
32096,2018-06-29 09:01:35.000000,-14.04,88.72
32097,2018-06-29 09:01:35.031250,-23.14,88.72
32098,2018-06-29 09:01:35.062500,-21.48,88.72
32099,2018-06-29 09:01:35.093750,-15.29,88.72
32100,2018-06-29 09:01:35.125000,-10.85,88.72
32101,2018-06-29 09:01:35.156250,-8.07,88.72
32102,2018-06-29 09:01:35.187500,-5.92,88.72
32103,2018-06-29 09:01:35.218750,-5.71,88.72
32104,2018-06-29 09:01:35.250000,-6.79,88.72
32105,2018-06-29 09:01:35.281250,-5.91,88.72
32106,2018-06-29 09:01:35.312500,-1.04,88.72
32107,2018-06-29 09:01:35.343750,7.71,88.72
32108,2018-06-29 09:01:35.375000,16.79,88.72
32109,2018-06-29 09:01:35.406250,18.19,88.72
32110,2018-06-29 09:01:35.437500,8.24,88.72
32111,2018-06-29 09:01:35.468750,-3.63,88.72
32112,2018-06-29 09:01:35.500000,-6.21,88.72
32113,2018-06-29 09:01:35.531250,-1.48,88.38
32114,2018-06-29 09:01:35.562500,4.04,88.38
32115,2018-06-29 09:01:35.593750,13.48,88.38
32116,2018-06-29 09:01:35.625000,31.63,88.38
32117,2018-06-29 09:01:35.656250,53.04,88.38
32118,2018-06-29 09:01:35.687500,68.81,88.38
32119,2018-06-29 09:01:35.718750,76.96,88.38
32120,2018-06-29 09:01:35.750000,80.46,88.38
32121,2018-06-29 09:01:35.781250,82.63,88.38
32122,2018-06-29 09:01:35.812500,87.16,88.38
32123,2018-06-29 09:01:35.843750,96.33,88.38
32124,2018-06-29 09:01:35.875000,108.69,88.38
32125,2018-06-29 09:01:35.906250,123.4,88.38
32126,2018-06-29 09:01:35.937500,146.12,88.38
32127,2018-06-29 09:01:35.968750,185.28,88.38
32128,2018-06-29 09:01:36.000000,239.58,88.38
32129,2018-06-29 09:01:36.031250,289.57,88.38
32130,2018-06-29 09:01:36.062500,308.63,88.38
32131,2018-06-29 09:01:36.093750,286.8,88.38
32132,2018-06-29 09:01:36.125000,234.99,88.38
32133,2018-06-29 09:01:36.156250,162.18,88.38
32134,2018-06-29 09:01:36.187500,67.28,88.38
32135,2018-06-29 09:01:36.218750,-37.29,88.38
32136,2018-06-29 09:01:36.250000,-122.44,88.38
32137,2018-06-29 09:01:36.281250,-174.85,88.38
32138,2018-06-29 09:01:36.312500,-206.41,88.38
32139,2018-06-29 09:01:36.343750,-226.74,88.38
32140,2018-06-29 09:01:36.375000,-233.16,88.38
32141,2018-06-29 09:01:36.406250,-228.28,88.38
32142,2018-06-29 09:01:36.437500,-221.9,88.38
32143,2018-06-29 09:01:36.468750,-215.97,88.38
32144,2018-06-29 09:01:36.500000,-205.01,88.38
32145,2018-06-29 09:01:36.531250,-188.55,88.0
32146,2018-06-29 09:01:36.562500,-171.79,88.0
32147,2018-06-29 09:01:36.593750,-156.31,88.0
32148,2018-06-29 09:01:36.625000,-139.98,88.0
32149,2018-06-29 09:01:36.656250,-124.28,88.0
32150,2018-06-29 09:01:36.687500,-111.61,88.0
32151,2018-06-29 09:01:36.718750,-96.98,88.0
32152,2018-06-29 09:01:36.750000,-74.03,88.0
32153,2018-06-29 09:01:36.781250,-45.17,88.0
32154,2018-06-29 09:01:36.812500,-17.02,88.0
32155,2018-06-29 09:01:36.843750,7.55,88.0
32156,2018-06-29 09:01:36.875000,27.01,88.0
32157,2018-06-29 09:01:36.906250,38.7,88.0
32158,2018-06-29 09:01:36.937500,43.14,88.0
32159,2018-06-29 09:01:36.968750,45.34,88.0
32160,2018-06-29 09:01:37.000000,49.33,88.0
32161,2018-06-29 09:01:37.031250,53.98,88.0
32162,2018-06-29 09:01:37.062500,55.41,88.0
32163,2018-06-29 09:01:37.093750,53.51,88.0
32164,2018-06-29 09:01:37.125000,53.47,88.0
32165,2018-06-29 09:01:37.156250,59.3,88.0
32166,2018-06-29 09:01:37.187500,68.49,88.0
32167,2018-06-29 09:01:37.218750,76.21,88.0
32168,2018-06-29 09:01:37.250000,83.56,88.0
32169,2018-06-29 09:01:37.281250,100.51,88.0
32170,2018-06-29 09:01:37.312500,140.7,88.0
32171,2018-06-29 09:01:37.343750,207.42,88.0
32172,2018-06-29 09:01:37.375000,279.18,88.0
32173,2018-06-29 09:01:37.406250,319.9,88.0
32174,2018-06-29 09:01:37.437500,312.5,88.0
32175,2018-06-29 09:01:37.468750,270.11,88.0
32176,2018-06-29 09:01:37.500000,211.46,88.0
32177,2018-06-29 09:01:37.531250,144.91,87.63
32178,2018-06-29 09:01:37.562500,76.77,87.63
32179,2018-06-29 09:01:37.593750,14.3,87.63
32180,2018-06-29 09:01:37.625000,-40.13,87.63
32181,2018-06-29 09:01:37.656250,-87.45,87.63
32182,2018-06-29 09:01:37.687500,-128.18,87.63
32183,2018-06-29 09:01:37.718750,-163.35,87.63
32184,2018-06-29 09:01:37.750000,-193.56,87.63
32185,2018-06-29 09:01:37.781250,-217.83,87.63
32186,2018-06-29 09:01:37.812500,-234.34,87.63
32187,2018-06-29 09:01:37.843750,-239.54,87.63
32188,2018-06-29 09:01:37.875000,-230.2,87.63
32189,2018-06-29 09:01:37.906250,-208.76,87.63
32190,2018-06-29 09:01:37.937500,-181.99,87.63
32191,2018-06-29 09:01:37.968750,-154.33,87.63
32192,2018-06-29 09:01:38.000000,-127.46,87.63
32193,2018-06-29 09:01:38.031250,-102.62,87.63
32194,2018-06-29 09:01:38.062500,-76.55,87.63
32195,2018-06-29 09:01:38.093750,-39.79,87.63
32196,2018-06-29 09:01:38.125000,12.1,87.63
32197,2018-06-29 09:01:38.156250,65.81,87.63
32198,2018-06-29 09:01:38.187500,95.5,87.63
32199,2018-06-29 09:01:38.218750,85.95,87.63
32200,2018-06-29 09:01:38.250000,49.56,87.63
32201,2018-06-29 09:01:38.281250,13.1,87.63
32202,2018-06-29 09:01:38.312500,-11.19,87.63
32203,2018-06-29 09:01:38.343750,-31.7,87.63
32204,2018-06-29 09:01:38.375000,-57.01,87.63
32205,2018-06-29 09:01:38.406250,-82.57,87.63
32206,2018-06-29 09:01:38.437500,-98.04,87.63
32207,2018-06-29 09:01:38.468750,-97.57,87.63
32208,2018-06-29 09:01:38.500000,-82.26,87.63
32209,2018-06-29 09:01:38.531250,-59.15,87.27
32210,2018-06-29 09:01:38.562500,-37.87,87.27
32211,2018-06-29 09:01:38.593750,-24.27,87.27
32212,2018-06-29 09:01:38.625000,-15.8,87.27
32213,2018-06-29 09:01:38.656250,-4.96,87.27
32214,2018-06-29 09:01:38.687500,11.18,87.27
32215,2018-06-29 09:01:38.718750,27.08,87.27
32216,2018-06-29 09:01:38.750000,37.81,87.27
32217,2018-06-29 09:01:38.781250,50.3,87.27
32218,2018-06-29 09:01:38.812500,78.52,87.27
32219,2018-06-29 09:01:38.843750,121.83,87.27
32220,2018-06-29 09:01:38.875000,154.63,87.27
32221,2018-06-29 09:01:38.906250,148.79,87.27
32222,2018-06-29 09:01:38.937500,103.14,87.27
32223,2018-06-29 09:01:38.968750,43.03,87.27
32224,2018-06-29 09:01:39.000000,-2.86,87.27
32225,2018-06-29 09:01:39.031250,-22.1,87.27
32226,2018-06-29 09:01:39.062500,-24.0,87.27
32227,2018-06-29 09:01:39.093750,-28.01,87.27
32228,2018-06-29 09:01:39.125000,-43.7,87.27
32229,2018-06-29 09:01:39.156250,-65.39,87.27
32230,2018-06-29 09:01:39.187500,-83.57,87.27
32231,2018-06-29 09:01:39.218750,-93.3,87.27
32232,2018-06-29 09:01:39.250000,-93.94,87.27
32233,2018-06-29 09:01:39.281250,-87.79,87.27
32234,2018-06-29 09:01:39.312500,-78.28,87.27
32235,2018-06-29 09:01:39.343750,-67.05,87.27
32236,2018-06-29 09:01:39.375000,-53.25,87.27
32237,2018-06-29 09:01:39.406250,-35.93,87.27
32238,2018-06-29 09:01:39.437500,-13.42,87.27
32239,2018-06-29 09:01:39.468750,18.93,87.27
32240,2018-06-29 09:01:39.500000,59.09,87.27
32241,2018-06-29 09:01:39.531250,89.74,86.9
32242,2018-06-29 09:01:39.562500,95.02,86.9
32243,2018-06-29 09:01:39.593750,79.21,86.9
32244,2018-06-29 09:01:39.625000,57.06,86.9
32245,2018-06-29 09:01:39.656250,37.84,86.9
32246,2018-06-29 09:01:39.687500,24.38,86.9
32247,2018-06-29 09:01:39.718750,11.94,86.9
32248,2018-06-29 09:01:39.750000,-10.31,86.9
32249,2018-06-29 09:01:39.781250,-44.0,86.9
32250,2018-06-29 09:01:39.812500,-76.68,86.9
32251,2018-06-29 09:01:39.843750,-98.25,86.9
32252,2018-06-29 09:01:39.875000,-109.97,86.9
32253,2018-06-29 09:01:39.906250,-115.35,86.9
32254,2018-06-29 09:01:39.937500,-113.81,86.9
32255,2018-06-29 09:01:39.968750,-105.44,86.9
32256,2018-06-29 09:01:40.000000,-95.09,86.9
32257,2018-06-29 09:01:40.031250,-89.33,86.9
32258,2018-06-29 09:01:40.062500,-89.19,86.9
32259,2018-06-29 09:01:40.093750,-85.7,86.9
32260,2018-06-29 09:01:40.125000,-66.06,86.9
32261,2018-06-29 09:01:40.156250,-28.48,86.9
32262,2018-06-29 09:01:40.187500,12.55,86.9
32263,2018-06-29 09:01:40.218750,40.47,86.9
32264,2018-06-29 09:01:40.250000,52.17,86.9
32265,2018-06-29 09:01:40.281250,54.78,86.9
32266,2018-06-29 09:01:40.312500,53.02,86.9
32267,2018-06-29 09:01:40.343750,47.23,86.9
32268,2018-06-29 09:01:40.375000,38.94,86.9
32269,2018-06-29 09:01:40.406250,29.22,86.9
32270,2018-06-29 09:01:40.437500,15.75,86.9
32271,2018-06-29 09:01:40.468750,-0.84,86.9
32272,2018-06-29 09:01:40.500000,-12.5,86.9
32273,2018-06-29 09:01:40.531250,-13.82,86.6
32274,2018-06-29 09:01:40.562500,-10.5,86.6
32275,2018-06-29 09:01:40.593750,-11.23,86.6
32276,2018-06-29 09:01:40.625000,-16.24,86.6
32277,2018-06-29 09:01:40.656250,-17.95,86.6
32278,2018-06-29 09:01:40.687500,-9.63,86.6
32279,2018-06-29 09:01:40.718750,9.09,86.6
32280,2018-06-29 09:01:40.750000,34.95,86.6
32281,2018-06-29 09:01:40.781250,67.39,86.6
32282,2018-06-29 09:01:40.812500,105.43,86.6
32283,2018-06-29 09:01:40.843750,135.45,86.6
32284,2018-06-29 09:01:40.875000,132.79,86.6
32285,2018-06-29 09:01:40.906250,86.67,86.6
32286,2018-06-29 09:01:40.937500,19.27,86.6
32287,2018-06-29 09:01:40.968750,-32.92,86.6
32288,2018-06-29 09:01:41.000000,-56.46,86.6
32289,2018-06-29 09:01:41.031250,-65.95,86.6
32290,2018-06-29 09:01:41.062500,-74.57,86.6
32291,2018-06-29 09:01:41.093750,-81.33,86.6
32292,2018-06-29 09:01:41.125000,-86.41,86.6
32293,2018-06-29 09:01:41.156250,-95.0,86.6
32294,2018-06-29 09:01:41.187500,-103.37,86.6
32295,2018-06-29 09:01:41.218750,-98.73,86.6
32296,2018-06-29 09:01:41.250000,-74.96,86.6
32297,2018-06-29 09:01:41.281250,-38.27,86.6
32298,2018-06-29 09:01:41.312500,1.92,86.6
32299,2018-06-29 09:01:41.343750,41.41,86.6
32300,2018-06-29 09:01:41.375000,79.95,86.6
32301,2018-06-29 09:01:41.406250,113.24,86.6
32302,2018-06-29 09:01:41.437500,129.2,86.6
32303,2018-06-29 09:01:41.468750,116.98,86.6
32304,2018-06-29 09:01:41.500000,81.22,86.6
32305,2018-06-29 09:01:41.531250,41.59,86.3
32306,2018-06-29 09:01:41.562500,13.53,86.3
32307,2018-06-29 09:01:41.593750,-4.26,86.3
32308,2018-06-29 09:01:41.625000,-18.87,86.3
32309,2018-06-29 09:01:41.656250,-29.7,86.3
32310,2018-06-29 09:01:41.687500,-34.1,86.3
32311,2018-06-29 09:01:41.718750,-36.58,86.3
32312,2018-06-29 09:01:41.750000,-42.52,86.3
32313,2018-06-29 09:01:41.781250,-47.86,86.3
32314,2018-06-29 09:01:41.812500,-41.05,86.3
32315,2018-06-29 09:01:41.843750,-13.16,86.3
32316,2018-06-29 09:01:41.875000,34.53,86.3
32317,2018-06-29 09:01:41.906250,86.08,86.3
32318,2018-06-29 09:01:41.937500,113.95,86.3
32319,2018-06-29 09:01:41.968750,97.74,86.3
32320,2018-06-29 09:01:42.000000,45.71,86.3
32321,2018-06-29 09:01:42.031250,-9.66,86.3
32322,2018-06-29 09:01:42.062500,-40.5,86.3
32323,2018-06-29 09:01:42.093750,-42.82,86.3
32324,2018-06-29 09:01:42.125000,-30.78,86.3
32325,2018-06-29 09:01:42.156250,-20.12,86.3
32326,2018-06-29 09:01:42.187500,-16.43,86.3
32327,2018-06-29 09:01:42.218750,-15.49,86.3
32328,2018-06-29 09:01:42.250000,-13.31,86.3
32329,2018-06-29 09:01:42.281250,-12.62,86.3
32330,2018-06-29 09:01:42.312500,-17.16,86.3
32331,2018-06-29 09:01:42.343750,-21.31,86.3
32332,2018-06-29 09:01:42.375000,-9.6,86.3
32333,2018-06-29 09:01:42.406250,27.81,86.3
32334,2018-06-29 09:01:42.437500,81.77,86.3
32335,2018-06-29 09:01:42.468750,134.99,86.3
32336,2018-06-29 09:01:42.500000,181.93,86.3
32337,2018-06-29 09:01:42.531250,223.48,85.97
32338,2018-06-29 09:01:42.562500,245.76,85.97
32339,2018-06-29 09:01:42.593750,223.96,85.97
32340,2018-06-29 09:01:42.625000,150.06,85.97
32341,2018-06-29 09:01:42.656250,44.86,85.97
32342,2018-06-29 09:01:42.687500,-55.84,85.97
32343,2018-06-29 09:01:42.718750,-122.42,85.97
32344,2018-06-29 09:01:42.750000,-147.97,85.97
32345,2018-06-29 09:01:42.781250,-148.99,85.97
32346,2018-06-29 09:01:42.812500,-146.32,85.97
32347,2018-06-29 09:01:42.843750,-149.19,85.97
32348,2018-06-29 09:01:42.875000,-156.24,85.97
32349,2018-06-29 09:01:42.906250,-157.96,85.97
32350,2018-06-29 09:01:42.937500,-140.0,85.97
32351,2018-06-29 09:01:42.968750,-97.69,85.97
32352,2018-06-29 09:01:43.000000,-43.53,85.97
32353,2018-06-29 09:01:43.031250,4.37,85.97
32354,2018-06-29 09:01:43.062500,32.08,85.97
32355,2018-06-29 09:01:43.093750,32.67,85.97
32356,2018-06-29 09:01:43.125000,12.4,85.97
32357,2018-06-29 09:01:43.156250,-10.71,85.97
32358,2018-06-29 09:01:43.187500,-22.66,85.97
32359,2018-06-29 09:01:43.218750,-20.91,85.97
32360,2018-06-29 09:01:43.250000,-8.16,85.97
32361,2018-06-29 09:01:43.281250,10.28,85.97
32362,2018-06-29 09:01:43.312500,25.93,85.97
32363,2018-06-29 09:01:43.343750,32.91,85.97
32364,2018-06-29 09:01:43.375000,31.11,85.97
32365,2018-06-29 09:01:43.406250,21.4,85.97
32366,2018-06-29 09:01:43.437500,6.03,85.97
32367,2018-06-29 09:01:43.468750,-3.56,85.97
32368,2018-06-29 09:01:43.500000,8.79,85.97
32369,2018-06-29 09:01:43.531250,45.6,85.73
32370,2018-06-29 09:01:43.562500,92.52,85.73
32371,2018-06-29 09:01:43.593750,137.41,85.73
32372,2018-06-29 09:01:43.625000,177.52,85.73
32373,2018-06-29 09:01:43.656250,203.06,85.73
32374,2018-06-29 09:01:43.687500,194.85,85.73
32375,2018-06-29 09:01:43.718750,148.5,85.73
32376,2018-06-29 09:01:43.750000,83.08,85.73
32377,2018-06-29 09:01:43.781250,20.2,85.73
32378,2018-06-29 09:01:43.812500,-30.54,85.73
32379,2018-06-29 09:01:43.843750,-67.14,85.73
32380,2018-06-29 09:01:43.875000,-93.13,85.73
32381,2018-06-29 09:01:43.906250,-117.58,85.73
32382,2018-06-29 09:01:43.937500,-145.3,85.73
32383,2018-06-29 09:01:43.968750,-168.91,85.73
32384,2018-06-29 09:01:44.000000,-174.33,85.73
32385,2018-06-29 09:01:44.031250,-151.87,85.73
32386,2018-06-29 09:01:44.062500,-104.4,85.73
32387,2018-06-29 09:01:44.093750,-45.9,85.73
32388,2018-06-29 09:01:44.125000,10.49,85.73
32389,2018-06-29 09:01:44.156250,60.77,85.73
32390,2018-06-29 09:01:44.187500,101.54,85.73
32391,2018-06-29 09:01:44.218750,118.84,85.73
32392,2018-06-29 09:01:44.250000,99.29,85.73
32393,2018-06-29 09:01:44.281250,52.08,85.73
32394,2018-06-29 09:01:44.312500,6.31,85.73
32395,2018-06-29 09:01:44.343750,-14.76,85.73
32396,2018-06-29 09:01:44.375000,-6.58,85.73
32397,2018-06-29 09:01:44.406250,22.9,85.73
32398,2018-06-29 09:01:44.437500,59.37,85.73
32399,2018-06-29 09:01:44.468750,86.9,85.73
32400,2018-06-29 09:01:44.500000,95.64,85.73
32401,2018-06-29 09:01:44.531250,86.13,85.53
32402,2018-06-29 09:01:44.562500,67.73,85.53
32403,2018-06-29 09:01:44.593750,51.53,85.53
32404,2018-06-29 09:01:44.625000,41.33,85.53
32405,2018-06-29 09:01:44.656250,35.73,85.53
32406,2018-06-29 09:01:44.687500,39.86,85.53
32407,2018-06-29 09:01:44.718750,65.26,85.53
32408,2018-06-29 09:01:44.750000,114.2,85.53
32409,2018-06-29 09:01:44.781250,169.41,85.53
32410,2018-06-29 09:01:44.812500,206.17,85.53
32411,2018-06-29 09:01:44.843750,215.79,85.53
32412,2018-06-29 09:01:44.875000,208.89,85.53
32413,2018-06-29 09:01:44.906250,193.06,85.53
32414,2018-06-29 09:01:44.937500,161.53,85.53
32415,2018-06-29 09:01:44.968750,107.48,85.53
32416,2018-06-29 09:01:45.000000,31.06,85.53
32417,2018-06-29 09:01:45.031250,-67.11,85.53
32418,2018-06-29 09:01:45.062500,-176.25,85.53
32419,2018-06-29 09:01:45.093750,-263.89,85.53
32420,2018-06-29 09:01:45.125000,-298.75,85.53
32421,2018-06-29 09:01:45.156250,-282.29,85.53
32422,2018-06-29 09:01:45.187500,-241.5,85.53
32423,2018-06-29 09:01:45.218750,-198.53,85.53
32424,2018-06-29 09:01:45.250000,-160.15,85.53
32425,2018-06-29 09:01:45.281250,-126.57,85.53
32426,2018-06-29 09:01:45.312500,-96.64,85.53
32427,2018-06-29 09:01:45.343750,-67.85,85.53
32428,2018-06-29 09:01:45.375000,-38.81,85.53
32429,2018-06-29 09:01:45.406250,-12.1,85.53
32430,2018-06-29 09:01:45.437500,9.3,85.53
32431,2018-06-29 09:01:45.468750,27.49,85.53
32432,2018-06-29 09:01:45.500000,47.65,85.53
32433,2018-06-29 09:01:45.531250,71.14,85.37
32434,2018-06-29 09:01:45.562500,93.05,85.37
32435,2018-06-29 09:01:45.593750,107.77,85.37
32436,2018-06-29 09:01:45.625000,115.04,85.37
32437,2018-06-29 09:01:45.656250,115.62,85.37
32438,2018-06-29 09:01:45.687500,102.82,85.37
32439,2018-06-29 09:01:45.718750,67.06,85.37
32440,2018-06-29 09:01:45.750000,11.12,85.37
32441,2018-06-29 09:01:45.781250,-45.83,85.37
32442,2018-06-29 09:01:45.812500,-83.32,85.37
32443,2018-06-29 09:01:45.843750,-97.11,85.37
32444,2018-06-29 09:01:45.875000,-98.81,85.37
32445,2018-06-29 09:01:45.906250,-98.58,85.37
32446,2018-06-29 09:01:45.937500,-95.44,85.37
32447,2018-06-29 09:01:45.968750,-86.67,85.37
32448,2018-06-29 09:01:46.000000,-74.62,85.37
32449,2018-06-29 09:01:46.031250,-59.63,85.37
32450,2018-06-29 09:01:46.062500,-38.14,85.37
32451,2018-06-29 09:01:46.093750,-12.07,85.37
32452,2018-06-29 09:01:46.125000,9.36,85.37
32453,2018-06-29 09:01:46.156250,20.63,85.37
32454,2018-06-29 09:01:46.187500,28.13,85.37
32455,2018-06-29 09:01:46.218750,48.14,85.37
32456,2018-06-29 09:01:46.250000,96.35,85.37
32457,2018-06-29 09:01:46.281250,169.48,85.37
32458,2018-06-29 09:01:46.312500,238.05,85.37
32459,2018-06-29 09:01:46.343750,268.74,85.37
32460,2018-06-29 09:01:46.375000,249.78,85.37
32461,2018-06-29 09:01:46.406250,188.06,85.37
32462,2018-06-29 09:01:46.437500,96.93,85.37
32463,2018-06-29 09:01:46.468750,-2.7,85.37
32464,2018-06-29 09:01:46.500000,-84.31,85.37
32465,2018-06-29 09:01:46.531250,-132.25,85.22
32466,2018-06-29 09:01:46.562500,-152.6,85.22
32467,2018-06-29 09:01:46.593750,-161.18,85.22
32468,2018-06-29 09:01:46.625000,-163.83,85.22
32469,2018-06-29 09:01:46.656250,-156.45,85.22
32470,2018-06-29 09:01:46.687500,-140.76,85.22
32471,2018-06-29 09:01:46.718750,-126.1,85.22
32472,2018-06-29 09:01:46.750000,-114.31,85.22
32473,2018-06-29 09:01:46.781250,-92.26,85.22
32474,2018-06-29 09:01:46.812500,-43.11,85.22
32475,2018-06-29 09:01:46.843750,35.66,85.22
32476,2018-06-29 09:01:46.875000,126.28,85.22
32477,2018-06-29 09:01:46.906250,202.45,85.22
32478,2018-06-29 09:01:46.937500,244.23,85.22
32479,2018-06-29 09:01:46.968750,241.96,85.22
32480,2018-06-29 09:01:47.000000,194.66,85.22
32481,2018-06-29 09:01:47.031250,110.31,85.22
32482,2018-06-29 09:01:47.062500,8.39,85.22
32483,2018-06-29 09:01:47.093750,-82.91,85.22
32484,2018-06-29 09:01:47.125000,-143.09,85.22
32485,2018-06-29 09:01:47.156250,-172.99,85.22
32486,2018-06-29 09:01:47.187500,-184.5,85.22
32487,2018-06-29 09:01:47.218750,-184.04,85.22
32488,2018-06-29 09:01:47.250000,-175.55,85.22
32489,2018-06-29 09:01:47.281250,-167.57,85.22
32490,2018-06-29 09:01:47.312500,-163.03,85.22
32491,2018-06-29 09:01:47.343750,-149.03,85.22
32492,2018-06-29 09:01:47.375000,-109.59,85.22
32493,2018-06-29 09:01:47.406250,-47.27,85.22
32494,2018-06-29 09:01:47.437500,18.52,85.22
32495,2018-06-29 09:01:47.468750,74.1,85.22
32496,2018-06-29 09:01:47.500000,120.45,85.22
32497,2018-06-29 09:01:47.531250,162.76,85.07
32498,2018-06-29 09:01:47.562500,203.76,85.07
32499,2018-06-29 09:01:47.593750,241.02,85.07
32500,2018-06-29 09:01:47.625000,259.35,85.07
32501,2018-06-29 09:01:47.656250,235.58,85.07
32502,2018-06-29 09:01:47.687500,160.82,85.07
32503,2018-06-29 09:01:47.718750,54.72,85.07
32504,2018-06-29 09:01:47.750000,-45.09,85.07
32505,2018-06-29 09:01:47.781250,-109.91,85.07
32506,2018-06-29 09:01:47.812500,-141.6,85.07
32507,2018-06-29 09:01:47.843750,-164.15,85.07
32508,2018-06-29 09:01:47.875000,-189.61,85.07
32509,2018-06-29 09:01:47.906250,-202.12,85.07
32510,2018-06-29 09:01:47.937500,-181.56,85.07
32511,2018-06-29 09:01:47.968750,-130.03,85.07
32512,2018-06-29 09:01:48.000000,-65.79,85.07
32513,2018-06-29 09:01:48.031250,-2.39,85.07
32514,2018-06-29 09:01:48.062500,58.95,85.07
32515,2018-06-29 09:01:48.093750,122.54,85.07
32516,2018-06-29 09:01:48.125000,183.52,85.07
32517,2018-06-29 09:01:48.156250,219.24,85.07
32518,2018-06-29 09:01:48.187500,204.63,85.07
32519,2018-06-29 09:01:48.218750,136.97,85.07
32520,2018-06-29 09:01:48.250000,37.39,85.07
32521,2018-06-29 09:01:48.281250,-63.98,85.07
32522,2018-06-29 09:01:48.312500,-139.29,85.07
32523,2018-06-29 09:01:48.343750,-177.15,85.07
32524,2018-06-29 09:01:48.375000,-192.33,85.07
32525,2018-06-29 09:01:48.406250,-208.51,85.07
32526,2018-06-29 09:01:48.437500,-230.26,85.07
32527,2018-06-29 09:01:48.468750,-240.52,85.07
32528,2018-06-29 09:01:48.500000,-223.65,85.07
32529,2018-06-29 09:01:48.531250,-182.9,84.92
32530,2018-06-29 09:01:48.562500,-133.25,84.92
32531,2018-06-29 09:01:48.593750,-84.84,84.92
32532,2018-06-29 09:01:48.625000,-41.31,84.92
32533,2018-06-29 09:01:48.656250,-6.82,84.92
32534,2018-06-29 09:01:48.687500,17.35,84.92
32535,2018-06-29 09:01:48.718750,38.39,84.92
32536,2018-06-29 09:01:48.750000,63.81,84.92
32537,2018-06-29 09:01:48.781250,90.62,84.92
32538,2018-06-29 09:01:48.812500,106.73,84.92
32539,2018-06-29 09:01:48.843750,100.32,84.92
32540,2018-06-29 09:01:48.875000,68.83,84.92
32541,2018-06-29 09:01:48.906250,22.93,84.92
32542,2018-06-29 09:01:48.937500,-20.79,84.92
32543,2018-06-29 09:01:48.968750,-52.83,84.92
32544,2018-06-29 09:01:49.000000,-70.96,84.92
32545,2018-06-29 09:01:49.031250,-71.36,84.92
32546,2018-06-29 09:01:49.062500,-52.43,84.92
32547,2018-06-29 09:01:49.093750,-23.38,84.92
32548,2018-06-29 09:01:49.125000,4.48,84.92
32549,2018-06-29 09:01:49.156250,29.59,84.92
32550,2018-06-29 09:01:49.187500,53.27,84.92
32551,2018-06-29 09:01:49.218750,70.7,84.92
32552,2018-06-29 09:01:49.250000,78.85,84.92
32553,2018-06-29 09:01:49.281250,84.55,84.92
32554,2018-06-29 09:01:49.312500,95.33,84.92
32555,2018-06-29 09:01:49.343750,105.69,84.92
32556,2018-06-29 09:01:49.375000,98.17,84.92
32557,2018-06-29 09:01:49.406250,60.72,84.92
32558,2018-06-29 09:01:49.437500,3.23,84.92
32559,2018-06-29 09:01:49.468750,-47.39,84.92
32560,2018-06-29 09:01:49.500000,-73.02,84.92
32561,2018-06-29 09:01:49.531250,-78.71,84.87
32562,2018-06-29 09:01:49.562500,-74.88,84.87
32563,2018-06-29 09:01:49.593750,-58.06,84.87
32564,2018-06-29 09:01:49.625000,-21.7,84.87
32565,2018-06-29 09:01:49.656250,25.7,84.87
32566,2018-06-29 09:01:49.687500,65.35,84.87
32567,2018-06-29 09:01:49.718750,83.36,84.87
32568,2018-06-29 09:01:49.750000,77.47,84.87
32569,2018-06-29 09:01:49.781250,57.93,84.87
32570,2018-06-29 09:01:49.812500,44.18,84.87
32571,2018-06-29 09:01:49.843750,52.72,84.87
32572,2018-06-29 09:01:49.875000,81.22,84.87
32573,2018-06-29 09:01:49.906250,106.44,84.87
32574,2018-06-29 09:01:49.937500,106.29,84.87
32575,2018-06-29 09:01:49.968750,83.83,84.87
32576,2018-06-29 09:01:50.000000,60.36,84.87
32577,2018-06-29 09:01:50.031250,48.27,84.87
32578,2018-06-29 09:01:50.062500,42.22,84.87
32579,2018-06-29 09:01:50.093750,33.15,84.87
32580,2018-06-29 09:01:50.125000,21.78,84.87
32581,2018-06-29 09:01:50.156250,17.24,84.87
32582,2018-06-29 09:01:50.187500,24.16,84.87
32583,2018-06-29 09:01:50.218750,35.76,84.87
32584,2018-06-29 09:01:50.250000,43.3,84.87
32585,2018-06-29 09:01:50.281250,46.93,84.87
32586,2018-06-29 09:01:50.312500,52.82,84.87
32587,2018-06-29 09:01:50.343750,62.69,84.87
32588,2018-06-29 09:01:50.375000,67.0,84.87
32589,2018-06-29 09:01:50.406250,51.17,84.87
32590,2018-06-29 09:01:50.437500,14.32,84.87
32591,2018-06-29 09:01:50.468750,-23.27,84.87
32592,2018-06-29 09:01:50.500000,-39.53,84.87
32593,2018-06-29 09:01:50.531250,-33.64,84.82
32594,2018-06-29 09:01:50.562500,-25.88,84.82
32595,2018-06-29 09:01:50.593750,-39.33,84.82
32596,2018-06-29 09:01:50.625000,-82.09,84.82
32597,2018-06-29 09:01:50.656250,-140.39,84.82
32598,2018-06-29 09:01:50.687500,-186.33,84.82
32599,2018-06-29 09:01:50.718750,-198.09,84.82
32600,2018-06-29 09:01:50.750000,-175.04,84.82
32601,2018-06-29 09:01:50.781250,-131.27,84.82
32602,2018-06-29 09:01:50.812500,-80.21,84.82
32603,2018-06-29 09:01:50.843750,-31.81,84.82
32604,2018-06-29 09:01:50.875000,3.84,84.82
32605,2018-06-29 09:01:50.906250,21.71,84.82
32606,2018-06-29 09:01:50.937500,27.0,84.82
32607,2018-06-29 09:01:50.968750,30.45,84.82
32608,2018-06-29 09:01:51.000000,40.48,84.82
32609,2018-06-29 09:01:51.031250,59.33,84.82
32610,2018-06-29 09:01:51.062500,83.49,84.82
32611,2018-06-29 09:01:51.093750,107.62,84.82
32612,2018-06-29 09:01:51.125000,128.48,84.82
32613,2018-06-29 09:01:51.156250,143.19,84.82
32614,2018-06-29 09:01:51.187500,144.29,84.82
32615,2018-06-29 09:01:51.218750,122.91,84.82
32616,2018-06-29 09:01:51.250000,78.87,84.82
32617,2018-06-29 09:01:51.281250,22.02,84.82
32618,2018-06-29 09:01:51.312500,-33.96,84.82
32619,2018-06-29 09:01:51.343750,-73.41,84.82
32620,2018-06-29 09:01:51.375000,-86.04,84.82
32621,2018-06-29 09:01:51.406250,-80.82,84.82
32622,2018-06-29 09:01:51.437500,-78.52,84.82
32623,2018-06-29 09:01:51.468750,-84.98,84.82
32624,2018-06-29 09:01:51.500000,-86.94,84.82
32625,2018-06-29 09:01:51.531250,-75.12,84.72
32626,2018-06-29 09:01:51.562500,-55.08,84.72
32627,2018-06-29 09:01:51.593750,-35.0,84.72
32628,2018-06-29 09:01:51.625000,-15.37,84.72
32629,2018-06-29 09:01:51.656250,7.45,84.72
32630,2018-06-29 09:01:51.687500,33.42,84.72
32631,2018-06-29 09:01:51.718750,53.18,84.72
32632,2018-06-29 09:01:51.750000,49.53,84.72
32633,2018-06-29 09:01:51.781250,14.16,84.72
32634,2018-06-29 09:01:51.812500,-35.97,84.72
32635,2018-06-29 09:01:51.843750,-69.75,84.72
32636,2018-06-29 09:01:51.875000,-69.68,84.72
32637,2018-06-29 09:01:51.906250,-40.66,84.72
32638,2018-06-29 09:01:51.937500,1.48,84.72
32639,2018-06-29 09:01:51.968750,40.26,84.72
32640,2018-06-29 09:01:52.000000,64.16,84.72
32641,2018-06-29 09:01:52.031250,70.09,84.72
32642,2018-06-29 09:01:52.062500,61.42,84.72
32643,2018-06-29 09:01:52.093750,43.48,84.72
32644,2018-06-29 09:01:52.125000,23.37,84.72
32645,2018-06-29 09:01:52.156250,11.08,84.72
32646,2018-06-29 09:01:52.187500,15.54,84.72
32647,2018-06-29 09:01:52.218750,37.98,84.72
32648,2018-06-29 09:01:52.250000,68.84,84.72
32649,2018-06-29 09:01:52.281250,93.64,84.72
32650,2018-06-29 09:01:52.312500,105.47,84.72
32651,2018-06-29 09:01:52.343750,106.45,84.72
32652,2018-06-29 09:01:52.375000,94.6,84.72
32653,2018-06-29 09:01:52.406250,61.64,84.72
32654,2018-06-29 09:01:52.437500,9.11,84.72
32655,2018-06-29 09:01:52.468750,-45.99,84.72
32656,2018-06-29 09:01:52.500000,-85.6,84.72
32657,2018-06-29 09:01:52.531250,-102.17,84.65
32658,2018-06-29 09:01:52.562500,-98.33,84.65
32659,2018-06-29 09:01:52.593750,-83.57,84.65
32660,2018-06-29 09:01:52.625000,-69.32,84.65
32661,2018-06-29 09:01:52.656250,-61.48,84.65
32662,2018-06-29 09:01:52.687500,-56.14,84.65
32663,2018-06-29 09:01:52.718750,-45.0,84.65
32664,2018-06-29 09:01:52.750000,-25.62,84.65
32665,2018-06-29 09:01:52.781250,-4.57,84.65
32666,2018-06-29 09:01:52.812500,10.59,84.65
32667,2018-06-29 09:01:52.843750,21.74,84.65
32668,2018-06-29 09:01:52.875000,42.76,84.65
32669,2018-06-29 09:01:52.906250,83.47,84.65
32670,2018-06-29 09:01:52.937500,125.47,84.65
32671,2018-06-29 09:01:52.968750,128.4,84.65
32672,2018-06-29 09:01:53.000000,70.86,84.65
32673,2018-06-29 09:01:53.031250,-22.5,84.65
32674,2018-06-29 09:01:53.062500,-101.08,84.65
32675,2018-06-29 09:01:53.093750,-132.77,84.65
32676,2018-06-29 09:01:53.125000,-124.69,84.65
32677,2018-06-29 09:01:53.156250,-102.94,84.65
32678,2018-06-29 09:01:53.187500,-83.24,84.65
32679,2018-06-29 09:01:53.218750,-67.44,84.65
32680,2018-06-29 09:01:53.250000,-54.31,84.65
32681,2018-06-29 09:01:53.281250,-41.87,84.65
32682,2018-06-29 09:01:53.312500,-27.57,84.65
32683,2018-06-29 09:01:53.343750,-12.66,84.65
32684,2018-06-29 09:01:53.375000,-0.28,84.65
32685,2018-06-29 09:01:53.406250,13.1,84.65
32686,2018-06-29 09:01:53.437500,38.53,84.65
32687,2018-06-29 09:01:53.468750,81.76,84.65
32688,2018-06-29 09:01:53.500000,134.92,84.65
32689,2018-06-29 09:01:53.531250,186.04,84.62
32690,2018-06-29 09:01:53.562500,226.69,84.62
32691,2018-06-29 09:01:53.593750,243.61,84.62
32692,2018-06-29 09:01:53.625000,217.78,84.62
32693,2018-06-29 09:01:53.656250,142.63,84.62
32694,2018-06-29 09:01:53.687500,35.78,84.62
32695,2018-06-29 09:01:53.718750,-70.43,84.62
32696,2018-06-29 09:01:53.750000,-146.58,84.62
32697,2018-06-29 09:01:53.781250,-179.24,84.62
32698,2018-06-29 09:01:53.812500,-175.37,84.62
32699,2018-06-29 09:01:53.843750,-155.45,84.62
32700,2018-06-29 09:01:53.875000,-139.15,84.62
32701,2018-06-29 09:01:53.906250,-134.21,84.62
32702,2018-06-29 09:01:53.937500,-133.83,84.62
32703,2018-06-29 09:01:53.968750,-122.82,84.62
32704,2018-06-29 09:01:54.000000,-91.17,84.62
32705,2018-06-29 09:01:54.031250,-44.37,84.62
32706,2018-06-29 09:01:54.062500,3.61,84.62
32707,2018-06-29 09:01:54.093750,46.88,84.62
32708,2018-06-29 09:01:54.125000,89.37,84.62
32709,2018-06-29 09:01:54.156250,128.96,84.62
32710,2018-06-29 09:01:54.187500,147.94,84.62
32711,2018-06-29 09:01:54.218750,125.52,84.62
32712,2018-06-29 09:01:54.250000,60.88,84.62
32713,2018-06-29 09:01:54.281250,-20.86,84.62
32714,2018-06-29 09:01:54.312500,-88.59,84.62
32715,2018-06-29 09:01:54.343750,-124.09,84.62
32716,2018-06-29 09:01:54.375000,-123.19,84.62
32717,2018-06-29 09:01:54.406250,-95.74,84.62
32718,2018-06-29 09:01:54.437500,-64.91,84.62
32719,2018-06-29 09:01:54.468750,-48.52,84.62
32720,2018-06-29 09:01:54.500000,-40.81,84.62
32721,2018-06-29 09:01:54.531250,-23.16,84.6
32722,2018-06-29 09:01:54.562500,9.18,84.6
32723,2018-06-29 09:01:54.593750,43.36,84.6
32724,2018-06-29 09:01:54.625000,65.04,84.6
32725,2018-06-29 09:01:54.656250,71.34,84.6
32726,2018-06-29 09:01:54.687500,68.89,84.6
32727,2018-06-29 09:01:54.718750,64.31,84.6
32728,2018-06-29 09:01:54.750000,60.5,84.6
32729,2018-06-29 09:01:54.781250,56.75,84.6
32730,2018-06-29 09:01:54.812500,56.88,84.6
32731,2018-06-29 09:01:54.843750,70.44,84.6
32732,2018-06-29 09:01:54.875000,109.02,84.6
32733,2018-06-29 09:01:54.906250,168.78,84.6
32734,2018-06-29 09:01:54.937500,219.83,84.6
32735,2018-06-29 09:01:54.968750,229.45,84.6
32736,2018-06-29 09:01:55.000000,195.7,84.6
32737,2018-06-29 09:01:55.031250,152.51,84.6
32738,2018-06-29 09:01:55.062500,118.93,84.6
32739,2018-06-29 09:01:55.093750,81.95,84.6
32740,2018-06-29 09:01:55.125000,28.44,84.6
32741,2018-06-29 09:01:55.156250,-44.44,84.6
32742,2018-06-29 09:01:55.187500,-127.5,84.6
32743,2018-06-29 09:01:55.218750,-198.84,84.6
32744,2018-06-29 09:01:55.250000,-240.34,84.6
32745,2018-06-29 09:01:55.281250,-254.8,84.6
32746,2018-06-29 09:01:55.312500,-252.87,84.6
32747,2018-06-29 09:01:55.343750,-240.48,84.6
32748,2018-06-29 09:01:55.375000,-220.85,84.6
32749,2018-06-29 09:01:55.406250,-198.5,84.6
32750,2018-06-29 09:01:55.437500,-171.33,84.6
32751,2018-06-29 09:01:55.468750,-135.95,84.6
32752,2018-06-29 09:01:55.500000,-98.21,84.6
32753,2018-06-29 09:01:55.531250,-67.64,84.55
32754,2018-06-29 09:01:55.562500,-44.57,84.55
32755,2018-06-29 09:01:55.593750,-16.04,84.55
32756,2018-06-29 09:01:55.625000,34.96,84.55
32757,2018-06-29 09:01:55.656250,110.57,84.55
32758,2018-06-29 09:01:55.687500,180.28,84.55
32759,2018-06-29 09:01:55.718750,199.29,84.55
32760,2018-06-29 09:01:55.750000,156.06,84.55
32761,2018-06-29 09:01:55.781250,85.2,84.55
32762,2018-06-29 09:01:55.812500,24.88,84.55
32763,2018-06-29 09:01:55.843750,-16.71,84.55
32764,2018-06-29 09:01:55.875000,-47.29,84.55
32765,2018-06-29 09:01:55.906250,-70.76,84.55
32766,2018-06-29 09:01:55.937500,-89.17,84.55
32767,2018-06-29 09:01:55.968750,-103.12,84.55
32768,2018-06-29 09:01:56.000000,-107.27,84.55
32769,2018-06-29 09:01:56.031250,-99.38,84.55
32770,2018-06-29 09:01:56.062500,-89.28,84.55
32771,2018-06-29 09:01:56.093750,-86.51,84.55
32772,2018-06-29 09:01:56.125000,-84.14,84.55
32773,2018-06-29 09:01:56.156250,-66.29,84.55
32774,2018-06-29 09:01:56.187500,-29.99,84.55
32775,2018-06-29 09:01:56.218750,11.02,84.55
32776,2018-06-29 09:01:56.250000,45.85,84.55
32777,2018-06-29 09:01:56.281250,79.53,84.55
32778,2018-06-29 09:01:56.312500,120.2,84.55
32779,2018-06-29 09:01:56.343750,155.44,84.55
32780,2018-06-29 09:01:56.375000,153.8,84.55
32781,2018-06-29 09:01:56.406250,103.66,84.55
32782,2018-06-29 09:01:56.437500,37.16,84.55
32783,2018-06-29 09:01:56.468750,-7.41,84.55
32784,2018-06-29 09:01:56.500000,-28.41,84.55
32785,2018-06-29 09:01:56.531250,-42.14,84.83
32786,2018-06-29 09:01:56.562500,-50.27,84.83
32787,2018-06-29 09:01:56.593750,-50.67,84.83
32788,2018-06-29 09:01:56.625000,-52.83,84.83
32789,2018-06-29 09:01:56.656250,-61.48,84.83
32790,2018-06-29 09:01:56.687500,-63.7,84.83
32791,2018-06-29 09:01:56.718750,-45.36,84.83
32792,2018-06-29 09:01:56.750000,-10.28,84.83
32793,2018-06-29 09:01:56.781250,25.24,84.83
32794,2018-06-29 09:01:56.812500,50.87,84.83
32795,2018-06-29 09:01:56.843750,69.24,84.83
32796,2018-06-29 09:01:56.875000,90.62,84.83
32797,2018-06-29 09:01:56.906250,124.26,84.83
32798,2018-06-29 09:01:56.937500,164.51,84.83
32799,2018-06-29 09:01:56.968750,184.2,84.83
32800,2018-06-29 09:01:57.000000,156.24,84.83
32801,2018-06-29 09:01:57.031250,84.1,84.83
32802,2018-06-29 09:01:57.062500,1.98,84.83
32803,2018-06-29 09:01:57.093750,-55.31,84.83
32804,2018-06-29 09:01:57.125000,-78.94,84.83
32805,2018-06-29 09:01:57.156250,-85.71,84.83
32806,2018-06-29 09:01:57.187500,-96.44,84.83
32807,2018-06-29 09:01:57.218750,-115.07,84.83
32808,2018-06-29 09:01:57.250000,-127.42,84.83
32809,2018-06-29 09:01:57.281250,-118.0,84.83
32810,2018-06-29 09:01:57.312500,-86.34,84.83
32811,2018-06-29 09:01:57.343750,-46.88,84.83
32812,2018-06-29 09:01:57.375000,-14.1,84.83
32813,2018-06-29 09:01:57.406250,8.98,84.83
32814,2018-06-29 09:01:57.437500,27.83,84.83
32815,2018-06-29 09:01:57.468750,47.78,84.83
32816,2018-06-29 09:01:57.500000,69.65,84.83
32817,2018-06-29 09:01:57.531250,90.5,85.13
32818,2018-06-29 09:01:57.562500,110.25,85.13
32819,2018-06-29 09:01:57.593750,138.77,85.13
32820,2018-06-29 09:01:57.625000,183.75,85.13
32821,2018-06-29 09:01:57.656250,226.19,85.13
32822,2018-06-29 09:01:57.687500,227.72,85.13
32823,2018-06-29 09:01:57.718750,170.88,85.13
32824,2018-06-29 09:01:57.750000,76.48,85.13
32825,2018-06-29 09:01:57.781250,-17.46,85.13
32826,2018-06-29 09:01:57.812500,-80.33,85.13
32827,2018-06-29 09:01:57.843750,-105.07,85.13
32828,2018-06-29 09:01:57.875000,-111.47,85.13
32829,2018-06-29 09:01:57.906250,-123.29,85.13
32830,2018-06-29 09:01:57.937500,-143.85,85.13
32831,2018-06-29 09:01:57.968750,-162.42,85.13
32832,2018-06-29 09:01:58.000000,-170.96,85.13
32833,2018-06-29 09:01:58.031250,-166.13,85.13
32834,2018-06-29 09:01:58.062500,-148.73,85.13
32835,2018-06-29 09:01:58.093750,-125.99,85.13
32836,2018-06-29 09:01:58.125000,-104.6,85.13
32837,2018-06-29 09:01:58.156250,-82.5,85.13
32838,2018-06-29 09:01:58.187500,-53.36,85.13
32839,2018-06-29 09:01:58.218750,-17.81,85.13
32840,2018-06-29 09:01:58.250000,10.98,85.13
32841,2018-06-29 09:01:58.281250,14.27,85.13
32842,2018-06-29 09:01:58.312500,-12.79,85.13
32843,2018-06-29 09:01:58.343750,-48.8,85.13
32844,2018-06-29 09:01:58.375000,-62.99,85.13
32845,2018-06-29 09:01:58.406250,-45.73,85.13
32846,2018-06-29 09:01:58.437500,-14.18,85.13
32847,2018-06-29 09:01:58.468750,10.57,85.13
32848,2018-06-29 09:01:58.500000,20.4,85.13
32849,2018-06-29 09:01:58.531250,16.64,85.48
32850,2018-06-29 09:01:58.562500,3.85,85.48
32851,2018-06-29 09:01:58.593750,-8.94,85.48
32852,2018-06-29 09:01:58.625000,-12.45,85.48
32853,2018-06-29 09:01:58.656250,-7.27,85.48
32854,2018-06-29 09:01:58.687500,-2.36,85.48
32855,2018-06-29 09:01:58.718750,-1.61,85.48
32856,2018-06-29 09:01:58.750000,1.01,85.48
32857,2018-06-29 09:01:58.781250,10.53,85.48
32858,2018-06-29 09:01:58.812500,22.26,85.48
32859,2018-06-29 09:01:58.843750,30.07,85.48
32860,2018-06-29 09:01:58.875000,39.92,85.48
32861,2018-06-29 09:01:58.906250,66.09,85.48
32862,2018-06-29 09:01:58.937500,112.45,85.48
32863,2018-06-29 09:01:58.968750,161.74,85.48
32864,2018-06-29 09:01:59.000000,183.93,85.48
32865,2018-06-29 09:01:59.031250,157.04,85.48
32866,2018-06-29 09:01:59.062500,87.62,85.48
32867,2018-06-29 09:01:59.093750,11.35,85.48
32868,2018-06-29 09:01:59.125000,-36.52,85.48
32869,2018-06-29 09:01:59.156250,-52.22,85.48
32870,2018-06-29 09:01:59.187500,-56.37,85.48
32871,2018-06-29 09:01:59.218750,-63.39,85.48
32872,2018-06-29 09:01:59.250000,-72.41,85.48
32873,2018-06-29 09:01:59.281250,-79.96,85.48
32874,2018-06-29 09:01:59.312500,-84.22,85.48
32875,2018-06-29 09:01:59.343750,-82.75,85.48
32876,2018-06-29 09:01:59.375000,-78.01,85.48
32877,2018-06-29 09:01:59.406250,-76.07,85.48
32878,2018-06-29 09:01:59.437500,-73.32,85.48
32879,2018-06-29 09:01:59.468750,-57.57,85.48
32880,2018-06-29 09:01:59.500000,-26.48,85.48
32881,2018-06-29 09:01:59.531250,6.98,85.85
32882,2018-06-29 09:01:59.562500,26.78,85.85
32883,2018-06-29 09:01:59.593750,23.91,85.85
32884,2018-06-29 09:01:59.625000,3.81,85.85
32885,2018-06-29 09:01:59.656250,-14.43,85.85
32886,2018-06-29 09:01:59.687500,-18.24,85.85
32887,2018-06-29 09:01:59.718750,-15.12,85.85
32888,2018-06-29 09:01:59.750000,-15.41,85.85
32889,2018-06-29 09:01:59.781250,-16.62,85.85
32890,2018-06-29 09:01:59.812500,-14.25,85.85
32891,2018-06-29 09:01:59.843750,-10.69,85.85
32892,2018-06-29 09:01:59.875000,-7.94,85.85
32893,2018-06-29 09:01:59.906250,-5.02,85.85
32894,2018-06-29 09:01:59.937500,-1.53,85.85
32895,2018-06-29 09:01:59.968750,5.6,85.85
32896,2018-06-29 09:02:00.000000,23.92,85.85
32897,2018-06-29 09:02:00.031250,56.64,85.85
32898,2018-06-29 09:02:00.062500,95.3,85.85
32899,2018-06-29 09:02:00.093750,127.21,85.85
32900,2018-06-29 09:02:00.125000,147.34,85.85
32901,2018-06-29 09:02:00.156250,160.23,85.85
32902,2018-06-29 09:02:00.187500,176.18,85.85
32903,2018-06-29 09:02:00.218750,204.19,85.85
32904,2018-06-29 09:02:00.250000,235.54,85.85
32905,2018-06-29 09:02:00.281250,238.21,85.85
32906,2018-06-29 09:02:00.312500,186.4,85.85
32907,2018-06-29 09:02:00.343750,91.1,85.85
32908,2018-06-29 09:02:00.375000,-12.42,85.85
32909,2018-06-29 09:02:00.406250,-95.19,85.85
32910,2018-06-29 09:02:00.437500,-145.97,85.85
32911,2018-06-29 09:02:00.468750,-168.95,85.85
32912,2018-06-29 09:02:00.500000,-175.66,85.85
32913,2018-06-29 09:02:00.531250,-172.37,86.15
32914,2018-06-29 09:02:00.562500,-158.54,86.15
32915,2018-06-29 09:02:00.593750,-134.89,86.15
32916,2018-06-29 09:02:00.625000,-105.12,86.15
32917,2018-06-29 09:02:00.656250,-74.79,86.15
32918,2018-06-29 09:02:00.687500,-51.33,86.15
32919,2018-06-29 09:02:00.718750,-37.42,86.15
32920,2018-06-29 09:02:00.750000,-25.6,86.15
32921,2018-06-29 09:02:00.781250,-6.67,86.15
32922,2018-06-29 09:02:00.812500,17.65,86.15
32923,2018-06-29 09:02:00.843750,31.52,86.15
32924,2018-06-29 09:02:00.875000,17.12,86.15
32925,2018-06-29 09:02:00.906250,-21.99,86.15
32926,2018-06-29 09:02:00.937500,-56.84,86.15
32927,2018-06-29 09:02:00.968750,-66.61,86.15
32928,2018-06-29 09:02:01.000000,-61.82,86.15
32929,2018-06-29 09:02:01.031250,-57.8,86.15
32930,2018-06-29 09:02:01.062500,-47.9,86.15
32931,2018-06-29 09:02:01.093750,-22.71,86.15
32932,2018-06-29 09:02:01.125000,8.51,86.15
32933,2018-06-29 09:02:01.156250,33.07,86.15
32934,2018-06-29 09:02:01.187500,52.1,86.15
32935,2018-06-29 09:02:01.218750,71.47,86.15
32936,2018-06-29 09:02:01.250000,90.57,86.15
32937,2018-06-29 09:02:01.281250,106.54,86.15
32938,2018-06-29 09:02:01.312500,119.95,86.15
32939,2018-06-29 09:02:01.343750,132.29,86.15
32940,2018-06-29 09:02:01.375000,146.47,86.15
32941,2018-06-29 09:02:01.406250,169.23,86.15
32942,2018-06-29 09:02:01.437500,197.53,86.15
32943,2018-06-29 09:02:01.468750,202.6,86.15
32944,2018-06-29 09:02:01.500000,150.12,86.15
32945,2018-06-29 09:02:01.531250,43.17,86.42
32946,2018-06-29 09:02:01.562500,-69.93,86.42
32947,2018-06-29 09:02:01.593750,-137.2,86.42
32948,2018-06-29 09:02:01.625000,-144.93,86.42
32949,2018-06-29 09:02:01.656250,-117.36,86.42
32950,2018-06-29 09:02:01.687500,-85.58,86.42
32951,2018-06-29 09:02:01.718750,-65.31,86.42
32952,2018-06-29 09:02:01.750000,-57.04,86.42
32953,2018-06-29 09:02:01.781250,-52.21,86.42
32954,2018-06-29 09:02:01.812500,-39.87,86.42
32955,2018-06-29 09:02:01.843750,-18.22,86.42
32956,2018-06-29 09:02:01.875000,2.66,86.42
32957,2018-06-29 09:02:01.906250,15.46,86.42
32958,2018-06-29 09:02:01.937500,28.32,86.42
32959,2018-06-29 09:02:01.968750,55.23,86.42
32960,2018-06-29 09:02:02.000000,91.27,86.42
32961,2018-06-29 09:02:02.031250,104.65,86.42
32962,2018-06-29 09:02:02.062500,64.64,86.42
32963,2018-06-29 09:02:02.093750,-22.38,86.42
32964,2018-06-29 09:02:02.125000,-112.28,86.42
32965,2018-06-29 09:02:02.156250,-159.87,86.42
32966,2018-06-29 09:02:02.187500,-153.56,86.42
32967,2018-06-29 09:02:02.218750,-115.18,86.42
32968,2018-06-29 09:02:02.250000,-71.73,86.42
32969,2018-06-29 09:02:02.281250,-34.85,86.42
32970,2018-06-29 09:02:02.312500,-5.81,86.42
32971,2018-06-29 09:02:02.343750,15.61,86.42
32972,2018-06-29 09:02:02.375000,33.75,86.42
32973,2018-06-29 09:02:02.406250,55.58,86.42
32974,2018-06-29 09:02:02.437500,80.38,86.42
32975,2018-06-29 09:02:02.468750,99.95,86.42
32976,2018-06-29 09:02:02.500000,111.52,86.42
32977,2018-06-29 09:02:02.531250,123.73,86.6
32978,2018-06-29 09:02:02.562500,149.66,86.6
32979,2018-06-29 09:02:02.593750,191.45,86.6
32980,2018-06-29 09:02:02.625000,228.55,86.6
32981,2018-06-29 09:02:02.656250,233.52,86.6
32982,2018-06-29 09:02:02.687500,204.44,86.6
32983,2018-06-29 09:02:02.718750,165.75,86.6
32984,2018-06-29 09:02:02.750000,137.58,86.6
32985,2018-06-29 09:02:02.781250,119.61,86.6
32986,2018-06-29 09:02:02.812500,95.75,86.6
32987,2018-06-29 09:02:02.843750,47.18,86.6
32988,2018-06-29 09:02:02.875000,-24.77,86.6
32989,2018-06-29 09:02:02.906250,-94.04,86.6
32990,2018-06-29 09:02:02.937500,-142.48,86.6
32991,2018-06-29 09:02:02.968750,-177.9,86.6
32992,2018-06-29 09:02:03.000000,-210.06,86.6
32993,2018-06-29 09:02:03.031250,-233.47,86.6
32994,2018-06-29 09:02:03.062500,-240.91,86.6
32995,2018-06-29 09:02:03.093750,-233.45,86.6
32996,2018-06-29 09:02:03.125000,-215.45,86.6
32997,2018-06-29 09:02:03.156250,-193.0,86.6
32998,2018-06-29 09:02:03.187500,-173.17,86.6
32999,2018-06-29 09:02:03.218750,-154.72,86.6
33000,2018-06-29 09:02:03.250000,-127.13,86.6
33001,2018-06-29 09:02:03.281250,-86.35,86.6
33002,2018-06-29 09:02:03.312500,-42.33,86.6
33003,2018-06-29 09:02:03.343750,-5.79,86.6
33004,2018-06-29 09:02:03.375000,22.28,86.6
33005,2018-06-29 09:02:03.406250,44.37,86.6
33006,2018-06-29 09:02:03.437500,60.82,86.6
33007,2018-06-29 09:02:03.468750,75.66,86.6
33008,2018-06-29 09:02:03.500000,98.64,86.6
33009,2018-06-29 09:02:03.531250,132.37,86.8
33010,2018-06-29 09:02:03.562500,161.09,86.8
33011,2018-06-29 09:02:03.593750,159.68,86.8
33012,2018-06-29 09:02:03.625000,114.48,86.8
33013,2018-06-29 09:02:03.656250,36.62,86.8
33014,2018-06-29 09:02:03.687500,-43.37,86.8
33015,2018-06-29 09:02:03.718750,-98.53,86.8
33016,2018-06-29 09:02:03.750000,-123.46,86.8
33017,2018-06-29 09:02:03.781250,-126.08,86.8
33018,2018-06-29 09:02:03.812500,-113.0,86.8
33019,2018-06-29 09:02:03.843750,-91.63,86.8
33020,2018-06-29 09:02:03.875000,-71.99,86.8
33021,2018-06-29 09:02:03.906250,-56.63,86.8
33022,2018-06-29 09:02:03.937500,-40.23,86.8
33023,2018-06-29 09:02:03.968750,-22.65,86.8
33024,2018-06-29 09:02:04.000000,-9.73,86.8
33025,2018-06-29 09:02:04.031250,-1.05,86.8
33026,2018-06-29 09:02:04.062500,11.26,86.8
33027,2018-06-29 09:02:04.093750,29.19,86.8
33028,2018-06-29 09:02:04.125000,44.96,86.8
33029,2018-06-29 09:02:04.156250,53.95,86.8
33030,2018-06-29 09:02:04.187500,63.67,86.8
33031,2018-06-29 09:02:04.218750,85.32,86.8
33032,2018-06-29 09:02:04.250000,117.73,86.8
33033,2018-06-29 09:02:04.281250,140.98,86.8
33034,2018-06-29 09:02:04.312500,130.57,86.8
33035,2018-06-29 09:02:04.343750,82.18,86.8
33036,2018-06-29 09:02:04.375000,18.29,86.8
33037,2018-06-29 09:02:04.406250,-31.47,86.8
33038,2018-06-29 09:02:04.437500,-54.12,86.8
33039,2018-06-29 09:02:04.468750,-57.86,86.8
33040,2018-06-29 09:02:04.500000,-59.07,86.8
33041,2018-06-29 09:02:04.531250,-66.83,87.05
33042,2018-06-29 09:02:04.562500,-78.15,87.05
33043,2018-06-29 09:02:04.593750,-84.42,87.05
33044,2018-06-29 09:02:04.625000,-79.56,87.05
33045,2018-06-29 09:02:04.656250,-65.12,87.05
33046,2018-06-29 09:02:04.687500,-47.15,87.05
33047,2018-06-29 09:02:04.718750,-29.25,87.05
33048,2018-06-29 09:02:04.750000,-3.99,87.05
33049,2018-06-29 09:02:04.781250,43.09,87.05
33050,2018-06-29 09:02:04.812500,108.99,87.05
33051,2018-06-29 09:02:04.843750,160.24,87.05
33052,2018-06-29 09:02:04.875000,166.76,87.05
33053,2018-06-29 09:02:04.906250,135.45,87.05
33054,2018-06-29 09:02:04.937500,90.54,87.05
33055,2018-06-29 09:02:04.968750,45.78,87.05
33056,2018-06-29 09:02:05.000000,12.34,87.05
33057,2018-06-29 09:02:05.031250,-8.11,87.05
33058,2018-06-29 09:02:05.062500,-29.86,87.05
33059,2018-06-29 09:02:05.093750,-66.25,87.05
33060,2018-06-29 09:02:05.125000,-109.05,87.05
33061,2018-06-29 09:02:05.156250,-140.01,87.05
33062,2018-06-29 09:02:05.187500,-150.54,87.05
33063,2018-06-29 09:02:05.218750,-143.21,87.05
33064,2018-06-29 09:02:05.250000,-122.95,87.05
33065,2018-06-29 09:02:05.281250,-97.19,87.05
33066,2018-06-29 09:02:05.312500,-73.61,87.05
33067,2018-06-29 09:02:05.343750,-54.2,87.05
33068,2018-06-29 09:02:05.375000,-34.95,87.05
33069,2018-06-29 09:02:05.406250,-10.22,87.05
33070,2018-06-29 09:02:05.437500,22.98,87.05
33071,2018-06-29 09:02:05.468750,63.78,87.05
33072,2018-06-29 09:02:05.500000,111.72,87.05
33073,2018-06-29 09:02:05.531250,170.91,87.27
33074,2018-06-29 09:02:05.562500,235.2,87.27
33075,2018-06-29 09:02:05.593750,275.78,87.27
33076,2018-06-29 09:02:05.625000,265.11,87.27
33077,2018-06-29 09:02:05.656250,208.59,87.27
33078,2018-06-29 09:02:05.687500,134.54,87.27
33079,2018-06-29 09:02:05.718750,65.27,87.27
33080,2018-06-29 09:02:05.750000,10.67,87.27
33081,2018-06-29 09:02:05.781250,-30.77,87.27
33082,2018-06-29 09:02:05.812500,-72.68,87.27
33083,2018-06-29 09:02:05.843750,-125.34,87.27
33084,2018-06-29 09:02:05.875000,-180.07,87.27
33085,2018-06-29 09:02:05.906250,-220.23,87.27
33086,2018-06-29 09:02:05.937500,-237.1,87.27
33087,2018-06-29 09:02:05.968750,-228.33,87.27
33088,2018-06-29 09:02:06.000000,-195.74,87.27
33089,2018-06-29 09:02:06.031250,-148.41,87.27
33090,2018-06-29 09:02:06.062500,-94.34,87.27
33091,2018-06-29 09:02:06.093750,-31.5,87.27
33092,2018-06-29 09:02:06.125000,39.85,87.27
33093,2018-06-29 09:02:06.156250,101.76,87.27
33094,2018-06-29 09:02:06.187500,131.23,87.27
33095,2018-06-29 09:02:06.218750,123.59,87.27
33096,2018-06-29 09:02:06.250000,93.35,87.27
33097,2018-06-29 09:02:06.281250,58.27,87.27
33098,2018-06-29 09:02:06.312500,29.9,87.27
33099,2018-06-29 09:02:06.343750,10.48,87.27
33100,2018-06-29 09:02:06.375000,-7.89,87.27
33101,2018-06-29 09:02:06.406250,-35.48,87.27
33102,2018-06-29 09:02:06.437500,-72.84,87.27
33103,2018-06-29 09:02:06.468750,-109.0,87.27
33104,2018-06-29 09:02:06.500000,-129.93,87.27
33105,2018-06-29 09:02:06.531250,-127.87,87.48
33106,2018-06-29 09:02:06.562500,-106.86,87.48
33107,2018-06-29 09:02:06.593750,-79.24,87.48
33108,2018-06-29 09:02:06.625000,-54.02,87.48
33109,2018-06-29 09:02:06.656250,-31.15,87.48
33110,2018-06-29 09:02:06.687500,-7.87,87.48
33111,2018-06-29 09:02:06.718750,15.8,87.48
33112,2018-06-29 09:02:06.750000,40.77,87.48
33113,2018-06-29 09:02:06.781250,73.36,87.48
33114,2018-06-29 09:02:06.812500,119.64,87.48
33115,2018-06-29 09:02:06.843750,171.49,87.48
33116,2018-06-29 09:02:06.875000,204.28,87.48
33117,2018-06-29 09:02:06.906250,196.98,87.48
33118,2018-06-29 09:02:06.937500,152.11,87.48
33119,2018-06-29 09:02:06.968750,91.08,87.48
33120,2018-06-29 09:02:07.000000,35.17,87.48
33121,2018-06-29 09:02:07.031250,-7.01,87.48
33122,2018-06-29 09:02:07.062500,-38.65,87.48
33123,2018-06-29 09:02:07.093750,-64.77,87.48
33124,2018-06-29 09:02:07.125000,-84.42,87.48
33125,2018-06-29 09:02:07.156250,-93.92,87.48
33126,2018-06-29 09:02:07.187500,-93.59,87.48
33127,2018-06-29 09:02:07.218750,-88.4,87.48
33128,2018-06-29 09:02:07.250000,-83.25,87.48
33129,2018-06-29 09:02:07.281250,-78.91,87.48
33130,2018-06-29 09:02:07.312500,-73.29,87.48
33131,2018-06-29 09:02:07.343750,-66.66,87.48
33132,2018-06-29 09:02:07.375000,-60.99,87.48
33133,2018-06-29 09:02:07.406250,-53.23,87.48
33134,2018-06-29 09:02:07.437500,-34.52,87.48
33135,2018-06-29 09:02:07.468750,0.22,87.48
33136,2018-06-29 09:02:07.500000,40.0,87.48
33137,2018-06-29 09:02:07.531250,58.24,87.7
33138,2018-06-29 09:02:07.562500,38.54,87.7
33139,2018-06-29 09:02:07.593750,-0.06,87.7
33140,2018-06-29 09:02:07.625000,-22.23,87.7
33141,2018-06-29 09:02:07.656250,-19.17,87.7
33142,2018-06-29 09:02:07.687500,-10.95,87.7
33143,2018-06-29 09:02:07.718750,-12.66,87.7
33144,2018-06-29 09:02:07.750000,-22.53,87.7
33145,2018-06-29 09:02:07.781250,-36.04,87.7
33146,2018-06-29 09:02:07.812500,-49.24,87.7
33147,2018-06-29 09:02:07.843750,-53.99,87.7
33148,2018-06-29 09:02:07.875000,-45.73,87.7
33149,2018-06-29 09:02:07.906250,-31.24,87.7
33150,2018-06-29 09:02:07.937500,-19.79,87.7
33151,2018-06-29 09:02:07.968750,-11.81,87.7
33152,2018-06-29 09:02:08.000000,-3.48,87.7
33153,2018-06-29 09:02:08.031250,2.4,87.7
33154,2018-06-29 09:02:08.062500,-1.87,87.7
33155,2018-06-29 09:02:08.093750,-15.96,87.7
33156,2018-06-29 09:02:08.125000,-25.83,87.7
33157,2018-06-29 09:02:08.156250,-17.58,87.7
33158,2018-06-29 09:02:08.187500,4.77,87.7
33159,2018-06-29 09:02:08.218750,24.49,87.7
33160,2018-06-29 09:02:08.250000,32.57,87.7
33161,2018-06-29 09:02:08.281250,32.2,87.7
33162,2018-06-29 09:02:08.312500,27.09,87.7
33163,2018-06-29 09:02:08.343750,18.34,87.7
33164,2018-06-29 09:02:08.375000,9.43,87.7
33165,2018-06-29 09:02:08.406250,3.23,87.7
33166,2018-06-29 09:02:08.437500,-2.59,87.7
33167,2018-06-29 09:02:08.468750,-10.64,87.7
33168,2018-06-29 09:02:08.500000,-18.27,87.7
33169,2018-06-29 09:02:08.531250,-21.63,87.88
33170,2018-06-29 09:02:08.562500,-22.01,87.88
33171,2018-06-29 09:02:08.593750,-24.14,87.88
33172,2018-06-29 09:02:08.625000,-29.99,87.88
33173,2018-06-29 09:02:08.656250,-35.95,87.88
33174,2018-06-29 09:02:08.687500,-34.39,87.88
33175,2018-06-29 09:02:08.718750,-19.44,87.88
33176,2018-06-29 09:02:08.750000,5.53,87.88
33177,2018-06-29 09:02:08.781250,28.72,87.88
33178,2018-06-29 09:02:08.812500,40.55,87.88
33179,2018-06-29 09:02:08.843750,40.57,87.88
33180,2018-06-29 09:02:08.875000,33.86,87.88
33181,2018-06-29 09:02:08.906250,26.07,87.88
33182,2018-06-29 09:02:08.937500,21.0,87.88
33183,2018-06-29 09:02:08.968750,18.74,87.88
33184,2018-06-29 09:02:09.000000,17.76,87.88
33185,2018-06-29 09:02:09.031250,19.42,87.88
33186,2018-06-29 09:02:09.062500,25.86,87.88
33187,2018-06-29 09:02:09.093750,34.54,87.88
33188,2018-06-29 09:02:09.125000,40.28,87.88
33189,2018-06-29 09:02:09.156250,41.02,87.88
33190,2018-06-29 09:02:09.187500,41.31,87.88
33191,2018-06-29 09:02:09.218750,50.72,87.88
33192,2018-06-29 09:02:09.250000,70.35,87.88
33193,2018-06-29 09:02:09.281250,82.4,87.88
33194,2018-06-29 09:02:09.312500,68.65,87.88
33195,2018-06-29 09:02:09.343750,37.24,87.88
33196,2018-06-29 09:02:09.375000,12.14,87.88
33197,2018-06-29 09:02:09.406250,1.41,87.88
33198,2018-06-29 09:02:09.437500,-5.27,87.88
33199,2018-06-29 09:02:09.468750,-15.41,87.88
33200,2018-06-29 09:02:09.500000,-27.9,87.88
33201,2018-06-29 09:02:09.531250,-40.97,88.05
33202,2018-06-29 09:02:09.562500,-52.15,88.05
33203,2018-06-29 09:02:09.593750,-55.55,88.05
33204,2018-06-29 09:02:09.625000,-49.19,88.05
33205,2018-06-29 09:02:09.656250,-40.6,88.05
33206,2018-06-29 09:02:09.687500,-38.82,88.05
33207,2018-06-29 09:02:09.718750,-42.85,88.05
33208,2018-06-29 09:02:09.750000,-42.33,88.05
33209,2018-06-29 09:02:09.781250,-30.07,88.05
33210,2018-06-29 09:02:09.812500,-10.32,88.05
33211,2018-06-29 09:02:09.843750,7.75,88.05
33212,2018-06-29 09:02:09.875000,20.2,88.05
33213,2018-06-29 09:02:09.906250,28.08,88.05
33214,2018-06-29 09:02:09.937500,32.05,88.05
33215,2018-06-29 09:02:09.968750,32.08,88.05
33216,2018-06-29 09:02:10.000000,29.24,88.05
33217,2018-06-29 09:02:10.031250,24.75,88.05
33218,2018-06-29 09:02:10.062500,18.88,88.05
33219,2018-06-29 09:02:10.093750,12.18,88.05
33220,2018-06-29 09:02:10.125000,6.28,88.05
33221,2018-06-29 09:02:10.156250,2.29,88.05
33222,2018-06-29 09:02:10.187500,-0.73,88.05
33223,2018-06-29 09:02:10.218750,-4.53,88.05
33224,2018-06-29 09:02:10.250000,-9.01,88.05
33225,2018-06-29 09:02:10.281250,-10.61,88.05
33226,2018-06-29 09:02:10.312500,-3.79,88.05
33227,2018-06-29 09:02:10.343750,13.16,88.05
33228,2018-06-29 09:02:10.375000,34.29,88.05
33229,2018-06-29 09:02:10.406250,51.61,88.05
33230,2018-06-29 09:02:10.437500,61.69,88.05
33231,2018-06-29 09:02:10.468750,62.79,88.05
33232,2018-06-29 09:02:10.500000,52.15,88.05
33233,2018-06-29 09:02:10.531250,32.86,88.22
33234,2018-06-29 09:02:10.562500,16.14,88.22
33235,2018-06-29 09:02:10.593750,9.22,88.22
33236,2018-06-29 09:02:10.625000,7.63,88.22
33237,2018-06-29 09:02:10.656250,4.75,88.22
33238,2018-06-29 09:02:10.687500,0.84,88.22
33239,2018-06-29 09:02:10.718750,-2.57,88.22
33240,2018-06-29 09:02:10.750000,-8.31,88.22
33241,2018-06-29 09:02:10.781250,-16.86,88.22
33242,2018-06-29 09:02:10.812500,-20.03,88.22
33243,2018-06-29 09:02:10.843750,-8.97,88.22
33244,2018-06-29 09:02:10.875000,14.21,88.22
33245,2018-06-29 09:02:10.906250,39.65,88.22
33246,2018-06-29 09:02:10.937500,63.54,88.22
33247,2018-06-29 09:02:10.968750,88.65,88.22
33248,2018-06-29 09:02:11.000000,109.41,88.22
33249,2018-06-29 09:02:11.031250,107.98,88.22
33250,2018-06-29 09:02:11.062500,71.33,88.22
33251,2018-06-29 09:02:11.093750,7.67,88.22
33252,2018-06-29 09:02:11.125000,-55.56,88.22
33253,2018-06-29 09:02:11.156250,-91.4,88.22
33254,2018-06-29 09:02:11.187500,-94.52,88.22
33255,2018-06-29 09:02:11.218750,-80.91,88.22
33256,2018-06-29 09:02:11.250000,-67.57,88.22
33257,2018-06-29 09:02:11.281250,-60.63,88.22
33258,2018-06-29 09:02:11.312500,-59.16,88.22
33259,2018-06-29 09:02:11.343750,-56.61,88.22
33260,2018-06-29 09:02:11.375000,-42.19,88.22
33261,2018-06-29 09:02:11.406250,-12.94,88.22
33262,2018-06-29 09:02:11.437500,20.97,88.22
33263,2018-06-29 09:02:11.468750,49.38,88.22
33264,2018-06-29 09:02:11.500000,72.39,88.22
33265,2018-06-29 09:02:11.531250,93.49,88.37
33266,2018-06-29 09:02:11.562500,111.95,88.37
33267,2018-06-29 09:02:11.593750,126.43,88.37
33268,2018-06-29 09:02:11.625000,139.05,88.37
33269,2018-06-29 09:02:11.656250,150.83,88.37
33270,2018-06-29 09:02:11.687500,154.44,88.37
33271,2018-06-29 09:02:11.718750,135.59,88.37
33272,2018-06-29 09:02:11.750000,86.19,88.37
33273,2018-06-29 09:02:11.781250,16.34,88.37
33274,2018-06-29 09:02:11.812500,-51.38,88.37
33275,2018-06-29 09:02:11.843750,-100.32,88.37
33276,2018-06-29 09:02:11.875000,-128.03,88.37
33277,2018-06-29 09:02:11.906250,-138.74,88.37
33278,2018-06-29 09:02:11.937500,-136.94,88.37
33279,2018-06-29 09:02:11.968750,-127.92,88.37
33280,2018-06-29 09:02:12.000000,-115.69,88.37
33281,2018-06-29 09:02:12.031250,-99.29,88.37
33282,2018-06-29 09:02:12.062500,-77.33,88.37
33283,2018-06-29 09:02:12.093750,-54.77,88.37
33284,2018-06-29 09:02:12.125000,-38.72,88.37
33285,2018-06-29 09:02:12.156250,-29.61,88.37
33286,2018-06-29 09:02:12.187500,-22.97,88.37
33287,2018-06-29 09:02:12.218750,-16.28,88.37
33288,2018-06-29 09:02:12.250000,-9.07,88.37
33289,2018-06-29 09:02:12.281250,-1.92,88.37
33290,2018-06-29 09:02:12.312500,2.36,88.37
33291,2018-06-29 09:02:12.343750,1.64,88.37
33292,2018-06-29 09:02:12.375000,-2.41,88.37
33293,2018-06-29 09:02:12.406250,-5.5,88.37
33294,2018-06-29 09:02:12.437500,-1.05,88.37
33295,2018-06-29 09:02:12.468750,17.14,88.37
33296,2018-06-29 09:02:12.500000,45.58,88.37
33297,2018-06-29 09:02:12.531250,69.08,88.58
33298,2018-06-29 09:02:12.562500,74.68,88.58
33299,2018-06-29 09:02:12.593750,63.28,88.58
33300,2018-06-29 09:02:12.625000,46.47,88.58
33301,2018-06-29 09:02:12.656250,37.75,88.58
33302,2018-06-29 09:02:12.687500,44.97,88.58
33303,2018-06-29 09:02:12.718750,64.16,88.58
33304,2018-06-29 09:02:12.750000,82.81,88.58
33305,2018-06-29 09:02:12.781250,93.89,88.58
33306,2018-06-29 09:02:12.812500,101.79,88.58
33307,2018-06-29 09:02:12.843750,110.36,88.58
33308,2018-06-29 09:02:12.875000,110.72,88.58
33309,2018-06-29 09:02:12.906250,87.04,88.58
33310,2018-06-29 09:02:12.937500,34.55,88.58
33311,2018-06-29 09:02:12.968750,-29.85,88.58
33312,2018-06-29 09:02:13.000000,-78.05,88.58
33313,2018-06-29 09:02:13.031250,-93.31,88.58
33314,2018-06-29 09:02:13.062500,-80.41,88.58
33315,2018-06-29 09:02:13.093750,-56.03,88.58
33316,2018-06-29 09:02:13.125000,-35.58,88.58
33317,2018-06-29 09:02:13.156250,-28.15,88.58
33318,2018-06-29 09:02:13.187500,-34.85,88.58
33319,2018-06-29 09:02:13.218750,-47.61,88.58
33320,2018-06-29 09:02:13.250000,-53.93,88.58
33321,2018-06-29 09:02:13.281250,-46.83,88.58
33322,2018-06-29 09:02:13.312500,-29.87,88.58
33323,2018-06-29 09:02:13.343750,-11.61,88.58
33324,2018-06-29 09:02:13.375000,3.27,88.58
33325,2018-06-29 09:02:13.406250,16.12,88.58
33326,2018-06-29 09:02:13.437500,28.32,88.58
33327,2018-06-29 09:02:13.468750,35.24,88.58
33328,2018-06-29 09:02:13.500000,28.12,88.58
33329,2018-06-29 09:02:13.531250,2.6,88.8
33330,2018-06-29 09:02:13.562500,-33.61,88.8
33331,2018-06-29 09:02:13.593750,-61.61,88.8
33332,2018-06-29 09:02:13.625000,-65.39,88.8
33333,2018-06-29 09:02:13.656250,-47.48,88.8
33334,2018-06-29 09:02:13.687500,-24.85,88.8
33335,2018-06-29 09:02:13.718750,-9.37,88.8
33336,2018-06-29 09:02:13.750000,0.24,88.8
33337,2018-06-29 09:02:13.781250,9.65,88.8
33338,2018-06-29 09:02:13.812500,21.39,88.8
33339,2018-06-29 09:02:13.843750,33.54,88.8
33340,2018-06-29 09:02:13.875000,40.12,88.8
33341,2018-06-29 09:02:13.906250,36.69,88.8
33342,2018-06-29 09:02:13.937500,29.15,88.8
33343,2018-06-29 09:02:13.968750,31.47,88.8
33344,2018-06-29 09:02:14.000000,50.9,88.8
33345,2018-06-29 09:02:14.031250,79.75,88.8
33346,2018-06-29 09:02:14.062500,104.16,88.8
33347,2018-06-29 09:02:14.093750,118.05,88.8
33348,2018-06-29 09:02:14.125000,125.0,88.8
33349,2018-06-29 09:02:14.156250,126.91,88.8
33350,2018-06-29 09:02:14.187500,115.48,88.8
33351,2018-06-29 09:02:14.218750,80.36,88.8
33352,2018-06-29 09:02:14.250000,22.79,88.8
33353,2018-06-29 09:02:14.281250,-43.82,88.8
33354,2018-06-29 09:02:14.312500,-101.76,88.8
33355,2018-06-29 09:02:14.343750,-134.57,88.8
33356,2018-06-29 09:02:14.375000,-135.69,88.8
33357,2018-06-29 09:02:14.406250,-116.31,88.8
33358,2018-06-29 09:02:14.437500,-96.04,88.8
33359,2018-06-29 09:02:14.468750,-84.33,88.8
33360,2018-06-29 09:02:14.500000,-77.59,88.8
33361,2018-06-29 09:02:14.531250,-69.63,89.02
33362,2018-06-29 09:02:14.562500,-55.91,89.02
33363,2018-06-29 09:02:14.593750,-33.52,89.02
33364,2018-06-29 09:02:14.625000,-4.33,89.02
33365,2018-06-29 09:02:14.656250,25.99,89.02
33366,2018-06-29 09:02:14.687500,53.94,89.02
33367,2018-06-29 09:02:14.718750,79.06,89.02
33368,2018-06-29 09:02:14.750000,100.34,89.02
33369,2018-06-29 09:02:14.781250,115.86,89.02
33370,2018-06-29 09:02:14.812500,126.97,89.02
33371,2018-06-29 09:02:14.843750,142.48,89.02
33372,2018-06-29 09:02:14.875000,170.34,89.02
33373,2018-06-29 09:02:14.906250,197.65,89.02
33374,2018-06-29 09:02:14.937500,193.53,89.02
33375,2018-06-29 09:02:14.968750,141.53,89.02
33376,2018-06-29 09:02:15.000000,51.75,89.02
33377,2018-06-29 09:02:15.031250,-55.19,89.02
33378,2018-06-29 09:02:15.062500,-152.0,89.02
33379,2018-06-29 09:02:15.093750,-207.13,89.02
33380,2018-06-29 09:02:15.125000,-210.88,89.02
33381,2018-06-29 09:02:15.156250,-185.17,89.02
33382,2018-06-29 09:02:15.187500,-154.1,89.02
33383,2018-06-29 09:02:15.218750,-123.49,89.02
33384,2018-06-29 09:02:15.250000,-92.39,89.02
33385,2018-06-29 09:02:15.281250,-62.87,89.02
33386,2018-06-29 09:02:15.312500,-35.36,89.02
33387,2018-06-29 09:02:15.343750,-7.77,89.02
33388,2018-06-29 09:02:15.375000,19.38,89.02
33389,2018-06-29 09:02:15.406250,44.02,89.02
33390,2018-06-29 09:02:15.437500,68.38,89.02
33391,2018-06-29 09:02:15.468750,98.09,89.02
33392,2018-06-29 09:02:15.500000,136.99,89.02
33393,2018-06-29 09:02:15.531250,185.18,89.25
33394,2018-06-29 09:02:15.562500,232.79,89.25
33395,2018-06-29 09:02:15.593750,256.9,89.25
33396,2018-06-29 09:02:15.625000,239.62,89.25
33397,2018-06-29 09:02:15.656250,185.14,89.25
33398,2018-06-29 09:02:15.687500,107.33,89.25
33399,2018-06-29 09:02:15.718750,18.08,89.25
33400,2018-06-29 09:02:15.750000,-63.5,89.25
33401,2018-06-29 09:02:15.781250,-118.81,89.25
33402,2018-06-29 09:02:15.812500,-152.72,89.25
33403,2018-06-29 09:02:15.843750,-182.5,89.25
33404,2018-06-29 09:02:15.875000,-209.09,89.25
33405,2018-06-29 09:02:15.906250,-222.28,89.25
33406,2018-06-29 09:02:15.937500,-222.14,89.25
33407,2018-06-29 09:02:15.968750,-215.67,89.25
33408,2018-06-29 09:02:16.000000,-203.62,89.25
33409,2018-06-29 09:02:16.031250,-183.71,89.25
33410,2018-06-29 09:02:16.062500,-159.75,89.25
33411,2018-06-29 09:02:16.093750,-138.86,89.25
33412,2018-06-29 09:02:16.125000,-121.94,89.25
33413,2018-06-29 09:02:16.156250,-101.85,89.25
33414,2018-06-29 09:02:16.187500,-71.99,89.25
33415,2018-06-29 09:02:16.218750,-34.6,89.25
33416,2018-06-29 09:02:16.250000,1.71,89.25
33417,2018-06-29 09:02:16.281250,32.49,89.25
33418,2018-06-29 09:02:16.312500,61.46,89.25
33419,2018-06-29 09:02:16.343750,90.04,89.25
33420,2018-06-29 09:02:16.375000,107.71,89.25
33421,2018-06-29 09:02:16.406250,100.36,89.25
33422,2018-06-29 09:02:16.437500,66.98,89.25
33423,2018-06-29 09:02:16.468750,24.26,89.25
33424,2018-06-29 09:02:16.500000,-3.85,89.25
33425,2018-06-29 09:02:16.531250,-4.58,89.5
33426,2018-06-29 09:02:16.562500,11.55,89.5
33427,2018-06-29 09:02:16.593750,21.51,89.5
33428,2018-06-29 09:02:16.625000,12.95,89.5
33429,2018-06-29 09:02:16.656250,-8.97,89.5
33430,2018-06-29 09:02:16.687500,-32.18,89.5
33431,2018-06-29 09:02:16.718750,-45.31,89.5
33432,2018-06-29 09:02:16.750000,-42.21,89.5
33433,2018-06-29 09:02:16.781250,-27.6,89.5
33434,2018-06-29 09:02:16.812500,-13.51,89.5
33435,2018-06-29 09:02:16.843750,-6.0,89.5
33436,2018-06-29 09:02:16.875000,0.29,89.5
33437,2018-06-29 09:02:16.906250,13.64,89.5
33438,2018-06-29 09:02:16.937500,35.07,89.5
33439,2018-06-29 09:02:16.968750,58.77,89.5
33440,2018-06-29 09:02:17.000000,79.21,89.5
33441,2018-06-29 09:02:17.031250,96.55,89.5
33442,2018-06-29 09:02:17.062500,118.07,89.5
33443,2018-06-29 09:02:17.093750,149.43,89.5
33444,2018-06-29 09:02:17.125000,176.22,89.5
33445,2018-06-29 09:02:17.156250,167.25,89.5
33446,2018-06-29 09:02:17.187500,111.02,89.5
33447,2018-06-29 09:02:17.218750,34.66,89.5
33448,2018-06-29 09:02:17.250000,-26.25,89.5
33449,2018-06-29 09:02:17.281250,-60.11,89.5
33450,2018-06-29 09:02:17.312500,-76.19,89.5
33451,2018-06-29 09:02:17.343750,-87.95,89.5
33452,2018-06-29 09:02:17.375000,-104.08,89.5
33453,2018-06-29 09:02:17.406250,-124.37,89.5
33454,2018-06-29 09:02:17.437500,-140.93,89.5
33455,2018-06-29 09:02:17.468750,-145.83,89.5
33456,2018-06-29 09:02:17.500000,-138.92,89.5
33457,2018-06-29 09:02:17.531250,-128.57,89.52
33458,2018-06-29 09:02:17.562500,-122.83,89.52
33459,2018-06-29 09:02:17.593750,-120.29,89.52
33460,2018-06-29 09:02:17.625000,-113.87,89.52
33461,2018-06-29 09:02:17.656250,-101.02,89.52
33462,2018-06-29 09:02:17.687500,-84.99,89.52
33463,2018-06-29 09:02:17.718750,-68.85,89.52
33464,2018-06-29 09:02:17.750000,-52.37,89.52
33465,2018-06-29 09:02:17.781250,-33.13,89.52
33466,2018-06-29 09:02:17.812500,-10.17,89.52
33467,2018-06-29 09:02:17.843750,13.39,89.52
33468,2018-06-29 09:02:17.875000,32.45,89.52
33469,2018-06-29 09:02:17.906250,43.7,89.52
33470,2018-06-29 09:02:17.937500,46.26,89.52
33471,2018-06-29 09:02:17.968750,41.23,89.52
33472,2018-06-29 09:02:18.000000,31.87,89.52
33473,2018-06-29 09:02:18.031250,21.78,89.52
33474,2018-06-29 09:02:18.062500,12.58,89.52
33475,2018-06-29 09:02:18.093750,4.31,89.52
33476,2018-06-29 09:02:18.125000,-3.27,89.52
33477,2018-06-29 09:02:18.156250,-10.37,89.52
33478,2018-06-29 09:02:18.187500,-17.6,89.52
33479,2018-06-29 09:02:18.218750,-25.61,89.52
33480,2018-06-29 09:02:18.250000,-32.4,89.52
33481,2018-06-29 09:02:18.281250,-31.9,89.52
33482,2018-06-29 09:02:18.312500,-19.3,89.52
33483,2018-06-29 09:02:18.343750,2.09,89.52
33484,2018-06-29 09:02:18.375000,23.82,89.52
33485,2018-06-29 09:02:18.406250,41.0,89.52
33486,2018-06-29 09:02:18.437500,53.68,89.52
33487,2018-06-29 09:02:18.468750,63.03,89.52
33488,2018-06-29 09:02:18.500000,69.57,89.52
33489,2018-06-29 09:02:18.531250,70.28,89.5
33490,2018-06-29 09:02:18.562500,58.77,89.5
33491,2018-06-29 09:02:18.593750,36.55,89.5
33492,2018-06-29 09:02:18.625000,17.99,89.5
33493,2018-06-29 09:02:18.656250,13.11,89.5
33494,2018-06-29 09:02:18.687500,13.84,89.5
33495,2018-06-29 09:02:18.718750,7.71,89.5
33496,2018-06-29 09:02:18.750000,-5.05,89.5
33497,2018-06-29 09:02:18.781250,-15.81,89.5
33498,2018-06-29 09:02:18.812500,-18.7,89.5
33499,2018-06-29 09:02:18.843750,-11.9,89.5
33500,2018-06-29 09:02:18.875000,3.53,89.5
33501,2018-06-29 09:02:18.906250,21.85,89.5
33502,2018-06-29 09:02:18.937500,34.76,89.5
33503,2018-06-29 09:02:18.968750,39.14,89.5
33504,2018-06-29 09:02:19.000000,41.17,89.5
33505,2018-06-29 09:02:19.031250,50.56,89.5
33506,2018-06-29 09:02:19.062500,68.89,89.5
33507,2018-06-29 09:02:19.093750,82.51,89.5
33508,2018-06-29 09:02:19.125000,70.8,89.5
33509,2018-06-29 09:02:19.156250,27.98,89.5
33510,2018-06-29 09:02:19.187500,-26.99,89.5
33511,2018-06-29 09:02:19.218750,-67.36,89.5
33512,2018-06-29 09:02:19.250000,-81.99,89.5
33513,2018-06-29 09:02:19.281250,-78.33,89.5
33514,2018-06-29 09:02:19.312500,-68.08,89.5
33515,2018-06-29 09:02:19.343750,-56.56,89.5
33516,2018-06-29 09:02:19.375000,-44.86,89.5
33517,2018-06-29 09:02:19.406250,-35.02,89.5
33518,2018-06-29 09:02:19.437500,-26.86,89.5
33519,2018-06-29 09:02:19.468750,-13.21,89.5
33520,2018-06-29 09:02:19.500000,12.38,89.5
33521,2018-06-29 09:02:19.531250,43.86,89.42
33522,2018-06-29 09:02:19.562500,67.59,89.42
33523,2018-06-29 09:02:19.593750,79.43,89.42
33524,2018-06-29 09:02:19.625000,90.57,89.42
33525,2018-06-29 09:02:19.656250,117.14,89.42
33526,2018-06-29 09:02:19.687500,165.17,89.42
33527,2018-06-29 09:02:19.718750,216.24,89.42
33528,2018-06-29 09:02:19.750000,230.25,89.42
33529,2018-06-29 09:02:19.781250,180.01,89.42
33530,2018-06-29 09:02:19.812500,87.32,89.42
33531,2018-06-29 09:02:19.843750,4.81,89.42
33532,2018-06-29 09:02:19.875000,-41.52,89.42
33533,2018-06-29 09:02:19.906250,-68.65,89.42
33534,2018-06-29 09:02:19.937500,-96.96,89.42
33535,2018-06-29 09:02:19.968750,-125.1,89.42
33536,2018-06-29 09:02:20.000000,-146.11,89.42
33537,2018-06-29 09:02:20.031250,-159.02,89.42
33538,2018-06-29 09:02:20.062500,-160.2,89.42
33539,2018-06-29 09:02:20.093750,-146.14,89.42
33540,2018-06-29 09:02:20.125000,-124.65,89.42
33541,2018-06-29 09:02:20.156250,-107.12,89.42
33542,2018-06-29 09:02:20.187500,-94.05,89.42
33543,2018-06-29 09:02:20.218750,-79.98,89.42
33544,2018-06-29 09:02:20.250000,-67.41,89.42
33545,2018-06-29 09:02:20.281250,-64.02,89.42
33546,2018-06-29 09:02:20.312500,-68.63,89.42
33547,2018-06-29 09:02:20.343750,-69.33,89.42
33548,2018-06-29 09:02:20.375000,-57.67,89.42
33549,2018-06-29 09:02:20.406250,-38.48,89.42
33550,2018-06-29 09:02:20.437500,-22.02,89.42
33551,2018-06-29 09:02:20.468750,-11.36,89.42
33552,2018-06-29 09:02:20.500000,-3.3,89.42
33553,2018-06-29 09:02:20.531250,2.93,89.33
33554,2018-06-29 09:02:20.562500,5.67,89.33
33555,2018-06-29 09:02:20.593750,6.02,89.33
33556,2018-06-29 09:02:20.625000,7.03,89.33
33557,2018-06-29 09:02:20.656250,10.47,89.33
33558,2018-06-29 09:02:20.687500,16.25,89.33
33559,2018-06-29 09:02:20.718750,22.74,89.33
33560,2018-06-29 09:02:20.750000,27.4,89.33
33561,2018-06-29 09:02:20.781250,29.04,89.33
33562,2018-06-29 09:02:20.812500,28.84,89.33
33563,2018-06-29 09:02:20.843750,29.18,89.33
33564,2018-06-29 09:02:20.875000,32.06,89.33
33565,2018-06-29 09:02:20.906250,37.45,89.33
33566,2018-06-29 09:02:20.937500,43.1,89.33
33567,2018-06-29 09:02:20.968750,46.53,89.33
33568,2018-06-29 09:02:21.000000,46.25,89.33
33569,2018-06-29 09:02:21.031250,41.43,89.33
33570,2018-06-29 09:02:21.062500,32.35,89.33
33571,2018-06-29 09:02:21.093750,21.06,89.33
33572,2018-06-29 09:02:21.125000,9.72,89.33
33573,2018-06-29 09:02:21.156250,-1.26,89.33
33574,2018-06-29 09:02:21.187500,-12.15,89.33
33575,2018-06-29 09:02:21.218750,-21.19,89.33
33576,2018-06-29 09:02:21.250000,-25.36,89.33
33577,2018-06-29 09:02:21.281250,-25.22,89.33
33578,2018-06-29 09:02:21.312500,-25.82,89.33
33579,2018-06-29 09:02:21.343750,-28.81,89.33
33580,2018-06-29 09:02:21.375000,-26.73,89.33
33581,2018-06-29 09:02:21.406250,-11.12,89.33
33582,2018-06-29 09:02:21.437500,15.86,89.33
33583,2018-06-29 09:02:21.468750,41.62,89.33
33584,2018-06-29 09:02:21.500000,51.17,89.33
33585,2018-06-29 09:02:21.531250,39.05,89.25
33586,2018-06-29 09:02:21.562500,18.11,89.25
33587,2018-06-29 09:02:21.593750,6.83,89.25
33588,2018-06-29 09:02:21.625000,6.98,89.25
33589,2018-06-29 09:02:21.656250,7.64,89.25
33590,2018-06-29 09:02:21.687500,5.26,89.25
33591,2018-06-29 09:02:21.718750,2.96,89.25
33592,2018-06-29 09:02:21.750000,0.33,89.25
33593,2018-06-29 09:02:21.781250,-2.9,89.25
33594,2018-06-29 09:02:21.812500,-4.25,89.25
33595,2018-06-29 09:02:21.843750,-5.04,89.25
33596,2018-06-29 09:02:21.875000,-7.15,89.25
33597,2018-06-29 09:02:21.906250,-3.78,89.25
33598,2018-06-29 09:02:21.937500,14.18,89.25
33599,2018-06-29 09:02:21.968750,42.78,89.25
33600,2018-06-29 09:02:22.000000,67.26,89.25
33601,2018-06-29 09:02:22.031250,80.17,89.25
33602,2018-06-29 09:02:22.062500,88.92,89.25
33603,2018-06-29 09:02:22.093750,104.85,89.25
33604,2018-06-29 09:02:22.125000,125.92,89.25
33605,2018-06-29 09:02:22.156250,129.69,89.25
33606,2018-06-29 09:02:22.187500,92.38,89.25
33607,2018-06-29 09:02:22.218750,21.82,89.25
33608,2018-06-29 09:02:22.250000,-42.49,89.25
33609,2018-06-29 09:02:22.281250,-72.2,89.25
33610,2018-06-29 09:02:22.312500,-76.73,89.25
33611,2018-06-29 09:02:22.343750,-79.54,89.25
33612,2018-06-29 09:02:22.375000,-87.87,89.25
33613,2018-06-29 09:02:22.406250,-94.54,89.25
33614,2018-06-29 09:02:22.437500,-92.5,89.25
33615,2018-06-29 09:02:22.468750,-79.73,89.25
33616,2018-06-29 09:02:22.500000,-58.82,89.25
33617,2018-06-29 09:02:22.531250,-36.05,89.15
33618,2018-06-29 09:02:22.562500,-17.34,89.15
33619,2018-06-29 09:02:22.593750,-4.89,89.15
33620,2018-06-29 09:02:22.625000,1.45,89.15
33621,2018-06-29 09:02:22.656250,2.14,89.15
33622,2018-06-29 09:02:22.687500,-1.89,89.15
33623,2018-06-29 09:02:22.718750,-9.14,89.15
33624,2018-06-29 09:02:22.750000,-17.37,89.15
33625,2018-06-29 09:02:22.781250,-23.46,89.15
33626,2018-06-29 09:02:22.812500,-25.92,89.15
33627,2018-06-29 09:02:22.843750,-27.54,89.15
33628,2018-06-29 09:02:22.875000,-31.15,89.15
33629,2018-06-29 09:02:22.906250,-32.31,89.15
33630,2018-06-29 09:02:22.937500,-22.3,89.15
33631,2018-06-29 09:02:22.968750,0.4,89.15
33632,2018-06-29 09:02:23.000000,26.12,89.15
33633,2018-06-29 09:02:23.031250,44.23,89.15
33634,2018-06-29 09:02:23.062500,54.3,89.15
33635,2018-06-29 09:02:23.093750,63.95,89.15
33636,2018-06-29 09:02:23.125000,77.89,89.15
33637,2018-06-29 09:02:23.156250,92.77,89.15
33638,2018-06-29 09:02:23.187500,103.01,89.15
33639,2018-06-29 09:02:23.218750,109.39,89.15
33640,2018-06-29 09:02:23.250000,119.84,89.15
33641,2018-06-29 09:02:23.281250,138.7,89.15
33642,2018-06-29 09:02:23.312500,153.79,89.15
33643,2018-06-29 09:02:23.343750,138.25,89.15
33644,2018-06-29 09:02:23.375000,75.18,89.15
33645,2018-06-29 09:02:23.406250,-15.64,89.15
33646,2018-06-29 09:02:23.437500,-85.49,89.15
33647,2018-06-29 09:02:23.468750,-101.06,89.15
33648,2018-06-29 09:02:23.500000,-75.13,89.15
33649,2018-06-29 09:02:23.531250,-47.14,89.02
33650,2018-06-29 09:02:23.562500,-42.37,89.02
33651,2018-06-29 09:02:23.593750,-55.98,89.02
33652,2018-06-29 09:02:23.625000,-66.44,89.02
33653,2018-06-29 09:02:23.656250,-58.59,89.02
33654,2018-06-29 09:02:23.687500,-37.82,89.02
33655,2018-06-29 09:02:23.718750,-21.48,89.02
33656,2018-06-29 09:02:23.750000,-16.96,89.02
33657,2018-06-29 09:02:23.781250,-14.64,89.02
33658,2018-06-29 09:02:23.812500,-3.63,89.02
33659,2018-06-29 09:02:23.843750,9.39,89.02
33660,2018-06-29 09:02:23.875000,1.84,89.02
33661,2018-06-29 09:02:23.906250,-37.54,89.02
33662,2018-06-29 09:02:23.937500,-85.53,89.02
33663,2018-06-29 09:02:23.968750,-104.92,89.02
33664,2018-06-29 09:02:24.000000,-87.13,89.02
33665,2018-06-29 09:02:24.031250,-55.75,89.02
33666,2018-06-29 09:02:24.062500,-32.13,89.02
33667,2018-06-29 09:02:24.093750,-18.71,89.02
33668,2018-06-29 09:02:24.125000,-10.88,89.02
33669,2018-06-29 09:02:24.156250,-4.09,89.02
33670,2018-06-29 09:02:24.187500,7.24,89.02
33671,2018-06-29 09:02:24.218750,23.3,89.02
33672,2018-06-29 09:02:24.250000,35.68,89.02
33673,2018-06-29 09:02:24.281250,38.92,89.02
33674,2018-06-29 09:02:24.312500,39.04,89.02
33675,2018-06-29 09:02:24.343750,44.14,89.02
33676,2018-06-29 09:02:24.375000,52.46,89.02
33677,2018-06-29 09:02:24.406250,55.98,89.02
33678,2018-06-29 09:02:24.437500,53.76,89.02
33679,2018-06-29 09:02:24.468750,56.43,89.02
33680,2018-06-29 09:02:24.500000,73.12,89.02
33681,2018-06-29 09:02:24.531250,93.97,88.77
33682,2018-06-29 09:02:24.562500,93.86,88.77
33683,2018-06-29 09:02:24.593750,59.27,88.77
33684,2018-06-29 09:02:24.625000,6.06,88.77
33685,2018-06-29 09:02:24.656250,-35.67,88.77
33686,2018-06-29 09:02:24.687500,-50.67,88.77
33687,2018-06-29 09:02:24.718750,-47.51,88.77
33688,2018-06-29 09:02:24.750000,-42.26,88.77
33689,2018-06-29 09:02:24.781250,-41.67,88.77
33690,2018-06-29 09:02:24.812500,-42.97,88.77
33691,2018-06-29 09:02:24.843750,-41.22,88.77
33692,2018-06-29 09:02:24.875000,-33.38,88.77
33693,2018-06-29 09:02:24.906250,-20.62,88.77
33694,2018-06-29 09:02:24.937500,-8.53,88.77
33695,2018-06-29 09:02:24.968750,-0.92,88.77
33696,2018-06-29 09:02:25.000000,7.04,88.77
33697,2018-06-29 09:02:25.031250,24.63,88.77
33698,2018-06-29 09:02:25.062500,51.53,88.77
33699,2018-06-29 09:02:25.093750,72.08,88.77
33700,2018-06-29 09:02:25.125000,69.34,88.77
33701,2018-06-29 09:02:25.156250,41.89,88.77
33702,2018-06-29 09:02:25.187500,1.36,88.77
33703,2018-06-29 09:02:25.218750,-38.06,88.77
33704,2018-06-29 09:02:25.250000,-61.89,88.77
33705,2018-06-29 09:02:25.281250,-61.06,88.77
33706,2018-06-29 09:02:25.312500,-42.59,88.77
33707,2018-06-29 09:02:25.343750,-23.49,88.77
33708,2018-06-29 09:02:25.375000,-11.79,88.77
33709,2018-06-29 09:02:25.406250,-3.52,88.77
33710,2018-06-29 09:02:25.437500,4.53,88.77
33711,2018-06-29 09:02:25.468750,10.22,88.77
33712,2018-06-29 09:02:25.500000,13.89,88.77
33713,2018-06-29 09:02:25.531250,22.23,88.52
33714,2018-06-29 09:02:25.562500,40.88,88.52
33715,2018-06-29 09:02:25.593750,66.91,88.52
33716,2018-06-29 09:02:25.625000,92.77,88.52
33717,2018-06-29 09:02:25.656250,115.0,88.52
33718,2018-06-29 09:02:25.687500,136.73,88.52
33719,2018-06-29 09:02:25.718750,166.58,88.52
33720,2018-06-29 09:02:25.750000,212.39,88.52
33721,2018-06-29 09:02:25.781250,264.79,88.52
33722,2018-06-29 09:02:25.812500,295.07,88.52
33723,2018-06-29 09:02:25.843750,284.85,88.52
33724,2018-06-29 09:02:25.875000,246.98,88.52
33725,2018-06-29 09:02:25.906250,203.64,88.52
33726,2018-06-29 09:02:25.937500,158.88,88.52
33727,2018-06-29 09:02:25.968750,101.9,88.52
33728,2018-06-29 09:02:26.000000,23.72,88.52
33729,2018-06-29 09:02:26.031250,-69.17,88.52
33730,2018-06-29 09:02:26.062500,-152.14,88.52
33731,2018-06-29 09:02:26.093750,-204.63,88.52
33732,2018-06-29 09:02:26.125000,-230.91,88.52
33733,2018-06-29 09:02:26.156250,-245.65,88.52
33734,2018-06-29 09:02:26.187500,-252.5,88.52
33735,2018-06-29 09:02:26.218750,-249.3,88.52
33736,2018-06-29 09:02:26.250000,-237.09,88.52
33737,2018-06-29 09:02:26.281250,-217.03,88.52
33738,2018-06-29 09:02:26.312500,-190.82,88.52
33739,2018-06-29 09:02:26.343750,-164.14,88.52
33740,2018-06-29 09:02:26.375000,-142.5,88.52
33741,2018-06-29 09:02:26.406250,-125.99,88.52
33742,2018-06-29 09:02:26.437500,-110.85,88.52
33743,2018-06-29 09:02:26.468750,-95.17,88.52
33744,2018-06-29 09:02:26.500000,-83.03,88.52
33745,2018-06-29 09:02:26.531250,-79.05,88.23
33746,2018-06-29 09:02:26.562500,-77.6,88.23
33747,2018-06-29 09:02:26.593750,-66.24,88.23
33748,2018-06-29 09:02:26.625000,-42.54,88.23
33749,2018-06-29 09:02:26.656250,-17.02,88.23
33750,2018-06-29 09:02:26.687500,2.45,88.23
33751,2018-06-29 09:02:26.718750,17.14,88.23
33752,2018-06-29 09:02:26.750000,28.05,88.23
33753,2018-06-29 09:02:26.781250,33.1,88.23
33754,2018-06-29 09:02:26.812500,33.54,88.23
33755,2018-06-29 09:02:26.843750,33.12,88.23
33756,2018-06-29 09:02:26.875000,32.79,88.23
33757,2018-06-29 09:02:26.906250,32.35,88.23
33758,2018-06-29 09:02:26.937500,33.81,88.23
33759,2018-06-29 09:02:26.968750,38.24,88.23
33760,2018-06-29 09:02:27.000000,43.31,88.23
33761,2018-06-29 09:02:27.031250,46.99,88.23
33762,2018-06-29 09:02:27.062500,51.57,88.23
33763,2018-06-29 09:02:27.093750,63.51,88.23
33764,2018-06-29 09:02:27.125000,89.86,88.23
33765,2018-06-29 09:02:27.156250,130.36,88.23
33766,2018-06-29 09:02:27.187500,170.4,88.23
33767,2018-06-29 09:02:27.218750,187.49,88.23
33768,2018-06-29 09:02:27.250000,168.81,88.23
33769,2018-06-29 09:02:27.281250,119.09,88.23
33770,2018-06-29 09:02:27.312500,52.99,88.23
33771,2018-06-29 09:02:27.343750,-11.65,88.23
33772,2018-06-29 09:02:27.375000,-57.88,88.23
33773,2018-06-29 09:02:27.406250,-80.53,88.23
33774,2018-06-29 09:02:27.437500,-90.94,88.23
33775,2018-06-29 09:02:27.468750,-102.13,88.23
33776,2018-06-29 09:02:27.500000,-114.45,88.23
33777,2018-06-29 09:02:27.531250,-121.42,88.02
33778,2018-06-29 09:02:27.562500,-121.36,88.02
33779,2018-06-29 09:02:27.593750,-116.26,88.02
33780,2018-06-29 09:02:27.625000,-104.24,88.02
33781,2018-06-29 09:02:27.656250,-81.19,88.02
33782,2018-06-29 09:02:27.687500,-49.17,88.02
33783,2018-06-29 09:02:27.718750,-16.62,88.02
33784,2018-06-29 09:02:27.750000,10.66,88.02
33785,2018-06-29 09:02:27.781250,35.04,88.02
33786,2018-06-29 09:02:27.812500,64.48,88.02
33787,2018-06-29 09:02:27.843750,104.67,88.02
33788,2018-06-29 09:02:27.875000,149.0,88.02
33789,2018-06-29 09:02:27.906250,176.9,88.02
33790,2018-06-29 09:02:27.937500,168.5,88.02
33791,2018-06-29 09:02:27.968750,122.29,88.02
33792,2018-06-29 09:02:28.000000,56.67,88.02
33793,2018-06-29 09:02:28.031250,-3.81,88.02
33794,2018-06-29 09:02:28.062500,-45.27,88.02
33795,2018-06-29 09:02:28.093750,-72.13,88.02
33796,2018-06-29 09:02:28.125000,-95.54,88.02
33797,2018-06-29 09:02:28.156250,-116.41,88.02
33798,2018-06-29 09:02:28.187500,-127.26,88.02
33799,2018-06-29 09:02:28.218750,-125.95,88.02
33800,2018-06-29 09:02:28.250000,-116.38,88.02
33801,2018-06-29 09:02:28.281250,-101.29,88.02
33802,2018-06-29 09:02:28.312500,-83.44,88.02
33803,2018-06-29 09:02:28.343750,-67.06,88.02
33804,2018-06-29 09:02:28.375000,-52.31,88.02
33805,2018-06-29 09:02:28.406250,-35.73,88.02
33806,2018-06-29 09:02:28.437500,-16.97,88.02
33807,2018-06-29 09:02:28.468750,2.27,88.02
33808,2018-06-29 09:02:28.500000,24.74,88.02
33809,2018-06-29 09:02:28.531250,57.22,87.83
33810,2018-06-29 09:02:28.562500,104.88,87.83
33811,2018-06-29 09:02:28.593750,161.88,87.83
33812,2018-06-29 09:02:28.625000,203.95,87.83
33813,2018-06-29 09:02:28.656250,205.73,87.83
33814,2018-06-29 09:02:28.687500,170.66,87.83
33815,2018-06-29 09:02:28.718750,125.08,87.83
33816,2018-06-29 09:02:28.750000,85.72,87.83
33817,2018-06-29 09:02:28.781250,52.63,87.83
33818,2018-06-29 09:02:28.812500,23.55,87.83
33819,2018-06-29 09:02:28.843750,-3.91,87.83
33820,2018-06-29 09:02:28.875000,-34.56,87.83
33821,2018-06-29 09:02:28.906250,-69.96,87.83
33822,2018-06-29 09:02:28.937500,-105.9,87.83
33823,2018-06-29 09:02:28.968750,-135.83,87.83
33824,2018-06-29 09:02:29.000000,-154.38,87.83
33825,2018-06-29 09:02:29.031250,-160.32,87.83
33826,2018-06-29 09:02:29.062500,-157.2,87.83
33827,2018-06-29 09:02:29.093750,-150.54,87.83
33828,2018-06-29 09:02:29.125000,-145.13,87.83
33829,2018-06-29 09:02:29.156250,-142.41,87.83
33830,2018-06-29 09:02:29.187500,-138.16,87.83
33831,2018-06-29 09:02:29.218750,-125.76,87.83
33832,2018-06-29 09:02:29.250000,-103.96,87.83
33833,2018-06-29 09:02:29.281250,-79.02,87.83
33834,2018-06-29 09:02:29.312500,-58.03,87.83
33835,2018-06-29 09:02:29.343750,-43.29,87.83
33836,2018-06-29 09:02:29.375000,-32.73,87.83
33837,2018-06-29 09:02:29.406250,-22.63,87.83
33838,2018-06-29 09:02:29.437500,-10.05,87.83
33839,2018-06-29 09:02:29.468750,4.29,87.83
33840,2018-06-29 09:02:29.500000,15.35,87.83
33841,2018-06-29 09:02:29.531250,17.52,87.68
33842,2018-06-29 09:02:29.562500,9.74,87.68
33843,2018-06-29 09:02:29.593750,-3.71,87.68
33844,2018-06-29 09:02:29.625000,-17.45,87.68
33845,2018-06-29 09:02:29.656250,-28.25,87.68
33846,2018-06-29 09:02:29.687500,-33.26,87.68
33847,2018-06-29 09:02:29.718750,-29.35,87.68
33848,2018-06-29 09:02:29.750000,-16.97,87.68
33849,2018-06-29 09:02:29.781250,-1.1,87.68
33850,2018-06-29 09:02:29.812500,14.14,87.68
33851,2018-06-29 09:02:29.843750,28.35,87.68
33852,2018-06-29 09:02:29.875000,41.36,87.68
33853,2018-06-29 09:02:29.906250,51.28,87.68
33854,2018-06-29 09:02:29.937500,56.96,87.68
33855,2018-06-29 09:02:29.968750,58.81,87.68
33856,2018-06-29 09:02:30.000000,56.86,87.68
33857,2018-06-29 09:02:30.031250,50.58,87.68
33858,2018-06-29 09:02:30.062500,40.46,87.68
33859,2018-06-29 09:02:30.093750,28.92,87.68
33860,2018-06-29 09:02:30.125000,18.7,87.68
33861,2018-06-29 09:02:30.156250,9.95,87.68
33862,2018-06-29 09:02:30.187500,0.26,87.68
33863,2018-06-29 09:02:30.218750,-9.78,87.68
33864,2018-06-29 09:02:30.250000,-14.27,87.68
33865,2018-06-29 09:02:30.281250,-9.79,87.68
33866,2018-06-29 09:02:30.312500,-1.22,87.68
33867,2018-06-29 09:02:30.343750,4.78,87.68
33868,2018-06-29 09:02:30.375000,6.81,87.68
33869,2018-06-29 09:02:30.406250,6.16,87.68
33870,2018-06-29 09:02:30.437500,3.24,87.68
33871,2018-06-29 09:02:30.468750,-1.1,87.68
33872,2018-06-29 09:02:30.500000,-4.56,87.68
33873,2018-06-29 09:02:30.531250,-5.43,87.57
33874,2018-06-29 09:02:30.562500,-3.88,87.57
33875,2018-06-29 09:02:30.593750,-2.0,87.57
33876,2018-06-29 09:02:30.625000,-2.63,87.57
33877,2018-06-29 09:02:30.656250,-7.27,87.57
33878,2018-06-29 09:02:30.687500,-15.39,87.57
33879,2018-06-29 09:02:30.718750,-24.12,87.57
33880,2018-06-29 09:02:30.750000,-27.18,87.57
33881,2018-06-29 09:02:30.781250,-18.89,87.57
33882,2018-06-29 09:02:30.812500,-1.89,87.57
33883,2018-06-29 09:02:30.843750,14.33,87.57
33884,2018-06-29 09:02:30.875000,24.35,87.57
33885,2018-06-29 09:02:30.906250,30.02,87.57
33886,2018-06-29 09:02:30.937500,33.57,87.57
33887,2018-06-29 09:02:30.968750,34.54,87.57
33888,2018-06-29 09:02:31.000000,33.42,87.57
33889,2018-06-29 09:02:31.031250,33.44,87.57
33890,2018-06-29 09:02:31.062500,36.82,87.57
33891,2018-06-29 09:02:31.093750,40.84,87.57
33892,2018-06-29 09:02:31.125000,40.55,87.57
33893,2018-06-29 09:02:31.156250,34.41,87.57
33894,2018-06-29 09:02:31.187500,24.52,87.57
33895,2018-06-29 09:02:31.218750,14.35,87.57
33896,2018-06-29 09:02:31.250000,7.52,87.57
33897,2018-06-29 09:02:31.281250,4.01,87.57
33898,2018-06-29 09:02:31.312500,0.16,87.57
33899,2018-06-29 09:02:31.343750,-3.45,87.57
33900,2018-06-29 09:02:31.375000,-3.13,87.57
33901,2018-06-29 09:02:31.406250,-1.94,87.57
33902,2018-06-29 09:02:31.437500,-5.46,87.57
33903,2018-06-29 09:02:31.468750,-10.88,87.57
33904,2018-06-29 09:02:31.500000,-13.17,87.57
33905,2018-06-29 09:02:31.531250,-14.38,87.43
33906,2018-06-29 09:02:31.562500,-17.13,87.43
33907,2018-06-29 09:02:31.593750,-18.24,87.43
33908,2018-06-29 09:02:31.625000,-14.8,87.43
33909,2018-06-29 09:02:31.656250,-9.04,87.43
33910,2018-06-29 09:02:31.687500,-5.68,87.43
33911,2018-06-29 09:02:31.718750,-8.84,87.43
33912,2018-06-29 09:02:31.750000,-19.43,87.43
33913,2018-06-29 09:02:31.781250,-30.99,87.43
33914,2018-06-29 09:02:31.812500,-32.55,87.43
33915,2018-06-29 09:02:31.843750,-20.23,87.43
33916,2018-06-29 09:02:31.875000,-1.34,87.43
33917,2018-06-29 09:02:31.906250,15.02,87.43
33918,2018-06-29 09:02:31.937500,25.27,87.43
33919,2018-06-29 09:02:31.968750,29.74,87.43
33920,2018-06-29 09:02:32.000000,30.9,87.43
33921,2018-06-29 09:02:32.031250,32.06,87.43
33922,2018-06-29 09:02:32.062500,34.0,87.43
33923,2018-06-29 09:02:32.093750,34.87,87.43
33924,2018-06-29 09:02:32.125000,34.73,87.43
33925,2018-06-29 09:02:32.156250,36.43,87.43
33926,2018-06-29 09:02:32.187500,41.43,87.43
33927,2018-06-29 09:02:32.218750,47.29,87.43
33928,2018-06-29 09:02:32.250000,49.95,87.43
33929,2018-06-29 09:02:32.281250,50.17,87.43
33930,2018-06-29 09:02:32.312500,56.27,87.43
33931,2018-06-29 09:02:32.343750,72.49,87.43
33932,2018-06-29 09:02:32.375000,85.04,87.43
33933,2018-06-29 09:02:32.406250,73.16,87.43
33934,2018-06-29 09:02:32.437500,35.79,87.43
33935,2018-06-29 09:02:32.468750,-5.25,87.43
33936,2018-06-29 09:02:32.500000,-29.43,87.43
33937,2018-06-29 09:02:32.531250,-34.9,87.33
33938,2018-06-29 09:02:32.562500,-32.58,87.33
33939,2018-06-29 09:02:32.593750,-32.16,87.33
33940,2018-06-29 09:02:32.625000,-36.38,87.33
33941,2018-06-29 09:02:32.656250,-43.37,87.33
33942,2018-06-29 09:02:32.687500,-49.3,87.33
33943,2018-06-29 09:02:32.718750,-50.0,87.33
33944,2018-06-29 09:02:32.750000,-45.6,87.33
33945,2018-06-29 09:02:32.781250,-42.53,87.33
33946,2018-06-29 09:02:32.812500,-44.6,87.33
33947,2018-06-29 09:02:32.843750,-44.21,87.33
33948,2018-06-29 09:02:32.875000,-30.4,87.33
33949,2018-06-29 09:02:32.906250,-3.79,87.33
33950,2018-06-29 09:02:32.937500,22.9,87.33
33951,2018-06-29 09:02:32.968750,35.18,87.33
33952,2018-06-29 09:02:33.000000,25.62,87.33
33953,2018-06-29 09:02:33.031250,1.98,87.33
33954,2018-06-29 09:02:33.062500,-16.95,87.33
33955,2018-06-29 09:02:33.093750,-22.0,87.33
33956,2018-06-29 09:02:33.125000,-21.01,87.33
33957,2018-06-29 09:02:33.156250,-21.15,87.33
33958,2018-06-29 09:02:33.187500,-19.7,87.33
33959,2018-06-29 09:02:33.218750,-14.9,87.33
33960,2018-06-29 09:02:33.250000,-10.36,87.33
33961,2018-06-29 09:02:33.281250,-8.44,87.33
33962,2018-06-29 09:02:33.312500,-8.4,87.33
33963,2018-06-29 09:02:33.343750,-7.67,87.33
33964,2018-06-29 09:02:33.375000,-1.05,87.33
33965,2018-06-29 09:02:33.406250,16.27,87.33
33966,2018-06-29 09:02:33.437500,42.47,87.33
33967,2018-06-29 09:02:33.468750,69.51,87.33
33968,2018-06-29 09:02:33.500000,90.06,87.33
33969,2018-06-29 09:02:33.531250,102.03,87.28
33970,2018-06-29 09:02:33.562500,108.89,87.28
33971,2018-06-29 09:02:33.593750,115.1,87.28
33972,2018-06-29 09:02:33.625000,117.55,87.28
33973,2018-06-29 09:02:33.656250,103.56,87.28
33974,2018-06-29 09:02:33.687500,64.19,87.28
33975,2018-06-29 09:02:33.718750,8.7,87.28
33976,2018-06-29 09:02:33.750000,-41.17,87.28
33977,2018-06-29 09:02:33.781250,-71.52,87.28
33978,2018-06-29 09:02:33.812500,-85.88,87.28
33979,2018-06-29 09:02:33.843750,-94.32,87.28
33980,2018-06-29 09:02:33.875000,-97.96,87.28
33981,2018-06-29 09:02:33.906250,-89.33,87.28
33982,2018-06-29 09:02:33.937500,-66.79,87.28
33983,2018-06-29 09:02:33.968750,-40.21,87.28
33984,2018-06-29 09:02:34.000000,-19.1,87.28
33985,2018-06-29 09:02:34.031250,-2.99,87.28
33986,2018-06-29 09:02:34.062500,12.17,87.28
33987,2018-06-29 09:02:34.093750,24.29,87.28
33988,2018-06-29 09:02:34.125000,24.58,87.28
33989,2018-06-29 09:02:34.156250,6.37,87.28
33990,2018-06-29 09:02:34.187500,-22.97,87.28
33991,2018-06-29 09:02:34.218750,-43.66,87.28
33992,2018-06-29 09:02:34.250000,-43.84,87.28
33993,2018-06-29 09:02:34.281250,-31.25,87.28
33994,2018-06-29 09:02:34.312500,-19.67,87.28
33995,2018-06-29 09:02:34.343750,-15.09,87.28
33996,2018-06-29 09:02:34.375000,-17.39,87.28
33997,2018-06-29 09:02:34.406250,-21.47,87.28
33998,2018-06-29 09:02:34.437500,-17.11,87.28
33999,2018-06-29 09:02:34.468750,0.18,87.28
34000,2018-06-29 09:02:34.500000,21.98,87.28
34001,2018-06-29 09:02:34.531250,38.94,87.27
34002,2018-06-29 09:02:34.562500,52.06,87.27
34003,2018-06-29 09:02:34.593750,66.15,87.27
34004,2018-06-29 09:02:34.625000,81.59,87.27
34005,2018-06-29 09:02:34.656250,96.73,87.27
34006,2018-06-29 09:02:34.687500,111.18,87.27
34007,2018-06-29 09:02:34.718750,124.56,87.27
34008,2018-06-29 09:02:34.750000,134.21,87.27
34009,2018-06-29 09:02:34.781250,132.19,87.27
34010,2018-06-29 09:02:34.812500,107.35,87.27
34011,2018-06-29 09:02:34.843750,56.48,87.27
34012,2018-06-29 09:02:34.875000,-10.0,87.27
34013,2018-06-29 09:02:34.906250,-74.55,87.27
34014,2018-06-29 09:02:34.937500,-118.59,87.27
34015,2018-06-29 09:02:34.968750,-128.01,87.27
34016,2018-06-29 09:02:35.000000,-105.09,87.27
34017,2018-06-29 09:02:35.031250,-71.3,87.27
34018,2018-06-29 09:02:35.062500,-48.34,87.27
34019,2018-06-29 09:02:35.093750,-39.34,87.27
34020,2018-06-29 09:02:35.125000,-32.73,87.27
34021,2018-06-29 09:02:35.156250,-19.66,87.27
34022,2018-06-29 09:02:35.187500,-2.37,87.27
34023,2018-06-29 09:02:35.218750,12.49,87.27
34024,2018-06-29 09:02:35.250000,23.96,87.27
34025,2018-06-29 09:02:35.281250,37.29,87.27
34026,2018-06-29 09:02:35.312500,53.09,87.27
34027,2018-06-29 09:02:35.343750,57.59,87.27
34028,2018-06-29 09:02:35.375000,31.61,87.27
34029,2018-06-29 09:02:35.406250,-25.25,87.27
34030,2018-06-29 09:02:35.437500,-85.52,87.27
34031,2018-06-29 09:02:35.468750,-114.86,87.27
34032,2018-06-29 09:02:35.500000,-99.82,87.27
34033,2018-06-29 09:02:35.531250,-53.69,87.23
34034,2018-06-29 09:02:35.562500,-1.54,87.23
34035,2018-06-29 09:02:35.593750,38.08,87.23
34036,2018-06-29 09:02:35.625000,61.41,87.23
34037,2018-06-29 09:02:35.656250,74.92,87.23
34038,2018-06-29 09:02:35.687500,83.77,87.23
34039,2018-06-29 09:02:35.718750,85.76,87.23
34040,2018-06-29 09:02:35.750000,76.98,87.23
34041,2018-06-29 09:02:35.781250,61.2,87.23
34042,2018-06-29 09:02:35.812500,50.63,87.23
34043,2018-06-29 09:02:35.843750,56.78,87.23
34044,2018-06-29 09:02:35.875000,81.24,87.23
34045,2018-06-29 09:02:35.906250,114.34,87.23
34046,2018-06-29 09:02:35.937500,143.33,87.23
34047,2018-06-29 09:02:35.968750,164.64,87.23
34048,2018-06-29 09:02:36.000000,184.54,87.23
34049,2018-06-29 09:02:36.031250,201.55,87.23
34050,2018-06-29 09:02:36.062500,196.44,87.23
34051,2018-06-29 09:02:36.093750,149.97,87.23
34052,2018-06-29 09:02:36.125000,63.66,87.23
34053,2018-06-29 09:02:36.156250,-41.72,87.23
34054,2018-06-29 09:02:36.187500,-136.32,87.23
34055,2018-06-29 09:02:36.218750,-193.69,87.23
34056,2018-06-29 09:02:36.250000,-210.06,87.23
34057,2018-06-29 09:02:36.281250,-205.87,87.23
34058,2018-06-29 09:02:36.312500,-199.01,87.23
34059,2018-06-29 09:02:36.343750,-189.21,87.23
34060,2018-06-29 09:02:36.375000,-172.07,87.23
34061,2018-06-29 09:02:36.406250,-150.88,87.23
34062,2018-06-29 09:02:36.437500,-130.92,87.23
34063,2018-06-29 09:02:36.468750,-113.88,87.23
34064,2018-06-29 09:02:36.500000,-97.55,87.23
34065,2018-06-29 09:02:36.531250,-75.17,87.22
34066,2018-06-29 09:02:36.562500,-40.28,87.22
34067,2018-06-29 09:02:36.593750,4.36,87.22
34068,2018-06-29 09:02:36.625000,47.61,87.22
34069,2018-06-29 09:02:36.656250,81.1,87.22
34070,2018-06-29 09:02:36.687500,106.0,87.22
34071,2018-06-29 09:02:36.718750,128.81,87.22
34072,2018-06-29 09:02:36.750000,150.44,87.22
34073,2018-06-29 09:02:36.781250,158.69,87.22
34074,2018-06-29 09:02:36.812500,136.41,87.22
34075,2018-06-29 09:02:36.843750,78.86,87.22
34076,2018-06-29 09:02:36.875000,-0.96,87.22
34077,2018-06-29 09:02:36.906250,-80.45,87.22
34078,2018-06-29 09:02:36.937500,-136.24,87.22
34079,2018-06-29 09:02:36.968750,-156.79,87.22
34080,2018-06-29 09:02:37.000000,-152.49,87.22
34081,2018-06-29 09:02:37.031250,-139.78,87.22
34082,2018-06-29 09:02:37.062500,-117.8,87.22
34083,2018-06-29 09:02:37.093750,-78.23,87.22
34084,2018-06-29 09:02:37.125000,-28.9,87.22
34085,2018-06-29 09:02:37.156250,13.72,87.22
34086,2018-06-29 09:02:37.187500,46.34,87.22
34087,2018-06-29 09:02:37.218750,75.43,87.22
34088,2018-06-29 09:02:37.250000,101.6,87.22
34089,2018-06-29 09:02:37.281250,120.0,87.22
34090,2018-06-29 09:02:37.312500,130.34,87.22
34091,2018-06-29 09:02:37.343750,138.03,87.22
34092,2018-06-29 09:02:37.375000,148.83,87.22
34093,2018-06-29 09:02:37.406250,168.31,87.22
34094,2018-06-29 09:02:37.437500,199.59,87.22
34095,2018-06-29 09:02:37.468750,231.5,87.22
34096,2018-06-29 09:02:37.500000,237.68,87.22
34097,2018-06-29 09:02:37.531250,200.01,87.18
34098,2018-06-29 09:02:37.562500,124.37,87.18
34099,2018-06-29 09:02:37.593750,28.93,87.18
34100,2018-06-29 09:02:37.625000,-65.61,87.18
34101,2018-06-29 09:02:37.656250,-134.57,87.18
34102,2018-06-29 09:02:37.687500,-163.14,87.18
34103,2018-06-29 09:02:37.718750,-164.12,87.18
34104,2018-06-29 09:02:37.750000,-163.28,87.18
34105,2018-06-29 09:02:37.781250,-170.2,87.18
34106,2018-06-29 09:02:37.812500,-175.93,87.18
34107,2018-06-29 09:02:37.843750,-170.94,87.18
34108,2018-06-29 09:02:37.875000,-154.61,87.18
34109,2018-06-29 09:02:37.906250,-131.95,87.18
34110,2018-06-29 09:02:37.937500,-107.21,87.18
34111,2018-06-29 09:02:37.968750,-80.88,87.18
34112,2018-06-29 09:02:38.000000,-52.27,87.18
34113,2018-06-29 09:02:38.031250,-21.88,87.18
34114,2018-06-29 09:02:38.062500,7.3,87.18
34115,2018-06-29 09:02:38.093750,25.86,87.18
34116,2018-06-29 09:02:38.125000,27.47,87.18
34117,2018-06-29 09:02:38.156250,25.11,87.18
34118,2018-06-29 09:02:38.187500,31.48,87.18
34119,2018-06-29 09:02:38.218750,28.85,87.18
34120,2018-06-29 09:02:38.250000,-3.71,87.18
34121,2018-06-29 09:02:38.281250,-46.76,87.18
34122,2018-06-29 09:02:38.312500,-66.3,87.18
34123,2018-06-29 09:02:38.343750,-62.41,87.18
34124,2018-06-29 09:02:38.375000,-55.18,87.18
34125,2018-06-29 09:02:38.406250,-49.26,87.18
34126,2018-06-29 09:02:38.437500,-40.41,87.18
34127,2018-06-29 09:02:38.468750,-32.71,87.18
34128,2018-06-29 09:02:38.500000,-29.44,87.18
34129,2018-06-29 09:02:38.531250,-24.73,87.17
34130,2018-06-29 09:02:38.562500,-16.15,87.17
34131,2018-06-29 09:02:38.593750,-9.18,87.17
34132,2018-06-29 09:02:38.625000,-2.18,87.17
34133,2018-06-29 09:02:38.656250,16.58,87.17
34134,2018-06-29 09:02:38.687500,51.36,87.17
34135,2018-06-29 09:02:38.718750,91.2,87.17
34136,2018-06-29 09:02:38.750000,123.53,87.17
34137,2018-06-29 09:02:38.781250,148.29,87.17
34138,2018-06-29 09:02:38.812500,174.04,87.17
34139,2018-06-29 09:02:38.843750,199.74,87.17
34140,2018-06-29 09:02:38.875000,206.02,87.17
34141,2018-06-29 09:02:38.906250,171.86,87.17
34142,2018-06-29 09:02:38.937500,97.57,87.17
34143,2018-06-29 09:02:38.968750,6.32,87.17
34144,2018-06-29 09:02:39.000000,-71.77,87.17
34145,2018-06-29 09:02:39.031250,-116.61,87.17
34146,2018-06-29 09:02:39.062500,-129.54,87.17
34147,2018-06-29 09:02:39.093750,-129.88,87.17
34148,2018-06-29 09:02:39.125000,-134.22,87.17
34149,2018-06-29 09:02:39.156250,-139.96,87.17
34150,2018-06-29 09:02:39.187500,-133.79,87.17
34151,2018-06-29 09:02:39.218750,-111.33,87.17
34152,2018-06-29 09:02:39.250000,-80.59,87.17
34153,2018-06-29 09:02:39.281250,-50.84,87.17
34154,2018-06-29 09:02:39.312500,-26.75,87.17
34155,2018-06-29 09:02:39.343750,-9.74,87.17
34156,2018-06-29 09:02:39.375000,2.83,87.17
34157,2018-06-29 09:02:39.406250,16.64,87.17
34158,2018-06-29 09:02:39.437500,34.42,87.17
34159,2018-06-29 09:02:39.468750,55.3,87.17
34160,2018-06-29 09:02:39.500000,79.53,87.17
34161,2018-06-29 09:02:39.531250,105.42,87.17
34162,2018-06-29 09:02:39.562500,121.95,87.17
34163,2018-06-29 09:02:39.593750,112.89,87.17
34164,2018-06-29 09:02:39.625000,69.23,87.17
34165,2018-06-29 09:02:39.656250,-1.65,87.17
34166,2018-06-29 09:02:39.687500,-73.29,87.17
34167,2018-06-29 09:02:39.718750,-112.87,87.17
34168,2018-06-29 09:02:39.750000,-109.87,87.17
34169,2018-06-29 09:02:39.781250,-85.89,87.17
34170,2018-06-29 09:02:39.812500,-67.21,87.17
34171,2018-06-29 09:02:39.843750,-60.17,87.17
34172,2018-06-29 09:02:39.875000,-59.17,87.17
34173,2018-06-29 09:02:39.906250,-60.41,87.17
34174,2018-06-29 09:02:39.937500,-60.22,87.17
34175,2018-06-29 09:02:39.968750,-54.03,87.17
34176,2018-06-29 09:02:40.000000,-42.56,87.17
34177,2018-06-29 09:02:40.031250,-31.06,87.17
34178,2018-06-29 09:02:40.062500,-21.28,87.17
34179,2018-06-29 09:02:40.093750,-9.63,87.17
34180,2018-06-29 09:02:40.125000,6.57,87.17
34181,2018-06-29 09:02:40.156250,26.75,87.17
34182,2018-06-29 09:02:40.187500,52.69,87.17
34183,2018-06-29 09:02:40.218750,89.46,87.17
34184,2018-06-29 09:02:40.250000,135.88,87.17
34185,2018-06-29 09:02:40.281250,178.34,87.17
34186,2018-06-29 09:02:40.312500,196.95,87.17
34187,2018-06-29 09:02:40.343750,177.31,87.17
34188,2018-06-29 09:02:40.375000,120.32,87.17
34189,2018-06-29 09:02:40.406250,44.31,87.17
34190,2018-06-29 09:02:40.437500,-24.36,87.17
34191,2018-06-29 09:02:40.468750,-66.89,87.17
34192,2018-06-29 09:02:40.500000,-82.29,87.17
34193,2018-06-29 09:02:40.531250,-83.96,87.12
34194,2018-06-29 09:02:40.562500,-86.13,87.12
34195,2018-06-29 09:02:40.593750,-92.99,87.12
34196,2018-06-29 09:02:40.625000,-98.97,87.12
34197,2018-06-29 09:02:40.656250,-96.97,87.12
34198,2018-06-29 09:02:40.687500,-85.51,87.12
34199,2018-06-29 09:02:40.718750,-67.73,87.12
34200,2018-06-29 09:02:40.750000,-45.2,87.12
34201,2018-06-29 09:02:40.781250,-16.21,87.12
34202,2018-06-29 09:02:40.812500,21.35,87.12
34203,2018-06-29 09:02:40.843750,64.33,87.12
34204,2018-06-29 09:02:40.875000,94.41,87.12
34205,2018-06-29 09:02:40.906250,83.02,87.12
34206,2018-06-29 09:02:40.937500,25.19,87.12
34207,2018-06-29 09:02:40.968750,-42.73,87.12
34208,2018-06-29 09:02:41.000000,-81.3,87.12
34209,2018-06-29 09:02:41.031250,-88.6,87.12
34210,2018-06-29 09:02:41.062500,-84.13,87.12
34211,2018-06-29 09:02:41.093750,-76.42,87.12
34212,2018-06-29 09:02:41.125000,-67.19,87.12
34213,2018-06-29 09:02:41.156250,-63.78,87.12
34214,2018-06-29 09:02:41.187500,-68.09,87.12
34215,2018-06-29 09:02:41.218750,-68.32,87.12
34216,2018-06-29 09:02:41.250000,-53.68,87.12
34217,2018-06-29 09:02:41.281250,-27.77,87.12
34218,2018-06-29 09:02:41.312500,-1.29,87.12
34219,2018-06-29 09:02:41.343750,22.14,87.12
34220,2018-06-29 09:02:41.375000,45.36,87.12
34221,2018-06-29 09:02:41.406250,67.2,87.12
34222,2018-06-29 09:02:41.437500,82.8,87.12
34223,2018-06-29 09:02:41.468750,93.4,87.12
34224,2018-06-29 09:02:41.500000,105.9,87.12
34225,2018-06-29 09:02:41.531250,120.34,87.12
34226,2018-06-29 09:02:41.562500,123.06,87.12
34227,2018-06-29 09:02:41.593750,97.62,87.12
34228,2018-06-29 09:02:41.625000,43.19,87.12
34229,2018-06-29 09:02:41.656250,-20.28,87.12
34230,2018-06-29 09:02:41.687500,-67.71,87.12
34231,2018-06-29 09:02:41.718750,-88.69,87.12
34232,2018-06-29 09:02:41.750000,-89.22,87.12
34233,2018-06-29 09:02:41.781250,-79.12,87.12
34234,2018-06-29 09:02:41.812500,-64.88,87.12
34235,2018-06-29 09:02:41.843750,-51.83,87.12
34236,2018-06-29 09:02:41.875000,-42.84,87.12
34237,2018-06-29 09:02:41.906250,-35.27,87.12
34238,2018-06-29 09:02:41.937500,-26.04,87.12
34239,2018-06-29 09:02:41.968750,-17.41,87.12
34240,2018-06-29 09:02:42.000000,-12.86,87.12
34241,2018-06-29 09:02:42.031250,-11.62,87.12
34242,2018-06-29 09:02:42.062500,-10.64,87.12
34243,2018-06-29 09:02:42.093750,-9.11,87.12
34244,2018-06-29 09:02:42.125000,-8.91,87.12
34245,2018-06-29 09:02:42.156250,-12.05,87.12
34246,2018-06-29 09:02:42.187500,-19.39,87.12
34247,2018-06-29 09:02:42.218750,-29.61,87.12
34248,2018-06-29 09:02:42.250000,-36.65,87.12
34249,2018-06-29 09:02:42.281250,-32.12,87.12
34250,2018-06-29 09:02:42.312500,-14.89,87.12
34251,2018-06-29 09:02:42.343750,5.92,87.12
34252,2018-06-29 09:02:42.375000,21.41,87.12
34253,2018-06-29 09:02:42.406250,30.89,87.12
34254,2018-06-29 09:02:42.437500,37.16,87.12
34255,2018-06-29 09:02:42.468750,40.91,87.12
34256,2018-06-29 09:02:42.500000,42.95,87.12
34257,2018-06-29 09:02:42.531250,46.43,87.2
34258,2018-06-29 09:02:42.562500,53.13,87.2
34259,2018-06-29 09:02:42.593750,60.5,87.2
34260,2018-06-29 09:02:42.625000,65.27,87.2
34261,2018-06-29 09:02:42.656250,67.97,87.2
34262,2018-06-29 09:02:42.687500,71.74,87.2
34263,2018-06-29 09:02:42.718750,76.8,87.2
34264,2018-06-29 09:02:42.750000,76.79,87.2
34265,2018-06-29 09:02:42.781250,62.57,87.2
34266,2018-06-29 09:02:42.812500,31.23,87.2
34267,2018-06-29 09:02:42.843750,-8.02,87.2
34268,2018-06-29 09:02:42.875000,-38.1,87.2
34269,2018-06-29 09:02:42.906250,-46.93,87.2
34270,2018-06-29 09:02:42.937500,-37.69,87.2
34271,2018-06-29 09:02:42.968750,-24.42,87.2
34272,2018-06-29 09:02:43.000000,-18.34,87.2
34273,2018-06-29 09:02:43.031250,-21.36,87.2
34274,2018-06-29 09:02:43.062500,-28.83,87.2
34275,2018-06-29 09:02:43.093750,-33.08,87.2
34276,2018-06-29 09:02:43.125000,-28.79,87.2
34277,2018-06-29 09:02:43.156250,-19.26,87.2
34278,2018-06-29 09:02:43.187500,-12.87,87.2
34279,2018-06-29 09:02:43.218750,-12.49,87.2
34280,2018-06-29 09:02:43.250000,-12.99,87.2
34281,2018-06-29 09:02:43.281250,-8.59,87.2
34282,2018-06-29 09:02:43.312500,-0.64,87.2
34283,2018-06-29 09:02:43.343750,1.59,87.2
34284,2018-06-29 09:02:43.375000,-8.73,87.2
34285,2018-06-29 09:02:43.406250,-24.1,87.2
34286,2018-06-29 09:02:43.437500,-29.63,87.2
34287,2018-06-29 09:02:43.468750,-22.06,87.2
34288,2018-06-29 09:02:43.500000,-10.88,87.2
34289,2018-06-29 09:02:43.531250,-3.02,87.18
34290,2018-06-29 09:02:43.562500,1.14,87.18
34291,2018-06-29 09:02:43.593750,1.27,87.18
34292,2018-06-29 09:02:43.625000,-1.79,87.18
34293,2018-06-29 09:02:43.656250,-2.69,87.18
34294,2018-06-29 09:02:43.687500,2.39,87.18
34295,2018-06-29 09:02:43.718750,10.12,87.18
34296,2018-06-29 09:02:43.750000,15.41,87.18
34297,2018-06-29 09:02:43.781250,19.47,87.18
34298,2018-06-29 09:02:43.812500,29.76,87.18
34299,2018-06-29 09:02:43.843750,51.11,87.18
34300,2018-06-29 09:02:43.875000,78.69,87.18
34301,2018-06-29 09:02:43.906250,103.32,87.18
34302,2018-06-29 09:02:43.937500,122.57,87.18
34303,2018-06-29 09:02:43.968750,138.47,87.18
34304,2018-06-29 09:02:44.000000,143.49,87.18
34305,2018-06-29 09:02:44.031250,120.64,87.18
34306,2018-06-29 09:02:44.062500,63.53,87.18
34307,2018-06-29 09:02:44.093750,-10.31,87.18
34308,2018-06-29 09:02:44.125000,-71.54,87.18
34309,2018-06-29 09:02:44.156250,-102.7,87.18
34310,2018-06-29 09:02:44.187500,-107.54,87.18
34311,2018-06-29 09:02:44.218750,-100.72,87.18
34312,2018-06-29 09:02:44.250000,-93.68,87.18
34313,2018-06-29 09:02:44.281250,-90.33,87.18
34314,2018-06-29 09:02:44.312500,-88.27,87.18
34315,2018-06-29 09:02:44.343750,-80.08,87.18
34316,2018-06-29 09:02:44.375000,-60.18,87.18
34317,2018-06-29 09:02:44.406250,-32.51,87.18
34318,2018-06-29 09:02:44.437500,-6.28,87.18
34319,2018-06-29 09:02:44.468750,12.6,87.18
34320,2018-06-29 09:02:44.500000,20.82,87.18
34321,2018-06-29 09:02:44.531250,15.68,87.12
34322,2018-06-29 09:02:44.562500,0.27,87.12
34323,2018-06-29 09:02:44.593750,-15.15,87.12
34324,2018-06-29 09:02:44.625000,-21.48,87.12
34325,2018-06-29 09:02:44.656250,-18.14,87.12
34326,2018-06-29 09:02:44.687500,-10.72,87.12
34327,2018-06-29 09:02:44.718750,-3.95,87.12
34328,2018-06-29 09:02:44.750000,0.84,87.12
34329,2018-06-29 09:02:44.781250,3.03,87.12
34330,2018-06-29 09:02:44.812500,2.29,87.12
34331,2018-06-29 09:02:44.843750,1.6,87.12
34332,2018-06-29 09:02:44.875000,6.6,87.12
34333,2018-06-29 09:02:44.906250,20.78,87.12
34334,2018-06-29 09:02:44.937500,43.14,87.12
34335,2018-06-29 09:02:44.968750,69.2,87.12
34336,2018-06-29 09:02:45.000000,92.7,87.12
34337,2018-06-29 09:02:45.031250,109.25,87.12
34338,2018-06-29 09:02:45.062500,120.01,87.12
34339,2018-06-29 09:02:45.093750,130.23,87.12
34340,2018-06-29 09:02:45.125000,141.68,87.12
34341,2018-06-29 09:02:45.156250,145.29,87.12
34342,2018-06-29 09:02:45.187500,123.9,87.12
34343,2018-06-29 09:02:45.218750,68.34,87.12
34344,2018-06-29 09:02:45.250000,-8.28,87.12
34345,2018-06-29 09:02:45.281250,-77.21,87.12
34346,2018-06-29 09:02:45.312500,-115.74,87.12
34347,2018-06-29 09:02:45.343750,-120.55,87.12
34348,2018-06-29 09:02:45.375000,-103.7,87.12
34349,2018-06-29 09:02:45.406250,-80.28,87.12
34350,2018-06-29 09:02:45.437500,-58.01,87.12
34351,2018-06-29 09:02:45.468750,-35.44,87.12
34352,2018-06-29 09:02:45.500000,-11.21,87.12
34353,2018-06-29 09:02:45.531250,7.43,87.07
34354,2018-06-29 09:02:45.562500,12.47,87.07
34355,2018-06-29 09:02:45.593750,9.77,87.07
34356,2018-06-29 09:02:45.625000,13.95,87.07
34357,2018-06-29 09:02:45.656250,27.91,87.07
34358,2018-06-29 09:02:45.687500,40.64,87.07
34359,2018-06-29 09:02:45.718750,47.83,87.07
34360,2018-06-29 09:02:45.750000,60.76,87.07
34361,2018-06-29 09:02:45.781250,86.47,87.07
34362,2018-06-29 09:02:45.812500,106.35,87.07
34363,2018-06-29 09:02:45.843750,86.0,87.07
34364,2018-06-29 09:02:45.875000,12.62,87.07
34365,2018-06-29 09:02:45.906250,-80.98,87.07
34366,2018-06-29 09:02:45.937500,-142.12,87.07
34367,2018-06-29 09:02:45.968750,-150.16,87.07
34368,2018-06-29 09:02:46.000000,-127.39,87.07
34369,2018-06-29 09:02:46.031250,-101.39,87.07
34370,2018-06-29 09:02:46.062500,-80.66,87.07
34371,2018-06-29 09:02:46.093750,-65.17,87.07
34372,2018-06-29 09:02:46.125000,-54.05,87.07
34373,2018-06-29 09:02:46.156250,-41.18,87.07
34374,2018-06-29 09:02:46.187500,-21.29,87.07
34375,2018-06-29 09:02:46.218750,0.57,87.07
34376,2018-06-29 09:02:46.250000,15.77,87.07
34377,2018-06-29 09:02:46.281250,23.65,87.07
34378,2018-06-29 09:02:46.312500,29.98,87.07
34379,2018-06-29 09:02:46.343750,38.17,87.07
34380,2018-06-29 09:02:46.375000,47.69,87.07
34381,2018-06-29 09:02:46.406250,57.29,87.07
34382,2018-06-29 09:02:46.437500,62.22,87.07
34383,2018-06-29 09:02:46.468750,52.83,87.07
34384,2018-06-29 09:02:46.500000,25.64,87.07
34385,2018-06-29 09:02:46.531250,-7.6,87.02
34386,2018-06-29 09:02:46.562500,-29.65,87.02
34387,2018-06-29 09:02:46.593750,-34.17,87.02
34388,2018-06-29 09:02:46.625000,-28.03,87.02
34389,2018-06-29 09:02:46.656250,-21.77,87.02
34390,2018-06-29 09:02:46.687500,-21.38,87.02
34391,2018-06-29 09:02:46.718750,-26.28,87.02
34392,2018-06-29 09:02:46.750000,-31.17,87.02
34393,2018-06-29 09:02:46.781250,-29.57,87.02
34394,2018-06-29 09:02:46.812500,-19.34,87.02
34395,2018-06-29 09:02:46.843750,-6.52,87.02
34396,2018-06-29 09:02:46.875000,1.38,87.02
34397,2018-06-29 09:02:46.906250,7.74,87.02
34398,2018-06-29 09:02:46.937500,24.4,87.02
34399,2018-06-29 09:02:46.968750,54.39,87.02
34400,2018-06-29 09:02:47.000000,84.18,87.02
34401,2018-06-29 09:02:47.031250,94.76,87.02
34402,2018-06-29 09:02:47.062500,76.62,87.02
34403,2018-06-29 09:02:47.093750,36.59,87.02
34404,2018-06-29 09:02:47.125000,-7.42,87.02
34405,2018-06-29 09:02:47.156250,-40.04,87.02
34406,2018-06-29 09:02:47.187500,-55.45,87.02
34407,2018-06-29 09:02:47.218750,-53.26,87.02
34408,2018-06-29 09:02:47.250000,-37.03,87.02
34409,2018-06-29 09:02:47.281250,-16.23,87.02
34410,2018-06-29 09:02:47.312500,0.02,87.02
34411,2018-06-29 09:02:47.343750,10.52,87.02
34412,2018-06-29 09:02:47.375000,19.17,87.02
34413,2018-06-29 09:02:47.406250,29.45,87.02
34414,2018-06-29 09:02:47.437500,44.31,87.02
34415,2018-06-29 09:02:47.468750,65.01,87.02
34416,2018-06-29 09:02:47.500000,87.89,87.02
34417,2018-06-29 09:02:47.531250,107.08,86.98
34418,2018-06-29 09:02:47.562500,120.15,86.98
34419,2018-06-29 09:02:47.593750,128.06,86.98
34420,2018-06-29 09:02:47.625000,132.8,86.98
34421,2018-06-29 09:02:47.656250,139.42,86.98
34422,2018-06-29 09:02:47.687500,158.16,86.98
34423,2018-06-29 09:02:47.718750,196.32,86.98
34424,2018-06-29 09:02:47.750000,242.06,86.98
34425,2018-06-29 09:02:47.781250,266.09,86.98
34426,2018-06-29 09:02:47.812500,251.79,86.98
34427,2018-06-29 09:02:47.843750,212.32,86.98
34428,2018-06-29 09:02:47.875000,165.9,86.98
34429,2018-06-29 09:02:47.906250,110.47,86.98
34430,2018-06-29 09:02:47.937500,33.97,86.98
34431,2018-06-29 09:02:47.968750,-62.82,86.98
34432,2018-06-29 09:02:48.000000,-159.87,86.98
34433,2018-06-29 09:02:48.031250,-232.78,86.98
34434,2018-06-29 09:02:48.062500,-273.32,86.98
34435,2018-06-29 09:02:48.093750,-288.85,86.98
34436,2018-06-29 09:02:48.125000,-285.28,86.98
34437,2018-06-29 09:02:48.156250,-265.73,86.98
34438,2018-06-29 09:02:48.187500,-239.87,86.98
34439,2018-06-29 09:02:48.218750,-216.78,86.98
34440,2018-06-29 09:02:48.250000,-194.56,86.98
34441,2018-06-29 09:02:48.281250,-168.66,86.98
34442,2018-06-29 09:02:48.312500,-141.75,86.98
34443,2018-06-29 09:02:48.343750,-118.89,86.98
34444,2018-06-29 09:02:48.375000,-100.37,86.98
34445,2018-06-29 09:02:48.406250,-83.73,86.98
34446,2018-06-29 09:02:48.437500,-66.66,86.98
34447,2018-06-29 09:02:48.468750,-45.73,86.98
34448,2018-06-29 09:02:48.500000,-20.23,86.98
34449,2018-06-29 09:02:48.531250,0.98,86.93
34450,2018-06-29 09:02:48.562500,5.32,86.93
34451,2018-06-29 09:02:48.593750,-6.8,86.93
34452,2018-06-29 09:02:48.625000,-19.62,86.93
34453,2018-06-29 09:02:48.656250,-21.2,86.93
34454,2018-06-29 09:02:48.687500,-15.4,86.93
34455,2018-06-29 09:02:48.718750,-11.36,86.93
34456,2018-06-29 09:02:48.750000,-11.95,86.93
34457,2018-06-29 09:02:48.781250,-16.15,86.93
34458,2018-06-29 09:02:48.812500,-22.31,86.93
34459,2018-06-29 09:02:48.843750,-26.46,86.93
34460,2018-06-29 09:02:48.875000,-25.55,86.93
34461,2018-06-29 09:02:48.906250,-22.5,86.93
34462,2018-06-29 09:02:48.937500,-22.34,86.93
34463,2018-06-29 09:02:48.968750,-23.57,86.93
34464,2018-06-29 09:02:49.000000,-18.16,86.93
34465,2018-06-29 09:02:49.031250,-2.03,86.93
34466,2018-06-29 09:02:49.062500,19.36,86.93
34467,2018-06-29 09:02:49.093750,39.71,86.93
34468,2018-06-29 09:02:49.125000,59.34,86.93
34469,2018-06-29 09:02:49.156250,77.58,86.93
34470,2018-06-29 09:02:49.187500,85.54,86.93
34471,2018-06-29 09:02:49.218750,75.04,86.93
34472,2018-06-29 09:02:49.250000,49.78,86.93
34473,2018-06-29 09:02:49.281250,23.82,86.93
34474,2018-06-29 09:02:49.312500,11.24,86.93
34475,2018-06-29 09:02:49.343750,14.13,86.93
34476,2018-06-29 09:02:49.375000,20.91,86.93
34477,2018-06-29 09:02:49.406250,20.49,86.93
34478,2018-06-29 09:02:49.437500,13.89,86.93
34479,2018-06-29 09:02:49.468750,8.94,86.93
34480,2018-06-29 09:02:49.500000,12.39,86.93
34481,2018-06-29 09:02:49.531250,28.71,86.8
34482,2018-06-29 09:02:49.562500,56.94,86.8
34483,2018-06-29 09:02:49.593750,90.66,86.8
34484,2018-06-29 09:02:49.625000,128.08,86.8
34485,2018-06-29 09:02:49.656250,172.86,86.8
34486,2018-06-29 09:02:49.687500,215.73,86.8
34487,2018-06-29 09:02:49.718750,229.06,86.8
34488,2018-06-29 09:02:49.750000,192.28,86.8
34489,2018-06-29 09:02:49.781250,112.6,86.8
34490,2018-06-29 09:02:49.812500,16.75,86.8
34491,2018-06-29 09:02:49.843750,-66.01,86.8
34492,2018-06-29 09:02:49.875000,-117.65,86.8
34493,2018-06-29 09:02:49.906250,-141.93,86.8
34494,2018-06-29 09:02:49.937500,-156.89,86.8
34495,2018-06-29 09:02:49.968750,-172.85,86.8
34496,2018-06-29 09:02:50.000000,-184.16,86.8
34497,2018-06-29 09:02:50.031250,-179.96,86.8
34498,2018-06-29 09:02:50.062500,-156.53,86.8
34499,2018-06-29 09:02:50.093750,-121.92,86.8
34500,2018-06-29 09:02:50.125000,-89.2,86.8
34501,2018-06-29 09:02:50.156250,-63.87,86.8
34502,2018-06-29 09:02:50.187500,-42.12,86.8
34503,2018-06-29 09:02:50.218750,-20.08,86.8
34504,2018-06-29 09:02:50.250000,1.59,86.8
34505,2018-06-29 09:02:50.281250,20.84,86.8
34506,2018-06-29 09:02:50.312500,38.28,86.8
34507,2018-06-29 09:02:50.343750,58.51,86.8
34508,2018-06-29 09:02:50.375000,81.6,86.8
34509,2018-06-29 09:02:50.406250,90.72,86.8
34510,2018-06-29 09:02:50.437500,63.74,86.8
34511,2018-06-29 09:02:50.468750,5.36,86.8
34512,2018-06-29 09:02:50.500000,-50.08,86.8
34513,2018-06-29 09:02:50.531250,-76.48,86.67
34514,2018-06-29 09:02:50.562500,-78.98,86.67
34515,2018-06-29 09:02:50.593750,-74.8,86.67
34516,2018-06-29 09:02:50.625000,-71.01,86.67
34517,2018-06-29 09:02:50.656250,-67.11,86.67
34518,2018-06-29 09:02:50.687500,-63.74,86.67
34519,2018-06-29 09:02:50.718750,-60.27,86.67
34520,2018-06-29 09:02:50.750000,-51.87,86.67
34521,2018-06-29 09:02:50.781250,-35.04,86.67
34522,2018-06-29 09:02:50.812500,-12.14,86.67
34523,2018-06-29 09:02:50.843750,11.93,86.67
34524,2018-06-29 09:02:50.875000,30.24,86.67
34525,2018-06-29 09:02:50.906250,31.57,86.67
34526,2018-06-29 09:02:50.937500,11.87,86.67
34527,2018-06-29 09:02:50.968750,-14.76,86.67
34528,2018-06-29 09:02:51.000000,-32.48,86.67
34529,2018-06-29 09:02:51.031250,-40.92,86.67
34530,2018-06-29 09:02:51.062500,-42.86,86.67
34531,2018-06-29 09:02:51.093750,-34.25,86.67
34532,2018-06-29 09:02:51.125000,-17.56,86.67
34533,2018-06-29 09:02:51.156250,-4.28,86.67
34534,2018-06-29 09:02:51.187500,1.64,86.67
34535,2018-06-29 09:02:51.218750,5.74,86.67
34536,2018-06-29 09:02:51.250000,10.06,86.67
34537,2018-06-29 09:02:51.281250,11.58,86.67
34538,2018-06-29 09:02:51.312500,9.91,86.67
34539,2018-06-29 09:02:51.343750,7.99,86.67
34540,2018-06-29 09:02:51.375000,7.23,86.67
34541,2018-06-29 09:02:51.406250,7.34,86.67
34542,2018-06-29 09:02:51.437500,9.15,86.67
34543,2018-06-29 09:02:51.468750,13.14,86.67
34544,2018-06-29 09:02:51.500000,16.37,86.67
34545,2018-06-29 09:02:51.531250,14.79,86.6
34546,2018-06-29 09:02:51.562500,9.72,86.6
34547,2018-06-29 09:02:51.593750,7.79,86.6
34548,2018-06-29 09:02:51.625000,12.32,86.6
34549,2018-06-29 09:02:51.656250,18.85,86.6
34550,2018-06-29 09:02:51.687500,21.36,86.6
34551,2018-06-29 09:02:51.718750,18.67,86.6
34552,2018-06-29 09:02:51.750000,12.39,86.6
34553,2018-06-29 09:02:51.781250,3.6,86.6
34554,2018-06-29 09:02:51.812500,-5.64,86.6
34555,2018-06-29 09:02:51.843750,-12.05,86.6
34556,2018-06-29 09:02:51.875000,-14.46,86.6
34557,2018-06-29 09:02:51.906250,-14.93,86.6
34558,2018-06-29 09:02:51.937500,-15.73,86.6
34559,2018-06-29 09:02:51.968750,-16.83,86.6
34560,2018-06-29 09:02:52.000000,-17.53,86.6
34561,2018-06-29 09:02:52.031250,-19.07,86.6
34562,2018-06-29 09:02:52.062500,-22.34,86.6
34563,2018-06-29 09:02:52.093750,-23.9,86.6
34564,2018-06-29 09:02:52.125000,-19.68,86.6
34565,2018-06-29 09:02:52.156250,-10.84,86.6
34566,2018-06-29 09:02:52.187500,-0.43,86.6
34567,2018-06-29 09:02:52.218750,10.42,86.6
34568,2018-06-29 09:02:52.250000,18.93,86.6
34569,2018-06-29 09:02:52.281250,20.97,86.6
34570,2018-06-29 09:02:52.312500,17.37,86.6
34571,2018-06-29 09:02:52.343750,12.79,86.6
34572,2018-06-29 09:02:52.375000,9.45,86.6
34573,2018-06-29 09:02:52.406250,7.49,86.6
34574,2018-06-29 09:02:52.437500,7.77,86.6
34575,2018-06-29 09:02:52.468750,10.01,86.6
34576,2018-06-29 09:02:52.500000,12.05,86.6
34577,2018-06-29 09:02:52.531250,12.56,86.52
34578,2018-06-29 09:02:52.562500,12.31,86.52
34579,2018-06-29 09:02:52.593750,14.27,86.52
34580,2018-06-29 09:02:52.625000,23.41,86.52
34581,2018-06-29 09:02:52.656250,43.02,86.52
34582,2018-06-29 09:02:52.687500,70.19,86.52
34583,2018-06-29 09:02:52.718750,94.64,86.52
34584,2018-06-29 09:02:52.750000,101.75,86.52
34585,2018-06-29 09:02:52.781250,80.96,86.52
34586,2018-06-29 09:02:52.812500,38.89,86.52
34587,2018-06-29 09:02:52.843750,-0.09,86.52
34588,2018-06-29 09:02:52.875000,-16.8,86.52
34589,2018-06-29 09:02:52.906250,-17.14,86.52
34590,2018-06-29 09:02:52.937500,-19.17,86.52
34591,2018-06-29 09:02:52.968750,-28.41,86.52
34592,2018-06-29 09:02:53.000000,-37.37,86.52
34593,2018-06-29 09:02:53.031250,-41.07,86.52
34594,2018-06-29 09:02:53.062500,-41.52,86.52
34595,2018-06-29 09:02:53.093750,-42.17,86.52
34596,2018-06-29 09:02:53.125000,-44.18,86.52
34597,2018-06-29 09:02:53.156250,-44.17,86.52
34598,2018-06-29 09:02:53.187500,-35.94,86.52
34599,2018-06-29 09:02:53.218750,-19.24,86.52
34600,2018-06-29 09:02:53.250000,-4.27,86.52
34601,2018-06-29 09:02:53.281250,-1.55,86.52
34602,2018-06-29 09:02:53.312500,-9.44,86.52
34603,2018-06-29 09:02:53.343750,-17.06,86.52
34604,2018-06-29 09:02:53.375000,-16.98,86.52
34605,2018-06-29 09:02:53.406250,-10.02,86.52
34606,2018-06-29 09:02:53.437500,-1.21,86.52
34607,2018-06-29 09:02:53.468750,4.43,86.52
34608,2018-06-29 09:02:53.500000,4.91,86.52
34609,2018-06-29 09:02:53.531250,2.68,86.37
34610,2018-06-29 09:02:53.562500,1.68,86.37
34611,2018-06-29 09:02:53.593750,3.92,86.37
34612,2018-06-29 09:02:53.625000,12.01,86.37
34613,2018-06-29 09:02:53.656250,30.1,86.37
34614,2018-06-29 09:02:53.687500,57.22,86.37
34615,2018-06-29 09:02:53.718750,84.37,86.37
34616,2018-06-29 09:02:53.750000,102.74,86.37
34617,2018-06-29 09:02:53.781250,111.64,86.37
34618,2018-06-29 09:02:53.812500,117.69,86.37
34619,2018-06-29 09:02:53.843750,128.95,86.37
34620,2018-06-29 09:02:53.875000,143.71,86.37
34621,2018-06-29 09:02:53.906250,141.65,86.37
34622,2018-06-29 09:02:53.937500,99.69,86.37
34623,2018-06-29 09:02:53.968750,22.57,86.37
34624,2018-06-29 09:02:54.000000,-56.47,86.37
34625,2018-06-29 09:02:54.031250,-108.68,86.37
34626,2018-06-29 09:02:54.062500,-130.39,86.37
34627,2018-06-29 09:02:54.093750,-133.27,86.37
34628,2018-06-29 09:02:54.125000,-127.57,86.37
34629,2018-06-29 09:02:54.156250,-115.88,86.37
34630,2018-06-29 09:02:54.187500,-96.83,86.37
34631,2018-06-29 09:02:54.218750,-71.4,86.37
34632,2018-06-29 09:02:54.250000,-44.12,86.37
34633,2018-06-29 09:02:54.281250,-20.19,86.37
34634,2018-06-29 09:02:54.312500,-3.6,86.37
34635,2018-06-29 09:02:54.343750,5.11,86.37
34636,2018-06-29 09:02:54.375000,9.91,86.37
34637,2018-06-29 09:02:54.406250,14.66,86.37
34638,2018-06-29 09:02:54.437500,18.52,86.37
34639,2018-06-29 09:02:54.468750,17.19,86.37
34640,2018-06-29 09:02:54.500000,7.26,86.37
34641,2018-06-29 09:02:54.531250,-8.52,86.22
34642,2018-06-29 09:02:54.562500,-20.98,86.22
