,Time,ppg,hr
35200,2018-06-29 09:03:12.000000,178.35,85.15
35201,2018-06-29 09:03:12.031250,221.13,85.15
35202,2018-06-29 09:03:12.062500,256.3,85.15
35203,2018-06-29 09:03:12.093750,258.37,85.15
35204,2018-06-29 09:03:12.125000,215.97,85.15
35205,2018-06-29 09:03:12.156250,142.48,85.15
35206,2018-06-29 09:03:12.187500,52.71,85.15
35207,2018-06-29 09:03:12.218750,-44.13,85.15
35208,2018-06-29 09:03:12.250000,-129.67,85.15
35209,2018-06-29 09:03:12.281250,-186.74,85.15
35210,2018-06-29 09:03:12.312500,-217.84,85.15
35211,2018-06-29 09:03:12.343750,-226.0,85.15
35212,2018-06-29 09:03:12.375000,-200.7,85.15
35213,2018-06-29 09:03:12.406250,-152.97,85.15
35214,2018-06-29 09:03:12.437500,-124.65,85.15
35215,2018-06-29 09:03:12.468750,-133.32,85.15
35216,2018-06-29 09:03:12.500000,-151.1,85.15
35217,2018-06-29 09:03:12.531250,-151.68,85.03
35218,2018-06-29 09:03:12.562500,-134.79,85.03
35219,2018-06-29 09:03:12.593750,-106.03,85.03
35220,2018-06-29 09:03:12.625000,-72.29,85.03
35221,2018-06-29 09:03:12.656250,-47.81,85.03
35222,2018-06-29 09:03:12.687500,-36.41,85.03
35223,2018-06-29 09:03:12.718750,-18.74,85.03
35224,2018-06-29 09:03:12.750000,23.91,85.03
35225,2018-06-29 09:03:12.781250,78.33,85.03
35226,2018-06-29 09:03:12.812500,108.11,85.03
35227,2018-06-29 09:03:12.843750,95.71,85.03
35228,2018-06-29 09:03:12.875000,60.51,85.03
35229,2018-06-29 09:03:12.906250,28.99,85.03
35230,2018-06-29 09:03:12.937500,3.4,85.03
35231,2018-06-29 09:03:12.968750,-27.43,85.03
35232,2018-06-29 09:03:13.000000,-60.48,85.03
35233,2018-06-29 09:03:13.031250,-80.14,85.03
35234,2018-06-29 09:03:13.062500,-80.46,85.03
35235,2018-06-29 09:03:13.093750,-70.38,85.03
35236,2018-06-29 09:03:13.125000,-59.29,85.03
35237,2018-06-29 09:03:13.156250,-50.12,85.03
35238,2018-06-29 09:03:13.187500,-44.11,85.03
35239,2018-06-29 09:03:13.218750,-41.47,85.03
35240,2018-06-29 09:03:13.250000,-35.61,85.03
35241,2018-06-29 09:03:13.281250,-15.64,85.03
35242,2018-06-29 09:03:13.312500,18.22,85.03
35243,2018-06-29 09:03:13.343750,54.14,85.03
35244,2018-06-29 09:03:13.375000,92.3,85.03
35245,2018-06-29 09:03:13.406250,142.04,85.03
35246,2018-06-29 09:03:13.437500,186.2,85.03
35247,2018-06-29 09:03:13.468750,187.33,85.03
35248,2018-06-29 09:03:13.500000,134.48,85.03
35249,2018-06-29 09:03:13.531250,45.49,84.9
35250,2018-06-29 09:03:13.562500,-55.54,84.9
35251,2018-06-29 09:03:13.593750,-131.36,84.9
35252,2018-06-29 09:03:13.625000,-149.46,84.9
35253,2018-06-29 09:03:13.656250,-124.78,84.9
35254,2018-06-29 09:03:13.687500,-96.96,84.9
35255,2018-06-29 09:03:13.718750,-76.2,84.9
35256,2018-06-29 09:03:13.750000,-54.24,84.9
35257,2018-06-29 09:03:13.781250,-36.6,84.9
35258,2018-06-29 09:03:13.812500,-31.71,84.9
35259,2018-06-29 09:03:13.843750,-36.28,84.9
35260,2018-06-29 09:03:13.875000,-42.9,84.9
35261,2018-06-29 09:03:13.906250,-44.61,84.9
35262,2018-06-29 09:03:13.937500,-37.44,84.9
35263,2018-06-29 09:03:13.968750,-25.53,84.9
35264,2018-06-29 09:03:14.000000,-16.64,84.9
35265,2018-06-29 09:03:14.031250,-11.35,84.9
35266,2018-06-29 09:03:14.062500,0.06,84.9
35267,2018-06-29 09:03:14.093750,29.5,84.9
35268,2018-06-29 09:03:14.125000,75.47,84.9
35269,2018-06-29 09:03:14.156250,115.8,84.9
35270,2018-06-29 09:03:14.187500,126.34,84.9
35271,2018-06-29 09:03:14.218750,108.74,84.9
35272,2018-06-29 09:03:14.250000,84.27,84.9
35273,2018-06-29 09:03:14.281250,63.12,84.9
35274,2018-06-29 09:03:14.312500,42.63,84.9
35275,2018-06-29 09:03:14.343750,24.49,84.9
35276,2018-06-29 09:03:14.375000,8.52,84.9
35277,2018-06-29 09:03:14.406250,-16.13,84.9
35278,2018-06-29 09:03:14.437500,-53.91,84.9
35279,2018-06-29 09:03:14.468750,-93.24,84.9
35280,2018-06-29 09:03:14.500000,-121.53,84.9
35281,2018-06-29 09:03:14.531250,-132.92,84.75
35282,2018-06-29 09:03:14.562500,-126.35,84.75
35283,2018-06-29 09:03:14.593750,-110.72,84.75
35284,2018-06-29 09:03:14.625000,-100.94,84.75
35285,2018-06-29 09:03:14.656250,-98.57,84.75
35286,2018-06-29 09:03:14.687500,-87.98,84.75
35287,2018-06-29 09:03:14.718750,-55.41,84.75
35288,2018-06-29 09:03:14.750000,-5.6,84.75
35289,2018-06-29 09:03:14.781250,37.29,84.75
35290,2018-06-29 09:03:14.812500,48.31,84.75
35291,2018-06-29 09:03:14.843750,30.04,84.75
35292,2018-06-29 09:03:14.875000,10.23,84.75
35293,2018-06-29 09:03:14.906250,5.69,84.75
35294,2018-06-29 09:03:14.937500,8.49,84.75
35295,2018-06-29 09:03:14.968750,7.57,84.75
35296,2018-06-29 09:03:15.000000,0.92,84.75
35297,2018-06-29 09:03:15.031250,-11.5,84.75
35298,2018-06-29 09:03:15.062500,-29.21,84.75
35299,2018-06-29 09:03:15.093750,-47.67,84.75
35300,2018-06-29 09:03:15.125000,-61.42,84.75
35301,2018-06-29 09:03:15.156250,-69.32,84.75
35302,2018-06-29 09:03:15.187500,-71.7,84.75
35303,2018-06-29 09:03:15.218750,-63.73,84.75
35304,2018-06-29 09:03:15.250000,-40.37,84.75
35305,2018-06-29 09:03:15.281250,-6.35,84.75
35306,2018-06-29 09:03:15.312500,30.37,84.75
35307,2018-06-29 09:03:15.343750,67.82,84.75
35308,2018-06-29 09:03:15.375000,98.57,84.75
35309,2018-06-29 09:03:15.406250,105.82,84.75
35310,2018-06-29 09:03:15.437500,88.63,84.75
35311,2018-06-29 09:03:15.468750,67.91,84.75
35312,2018-06-29 09:03:15.500000,53.59,84.75
35313,2018-06-29 09:03:15.531250,35.08,84.62
35314,2018-06-29 09:03:15.562500,11.73,84.62
35315,2018-06-29 09:03:15.593750,-2.01,84.62
35316,2018-06-29 09:03:15.625000,-4.65,84.62
35317,2018-06-29 09:03:15.656250,-9.47,84.62
35318,2018-06-29 09:03:15.687500,-20.08,84.62
35319,2018-06-29 09:03:15.718750,-28.19,84.62
35320,2018-06-29 09:03:15.750000,-30.0,84.62
35321,2018-06-29 09:03:15.781250,-28.33,84.62
35322,2018-06-29 09:03:15.812500,-23.94,84.62
35323,2018-06-29 09:03:15.843750,-15.14,84.62
35324,2018-06-29 09:03:15.875000,-2.09,84.62
35325,2018-06-29 09:03:15.906250,15.1,84.62
35326,2018-06-29 09:03:15.937500,35.78,84.62
35327,2018-06-29 09:03:15.968750,50.22,84.62
35328,2018-06-29 09:03:16.000000,45.8,84.62
35329,2018-06-29 09:03:16.031250,27.71,84.62
35330,2018-06-29 09:03:16.062500,13.46,84.62
35331,2018-06-29 09:03:16.093750,5.98,84.62
35332,2018-06-29 09:03:16.125000,-4.95,84.62
35333,2018-06-29 09:03:16.156250,-20.44,84.62
35334,2018-06-29 09:03:16.187500,-33.84,84.62
35335,2018-06-29 09:03:16.218750,-44.04,84.62
35336,2018-06-29 09:03:16.250000,-50.83,84.62
35337,2018-06-29 09:03:16.281250,-48.42,84.62
35338,2018-06-29 09:03:16.312500,-33.75,84.62
35339,2018-06-29 09:03:16.343750,-12.63,84.62
35340,2018-06-29 09:03:16.375000,8.25,84.62
35341,2018-06-29 09:03:16.406250,28.05,84.62
35342,2018-06-29 09:03:16.437500,45.06,84.62
35343,2018-06-29 09:03:16.468750,52.13,84.62
35344,2018-06-29 09:03:16.500000,48.1,84.62
35345,2018-06-29 09:03:16.531250,47.15,84.47
35346,2018-06-29 09:03:16.562500,66.42,84.47
35347,2018-06-29 09:03:16.593750,105.26,84.47
35348,2018-06-29 09:03:16.625000,139.81,84.47
35349,2018-06-29 09:03:16.656250,140.53,84.47
35350,2018-06-29 09:03:16.687500,100.06,84.47
35351,2018-06-29 09:03:16.718750,42.76,84.47
35352,2018-06-29 09:03:16.750000,-1.95,84.47
35353,2018-06-29 09:03:16.781250,-30.7,84.47
35354,2018-06-29 09:03:16.812500,-57.6,84.47
35355,2018-06-29 09:03:16.843750,-84.21,84.47
35356,2018-06-29 09:03:16.875000,-99.41,84.47
35357,2018-06-29 09:03:16.906250,-100.74,84.47
35358,2018-06-29 09:03:16.937500,-94.72,84.47
35359,2018-06-29 09:03:16.968750,-84.18,84.47
35360,2018-06-29 09:03:17.000000,-70.94,84.47
35361,2018-06-29 09:03:17.031250,-61.5,84.47
35362,2018-06-29 09:03:17.062500,-58.22,84.47
35363,2018-06-29 09:03:17.093750,-54.76,84.47
35364,2018-06-29 09:03:17.125000,-46.75,84.47
35365,2018-06-29 09:03:17.156250,-36.99,84.47
35366,2018-06-29 09:03:17.187500,-27.06,84.47
35367,2018-06-29 09:03:17.218750,-14.72,84.47
35368,2018-06-29 09:03:17.250000,-2.2,84.47
35369,2018-06-29 09:03:17.281250,3.62,84.47
35370,2018-06-29 09:03:17.312500,2.19,84.47
35371,2018-06-29 09:03:17.343750,2.02,84.47
35372,2018-06-29 09:03:17.375000,9.81,84.47
35373,2018-06-29 09:03:17.406250,22.08,84.47
35374,2018-06-29 09:03:17.437500,31.46,84.47
35375,2018-06-29 09:03:17.468750,38.15,84.47
35376,2018-06-29 09:03:17.500000,49.61,84.47
35377,2018-06-29 09:03:17.531250,69.86,84.62
35378,2018-06-29 09:03:17.562500,92.73,84.62
35379,2018-06-29 09:03:17.593750,107.85,84.62
35380,2018-06-29 09:03:17.625000,117.33,84.62
35381,2018-06-29 09:03:17.656250,140.09,84.62
35382,2018-06-29 09:03:17.687500,183.87,84.62
35383,2018-06-29 09:03:17.718750,220.36,84.62
35384,2018-06-29 09:03:17.750000,210.42,84.62
35385,2018-06-29 09:03:17.781250,148.12,84.62
35386,2018-06-29 09:03:17.812500,64.49,84.62
35387,2018-06-29 09:03:17.843750,-5.08,84.62
35388,2018-06-29 09:03:17.875000,-49.56,84.62
35389,2018-06-29 09:03:17.906250,-83.13,84.62
35390,2018-06-29 09:03:17.937500,-116.82,84.62
35391,2018-06-29 09:03:17.968750,-138.16,84.62
35392,2018-06-29 09:03:18.000000,-132.78,84.62
35393,2018-06-29 09:03:18.031250,-108.51,84.62
35394,2018-06-29 09:03:18.062500,-81.45,84.62
35395,2018-06-29 09:03:18.093750,-59.51,84.62
35396,2018-06-29 09:03:18.125000,-50.14,84.62
35397,2018-06-29 09:03:18.156250,-57.75,84.62
35398,2018-06-29 09:03:18.187500,-67.64,84.62
35399,2018-06-29 09:03:18.218750,-59.76,84.62
35400,2018-06-29 09:03:18.250000,-40.37,84.62
35401,2018-06-29 09:03:18.281250,-33.38,84.62
35402,2018-06-29 09:03:18.312500,-41.66,84.62
35403,2018-06-29 09:03:18.343750,-43.17,84.62
35404,2018-06-29 09:03:18.375000,-25.78,84.62
35405,2018-06-29 09:03:18.406250,-4.02,84.62
35406,2018-06-29 09:03:18.437500,1.21,84.62
35407,2018-06-29 09:03:18.468750,-14.75,84.62
35408,2018-06-29 09:03:18.500000,-37.6,84.62
35409,2018-06-29 09:03:18.531250,-45.8,84.7
35410,2018-06-29 09:03:18.562500,-29.16,84.7
35411,2018-06-29 09:03:18.593750,1.31,84.7
35412,2018-06-29 09:03:18.625000,25.04,84.7
35413,2018-06-29 09:03:18.656250,31.59,84.7
35414,2018-06-29 09:03:18.687500,25.77,84.7
35415,2018-06-29 09:03:18.718750,16.32,84.7
35416,2018-06-29 09:03:18.750000,5.89,84.7
35417,2018-06-29 09:03:18.781250,-7.5,84.7
35418,2018-06-29 09:03:18.812500,-22.91,84.7
35419,2018-06-29 09:03:18.843750,-33.27,84.7
35420,2018-06-29 09:03:18.875000,-32.47,84.7
35421,2018-06-29 09:03:18.906250,-25.02,84.7
35422,2018-06-29 09:03:18.937500,-21.45,84.7
35423,2018-06-29 09:03:18.968750,-25.02,84.7
35424,2018-06-29 09:03:19.000000,-31.51,84.7
35425,2018-06-29 09:03:19.031250,-36.09,84.7
35426,2018-06-29 09:03:19.062500,-29.88,84.7
35427,2018-06-29 09:03:19.093750,-4.23,84.7
35428,2018-06-29 09:03:19.125000,28.87,84.7
35429,2018-06-29 09:03:19.156250,44.67,84.7
35430,2018-06-29 09:03:19.187500,39.96,84.7
35431,2018-06-29 09:03:19.218750,32.67,84.7
35432,2018-06-29 09:03:19.250000,31.05,84.7
35433,2018-06-29 09:03:19.281250,29.82,84.7
35434,2018-06-29 09:03:19.312500,27.36,84.7
35435,2018-06-29 09:03:19.343750,25.03,84.7
35436,2018-06-29 09:03:19.375000,18.85,84.7
35437,2018-06-29 09:03:19.406250,4.48,84.7
35438,2018-06-29 09:03:19.437500,-15.49,84.7
35439,2018-06-29 09:03:19.468750,-31.94,84.7
35440,2018-06-29 09:03:19.500000,-35.5,84.7
35441,2018-06-29 09:03:19.531250,-27.43,84.82
35442,2018-06-29 09:03:19.562500,-22.09,84.82
35443,2018-06-29 09:03:19.593750,-27.89,84.82
35444,2018-06-29 09:03:19.625000,-31.38,84.82
35445,2018-06-29 09:03:19.656250,-15.38,84.82
35446,2018-06-29 09:03:19.687500,16.72,84.82
35447,2018-06-29 09:03:19.718750,48.88,84.82
35448,2018-06-29 09:03:19.750000,68.17,84.82
35449,2018-06-29 09:03:19.781250,67.23,84.82
35450,2018-06-29 09:03:19.812500,52.11,84.82
35451,2018-06-29 09:03:19.843750,39.91,84.82
35452,2018-06-29 09:03:19.875000,33.53,84.82
35453,2018-06-29 09:03:19.906250,21.12,84.82
35454,2018-06-29 09:03:19.937500,4.56,84.82
35455,2018-06-29 09:03:19.968750,-3.88,84.82
35456,2018-06-29 09:03:20.000000,-8.02,84.82
35457,2018-06-29 09:03:20.031250,-20.55,84.82
35458,2018-06-29 09:03:20.062500,-40.68,84.82
35459,2018-06-29 09:03:20.093750,-59.23,84.82
35460,2018-06-29 09:03:20.125000,-71.29,84.82
35461,2018-06-29 09:03:20.156250,-74.09,84.82
35462,2018-06-29 09:03:20.187500,-64.88,84.82
35463,2018-06-29 09:03:20.218750,-44.96,84.82
35464,2018-06-29 09:03:20.250000,-19.91,84.82
35465,2018-06-29 09:03:20.281250,4.21,84.82
35466,2018-06-29 09:03:20.312500,24.0,84.82
35467,2018-06-29 09:03:20.343750,38.64,84.82
35468,2018-06-29 09:03:20.375000,46.01,84.82
35469,2018-06-29 09:03:20.406250,43.46,84.82
35470,2018-06-29 09:03:20.437500,34.83,84.82
35471,2018-06-29 09:03:20.468750,27.44,84.82
35472,2018-06-29 09:03:20.500000,23.09,84.82
35473,2018-06-29 09:03:20.531250,21.14,84.95
35474,2018-06-29 09:03:20.562500,22.02,84.95
35475,2018-06-29 09:03:20.593750,21.21,84.95
35476,2018-06-29 09:03:20.625000,12.25,84.95
35477,2018-06-29 09:03:20.656250,-2.52,84.95
35478,2018-06-29 09:03:20.687500,-14.93,84.95
35479,2018-06-29 09:03:20.718750,-19.71,84.95
35480,2018-06-29 09:03:20.750000,-14.06,84.95
35481,2018-06-29 09:03:20.781250,3.52,84.95
35482,2018-06-29 09:03:20.812500,31.71,84.95
35483,2018-06-29 09:03:20.843750,64.01,84.95
35484,2018-06-29 09:03:20.875000,84.49,84.95
35485,2018-06-29 09:03:20.906250,74.66,84.95
35486,2018-06-29 09:03:20.937500,35.83,84.95
35487,2018-06-29 09:03:20.968750,-5.69,84.95
35488,2018-06-29 09:03:21.000000,-28.0,84.95
35489,2018-06-29 09:03:21.031250,-35.87,84.95
35490,2018-06-29 09:03:21.062500,-41.67,84.95
35491,2018-06-29 09:03:21.093750,-43.35,84.95
35492,2018-06-29 09:03:21.125000,-35.05,84.95
35493,2018-06-29 09:03:21.156250,-20.11,84.95
35494,2018-06-29 09:03:21.187500,-5.27,84.95
35495,2018-06-29 09:03:21.218750,2.03,84.95
35496,2018-06-29 09:03:21.250000,-2.88,84.95
35497,2018-06-29 09:03:21.281250,-9.92,84.95
35498,2018-06-29 09:03:21.312500,-3.28,84.95
35499,2018-06-29 09:03:21.343750,14.25,84.95
35500,2018-06-29 09:03:21.375000,27.68,84.95
35501,2018-06-29 09:03:21.406250,33.31,84.95
35502,2018-06-29 09:03:21.437500,35.39,84.95
35503,2018-06-29 09:03:21.468750,33.51,84.95
35504,2018-06-29 09:03:21.500000,28.31,84.95
35505,2018-06-29 09:03:21.531250,26.21,85.12
35506,2018-06-29 09:03:21.562500,29.42,85.12
35507,2018-06-29 09:03:21.593750,30.06,85.12
35508,2018-06-29 09:03:21.625000,21.54,85.12
35509,2018-06-29 09:03:21.656250,10.21,85.12
35510,2018-06-29 09:03:21.687500,7.93,85.12
35511,2018-06-29 09:03:21.718750,16.2,85.12
35512,2018-06-29 09:03:21.750000,25.12,85.12
35513,2018-06-29 09:03:21.781250,27.06,85.12
35514,2018-06-29 09:03:21.812500,28.85,85.12
35515,2018-06-29 09:03:21.843750,50.67,85.12
35516,2018-06-29 09:03:21.875000,103.7,85.12
35517,2018-06-29 09:03:21.906250,165.13,85.12
35518,2018-06-29 09:03:21.937500,190.1,85.12
35519,2018-06-29 09:03:21.968750,155.96,85.12
35520,2018-06-29 09:03:22.000000,85.34,85.12
35521,2018-06-29 09:03:22.031250,19.79,85.12
35522,2018-06-29 09:03:22.062500,-20.0,85.12
35523,2018-06-29 09:03:22.093750,-41.61,85.12
35524,2018-06-29 09:03:22.125000,-59.11,85.12
35525,2018-06-29 09:03:22.156250,-77.48,85.12
35526,2018-06-29 09:03:22.187500,-94.54,85.12
35527,2018-06-29 09:03:22.218750,-105.07,85.12
35528,2018-06-29 09:03:22.250000,-105.12,85.12
35529,2018-06-29 09:03:22.281250,-98.6,85.12
35530,2018-06-29 09:03:22.312500,-94.38,85.12
35531,2018-06-29 09:03:22.343750,-95.08,85.12
35532,2018-06-29 09:03:22.375000,-93.97,85.12
35533,2018-06-29 09:03:22.406250,-82.75,85.12
35534,2018-06-29 09:03:22.437500,-59.34,85.12
35535,2018-06-29 09:03:22.468750,-28.15,85.12
35536,2018-06-29 09:03:22.500000,5.58,85.12
35537,2018-06-29 09:03:22.531250,39.16,85.28
35538,2018-06-29 09:03:22.562500,65.74,85.28
35539,2018-06-29 09:03:22.593750,69.56,85.28
35540,2018-06-29 09:03:22.625000,44.69,85.28
35541,2018-06-29 09:03:22.656250,13.12,85.28
35542,2018-06-29 09:03:22.687500,0.62,85.28
35543,2018-06-29 09:03:22.718750,4.1,85.28
35544,2018-06-29 09:03:22.750000,5.94,85.28
35545,2018-06-29 09:03:22.781250,3.25,85.28
35546,2018-06-29 09:03:22.812500,0.77,85.28
35547,2018-06-29 09:03:22.843750,-4.79,85.28
35548,2018-06-29 09:03:22.875000,-15.93,85.28
35549,2018-06-29 09:03:22.906250,-25.68,85.28
35550,2018-06-29 09:03:22.937500,-25.23,85.28
35551,2018-06-29 09:03:22.968750,-12.75,85.28
35552,2018-06-29 09:03:23.000000,6.56,85.28
35553,2018-06-29 09:03:23.031250,26.85,85.28
35554,2018-06-29 09:03:23.062500,46.58,85.28
35555,2018-06-29 09:03:23.093750,65.85,85.28
35556,2018-06-29 09:03:23.125000,83.45,85.28
35557,2018-06-29 09:03:23.156250,99.02,85.28
35558,2018-06-29 09:03:23.187500,114.02,85.28
35559,2018-06-29 09:03:23.218750,131.11,85.28
35560,2018-06-29 09:03:23.250000,151.14,85.28
35561,2018-06-29 09:03:23.281250,165.61,85.28
35562,2018-06-29 09:03:23.312500,158.4,85.28
35563,2018-06-29 09:03:23.343750,121.14,85.28
35564,2018-06-29 09:03:23.375000,59.95,85.28
35565,2018-06-29 09:03:23.406250,-11.66,85.28
35566,2018-06-29 09:03:23.437500,-76.96,85.28
35567,2018-06-29 09:03:23.468750,-120.85,85.28
35568,2018-06-29 09:03:23.500000,-141.56,85.28
35569,2018-06-29 09:03:23.531250,-148.9,85.48
35570,2018-06-29 09:03:23.562500,-146.45,85.48
35571,2018-06-29 09:03:23.593750,-128.25,85.48
35572,2018-06-29 09:03:23.625000,-95.57,85.48
35573,2018-06-29 09:03:23.656250,-63.31,85.48
35574,2018-06-29 09:03:23.687500,-46.14,85.48
35575,2018-06-29 09:03:23.718750,-45.38,85.48
35576,2018-06-29 09:03:23.750000,-50.0,85.48
35577,2018-06-29 09:03:23.781250,-47.35,85.48
35578,2018-06-29 09:03:23.812500,-34.75,85.48
35579,2018-06-29 09:03:23.843750,-21.8,85.48
35580,2018-06-29 09:03:23.875000,-19.16,85.48
35581,2018-06-29 09:03:23.906250,-26.08,85.48
35582,2018-06-29 09:03:23.937500,-33.68,85.48
35583,2018-06-29 09:03:23.968750,-38.03,85.48
35584,2018-06-29 09:03:24.000000,-41.58,85.48
35585,2018-06-29 09:03:24.031250,-43.39,85.48
35586,2018-06-29 09:03:24.062500,-38.35,85.48
35587,2018-06-29 09:03:24.093750,-24.1,85.48
35588,2018-06-29 09:03:24.125000,-1.07,85.48
35589,2018-06-29 09:03:24.156250,24.98,85.48
35590,2018-06-29 09:03:24.187500,38.8,85.48
35591,2018-06-29 09:03:24.218750,32.68,85.48
35592,2018-06-29 09:03:24.250000,20.84,85.48
35593,2018-06-29 09:03:24.281250,17.61,85.48
35594,2018-06-29 09:03:24.312500,17.08,85.48
35595,2018-06-29 09:03:24.343750,10.0,85.48
35596,2018-06-29 09:03:24.375000,-1.56,85.48
35597,2018-06-29 09:03:24.406250,-13.26,85.48
35598,2018-06-29 09:03:24.437500,-21.55,85.48
35599,2018-06-29 09:03:24.468750,-21.65,85.48
35600,2018-06-29 09:03:24.500000,-14.82,85.48
35601,2018-06-29 09:03:24.531250,-8.57,85.67
35602,2018-06-29 09:03:24.562500,-8.14,85.67
35603,2018-06-29 09:03:24.593750,-13.31,85.67
35604,2018-06-29 09:03:24.625000,-18.83,85.67
35605,2018-06-29 09:03:24.656250,-17.44,85.67
35606,2018-06-29 09:03:24.687500,-8.96,85.67
35607,2018-06-29 09:03:24.718750,-1.79,85.67
35608,2018-06-29 09:03:24.750000,-0.62,85.67
35609,2018-06-29 09:03:24.781250,-0.39,85.67
35610,2018-06-29 09:03:24.812500,3.58,85.67
35611,2018-06-29 09:03:24.843750,9.44,85.67
35612,2018-06-29 09:03:24.875000,15.89,85.67
35613,2018-06-29 09:03:24.906250,24.39,85.67
35614,2018-06-29 09:03:24.937500,32.04,85.67
35615,2018-06-29 09:03:24.968750,33.94,85.67
35616,2018-06-29 09:03:25.000000,31.65,85.67
35617,2018-06-29 09:03:25.031250,28.55,85.67
35618,2018-06-29 09:03:25.062500,21.05,85.67
35619,2018-06-29 09:03:25.093750,4.37,85.67
35620,2018-06-29 09:03:25.125000,-15.53,85.67
35621,2018-06-29 09:03:25.156250,-23.67,85.67
35622,2018-06-29 09:03:25.187500,-13.45,85.67
35623,2018-06-29 09:03:25.218750,3.57,85.67
35624,2018-06-29 09:03:25.250000,13.5,85.67
35625,2018-06-29 09:03:25.281250,18.55,85.67
35626,2018-06-29 09:03:25.312500,29.93,85.67
35627,2018-06-29 09:03:25.343750,49.73,85.67
35628,2018-06-29 09:03:25.375000,65.36,85.67
35629,2018-06-29 09:03:25.406250,57.13,85.67
35630,2018-06-29 09:03:25.437500,17.97,85.67
35631,2018-06-29 09:03:25.468750,-29.57,85.67
35632,2018-06-29 09:03:25.500000,-51.48,85.67
35633,2018-06-29 09:03:25.531250,-41.08,85.9
35634,2018-06-29 09:03:25.562500,-22.27,85.9
35635,2018-06-29 09:03:25.593750,-14.67,85.9
35636,2018-06-29 09:03:25.625000,-15.46,85.9
35637,2018-06-29 09:03:25.656250,-15.25,85.9
35638,2018-06-29 09:03:25.687500,-12.32,85.9
35639,2018-06-29 09:03:25.718750,-7.42,85.9
35640,2018-06-29 09:03:25.750000,1.4,85.9
35641,2018-06-29 09:03:25.781250,14.67,85.9
35642,2018-06-29 09:03:25.812500,30.01,85.9
35643,2018-06-29 09:03:25.843750,44.09,85.9
35644,2018-06-29 09:03:25.875000,50.82,85.9
35645,2018-06-29 09:03:25.906250,44.76,85.9
35646,2018-06-29 09:03:25.937500,31.33,85.9
35647,2018-06-29 09:03:25.968750,23.8,85.9
35648,2018-06-29 09:03:26.000000,26.88,85.9
35649,2018-06-29 09:03:26.031250,34.16,85.9
35650,2018-06-29 09:03:26.062500,39.74,85.9
35651,2018-06-29 09:03:26.093750,41.84,85.9
35652,2018-06-29 09:03:26.125000,42.49,85.9
35653,2018-06-29 09:03:26.156250,44.29,85.9
35654,2018-06-29 09:03:26.187500,38.24,85.9
35655,2018-06-29 09:03:26.218750,10.99,85.9
35656,2018-06-29 09:03:26.250000,-26.02,85.9
35657,2018-06-29 09:03:26.281250,-43.83,85.9
35658,2018-06-29 09:03:26.312500,-39.34,85.9
35659,2018-06-29 09:03:26.343750,-35.99,85.9
35660,2018-06-29 09:03:26.375000,-40.61,85.9
35661,2018-06-29 09:03:26.406250,-36.39,85.9
35662,2018-06-29 09:03:26.437500,-17.68,85.9
35663,2018-06-29 09:03:26.468750,-1.04,85.9
35664,2018-06-29 09:03:26.500000,2.73,85.9
35665,2018-06-29 09:03:26.531250,6.94,86.1
35666,2018-06-29 09:03:26.562500,32.56,86.1
35667,2018-06-29 09:03:26.593750,82.8,86.1
35668,2018-06-29 09:03:26.625000,133.17,86.1
35669,2018-06-29 09:03:26.656250,145.76,86.1
35670,2018-06-29 09:03:26.687500,106.39,86.1
35671,2018-06-29 09:03:26.718750,41.82,86.1
35672,2018-06-29 09:03:26.750000,-14.06,86.1
35673,2018-06-29 09:03:26.781250,-51.92,86.1
35674,2018-06-29 09:03:26.812500,-75.09,86.1
35675,2018-06-29 09:03:26.843750,-86.49,86.1
35676,2018-06-29 09:03:26.875000,-94.15,86.1
35677,2018-06-29 09:03:26.906250,-104.43,86.1
35678,2018-06-29 09:03:26.937500,-111.68,86.1
35679,2018-06-29 09:03:26.968750,-109.03,86.1
35680,2018-06-29 09:03:27.000000,-99.95,86.1
35681,2018-06-29 09:03:27.031250,-91.84,86.1
35682,2018-06-29 09:03:27.062500,-86.13,86.1
35683,2018-06-29 09:03:27.093750,-78.62,86.1
35684,2018-06-29 09:03:27.125000,-66.48,86.1
35685,2018-06-29 09:03:27.156250,-50.56,86.1
35686,2018-06-29 09:03:27.187500,-32.19,86.1
35687,2018-06-29 09:03:27.218750,-12.44,86.1
35688,2018-06-29 09:03:27.250000,6.46,86.1
35689,2018-06-29 09:03:27.281250,21.59,86.1
35690,2018-06-29 09:03:27.312500,29.91,86.1
35691,2018-06-29 09:03:27.343750,28.43,86.1
35692,2018-06-29 09:03:27.375000,16.43,86.1
35693,2018-06-29 09:03:27.406250,-1.46,86.1
35694,2018-06-29 09:03:27.437500,-16.02,86.1
35695,2018-06-29 09:03:27.468750,-20.56,86.1
35696,2018-06-29 09:03:27.500000,-17.37,86.1
35697,2018-06-29 09:03:27.531250,-13.43,86.25
35698,2018-06-29 09:03:27.562500,-11.31,86.25
35699,2018-06-29 09:03:27.593750,-9.45,86.25
35700,2018-06-29 09:03:27.625000,-8.09,86.25
35701,2018-06-29 09:03:27.656250,-8.94,86.25
35702,2018-06-29 09:03:27.687500,-11.5,86.25
35703,2018-06-29 09:03:27.718750,-13.68,86.25
35704,2018-06-29 09:03:27.750000,-13.79,86.25
35705,2018-06-29 09:03:27.781250,-10.07,86.25
35706,2018-06-29 09:03:27.812500,-3.88,86.25
35707,2018-06-29 09:03:27.843750,-0.93,86.25
35708,2018-06-29 09:03:27.875000,-2.02,86.25
35709,2018-06-29 09:03:27.906250,-0.16,86.25
35710,2018-06-29 09:03:27.937500,6.08,86.25
35711,2018-06-29 09:03:27.968750,8.56,86.25
35712,2018-06-29 09:03:28.000000,4.43,86.25
35713,2018-06-29 09:03:28.031250,1.57,86.25
35714,2018-06-29 09:03:28.062500,5.62,86.25
35715,2018-06-29 09:03:28.093750,13.49,86.25
35716,2018-06-29 09:03:28.125000,20.57,86.25
35717,2018-06-29 09:03:28.156250,26.67,86.25
35718,2018-06-29 09:03:28.187500,33.01,86.25
35719,2018-06-29 09:03:28.218750,37.83,86.25
35720,2018-06-29 09:03:28.250000,39.17,86.25
35721,2018-06-29 09:03:28.281250,39.78,86.25
35722,2018-06-29 09:03:28.312500,44.58,86.25
35723,2018-06-29 09:03:28.343750,54.42,86.25
35724,2018-06-29 09:03:28.375000,66.26,86.25
35725,2018-06-29 09:03:28.406250,79.01,86.25
35726,2018-06-29 09:03:28.437500,97.45,86.25
35727,2018-06-29 09:03:28.468750,128.57,86.25
35728,2018-06-29 09:03:28.500000,171.38,86.25
35729,2018-06-29 09:03:28.531250,209.29,86.42
35730,2018-06-29 09:03:28.562500,217.59,86.42
35731,2018-06-29 09:03:28.593750,183.85,86.42
35732,2018-06-29 09:03:28.625000,120.02,86.42
35733,2018-06-29 09:03:28.656250,52.48,86.42
35734,2018-06-29 09:03:28.687500,1.57,86.42
35735,2018-06-29 09:03:28.718750,-30.9,86.42
35736,2018-06-29 09:03:28.750000,-58.04,86.42
35737,2018-06-29 09:03:28.781250,-91.44,86.42
35738,2018-06-29 09:03:28.812500,-128.18,86.42
35739,2018-06-29 09:03:28.843750,-156.68,86.42
35740,2018-06-29 09:03:28.875000,-170.6,86.42
35741,2018-06-29 09:03:28.906250,-171.41,86.42
35742,2018-06-29 09:03:28.937500,-163.34,86.42
35743,2018-06-29 09:03:28.968750,-151.78,86.42
35744,2018-06-29 09:03:29.000000,-140.9,86.42
35745,2018-06-29 09:03:29.031250,-130.32,86.42
35746,2018-06-29 09:03:29.062500,-117.06,86.42
35747,2018-06-29 09:03:29.093750,-100.24,86.42
35748,2018-06-29 09:03:29.125000,-82.77,86.42
35749,2018-06-29 09:03:29.156250,-68.2,86.42
35750,2018-06-29 09:03:29.187500,-54.71,86.42
35751,2018-06-29 09:03:29.218750,-35.05,86.42
35752,2018-06-29 09:03:29.250000,-6.54,86.42
35753,2018-06-29 09:03:29.281250,24.02,86.42
35754,2018-06-29 09:03:29.312500,48.72,86.42
35755,2018-06-29 09:03:29.343750,64.49,86.42
35756,2018-06-29 09:03:29.375000,69.17,86.42
35757,2018-06-29 09:03:29.406250,60.54,86.42
35758,2018-06-29 09:03:29.437500,42.1,86.42
35759,2018-06-29 09:03:29.468750,24.19,86.42
35760,2018-06-29 09:03:29.500000,16.19,86.42
35761,2018-06-29 09:03:29.531250,18.9,86.55
35762,2018-06-29 09:03:29.562500,26.08,86.55
35763,2018-06-29 09:03:29.593750,33.12,86.55
35764,2018-06-29 09:03:29.625000,43.39,86.55
35765,2018-06-29 09:03:29.656250,65.74,86.55
35766,2018-06-29 09:03:29.687500,101.64,86.55
35767,2018-06-29 09:03:29.718750,132.67,86.55
35768,2018-06-29 09:03:29.750000,130.35,86.55
35769,2018-06-29 09:03:29.781250,87.26,86.55
35770,2018-06-29 09:03:29.812500,29.88,86.55
35771,2018-06-29 09:03:29.843750,-9.44,86.55
35772,2018-06-29 09:03:29.875000,-25.6,86.55
35773,2018-06-29 09:03:29.906250,-35.67,86.55
35774,2018-06-29 09:03:29.937500,-50.02,86.55
35775,2018-06-29 09:03:29.968750,-63.92,86.55
35776,2018-06-29 09:03:30.000000,-73.2,86.55
35777,2018-06-29 09:03:30.031250,-78.42,86.55
35778,2018-06-29 09:03:30.062500,-74.12,86.55
35779,2018-06-29 09:03:30.093750,-54.28,86.55
35780,2018-06-29 09:03:30.125000,-27.32,86.55
35781,2018-06-29 09:03:30.156250,-9.09,86.55
35782,2018-06-29 09:03:30.187500,-4.78,86.55
35783,2018-06-29 09:03:30.218750,-9.5,86.55
35784,2018-06-29 09:03:30.250000,-18.47,86.55
35785,2018-06-29 09:03:30.281250,-26.96,86.55
35786,2018-06-29 09:03:30.312500,-27.04,86.55
35787,2018-06-29 09:03:30.343750,-14.2,86.55
35788,2018-06-29 09:03:30.375000,4.44,86.55
35789,2018-06-29 09:03:30.406250,19.16,86.55
35790,2018-06-29 09:03:30.437500,36.41,86.55
35791,2018-06-29 09:03:30.468750,72.55,86.55
35792,2018-06-29 09:03:30.500000,122.09,86.55
35793,2018-06-29 09:03:30.531250,151.64,86.65
35794,2018-06-29 09:03:30.562500,136.11,86.65
35795,2018-06-29 09:03:30.593750,84.35,86.65
35796,2018-06-29 09:03:30.625000,24.15,86.65
35797,2018-06-29 09:03:30.656250,-20.48,86.65
35798,2018-06-29 09:03:30.687500,-38.74,86.65
35799,2018-06-29 09:03:30.718750,-36.33,86.65
35800,2018-06-29 09:03:30.750000,-24.94,86.65
35801,2018-06-29 09:03:30.781250,-7.41,86.65
35802,2018-06-29 09:03:30.812500,8.9,86.65
35803,2018-06-29 09:03:30.843750,1.73,86.65
35804,2018-06-29 09:03:30.875000,-34.45,86.65
35805,2018-06-29 09:03:30.906250,-74.18,86.65
35806,2018-06-29 09:03:30.937500,-97.33,86.65
35807,2018-06-29 09:03:30.968750,-104.95,86.65
35808,2018-06-29 09:03:31.000000,-96.82,86.65
35809,2018-06-29 09:03:31.031250,-72.5,86.65
35810,2018-06-29 09:03:31.062500,-47.5,86.65
35811,2018-06-29 09:03:31.093750,-36.8,86.65
35812,2018-06-29 09:03:31.125000,-33.88,86.65
35813,2018-06-29 09:03:31.156250,-23.72,86.65
35814,2018-06-29 09:03:31.187500,-4.31,86.65
35815,2018-06-29 09:03:31.218750,14.55,86.65
35816,2018-06-29 09:03:31.250000,24.04,86.65
35817,2018-06-29 09:03:31.281250,20.83,86.65
35818,2018-06-29 09:03:31.312500,8.76,86.65
35819,2018-06-29 09:03:31.343750,1.58,86.65
35820,2018-06-29 09:03:31.375000,12.28,86.65
35821,2018-06-29 09:03:31.406250,35.34,86.65
35822,2018-06-29 09:03:31.437500,49.99,86.65
35823,2018-06-29 09:03:31.468750,40.44,86.65
35824,2018-06-29 09:03:31.500000,7.14,86.65
35825,2018-06-29 09:03:31.531250,-35.35,86.77
35826,2018-06-29 09:03:31.562500,-67.62,86.77
35827,2018-06-29 09:03:31.593750,-78.95,86.77
35828,2018-06-29 09:03:31.625000,-72.88,86.77
35829,2018-06-29 09:03:31.656250,-57.48,86.77
35830,2018-06-29 09:03:31.687500,-37.17,86.77
35831,2018-06-29 09:03:31.718750,-16.52,86.77
35832,2018-06-29 09:03:31.750000,0.66,86.77
35833,2018-06-29 09:03:31.781250,19.31,86.77
35834,2018-06-29 09:03:31.812500,46.56,86.77
35835,2018-06-29 09:03:31.843750,77.95,86.77
35836,2018-06-29 09:03:31.875000,106.49,86.77
35837,2018-06-29 09:03:31.906250,134.47,86.77
35838,2018-06-29 09:03:31.937500,153.86,86.77
35839,2018-06-29 09:03:31.968750,140.08,86.77
35840,2018-06-29 09:03:32.000000,95.06,86.77
35841,2018-06-29 09:03:32.031250,61.11,86.77
35842,2018-06-29 09:03:32.062500,69.46,86.77
35843,2018-06-29 09:03:32.093750,109.94,86.77
35844,2018-06-29 09:03:32.125000,148.95,86.77
35845,2018-06-29 09:03:32.156250,149.0,86.77
35846,2018-06-29 09:03:32.187500,100.73,86.77
35847,2018-06-29 09:03:32.218750,45.32,86.77
35848,2018-06-29 09:03:32.250000,21.26,86.77
35849,2018-06-29 09:03:32.281250,9.71,86.77
35850,2018-06-29 09:03:32.312500,-21.78,86.77
35851,2018-06-29 09:03:32.343750,-66.73,86.77
35852,2018-06-29 09:03:32.375000,-104.95,86.77
35853,2018-06-29 09:03:32.406250,-129.68,86.77
35854,2018-06-29 09:03:32.437500,-135.82,86.77
35855,2018-06-29 09:03:32.468750,-122.0,86.77
35856,2018-06-29 09:03:32.500000,-105.07,86.77
35857,2018-06-29 09:03:32.531250,-105.42,86.83
35858,2018-06-29 09:03:32.562500,-119.28,86.83
35859,2018-06-29 09:03:32.593750,-124.04,86.83
35860,2018-06-29 09:03:32.625000,-111.85,86.83
35861,2018-06-29 09:03:32.656250,-97.85,86.83
35862,2018-06-29 09:03:32.687500,-91.67,86.83
35863,2018-06-29 09:03:32.718750,-85.87,86.83
35864,2018-06-29 09:03:32.750000,-76.61,86.83
35865,2018-06-29 09:03:32.781250,-69.17,86.83
35866,2018-06-29 09:03:32.812500,-62.08,86.83
35867,2018-06-29 09:03:32.843750,-48.47,86.83
35868,2018-06-29 09:03:32.875000,-29.82,86.83
35869,2018-06-29 09:03:32.906250,-12.87,86.83
35870,2018-06-29 09:03:32.937500,0.52,86.83
35871,2018-06-29 09:03:32.968750,12.81,86.83
35872,2018-06-29 09:03:33.000000,27.16,86.83
35873,2018-06-29 09:03:33.031250,48.79,86.83
35874,2018-06-29 09:03:33.062500,80.72,86.83
35875,2018-06-29 09:03:33.093750,111.22,86.83
35876,2018-06-29 09:03:33.125000,116.58,86.83
35877,2018-06-29 09:03:33.156250,88.6,86.83
35878,2018-06-29 09:03:33.187500,48.76,86.83
35879,2018-06-29 09:03:33.218750,20.99,86.83
35880,2018-06-29 09:03:33.250000,2.96,86.83
35881,2018-06-29 09:03:33.281250,-18.81,86.83
35882,2018-06-29 09:03:33.312500,-40.76,86.83
35883,2018-06-29 09:03:33.343750,-51.08,86.83
35884,2018-06-29 09:03:33.375000,-47.64,86.83
35885,2018-06-29 09:03:33.406250,-27.36,86.83
35886,2018-06-29 09:03:33.437500,12.36,86.83
35887,2018-06-29 09:03:33.468750,50.01,86.83
35888,2018-06-29 09:03:33.500000,57.74,86.83
35889,2018-06-29 09:03:33.531250,42.74,86.92
35890,2018-06-29 09:03:33.562500,30.14,86.92
35891,2018-06-29 09:03:33.593750,20.7,86.92
35892,2018-06-29 09:03:33.625000,2.75,86.92
35893,2018-06-29 09:03:33.656250,-18.98,86.92
35894,2018-06-29 09:03:33.687500,-34.43,86.92
35895,2018-06-29 09:03:33.718750,-44.34,86.92
35896,2018-06-29 09:03:33.750000,-51.02,86.92
35897,2018-06-29 09:03:33.781250,-50.7,86.92
35898,2018-06-29 09:03:33.812500,-41.56,86.92
35899,2018-06-29 09:03:33.843750,-29.8,86.92
35900,2018-06-29 09:03:33.875000,-22.86,86.92
35901,2018-06-29 09:03:33.906250,-20.57,86.92
35902,2018-06-29 09:03:33.937500,-15.49,86.92
35903,2018-06-29 09:03:33.968750,-0.92,86.92
35904,2018-06-29 09:03:34.000000,23.96,86.92
35905,2018-06-29 09:03:34.031250,53.11,86.92
35906,2018-06-29 09:03:34.062500,72.3,86.92
35907,2018-06-29 09:03:34.093750,70.55,86.92
35908,2018-06-29 09:03:34.125000,59.01,86.92
35909,2018-06-29 09:03:34.156250,57.14,86.92
35910,2018-06-29 09:03:34.187500,60.53,86.92
35911,2018-06-29 09:03:34.218750,50.93,86.92
35912,2018-06-29 09:03:34.250000,28.97,86.92
35913,2018-06-29 09:03:34.281250,6.49,86.92
35914,2018-06-29 09:03:34.312500,-16.01,86.92
35915,2018-06-29 09:03:34.343750,-38.94,86.92
35916,2018-06-29 09:03:34.375000,-52.06,86.92
35917,2018-06-29 09:03:34.406250,-49.85,86.92
35918,2018-06-29 09:03:34.437500,-41.92,86.92
35919,2018-06-29 09:03:34.468750,-39.11,86.92
35920,2018-06-29 09:03:34.500000,-39.26,86.92
35921,2018-06-29 09:03:34.531250,-33.53,86.97
35922,2018-06-29 09:03:34.562500,-22.28,86.97
35923,2018-06-29 09:03:34.593750,-17.59,86.97
35924,2018-06-29 09:03:34.625000,-27.59,86.97
35925,2018-06-29 09:03:34.656250,-41.12,86.97
35926,2018-06-29 09:03:34.687500,-33.98,86.97
35927,2018-06-29 09:03:34.718750,5.85,86.97
35928,2018-06-29 09:03:34.750000,62.26,86.97
35929,2018-06-29 09:03:34.781250,102.41,86.97
35930,2018-06-29 09:03:34.812500,103.35,86.97
35931,2018-06-29 09:03:34.843750,71.1,86.97
35932,2018-06-29 09:03:34.875000,34.76,86.97
35933,2018-06-29 09:03:34.906250,16.98,86.97
35934,2018-06-29 09:03:34.937500,13.84,86.97
35935,2018-06-29 09:03:34.968750,8.97,86.97
35936,2018-06-29 09:03:35.000000,-4.29,86.97
35937,2018-06-29 09:03:35.031250,-22.02,86.97
35938,2018-06-29 09:03:35.062500,-38.12,86.97
35939,2018-06-29 09:03:35.093750,-45.14,86.97
35940,2018-06-29 09:03:35.125000,-39.76,86.97
35941,2018-06-29 09:03:35.156250,-29.24,86.97
35942,2018-06-29 09:03:35.187500,-23.86,86.97
35943,2018-06-29 09:03:35.218750,-24.87,86.97
35944,2018-06-29 09:03:35.250000,-27.42,86.97
35945,2018-06-29 09:03:35.281250,-29.38,86.97
35946,2018-06-29 09:03:35.312500,-30.45,86.97
35947,2018-06-29 09:03:35.343750,-30.09,86.97
35948,2018-06-29 09:03:35.375000,-27.35,86.97
35949,2018-06-29 09:03:35.406250,-25.83,86.97
35950,2018-06-29 09:03:35.437500,-26.89,86.97
35951,2018-06-29 09:03:35.468750,-25.13,86.97
35952,2018-06-29 09:03:35.500000,-12.28,86.97
35953,2018-06-29 09:03:35.531250,9.54,87.02
35954,2018-06-29 09:03:35.562500,26.28,87.02
35955,2018-06-29 09:03:35.593750,35.78,87.02
35956,2018-06-29 09:03:35.625000,47.98,87.02
35957,2018-06-29 09:03:35.656250,74.4,87.02
35958,2018-06-29 09:03:35.687500,105.84,87.02
35959,2018-06-29 09:03:35.718750,127.99,87.02
35960,2018-06-29 09:03:35.750000,135.77,87.02
35961,2018-06-29 09:03:35.781250,140.73,87.02
35962,2018-06-29 09:03:35.812500,160.11,87.02
35963,2018-06-29 09:03:35.843750,187.52,87.02
35964,2018-06-29 09:03:35.875000,202.4,87.02
35965,2018-06-29 09:03:35.906250,148.03,87.02
35966,2018-06-29 09:03:35.937500,34.39,87.02
35967,2018-06-29 09:03:35.968750,-35.96,87.02
35968,2018-06-29 09:03:36.000000,-51.98,87.02
35969,2018-06-29 09:03:36.031250,-52.18,87.02
35970,2018-06-29 09:03:36.062500,-44.74,87.02
35971,2018-06-29 09:03:36.093750,-28.78,87.02
35972,2018-06-29 09:03:36.125000,-24.99,87.02
35973,2018-06-29 09:03:36.156250,-35.74,87.02
35974,2018-06-29 09:03:36.187500,-42.9,87.02
35975,2018-06-29 09:03:36.218750,-33.23,87.02
35976,2018-06-29 09:03:36.250000,-22.08,87.02
35977,2018-06-29 09:03:36.281250,-23.85,87.02
35978,2018-06-29 09:03:36.312500,-30.96,87.02
35979,2018-06-29 09:03:36.343750,-29.05,87.02
35980,2018-06-29 09:03:36.375000,-15.43,87.02
35981,2018-06-29 09:03:36.406250,-2.19,87.02
35982,2018-06-29 09:03:36.437500,-1.53,87.02
35983,2018-06-29 09:03:36.468750,-17.93,87.02
35984,2018-06-29 09:03:36.500000,-39.62,87.02
35985,2018-06-29 09:03:36.531250,-52.61,87.05
35986,2018-06-29 09:03:36.562500,-54.67,87.05
35987,2018-06-29 09:03:36.593750,-51.14,87.05
35988,2018-06-29 09:03:36.625000,-47.87,87.05
35989,2018-06-29 09:03:36.656250,-48.96,87.05
35990,2018-06-29 09:03:36.687500,-51.16,87.05
35991,2018-06-29 09:03:36.718750,-41.76,87.05
35992,2018-06-29 09:03:36.750000,-16.04,87.05
35993,2018-06-29 09:03:36.781250,11.13,87.05
35994,2018-06-29 09:03:36.812500,20.0,87.05
35995,2018-06-29 09:03:36.843750,7.69,87.05
35996,2018-06-29 09:03:36.875000,-6.7,87.05
35997,2018-06-29 09:03:36.906250,1.31,87.05
35998,2018-06-29 09:03:36.937500,34.35,87.05
35999,2018-06-29 09:03:36.968750,66.02,87.05
36000,2018-06-29 09:03:37.000000,71.18,87.05
36001,2018-06-29 09:03:37.031250,55.7,87.05
36002,2018-06-29 09:03:37.062500,42.51,87.05
36003,2018-06-29 09:03:37.093750,38.38,87.05
36004,2018-06-29 09:03:37.125000,30.33,87.05
36005,2018-06-29 09:03:37.156250,7.12,87.05
36006,2018-06-29 09:03:37.187500,-27.8,87.05
36007,2018-06-29 09:03:37.218750,-58.89,87.05
36008,2018-06-29 09:03:37.250000,-68.79,87.05
36009,2018-06-29 09:03:37.281250,-52.37,87.05
36010,2018-06-29 09:03:37.312500,-23.32,87.05
36011,2018-06-29 09:03:37.343750,-2.01,87.05
36012,2018-06-29 09:03:37.375000,4.09,87.05
36013,2018-06-29 09:03:37.406250,4.64,87.05
36014,2018-06-29 09:03:37.437500,12.35,87.05
36015,2018-06-29 09:03:37.468750,28.8,87.05
36016,2018-06-29 09:03:37.500000,44.95,87.05
36017,2018-06-29 09:03:37.531250,53.72,87.12
36018,2018-06-29 09:03:37.562500,59.13,87.12
36019,2018-06-29 09:03:37.593750,70.15,87.12
36020,2018-06-29 09:03:37.625000,87.3,87.12
36021,2018-06-29 09:03:37.656250,102.36,87.12
36022,2018-06-29 09:03:37.687500,110.02,87.12
36023,2018-06-29 09:03:37.718750,108.82,87.12
36024,2018-06-29 09:03:37.750000,91.52,87.12
36025,2018-06-29 09:03:37.781250,47.19,87.12
36026,2018-06-29 09:03:37.812500,-24.72,87.12
36027,2018-06-29 09:03:37.843750,-108.29,87.12
36028,2018-06-29 09:03:37.875000,-179.52,87.12
36029,2018-06-29 09:03:37.906250,-221.03,87.12
36030,2018-06-29 09:03:37.937500,-230.77,87.12
36031,2018-06-29 09:03:37.968750,-217.4,87.12
36032,2018-06-29 09:03:38.000000,-192.57,87.12
36033,2018-06-29 09:03:38.031250,-166.96,87.12
36034,2018-06-29 09:03:38.062500,-143.15,87.12
36035,2018-06-29 09:03:38.093750,-113.49,87.12
36036,2018-06-29 09:03:38.125000,-74.32,87.12
36037,2018-06-29 09:03:38.156250,-33.68,87.12
36038,2018-06-29 09:03:38.187500,-1.65,87.12
36039,2018-06-29 09:03:38.218750,15.56,87.12
36040,2018-06-29 09:03:38.250000,17.59,87.12
36041,2018-06-29 09:03:38.281250,13.17,87.12
36042,2018-06-29 09:03:38.312500,9.87,87.12
36043,2018-06-29 09:03:38.343750,1.94,87.12
36044,2018-06-29 09:03:38.375000,-17.53,87.12
36045,2018-06-29 09:03:38.406250,-41.8,87.12
36046,2018-06-29 09:03:38.437500,-61.86,87.12
36047,2018-06-29 09:03:38.468750,-79.34,87.12
36048,2018-06-29 09:03:38.500000,-96.63,87.12
36049,2018-06-29 09:03:38.531250,-104.72,87.18
36050,2018-06-29 09:03:38.562500,-91.12,87.18
36051,2018-06-29 09:03:38.593750,-56.05,87.18
36052,2018-06-29 09:03:38.625000,-11.96,87.18
36053,2018-06-29 09:03:38.656250,29.81,87.18
36054,2018-06-29 09:03:38.687500,63.17,87.18
36055,2018-06-29 09:03:38.718750,82.52,87.18
36056,2018-06-29 09:03:38.750000,84.0,87.18
36057,2018-06-29 09:03:38.781250,70.42,87.18
36058,2018-06-29 09:03:38.812500,49.52,87.18
36059,2018-06-29 09:03:38.843750,30.05,87.18
36060,2018-06-29 09:03:38.875000,20.58,87.18
36061,2018-06-29 09:03:38.906250,23.98,87.18
36062,2018-06-29 09:03:38.937500,30.61,87.18
36063,2018-06-29 09:03:38.968750,25.38,87.18
36064,2018-06-29 09:03:39.000000,3.82,87.18
36065,2018-06-29 09:03:39.031250,-26.01,87.18
36066,2018-06-29 09:03:39.062500,-54.96,87.18
36067,2018-06-29 09:03:39.093750,-78.52,87.18
36068,2018-06-29 09:03:39.125000,-96.13,87.18
36069,2018-06-29 09:03:39.156250,-109.94,87.18
36070,2018-06-29 09:03:39.187500,-117.08,87.18
36071,2018-06-29 09:03:39.218750,-103.8,87.18
36072,2018-06-29 09:03:39.250000,-60.15,87.18
36073,2018-06-29 09:03:39.281250,0.51,87.18
36074,2018-06-29 09:03:39.312500,51.25,87.18
36075,2018-06-29 09:03:39.343750,78.83,87.18
36076,2018-06-29 09:03:39.375000,89.31,87.18
36077,2018-06-29 09:03:39.406250,91.97,87.18
36078,2018-06-29 09:03:39.437500,91.09,87.18
36079,2018-06-29 09:03:39.468750,89.27,87.18
36080,2018-06-29 09:03:39.500000,87.95,87.18
36081,2018-06-29 09:03:39.531250,86.85,87.25
36082,2018-06-29 09:03:39.562500,86.41,87.25
36083,2018-06-29 09:03:39.593750,85.47,87.25
36084,2018-06-29 09:03:39.625000,77.04,87.25
36085,2018-06-29 09:03:39.656250,55.07,87.25
36086,2018-06-29 09:03:39.687500,24.66,87.25
36087,2018-06-29 09:03:39.718750,-2.22,87.25
36088,2018-06-29 09:03:39.750000,-20.08,87.25
36089,2018-06-29 09:03:39.781250,-33.81,87.25
36090,2018-06-29 09:03:39.812500,-50.59,87.25
36091,2018-06-29 09:03:39.843750,-68.89,87.25
36092,2018-06-29 09:03:39.875000,-76.33,87.25
36093,2018-06-29 09:03:39.906250,-63.0,87.25
36094,2018-06-29 09:03:39.937500,-34.91,87.25
36095,2018-06-29 09:03:39.968750,-7.26,87.25
36096,2018-06-29 09:03:40.000000,11.83,87.25
36097,2018-06-29 09:03:40.031250,23.63,87.25
36098,2018-06-29 09:03:40.062500,30.47,87.25
36099,2018-06-29 09:03:40.093750,31.76,87.25
36100,2018-06-29 09:03:40.125000,26.88,87.25
36101,2018-06-29 09:03:40.156250,19.28,87.25
36102,2018-06-29 09:03:40.187500,15.55,87.25
36103,2018-06-29 09:03:40.218750,19.62,87.25
36104,2018-06-29 09:03:40.250000,29.14,87.25
36105,2018-06-29 09:03:40.281250,37.68,87.25
36106,2018-06-29 09:03:40.312500,39.48,87.25
36107,2018-06-29 09:03:40.343750,33.98,87.25
36108,2018-06-29 09:03:40.375000,25.44,87.25
36109,2018-06-29 09:03:40.406250,16.69,87.25
36110,2018-06-29 09:03:40.437500,5.44,87.25
36111,2018-06-29 09:03:40.468750,-11.79,87.25
36112,2018-06-29 09:03:40.500000,-31.62,87.25
36113,2018-06-29 09:03:40.531250,-39.45,87.35
36114,2018-06-29 09:03:40.562500,-19.88,87.35
36115,2018-06-29 09:03:40.593750,24.04,87.35
36116,2018-06-29 09:03:40.625000,69.41,87.35
36117,2018-06-29 09:03:40.656250,95.44,87.35
36118,2018-06-29 09:03:40.687500,100.22,87.35
36119,2018-06-29 09:03:40.718750,95.88,87.35
36120,2018-06-29 09:03:40.750000,94.29,87.35
36121,2018-06-29 09:03:40.781250,96.99,87.35
36122,2018-06-29 09:03:40.812500,96.52,87.35
36123,2018-06-29 09:03:40.843750,86.86,87.35
36124,2018-06-29 09:03:40.875000,69.55,87.35
36125,2018-06-29 09:03:40.906250,49.73,87.35
36126,2018-06-29 09:03:40.937500,31.45,87.35
36127,2018-06-29 09:03:40.968750,16.92,87.35
36128,2018-06-29 09:03:41.000000,6.22,87.35
36129,2018-06-29 09:03:41.031250,-3.41,87.35
36130,2018-06-29 09:03:41.062500,-16.57,87.35
36131,2018-06-29 09:03:41.093750,-37.3,87.35
36132,2018-06-29 09:03:41.125000,-65.24,87.35
36133,2018-06-29 09:03:41.156250,-91.92,87.35
36134,2018-06-29 09:03:41.187500,-102.85,87.35
36135,2018-06-29 09:03:41.218750,-89.78,87.35
36136,2018-06-29 09:03:41.250000,-61.24,87.35
36137,2018-06-29 09:03:41.281250,-34.41,87.35
36138,2018-06-29 09:03:41.312500,-17.26,87.35
36139,2018-06-29 09:03:41.343750,-5.62,87.35
36140,2018-06-29 09:03:41.375000,4.27,87.35
36141,2018-06-29 09:03:41.406250,10.68,87.35
36142,2018-06-29 09:03:41.437500,14.05,87.35
36143,2018-06-29 09:03:41.468750,20.35,87.35
36144,2018-06-29 09:03:41.500000,34.07,87.35
36145,2018-06-29 09:03:41.531250,53.13,87.43
36146,2018-06-29 09:03:41.562500,71.49,87.43
36147,2018-06-29 09:03:41.593750,81.76,87.43
36148,2018-06-29 09:03:41.625000,77.63,87.43
36149,2018-06-29 09:03:41.656250,59.11,87.43
36150,2018-06-29 09:03:41.687500,32.38,87.43
36151,2018-06-29 09:03:41.718750,1.38,87.43
36152,2018-06-29 09:03:41.750000,-35.07,87.43
36153,2018-06-29 09:03:41.781250,-73.32,87.43
36154,2018-06-29 09:03:41.812500,-98.34,87.43
36155,2018-06-29 09:03:41.843750,-96.11,87.43
36156,2018-06-29 09:03:41.875000,-69.25,87.43
36157,2018-06-29 09:03:41.906250,-32.65,87.43
36158,2018-06-29 09:03:41.937500,0.66,87.43
36159,2018-06-29 09:03:41.968750,23.79,87.43
36160,2018-06-29 09:03:42.000000,35.97,87.43
36161,2018-06-29 09:03:42.031250,43.01,87.43
36162,2018-06-29 09:03:42.062500,48.36,87.43
36163,2018-06-29 09:03:42.093750,45.63,87.43
36164,2018-06-29 09:03:42.125000,27.94,87.43
36165,2018-06-29 09:03:42.156250,-0.99,87.43
36166,2018-06-29 09:03:42.187500,-29.99,87.43
36167,2018-06-29 09:03:42.218750,-48.87,87.43
36168,2018-06-29 09:03:42.250000,-54.58,87.43
36169,2018-06-29 09:03:42.281250,-50.34,87.43
36170,2018-06-29 09:03:42.312500,-37.77,87.43
36171,2018-06-29 09:03:42.343750,-20.8,87.43
36172,2018-06-29 09:03:42.375000,-13.14,87.43
36173,2018-06-29 09:03:42.406250,-18.96,87.43
36174,2018-06-29 09:03:42.437500,-17.22,87.43
36175,2018-06-29 09:03:42.468750,7.72,87.43
36176,2018-06-29 09:03:42.500000,38.9,87.43
36177,2018-06-29 09:03:42.531250,53.58,87.52
36178,2018-06-29 09:03:42.562500,53.02,87.52
36179,2018-06-29 09:03:42.593750,50.07,87.52
36180,2018-06-29 09:03:42.625000,49.34,87.52
36181,2018-06-29 09:03:42.656250,48.11,87.52
36182,2018-06-29 09:03:42.687500,43.43,87.52
36183,2018-06-29 09:03:42.718750,33.55,87.52
36184,2018-06-29 09:03:42.750000,17.76,87.52
36185,2018-06-29 09:03:42.781250,-1.41,87.52
36186,2018-06-29 09:03:42.812500,-17.17,87.52
36187,2018-06-29 09:03:42.843750,-24.43,87.52
36188,2018-06-29 09:03:42.875000,-25.37,87.52
36189,2018-06-29 09:03:42.906250,-25.02,87.52
36190,2018-06-29 09:03:42.937500,-23.62,87.52
36191,2018-06-29 09:03:42.968750,-17.92,87.52
36192,2018-06-29 09:03:43.000000,-9.54,87.52
36193,2018-06-29 09:03:43.031250,-4.93,87.52
36194,2018-06-29 09:03:43.062500,-4.22,87.52
36195,2018-06-29 09:03:43.093750,0.5,87.52
36196,2018-06-29 09:03:43.125000,11.23,87.52
36197,2018-06-29 09:03:43.156250,19.82,87.52
36198,2018-06-29 09:03:43.187500,20.44,87.52
36199,2018-06-29 09:03:43.218750,14.77,87.52
36200,2018-06-29 09:03:43.250000,6.21,87.52
36201,2018-06-29 09:03:43.281250,-1.67,87.52
36202,2018-06-29 09:03:43.312500,-5.26,87.52
36203,2018-06-29 09:03:43.343750,-6.5,87.52
36204,2018-06-29 09:03:43.375000,-14.53,87.52
36205,2018-06-29 09:03:43.406250,-35.2,87.52
36206,2018-06-29 09:03:43.437500,-60.83,87.52
36207,2018-06-29 09:03:43.468750,-77.79,87.52
36208,2018-06-29 09:03:43.500000,-83.78,87.52
36209,2018-06-29 09:03:43.531250,-86.94,87.68
36210,2018-06-29 09:03:43.562500,-89.45,87.68
36211,2018-06-29 09:03:43.593750,-85.74,87.68
36212,2018-06-29 09:03:43.625000,-75.3,87.68
36213,2018-06-29 09:03:43.656250,-65.64,87.68
36214,2018-06-29 09:03:43.687500,-60.4,87.68
36215,2018-06-29 09:03:43.718750,-51.2,87.68
36216,2018-06-29 09:03:43.750000,-27.5,87.68
36217,2018-06-29 09:03:43.781250,7.38,87.68
36218,2018-06-29 09:03:43.812500,38.66,87.68
36219,2018-06-29 09:03:43.843750,56.16,87.68
36220,2018-06-29 09:03:43.875000,58.3,87.68
36221,2018-06-29 09:03:43.906250,47.67,87.68
36222,2018-06-29 09:03:43.937500,34.17,87.68
36223,2018-06-29 09:03:43.968750,32.15,87.68
36224,2018-06-29 09:03:44.000000,45.51,87.68
36225,2018-06-29 09:03:44.031250,66.04,87.68
36226,2018-06-29 09:03:44.062500,87.19,87.68
36227,2018-06-29 09:03:44.093750,107.51,87.68
36228,2018-06-29 09:03:44.125000,122.42,87.68
36229,2018-06-29 09:03:44.156250,123.02,87.68
36230,2018-06-29 09:03:44.187500,103.56,87.68
36231,2018-06-29 09:03:44.218750,66.47,87.68
36232,2018-06-29 09:03:44.250000,20.7,87.68
36233,2018-06-29 09:03:44.281250,-22.63,87.68
36234,2018-06-29 09:03:44.312500,-55.13,87.68
36235,2018-06-29 09:03:44.343750,-73.8,87.68
36236,2018-06-29 09:03:44.375000,-75.02,87.68
36237,2018-06-29 09:03:44.406250,-49.91,87.68
36238,2018-06-29 09:03:44.437500,-1.12,87.68
36239,2018-06-29 09:03:44.468750,43.43,87.68
36240,2018-06-29 09:03:44.500000,59.41,87.68
36241,2018-06-29 09:03:44.531250,55.99,87.87
36242,2018-06-29 09:03:44.562500,50.99,87.87
36243,2018-06-29 09:03:44.593750,39.78,87.87
36244,2018-06-29 09:03:44.625000,13.96,87.87
36245,2018-06-29 09:03:44.656250,-16.75,87.87
36246,2018-06-29 09:03:44.687500,-40.04,87.87
36247,2018-06-29 09:03:44.718750,-53.6,87.87
36248,2018-06-29 09:03:44.750000,-54.25,87.87
36249,2018-06-29 09:03:44.781250,-37.66,87.87
36250,2018-06-29 09:03:44.812500,-12.95,87.87
36251,2018-06-29 09:03:44.843750,3.02,87.87
36252,2018-06-29 09:03:44.875000,9.67,87.87
36253,2018-06-29 09:03:44.906250,22.97,87.87
36254,2018-06-29 09:03:44.937500,47.87,87.87
36255,2018-06-29 09:03:44.968750,66.22,87.87
36256,2018-06-29 09:03:45.000000,57.98,87.87
36257,2018-06-29 09:03:45.031250,25.98,87.87
36258,2018-06-29 09:03:45.062500,-5.73,87.87
36259,2018-06-29 09:03:45.093750,-18.41,87.87
36260,2018-06-29 09:03:45.125000,-18.77,87.87
36261,2018-06-29 09:03:45.156250,-26.08,87.87
36262,2018-06-29 09:03:45.187500,-46.05,87.87
36263,2018-06-29 09:03:45.218750,-69.69,87.87
36264,2018-06-29 09:03:45.250000,-88.84,87.87
36265,2018-06-29 09:03:45.281250,-98.98,87.87
36266,2018-06-29 09:03:45.312500,-94.76,87.87
36267,2018-06-29 09:03:45.343750,-72.55,87.87
36268,2018-06-29 09:03:45.375000,-33.23,87.87
36269,2018-06-29 09:03:45.406250,17.14,87.87
36270,2018-06-29 09:03:45.437500,64.27,87.87
36271,2018-06-29 09:03:45.468750,90.43,87.87
36272,2018-06-29 09:03:45.500000,89.51,87.87
36273,2018-06-29 09:03:45.531250,71.2,87.97
36274,2018-06-29 09:03:45.562500,47.93,87.97
36275,2018-06-29 09:03:45.593750,22.71,87.97
36276,2018-06-29 09:03:45.625000,-9.93,87.97
36277,2018-06-29 09:03:45.656250,-53.09,87.97
36278,2018-06-29 09:03:45.687500,-99.41,87.97
36279,2018-06-29 09:03:45.718750,-133.24,87.97
36280,2018-06-29 09:03:45.750000,-139.44,87.97
36281,2018-06-29 09:03:45.781250,-113.13,87.97
36282,2018-06-29 09:03:45.812500,-67.19,87.97
36283,2018-06-29 09:03:45.843750,-25.6,87.97
36284,2018-06-29 09:03:45.875000,-2.28,87.97
36285,2018-06-29 09:03:45.906250,7.49,87.97
36286,2018-06-29 09:03:45.937500,11.97,87.97
36287,2018-06-29 09:03:45.968750,10.74,87.97
36288,2018-06-29 09:03:46.000000,1.6,87.97
36289,2018-06-29 09:03:46.031250,-10.42,87.97
36290,2018-06-29 09:03:46.062500,-17.63,87.97
36291,2018-06-29 09:03:46.093750,-18.48,87.97
36292,2018-06-29 09:03:46.125000,-17.33,87.97
36293,2018-06-29 09:03:46.156250,-18.33,87.97
36294,2018-06-29 09:03:46.187500,-21.51,87.97
36295,2018-06-29 09:03:46.218750,-23.63,87.97
36296,2018-06-29 09:03:46.250000,-22.13,87.97
36297,2018-06-29 09:03:46.281250,-18.63,87.97
36298,2018-06-29 09:03:46.312500,-16.83,87.97
36299,2018-06-29 09:03:46.343750,-16.44,87.97
36300,2018-06-29 09:03:46.375000,-11.95,87.97
36301,2018-06-29 09:03:46.406250,1.65,87.97
36302,2018-06-29 09:03:46.437500,22.66,87.97
36303,2018-06-29 09:03:46.468750,42.79,87.97
36304,2018-06-29 09:03:46.500000,55.02,87.97
36305,2018-06-29 09:03:46.531250,60.08,88.07
36306,2018-06-29 09:03:46.562500,61.84,88.07
36307,2018-06-29 09:03:46.593750,59.58,88.07
36308,2018-06-29 09:03:46.625000,50.2,88.07
36309,2018-06-29 09:03:46.656250,35.17,88.07
36310,2018-06-29 09:03:46.687500,20.32,88.07
36311,2018-06-29 09:03:46.718750,11.13,88.07
36312,2018-06-29 09:03:46.750000,9.5,88.07
36313,2018-06-29 09:03:46.781250,13.55,88.07
36314,2018-06-29 09:03:46.812500,20.05,88.07
36315,2018-06-29 09:03:46.843750,26.31,88.07
36316,2018-06-29 09:03:46.875000,28.53,88.07
36317,2018-06-29 09:03:46.906250,23.15,88.07
36318,2018-06-29 09:03:46.937500,12.96,88.07
36319,2018-06-29 09:03:46.968750,7.32,88.07
36320,2018-06-29 09:03:47.000000,15.84,88.07
36321,2018-06-29 09:03:47.031250,41.87,88.07
36322,2018-06-29 09:03:47.062500,73.64,88.07
36323,2018-06-29 09:03:47.093750,87.08,88.07
36324,2018-06-29 09:03:47.125000,71.82,88.07
36325,2018-06-29 09:03:47.156250,44.8,88.07
36326,2018-06-29 09:03:47.187500,25.77,88.07
36327,2018-06-29 09:03:47.218750,14.77,88.07
36328,2018-06-29 09:03:47.250000,1.66,88.07
36329,2018-06-29 09:03:47.281250,-18.87,88.07
36330,2018-06-29 09:03:47.312500,-45.86,88.07
36331,2018-06-29 09:03:47.343750,-73.12,88.07
36332,2018-06-29 09:03:47.375000,-91.11,88.07
36333,2018-06-29 09:03:47.406250,-93.27,88.07
36334,2018-06-29 09:03:47.437500,-80.07,88.07
36335,2018-06-29 09:03:47.468750,-56.5,88.07
36336,2018-06-29 09:03:47.500000,-28.44,88.07
36337,2018-06-29 09:03:47.531250,-2.68,88.18
36338,2018-06-29 09:03:47.562500,12.81,88.18
36339,2018-06-29 09:03:47.593750,13.85,88.18
36340,2018-06-29 09:03:47.625000,5.34,88.18
36341,2018-06-29 09:03:47.656250,-1.89,88.18
36342,2018-06-29 09:03:47.687500,-1.79,88.18
36343,2018-06-29 09:03:47.718750,3.0,88.18
36344,2018-06-29 09:03:47.750000,9.28,88.18
36345,2018-06-29 09:03:47.781250,17.68,88.18
36346,2018-06-29 09:03:47.812500,25.92,88.18
36347,2018-06-29 09:03:47.843750,27.15,88.18
36348,2018-06-29 09:03:47.875000,17.74,88.18
36349,2018-06-29 09:03:47.906250,-0.25,88.18
36350,2018-06-29 09:03:47.937500,-21.82,88.18
36351,2018-06-29 09:03:47.968750,-40.86,88.18
36352,2018-06-29 09:03:48.000000,-53.78,88.18
36353,2018-06-29 09:03:48.031250,-62.22,88.18
36354,2018-06-29 09:03:48.062500,-68.63,88.18
36355,2018-06-29 09:03:48.093750,-72.57,88.18
36356,2018-06-29 09:03:48.125000,-73.4,88.18
36357,2018-06-29 09:03:48.156250,-71.22,88.18
36358,2018-06-29 09:03:48.187500,-64.39,88.18
36359,2018-06-29 09:03:48.218750,-52.62,88.18
36360,2018-06-29 09:03:48.250000,-40.76,88.18
36361,2018-06-29 09:03:48.281250,-30.92,88.18
36362,2018-06-29 09:03:48.312500,-16.35,88.18
36363,2018-06-29 09:03:48.343750,6.34,88.18
36364,2018-06-29 09:03:48.375000,25.99,88.18
36365,2018-06-29 09:03:48.406250,29.19,88.18
36366,2018-06-29 09:03:48.437500,17.99,88.18
36367,2018-06-29 09:03:48.468750,6.71,88.18
36368,2018-06-29 09:03:48.500000,6.3,88.18
36369,2018-06-29 09:03:48.531250,18.3,88.25
36370,2018-06-29 09:03:48.562500,40.54,88.25
36371,2018-06-29 09:03:48.593750,69.89,88.25
36372,2018-06-29 09:03:48.625000,97.33,88.25
36373,2018-06-29 09:03:48.656250,112.46,88.25
36374,2018-06-29 09:03:48.687500,120.56,88.25
36375,2018-06-29 09:03:48.718750,140.36,88.25
36376,2018-06-29 09:03:48.750000,174.1,88.25
36377,2018-06-29 09:03:48.781250,196.75,88.25
36378,2018-06-29 09:03:48.812500,185.05,88.25
36379,2018-06-29 09:03:48.843750,140.89,88.25
36380,2018-06-29 09:03:48.875000,82.89,88.25
36381,2018-06-29 09:03:48.906250,31.24,88.25
36382,2018-06-29 09:03:48.937500,-2.57,88.25
36383,2018-06-29 09:03:48.968750,-23.75,88.25
36384,2018-06-29 09:03:49.000000,-42.27,88.25
36385,2018-06-29 09:03:49.031250,-52.15,88.25
36386,2018-06-29 09:03:49.062500,-45.92,88.25
36387,2018-06-29 09:03:49.093750,-42.08,88.25
36388,2018-06-29 09:03:49.125000,-59.25,88.25
36389,2018-06-29 09:03:49.156250,-76.89,88.25
36390,2018-06-29 09:03:49.187500,-66.94,88.25
36391,2018-06-29 09:03:49.218750,-43.17,88.25
36392,2018-06-29 09:03:49.250000,-36.8,88.25
36393,2018-06-29 09:03:49.281250,-50.22,88.25
36394,2018-06-29 09:03:49.312500,-68.27,88.25
36395,2018-06-29 09:03:49.343750,-84.68,88.25
36396,2018-06-29 09:03:49.375000,-95.56,88.25
36397,2018-06-29 09:03:49.406250,-91.75,88.25
36398,2018-06-29 09:03:49.437500,-69.39,88.25
36399,2018-06-29 09:03:49.468750,-36.11,88.25
36400,2018-06-29 09:03:49.500000,-4.56,88.25
36401,2018-06-29 09:03:49.531250,16.11,88.28
36402,2018-06-29 09:03:49.562500,22.9,88.28
36403,2018-06-29 09:03:49.593750,15.67,88.28
36404,2018-06-29 09:03:49.625000,-3.16,88.28
36405,2018-06-29 09:03:49.656250,-25.32,88.28
36406,2018-06-29 09:03:49.687500,-41.71,88.28
36407,2018-06-29 09:03:49.718750,-55.09,88.28
36408,2018-06-29 09:03:49.750000,-79.79,88.28
36409,2018-06-29 09:03:49.781250,-119.57,88.28
36410,2018-06-29 09:03:49.812500,-151.98,88.28
36411,2018-06-29 09:03:49.843750,-149.75,88.28
36412,2018-06-29 09:03:49.875000,-115.24,88.28
36413,2018-06-29 09:03:49.906250,-74.58,88.28
36414,2018-06-29 09:03:49.937500,-42.07,88.28
36415,2018-06-29 09:03:49.968750,-13.21,88.28
36416,2018-06-29 09:03:50.000000,14.43,88.28
36417,2018-06-29 09:03:50.031250,37.04,88.28
36418,2018-06-29 09:03:50.062500,51.72,88.28
36419,2018-06-29 09:03:50.093750,52.71,88.28
36420,2018-06-29 09:03:50.125000,36.56,88.28
36421,2018-06-29 09:03:50.156250,15.81,88.28
36422,2018-06-29 09:03:50.187500,6.07,88.28
36423,2018-06-29 09:03:50.218750,4.68,88.28
36424,2018-06-29 09:03:50.250000,4.62,88.28
36425,2018-06-29 09:03:50.281250,11.6,88.28
36426,2018-06-29 09:03:50.312500,25.11,88.28
36427,2018-06-29 09:03:50.343750,29.53,88.28
36428,2018-06-29 09:03:50.375000,20.38,88.28
36429,2018-06-29 09:03:50.406250,9.3,88.28
36430,2018-06-29 09:03:50.437500,-2.03,88.28
36431,2018-06-29 09:03:50.468750,-20.99,88.28
36432,2018-06-29 09:03:50.500000,-38.91,88.28
36433,2018-06-29 09:03:50.531250,-35.59,88.32
36434,2018-06-29 09:03:50.562500,-6.98,88.32
36435,2018-06-29 09:03:50.593750,31.32,88.32
36436,2018-06-29 09:03:50.625000,63.35,88.32
36437,2018-06-29 09:03:50.656250,78.42,88.32
36438,2018-06-29 09:03:50.687500,68.38,88.32
36439,2018-06-29 09:03:50.718750,39.39,88.32
36440,2018-06-29 09:03:50.750000,13.91,88.32
36441,2018-06-29 09:03:50.781250,5.1,88.32
36442,2018-06-29 09:03:50.812500,3.9,88.32
36443,2018-06-29 09:03:50.843750,-1.17,88.32
36444,2018-06-29 09:03:50.875000,-9.97,88.32
36445,2018-06-29 09:03:50.906250,-19.36,88.32
36446,2018-06-29 09:03:50.937500,-27.89,88.32
36447,2018-06-29 09:03:50.968750,-33.18,88.32
36448,2018-06-29 09:03:51.000000,-34.91,88.32
36449,2018-06-29 09:03:51.031250,-37.98,88.32
36450,2018-06-29 09:03:51.062500,-47.44,88.32
36451,2018-06-29 09:03:51.093750,-61.4,88.32
36452,2018-06-29 09:03:51.125000,-73.06,88.32
36453,2018-06-29 09:03:51.156250,-77.02,88.32
36454,2018-06-29 09:03:51.187500,-69.49,88.32
36455,2018-06-29 09:03:51.218750,-47.75,88.32
36456,2018-06-29 09:03:51.250000,-15.39,88.32
36457,2018-06-29 09:03:51.281250,18.13,88.32
36458,2018-06-29 09:03:51.312500,46.69,88.32
36459,2018-06-29 09:03:51.343750,69.04,88.32
36460,2018-06-29 09:03:51.375000,82.24,88.32
36461,2018-06-29 09:03:51.406250,83.9,88.32
36462,2018-06-29 09:03:51.437500,78.99,88.32
36463,2018-06-29 09:03:51.468750,75.65,88.32
36464,2018-06-29 09:03:51.500000,76.15,88.32
36465,2018-06-29 09:03:51.531250,77.37,88.25
36466,2018-06-29 09:03:51.562500,78.06,88.25
36467,2018-06-29 09:03:51.593750,81.59,88.25
36468,2018-06-29 09:03:51.625000,90.74,88.25
36469,2018-06-29 09:03:51.656250,102.97,88.25
36470,2018-06-29 09:03:51.687500,113.48,88.25
36471,2018-06-29 09:03:51.718750,120.85,88.25
36472,2018-06-29 09:03:51.750000,127.82,88.25
36473,2018-06-29 09:03:51.781250,138.9,88.25
36474,2018-06-29 09:03:51.812500,155.84,88.25
36475,2018-06-29 09:03:51.843750,171.07,88.25
36476,2018-06-29 09:03:51.875000,171.24,88.25
36477,2018-06-29 09:03:51.906250,154.27,88.25
36478,2018-06-29 09:03:51.937500,133.44,88.25
36479,2018-06-29 09:03:51.968750,116.01,88.25
36480,2018-06-29 09:03:52.000000,91.31,88.25
36481,2018-06-29 09:03:52.031250,50.01,88.25
36482,2018-06-29 09:03:52.062500,-1.81,88.25
36483,2018-06-29 09:03:52.093750,-55.05,88.25
36484,2018-06-29 09:03:52.125000,-105.0,88.25
36485,2018-06-29 09:03:52.156250,-144.33,88.25
36486,2018-06-29 09:03:52.187500,-166.95,88.25
36487,2018-06-29 09:03:52.218750,-176.94,88.25
36488,2018-06-29 09:03:52.250000,-181.72,88.25
36489,2018-06-29 09:03:52.281250,-182.84,88.25
36490,2018-06-29 09:03:52.312500,-179.53,88.25
36491,2018-06-29 09:03:52.343750,-173.48,88.25
36492,2018-06-29 09:03:52.375000,-166.72,88.25
36493,2018-06-29 09:03:52.406250,-158.42,88.25
36494,2018-06-29 09:03:52.437500,-146.23,88.25
36495,2018-06-29 09:03:52.468750,-128.42,88.25
36496,2018-06-29 09:03:52.500000,-101.29,88.25
36497,2018-06-29 09:03:52.531250,-59.84,88.2
36498,2018-06-29 09:03:52.562500,-8.31,88.2
36499,2018-06-29 09:03:52.593750,36.16,88.2
36500,2018-06-29 09:03:52.625000,59.41,88.2
36501,2018-06-29 09:03:52.656250,64.17,88.2
36502,2018-06-29 09:03:52.687500,63.06,88.2
36503,2018-06-29 09:03:52.718750,64.77,88.2
36504,2018-06-29 09:03:52.750000,70.11,88.2
36505,2018-06-29 09:03:52.781250,77.21,88.2
36506,2018-06-29 09:03:52.812500,87.65,88.2
36507,2018-06-29 09:03:52.843750,108.45,88.2
36508,2018-06-29 09:03:52.875000,147.93,88.2
36509,2018-06-29 09:03:52.906250,203.62,88.2
36510,2018-06-29 09:03:52.937500,252.58,88.2
36511,2018-06-29 09:03:52.968750,265.26,88.2
36512,2018-06-29 09:03:53.000000,232.69,88.2
36513,2018-06-29 09:03:53.031250,170.26,88.2
36514,2018-06-29 09:03:53.062500,98.45,88.2
36515,2018-06-29 09:03:53.093750,33.39,88.2
36516,2018-06-29 09:03:53.125000,-13.35,88.2
36517,2018-06-29 09:03:53.156250,-42.9,88.2
36518,2018-06-29 09:03:53.187500,-65.79,88.2
36519,2018-06-29 09:03:53.218750,-83.64,88.2
36520,2018-06-29 09:03:53.250000,-88.23,88.2
36521,2018-06-29 09:03:53.281250,-78.34,88.2
36522,2018-06-29 09:03:53.312500,-64.47,88.2
36523,2018-06-29 09:03:53.343750,-59.18,88.2
36524,2018-06-29 09:03:53.375000,-67.95,88.2
36525,2018-06-29 09:03:53.406250,-84.41,88.2
36526,2018-06-29 09:03:53.437500,-94.46,88.2
36527,2018-06-29 09:03:53.468750,-89.67,88.2
36528,2018-06-29 09:03:53.500000,-74.86,88.2
36529,2018-06-29 09:03:53.531250,-61.07,88.2
36530,2018-06-29 09:03:53.562500,-52.42,88.2
36531,2018-06-29 09:03:53.593750,-43.06,88.2
36532,2018-06-29 09:03:53.625000,-29.21,88.2
36533,2018-06-29 09:03:53.656250,-17.08,88.2
36534,2018-06-29 09:03:53.687500,-12.78,88.2
36535,2018-06-29 09:03:53.718750,-14.85,88.2
36536,2018-06-29 09:03:53.750000,-22.53,88.2
36537,2018-06-29 09:03:53.781250,-38.74,88.2
36538,2018-06-29 09:03:53.812500,-59.23,88.2
36539,2018-06-29 09:03:53.843750,-65.71,88.2
36540,2018-06-29 09:03:53.875000,-39.05,88.2
36541,2018-06-29 09:03:53.906250,15.83,88.2
36542,2018-06-29 09:03:53.937500,67.4,88.2
36543,2018-06-29 09:03:53.968750,89.31,88.2
36544,2018-06-29 09:03:54.000000,84.22,88.2
36545,2018-06-29 09:03:54.031250,65.61,88.2
36546,2018-06-29 09:03:54.062500,35.58,88.2
36547,2018-06-29 09:03:54.093750,-3.37,88.2
36548,2018-06-29 09:03:54.125000,-35.31,88.2
36549,2018-06-29 09:03:54.156250,-47.31,88.2
36550,2018-06-29 09:03:54.187500,-46.73,88.2
36551,2018-06-29 09:03:54.218750,-47.18,88.2
36552,2018-06-29 09:03:54.250000,-45.8,88.2
36553,2018-06-29 09:03:54.281250,-30.68,88.2
36554,2018-06-29 09:03:54.312500,-8.03,88.2
36555,2018-06-29 09:03:54.343750,-1.48,88.2
36556,2018-06-29 09:03:54.375000,-18.25,88.2
36557,2018-06-29 09:03:54.406250,-37.23,88.2
36558,2018-06-29 09:03:54.437500,-38.2,88.2
36559,2018-06-29 09:03:54.468750,-23.77,88.2
36560,2018-06-29 09:03:54.500000,-9.62,88.2
36561,2018-06-29 09:03:54.531250,-7.3,88.2
36562,2018-06-29 09:03:54.562500,-15.38,88.2
36563,2018-06-29 09:03:54.593750,-20.97,88.2
36564,2018-06-29 09:03:54.625000,-15.48,88.2
36565,2018-06-29 09:03:54.656250,-6.56,88.2
36566,2018-06-29 09:03:54.687500,-4.92,88.2
36567,2018-06-29 09:03:54.718750,-6.4,88.2
36568,2018-06-29 09:03:54.750000,-0.94,88.2
36569,2018-06-29 09:03:54.781250,6.89,88.2
36570,2018-06-29 09:03:54.812500,5.95,88.2
36571,2018-06-29 09:03:54.843750,3.26,88.2
36572,2018-06-29 09:03:54.875000,16.65,88.2
36573,2018-06-29 09:03:54.906250,44.15,88.2
36574,2018-06-29 09:03:54.937500,63.32,88.2
36575,2018-06-29 09:03:54.968750,57.56,88.2
36576,2018-06-29 09:03:55.000000,28.01,88.2
36577,2018-06-29 09:03:55.031250,-10.48,88.2
36578,2018-06-29 09:03:55.062500,-38.91,88.2
36579,2018-06-29 09:03:55.093750,-51.75,88.2
36580,2018-06-29 09:03:55.125000,-59.39,88.2
36581,2018-06-29 09:03:55.156250,-66.19,88.2
36582,2018-06-29 09:03:55.187500,-65.93,88.2
36583,2018-06-29 09:03:55.218750,-62.18,88.2
36584,2018-06-29 09:03:55.250000,-65.37,88.2
36585,2018-06-29 09:03:55.281250,-69.49,88.2
36586,2018-06-29 09:03:55.312500,-59.11,88.2
36587,2018-06-29 09:03:55.343750,-35.88,88.2
36588,2018-06-29 09:03:55.375000,-14.43,88.2
36589,2018-06-29 09:03:55.406250,2.12,88.2
36590,2018-06-29 09:03:55.437500,25.29,88.2
36591,2018-06-29 09:03:55.468750,67.01,88.2
36592,2018-06-29 09:03:55.500000,129.68,88.2
36593,2018-06-29 09:03:55.531250,196.59,88.13
36594,2018-06-29 09:03:55.562500,232.57,88.13
36595,2018-06-29 09:03:55.593750,216.49,88.13
36596,2018-06-29 09:03:55.625000,169.79,88.13
36597,2018-06-29 09:03:55.656250,129.09,88.13
36598,2018-06-29 09:03:55.687500,101.9,88.13
36599,2018-06-29 09:03:55.718750,70.54,88.13
36600,2018-06-29 09:03:55.750000,24.0,88.13
36601,2018-06-29 09:03:55.781250,-33.47,88.13
36602,2018-06-29 09:03:55.812500,-91.79,88.13
36603,2018-06-29 09:03:55.843750,-140.13,88.13
36604,2018-06-29 09:03:55.875000,-171.05,88.13
36605,2018-06-29 09:03:55.906250,-184.78,88.13
36606,2018-06-29 09:03:55.937500,-187.75,88.13
36607,2018-06-29 09:03:55.968750,-184.79,88.13
36608,2018-06-29 09:03:56.000000,-172.67,88.13
36609,2018-06-29 09:03:56.031250,-146.41,88.13
36610,2018-06-29 09:03:56.062500,-111.64,88.13
36611,2018-06-29 09:03:56.093750,-81.35,88.13
36612,2018-06-29 09:03:56.125000,-59.15,88.13
36613,2018-06-29 09:03:56.156250,-38.38,88.13
36614,2018-06-29 09:03:56.187500,-16.62,88.13
36615,2018-06-29 09:03:56.218750,0.26,88.13
36616,2018-06-29 09:03:56.250000,9.44,88.13
36617,2018-06-29 09:03:56.281250,13.85,88.13
36618,2018-06-29 09:03:56.312500,14.18,88.13
36619,2018-06-29 09:03:56.343750,9.3,88.13
36620,2018-06-29 09:03:56.375000,1.34,88.13
36621,2018-06-29 09:03:56.406250,-4.43,88.13
36622,2018-06-29 09:03:56.437500,-8.6,88.13
36623,2018-06-29 09:03:56.468750,-13.53,88.13
36624,2018-06-29 09:03:56.500000,-18.38,88.13
36625,2018-06-29 09:03:56.531250,-20.41,88.08
36626,2018-06-29 09:03:56.562500,-19.45,88.08
36627,2018-06-29 09:03:56.593750,-16.98,88.08
36628,2018-06-29 09:03:56.625000,-10.43,88.08
36629,2018-06-29 09:03:56.656250,4.99,88.08
36630,2018-06-29 09:03:56.687500,36.68,88.08
36631,2018-06-29 09:03:56.718750,80.74,88.08
36632,2018-06-29 09:03:56.750000,125.57,88.08
36633,2018-06-29 09:03:56.781250,170.89,88.08
36634,2018-06-29 09:03:56.812500,197.59,88.08
36635,2018-06-29 09:03:56.843750,200.37,88.08
36636,2018-06-29 09:03:56.875000,183.42,88.08
36637,2018-06-29 09:03:56.906250,149.34,88.08
36638,2018-06-29 09:03:56.937500,106.41,88.08
36639,2018-06-29 09:03:56.968750,64.18,88.08
36640,2018-06-29 09:03:57.000000,21.14,88.08
36641,2018-06-29 09:03:57.031250,-28.51,88.08
36642,2018-06-29 09:03:57.062500,-82.87,88.08
36643,2018-06-29 09:03:57.093750,-130.55,88.08
36644,2018-06-29 09:03:57.125000,-161.28,88.08
36645,2018-06-29 09:03:57.156250,-174.52,88.08
36646,2018-06-29 09:03:57.187500,-173.57,88.08
36647,2018-06-29 09:03:57.218750,-162.73,88.08
36648,2018-06-29 09:03:57.250000,-145.71,88.08
36649,2018-06-29 09:03:57.281250,-126.93,88.08
36650,2018-06-29 09:03:57.312500,-109.0,88.08
36651,2018-06-29 09:03:57.343750,-92.08,88.08
36652,2018-06-29 09:03:57.375000,-74.06,88.08
36653,2018-06-29 09:03:57.406250,-51.0,88.08
36654,2018-06-29 09:03:57.437500,-21.26,88.08
36655,2018-06-29 09:03:57.468750,12.33,88.08
36656,2018-06-29 09:03:57.500000,43.98,88.08
36657,2018-06-29 09:03:57.531250,68.28,88.02
36658,2018-06-29 09:03:57.562500,80.86,88.02
36659,2018-06-29 09:03:57.593750,79.88,88.02
36660,2018-06-29 09:03:57.625000,68.58,88.02
36661,2018-06-29 09:03:57.656250,54.89,88.02
36662,2018-06-29 09:03:57.687500,46.06,88.02
36663,2018-06-29 09:03:57.718750,42.74,88.02
36664,2018-06-29 09:03:57.750000,40.27,88.02
36665,2018-06-29 09:03:57.781250,35.91,88.02
36666,2018-06-29 09:03:57.812500,32.14,88.02
36667,2018-06-29 09:03:57.843750,32.71,88.02
36668,2018-06-29 09:03:57.875000,37.02,88.02
36669,2018-06-29 09:03:57.906250,39.44,88.02
36670,2018-06-29 09:03:57.937500,34.91,88.02
36671,2018-06-29 09:03:57.968750,26.53,88.02
36672,2018-06-29 09:03:58.000000,25.02,88.02
36673,2018-06-29 09:03:58.031250,35.98,88.02
36674,2018-06-29 09:03:58.062500,49.3,88.02
36675,2018-06-29 09:03:58.093750,48.48,88.02
36676,2018-06-29 09:03:58.125000,29.79,88.02
36677,2018-06-29 09:03:58.156250,4.94,88.02
36678,2018-06-29 09:03:58.187500,-14.82,88.02
36679,2018-06-29 09:03:58.218750,-27.65,88.02
36680,2018-06-29 09:03:58.250000,-33.21,88.02
36681,2018-06-29 09:03:58.281250,-29.66,88.02
36682,2018-06-29 09:03:58.312500,-21.24,88.02
36683,2018-06-29 09:03:58.343750,-15.04,88.02
36684,2018-06-29 09:03:58.375000,-9.75,88.02
36685,2018-06-29 09:03:58.406250,1.23,88.02
36686,2018-06-29 09:03:58.437500,16.5,88.02
36687,2018-06-29 09:03:58.468750,25.26,88.02
36688,2018-06-29 09:03:58.500000,18.46,88.02
36689,2018-06-29 09:03:58.531250,-1.49,87.97
36690,2018-06-29 09:03:58.562500,-21.91,87.97
36691,2018-06-29 09:03:58.593750,-30.97,87.97
36692,2018-06-29 09:03:58.625000,-27.21,87.97
36693,2018-06-29 09:03:58.656250,-19.37,87.97
36694,2018-06-29 09:03:58.687500,-16.94,87.97
36695,2018-06-29 09:03:58.718750,-18.14,87.97
36696,2018-06-29 09:03:58.750000,-11.0,87.97
36697,2018-06-29 09:03:58.781250,10.78,87.97
36698,2018-06-29 09:03:58.812500,37.6,87.97
36699,2018-06-29 09:03:58.843750,53.96,87.97
36700,2018-06-29 09:03:58.875000,54.37,87.97
36701,2018-06-29 09:03:58.906250,44.9,87.97
36702,2018-06-29 09:03:58.937500,34.4,87.97
36703,2018-06-29 09:03:58.968750,28.5,87.97
36704,2018-06-29 09:03:59.000000,26.43,87.97
36705,2018-06-29 09:03:59.031250,22.34,87.97
36706,2018-06-29 09:03:59.062500,13.74,87.97
36707,2018-06-29 09:03:59.093750,5.14,87.97
36708,2018-06-29 09:03:59.125000,0.57,87.97
36709,2018-06-29 09:03:59.156250,-2.7,87.97
36710,2018-06-29 09:03:59.187500,-10.76,87.97
36711,2018-06-29 09:03:59.218750,-25.66,87.97
36712,2018-06-29 09:03:59.250000,-40.4,87.97
36713,2018-06-29 09:03:59.281250,-43.94,87.97
36714,2018-06-29 09:03:59.312500,-34.4,87.97
36715,2018-06-29 09:03:59.343750,-21.82,87.97
36716,2018-06-29 09:03:59.375000,-15.28,87.97
36717,2018-06-29 09:03:59.406250,-11.05,87.97
36718,2018-06-29 09:03:59.437500,5.65,87.97
36719,2018-06-29 09:03:59.468750,46.51,87.97
36720,2018-06-29 09:03:59.500000,100.21,87.97
36721,2018-06-29 09:03:59.531250,132.01,87.9
36722,2018-06-29 09:03:59.562500,119.4,87.9
36723,2018-06-29 09:03:59.593750,81.22,87.9
36724,2018-06-29 09:03:59.625000,50.95,87.9
36725,2018-06-29 09:03:59.656250,32.56,87.9
36726,2018-06-29 09:03:59.687500,7.35,87.9
36727,2018-06-29 09:03:59.718750,-29.17,87.9
36728,2018-06-29 09:03:59.750000,-62.69,87.9
36729,2018-06-29 09:03:59.781250,-82.96,87.9
36730,2018-06-29 09:03:59.812500,-91.32,87.9
36731,2018-06-29 09:03:59.843750,-91.06,87.9
36732,2018-06-29 09:03:59.875000,-83.21,87.9
36733,2018-06-29 09:03:59.906250,-69.83,87.9
36734,2018-06-29 09:03:59.937500,-54.35,87.9
36735,2018-06-29 09:03:59.968750,-39.84,87.9
36736,2018-06-29 09:04:00.000000,-29.43,87.9
36737,2018-06-29 09:04:00.031250,-26.75,87.9
36738,2018-06-29 09:04:00.062500,-32.96,87.9
36739,2018-06-29 09:04:00.093750,-43.8,87.9
36740,2018-06-29 09:04:00.125000,-52.97,87.9
36741,2018-06-29 09:04:00.156250,-57.77,87.9
36742,2018-06-29 09:04:00.187500,-57.39,87.9
36743,2018-06-29 09:04:00.218750,-48.82,87.9
36744,2018-06-29 09:04:00.250000,-31.81,87.9
36745,2018-06-29 09:04:00.281250,-15.05,87.9
36746,2018-06-29 09:04:00.312500,-6.94,87.9
36747,2018-06-29 09:04:00.343750,0.51,87.9
36748,2018-06-29 09:04:00.375000,29.95,87.9
36749,2018-06-29 09:04:00.406250,93.85,87.9
36750,2018-06-29 09:04:00.437500,169.74,87.9
36751,2018-06-29 09:04:00.468750,211.01,87.9
36752,2018-06-29 09:04:00.500000,195.17,87.9
36753,2018-06-29 09:04:00.531250,149.73,87.75
36754,2018-06-29 09:04:00.562500,113.37,87.75
36755,2018-06-29 09:04:00.593750,89.14,87.75
36756,2018-06-29 09:04:00.625000,55.89,87.75
36757,2018-06-29 09:04:00.656250,7.1,87.75
36758,2018-06-29 09:04:00.687500,-45.99,87.75
36759,2018-06-29 09:04:00.718750,-92.4,87.75
36760,2018-06-29 09:04:00.750000,-120.93,87.75
36761,2018-06-29 09:04:00.781250,-119.32,87.75
36762,2018-06-29 09:04:00.812500,-91.97,87.75
36763,2018-06-29 09:04:00.843750,-62.59,87.75
36764,2018-06-29 09:04:00.875000,-48.49,87.75
36765,2018-06-29 09:04:00.906250,-47.15,87.75
36766,2018-06-29 09:04:00.937500,-51.61,87.75
36767,2018-06-29 09:04:00.968750,-61.29,87.75
36768,2018-06-29 09:04:01.000000,-75.33,87.75
36769,2018-06-29 09:04:01.031250,-88.31,87.75
36770,2018-06-29 09:04:01.062500,-94.74,87.75
36771,2018-06-29 09:04:01.093750,-92.75,87.75
36772,2018-06-29 09:04:01.125000,-83.59,87.75
36773,2018-06-29 09:04:01.156250,-70.21,87.75
36774,2018-06-29 09:04:01.187500,-55.02,87.75
36775,2018-06-29 09:04:01.218750,-37.41,87.75
36776,2018-06-29 09:04:01.250000,-16.12,87.75
36777,2018-06-29 09:04:01.281250,6.29,87.75
36778,2018-06-29 09:04:01.312500,27.13,87.75
36779,2018-06-29 09:04:01.343750,51.11,87.75
36780,2018-06-29 09:04:01.375000,88.55,87.75
36781,2018-06-29 09:04:01.406250,143.22,87.75
36782,2018-06-29 09:04:01.437500,201.46,87.75
36783,2018-06-29 09:04:01.468750,237.56,87.75
36784,2018-06-29 09:04:01.500000,236.9,87.75
36785,2018-06-29 09:04:01.531250,208.88,87.72
36786,2018-06-29 09:04:01.562500,170.88,87.72
36787,2018-06-29 09:04:01.593750,131.45,87.72
36788,2018-06-29 09:04:01.625000,91.88,87.72
36789,2018-06-29 09:04:01.656250,48.37,87.72
36790,2018-06-29 09:04:01.687500,-6.03,87.72
36791,2018-06-29 09:04:01.718750,-68.6,87.72
36792,2018-06-29 09:04:01.750000,-123.45,87.72
36793,2018-06-29 09:04:01.781250,-159.07,87.72
36794,2018-06-29 09:04:01.812500,-178.23,87.72
36795,2018-06-29 09:04:01.843750,-186.71,87.72
36796,2018-06-29 09:04:01.875000,-183.99,87.72
36797,2018-06-29 09:04:01.906250,-168.06,87.72
36798,2018-06-29 09:04:01.937500,-142.15,87.72
36799,2018-06-29 09:04:01.968750,-113.04,87.72
36800,2018-06-29 09:04:02.000000,-85.97,87.72
36801,2018-06-29 09:04:02.031250,-62.36,87.72
36802,2018-06-29 09:04:02.062500,-40.54,87.72
36803,2018-06-29 09:04:02.093750,-19.05,87.72
36804,2018-06-29 09:04:02.125000,0.52,87.72
36805,2018-06-29 09:04:02.156250,15.22,87.72
36806,2018-06-29 09:04:02.187500,23.63,87.72
36807,2018-06-29 09:04:02.218750,25.89,87.72
36808,2018-06-29 09:04:02.250000,23.9,87.72
36809,2018-06-29 09:04:02.281250,21.24,87.72
36810,2018-06-29 09:04:02.312500,19.64,87.72
36811,2018-06-29 09:04:02.343750,16.96,87.72
36812,2018-06-29 09:04:02.375000,11.78,87.72
36813,2018-06-29 09:04:02.406250,7.39,87.72
36814,2018-06-29 09:04:02.437500,6.9,87.72
36815,2018-06-29 09:04:02.468750,6.69,87.72
36816,2018-06-29 09:04:02.500000,0.3,87.72
36817,2018-06-29 09:04:02.531250,-12.91,87.68
36818,2018-06-29 09:04:02.562500,-26.76,87.68
36819,2018-06-29 09:04:02.593750,-33.96,87.68
36820,2018-06-29 09:04:02.625000,-32.14,87.68
36821,2018-06-29 09:04:02.656250,-25.45,87.68
36822,2018-06-29 09:04:02.687500,-18.56,87.68
36823,2018-06-29 09:04:02.718750,-9.45,87.68
36824,2018-06-29 09:04:02.750000,8.01,87.68
36825,2018-06-29 09:04:02.781250,32.9,87.68
36826,2018-06-29 09:04:02.812500,52.15,87.68
36827,2018-06-29 09:04:02.843750,53.37,87.68
36828,2018-06-29 09:04:02.875000,40.21,87.68
36829,2018-06-29 09:04:02.906250,24.29,87.68
36830,2018-06-29 09:04:02.937500,7.59,87.68
36831,2018-06-29 09:04:02.968750,-9.93,87.68
36832,2018-06-29 09:04:03.000000,-17.93,87.68
36833,2018-06-29 09:04:03.031250,-12.97,87.68
36834,2018-06-29 09:04:03.062500,-7.39,87.68
36835,2018-06-29 09:04:03.093750,-4.17,87.68
36836,2018-06-29 09:04:03.125000,6.42,87.68
36837,2018-06-29 09:04:03.156250,20.25,87.68
36838,2018-06-29 09:04:03.187500,23.15,87.68
36839,2018-06-29 09:04:03.218750,15.97,87.68
36840,2018-06-29 09:04:03.250000,8.37,87.68
36841,2018-06-29 09:04:03.281250,1.71,87.68
36842,2018-06-29 09:04:03.312500,-4.24,87.68
36843,2018-06-29 09:04:03.343750,-5.14,87.68
36844,2018-06-29 09:04:03.375000,0.33,87.68
36845,2018-06-29 09:04:03.406250,10.12,87.68
36846,2018-06-29 09:04:03.437500,24.6,87.68
36847,2018-06-29 09:04:03.468750,44.1,87.68
36848,2018-06-29 09:04:03.500000,62.42,87.68
36849,2018-06-29 09:04:03.531250,67.37,87.65
36850,2018-06-29 09:04:03.562500,51.75,87.65
36851,2018-06-29 09:04:03.593750,24.36,87.65
36852,2018-06-29 09:04:03.625000,4.29,87.65
36853,2018-06-29 09:04:03.656250,2.05,87.65
36854,2018-06-29 09:04:03.687500,9.92,87.65
36855,2018-06-29 09:04:03.718750,13.04,87.65
36856,2018-06-29 09:04:03.750000,6.45,87.65
36857,2018-06-29 09:04:03.781250,-3.0,87.65
36858,2018-06-29 09:04:03.812500,-9.03,87.65
36859,2018-06-29 09:04:03.843750,-14.23,87.65
36860,2018-06-29 09:04:03.875000,-24.55,87.65
36861,2018-06-29 09:04:03.906250,-40.29,87.65
36862,2018-06-29 09:04:03.937500,-55.13,87.65
36863,2018-06-29 09:04:03.968750,-61.81,87.65
36864,2018-06-29 09:04:04.000000,-59.14,87.65
36865,2018-06-29 09:04:04.031250,-52.86,87.65
36866,2018-06-29 09:04:04.062500,-45.21,87.65
36867,2018-06-29 09:04:04.093750,-25.94,87.65
36868,2018-06-29 09:04:04.125000,15.36,87.65
36869,2018-06-29 09:04:04.156250,66.55,87.65
36870,2018-06-29 09:04:04.187500,97.38,87.65
36871,2018-06-29 09:04:04.218750,92.86,87.65
36872,2018-06-29 09:04:04.250000,67.89,87.65
36873,2018-06-29 09:04:04.281250,44.03,87.65
36874,2018-06-29 09:04:04.312500,27.52,87.65
36875,2018-06-29 09:04:04.343750,14.09,87.65
36876,2018-06-29 09:04:04.375000,0.34,87.65
36877,2018-06-29 09:04:04.406250,-13.53,87.65
36878,2018-06-29 09:04:04.437500,-22.66,87.65
36879,2018-06-29 09:04:04.468750,-20.65,87.65
36880,2018-06-29 09:04:04.500000,-9.44,87.65
36881,2018-06-29 09:04:04.531250,-0.78,87.62
36882,2018-06-29 09:04:04.562500,-4.2,87.62
36883,2018-06-29 09:04:04.593750,-18.39,87.62
36884,2018-06-29 09:04:04.625000,-33.94,87.62
36885,2018-06-29 09:04:04.656250,-41.35,87.62
36886,2018-06-29 09:04:04.687500,-40.02,87.62
36887,2018-06-29 09:04:04.718750,-40.27,87.62
36888,2018-06-29 09:04:04.750000,-51.09,87.62
36889,2018-06-29 09:04:04.781250,-66.61,87.62
36890,2018-06-29 09:04:04.812500,-72.2,87.62
36891,2018-06-29 09:04:04.843750,-62.05,87.62
36892,2018-06-29 09:04:04.875000,-42.57,87.62
36893,2018-06-29 09:04:04.906250,-22.49,87.62
36894,2018-06-29 09:04:04.937500,-7.66,87.62
36895,2018-06-29 09:04:04.968750,0.66,87.62
36896,2018-06-29 09:04:05.000000,8.23,87.62
36897,2018-06-29 09:04:05.031250,20.36,87.62
36898,2018-06-29 09:04:05.062500,32.05,87.62
36899,2018-06-29 09:04:05.093750,36.58,87.62
36900,2018-06-29 09:04:05.125000,37.94,87.62
36901,2018-06-29 09:04:05.156250,41.41,87.62
36902,2018-06-29 09:04:05.187500,42.08,87.62
36903,2018-06-29 09:04:05.218750,34.59,87.62
36904,2018-06-29 09:04:05.250000,23.19,87.62
36905,2018-06-29 09:04:05.281250,14.69,87.62
36906,2018-06-29 09:04:05.312500,11.24,87.62
36907,2018-06-29 09:04:05.343750,12.36,87.62
36908,2018-06-29 09:04:05.375000,18.37,87.62
36909,2018-06-29 09:04:05.406250,33.88,87.62
36910,2018-06-29 09:04:05.437500,68.09,87.62
36911,2018-06-29 09:04:05.468750,122.23,87.62
36912,2018-06-29 09:04:05.500000,173.32,87.62
36913,2018-06-29 09:04:05.531250,187.03,87.62
36914,2018-06-29 09:04:05.562500,155.87,87.62
36915,2018-06-29 09:04:05.593750,107.03,87.62
36916,2018-06-29 09:04:05.625000,67.79,87.62
36917,2018-06-29 09:04:05.656250,39.56,87.62
36918,2018-06-29 09:04:05.687500,11.21,87.62
36919,2018-06-29 09:04:05.718750,-21.46,87.62
36920,2018-06-29 09:04:05.750000,-56.26,87.62
36921,2018-06-29 09:04:05.781250,-87.12,87.62
36922,2018-06-29 09:04:05.812500,-100.75,87.62
36923,2018-06-29 09:04:05.843750,-87.63,87.62
36924,2018-06-29 09:04:05.875000,-60.71,87.62
36925,2018-06-29 09:04:05.906250,-40.33,87.62
36926,2018-06-29 09:04:05.937500,-32.02,87.62
36927,2018-06-29 09:04:05.968750,-29.51,87.62
36928,2018-06-29 09:04:06.000000,-30.78,87.62
36929,2018-06-29 09:04:06.031250,-33.84,87.62
36930,2018-06-29 09:04:06.062500,-33.75,87.62
36931,2018-06-29 09:04:06.093750,-34.76,87.62
36932,2018-06-29 09:04:06.125000,-39.94,87.62
36933,2018-06-29 09:04:06.156250,-45.34,87.62
36934,2018-06-29 09:04:06.187500,-38.08,87.62
36935,2018-06-29 09:04:06.218750,-19.27,87.62
36936,2018-06-29 09:04:06.250000,1.58,87.62
36937,2018-06-29 09:04:06.281250,22.67,87.62
36938,2018-06-29 09:04:06.312500,55.9,87.62
36939,2018-06-29 09:04:06.343750,117.01,87.62
36940,2018-06-29 09:04:06.375000,196.77,87.62
36941,2018-06-29 09:04:06.406250,269.44,87.62
36942,2018-06-29 09:04:06.437500,258.92,87.62
36943,2018-06-29 09:04:06.468750,136.5,87.62
36944,2018-06-29 09:04:06.500000,12.95,87.62
36945,2018-06-29 09:04:06.531250,-60.43,87.65
36946,2018-06-29 09:04:06.562500,-91.47,87.65
36947,2018-06-29 09:04:06.593750,-81.38,87.65
36948,2018-06-29 09:04:06.625000,-44.34,87.65
36949,2018-06-29 09:04:06.656250,-32.12,87.65
36950,2018-06-29 09:04:06.687500,-71.04,87.65
36951,2018-06-29 09:04:06.718750,-126.45,87.65
36952,2018-06-29 09:04:06.750000,-148.56,87.65
36953,2018-06-29 09:04:06.781250,-152.43,87.65
36954,2018-06-29 09:04:06.812500,-158.83,87.65
36955,2018-06-29 09:04:06.843750,-162.39,87.65
36956,2018-06-29 09:04:06.875000,-153.2,87.65
36957,2018-06-29 09:04:06.906250,-132.59,87.65
36958,2018-06-29 09:04:06.937500,-106.13,87.65
36959,2018-06-29 09:04:06.968750,-75.29,87.65
36960,2018-06-29 09:04:07.000000,-42.17,87.65
36961,2018-06-29 09:04:07.031250,-12.34,87.65
36962,2018-06-29 09:04:07.062500,9.99,87.65
36963,2018-06-29 09:04:07.093750,24.9,87.65
36964,2018-06-29 09:04:07.125000,35.61,87.65
36965,2018-06-29 09:04:07.156250,43.83,87.65
36966,2018-06-29 09:04:07.187500,50.72,87.65
36967,2018-06-29 09:04:07.218750,56.22,87.65
36968,2018-06-29 09:04:07.250000,59.17,87.65
36969,2018-06-29 09:04:07.281250,59.56,87.65
36970,2018-06-29 09:04:07.312500,56.53,87.65
36971,2018-06-29 09:04:07.343750,48.32,87.65
36972,2018-06-29 09:04:07.375000,34.82,87.65
36973,2018-06-29 09:04:07.406250,20.15,87.65
36974,2018-06-29 09:04:07.437500,9.04,87.65
36975,2018-06-29 09:04:07.468750,1.64,87.65
36976,2018-06-29 09:04:07.500000,-5.84,87.65
36977,2018-06-29 09:04:07.531250,-14.64,87.62
36978,2018-06-29 09:04:07.562500,-20.01,87.62
36979,2018-06-29 09:04:07.593750,-16.85,87.62
36980,2018-06-29 09:04:07.625000,-6.38,87.62
36981,2018-06-29 09:04:07.656250,5.77,87.62
36982,2018-06-29 09:04:07.687500,16.8,87.62
36983,2018-06-29 09:04:07.718750,28.62,87.62
36984,2018-06-29 09:04:07.750000,42.63,87.62
36985,2018-06-29 09:04:07.781250,54.54,87.62
36986,2018-06-29 09:04:07.812500,56.38,87.62
36987,2018-06-29 09:04:07.843750,47.75,87.62
36988,2018-06-29 09:04:07.875000,43.56,87.62
36989,2018-06-29 09:04:07.906250,60.58,87.62
36990,2018-06-29 09:04:07.937500,92.04,87.62
36991,2018-06-29 09:04:07.968750,107.02,87.62
36992,2018-06-29 09:04:08.000000,83.06,87.62
36993,2018-06-29 09:04:08.031250,30.46,87.62
36994,2018-06-29 09:04:08.062500,-22.7,87.62
36995,2018-06-29 09:04:08.093750,-57.95,87.62
36996,2018-06-29 09:04:08.125000,-72.95,87.62
36997,2018-06-29 09:04:08.156250,-77.53,87.62
36998,2018-06-29 09:04:08.187500,-87.59,87.62
36999,2018-06-29 09:04:08.218750,-106.08,87.62
37000,2018-06-29 09:04:08.250000,-113.91,87.62
37001,2018-06-29 09:04:08.281250,-95.38,87.62
37002,2018-06-29 09:04:08.312500,-63.23,87.62
37003,2018-06-29 09:04:08.343750,-42.26,87.62
37004,2018-06-29 09:04:08.375000,-36.01,87.62
37005,2018-06-29 09:04:08.406250,-26.22,87.62
37006,2018-06-29 09:04:08.437500,-3.67,87.62
37007,2018-06-29 09:04:08.468750,17.92,87.62
37008,2018-06-29 09:04:08.500000,26.17,87.62
37009,2018-06-29 09:04:08.531250,30.89,87.55
37010,2018-06-29 09:04:08.562500,49.84,87.55
37011,2018-06-29 09:04:08.593750,87.75,87.55
37012,2018-06-29 09:04:08.625000,133.0,87.55
37013,2018-06-29 09:04:08.656250,163.24,87.55
37014,2018-06-29 09:04:08.687500,160.1,87.55
37015,2018-06-29 09:04:08.718750,129.62,87.55
37016,2018-06-29 09:04:08.750000,95.67,87.55
37017,2018-06-29 09:04:08.781250,68.59,87.55
37018,2018-06-29 09:04:08.812500,40.24,87.55
37019,2018-06-29 09:04:08.843750,7.1,87.55
37020,2018-06-29 09:04:08.875000,-26.5,87.55
37021,2018-06-29 09:04:08.906250,-62.83,87.55
37022,2018-06-29 09:04:08.937500,-104.31,87.55
37023,2018-06-29 09:04:08.968750,-137.67,87.55
37024,2018-06-29 09:04:09.000000,-143.53,87.55
37025,2018-06-29 09:04:09.031250,-121.76,87.55
37026,2018-06-29 09:04:09.062500,-93.21,87.55
37027,2018-06-29 09:04:09.093750,-73.5,87.55
37028,2018-06-29 09:04:09.125000,-57.45,87.55
37029,2018-06-29 09:04:09.156250,-34.11,87.55
37030,2018-06-29 09:04:09.187500,-3.21,87.55
37031,2018-06-29 09:04:09.218750,27.36,87.55
37032,2018-06-29 09:04:09.250000,44.24,87.55
37033,2018-06-29 09:04:09.281250,36.96,87.55
37034,2018-06-29 09:04:09.312500,18.05,87.55
37035,2018-06-29 09:04:09.343750,13.2,87.55
37036,2018-06-29 09:04:09.375000,22.15,87.55
37037,2018-06-29 09:04:09.406250,23.56,87.55
37038,2018-06-29 09:04:09.437500,17.42,87.55
37039,2018-06-29 09:04:09.468750,16.59,87.55
37040,2018-06-29 09:04:09.500000,16.67,87.55
37041,2018-06-29 09:04:09.531250,4.4,87.47
37042,2018-06-29 09:04:09.562500,-18.39,87.47
37043,2018-06-29 09:04:09.593750,-43.51,87.47
37044,2018-06-29 09:04:09.625000,-64.82,87.47
37045,2018-06-29 09:04:09.656250,-73.21,87.47
37046,2018-06-29 09:04:09.687500,-66.47,87.47
37047,2018-06-29 09:04:09.718750,-47.87,87.47
37048,2018-06-29 09:04:09.750000,-21.97,87.47
37049,2018-06-29 09:04:09.781250,15.51,87.47
37050,2018-06-29 09:04:09.812500,65.42,87.47
37051,2018-06-29 09:04:09.843750,119.17,87.47
37052,2018-06-29 09:04:09.875000,159.01,87.47
37053,2018-06-29 09:04:09.906250,155.07,87.47
37054,2018-06-29 09:04:09.937500,129.35,87.47
37055,2018-06-29 09:04:09.968750,107.37,87.47
37056,2018-06-29 09:04:10.000000,90.34,87.47
37057,2018-06-29 09:04:10.031250,73.25,87.47
37058,2018-06-29 09:04:10.062500,49.7,87.47
37059,2018-06-29 09:04:10.093750,13.65,87.47
37060,2018-06-29 09:04:10.125000,-31.94,87.47
37061,2018-06-29 09:04:10.156250,-76.75,87.47
37062,2018-06-29 09:04:10.187500,-112.55,87.47
37063,2018-06-29 09:04:10.218750,-138.87,87.47
37064,2018-06-29 09:04:10.250000,-164.8,87.47
37065,2018-06-29 09:04:10.281250,-188.19,87.47
37066,2018-06-29 09:04:10.312500,-193.96,87.47
37067,2018-06-29 09:04:10.343750,-168.0,87.47
37068,2018-06-29 09:04:10.375000,-114.19,87.47
37069,2018-06-29 09:04:10.406250,-48.89,87.47
37070,2018-06-29 09:04:10.437500,9.56,87.47
37071,2018-06-29 09:04:10.468750,48.84,87.47
37072,2018-06-29 09:04:10.500000,72.18,87.47
37073,2018-06-29 09:04:10.531250,88.24,87.4
37074,2018-06-29 09:04:10.562500,92.83,87.4
37075,2018-06-29 09:04:10.593750,75.04,87.4
37076,2018-06-29 09:04:10.625000,41.99,87.4
37077,2018-06-29 09:04:10.656250,12.27,87.4
37078,2018-06-29 09:04:10.687500,-7.24,87.4
37079,2018-06-29 09:04:10.718750,-18.71,87.4
37080,2018-06-29 09:04:10.750000,-19.67,87.4
37081,2018-06-29 09:04:10.781250,-8.08,87.4
37082,2018-06-29 09:04:10.812500,6.76,87.4
37083,2018-06-29 09:04:10.843750,12.22,87.4
37084,2018-06-29 09:04:10.875000,9.89,87.4
37085,2018-06-29 09:04:10.906250,12.88,87.4
37086,2018-06-29 09:04:10.937500,27.03,87.4
37087,2018-06-29 09:04:10.968750,49.38,87.4
37088,2018-06-29 09:04:11.000000,74.01,87.4
37089,2018-06-29 09:04:11.031250,86.22,87.4
37090,2018-06-29 09:04:11.062500,75.76,87.4
37091,2018-06-29 09:04:11.093750,59.7,87.4
37092,2018-06-29 09:04:11.125000,55.83,87.4
37093,2018-06-29 09:04:11.156250,46.58,87.4
37094,2018-06-29 09:04:11.187500,11.11,87.4
37095,2018-06-29 09:04:11.218750,-34.55,87.4
37096,2018-06-29 09:04:11.250000,-65.19,87.4
37097,2018-06-29 09:04:11.281250,-78.75,87.4
37098,2018-06-29 09:04:11.312500,-79.93,87.4
37099,2018-06-29 09:04:11.343750,-66.76,87.4
37100,2018-06-29 09:04:11.375000,-45.07,87.4
37101,2018-06-29 09:04:11.406250,-30.11,87.4
37102,2018-06-29 09:04:11.437500,-28.25,87.4
37103,2018-06-29 09:04:11.468750,-30.34,87.4
37104,2018-06-29 09:04:11.500000,-23.11,87.4
37105,2018-06-29 09:04:11.531250,0.61,87.33
37106,2018-06-29 09:04:11.562500,38.76,87.33
37107,2018-06-29 09:04:11.593750,81.14,87.33
37108,2018-06-29 09:04:11.625000,113.89,87.33
37109,2018-06-29 09:04:11.656250,125.9,87.33
37110,2018-06-29 09:04:11.687500,115.02,87.33
37111,2018-06-29 09:04:11.718750,90.86,87.33
37112,2018-06-29 09:04:11.750000,67.14,87.33
37113,2018-06-29 09:04:11.781250,48.12,87.33
37114,2018-06-29 09:04:11.812500,26.64,87.33
37115,2018-06-29 09:04:11.843750,-3.65,87.33
37116,2018-06-29 09:04:11.875000,-40.06,87.33
37117,2018-06-29 09:04:11.906250,-74.3,87.33
37118,2018-06-29 09:04:11.937500,-99.25,87.33
37119,2018-06-29 09:04:11.968750,-112.57,87.33
37120,2018-06-29 09:04:12.000000,-116.87,87.33
37121,2018-06-29 09:04:12.031250,-116.67,87.33
37122,2018-06-29 09:04:12.062500,-114.19,87.33
37123,2018-06-29 09:04:12.093750,-108.33,87.33
37124,2018-06-29 09:04:12.125000,-96.93,87.33
37125,2018-06-29 09:04:12.156250,-79.97,87.33
37126,2018-06-29 09:04:12.187500,-62.55,87.33
37127,2018-06-29 09:04:12.218750,-50.23,87.33
37128,2018-06-29 09:04:12.250000,-39.8,87.33
37129,2018-06-29 09:04:12.281250,-23.69,87.33
37130,2018-06-29 09:04:12.312500,-4.04,87.33
37131,2018-06-29 09:04:12.343750,8.95,87.33
37132,2018-06-29 09:04:12.375000,11.39,87.33
37133,2018-06-29 09:04:12.406250,7.98,87.33
37134,2018-06-29 09:04:12.437500,3.56,87.33
37135,2018-06-29 09:04:12.468750,0.56,87.33
37136,2018-06-29 09:04:12.500000,0.4,87.33
37137,2018-06-29 09:04:12.531250,3.07,87.32
37138,2018-06-29 09:04:12.562500,6.41,87.32
37139,2018-06-29 09:04:12.593750,8.43,87.32
37140,2018-06-29 09:04:12.625000,11.3,87.32
37141,2018-06-29 09:04:12.656250,18.86,87.32
37142,2018-06-29 09:04:12.687500,27.88,87.32
37143,2018-06-29 09:04:12.718750,32.16,87.32
37144,2018-06-29 09:04:12.750000,36.75,87.32
37145,2018-06-29 09:04:12.781250,50.1,87.32
37146,2018-06-29 09:04:12.812500,62.95,87.32
37147,2018-06-29 09:04:12.843750,57.66,87.32
37148,2018-06-29 09:04:12.875000,34.38,87.32
37149,2018-06-29 09:04:12.906250,8.05,87.32
37150,2018-06-29 09:04:12.937500,-9.87,87.32
37151,2018-06-29 09:04:12.968750,-14.55,87.32
37152,2018-06-29 09:04:13.000000,-9.53,87.32
37153,2018-06-29 09:04:13.031250,-6.96,87.32
37154,2018-06-29 09:04:13.062500,-11.46,87.32
37155,2018-06-29 09:04:13.093750,-13.46,87.32
37156,2018-06-29 09:04:13.125000,-5.27,87.32
37157,2018-06-29 09:04:13.156250,9.2,87.32
37158,2018-06-29 09:04:13.187500,19.9,87.32
37159,2018-06-29 09:04:13.218750,18.22,87.32
37160,2018-06-29 09:04:13.250000,6.51,87.32
37161,2018-06-29 09:04:13.281250,-0.57,87.32
37162,2018-06-29 09:04:13.312500,5.57,87.32
37163,2018-06-29 09:04:13.343750,16.51,87.32
37164,2018-06-29 09:04:13.375000,21.67,87.32
37165,2018-06-29 09:04:13.406250,20.18,87.32
37166,2018-06-29 09:04:13.437500,13.73,87.32
37167,2018-06-29 09:04:13.468750,2.16,87.32
37168,2018-06-29 09:04:13.500000,-10.13,87.32
37169,2018-06-29 09:04:13.531250,-17.22,87.27
37170,2018-06-29 09:04:13.562500,-21.1,87.27
37171,2018-06-29 09:04:13.593750,-24.23,87.27
37172,2018-06-29 09:04:13.625000,-21.04,87.27
37173,2018-06-29 09:04:13.656250,-11.26,87.27
37174,2018-06-29 09:04:13.687500,-7.44,87.27
37175,2018-06-29 09:04:13.718750,-16.11,87.27
37176,2018-06-29 09:04:13.750000,-28.0,87.27
37177,2018-06-29 09:04:13.781250,-35.79,87.27
37178,2018-06-29 09:04:13.812500,-44.44,87.27
37179,2018-06-29 09:04:13.843750,-57.1,87.27
37180,2018-06-29 09:04:13.875000,-64.64,87.27
37181,2018-06-29 09:04:13.906250,-56.41,87.27
37182,2018-06-29 09:04:13.937500,-36.06,87.27
37183,2018-06-29 09:04:13.968750,-18.62,87.27
37184,2018-06-29 09:04:14.000000,-9.52,87.27
37185,2018-06-29 09:04:14.031250,5.31,87.27
37186,2018-06-29 09:04:14.062500,43.45,87.27
37187,2018-06-29 09:04:14.093750,100.64,87.27
37188,2018-06-29 09:04:14.125000,146.54,87.27
37189,2018-06-29 09:04:14.156250,154.75,87.27
37190,2018-06-29 09:04:14.187500,132.75,87.27
37191,2018-06-29 09:04:14.218750,108.23,87.27
37192,2018-06-29 09:04:14.250000,91.13,87.27
37193,2018-06-29 09:04:14.281250,69.51,87.27
37194,2018-06-29 09:04:14.312500,37.64,87.27
37195,2018-06-29 09:04:14.343750,2.84,87.27
37196,2018-06-29 09:04:14.375000,-33.11,87.27
37197,2018-06-29 09:04:14.406250,-76.14,87.27
37198,2018-06-29 09:04:14.437500,-121.41,87.27
37199,2018-06-29 09:04:14.468750,-149.77,87.27
37200,2018-06-29 09:04:14.500000,-148.98,87.27
37201,2018-06-29 09:04:14.531250,-128.28,87.2
37202,2018-06-29 09:04:14.562500,-104.27,87.2
37203,2018-06-29 09:04:14.593750,-77.06,87.2
37204,2018-06-29 09:04:14.625000,-30.99,87.2
37205,2018-06-29 09:04:14.656250,39.88,87.2
37206,2018-06-29 09:04:14.687500,114.01,87.2
37207,2018-06-29 09:04:14.718750,156.85,87.2
37208,2018-06-29 09:04:14.750000,153.74,87.2
37209,2018-06-29 09:04:14.781250,125.02,87.2
37210,2018-06-29 09:04:14.812500,102.12,87.2
37211,2018-06-29 09:04:14.843750,92.71,87.2
37212,2018-06-29 09:04:14.875000,81.83,87.2
37213,2018-06-29 09:04:14.906250,58.76,87.2
37214,2018-06-29 09:04:14.937500,24.22,87.2
37215,2018-06-29 09:04:14.968750,-19.97,87.2
37216,2018-06-29 09:04:15.000000,-68.95,87.2
37217,2018-06-29 09:04:15.031250,-109.41,87.2
37218,2018-06-29 09:04:15.062500,-130.72,87.2
37219,2018-06-29 09:04:15.093750,-135.79,87.2
37220,2018-06-29 09:04:15.125000,-133.25,87.2
37221,2018-06-29 09:04:15.156250,-121.41,87.2
37222,2018-06-29 09:04:15.187500,-85.13,87.2
37223,2018-06-29 09:04:15.218750,-16.61,87.2
37224,2018-06-29 09:04:15.250000,63.24,87.2
37225,2018-06-29 09:04:15.281250,120.2,87.2
37226,2018-06-29 09:04:15.312500,141.45,87.2
37227,2018-06-29 09:04:15.343750,138.69,87.2
37228,2018-06-29 09:04:15.375000,124.81,87.2
37229,2018-06-29 09:04:15.406250,103.21,87.2
37230,2018-06-29 09:04:15.437500,71.35,87.2
37231,2018-06-29 09:04:15.468750,24.48,87.2
37232,2018-06-29 09:04:15.500000,-34.39,87.2
37233,2018-06-29 09:04:15.531250,-89.67,87.13
37234,2018-06-29 09:04:15.562500,-124.63,87.13
37235,2018-06-29 09:04:15.593750,-133.74,87.13
37236,2018-06-29 09:04:15.625000,-123.32,87.13
37237,2018-06-29 09:04:15.656250,-106.65,87.13
37238,2018-06-29 09:04:15.687500,-95.36,87.13
37239,2018-06-29 09:04:15.718750,-89.4,87.13
37240,2018-06-29 09:04:15.750000,-81.04,87.13
37241,2018-06-29 09:04:15.781250,-66.2,87.13
37242,2018-06-29 09:04:15.812500,-53.19,87.13
37243,2018-06-29 09:04:15.843750,-51.59,87.13
37244,2018-06-29 09:04:15.875000,-55.71,87.13
37245,2018-06-29 09:04:15.906250,-46.88,87.13
37246,2018-06-29 09:04:15.937500,-17.66,87.13
37247,2018-06-29 09:04:15.968750,12.96,87.13
37248,2018-06-29 09:04:16.000000,30.02,87.13
37249,2018-06-29 09:04:16.031250,41.47,87.13
37250,2018-06-29 09:04:16.062500,64.13,87.13
37251,2018-06-29 09:04:16.093750,89.62,87.13
37252,2018-06-29 09:04:16.125000,98.15,87.13
37253,2018-06-29 09:04:16.156250,92.28,87.13
37254,2018-06-29 09:04:16.187500,98.44,87.13
37255,2018-06-29 09:04:16.218750,140.38,87.13
37256,2018-06-29 09:04:16.250000,209.11,87.13
37257,2018-06-29 09:04:16.281250,278.11,87.13
37258,2018-06-29 09:04:16.312500,274.34,87.13
37259,2018-06-29 09:04:16.343750,158.6,87.13
37260,2018-06-29 09:04:16.375000,43.0,87.13
37261,2018-06-29 09:04:16.406250,-3.04,87.13
37262,2018-06-29 09:04:16.437500,-14.88,87.13
37263,2018-06-29 09:04:16.468750,-19.83,87.13
37264,2018-06-29 09:04:16.500000,-26.0,87.13
37265,2018-06-29 09:04:16.531250,-49.19,87.08
37266,2018-06-29 09:04:16.562500,-90.14,87.08
37267,2018-06-29 09:04:16.593750,-136.47,87.08
37268,2018-06-29 09:04:16.625000,-162.76,87.08
37269,2018-06-29 09:04:16.656250,-167.2,87.08
37270,2018-06-29 09:04:16.687500,-166.22,87.08
37271,2018-06-29 09:04:16.718750,-164.9,87.08
37272,2018-06-29 09:04:16.750000,-154.07,87.08
37273,2018-06-29 09:04:16.781250,-129.79,87.08
37274,2018-06-29 09:04:16.812500,-104.77,87.08
37275,2018-06-29 09:04:16.843750,-88.09,87.08
37276,2018-06-29 09:04:16.875000,-72.25,87.08
37277,2018-06-29 09:04:16.906250,-45.55,87.08
37278,2018-06-29 09:04:16.937500,-12.58,87.08
37279,2018-06-29 09:04:16.968750,11.16,87.08
37280,2018-06-29 09:04:17.000000,20.19,87.08
37281,2018-06-29 09:04:17.031250,21.4,87.08
37282,2018-06-29 09:04:17.062500,19.84,87.08
37283,2018-06-29 09:04:17.093750,13.44,87.08
37284,2018-06-29 09:04:17.125000,0.04,87.08
37285,2018-06-29 09:04:17.156250,-18.01,87.08
37286,2018-06-29 09:04:17.187500,-34.43,87.08
37287,2018-06-29 09:04:17.218750,-41.05,87.08
37288,2018-06-29 09:04:17.250000,-33.4,87.08
37289,2018-06-29 09:04:17.281250,-15.82,87.08
37290,2018-06-29 09:04:17.312500,2.56,87.08
37291,2018-06-29 09:04:17.343750,17.05,87.08
37292,2018-06-29 09:04:17.375000,30.08,87.08
37293,2018-06-29 09:04:17.406250,44.49,87.08
37294,2018-06-29 09:04:17.437500,58.07,87.08
37295,2018-06-29 09:04:17.468750,66.32,87.08
37296,2018-06-29 09:04:17.500000,68.29,87.08
37297,2018-06-29 09:04:17.531250,66.54,86.98
37298,2018-06-29 09:04:17.562500,62.58,86.98
37299,2018-06-29 09:04:17.593750,54.76,86.98
37300,2018-06-29 09:04:17.625000,41.75,86.98
37301,2018-06-29 09:04:17.656250,26.25,86.98
37302,2018-06-29 09:04:17.687500,12.91,86.98
37303,2018-06-29 09:04:17.718750,2.96,86.98
37304,2018-06-29 09:04:17.750000,-7.22,86.98
37305,2018-06-29 09:04:17.781250,-23.5,86.98
37306,2018-06-29 09:04:17.812500,-47.31,86.98
37307,2018-06-29 09:04:17.843750,-66.61,86.98
37308,2018-06-29 09:04:17.875000,-63.58,86.98
37309,2018-06-29 09:04:17.906250,-36.07,86.98
37310,2018-06-29 09:04:17.937500,0.57,86.98
37311,2018-06-29 09:04:17.968750,31.0,86.98
37312,2018-06-29 09:04:18.000000,49.69,86.98
37313,2018-06-29 09:04:18.031250,58.38,86.98
37314,2018-06-29 09:04:18.062500,60.8,86.98
37315,2018-06-29 09:04:18.093750,57.73,86.98
37316,2018-06-29 09:04:18.125000,50.15,86.98
37317,2018-06-29 09:04:18.156250,46.51,86.98
37318,2018-06-29 09:04:18.187500,54.82,86.98
37319,2018-06-29 09:04:18.218750,72.46,86.98
37320,2018-06-29 09:04:18.250000,93.31,86.98
37321,2018-06-29 09:04:18.281250,110.93,86.98
37322,2018-06-29 09:04:18.312500,110.74,86.98
37323,2018-06-29 09:04:18.343750,80.5,86.98
37324,2018-06-29 09:04:18.375000,32.05,86.98
37325,2018-06-29 09:04:18.406250,-9.04,86.98
37326,2018-06-29 09:04:18.437500,-31.76,86.98
37327,2018-06-29 09:04:18.468750,-37.29,86.98
37328,2018-06-29 09:04:18.500000,-23.97,86.98
37329,2018-06-29 09:04:18.531250,2.92,86.92
37330,2018-06-29 09:04:18.562500,24.55,86.92
37331,2018-06-29 09:04:18.593750,26.8,86.92
37332,2018-06-29 09:04:18.625000,13.5,86.92
37333,2018-06-29 09:04:18.656250,-5.03,86.92
37334,2018-06-29 09:04:18.687500,-26.38,86.92
37335,2018-06-29 09:04:18.718750,-52.88,86.92
37336,2018-06-29 09:04:18.750000,-79.38,86.92
37337,2018-06-29 09:04:18.781250,-93.26,86.92
37338,2018-06-29 09:04:18.812500,-90.5,86.92
37339,2018-06-29 09:04:18.843750,-81.36,86.92
37340,2018-06-29 09:04:18.875000,-72.07,86.92
37341,2018-06-29 09:04:18.906250,-56.62,86.92
37342,2018-06-29 09:04:18.937500,-35.62,86.92
37343,2018-06-29 09:04:18.968750,-23.43,86.92
37344,2018-06-29 09:04:19.000000,-26.3,86.92
37345,2018-06-29 09:04:19.031250,-31.94,86.92
37346,2018-06-29 09:04:19.062500,-28.21,86.92
37347,2018-06-29 09:04:19.093750,-19.02,86.92
37348,2018-06-29 09:04:19.125000,-19.18,86.92
37349,2018-06-29 09:04:19.156250,-36.38,86.92
37350,2018-06-29 09:04:19.187500,-56.78,86.92
37351,2018-06-29 09:04:19.218750,-56.85,86.92
37352,2018-06-29 09:04:19.250000,-33.14,86.92
37353,2018-06-29 09:04:19.281250,-5.51,86.92
37354,2018-06-29 09:04:19.312500,10.45,86.92
37355,2018-06-29 09:04:19.343750,17.05,86.92
37356,2018-06-29 09:04:19.375000,21.29,86.92
37357,2018-06-29 09:04:19.406250,25.47,86.92
37358,2018-06-29 09:04:19.437500,31.62,86.92
37359,2018-06-29 09:04:19.468750,43.49,86.92
37360,2018-06-29 09:04:19.500000,61.91,86.92
37361,2018-06-29 09:04:19.531250,80.91,86.82
37362,2018-06-29 09:04:19.562500,89.35,86.82
37363,2018-06-29 09:04:19.593750,77.11,86.82
37364,2018-06-29 09:04:19.625000,41.89,86.82
37365,2018-06-29 09:04:19.656250,-7.36,86.82
37366,2018-06-29 09:04:19.687500,-54.65,86.82
37367,2018-06-29 09:04:19.718750,-88.72,86.82
37368,2018-06-29 09:04:19.750000,-110.64,86.82
37369,2018-06-29 09:04:19.781250,-126.19,86.82
37370,2018-06-29 09:04:19.812500,-136.37,86.82
37371,2018-06-29 09:04:19.843750,-139.58,86.82
37372,2018-06-29 09:04:19.875000,-133.2,86.82
37373,2018-06-29 09:04:19.906250,-110.66,86.82
37374,2018-06-29 09:04:19.937500,-68.89,86.82
37375,2018-06-29 09:04:19.968750,-17.69,86.82
37376,2018-06-29 09:04:20.000000,28.14,86.82
37377,2018-06-29 09:04:20.031250,61.62,86.82
37378,2018-06-29 09:04:20.062500,82.25,86.82
37379,2018-06-29 09:04:20.093750,89.61,86.82
37380,2018-06-29 09:04:20.125000,85.47,86.82
37381,2018-06-29 09:04:20.156250,77.55,86.82
37382,2018-06-29 09:04:20.187500,73.82,86.82
37383,2018-06-29 09:04:20.218750,74.18,86.82
37384,2018-06-29 09:04:20.250000,72.99,86.82
37385,2018-06-29 09:04:20.281250,69.02,86.82
37386,2018-06-29 09:04:20.312500,67.37,86.82
37387,2018-06-29 09:04:20.343750,71.46,86.82
37388,2018-06-29 09:04:20.375000,78.27,86.82
37389,2018-06-29 09:04:20.406250,84.37,86.82
37390,2018-06-29 09:04:20.437500,94.86,86.82
37391,2018-06-29 09:04:20.468750,123.3,86.82
37392,2018-06-29 09:04:20.500000,175.68,86.82
37393,2018-06-29 09:04:20.531250,230.14,86.68
37394,2018-06-29 09:04:20.562500,245.68,86.68
37395,2018-06-29 09:04:20.593750,202.91,86.68
37396,2018-06-29 09:04:20.625000,124.83,86.68
37397,2018-06-29 09:04:20.656250,49.93,86.68
37398,2018-06-29 09:04:20.687500,-2.42,86.68
37399,2018-06-29 09:04:20.718750,-36.98,86.68
37400,2018-06-29 09:04:20.750000,-67.77,86.68
37401,2018-06-29 09:04:20.781250,-102.41,86.68
37402,2018-06-29 09:04:20.812500,-135.95,86.68
37403,2018-06-29 09:04:20.843750,-158.27,86.68
37404,2018-06-29 09:04:20.875000,-164.93,86.68
37405,2018-06-29 09:04:20.906250,-159.65,86.68
37406,2018-06-29 09:04:20.937500,-149.34,86.68
37407,2018-06-29 09:04:20.968750,-138.55,86.68
37408,2018-06-29 09:04:21.000000,-127.77,86.68
37409,2018-06-29 09:04:21.031250,-116.07,86.68
37410,2018-06-29 09:04:21.062500,-103.92,86.68
37411,2018-06-29 09:04:21.093750,-93.51,86.68
37412,2018-06-29 09:04:21.125000,-85.46,86.68
37413,2018-06-29 09:04:21.156250,-76.19,86.68
37414,2018-06-29 09:04:21.187500,-63.11,86.68
37415,2018-06-29 09:04:21.218750,-51.94,86.68
37416,2018-06-29 09:04:21.250000,-47.9,86.68
37417,2018-06-29 09:04:21.281250,-42.36,86.68
37418,2018-06-29 09:04:21.312500,-23.41,86.68
37419,2018-06-29 09:04:21.343750,4.8,86.68
37420,2018-06-29 09:04:21.375000,28.19,86.68
37421,2018-06-29 09:04:21.406250,41.27,86.68
37422,2018-06-29 09:04:21.437500,47.42,86.68
37423,2018-06-29 09:04:21.468750,49.53,86.68
37424,2018-06-29 09:04:21.500000,50.1,86.68
37425,2018-06-29 09:04:21.531250,52.84,86.65
37426,2018-06-29 09:04:21.562500,57.44,86.65
37427,2018-06-29 09:04:21.593750,58.66,86.65
37428,2018-06-29 09:04:21.625000,54.1,86.65
37429,2018-06-29 09:04:21.656250,48.14,86.65
37430,2018-06-29 09:04:21.687500,44.41,86.65
37431,2018-06-29 09:04:21.718750,39.64,86.65
37432,2018-06-29 09:04:21.750000,29.16,86.65
37433,2018-06-29 09:04:21.781250,15.15,86.65
37434,2018-06-29 09:04:21.812500,5.87,86.65
37435,2018-06-29 09:04:21.843750,5.95,86.65
37436,2018-06-29 09:04:21.875000,9.82,86.65
37437,2018-06-29 09:04:21.906250,8.37,86.65
37438,2018-06-29 09:04:21.937500,1.37,86.65
37439,2018-06-29 09:04:21.968750,0.23,86.65
37440,2018-06-29 09:04:22.000000,15.51,86.65
37441,2018-06-29 09:04:22.031250,39.77,86.65
37442,2018-06-29 09:04:22.062500,47.5,86.65
37443,2018-06-29 09:04:22.093750,25.6,86.65
37444,2018-06-29 09:04:22.125000,-2.66,86.65
37445,2018-06-29 09:04:22.156250,-5.35,86.65
37446,2018-06-29 09:04:22.187500,20.58,86.65
37447,2018-06-29 09:04:22.218750,55.88,86.65
37448,2018-06-29 09:04:22.250000,80.35,86.65
37449,2018-06-29 09:04:22.281250,81.17,86.65
37450,2018-06-29 09:04:22.312500,63.28,86.65
37451,2018-06-29 09:04:22.343750,46.97,86.65
37452,2018-06-29 09:04:22.375000,42.09,86.65
37453,2018-06-29 09:04:22.406250,42.55,86.65
37454,2018-06-29 09:04:22.437500,47.24,86.65
37455,2018-06-29 09:04:22.468750,63.17,86.65
37456,2018-06-29 09:04:22.500000,90.61,86.65
37457,2018-06-29 09:04:22.531250,117.55,86.68
37458,2018-06-29 09:04:22.562500,125.29,86.68
37459,2018-06-29 09:04:22.593750,99.41,86.68
37460,2018-06-29 09:04:22.625000,42.51,86.68
37461,2018-06-29 09:04:22.656250,-22.4,86.68
37462,2018-06-29 09:04:22.687500,-68.56,86.68
37463,2018-06-29 09:04:22.718750,-88.91,86.68
37464,2018-06-29 09:04:22.750000,-93.53,86.68
37465,2018-06-29 09:04:22.781250,-86.56,86.68
37466,2018-06-29 09:04:22.812500,-64.59,86.68
37467,2018-06-29 09:04:22.843750,-35.64,86.68
37468,2018-06-29 09:04:22.875000,-19.32,86.68
37469,2018-06-29 09:04:22.906250,-24.15,86.68
37470,2018-06-29 09:04:22.937500,-37.61,86.68
37471,2018-06-29 09:04:22.968750,-44.57,86.68
37472,2018-06-29 09:04:23.000000,-46.14,86.68
37473,2018-06-29 09:04:23.031250,-49.62,86.68
37474,2018-06-29 09:04:23.062500,-50.02,86.68
37475,2018-06-29 09:04:23.093750,-38.46,86.68
37476,2018-06-29 09:04:23.125000,-19.73,86.68
37477,2018-06-29 09:04:23.156250,-3.89,86.68
37478,2018-06-29 09:04:23.187500,10.7,86.68
37479,2018-06-29 09:04:23.218750,33.31,86.68
37480,2018-06-29 09:04:23.250000,65.12,86.68
37481,2018-06-29 09:04:23.281250,94.54,86.68
37482,2018-06-29 09:04:23.312500,105.18,86.68
37483,2018-06-29 09:04:23.343750,85.53,86.68
37484,2018-06-29 09:04:23.375000,37.44,86.68
37485,2018-06-29 09:04:23.406250,-18.47,86.68
37486,2018-06-29 09:04:23.437500,-56.64,86.68
37487,2018-06-29 09:04:23.468750,-70.22,86.68
37488,2018-06-29 09:04:23.500000,-68.69,86.68
37489,2018-06-29 09:04:23.531250,-58.04,86.68
37490,2018-06-29 09:04:23.562500,-41.14,86.68
37491,2018-06-29 09:04:23.593750,-27.33,86.68
37492,2018-06-29 09:04:23.625000,-24.17,86.68
37493,2018-06-29 09:04:23.656250,-28.84,86.68
37494,2018-06-29 09:04:23.687500,-35.01,86.68
37495,2018-06-29 09:04:23.718750,-37.0,86.68
37496,2018-06-29 09:04:23.750000,-28.34,86.68
37497,2018-06-29 09:04:23.781250,-8.02,86.68
37498,2018-06-29 09:04:23.812500,16.06,86.68
37499,2018-06-29 09:04:23.843750,39.6,86.68
37500,2018-06-29 09:04:23.875000,69.75,86.68
37501,2018-06-29 09:04:23.906250,108.82,86.68
37502,2018-06-29 09:04:23.937500,138.18,86.68
37503,2018-06-29 09:04:23.968750,131.41,86.68
37504,2018-06-29 09:04:24.000000,80.91,86.68
37505,2018-06-29 09:04:24.031250,10.11,86.68
37506,2018-06-29 09:04:24.062500,-37.8,86.68
37507,2018-06-29 09:04:24.093750,-35.14,86.68
37508,2018-06-29 09:04:24.125000,2.18,86.68
37509,2018-06-29 09:04:24.156250,33.71,86.68
37510,2018-06-29 09:04:24.187500,36.66,86.68
37511,2018-06-29 09:04:24.218750,19.11,86.68
37512,2018-06-29 09:04:24.250000,1.04,86.68
37513,2018-06-29 09:04:24.281250,-8.95,86.68
37514,2018-06-29 09:04:24.312500,-19.56,86.68
37515,2018-06-29 09:04:24.343750,-38.48,86.68
37516,2018-06-29 09:04:24.375000,-55.78,86.68
37517,2018-06-29 09:04:24.406250,-55.47,86.68
37518,2018-06-29 09:04:24.437500,-36.39,86.68
37519,2018-06-29 09:04:24.468750,-12.78,86.68
37520,2018-06-29 09:04:24.500000,3.09,86.68
37521,2018-06-29 09:04:24.531250,15.99,86.7
37522,2018-06-29 09:04:24.562500,40.65,86.7
37523,2018-06-29 09:04:24.593750,76.79,86.7
37524,2018-06-29 09:04:24.625000,100.28,86.7
37525,2018-06-29 09:04:24.656250,84.22,86.7
37526,2018-06-29 09:04:24.687500,24.81,86.7
37527,2018-06-29 09:04:24.718750,-52.32,86.7
37528,2018-06-29 09:04:24.750000,-110.84,86.7
37529,2018-06-29 09:04:24.781250,-133.62,86.7
37530,2018-06-29 09:04:24.812500,-131.81,86.7
37531,2018-06-29 09:04:24.843750,-123.06,86.7
37532,2018-06-29 09:04:24.875000,-112.81,86.7
37533,2018-06-29 09:04:24.906250,-98.99,86.7
37534,2018-06-29 09:04:24.937500,-80.03,86.7
37535,2018-06-29 09:04:24.968750,-54.67,86.7
37536,2018-06-29 09:04:25.000000,-25.66,86.7
37537,2018-06-29 09:04:25.031250,-3.68,86.7
37538,2018-06-29 09:04:25.062500,1.67,86.7
37539,2018-06-29 09:04:25.093750,-6.31,86.7
37540,2018-06-29 09:04:25.125000,-15.72,86.7
37541,2018-06-29 09:04:25.156250,-20.16,86.7
37542,2018-06-29 09:04:25.187500,-22.67,86.7
37543,2018-06-29 09:04:25.218750,-27.28,86.7
37544,2018-06-29 09:04:25.250000,-33.02,86.7
37545,2018-06-29 09:04:25.281250,-36.71,86.7
37546,2018-06-29 09:04:25.312500,-37.66,86.7
37547,2018-06-29 09:04:25.343750,-38.32,86.7
37548,2018-06-29 09:04:25.375000,-40.75,86.7
37549,2018-06-29 09:04:25.406250,-42.15,86.7
37550,2018-06-29 09:04:25.437500,-35.56,86.7
37551,2018-06-29 09:04:25.468750,-17.22,86.7
37552,2018-06-29 09:04:25.500000,6.95,86.7
37553,2018-06-29 09:04:25.531250,24.0,86.65
37554,2018-06-29 09:04:25.562500,26.05,86.65
37555,2018-06-29 09:04:25.593750,19.28,86.65
37556,2018-06-29 09:04:25.625000,16.02,86.65
37557,2018-06-29 09:04:25.656250,19.25,86.65
37558,2018-06-29 09:04:25.687500,22.78,86.65
37559,2018-06-29 09:04:25.718750,24.54,86.65
37560,2018-06-29 09:04:25.750000,29.25,86.65
37561,2018-06-29 09:04:25.781250,38.67,86.65
37562,2018-06-29 09:04:25.812500,47.57,86.65
37563,2018-06-29 09:04:25.843750,52.21,86.65
37564,2018-06-29 09:04:25.875000,60.31,86.65
37565,2018-06-29 09:04:25.906250,87.42,86.65
37566,2018-06-29 09:04:25.937500,134.76,86.65
37567,2018-06-29 09:04:25.968750,171.95,86.65
37568,2018-06-29 09:04:26.000000,156.03,86.65
37569,2018-06-29 09:04:26.031250,76.19,86.65
37570,2018-06-29 09:04:26.062500,-25.61,86.65
37571,2018-06-29 09:04:26.093750,-91.41,86.65
37572,2018-06-29 09:04:26.125000,-104.06,86.65
37573,2018-06-29 09:04:26.156250,-91.99,86.65
37574,2018-06-29 09:04:26.187500,-82.24,86.65
37575,2018-06-29 09:04:26.218750,-75.17,86.65
37576,2018-06-29 09:04:26.250000,-65.52,86.65
37577,2018-06-29 09:04:26.281250,-57.13,86.65
37578,2018-06-29 09:04:26.312500,-49.84,86.65
37579,2018-06-29 09:04:26.343750,-35.79,86.65
37580,2018-06-29 09:04:26.375000,-15.02,86.65
37581,2018-06-29 09:04:26.406250,1.4,86.65
37582,2018-06-29 09:04:26.437500,8.7,86.65
37583,2018-06-29 09:04:26.468750,17.76,86.65
37584,2018-06-29 09:04:26.500000,44.9,86.65
37585,2018-06-29 09:04:26.531250,97.96,86.63
37586,2018-06-29 09:04:26.562500,162.77,86.63
37587,2018-06-29 09:04:26.593750,200.21,86.63
37588,2018-06-29 09:04:26.625000,176.19,86.63
37589,2018-06-29 09:04:26.656250,103.85,86.63
37590,2018-06-29 09:04:26.687500,33.66,86.63
37591,2018-06-29 09:04:26.718750,-5.07,86.63
37592,2018-06-29 09:04:26.750000,-27.42,86.63
37593,2018-06-29 09:04:26.781250,-56.77,86.63
37594,2018-06-29 09:04:26.812500,-95.75,86.63
37595,2018-06-29 09:04:26.843750,-135.06,86.63
37596,2018-06-29 09:04:26.875000,-163.8,86.63
37597,2018-06-29 09:04:26.906250,-170.17,86.63
37598,2018-06-29 09:04:26.937500,-151.53,86.63
37599,2018-06-29 09:04:26.968750,-122.01,86.63
37600,2018-06-29 09:04:27.000000,-98.01,86.63
37601,2018-06-29 09:04:27.031250,-81.95,86.63
37602,2018-06-29 09:04:27.062500,-67.05,86.63
37603,2018-06-29 09:04:27.093750,-51.01,86.63
37604,2018-06-29 09:04:27.125000,-38.13,86.63
37605,2018-06-29 09:04:27.156250,-30.03,86.63
37606,2018-06-29 09:04:27.187500,-23.97,86.63
37607,2018-06-29 09:04:27.218750,-18.97,86.63
37608,2018-06-29 09:04:27.250000,-17.66,86.63
37609,2018-06-29 09:04:27.281250,-19.87,86.63
37610,2018-06-29 09:04:27.312500,-20.2,86.63
37611,2018-06-29 09:04:27.343750,-15.08,86.63
37612,2018-06-29 09:04:27.375000,-3.5,86.63
37613,2018-06-29 09:04:27.406250,12.77,86.63
37614,2018-06-29 09:04:27.437500,31.87,86.63
37615,2018-06-29 09:04:27.468750,46.35,86.63
37616,2018-06-29 09:04:27.500000,50.27,86.63
37617,2018-06-29 09:04:27.531250,46.79,86.7
37618,2018-06-29 09:04:27.562500,44.11,86.7
37619,2018-06-29 09:04:27.593750,45.09,86.7
37620,2018-06-29 09:04:27.625000,40.49,86.7
37621,2018-06-29 09:04:27.656250,31.48,86.7
37622,2018-06-29 09:04:27.687500,33.51,86.7
37623,2018-06-29 09:04:27.718750,68.6,86.7
37624,2018-06-29 09:04:27.750000,135.03,86.7
37625,2018-06-29 09:04:27.781250,205.59,86.7
37626,2018-06-29 09:04:27.812500,242.61,86.7
37627,2018-06-29 09:04:27.843750,190.64,86.7
37628,2018-06-29 09:04:27.875000,98.08,86.7
37629,2018-06-29 09:04:27.906250,30.18,86.7
37630,2018-06-29 09:04:27.937500,-18.45,86.7
37631,2018-06-29 09:04:27.968750,-52.26,86.7
37632,2018-06-29 09:04:28.000000,-50.27,86.7
37633,2018-06-29 09:04:28.031250,-29.64,86.7
37634,2018-06-29 09:04:28.062500,-28.6,86.7
37635,2018-06-29 09:04:28.093750,-53.12,86.7
37636,2018-06-29 09:04:28.125000,-89.12,86.7
37637,2018-06-29 09:04:28.156250,-122.08,86.7
37638,2018-06-29 09:04:28.187500,-144.14,86.7
37639,2018-06-29 09:04:28.218750,-154.67,86.7
37640,2018-06-29 09:04:28.250000,-150.05,86.7
37641,2018-06-29 09:04:28.281250,-125.79,86.7
37642,2018-06-29 09:04:28.312500,-89.91,86.7
37643,2018-06-29 09:04:28.343750,-56.8,86.7
37644,2018-06-29 09:04:28.375000,-30.53,86.7
37645,2018-06-29 09:04:28.406250,-7.97,86.7
37646,2018-06-29 09:04:28.437500,14.34,86.7
37647,2018-06-29 09:04:28.468750,34.07,86.7
37648,2018-06-29 09:04:28.500000,48.65,86.7
37649,2018-06-29 09:04:28.531250,56.55,86.72
37650,2018-06-29 09:04:28.562500,57.86,86.72
37651,2018-06-29 09:04:28.593750,53.9,86.72
37652,2018-06-29 09:04:28.625000,45.75,86.72
37653,2018-06-29 09:04:28.656250,34.27,86.72
37654,2018-06-29 09:04:28.687500,19.75,86.72
37655,2018-06-29 09:04:28.718750,4.74,86.72
37656,2018-06-29 09:04:28.750000,-4.93,86.72
37657,2018-06-29 09:04:28.781250,-7.77,86.72
37658,2018-06-29 09:04:28.812500,-8.95,86.72
37659,2018-06-29 09:04:28.843750,-12.04,86.72
37660,2018-06-29 09:04:28.875000,-14.44,86.72
37661,2018-06-29 09:04:28.906250,-13.8,86.72
37662,2018-06-29 09:04:28.937500,-11.91,86.72
37663,2018-06-29 09:04:28.968750,-8.95,86.72
37664,2018-06-29 09:04:29.000000,-6.18,86.72
37665,2018-06-29 09:04:29.031250,-3.87,86.72
37666,2018-06-29 09:04:29.062500,-1.39,86.72
37667,2018-06-29 09:04:29.093750,8.33,86.72
37668,2018-06-29 09:04:29.125000,39.02,86.72
37669,2018-06-29 09:04:29.156250,97.37,86.72
37670,2018-06-29 09:04:29.187500,165.9,86.72
37671,2018-06-29 09:04:29.218750,205.29,86.72
37672,2018-06-29 09:04:29.250000,198.81,86.72
37673,2018-06-29 09:04:29.281250,160.71,86.72
37674,2018-06-29 09:04:29.312500,113.56,86.72
37675,2018-06-29 09:04:29.343750,75.75,86.72
37676,2018-06-29 09:04:29.375000,51.85,86.72
37677,2018-06-29 09:04:29.406250,27.4,86.72
37678,2018-06-29 09:04:29.437500,-15.61,86.72
37679,2018-06-29 09:04:29.468750,-75.09,86.72
37680,2018-06-29 09:04:29.500000,-131.73,86.72
37681,2018-06-29 09:04:29.531250,-168.04,86.72
37682,2018-06-29 09:04:29.562500,-182.86,86.72
37683,2018-06-29 09:04:29.593750,-180.04,86.72
37684,2018-06-29 09:04:29.625000,-162.61,86.72
37685,2018-06-29 09:04:29.656250,-136.28,86.72
37686,2018-06-29 09:04:29.687500,-112.44,86.72
37687,2018-06-29 09:04:29.718750,-98.91,86.72
37688,2018-06-29 09:04:29.750000,-91.74,86.72
37689,2018-06-29 09:04:29.781250,-82.99,86.72
37690,2018-06-29 09:04:29.812500,-70.36,86.72
37691,2018-06-29 09:04:29.843750,-56.76,86.72
37692,2018-06-29 09:04:29.875000,-40.45,86.72
37693,2018-06-29 09:04:29.906250,-14.4,86.72
37694,2018-06-29 09:04:29.937500,25.4,86.72
37695,2018-06-29 09:04:29.968750,69.82,86.72
37696,2018-06-29 09:04:30.000000,98.83,86.72
37697,2018-06-29 09:04:30.031250,100.12,86.72
37698,2018-06-29 09:04:30.062500,84.56,86.72
37699,2018-06-29 09:04:30.093750,72.68,86.72
37700,2018-06-29 09:04:30.125000,68.04,86.72
37701,2018-06-29 09:04:30.156250,60.54,86.72
37702,2018-06-29 09:04:30.187500,45.62,86.72
37703,2018-06-29 09:04:30.218750,25.97,86.72
37704,2018-06-29 09:04:30.250000,0.13,86.72
37705,2018-06-29 09:04:30.281250,-28.41,86.72
37706,2018-06-29 09:04:30.312500,-42.04,86.72
37707,2018-06-29 09:04:30.343750,-26.56,86.72
37708,2018-06-29 09:04:30.375000,10.77,86.72
37709,2018-06-29 09:04:30.406250,49.52,86.72
37710,2018-06-29 09:04:30.437500,79.01,86.72
37711,2018-06-29 09:04:30.468750,96.13,86.72
37712,2018-06-29 09:04:30.500000,101.04,86.72
37713,2018-06-29 09:04:30.531250,108.04,86.72
37714,2018-06-29 09:04:30.562500,112.9,86.72
37715,2018-06-29 09:04:30.593750,95.81,86.72
37716,2018-06-29 09:04:30.625000,58.04,86.72
37717,2018-06-29 09:04:30.656250,27.6,86.72
37718,2018-06-29 09:04:30.687500,17.94,86.72
37719,2018-06-29 09:04:30.718750,17.39,86.72
37720,2018-06-29 09:04:30.750000,12.07,86.72
37721,2018-06-29 09:04:30.781250,-2.3,86.72
37722,2018-06-29 09:04:30.812500,-25.75,86.72
37723,2018-06-29 09:04:30.843750,-52.99,86.72
37724,2018-06-29 09:04:30.875000,-77.39,86.72
37725,2018-06-29 09:04:30.906250,-98.71,86.72
37726,2018-06-29 09:04:30.937500,-119.9,86.72
37727,2018-06-29 09:04:30.968750,-140.15,86.72
37728,2018-06-29 09:04:31.000000,-153.31,86.72
37729,2018-06-29 09:04:31.031250,-153.89,86.72
37730,2018-06-29 09:04:31.062500,-141.08,86.72
37731,2018-06-29 09:04:31.093750,-119.67,86.72
37732,2018-06-29 09:04:31.125000,-96.86,86.72
37733,2018-06-29 09:04:31.156250,-75.94,86.72
37734,2018-06-29 09:04:31.187500,-53.72,86.72
37735,2018-06-29 09:04:31.218750,-26.55,86.72
37736,2018-06-29 09:04:31.250000,5.04,86.72
37737,2018-06-29 09:04:31.281250,41.95,86.72
37738,2018-06-29 09:04:31.312500,84.62,86.72
37739,2018-06-29 09:04:31.343750,121.13,86.72
37740,2018-06-29 09:04:31.375000,134.17,86.72
37741,2018-06-29 09:04:31.406250,122.91,86.72
37742,2018-06-29 09:04:31.437500,101.93,86.72
37743,2018-06-29 09:04:31.468750,80.75,86.72
37744,2018-06-29 09:04:31.500000,58.59,86.72
37745,2018-06-29 09:04:31.531250,32.86,86.68
37746,2018-06-29 09:04:31.562500,2.0,86.68
37747,2018-06-29 09:04:31.593750,-33.02,86.68
37748,2018-06-29 09:04:31.625000,-65.81,86.68
37749,2018-06-29 09:04:31.656250,-89.09,86.68
37750,2018-06-29 09:04:31.687500,-101.21,86.68
37751,2018-06-29 09:04:31.718750,-103.72,86.68
37752,2018-06-29 09:04:31.750000,-96.49,86.68
37753,2018-06-29 09:04:31.781250,-80.44,86.68
37754,2018-06-29 09:04:31.812500,-59.86,86.68
37755,2018-06-29 09:04:31.843750,-37.81,86.68
37756,2018-06-29 09:04:31.875000,-12.7,86.68
37757,2018-06-29 09:04:31.906250,17.37,86.68
37758,2018-06-29 09:04:31.937500,48.39,86.68
37759,2018-06-29 09:04:31.968750,70.12,86.68
37760,2018-06-29 09:04:32.000000,75.39,86.68
37761,2018-06-29 09:04:32.031250,69.17,86.68
37762,2018-06-29 09:04:32.062500,60.71,86.68
37763,2018-06-29 09:04:32.093750,47.71,86.68
37764,2018-06-29 09:04:32.125000,19.82,86.68
37765,2018-06-29 09:04:32.156250,-23.17,86.68
37766,2018-06-29 09:04:32.187500,-66.91,86.68
37767,2018-06-29 09:04:32.218750,-94.54,86.68
37768,2018-06-29 09:04:32.250000,-97.17,86.68
37769,2018-06-29 09:04:32.281250,-77.53,86.68
37770,2018-06-29 09:04:32.312500,-46.79,86.68
37771,2018-06-29 09:04:32.343750,-14.15,86.68
37772,2018-06-29 09:04:32.375000,18.71,86.68
37773,2018-06-29 09:04:32.406250,49.55,86.68
37774,2018-06-29 09:04:32.437500,70.33,86.68
37775,2018-06-29 09:04:32.468750,74.67,86.68
37776,2018-06-29 09:04:32.500000,62.98,86.68
37777,2018-06-29 09:04:32.531250,39.96,86.68
37778,2018-06-29 09:04:32.562500,14.06,86.68
37779,2018-06-29 09:04:32.593750,-6.16,86.68
37780,2018-06-29 09:04:32.625000,-21.05,86.68
37781,2018-06-29 09:04:32.656250,-36.87,86.68
37782,2018-06-29 09:04:32.687500,-53.65,86.68
37783,2018-06-29 09:04:32.718750,-66.19,86.68
37784,2018-06-29 09:04:32.750000,-73.29,86.68
37785,2018-06-29 09:04:32.781250,-76.09,86.68
37786,2018-06-29 09:04:32.812500,-72.88,86.68
37787,2018-06-29 09:04:32.843750,-62.99,86.68
37788,2018-06-29 09:04:32.875000,-50.48,86.68
37789,2018-06-29 09:04:32.906250,-40.04,86.68
37790,2018-06-29 09:04:32.937500,-32.32,86.68
37791,2018-06-29 09:04:32.968750,-24.45,86.68
37792,2018-06-29 09:04:33.000000,-12.92,86.68
37793,2018-06-29 09:04:33.031250,2.84,86.68
37794,2018-06-29 09:04:33.062500,18.91,86.68
37795,2018-06-29 09:04:33.093750,31.69,86.68
37796,2018-06-29 09:04:33.125000,44.23,86.68
37797,2018-06-29 09:04:33.156250,64.47,86.68
37798,2018-06-29 09:04:33.187500,95.8,86.68
37799,2018-06-29 09:04:33.218750,128.56,86.68
37800,2018-06-29 09:04:33.250000,141.7,86.68
37801,2018-06-29 09:04:33.281250,120.47,86.68
37802,2018-06-29 09:04:33.312500,74.66,86.68
37803,2018-06-29 09:04:33.343750,31.77,86.68
37804,2018-06-29 09:04:33.375000,9.15,86.68
37805,2018-06-29 09:04:33.406250,1.33,86.68
37806,2018-06-29 09:04:33.437500,-5.05,86.68
37807,2018-06-29 09:04:33.468750,-15.93,86.68
37808,2018-06-29 09:04:33.500000,-30.95,86.68
37809,2018-06-29 09:04:33.531250,-47.65,86.68
37810,2018-06-29 09:04:33.562500,-59.05,86.68
37811,2018-06-29 09:04:33.593750,-55.41,86.68
37812,2018-06-29 09:04:33.625000,-34.44,86.68
37813,2018-06-29 09:04:33.656250,-7.17,86.68
37814,2018-06-29 09:04:33.687500,10.3,86.68
37815,2018-06-29 09:04:33.718750,11.78,86.68
37816,2018-06-29 09:04:33.750000,7.93,86.68
37817,2018-06-29 09:04:33.781250,12.0,86.68
37818,2018-06-29 09:04:33.812500,23.93,86.68
37819,2018-06-29 09:04:33.843750,31.01,86.68
37820,2018-06-29 09:04:33.875000,20.47,86.68
37821,2018-06-29 09:04:33.906250,-8.86,86.68
37822,2018-06-29 09:04:33.937500,-43.17,86.68
37823,2018-06-29 09:04:33.968750,-62.64,86.68
37824,2018-06-29 09:04:34.000000,-59.62,86.68
37825,2018-06-29 09:04:34.031250,-40.0,86.68
37826,2018-06-29 09:04:34.062500,-14.21,86.68
37827,2018-06-29 09:04:34.093750,11.8,86.68
37828,2018-06-29 09:04:34.125000,33.93,86.68
37829,2018-06-29 09:04:34.156250,48.71,86.68
37830,2018-06-29 09:04:34.187500,55.79,86.68
37831,2018-06-29 09:04:34.218750,56.68,86.68
37832,2018-06-29 09:04:34.250000,57.52,86.68
37833,2018-06-29 09:04:34.281250,56.68,86.68
37834,2018-06-29 09:04:34.312500,57.61,86.68
37835,2018-06-29 09:04:34.343750,58.12,86.68
37836,2018-06-29 09:04:34.375000,51.48,86.68
37837,2018-06-29 09:04:34.406250,31.08,86.68
37838,2018-06-29 09:04:34.437500,7.35,86.68
37839,2018-06-29 09:04:34.468750,9.35,86.68
37840,2018-06-29 09:04:34.500000,56.12,86.68
37841,2018-06-29 09:04:34.531250,146.12,86.7
37842,2018-06-29 09:04:34.562500,237.85,86.7
37843,2018-06-29 09:04:34.593750,300.97,86.7
37844,2018-06-29 09:04:34.625000,325.5,86.7
37845,2018-06-29 09:04:34.656250,277.97,86.7
37846,2018-06-29 09:04:34.687500,239.84,86.7
37847,2018-06-29 09:04:34.718750,207.32,86.7
