,Time,ppg,hr
38400,2018-06-29 09:04:52.000000,-16.33,86.77
38401,2018-06-29 09:04:52.031250,2.91,86.77
38402,2018-06-29 09:04:52.062500,29.76,86.77
38403,2018-06-29 09:04:52.093750,65.84,86.77
38404,2018-06-29 09:04:52.125000,106.14,86.77
38405,2018-06-29 09:04:52.156250,137.13,86.77
38406,2018-06-29 09:04:52.187500,143.98,86.77
38407,2018-06-29 09:04:52.218750,121.72,86.77
38408,2018-06-29 09:04:52.250000,75.7,86.77
38409,2018-06-29 09:04:52.281250,18.81,86.77
38410,2018-06-29 09:04:52.312500,-27.12,86.77
38411,2018-06-29 09:04:52.343750,-45.0,86.77
38412,2018-06-29 09:04:52.375000,-44.65,86.77
38413,2018-06-29 09:04:52.406250,-52.6,86.77
38414,2018-06-29 09:04:52.437500,-76.77,86.77
38415,2018-06-29 09:04:52.468750,-100.72,86.77
38416,2018-06-29 09:04:52.500000,-110.81,86.77
38417,2018-06-29 09:04:52.531250,-109.19,86.7
38418,2018-06-29 09:04:52.562500,-101.04,86.7
38419,2018-06-29 09:04:52.593750,-83.86,86.7
38420,2018-06-29 09:04:52.625000,-51.07,86.7
38421,2018-06-29 09:04:52.656250,-0.56,86.7
38422,2018-06-29 09:04:52.687500,57.15,86.7
38423,2018-06-29 09:04:52.718750,100.01,86.7
38424,2018-06-29 09:04:52.750000,113.83,86.7
38425,2018-06-29 09:04:52.781250,108.35,86.7
38426,2018-06-29 09:04:52.812500,102.59,86.7
38427,2018-06-29 09:04:52.843750,100.01,86.7
38428,2018-06-29 09:04:52.875000,90.26,86.7
38429,2018-06-29 09:04:52.906250,68.07,86.7
38430,2018-06-29 09:04:52.937500,39.96,86.7
38431,2018-06-29 09:04:52.968750,13.72,86.7
38432,2018-06-29 09:04:53.000000,-12.64,86.7
38433,2018-06-29 09:04:53.031250,-45.69,86.7
38434,2018-06-29 09:04:53.062500,-82.83,86.7
38435,2018-06-29 09:04:53.093750,-113.86,86.7
38436,2018-06-29 09:04:53.125000,-134.12,86.7
38437,2018-06-29 09:04:53.156250,-145.32,86.7
38438,2018-06-29 09:04:53.187500,-148.93,86.7
38439,2018-06-29 09:04:53.218750,-146.4,86.7
38440,2018-06-29 09:04:53.250000,-136.1,86.7
38441,2018-06-29 09:04:53.281250,-107.28,86.7
38442,2018-06-29 09:04:53.312500,-48.17,86.7
38443,2018-06-29 09:04:53.343750,36.72,86.7
38444,2018-06-29 09:04:53.375000,124.56,86.7
38445,2018-06-29 09:04:53.406250,190.01,86.7
38446,2018-06-29 09:04:53.437500,219.31,86.7
38447,2018-06-29 09:04:53.468750,214.83,86.7
38448,2018-06-29 09:04:53.500000,191.26,86.7
38449,2018-06-29 09:04:53.531250,160.59,86.62
38450,2018-06-29 09:04:53.562500,120.8,86.62
38451,2018-06-29 09:04:53.593750,69.7,86.62
38452,2018-06-29 09:04:53.625000,20.38,86.62
38453,2018-06-29 09:04:53.656250,-16.23,86.62
38454,2018-06-29 09:04:53.687500,-48.36,86.62
38455,2018-06-29 09:04:53.718750,-83.32,86.62
38456,2018-06-29 09:04:53.750000,-111.03,86.62
38457,2018-06-29 09:04:53.781250,-123.02,86.62
38458,2018-06-29 09:04:53.812500,-126.48,86.62
38459,2018-06-29 09:04:53.843750,-129.27,86.62
38460,2018-06-29 09:04:53.875000,-129.28,86.62
38461,2018-06-29 09:04:53.906250,-122.89,86.62
38462,2018-06-29 09:04:53.937500,-110.56,86.62
38463,2018-06-29 09:04:53.968750,-92.06,86.62
38464,2018-06-29 09:04:54.000000,-64.94,86.62
38465,2018-06-29 09:04:54.031250,-30.19,86.62
38466,2018-06-29 09:04:54.062500,4.99,86.62
38467,2018-06-29 09:04:54.093750,33.34,86.62
38468,2018-06-29 09:04:54.125000,54.26,86.62
38469,2018-06-29 09:04:54.156250,69.16,86.62
38470,2018-06-29 09:04:54.187500,74.17,86.62
38471,2018-06-29 09:04:54.218750,65.76,86.62
38472,2018-06-29 09:04:54.250000,49.28,86.62
38473,2018-06-29 09:04:54.281250,32.69,86.62
38474,2018-06-29 09:04:54.312500,18.1,86.62
38475,2018-06-29 09:04:54.343750,5.87,86.62
38476,2018-06-29 09:04:54.375000,-3.36,86.62
38477,2018-06-29 09:04:54.406250,-14.35,86.62
38478,2018-06-29 09:04:54.437500,-33.72,86.62
38479,2018-06-29 09:04:54.468750,-59.56,86.62
38480,2018-06-29 09:04:54.500000,-83.05,86.62
38481,2018-06-29 09:04:54.531250,-98.15,86.53
38482,2018-06-29 09:04:54.562500,-104.49,86.53
38483,2018-06-29 09:04:54.593750,-104.82,86.53
38484,2018-06-29 09:04:54.625000,-101.79,86.53
38485,2018-06-29 09:04:54.656250,-93.01,86.53
38486,2018-06-29 09:04:54.687500,-70.79,86.53
38487,2018-06-29 09:04:54.718750,-32.35,86.53
38488,2018-06-29 09:04:54.750000,13.37,86.53
38489,2018-06-29 09:04:54.781250,55.23,86.53
38490,2018-06-29 09:04:54.812500,91.15,86.53
38491,2018-06-29 09:04:54.843750,122.23,86.53
38492,2018-06-29 09:04:54.875000,142.58,86.53
38493,2018-06-29 09:04:54.906250,144.13,86.53
38494,2018-06-29 09:04:54.937500,126.07,86.53
38495,2018-06-29 09:04:54.968750,93.67,86.53
38496,2018-06-29 09:04:55.000000,54.62,86.53
38497,2018-06-29 09:04:55.031250,19.56,86.53
38498,2018-06-29 09:04:55.062500,-4.95,86.53
38499,2018-06-29 09:04:55.093750,-25.05,86.53
38500,2018-06-29 09:04:55.125000,-49.19,86.53
38501,2018-06-29 09:04:55.156250,-71.91,86.53
38502,2018-06-29 09:04:55.187500,-81.41,86.53
38503,2018-06-29 09:04:55.218750,-76.92,86.53
38504,2018-06-29 09:04:55.250000,-66.02,86.53
38505,2018-06-29 09:04:55.281250,-52.4,86.53
38506,2018-06-29 09:04:55.312500,-36.49,86.53
38507,2018-06-29 09:04:55.343750,-21.85,86.53
38508,2018-06-29 09:04:55.375000,-12.83,86.53
38509,2018-06-29 09:04:55.406250,-9.43,86.53
38510,2018-06-29 09:04:55.437500,-8.55,86.53
38511,2018-06-29 09:04:55.468750,-8.12,86.53
38512,2018-06-29 09:04:55.500000,-7.77,86.53
38513,2018-06-29 09:04:55.531250,-9.19,86.52
38514,2018-06-29 09:04:55.562500,-15.75,86.52
38515,2018-06-29 09:04:55.593750,-25.73,86.52
38516,2018-06-29 09:04:55.625000,-27.32,86.52
38517,2018-06-29 09:04:55.656250,-10.78,86.52
38518,2018-06-29 09:04:55.687500,16.05,86.52
38519,2018-06-29 09:04:55.718750,36.19,86.52
38520,2018-06-29 09:04:55.750000,43.84,86.52
38521,2018-06-29 09:04:55.781250,44.41,86.52
38522,2018-06-29 09:04:55.812500,40.29,86.52
38523,2018-06-29 09:04:55.843750,28.75,86.52
38524,2018-06-29 09:04:55.875000,10.66,86.52
38525,2018-06-29 09:04:55.906250,-7.34,86.52
38526,2018-06-29 09:04:55.937500,-17.6,86.52
38527,2018-06-29 09:04:55.968750,-15.25,86.52
38528,2018-06-29 09:04:56.000000,-1.79,86.52
38529,2018-06-29 09:04:56.031250,13.12,86.52
38530,2018-06-29 09:04:56.062500,20.91,86.52
38531,2018-06-29 09:04:56.093750,28.02,86.52
38532,2018-06-29 09:04:56.125000,49.57,86.52
38533,2018-06-29 09:04:56.156250,87.4,86.52
38534,2018-06-29 09:04:56.187500,130.57,86.52
38535,2018-06-29 09:04:56.218750,176.67,86.52
38536,2018-06-29 09:04:56.250000,229.51,86.52
38537,2018-06-29 09:04:56.281250,273.86,86.52
38538,2018-06-29 09:04:56.312500,278.16,86.52
38539,2018-06-29 09:04:56.343750,229.52,86.52
38540,2018-06-29 09:04:56.375000,148.84,86.52
38541,2018-06-29 09:04:56.406250,67.98,86.52
38542,2018-06-29 09:04:56.437500,2.9,86.52
38543,2018-06-29 09:04:56.468750,-49.05,86.52
38544,2018-06-29 09:04:56.500000,-95.25,86.52
38545,2018-06-29 09:04:56.531250,-137.85,86.5
38546,2018-06-29 09:04:56.562500,-172.68,86.5
38547,2018-06-29 09:04:56.593750,-190.62,86.5
38548,2018-06-29 09:04:56.625000,-182.98,86.5
38549,2018-06-29 09:04:56.656250,-152.97,86.5
38550,2018-06-29 09:04:56.687500,-117.62,86.5
38551,2018-06-29 09:04:56.718750,-90.68,86.5
38552,2018-06-29 09:04:56.750000,-69.86,86.5
38553,2018-06-29 09:04:56.781250,-46.95,86.5
38554,2018-06-29 09:04:56.812500,-22.28,86.5
38555,2018-06-29 09:04:56.843750,-0.49,86.5
38556,2018-06-29 09:04:56.875000,20.4,86.5
38557,2018-06-29 09:04:56.906250,44.34,86.5
38558,2018-06-29 09:04:56.937500,66.42,86.5
38559,2018-06-29 09:04:56.968750,74.27,86.5
38560,2018-06-29 09:04:57.000000,55.28,86.5
38561,2018-06-29 09:04:57.031250,7.73,86.5
38562,2018-06-29 09:04:57.062500,-44.95,86.5
38563,2018-06-29 09:04:57.093750,-68.18,86.5
38564,2018-06-29 09:04:57.125000,-55.69,86.5
38565,2018-06-29 09:04:57.156250,-33.26,86.5
38566,2018-06-29 09:04:57.187500,-19.8,86.5
38567,2018-06-29 09:04:57.218750,-12.73,86.5
38568,2018-06-29 09:04:57.250000,-9.9,86.5
38569,2018-06-29 09:04:57.281250,-15.76,86.5
38570,2018-06-29 09:04:57.312500,-26.79,86.5
38571,2018-06-29 09:04:57.343750,-32.65,86.5
38572,2018-06-29 09:04:57.375000,-30.81,86.5
38573,2018-06-29 09:04:57.406250,-27.2,86.5
38574,2018-06-29 09:04:57.437500,-24.15,86.5
38575,2018-06-29 09:04:57.468750,-16.94,86.5
38576,2018-06-29 09:04:57.500000,1.84,86.5
38577,2018-06-29 09:04:57.531250,39.39,86.47
38578,2018-06-29 09:04:57.562500,91.68,86.47
38579,2018-06-29 09:04:57.593750,133.6,86.47
38580,2018-06-29 09:04:57.625000,140.18,86.47
38581,2018-06-29 09:04:57.656250,115.15,86.47
38582,2018-06-29 09:04:57.687500,81.7,86.47
38583,2018-06-29 09:04:57.718750,53.34,86.47
38584,2018-06-29 09:04:57.750000,30.19,86.47
38585,2018-06-29 09:04:57.781250,11.88,86.47
38586,2018-06-29 09:04:57.812500,-2.52,86.47
38587,2018-06-29 09:04:57.843750,-19.42,86.47
38588,2018-06-29 09:04:57.875000,-42.98,86.47
38589,2018-06-29 09:04:57.906250,-66.68,86.47
38590,2018-06-29 09:04:57.937500,-81.77,86.47
38591,2018-06-29 09:04:57.968750,-89.57,86.47
38592,2018-06-29 09:04:58.000000,-93.35,86.47
38593,2018-06-29 09:04:58.031250,-84.8,86.47
38594,2018-06-29 09:04:58.062500,-52.32,86.47
38595,2018-06-29 09:04:58.093750,2.73,86.47
38596,2018-06-29 09:04:58.125000,67.48,86.47
38597,2018-06-29 09:04:58.156250,126.36,86.47
38598,2018-06-29 09:04:58.187500,164.24,86.47
38599,2018-06-29 09:04:58.218750,169.44,86.47
38600,2018-06-29 09:04:58.250000,138.73,86.47
38601,2018-06-29 09:04:58.281250,81.84,86.47
38602,2018-06-29 09:04:58.312500,20.38,86.47
38603,2018-06-29 09:04:58.343750,-24.6,86.47
38604,2018-06-29 09:04:58.375000,-48.03,86.47
38605,2018-06-29 09:04:58.406250,-61.95,86.47
38606,2018-06-29 09:04:58.437500,-81.83,86.47
38607,2018-06-29 09:04:58.468750,-110.91,86.47
38608,2018-06-29 09:04:58.500000,-135.56,86.47
38609,2018-06-29 09:04:58.531250,-141.43,86.43
38610,2018-06-29 09:04:58.562500,-132.08,86.43
38611,2018-06-29 09:04:58.593750,-121.99,86.43
38612,2018-06-29 09:04:58.625000,-117.63,86.43
38613,2018-06-29 09:04:58.656250,-115.92,86.43
38614,2018-06-29 09:04:58.687500,-113.32,86.43
38615,2018-06-29 09:04:58.718750,-107.24,86.43
38616,2018-06-29 09:04:58.750000,-93.53,86.43
38617,2018-06-29 09:04:58.781250,-68.98,86.43
38618,2018-06-29 09:04:58.812500,-35.31,86.43
38619,2018-06-29 09:04:58.843750,1.91,86.43
38620,2018-06-29 09:04:58.875000,37.61,86.43
38621,2018-06-29 09:04:58.906250,67.37,86.43
38622,2018-06-29 09:04:58.937500,85.72,86.43
38623,2018-06-29 09:04:58.968750,91.24,86.43
38624,2018-06-29 09:04:59.000000,89.93,86.43
38625,2018-06-29 09:04:59.031250,86.06,86.43
38626,2018-06-29 09:04:59.062500,77.55,86.43
38627,2018-06-29 09:04:59.093750,64.61,86.43
38628,2018-06-29 09:04:59.125000,50.24,86.43
38629,2018-06-29 09:04:59.156250,31.35,86.43
38630,2018-06-29 09:04:59.187500,2.74,86.43
38631,2018-06-29 09:04:59.218750,-31.65,86.43
38632,2018-06-29 09:04:59.250000,-62.19,86.43
38633,2018-06-29 09:04:59.281250,-83.69,86.43
38634,2018-06-29 09:04:59.312500,-94.25,86.43
38635,2018-06-29 09:04:59.343750,-90.71,86.43
38636,2018-06-29 09:04:59.375000,-73.92,86.43
38637,2018-06-29 09:04:59.406250,-51.9,86.43
38638,2018-06-29 09:04:59.437500,-31.0,86.43
38639,2018-06-29 09:04:59.468750,-9.98,86.43
38640,2018-06-29 09:04:59.500000,13.26,86.43
38641,2018-06-29 09:04:59.531250,35.2,86.43
38642,2018-06-29 09:04:59.562500,49.87,86.43
38643,2018-06-29 09:04:59.593750,54.55,86.43
38644,2018-06-29 09:04:59.625000,50.32,86.43
38645,2018-06-29 09:04:59.656250,37.63,86.43
38646,2018-06-29 09:04:59.687500,15.4,86.43
38647,2018-06-29 09:04:59.718750,-11.82,86.43
38648,2018-06-29 09:04:59.750000,-31.66,86.43
38649,2018-06-29 09:04:59.781250,-34.94,86.43
38650,2018-06-29 09:04:59.812500,-26.54,86.43
38651,2018-06-29 09:04:59.843750,-21.67,86.43
38652,2018-06-29 09:04:59.875000,-31.58,86.43
38653,2018-06-29 09:04:59.906250,-51.81,86.43
38654,2018-06-29 09:04:59.937500,-65.37,86.43
38655,2018-06-29 09:04:59.968750,-60.19,86.43
38656,2018-06-29 09:05:00.000000,-40.75,86.43
38657,2018-06-29 09:05:00.031250,-19.14,86.43
38658,2018-06-29 09:05:00.062500,0.12,86.43
38659,2018-06-29 09:05:00.093750,20.01,86.43
38660,2018-06-29 09:05:00.125000,40.03,86.43
38661,2018-06-29 09:05:00.156250,55.19,86.43
38662,2018-06-29 09:05:00.187500,65.11,86.43
38663,2018-06-29 09:05:00.218750,76.44,86.43
38664,2018-06-29 09:05:00.250000,94.91,86.43
38665,2018-06-29 09:05:00.281250,118.96,86.43
38666,2018-06-29 09:05:00.312500,140.12,86.43
38667,2018-06-29 09:05:00.343750,147.55,86.43
38668,2018-06-29 09:05:00.375000,137.15,86.43
38669,2018-06-29 09:05:00.406250,117.98,86.43
38670,2018-06-29 09:05:00.437500,101.29,86.43
38671,2018-06-29 09:05:00.468750,84.14,86.43
38672,2018-06-29 09:05:00.500000,55.97,86.43
38673,2018-06-29 09:05:00.531250,19.75,86.47
38674,2018-06-29 09:05:00.562500,-9.31,86.47
38675,2018-06-29 09:05:00.593750,-25.85,86.47
38676,2018-06-29 09:05:00.625000,-39.13,86.47
38677,2018-06-29 09:05:00.656250,-56.15,86.47
38678,2018-06-29 09:05:00.687500,-73.63,86.47
38679,2018-06-29 09:05:00.718750,-86.76,86.47
38680,2018-06-29 09:05:00.750000,-94.17,86.47
38681,2018-06-29 09:05:00.781250,-93.23,86.47
38682,2018-06-29 09:05:00.812500,-79.08,86.47
38683,2018-06-29 09:05:00.843750,-50.6,86.47
38684,2018-06-29 09:05:00.875000,-14.39,86.47
38685,2018-06-29 09:05:00.906250,17.39,86.47
38686,2018-06-29 09:05:00.937500,33.57,86.47
38687,2018-06-29 09:05:00.968750,32.08,86.47
38688,2018-06-29 09:05:01.000000,21.68,86.47
38689,2018-06-29 09:05:01.031250,12.03,86.47
38690,2018-06-29 09:05:01.062500,3.37,86.47
38691,2018-06-29 09:05:01.093750,-10.0,86.47
38692,2018-06-29 09:05:01.125000,-29.26,86.47
38693,2018-06-29 09:05:01.156250,-48.32,86.47
38694,2018-06-29 09:05:01.187500,-59.31,86.47
38695,2018-06-29 09:05:01.218750,-58.22,86.47
38696,2018-06-29 09:05:01.250000,-47.32,86.47
38697,2018-06-29 09:05:01.281250,-33.45,86.47
38698,2018-06-29 09:05:01.312500,-21.44,86.47
38699,2018-06-29 09:05:01.343750,-7.59,86.47
38700,2018-06-29 09:05:01.375000,16.48,86.47
38701,2018-06-29 09:05:01.406250,51.44,86.47
38702,2018-06-29 09:05:01.437500,86.79,86.47
38703,2018-06-29 09:05:01.468750,110.8,86.47
38704,2018-06-29 09:05:01.500000,116.72,86.47
38705,2018-06-29 09:05:01.531250,100.05,86.43
38706,2018-06-29 09:05:01.562500,61.21,86.43
38707,2018-06-29 09:05:01.593750,16.05,86.43
38708,2018-06-29 09:05:01.625000,-5.08,86.43
38709,2018-06-29 09:05:01.656250,19.94,86.43
38710,2018-06-29 09:05:01.687500,81.09,86.43
38711,2018-06-29 09:05:01.718750,141.46,86.43
38712,2018-06-29 09:05:01.750000,168.21,86.43
38713,2018-06-29 09:05:01.781250,152.54,86.43
38714,2018-06-29 09:05:01.812500,106.41,86.43
38715,2018-06-29 09:05:01.843750,55.1,86.43
38716,2018-06-29 09:05:01.875000,24.32,86.43
38717,2018-06-29 09:05:01.906250,17.13,86.43
38718,2018-06-29 09:05:01.937500,11.12,86.43
38719,2018-06-29 09:05:01.968750,-11.26,86.43
38720,2018-06-29 09:05:02.000000,-42.86,86.43
38721,2018-06-29 09:05:02.031250,-70.04,86.43
38722,2018-06-29 09:05:02.062500,-92.32,86.43
38723,2018-06-29 09:05:02.093750,-114.45,86.43
38724,2018-06-29 09:05:02.125000,-133.16,86.43
38725,2018-06-29 09:05:02.156250,-141.68,86.43
38726,2018-06-29 09:05:02.187500,-139.54,86.43
38727,2018-06-29 09:05:02.218750,-130.74,86.43
38728,2018-06-29 09:05:02.250000,-118.41,86.43
38729,2018-06-29 09:05:02.281250,-106.35,86.43
38730,2018-06-29 09:05:02.312500,-97.42,86.43
38731,2018-06-29 09:05:02.343750,-85.49,86.43
38732,2018-06-29 09:05:02.375000,-58.66,86.43
38733,2018-06-29 09:05:02.406250,-14.54,86.43
38734,2018-06-29 09:05:02.437500,36.93,86.43
38735,2018-06-29 09:05:02.468750,86.42,86.43
38736,2018-06-29 09:05:02.500000,128.66,86.43
38737,2018-06-29 09:05:02.531250,154.67,86.38
38738,2018-06-29 09:05:02.562500,154.53,86.38
38739,2018-06-29 09:05:02.593750,128.3,86.38
38740,2018-06-29 09:05:02.625000,86.3,86.38
38741,2018-06-29 09:05:02.656250,40.64,86.38
38742,2018-06-29 09:05:02.687500,-0.99,86.38
38743,2018-06-29 09:05:02.718750,-35.12,86.38
38744,2018-06-29 09:05:02.750000,-60.94,86.38
38745,2018-06-29 09:05:02.781250,-81.24,86.38
38746,2018-06-29 09:05:02.812500,-98.83,86.38
38747,2018-06-29 09:05:02.843750,-108.53,86.38
38748,2018-06-29 09:05:02.875000,-102.06,86.38
38749,2018-06-29 09:05:02.906250,-83.35,86.38
38750,2018-06-29 09:05:02.937500,-65.86,86.38
38751,2018-06-29 09:05:02.968750,-55.0,86.38
38752,2018-06-29 09:05:03.000000,-45.89,86.38
38753,2018-06-29 09:05:03.031250,-34.72,86.38
38754,2018-06-29 09:05:03.062500,-21.91,86.38
38755,2018-06-29 09:05:03.093750,-7.15,86.38
38756,2018-06-29 09:05:03.125000,12.32,86.38
38757,2018-06-29 09:05:03.156250,39.37,86.38
38758,2018-06-29 09:05:03.187500,72.59,86.38
38759,2018-06-29 09:05:03.218750,100.82,86.38
38760,2018-06-29 09:05:03.250000,106.08,86.38
38761,2018-06-29 09:05:03.281250,80.64,86.38
38762,2018-06-29 09:05:03.312500,38.65,86.38
38763,2018-06-29 09:05:03.343750,3.17,86.38
38764,2018-06-29 09:05:03.375000,-14.26,86.38
38765,2018-06-29 09:05:03.406250,-16.78,86.38
38766,2018-06-29 09:05:03.437500,-13.41,86.38
38767,2018-06-29 09:05:03.468750,-13.15,86.38
38768,2018-06-29 09:05:03.500000,-20.62,86.38
38769,2018-06-29 09:05:03.531250,-32.65,86.33
38770,2018-06-29 09:05:03.562500,-41.01,86.33
38771,2018-06-29 09:05:03.593750,-38.25,86.33
38772,2018-06-29 09:05:03.625000,-19.22,86.33
38773,2018-06-29 09:05:03.656250,17.95,86.33
38774,2018-06-29 09:05:03.687500,64.57,86.33
38775,2018-06-29 09:05:03.718750,97.18,86.33
38776,2018-06-29 09:05:03.750000,92.76,86.33
38777,2018-06-29 09:05:03.781250,53.7,86.33
38778,2018-06-29 09:05:03.812500,8.74,86.33
38779,2018-06-29 09:05:03.843750,-16.57,86.33
38780,2018-06-29 09:05:03.875000,-21.33,86.33
38781,2018-06-29 09:05:03.906250,-19.52,86.33
38782,2018-06-29 09:05:03.937500,-21.3,86.33
38783,2018-06-29 09:05:03.968750,-28.96,86.33
38784,2018-06-29 09:05:04.000000,-40.53,86.33
38785,2018-06-29 09:05:04.031250,-51.31,86.33
38786,2018-06-29 09:05:04.062500,-57.96,86.33
38787,2018-06-29 09:05:04.093750,-62.84,86.33
38788,2018-06-29 09:05:04.125000,-70.22,86.33
38789,2018-06-29 09:05:04.156250,-80.17,86.33
38790,2018-06-29 09:05:04.187500,-90.56,86.33
38791,2018-06-29 09:05:04.218750,-102.22,86.33
38792,2018-06-29 09:05:04.250000,-117.0,86.33
38793,2018-06-29 09:05:04.281250,-129.82,86.33
38794,2018-06-29 09:05:04.312500,-127.42,86.33
38795,2018-06-29 09:05:04.343750,-101.0,86.33
38796,2018-06-29 09:05:04.375000,-58.12,86.33
38797,2018-06-29 09:05:04.406250,-16.1,86.33
38798,2018-06-29 09:05:04.437500,13.67,86.33
38799,2018-06-29 09:05:04.468750,30.44,86.33
38800,2018-06-29 09:05:04.500000,38.86,86.33
38801,2018-06-29 09:05:04.531250,45.48,86.27
38802,2018-06-29 09:05:04.562500,56.58,86.27
38803,2018-06-29 09:05:04.593750,72.5,86.27
38804,2018-06-29 09:05:04.625000,83.82,86.27
38805,2018-06-29 09:05:04.656250,78.92,86.27
38806,2018-06-29 09:05:04.687500,58.15,86.27
38807,2018-06-29 09:05:04.718750,34.31,86.27
38808,2018-06-29 09:05:04.750000,18.29,86.27
38809,2018-06-29 09:05:04.781250,13.93,86.27
38810,2018-06-29 09:05:04.812500,23.62,86.27
38811,2018-06-29 09:05:04.843750,44.2,86.27
38812,2018-06-29 09:05:04.875000,61.99,86.27
38813,2018-06-29 09:05:04.906250,66.37,86.27
38814,2018-06-29 09:05:04.937500,63.2,86.27
38815,2018-06-29 09:05:04.968750,64.94,86.27
38816,2018-06-29 09:05:05.000000,75.46,86.27
38817,2018-06-29 09:05:05.031250,89.64,86.27
38818,2018-06-29 09:05:05.062500,99.17,86.27
38819,2018-06-29 09:05:05.093750,95.26,86.27
38820,2018-06-29 09:05:05.125000,72.77,86.27
38821,2018-06-29 09:05:05.156250,34.5,86.27
38822,2018-06-29 09:05:05.187500,-11.63,86.27
38823,2018-06-29 09:05:05.218750,-58.22,86.27
38824,2018-06-29 09:05:05.250000,-97.52,86.27
38825,2018-06-29 09:05:05.281250,-119.35,86.27
38826,2018-06-29 09:05:05.312500,-118.39,86.27
38827,2018-06-29 09:05:05.343750,-100.75,86.27
38828,2018-06-29 09:05:05.375000,-76.95,86.27
38829,2018-06-29 09:05:05.406250,-52.33,86.27
38830,2018-06-29 09:05:05.437500,-30.45,86.27
38831,2018-06-29 09:05:05.468750,-18.31,86.27
38832,2018-06-29 09:05:05.500000,-19.6,86.27
38833,2018-06-29 09:05:05.531250,-28.43,86.22
38834,2018-06-29 09:05:05.562500,-36.33,86.22
38835,2018-06-29 09:05:05.593750,-40.79,86.22
38836,2018-06-29 09:05:05.625000,-43.16,86.22
38837,2018-06-29 09:05:05.656250,-43.52,86.22
38838,2018-06-29 09:05:05.687500,-41.12,86.22
38839,2018-06-29 09:05:05.718750,-35.05,86.22
38840,2018-06-29 09:05:05.750000,-20.85,86.22
38841,2018-06-29 09:05:05.781250,7.36,86.22
38842,2018-06-29 09:05:05.812500,48.0,86.22
38843,2018-06-29 09:05:05.843750,91.83,86.22
38844,2018-06-29 09:05:05.875000,132.63,86.22
38845,2018-06-29 09:05:05.906250,169.41,86.22
38846,2018-06-29 09:05:05.937500,196.52,86.22
38847,2018-06-29 09:05:05.968750,200.71,86.22
38848,2018-06-29 09:05:06.000000,171.9,86.22
38849,2018-06-29 09:05:06.031250,114.26,86.22
38850,2018-06-29 09:05:06.062500,45.17,86.22
38851,2018-06-29 09:05:06.093750,-15.23,86.22
38852,2018-06-29 09:05:06.125000,-54.1,86.22
38853,2018-06-29 09:05:06.156250,-71.79,86.22
38854,2018-06-29 09:05:06.187500,-80.22,86.22
38855,2018-06-29 09:05:06.218750,-88.8,86.22
38856,2018-06-29 09:05:06.250000,-91.52,86.22
38857,2018-06-29 09:05:06.281250,-77.31,86.22
38858,2018-06-29 09:05:06.312500,-50.0,86.22
38859,2018-06-29 09:05:06.343750,-25.74,86.22
38860,2018-06-29 09:05:06.375000,-13.13,86.22
38861,2018-06-29 09:05:06.406250,-6.02,86.22
38862,2018-06-29 09:05:06.437500,6.0,86.22
38863,2018-06-29 09:05:06.468750,27.18,86.22
38864,2018-06-29 09:05:06.500000,56.61,86.22
38865,2018-06-29 09:05:06.531250,92.73,86.18
38866,2018-06-29 09:05:06.562500,128.41,86.18
38867,2018-06-29 09:05:06.593750,145.62,86.18
38868,2018-06-29 09:05:06.625000,126.68,86.18
38869,2018-06-29 09:05:06.656250,69.62,86.18
38870,2018-06-29 09:05:06.687500,-9.79,86.18
38871,2018-06-29 09:05:06.718750,-81.94,86.18
38872,2018-06-29 09:05:06.750000,-115.05,86.18
38873,2018-06-29 09:05:06.781250,-101.29,86.18
38874,2018-06-29 09:05:06.812500,-65.48,86.18
38875,2018-06-29 09:05:06.843750,-35.77,86.18
38876,2018-06-29 09:05:06.875000,-19.27,86.18
38877,2018-06-29 09:05:06.906250,-12.23,86.18
38878,2018-06-29 09:05:06.937500,-13.01,86.18
38879,2018-06-29 09:05:06.968750,-18.13,86.18
38880,2018-06-29 09:05:07.000000,-20.43,86.18
38881,2018-06-29 09:05:07.031250,-16.56,86.18
38882,2018-06-29 09:05:07.062500,-9.34,86.18
38883,2018-06-29 09:05:07.093750,-2.23,86.18
38884,2018-06-29 09:05:07.125000,6.2,86.18
38885,2018-06-29 09:05:07.156250,24.12,86.18
38886,2018-06-29 09:05:07.187500,63.59,86.18
38887,2018-06-29 09:05:07.218750,127.97,86.18
38888,2018-06-29 09:05:07.250000,198.31,86.18
38889,2018-06-29 09:05:07.281250,242.24,86.18
38890,2018-06-29 09:05:07.312500,243.78,86.18
38891,2018-06-29 09:05:07.343750,215.31,86.18
38892,2018-06-29 09:05:07.375000,174.79,86.18
38893,2018-06-29 09:05:07.406250,124.95,86.18
38894,2018-06-29 09:05:07.437500,63.31,86.18
38895,2018-06-29 09:05:07.468750,-3.13,86.18
38896,2018-06-29 09:05:07.500000,-63.58,86.18
38897,2018-06-29 09:05:07.531250,-113.81,86.18
38898,2018-06-29 09:05:07.562500,-155.0,86.18
38899,2018-06-29 09:05:07.593750,-189.27,86.18
38900,2018-06-29 09:05:07.625000,-217.14,86.18
38901,2018-06-29 09:05:07.656250,-233.13,86.18
38902,2018-06-29 09:05:07.687500,-226.97,86.18
38903,2018-06-29 09:05:07.718750,-194.33,86.18
38904,2018-06-29 09:05:07.750000,-142.8,86.18
38905,2018-06-29 09:05:07.781250,-84.29,86.18
38906,2018-06-29 09:05:07.812500,-27.72,86.18
38907,2018-06-29 09:05:07.843750,18.19,86.18
38908,2018-06-29 09:05:07.875000,44.92,86.18
38909,2018-06-29 09:05:07.906250,52.02,86.18
38910,2018-06-29 09:05:07.937500,46.99,86.18
38911,2018-06-29 09:05:07.968750,34.94,86.18
38912,2018-06-29 09:05:08.000000,15.58,86.18
38913,2018-06-29 09:05:08.031250,-10.04,86.18
38914,2018-06-29 09:05:08.062500,-38.06,86.18
38915,2018-06-29 09:05:08.093750,-64.94,86.18
38916,2018-06-29 09:05:08.125000,-84.27,86.18
38917,2018-06-29 09:05:08.156250,-86.18,86.18
38918,2018-06-29 09:05:08.187500,-69.48,86.18
38919,2018-06-29 09:05:08.218750,-48.07,86.18
38920,2018-06-29 09:05:08.250000,-36.49,86.18
38921,2018-06-29 09:05:08.281250,-35.97,86.18
38922,2018-06-29 09:05:08.312500,-40.12,86.18
38923,2018-06-29 09:05:08.343750,-45.75,86.18
38924,2018-06-29 09:05:08.375000,-52.3,86.18
38925,2018-06-29 09:05:08.406250,-56.7,86.18
38926,2018-06-29 09:05:08.437500,-54.76,86.18
38927,2018-06-29 09:05:08.468750,-45.71,86.18
38928,2018-06-29 09:05:08.500000,-31.94,86.18
38929,2018-06-29 09:05:08.531250,-17.76,86.22
38930,2018-06-29 09:05:08.562500,-8.81,86.22
38931,2018-06-29 09:05:08.593750,-5.83,86.22
38932,2018-06-29 09:05:08.625000,-0.63,86.22
38933,2018-06-29 09:05:08.656250,13.09,86.22
38934,2018-06-29 09:05:08.687500,29.66,86.22
38935,2018-06-29 09:05:08.718750,40.75,86.22
38936,2018-06-29 09:05:08.750000,46.48,86.22
38937,2018-06-29 09:05:08.781250,49.08,86.22
38938,2018-06-29 09:05:08.812500,45.55,86.22
38939,2018-06-29 09:05:08.843750,34.13,86.22
38940,2018-06-29 09:05:08.875000,21.24,86.22
38941,2018-06-29 09:05:08.906250,15.17,86.22
38942,2018-06-29 09:05:08.937500,17.15,86.22
38943,2018-06-29 09:05:08.968750,23.11,86.22
38944,2018-06-29 09:05:09.000000,31.03,86.22
38945,2018-06-29 09:05:09.031250,43.63,86.22
38946,2018-06-29 09:05:09.062500,67.15,86.22
38947,2018-06-29 09:05:09.093750,106.33,86.22
38948,2018-06-29 09:05:09.125000,153.4,86.22
38949,2018-06-29 09:05:09.156250,185.81,86.22
38950,2018-06-29 09:05:09.187500,183.84,86.22
38951,2018-06-29 09:05:09.218750,147.29,86.22
38952,2018-06-29 09:05:09.250000,90.1,86.22
38953,2018-06-29 09:05:09.281250,27.37,86.22
38954,2018-06-29 09:05:09.312500,-26.65,86.22
38955,2018-06-29 09:05:09.343750,-60.1,86.22
38956,2018-06-29 09:05:09.375000,-74.52,86.22
38957,2018-06-29 09:05:09.406250,-84.23,86.22
38958,2018-06-29 09:05:09.437500,-96.72,86.22
38959,2018-06-29 09:05:09.468750,-106.7,86.22
38960,2018-06-29 09:05:09.500000,-113.46,86.22
38961,2018-06-29 09:05:09.531250,-123.72,86.3
38962,2018-06-29 09:05:09.562500,-132.39,86.3
38963,2018-06-29 09:05:09.593750,-122.96,86.3
38964,2018-06-29 09:05:09.625000,-91.53,86.3
38965,2018-06-29 09:05:09.656250,-52.88,86.3
38966,2018-06-29 09:05:09.687500,-20.5,86.3
38967,2018-06-29 09:05:09.718750,7.21,86.3
38968,2018-06-29 09:05:09.750000,41.44,86.3
38969,2018-06-29 09:05:09.781250,92.63,86.3
38970,2018-06-29 09:05:09.812500,158.5,86.3
38971,2018-06-29 09:05:09.843750,212.42,86.3
38972,2018-06-29 09:05:09.875000,216.75,86.3
38973,2018-06-29 09:05:09.906250,162.06,86.3
38974,2018-06-29 09:05:09.937500,80.09,86.3
38975,2018-06-29 09:05:09.968750,9.18,86.3
38976,2018-06-29 09:05:10.000000,-36.24,86.3
38977,2018-06-29 09:05:10.031250,-61.44,86.3
38978,2018-06-29 09:05:10.062500,-78.85,86.3
38979,2018-06-29 09:05:10.093750,-100.38,86.3
38980,2018-06-29 09:05:10.125000,-127.32,86.3
38981,2018-06-29 09:05:10.156250,-149.6,86.3
38982,2018-06-29 09:05:10.187500,-159.17,86.3
38983,2018-06-29 09:05:10.218750,-156.9,86.3
38984,2018-06-29 09:05:10.250000,-145.6,86.3
38985,2018-06-29 09:05:10.281250,-125.49,86.3
38986,2018-06-29 09:05:10.312500,-97.97,86.3
38987,2018-06-29 09:05:10.343750,-68.82,86.3
38988,2018-06-29 09:05:10.375000,-45.64,86.3
38989,2018-06-29 09:05:10.406250,-34.23,86.3
38990,2018-06-29 09:05:10.437500,-35.78,86.3
38991,2018-06-29 09:05:10.468750,-43.54,86.3
38992,2018-06-29 09:05:10.500000,-45.1,86.3
38993,2018-06-29 09:05:10.531250,-33.61,86.38
38994,2018-06-29 09:05:10.562500,-14.73,86.38
38995,2018-06-29 09:05:10.593750,0.7,86.38
38996,2018-06-29 09:05:10.625000,8.08,86.38
38997,2018-06-29 09:05:10.656250,9.53,86.38
38998,2018-06-29 09:05:10.687500,7.42,86.38
38999,2018-06-29 09:05:10.718750,3.05,86.38
39000,2018-06-29 09:05:10.750000,-0.21,86.38
39001,2018-06-29 09:05:10.781250,1.14,86.38
39002,2018-06-29 09:05:10.812500,5.05,86.38
39003,2018-06-29 09:05:10.843750,5.49,86.38
39004,2018-06-29 09:05:10.875000,0.46,86.38
39005,2018-06-29 09:05:10.906250,-3.92,86.38
39006,2018-06-29 09:05:10.937500,2.95,86.38
39007,2018-06-29 09:05:10.968750,27.82,86.38
39008,2018-06-29 09:05:11.000000,68.76,86.38
39009,2018-06-29 09:05:11.031250,120.08,86.38
39010,2018-06-29 09:05:11.062500,177.93,86.38
39011,2018-06-29 09:05:11.093750,235.1,86.38
39012,2018-06-29 09:05:11.125000,272.21,86.38
39013,2018-06-29 09:05:11.156250,263.62,86.38
39014,2018-06-29 09:05:11.187500,201.1,86.38
39015,2018-06-29 09:05:11.218750,108.97,86.38
39016,2018-06-29 09:05:11.250000,25.53,86.38
39017,2018-06-29 09:05:11.281250,-31.37,86.38
39018,2018-06-29 09:05:11.312500,-72.43,86.38
39019,2018-06-29 09:05:11.343750,-113.6,86.38
39020,2018-06-29 09:05:11.375000,-154.6,86.38
39021,2018-06-29 09:05:11.406250,-181.69,86.38
39022,2018-06-29 09:05:11.437500,-185.58,86.38
39023,2018-06-29 09:05:11.468750,-170.92,86.38
39024,2018-06-29 09:05:11.500000,-147.35,86.38
39025,2018-06-29 09:05:11.531250,-118.4,86.52
39026,2018-06-29 09:05:11.562500,-84.69,86.52
39027,2018-06-29 09:05:11.593750,-51.45,86.52
39028,2018-06-29 09:05:11.625000,-25.39,86.52
39029,2018-06-29 09:05:11.656250,-6.76,86.52
39030,2018-06-29 09:05:11.687500,8.14,86.52
39031,2018-06-29 09:05:11.718750,17.8,86.52
39032,2018-06-29 09:05:11.750000,14.73,86.52
39033,2018-06-29 09:05:11.781250,-5.85,86.52
39034,2018-06-29 09:05:11.812500,-37.71,86.52
39035,2018-06-29 09:05:11.843750,-62.17,86.52
39036,2018-06-29 09:05:11.875000,-59.23,86.52
39037,2018-06-29 09:05:11.906250,-26.12,86.52
39038,2018-06-29 09:05:11.937500,19.52,86.52
39039,2018-06-29 09:05:11.968750,58.65,86.52
39040,2018-06-29 09:05:12.000000,84.85,86.52
39041,2018-06-29 09:05:12.031250,98.52,86.52
39042,2018-06-29 09:05:12.062500,99.69,86.52
39043,2018-06-29 09:05:12.093750,89.96,86.52
39044,2018-06-29 09:05:12.125000,72.44,86.52
39045,2018-06-29 09:05:12.156250,47.81,86.52
39046,2018-06-29 09:05:12.187500,18.25,86.52
39047,2018-06-29 09:05:12.218750,-5.08,86.52
39048,2018-06-29 09:05:12.250000,-8.64,86.52
39049,2018-06-29 09:05:12.281250,11.02,86.52
39050,2018-06-29 09:05:12.312500,50.8,86.52
39051,2018-06-29 09:05:12.343750,108.4,86.52
39052,2018-06-29 09:05:12.375000,174.75,86.52
39053,2018-06-29 09:05:12.406250,229.58,86.52
39054,2018-06-29 09:05:12.437500,254.53,86.52
39055,2018-06-29 09:05:12.468750,240.97,86.52
39056,2018-06-29 09:05:12.500000,187.3,86.52
39057,2018-06-29 09:05:12.531250,103.66,86.68
39058,2018-06-29 09:05:12.562500,14.4,86.68
39059,2018-06-29 09:05:12.593750,-56.36,86.68
39060,2018-06-29 09:05:12.625000,-99.55,86.68
39061,2018-06-29 09:05:12.656250,-120.98,86.68
39062,2018-06-29 09:05:12.687500,-132.62,86.68
39063,2018-06-29 09:05:12.718750,-142.26,86.68
39064,2018-06-29 09:05:12.750000,-146.55,86.68
39065,2018-06-29 09:05:12.781250,-135.8,86.68
39066,2018-06-29 09:05:12.812500,-106.27,86.68
39067,2018-06-29 09:05:12.843750,-61.69,86.68
39068,2018-06-29 09:05:12.875000,-6.46,86.68
39069,2018-06-29 09:05:12.906250,48.39,86.68
39070,2018-06-29 09:05:12.937500,78.62,86.68
39071,2018-06-29 09:05:12.968750,69.28,86.68
39072,2018-06-29 09:05:13.000000,38.29,86.68
39073,2018-06-29 09:05:13.031250,15.5,86.68
39074,2018-06-29 09:05:13.062500,8.16,86.68
39075,2018-06-29 09:05:13.093750,5.13,86.68
39076,2018-06-29 09:05:13.125000,-2.06,86.68
39077,2018-06-29 09:05:13.156250,-18.64,86.68
39078,2018-06-29 09:05:13.187500,-47.26,86.68
39079,2018-06-29 09:05:13.218750,-78.34,86.68
39080,2018-06-29 09:05:13.250000,-95.24,86.68
39081,2018-06-29 09:05:13.281250,-91.5,86.68
39082,2018-06-29 09:05:13.312500,-71.0,86.68
39083,2018-06-29 09:05:13.343750,-38.48,86.68
39084,2018-06-29 09:05:13.375000,-1.11,86.68
39085,2018-06-29 09:05:13.406250,30.13,86.68
39086,2018-06-29 09:05:13.437500,48.93,86.68
39087,2018-06-29 09:05:13.468750,57.3,86.68
39088,2018-06-29 09:05:13.500000,60.87,86.68
39089,2018-06-29 09:05:13.531250,64.63,86.88
39090,2018-06-29 09:05:13.562500,68.32,86.88
39091,2018-06-29 09:05:13.593750,64.02,86.88
39092,2018-06-29 09:05:13.625000,45.71,86.88
39093,2018-06-29 09:05:13.656250,24.02,86.88
39094,2018-06-29 09:05:13.687500,23.51,86.88
39095,2018-06-29 09:05:13.718750,61.43,86.88
39096,2018-06-29 09:05:13.750000,130.18,86.88
39097,2018-06-29 09:05:13.781250,200.78,86.88
39098,2018-06-29 09:05:13.812500,243.21,86.88
39099,2018-06-29 09:05:13.843750,244.81,86.88
39100,2018-06-29 09:05:13.875000,211.02,86.88
39101,2018-06-29 09:05:13.906250,153.4,86.88
39102,2018-06-29 09:05:13.937500,82.14,86.88
39103,2018-06-29 09:05:13.968750,6.14,86.88
39104,2018-06-29 09:05:14.000000,-68.44,86.88
39105,2018-06-29 09:05:14.031250,-137.91,86.88
39106,2018-06-29 09:05:14.062500,-195.61,86.88
39107,2018-06-29 09:05:14.093750,-230.39,86.88
39108,2018-06-29 09:05:14.125000,-233.67,86.88
39109,2018-06-29 09:05:14.156250,-208.14,86.88
39110,2018-06-29 09:05:14.187500,-167.69,86.88
39111,2018-06-29 09:05:14.218750,-127.11,86.88
39112,2018-06-29 09:05:14.250000,-92.09,86.88
39113,2018-06-29 09:05:14.281250,-61.22,86.88
39114,2018-06-29 09:05:14.312500,-33.87,86.88
39115,2018-06-29 09:05:14.343750,-11.11,86.88
39116,2018-06-29 09:05:14.375000,8.97,86.88
39117,2018-06-29 09:05:14.406250,32.14,86.88
39118,2018-06-29 09:05:14.437500,63.29,86.88
39119,2018-06-29 09:05:14.468750,98.87,86.88
39120,2018-06-29 09:05:14.500000,124.5,86.88
39121,2018-06-29 09:05:14.531250,125.65,87.12
39122,2018-06-29 09:05:14.562500,100.09,87.12
39123,2018-06-29 09:05:14.593750,57.37,87.12
39124,2018-06-29 09:05:14.625000,11.11,87.12
39125,2018-06-29 09:05:14.656250,-28.14,87.12
39126,2018-06-29 09:05:14.687500,-57.01,87.12
39127,2018-06-29 09:05:14.718750,-77.06,87.12
39128,2018-06-29 09:05:14.750000,-89.47,87.12
39129,2018-06-29 09:05:14.781250,-95.87,87.12
39130,2018-06-29 09:05:14.812500,-99.19,87.12
39131,2018-06-29 09:05:14.843750,-99.19,87.12
39132,2018-06-29 09:05:14.875000,-93.02,87.12
39133,2018-06-29 09:05:14.906250,-81.64,87.12
39134,2018-06-29 09:05:14.937500,-70.43,87.12
39135,2018-06-29 09:05:14.968750,-63.02,87.12
39136,2018-06-29 09:05:15.000000,-53.51,87.12
39137,2018-06-29 09:05:15.031250,-27.45,87.12
39138,2018-06-29 09:05:15.062500,23.47,87.12
39139,2018-06-29 09:05:15.093750,91.7,87.12
39140,2018-06-29 09:05:15.125000,161.02,87.12
39141,2018-06-29 09:05:15.156250,213.62,87.12
39142,2018-06-29 09:05:15.187500,232.32,87.12
39143,2018-06-29 09:05:15.218750,209.32,87.12
39144,2018-06-29 09:05:15.250000,152.11,87.12
39145,2018-06-29 09:05:15.281250,76.37,87.12
39146,2018-06-29 09:05:15.312500,-0.89,87.12
39147,2018-06-29 09:05:15.343750,-64.84,87.12
39148,2018-06-29 09:05:15.375000,-111.27,87.12
39149,2018-06-29 09:05:15.406250,-147.23,87.12
39150,2018-06-29 09:05:15.437500,-175.33,87.12
39151,2018-06-29 09:05:15.468750,-184.93,87.12
39152,2018-06-29 09:05:15.500000,-166.07,87.12
39153,2018-06-29 09:05:15.531250,-123.4,87.33
39154,2018-06-29 09:05:15.562500,-67.85,87.33
39155,2018-06-29 09:05:15.593750,-3.81,87.33
39156,2018-06-29 09:05:15.625000,65.16,87.33
39157,2018-06-29 09:05:15.656250,124.81,87.33
39158,2018-06-29 09:05:15.687500,155.84,87.33
39159,2018-06-29 09:05:15.718750,150.91,87.33
39160,2018-06-29 09:05:15.750000,120.11,87.33
39161,2018-06-29 09:05:15.781250,78.14,87.33
39162,2018-06-29 09:05:15.812500,30.68,87.33
39163,2018-06-29 09:05:15.843750,-22.55,87.33
39164,2018-06-29 09:05:15.875000,-74.57,87.33
39165,2018-06-29 09:05:15.906250,-110.79,87.33
39166,2018-06-29 09:05:15.937500,-124.75,87.33
39167,2018-06-29 09:05:15.968750,-124.66,87.33
39168,2018-06-29 09:05:16.000000,-120.57,87.33
39169,2018-06-29 09:05:16.031250,-114.74,87.33
39170,2018-06-29 09:05:16.062500,-108.89,87.33
39171,2018-06-29 09:05:16.093750,-107.94,87.33
39172,2018-06-29 09:05:16.125000,-111.15,87.33
39173,2018-06-29 09:05:16.156250,-110.68,87.33
39174,2018-06-29 09:05:16.187500,-102.49,87.33
39175,2018-06-29 09:05:16.218750,-90.55,87.33
39176,2018-06-29 09:05:16.250000,-80.32,87.33
39177,2018-06-29 09:05:16.281250,-73.85,87.33
39178,2018-06-29 09:05:16.312500,-67.09,87.33
39179,2018-06-29 09:05:16.343750,-48.41,87.33
39180,2018-06-29 09:05:16.375000,-6.79,87.33
39181,2018-06-29 09:05:16.406250,56.68,87.33
39182,2018-06-29 09:05:16.437500,128.18,87.33
39183,2018-06-29 09:05:16.468750,186.34,87.33
39184,2018-06-29 09:05:16.500000,207.4,87.33
39185,2018-06-29 09:05:16.531250,177.88,87.55
39186,2018-06-29 09:05:16.562500,108.54,87.55
39187,2018-06-29 09:05:16.593750,30.38,87.55
39188,2018-06-29 09:05:16.625000,-27.15,87.55
39189,2018-06-29 09:05:16.656250,-56.19,87.55
39190,2018-06-29 09:05:16.687500,-70.25,87.55
39191,2018-06-29 09:05:16.718750,-86.03,87.55
39192,2018-06-29 09:05:16.750000,-107.37,87.55
39193,2018-06-29 09:05:16.781250,-124.09,87.55
39194,2018-06-29 09:05:16.812500,-122.43,87.55
39195,2018-06-29 09:05:16.843750,-97.95,87.55
39196,2018-06-29 09:05:16.875000,-57.63,87.55
39197,2018-06-29 09:05:16.906250,-10.3,87.55
39198,2018-06-29 09:05:16.937500,37.26,87.55
39199,2018-06-29 09:05:16.968750,76.76,87.55
39200,2018-06-29 09:05:17.000000,102.64,87.55
39201,2018-06-29 09:05:17.031250,116.04,87.55
39202,2018-06-29 09:05:17.062500,116.4,87.55
39203,2018-06-29 09:05:17.093750,96.65,87.55
39204,2018-06-29 09:05:17.125000,52.83,87.55
39205,2018-06-29 09:05:17.156250,-9.59,87.55
39206,2018-06-29 09:05:17.187500,-76.72,87.55
39207,2018-06-29 09:05:17.218750,-124.97,87.55
39208,2018-06-29 09:05:17.250000,-132.05,87.55
39209,2018-06-29 09:05:17.281250,-102.34,87.55
39210,2018-06-29 09:05:17.312500,-65.99,87.55
39211,2018-06-29 09:05:17.343750,-44.9,87.55
39212,2018-06-29 09:05:17.375000,-36.95,87.55
39213,2018-06-29 09:05:17.406250,-33.37,87.55
39214,2018-06-29 09:05:17.437500,-30.02,87.55
39215,2018-06-29 09:05:17.468750,-21.92,87.55
39216,2018-06-29 09:05:17.500000,-3.95,87.55
39217,2018-06-29 09:05:17.531250,22.23,87.75
39218,2018-06-29 09:05:17.562500,49.41,87.75
39219,2018-06-29 09:05:17.593750,71.71,87.75
39220,2018-06-29 09:05:17.625000,89.82,87.75
39221,2018-06-29 09:05:17.656250,112.5,87.75
39222,2018-06-29 09:05:17.687500,150.75,87.75
39223,2018-06-29 09:05:17.718750,204.04,87.75
39224,2018-06-29 09:05:17.750000,254.07,87.75
39225,2018-06-29 09:05:17.781250,277.83,87.75
39226,2018-06-29 09:05:17.812500,262.88,87.75
39227,2018-06-29 09:05:17.843750,209.39,87.75
39228,2018-06-29 09:05:17.875000,130.3,87.75
39229,2018-06-29 09:05:17.906250,49.55,87.75
39230,2018-06-29 09:05:17.937500,-14.39,87.75
39231,2018-06-29 09:05:17.968750,-62.04,87.75
39232,2018-06-29 09:05:18.000000,-100.88,87.75
39233,2018-06-29 09:05:18.031250,-129.5,87.75
39234,2018-06-29 09:05:18.062500,-143.08,87.75
39235,2018-06-29 09:05:18.093750,-142.41,87.75
39236,2018-06-29 09:05:18.125000,-128.49,87.75
39237,2018-06-29 09:05:18.156250,-96.26,87.75
39238,2018-06-29 09:05:18.187500,-40.55,87.75
39239,2018-06-29 09:05:18.218750,29.05,87.75
39240,2018-06-29 09:05:18.250000,82.46,87.75
39241,2018-06-29 09:05:18.281250,91.33,87.75
39242,2018-06-29 09:05:18.312500,58.72,87.75
39243,2018-06-29 09:05:18.343750,13.47,87.75
39244,2018-06-29 09:05:18.375000,-22.81,87.75
39245,2018-06-29 09:05:18.406250,-49.95,87.75
39246,2018-06-29 09:05:18.437500,-79.31,87.75
39247,2018-06-29 09:05:18.468750,-121.24,87.75
39248,2018-06-29 09:05:18.500000,-170.31,87.75
39249,2018-06-29 09:05:18.531250,-198.81,87.97
39250,2018-06-29 09:05:18.562500,-181.1,87.97
39251,2018-06-29 09:05:18.593750,-124.19,87.97
39252,2018-06-29 09:05:18.625000,-59.45,87.97
39253,2018-06-29 09:05:18.656250,-10.41,87.97
39254,2018-06-29 09:05:18.687500,18.03,87.97
39255,2018-06-29 09:05:18.718750,29.03,87.97
39256,2018-06-29 09:05:18.750000,28.53,87.97
39257,2018-06-29 09:05:18.781250,23.99,87.97
39258,2018-06-29 09:05:18.812500,18.85,87.97
39259,2018-06-29 09:05:18.843750,12.2,87.97
39260,2018-06-29 09:05:18.875000,7.73,87.97
39261,2018-06-29 09:05:18.906250,14.89,87.97
39262,2018-06-29 09:05:18.937500,38.6,87.97
39263,2018-06-29 09:05:18.968750,75.95,87.97
39264,2018-06-29 09:05:19.000000,121.49,87.97
39265,2018-06-29 09:05:19.031250,166.53,87.97
39266,2018-06-29 09:05:19.062500,198.83,87.97
39267,2018-06-29 09:05:19.093750,212.55,87.97
39268,2018-06-29 09:05:19.125000,213.18,87.97
39269,2018-06-29 09:05:19.156250,207.94,87.97
39270,2018-06-29 09:05:19.187500,196.84,87.97
39271,2018-06-29 09:05:19.218750,171.54,87.97
39272,2018-06-29 09:05:19.250000,119.66,87.97
39273,2018-06-29 09:05:19.281250,37.01,87.97
39274,2018-06-29 09:05:19.312500,-63.3,87.97
39275,2018-06-29 09:05:19.343750,-156.51,87.97
39276,2018-06-29 09:05:19.375000,-218.5,87.97
39277,2018-06-29 09:05:19.406250,-236.58,87.97
39278,2018-06-29 09:05:19.437500,-217.37,87.97
39279,2018-06-29 09:05:19.468750,-180.78,87.97
39280,2018-06-29 09:05:19.500000,-141.72,87.97
39281,2018-06-29 09:05:19.531250,-103.32,88.2
39282,2018-06-29 09:05:19.562500,-66.33,88.2
39283,2018-06-29 09:05:19.593750,-33.13,88.2
39284,2018-06-29 09:05:19.625000,-3.11,88.2
39285,2018-06-29 09:05:19.656250,26.24,88.2
39286,2018-06-29 09:05:19.687500,53.87,88.2
39287,2018-06-29 09:05:19.718750,77.54,88.2
39288,2018-06-29 09:05:19.750000,99.88,88.2
39289,2018-06-29 09:05:19.781250,125.17,88.2
39290,2018-06-29 09:05:19.812500,152.42,88.2
39291,2018-06-29 09:05:19.843750,174.58,88.2
39292,2018-06-29 09:05:19.875000,180.47,88.2
39293,2018-06-29 09:05:19.906250,159.5,88.2
39294,2018-06-29 09:05:19.937500,113.12,88.2
39295,2018-06-29 09:05:19.968750,56.75,88.2
39296,2018-06-29 09:05:20.000000,2.51,88.2
39297,2018-06-29 09:05:20.031250,-46.46,88.2
39298,2018-06-29 09:05:20.062500,-80.92,88.2
39299,2018-06-29 09:05:20.093750,-88.05,88.2
39300,2018-06-29 09:05:20.125000,-71.72,88.2
39301,2018-06-29 09:05:20.156250,-49.15,88.2
39302,2018-06-29 09:05:20.187500,-30.41,88.2
39303,2018-06-29 09:05:20.218750,-15.77,88.2
39304,2018-06-29 09:05:20.250000,-0.75,88.2
39305,2018-06-29 09:05:20.281250,25.34,88.2
39306,2018-06-29 09:05:20.312500,69.16,88.2
39307,2018-06-29 09:05:20.343750,117.89,88.2
39308,2018-06-29 09:05:20.375000,147.64,88.2
39309,2018-06-29 09:05:20.406250,146.29,88.2
39310,2018-06-29 09:05:20.437500,119.98,88.2
39311,2018-06-29 09:05:20.468750,81.7,88.2
39312,2018-06-29 09:05:20.500000,40.3,88.2
39313,2018-06-29 09:05:20.531250,-3.68,88.45
39314,2018-06-29 09:05:20.562500,-54.09,88.45
39315,2018-06-29 09:05:20.593750,-105.55,88.45
39316,2018-06-29 09:05:20.625000,-139.88,88.45
39317,2018-06-29 09:05:20.656250,-148.98,88.45
39318,2018-06-29 09:05:20.687500,-147.92,88.45
39319,2018-06-29 09:05:20.718750,-150.56,88.45
39320,2018-06-29 09:05:20.750000,-150.94,88.45
39321,2018-06-29 09:05:20.781250,-142.11,88.45
39322,2018-06-29 09:05:20.812500,-131.69,88.45
39323,2018-06-29 09:05:20.843750,-128.28,88.45
39324,2018-06-29 09:05:20.875000,-131.1,88.45
39325,2018-06-29 09:05:20.906250,-136.41,88.45
39326,2018-06-29 09:05:20.937500,-138.91,88.45
39327,2018-06-29 09:05:20.968750,-130.01,88.45
39328,2018-06-29 09:05:21.000000,-108.46,88.45
39329,2018-06-29 09:05:21.031250,-88.19,88.45
39330,2018-06-29 09:05:21.062500,-82.95,88.45
39331,2018-06-29 09:05:21.093750,-85.86,88.45
39332,2018-06-29 09:05:21.125000,-73.37,88.45
39333,2018-06-29 09:05:21.156250,-28.25,88.45
39334,2018-06-29 09:05:21.187500,44.33,88.45
39335,2018-06-29 09:05:21.218750,117.6,88.45
39336,2018-06-29 09:05:21.250000,156.47,88.45
39337,2018-06-29 09:05:21.281250,138.98,88.45
39338,2018-06-29 09:05:21.312500,73.86,88.45
39339,2018-06-29 09:05:21.343750,-5.81,88.45
39340,2018-06-29 09:05:21.375000,-68.11,88.45
39341,2018-06-29 09:05:21.406250,-99.29,88.45
39342,2018-06-29 09:05:21.437500,-105.06,88.45
39343,2018-06-29 09:05:21.468750,-103.91,88.45
39344,2018-06-29 09:05:21.500000,-110.35,88.45
39345,2018-06-29 09:05:21.531250,-118.76,88.57
39346,2018-06-29 09:05:21.562500,-111.51,88.57
39347,2018-06-29 09:05:21.593750,-82.12,88.57
39348,2018-06-29 09:05:21.625000,-40.6,88.57
39349,2018-06-29 09:05:21.656250,0.84,88.57
39350,2018-06-29 09:05:21.687500,36.81,88.57
39351,2018-06-29 09:05:21.718750,65.88,88.57
39352,2018-06-29 09:05:21.750000,89.41,88.57
39353,2018-06-29 09:05:21.781250,111.81,88.57
39354,2018-06-29 09:05:21.812500,132.56,88.57
39355,2018-06-29 09:05:21.843750,139.97,88.57
39356,2018-06-29 09:05:21.875000,120.83,88.57
39357,2018-06-29 09:05:21.906250,74.66,88.57
39358,2018-06-29 09:05:21.937500,16.14,88.57
39359,2018-06-29 09:05:21.968750,-31.55,88.57
39360,2018-06-29 09:05:22.000000,-48.5,88.57
39361,2018-06-29 09:05:22.031250,-31.88,88.57
39362,2018-06-29 09:05:22.062500,1.76,88.57
39363,2018-06-29 09:05:22.093750,30.96,88.57
39364,2018-06-29 09:05:22.125000,44.28,88.57
39365,2018-06-29 09:05:22.156250,41.81,88.57
39366,2018-06-29 09:05:22.187500,30.98,88.57
39367,2018-06-29 09:05:22.218750,25.94,88.57
39368,2018-06-29 09:05:22.250000,41.13,88.57
39369,2018-06-29 09:05:22.281250,73.1,88.57
39370,2018-06-29 09:05:22.312500,97.85,88.57
39371,2018-06-29 09:05:22.343750,100.94,88.57
39372,2018-06-29 09:05:22.375000,98.32,88.57
39373,2018-06-29 09:05:22.406250,111.33,88.57
39374,2018-06-29 09:05:22.437500,134.06,88.57
39375,2018-06-29 09:05:22.468750,140.66,88.57
39376,2018-06-29 09:05:22.500000,112.88,88.57
39377,2018-06-29 09:05:22.531250,49.96,88.63
39378,2018-06-29 09:05:22.562500,-34.72,88.63
39379,2018-06-29 09:05:22.593750,-116.4,88.63
39380,2018-06-29 09:05:22.625000,-169.43,88.63
39381,2018-06-29 09:05:22.656250,-184.83,88.63
39382,2018-06-29 09:05:22.687500,-172.49,88.63
39383,2018-06-29 09:05:22.718750,-147.39,88.63
39384,2018-06-29 09:05:22.750000,-121.44,88.63
39385,2018-06-29 09:05:22.781250,-101.02,88.63
39386,2018-06-29 09:05:22.812500,-81.32,88.63
39387,2018-06-29 09:05:22.843750,-51.88,88.63
39388,2018-06-29 09:05:22.875000,-13.26,88.63
39389,2018-06-29 09:05:22.906250,23.45,88.63
39390,2018-06-29 09:05:22.937500,53.11,88.63
39391,2018-06-29 09:05:22.968750,79.57,88.63
39392,2018-06-29 09:05:23.000000,105.21,88.63
39393,2018-06-29 09:05:23.031250,130.44,88.63
39394,2018-06-29 09:05:23.062500,158.9,88.63
39395,2018-06-29 09:05:23.093750,190.92,88.63
39396,2018-06-29 09:05:23.125000,215.56,88.63
39397,2018-06-29 09:05:23.156250,218.36,88.63
39398,2018-06-29 09:05:23.187500,192.88,88.63
39399,2018-06-29 09:05:23.218750,138.66,88.63
39400,2018-06-29 09:05:23.250000,57.79,88.63
39401,2018-06-29 09:05:23.281250,-36.67,88.63
39402,2018-06-29 09:05:23.312500,-116.37,88.63
39403,2018-06-29 09:05:23.343750,-155.57,88.63
39404,2018-06-29 09:05:23.375000,-154.9,88.63
39405,2018-06-29 09:05:23.406250,-138.66,88.63
39406,2018-06-29 09:05:23.437500,-127.69,88.63
39407,2018-06-29 09:05:23.468750,-123.78,88.63
39408,2018-06-29 09:05:23.500000,-119.83,88.63
39409,2018-06-29 09:05:23.531250,-113.7,88.72
39410,2018-06-29 09:05:23.562500,-108.47,88.72
39411,2018-06-29 09:05:23.593750,-105.16,88.72
39412,2018-06-29 09:05:23.625000,-96.4,88.72
39413,2018-06-29 09:05:23.656250,-69.1,88.72
39414,2018-06-29 09:05:23.687500,-18.73,88.72
39415,2018-06-29 09:05:23.718750,40.99,88.72
39416,2018-06-29 09:05:23.750000,89.16,88.72
39417,2018-06-29 09:05:23.781250,116.1,88.72
39418,2018-06-29 09:05:23.812500,124.92,88.72
39419,2018-06-29 09:05:23.843750,118.55,88.72
39420,2018-06-29 09:05:23.875000,94.99,88.72
39421,2018-06-29 09:05:23.906250,54.95,88.72
39422,2018-06-29 09:05:23.937500,7.23,88.72
39423,2018-06-29 09:05:23.968750,-35.68,88.72
39424,2018-06-29 09:05:24.000000,-67.08,88.72
39425,2018-06-29 09:05:24.031250,-90.28,88.72
39426,2018-06-29 09:05:24.062500,-109.6,88.72
39427,2018-06-29 09:05:24.093750,-120.3,88.72
39428,2018-06-29 09:05:24.125000,-115.81,88.72
39429,2018-06-29 09:05:24.156250,-99.05,88.72
39430,2018-06-29 09:05:24.187500,-75.44,88.72
39431,2018-06-29 09:05:24.218750,-44.31,88.72
39432,2018-06-29 09:05:24.250000,-7.75,88.72
39433,2018-06-29 09:05:24.281250,24.9,88.72
39434,2018-06-29 09:05:24.312500,48.87,88.72
39435,2018-06-29 09:05:24.343750,69.05,88.72
39436,2018-06-29 09:05:24.375000,89.35,88.72
39437,2018-06-29 09:05:24.406250,105.51,88.72
39438,2018-06-29 09:05:24.437500,113.73,88.72
39439,2018-06-29 09:05:24.468750,123.8,88.72
39440,2018-06-29 09:05:24.500000,151.38,88.72
39441,2018-06-29 09:05:24.531250,191.13,88.8
39442,2018-06-29 09:05:24.562500,209.43,88.8
39443,2018-06-29 09:05:24.593750,174.14,88.8
39444,2018-06-29 09:05:24.625000,86.3,88.8
39445,2018-06-29 09:05:24.656250,-19.11,88.8
39446,2018-06-29 09:05:24.687500,-98.43,88.8
39447,2018-06-29 09:05:24.718750,-129.87,88.8
39448,2018-06-29 09:05:24.750000,-124.26,88.8
39449,2018-06-29 09:05:24.781250,-107.09,88.8
39450,2018-06-29 09:05:24.812500,-95.81,88.8
39451,2018-06-29 09:05:24.843750,-94.72,88.8
39452,2018-06-29 09:05:24.875000,-98.73,88.8
39453,2018-06-29 09:05:24.906250,-96.51,88.8
39454,2018-06-29 09:05:24.937500,-77.92,88.8
39455,2018-06-29 09:05:24.968750,-41.04,88.8
39456,2018-06-29 09:05:25.000000,6.03,88.8
39457,2018-06-29 09:05:25.031250,46.41,88.8
39458,2018-06-29 09:05:25.062500,65.26,88.8
39459,2018-06-29 09:05:25.093750,64.24,88.8
39460,2018-06-29 09:05:25.125000,56.64,88.8
39461,2018-06-29 09:05:25.156250,49.91,88.8
39462,2018-06-29 09:05:25.187500,43.03,88.8
39463,2018-06-29 09:05:25.218750,32.79,88.8
39464,2018-06-29 09:05:25.250000,11.93,88.8
39465,2018-06-29 09:05:25.281250,-25.46,88.8
39466,2018-06-29 09:05:25.312500,-67.18,88.8
39467,2018-06-29 09:05:25.343750,-88.04,88.8
39468,2018-06-29 09:05:25.375000,-80.6,88.8
39469,2018-06-29 09:05:25.406250,-64.56,88.8
39470,2018-06-29 09:05:25.437500,-57.57,88.8
39471,2018-06-29 09:05:25.468750,-54.16,88.8
39472,2018-06-29 09:05:25.500000,-41.21,88.8
39473,2018-06-29 09:05:25.531250,-16.92,88.85
39474,2018-06-29 09:05:25.562500,13.06,88.85
39475,2018-06-29 09:05:25.593750,43.75,88.85
39476,2018-06-29 09:05:25.625000,69.81,88.85
39477,2018-06-29 09:05:25.656250,86.27,88.85
39478,2018-06-29 09:05:25.687500,93.74,88.85
39479,2018-06-29 09:05:25.718750,97.79,88.85
39480,2018-06-29 09:05:25.750000,104.51,88.85
39481,2018-06-29 09:05:25.781250,119.49,88.85
39482,2018-06-29 09:05:25.812500,145.48,88.85
39483,2018-06-29 09:05:25.843750,173.5,88.85
39484,2018-06-29 09:05:25.875000,181.07,88.85
39485,2018-06-29 09:05:25.906250,150.98,88.85
39486,2018-06-29 09:05:25.937500,91.5,88.85
39487,2018-06-29 09:05:25.968750,31.21,88.85
39488,2018-06-29 09:05:26.000000,-4.21,88.85
39489,2018-06-29 09:05:26.031250,-8.06,88.85
39490,2018-06-29 09:05:26.062500,10.05,88.85
39491,2018-06-29 09:05:26.093750,40.96,88.85
39492,2018-06-29 09:05:26.125000,85.92,88.85
39493,2018-06-29 09:05:26.156250,139.46,88.85
39494,2018-06-29 09:05:26.187500,171.21,88.85
39495,2018-06-29 09:05:26.218750,148.49,88.85
39496,2018-06-29 09:05:26.250000,75.97,88.85
39497,2018-06-29 09:05:26.281250,-4.6,88.85
39498,2018-06-29 09:05:26.312500,-53.65,88.85
39499,2018-06-29 09:05:26.343750,-63.51,88.85
39500,2018-06-29 09:05:26.375000,-53.04,88.85
39501,2018-06-29 09:05:26.406250,-44.67,88.85
39502,2018-06-29 09:05:26.437500,-50.71,88.85
39503,2018-06-29 09:05:26.468750,-74.11,88.85
39504,2018-06-29 09:05:26.500000,-113.92,88.85
39505,2018-06-29 09:05:26.531250,-167.13,88.92
39506,2018-06-29 09:05:26.562500,-221.25,88.92
39507,2018-06-29 09:05:26.593750,-250.43,88.92
39508,2018-06-29 09:05:26.625000,-236.68,88.92
39509,2018-06-29 09:05:26.656250,-191.59,88.92
39510,2018-06-29 09:05:26.687500,-140.36,88.92
39511,2018-06-29 09:05:26.718750,-95.66,88.92
39512,2018-06-29 09:05:26.750000,-61.68,88.92
39513,2018-06-29 09:05:26.781250,-42.69,88.92
39514,2018-06-29 09:05:26.812500,-33.11,88.92
39515,2018-06-29 09:05:26.843750,-18.78,88.92
39516,2018-06-29 09:05:26.875000,3.22,88.92
39517,2018-06-29 09:05:26.906250,21.55,88.92
39518,2018-06-29 09:05:26.937500,30.74,88.92
39519,2018-06-29 09:05:26.968750,43.74,88.92
39520,2018-06-29 09:05:27.000000,81.22,88.92
39521,2018-06-29 09:05:27.031250,150.15,88.92
39522,2018-06-29 09:05:27.062500,230.49,88.92
39523,2018-06-29 09:05:27.093750,285.33,88.92
39524,2018-06-29 09:05:27.125000,289.8,88.92
39525,2018-06-29 09:05:27.156250,247.1,88.92
39526,2018-06-29 09:05:27.187500,174.69,88.92
39527,2018-06-29 09:05:27.218750,85.86,88.92
39528,2018-06-29 09:05:27.250000,-9.58,88.92
39529,2018-06-29 09:05:27.281250,-98.89,88.92
39530,2018-06-29 09:05:27.312500,-171.02,88.92
39531,2018-06-29 09:05:27.343750,-224.11,88.92
39532,2018-06-29 09:05:27.375000,-261.31,88.92
39533,2018-06-29 09:05:27.406250,-280.39,88.92
39534,2018-06-29 09:05:27.437500,-275.45,88.92
39535,2018-06-29 09:05:27.468750,-249.8,88.92
39536,2018-06-29 09:05:27.500000,-216.03,88.92
39537,2018-06-29 09:05:27.531250,-182.19,88.88
39538,2018-06-29 09:05:27.562500,-149.89,88.88
39539,2018-06-29 09:05:27.593750,-122.83,88.88
39540,2018-06-29 09:05:27.625000,-102.52,88.88
39541,2018-06-29 09:05:27.656250,-81.63,88.88
39542,2018-06-29 09:05:27.687500,-55.43,88.88
39543,2018-06-29 09:05:27.718750,-32.33,88.88
39544,2018-06-29 09:05:27.750000,-24.99,88.88
39545,2018-06-29 09:05:27.781250,-35.88,88.88
39546,2018-06-29 09:05:27.812500,-51.25,88.88
39547,2018-06-29 09:05:27.843750,-49.39,88.88
39548,2018-06-29 09:05:27.875000,-22.86,88.88
39549,2018-06-29 09:05:27.906250,12.04,88.88
39550,2018-06-29 09:05:27.937500,36.15,88.88
39551,2018-06-29 09:05:27.968750,46.26,88.88
39552,2018-06-29 09:05:28.000000,46.86,88.88
39553,2018-06-29 09:05:28.031250,39.89,88.88
39554,2018-06-29 09:05:28.062500,28.62,88.88
39555,2018-06-29 09:05:28.093750,19.07,88.88
39556,2018-06-29 09:05:28.125000,13.95,88.88
39557,2018-06-29 09:05:28.156250,10.98,88.88
39558,2018-06-29 09:05:28.187500,8.6,88.88
39559,2018-06-29 09:05:28.218750,12.92,88.88
39560,2018-06-29 09:05:28.250000,35.13,88.88
39561,2018-06-29 09:05:28.281250,76.46,88.88
39562,2018-06-29 09:05:28.312500,118.76,88.88
39563,2018-06-29 09:05:28.343750,138.17,88.88
39564,2018-06-29 09:05:28.375000,125.63,88.88
39565,2018-06-29 09:05:28.406250,89.76,88.88
39566,2018-06-29 09:05:28.437500,46.7,88.88
39567,2018-06-29 09:05:28.468750,12.07,88.88
39568,2018-06-29 09:05:28.500000,-6.32,88.88
39569,2018-06-29 09:05:28.531250,-13.57,88.87
39570,2018-06-29 09:05:28.562500,-21.74,88.87
39571,2018-06-29 09:05:28.593750,-36.62,88.87
39572,2018-06-29 09:05:28.625000,-51.98,88.87
39573,2018-06-29 09:05:28.656250,-55.93,88.87
39574,2018-06-29 09:05:28.687500,-40.48,88.87
39575,2018-06-29 09:05:28.718750,-5.61,88.87
39576,2018-06-29 09:05:28.750000,39.65,88.87
39577,2018-06-29 09:05:28.781250,77.84,88.87
39578,2018-06-29 09:05:28.812500,93.04,88.87
39579,2018-06-29 09:05:28.843750,85.35,88.87
39580,2018-06-29 09:05:28.875000,69.42,88.87
39581,2018-06-29 09:05:28.906250,56.09,88.87
39582,2018-06-29 09:05:28.937500,41.1,88.87
39583,2018-06-29 09:05:28.968750,12.16,88.87
39584,2018-06-29 09:05:29.000000,-36.06,88.87
39585,2018-06-29 09:05:29.031250,-91.46,88.87
39586,2018-06-29 09:05:29.062500,-130.31,88.87
39587,2018-06-29 09:05:29.093750,-137.99,88.87
39588,2018-06-29 09:05:29.125000,-120.87,88.87
39589,2018-06-29 09:05:29.156250,-94.22,88.87
39590,2018-06-29 09:05:29.187500,-67.62,88.87
39591,2018-06-29 09:05:29.218750,-46.06,88.87
39592,2018-06-29 09:05:29.250000,-32.89,88.87
39593,2018-06-29 09:05:29.281250,-25.52,88.87
39594,2018-06-29 09:05:29.312500,-17.43,88.87
39595,2018-06-29 09:05:29.343750,-6.57,88.87
39596,2018-06-29 09:05:29.375000,4.56,88.87
39597,2018-06-29 09:05:29.406250,16.37,88.87
39598,2018-06-29 09:05:29.437500,35.52,88.87
39599,2018-06-29 09:05:29.468750,70.22,88.87
39600,2018-06-29 09:05:29.500000,119.95,88.87
39601,2018-06-29 09:05:29.531250,171.21,88.88
39602,2018-06-29 09:05:29.562500,210.03,88.88
39603,2018-06-29 09:05:29.593750,235.44,88.88
39604,2018-06-29 09:05:29.625000,252.75,88.88
39605,2018-06-29 09:05:29.656250,258.26,88.88
39606,2018-06-29 09:05:29.687500,238.93,88.88
39607,2018-06-29 09:05:29.718750,183.16,88.88
39608,2018-06-29 09:05:29.750000,89.23,88.88
39609,2018-06-29 09:05:29.781250,-26.58,88.88
39610,2018-06-29 09:05:29.812500,-128.97,88.88
39611,2018-06-29 09:05:29.843750,-183.18,88.88
39612,2018-06-29 09:05:29.875000,-180.58,88.88
39613,2018-06-29 09:05:29.906250,-140.93,88.88
39614,2018-06-29 09:05:29.937500,-90.72,88.88
39615,2018-06-29 09:05:29.968750,-45.66,88.88
39616,2018-06-29 09:05:30.000000,-11.45,88.88
39617,2018-06-29 09:05:30.031250,10.0,88.88
39618,2018-06-29 09:05:30.062500,19.73,88.88
39619,2018-06-29 09:05:30.093750,23.59,88.88
39620,2018-06-29 09:05:30.125000,33.35,88.88
39621,2018-06-29 09:05:30.156250,59.36,88.88
39622,2018-06-29 09:05:30.187500,91.75,88.88
39623,2018-06-29 09:05:30.218750,99.02,88.88
39624,2018-06-29 09:05:30.250000,64.83,88.88
39625,2018-06-29 09:05:30.281250,15.25,88.88
39626,2018-06-29 09:05:30.312500,-12.12,88.88
39627,2018-06-29 09:05:30.343750,-13.41,88.88
39628,2018-06-29 09:05:30.375000,-15.76,88.88
39629,2018-06-29 09:05:30.406250,-42.9,88.88
39630,2018-06-29 09:05:30.437500,-94.43,88.88
39631,2018-06-29 09:05:30.468750,-147.2,88.88
39632,2018-06-29 09:05:30.500000,-171.36,88.88
39633,2018-06-29 09:05:30.531250,-154.44,88.92
39634,2018-06-29 09:05:30.562500,-112.96,88.92
39635,2018-06-29 09:05:30.593750,-76.5,88.92
39636,2018-06-29 09:05:30.625000,-63.02,88.92
39637,2018-06-29 09:05:30.656250,-69.4,88.92
39638,2018-06-29 09:05:30.687500,-78.95,88.92
39639,2018-06-29 09:05:30.718750,-75.73,88.92
39640,2018-06-29 09:05:30.750000,-53.01,88.92
39641,2018-06-29 09:05:30.781250,-9.96,88.92
39642,2018-06-29 09:05:30.812500,48.36,88.92
39643,2018-06-29 09:05:30.843750,100.64,88.92
39644,2018-06-29 09:05:30.875000,118.5,88.92
39645,2018-06-29 09:05:30.906250,99.93,88.92
39646,2018-06-29 09:05:30.937500,74.28,88.92
39647,2018-06-29 09:05:30.968750,65.69,88.92
39648,2018-06-29 09:05:31.000000,71.92,88.92
39649,2018-06-29 09:05:31.031250,78.72,88.92
39650,2018-06-29 09:05:31.062500,72.18,88.92
39651,2018-06-29 09:05:31.093750,43.45,88.92
39652,2018-06-29 09:05:31.125000,0.35,88.92
39653,2018-06-29 09:05:31.156250,-36.08,88.92
39654,2018-06-29 09:05:31.187500,-55.48,88.92
39655,2018-06-29 09:05:31.218750,-63.58,88.92
39656,2018-06-29 09:05:31.250000,-64.14,88.92
39657,2018-06-29 09:05:31.281250,-55.02,88.92
39658,2018-06-29 09:05:31.312500,-40.63,88.92
39659,2018-06-29 09:05:31.343750,-31.78,88.92
39660,2018-06-29 09:05:31.375000,-34.55,88.92
39661,2018-06-29 09:05:31.406250,-45.68,88.92
39662,2018-06-29 09:05:31.437500,-53.45,88.92
39663,2018-06-29 09:05:31.468750,-43.79,88.92
39664,2018-06-29 09:05:31.500000,-14.87,88.92
39665,2018-06-29 09:05:31.531250,19.25,88.97
39666,2018-06-29 09:05:31.562500,47.3,88.97
39667,2018-06-29 09:05:31.593750,71.19,88.97
39668,2018-06-29 09:05:31.625000,91.09,88.97
39669,2018-06-29 09:05:31.656250,97.02,88.97
39670,2018-06-29 09:05:31.687500,82.93,88.97
39671,2018-06-29 09:05:31.718750,53.59,88.97
39672,2018-06-29 09:05:31.750000,16.3,88.97
39673,2018-06-29 09:05:31.781250,-19.72,88.97
39674,2018-06-29 09:05:31.812500,-43.59,88.97
39675,2018-06-29 09:05:31.843750,-56.95,88.97
39676,2018-06-29 09:05:31.875000,-74.63,88.97
39677,2018-06-29 09:05:31.906250,-100.52,88.97
39678,2018-06-29 09:05:31.937500,-119.09,88.97
39679,2018-06-29 09:05:31.968750,-115.51,88.97
39680,2018-06-29 09:05:32.000000,-87.42,88.97
39681,2018-06-29 09:05:32.031250,-40.53,88.97
39682,2018-06-29 09:05:32.062500,11.69,88.97
39683,2018-06-29 09:05:32.093750,52.15,88.97
39684,2018-06-29 09:05:32.125000,75.63,88.97
39685,2018-06-29 09:05:32.156250,92.96,88.97
39686,2018-06-29 09:05:32.187500,114.15,88.97
39687,2018-06-29 09:05:32.218750,134.09,88.97
39688,2018-06-29 09:05:32.250000,139.79,88.97
39689,2018-06-29 09:05:32.281250,128.32,88.97
39690,2018-06-29 09:05:32.312500,110.99,88.97
39691,2018-06-29 09:05:32.343750,95.75,88.97
39692,2018-06-29 09:05:32.375000,72.81,88.97
39693,2018-06-29 09:05:32.406250,28.58,88.97
39694,2018-06-29 09:05:32.437500,-29.52,88.97
39695,2018-06-29 09:05:32.468750,-74.94,88.97
39696,2018-06-29 09:05:32.500000,-89.33,88.97
39697,2018-06-29 09:05:32.531250,-76.74,89.02
39698,2018-06-29 09:05:32.562500,-50.27,89.02
39699,2018-06-29 09:05:32.593750,-17.46,89.02
39700,2018-06-29 09:05:32.625000,17.42,89.02
39701,2018-06-29 09:05:32.656250,46.61,89.02
39702,2018-06-29 09:05:32.687500,63.43,89.02
39703,2018-06-29 09:05:32.718750,72.88,89.02
39704,2018-06-29 09:05:32.750000,88.81,89.02
39705,2018-06-29 09:05:32.781250,115.86,89.02
39706,2018-06-29 09:05:32.812500,143.16,89.02
39707,2018-06-29 09:05:32.843750,158.41,89.02
39708,2018-06-29 09:05:32.875000,154.7,89.02
39709,2018-06-29 09:05:32.906250,123.24,89.02
39710,2018-06-29 09:05:32.937500,58.46,89.02
39711,2018-06-29 09:05:32.968750,-29.64,89.02
39712,2018-06-29 09:05:33.000000,-122.71,89.02
39713,2018-06-29 09:05:33.031250,-204.12,89.02
39714,2018-06-29 09:05:33.062500,-254.92,89.02
39715,2018-06-29 09:05:33.093750,-259.9,89.02
39716,2018-06-29 09:05:33.125000,-224.37,89.02
39717,2018-06-29 09:05:33.156250,-168.36,89.02
39718,2018-06-29 09:05:33.187500,-105.33,89.02
39719,2018-06-29 09:05:33.218750,-40.75,89.02
39720,2018-06-29 09:05:33.250000,16.74,89.02
39721,2018-06-29 09:05:33.281250,56.78,89.02
39722,2018-06-29 09:05:33.312500,76.47,89.02
39723,2018-06-29 09:05:33.343750,82.23,89.02
39724,2018-06-29 09:05:33.375000,83.99,89.02
39725,2018-06-29 09:05:33.406250,88.34,89.02
39726,2018-06-29 09:05:33.437500,95.5,89.02
39727,2018-06-29 09:05:33.468750,103.7,89.02
39728,2018-06-29 09:05:33.500000,120.28,89.02
39729,2018-06-29 09:05:33.531250,163.08,89.07
39730,2018-06-29 09:05:33.562500,234.07,89.07
39731,2018-06-29 09:05:33.593750,298.37,89.07
39732,2018-06-29 09:05:33.625000,313.96,89.07
39733,2018-06-29 09:05:33.656250,274.81,89.07
39734,2018-06-29 09:05:33.687500,203.06,89.07
39735,2018-06-29 09:05:33.718750,114.87,89.07
39736,2018-06-29 09:05:33.750000,15.36,89.07
39737,2018-06-29 09:05:33.781250,-91.9,89.07
39738,2018-06-29 09:05:33.812500,-201.9,89.07
39739,2018-06-29 09:05:33.843750,-299.98,89.07
39740,2018-06-29 09:05:33.875000,-363.41,89.07
39741,2018-06-29 09:05:33.906250,-382.67,89.07
39742,2018-06-29 09:05:33.937500,-366.7,89.07
39743,2018-06-29 09:05:33.968750,-324.97,89.07
39744,2018-06-29 09:05:34.000000,-264.49,89.07
39745,2018-06-29 09:05:34.031250,-199.2,89.07
39746,2018-06-29 09:05:34.062500,-142.08,89.07
39747,2018-06-29 09:05:34.093750,-94.93,89.07
39748,2018-06-29 09:05:34.125000,-56.5,89.07
39749,2018-06-29 09:05:34.156250,-27.73,89.07
39750,2018-06-29 09:05:34.187500,-4.31,89.07
39751,2018-06-29 09:05:34.218750,21.51,89.07
39752,2018-06-29 09:05:34.250000,45.75,89.07
39753,2018-06-29 09:05:34.281250,48.16,89.07
39754,2018-06-29 09:05:34.312500,12.03,89.07
39755,2018-06-29 09:05:34.343750,-50.78,89.07
39756,2018-06-29 09:05:34.375000,-104.42,89.07
39757,2018-06-29 09:05:34.406250,-122.93,89.07
39758,2018-06-29 09:05:34.437500,-109.23,89.07
39759,2018-06-29 09:05:34.468750,-81.01,89.07
39760,2018-06-29 09:05:34.500000,-54.63,89.07
39761,2018-06-29 09:05:34.531250,-41.46,89.1
39762,2018-06-29 09:05:34.562500,-43.02,89.1
39763,2018-06-29 09:05:34.593750,-48.66,89.1
39764,2018-06-29 09:05:34.625000,-47.05,89.1
39765,2018-06-29 09:05:34.656250,-37.93,89.1
39766,2018-06-29 09:05:34.687500,-29.05,89.1
39767,2018-06-29 09:05:34.718750,-23.15,89.1
39768,2018-06-29 09:05:34.750000,-10.85,89.1
39769,2018-06-29 09:05:34.781250,18.55,89.1
39770,2018-06-29 09:05:34.812500,60.64,89.1
39771,2018-06-29 09:05:34.843750,97.83,89.1
39772,2018-06-29 09:05:34.875000,116.82,89.1
39773,2018-06-29 09:05:34.906250,117.0,89.1
39774,2018-06-29 09:05:34.937500,104.13,89.1
39775,2018-06-29 09:05:34.968750,86.01,89.1
39776,2018-06-29 09:05:35.000000,71.01,89.1
39777,2018-06-29 09:05:35.031250,62.27,89.1
39778,2018-06-29 09:05:35.062500,54.79,89.1
39779,2018-06-29 09:05:35.093750,41.25,89.1
39780,2018-06-29 09:05:35.125000,21.49,89.1
39781,2018-06-29 09:05:35.156250,9.45,89.1
39782,2018-06-29 09:05:35.187500,26.57,89.1
39783,2018-06-29 09:05:35.218750,78.68,89.1
39784,2018-06-29 09:05:35.250000,143.62,89.1
39785,2018-06-29 09:05:35.281250,191.2,89.1
39786,2018-06-29 09:05:35.312500,209.41,89.1
39787,2018-06-29 09:05:35.343750,206.13,89.1
39788,2018-06-29 09:05:35.375000,193.91,89.1
39789,2018-06-29 09:05:35.406250,174.8,89.1
39790,2018-06-29 09:05:35.437500,135.09,89.1
39791,2018-06-29 09:05:35.468750,56.74,89.1
39792,2018-06-29 09:05:35.500000,-59.94,89.1
39793,2018-06-29 09:05:35.531250,-180.71,89.15
39794,2018-06-29 09:05:35.562500,-252.3,89.15
39795,2018-06-29 09:05:35.593750,-247.76,89.15
39796,2018-06-29 09:05:35.625000,-191.63,89.15
39797,2018-06-29 09:05:35.656250,-127.89,89.15
39798,2018-06-29 09:05:35.687500,-78.48,89.15
39799,2018-06-29 09:05:35.718750,-44.49,89.15
39800,2018-06-29 09:05:35.750000,-24.13,89.15
39801,2018-06-29 09:05:35.781250,-14.52,89.15
39802,2018-06-29 09:05:35.812500,-11.39,89.15
39803,2018-06-29 09:05:35.843750,-12.42,89.15
39804,2018-06-29 09:05:35.875000,-12.17,89.15
39805,2018-06-29 09:05:35.906250,-0.17,89.15
39806,2018-06-29 09:05:35.937500,29.67,89.15
39807,2018-06-29 09:05:35.968750,76.21,89.15
39808,2018-06-29 09:05:36.000000,137.23,89.15
39809,2018-06-29 09:05:36.031250,208.45,89.15
39810,2018-06-29 09:05:36.062500,275.97,89.15
39811,2018-06-29 09:05:36.093750,318.27,89.15
39812,2018-06-29 09:05:36.125000,319.1,89.15
39813,2018-06-29 09:05:36.156250,278.19,89.15
39814,2018-06-29 09:05:36.187500,209.82,89.15
39815,2018-06-29 09:05:36.218750,130.25,89.15
39816,2018-06-29 09:05:36.250000,43.94,89.15
39817,2018-06-29 09:05:36.281250,-58.35,89.15
39818,2018-06-29 09:05:36.312500,-176.6,89.15
39819,2018-06-29 09:05:36.343750,-277.66,89.15
39820,2018-06-29 09:05:36.375000,-320.01,89.15
39821,2018-06-29 09:05:36.406250,-303.48,89.15
39822,2018-06-29 09:05:36.437500,-264.3,89.15
39823,2018-06-29 09:05:36.468750,-227.0,89.15
39824,2018-06-29 09:05:36.500000,-192.29,89.15
39825,2018-06-29 09:05:36.531250,-157.42,89.18
39826,2018-06-29 09:05:36.562500,-120.2,89.18
39827,2018-06-29 09:05:36.593750,-80.94,89.18
39828,2018-06-29 09:05:36.625000,-52.69,89.18
39829,2018-06-29 09:05:36.656250,-47.78,89.18
39830,2018-06-29 09:05:36.687500,-55.16,89.18
39831,2018-06-29 09:05:36.718750,-53.12,89.18
39832,2018-06-29 09:05:36.750000,-34.84,89.18
39833,2018-06-29 09:05:36.781250,-5.62,89.18
39834,2018-06-29 09:05:36.812500,26.8,89.18
39835,2018-06-29 09:05:36.843750,47.92,89.18
39836,2018-06-29 09:05:36.875000,43.25,89.18
39837,2018-06-29 09:05:36.906250,14.95,89.18
39838,2018-06-29 09:05:36.937500,-22.22,89.18
39839,2018-06-29 09:05:36.968750,-55.25,89.18
39840,2018-06-29 09:05:37.000000,-73.07,89.18
39841,2018-06-29 09:05:37.031250,-67.73,89.18
39842,2018-06-29 09:05:37.062500,-46.12,89.18
39843,2018-06-29 09:05:37.093750,-27.71,89.18
39844,2018-06-29 09:05:37.125000,-23.47,89.18
39845,2018-06-29 09:05:37.156250,-23.28,89.18
39846,2018-06-29 09:05:37.187500,-7.15,89.18
39847,2018-06-29 09:05:37.218750,33.75,89.18
39848,2018-06-29 09:05:37.250000,89.05,89.18
39849,2018-06-29 09:05:37.281250,140.21,89.18
39850,2018-06-29 09:05:37.312500,175.35,89.18
39851,2018-06-29 09:05:37.343750,193.35,89.18
39852,2018-06-29 09:05:37.375000,200.63,89.18
39853,2018-06-29 09:05:37.406250,206.37,89.18
39854,2018-06-29 09:05:37.437500,216.8,89.18
39855,2018-06-29 09:05:37.468750,228.47,89.18
39856,2018-06-29 09:05:37.500000,223.99,89.18
39857,2018-06-29 09:05:37.531250,181.05,89.2
39858,2018-06-29 09:05:37.562500,91.94,89.2
39859,2018-06-29 09:05:37.593750,-24.83,89.2
39860,2018-06-29 09:05:37.625000,-130.16,89.2
39861,2018-06-29 09:05:37.656250,-187.02,89.2
39862,2018-06-29 09:05:37.687500,-189.52,89.2
39863,2018-06-29 09:05:37.718750,-165.53,89.2
39864,2018-06-29 09:05:37.750000,-143.48,89.2
39865,2018-06-29 09:05:37.781250,-129.32,89.2
39866,2018-06-29 09:05:37.812500,-119.31,89.2
39867,2018-06-29 09:05:37.843750,-111.78,89.2
39868,2018-06-29 09:05:37.875000,-101.66,89.2
39869,2018-06-29 09:05:37.906250,-82.69,89.2
39870,2018-06-29 09:05:37.937500,-56.02,89.2
39871,2018-06-29 09:05:37.968750,-26.37,89.2
39872,2018-06-29 09:05:38.000000,3.02,89.2
39873,2018-06-29 09:05:38.031250,26.84,89.2
39874,2018-06-29 09:05:38.062500,38.63,89.2
39875,2018-06-29 09:05:38.093750,36.26,89.2
39876,2018-06-29 09:05:38.125000,19.94,89.2
39877,2018-06-29 09:05:38.156250,-9.58,89.2
39878,2018-06-29 09:05:38.187500,-45.33,89.2
39879,2018-06-29 09:05:38.218750,-75.26,89.2
39880,2018-06-29 09:05:38.250000,-92.68,89.2
39881,2018-06-29 09:05:38.281250,-98.73,89.2
39882,2018-06-29 09:05:38.312500,-94.68,89.2
39883,2018-06-29 09:05:38.343750,-77.32,89.2
39884,2018-06-29 09:05:38.375000,-43.94,89.2
39885,2018-06-29 09:05:38.406250,0.51,89.2
39886,2018-06-29 09:05:38.437500,44.77,89.2
39887,2018-06-29 09:05:38.468750,80.17,89.2
39888,2018-06-29 09:05:38.500000,104.51,89.2
39889,2018-06-29 09:05:38.531250,118.35,89.22
39890,2018-06-29 09:05:38.562500,124.23,89.22
39891,2018-06-29 09:05:38.593750,128.57,89.22
39892,2018-06-29 09:05:38.625000,134.78,89.22
39893,2018-06-29 09:05:38.656250,134.88,89.22
39894,2018-06-29 09:05:38.687500,116.65,89.22
39895,2018-06-29 09:05:38.718750,79.91,89.22
39896,2018-06-29 09:05:38.750000,40.82,89.22
39897,2018-06-29 09:05:38.781250,19.38,89.22
39898,2018-06-29 09:05:38.812500,22.24,89.22
39899,2018-06-29 09:05:38.843750,35.16,89.22
39900,2018-06-29 09:05:38.875000,34.08,89.22
39901,2018-06-29 09:05:38.906250,7.43,89.22
39902,2018-06-29 09:05:38.937500,-33.59,89.22
39903,2018-06-29 09:05:38.968750,-66.58,89.22
39904,2018-06-29 09:05:39.000000,-75.82,89.22
39905,2018-06-29 09:05:39.031250,-61.64,89.22
39906,2018-06-29 09:05:39.062500,-38.13,89.22
39907,2018-06-29 09:05:39.093750,-21.4,89.22
39908,2018-06-29 09:05:39.125000,-15.99,89.22
39909,2018-06-29 09:05:39.156250,-9.91,89.22
39910,2018-06-29 09:05:39.187500,16.16,89.22
39911,2018-06-29 09:05:39.218750,68.18,89.22
39912,2018-06-29 09:05:39.250000,126.88,89.22
39913,2018-06-29 09:05:39.281250,167.34,89.22
39914,2018-06-29 09:05:39.312500,186.17,89.22
39915,2018-06-29 09:05:39.343750,193.12,89.22
39916,2018-06-29 09:05:39.375000,184.29,89.22
39917,2018-06-29 09:05:39.406250,144.47,89.22
39918,2018-06-29 09:05:39.437500,68.31,89.22
39919,2018-06-29 09:05:39.468750,-35.25,89.22
39920,2018-06-29 09:05:39.500000,-144.0,89.22
39921,2018-06-29 09:05:39.531250,-218.13,89.22
39922,2018-06-29 09:05:39.562500,-221.05,89.22
39923,2018-06-29 09:05:39.593750,-158.59,89.22
39924,2018-06-29 09:05:39.625000,-75.63,89.22
39925,2018-06-29 09:05:39.656250,-8.87,89.22
39926,2018-06-29 09:05:39.687500,35.62,89.22
39927,2018-06-29 09:05:39.718750,63.79,89.22
39928,2018-06-29 09:05:39.750000,81.0,89.22
39929,2018-06-29 09:05:39.781250,95.65,89.22
39930,2018-06-29 09:05:39.812500,112.68,89.22
39931,2018-06-29 09:05:39.843750,122.91,89.22
39932,2018-06-29 09:05:39.875000,113.36,89.22
39933,2018-06-29 09:05:39.906250,87.08,89.22
39934,2018-06-29 09:05:39.937500,61.86,89.22
39935,2018-06-29 09:05:39.968750,49.68,89.22
39936,2018-06-29 09:05:40.000000,45.19,89.22
39937,2018-06-29 09:05:40.031250,32.11,89.22
39938,2018-06-29 09:05:40.062500,-4.58,89.22
39939,2018-06-29 09:05:40.093750,-66.05,89.22
39940,2018-06-29 09:05:40.125000,-130.89,89.22
39941,2018-06-29 09:05:40.156250,-168.63,89.22
39942,2018-06-29 09:05:40.187500,-167.74,89.22
39943,2018-06-29 09:05:40.218750,-141.4,89.22
39944,2018-06-29 09:05:40.250000,-111.01,89.22
39945,2018-06-29 09:05:40.281250,-96.45,89.22
39946,2018-06-29 09:05:40.312500,-110.93,89.22
39947,2018-06-29 09:05:40.343750,-147.0,89.22
39948,2018-06-29 09:05:40.375000,-175.9,89.22
39949,2018-06-29 09:05:40.406250,-175.0,89.22
39950,2018-06-29 09:05:40.437500,-148.46,89.22
39951,2018-06-29 09:05:40.468750,-113.44,89.22
39952,2018-06-29 09:05:40.500000,-79.07,89.22
39953,2018-06-29 09:05:40.531250,-48.91,89.27
39954,2018-06-29 09:05:40.562500,-28.9,89.27
39955,2018-06-29 09:05:40.593750,-18.74,89.27
39956,2018-06-29 09:05:40.625000,-7.84,89.27
39957,2018-06-29 09:05:40.656250,9.18,89.27
39958,2018-06-29 09:05:40.687500,25.03,89.27
39959,2018-06-29 09:05:40.718750,32.88,89.27
39960,2018-06-29 09:05:40.750000,38.25,89.27
39961,2018-06-29 09:05:40.781250,54.89,89.27
39962,2018-06-29 09:05:40.812500,87.19,89.27
39963,2018-06-29 09:05:40.843750,114.55,89.27
39964,2018-06-29 09:05:40.875000,104.47,89.27
39965,2018-06-29 09:05:40.906250,49.39,89.27
39966,2018-06-29 09:05:40.937500,-21.34,89.27
39967,2018-06-29 09:05:40.968750,-71.34,89.27
39968,2018-06-29 09:05:41.000000,-85.97,89.27
39969,2018-06-29 09:05:41.031250,-72.44,89.27
39970,2018-06-29 09:05:41.062500,-47.77,89.27
39971,2018-06-29 09:05:41.093750,-29.55,89.27
39972,2018-06-29 09:05:41.125000,-26.58,89.27
39973,2018-06-29 09:05:41.156250,-30.38,89.27
39974,2018-06-29 09:05:41.187500,-22.02,89.27
39975,2018-06-29 09:05:41.218750,5.1,89.27
39976,2018-06-29 09:05:41.250000,36.88,89.27
39977,2018-06-29 09:05:41.281250,59.96,89.27
39978,2018-06-29 09:05:41.312500,79.37,89.27
39979,2018-06-29 09:05:41.343750,107.3,89.27
39980,2018-06-29 09:05:41.375000,146.42,89.27
39981,2018-06-29 09:05:41.406250,187.0,89.27
39982,2018-06-29 09:05:41.437500,210.67,89.27
39983,2018-06-29 09:05:41.468750,200.1,89.27
39984,2018-06-29 09:05:41.500000,152.5,89.27
39985,2018-06-29 09:05:41.531250,80.53,89.28
39986,2018-06-29 09:05:41.562500,1.95,89.28
39987,2018-06-29 09:05:41.593750,-66.05,89.28
39988,2018-06-29 09:05:41.625000,-109.92,89.28
39989,2018-06-29 09:05:41.656250,-126.42,89.28
39990,2018-06-29 09:05:41.687500,-124.19,89.28
39991,2018-06-29 09:05:41.718750,-115.6,89.28
39992,2018-06-29 09:05:41.750000,-108.19,89.28
39993,2018-06-29 09:05:41.781250,-102.58,89.28
39994,2018-06-29 09:05:41.812500,-95.16,89.28
39995,2018-06-29 09:05:41.843750,-81.27,89.28
39996,2018-06-29 09:05:41.875000,-56.55,89.28
39997,2018-06-29 09:05:41.906250,-20.62,89.28
39998,2018-06-29 09:05:41.937500,17.68,89.28
39999,2018-06-29 09:05:41.968750,45.17,89.28
40000,2018-06-29 09:05:42.000000,59.22,89.28
40001,2018-06-29 09:05:42.031250,69.63,89.28
40002,2018-06-29 09:05:42.062500,79.64,89.28
40003,2018-06-29 09:05:42.093750,74.17,89.28
40004,2018-06-29 09:05:42.125000,37.03,89.28
40005,2018-06-29 09:05:42.156250,-26.03,89.28
40006,2018-06-29 09:05:42.187500,-89.14,89.28
40007,2018-06-29 09:05:42.218750,-127.23,89.28
40008,2018-06-29 09:05:42.250000,-133.24,89.28
40009,2018-06-29 09:05:42.281250,-120.72,89.28
40010,2018-06-29 09:05:42.312500,-109.43,89.28
40011,2018-06-29 09:05:42.343750,-105.09,89.28
40012,2018-06-29 09:05:42.375000,-96.64,89.28
40013,2018-06-29 09:05:42.406250,-74.3,89.28
40014,2018-06-29 09:05:42.437500,-41.12,89.28
40015,2018-06-29 09:05:42.468750,-5.72,89.28
40016,2018-06-29 09:05:42.500000,26.11,89.28
40017,2018-06-29 09:05:42.531250,52.08,89.3
40018,2018-06-29 09:05:42.562500,73.95,89.3
40019,2018-06-29 09:05:42.593750,97.31,89.3
40020,2018-06-29 09:05:42.625000,125.35,89.3
40021,2018-06-29 09:05:42.656250,153.9,89.3
40022,2018-06-29 09:05:42.687500,176.11,89.3
40023,2018-06-29 09:05:42.718750,190.69,89.3
40024,2018-06-29 09:05:42.750000,201.65,89.3
40025,2018-06-29 09:05:42.781250,208.58,89.3
40026,2018-06-29 09:05:42.812500,199.37,89.3
40027,2018-06-29 09:05:42.843750,156.88,89.3
40028,2018-06-29 09:05:42.875000,75.56,89.3
40029,2018-06-29 09:05:42.906250,-27.25,89.3
40030,2018-06-29 09:05:42.937500,-116.45,89.3
40031,2018-06-29 09:05:42.968750,-162.13,89.3
40032,2018-06-29 09:05:43.000000,-163.67,89.3
40033,2018-06-29 09:05:43.031250,-146.07,89.3
40034,2018-06-29 09:05:43.062500,-131.01,89.3
40035,2018-06-29 09:05:43.093750,-122.58,89.3
40036,2018-06-29 09:05:43.125000,-118.26,89.3
40037,2018-06-29 09:05:43.156250,-114.09,89.3
40038,2018-06-29 09:05:43.187500,-101.09,89.3
40039,2018-06-29 09:05:43.218750,-74.21,89.3
40040,2018-06-29 09:05:43.250000,-39.19,89.3
40041,2018-06-29 09:05:43.281250,-0.28,89.3
40042,2018-06-29 09:05:43.312500,42.25,89.3
40043,2018-06-29 09:05:43.343750,75.87,89.3
40044,2018-06-29 09:05:43.375000,83.69,89.3
40045,2018-06-29 09:05:43.406250,73.24,89.3
40046,2018-06-29 09:05:43.437500,68.44,89.3
40047,2018-06-29 09:05:43.468750,71.21,89.3
40048,2018-06-29 09:05:43.500000,56.11,89.3
40049,2018-06-29 09:05:43.531250,3.96,89.28
40050,2018-06-29 09:05:43.562500,-71.58,89.28
40051,2018-06-29 09:05:43.593750,-130.53,89.28
40052,2018-06-29 09:05:43.625000,-140.82,89.28
40053,2018-06-29 09:05:43.656250,-106.99,89.28
40054,2018-06-29 09:05:43.687500,-59.75,89.28
40055,2018-06-29 09:05:43.718750,-23.68,89.28
40056,2018-06-29 09:05:43.750000,-4.45,89.28
40057,2018-06-29 09:05:43.781250,3.46,89.28
40058,2018-06-29 09:05:43.812500,8.43,89.28
40059,2018-06-29 09:05:43.843750,14.8,89.28
40060,2018-06-29 09:05:43.875000,18.24,89.28
40061,2018-06-29 09:05:43.906250,12.6,89.28
40062,2018-06-29 09:05:43.937500,4.24,89.28
40063,2018-06-29 09:05:43.968750,13.28,89.28
40064,2018-06-29 09:05:44.000000,52.96,89.28
40065,2018-06-29 09:05:44.031250,111.3,89.28
40066,2018-06-29 09:05:44.062500,162.76,89.28
40067,2018-06-29 09:05:44.093750,193.16,89.28
40068,2018-06-29 09:05:44.125000,203.02,89.28
40069,2018-06-29 09:05:44.156250,195.09,89.28
40070,2018-06-29 09:05:44.187500,169.58,89.28
40071,2018-06-29 09:05:44.218750,124.46,89.28
40072,2018-06-29 09:05:44.250000,55.26,89.28
40073,2018-06-29 09:05:44.281250,-35.13,89.28
40074,2018-06-29 09:05:44.312500,-123.53,89.28
40075,2018-06-29 09:05:44.343750,-175.86,89.28
40076,2018-06-29 09:05:44.375000,-176.83,89.28
40077,2018-06-29 09:05:44.406250,-143.46,89.28
40078,2018-06-29 09:05:44.437500,-103.84,89.28
40079,2018-06-29 09:05:44.468750,-71.98,89.28
40080,2018-06-29 09:05:44.500000,-49.71,89.28
40081,2018-06-29 09:05:44.531250,-38.72,89.27
40082,2018-06-29 09:05:44.562500,-37.19,89.27
40083,2018-06-29 09:05:44.593750,-35.14,89.27
40084,2018-06-29 09:05:44.625000,-23.14,89.27
40085,2018-06-29 09:05:44.656250,-0.87,89.27
40086,2018-06-29 09:05:44.687500,22.36,89.27
40087,2018-06-29 09:05:44.718750,34.89,89.27
40088,2018-06-29 09:05:44.750000,36.24,89.27
40089,2018-06-29 09:05:44.781250,40.23,89.27
40090,2018-06-29 09:05:44.812500,55.28,89.27
40091,2018-06-29 09:05:44.843750,68.42,89.27
40092,2018-06-29 09:05:44.875000,59.36,89.27
40093,2018-06-29 09:05:44.906250,22.68,89.27
40094,2018-06-29 09:05:44.937500,-30.51,89.27
40095,2018-06-29 09:05:44.968750,-82.93,89.27
40096,2018-06-29 09:05:45.000000,-119.61,89.27
40097,2018-06-29 09:05:45.031250,-135.16,89.27
40098,2018-06-29 09:05:45.062500,-135.25,89.27
40099,2018-06-29 09:05:45.093750,-127.66,89.27
40100,2018-06-29 09:05:45.125000,-113.56,89.27
40101,2018-06-29 09:05:45.156250,-89.01,89.27
40102,2018-06-29 09:05:45.187500,-52.16,89.27
40103,2018-06-29 09:05:45.218750,-8.63,89.27
40104,2018-06-29 09:05:45.250000,30.72,89.27
40105,2018-06-29 09:05:45.281250,59.19,89.27
40106,2018-06-29 09:05:45.312500,78.18,89.27
40107,2018-06-29 09:05:45.343750,90.77,89.27
40108,2018-06-29 09:05:45.375000,98.96,89.27
40109,2018-06-29 09:05:45.406250,107.65,89.27
40110,2018-06-29 09:05:45.437500,122.38,89.27
40111,2018-06-29 09:05:45.468750,142.6,89.27
40112,2018-06-29 09:05:45.500000,161.99,89.27
40113,2018-06-29 09:05:45.531250,175.6,89.25
40114,2018-06-29 09:05:45.562500,186.09,89.25
40115,2018-06-29 09:05:45.593750,200.22,89.25
40116,2018-06-29 09:05:45.625000,212.68,89.25
40117,2018-06-29 09:05:45.656250,198.76,89.25
40118,2018-06-29 09:05:45.687500,135.97,89.25
40119,2018-06-29 09:05:45.718750,30.02,89.25
40120,2018-06-29 09:05:45.750000,-88.29,89.25
40121,2018-06-29 09:05:45.781250,-183.68,89.25
40122,2018-06-29 09:05:45.812500,-232.24,89.25
40123,2018-06-29 09:05:45.843750,-232.96,89.25
40124,2018-06-29 09:05:45.875000,-208.9,89.25
40125,2018-06-29 09:05:45.906250,-187.4,89.25
40126,2018-06-29 09:05:45.937500,-176.64,89.25
40127,2018-06-29 09:05:45.968750,-163.65,89.25
40128,2018-06-29 09:05:46.000000,-133.14,89.25
40129,2018-06-29 09:05:46.031250,-85.1,89.25
40130,2018-06-29 09:05:46.062500,-33.6,89.25
40131,2018-06-29 09:05:46.093750,7.55,89.25
40132,2018-06-29 09:05:46.125000,34.19,89.25
40133,2018-06-29 09:05:46.156250,50.8,89.25
40134,2018-06-29 09:05:46.187500,65.75,89.25
40135,2018-06-29 09:05:46.218750,83.15,89.25
40136,2018-06-29 09:05:46.250000,94.17,89.25
40137,2018-06-29 09:05:46.281250,81.58,89.25
40138,2018-06-29 09:05:46.312500,36.81,89.25
40139,2018-06-29 09:05:46.343750,-29.4,89.25
40140,2018-06-29 09:05:46.375000,-91.61,89.25
40141,2018-06-29 09:05:46.406250,-124.95,89.25
40142,2018-06-29 09:05:46.437500,-121.45,89.25
40143,2018-06-29 09:05:46.468750,-92.5,89.25
40144,2018-06-29 09:05:46.500000,-54.63,89.25
40145,2018-06-29 09:05:46.531250,-18.25,89.22
40146,2018-06-29 09:05:46.562500,10.82,89.22
40147,2018-06-29 09:05:46.593750,30.28,89.22
40148,2018-06-29 09:05:46.625000,43.96,89.22
40149,2018-06-29 09:05:46.656250,57.19,89.22
40150,2018-06-29 09:05:46.687500,69.84,89.22
40151,2018-06-29 09:05:46.718750,77.8,89.22
40152,2018-06-29 09:05:46.750000,81.28,89.22
40153,2018-06-29 09:05:46.781250,88.27,89.22
40154,2018-06-29 09:05:46.812500,106.71,89.22
40155,2018-06-29 09:05:46.843750,136.51,89.22
40156,2018-06-29 09:05:46.875000,172.86,89.22
40157,2018-06-29 09:05:46.906250,208.11,89.22
40158,2018-06-29 09:05:46.937500,226.22,89.22
40159,2018-06-29 09:05:46.968750,208.89,89.22
40160,2018-06-29 09:05:47.000000,152.4,89.22
40161,2018-06-29 09:05:47.031250,68.8,89.22
40162,2018-06-29 09:05:47.062500,-25.81,89.22
40163,2018-06-29 09:05:47.093750,-115.78,89.22
40164,2018-06-29 09:05:47.125000,-188.58,89.22
40165,2018-06-29 09:05:47.156250,-238.75,89.22
40166,2018-06-29 09:05:47.187500,-262.34,89.22
40167,2018-06-29 09:05:47.218750,-253.18,89.22
40168,2018-06-29 09:05:47.250000,-214.08,89.22
40169,2018-06-29 09:05:47.281250,-162.33,89.22
40170,2018-06-29 09:05:47.312500,-116.46,89.22
40171,2018-06-29 09:05:47.343750,-84.71,89.22
40172,2018-06-29 09:05:47.375000,-67.1,89.22
40173,2018-06-29 09:05:47.406250,-59.09,89.22
40174,2018-06-29 09:05:47.437500,-53.27,89.22
40175,2018-06-29 09:05:47.468750,-43.59,89.22
40176,2018-06-29 09:05:47.500000,-30.69,89.22
40177,2018-06-29 09:05:47.531250,-23.18,89.17
40178,2018-06-29 09:05:47.562500,-28.09,89.17
40179,2018-06-29 09:05:47.593750,-37.59,89.17
40180,2018-06-29 09:05:47.625000,-35.18,89.17
40181,2018-06-29 09:05:47.656250,-16.49,89.17
40182,2018-06-29 09:05:47.687500,7.45,89.17
40183,2018-06-29 09:05:47.718750,26.28,89.17
40184,2018-06-29 09:05:47.750000,37.39,89.17
40185,2018-06-29 09:05:47.781250,41.26,89.17
40186,2018-06-29 09:05:47.812500,40.15,89.17
40187,2018-06-29 09:05:47.843750,37.7,89.17
40188,2018-06-29 09:05:47.875000,34.68,89.17
40189,2018-06-29 09:05:47.906250,27.98,89.17
40190,2018-06-29 09:05:47.937500,15.76,89.17
40191,2018-06-29 09:05:47.968750,3.45,89.17
40192,2018-06-29 09:05:48.000000,1.51,89.17
40193,2018-06-29 09:05:48.031250,13.25,89.17
40194,2018-06-29 09:05:48.062500,29.31,89.17
40195,2018-06-29 09:05:48.093750,38.85,89.17
40196,2018-06-29 09:05:48.125000,39.86,89.17
40197,2018-06-29 09:05:48.156250,34.81,89.17
40198,2018-06-29 09:05:48.187500,25.23,89.17
40199,2018-06-29 09:05:48.218750,13.85,89.17
40200,2018-06-29 09:05:48.250000,4.22,89.17
40201,2018-06-29 09:05:48.281250,-4.06,89.17
40202,2018-06-29 09:05:48.312500,-14.66,89.17
40203,2018-06-29 09:05:48.343750,-27.91,89.17
40204,2018-06-29 09:05:48.375000,-37.44,89.17
40205,2018-06-29 09:05:48.406250,-35.4,89.17
40206,2018-06-29 09:05:48.437500,-20.77,89.17
40207,2018-06-29 09:05:48.468750,-0.27,89.17
40208,2018-06-29 09:05:48.500000,18.36,89.17
40209,2018-06-29 09:05:48.531250,31.37,89.1
40210,2018-06-29 09:05:48.562500,38.45,89.1
40211,2018-06-29 09:05:48.593750,41.54,89.1
40212,2018-06-29 09:05:48.625000,44.21,89.1
40213,2018-06-29 09:05:48.656250,48.41,89.1
40214,2018-06-29 09:05:48.687500,52.18,89.1
40215,2018-06-29 09:05:48.718750,52.89,89.1
40216,2018-06-29 09:05:48.750000,51.84,89.1
40217,2018-06-29 09:05:48.781250,54.31,89.1
40218,2018-06-29 09:05:48.812500,64.11,89.1
40219,2018-06-29 09:05:48.843750,77.43,89.1
40220,2018-06-29 09:05:48.875000,84.22,89.1
40221,2018-06-29 09:05:48.906250,76.79,89.1
40222,2018-06-29 09:05:48.937500,54.43,89.1
40223,2018-06-29 09:05:48.968750,20.75,89.1
40224,2018-06-29 09:05:49.000000,-18.23,89.1
40225,2018-06-29 09:05:49.031250,-54.39,89.1
40226,2018-06-29 09:05:49.062500,-80.17,89.1
40227,2018-06-29 09:05:49.093750,-92.46,89.1
40228,2018-06-29 09:05:49.125000,-93.65,89.1
40229,2018-06-29 09:05:49.156250,-88.09,89.1
40230,2018-06-29 09:05:49.187500,-77.3,89.1
40231,2018-06-29 09:05:49.218750,-61.09,89.1
40232,2018-06-29 09:05:49.250000,-42.24,89.1
40233,2018-06-29 09:05:49.281250,-25.54,89.1
40234,2018-06-29 09:05:49.312500,-14.02,89.1
40235,2018-06-29 09:05:49.343750,-8.83,89.1
40236,2018-06-29 09:05:49.375000,-9.8,89.1
40237,2018-06-29 09:05:49.406250,-13.7,89.1
40238,2018-06-29 09:05:49.437500,-15.37,89.1
40239,2018-06-29 09:05:49.468750,-12.6,89.1
40240,2018-06-29 09:05:49.500000,-8.38,89.1
40241,2018-06-29 09:05:49.531250,-7.22,89.05
40242,2018-06-29 09:05:49.562500,-8.4,89.05
40243,2018-06-29 09:05:49.593750,-4.36,89.05
40244,2018-06-29 09:05:49.625000,10.89,89.05
40245,2018-06-29 09:05:49.656250,33.85,89.05
40246,2018-06-29 09:05:49.687500,55.05,89.05
40247,2018-06-29 09:05:49.718750,68.19,89.05
40248,2018-06-29 09:05:49.750000,73.51,89.05
40249,2018-06-29 09:05:49.781250,75.3,89.05
40250,2018-06-29 09:05:49.812500,77.82,89.05
40251,2018-06-29 09:05:49.843750,82.05,89.05
40252,2018-06-29 09:05:49.875000,85.38,89.05
40253,2018-06-29 09:05:49.906250,84.89,89.05
40254,2018-06-29 09:05:49.937500,82.5,89.05
40255,2018-06-29 09:05:49.968750,85.23,89.05
40256,2018-06-29 09:05:50.000000,94.75,89.05
40257,2018-06-29 09:05:50.031250,99.77,89.05
40258,2018-06-29 09:05:50.062500,87.08,89.05
40259,2018-06-29 09:05:50.093750,55.75,89.05
40260,2018-06-29 09:05:50.125000,13.58,89.05
40261,2018-06-29 09:05:50.156250,-32.22,89.05
40262,2018-06-29 09:05:50.187500,-74.57,89.05
40263,2018-06-29 09:05:50.218750,-104.94,89.05
40264,2018-06-29 09:05:50.250000,-118.6,89.05
40265,2018-06-29 09:05:50.281250,-119.15,89.05
40266,2018-06-29 09:05:50.312500,-114.91,89.05
40267,2018-06-29 09:05:50.343750,-110.23,89.05
40268,2018-06-29 09:05:50.375000,-101.84,89.05
40269,2018-06-29 09:05:50.406250,-84.88,89.05
40270,2018-06-29 09:05:50.437500,-59.75,89.05
40271,2018-06-29 09:05:50.468750,-31.69,89.05
40272,2018-06-29 09:05:50.500000,-6.45,89.05
40273,2018-06-29 09:05:50.531250,12.03,89.07
40274,2018-06-29 09:05:50.562500,22.52,89.07
40275,2018-06-29 09:05:50.593750,27.46,89.07
40276,2018-06-29 09:05:50.625000,32.33,89.07
40277,2018-06-29 09:05:50.656250,40.96,89.07
40278,2018-06-29 09:05:50.687500,51.67,89.07
40279,2018-06-29 09:05:50.718750,60.06,89.07
40280,2018-06-29 09:05:50.750000,64.92,89.07
40281,2018-06-29 09:05:50.781250,69.39,89.07
40282,2018-06-29 09:05:50.812500,74.56,89.07
40283,2018-06-29 09:05:50.843750,72.31,89.07
40284,2018-06-29 09:05:50.875000,48.94,89.07
40285,2018-06-29 09:05:50.906250,-0.62,89.07
40286,2018-06-29 09:05:50.937500,-63.11,89.07
40287,2018-06-29 09:05:50.968750,-113.71,89.07
40288,2018-06-29 09:05:51.000000,-133.95,89.07
40289,2018-06-29 09:05:51.031250,-124.49,89.07
40290,2018-06-29 09:05:51.062500,-101.43,89.07
40291,2018-06-29 09:05:51.093750,-80.92,89.07
40292,2018-06-29 09:05:51.125000,-69.48,89.07
40293,2018-06-29 09:05:51.156250,-65.4,89.07
40294,2018-06-29 09:05:51.187500,-61.83,89.07
40295,2018-06-29 09:05:51.218750,-50.38,89.07
40296,2018-06-29 09:05:51.250000,-29.29,89.07
40297,2018-06-29 09:05:51.281250,-6.22,89.07
40298,2018-06-29 09:05:51.312500,10.46,89.07
40299,2018-06-29 09:05:51.343750,19.07,89.07
40300,2018-06-29 09:05:51.375000,21.82,89.07
40301,2018-06-29 09:05:51.406250,20.99,89.07
40302,2018-06-29 09:05:51.437500,19.31,89.07
40303,2018-06-29 09:05:51.468750,19.15,89.07
40304,2018-06-29 09:05:51.500000,20.49,89.07
40305,2018-06-29 09:05:51.531250,21.1,89.13
40306,2018-06-29 09:05:51.562500,19.31,89.13
40307,2018-06-29 09:05:51.593750,18.02,89.13
40308,2018-06-29 09:05:51.625000,23.88,89.13
40309,2018-06-29 09:05:51.656250,38.04,89.13
40310,2018-06-29 09:05:51.687500,51.5,89.13
40311,2018-06-29 09:05:51.718750,54.87,89.13
40312,2018-06-29 09:05:51.750000,47.64,89.13
40313,2018-06-29 09:05:51.781250,34.35,89.13
40314,2018-06-29 09:05:51.812500,19.09,89.13
40315,2018-06-29 09:05:51.843750,5.89,89.13
40316,2018-06-29 09:05:51.875000,-2.63,89.13
40317,2018-06-29 09:05:51.906250,-8.25,89.13
40318,2018-06-29 09:05:51.937500,-14.89,89.13
40319,2018-06-29 09:05:51.968750,-22.29,89.13
40320,2018-06-29 09:05:52.000000,-24.36,89.13
40321,2018-06-29 09:05:52.031250,-16.38,89.13
40322,2018-06-29 09:05:52.062500,-2.26,89.13
40323,2018-06-29 09:05:52.093750,9.68,89.13
40324,2018-06-29 09:05:52.125000,15.83,89.13
40325,2018-06-29 09:05:52.156250,17.45,89.13
40326,2018-06-29 09:05:52.187500,16.06,89.13
40327,2018-06-29 09:05:52.218750,13.82,89.13
40328,2018-06-29 09:05:52.250000,13.76,89.13
40329,2018-06-29 09:05:52.281250,15.57,89.13
40330,2018-06-29 09:05:52.312500,14.32,89.13
40331,2018-06-29 09:05:52.343750,5.79,89.13
40332,2018-06-29 09:05:52.375000,-7.27,89.13
40333,2018-06-29 09:05:52.406250,-15.88,89.13
40334,2018-06-29 09:05:52.437500,-14.04,89.13
40335,2018-06-29 09:05:52.468750,-5.76,89.13
40336,2018-06-29 09:05:52.500000,0.29,89.13
40337,2018-06-29 09:05:52.531250,1.01,89.22
40338,2018-06-29 09:05:52.562500,-0.32,89.22
40339,2018-06-29 09:05:52.593750,-0.05,89.22
40340,2018-06-29 09:05:52.625000,3.41,89.22
40341,2018-06-29 09:05:52.656250,9.73,89.22
40342,2018-06-29 09:05:52.687500,16.1,89.22
40343,2018-06-29 09:05:52.718750,18.93,89.22
40344,2018-06-29 09:05:52.750000,17.69,89.22
40345,2018-06-29 09:05:52.781250,15.71,89.22
40346,2018-06-29 09:05:52.812500,16.57,89.22
40347,2018-06-29 09:05:52.843750,20.49,89.22
40348,2018-06-29 09:05:52.875000,24.56,89.22
40349,2018-06-29 09:05:52.906250,25.56,89.22
40350,2018-06-29 09:05:52.937500,21.93,89.22
40351,2018-06-29 09:05:52.968750,14.19,89.22
40352,2018-06-29 09:05:53.000000,5.49,89.22
40353,2018-06-29 09:05:53.031250,0.27,89.22
40354,2018-06-29 09:05:53.062500,-0.22,89.22
40355,2018-06-29 09:05:53.093750,0.28,89.22
40356,2018-06-29 09:05:53.125000,-2.66,89.22
40357,2018-06-29 09:05:53.156250,-9.64,89.22
40358,2018-06-29 09:05:53.187500,-16.25,89.22
40359,2018-06-29 09:05:53.218750,-15.68,89.22
40360,2018-06-29 09:05:53.250000,-5.83,89.22
40361,2018-06-29 09:05:53.281250,6.76,89.22
40362,2018-06-29 09:05:53.312500,14.01,89.22
40363,2018-06-29 09:05:53.343750,14.89,89.22
40364,2018-06-29 09:05:53.375000,13.0,89.22
40365,2018-06-29 09:05:53.406250,10.91,89.22
40366,2018-06-29 09:05:53.437500,9.99,89.22
40367,2018-06-29 09:05:53.468750,10.89,89.22
40368,2018-06-29 09:05:53.500000,11.88,89.22
40369,2018-06-29 09:05:53.531250,9.89,89.3
40370,2018-06-29 09:05:53.562500,4.5,89.3
40371,2018-06-29 09:05:53.593750,-0.49,89.3
40372,2018-06-29 09:05:53.625000,-0.63,89.3
40373,2018-06-29 09:05:53.656250,4.26,89.3
40374,2018-06-29 09:05:53.687500,10.36,89.3
40375,2018-06-29 09:05:53.718750,14.0,89.3
40376,2018-06-29 09:05:53.750000,13.26,89.3
40377,2018-06-29 09:05:53.781250,7.79,89.3
40378,2018-06-29 09:05:53.812500,-0.55,89.3
40379,2018-06-29 09:05:53.843750,-8.03,89.3
40380,2018-06-29 09:05:53.875000,-12.4,89.3
40381,2018-06-29 09:05:53.906250,-15.32,89.3
40382,2018-06-29 09:05:53.937500,-20.42,89.3
40383,2018-06-29 09:05:53.968750,-27.77,89.3
40384,2018-06-29 09:05:54.000000,-31.2,89.3
40385,2018-06-29 09:05:54.031250,-25.0,89.3
40386,2018-06-29 09:05:54.062500,-11.92,89.3
40387,2018-06-29 09:05:54.093750,0.12,89.3
40388,2018-06-29 09:05:54.125000,7.22,89.3
40389,2018-06-29 09:05:54.156250,10.58,89.3
40390,2018-06-29 09:05:54.187500,11.66,89.3
40391,2018-06-29 09:05:54.218750,11.4,89.3
40392,2018-06-29 09:05:54.250000,11.24,89.3
40393,2018-06-29 09:05:54.281250,11.3,89.3
40394,2018-06-29 09:05:54.312500,10.0,89.3
40395,2018-06-29 09:05:54.343750,6.63,89.3
40396,2018-06-29 09:05:54.375000,2.94,89.3
40397,2018-06-29 09:05:54.406250,2.38,89.3
40398,2018-06-29 09:05:54.437500,7.02,89.3
40399,2018-06-29 09:05:54.468750,13.88,89.3
40400,2018-06-29 09:05:54.500000,16.99,89.3
40401,2018-06-29 09:05:54.531250,14.16,89.4
40402,2018-06-29 09:05:54.562500,8.08,89.4
40403,2018-06-29 09:05:54.593750,1.48,89.4
40404,2018-06-29 09:05:54.625000,-4.1,89.4
40405,2018-06-29 09:05:54.656250,-7.31,89.4
40406,2018-06-29 09:05:54.687500,-8.88,89.4
40407,2018-06-29 09:05:54.718750,-11.57,89.4
40408,2018-06-29 09:05:54.750000,-15.9,89.4
40409,2018-06-29 09:05:54.781250,-18.41,89.4
40410,2018-06-29 09:05:54.812500,-15.56,89.4
40411,2018-06-29 09:05:54.843750,-7.87,89.4
40412,2018-06-29 09:05:54.875000,0.43,89.4
40413,2018-06-29 09:05:54.906250,5.15,89.4
40414,2018-06-29 09:05:54.937500,5.26,89.4
40415,2018-06-29 09:05:54.968750,2.69,89.4
40416,2018-06-29 09:05:55.000000,-0.15,89.4
40417,2018-06-29 09:05:55.031250,-1.93,89.4
40418,2018-06-29 09:05:55.062500,-2.33,89.4
40419,2018-06-29 09:05:55.093750,-1.9,89.4
40420,2018-06-29 09:05:55.125000,-2.09,89.4
40421,2018-06-29 09:05:55.156250,-3.92,89.4
40422,2018-06-29 09:05:55.187500,-5.5,89.4
40423,2018-06-29 09:05:55.218750,-2.92,89.4
40424,2018-06-29 09:05:55.250000,4.61,89.4
40425,2018-06-29 09:05:55.281250,12.42,89.4
40426,2018-06-29 09:05:55.312500,15.79,89.4
40427,2018-06-29 09:05:55.343750,14.85,89.4
40428,2018-06-29 09:05:55.375000,11.72,89.4
40429,2018-06-29 09:05:55.406250,7.26,89.4
40430,2018-06-29 09:05:55.437500,3.18,89.4
40431,2018-06-29 09:05:55.468750,1.57,89.4
40432,2018-06-29 09:05:55.500000,1.37,89.4
40433,2018-06-29 09:05:55.531250,-0.38,89.55
40434,2018-06-29 09:05:55.562500,-3.96,89.55
40435,2018-06-29 09:05:55.593750,-6.0,89.55
40436,2018-06-29 09:05:55.625000,-3.16,89.55
40437,2018-06-29 09:05:55.656250,3.87,89.55
40438,2018-06-29 09:05:55.687500,10.92,89.55
40439,2018-06-29 09:05:55.718750,15.04,89.55
40440,2018-06-29 09:05:55.750000,15.94,89.55
40441,2018-06-29 09:05:55.781250,13.69,89.55
40442,2018-06-29 09:05:55.812500,9.17,89.55
40443,2018-06-29 09:05:55.843750,5.29,89.55
40444,2018-06-29 09:05:55.875000,3.23,89.55
40445,2018-06-29 09:05:55.906250,-1.05,89.55
40446,2018-06-29 09:05:55.937500,-12.45,89.55
40447,2018-06-29 09:05:55.968750,-29.06,89.55
40448,2018-06-29 09:05:56.000000,-41.18,89.55
40449,2018-06-29 09:05:56.031250,-40.14,89.55
40450,2018-06-29 09:05:56.062500,-27.92,89.55
40451,2018-06-29 09:05:56.093750,-14.87,89.55
40452,2018-06-29 09:05:56.125000,-8.34,89.55
40453,2018-06-29 09:05:56.156250,-8.41,89.55
40454,2018-06-29 09:05:56.187500,-12.44,89.55
40455,2018-06-29 09:05:56.218750,-16.92,89.55
40456,2018-06-29 09:05:56.250000,-17.32,89.55
40457,2018-06-29 09:05:56.281250,-12.87,89.55
40458,2018-06-29 09:05:56.312500,-8.1,89.55
40459,2018-06-29 09:05:56.343750,-5.63,89.55
40460,2018-06-29 09:05:56.375000,-2.19,89.55
40461,2018-06-29 09:05:56.406250,4.89,89.55
40462,2018-06-29 09:05:56.437500,12.82,89.55
40463,2018-06-29 09:05:56.468750,18.24,89.55
40464,2018-06-29 09:05:56.500000,22.99,89.55
40465,2018-06-29 09:05:56.531250,30.23,89.67
40466,2018-06-29 09:05:56.562500,38.68,89.67
40467,2018-06-29 09:05:56.593750,44.24,89.67
40468,2018-06-29 09:05:56.625000,43.39,89.67
40469,2018-06-29 09:05:56.656250,33.58,89.67
40470,2018-06-29 09:05:56.687500,18.97,89.67
40471,2018-06-29 09:05:56.718750,11.66,89.67
40472,2018-06-29 09:05:56.750000,13.41,89.67
40473,2018-06-29 09:05:56.781250,9.05,89.67
40474,2018-06-29 09:05:56.812500,-7.19,89.67
40475,2018-06-29 09:05:56.843750,-20.56,89.67
40476,2018-06-29 09:05:56.875000,-22.62,89.67
40477,2018-06-29 09:05:56.906250,-20.93,89.67
40478,2018-06-29 09:05:56.937500,-18.12,89.67
40479,2018-06-29 09:05:56.968750,-10.02,89.67
40480,2018-06-29 09:05:57.000000,-1.51,89.67
40481,2018-06-29 09:05:57.031250,-0.27,89.67
40482,2018-06-29 09:05:57.062500,-2.41,89.67
40483,2018-06-29 09:05:57.093750,-0.21,89.67
40484,2018-06-29 09:05:57.125000,4.72,89.67
40485,2018-06-29 09:05:57.156250,5.95,89.67
40486,2018-06-29 09:05:57.187500,3.16,89.67
40487,2018-06-29 09:05:57.218750,2.62,89.67
40488,2018-06-29 09:05:57.250000,9.22,89.67
40489,2018-06-29 09:05:57.281250,19.17,89.67
40490,2018-06-29 09:05:57.312500,21.56,89.67
40491,2018-06-29 09:05:57.343750,10.5,89.67
40492,2018-06-29 09:05:57.375000,-7.21,89.67
40493,2018-06-29 09:05:57.406250,-20.76,89.67
40494,2018-06-29 09:05:57.437500,-26.92,89.67
40495,2018-06-29 09:05:57.468750,-28.08,89.67
40496,2018-06-29 09:05:57.500000,-26.42,89.67
40497,2018-06-29 09:05:57.531250,-24.59,89.75
40498,2018-06-29 09:05:57.562500,-25.6,89.75
40499,2018-06-29 09:05:57.593750,-29.03,89.75
40500,2018-06-29 09:05:57.625000,-30.92,89.75
40501,2018-06-29 09:05:57.656250,-28.05,89.75
40502,2018-06-29 09:05:57.687500,-20.33,89.75
40503,2018-06-29 09:05:57.718750,-10.07,89.75
40504,2018-06-29 09:05:57.750000,-0.09,89.75
40505,2018-06-29 09:05:57.781250,7.71,89.75
40506,2018-06-29 09:05:57.812500,12.03,89.75
40507,2018-06-29 09:05:57.843750,11.99,89.75
40508,2018-06-29 09:05:57.875000,8.74,89.75
40509,2018-06-29 09:05:57.906250,5.36,89.75
40510,2018-06-29 09:05:57.937500,3.17,89.75
40511,2018-06-29 09:05:57.968750,0.38,89.75
40512,2018-06-29 09:05:58.000000,-4.5,89.75
40513,2018-06-29 09:05:58.031250,-9.51,89.75
40514,2018-06-29 09:05:58.062500,-10.82,89.75
40515,2018-06-29 09:05:58.093750,-7.25,89.75
40516,2018-06-29 09:05:58.125000,-1.31,89.75
40517,2018-06-29 09:05:58.156250,4.31,89.75
40518,2018-06-29 09:05:58.187500,9.35,89.75
40519,2018-06-29 09:05:58.218750,14.2,89.75
40520,2018-06-29 09:05:58.250000,18.06,89.75
40521,2018-06-29 09:05:58.281250,19.49,89.75
40522,2018-06-29 09:05:58.312500,16.73,89.75
40523,2018-06-29 09:05:58.343750,8.51,89.75
40524,2018-06-29 09:05:58.375000,-3.08,89.75
40525,2018-06-29 09:05:58.406250,-12.53,89.75
40526,2018-06-29 09:05:58.437500,-15.94,89.75
40527,2018-06-29 09:05:58.468750,-13.97,89.75
40528,2018-06-29 09:05:58.500000,-8.93,89.75
40529,2018-06-29 09:05:58.531250,-2.27,89.8
40530,2018-06-29 09:05:58.562500,4.86,89.8
40531,2018-06-29 09:05:58.593750,11.48,89.8
40532,2018-06-29 09:05:58.625000,17.51,89.8
40533,2018-06-29 09:05:58.656250,23.22,89.8
40534,2018-06-29 09:05:58.687500,28.39,89.8
40535,2018-06-29 09:05:58.718750,32.54,89.8
40536,2018-06-29 09:05:58.750000,34.52,89.8
40537,2018-06-29 09:05:58.781250,32.02,89.8
40538,2018-06-29 09:05:58.812500,23.18,89.8
40539,2018-06-29 09:05:58.843750,9.36,89.8
40540,2018-06-29 09:05:58.875000,-4.78,89.8
40541,2018-06-29 09:05:58.906250,-14.63,89.8
40542,2018-06-29 09:05:58.937500,-19.55,89.8
40543,2018-06-29 09:05:58.968750,-23.25,89.8
40544,2018-06-29 09:05:59.000000,-29.03,89.8
40545,2018-06-29 09:05:59.031250,-35.41,89.8
40546,2018-06-29 09:05:59.062500,-38.83,89.8
40547,2018-06-29 09:05:59.093750,-37.76,89.8
40548,2018-06-29 09:05:59.125000,-31.73,89.8
40549,2018-06-29 09:05:59.156250,-21.29,89.8
40550,2018-06-29 09:05:59.187500,-11.28,89.8
40551,2018-06-29 09:05:59.218750,-8.4,89.8
40552,2018-06-29 09:05:59.250000,-13.87,89.8
40553,2018-06-29 09:05:59.281250,-21.67,89.8
40554,2018-06-29 09:05:59.312500,-23.12,89.8
40555,2018-06-29 09:05:59.343750,-13.29,89.8
40556,2018-06-29 09:05:59.375000,4.8,89.8
40557,2018-06-29 09:05:59.406250,23.55,89.8
40558,2018-06-29 09:05:59.437500,37.98,89.8
40559,2018-06-29 09:05:59.468750,47.4,89.8
40560,2018-06-29 09:05:59.500000,52.19,89.8
40561,2018-06-29 09:05:59.531250,52.45,89.83
40562,2018-06-29 09:05:59.562500,48.65,89.83
40563,2018-06-29 09:05:59.593750,42.34,89.83
40564,2018-06-29 09:05:59.625000,35.36,89.83
40565,2018-06-29 09:05:59.656250,28.33,89.83
40566,2018-06-29 09:05:59.687500,21.63,89.83
40567,2018-06-29 09:05:59.718750,17.04,89.83
40568,2018-06-29 09:05:59.750000,15.55,89.83
40569,2018-06-29 09:05:59.781250,15.44,89.83
40570,2018-06-29 09:05:59.812500,15.49,89.83
40571,2018-06-29 09:05:59.843750,17.22,89.83
40572,2018-06-29 09:05:59.875000,21.26,89.83
40573,2018-06-29 09:05:59.906250,25.12,89.83
40574,2018-06-29 09:05:59.937500,26.9,89.83
40575,2018-06-29 09:05:59.968750,29.97,89.83
40576,2018-06-29 09:06:00.000000,40.78,89.83
40577,2018-06-29 09:06:00.031250,60.7,89.83
40578,2018-06-29 09:06:00.062500,81.34,89.83
40579,2018-06-29 09:06:00.093750,90.18,89.83
40580,2018-06-29 09:06:00.125000,80.25,89.83
40581,2018-06-29 09:06:00.156250,51.91,89.83
40582,2018-06-29 09:06:00.187500,7.1,89.83
40583,2018-06-29 09:06:00.218750,-52.18,89.83
40584,2018-06-29 09:06:00.250000,-115.98,89.83
40585,2018-06-29 09:06:00.281250,-164.12,89.83
40586,2018-06-29 09:06:00.312500,-179.5,89.83
40587,2018-06-29 09:06:00.343750,-162.07,89.83
40588,2018-06-29 09:06:00.375000,-125.68,89.83
40589,2018-06-29 09:06:00.406250,-84.88,89.83
40590,2018-06-29 09:06:00.437500,-48.29,89.83
40591,2018-06-29 09:06:00.468750,-19.66,89.83
40592,2018-06-29 09:06:00.500000,1.36,89.83
40593,2018-06-29 09:06:00.531250,19.23,89.87
40594,2018-06-29 09:06:00.562500,38.82,89.87
40595,2018-06-29 09:06:00.593750,60.95,89.87
40596,2018-06-29 09:06:00.625000,84.03,89.87
40597,2018-06-29 09:06:00.656250,107.62,89.87
40598,2018-06-29 09:06:00.687500,130.07,89.87
40599,2018-06-29 09:06:00.718750,146.23,89.87
40600,2018-06-29 09:06:00.750000,153.43,89.87
40601,2018-06-29 09:06:00.781250,157.78,89.87
40602,2018-06-29 09:06:00.812500,170.61,89.87
40603,2018-06-29 09:06:00.843750,199.03,89.87
40604,2018-06-29 09:06:00.875000,236.37,89.87
40605,2018-06-29 09:06:00.906250,257.73,89.87
40606,2018-06-29 09:06:00.937500,235.99,89.87
40607,2018-06-29 09:06:00.968750,170.03,89.87
40608,2018-06-29 09:06:01.000000,83.97,89.87
40609,2018-06-29 09:06:01.031250,-5.02,89.87
40610,2018-06-29 09:06:01.062500,-101.11,89.87
40611,2018-06-29 09:06:01.093750,-206.74,89.87
40612,2018-06-29 09:06:01.125000,-300.24,89.87
40613,2018-06-29 09:06:01.156250,-350.99,89.87
40614,2018-06-29 09:06:01.187500,-352.27,89.87
40615,2018-06-29 09:06:01.218750,-323.01,89.87
40616,2018-06-29 09:06:01.250000,-279.84,89.87
40617,2018-06-29 09:06:01.281250,-229.35,89.87
40618,2018-06-29 09:06:01.312500,-182.29,89.87
40619,2018-06-29 09:06:01.343750,-147.69,89.87
40620,2018-06-29 09:06:01.375000,-118.04,89.87
40621,2018-06-29 09:06:01.406250,-83.04,89.87
40622,2018-06-29 09:06:01.437500,-48.15,89.87
40623,2018-06-29 09:06:01.468750,-22.78,89.87
40624,2018-06-29 09:06:01.500000,-1.02,89.87
40625,2018-06-29 09:06:01.531250,31.63,90.0
40626,2018-06-29 09:06:01.562500,77.61,90.0
40627,2018-06-29 09:06:01.593750,117.64,90.0
40628,2018-06-29 09:06:01.625000,119.11,90.0
40629,2018-06-29 09:06:01.656250,64.04,90.0
40630,2018-06-29 09:06:01.687500,-21.09,90.0
40631,2018-06-29 09:06:01.718750,-80.6,90.0
40632,2018-06-29 09:06:01.750000,-87.36,90.0
40633,2018-06-29 09:06:01.781250,-63.6,90.0
40634,2018-06-29 09:06:01.812500,-39.77,90.0
40635,2018-06-29 09:06:01.843750,-23.26,90.0
40636,2018-06-29 09:06:01.875000,-9.87,90.0
40637,2018-06-29 09:06:01.906250,5.05,90.0
40638,2018-06-29 09:06:01.937500,28.45,90.0
40639,2018-06-29 09:06:01.968750,61.56,90.0
40640,2018-06-29 09:06:02.000000,93.65,90.0
40641,2018-06-29 09:06:02.031250,114.02,90.0
40642,2018-06-29 09:06:02.062500,125.57,90.0
40643,2018-06-29 09:06:02.093750,144.23,90.0
40644,2018-06-29 09:06:02.125000,181.5,90.0
40645,2018-06-29 09:06:02.156250,220.54,90.0
40646,2018-06-29 09:06:02.187500,221.3,90.0
40647,2018-06-29 09:06:02.218750,161.09,90.0
40648,2018-06-29 09:06:02.250000,53.88,90.0
40649,2018-06-29 09:06:02.281250,-69.66,90.0
40650,2018-06-29 09:06:02.312500,-173.29,90.0
40651,2018-06-29 09:06:02.343750,-219.07,90.0
40652,2018-06-29 09:06:02.375000,-198.54,90.0
40653,2018-06-29 09:06:02.406250,-147.55,90.0
40654,2018-06-29 09:06:02.437500,-104.75,90.0
40655,2018-06-29 09:06:02.468750,-75.57,90.0
40656,2018-06-29 09:06:02.500000,-48.12,90.0
40657,2018-06-29 09:06:02.531250,-17.52,90.08
40658,2018-06-29 09:06:02.562500,14.06,90.08
40659,2018-06-29 09:06:02.593750,43.95,90.08
40660,2018-06-29 09:06:02.625000,71.64,90.08
40661,2018-06-29 09:06:02.656250,101.29,90.08
40662,2018-06-29 09:06:02.687500,140.66,90.08
40663,2018-06-29 09:06:02.718750,189.52,90.08
40664,2018-06-29 09:06:02.750000,227.04,90.08
40665,2018-06-29 09:06:02.781250,223.34,90.08
40666,2018-06-29 09:06:02.812500,170.4,90.08
40667,2018-06-29 09:06:02.843750,87.7,90.08
40668,2018-06-29 09:06:02.875000,-6.14,90.08
40669,2018-06-29 09:06:02.906250,-105.2,90.08
40670,2018-06-29 09:06:02.937500,-197.15,90.08
40671,2018-06-29 09:06:02.968750,-257.9,90.08
40672,2018-06-29 09:06:03.000000,-273.49,90.08
40673,2018-06-29 09:06:03.031250,-254.05,90.08
40674,2018-06-29 09:06:03.062500,-221.51,90.08
40675,2018-06-29 09:06:03.093750,-190.77,90.08
40676,2018-06-29 09:06:03.125000,-165.33,90.08
40677,2018-06-29 09:06:03.156250,-143.09,90.08
40678,2018-06-29 09:06:03.187500,-117.8,90.08
40679,2018-06-29 09:06:03.218750,-80.8,90.08
40680,2018-06-29 09:06:03.250000,-31.97,90.08
40681,2018-06-29 09:06:03.281250,16.05,90.08
40682,2018-06-29 09:06:03.312500,52.95,90.08
40683,2018-06-29 09:06:03.343750,82.47,90.08
40684,2018-06-29 09:06:03.375000,112.78,90.08
40685,2018-06-29 09:06:03.406250,144.88,90.08
40686,2018-06-29 09:06:03.437500,177.24,90.08
40687,2018-06-29 09:06:03.468750,211.57,90.08
40688,2018-06-29 09:06:03.500000,240.94,90.08
40689,2018-06-29 09:06:03.531250,240.95,90.12
40690,2018-06-29 09:06:03.562500,189.68,90.12
40691,2018-06-29 09:06:03.593750,89.89,90.12
40692,2018-06-29 09:06:03.625000,-34.81,90.12
40693,2018-06-29 09:06:03.656250,-148.16,90.12
40694,2018-06-29 09:06:03.687500,-210.88,90.12
40695,2018-06-29 09:06:03.718750,-211.67,90.12
40696,2018-06-29 09:06:03.750000,-180.88,90.12
40697,2018-06-29 09:06:03.781250,-152.47,90.12
40698,2018-06-29 09:06:03.812500,-131.84,90.12
40699,2018-06-29 09:06:03.843750,-111.84,90.12
40700,2018-06-29 09:06:03.875000,-90.39,90.12
40701,2018-06-29 09:06:03.906250,-64.8,90.12
40702,2018-06-29 09:06:03.937500,-32.24,90.12
40703,2018-06-29 09:06:03.968750,2.02,90.12
40704,2018-06-29 09:06:04.000000,30.36,90.12
40705,2018-06-29 09:06:04.031250,54.86,90.12
40706,2018-06-29 09:06:04.062500,83.79,90.12
40707,2018-06-29 09:06:04.093750,114.7,90.12
40708,2018-06-29 09:06:04.125000,128.68,90.12
40709,2018-06-29 09:06:04.156250,105.77,90.12
40710,2018-06-29 09:06:04.187500,42.99,90.12
40711,2018-06-29 09:06:04.218750,-41.97,90.12
40712,2018-06-29 09:06:04.250000,-117.96,90.12
40713,2018-06-29 09:06:04.281250,-156.41,90.12
40714,2018-06-29 09:06:04.312500,-152.76,90.12
40715,2018-06-29 09:06:04.343750,-128.46,90.12
40716,2018-06-29 09:06:04.375000,-106.16,90.12
40717,2018-06-29 09:06:04.406250,-91.82,90.12
40718,2018-06-29 09:06:04.437500,-82.51,90.12
40719,2018-06-29 09:06:04.468750,-74.79,90.12
40720,2018-06-29 09:06:04.500000,-61.23,90.12
40721,2018-06-29 09:06:04.531250,-33.6,90.18
40722,2018-06-29 09:06:04.562500,6.81,90.18
40723,2018-06-29 09:06:04.593750,51.12,90.18
40724,2018-06-29 09:06:04.625000,93.15,90.18
40725,2018-06-29 09:06:04.656250,130.42,90.18
40726,2018-06-29 09:06:04.687500,160.93,90.18
40727,2018-06-29 09:06:04.718750,187.28,90.18
40728,2018-06-29 09:06:04.750000,213.37,90.18
40729,2018-06-29 09:06:04.781250,227.29,90.18
40730,2018-06-29 09:06:04.812500,200.19,90.18
40731,2018-06-29 09:06:04.843750,114.79,90.18
40732,2018-06-29 09:06:04.875000,-10.99,90.18
40733,2018-06-29 09:06:04.906250,-129.93,90.18
40734,2018-06-29 09:06:04.937500,-194.46,90.18
40735,2018-06-29 09:06:04.968750,-191.97,90.18
40736,2018-06-29 09:06:05.000000,-152.87,90.18
40737,2018-06-29 09:06:05.031250,-114.63,90.18
40738,2018-06-29 09:06:05.062500,-88.15,90.18
40739,2018-06-29 09:06:05.093750,-66.93,90.18
40740,2018-06-29 09:06:05.125000,-47.33,90.18
40741,2018-06-29 09:06:05.156250,-27.02,90.18
40742,2018-06-29 09:06:05.187500,-0.89,90.18
40743,2018-06-29 09:06:05.218750,31.97,90.18
40744,2018-06-29 09:06:05.250000,63.66,90.18
40745,2018-06-29 09:06:05.281250,80.78,90.18
40746,2018-06-29 09:06:05.312500,70.04,90.18
40747,2018-06-29 09:06:05.343750,25.59,90.18
40748,2018-06-29 09:06:05.375000,-41.66,90.18
40749,2018-06-29 09:06:05.406250,-103.7,90.18
40750,2018-06-29 09:06:05.437500,-131.13,90.18
40751,2018-06-29 09:06:05.468750,-114.57,90.18
40752,2018-06-29 09:06:05.500000,-71.26,90.18
40753,2018-06-29 09:06:05.531250,-28.62,90.28
40754,2018-06-29 09:06:05.562500,-1.78,90.28
40755,2018-06-29 09:06:05.593750,11.09,90.28
40756,2018-06-29 09:06:05.625000,17.7,90.28
40757,2018-06-29 09:06:05.656250,24.15,90.28
40758,2018-06-29 09:06:05.687500,34.94,90.28
40759,2018-06-29 09:06:05.718750,50.6,90.28
40760,2018-06-29 09:06:05.750000,65.65,90.28
40761,2018-06-29 09:06:05.781250,75.56,90.28
40762,2018-06-29 09:06:05.812500,87.6,90.28
40763,2018-06-29 09:06:05.843750,117.12,90.28
40764,2018-06-29 09:06:05.875000,168.4,90.28
40765,2018-06-29 09:06:05.906250,227.19,90.28
40766,2018-06-29 09:06:05.937500,273.16,90.28
40767,2018-06-29 09:06:05.968750,287.67,90.28
40768,2018-06-29 09:06:06.000000,254.5,90.28
40769,2018-06-29 09:06:06.031250,169.83,90.28
40770,2018-06-29 09:06:06.062500,49.02,90.28
40771,2018-06-29 09:06:06.093750,-81.39,90.28
40772,2018-06-29 09:06:06.125000,-190.97,90.28
40773,2018-06-29 09:06:06.156250,-254.74,90.28
40774,2018-06-29 09:06:06.187500,-273.36,90.28
40775,2018-06-29 09:06:06.218750,-272.52,90.28
40776,2018-06-29 09:06:06.250000,-268.63,90.28
40777,2018-06-29 09:06:06.281250,-251.42,90.28
40778,2018-06-29 09:06:06.312500,-209.71,90.28
40779,2018-06-29 09:06:06.343750,-152.85,90.28
40780,2018-06-29 09:06:06.375000,-94.94,90.28
40781,2018-06-29 09:06:06.406250,-38.64,90.28
40782,2018-06-29 09:06:06.437500,10.64,90.28
40783,2018-06-29 09:06:06.468750,33.66,90.28
40784,2018-06-29 09:06:06.500000,19.33,90.28
40785,2018-06-29 09:06:06.531250,-16.33,90.4
40786,2018-06-29 09:06:06.562500,-46.99,90.4
40787,2018-06-29 09:06:06.593750,-59.3,90.4
40788,2018-06-29 09:06:06.625000,-54.48,90.4
40789,2018-06-29 09:06:06.656250,-41.0,90.4
40790,2018-06-29 09:06:06.687500,-26.55,90.4
40791,2018-06-29 09:06:06.718750,-9.09,90.4
40792,2018-06-29 09:06:06.750000,17.88,90.4
40793,2018-06-29 09:06:06.781250,51.5,90.4
40794,2018-06-29 09:06:06.812500,81.93,90.4
40795,2018-06-29 09:06:06.843750,104.96,90.4
40796,2018-06-29 09:06:06.875000,121.01,90.4
40797,2018-06-29 09:06:06.906250,129.01,90.4
40798,2018-06-29 09:06:06.937500,130.88,90.4
40799,2018-06-29 09:06:06.968750,135.31,90.4
40800,2018-06-29 09:06:07.000000,148.43,90.4
40801,2018-06-29 09:06:07.031250,164.16,90.4
40802,2018-06-29 09:06:07.062500,169.26,90.4
40803,2018-06-29 09:06:07.093750,152.65,90.4
40804,2018-06-29 09:06:07.125000,108.59,90.4
40805,2018-06-29 09:06:07.156250,42.48,90.4
40806,2018-06-29 09:06:07.187500,-26.1,90.4
40807,2018-06-29 09:06:07.218750,-78.41,90.4
40808,2018-06-29 09:06:07.250000,-109.94,90.4
40809,2018-06-29 09:06:07.281250,-120.45,90.4
40810,2018-06-29 09:06:07.312500,-107.68,90.4
40811,2018-06-29 09:06:07.343750,-80.74,90.4
40812,2018-06-29 09:06:07.375000,-59.28,90.4
40813,2018-06-29 09:06:07.406250,-50.26,90.4
40814,2018-06-29 09:06:07.437500,-42.65,90.4
40815,2018-06-29 09:06:07.468750,-27.64,90.4
40816,2018-06-29 09:06:07.500000,-9.12,90.4
40817,2018-06-29 09:06:07.531250,5.63,90.52
40818,2018-06-29 09:06:07.562500,12.69,90.52
40819,2018-06-29 09:06:07.593750,11.68,90.52
40820,2018-06-29 09:06:07.625000,9.39,90.52
40821,2018-06-29 09:06:07.656250,15.61,90.52
40822,2018-06-29 09:06:07.687500,27.41,90.52
40823,2018-06-29 09:06:07.718750,29.35,90.52
40824,2018-06-29 09:06:07.750000,16.05,90.52
40825,2018-06-29 09:06:07.781250,1.45,90.52
40826,2018-06-29 09:06:07.812500,1.74,90.52
40827,2018-06-29 09:06:07.843750,21.74,90.52
40828,2018-06-29 09:06:07.875000,57.38,90.52
40829,2018-06-29 09:06:07.906250,99.03,90.52
40830,2018-06-29 09:06:07.937500,133.34,90.52
40831,2018-06-29 09:06:07.968750,150.99,90.52
40832,2018-06-29 09:06:08.000000,151.69,90.52
40833,2018-06-29 09:06:08.031250,138.2,90.52
40834,2018-06-29 09:06:08.062500,113.79,90.52
40835,2018-06-29 09:06:08.093750,87.03,90.52
40836,2018-06-29 09:06:08.125000,68.53,90.52
40837,2018-06-29 09:06:08.156250,62.42,90.52
40838,2018-06-29 09:06:08.187500,66.81,90.52
40839,2018-06-29 09:06:08.218750,73.89,90.52
40840,2018-06-29 09:06:08.250000,68.17,90.52
40841,2018-06-29 09:06:08.281250,38.25,90.52
40842,2018-06-29 09:06:08.312500,-10.91,90.52
40843,2018-06-29 09:06:08.343750,-66.78,90.52
40844,2018-06-29 09:06:08.375000,-121.94,90.52
40845,2018-06-29 09:06:08.406250,-173.82,90.52
40846,2018-06-29 09:06:08.437500,-221.02,90.52
40847,2018-06-29 09:06:08.468750,-259.36,90.52
40848,2018-06-29 09:06:08.500000,-275.92,90.52
40849,2018-06-29 09:06:08.531250,-255.51,90.58
40850,2018-06-29 09:06:08.562500,-200.22,90.58
40851,2018-06-29 09:06:08.593750,-132.34,90.58
40852,2018-06-29 09:06:08.625000,-72.63,90.58
40853,2018-06-29 09:06:08.656250,-25.03,90.58
40854,2018-06-29 09:06:08.687500,14.24,90.58
40855,2018-06-29 09:06:08.718750,44.45,90.58
40856,2018-06-29 09:06:08.750000,63.18,90.58
40857,2018-06-29 09:06:08.781250,73.54,90.58
40858,2018-06-29 09:06:08.812500,81.05,90.58
40859,2018-06-29 09:06:08.843750,83.58,90.58
40860,2018-06-29 09:06:08.875000,67.95,90.58
40861,2018-06-29 09:06:08.906250,21.52,90.58
40862,2018-06-29 09:06:08.937500,-47.98,90.58
40863,2018-06-29 09:06:08.968750,-104.52,90.58
40864,2018-06-29 09:06:09.000000,-107.02,90.58
40865,2018-06-29 09:06:09.031250,-48.88,90.58
40866,2018-06-29 09:06:09.062500,34.56,90.58
40867,2018-06-29 09:06:09.093750,101.94,90.58
40868,2018-06-29 09:06:09.125000,135.79,90.58
40869,2018-06-29 09:06:09.156250,138.08,90.58
40870,2018-06-29 09:06:09.187500,117.67,90.58
40871,2018-06-29 09:06:09.218750,86.97,90.58
40872,2018-06-29 09:06:09.250000,59.12,90.58
40873,2018-06-29 09:06:09.281250,43.64,90.58
40874,2018-06-29 09:06:09.312500,45.14,90.58
40875,2018-06-29 09:06:09.343750,63.12,90.58
40876,2018-06-29 09:06:09.375000,91.06,90.58
40877,2018-06-29 09:06:09.406250,116.23,90.58
40878,2018-06-29 09:06:09.437500,126.66,90.58
40879,2018-06-29 09:06:09.468750,121.12,90.58
40880,2018-06-29 09:06:09.500000,104.1,90.58
40881,2018-06-29 09:06:09.531250,71.45,90.62
40882,2018-06-29 09:06:09.562500,15.66,90.62
40883,2018-06-29 09:06:09.593750,-53.11,90.62
40884,2018-06-29 09:06:09.625000,-107.02,90.62
40885,2018-06-29 09:06:09.656250,-126.62,90.62
40886,2018-06-29 09:06:09.687500,-117.08,90.62
40887,2018-06-29 09:06:09.718750,-95.84,90.62
40888,2018-06-29 09:06:09.750000,-73.45,90.62
40889,2018-06-29 09:06:09.781250,-49.47,90.62
40890,2018-06-29 09:06:09.812500,-18.39,90.62
40891,2018-06-29 09:06:09.843750,20.71,90.62
40892,2018-06-29 09:06:09.875000,55.47,90.62
40893,2018-06-29 09:06:09.906250,71.49,90.62
40894,2018-06-29 09:06:09.937500,72.96,90.62
40895,2018-06-29 09:06:09.968750,71.15,90.62
40896,2018-06-29 09:06:10.000000,56.64,90.62
40897,2018-06-29 09:06:10.031250,10.77,90.62
40898,2018-06-29 09:06:10.062500,-61.04,90.62
40899,2018-06-29 09:06:10.093750,-130.11,90.62
40900,2018-06-29 09:06:10.125000,-169.24,90.62
40901,2018-06-29 09:06:10.156250,-166.42,90.62
40902,2018-06-29 09:06:10.187500,-128.66,90.62
40903,2018-06-29 09:06:10.218750,-77.59,90.62
40904,2018-06-29 09:06:10.250000,-33.5,90.62
40905,2018-06-29 09:06:10.281250,-4.16,90.62
40906,2018-06-29 09:06:10.312500,11.11,90.62
40907,2018-06-29 09:06:10.343750,16.93,90.62
40908,2018-06-29 09:06:10.375000,23.78,90.62
40909,2018-06-29 09:06:10.406250,43.86,90.62
40910,2018-06-29 09:06:10.437500,80.26,90.62
40911,2018-06-29 09:06:10.468750,126.77,90.62
40912,2018-06-29 09:06:10.500000,178.57,90.62
40913,2018-06-29 09:06:10.531250,234.03,90.65
40914,2018-06-29 09:06:10.562500,282.85,90.65
40915,2018-06-29 09:06:10.593750,302.12,90.65
40916,2018-06-29 09:06:10.625000,274.46,90.65
40917,2018-06-29 09:06:10.656250,206.09,90.65
40918,2018-06-29 09:06:10.687500,115.99,90.65
40919,2018-06-29 09:06:10.718750,10.32,90.65
40920,2018-06-29 09:06:10.750000,-113.15,90.65
40921,2018-06-29 09:06:10.781250,-233.37,90.65
40922,2018-06-29 09:06:10.812500,-311.48,90.65
40923,2018-06-29 09:06:10.843750,-332.97,90.65
40924,2018-06-29 09:06:10.875000,-311.61,90.65
40925,2018-06-29 09:06:10.906250,-257.29,90.65
40926,2018-06-29 09:06:10.937500,-176.4,90.65
40927,2018-06-29 09:06:10.968750,-89.76,90.65
40928,2018-06-29 09:06:11.000000,-15.37,90.65
40929,2018-06-29 09:06:11.031250,47.79,90.65
40930,2018-06-29 09:06:11.062500,96.42,90.65
40931,2018-06-29 09:06:11.093750,109.22,90.65
40932,2018-06-29 09:06:11.125000,70.71,90.65
40933,2018-06-29 09:06:11.156250,-10.17,90.65
40934,2018-06-29 09:06:11.187500,-107.23,90.65
40935,2018-06-29 09:06:11.218750,-187.12,90.65
40936,2018-06-29 09:06:11.250000,-223.26,90.65
40937,2018-06-29 09:06:11.281250,-216.44,90.65
40938,2018-06-29 09:06:11.312500,-187.29,90.65
40939,2018-06-29 09:06:11.343750,-144.12,90.65
40940,2018-06-29 09:06:11.375000,-83.68,90.65
40941,2018-06-29 09:06:11.406250,-17.46,90.65
40942,2018-06-29 09:06:11.437500,35.81,90.65
40943,2018-06-29 09:06:11.468750,73.2,90.65
40944,2018-06-29 09:06:11.500000,97.15,90.65
40945,2018-06-29 09:06:11.531250,100.89,90.68
40946,2018-06-29 09:06:11.562500,84.34,90.68
40947,2018-06-29 09:06:11.593750,65.92,90.68
40948,2018-06-29 09:06:11.625000,65.94,90.68
40949,2018-06-29 09:06:11.656250,87.56,90.68
40950,2018-06-29 09:06:11.687500,113.61,90.68
40951,2018-06-29 09:06:11.718750,117.87,90.68
40952,2018-06-29 09:06:11.750000,86.84,90.68
40953,2018-06-29 09:06:11.781250,36.62,90.68
40954,2018-06-29 09:06:11.812500,-0.64,90.68
40955,2018-06-29 09:06:11.843750,-10.73,90.68
40956,2018-06-29 09:06:11.875000,-5.31,90.68
40957,2018-06-29 09:06:11.906250,4.01,90.68
40958,2018-06-29 09:06:11.937500,19.5,90.68
40959,2018-06-29 09:06:11.968750,41.81,90.68
40960,2018-06-29 09:06:12.000000,61.03,90.68
40961,2018-06-29 09:06:12.031250,69.19,90.68
40962,2018-06-29 09:06:12.062500,68.23,90.68
40963,2018-06-29 09:06:12.093750,65.32,90.68
40964,2018-06-29 09:06:12.125000,70.34,90.68
40965,2018-06-29 09:06:12.156250,89.81,90.68
40966,2018-06-29 09:06:12.187500,110.49,90.68
40967,2018-06-29 09:06:12.218750,103.84,90.68
40968,2018-06-29 09:06:12.250000,64.15,90.68
40969,2018-06-29 09:06:12.281250,22.81,90.68
40970,2018-06-29 09:06:12.312500,3.46,90.68
40971,2018-06-29 09:06:12.343750,-12.12,90.68
40972,2018-06-29 09:06:12.375000,-49.98,90.68
40973,2018-06-29 09:06:12.406250,-100.91,90.68
40974,2018-06-29 09:06:12.437500,-132.09,90.68
40975,2018-06-29 09:06:12.468750,-125.73,90.68
40976,2018-06-29 09:06:12.500000,-91.25,90.68
40977,2018-06-29 09:06:12.531250,-48.11,90.72
40978,2018-06-29 09:06:12.562500,-10.57,90.72
40979,2018-06-29 09:06:12.593750,13.38,90.72
40980,2018-06-29 09:06:12.625000,22.72,90.72
40981,2018-06-29 09:06:12.656250,26.68,90.72
40982,2018-06-29 09:06:12.687500,33.96,90.72
40983,2018-06-29 09:06:12.718750,39.78,90.72
40984,2018-06-29 09:06:12.750000,40.38,90.72
40985,2018-06-29 09:06:12.781250,51.04,90.72
40986,2018-06-29 09:06:12.812500,89.12,90.72
40987,2018-06-29 09:06:12.843750,149.35,90.72
40988,2018-06-29 09:06:12.875000,210.57,90.72
40989,2018-06-29 09:06:12.906250,252.85,90.72
40990,2018-06-29 09:06:12.937500,259.5,90.72
40991,2018-06-29 09:06:12.968750,220.93,90.72
40992,2018-06-29 09:06:13.000000,144.41,90.72
40993,2018-06-29 09:06:13.031250,46.11,90.72
40994,2018-06-29 09:06:13.062500,-66.74,90.72
40995,2018-06-29 09:06:13.093750,-185.01,90.72
40996,2018-06-29 09:06:13.125000,-277.02,90.72
40997,2018-06-29 09:06:13.156250,-314.09,90.72
40998,2018-06-29 09:06:13.187500,-307.91,90.72
40999,2018-06-29 09:06:13.218750,-285.66,90.72
41000,2018-06-29 09:06:13.250000,-246.81,90.72
41001,2018-06-29 09:06:13.281250,-181.47,90.72
41002,2018-06-29 09:06:13.312500,-102.84,90.72
41003,2018-06-29 09:06:13.343750,-26.83,90.72
41004,2018-06-29 09:06:13.375000,49.34,90.72
41005,2018-06-29 09:06:13.406250,122.13,90.72
41006,2018-06-29 09:06:13.437500,166.08,90.72
41007,2018-06-29 09:06:13.468750,163.17,90.72
41008,2018-06-29 09:06:13.500000,123.31,90.72
41009,2018-06-29 09:06:13.531250,61.34,90.78
41010,2018-06-29 09:06:13.562500,-22.09,90.78
41011,2018-06-29 09:06:13.593750,-121.13,90.78
41012,2018-06-29 09:06:13.625000,-207.47,90.78
41013,2018-06-29 09:06:13.656250,-251.24,90.78
41014,2018-06-29 09:06:13.687500,-246.29,90.78
41015,2018-06-29 09:06:13.718750,-203.32,90.78
41016,2018-06-29 09:06:13.750000,-134.4,90.78
41017,2018-06-29 09:06:13.781250,-55.61,90.78
41018,2018-06-29 09:06:13.812500,12.34,90.78
41019,2018-06-29 09:06:13.843750,59.35,90.78
41020,2018-06-29 09:06:13.875000,90.99,90.78
41021,2018-06-29 09:06:13.906250,113.51,90.78
41022,2018-06-29 09:06:13.937500,125.74,90.78
41023,2018-06-29 09:06:13.968750,129.06,90.78
41024,2018-06-29 09:06:14.000000,134.52,90.78
41025,2018-06-29 09:06:14.031250,153.62,90.78
41026,2018-06-29 09:06:14.062500,186.46,90.78
41027,2018-06-29 09:06:14.093750,221.4,90.78
41028,2018-06-29 09:06:14.125000,240.68,90.78
41029,2018-06-29 09:06:14.156250,227.27,90.78
41030,2018-06-29 09:06:14.187500,176.33,90.78
41031,2018-06-29 09:06:14.218750,99.6,90.78
41032,2018-06-29 09:06:14.250000,11.02,90.78
41033,2018-06-29 09:06:14.281250,-83.17,90.78
41034,2018-06-29 09:06:14.312500,-169.93,90.78
41035,2018-06-29 09:06:14.343750,-222.8,90.78
41036,2018-06-29 09:06:14.375000,-228.33,90.78
41037,2018-06-29 09:06:14.406250,-204.55,90.78
41038,2018-06-29 09:06:14.437500,-177.69,90.78
41039,2018-06-29 09:06:14.468750,-155.31,90.78
