,Time,ppg,hr
41600,2018-06-29 09:06:32.000000,-6.64,92.37
41601,2018-06-29 09:06:32.031250,-9.42,92.37
41602,2018-06-29 09:06:32.062500,-12.28,92.37
41603,2018-06-29 09:06:32.093750,-14.8,92.37
41604,2018-06-29 09:06:32.125000,-16.4,92.37
41605,2018-06-29 09:06:32.156250,-15.97,92.37
41606,2018-06-29 09:06:32.187500,-11.71,92.37
41607,2018-06-29 09:06:32.218750,-3.79,92.37
41608,2018-06-29 09:06:32.250000,4.09,92.37
41609,2018-06-29 09:06:32.281250,7.82,92.37
41610,2018-06-29 09:06:32.312500,7.04,92.37
41611,2018-06-29 09:06:32.343750,4.1,92.37
41612,2018-06-29 09:06:32.375000,1.11,92.37
41613,2018-06-29 09:06:32.406250,-0.46,92.37
41614,2018-06-29 09:06:32.437500,0.03,92.37
41615,2018-06-29 09:06:32.468750,1.46,92.37
41616,2018-06-29 09:06:32.500000,2.16,92.37
41617,2018-06-29 09:06:32.531250,1.96,92.57
41618,2018-06-29 09:06:32.562500,1.6,92.57
41619,2018-06-29 09:06:32.593750,1.34,92.57
41620,2018-06-29 09:06:32.625000,1.18,92.57
41621,2018-06-29 09:06:32.656250,0.71,92.57
41622,2018-06-29 09:06:32.687500,-0.93,92.57
41623,2018-06-29 09:06:32.718750,-4.28,92.57
41624,2018-06-29 09:06:32.750000,-8.56,92.57
41625,2018-06-29 09:06:32.781250,-11.01,92.57
41626,2018-06-29 09:06:32.812500,-8.87,92.57
41627,2018-06-29 09:06:32.843750,-2.76,92.57
41628,2018-06-29 09:06:32.875000,3.76,92.57
41629,2018-06-29 09:06:32.906250,8.04,92.57
41630,2018-06-29 09:06:32.937500,9.62,92.57
41631,2018-06-29 09:06:32.968750,8.85,92.57
41632,2018-06-29 09:06:33.000000,6.42,92.57
41633,2018-06-29 09:06:33.031250,3.51,92.57
41634,2018-06-29 09:06:33.062500,1.27,92.57
41635,2018-06-29 09:06:33.093750,0.35,92.57
41636,2018-06-29 09:06:33.125000,0.48,92.57
41637,2018-06-29 09:06:33.156250,0.48,92.57
41638,2018-06-29 09:06:33.187500,-0.66,92.57
41639,2018-06-29 09:06:33.218750,-2.96,92.57
41640,2018-06-29 09:06:33.250000,-5.92,92.57
41641,2018-06-29 09:06:33.281250,-8.89,92.57
41642,2018-06-29 09:06:33.312500,-11.35,92.57
41643,2018-06-29 09:06:33.343750,-12.37,92.57
41644,2018-06-29 09:06:33.375000,-10.12,92.57
41645,2018-06-29 09:06:33.406250,-3.7,92.57
41646,2018-06-29 09:06:33.437500,4.27,92.57
41647,2018-06-29 09:06:33.468750,9.71,92.57
41648,2018-06-29 09:06:33.500000,11.5,92.57
41649,2018-06-29 09:06:33.531250,11.02,92.73
41650,2018-06-29 09:06:33.562500,8.83,92.73
41651,2018-06-29 09:06:33.593750,5.11,92.73
41652,2018-06-29 09:06:33.625000,1.51,92.73
41653,2018-06-29 09:06:33.656250,-0.3,92.73
41654,2018-06-29 09:06:33.687500,-0.78,92.73
41655,2018-06-29 09:06:33.718750,-1.44,92.73
41656,2018-06-29 09:06:33.750000,-2.32,92.73
41657,2018-06-29 09:06:33.781250,-2.28,92.73
41658,2018-06-29 09:06:33.812500,-1.31,92.73
41659,2018-06-29 09:06:33.843750,-0.87,92.73
41660,2018-06-29 09:06:33.875000,-1.74,92.73
41661,2018-06-29 09:06:33.906250,-3.43,92.73
41662,2018-06-29 09:06:33.937500,-5.14,92.73
41663,2018-06-29 09:06:33.968750,-5.1,92.73
41664,2018-06-29 09:06:34.000000,-1.37,92.73
41665,2018-06-29 09:06:34.031250,4.7,92.73
41666,2018-06-29 09:06:34.062500,9.33,92.73
41667,2018-06-29 09:06:34.093750,11.31,92.73
41668,2018-06-29 09:06:34.125000,12.05,92.73
41669,2018-06-29 09:06:34.156250,12.05,92.73
41670,2018-06-29 09:06:34.187500,11.27,92.73
41671,2018-06-29 09:06:34.218750,10.74,92.73
41672,2018-06-29 09:06:34.250000,10.85,92.73
41673,2018-06-29 09:06:34.281250,10.5,92.73
41674,2018-06-29 09:06:34.312500,9.16,92.73
41675,2018-06-29 09:06:34.343750,7.65,92.73
41676,2018-06-29 09:06:34.375000,6.56,92.73
41677,2018-06-29 09:06:34.406250,5.22,92.73
41678,2018-06-29 09:06:34.437500,2.77,92.73
41679,2018-06-29 09:06:34.468750,-0.66,92.73
41680,2018-06-29 09:06:34.500000,-4.18,92.73
41681,2018-06-29 09:06:34.531250,-6.97,92.9
41682,2018-06-29 09:06:34.562500,-9.05,92.9
41683,2018-06-29 09:06:34.593750,-10.74,92.9
41684,2018-06-29 09:06:34.625000,-11.73,92.9
41685,2018-06-29 09:06:34.656250,-11.96,92.9
41686,2018-06-29 09:06:34.687500,-12.49,92.9
41687,2018-06-29 09:06:34.718750,-14.33,92.9
41688,2018-06-29 09:06:34.750000,-17.31,92.9
41689,2018-06-29 09:06:34.781250,-19.8,92.9
41690,2018-06-29 09:06:34.812500,-18.64,92.9
41691,2018-06-29 09:06:34.843750,-11.49,92.9
41692,2018-06-29 09:06:34.875000,-0.73,92.9
41693,2018-06-29 09:06:34.906250,8.15,92.9
41694,2018-06-29 09:06:34.937500,12.41,92.9
41695,2018-06-29 09:06:34.968750,13.41,92.9
41696,2018-06-29 09:06:35.000000,13.13,92.9
41697,2018-06-29 09:06:35.031250,12.25,92.9
41698,2018-06-29 09:06:35.062500,11.22,92.9
41699,2018-06-29 09:06:35.093750,10.79,92.9
41700,2018-06-29 09:06:35.125000,10.78,92.9
41701,2018-06-29 09:06:35.156250,9.82,92.9
41702,2018-06-29 09:06:35.187500,7.5,92.9
41703,2018-06-29 09:06:35.218750,5.41,92.9
41704,2018-06-29 09:06:35.250000,4.19,92.9
41705,2018-06-29 09:06:35.281250,2.09,92.9
41706,2018-06-29 09:06:35.312500,-1.74,92.9
41707,2018-06-29 09:06:35.343750,-5.47,92.9
41708,2018-06-29 09:06:35.375000,-7.33,92.9
41709,2018-06-29 09:06:35.406250,-7.99,92.9
41710,2018-06-29 09:06:35.437500,-9.38,92.9
41711,2018-06-29 09:06:35.468750,-12.04,92.9
41712,2018-06-29 09:06:35.500000,-14.54,92.9
41713,2018-06-29 09:06:35.531250,-15.35,93.05
41714,2018-06-29 09:06:35.562500,-14.59,93.05
41715,2018-06-29 09:06:35.593750,-14.53,93.05
41716,2018-06-29 09:06:35.625000,-18.5,93.05
41717,2018-06-29 09:06:35.656250,-26.15,93.05
41718,2018-06-29 09:06:35.687500,-30.39,93.05
41719,2018-06-29 09:06:35.718750,-25.01,93.05
41720,2018-06-29 09:06:35.750000,-13.1,93.05
41721,2018-06-29 09:06:35.781250,-2.04,93.05
41722,2018-06-29 09:06:35.812500,5.35,93.05
41723,2018-06-29 09:06:35.843750,9.5,93.05
41724,2018-06-29 09:06:35.875000,10.41,93.05
41725,2018-06-29 09:06:35.906250,9.44,93.05
41726,2018-06-29 09:06:35.937500,9.41,93.05
41727,2018-06-29 09:06:35.968750,10.93,93.05
41728,2018-06-29 09:06:36.000000,12.19,93.05
41729,2018-06-29 09:06:36.031250,12.69,93.05
41730,2018-06-29 09:06:36.062500,14.09,93.05
41731,2018-06-29 09:06:36.093750,17.56,93.05
41732,2018-06-29 09:06:36.125000,22.29,93.05
41733,2018-06-29 09:06:36.156250,26.1,93.05
41734,2018-06-29 09:06:36.187500,27.04,93.05
41735,2018-06-29 09:06:36.218750,24.95,93.05
41736,2018-06-29 09:06:36.250000,21.37,93.05
41737,2018-06-29 09:06:36.281250,17.49,93.05
41738,2018-06-29 09:06:36.312500,14.38,93.05
41739,2018-06-29 09:06:36.343750,14.11,93.05
41740,2018-06-29 09:06:36.375000,16.81,93.05
41741,2018-06-29 09:06:36.406250,18.09,93.05
41742,2018-06-29 09:06:36.437500,13.49,93.05
41743,2018-06-29 09:06:36.468750,4.44,93.05
41744,2018-06-29 09:06:36.500000,-2.8,93.05
41745,2018-06-29 09:06:36.531250,-2.8,93.17
41746,2018-06-29 09:06:36.562500,4.42,93.17
41747,2018-06-29 09:06:36.593750,13.59,93.17
41748,2018-06-29 09:06:36.625000,18.59,93.17
41749,2018-06-29 09:06:36.656250,17.17,93.17
41750,2018-06-29 09:06:36.687500,11.72,93.17
41751,2018-06-29 09:06:36.718750,6.09,93.17
41752,2018-06-29 09:06:36.750000,0.76,93.17
41753,2018-06-29 09:06:36.781250,-8.55,93.17
41754,2018-06-29 09:06:36.812500,-25.1,93.17
41755,2018-06-29 09:06:36.843750,-44.95,93.17
41756,2018-06-29 09:06:36.875000,-60.07,93.17
41757,2018-06-29 09:06:36.906250,-65.68,93.17
41758,2018-06-29 09:06:36.937500,-61.37,93.17
41759,2018-06-29 09:06:36.968750,-48.49,93.17
41760,2018-06-29 09:06:37.000000,-30.58,93.17
41761,2018-06-29 09:06:37.031250,-12.86,93.17
41762,2018-06-29 09:06:37.062500,1.74,93.17
41763,2018-06-29 09:06:37.093750,13.19,93.17
41764,2018-06-29 09:06:37.125000,21.42,93.17
41765,2018-06-29 09:06:37.156250,26.38,93.17
41766,2018-06-29 09:06:37.187500,29.65,93.17
41767,2018-06-29 09:06:37.218750,32.42,93.17
41768,2018-06-29 09:06:37.250000,33.56,93.17
41769,2018-06-29 09:06:37.281250,31.13,93.17
41770,2018-06-29 09:06:37.312500,24.64,93.17
41771,2018-06-29 09:06:37.343750,15.49,93.17
41772,2018-06-29 09:06:37.375000,6.37,93.17
41773,2018-06-29 09:06:37.406250,-0.71,93.17
41774,2018-06-29 09:06:37.437500,-6.19,93.17
41775,2018-06-29 09:06:37.468750,-12.02,93.17
41776,2018-06-29 09:06:37.500000,-18.34,93.17
41777,2018-06-29 09:06:37.531250,-22.61,93.3
41778,2018-06-29 09:06:37.562500,-22.74,93.3
41779,2018-06-29 09:06:37.593750,-19.75,93.3
41780,2018-06-29 09:06:37.625000,-15.84,93.3
41781,2018-06-29 09:06:37.656250,-12.2,93.3
41782,2018-06-29 09:06:37.687500,-9.49,93.3
41783,2018-06-29 09:06:37.718750,-8.2,93.3
41784,2018-06-29 09:06:37.750000,-7.98,93.3
41785,2018-06-29 09:06:37.781250,-7.92,93.3
41786,2018-06-29 09:06:37.812500,-7.1,93.3
41787,2018-06-29 09:06:37.843750,-5.37,93.3
41788,2018-06-29 09:06:37.875000,-3.89,93.3
41789,2018-06-29 09:06:37.906250,-3.37,93.3
41790,2018-06-29 09:06:37.937500,-2.82,93.3
41791,2018-06-29 09:06:37.968750,-2.0,93.3
41792,2018-06-29 09:06:38.000000,-2.87,93.3
41793,2018-06-29 09:06:38.031250,-6.71,93.3
41794,2018-06-29 09:06:38.062500,-11.83,93.3
41795,2018-06-29 09:06:38.093750,-14.68,93.3
41796,2018-06-29 09:06:38.125000,-12.03,93.3
41797,2018-06-29 09:06:38.156250,-3.74,93.3
41798,2018-06-29 09:06:38.187500,6.23,93.3
41799,2018-06-29 09:06:38.218750,13.26,93.3
41800,2018-06-29 09:06:38.250000,16.25,93.3
41801,2018-06-29 09:06:38.281250,17.31,93.3
41802,2018-06-29 09:06:38.312500,18.65,93.3
41803,2018-06-29 09:06:38.343750,20.36,93.3
41804,2018-06-29 09:06:38.375000,20.8,93.3
41805,2018-06-29 09:06:38.406250,18.95,93.3
41806,2018-06-29 09:06:38.437500,15.68,93.3
41807,2018-06-29 09:06:38.468750,12.35,93.3
41808,2018-06-29 09:06:38.500000,9.58,93.3
41809,2018-06-29 09:06:38.531250,7.09,93.42
41810,2018-06-29 09:06:38.562500,3.88,93.42
41811,2018-06-29 09:06:38.593750,-0.37,93.42
41812,2018-06-29 09:06:38.625000,-4.29,93.42
41813,2018-06-29 09:06:38.656250,-6.63,93.42
41814,2018-06-29 09:06:38.687500,-8.54,93.42
41815,2018-06-29 09:06:38.718750,-11.82,93.42
41816,2018-06-29 09:06:38.750000,-16.13,93.42
41817,2018-06-29 09:06:38.781250,-18.6,93.42
41818,2018-06-29 09:06:38.812500,-16.18,93.42
41819,2018-06-29 09:06:38.843750,-8.71,93.42
41820,2018-06-29 09:06:38.875000,0.45,93.42
41821,2018-06-29 09:06:38.906250,7.73,93.42
41822,2018-06-29 09:06:38.937500,12.47,93.42
41823,2018-06-29 09:06:38.968750,15.46,93.42
41824,2018-06-29 09:06:39.000000,16.49,93.42
41825,2018-06-29 09:06:39.031250,15.4,93.42
41826,2018-06-29 09:06:39.062500,13.45,93.42
41827,2018-06-29 09:06:39.093750,12.15,93.42
41828,2018-06-29 09:06:39.125000,11.44,93.42
41829,2018-06-29 09:06:39.156250,10.11,93.42
41830,2018-06-29 09:06:39.187500,7.42,93.42
41831,2018-06-29 09:06:39.218750,3.73,93.42
41832,2018-06-29 09:06:39.250000,-0.32,93.42
41833,2018-06-29 09:06:39.281250,-4.36,93.42
41834,2018-06-29 09:06:39.312500,-8.08,93.42
41835,2018-06-29 09:06:39.343750,-11.44,93.42
41836,2018-06-29 09:06:39.375000,-14.4,93.42
41837,2018-06-29 09:06:39.406250,-16.32,93.42
41838,2018-06-29 09:06:39.437500,-16.59,93.42
41839,2018-06-29 09:06:39.468750,-15.92,93.42
41840,2018-06-29 09:06:39.500000,-15.54,93.42
41841,2018-06-29 09:06:39.531250,-16.21,93.52
41842,2018-06-29 09:06:39.562500,-17.56,93.52
41843,2018-06-29 09:06:39.593750,-16.88,93.52
41844,2018-06-29 09:06:39.625000,-11.33,93.52
41845,2018-06-29 09:06:39.656250,-2.52,93.52
41846,2018-06-29 09:06:39.687500,4.54,93.52
41847,2018-06-29 09:06:39.718750,7.39,93.52
41848,2018-06-29 09:06:39.750000,7.12,93.52
41849,2018-06-29 09:06:39.781250,5.13,93.52
41850,2018-06-29 09:06:39.812500,2.74,93.52
41851,2018-06-29 09:06:39.843750,1.68,93.52
41852,2018-06-29 09:06:39.875000,2.3,93.52
41853,2018-06-29 09:06:39.906250,3.23,93.52
41854,2018-06-29 09:06:39.937500,3.95,93.52
41855,2018-06-29 09:06:39.968750,6.0,93.52
41856,2018-06-29 09:06:40.000000,10.2,93.52
41857,2018-06-29 09:06:40.031250,14.14,93.52
41858,2018-06-29 09:06:40.062500,14.97,93.52
41859,2018-06-29 09:06:40.093750,14.7,93.52
41860,2018-06-29 09:06:40.125000,18.59,93.52
41861,2018-06-29 09:06:40.156250,26.7,93.52
41862,2018-06-29 09:06:40.187500,30.89,93.52
41863,2018-06-29 09:06:40.218750,23.61,93.52
41864,2018-06-29 09:06:40.250000,7.41,93.52
41865,2018-06-29 09:06:40.281250,-6.53,93.52
41866,2018-06-29 09:06:40.312500,-8.36,93.52
41867,2018-06-29 09:06:40.343750,2.43,93.52
41868,2018-06-29 09:06:40.375000,19.11,93.52
41869,2018-06-29 09:06:40.406250,36.89,93.52
41870,2018-06-29 09:06:40.437500,54.9,93.52
41871,2018-06-29 09:06:40.468750,70.87,93.52
41872,2018-06-29 09:06:40.500000,83.05,93.52
41873,2018-06-29 09:06:40.531250,95.41,93.67
41874,2018-06-29 09:06:40.562500,112.13,93.67
41875,2018-06-29 09:06:40.593750,129.3,93.67
41876,2018-06-29 09:06:40.625000,138.63,93.67
41877,2018-06-29 09:06:40.656250,135.76,93.67
41878,2018-06-29 09:06:40.687500,122.27,93.67
41879,2018-06-29 09:06:40.718750,102.61,93.67
41880,2018-06-29 09:06:40.750000,80.44,93.67
41881,2018-06-29 09:06:40.781250,58.6,93.67
41882,2018-06-29 09:06:40.812500,40.87,93.67
41883,2018-06-29 09:06:40.843750,30.58,93.67
41884,2018-06-29 09:06:40.875000,27.89,93.67
41885,2018-06-29 09:06:40.906250,28.26,93.67
41886,2018-06-29 09:06:40.937500,23.29,93.67
41887,2018-06-29 09:06:40.968750,7.63,93.67
41888,2018-06-29 09:06:41.000000,-15.03,93.67
41889,2018-06-29 09:06:41.031250,-37.11,93.67
41890,2018-06-29 09:06:41.062500,-55.3,93.67
41891,2018-06-29 09:06:41.093750,-66.99,93.67
41892,2018-06-29 09:06:41.125000,-64.32,93.67
41893,2018-06-29 09:06:41.156250,-40.98,93.67
41894,2018-06-29 09:06:41.187500,-2.7,93.67
41895,2018-06-29 09:06:41.218750,35.0,93.67
41896,2018-06-29 09:06:41.250000,60.46,93.67
41897,2018-06-29 09:06:41.281250,75.09,93.67
41898,2018-06-29 09:06:41.312500,87.7,93.67
41899,2018-06-29 09:06:41.343750,101.57,93.67
41900,2018-06-29 09:06:41.375000,110.92,93.67
41901,2018-06-29 09:06:41.406250,110.47,93.67
41902,2018-06-29 09:06:41.437500,101.45,93.67
41903,2018-06-29 09:06:41.468750,84.17,93.67
41904,2018-06-29 09:06:41.500000,56.97,93.67
41905,2018-06-29 09:06:41.531250,24.08,93.8
41906,2018-06-29 09:06:41.562500,-7.93,93.8
41907,2018-06-29 09:06:41.593750,-37.24,93.8
41908,2018-06-29 09:06:41.625000,-66.63,93.8
41909,2018-06-29 09:06:41.656250,-92.08,93.8
41910,2018-06-29 09:06:41.687500,-107.48,93.8
41911,2018-06-29 09:06:41.718750,-113.92,93.8
41912,2018-06-29 09:06:41.750000,-120.38,93.8
41913,2018-06-29 09:06:41.781250,-131.21,93.8
41914,2018-06-29 09:06:41.812500,-138.38,93.8
41915,2018-06-29 09:06:41.843750,-135.25,93.8
41916,2018-06-29 09:06:41.875000,-124.7,93.8
41917,2018-06-29 09:06:41.906250,-128.28,93.8
41918,2018-06-29 09:06:41.937500,-147.46,93.8
41919,2018-06-29 09:06:41.968750,-171.4,93.8
41920,2018-06-29 09:06:42.000000,-194.02,93.8
41921,2018-06-29 09:06:42.031250,-233.79,93.8
41922,2018-06-29 09:06:42.062500,-298.79,93.8
41923,2018-06-29 09:06:42.093750,-349.89,93.8
41924,2018-06-29 09:06:42.125000,-365.07,93.8
41925,2018-06-29 09:06:42.156250,-348.95,93.8
41926,2018-06-29 09:06:42.187500,-345.94,93.8
41927,2018-06-29 09:06:42.218750,-346.88,93.8
41928,2018-06-29 09:06:42.250000,-349.63,93.8
41929,2018-06-29 09:06:42.281250,-380.72,93.8
41930,2018-06-29 09:06:42.312500,-478.32,93.8
41931,2018-06-29 09:06:42.343750,-630.93,93.8
41932,2018-06-29 09:06:42.375000,-744.71,93.8
41933,2018-06-29 09:06:42.406250,-791.7,93.8
41934,2018-06-29 09:06:42.437500,-542.71,93.8
41935,2018-06-29 09:06:42.468750,14.31,93.8
41936,2018-06-29 09:06:42.500000,445.78,93.8
41937,2018-06-29 09:06:42.531250,650.68,93.93
41938,2018-06-29 09:06:42.562500,729.05,93.93
41939,2018-06-29 09:06:42.593750,714.99,93.93
41940,2018-06-29 09:06:42.625000,625.61,93.93
41941,2018-06-29 09:06:42.656250,535.6,93.93
41942,2018-06-29 09:06:42.687500,474.3,93.93
41943,2018-06-29 09:06:42.718750,429.22,93.93
41944,2018-06-29 09:06:42.750000,360.54,93.93
41945,2018-06-29 09:06:42.781250,293.8,93.93
41946,2018-06-29 09:06:42.812500,252.4,93.93
41947,2018-06-29 09:06:42.843750,223.5,93.93
41948,2018-06-29 09:06:42.875000,183.05,93.93
41949,2018-06-29 09:06:42.906250,124.52,93.93
41950,2018-06-29 09:06:42.937500,78.22,93.93
41951,2018-06-29 09:06:42.968750,54.92,93.93
41952,2018-06-29 09:06:43.000000,47.97,93.93
41953,2018-06-29 09:06:43.031250,38.2,93.93
41954,2018-06-29 09:06:43.062500,26.01,93.93
41955,2018-06-29 09:06:43.093750,18.64,93.93
41956,2018-06-29 09:06:43.125000,11.83,93.93
41957,2018-06-29 09:06:43.156250,-1.5,93.93
41958,2018-06-29 09:06:43.187500,-17.94,93.93
41959,2018-06-29 09:06:43.218750,-22.88,93.93
41960,2018-06-29 09:06:43.250000,-12.87,93.93
41961,2018-06-29 09:06:43.281250,3.15,93.93
41962,2018-06-29 09:06:43.312500,14.76,93.93
41963,2018-06-29 09:06:43.343750,12.79,93.93
41964,2018-06-29 09:06:43.375000,-8.5,93.93
41965,2018-06-29 09:06:43.406250,-46.52,93.93
41966,2018-06-29 09:06:43.437500,-90.69,93.93
41967,2018-06-29 09:06:43.468750,-130.33,93.93
41968,2018-06-29 09:06:43.500000,-158.8,93.93
41969,2018-06-29 09:06:43.531250,-169.53,94.08
41970,2018-06-29 09:06:43.562500,-155.24,94.08
41971,2018-06-29 09:06:43.593750,-117.02,94.08
41972,2018-06-29 09:06:43.625000,-67.79,94.08
41973,2018-06-29 09:06:43.656250,-23.49,94.08
41974,2018-06-29 09:06:43.687500,9.52,94.08
41975,2018-06-29 09:06:43.718750,31.55,94.08
41976,2018-06-29 09:06:43.750000,41.24,94.08
41977,2018-06-29 09:06:43.781250,35.5,94.08
41978,2018-06-29 09:06:43.812500,21.33,94.08
41979,2018-06-29 09:06:43.843750,18.65,94.08
41980,2018-06-29 09:06:43.875000,37.49,94.08
41981,2018-06-29 09:06:43.906250,65.05,94.08
41982,2018-06-29 09:06:43.937500,81.01,94.08
41983,2018-06-29 09:06:43.968750,85.84,94.08
41984,2018-06-29 09:06:44.000000,83.3,94.08
41985,2018-06-29 09:06:44.031250,67.79,94.08
41986,2018-06-29 09:06:44.062500,32.09,94.08
41987,2018-06-29 09:06:44.093750,-15.57,94.08
41988,2018-06-29 09:06:44.125000,-50.86,94.08
41989,2018-06-29 09:06:44.156250,-63.01,94.08
41990,2018-06-29 09:06:44.187500,-59.55,94.08
41991,2018-06-29 09:06:44.218750,-70.36,94.08
41992,2018-06-29 09:06:44.250000,-96.55,94.08
41993,2018-06-29 09:06:44.281250,-125.14,94.08
41994,2018-06-29 09:06:44.312500,-150.21,94.08
41995,2018-06-29 09:06:44.343750,-183.19,94.08
41996,2018-06-29 09:06:44.375000,-229.73,94.08
41997,2018-06-29 09:06:44.406250,-273.97,94.08
41998,2018-06-29 09:06:44.437500,-318.37,94.08
41999,2018-06-29 09:06:44.468750,-266.12,94.08
42000,2018-06-29 09:06:44.500000,-93.81,94.08
42001,2018-06-29 09:06:44.531250,44.46,94.05
42002,2018-06-29 09:06:44.562500,107.47,94.05
42003,2018-06-29 09:06:44.593750,131.43,94.05
42004,2018-06-29 09:06:44.625000,131.4,94.05
42005,2018-06-29 09:06:44.656250,109.68,94.05
42006,2018-06-29 09:06:44.687500,92.85,94.05
42007,2018-06-29 09:06:44.718750,87.81,94.05
42008,2018-06-29 09:06:44.750000,85.35,94.05
42009,2018-06-29 09:06:44.781250,67.88,94.05
42010,2018-06-29 09:06:44.812500,55.58,94.05
42011,2018-06-29 09:06:44.843750,71.07,94.05
42012,2018-06-29 09:06:44.875000,105.14,94.05
42013,2018-06-29 09:06:44.906250,127.32,94.05
42014,2018-06-29 09:06:44.937500,124.71,94.05
42015,2018-06-29 09:06:44.968750,115.87,94.05
42016,2018-06-29 09:06:45.000000,110.75,94.05
42017,2018-06-29 09:06:45.031250,102.16,94.05
42018,2018-06-29 09:06:45.062500,75.47,94.05
42019,2018-06-29 09:06:45.093750,30.04,94.05
42020,2018-06-29 09:06:45.125000,-25.36,94.05
42021,2018-06-29 09:06:45.156250,-78.35,94.05
42022,2018-06-29 09:06:45.187500,-115.55,94.05
42023,2018-06-29 09:06:45.218750,-129.08,94.05
42024,2018-06-29 09:06:45.250000,-120.42,94.05
42025,2018-06-29 09:06:45.281250,-97.0,94.05
42026,2018-06-29 09:06:45.312500,-61.74,94.05
42027,2018-06-29 09:06:45.343750,-14.16,94.05
42028,2018-06-29 09:06:45.375000,39.84,94.05
42029,2018-06-29 09:06:45.406250,86.43,94.05
42030,2018-06-29 09:06:45.437500,114.31,94.05
42031,2018-06-29 09:06:45.468750,122.92,94.05
42032,2018-06-29 09:06:45.500000,118.01,94.05
42033,2018-06-29 09:06:45.531250,102.68,94.0
42034,2018-06-29 09:06:45.562500,77.52,94.0
42035,2018-06-29 09:06:45.593750,45.82,94.0
42036,2018-06-29 09:06:45.625000,12.85,94.0
42037,2018-06-29 09:06:45.656250,-18.54,94.0
42038,2018-06-29 09:06:45.687500,-47.8,94.0
42039,2018-06-29 09:06:45.718750,-73.53,94.0
42040,2018-06-29 09:06:45.750000,-94.58,94.0
42041,2018-06-29 09:06:45.781250,-113.99,94.0
42042,2018-06-29 09:06:45.812500,-135.6,94.0
42043,2018-06-29 09:06:45.843750,-152.51,94.0
42044,2018-06-29 09:06:45.875000,-147.05,94.0
42045,2018-06-29 09:06:45.906250,-112.16,94.0
42046,2018-06-29 09:06:45.937500,-64.82,94.0
42047,2018-06-29 09:06:45.968750,-27.05,94.0
42048,2018-06-29 09:06:46.000000,-2.88,94.0
42049,2018-06-29 09:06:46.031250,14.53,94.0
42050,2018-06-29 09:06:46.062500,26.54,94.0
42051,2018-06-29 09:06:46.093750,34.13,94.0
42052,2018-06-29 09:06:46.125000,47.52,94.0
42053,2018-06-29 09:06:46.156250,78.49,94.0
42054,2018-06-29 09:06:46.187500,128.07,94.0
42055,2018-06-29 09:06:46.218750,181.79,94.0
42056,2018-06-29 09:06:46.250000,214.43,94.0
42057,2018-06-29 09:06:46.281250,208.01,94.0
42058,2018-06-29 09:06:46.312500,168.36,94.0
42059,2018-06-29 09:06:46.343750,115.58,94.0
42060,2018-06-29 09:06:46.375000,63.26,94.0
42061,2018-06-29 09:06:46.406250,18.2,94.0
42062,2018-06-29 09:06:46.437500,-10.56,94.0
42063,2018-06-29 09:06:46.468750,-19.15,94.0
42064,2018-06-29 09:06:46.500000,-16.71,94.0
42065,2018-06-29 09:06:46.531250,-15.76,93.95
42066,2018-06-29 09:06:46.562500,-21.18,93.95
42067,2018-06-29 09:06:46.593750,-29.95,93.95
42068,2018-06-29 09:06:46.625000,-34.18,93.95
42069,2018-06-29 09:06:46.656250,-25.48,93.95
42070,2018-06-29 09:06:46.687500,-2.86,93.95
42071,2018-06-29 09:06:46.718750,25.58,93.95
42072,2018-06-29 09:06:46.750000,49.51,93.95
42073,2018-06-29 09:06:46.781250,61.25,93.95
42074,2018-06-29 09:06:46.812500,58.23,93.95
42075,2018-06-29 09:06:46.843750,45.59,93.95
42076,2018-06-29 09:06:46.875000,32.13,93.95
42077,2018-06-29 09:06:46.906250,21.89,93.95
42078,2018-06-29 09:06:46.937500,14.36,93.95
42079,2018-06-29 09:06:46.968750,9.85,93.95
42080,2018-06-29 09:06:47.000000,8.45,93.95
42081,2018-06-29 09:06:47.031250,7.61,93.95
42082,2018-06-29 09:06:47.062500,2.4,93.95
42083,2018-06-29 09:06:47.093750,-10.39,93.95
42084,2018-06-29 09:06:47.125000,-31.49,93.95
42085,2018-06-29 09:06:47.156250,-57.2,93.95
42086,2018-06-29 09:06:47.187500,-81.3,93.95
42087,2018-06-29 09:06:47.218750,-99.03,93.95
42088,2018-06-29 09:06:47.250000,-111.67,93.95
42089,2018-06-29 09:06:47.281250,-126.77,93.95
42090,2018-06-29 09:06:47.312500,-145.81,93.95
42091,2018-06-29 09:06:47.343750,-157.14,93.95
42092,2018-06-29 09:06:47.375000,-140.75,93.95
42093,2018-06-29 09:06:47.406250,-101.74,93.95
42094,2018-06-29 09:06:47.437500,-61.91,93.95
42095,2018-06-29 09:06:47.468750,-30.96,93.95
42096,2018-06-29 09:06:47.500000,4.58,93.95
42097,2018-06-29 09:06:47.531250,52.22,93.88
42098,2018-06-29 09:06:47.562500,91.43,93.88
42099,2018-06-29 09:06:47.593750,115.36,93.88
42100,2018-06-29 09:06:47.625000,135.04,93.88
42101,2018-06-29 09:06:47.656250,175.05,93.88
42102,2018-06-29 09:06:47.687500,217.74,93.88
42103,2018-06-29 09:06:47.718750,240.36,93.88
42104,2018-06-29 09:06:47.750000,252.06,93.88
42105,2018-06-29 09:06:47.781250,289.49,93.88
42106,2018-06-29 09:06:47.812500,369.75,93.88
42107,2018-06-29 09:06:47.843750,453.8,93.88
42108,2018-06-29 09:06:47.875000,520.17,93.88
42109,2018-06-29 09:06:47.906250,432.52,93.88
42110,2018-06-29 09:06:47.937500,147.84,93.88
42111,2018-06-29 09:06:47.968750,-104.7,93.88
42112,2018-06-29 09:06:48.000000,-241.09,93.88
42113,2018-06-29 09:06:48.031250,-301.23,93.88
42114,2018-06-29 09:06:48.062500,-298.74,93.88
42115,2018-06-29 09:06:48.093750,-237.01,93.88
42116,2018-06-29 09:06:48.125000,-173.09,93.88
42117,2018-06-29 09:06:48.156250,-143.8,93.88
42118,2018-06-29 09:06:48.187500,-142.39,93.88
42119,2018-06-29 09:06:48.218750,-130.6,93.88
42120,2018-06-29 09:06:48.250000,-114.59,93.88
42121,2018-06-29 09:06:48.281250,-114.81,93.88
42122,2018-06-29 09:06:48.312500,-119.13,93.88
42123,2018-06-29 09:06:48.343750,-99.74,93.88
42124,2018-06-29 09:06:48.375000,-53.21,93.88
42125,2018-06-29 09:06:48.406250,-12.57,93.88
42126,2018-06-29 09:06:48.437500,3.94,93.88
42127,2018-06-29 09:06:48.468750,3.84,93.88
42128,2018-06-29 09:06:48.500000,3.18,93.88
42129,2018-06-29 09:06:48.531250,-3.6,93.82
42130,2018-06-29 09:06:48.562500,-23.81,93.82
42131,2018-06-29 09:06:48.593750,-44.86,93.82
42132,2018-06-29 09:06:48.625000,-54.73,93.82
42133,2018-06-29 09:06:48.656250,-58.43,93.82
42134,2018-06-29 09:06:48.687500,-73.33,93.82
42135,2018-06-29 09:06:48.718750,-98.55,93.82
42136,2018-06-29 09:06:48.750000,-113.62,93.82
42137,2018-06-29 09:06:48.781250,-95.61,93.82
42138,2018-06-29 09:06:48.812500,-44.18,93.82
42139,2018-06-29 09:06:48.843750,16.39,93.82
42140,2018-06-29 09:06:48.875000,66.41,93.82
42141,2018-06-29 09:06:48.906250,95.08,93.82
42142,2018-06-29 09:06:48.937500,95.24,93.82
42143,2018-06-29 09:06:48.968750,54.85,93.82
42144,2018-06-29 09:06:49.000000,-14.73,93.82
42145,2018-06-29 09:06:49.031250,-88.28,93.82
42146,2018-06-29 09:06:49.062500,-141.93,93.82
42147,2018-06-29 09:06:49.093750,-129.05,93.82
42148,2018-06-29 09:06:49.125000,-84.82,93.82
42149,2018-06-29 09:06:49.156250,-59.76,93.82
42150,2018-06-29 09:06:49.187500,-57.9,93.82
42151,2018-06-29 09:06:49.218750,-55.04,93.82
42152,2018-06-29 09:06:49.250000,-48.92,93.82
42153,2018-06-29 09:06:49.281250,-39.48,93.82
42154,2018-06-29 09:06:49.312500,-22.94,93.82
42155,2018-06-29 09:06:49.343750,-13.13,93.82
42156,2018-06-29 09:06:49.375000,-21.57,93.82
42157,2018-06-29 09:06:49.406250,-44.49,93.82
42158,2018-06-29 09:06:49.437500,-67.4,93.82
42159,2018-06-29 09:06:49.468750,-84.07,93.82
42160,2018-06-29 09:06:49.500000,-86.5,93.82
42161,2018-06-29 09:06:49.531250,-71.85,93.75
42162,2018-06-29 09:06:49.562500,-44.92,93.75
42163,2018-06-29 09:06:49.593750,-16.26,93.75
42164,2018-06-29 09:06:49.625000,10.46,93.75
42165,2018-06-29 09:06:49.656250,34.79,93.75
42166,2018-06-29 09:06:49.687500,51.28,93.75
42167,2018-06-29 09:06:49.718750,58.12,93.75
42168,2018-06-29 09:06:49.750000,59.59,93.75
42169,2018-06-29 09:06:49.781250,60.31,93.75
42170,2018-06-29 09:06:49.812500,58.82,93.75
42171,2018-06-29 09:06:49.843750,54.79,93.75
42172,2018-06-29 09:06:49.875000,50.94,93.75
42173,2018-06-29 09:06:49.906250,48.41,93.75
42174,2018-06-29 09:06:49.937500,45.53,93.75
42175,2018-06-29 09:06:49.968750,40.9,93.75
42176,2018-06-29 09:06:50.000000,33.82,93.75
42177,2018-06-29 09:06:50.031250,23.61,93.75
42178,2018-06-29 09:06:50.062500,11.18,93.75
42179,2018-06-29 09:06:50.093750,-1.72,93.75
42180,2018-06-29 09:06:50.125000,-15.94,93.75
42181,2018-06-29 09:06:50.156250,-34.16,93.75
42182,2018-06-29 09:06:50.187500,-56.74,93.75
42183,2018-06-29 09:06:50.218750,-80.44,93.75
42184,2018-06-29 09:06:50.250000,-97.48,93.75
42185,2018-06-29 09:06:50.281250,-95.67,93.75
42186,2018-06-29 09:06:50.312500,-69.14,93.75
42187,2018-06-29 09:06:50.343750,-29.39,93.75
42188,2018-06-29 09:06:50.375000,4.96,93.75
42189,2018-06-29 09:06:50.406250,26.89,93.75
42190,2018-06-29 09:06:50.437500,39.87,93.75
42191,2018-06-29 09:06:50.468750,46.78,93.75
42192,2018-06-29 09:06:50.500000,49.99,93.75
42193,2018-06-29 09:06:50.531250,54.01,93.63
42194,2018-06-29 09:06:50.562500,59.76,93.63
42195,2018-06-29 09:06:50.593750,62.43,93.63
42196,2018-06-29 09:06:50.625000,58.71,93.63
42197,2018-06-29 09:06:50.656250,51.53,93.63
42198,2018-06-29 09:06:50.687500,45.71,93.63
42199,2018-06-29 09:06:50.718750,41.74,93.63
42200,2018-06-29 09:06:50.750000,35.39,93.63
42201,2018-06-29 09:06:50.781250,23.76,93.63
42202,2018-06-29 09:06:50.812500,8.91,93.63
42203,2018-06-29 09:06:50.843750,-5.81,93.63
42204,2018-06-29 09:06:50.875000,-19.65,93.63
42205,2018-06-29 09:06:50.906250,-33.64,93.63
42206,2018-06-29 09:06:50.937500,-48.94,93.63
42207,2018-06-29 09:06:50.968750,-64.08,93.63
42208,2018-06-29 09:06:51.000000,-71.41,93.63
42209,2018-06-29 09:06:51.031250,-62.53,93.63
42210,2018-06-29 09:06:51.062500,-40.08,93.63
42211,2018-06-29 09:06:51.093750,-16.32,93.63
42212,2018-06-29 09:06:51.125000,0.69,93.63
42213,2018-06-29 09:06:51.156250,11.06,93.63
42214,2018-06-29 09:06:51.187500,16.13,93.63
42215,2018-06-29 09:06:51.218750,17.04,93.63
42216,2018-06-29 09:06:51.250000,18.21,93.63
42217,2018-06-29 09:06:51.281250,24.39,93.63
42218,2018-06-29 09:06:51.312500,36.26,93.63
42219,2018-06-29 09:06:51.343750,52.44,93.63
42220,2018-06-29 09:06:51.375000,71.9,93.63
42221,2018-06-29 09:06:51.406250,91.72,93.63
42222,2018-06-29 09:06:51.437500,108.58,93.63
42223,2018-06-29 09:06:51.468750,125.51,93.63
42224,2018-06-29 09:06:51.500000,148.99,93.63
42225,2018-06-29 09:06:51.531250,174.7,93.5
42226,2018-06-29 09:06:51.562500,184.09,93.5
42227,2018-06-29 09:06:51.593750,159.95,93.5
42228,2018-06-29 09:06:51.625000,100.92,93.5
42229,2018-06-29 09:06:51.656250,23.88,93.5
42230,2018-06-29 09:06:51.687500,-42.98,93.5
42231,2018-06-29 09:06:51.718750,-78.73,93.5
42232,2018-06-29 09:06:51.750000,-87.08,93.5
42233,2018-06-29 09:06:51.781250,-87.44,93.5
42234,2018-06-29 09:06:51.812500,-90.55,93.5
42235,2018-06-29 09:06:51.843750,-93.21,93.5
42236,2018-06-29 09:06:51.875000,-91.2,93.5
42237,2018-06-29 09:06:51.906250,-84.49,93.5
42238,2018-06-29 09:06:51.937500,-73.68,93.5
42239,2018-06-29 09:06:51.968750,-60.88,93.5
42240,2018-06-29 09:06:52.000000,-51.04,93.5
42241,2018-06-29 09:06:52.031250,-46.06,93.5
42242,2018-06-29 09:06:52.062500,-41.27,93.5
42243,2018-06-29 09:06:52.093750,-32.68,93.5
42244,2018-06-29 09:06:52.125000,-23.44,93.5
42245,2018-06-29 09:06:52.156250,-19.09,93.5
42246,2018-06-29 09:06:52.187500,-20.12,93.5
42247,2018-06-29 09:06:52.218750,-22.55,93.5
42248,2018-06-29 09:06:52.250000,-24.48,93.5
42249,2018-06-29 09:06:52.281250,-28.78,93.5
42250,2018-06-29 09:06:52.312500,-38.51,93.5
42251,2018-06-29 09:06:52.343750,-51.24,93.5
42252,2018-06-29 09:06:52.375000,-58.8,93.5
42253,2018-06-29 09:06:52.406250,-53.59,93.5
42254,2018-06-29 09:06:52.437500,-36.3,93.5
42255,2018-06-29 09:06:52.468750,-15.07,93.5
42256,2018-06-29 09:06:52.500000,3.52,93.5
42257,2018-06-29 09:06:52.531250,17.9,93.33
42258,2018-06-29 09:06:52.562500,26.82,93.33
42259,2018-06-29 09:06:52.593750,28.68,93.33
42260,2018-06-29 09:06:52.625000,26.23,93.33
42261,2018-06-29 09:06:52.656250,25.61,93.33
42262,2018-06-29 09:06:52.687500,29.76,93.33
42263,2018-06-29 09:06:52.718750,37.05,93.33
42264,2018-06-29 09:06:52.750000,46.15,93.33
42265,2018-06-29 09:06:52.781250,57.88,93.33
42266,2018-06-29 09:06:52.812500,71.06,93.33
42267,2018-06-29 09:06:52.843750,81.19,93.33
42268,2018-06-29 09:06:52.875000,85.86,93.33
42269,2018-06-29 09:06:52.906250,87.13,93.33
42270,2018-06-29 09:06:52.937500,86.21,93.33
42271,2018-06-29 09:06:52.968750,80.42,93.33
42272,2018-06-29 09:06:53.000000,66.02,93.33
42273,2018-06-29 09:06:53.031250,40.92,93.33
42274,2018-06-29 09:06:53.062500,8.38,93.33
42275,2018-06-29 09:06:53.093750,-18.66,93.33
42276,2018-06-29 09:06:53.125000,-25.73,93.33
42277,2018-06-29 09:06:53.156250,-13.31,93.33
42278,2018-06-29 09:06:53.187500,3.99,93.33
42279,2018-06-29 09:06:53.218750,13.62,93.33
42280,2018-06-29 09:06:53.250000,11.07,93.33
42281,2018-06-29 09:06:53.281250,-4.16,93.33
42282,2018-06-29 09:06:53.312500,-26.7,93.33
42283,2018-06-29 09:06:53.343750,-43.87,93.33
42284,2018-06-29 09:06:53.375000,-45.37,93.33
42285,2018-06-29 09:06:53.406250,-33.0,93.33
42286,2018-06-29 09:06:53.437500,-17.47,93.33
42287,2018-06-29 09:06:53.468750,-7.25,93.33
42288,2018-06-29 09:06:53.500000,-3.0,93.33
42289,2018-06-29 09:06:53.531250,-2.08,93.18
42290,2018-06-29 09:06:53.562500,-3.93,93.18
42291,2018-06-29 09:06:53.593750,-7.95,93.18
42292,2018-06-29 09:06:53.625000,-11.01,93.18
42293,2018-06-29 09:06:53.656250,-11.6,93.18
42294,2018-06-29 09:06:53.687500,-12.41,93.18
42295,2018-06-29 09:06:53.718750,-16.04,93.18
42296,2018-06-29 09:06:53.750000,-22.21,93.18
42297,2018-06-29 09:06:53.781250,-29.13,93.18
42298,2018-06-29 09:06:53.812500,-32.87,93.18
42299,2018-06-29 09:06:53.843750,-27.89,93.18
42300,2018-06-29 09:06:53.875000,-13.39,93.18
42301,2018-06-29 09:06:53.906250,4.02,93.18
42302,2018-06-29 09:06:53.937500,17.28,93.18
42303,2018-06-29 09:06:53.968750,24.5,93.18
42304,2018-06-29 09:06:54.000000,26.58,93.18
42305,2018-06-29 09:06:54.031250,24.97,93.18
42306,2018-06-29 09:06:54.062500,22.37,93.18
42307,2018-06-29 09:06:54.093750,21.46,93.18
42308,2018-06-29 09:06:54.125000,22.16,93.18
42309,2018-06-29 09:06:54.156250,22.11,93.18
42310,2018-06-29 09:06:54.187500,20.06,93.18
42311,2018-06-29 09:06:54.218750,17.35,93.18
42312,2018-06-29 09:06:54.250000,15.57,93.18
42313,2018-06-29 09:06:54.281250,13.96,93.18
42314,2018-06-29 09:06:54.312500,10.96,93.18
42315,2018-06-29 09:06:54.343750,6.63,93.18
42316,2018-06-29 09:06:54.375000,1.92,93.18
42317,2018-06-29 09:06:54.406250,-2.75,93.18
42318,2018-06-29 09:06:54.437500,-6.99,93.18
42319,2018-06-29 09:06:54.468750,-10.21,93.18
42320,2018-06-29 09:06:54.500000,-13.06,93.18
42321,2018-06-29 09:06:54.531250,-17.41,93.02
42322,2018-06-29 09:06:54.562500,-22.7,93.02
42323,2018-06-29 09:06:54.593750,-23.95,93.02
42324,2018-06-29 09:06:54.625000,-16.75,93.02
42325,2018-06-29 09:06:54.656250,-3.34,93.02
42326,2018-06-29 09:06:54.687500,9.74,93.02
42327,2018-06-29 09:06:54.718750,18.16,93.02
42328,2018-06-29 09:06:54.750000,21.17,93.02
42329,2018-06-29 09:06:54.781250,19.83,93.02
42330,2018-06-29 09:06:54.812500,16.64,93.02
42331,2018-06-29 09:06:54.843750,14.41,93.02
42332,2018-06-29 09:06:54.875000,14.15,93.02
42333,2018-06-29 09:06:54.906250,14.67,93.02
42334,2018-06-29 09:06:54.937500,14.16,93.02
42335,2018-06-29 09:06:54.968750,12.06,93.02
42336,2018-06-29 09:06:55.000000,9.53,93.02
42337,2018-06-29 09:06:55.031250,7.85,93.02
42338,2018-06-29 09:06:55.062500,6.54,93.02
42339,2018-06-29 09:06:55.093750,4.12,93.02
42340,2018-06-29 09:06:55.125000,0.62,93.02
42341,2018-06-29 09:06:55.156250,-2.64,93.02
42342,2018-06-29 09:06:55.187500,-5.89,93.02
42343,2018-06-29 09:06:55.218750,-10.82,93.02
42344,2018-06-29 09:06:55.250000,-17.76,93.02
42345,2018-06-29 09:06:55.281250,-25.23,93.02
42346,2018-06-29 09:06:55.312500,-30.26,93.02
42347,2018-06-29 09:06:55.343750,-28.32,93.02
42348,2018-06-29 09:06:55.375000,-17.68,93.02
42349,2018-06-29 09:06:55.406250,-3.77,93.02
42350,2018-06-29 09:06:55.437500,6.16,93.02
42351,2018-06-29 09:06:55.468750,10.73,93.02
42352,2018-06-29 09:06:55.500000,12.57,93.02
42353,2018-06-29 09:06:55.531250,13.05,92.82
42354,2018-06-29 09:06:55.562500,12.5,92.82
42355,2018-06-29 09:06:55.593750,11.96,92.82
42356,2018-06-29 09:06:55.625000,12.06,92.82
42357,2018-06-29 09:06:55.656250,12.2,92.82
42358,2018-06-29 09:06:55.687500,11.54,92.82
42359,2018-06-29 09:06:55.718750,10.24,92.82
42360,2018-06-29 09:06:55.750000,9.1,92.82
42361,2018-06-29 09:06:55.781250,8.32,92.82
42362,2018-06-29 09:06:55.812500,7.04,92.82
42363,2018-06-29 09:06:55.843750,4.53,92.82
42364,2018-06-29 09:06:55.875000,1.16,92.82
42365,2018-06-29 09:06:55.906250,-2.3,92.82
42366,2018-06-29 09:06:55.937500,-5.44,92.82
42367,2018-06-29 09:06:55.968750,-8.47,92.82
42368,2018-06-29 09:06:56.000000,-12.2,92.82
42369,2018-06-29 09:06:56.031250,-17.29,92.82
42370,2018-06-29 09:06:56.062500,-22.26,92.82
42371,2018-06-29 09:06:56.093750,-22.91,92.82
42372,2018-06-29 09:06:56.125000,-16.39,92.82
42373,2018-06-29 09:06:56.156250,-5.58,92.82
42374,2018-06-29 09:06:56.187500,3.69,92.82
42375,2018-06-29 09:06:56.218750,8.74,92.82
42376,2018-06-29 09:06:56.250000,10.55,92.82
42377,2018-06-29 09:06:56.281250,10.32,92.82
42378,2018-06-29 09:06:56.312500,9.15,92.82
42379,2018-06-29 09:06:56.343750,9.08,92.82
42380,2018-06-29 09:06:56.375000,10.8,92.82
42381,2018-06-29 09:06:56.406250,12.17,92.82
42382,2018-06-29 09:06:56.437500,11.18,92.82
42383,2018-06-29 09:06:56.468750,8.69,92.82
42384,2018-06-29 09:06:56.500000,6.76,92.82
42385,2018-06-29 09:06:56.531250,5.7,92.63
42386,2018-06-29 09:06:56.562500,4.04,92.63
42387,2018-06-29 09:06:56.593750,0.75,92.63
42388,2018-06-29 09:06:56.625000,-3.15,92.63
42389,2018-06-29 09:06:56.656250,-5.97,92.63
42390,2018-06-29 09:06:56.687500,-7.82,92.63
42391,2018-06-29 09:06:56.718750,-10.29,92.63
42392,2018-06-29 09:06:56.750000,-14.22,92.63
42393,2018-06-29 09:06:56.781250,-19.25,92.63
42394,2018-06-29 09:06:56.812500,-23.32,92.63
42395,2018-06-29 09:06:56.843750,-22.26,92.63
42396,2018-06-29 09:06:56.875000,-13.94,92.63
42397,2018-06-29 09:06:56.906250,-2.56,92.63
42398,2018-06-29 09:06:56.937500,5.63,92.63
42399,2018-06-29 09:06:56.968750,9.17,92.63
42400,2018-06-29 09:06:57.000000,10.17,92.63
42401,2018-06-29 09:06:57.031250,9.91,92.63
42402,2018-06-29 09:06:57.062500,9.1,92.63
42403,2018-06-29 09:06:57.093750,8.95,92.63
42404,2018-06-29 09:06:57.125000,9.79,92.63
42405,2018-06-29 09:06:57.156250,10.64,92.63
42406,2018-06-29 09:06:57.187500,10.74,92.63
42407,2018-06-29 09:06:57.218750,9.99,92.63
42408,2018-06-29 09:06:57.250000,8.53,92.63
42409,2018-06-29 09:06:57.281250,6.69,92.63
42410,2018-06-29 09:06:57.312500,4.8,92.63
42411,2018-06-29 09:06:57.343750,2.76,92.63
42412,2018-06-29 09:06:57.375000,0.2,92.63
42413,2018-06-29 09:06:57.406250,-2.91,92.63
42414,2018-06-29 09:06:57.437500,-5.97,92.63
42415,2018-06-29 09:06:57.468750,-8.26,92.63
42416,2018-06-29 09:06:57.500000,-9.64,92.63
42417,2018-06-29 09:06:57.531250,-11.28,92.48
42418,2018-06-29 09:06:57.562500,-14.81,92.48
42419,2018-06-29 09:06:57.593750,-19.12,92.48
42420,2018-06-29 09:06:57.625000,-19.48,92.48
42421,2018-06-29 09:06:57.656250,-13.07,92.48
42422,2018-06-29 09:06:57.687500,-3.22,92.48
42423,2018-06-29 09:06:57.718750,4.74,92.48
42424,2018-06-29 09:06:57.750000,8.92,92.48
42425,2018-06-29 09:06:57.781250,10.14,92.48
42426,2018-06-29 09:06:57.812500,9.59,92.48
42427,2018-06-29 09:06:57.843750,8.58,92.48
42428,2018-06-29 09:06:57.875000,8.35,92.48
42429,2018-06-29 09:06:57.906250,9.2,92.48
42430,2018-06-29 09:06:57.937500,10.12,92.48
42431,2018-06-29 09:06:57.968750,10.05,92.48
42432,2018-06-29 09:06:58.000000,9.31,92.48
42433,2018-06-29 09:06:58.031250,8.9,92.48
42434,2018-06-29 09:06:58.062500,8.68,92.48
42435,2018-06-29 09:06:58.093750,7.71,92.48
42436,2018-06-29 09:06:58.125000,5.73,92.48
42437,2018-06-29 09:06:58.156250,3.38,92.48
42438,2018-06-29 09:06:58.187500,1.14,92.48
42439,2018-06-29 09:06:58.218750,-1.13,92.48
42440,2018-06-29 09:06:58.250000,-3.83,92.48
42441,2018-06-29 09:06:58.281250,-6.67,92.48
42442,2018-06-29 09:06:58.312500,-8.84,92.48
42443,2018-06-29 09:06:58.343750,-10.07,92.48
42444,2018-06-29 09:06:58.375000,-11.28,92.48
42445,2018-06-29 09:06:58.406250,-13.83,92.48
42446,2018-06-29 09:06:58.437500,-18.09,92.48
42447,2018-06-29 09:06:58.468750,-21.6,92.48
42448,2018-06-29 09:06:58.500000,-19.84,92.48
42449,2018-06-29 09:06:58.531250,-11.7,92.35
42450,2018-06-29 09:06:58.562500,-2.11,92.35
42451,2018-06-29 09:06:58.593750,3.93,92.35
42452,2018-06-29 09:06:58.625000,6.72,92.35
42453,2018-06-29 09:06:58.656250,8.23,92.35
42454,2018-06-29 09:06:58.687500,8.33,92.35
42455,2018-06-29 09:06:58.718750,7.43,92.35
42456,2018-06-29 09:06:58.750000,7.69,92.35
42457,2018-06-29 09:06:58.781250,9.51,92.35
42458,2018-06-29 09:06:58.812500,10.67,92.35
42459,2018-06-29 09:06:58.843750,10.01,92.35
42460,2018-06-29 09:06:58.875000,8.81,92.35
42461,2018-06-29 09:06:58.906250,8.06,92.35
42462,2018-06-29 09:06:58.937500,7.25,92.35
42463,2018-06-29 09:06:58.968750,5.93,92.35
42464,2018-06-29 09:06:59.000000,4.28,92.35
42465,2018-06-29 09:06:59.031250,2.37,92.35
42466,2018-06-29 09:06:59.062500,0.62,92.35
42467,2018-06-29 09:06:59.093750,-0.27,92.35
42468,2018-06-29 09:06:59.125000,-0.81,92.35
42469,2018-06-29 09:06:59.156250,-2.27,92.35
42470,2018-06-29 09:06:59.187500,-4.57,92.35
42471,2018-06-29 09:06:59.218750,-6.41,92.35
42472,2018-06-29 09:06:59.250000,-7.44,92.35
42473,2018-06-29 09:06:59.281250,-8.67,92.35
42474,2018-06-29 09:06:59.312500,-11.05,92.35
42475,2018-06-29 09:06:59.343750,-14.29,92.35
42476,2018-06-29 09:06:59.375000,-16.46,92.35
42477,2018-06-29 09:06:59.406250,-14.72,92.35
42478,2018-06-29 09:06:59.437500,-8.24,92.35
42479,2018-06-29 09:06:59.468750,-0.21,92.35
42480,2018-06-29 09:06:59.500000,5.15,92.35
42481,2018-06-29 09:06:59.531250,7.24,92.22
42482,2018-06-29 09:06:59.562500,7.75,92.22
42483,2018-06-29 09:06:59.593750,6.98,92.22
42484,2018-06-29 09:06:59.625000,5.23,92.22
42485,2018-06-29 09:06:59.656250,4.55,92.22
42486,2018-06-29 09:06:59.687500,5.55,92.22
42487,2018-06-29 09:06:59.718750,6.13,92.22
42488,2018-06-29 09:06:59.750000,5.36,92.22
42489,2018-06-29 09:06:59.781250,4.51,92.22
42490,2018-06-29 09:06:59.812500,3.9,92.22
42491,2018-06-29 09:06:59.843750,2.65,92.22
42492,2018-06-29 09:06:59.875000,1.01,92.22
42493,2018-06-29 09:06:59.906250,-0.03,92.22
42494,2018-06-29 09:06:59.937500,-0.73,92.22
42495,2018-06-29 09:06:59.968750,-2.2,92.22
42496,2018-06-29 09:07:00.000000,-4.56,92.22
42497,2018-06-29 09:07:00.031250,-6.62,92.22
42498,2018-06-29 09:07:00.062500,-7.6,92.22
42499,2018-06-29 09:07:00.093750,-8.04,92.22
42500,2018-06-29 09:07:00.125000,-8.98,92.22
42501,2018-06-29 09:07:00.156250,-10.96,92.22
42502,2018-06-29 09:07:00.187500,-13.7,92.22
42503,2018-06-29 09:07:00.218750,-15.41,92.22
42504,2018-06-29 09:07:00.250000,-13.03,92.22
42505,2018-06-29 09:07:00.281250,-5.91,92.22
42506,2018-06-29 09:07:00.312500,2.01,92.22
42507,2018-06-29 09:07:00.343750,6.21,92.22
42508,2018-06-29 09:07:00.375000,6.31,92.22
42509,2018-06-29 09:07:00.406250,4.75,92.22
42510,2018-06-29 09:07:00.437500,3.27,92.22
42511,2018-06-29 09:07:00.468750,2.89,92.22
42512,2018-06-29 09:07:00.500000,4.31,92.22
42513,2018-06-29 09:07:00.531250,6.54,92.15
42514,2018-06-29 09:07:00.562500,7.22,92.15
42515,2018-06-29 09:07:00.593750,5.49,92.15
42516,2018-06-29 09:07:00.625000,2.91,92.15
42517,2018-06-29 09:07:00.656250,1.08,92.15
42518,2018-06-29 09:07:00.687500,0.25,92.15
42519,2018-06-29 09:07:00.718750,-0.05,92.15
42520,2018-06-29 09:07:00.750000,-0.65,92.15
42521,2018-06-29 09:07:00.781250,-2.04,92.15
42522,2018-06-29 09:07:00.812500,-3.66,92.15
42523,2018-06-29 09:07:00.843750,-5.0,92.15
42524,2018-06-29 09:07:00.875000,-6.55,92.15
42525,2018-06-29 09:07:00.906250,-8.53,92.15
42526,2018-06-29 09:07:00.937500,-10.46,92.15
42527,2018-06-29 09:07:00.968750,-11.88,92.15
42528,2018-06-29 09:07:01.000000,-11.31,92.15
42529,2018-06-29 09:07:01.031250,-7.02,92.15
42530,2018-06-29 09:07:01.062500,-0.55,92.15
42531,2018-06-29 09:07:01.093750,4.2,92.15
42532,2018-06-29 09:07:01.125000,5.96,92.15
42533,2018-06-29 09:07:01.156250,6.05,92.15
42534,2018-06-29 09:07:01.187500,5.13,92.15
42535,2018-06-29 09:07:01.218750,3.85,92.15
42536,2018-06-29 09:07:01.250000,3.96,92.15
42537,2018-06-29 09:07:01.281250,5.76,92.15
42538,2018-06-29 09:07:01.312500,7.13,92.15
42539,2018-06-29 09:07:01.343750,6.45,92.15
42540,2018-06-29 09:07:01.375000,4.3,92.15
42541,2018-06-29 09:07:01.406250,2.12,92.15
42542,2018-06-29 09:07:01.437500,0.46,92.15
42543,2018-06-29 09:07:01.468750,-0.73,92.15
42544,2018-06-29 09:07:01.500000,-1.13,92.15
42545,2018-06-29 09:07:01.531250,-0.96,91.97
42546,2018-06-29 09:07:01.562500,-1.65,91.97
42547,2018-06-29 09:07:01.593750,-3.88,91.97
42548,2018-06-29 09:07:01.625000,-6.43,91.97
42549,2018-06-29 09:07:01.656250,-8.38,91.97
42550,2018-06-29 09:07:01.687500,-9.71,91.97
42551,2018-06-29 09:07:01.718750,-9.16,91.97
42552,2018-06-29 09:07:01.750000,-4.95,91.97
42553,2018-06-29 09:07:01.781250,1.42,91.97
42554,2018-06-29 09:07:01.812500,5.92,91.97
42555,2018-06-29 09:07:01.843750,6.74,91.97
42556,2018-06-29 09:07:01.875000,5.36,91.97
42557,2018-06-29 09:07:01.906250,3.73,91.97
42558,2018-06-29 09:07:01.937500,3.01,91.97
42559,2018-06-29 09:07:01.968750,3.38,91.97
42560,2018-06-29 09:07:02.000000,3.44,91.97
42561,2018-06-29 09:07:02.031250,1.88,91.97
42562,2018-06-29 09:07:02.062500,0.09,91.97
42563,2018-06-29 09:07:02.093750,0.65,91.97
42564,2018-06-29 09:07:02.125000,3.5,91.97
42565,2018-06-29 09:07:02.156250,6.08,91.97
42566,2018-06-29 09:07:02.187500,6.76,91.97
42567,2018-06-29 09:07:02.218750,6.51,91.97
42568,2018-06-29 09:07:02.250000,7.24,91.97
42569,2018-06-29 09:07:02.281250,9.41,91.97
42570,2018-06-29 09:07:02.312500,11.64,91.97
42571,2018-06-29 09:07:02.343750,13.05,91.97
42572,2018-06-29 09:07:02.375000,15.54,91.97
42573,2018-06-29 09:07:02.406250,21.4,91.97
42574,2018-06-29 09:07:02.437500,28.24,91.97
42575,2018-06-29 09:07:02.468750,30.09,91.97
42576,2018-06-29 09:07:02.500000,24.0,91.97
42577,2018-06-29 09:07:02.531250,11.76,91.9
42578,2018-06-29 09:07:02.562500,-3.72,91.9
42579,2018-06-29 09:07:02.593750,-19.29,91.9
42580,2018-06-29 09:07:02.625000,-30.54,91.9
42581,2018-06-29 09:07:02.656250,-34.47,91.9
42582,2018-06-29 09:07:02.687500,-32.06,91.9
42583,2018-06-29 09:07:02.718750,-26.57,91.9
42584,2018-06-29 09:07:02.750000,-20.7,91.9
42585,2018-06-29 09:07:02.781250,-15.71,91.9
42586,2018-06-29 09:07:02.812500,-12.18,91.9
42587,2018-06-29 09:07:02.843750,-10.32,91.9
42588,2018-06-29 09:07:02.875000,-9.41,91.9
42589,2018-06-29 09:07:02.906250,-7.68,91.9
42590,2018-06-29 09:07:02.937500,-3.93,91.9
42591,2018-06-29 09:07:02.968750,0.69,91.9
42592,2018-06-29 09:07:03.000000,3.6,91.9
42593,2018-06-29 09:07:03.031250,3.51,91.9
42594,2018-06-29 09:07:03.062500,1.0,91.9
42595,2018-06-29 09:07:03.093750,-3.04,91.9
42596,2018-06-29 09:07:03.125000,-7.64,91.9
42597,2018-06-29 09:07:03.156250,-11.37,91.9
42598,2018-06-29 09:07:03.187500,-13.49,91.9
42599,2018-06-29 09:07:03.218750,-14.15,91.9
42600,2018-06-29 09:07:03.250000,-12.73,91.9
42601,2018-06-29 09:07:03.281250,-8.77,91.9
42602,2018-06-29 09:07:03.312500,-4.06,91.9
42603,2018-06-29 09:07:03.343750,-0.79,91.9
42604,2018-06-29 09:07:03.375000,1.33,91.9
42605,2018-06-29 09:07:03.406250,3.15,91.9
42606,2018-06-29 09:07:03.437500,3.79,91.9
42607,2018-06-29 09:07:03.468750,2.76,91.9
42608,2018-06-29 09:07:03.500000,1.59,91.9
42609,2018-06-29 09:07:03.531250,1.41,91.88
42610,2018-06-29 09:07:03.562500,1.53,91.88
42611,2018-06-29 09:07:03.593750,1.31,91.88
42612,2018-06-29 09:07:03.625000,1.33,91.88
42613,2018-06-29 09:07:03.656250,2.03,91.88
42614,2018-06-29 09:07:03.687500,2.73,91.88
42615,2018-06-29 09:07:03.718750,2.65,91.88
42616,2018-06-29 09:07:03.750000,2.07,91.88
42617,2018-06-29 09:07:03.781250,1.73,91.88
42618,2018-06-29 09:07:03.812500,1.54,91.88
42619,2018-06-29 09:07:03.843750,0.66,91.88
42620,2018-06-29 09:07:03.875000,-0.77,91.88
42621,2018-06-29 09:07:03.906250,-1.49,91.88
42622,2018-06-29 09:07:03.937500,-1.26,91.88
42623,2018-06-29 09:07:03.968750,-1.82,91.88
42624,2018-06-29 09:07:04.000000,-4.36,91.88
42625,2018-06-29 09:07:04.031250,-8.05,91.88
42626,2018-06-29 09:07:04.062500,-11.03,91.88
42627,2018-06-29 09:07:04.093750,-11.1,91.88
42628,2018-06-29 09:07:04.125000,-6.88,91.88
42629,2018-06-29 09:07:04.156250,-0.16,91.88
42630,2018-06-29 09:07:04.187500,5.67,91.88
42631,2018-06-29 09:07:04.218750,9.69,91.88
42632,2018-06-29 09:07:04.250000,12.99,91.88
42633,2018-06-29 09:07:04.281250,15.19,91.88
42634,2018-06-29 09:07:04.312500,14.76,91.88
42635,2018-06-29 09:07:04.343750,11.72,91.88
42636,2018-06-29 09:07:04.375000,7.51,91.88
42637,2018-06-29 09:07:04.406250,2.64,91.88
42638,2018-06-29 09:07:04.437500,-3.49,91.88
42639,2018-06-29 09:07:04.468750,-9.94,91.88
42640,2018-06-29 09:07:04.500000,-13.73,91.88
42641,2018-06-29 09:07:04.531250,-13.18,91.88
42642,2018-06-29 09:07:04.562500,-9.88,91.88
42643,2018-06-29 09:07:04.593750,-6.55,91.88
42644,2018-06-29 09:07:04.625000,-4.77,91.88
42645,2018-06-29 09:07:04.656250,-4.72,91.88
42646,2018-06-29 09:07:04.687500,-5.46,91.88
42647,2018-06-29 09:07:04.718750,-5.84,91.88
42648,2018-06-29 09:07:04.750000,-5.77,91.88
42649,2018-06-29 09:07:04.781250,-5.98,91.88
42650,2018-06-29 09:07:04.812500,-7.1,91.88
42651,2018-06-29 09:07:04.843750,-9.17,91.88
42652,2018-06-29 09:07:04.875000,-10.85,91.88
42653,2018-06-29 09:07:04.906250,-10.06,91.88
42654,2018-06-29 09:07:04.937500,-6.51,91.88
42655,2018-06-29 09:07:04.968750,-2.24,91.88
42656,2018-06-29 09:07:05.000000,1.0,91.88
42657,2018-06-29 09:07:05.031250,3.31,91.88
42658,2018-06-29 09:07:05.062500,5.25,91.88
42659,2018-06-29 09:07:05.093750,6.52,91.88
42660,2018-06-29 09:07:05.125000,6.73,91.88
42661,2018-06-29 09:07:05.156250,6.65,91.88
42662,2018-06-29 09:07:05.187500,7.56,91.88
42663,2018-06-29 09:07:05.218750,9.46,91.88
42664,2018-06-29 09:07:05.250000,10.77,91.88
42665,2018-06-29 09:07:05.281250,10.42,91.88
42666,2018-06-29 09:07:05.312500,8.99,91.88
42667,2018-06-29 09:07:05.343750,8.15,91.88
42668,2018-06-29 09:07:05.375000,9.05,91.88
42669,2018-06-29 09:07:05.406250,10.59,91.88
42670,2018-06-29 09:07:05.437500,9.58,91.88
42671,2018-06-29 09:07:05.468750,3.71,91.88
42672,2018-06-29 09:07:05.500000,-5.67,91.88
42673,2018-06-29 09:07:05.531250,-14.39,91.83
42674,2018-06-29 09:07:05.562500,-19.07,91.83
42675,2018-06-29 09:07:05.593750,-19.85,91.83
42676,2018-06-29 09:07:05.625000,-19.45,91.83
42677,2018-06-29 09:07:05.656250,-19.12,91.83
42678,2018-06-29 09:07:05.687500,-17.18,91.83
42679,2018-06-29 09:07:05.718750,-12.6,91.83
42680,2018-06-29 09:07:05.750000,-7.05,91.83
42681,2018-06-29 09:07:05.781250,-2.01,91.83
42682,2018-06-29 09:07:05.812500,2.42,91.83
42683,2018-06-29 09:07:05.843750,5.21,91.83
42684,2018-06-29 09:07:05.875000,5.18,91.83
42685,2018-06-29 09:07:05.906250,3.59,91.83
42686,2018-06-29 09:07:05.937500,2.69,91.83
42687,2018-06-29 09:07:05.968750,3.05,91.83
42688,2018-06-29 09:07:06.000000,3.88,91.83
42689,2018-06-29 09:07:06.031250,4.24,91.83
42690,2018-06-29 09:07:06.062500,3.55,91.83
42691,2018-06-29 09:07:06.093750,2.12,91.83
42692,2018-06-29 09:07:06.125000,0.88,91.83
42693,2018-06-29 09:07:06.156250,0.21,91.83
42694,2018-06-29 09:07:06.187500,-0.23,91.83
42695,2018-06-29 09:07:06.218750,-0.52,91.83
42696,2018-06-29 09:07:06.250000,-0.2,91.83
42697,2018-06-29 09:07:06.281250,0.83,91.83
42698,2018-06-29 09:07:06.312500,1.79,91.83
42699,2018-06-29 09:07:06.343750,1.56,91.83
42700,2018-06-29 09:07:06.375000,-0.82,91.83
42701,2018-06-29 09:07:06.406250,-5.81,91.83
42702,2018-06-29 09:07:06.437500,-12.49,91.83
42703,2018-06-29 09:07:06.468750,-17.76,91.83
42704,2018-06-29 09:07:06.500000,-17.89,91.83
42705,2018-06-29 09:07:06.531250,-11.9,91.77
42706,2018-06-29 09:07:06.562500,-2.74,91.77
42707,2018-06-29 09:07:06.593750,5.47,91.77
42708,2018-06-29 09:07:06.625000,10.35,91.77
42709,2018-06-29 09:07:06.656250,11.75,91.77
42710,2018-06-29 09:07:06.687500,11.14,91.77
42711,2018-06-29 09:07:06.718750,10.59,91.77
42712,2018-06-29 09:07:06.750000,10.87,91.77
42713,2018-06-29 09:07:06.781250,10.77,91.77
42714,2018-06-29 09:07:06.812500,9.55,91.77
42715,2018-06-29 09:07:06.843750,8.17,91.77
42716,2018-06-29 09:07:06.875000,6.97,91.77
42717,2018-06-29 09:07:06.906250,4.47,91.77
42718,2018-06-29 09:07:06.937500,0.12,91.77
42719,2018-06-29 09:07:06.968750,-4.5,91.77
42720,2018-06-29 09:07:07.000000,-8.12,91.77
42721,2018-06-29 09:07:07.031250,-10.99,91.77
42722,2018-06-29 09:07:07.062500,-13.46,91.77
42723,2018-06-29 09:07:07.093750,-15.62,91.77
42724,2018-06-29 09:07:07.125000,-17.43,91.77
42725,2018-06-29 09:07:07.156250,-17.91,91.77
42726,2018-06-29 09:07:07.187500,-15.84,91.77
42727,2018-06-29 09:07:07.218750,-11.85,91.77
42728,2018-06-29 09:07:07.250000,-7.15,91.77
42729,2018-06-29 09:07:07.281250,-1.32,91.77
42730,2018-06-29 09:07:07.312500,5.95,91.77
42731,2018-06-29 09:07:07.343750,13.07,91.77
42732,2018-06-29 09:07:07.375000,18.74,91.77
42733,2018-06-29 09:07:07.406250,23.58,91.77
42734,2018-06-29 09:07:07.437500,28.25,91.77
42735,2018-06-29 09:07:07.468750,32.3,91.77
42736,2018-06-29 09:07:07.500000,35.7,91.77
42737,2018-06-29 09:07:07.531250,39.04,91.6
42738,2018-06-29 09:07:07.562500,41.47,91.6
42739,2018-06-29 09:07:07.593750,40.38,91.6
42740,2018-06-29 09:07:07.625000,34.2,91.6
42741,2018-06-29 09:07:07.656250,23.9,91.6
42742,2018-06-29 09:07:07.687500,11.32,91.6
42743,2018-06-29 09:07:07.718750,-2.07,91.6
42744,2018-06-29 09:07:07.750000,-14.42,91.6
42745,2018-06-29 09:07:07.781250,-23.43,91.6
42746,2018-06-29 09:07:07.812500,-27.75,91.6
42747,2018-06-29 09:07:07.843750,-28.15,91.6
42748,2018-06-29 09:07:07.875000,-26.65,91.6
42749,2018-06-29 09:07:07.906250,-25.03,91.6
42750,2018-06-29 09:07:07.937500,-24.14,91.6
42751,2018-06-29 09:07:07.968750,-23.97,91.6
42752,2018-06-29 09:07:08.000000,-24.19,91.6
42753,2018-06-29 09:07:08.031250,-24.91,91.6
42754,2018-06-29 09:07:08.062500,-26.07,91.6
42755,2018-06-29 09:07:08.093750,-26.37,91.6
42756,2018-06-29 09:07:08.125000,-24.19,91.6
42757,2018-06-29 09:07:08.156250,-18.92,91.6
42758,2018-06-29 09:07:08.187500,-10.84,91.6
42759,2018-06-29 09:07:08.218750,-1.82,91.6
42760,2018-06-29 09:07:08.250000,5.34,91.6
42761,2018-06-29 09:07:08.281250,9.9,91.6
42762,2018-06-29 09:07:08.312500,13.45,91.6
42763,2018-06-29 09:07:08.343750,16.56,91.6
42764,2018-06-29 09:07:08.375000,18.47,91.6
42765,2018-06-29 09:07:08.406250,19.23,91.6
42766,2018-06-29 09:07:08.437500,19.25,91.6
42767,2018-06-29 09:07:08.468750,18.43,91.6
42768,2018-06-29 09:07:08.500000,17.13,91.6
42769,2018-06-29 09:07:08.531250,15.7,91.48
42770,2018-06-29 09:07:08.562500,13.81,91.48
42771,2018-06-29 09:07:08.593750,12.01,91.48
42772,2018-06-29 09:07:08.625000,12.21,91.48
42773,2018-06-29 09:07:08.656250,15.05,91.48
42774,2018-06-29 09:07:08.687500,18.69,91.48
42775,2018-06-29 09:07:08.718750,19.12,91.48
42776,2018-06-29 09:07:08.750000,12.23,91.48
42777,2018-06-29 09:07:08.781250,-1.2,91.48
42778,2018-06-29 09:07:08.812500,-13.82,91.48
42779,2018-06-29 09:07:08.843750,-19.51,91.48
42780,2018-06-29 09:07:08.875000,-19.69,91.48
42781,2018-06-29 09:07:08.906250,-18.84,91.48
42782,2018-06-29 09:07:08.937500,-19.11,91.48
42783,2018-06-29 09:07:08.968750,-21.2,91.48
42784,2018-06-29 09:07:09.000000,-24.9,91.48
42785,2018-06-29 09:07:09.031250,-28.09,91.48
42786,2018-06-29 09:07:09.062500,-28.81,91.48
42787,2018-06-29 09:07:09.093750,-26.84,91.48
42788,2018-06-29 09:07:09.125000,-21.94,91.48
42789,2018-06-29 09:07:09.156250,-13.68,91.48
42790,2018-06-29 09:07:09.187500,-4.05,91.48
42791,2018-06-29 09:07:09.218750,3.25,91.48
42792,2018-06-29 09:07:09.250000,6.62,91.48
42793,2018-06-29 09:07:09.281250,7.06,91.48
42794,2018-06-29 09:07:09.312500,6.06,91.48
42795,2018-06-29 09:07:09.343750,5.28,91.48
42796,2018-06-29 09:07:09.375000,6.03,91.48
42797,2018-06-29 09:07:09.406250,7.76,91.48
42798,2018-06-29 09:07:09.437500,9.25,91.48
42799,2018-06-29 09:07:09.468750,10.71,91.48
42800,2018-06-29 09:07:09.500000,12.57,91.48
42801,2018-06-29 09:07:09.531250,14.02,91.4
42802,2018-06-29 09:07:09.562500,14.25,91.4
42803,2018-06-29 09:07:09.593750,12.93,91.4
42804,2018-06-29 09:07:09.625000,9.61,91.4
42805,2018-06-29 09:07:09.656250,4.6,91.4
42806,2018-06-29 09:07:09.687500,-0.5,91.4
42807,2018-06-29 09:07:09.718750,-4.49,91.4
42808,2018-06-29 09:07:09.750000,-7.63,91.4
42809,2018-06-29 09:07:09.781250,-10.51,91.4
42810,2018-06-29 09:07:09.812500,-13.21,91.4
42811,2018-06-29 09:07:09.843750,-15.12,91.4
42812,2018-06-29 09:07:09.875000,-14.64,91.4
42813,2018-06-29 09:07:09.906250,-10.53,91.4
42814,2018-06-29 09:07:09.937500,-4.16,91.4
42815,2018-06-29 09:07:09.968750,1.57,91.4
42816,2018-06-29 09:07:10.000000,5.77,91.4
42817,2018-06-29 09:07:10.031250,9.24,91.4
42818,2018-06-29 09:07:10.062500,11.77,91.4
42819,2018-06-29 09:07:10.093750,12.67,91.4
42820,2018-06-29 09:07:10.125000,12.56,91.4
42821,2018-06-29 09:07:10.156250,12.13,91.4
42822,2018-06-29 09:07:10.187500,11.07,91.4
42823,2018-06-29 09:07:10.218750,9.41,91.4
42824,2018-06-29 09:07:10.250000,7.8,91.4
42825,2018-06-29 09:07:10.281250,6.08,91.4
42826,2018-06-29 09:07:10.312500,3.44,91.4
42827,2018-06-29 09:07:10.343750,-0.32,91.4
42828,2018-06-29 09:07:10.375000,-4.41,91.4
42829,2018-06-29 09:07:10.406250,-7.4,91.4
42830,2018-06-29 09:07:10.437500,-8.81,91.4
42831,2018-06-29 09:07:10.468750,-9.89,91.4
42832,2018-06-29 09:07:10.500000,-11.88,91.4
42833,2018-06-29 09:07:10.531250,-14.5,91.28
42834,2018-06-29 09:07:10.562500,-16.56,91.28
42835,2018-06-29 09:07:10.593750,-16.68,91.28
42836,2018-06-29 09:07:10.625000,-13.99,91.28
42837,2018-06-29 09:07:10.656250,-9.14,91.28
42838,2018-06-29 09:07:10.687500,-3.99,91.28
42839,2018-06-29 09:07:10.718750,0.33,91.28
42840,2018-06-29 09:07:10.750000,3.73,91.28
42841,2018-06-29 09:07:10.781250,5.88,91.28
42842,2018-06-29 09:07:10.812500,6.3,91.28
42843,2018-06-29 09:07:10.843750,5.55,91.28
42844,2018-06-29 09:07:10.875000,4.82,91.28
42845,2018-06-29 09:07:10.906250,4.43,91.28
42846,2018-06-29 09:07:10.937500,3.81,91.28
42847,2018-06-29 09:07:10.968750,2.85,91.28
42848,2018-06-29 09:07:11.000000,2.26,91.28
42849,2018-06-29 09:07:11.031250,2.41,91.28
42850,2018-06-29 09:07:11.062500,2.64,91.28
42851,2018-06-29 09:07:11.093750,1.98,91.28
42852,2018-06-29 09:07:11.125000,0.34,91.28
42853,2018-06-29 09:07:11.156250,-1.49,91.28
42854,2018-06-29 09:07:11.187500,-3.11,91.28
42855,2018-06-29 09:07:11.218750,-5.14,91.28
42856,2018-06-29 09:07:11.250000,-8.27,91.28
42857,2018-06-29 09:07:11.281250,-12.1,91.28
42858,2018-06-29 09:07:11.312500,-14.48,91.28
42859,2018-06-29 09:07:11.343750,-12.96,91.28
42860,2018-06-29 09:07:11.375000,-7.62,91.28
42861,2018-06-29 09:07:11.406250,-0.83,91.28
42862,2018-06-29 09:07:11.437500,5.67,91.28
42863,2018-06-29 09:07:11.468750,11.23,91.28
42864,2018-06-29 09:07:11.500000,14.89,91.28
42865,2018-06-29 09:07:11.531250,16.44,91.15
42866,2018-06-29 09:07:11.562500,17.15,91.15
42867,2018-06-29 09:07:11.593750,17.46,91.15
42868,2018-06-29 09:07:11.625000,16.72,91.15
42869,2018-06-29 09:07:11.656250,15.16,91.15
42870,2018-06-29 09:07:11.687500,13.46,91.15
42871,2018-06-29 09:07:11.718750,11.29,91.15
42872,2018-06-29 09:07:11.750000,8.65,91.15
42873,2018-06-29 09:07:11.781250,6.71,91.15
42874,2018-06-29 09:07:11.812500,5.57,91.15
42875,2018-06-29 09:07:11.843750,3.54,91.15
42876,2018-06-29 09:07:11.875000,0.05,91.15
42877,2018-06-29 09:07:11.906250,-3.22,91.15
42878,2018-06-29 09:07:11.937500,-5.0,91.15
42879,2018-06-29 09:07:11.968750,-6.1,91.15
42880,2018-06-29 09:07:12.000000,-7.88,91.15
42881,2018-06-29 09:07:12.031250,-10.63,91.15
42882,2018-06-29 09:07:12.062500,-13.55,91.15
42883,2018-06-29 09:07:12.093750,-14.78,91.15
42884,2018-06-29 09:07:12.125000,-12.18,91.15
42885,2018-06-29 09:07:12.156250,-5.6,91.15
42886,2018-06-29 09:07:12.187500,2.31,91.15
42887,2018-06-29 09:07:12.218750,8.81,91.15
42888,2018-06-29 09:07:12.250000,13.1,91.15
42889,2018-06-29 09:07:12.281250,14.95,91.15
42890,2018-06-29 09:07:12.312500,13.78,91.15
42891,2018-06-29 09:07:12.343750,9.93,91.15
42892,2018-06-29 09:07:12.375000,5.14,91.15
42893,2018-06-29 09:07:12.406250,0.72,91.15
42894,2018-06-29 09:07:12.437500,-3.28,91.15
42895,2018-06-29 09:07:12.468750,-6.61,91.15
42896,2018-06-29 09:07:12.500000,-8.16,91.15
42897,2018-06-29 09:07:12.531250,-7.54,91.07
42898,2018-06-29 09:07:12.562500,-5.95,91.07
42899,2018-06-29 09:07:12.593750,-4.59,91.07
42900,2018-06-29 09:07:12.625000,-3.8,91.07
42901,2018-06-29 09:07:12.656250,-3.52,91.07
42902,2018-06-29 09:07:12.687500,-3.27,91.07
42903,2018-06-29 09:07:12.718750,-2.21,91.07
42904,2018-06-29 09:07:12.750000,-0.68,91.07
42905,2018-06-29 09:07:12.781250,-0.37,91.07
42906,2018-06-29 09:07:12.812500,-1.87,91.07
42907,2018-06-29 09:07:12.843750,-3.73,91.07
42908,2018-06-29 09:07:12.875000,-4.74,91.07
42909,2018-06-29 09:07:12.906250,-5.75,91.07
42910,2018-06-29 09:07:12.937500,-7.93,91.07
42911,2018-06-29 09:07:12.968750,-9.66,91.07
42912,2018-06-29 09:07:13.000000,-6.91,91.07
42913,2018-06-29 09:07:13.031250,0.94,91.07
42914,2018-06-29 09:07:13.062500,8.23,91.07
42915,2018-06-29 09:07:13.093750,10.83,91.07
42916,2018-06-29 09:07:13.125000,14.08,91.07
42917,2018-06-29 09:07:13.156250,25.34,91.07
42918,2018-06-29 09:07:13.187500,41.58,91.07
42919,2018-06-29 09:07:13.218750,52.96,91.07
42920,2018-06-29 09:07:13.250000,57.43,91.07
42921,2018-06-29 09:07:13.281250,63.87,91.07
42922,2018-06-29 09:07:13.312500,81.09,91.07
42923,2018-06-29 09:07:13.343750,104.54,91.07
42924,2018-06-29 09:07:13.375000,110.34,91.07
42925,2018-06-29 09:07:13.406250,71.71,91.07
42926,2018-06-29 09:07:13.437500,-4.94,91.07
42927,2018-06-29 09:07:13.468750,-74.34,91.07
42928,2018-06-29 09:07:13.500000,-99.64,91.07
42929,2018-06-29 09:07:13.531250,-87.9,91.02
42930,2018-06-29 09:07:13.562500,-65.87,91.02
42931,2018-06-29 09:07:13.593750,-47.47,91.02
42932,2018-06-29 09:07:13.625000,-37.55,91.02
42933,2018-06-29 09:07:13.656250,-39.8,91.02
42934,2018-06-29 09:07:13.687500,-48.9,91.02
42935,2018-06-29 09:07:13.718750,-52.25,91.02
42936,2018-06-29 09:07:13.750000,-45.33,91.02
42937,2018-06-29 09:07:13.781250,-35.0,91.02
42938,2018-06-29 09:07:13.812500,-27.97,91.02
42939,2018-06-29 09:07:13.843750,-24.18,91.02
42940,2018-06-29 09:07:13.875000,-21.51,91.02
42941,2018-06-29 09:07:13.906250,-19.29,91.02
42942,2018-06-29 09:07:13.937500,-15.06,91.02
42943,2018-06-29 09:07:13.968750,-5.03,91.02
42944,2018-06-29 09:07:14.000000,8.85,91.02
42945,2018-06-29 09:07:14.031250,16.86,91.02
42946,2018-06-29 09:07:14.062500,10.57,91.02
42947,2018-06-29 09:07:14.093750,-6.23,91.02
42948,2018-06-29 09:07:14.125000,-19.4,91.02
42949,2018-06-29 09:07:14.156250,-20.77,91.02
42950,2018-06-29 09:07:14.187500,-16.61,91.02
42951,2018-06-29 09:07:14.218750,-14.61,91.02
42952,2018-06-29 09:07:14.250000,-12.66,91.02
42953,2018-06-29 09:07:14.281250,-7.24,91.02
42954,2018-06-29 09:07:14.312500,-0.85,91.02
42955,2018-06-29 09:07:14.343750,4.37,91.02
42956,2018-06-29 09:07:14.375000,9.47,91.02
42957,2018-06-29 09:07:14.406250,13.58,91.02
42958,2018-06-29 09:07:14.437500,14.17,91.02
42959,2018-06-29 09:07:14.468750,12.05,91.02
42960,2018-06-29 09:07:14.500000,10.55,91.02
42961,2018-06-29 09:07:14.531250,10.85,90.97
42962,2018-06-29 09:07:14.562500,10.94,90.97
42963,2018-06-29 09:07:14.593750,8.82,90.97
42964,2018-06-29 09:07:14.625000,5.25,90.97
42965,2018-06-29 09:07:14.656250,2.18,90.97
42966,2018-06-29 09:07:14.687500,0.01,90.97
42967,2018-06-29 09:07:14.718750,-1.45,90.97
42968,2018-06-29 09:07:14.750000,-1.66,90.97
42969,2018-06-29 09:07:14.781250,-1.16,90.97
42970,2018-06-29 09:07:14.812500,-1.63,90.97
42971,2018-06-29 09:07:14.843750,-3.42,90.97
42972,2018-06-29 09:07:14.875000,-5.52,90.97
42973,2018-06-29 09:07:14.906250,-6.5,90.97
42974,2018-06-29 09:07:14.937500,-4.73,90.97
42975,2018-06-29 09:07:14.968750,-0.28,90.97
42976,2018-06-29 09:07:15.000000,4.37,90.97
42977,2018-06-29 09:07:15.031250,7.27,90.97
42978,2018-06-29 09:07:15.062500,8.22,90.97
42979,2018-06-29 09:07:15.093750,7.09,90.97
42980,2018-06-29 09:07:15.125000,4.32,90.97
42981,2018-06-29 09:07:15.156250,1.91,90.97
42982,2018-06-29 09:07:15.187500,1.4,90.97
42983,2018-06-29 09:07:15.218750,2.48,90.97
42984,2018-06-29 09:07:15.250000,4.22,90.97
42985,2018-06-29 09:07:15.281250,6.07,90.97
42986,2018-06-29 09:07:15.312500,7.73,90.97
42987,2018-06-29 09:07:15.343750,9.43,90.97
42988,2018-06-29 09:07:15.375000,11.6,90.97
42989,2018-06-29 09:07:15.406250,13.79,90.97
42990,2018-06-29 09:07:15.437500,15.08,90.97
42991,2018-06-29 09:07:15.468750,15.65,90.97
42992,2018-06-29 09:07:15.500000,16.75,90.97
42993,2018-06-29 09:07:15.531250,18.71,91.0
42994,2018-06-29 09:07:15.562500,20.52,91.0
42995,2018-06-29 09:07:15.593750,21.73,91.0
42996,2018-06-29 09:07:15.625000,23.86,91.0
42997,2018-06-29 09:07:15.656250,28.89,91.0
42998,2018-06-29 09:07:15.687500,36.7,91.0
42999,2018-06-29 09:07:15.718750,45.27,91.0
43000,2018-06-29 09:07:15.750000,53.87,91.0
43001,2018-06-29 09:07:15.781250,64.98,91.0
43002,2018-06-29 09:07:15.812500,81.59,91.0
43003,2018-06-29 09:07:15.843750,101.84,91.0
43004,2018-06-29 09:07:15.875000,118.64,91.0
43005,2018-06-29 09:07:15.906250,128.46,91.0
43006,2018-06-29 09:07:15.937500,136.95,91.0
43007,2018-06-29 09:07:15.968750,149.84,91.0
43008,2018-06-29 09:07:16.000000,160.17,91.0
43009,2018-06-29 09:07:16.031250,151.94,91.0
43010,2018-06-29 09:07:16.062500,120.35,91.0
43011,2018-06-29 09:07:16.093750,83.62,91.0
43012,2018-06-29 09:07:16.125000,65.03,91.0
43013,2018-06-29 09:07:16.156250,65.4,91.0
43014,2018-06-29 09:07:16.187500,63.69,91.0
43015,2018-06-29 09:07:16.218750,41.71,91.0
43016,2018-06-29 09:07:16.250000,-2.65,91.0
43017,2018-06-29 09:07:16.281250,-58.81,91.0
43018,2018-06-29 09:07:16.312500,-113.32,91.0
43019,2018-06-29 09:07:16.343750,-164.25,91.0
43020,2018-06-29 09:07:16.375000,-217.33,91.0
43021,2018-06-29 09:07:16.406250,-261.14,91.0
43022,2018-06-29 09:07:16.437500,-272.85,91.0
43023,2018-06-29 09:07:16.468750,-255.06,91.0
43024,2018-06-29 09:07:16.500000,-233.37,91.0
43025,2018-06-29 09:07:16.531250,-218.37,90.97
43026,2018-06-29 09:07:16.562500,-202.27,90.97
43027,2018-06-29 09:07:16.593750,-182.39,90.97
43028,2018-06-29 09:07:16.625000,-160.23,90.97
43029,2018-06-29 09:07:16.656250,-132.03,90.97
43030,2018-06-29 09:07:16.687500,-97.64,90.97
43031,2018-06-29 09:07:16.718750,-66.21,90.97
43032,2018-06-29 09:07:16.750000,-44.84,90.97
43033,2018-06-29 09:07:16.781250,-30.21,90.97
43034,2018-06-29 09:07:16.812500,-15.97,90.97
43035,2018-06-29 09:07:16.843750,-2.22,90.97
43036,2018-06-29 09:07:16.875000,6.99,90.97
43037,2018-06-29 09:07:16.906250,11.98,90.97
43038,2018-06-29 09:07:16.937500,17.15,90.97
43039,2018-06-29 09:07:16.968750,23.92,90.97
43040,2018-06-29 09:07:17.000000,29.58,90.97
43041,2018-06-29 09:07:17.031250,32.33,90.97
43042,2018-06-29 09:07:17.062500,33.42,90.97
43043,2018-06-29 09:07:17.093750,34.43,90.97
43044,2018-06-29 09:07:17.125000,35.65,90.97
43045,2018-06-29 09:07:17.156250,37.12,90.97
43046,2018-06-29 09:07:17.187500,39.22,90.97
43047,2018-06-29 09:07:17.218750,42.19,90.97
43048,2018-06-29 09:07:17.250000,46.4,90.97
43049,2018-06-29 09:07:17.281250,52.68,90.97
43050,2018-06-29 09:07:17.312500,61.33,90.97
43051,2018-06-29 09:07:17.343750,71.53,90.97
43052,2018-06-29 09:07:17.375000,83.58,90.97
43053,2018-06-29 09:07:17.406250,100.26,90.97
43054,2018-06-29 09:07:17.437500,123.98,90.97
43055,2018-06-29 09:07:17.468750,152.94,90.97
43056,2018-06-29 09:07:17.500000,180.28,90.97
43057,2018-06-29 09:07:17.531250,196.43,91.1
43058,2018-06-29 09:07:17.562500,194.45,91.1
43059,2018-06-29 09:07:17.593750,173.56,91.1
43060,2018-06-29 09:07:17.625000,136.08,91.1
43061,2018-06-29 09:07:17.656250,82.83,91.1
43062,2018-06-29 09:07:17.687500,15.13,91.1
43063,2018-06-29 09:07:17.718750,-58.54,91.1
43064,2018-06-29 09:07:17.750000,-119.59,91.1
43065,2018-06-29 09:07:17.781250,-148.39,91.1
43066,2018-06-29 09:07:17.812500,-143.26,91.1
43067,2018-06-29 09:07:17.843750,-124.88,91.1
43068,2018-06-29 09:07:17.875000,-114.17,91.1
43069,2018-06-29 09:07:17.906250,-112.37,91.1
43070,2018-06-29 09:07:17.937500,-109.58,91.1
43071,2018-06-29 09:07:17.968750,-101.68,91.1
43072,2018-06-29 09:07:18.000000,-90.99,91.1
43073,2018-06-29 09:07:18.031250,-79.63,91.1
43074,2018-06-29 09:07:18.062500,-69.23,91.1
43075,2018-06-29 09:07:18.093750,-61.9,91.1
43076,2018-06-29 09:07:18.125000,-57.6,91.1
43077,2018-06-29 09:07:18.156250,-53.94,91.1
43078,2018-06-29 09:07:18.187500,-48.98,91.1
43079,2018-06-29 09:07:18.218750,-41.51,91.1
43080,2018-06-29 09:07:18.250000,-30.64,91.1
43081,2018-06-29 09:07:18.281250,-17.48,91.1
43082,2018-06-29 09:07:18.312500,-4.54,91.1
43083,2018-06-29 09:07:18.343750,7.66,91.1
43084,2018-06-29 09:07:18.375000,21.33,91.1
43085,2018-06-29 09:07:18.406250,37.88,91.1
43086,2018-06-29 09:07:18.437500,54.64,91.1
43087,2018-06-29 09:07:18.468750,64.73,91.1
43088,2018-06-29 09:07:18.500000,62.65,91.1
43089,2018-06-29 09:07:18.531250,52.34,91.25
43090,2018-06-29 09:07:18.562500,44.62,91.25
43091,2018-06-29 09:07:18.593750,44.44,91.25
43092,2018-06-29 09:07:18.625000,47.2,91.25
43093,2018-06-29 09:07:18.656250,47.24,91.25
43094,2018-06-29 09:07:18.687500,42.07,91.25
43095,2018-06-29 09:07:18.718750,31.49,91.25
43096,2018-06-29 09:07:18.750000,19.5,91.25
43097,2018-06-29 09:07:18.781250,11.55,91.25
43098,2018-06-29 09:07:18.812500,7.69,91.25
43099,2018-06-29 09:07:18.843750,4.23,91.25
43100,2018-06-29 09:07:18.875000,-1.57,91.25
43101,2018-06-29 09:07:18.906250,-13.53,91.25
43102,2018-06-29 09:07:18.937500,-32.55,91.25
43103,2018-06-29 09:07:18.968750,-48.25,91.25
43104,2018-06-29 09:07:19.000000,-47.89,91.25
43105,2018-06-29 09:07:19.031250,-33.19,91.25
43106,2018-06-29 09:07:19.062500,-16.23,91.25
43107,2018-06-29 09:07:19.093750,-2.54,91.25
43108,2018-06-29 09:07:19.125000,10.6,91.25
43109,2018-06-29 09:07:19.156250,24.47,91.25
43110,2018-06-29 09:07:19.187500,38.7,91.25
43111,2018-06-29 09:07:19.218750,57.3,91.25
43112,2018-06-29 09:07:19.250000,83.49,91.25
43113,2018-06-29 09:07:19.281250,109.98,91.25
43114,2018-06-29 09:07:19.312500,126.66,91.25
43115,2018-06-29 09:07:19.343750,137.7,91.25
43116,2018-06-29 09:07:19.375000,157.28,91.25
43117,2018-06-29 09:07:19.406250,188.24,91.25
43118,2018-06-29 09:07:19.437500,219.59,91.25
43119,2018-06-29 09:07:19.468750,245.24,91.25
43120,2018-06-29 09:07:19.500000,267.71,91.25
43121,2018-06-29 09:07:19.531250,283.78,91.17
43122,2018-06-29 09:07:19.562500,283.35,91.17
43123,2018-06-29 09:07:19.593750,262.31,91.17
43124,2018-06-29 09:07:19.625000,226.12,91.17
43125,2018-06-29 09:07:19.656250,182.77,91.17
43126,2018-06-29 09:07:19.687500,138.36,91.17
43127,2018-06-29 09:07:19.718750,95.43,91.17
43128,2018-06-29 09:07:19.750000,51.85,91.17
43129,2018-06-29 09:07:19.781250,3.93,91.17
43130,2018-06-29 09:07:19.812500,-45.88,91.17
43131,2018-06-29 09:07:19.843750,-87.97,91.17
43132,2018-06-29 09:07:19.875000,-118.61,91.17
43133,2018-06-29 09:07:19.906250,-149.55,91.17
43134,2018-06-29 09:07:19.937500,-193.65,91.17
43135,2018-06-29 09:07:19.968750,-245.52,91.17
43136,2018-06-29 09:07:20.000000,-287.07,91.17
43137,2018-06-29 09:07:20.031250,-307.52,91.17
43138,2018-06-29 09:07:20.062500,-311.22,91.17
43139,2018-06-29 09:07:20.093750,-310.92,91.17
43140,2018-06-29 09:07:20.125000,-316.41,91.17
43141,2018-06-29 09:07:20.156250,-326.66,91.17
43142,2018-06-29 09:07:20.187500,-332.71,91.17
43143,2018-06-29 09:07:20.218750,-328.72,91.17
43144,2018-06-29 09:07:20.250000,-316.75,91.17
43145,2018-06-29 09:07:20.281250,-300.0,91.17
43146,2018-06-29 09:07:20.312500,-275.45,91.17
43147,2018-06-29 09:07:20.343750,-237.89,91.17
43148,2018-06-29 09:07:20.375000,-189.74,91.17
43149,2018-06-29 09:07:20.406250,-140.31,91.17
43150,2018-06-29 09:07:20.437500,-96.05,91.17
43151,2018-06-29 09:07:20.468750,-58.93,91.17
43152,2018-06-29 09:07:20.500000,-32.31,91.17
43153,2018-06-29 09:07:20.531250,-18.89,90.95
43154,2018-06-29 09:07:20.562500,-13.67,90.95
43155,2018-06-29 09:07:20.593750,-7.19,90.95
43156,2018-06-29 09:07:20.625000,4.15,90.95
43157,2018-06-29 09:07:20.656250,16.74,90.95
43158,2018-06-29 09:07:20.687500,27.96,90.95
43159,2018-06-29 09:07:20.718750,39.07,90.95
43160,2018-06-29 09:07:20.750000,49.85,90.95
43161,2018-06-29 09:07:20.781250,58.1,90.95
43162,2018-06-29 09:07:20.812500,64.24,90.95
43163,2018-06-29 09:07:20.843750,69.65,90.95
43164,2018-06-29 09:07:20.875000,71.38,90.95
43165,2018-06-29 09:07:20.906250,66.44,90.95
43166,2018-06-29 09:07:20.937500,60.4,90.95
43167,2018-06-29 09:07:20.968750,64.13,90.95
43168,2018-06-29 09:07:21.000000,80.65,90.95
43169,2018-06-29 09:07:21.031250,102.69,90.95
43170,2018-06-29 09:07:21.062500,126.37,90.95
43171,2018-06-29 09:07:21.093750,158.47,90.95
43172,2018-06-29 09:07:21.125000,204.32,90.95
43173,2018-06-29 09:07:21.156250,255.2,90.95
43174,2018-06-29 09:07:21.187500,294.66,90.95
43175,2018-06-29 09:07:21.218750,313.0,90.95
43176,2018-06-29 09:07:21.250000,316.5,90.95
43177,2018-06-29 09:07:21.281250,327.18,90.95
43178,2018-06-29 09:07:21.312500,360.38,90.95
43179,2018-06-29 09:07:21.343750,395.33,90.95
43180,2018-06-29 09:07:21.375000,391.16,90.95
43181,2018-06-29 09:07:21.406250,336.22,90.95
43182,2018-06-29 09:07:21.437500,252.68,90.95
43183,2018-06-29 09:07:21.468750,154.99,90.95
43184,2018-06-29 09:07:21.500000,39.27,90.95
43185,2018-06-29 09:07:21.531250,-87.32,90.68
43186,2018-06-29 09:07:21.562500,-200.07,90.68
43187,2018-06-29 09:07:21.593750,-282.09,90.68
43188,2018-06-29 09:07:21.625000,-333.38,90.68
43189,2018-06-29 09:07:21.656250,-357.95,90.68
43190,2018-06-29 09:07:21.687500,-360.93,90.68
43191,2018-06-29 09:07:21.718750,-352.24,90.68
43192,2018-06-29 09:07:21.750000,-338.26,90.68
43193,2018-06-29 09:07:21.781250,-317.46,90.68
43194,2018-06-29 09:07:21.812500,-289.47,90.68
43195,2018-06-29 09:07:21.843750,-258.9,90.68
43196,2018-06-29 09:07:21.875000,-231.07,90.68
43197,2018-06-29 09:07:21.906250,-207.81,90.68
43198,2018-06-29 09:07:21.937500,-184.59,90.68
43199,2018-06-29 09:07:21.968750,-156.07,90.68
43200,2018-06-29 09:07:22.000000,-125.45,90.68
43201,2018-06-29 09:07:22.031250,-99.55,90.68
43202,2018-06-29 09:07:22.062500,-79.59,90.68
43203,2018-06-29 09:07:22.093750,-63.98,90.68
43204,2018-06-29 09:07:22.125000,-52.59,90.68
43205,2018-06-29 09:07:22.156250,-44.83,90.68
43206,2018-06-29 09:07:22.187500,-39.59,90.68
43207,2018-06-29 09:07:22.218750,-35.5,90.68
43208,2018-06-29 09:07:22.250000,-28.7,90.68
43209,2018-06-29 09:07:22.281250,-17.11,90.68
43210,2018-06-29 09:07:22.312500,-6.87,90.68
43211,2018-06-29 09:07:22.343750,-5.92,90.68
43212,2018-06-29 09:07:22.375000,-11.33,90.68
43213,2018-06-29 09:07:22.406250,-9.92,90.68
43214,2018-06-29 09:07:22.437500,7.63,90.68
43215,2018-06-29 09:07:22.468750,38.9,90.68
43216,2018-06-29 09:07:22.500000,74.77,90.68
43217,2018-06-29 09:07:22.531250,106.93,90.45
43218,2018-06-29 09:07:22.562500,137.18,90.45
43219,2018-06-29 09:07:22.593750,181.69,90.45
43220,2018-06-29 09:07:22.625000,249.82,90.45
43221,2018-06-29 09:07:22.656250,320.68,90.45
43222,2018-06-29 09:07:22.687500,360.35,90.45
43223,2018-06-29 09:07:22.718750,355.35,90.45
43224,2018-06-29 09:07:22.750000,312.44,90.45
43225,2018-06-29 09:07:22.781250,242.09,90.45
43226,2018-06-29 09:07:22.812500,158.72,90.45
43227,2018-06-29 09:07:22.843750,85.24,90.45
43228,2018-06-29 09:07:22.875000,43.74,90.45
43229,2018-06-29 09:07:22.906250,36.77,90.45
43230,2018-06-29 09:07:22.937500,40.94,90.45
43231,2018-06-29 09:07:22.968750,32.25,90.45
43232,2018-06-29 09:07:23.000000,11.42,90.45
43233,2018-06-29 09:07:23.031250,-11.52,90.45
43234,2018-06-29 09:07:23.062500,-39.08,90.45
43235,2018-06-29 09:07:23.093750,-70.56,90.45
43236,2018-06-29 09:07:23.125000,-90.89,90.45
43237,2018-06-29 09:07:23.156250,-97.45,90.45
43238,2018-06-29 09:07:23.187500,-109.67,90.45
43239,2018-06-29 09:07:23.218750,-135.71,90.45
43240,2018-06-29 09:07:23.250000,-159.74,90.45
43241,2018-06-29 09:07:23.281250,-170.78,90.45
43242,2018-06-29 09:07:23.312500,-175.85,90.45
43243,2018-06-29 09:07:23.343750,-180.95,90.45
43244,2018-06-29 09:07:23.375000,-182.1,90.45
43245,2018-06-29 09:07:23.406250,-176.64,90.45
43246,2018-06-29 09:07:23.437500,-167.95,90.45
43247,2018-06-29 09:07:23.468750,-158.83,90.45
43248,2018-06-29 09:07:23.500000,-148.92,90.45
43249,2018-06-29 09:07:23.531250,-138.24,90.22
43250,2018-06-29 09:07:23.562500,-128.38,90.22
43251,2018-06-29 09:07:23.593750,-120.34,90.22
43252,2018-06-29 09:07:23.625000,-113.47,90.22
43253,2018-06-29 09:07:23.656250,-107.93,90.22
43254,2018-06-29 09:07:23.687500,-106.34,90.22
43255,2018-06-29 09:07:23.718750,-109.02,90.22
43256,2018-06-29 09:07:23.750000,-108.35,90.22
43257,2018-06-29 09:07:23.781250,-95.53,90.22
43258,2018-06-29 09:07:23.812500,-72.76,90.22
43259,2018-06-29 09:07:23.843750,-50.23,90.22
43260,2018-06-29 09:07:23.875000,-32.67,90.22
43261,2018-06-29 09:07:23.906250,-18.22,90.22
43262,2018-06-29 09:07:23.937500,-6.33,90.22
43263,2018-06-29 09:07:23.968750,2.63,90.22
43264,2018-06-29 09:07:24.000000,11.75,90.22
43265,2018-06-29 09:07:24.031250,24.0,90.22
43266,2018-06-29 09:07:24.062500,37.62,90.22
43267,2018-06-29 09:07:24.093750,49.35,90.22
43268,2018-06-29 09:07:24.125000,59.1,90.22
43269,2018-06-29 09:07:24.156250,67.66,90.22
43270,2018-06-29 09:07:24.187500,73.28,90.22
43271,2018-06-29 09:07:24.218750,74.13,90.22
43272,2018-06-29 09:07:24.250000,71.91,90.22
43273,2018-06-29 09:07:24.281250,70.19,90.22
43274,2018-06-29 09:07:24.312500,70.39,90.22
43275,2018-06-29 09:07:24.343750,70.28,90.22
43276,2018-06-29 09:07:24.375000,65.91,90.22
43277,2018-06-29 09:07:24.406250,55.46,90.22
43278,2018-06-29 09:07:24.437500,41.79,90.22
43279,2018-06-29 09:07:24.468750,29.01,90.22
43280,2018-06-29 09:07:24.500000,16.83,90.22
43281,2018-06-29 09:07:24.531250,2.37,90.02
43282,2018-06-29 09:07:24.562500,-13.67,90.02
43283,2018-06-29 09:07:24.593750,-27.41,90.02
43284,2018-06-29 09:07:24.625000,-37.09,90.02
43285,2018-06-29 09:07:24.656250,-44.23,90.02
43286,2018-06-29 09:07:24.687500,-51.08,90.02
43287,2018-06-29 09:07:24.718750,-57.75,90.02
43288,2018-06-29 09:07:24.750000,-59.91,90.02
43289,2018-06-29 09:07:24.781250,-52.18,90.02
43290,2018-06-29 09:07:24.812500,-35.97,90.02
43291,2018-06-29 09:07:24.843750,-18.45,90.02
43292,2018-06-29 09:07:24.875000,-3.63,90.02
43293,2018-06-29 09:07:24.906250,9.39,90.02
43294,2018-06-29 09:07:24.937500,20.92,90.02
43295,2018-06-29 09:07:24.968750,29.89,90.02
43296,2018-06-29 09:07:25.000000,36.9,90.02
43297,2018-06-29 09:07:25.031250,43.2,90.02
43298,2018-06-29 09:07:25.062500,48.3,90.02
43299,2018-06-29 09:07:25.093750,51.5,90.02
43300,2018-06-29 09:07:25.125000,53.76,90.02
43301,2018-06-29 09:07:25.156250,55.85,90.02
43302,2018-06-29 09:07:25.187500,57.02,90.02
43303,2018-06-29 09:07:25.218750,56.34,90.02
43304,2018-06-29 09:07:25.250000,53.91,90.02
43305,2018-06-29 09:07:25.281250,50.44,90.02
43306,2018-06-29 09:07:25.312500,46.5,90.02
43307,2018-06-29 09:07:25.343750,41.12,90.02
43308,2018-06-29 09:07:25.375000,32.33,90.02
43309,2018-06-29 09:07:25.406250,21.09,90.02
43310,2018-06-29 09:07:25.437500,11.48,90.02
43311,2018-06-29 09:07:25.468750,4.95,90.02
43312,2018-06-29 09:07:25.500000,-1.7,90.02
43313,2018-06-29 09:07:25.531250,-11.73,89.83
43314,2018-06-29 09:07:25.562500,-24.36,89.83
43315,2018-06-29 09:07:25.593750,-33.71,89.83
43316,2018-06-29 09:07:25.625000,-32.26,89.83
43317,2018-06-29 09:07:25.656250,-18.46,89.83
43318,2018-06-29 09:07:25.687500,0.77,89.83
43319,2018-06-29 09:07:25.718750,17.69,89.83
43320,2018-06-29 09:07:25.750000,29.95,89.83
43321,2018-06-29 09:07:25.781250,38.65,89.83
43322,2018-06-29 09:07:25.812500,46.21,89.83
43323,2018-06-29 09:07:25.843750,55.34,89.83
43324,2018-06-29 09:07:25.875000,65.12,89.83
43325,2018-06-29 09:07:25.906250,70.28,89.83
43326,2018-06-29 09:07:25.937500,67.2,89.83
43327,2018-06-29 09:07:25.968750,58.59,89.83
43328,2018-06-29 09:07:26.000000,51.26,89.83
43329,2018-06-29 09:07:26.031250,49.95,89.83
43330,2018-06-29 09:07:26.062500,52.73,89.83
43331,2018-06-29 09:07:26.093750,53.06,89.83
43332,2018-06-29 09:07:26.125000,47.2,89.83
43333,2018-06-29 09:07:26.156250,37.24,89.83
43334,2018-06-29 09:07:26.187500,26.71,89.83
43335,2018-06-29 09:07:26.218750,17.37,89.83
43336,2018-06-29 09:07:26.250000,9.68,89.83
43337,2018-06-29 09:07:26.281250,3.58,89.83
43338,2018-06-29 09:07:26.312500,-1.23,89.83
43339,2018-06-29 09:07:26.343750,-4.91,89.83
43340,2018-06-29 09:07:26.375000,-8.37,89.83
43341,2018-06-29 09:07:26.406250,-13.98,89.83
43342,2018-06-29 09:07:26.437500,-23.1,89.83
43343,2018-06-29 09:07:26.468750,-31.2,89.83
43344,2018-06-29 09:07:26.500000,-29.63,89.83
43345,2018-06-29 09:07:26.531250,-15.83,89.52
43346,2018-06-29 09:07:26.562500,2.98,89.52
43347,2018-06-29 09:07:26.593750,19.47,89.52
43348,2018-06-29 09:07:26.625000,32.91,89.52
43349,2018-06-29 09:07:26.656250,44.01,89.52
43350,2018-06-29 09:07:26.687500,51.33,89.52
43351,2018-06-29 09:07:26.718750,54.54,89.52
43352,2018-06-29 09:07:26.750000,55.45,89.52
43353,2018-06-29 09:07:26.781250,55.18,89.52
43354,2018-06-29 09:07:26.812500,53.34,89.52
43355,2018-06-29 09:07:26.843750,49.26,89.52
43356,2018-06-29 09:07:26.875000,43.44,89.52
43357,2018-06-29 09:07:26.906250,37.55,89.52
43358,2018-06-29 09:07:26.937500,32.62,89.52
43359,2018-06-29 09:07:26.968750,27.91,89.52
43360,2018-06-29 09:07:27.000000,22.61,89.52
43361,2018-06-29 09:07:27.031250,17.35,89.52
43362,2018-06-29 09:07:27.062500,13.05,89.52
43363,2018-06-29 09:07:27.093750,9.21,89.52
43364,2018-06-29 09:07:27.125000,4.65,89.52
43365,2018-06-29 09:07:27.156250,-0.53,89.52
43366,2018-06-29 09:07:27.187500,-4.97,89.52
43367,2018-06-29 09:07:27.218750,-8.32,89.52
43368,2018-06-29 09:07:27.250000,-11.97,89.52
43369,2018-06-29 09:07:27.281250,-17.51,89.52
43370,2018-06-29 09:07:27.312500,-25.23,89.52
43371,2018-06-29 09:07:27.343750,-32.48,89.52
43372,2018-06-29 09:07:27.375000,-33.57,89.52
43373,2018-06-29 09:07:27.406250,-25.18,89.52
43374,2018-06-29 09:07:27.437500,-10.97,89.52
43375,2018-06-29 09:07:27.468750,2.48,89.52
43376,2018-06-29 09:07:27.500000,12.47,89.52
43377,2018-06-29 09:07:27.531250,19.9,89.1
43378,2018-06-29 09:07:27.562500,25.42,89.1
43379,2018-06-29 09:07:27.593750,28.52,89.1
43380,2018-06-29 09:07:27.625000,29.01,89.1
43381,2018-06-29 09:07:27.656250,27.58,89.1
43382,2018-06-29 09:07:27.687500,25.52,89.1
43383,2018-06-29 09:07:27.718750,23.96,89.1
43384,2018-06-29 09:07:27.750000,23.08,89.1
43385,2018-06-29 09:07:27.781250,22.5,89.1
43386,2018-06-29 09:07:27.812500,22.45,89.1
43387,2018-06-29 09:07:27.843750,23.52,89.1
43388,2018-06-29 09:07:27.875000,25.54,89.1
43389,2018-06-29 09:07:27.906250,27.64,89.1
43390,2018-06-29 09:07:27.937500,29.1,89.1
43391,2018-06-29 09:07:27.968750,30.12,89.1
43392,2018-06-29 09:07:28.000000,32.92,89.1
43393,2018-06-29 09:07:28.031250,39.41,89.1
43394,2018-06-29 09:07:28.062500,46.1,89.1
43395,2018-06-29 09:07:28.093750,46.42,89.1
43396,2018-06-29 09:07:28.125000,40.3,89.1
43397,2018-06-29 09:07:28.156250,34.68,89.1
43398,2018-06-29 09:07:28.187500,33.96,89.1
43399,2018-06-29 09:07:28.218750,36.12,89.1
43400,2018-06-29 09:07:28.250000,37.78,89.1
43401,2018-06-29 09:07:28.281250,37.57,89.1
43402,2018-06-29 09:07:28.312500,36.28,89.1
43403,2018-06-29 09:07:28.343750,36.37,89.1
43404,2018-06-29 09:07:28.375000,40.29,89.1
43405,2018-06-29 09:07:28.406250,47.5,89.1
43406,2018-06-29 09:07:28.437500,54.7,89.1
43407,2018-06-29 09:07:28.468750,59.98,89.1
43408,2018-06-29 09:07:28.500000,65.6,89.1
43409,2018-06-29 09:07:28.531250,72.64,88.67
43410,2018-06-29 09:07:28.562500,76.11,88.67
43411,2018-06-29 09:07:28.593750,71.44,88.67
43412,2018-06-29 09:07:28.625000,64.25,88.67
43413,2018-06-29 09:07:28.656250,65.88,88.67
43414,2018-06-29 09:07:28.687500,78.88,88.67
43415,2018-06-29 09:07:28.718750,94.09,88.67
43416,2018-06-29 09:07:28.750000,101.17,88.67
43417,2018-06-29 09:07:28.781250,98.71,88.67
43418,2018-06-29 09:07:28.812500,93.31,88.67
43419,2018-06-29 09:07:28.843750,92.41,88.67
43420,2018-06-29 09:07:28.875000,97.01,88.67
43421,2018-06-29 09:07:28.906250,101.45,88.67
43422,2018-06-29 09:07:28.937500,99.14,88.67
43423,2018-06-29 09:07:28.968750,87.85,88.67
43424,2018-06-29 09:07:29.000000,72.88,88.67
43425,2018-06-29 09:07:29.031250,60.21,88.67
43426,2018-06-29 09:07:29.062500,52.59,88.67
43427,2018-06-29 09:07:29.093750,44.64,88.67
43428,2018-06-29 09:07:29.125000,29.99,88.67
43429,2018-06-29 09:07:29.156250,5.89,88.67
43430,2018-06-29 09:07:29.187500,-24.61,88.67
43431,2018-06-29 09:07:29.218750,-56.0,88.67
43432,2018-06-29 09:07:29.250000,-87.84,88.67
43433,2018-06-29 09:07:29.281250,-116.31,88.67
43434,2018-06-29 09:07:29.312500,-135.65,88.67
43435,2018-06-29 09:07:29.343750,-133.26,88.67
43436,2018-06-29 09:07:29.375000,-104.4,88.67
43437,2018-06-29 09:07:29.406250,-54.61,88.67
43438,2018-06-29 09:07:29.437500,-6.99,88.67
43439,2018-06-29 09:07:29.468750,-6.07,88.67
43440,2018-06-29 09:07:29.500000,-31.91,88.67
43441,2018-06-29 09:07:29.531250,-65.38,88.17
43442,2018-06-29 09:07:29.562500,-103.92,88.17
43443,2018-06-29 09:07:29.593750,-139.35,88.17
43444,2018-06-29 09:07:29.625000,-162.38,88.17
43445,2018-06-29 09:07:29.656250,-176.45,88.17
43446,2018-06-29 09:07:29.687500,-184.02,88.17
43447,2018-06-29 09:07:29.718750,-180.94,88.17
43448,2018-06-29 09:07:29.750000,-165.7,88.17
43449,2018-06-29 09:07:29.781250,-142.97,88.17
43450,2018-06-29 09:07:29.812500,-120.17,88.17
43451,2018-06-29 09:07:29.843750,-95.76,88.17
43452,2018-06-29 09:07:29.875000,-69.02,88.17
43453,2018-06-29 09:07:29.906250,-40.52,88.17
43454,2018-06-29 09:07:29.937500,-13.39,88.17
43455,2018-06-29 09:07:29.968750,11.86,88.17
43456,2018-06-29 09:07:30.000000,35.63,88.17
43457,2018-06-29 09:07:30.031250,55.38,88.17
43458,2018-06-29 09:07:30.062500,68.12,88.17
43459,2018-06-29 09:07:30.093750,74.28,88.17
43460,2018-06-29 09:07:30.125000,78.91,88.17
43461,2018-06-29 09:07:30.156250,82.49,88.17
43462,2018-06-29 09:07:30.187500,79.52,88.17
43463,2018-06-29 09:07:30.218750,63.98,88.17
43464,2018-06-29 09:07:30.250000,34.9,88.17
43465,2018-06-29 09:07:30.281250,-0.8,88.17
43466,2018-06-29 09:07:30.312500,-33.14,88.17
43467,2018-06-29 09:07:30.343750,-55.37,88.17
43468,2018-06-29 09:07:30.375000,-67.54,88.17
43469,2018-06-29 09:07:30.406250,-71.64,88.17
43470,2018-06-29 09:07:30.437500,-69.27,88.17
43471,2018-06-29 09:07:30.468750,-61.15,88.17
43472,2018-06-29 09:07:30.500000,-47.54,88.17
43473,2018-06-29 09:07:30.531250,-34.98,87.67
43474,2018-06-29 09:07:30.562500,-32.86,87.67
43475,2018-06-29 09:07:30.593750,-44.63,87.67
43476,2018-06-29 09:07:30.625000,-51.92,87.67
43477,2018-06-29 09:07:30.656250,-41.95,87.67
43478,2018-06-29 09:07:30.687500,-26.62,87.67
43479,2018-06-29 09:07:30.718750,-32.22,87.67
43480,2018-06-29 09:07:30.750000,-62.93,87.67
43481,2018-06-29 09:07:30.781250,-89.02,87.67
43482,2018-06-29 09:07:30.812500,-92.9,87.67
43483,2018-06-29 09:07:30.843750,-82.82,87.67
43484,2018-06-29 09:07:30.875000,-93.94,87.67
43485,2018-06-29 09:07:30.906250,-125.64,87.67
43486,2018-06-29 09:07:30.937500,-160.0,87.67
43487,2018-06-29 09:07:30.968750,-188.51,87.67
43488,2018-06-29 09:07:31.000000,-226.88,87.67
43489,2018-06-29 09:07:31.031250,-284.71,87.67
43490,2018-06-29 09:07:31.062500,-334.76,87.67
43491,2018-06-29 09:07:31.093750,-373.15,87.67
43492,2018-06-29 09:07:31.125000,-295.2,87.67
43493,2018-06-29 09:07:31.156250,-93.19,87.67
43494,2018-06-29 09:07:31.187500,59.0,87.67
43495,2018-06-29 09:07:31.218750,136.63,87.67
43496,2018-06-29 09:07:31.250000,177.98,87.67
43497,2018-06-29 09:07:31.281250,181.8,87.67
43498,2018-06-29 09:07:31.312500,154.62,87.67
43499,2018-06-29 09:07:31.343750,133.05,87.67
43500,2018-06-29 09:07:31.375000,131.21,87.67
43501,2018-06-29 09:07:31.406250,149.05,87.67
43502,2018-06-29 09:07:31.437500,166.34,87.67
43503,2018-06-29 09:07:31.468750,186.2,87.67
43504,2018-06-29 09:07:31.500000,213.99,87.67
43505,2018-06-29 09:07:31.531250,240.69,87.18
43506,2018-06-29 09:07:31.562500,250.66,87.18
43507,2018-06-29 09:07:31.593750,236.72,87.18
43508,2018-06-29 09:07:31.625000,212.35,87.18
43509,2018-06-29 09:07:31.656250,183.42,87.18
43510,2018-06-29 09:07:31.687500,152.27,87.18
43511,2018-06-29 09:07:31.718750,119.72,87.18
43512,2018-06-29 09:07:31.750000,93.88,87.18
43513,2018-06-29 09:07:31.781250,76.01,87.18
43514,2018-06-29 09:07:31.812500,56.79,87.18
43515,2018-06-29 09:07:31.843750,28.89,87.18
43516,2018-06-29 09:07:31.875000,-3.67,87.18
43517,2018-06-29 09:07:31.906250,-29.12,87.18
43518,2018-06-29 09:07:31.937500,-46.17,87.18
43519,2018-06-29 09:07:31.968750,-63.44,87.18
43520,2018-06-29 09:07:32.000000,-85.48,87.18
43521,2018-06-29 09:07:32.031250,-108.41,87.18
43522,2018-06-29 09:07:32.062500,-126.68,87.18
43523,2018-06-29 09:07:32.093750,-136.69,87.18
43524,2018-06-29 09:07:32.125000,-136.97,87.18
43525,2018-06-29 09:07:32.156250,-130.04,87.18
43526,2018-06-29 09:07:32.187500,-120.87,87.18
43527,2018-06-29 09:07:32.218750,-112.07,87.18
43528,2018-06-29 09:07:32.250000,-102.64,87.18
43529,2018-06-29 09:07:32.281250,-90.98,87.18
43530,2018-06-29 09:07:32.312500,-77.61,87.18
43531,2018-06-29 09:07:32.343750,-65.06,87.18
43532,2018-06-29 09:07:32.375000,-55.51,87.18
43533,2018-06-29 09:07:32.406250,-49.26,87.18
43534,2018-06-29 09:07:32.437500,-44.72,87.18
43535,2018-06-29 09:07:32.468750,-38.67,87.18
43536,2018-06-29 09:07:32.500000,-28.06,87.18
43537,2018-06-29 09:07:32.531250,-13.68,86.7
43538,2018-06-29 09:07:32.562500,-0.26,86.7
43539,2018-06-29 09:07:32.593750,8.59,86.7
43540,2018-06-29 09:07:32.625000,13.46,86.7
43541,2018-06-29 09:07:32.656250,16.52,86.7
43542,2018-06-29 09:07:32.687500,18.71,86.7
43543,2018-06-29 09:07:32.718750,20.58,86.7
43544,2018-06-29 09:07:32.750000,23.2,86.7
43545,2018-06-29 09:07:32.781250,26.58,86.7
43546,2018-06-29 09:07:32.812500,29.28,86.7
43547,2018-06-29 09:07:32.843750,30.84,86.7
43548,2018-06-29 09:07:32.875000,32.24,86.7
43549,2018-06-29 09:07:32.906250,33.65,86.7
43550,2018-06-29 09:07:32.937500,34.31,86.7
43551,2018-06-29 09:07:32.968750,34.71,86.7
43552,2018-06-29 09:07:33.000000,35.72,86.7
43553,2018-06-29 09:07:33.031250,36.14,86.7
43554,2018-06-29 09:07:33.062500,33.96,86.7
43555,2018-06-29 09:07:33.093750,29.63,86.7
43556,2018-06-29 09:07:33.125000,25.74,86.7
43557,2018-06-29 09:07:33.156250,23.07,86.7
43558,2018-06-29 09:07:33.187500,19.06,86.7
43559,2018-06-29 09:07:33.218750,11.54,86.7
43560,2018-06-29 09:07:33.250000,2.17,86.7
43561,2018-06-29 09:07:33.281250,-6.07,86.7
43562,2018-06-29 09:07:33.312500,-13.3,86.7
43563,2018-06-29 09:07:33.343750,-22.39,86.7
43564,2018-06-29 09:07:33.375000,-34.73,86.7
43565,2018-06-29 09:07:33.406250,-45.99,86.7
43566,2018-06-29 09:07:33.437500,-45.25,86.7
43567,2018-06-29 09:07:33.468750,-23.27,86.7
43568,2018-06-29 09:07:33.500000,16.71,86.7
43569,2018-06-29 09:07:33.531250,62.44,86.27
43570,2018-06-29 09:07:33.562500,105.67,86.27
43571,2018-06-29 09:07:33.593750,142.74,86.27
43572,2018-06-29 09:07:33.625000,166.09,86.27
43573,2018-06-29 09:07:33.656250,167.07,86.27
43574,2018-06-29 09:07:33.687500,146.09,86.27
43575,2018-06-29 09:07:33.718750,114.18,86.27
43576,2018-06-29 09:07:33.750000,85.43,86.27
43577,2018-06-29 09:07:33.781250,66.8,86.27
43578,2018-06-29 09:07:33.812500,53.4,86.27
43579,2018-06-29 09:07:33.843750,33.53,86.27
43580,2018-06-29 09:07:33.875000,-0.87,86.27
43581,2018-06-29 09:07:33.906250,-44.67,86.27
43582,2018-06-29 09:07:33.937500,-79.19,86.27
43583,2018-06-29 09:07:33.968750,-87.41,86.27
43584,2018-06-29 09:07:34.000000,-70.27,86.27
43585,2018-06-29 09:07:34.031250,-43.07,86.27
43586,2018-06-29 09:07:34.062500,-19.78,86.27
43587,2018-06-29 09:07:34.093750,-5.49,86.27
43588,2018-06-29 09:07:34.125000,1.76,86.27
43589,2018-06-29 09:07:34.156250,6.28,86.27
43590,2018-06-29 09:07:34.187500,9.88,86.27
43591,2018-06-29 09:07:34.218750,11.02,86.27
43592,2018-06-29 09:07:34.250000,7.65,86.27
43593,2018-06-29 09:07:34.281250,-0.73,86.27
43594,2018-06-29 09:07:34.312500,-12.62,86.27
43595,2018-06-29 09:07:34.343750,-25.15,86.27
43596,2018-06-29 09:07:34.375000,-36.12,86.27
43597,2018-06-29 09:07:34.406250,-45.28,86.27
43598,2018-06-29 09:07:34.437500,-53.05,86.27
43599,2018-06-29 09:07:34.468750,-58.81,86.27
43600,2018-06-29 09:07:34.500000,-62.0,86.27
43601,2018-06-29 09:07:34.531250,-64.23,85.87
43602,2018-06-29 09:07:34.562500,-68.26,85.87
43603,2018-06-29 09:07:34.593750,-74.76,85.87
43604,2018-06-29 09:07:34.625000,-79.96,85.87
43605,2018-06-29 09:07:34.656250,-77.75,85.87
43606,2018-06-29 09:07:34.687500,-65.82,85.87
43607,2018-06-29 09:07:34.718750,-49.0,85.87
43608,2018-06-29 09:07:34.750000,-34.16,85.87
43609,2018-06-29 09:07:34.781250,-23.97,85.87
43610,2018-06-29 09:07:34.812500,-17.5,85.87
43611,2018-06-29 09:07:34.843750,-13.46,85.87
43612,2018-06-29 09:07:34.875000,-10.77,85.87
43613,2018-06-29 09:07:34.906250,-8.29,85.87
43614,2018-06-29 09:07:34.937500,-5.75,85.87
43615,2018-06-29 09:07:34.968750,-3.76,85.87
43616,2018-06-29 09:07:35.000000,-2.53,85.87
43617,2018-06-29 09:07:35.031250,-1.41,85.87
43618,2018-06-29 09:07:35.062500,0.23,85.87
43619,2018-06-29 09:07:35.093750,1.89,85.87
43620,2018-06-29 09:07:35.125000,1.84,85.87
43621,2018-06-29 09:07:35.156250,-0.72,85.87
43622,2018-06-29 09:07:35.187500,-4.17,85.87
43623,2018-06-29 09:07:35.218750,-6.1,85.87
43624,2018-06-29 09:07:35.250000,-6.23,85.87
43625,2018-06-29 09:07:35.281250,-6.14,85.87
43626,2018-06-29 09:07:35.312500,-6.8,85.87
43627,2018-06-29 09:07:35.343750,-7.71,85.87
43628,2018-06-29 09:07:35.375000,-8.22,85.87
43629,2018-06-29 09:07:35.406250,-8.65,85.87
43630,2018-06-29 09:07:35.437500,-10.18,85.87
43631,2018-06-29 09:07:35.468750,-13.54,85.87
43632,2018-06-29 09:07:35.500000,-18.03,85.87
43633,2018-06-29 09:07:35.531250,-22.14,85.5
43634,2018-06-29 09:07:35.562500,-25.82,85.5
43635,2018-06-29 09:07:35.593750,-31.03,85.5
43636,2018-06-29 09:07:35.625000,-39.15,85.5
43637,2018-06-29 09:07:35.656250,-47.6,85.5
43638,2018-06-29 09:07:35.687500,-50.19,85.5
43639,2018-06-29 09:07:35.718750,-42.82,85.5
43640,2018-06-29 09:07:35.750000,-28.42,85.5
43641,2018-06-29 09:07:35.781250,-13.93,85.5
43642,2018-06-29 09:07:35.812500,-3.26,85.5
43643,2018-06-29 09:07:35.843750,4.28,85.5
43644,2018-06-29 09:07:35.875000,10.05,85.5
43645,2018-06-29 09:07:35.906250,13.97,85.5
43646,2018-06-29 09:07:35.937500,16.08,85.5
43647,2018-06-29 09:07:35.968750,17.79,85.5
43648,2018-06-29 09:07:36.000000,20.23,85.5
43649,2018-06-29 09:07:36.031250,22.68,85.5
43650,2018-06-29 09:07:36.062500,24.29,85.5
43651,2018-06-29 09:07:36.093750,25.61,85.5
43652,2018-06-29 09:07:36.125000,26.71,85.5
43653,2018-06-29 09:07:36.156250,26.39,85.5
43654,2018-06-29 09:07:36.187500,24.74,85.5
43655,2018-06-29 09:07:36.218750,23.73,85.5
43656,2018-06-29 09:07:36.250000,23.99,85.5
43657,2018-06-29 09:07:36.281250,23.82,85.5
43658,2018-06-29 09:07:36.312500,21.79,85.5
43659,2018-06-29 09:07:36.343750,17.89,85.5
43660,2018-06-29 09:07:36.375000,12.79,85.5
43661,2018-06-29 09:07:36.406250,7.55,85.5
43662,2018-06-29 09:07:36.437500,3.24,85.5
43663,2018-06-29 09:07:36.468750,-0.17,85.5
43664,2018-06-29 09:07:36.500000,-3.85,85.5
43665,2018-06-29 09:07:36.531250,-8.78,85.25
43666,2018-06-29 09:07:36.562500,-14.58,85.25
43667,2018-06-29 09:07:36.593750,-20.24,85.25
43668,2018-06-29 09:07:36.625000,-25.59,85.25
43669,2018-06-29 09:07:36.656250,-31.86,85.25
43670,2018-06-29 09:07:36.687500,-40.25,85.25
43671,2018-06-29 09:07:36.718750,-50.0,85.25
43672,2018-06-29 09:07:36.750000,-56.81,85.25
43673,2018-06-29 09:07:36.781250,-55.1,85.25
43674,2018-06-29 09:07:36.812500,-44.2,85.25
43675,2018-06-29 09:07:36.843750,-29.91,85.25
43676,2018-06-29 09:07:36.875000,-17.57,85.25
43677,2018-06-29 09:07:36.906250,-7.64,85.25
43678,2018-06-29 09:07:36.937500,0.51,85.25
43679,2018-06-29 09:07:36.968750,6.15,85.25
43680,2018-06-29 09:07:37.000000,9.9,85.25
43681,2018-06-29 09:07:37.031250,14.13,85.25
43682,2018-06-29 09:07:37.062500,19.85,85.25
43683,2018-06-29 09:07:37.093750,25.91,85.25
43684,2018-06-29 09:07:37.125000,30.88,85.25
43685,2018-06-29 09:07:37.156250,34.21,85.25
43686,2018-06-29 09:07:37.187500,36.45,85.25
43687,2018-06-29 09:07:37.218750,38.31,85.25
43688,2018-06-29 09:07:37.250000,39.47,85.25
43689,2018-06-29 09:07:37.281250,39.24,85.25
43690,2018-06-29 09:07:37.312500,37.78,85.25
43691,2018-06-29 09:07:37.343750,35.44,85.25
43692,2018-06-29 09:07:37.375000,32.39,85.25
43693,2018-06-29 09:07:37.406250,28.82,85.25
43694,2018-06-29 09:07:37.437500,24.51,85.25
43695,2018-06-29 09:07:37.468750,18.99,85.25
43696,2018-06-29 09:07:37.500000,12.83,85.25
43697,2018-06-29 09:07:37.531250,7.08,85.0
43698,2018-06-29 09:07:37.562500,1.68,85.0
43699,2018-06-29 09:07:37.593750,-4.29,85.0
43700,2018-06-29 09:07:37.625000,-10.58,85.0
43701,2018-06-29 09:07:37.656250,-15.75,85.0
43702,2018-06-29 09:07:37.687500,-19.81,85.0
43703,2018-06-29 09:07:37.718750,-24.82,85.0
43704,2018-06-29 09:07:37.750000,-32.41,85.0
43705,2018-06-29 09:07:37.781250,-41.88,85.0
43706,2018-06-29 09:07:37.812500,-49.94,85.0
43707,2018-06-29 09:07:37.843750,-51.62,85.0
43708,2018-06-29 09:07:37.875000,-43.89,85.0
43709,2018-06-29 09:07:37.906250,-29.3,85.0
43710,2018-06-29 09:07:37.937500,-13.8,85.0
43711,2018-06-29 09:07:37.968750,-1.54,85.0
43712,2018-06-29 09:07:38.000000,7.35,85.0
43713,2018-06-29 09:07:38.031250,15.78,85.0
43714,2018-06-29 09:07:38.062500,27.51,85.0
43715,2018-06-29 09:07:38.093750,44.68,85.0
43716,2018-06-29 09:07:38.125000,67.54,85.0
43717,2018-06-29 09:07:38.156250,94.69,85.0
43718,2018-06-29 09:07:38.187500,121.67,85.0
43719,2018-06-29 09:07:38.218750,141.13,85.0
43720,2018-06-29 09:07:38.250000,145.81,85.0
43721,2018-06-29 09:07:38.281250,130.34,85.0
43722,2018-06-29 09:07:38.312500,95.37,85.0
43723,2018-06-29 09:07:38.343750,53.55,85.0
43724,2018-06-29 09:07:38.375000,22.42,85.0
43725,2018-06-29 09:07:38.406250,7.53,85.0
43726,2018-06-29 09:07:38.437500,1.04,85.0
43727,2018-06-29 09:07:38.468750,-4.8,85.0
43728,2018-06-29 09:07:38.500000,-13.05,85.0
43729,2018-06-29 09:07:38.531250,-25.37,84.68
43730,2018-06-29 09:07:38.562500,-39.95,84.68
43731,2018-06-29 09:07:38.593750,-51.31,84.68
43732,2018-06-29 09:07:38.625000,-58.09,84.68
43733,2018-06-29 09:07:38.656250,-65.83,84.68
43734,2018-06-29 09:07:38.687500,-78.31,84.68
43735,2018-06-29 09:07:38.718750,-89.67,84.68
43736,2018-06-29 09:07:38.750000,-89.06,84.68
43737,2018-06-29 09:07:38.781250,-72.51,84.68
43738,2018-06-29 09:07:38.812500,-46.1,84.68
43739,2018-06-29 09:07:38.843750,-17.33,84.68
43740,2018-06-29 09:07:38.875000,11.96,84.68
43741,2018-06-29 09:07:38.906250,43.12,84.68
43742,2018-06-29 09:07:38.937500,75.9,84.68
43743,2018-06-29 09:07:38.968750,108.22,84.68
43744,2018-06-29 09:07:39.000000,139.05,84.68
43745,2018-06-29 09:07:39.031250,168.59,84.68
43746,2018-06-29 09:07:39.062500,194.1,84.68
43747,2018-06-29 09:07:39.093750,210.26,84.68
43748,2018-06-29 09:07:39.125000,215.48,84.68
43749,2018-06-29 09:07:39.156250,212.9,84.68
43750,2018-06-29 09:07:39.187500,205.45,84.68
43751,2018-06-29 09:07:39.218750,194.19,84.68
43752,2018-06-29 09:07:39.250000,175.88,84.68
43753,2018-06-29 09:07:39.281250,140.56,84.68
43754,2018-06-29 09:07:39.312500,80.53,84.68
43755,2018-06-29 09:07:39.343750,2.45,84.68
43756,2018-06-29 09:07:39.375000,-74.37,84.68
43757,2018-06-29 09:07:39.406250,-130.21,84.68
43758,2018-06-29 09:07:39.437500,-156.7,84.68
43759,2018-06-29 09:07:39.468750,-161.72,84.68
43760,2018-06-29 09:07:39.500000,-160.87,84.68
43761,2018-06-29 09:07:39.531250,-162.5,84.35
43762,2018-06-29 09:07:39.562500,-162.26,84.35
43763,2018-06-29 09:07:39.593750,-150.84,84.35
43764,2018-06-29 09:07:39.625000,-125.95,84.35
43765,2018-06-29 09:07:39.656250,-96.39,84.35
43766,2018-06-29 09:07:39.687500,-71.9,84.35
43767,2018-06-29 09:07:39.718750,-52.72,84.35
43768,2018-06-29 09:07:39.750000,-33.61,84.35
43769,2018-06-29 09:07:39.781250,-14.78,84.35
43770,2018-06-29 09:07:39.812500,-0.87,84.35
43771,2018-06-29 09:07:39.843750,12.07,84.35
43772,2018-06-29 09:07:39.875000,38.94,84.35
43773,2018-06-29 09:07:39.906250,86.64,84.35
43774,2018-06-29 09:07:39.937500,136.1,84.35
43775,2018-06-29 09:07:39.968750,161.55,84.35
43776,2018-06-29 09:07:40.000000,161.16,84.35
43777,2018-06-29 09:07:40.031250,149.59,84.35
43778,2018-06-29 09:07:40.062500,125.9,84.35
43779,2018-06-29 09:07:40.093750,76.49,84.35
43780,2018-06-29 09:07:40.125000,8.91,84.35
43781,2018-06-29 09:07:40.156250,-49.37,84.35
43782,2018-06-29 09:07:40.187500,-74.8,84.35
43783,2018-06-29 09:07:40.218750,-65.84,84.35
43784,2018-06-29 09:07:40.250000,-39.76,84.35
43785,2018-06-29 09:07:40.281250,-27.46,84.35
43786,2018-06-29 09:07:40.312500,-21.44,84.35
43787,2018-06-29 09:07:40.343750,42.25,84.35
43788,2018-06-29 09:07:40.375000,185.54,84.35
43789,2018-06-29 09:07:40.406250,326.68,84.35
43790,2018-06-29 09:07:40.437500,371.55,84.35
43791,2018-06-29 09:07:40.468750,338.54,84.35
43792,2018-06-29 09:07:40.500000,287.97,84.35
43793,2018-06-29 09:07:40.531250,235.84,83.97
43794,2018-06-29 09:07:40.562500,161.6,83.97
43795,2018-06-29 09:07:40.593750,56.21,83.97
43796,2018-06-29 09:07:40.625000,-78.32,83.97
43797,2018-06-29 09:07:40.656250,-263.07,83.97
43798,2018-06-29 09:07:40.687500,-391.6,83.97
43799,2018-06-29 09:07:40.718750,-394.74,83.97
43800,2018-06-29 09:07:40.750000,-338.58,83.97
43801,2018-06-29 09:07:40.781250,-280.91,83.97
43802,2018-06-29 09:07:40.812500,-234.61,83.97
43803,2018-06-29 09:07:40.843750,-204.98,83.97
43804,2018-06-29 09:07:40.875000,-183.71,83.97
43805,2018-06-29 09:07:40.906250,-155.39,83.97
43806,2018-06-29 09:07:40.937500,-121.29,83.97
43807,2018-06-29 09:07:40.968750,-90.86,83.97
43808,2018-06-29 09:07:41.000000,-75.2,83.97
43809,2018-06-29 09:07:41.031250,-67.84,83.97
43810,2018-06-29 09:07:41.062500,-61.42,83.97
43811,2018-06-29 09:07:41.093750,-53.68,83.97
43812,2018-06-29 09:07:41.125000,-49.38,83.97
43813,2018-06-29 09:07:41.156250,-50.73,83.97
43814,2018-06-29 09:07:41.187500,-51.79,83.97
43815,2018-06-29 09:07:41.218750,-49.16,83.97
43816,2018-06-29 09:07:41.250000,-42.68,83.97
43817,2018-06-29 09:07:41.281250,-37.01,83.97
43818,2018-06-29 09:07:41.312500,-33.6,83.97
43819,2018-06-29 09:07:41.343750,-30.91,83.97
43820,2018-06-29 09:07:41.375000,-26.94,83.97
43821,2018-06-29 09:07:41.406250,-22.5,83.97
43822,2018-06-29 09:07:41.437500,-20.5,83.97
43823,2018-06-29 09:07:41.468750,-21.47,83.97
43824,2018-06-29 09:07:41.500000,-23.67,83.97
43825,2018-06-29 09:07:41.531250,-25.44,83.6
43826,2018-06-29 09:07:41.562500,-27.36,83.6
43827,2018-06-29 09:07:41.593750,-30.95,83.6
43828,2018-06-29 09:07:41.625000,-35.62,83.6
43829,2018-06-29 09:07:41.656250,-38.77,83.6
43830,2018-06-29 09:07:41.687500,-40.08,83.6
43831,2018-06-29 09:07:41.718750,-43.29,83.6
43832,2018-06-29 09:07:41.750000,-51.08,83.6
43833,2018-06-29 09:07:41.781250,-61.57,83.6
43834,2018-06-29 09:07:41.812500,-66.77,83.6
43835,2018-06-29 09:07:41.843750,-58.37,83.6
43836,2018-06-29 09:07:41.875000,-35.85,83.6
43837,2018-06-29 09:07:41.906250,-8.46,83.6
43838,2018-06-29 09:07:41.937500,15.23,83.6
43839,2018-06-29 09:07:41.968750,33.64,83.6
43840,2018-06-29 09:07:42.000000,45.47,83.6
43841,2018-06-29 09:07:42.031250,49.89,83.6
43842,2018-06-29 09:07:42.062500,49.94,83.6
43843,2018-06-29 09:07:42.093750,54.23,83.6
43844,2018-06-29 09:07:42.125000,58.61,83.6
43845,2018-06-29 09:07:42.156250,56.09,83.6
43846,2018-06-29 09:07:42.187500,50.52,83.6
43847,2018-06-29 09:07:42.218750,55.39,83.6
43848,2018-06-29 09:07:42.250000,73.17,83.6
43849,2018-06-29 09:07:42.281250,84.81,83.6
43850,2018-06-29 09:07:42.312500,86.43,83.6
43851,2018-06-29 09:07:42.343750,89.61,83.6
43852,2018-06-29 09:07:42.375000,115.17,83.6
43853,2018-06-29 09:07:42.406250,147.0,83.6
43854,2018-06-29 09:07:42.437500,163.94,83.6
43855,2018-06-29 09:07:42.468750,171.9,83.6
43856,2018-06-29 09:07:42.500000,205.93,83.6
43857,2018-06-29 09:07:42.531250,293.17,83.3
43858,2018-06-29 09:07:42.562500,402.4,83.3
43859,2018-06-29 09:07:42.593750,495.96,83.3
43860,2018-06-29 09:07:42.625000,449.29,83.3
43861,2018-06-29 09:07:42.656250,233.31,83.3
43862,2018-06-29 09:07:42.687500,33.78,83.3
43863,2018-06-29 09:07:42.718750,-101.16,83.3
43864,2018-06-29 09:07:42.750000,-193.08,83.3
43865,2018-06-29 09:07:42.781250,-218.66,83.3
43866,2018-06-29 09:07:42.812500,-181.43,83.3
43867,2018-06-29 09:07:42.843750,-145.39,83.3
43868,2018-06-29 09:07:42.875000,-134.17,83.3
43869,2018-06-29 09:07:42.906250,-129.34,83.3
43870,2018-06-29 09:07:42.937500,-106.08,83.3
43871,2018-06-29 09:07:42.968750,-82.36,83.3
43872,2018-06-29 09:07:43.000000,-78.19,83.3
43873,2018-06-29 09:07:43.031250,-86.95,83.3
43874,2018-06-29 09:07:43.062500,-88.2,83.3
43875,2018-06-29 09:07:43.093750,-75.49,83.3
43876,2018-06-29 09:07:43.125000,-67.02,83.3
43877,2018-06-29 09:07:43.156250,-75.9,83.3
43878,2018-06-29 09:07:43.187500,-100.31,83.3
43879,2018-06-29 09:07:43.218750,-115.35,83.3
43880,2018-06-29 09:07:43.250000,-104.47,83.3
43881,2018-06-29 09:07:43.281250,-63.22,83.3
43882,2018-06-29 09:07:43.312500,-17.15,83.3
43883,2018-06-29 09:07:43.343750,3.56,83.3
43884,2018-06-29 09:07:43.375000,-1.14,83.3
43885,2018-06-29 09:07:43.406250,-19.5,83.3
43886,2018-06-29 09:07:43.437500,-44.95,83.3
43887,2018-06-29 09:07:43.468750,-69.26,83.3
43888,2018-06-29 09:07:43.500000,-84.43,83.3
43889,2018-06-29 09:07:43.531250,-91.41,83.08
43890,2018-06-29 09:07:43.562500,-94.48,83.08
43891,2018-06-29 09:07:43.593750,-93.42,83.08
43892,2018-06-29 09:07:43.625000,-84.66,83.08
43893,2018-06-29 09:07:43.656250,-73.93,83.08
43894,2018-06-29 09:07:43.687500,-71.16,83.08
43895,2018-06-29 09:07:43.718750,-76.81,83.08
43896,2018-06-29 09:07:43.750000,-80.78,83.08
43897,2018-06-29 09:07:43.781250,-80.45,83.08
43898,2018-06-29 09:07:43.812500,-81.46,83.08
43899,2018-06-29 09:07:43.843750,-84.82,83.08
43900,2018-06-29 09:07:43.875000,-81.15,83.08
43901,2018-06-29 09:07:43.906250,-65.38,83.08
43902,2018-06-29 09:07:43.937500,-39.13,83.08
43903,2018-06-29 09:07:43.968750,0.53,83.08
43904,2018-06-29 09:07:44.000000,54.3,83.08
43905,2018-06-29 09:07:44.031250,117.54,83.08
43906,2018-06-29 09:07:44.062500,181.54,83.08
43907,2018-06-29 09:07:44.093750,239.2,83.08
43908,2018-06-29 09:07:44.125000,252.96,83.08
43909,2018-06-29 09:07:44.156250,191.36,83.08
43910,2018-06-29 09:07:44.187500,120.34,83.08
43911,2018-06-29 09:07:44.218750,84.79,83.08
43912,2018-06-29 09:07:44.250000,63.55,83.08
43913,2018-06-29 09:07:44.281250,34.96,83.08
43914,2018-06-29 09:07:44.312500,16.57,83.08
43915,2018-06-29 09:07:44.343750,19.8,83.08
43916,2018-06-29 09:07:44.375000,17.65,83.08
43917,2018-06-29 09:07:44.406250,-20.32,83.08
43918,2018-06-29 09:07:44.437500,-93.1,83.08
43919,2018-06-29 09:07:44.468750,-165.47,83.08
43920,2018-06-29 09:07:44.500000,-194.47,83.08
43921,2018-06-29 09:07:44.531250,-147.96,83.0
43922,2018-06-29 09:07:44.562500,-43.77,83.0
43923,2018-06-29 09:07:44.593750,3.23,83.0
43924,2018-06-29 09:07:44.625000,-16.16,83.0
43925,2018-06-29 09:07:44.656250,-39.3,83.0
43926,2018-06-29 09:07:44.687500,-47.39,83.0
43927,2018-06-29 09:07:44.718750,-51.97,83.0
43928,2018-06-29 09:07:44.750000,-43.55,83.0
43929,2018-06-29 09:07:44.781250,-22.5,83.0
43930,2018-06-29 09:07:44.812500,-11.55,83.0
43931,2018-06-29 09:07:44.843750,-19.36,83.0
43932,2018-06-29 09:07:44.875000,-27.99,83.0
43933,2018-06-29 09:07:44.906250,-24.11,83.0
43934,2018-06-29 09:07:44.937500,-23.33,83.0
43935,2018-06-29 09:07:44.968750,-41.89,83.0
43936,2018-06-29 09:07:45.000000,-70.5,83.0
43937,2018-06-29 09:07:45.031250,-78.14,83.0
43938,2018-06-29 09:07:45.062500,-55.97,83.0
43939,2018-06-29 09:07:45.093750,-25.42,83.0
43940,2018-06-29 09:07:45.125000,-7.23,83.0
43941,2018-06-29 09:07:45.156250,-0.06,83.0
43942,2018-06-29 09:07:45.187500,5.59,83.0
43943,2018-06-29 09:07:45.218750,8.53,83.0
43944,2018-06-29 09:07:45.250000,5.87,83.0
43945,2018-06-29 09:07:45.281250,0.81,83.0
43946,2018-06-29 09:07:45.312500,-1.14,83.0
43947,2018-06-29 09:07:45.343750,0.42,83.0
43948,2018-06-29 09:07:45.375000,3.17,83.0
43949,2018-06-29 09:07:45.406250,6.08,83.0
43950,2018-06-29 09:07:45.437500,9.07,83.0
43951,2018-06-29 09:07:45.468750,11.43,83.0
43952,2018-06-29 09:07:45.500000,12.54,83.0
43953,2018-06-29 09:07:45.531250,14.06,82.97
43954,2018-06-29 09:07:45.562500,18.6,82.97
43955,2018-06-29 09:07:45.593750,25.66,82.97
43956,2018-06-29 09:07:45.625000,31.96,82.97
43957,2018-06-29 09:07:45.656250,35.4,82.97
43958,2018-06-29 09:07:45.687500,36.9,82.97
43959,2018-06-29 09:07:45.718750,38.73,82.97
43960,2018-06-29 09:07:45.750000,41.73,82.97
43961,2018-06-29 09:07:45.781250,42.89,82.97
43962,2018-06-29 09:07:45.812500,37.39,82.97
43963,2018-06-29 09:07:45.843750,25.03,82.97
43964,2018-06-29 09:07:45.875000,11.69,82.97
43965,2018-06-29 09:07:45.906250,2.07,82.97
43966,2018-06-29 09:07:45.937500,-6.2,82.97
43967,2018-06-29 09:07:45.968750,-19.42,82.97
43968,2018-06-29 09:07:46.000000,-40.24,82.97
43969,2018-06-29 09:07:46.031250,-61.55,82.97
43970,2018-06-29 09:07:46.062500,-68.28,82.97
43971,2018-06-29 09:07:46.093750,-51.59,82.97
43972,2018-06-29 09:07:46.125000,-20.52,82.97
43973,2018-06-29 09:07:46.156250,7.68,82.97
43974,2018-06-29 09:07:46.187500,25.91,82.97
43975,2018-06-29 09:07:46.218750,37.48,82.97
43976,2018-06-29 09:07:46.250000,44.21,82.97
43977,2018-06-29 09:07:46.281250,44.69,82.97
43978,2018-06-29 09:07:46.312500,40.75,82.97
43979,2018-06-29 09:07:46.343750,36.86,82.97
43980,2018-06-29 09:07:46.375000,34.61,82.97
43981,2018-06-29 09:07:46.406250,33.15,82.97
43982,2018-06-29 09:07:46.437500,33.37,82.97
43983,2018-06-29 09:07:46.468750,36.38,82.97
43984,2018-06-29 09:07:46.500000,40.08,82.97
43985,2018-06-29 09:07:46.531250,42.47,82.93
43986,2018-06-29 09:07:46.562500,46.12,82.93
43987,2018-06-29 09:07:46.593750,53.42,82.93
43988,2018-06-29 09:07:46.625000,60.58,82.93
43989,2018-06-29 09:07:46.656250,62.68,82.93
43990,2018-06-29 09:07:46.687500,62.15,82.93
43991,2018-06-29 09:07:46.718750,66.06,82.93
43992,2018-06-29 09:07:46.750000,75.6,82.93
43993,2018-06-29 09:07:46.781250,83.66,82.93
43994,2018-06-29 09:07:46.812500,84.08,82.93
43995,2018-06-29 09:07:46.843750,79.55,82.93
43996,2018-06-29 09:07:46.875000,77.74,82.93
43997,2018-06-29 09:07:46.906250,80.51,82.93
43998,2018-06-29 09:07:46.937500,75.4,82.93
43999,2018-06-29 09:07:46.968750,40.49,82.93
44000,2018-06-29 09:07:47.000000,-30.11,82.93
44001,2018-06-29 09:07:47.031250,-109.5,82.93
44002,2018-06-29 09:07:47.062500,-163.36,82.93
44003,2018-06-29 09:07:47.093750,-184.06,82.93
44004,2018-06-29 09:07:47.125000,-185.1,82.93
44005,2018-06-29 09:07:47.156250,-179.21,82.93
44006,2018-06-29 09:07:47.187500,-173.38,82.93
44007,2018-06-29 09:07:47.218750,-166.29,82.93
44008,2018-06-29 09:07:47.250000,-146.92,82.93
44009,2018-06-29 09:07:47.281250,-110.53,82.93
44010,2018-06-29 09:07:47.312500,-69.09,82.93
44011,2018-06-29 09:07:47.343750,-36.45,82.93
44012,2018-06-29 09:07:47.375000,-13.95,82.93
44013,2018-06-29 09:07:47.406250,3.64,82.93
44014,2018-06-29 09:07:47.437500,18.26,82.93
44015,2018-06-29 09:07:47.468750,29.59,82.93
44016,2018-06-29 09:07:47.500000,38.87,82.93
44017,2018-06-29 09:07:47.531250,47.39,82.95
44018,2018-06-29 09:07:47.562500,54.64,82.95
44019,2018-06-29 09:07:47.593750,61.19,82.95
44020,2018-06-29 09:07:47.625000,71.08,82.95
44021,2018-06-29 09:07:47.656250,88.74,82.95
44022,2018-06-29 09:07:47.687500,113.23,82.95
44023,2018-06-29 09:07:47.718750,136.86,82.95
44024,2018-06-29 09:07:47.750000,151.49,82.95
44025,2018-06-29 09:07:47.781250,156.15,82.95
44026,2018-06-29 09:07:47.812500,156.08,82.95
44027,2018-06-29 09:07:47.843750,154.64,82.95
44028,2018-06-29 09:07:47.875000,149.68,82.95
44029,2018-06-29 09:07:47.906250,136.94,82.95
44030,2018-06-29 09:07:47.937500,115.43,82.95
44031,2018-06-29 09:07:47.968750,90.69,82.95
44032,2018-06-29 09:07:48.000000,70.88,82.95
44033,2018-06-29 09:07:48.031250,58.12,82.95
44034,2018-06-29 09:07:48.062500,47.15,82.95
44035,2018-06-29 09:07:48.093750,33.01,82.95
44036,2018-06-29 09:07:48.125000,16.43,82.95
44037,2018-06-29 09:07:48.156250,2.99,82.95
44038,2018-06-29 09:07:48.187500,-0.93,82.95
44039,2018-06-29 09:07:48.218750,4.72,82.95
44040,2018-06-29 09:07:48.250000,11.17,82.95
44041,2018-06-29 09:07:48.281250,10.25,82.95
44042,2018-06-29 09:07:48.312500,2.73,82.95
44043,2018-06-29 09:07:48.343750,-7.2,82.95
44044,2018-06-29 09:07:48.375000,-19.57,82.95
44045,2018-06-29 09:07:48.406250,-35.08,82.95
44046,2018-06-29 09:07:48.437500,-48.84,82.95
44047,2018-06-29 09:07:48.468750,-54.54,82.95
44048,2018-06-29 09:07:48.500000,-52.33,82.95
44049,2018-06-29 09:07:48.531250,-47.82,82.97
44050,2018-06-29 09:07:48.562500,-45.22,82.97
44051,2018-06-29 09:07:48.593750,-45.17,82.97
44052,2018-06-29 09:07:48.625000,-47.15,82.97
44053,2018-06-29 09:07:48.656250,-50.64,82.97
44054,2018-06-29 09:07:48.687500,-54.59,82.97
44055,2018-06-29 09:07:48.718750,-57.67,82.97
44056,2018-06-29 09:07:48.750000,-59.16,82.97
44057,2018-06-29 09:07:48.781250,-59.59,82.97
44058,2018-06-29 09:07:48.812500,-60.14,82.97
44059,2018-06-29 09:07:48.843750,-60.69,82.97
44060,2018-06-29 09:07:48.875000,-59.49,82.97
44061,2018-06-29 09:07:48.906250,-55.3,82.97
44062,2018-06-29 09:07:48.937500,-48.75,82.97
44063,2018-06-29 09:07:48.968750,-41.21,82.97
44064,2018-06-29 09:07:49.000000,-34.81,82.97
44065,2018-06-29 09:07:49.031250,-32.42,82.97
44066,2018-06-29 09:07:49.062500,-32.58,82.97
44067,2018-06-29 09:07:49.093750,-27.31,82.97
44068,2018-06-29 09:07:49.125000,-11.26,82.97
44069,2018-06-29 09:07:49.156250,12.65,82.97
44070,2018-06-29 09:07:49.187500,39.58,82.97
44071,2018-06-29 09:07:49.218750,63.96,82.97
44072,2018-06-29 09:07:49.250000,73.58,82.97
44073,2018-06-29 09:07:49.281250,56.4,82.97
44074,2018-06-29 09:07:49.312500,15.2,82.97
44075,2018-06-29 09:07:49.343750,-32.43,82.97
44076,2018-06-29 09:07:49.375000,-66.75,82.97
44077,2018-06-29 09:07:49.406250,-76.22,82.97
44078,2018-06-29 09:07:49.437500,-61.54,82.97
44079,2018-06-29 09:07:49.468750,-33.39,82.97
44080,2018-06-29 09:07:49.500000,-4.94,82.97
44081,2018-06-29 09:07:49.531250,15.12,82.97
44082,2018-06-29 09:07:49.562500,25.7,82.97
44083,2018-06-29 09:07:49.593750,31.8,82.97
44084,2018-06-29 09:07:49.625000,38.97,82.97
44085,2018-06-29 09:07:49.656250,48.62,82.97
44086,2018-06-29 09:07:49.687500,58.92,82.97
44087,2018-06-29 09:07:49.718750,67.18,82.97
44088,2018-06-29 09:07:49.750000,69.71,82.97
44089,2018-06-29 09:07:49.781250,63.05,82.97
44090,2018-06-29 09:07:49.812500,48.02,82.97
44091,2018-06-29 09:07:49.843750,28.84,82.97
44092,2018-06-29 09:07:49.875000,5.92,82.97
44093,2018-06-29 09:07:49.906250,-22.75,82.97
44094,2018-06-29 09:07:49.937500,-48.48,82.97
44095,2018-06-29 09:07:49.968750,-50.39,82.97
44096,2018-06-29 09:07:50.000000,-18.05,82.97
44097,2018-06-29 09:07:50.031250,32.17,82.97
44098,2018-06-29 09:07:50.062500,73.28,82.97
44099,2018-06-29 09:07:50.093750,93.55,82.97
44100,2018-06-29 09:07:50.125000,102.54,82.97
44101,2018-06-29 09:07:50.156250,121.29,82.97
44102,2018-06-29 09:07:50.187500,163.88,82.97
44103,2018-06-29 09:07:50.218750,215.54,82.97
44104,2018-06-29 09:07:50.250000,236.94,82.97
44105,2018-06-29 09:07:50.281250,202.6,82.97
44106,2018-06-29 09:07:50.312500,125.39,82.97
44107,2018-06-29 09:07:50.343750,36.48,82.97
44108,2018-06-29 09:07:50.375000,-43.17,82.97
44109,2018-06-29 09:07:50.406250,-105.74,82.97
44110,2018-06-29 09:07:50.437500,-149.54,82.97
44111,2018-06-29 09:07:50.468750,-177.91,82.97
44112,2018-06-29 09:07:50.500000,-195.25,82.97
44113,2018-06-29 09:07:50.531250,-200.49,83.03
44114,2018-06-29 09:07:50.562500,-190.87,83.03
44115,2018-06-29 09:07:50.593750,-170.53,83.03
44116,2018-06-29 09:07:50.625000,-146.82,83.03
44117,2018-06-29 09:07:50.656250,-121.38,83.03
44118,2018-06-29 09:07:50.687500,-93.39,83.03
44119,2018-06-29 09:07:50.718750,-66.9,83.03
44120,2018-06-29 09:07:50.750000,-49.82,83.03
44121,2018-06-29 09:07:50.781250,-44.27,83.03
44122,2018-06-29 09:07:50.812500,-42.0,83.03
44123,2018-06-29 09:07:50.843750,-31.18,83.03
44124,2018-06-29 09:07:50.875000,-10.19,83.03
44125,2018-06-29 09:07:50.906250,10.45,83.03
44126,2018-06-29 09:07:50.937500,21.72,83.03
44127,2018-06-29 09:07:50.968750,25.15,83.03
44128,2018-06-29 09:07:51.000000,30.58,83.03
44129,2018-06-29 09:07:51.031250,44.36,83.03
44130,2018-06-29 09:07:51.062500,67.75,83.03
44131,2018-06-29 09:07:51.093750,89.01,83.03
44132,2018-06-29 09:07:51.125000,89.56,83.03
44133,2018-06-29 09:07:51.156250,60.3,83.03
44134,2018-06-29 09:07:51.187500,17.8,83.03
44135,2018-06-29 09:07:51.218750,-4.71,83.03
44136,2018-06-29 09:07:51.250000,3.12,83.03
44137,2018-06-29 09:07:51.281250,25.65,83.03
44138,2018-06-29 09:07:51.312500,35.6,83.03
44139,2018-06-29 09:07:51.343750,36.23,83.03
44140,2018-06-29 09:07:51.375000,39.21,83.03
44141,2018-06-29 09:07:51.406250,37.56,83.03
44142,2018-06-29 09:07:51.437500,2.46,83.03
44143,2018-06-29 09:07:51.468750,-80.02,83.03
44144,2018-06-29 09:07:51.500000,-174.36,83.03
44145,2018-06-29 09:07:51.531250,-237.11,83.08
44146,2018-06-29 09:07:51.562500,-197.54,83.08
44147,2018-06-29 09:07:51.593750,-84.94,83.08
44148,2018-06-29 09:07:51.625000,-31.14,83.08
44149,2018-06-29 09:07:51.656250,-32.79,83.08
44150,2018-06-29 09:07:51.687500,-33.83,83.08
44151,2018-06-29 09:07:51.718750,-19.73,83.08
44152,2018-06-29 09:07:51.750000,-1.22,83.08
44153,2018-06-29 09:07:51.781250,31.85,83.08
44154,2018-06-29 09:07:51.812500,68.29,83.08
44155,2018-06-29 09:07:51.843750,95.18,83.08
44156,2018-06-29 09:07:51.875000,106.8,83.08
44157,2018-06-29 09:07:51.906250,112.52,83.08
44158,2018-06-29 09:07:51.937500,115.26,83.08
44159,2018-06-29 09:07:51.968750,110.38,83.08
44160,2018-06-29 09:07:52.000000,85.25,83.08
44161,2018-06-29 09:07:52.031250,43.82,83.08
44162,2018-06-29 09:07:52.062500,11.62,83.08
44163,2018-06-29 09:07:52.093750,-4.05,83.08
44164,2018-06-29 09:07:52.125000,2.04,83.08
44165,2018-06-29 09:07:52.156250,12.95,83.08
44166,2018-06-29 09:07:52.187500,10.85,83.08
44167,2018-06-29 09:07:52.218750,1.76,83.08
44168,2018-06-29 09:07:52.250000,-8.95,83.08
44169,2018-06-29 09:07:52.281250,-15.24,83.08
44170,2018-06-29 09:07:52.312500,-15.64,83.08
44171,2018-06-29 09:07:52.343750,-14.05,83.08
44172,2018-06-29 09:07:52.375000,-12.49,83.08
44173,2018-06-29 09:07:52.406250,-11.48,83.08
44174,2018-06-29 09:07:52.437500,-14.22,83.08
44175,2018-06-29 09:07:52.468750,-20.09,83.08
44176,2018-06-29 09:07:52.500000,-22.74,83.08
44177,2018-06-29 09:07:52.531250,-19.97,83.18
44178,2018-06-29 09:07:52.562500,-16.56,83.18
44179,2018-06-29 09:07:52.593750,-18.35,83.18
44180,2018-06-29 09:07:52.625000,-25.34,83.18
44181,2018-06-29 09:07:52.656250,-35.58,83.18
44182,2018-06-29 09:07:52.687500,-47.12,83.18
44183,2018-06-29 09:07:52.718750,-57.98,83.18
44184,2018-06-29 09:07:52.750000,-66.45,83.18
44185,2018-06-29 09:07:52.781250,-72.72,83.18
44186,2018-06-29 09:07:52.812500,-79.4,83.18
44187,2018-06-29 09:07:52.843750,-87.6,83.18
44188,2018-06-29 09:07:52.875000,-92.92,83.18
44189,2018-06-29 09:07:52.906250,-86.61,83.18
44190,2018-06-29 09:07:52.937500,-66.2,83.18
44191,2018-06-29 09:07:52.968750,-40.34,83.18
44192,2018-06-29 09:07:53.000000,-19.62,83.18
44193,2018-06-29 09:07:53.031250,-6.81,83.18
44194,2018-06-29 09:07:53.062500,1.16,83.18
44195,2018-06-29 09:07:53.093750,6.44,83.18
44196,2018-06-29 09:07:53.125000,9.44,83.18
44197,2018-06-29 09:07:53.156250,11.32,83.18
44198,2018-06-29 09:07:53.187500,13.78,83.18
44199,2018-06-29 09:07:53.218750,16.95,83.18
44200,2018-06-29 09:07:53.250000,19.6,83.18
44201,2018-06-29 09:07:53.281250,21.32,83.18
44202,2018-06-29 09:07:53.312500,22.62,83.18
44203,2018-06-29 09:07:53.343750,23.44,83.18
44204,2018-06-29 09:07:53.375000,23.41,83.18
44205,2018-06-29 09:07:53.406250,22.75,83.18
44206,2018-06-29 09:07:53.437500,21.67,83.18
44207,2018-06-29 09:07:53.468750,20.01,83.18
44208,2018-06-29 09:07:53.500000,18.1,83.18
44209,2018-06-29 09:07:53.531250,17.14,83.27
44210,2018-06-29 09:07:53.562500,17.55,83.27
44211,2018-06-29 09:07:53.593750,18.0,83.27
44212,2018-06-29 09:07:53.625000,18.83,83.27
44213,2018-06-29 09:07:53.656250,23.95,83.27
44214,2018-06-29 09:07:53.687500,34.84,83.27
44215,2018-06-29 09:07:53.718750,45.41,83.27
44216,2018-06-29 09:07:53.750000,46.75,83.27
44217,2018-06-29 09:07:53.781250,35.01,83.27
44218,2018-06-29 09:07:53.812500,13.51,83.27
44219,2018-06-29 09:07:53.843750,-10.88,83.27
44220,2018-06-29 09:07:53.875000,-33.07,83.27
44221,2018-06-29 09:07:53.906250,-52.49,83.27
44222,2018-06-29 09:07:53.937500,-70.78,83.27
44223,2018-06-29 09:07:53.968750,-86.89,83.27
44224,2018-06-29 09:07:54.000000,-94.79,83.27
44225,2018-06-29 09:07:54.031250,-89.1,83.27
44226,2018-06-29 09:07:54.062500,-73.32,83.27
44227,2018-06-29 09:07:54.093750,-57.63,83.27
44228,2018-06-29 09:07:54.125000,-47.62,83.27
44229,2018-06-29 09:07:54.156250,-40.72,83.27
44230,2018-06-29 09:07:54.187500,-33.29,83.27
44231,2018-06-29 09:07:54.218750,-25.33,83.27
44232,2018-06-29 09:07:54.250000,-18.2,83.27
44233,2018-06-29 09:07:54.281250,-11.49,83.27
44234,2018-06-29 09:07:54.312500,-3.53,83.27
44235,2018-06-29 09:07:54.343750,5.93,83.27
44236,2018-06-29 09:07:54.375000,14.98,83.27
44237,2018-06-29 09:07:54.406250,21.73,83.27
44238,2018-06-29 09:07:54.437500,25.69,83.27
44239,2018-06-29 09:07:54.468750,26.93,83.27
44240,2018-06-29 09:07:54.500000,25.51,83.27
44241,2018-06-29 09:07:54.531250,22.39,83.35
44242,2018-06-29 09:07:54.562500,20.17,83.35
44243,2018-06-29 09:07:54.593750,20.38,83.35
44244,2018-06-29 09:07:54.625000,21.23,83.35
44245,2018-06-29 09:07:54.656250,20.68,83.35
44246,2018-06-29 09:07:54.687500,20.46,83.35
44247,2018-06-29 09:07:54.718750,23.42,83.35
44248,2018-06-29 09:07:54.750000,28.5,83.35
44249,2018-06-29 09:07:54.781250,31.94,83.35
44250,2018-06-29 09:07:54.812500,31.19,83.35
44251,2018-06-29 09:07:54.843750,25.58,83.35
44252,2018-06-29 09:07:54.875000,16.62,83.35
44253,2018-06-29 09:07:54.906250,8.28,83.35
44254,2018-06-29 09:07:54.937500,2.42,83.35
44255,2018-06-29 09:07:54.968750,-4.38,83.35
44256,2018-06-29 09:07:55.000000,-14.54,83.35
44257,2018-06-29 09:07:55.031250,-22.41,83.35
44258,2018-06-29 09:07:55.062500,-19.95,83.35
44259,2018-06-29 09:07:55.093750,-7.5,83.35
44260,2018-06-29 09:07:55.125000,6.82,83.35
44261,2018-06-29 09:07:55.156250,16.54,83.35
