,Time,ppg,hr
44800,2018-06-29 09:08:12.000000,-132.72,81.47
44801,2018-06-29 09:08:12.031250,-133.3,81.47
44802,2018-06-29 09:08:12.062500,-118.13,81.47
44803,2018-06-29 09:08:12.093750,-93.38,81.47
44804,2018-06-29 09:08:12.125000,-69.2,81.47
44805,2018-06-29 09:08:12.156250,-49.35,81.47
44806,2018-06-29 09:08:12.187500,-30.88,81.47
44807,2018-06-29 09:08:12.218750,-14.56,81.47
44808,2018-06-29 09:08:12.250000,-3.84,81.47
44809,2018-06-29 09:08:12.281250,1.97,81.47
44810,2018-06-29 09:08:12.312500,6.85,81.47
44811,2018-06-29 09:08:12.343750,13.01,81.47
44812,2018-06-29 09:08:12.375000,19.53,81.47
44813,2018-06-29 09:08:12.406250,25.27,81.47
44814,2018-06-29 09:08:12.437500,30.01,81.47
44815,2018-06-29 09:08:12.468750,33.41,81.47
44816,2018-06-29 09:08:12.500000,34.82,81.47
44817,2018-06-29 09:08:12.531250,34.31,81.3
44818,2018-06-29 09:08:12.562500,32.82,81.3
44819,2018-06-29 09:08:12.593750,31.31,81.3
44820,2018-06-29 09:08:12.625000,29.7,81.3
44821,2018-06-29 09:08:12.656250,26.76,81.3
44822,2018-06-29 09:08:12.687500,21.56,81.3
44823,2018-06-29 09:08:12.718750,14.51,81.3
44824,2018-06-29 09:08:12.750000,6.55,81.3
44825,2018-06-29 09:08:12.781250,-2.08,81.3
44826,2018-06-29 09:08:12.812500,-11.63,81.3
44827,2018-06-29 09:08:12.843750,-21.58,81.3
44828,2018-06-29 09:08:12.875000,-30.19,81.3
44829,2018-06-29 09:08:12.906250,-36.25,81.3
44830,2018-06-29 09:08:12.937500,-41.61,81.3
44831,2018-06-29 09:08:12.968750,-49.78,81.3
44832,2018-06-29 09:08:13.000000,-62.3,81.3
44833,2018-06-29 09:08:13.031250,-75.63,81.3
44834,2018-06-29 09:08:13.062500,-80.83,81.3
44835,2018-06-29 09:08:13.093750,-69.88,81.3
44836,2018-06-29 09:08:13.125000,-45.31,81.3
44837,2018-06-29 09:08:13.156250,-19.59,81.3
44838,2018-06-29 09:08:13.187500,-1.66,81.3
44839,2018-06-29 09:08:13.218750,10.48,81.3
44840,2018-06-29 09:08:13.250000,21.39,81.3
44841,2018-06-29 09:08:13.281250,30.6,81.3
44842,2018-06-29 09:08:13.312500,36.79,81.3
44843,2018-06-29 09:08:13.343750,41.53,81.3
44844,2018-06-29 09:08:13.375000,45.46,81.3
44845,2018-06-29 09:08:13.406250,46.58,81.3
44846,2018-06-29 09:08:13.437500,44.48,81.3
44847,2018-06-29 09:08:13.468750,41.31,81.3
44848,2018-06-29 09:08:13.500000,37.87,81.3
44849,2018-06-29 09:08:13.531250,33.15,81.08
44850,2018-06-29 09:08:13.562500,27.61,81.08
44851,2018-06-29 09:08:13.593750,23.51,81.08
44852,2018-06-29 09:08:13.625000,21.91,81.08
44853,2018-06-29 09:08:13.656250,21.33,81.08
44854,2018-06-29 09:08:13.687500,19.89,81.08
44855,2018-06-29 09:08:13.718750,17.53,81.08
44856,2018-06-29 09:08:13.750000,15.09,81.08
44857,2018-06-29 09:08:13.781250,12.28,81.08
44858,2018-06-29 09:08:13.812500,8.08,81.08
44859,2018-06-29 09:08:13.843750,2.69,81.08
44860,2018-06-29 09:08:13.875000,-2.21,81.08
44861,2018-06-29 09:08:13.906250,-4.89,81.08
44862,2018-06-29 09:08:13.937500,-5.27,81.08
44863,2018-06-29 09:08:13.968750,-5.51,81.08
44864,2018-06-29 09:08:14.000000,-8.56,81.08
44865,2018-06-29 09:08:14.031250,-15.3,81.08
44866,2018-06-29 09:08:14.062500,-24.14,81.08
44867,2018-06-29 09:08:14.093750,-33.6,81.08
44868,2018-06-29 09:08:14.125000,-44.47,81.08
44869,2018-06-29 09:08:14.156250,-58.98,81.08
44870,2018-06-29 09:08:14.187500,-76.93,81.08
44871,2018-06-29 09:08:14.218750,-91.83,81.08
44872,2018-06-29 09:08:14.250000,-94.58,81.08
44873,2018-06-29 09:08:14.281250,-83.27,81.08
44874,2018-06-29 09:08:14.312500,-64.29,81.08
44875,2018-06-29 09:08:14.343750,-42.47,81.08
44876,2018-06-29 09:08:14.375000,-17.82,81.08
44877,2018-06-29 09:08:14.406250,8.12,81.08
44878,2018-06-29 09:08:14.437500,30.64,81.08
44879,2018-06-29 09:08:14.468750,46.72,81.08
44880,2018-06-29 09:08:14.500000,56.43,81.08
44881,2018-06-29 09:08:14.531250,61.09,80.85
44882,2018-06-29 09:08:14.562500,62.59,80.85
44883,2018-06-29 09:08:14.593750,63.16,80.85
44884,2018-06-29 09:08:14.625000,64.24,80.85
44885,2018-06-29 09:08:14.656250,65.69,80.85
44886,2018-06-29 09:08:14.687500,66.54,80.85
44887,2018-06-29 09:08:14.718750,66.87,80.85
44888,2018-06-29 09:08:14.750000,67.39,80.85
44889,2018-06-29 09:08:14.781250,67.48,80.85
44890,2018-06-29 09:08:14.812500,65.61,80.85
44891,2018-06-29 09:08:14.843750,61.77,80.85
44892,2018-06-29 09:08:14.875000,57.46,80.85
44893,2018-06-29 09:08:14.906250,53.62,80.85
44894,2018-06-29 09:08:14.937500,50.47,80.85
44895,2018-06-29 09:08:14.968750,47.73,80.85
44896,2018-06-29 09:08:15.000000,43.87,80.85
44897,2018-06-29 09:08:15.031250,37.44,80.85
44898,2018-06-29 09:08:15.062500,29.53,80.85
44899,2018-06-29 09:08:15.093750,22.62,80.85
44900,2018-06-29 09:08:15.125000,17.54,80.85
44901,2018-06-29 09:08:15.156250,13.13,80.85
44902,2018-06-29 09:08:15.187500,7.35,80.85
44903,2018-06-29 09:08:15.218750,-1.09,80.85
44904,2018-06-29 09:08:15.250000,-10.94,80.85
44905,2018-06-29 09:08:15.281250,-20.0,80.85
44906,2018-06-29 09:08:15.312500,-29.01,80.85
44907,2018-06-29 09:08:15.343750,-41.06,80.85
44908,2018-06-29 09:08:15.375000,-56.75,80.85
44909,2018-06-29 09:08:15.406250,-70.86,80.85
44910,2018-06-29 09:08:15.437500,-74.53,80.85
44911,2018-06-29 09:08:15.468750,-63.23,80.85
44912,2018-06-29 09:08:15.500000,-42.12,80.85
44913,2018-06-29 09:08:15.531250,-20.8,80.55
44914,2018-06-29 09:08:15.562500,-4.09,80.55
44915,2018-06-29 09:08:15.593750,8.46,80.55
44916,2018-06-29 09:08:15.625000,17.81,80.55
44917,2018-06-29 09:08:15.656250,24.55,80.55
44918,2018-06-29 09:08:15.687500,30.31,80.55
44919,2018-06-29 09:08:15.718750,36.38,80.55
44920,2018-06-29 09:08:15.750000,42.19,80.55
44921,2018-06-29 09:08:15.781250,46.66,80.55
44922,2018-06-29 09:08:15.812500,49.67,80.55
44923,2018-06-29 09:08:15.843750,51.73,80.55
44924,2018-06-29 09:08:15.875000,52.94,80.55
44925,2018-06-29 09:08:15.906250,52.49,80.55
44926,2018-06-29 09:08:15.937500,49.77,80.55
44927,2018-06-29 09:08:15.968750,46.06,80.55
44928,2018-06-29 09:08:16.000000,43.6,80.55
44929,2018-06-29 09:08:16.031250,42.56,80.55
44930,2018-06-29 09:08:16.062500,41.15,80.55
44931,2018-06-29 09:08:16.093750,38.88,80.55
44932,2018-06-29 09:08:16.125000,36.63,80.55
44933,2018-06-29 09:08:16.156250,33.85,80.55
44934,2018-06-29 09:08:16.187500,28.94,80.55
44935,2018-06-29 09:08:16.218750,22.32,80.55
44936,2018-06-29 09:08:16.250000,16.21,80.55
44937,2018-06-29 09:08:16.281250,11.33,80.55
44938,2018-06-29 09:08:16.312500,6.91,80.55
44939,2018-06-29 09:08:16.343750,2.94,80.55
44940,2018-06-29 09:08:16.375000,-0.41,80.55
44941,2018-06-29 09:08:16.406250,-4.27,80.55
44942,2018-06-29 09:08:16.437500,-9.65,80.55
44943,2018-06-29 09:08:16.468750,-16.67,80.55
44944,2018-06-29 09:08:16.500000,-25.78,80.55
44945,2018-06-29 09:08:16.531250,-35.85,80.22
44946,2018-06-29 09:08:16.562500,-41.22,80.22
44947,2018-06-29 09:08:16.593750,-36.07,80.22
44948,2018-06-29 09:08:16.625000,-21.77,80.22
44949,2018-06-29 09:08:16.656250,-5.29,80.22
44950,2018-06-29 09:08:16.687500,7.88,80.22
44951,2018-06-29 09:08:16.718750,15.58,80.22
44952,2018-06-29 09:08:16.750000,18.0,80.22
44953,2018-06-29 09:08:16.781250,18.06,80.22
44954,2018-06-29 09:08:16.812500,19.32,80.22
44955,2018-06-29 09:08:16.843750,22.28,80.22
44956,2018-06-29 09:08:16.875000,25.11,80.22
44957,2018-06-29 09:08:16.906250,26.52,80.22
44958,2018-06-29 09:08:16.937500,26.24,80.22
44959,2018-06-29 09:08:16.968750,25.04,80.22
44960,2018-06-29 09:08:17.000000,24.35,80.22
44961,2018-06-29 09:08:17.031250,24.08,80.22
44962,2018-06-29 09:08:17.062500,22.04,80.22
44963,2018-06-29 09:08:17.093750,17.44,80.22
44964,2018-06-29 09:08:17.125000,13.22,80.22
44965,2018-06-29 09:08:17.156250,12.19,80.22
44966,2018-06-29 09:08:17.187500,12.92,80.22
44967,2018-06-29 09:08:17.218750,12.44,80.22
44968,2018-06-29 09:08:17.250000,11.11,80.22
44969,2018-06-29 09:08:17.281250,11.0,80.22
44970,2018-06-29 09:08:17.312500,11.43,80.22
44971,2018-06-29 09:08:17.343750,9.05,80.22
44972,2018-06-29 09:08:17.375000,1.4,80.22
44973,2018-06-29 09:08:17.406250,-10.64,80.22
44974,2018-06-29 09:08:17.437500,-21.42,80.22
44975,2018-06-29 09:08:17.468750,-23.65,80.22
44976,2018-06-29 09:08:17.500000,-18.62,80.22
44977,2018-06-29 09:08:17.531250,-16.96,79.83
44978,2018-06-29 09:08:17.562500,-22.32,79.83
44979,2018-06-29 09:08:17.593750,-24.18,79.83
44980,2018-06-29 09:08:17.625000,-14.21,79.83
44981,2018-06-29 09:08:17.656250,1.78,79.83
44982,2018-06-29 09:08:17.687500,13.68,79.83
44983,2018-06-29 09:08:17.718750,18.94,79.83
44984,2018-06-29 09:08:17.750000,20.42,79.83
44985,2018-06-29 09:08:17.781250,20.35,79.83
44986,2018-06-29 09:08:17.812500,20.0,79.83
44987,2018-06-29 09:08:17.843750,20.59,79.83
44988,2018-06-29 09:08:17.875000,21.24,79.83
44989,2018-06-29 09:08:17.906250,19.22,79.83
44990,2018-06-29 09:08:17.937500,14.25,79.83
44991,2018-06-29 09:08:17.968750,9.31,79.83
44992,2018-06-29 09:08:18.000000,6.41,79.83
44993,2018-06-29 09:08:18.031250,4.53,79.83
44994,2018-06-29 09:08:18.062500,1.73,79.83
44995,2018-06-29 09:08:18.093750,-2.39,79.83
44996,2018-06-29 09:08:18.125000,-6.34,79.83
44997,2018-06-29 09:08:18.156250,-8.76,79.83
44998,2018-06-29 09:08:18.187500,-10.49,79.83
44999,2018-06-29 09:08:18.218750,-13.62,79.83
45000,2018-06-29 09:08:18.250000,-19.15,79.83
45001,2018-06-29 09:08:18.281250,-25.47,79.83
45002,2018-06-29 09:08:18.312500,-28.51,79.83
45003,2018-06-29 09:08:18.343750,-24.95,79.83
45004,2018-06-29 09:08:18.375000,-15.97,79.83
45005,2018-06-29 09:08:18.406250,-5.82,79.83
45006,2018-06-29 09:08:18.437500,2.38,79.83
45007,2018-06-29 09:08:18.468750,7.52,79.83
45008,2018-06-29 09:08:18.500000,9.31,79.83
45009,2018-06-29 09:08:18.531250,8.86,79.45
45010,2018-06-29 09:08:18.562500,8.29,79.45
45011,2018-06-29 09:08:18.593750,8.66,79.45
45012,2018-06-29 09:08:18.625000,9.43,79.45
45013,2018-06-29 09:08:18.656250,9.9,79.45
45014,2018-06-29 09:08:18.687500,10.04,79.45
45015,2018-06-29 09:08:18.718750,10.13,79.45
45016,2018-06-29 09:08:18.750000,10.33,79.45
45017,2018-06-29 09:08:18.781250,10.33,79.45
45018,2018-06-29 09:08:18.812500,9.58,79.45
45019,2018-06-29 09:08:18.843750,8.2,79.45
45020,2018-06-29 09:08:18.875000,6.93,79.45
45021,2018-06-29 09:08:18.906250,6.18,79.45
45022,2018-06-29 09:08:18.937500,5.79,79.45
45023,2018-06-29 09:08:18.968750,5.69,79.45
45024,2018-06-29 09:08:19.000000,5.87,79.45
45025,2018-06-29 09:08:19.031250,5.98,79.45
45026,2018-06-29 09:08:19.062500,5.76,79.45
45027,2018-06-29 09:08:19.093750,5.03,79.45
45028,2018-06-29 09:08:19.125000,3.58,79.45
45029,2018-06-29 09:08:19.156250,1.62,79.45
45030,2018-06-29 09:08:19.187500,-0.04,79.45
45031,2018-06-29 09:08:19.218750,-0.9,79.45
45032,2018-06-29 09:08:19.250000,-1.66,79.45
45033,2018-06-29 09:08:19.281250,-3.12,79.45
45034,2018-06-29 09:08:19.312500,-5.02,79.45
45035,2018-06-29 09:08:19.343750,-6.54,79.45
45036,2018-06-29 09:08:19.375000,-7.73,79.45
45037,2018-06-29 09:08:19.406250,-8.67,79.45
45038,2018-06-29 09:08:19.437500,-9.24,79.45
45039,2018-06-29 09:08:19.468750,-9.55,79.45
45040,2018-06-29 09:08:19.500000,-9.14,79.45
45041,2018-06-29 09:08:19.531250,-9.1,79.33
45042,2018-06-29 09:08:19.562500,-10.92,79.33
45043,2018-06-29 09:08:19.593750,-14.96,79.33
45044,2018-06-29 09:08:19.625000,-17.7,79.33
45045,2018-06-29 09:08:19.656250,-14.68,79.33
45046,2018-06-29 09:08:19.687500,-4.94,79.33
45047,2018-06-29 09:08:19.718750,6.49,79.33
45048,2018-06-29 09:08:19.750000,13.5,79.33
45049,2018-06-29 09:08:19.781250,19.48,79.33
45050,2018-06-29 09:08:19.812500,31.17,79.33
45051,2018-06-29 09:08:19.843750,51.46,79.33
45052,2018-06-29 09:08:19.875000,65.95,79.33
45053,2018-06-29 09:08:19.906250,65.46,79.33
45054,2018-06-29 09:08:19.937500,57.4,79.33
45055,2018-06-29 09:08:19.968750,60.69,79.33
45056,2018-06-29 09:08:20.000000,82.19,79.33
45057,2018-06-29 09:08:20.031250,104.61,79.33
45058,2018-06-29 09:08:20.062500,121.73,79.33
45059,2018-06-29 09:08:20.093750,137.37,79.33
45060,2018-06-29 09:08:20.125000,169.85,79.33
45061,2018-06-29 09:08:20.156250,203.32,79.33
45062,2018-06-29 09:08:20.187500,223.21,79.33
45063,2018-06-29 09:08:20.218750,239.22,79.33
45064,2018-06-29 09:08:20.250000,279.37,79.33
45065,2018-06-29 09:08:20.281250,350.54,79.33
45066,2018-06-29 09:08:20.312500,410.56,79.33
45067,2018-06-29 09:08:20.343750,443.9,79.33
45068,2018-06-29 09:08:20.375000,330.04,79.33
45069,2018-06-29 09:08:20.406250,58.74,79.33
45070,2018-06-29 09:08:20.437500,-161.85,79.33
45071,2018-06-29 09:08:20.468750,-302.64,79.33
45072,2018-06-29 09:08:20.500000,-400.37,79.33
45073,2018-06-29 09:08:20.531250,-425.21,79.22
45074,2018-06-29 09:08:20.562500,-377.63,79.22
45075,2018-06-29 09:08:20.593750,-327.45,79.22
45076,2018-06-29 09:08:20.625000,-297.21,79.22
45077,2018-06-29 09:08:20.656250,-269.82,79.22
45078,2018-06-29 09:08:20.687500,-223.44,79.22
45079,2018-06-29 09:08:20.718750,-177.81,79.22
45080,2018-06-29 09:08:20.750000,-148.19,79.22
45081,2018-06-29 09:08:20.781250,-125.63,79.22
45082,2018-06-29 09:08:20.812500,-97.64,79.22
45083,2018-06-29 09:08:20.843750,-64.43,79.22
45084,2018-06-29 09:08:20.875000,-42.16,79.22
45085,2018-06-29 09:08:20.906250,-30.93,79.22
45086,2018-06-29 09:08:20.937500,-25.45,79.22
45087,2018-06-29 09:08:20.968750,-19.78,79.22
45088,2018-06-29 09:08:21.000000,-17.15,79.22
45089,2018-06-29 09:08:21.031250,-16.77,79.22
45090,2018-06-29 09:08:21.062500,-11.83,79.22
45091,2018-06-29 09:08:21.093750,1.66,79.22
45092,2018-06-29 09:08:21.125000,22.71,79.22
45093,2018-06-29 09:08:21.156250,46.7,79.22
45094,2018-06-29 09:08:21.187500,71.94,79.22
45095,2018-06-29 09:08:21.218750,95.39,79.22
45096,2018-06-29 09:08:21.250000,114.54,79.22
45097,2018-06-29 09:08:21.281250,128.92,79.22
45098,2018-06-29 09:08:21.312500,141.46,79.22
45099,2018-06-29 09:08:21.343750,154.24,79.22
45100,2018-06-29 09:08:21.375000,165.84,79.22
45101,2018-06-29 09:08:21.406250,171.08,79.22
45102,2018-06-29 09:08:21.437500,159.68,79.22
45103,2018-06-29 09:08:21.468750,137.61,79.22
45104,2018-06-29 09:08:21.500000,114.77,79.22
45105,2018-06-29 09:08:21.531250,90.66,79.2
45106,2018-06-29 09:08:21.562500,60.71,79.2
45107,2018-06-29 09:08:21.593750,26.25,79.2
45108,2018-06-29 09:08:21.625000,-6.47,79.2
45109,2018-06-29 09:08:21.656250,-36.58,79.2
45110,2018-06-29 09:08:21.687500,-71.63,79.2
45111,2018-06-29 09:08:21.718750,-118.48,79.2
45112,2018-06-29 09:08:21.750000,-169.79,79.2
45113,2018-06-29 09:08:21.781250,-216.65,79.2
45114,2018-06-29 09:08:21.812500,-259.76,79.2
45115,2018-06-29 09:08:21.843750,-312.72,79.2
45116,2018-06-29 09:08:21.875000,-387.0,79.2
45117,2018-06-29 09:08:21.906250,-470.21,79.2
45118,2018-06-29 09:08:21.937500,-520.27,79.2
45119,2018-06-29 09:08:21.968750,-498.45,79.2
45120,2018-06-29 09:08:22.000000,-423.21,79.2
45121,2018-06-29 09:08:22.031250,-336.98,79.2
45122,2018-06-29 09:08:22.062500,-263.01,79.2
45123,2018-06-29 09:08:22.093750,-199.89,79.2
45124,2018-06-29 09:08:22.125000,-155.2,79.2
45125,2018-06-29 09:08:22.156250,-129.64,79.2
45126,2018-06-29 09:08:22.187500,-98.87,79.2
45127,2018-06-29 09:08:22.218750,-51.84,79.2
45128,2018-06-29 09:08:22.250000,-0.34,79.2
45129,2018-06-29 09:08:22.281250,26.08,79.2
45130,2018-06-29 09:08:22.312500,30.91,79.2
45131,2018-06-29 09:08:22.343750,27.15,79.2
45132,2018-06-29 09:08:22.375000,46.19,79.2
45133,2018-06-29 09:08:22.406250,164.96,79.2
45134,2018-06-29 09:08:22.437500,273.8,79.2
45135,2018-06-29 09:08:22.468750,301.42,79.2
45136,2018-06-29 09:08:22.500000,270.81,79.2
45137,2018-06-29 09:08:22.531250,214.16,79.18
45138,2018-06-29 09:08:22.562500,147.12,79.18
45139,2018-06-29 09:08:22.593750,97.84,79.18
45140,2018-06-29 09:08:22.625000,74.61,79.18
45141,2018-06-29 09:08:22.656250,68.61,79.18
45142,2018-06-29 09:08:22.687500,61.3,79.18
45143,2018-06-29 09:08:22.718750,48.44,79.18
45144,2018-06-29 09:08:22.750000,40.52,79.18
45145,2018-06-29 09:08:22.781250,41.0,79.18
45146,2018-06-29 09:08:22.812500,46.39,79.18
45147,2018-06-29 09:08:22.843750,43.23,79.18
45148,2018-06-29 09:08:22.875000,31.76,79.18
45149,2018-06-29 09:08:22.906250,19.42,79.18
45150,2018-06-29 09:08:22.937500,10.75,79.18
45151,2018-06-29 09:08:22.968750,2.49,79.18
45152,2018-06-29 09:08:23.000000,-8.66,79.18
45153,2018-06-29 09:08:23.031250,-18.73,79.18
45154,2018-06-29 09:08:23.062500,-26.2,79.18
45155,2018-06-29 09:08:23.093750,-31.54,79.18
45156,2018-06-29 09:08:23.125000,-33.75,79.18
45157,2018-06-29 09:08:23.156250,-28.4,79.18
45158,2018-06-29 09:08:23.187500,-13.56,79.18
45159,2018-06-29 09:08:23.218750,7.94,79.18
45160,2018-06-29 09:08:23.250000,32.51,79.18
45161,2018-06-29 09:08:23.281250,57.32,79.18
45162,2018-06-29 09:08:23.312500,81.37,79.18
45163,2018-06-29 09:08:23.343750,103.07,79.18
45164,2018-06-29 09:08:23.375000,120.1,79.18
45165,2018-06-29 09:08:23.406250,128.68,79.18
45166,2018-06-29 09:08:23.437500,126.64,79.18
45167,2018-06-29 09:08:23.468750,116.06,79.18
45168,2018-06-29 09:08:23.500000,98.42,79.18
45169,2018-06-29 09:08:23.531250,73.44,79.13
45170,2018-06-29 09:08:23.562500,36.46,79.13
45171,2018-06-29 09:08:23.593750,-6.45,79.13
45172,2018-06-29 09:08:23.625000,-47.82,79.13
45173,2018-06-29 09:08:23.656250,-79.94,79.13
45174,2018-06-29 09:08:23.687500,-100.71,79.13
45175,2018-06-29 09:08:23.718750,-111.81,79.13
45176,2018-06-29 09:08:23.750000,-114.79,79.13
45177,2018-06-29 09:08:23.781250,-112.47,79.13
45178,2018-06-29 09:08:23.812500,-89.87,79.13
45179,2018-06-29 09:08:23.843750,-41.45,79.13
45180,2018-06-29 09:08:23.875000,30.73,79.13
45181,2018-06-29 09:08:23.906250,104.92,79.13
45182,2018-06-29 09:08:23.937500,166.84,79.13
45183,2018-06-29 09:08:23.968750,207.83,79.13
45184,2018-06-29 09:08:24.000000,173.99,79.13
45185,2018-06-29 09:08:24.031250,140.37,79.13
45186,2018-06-29 09:08:24.062500,136.48,79.13
45187,2018-06-29 09:08:24.093750,124.44,79.13
45188,2018-06-29 09:08:24.125000,97.6,79.13
45189,2018-06-29 09:08:24.156250,67.23,79.13
45190,2018-06-29 09:08:24.187500,32.97,79.13
45191,2018-06-29 09:08:24.218750,-2.81,79.13
45192,2018-06-29 09:08:24.250000,-38.65,79.13
45193,2018-06-29 09:08:24.281250,-76.33,79.13
45194,2018-06-29 09:08:24.312500,-114.98,79.13
45195,2018-06-29 09:08:24.343750,-137.87,79.13
45196,2018-06-29 09:08:24.375000,-127.58,79.13
45197,2018-06-29 09:08:24.406250,-87.65,79.13
45198,2018-06-29 09:08:24.437500,-30.54,79.13
45199,2018-06-29 09:08:24.468750,3.52,79.13
45200,2018-06-29 09:08:24.500000,30.98,79.13
45201,2018-06-29 09:08:24.531250,61.4,79.13
45202,2018-06-29 09:08:24.562500,81.43,79.13
45203,2018-06-29 09:08:24.593750,76.79,79.13
45204,2018-06-29 09:08:24.625000,54.63,79.13
45205,2018-06-29 09:08:24.656250,23.79,79.13
45206,2018-06-29 09:08:24.687500,-14.12,79.13
45207,2018-06-29 09:08:24.718750,-54.46,79.13
45208,2018-06-29 09:08:24.750000,-81.16,79.13
45209,2018-06-29 09:08:24.781250,-89.4,79.13
45210,2018-06-29 09:08:24.812500,-88.1,79.13
45211,2018-06-29 09:08:24.843750,-83.92,79.13
45212,2018-06-29 09:08:24.875000,-76.62,79.13
45213,2018-06-29 09:08:24.906250,-64.47,79.13
45214,2018-06-29 09:08:24.937500,-53.14,79.13
45215,2018-06-29 09:08:24.968750,-45.67,79.13
45216,2018-06-29 09:08:25.000000,-40.97,79.13
45217,2018-06-29 09:08:25.031250,-37.17,79.13
45218,2018-06-29 09:08:25.062500,-36.69,79.13
45219,2018-06-29 09:08:25.093750,-42.83,79.13
45220,2018-06-29 09:08:25.125000,-53.49,79.13
45221,2018-06-29 09:08:25.156250,-60.09,79.13
45222,2018-06-29 09:08:25.187500,-55.19,79.13
45223,2018-06-29 09:08:25.218750,-41.92,79.13
45224,2018-06-29 09:08:25.250000,-28.61,79.13
45225,2018-06-29 09:08:25.281250,-19.28,79.13
45226,2018-06-29 09:08:25.312500,-13.85,79.13
45227,2018-06-29 09:08:25.343750,-11.73,79.13
45228,2018-06-29 09:08:25.375000,-10.82,79.13
45229,2018-06-29 09:08:25.406250,-9.33,79.13
45230,2018-06-29 09:08:25.437500,-9.32,79.13
45231,2018-06-29 09:08:25.468750,-13.46,79.13
45232,2018-06-29 09:08:25.500000,-20.26,79.13
45233,2018-06-29 09:08:25.531250,-25.76,79.12
45234,2018-06-29 09:08:25.562500,-28.04,79.12
45235,2018-06-29 09:08:25.593750,-29.08,79.12
45236,2018-06-29 09:08:25.625000,-34.13,79.12
45237,2018-06-29 09:08:25.656250,-46.56,79.12
45238,2018-06-29 09:08:25.687500,-61.55,79.12
45239,2018-06-29 09:08:25.718750,-69.34,79.12
45240,2018-06-29 09:08:25.750000,-65.64,79.12
45241,2018-06-29 09:08:25.781250,-53.59,79.12
45242,2018-06-29 09:08:25.812500,-35.99,79.12
45243,2018-06-29 09:08:25.843750,-12.83,79.12
45244,2018-06-29 09:08:25.875000,13.63,79.12
45245,2018-06-29 09:08:25.906250,37.28,79.12
45246,2018-06-29 09:08:25.937500,53.58,79.12
45247,2018-06-29 09:08:25.968750,62.53,79.12
45248,2018-06-29 09:08:26.000000,64.77,79.12
45249,2018-06-29 09:08:26.031250,59.32,79.12
45250,2018-06-29 09:08:26.062500,47.48,79.12
45251,2018-06-29 09:08:26.093750,33.63,79.12
45252,2018-06-29 09:08:26.125000,20.36,79.12
45253,2018-06-29 09:08:26.156250,7.41,79.12
45254,2018-06-29 09:08:26.187500,-3.69,79.12
45255,2018-06-29 09:08:26.218750,-8.86,79.12
45256,2018-06-29 09:08:26.250000,-6.41,79.12
45257,2018-06-29 09:08:26.281250,0.08,79.12
45258,2018-06-29 09:08:26.312500,6.31,79.12
45259,2018-06-29 09:08:26.343750,14.09,79.12
45260,2018-06-29 09:08:26.375000,26.78,79.12
45261,2018-06-29 09:08:26.406250,39.26,79.12
45262,2018-06-29 09:08:26.437500,41.15,79.12
45263,2018-06-29 09:08:26.468750,34.41,79.12
45264,2018-06-29 09:08:26.500000,34.82,79.12
45265,2018-06-29 09:08:26.531250,50.63,79.17
45266,2018-06-29 09:08:26.562500,71.23,79.17
45267,2018-06-29 09:08:26.593750,80.82,79.17
45268,2018-06-29 09:08:26.625000,75.14,79.17
45269,2018-06-29 09:08:26.656250,61.34,79.17
45270,2018-06-29 09:08:26.687500,55.13,79.17
45271,2018-06-29 09:08:26.718750,61.09,79.17
45272,2018-06-29 09:08:26.750000,62.23,79.17
45273,2018-06-29 09:08:26.781250,42.36,79.17
45274,2018-06-29 09:08:26.812500,15.33,79.17
45275,2018-06-29 09:08:26.843750,6.98,79.17
45276,2018-06-29 09:08:26.875000,13.02,79.17
45277,2018-06-29 09:08:26.906250,16.71,79.17
45278,2018-06-29 09:08:26.937500,13.84,79.17
45279,2018-06-29 09:08:26.968750,17.21,79.17
45280,2018-06-29 09:08:27.000000,23.31,79.17
45281,2018-06-29 09:08:27.031250,21.04,79.17
45282,2018-06-29 09:08:27.062500,15.37,79.17
45283,2018-06-29 09:08:27.093750,26.04,79.17
45284,2018-06-29 09:08:27.125000,68.99,79.17
45285,2018-06-29 09:08:27.156250,133.51,79.17
45286,2018-06-29 09:08:27.187500,217.1,79.17
45287,2018-06-29 09:08:27.218750,253.26,79.17
45288,2018-06-29 09:08:27.250000,167.66,79.17
45289,2018-06-29 09:08:27.281250,36.53,79.17
45290,2018-06-29 09:08:27.312500,-65.74,79.17
45291,2018-06-29 09:08:27.343750,-116.08,79.17
45292,2018-06-29 09:08:27.375000,-112.06,79.17
45293,2018-06-29 09:08:27.406250,-56.55,79.17
45294,2018-06-29 09:08:27.437500,12.04,79.17
45295,2018-06-29 09:08:27.468750,36.78,79.17
45296,2018-06-29 09:08:27.500000,3.74,79.17
45297,2018-06-29 09:08:27.531250,-42.02,79.28
45298,2018-06-29 09:08:27.562500,-64.1,79.28
45299,2018-06-29 09:08:27.593750,-74.21,79.28
45300,2018-06-29 09:08:27.625000,-89.64,79.28
45301,2018-06-29 09:08:27.656250,-105.71,79.28
45302,2018-06-29 09:08:27.687500,-110.48,79.28
45303,2018-06-29 09:08:27.718750,-115.5,79.28
45304,2018-06-29 09:08:27.750000,-124.15,79.28
45305,2018-06-29 09:08:27.781250,-125.77,79.28
45306,2018-06-29 09:08:27.812500,-114.0,79.28
45307,2018-06-29 09:08:27.843750,-99.11,79.28
45308,2018-06-29 09:08:27.875000,-89.58,79.28
45309,2018-06-29 09:08:27.906250,-76.21,79.28
45310,2018-06-29 09:08:27.937500,-44.56,79.28
45311,2018-06-29 09:08:27.968750,1.44,79.28
45312,2018-06-29 09:08:28.000000,47.38,79.28
45313,2018-06-29 09:08:28.031250,84.09,79.28
45314,2018-06-29 09:08:28.062500,106.93,79.28
45315,2018-06-29 09:08:28.093750,116.73,79.28
45316,2018-06-29 09:08:28.125000,114.5,79.28
45317,2018-06-29 09:08:28.156250,101.81,79.28
45318,2018-06-29 09:08:28.187500,82.56,79.28
45319,2018-06-29 09:08:28.218750,58.78,79.28
45320,2018-06-29 09:08:28.250000,29.72,79.28
45321,2018-06-29 09:08:28.281250,2.58,79.28
45322,2018-06-29 09:08:28.312500,-10.74,79.28
45323,2018-06-29 09:08:28.343750,-11.74,79.28
45324,2018-06-29 09:08:28.375000,-15.9,79.28
45325,2018-06-29 09:08:28.406250,-30.58,79.28
45326,2018-06-29 09:08:28.437500,-43.59,79.28
45327,2018-06-29 09:08:28.468750,-51.26,79.28
45328,2018-06-29 09:08:28.500000,-58.28,79.28
45329,2018-06-29 09:08:28.531250,-62.62,79.42
45330,2018-06-29 09:08:28.562500,-59.42,79.42
45331,2018-06-29 09:08:28.593750,-47.32,79.42
45332,2018-06-29 09:08:28.625000,-41.86,79.42
45333,2018-06-29 09:08:28.656250,-34.04,79.42
45334,2018-06-29 09:08:28.687500,-22.24,79.42
45335,2018-06-29 09:08:28.718750,-14.58,79.42
45336,2018-06-29 09:08:28.750000,-20.4,79.42
45337,2018-06-29 09:08:28.781250,-26.29,79.42
45338,2018-06-29 09:08:28.812500,-27.55,79.42
45339,2018-06-29 09:08:28.843750,-25.49,79.42
45340,2018-06-29 09:08:28.875000,-23.0,79.42
45341,2018-06-29 09:08:28.906250,-19.61,79.42
45342,2018-06-29 09:08:28.937500,-15.92,79.42
45343,2018-06-29 09:08:28.968750,-13.0,79.42
45344,2018-06-29 09:08:29.000000,-11.46,79.42
45345,2018-06-29 09:08:29.031250,-11.65,79.42
45346,2018-06-29 09:08:29.062500,-12.11,79.42
45347,2018-06-29 09:08:29.093750,-13.14,79.42
45348,2018-06-29 09:08:29.125000,-15.84,79.42
45349,2018-06-29 09:08:29.156250,-20.84,79.42
45350,2018-06-29 09:08:29.187500,-25.46,79.42
45351,2018-06-29 09:08:29.218750,-27.93,79.42
45352,2018-06-29 09:08:29.250000,-29.64,79.42
45353,2018-06-29 09:08:29.281250,-34.11,79.42
45354,2018-06-29 09:08:29.312500,-43.78,79.42
45355,2018-06-29 09:08:29.343750,-56.31,79.42
45356,2018-06-29 09:08:29.375000,-63.67,79.42
45357,2018-06-29 09:08:29.406250,-58.04,79.42
45358,2018-06-29 09:08:29.437500,-41.22,79.42
45359,2018-06-29 09:08:29.468750,-22.48,79.42
45360,2018-06-29 09:08:29.500000,-7.91,79.42
45361,2018-06-29 09:08:29.531250,2.27,79.53
45362,2018-06-29 09:08:29.562500,7.79,79.53
45363,2018-06-29 09:08:29.593750,7.99,79.53
45364,2018-06-29 09:08:29.625000,6.09,79.53
45365,2018-06-29 09:08:29.656250,6.45,79.53
45366,2018-06-29 09:08:29.687500,9.22,79.53
45367,2018-06-29 09:08:29.718750,11.59,79.53
45368,2018-06-29 09:08:29.750000,11.9,79.53
45369,2018-06-29 09:08:29.781250,10.24,79.53
45370,2018-06-29 09:08:29.812500,7.06,79.53
45371,2018-06-29 09:08:29.843750,2.74,79.53
45372,2018-06-29 09:08:29.875000,-1.98,79.53
45373,2018-06-29 09:08:29.906250,-6.28,79.53
45374,2018-06-29 09:08:29.937500,-10.41,79.53
45375,2018-06-29 09:08:29.968750,-15.51,79.53
45376,2018-06-29 09:08:30.000000,-21.82,79.53
45377,2018-06-29 09:08:30.031250,-28.25,79.53
45378,2018-06-29 09:08:30.062500,-34.29,79.53
45379,2018-06-29 09:08:30.093750,-39.7,79.53
45380,2018-06-29 09:08:30.125000,-40.97,79.53
45381,2018-06-29 09:08:30.156250,-32.37,79.53
45382,2018-06-29 09:08:30.187500,-13.71,79.53
45383,2018-06-29 09:08:30.218750,6.98,79.53
45384,2018-06-29 09:08:30.250000,21.45,79.53
45385,2018-06-29 09:08:30.281250,27.28,79.53
45386,2018-06-29 09:08:30.312500,25.55,79.53
45387,2018-06-29 09:08:30.343750,19.08,79.53
45388,2018-06-29 09:08:30.375000,12.91,79.53
45389,2018-06-29 09:08:30.406250,11.13,79.53
45390,2018-06-29 09:08:30.437500,13.09,79.53
45391,2018-06-29 09:08:30.468750,15.41,79.53
45392,2018-06-29 09:08:30.500000,16.38,79.53
45393,2018-06-29 09:08:30.531250,16.97,79.65
45394,2018-06-29 09:08:30.562500,18.25,79.65
45395,2018-06-29 09:08:30.593750,19.48,79.65
45396,2018-06-29 09:08:30.625000,19.01,79.65
45397,2018-06-29 09:08:30.656250,16.05,79.65
45398,2018-06-29 09:08:30.687500,10.84,79.65
45399,2018-06-29 09:08:30.718750,4.16,79.65
45400,2018-06-29 09:08:30.750000,-3.55,79.65
45401,2018-06-29 09:08:30.781250,-12.88,79.65
45402,2018-06-29 09:08:30.812500,-23.27,79.65
45403,2018-06-29 09:08:30.843750,-29.94,79.65
45404,2018-06-29 09:08:30.875000,-27.33,79.65
45405,2018-06-29 09:08:30.906250,-15.98,79.65
45406,2018-06-29 09:08:30.937500,-1.66,79.65
45407,2018-06-29 09:08:30.968750,11.34,79.65
45408,2018-06-29 09:08:31.000000,21.78,79.65
45409,2018-06-29 09:08:31.031250,28.5,79.65
45410,2018-06-29 09:08:31.062500,31.04,79.65
45411,2018-06-29 09:08:31.093750,31.91,79.65
45412,2018-06-29 09:08:31.125000,33.83,79.65
45413,2018-06-29 09:08:31.156250,36.12,79.65
45414,2018-06-29 09:08:31.187500,37.32,79.65
45415,2018-06-29 09:08:31.218750,38.75,79.65
45416,2018-06-29 09:08:31.250000,41.27,79.65
45417,2018-06-29 09:08:31.281250,42.21,79.65
45418,2018-06-29 09:08:31.312500,39.79,79.65
45419,2018-06-29 09:08:31.343750,36.66,79.65
45420,2018-06-29 09:08:31.375000,35.84,79.65
45421,2018-06-29 09:08:31.406250,36.73,79.65
45422,2018-06-29 09:08:31.437500,36.81,79.65
45423,2018-06-29 09:08:31.468750,34.87,79.65
45424,2018-06-29 09:08:31.500000,32.83,79.65
45425,2018-06-29 09:08:31.531250,36.2,79.82
45426,2018-06-29 09:08:31.562500,50.25,79.82
45427,2018-06-29 09:08:31.593750,73.55,79.82
45428,2018-06-29 09:08:31.625000,98.59,79.82
45429,2018-06-29 09:08:31.656250,119.37,79.82
45430,2018-06-29 09:08:31.687500,131.23,79.82
45431,2018-06-29 09:08:31.718750,124.9,79.82
45432,2018-06-29 09:08:31.750000,92.83,79.82
45433,2018-06-29 09:08:31.781250,41.52,79.82
45434,2018-06-29 09:08:31.812500,-11.7,79.82
45435,2018-06-29 09:08:31.843750,-51.67,79.82
45436,2018-06-29 09:08:31.875000,-72.33,79.82
45437,2018-06-29 09:08:31.906250,-77.2,79.82
45438,2018-06-29 09:08:31.937500,-75.1,79.82
45439,2018-06-29 09:08:31.968750,-72.8,79.82
45440,2018-06-29 09:08:32.000000,-72.56,79.82
45441,2018-06-29 09:08:32.031250,-74.1,79.82
45442,2018-06-29 09:08:32.062500,-74.48,79.82
45443,2018-06-29 09:08:32.093750,-70.27,79.82
45444,2018-06-29 09:08:32.125000,-63.07,79.82
45445,2018-06-29 09:08:32.156250,-57.96,79.82
45446,2018-06-29 09:08:32.187500,-55.95,79.82
45447,2018-06-29 09:08:32.218750,-53.16,79.82
45448,2018-06-29 09:08:32.250000,-45.79,79.82
45449,2018-06-29 09:08:32.281250,-31.87,79.82
45450,2018-06-29 09:08:32.312500,-10.87,79.82
45451,2018-06-29 09:08:32.343750,16.03,79.82
45452,2018-06-29 09:08:32.375000,46.08,79.82
45453,2018-06-29 09:08:32.406250,73.02,79.82
45454,2018-06-29 09:08:32.437500,86.23,79.82
45455,2018-06-29 09:08:32.468750,79.06,79.82
45456,2018-06-29 09:08:32.500000,59.21,79.82
45457,2018-06-29 09:08:32.531250,43.35,79.98
45458,2018-06-29 09:08:32.562500,39.54,79.98
45459,2018-06-29 09:08:32.593750,41.19,79.98
45460,2018-06-29 09:08:32.625000,38.49,79.98
45461,2018-06-29 09:08:32.656250,28.74,79.98
45462,2018-06-29 09:08:32.687500,15.1,79.98
45463,2018-06-29 09:08:32.718750,2.45,79.98
45464,2018-06-29 09:08:32.750000,-5.39,79.98
45465,2018-06-29 09:08:32.781250,-8.86,79.98
45466,2018-06-29 09:08:32.812500,-11.28,79.98
45467,2018-06-29 09:08:32.843750,-13.16,79.98
45468,2018-06-29 09:08:32.875000,-12.87,79.98
45469,2018-06-29 09:08:32.906250,-11.27,79.98
45470,2018-06-29 09:08:32.937500,-10.62,79.98
45471,2018-06-29 09:08:32.968750,-11.54,79.98
45472,2018-06-29 09:08:33.000000,-13.36,79.98
45473,2018-06-29 09:08:33.031250,-14.44,79.98
45474,2018-06-29 09:08:33.062500,-12.85,79.98
45475,2018-06-29 09:08:33.093750,-10.4,79.98
45476,2018-06-29 09:08:33.125000,-12.67,79.98
45477,2018-06-29 09:08:33.156250,-19.29,79.98
45478,2018-06-29 09:08:33.187500,-19.53,79.98
45479,2018-06-29 09:08:33.218750,-4.67,79.98
45480,2018-06-29 09:08:33.250000,20.23,79.98
45481,2018-06-29 09:08:33.281250,44.37,79.98
45482,2018-06-29 09:08:33.312500,66.14,79.98
45483,2018-06-29 09:08:33.343750,91.61,79.98
45484,2018-06-29 09:08:33.375000,124.25,79.98
45485,2018-06-29 09:08:33.406250,160.73,79.98
45486,2018-06-29 09:08:33.437500,190.16,79.98
45487,2018-06-29 09:08:33.468750,199.88,79.98
45488,2018-06-29 09:08:33.500000,190.2,79.98
45489,2018-06-29 09:08:33.531250,178.36,80.15
45490,2018-06-29 09:08:33.562500,173.96,80.15
45491,2018-06-29 09:08:33.593750,166.61,80.15
45492,2018-06-29 09:08:33.625000,150.79,80.15
45493,2018-06-29 09:08:33.656250,139.16,80.15
45494,2018-06-29 09:08:33.687500,135.31,80.15
45495,2018-06-29 09:08:33.718750,120.1,80.15
45496,2018-06-29 09:08:33.750000,84.68,80.15
45497,2018-06-29 09:08:33.781250,45.56,80.15
45498,2018-06-29 09:08:33.812500,23.53,80.15
45499,2018-06-29 09:08:33.843750,16.81,80.15
45500,2018-06-29 09:08:33.875000,12.1,80.15
45501,2018-06-29 09:08:33.906250,-4.65,80.15
45502,2018-06-29 09:08:33.937500,-45.37,80.15
45503,2018-06-29 09:08:33.968750,-96.85,80.15
45504,2018-06-29 09:08:34.000000,-108.97,80.15
45505,2018-06-29 09:08:34.031250,-44.83,80.15
45506,2018-06-29 09:08:34.062500,42.27,80.15
45507,2018-06-29 09:08:34.093750,81.73,80.15
45508,2018-06-29 09:08:34.125000,75.85,80.15
45509,2018-06-29 09:08:34.156250,68.58,80.15
45510,2018-06-29 09:08:34.187500,60.23,80.15
45511,2018-06-29 09:08:34.218750,31.6,80.15
45512,2018-06-29 09:08:34.250000,-9.24,80.15
45513,2018-06-29 09:08:34.281250,-107.86,80.15
45514,2018-06-29 09:08:34.312500,-248.14,80.15
45515,2018-06-29 09:08:34.343750,-330.4,80.15
45516,2018-06-29 09:08:34.375000,-332.05,80.15
45517,2018-06-29 09:08:34.406250,-295.8,80.15
45518,2018-06-29 09:08:34.437500,-258.01,80.15
45519,2018-06-29 09:08:34.468750,-221.28,80.15
45520,2018-06-29 09:08:34.500000,-191.89,80.15
45521,2018-06-29 09:08:34.531250,-170.29,80.33
45522,2018-06-29 09:08:34.562500,-146.75,80.33
45523,2018-06-29 09:08:34.593750,-112.08,80.33
45524,2018-06-29 09:08:34.625000,-81.06,80.33
45525,2018-06-29 09:08:34.656250,-64.61,80.33
45526,2018-06-29 09:08:34.687500,-59.46,80.33
45527,2018-06-29 09:08:34.718750,-50.86,80.33
45528,2018-06-29 09:08:34.750000,-34.89,80.33
45529,2018-06-29 09:08:34.781250,-23.41,80.33
45530,2018-06-29 09:08:34.812500,-22.23,80.33
45531,2018-06-29 09:08:34.843750,-23.02,80.33
45532,2018-06-29 09:08:34.875000,-15.16,80.33
45533,2018-06-29 09:08:34.906250,-4.74,80.33
45534,2018-06-29 09:08:34.937500,4.7,80.33
45535,2018-06-29 09:08:34.968750,20.65,80.33
45536,2018-06-29 09:08:35.000000,48.33,80.33
45537,2018-06-29 09:08:35.031250,72.47,80.33
45538,2018-06-29 09:08:35.062500,72.84,80.33
45539,2018-06-29 09:08:35.093750,52.62,80.33
45540,2018-06-29 09:08:35.125000,35.69,80.33
45541,2018-06-29 09:08:35.156250,40.25,80.33
45542,2018-06-29 09:08:35.187500,58.09,80.33
45543,2018-06-29 09:08:35.218750,72.81,80.33
45544,2018-06-29 09:08:35.250000,56.02,80.33
45545,2018-06-29 09:08:35.281250,4.48,80.33
45546,2018-06-29 09:08:35.312500,-13.1,80.33
45547,2018-06-29 09:08:35.343750,25.48,80.33
45548,2018-06-29 09:08:35.375000,63.55,80.33
45549,2018-06-29 09:08:35.406250,61.15,80.33
45550,2018-06-29 09:08:35.437500,50.44,80.33
45551,2018-06-29 09:08:35.468750,58.25,80.33
45552,2018-06-29 09:08:35.500000,57.19,80.33
45553,2018-06-29 09:08:35.531250,26.1,80.48
45554,2018-06-29 09:08:35.562500,-12.02,80.48
45555,2018-06-29 09:08:35.593750,-25.06,80.48
45556,2018-06-29 09:08:35.625000,-14.47,80.48
45557,2018-06-29 09:08:35.656250,-17.74,80.48
45558,2018-06-29 09:08:35.687500,-33.58,80.48
45559,2018-06-29 09:08:35.718750,-26.43,80.48
45560,2018-06-29 09:08:35.750000,3.72,80.48
45561,2018-06-29 09:08:35.781250,13.64,80.48
45562,2018-06-29 09:08:35.812500,-22.59,80.48
45563,2018-06-29 09:08:35.843750,-71.37,80.48
45564,2018-06-29 09:08:35.875000,-80.33,80.48
45565,2018-06-29 09:08:35.906250,-41.77,80.48
45566,2018-06-29 09:08:35.937500,15.18,80.48
45567,2018-06-29 09:08:35.968750,40.27,80.48
45568,2018-06-29 09:08:36.000000,-5.95,80.48
45569,2018-06-29 09:08:36.031250,-69.74,80.48
45570,2018-06-29 09:08:36.062500,-105.92,80.48
45571,2018-06-29 09:08:36.093750,-122.03,80.48
45572,2018-06-29 09:08:36.125000,-126.84,80.48
45573,2018-06-29 09:08:36.156250,-107.8,80.48
45574,2018-06-29 09:08:36.187500,-85.95,80.48
45575,2018-06-29 09:08:36.218750,-82.37,80.48
45576,2018-06-29 09:08:36.250000,-82.82,80.48
45577,2018-06-29 09:08:36.281250,-50.54,80.48
45578,2018-06-29 09:08:36.312500,12.4,80.48
45579,2018-06-29 09:08:36.343750,96.71,80.48
45580,2018-06-29 09:08:36.375000,163.68,80.48
45581,2018-06-29 09:08:36.406250,174.3,80.48
45582,2018-06-29 09:08:36.437500,149.13,80.48
45583,2018-06-29 09:08:36.468750,128.36,80.48
45584,2018-06-29 09:08:36.500000,105.3,80.48
45585,2018-06-29 09:08:36.531250,75.05,80.53
45586,2018-06-29 09:08:36.562500,43.87,80.53
45587,2018-06-29 09:08:36.593750,8.1,80.53
45588,2018-06-29 09:08:36.625000,-31.79,80.53
45589,2018-06-29 09:08:36.656250,-69.51,80.53
45590,2018-06-29 09:08:36.687500,-88.84,80.53
45591,2018-06-29 09:08:36.718750,-92.25,80.53
45592,2018-06-29 09:08:36.750000,-81.11,80.53
45593,2018-06-29 09:08:36.781250,-59.14,80.53
45594,2018-06-29 09:08:36.812500,-26.71,80.53
45595,2018-06-29 09:08:36.843750,32.98,80.53
45596,2018-06-29 09:08:36.875000,104.92,80.53
45597,2018-06-29 09:08:36.906250,154.2,80.53
45598,2018-06-29 09:08:36.937500,164.52,80.53
45599,2018-06-29 09:08:36.968750,156.97,80.53
45600,2018-06-29 09:08:37.000000,159.27,80.53
45601,2018-06-29 09:08:37.031250,179.17,80.53
45602,2018-06-29 09:08:37.062500,196.99,80.53
45603,2018-06-29 09:08:37.093750,188.8,80.53
45604,2018-06-29 09:08:37.125000,144.59,80.53
45605,2018-06-29 09:08:37.156250,72.73,80.53
45606,2018-06-29 09:08:37.187500,15.11,80.53
45607,2018-06-29 09:08:37.218750,-23.67,80.53
45608,2018-06-29 09:08:37.250000,-59.5,80.53
45609,2018-06-29 09:08:37.281250,-88.96,80.53
45610,2018-06-29 09:08:37.312500,-112.97,80.53
45611,2018-06-29 09:08:37.343750,-135.18,80.53
45612,2018-06-29 09:08:37.375000,-151.04,80.53
45613,2018-06-29 09:08:37.406250,-152.32,80.53
45614,2018-06-29 09:08:37.437500,-140.92,80.53
45615,2018-06-29 09:08:37.468750,-122.98,80.53
45616,2018-06-29 09:08:37.500000,-109.16,80.53
45617,2018-06-29 09:08:37.531250,-99.24,80.6
45618,2018-06-29 09:08:37.562500,-89.25,80.6
45619,2018-06-29 09:08:37.593750,-73.25,80.6
45620,2018-06-29 09:08:37.625000,-55.17,80.6
45621,2018-06-29 09:08:37.656250,-42.83,80.6
45622,2018-06-29 09:08:37.687500,-37.37,80.6
45623,2018-06-29 09:08:37.718750,-36.09,80.6
45624,2018-06-29 09:08:37.750000,-36.02,80.6
45625,2018-06-29 09:08:37.781250,-36.3,80.6
45626,2018-06-29 09:08:37.812500,-34.89,80.6
45627,2018-06-29 09:08:37.843750,-32.48,80.6
45628,2018-06-29 09:08:37.875000,-30.21,80.6
45629,2018-06-29 09:08:37.906250,-28.11,80.6
45630,2018-06-29 09:08:37.937500,-25.13,80.6
45631,2018-06-29 09:08:37.968750,-20.77,80.6
45632,2018-06-29 09:08:38.000000,-16.2,80.6
45633,2018-06-29 09:08:38.031250,-12.55,80.6
45634,2018-06-29 09:08:38.062500,-10.15,80.6
45635,2018-06-29 09:08:38.093750,-9.06,80.6
45636,2018-06-29 09:08:38.125000,-8.94,80.6
45637,2018-06-29 09:08:38.156250,-8.72,80.6
45638,2018-06-29 09:08:38.187500,-8.47,80.6
45639,2018-06-29 09:08:38.218750,-10.46,80.6
45640,2018-06-29 09:08:38.250000,-16.82,80.6
45641,2018-06-29 09:08:38.281250,-27.39,80.6
45642,2018-06-29 09:08:38.312500,-38.34,80.6
45643,2018-06-29 09:08:38.343750,-42.09,80.6
45644,2018-06-29 09:08:38.375000,-33.52,80.6
45645,2018-06-29 09:08:38.406250,-16.99,80.6
45646,2018-06-29 09:08:38.437500,-1.54,80.6
45647,2018-06-29 09:08:38.468750,9.41,80.6
45648,2018-06-29 09:08:38.500000,17.49,80.6
45649,2018-06-29 09:08:38.531250,22.35,80.75
45650,2018-06-29 09:08:38.562500,22.44,80.75
45651,2018-06-29 09:08:38.593750,19.75,80.75
45652,2018-06-29 09:08:38.625000,18.19,80.75
45653,2018-06-29 09:08:38.656250,18.6,80.75
45654,2018-06-29 09:08:38.687500,18.93,80.75
45655,2018-06-29 09:08:38.718750,17.72,80.75
45656,2018-06-29 09:08:38.750000,14.85,80.75
45657,2018-06-29 09:08:38.781250,10.29,80.75
45658,2018-06-29 09:08:38.812500,3.43,80.75
45659,2018-06-29 09:08:38.843750,-6.9,80.75
45660,2018-06-29 09:08:38.875000,-20.95,80.75
45661,2018-06-29 09:08:38.906250,-36.17,80.75
45662,2018-06-29 09:08:38.937500,-49.07,80.75
45663,2018-06-29 09:08:38.968750,-58.99,80.75
45664,2018-06-29 09:08:39.000000,-68.03,80.75
45665,2018-06-29 09:08:39.031250,-77.17,80.75
45666,2018-06-29 09:08:39.062500,-83.59,80.75
45667,2018-06-29 09:08:39.093750,-82.26,80.75
45668,2018-06-29 09:08:39.125000,-70.18,80.75
45669,2018-06-29 09:08:39.156250,-49.16,80.75
45670,2018-06-29 09:08:39.187500,-24.5,80.75
45671,2018-06-29 09:08:39.218750,-1.34,80.75
45672,2018-06-29 09:08:39.250000,17.76,80.75
45673,2018-06-29 09:08:39.281250,32.15,80.75
45674,2018-06-29 09:08:39.312500,41.43,80.75
45675,2018-06-29 09:08:39.343750,45.83,80.75
45676,2018-06-29 09:08:39.375000,47.08,80.75
45677,2018-06-29 09:08:39.406250,46.69,80.75
45678,2018-06-29 09:08:39.437500,44.67,80.75
45679,2018-06-29 09:08:39.468750,41.24,80.75
45680,2018-06-29 09:08:39.500000,37.63,80.75
45681,2018-06-29 09:08:39.531250,33.73,80.77
45682,2018-06-29 09:08:39.562500,27.4,80.77
45683,2018-06-29 09:08:39.593750,17.73,80.77
45684,2018-06-29 09:08:39.625000,7.18,80.77
45685,2018-06-29 09:08:39.656250,-1.07,80.77
45686,2018-06-29 09:08:39.687500,-6.35,80.77
45687,2018-06-29 09:08:39.718750,-10.67,80.77
45688,2018-06-29 09:08:39.750000,-16.94,80.77
45689,2018-06-29 09:08:39.781250,-26.89,80.77
45690,2018-06-29 09:08:39.812500,-37.52,80.77
45691,2018-06-29 09:08:39.843750,-39.8,80.77
45692,2018-06-29 09:08:39.875000,-26.54,80.77
45693,2018-06-29 09:08:39.906250,-2.18,80.77
45694,2018-06-29 09:08:39.937500,21.75,80.77
45695,2018-06-29 09:08:39.968750,39.5,80.77
45696,2018-06-29 09:08:40.000000,52.62,80.77
45697,2018-06-29 09:08:40.031250,62.09,80.77
45698,2018-06-29 09:08:40.062500,66.85,80.77
45699,2018-06-29 09:08:40.093750,67.75,80.77
45700,2018-06-29 09:08:40.125000,67.4,80.77
45701,2018-06-29 09:08:40.156250,67.08,80.77
45702,2018-06-29 09:08:40.187500,65.46,80.77
45703,2018-06-29 09:08:40.218750,60.97,80.77
45704,2018-06-29 09:08:40.250000,54.62,80.77
45705,2018-06-29 09:08:40.281250,48.03,80.77
45706,2018-06-29 09:08:40.312500,40.15,80.77
45707,2018-06-29 09:08:40.343750,29.75,80.77
45708,2018-06-29 09:08:40.375000,19.53,80.77
45709,2018-06-29 09:08:40.406250,12.96,80.77
45710,2018-06-29 09:08:40.437500,9.07,80.77
45711,2018-06-29 09:08:40.468750,4.63,80.77
45712,2018-06-29 09:08:40.500000,-0.63,80.77
45713,2018-06-29 09:08:40.531250,-4.44,80.75
45714,2018-06-29 09:08:40.562500,-6.2,80.75
45715,2018-06-29 09:08:40.593750,-7.56,80.75
45716,2018-06-29 09:08:40.625000,-9.61,80.75
45717,2018-06-29 09:08:40.656250,-11.5,80.75
45718,2018-06-29 09:08:40.687500,-12.61,80.75
45719,2018-06-29 09:08:40.718750,-13.7,80.75
45720,2018-06-29 09:08:40.750000,-15.36,80.75
45721,2018-06-29 09:08:40.781250,-17.13,80.75
45722,2018-06-29 09:08:40.812500,-18.3,80.75
45723,2018-06-29 09:08:40.843750,-18.57,80.75
45724,2018-06-29 09:08:40.875000,-18.15,80.75
45725,2018-06-29 09:08:40.906250,-17.83,80.75
45726,2018-06-29 09:08:40.937500,-18.82,80.75
45727,2018-06-29 09:08:40.968750,-21.74,80.75
45728,2018-06-29 09:08:41.000000,-26.15,80.75
45729,2018-06-29 09:08:41.031250,-32.16,80.75
45730,2018-06-29 09:08:41.062500,-41.54,80.75
45731,2018-06-29 09:08:41.093750,-53.59,80.75
45732,2018-06-29 09:08:41.125000,-60.11,80.75
45733,2018-06-29 09:08:41.156250,-51.38,80.75
45734,2018-06-29 09:08:41.187500,-28.29,80.75
45735,2018-06-29 09:08:41.218750,-2.35,80.75
45736,2018-06-29 09:08:41.250000,16.66,80.75
45737,2018-06-29 09:08:41.281250,27.14,80.75
45738,2018-06-29 09:08:41.312500,31.76,80.75
45739,2018-06-29 09:08:41.343750,33.25,80.75
45740,2018-06-29 09:08:41.375000,33.69,80.75
45741,2018-06-29 09:08:41.406250,34.25,80.75
45742,2018-06-29 09:08:41.437500,35.37,80.75
45743,2018-06-29 09:08:41.468750,35.64,80.75
45744,2018-06-29 09:08:41.500000,34.42,80.75
45745,2018-06-29 09:08:41.531250,33.33,80.78
45746,2018-06-29 09:08:41.562500,33.54,80.78
45747,2018-06-29 09:08:41.593750,33.69,80.78
45748,2018-06-29 09:08:41.625000,31.94,80.78
45749,2018-06-29 09:08:41.656250,29.16,80.78
45750,2018-06-29 09:08:41.687500,26.75,80.78
45751,2018-06-29 09:08:41.718750,26.33,80.78
45752,2018-06-29 09:08:41.750000,27.13,80.78
45753,2018-06-29 09:08:41.781250,27.45,80.78
45754,2018-06-29 09:08:41.812500,25.54,80.78
45755,2018-06-29 09:08:41.843750,24.21,80.78
45756,2018-06-29 09:08:41.875000,28.59,80.78
45757,2018-06-29 09:08:41.906250,35.77,80.78
45758,2018-06-29 09:08:41.937500,40.58,80.78
45759,2018-06-29 09:08:41.968750,39.85,80.78
45760,2018-06-29 09:08:42.000000,46.29,80.78
45761,2018-06-29 09:08:42.031250,62.54,80.78
45762,2018-06-29 09:08:42.062500,78.58,80.78
45763,2018-06-29 09:08:42.093750,84.03,80.78
45764,2018-06-29 09:08:42.125000,88.69,80.78
45765,2018-06-29 09:08:42.156250,113.1,80.78
45766,2018-06-29 09:08:42.187500,145.7,80.78
45767,2018-06-29 09:08:42.218750,168.79,80.78
45768,2018-06-29 09:08:42.250000,184.45,80.78
45769,2018-06-29 09:08:42.281250,230.7,80.78
45770,2018-06-29 09:08:42.312500,305.84,80.78
45771,2018-06-29 09:08:42.343750,391.47,80.78
45772,2018-06-29 09:08:42.375000,473.68,80.78
45773,2018-06-29 09:08:42.406250,393.71,80.78
45774,2018-06-29 09:08:42.437500,177.53,80.78
45775,2018-06-29 09:08:42.468750,-32.54,80.78
45776,2018-06-29 09:08:42.500000,-164.38,80.78
45777,2018-06-29 09:08:42.531250,-216.13,80.77
45778,2018-06-29 09:08:42.562500,-210.3,80.77
45779,2018-06-29 09:08:42.593750,-182.76,80.77
45780,2018-06-29 09:08:42.625000,-166.58,80.77
45781,2018-06-29 09:08:42.656250,-187.04,80.77
45782,2018-06-29 09:08:42.687500,-245.12,80.77
45783,2018-06-29 09:08:42.718750,-296.26,80.77
45784,2018-06-29 09:08:42.750000,-312.75,80.77
45785,2018-06-29 09:08:42.781250,-293.23,80.77
45786,2018-06-29 09:08:42.812500,-262.92,80.77
45787,2018-06-29 09:08:42.843750,-230.31,80.77
45788,2018-06-29 09:08:42.875000,-194.2,80.77
45789,2018-06-29 09:08:42.906250,-160.51,80.77
45790,2018-06-29 09:08:42.937500,-139.81,80.77
45791,2018-06-29 09:08:42.968750,-129.34,80.77
45792,2018-06-29 09:08:43.000000,-114.17,80.77
45793,2018-06-29 09:08:43.031250,-94.32,80.77
45794,2018-06-29 09:08:43.062500,-79.64,80.77
45795,2018-06-29 09:08:43.093750,-74.16,80.77
45796,2018-06-29 09:08:43.125000,-69.29,80.77
45797,2018-06-29 09:08:43.156250,-59.67,80.77
45798,2018-06-29 09:08:43.187500,-49.55,80.77
45799,2018-06-29 09:08:43.218750,-44.12,80.77
45800,2018-06-29 09:08:43.250000,-43.35,80.77
45801,2018-06-29 09:08:43.281250,-43.87,80.77
45802,2018-06-29 09:08:43.312500,-41.41,80.77
45803,2018-06-29 09:08:43.343750,-31.74,80.77
45804,2018-06-29 09:08:43.375000,-15.09,80.77
45805,2018-06-29 09:08:43.406250,1.92,80.77
45806,2018-06-29 09:08:43.437500,12.9,80.77
45807,2018-06-29 09:08:43.468750,18.05,80.77
45808,2018-06-29 09:08:43.500000,20.94,80.77
45809,2018-06-29 09:08:43.531250,22.47,80.65
45810,2018-06-29 09:08:43.562500,21.22,80.65
45811,2018-06-29 09:08:43.593750,17.64,80.65
45812,2018-06-29 09:08:43.625000,14.0,80.65
45813,2018-06-29 09:08:43.656250,10.53,80.65
45814,2018-06-29 09:08:43.687500,5.93,80.65
45815,2018-06-29 09:08:43.718750,0.94,80.65
45816,2018-06-29 09:08:43.750000,-2.47,80.65
45817,2018-06-29 09:08:43.781250,-0.11,80.65
45818,2018-06-29 09:08:43.812500,15.71,80.65
45819,2018-06-29 09:08:43.843750,43.61,80.65
45820,2018-06-29 09:08:43.875000,64.26,80.65
45821,2018-06-29 09:08:43.906250,60.7,80.65
45822,2018-06-29 09:08:43.937500,40.07,80.65
45823,2018-06-29 09:08:43.968750,20.81,80.65
45824,2018-06-29 09:08:44.000000,10.02,80.65
45825,2018-06-29 09:08:44.031250,4.42,80.65
45826,2018-06-29 09:08:44.062500,0.39,80.65
45827,2018-06-29 09:08:44.093750,-6.26,80.65
45828,2018-06-29 09:08:44.125000,-17.48,80.65
45829,2018-06-29 09:08:44.156250,-26.87,80.65
45830,2018-06-29 09:08:44.187500,-25.12,80.65
45831,2018-06-29 09:08:44.218750,-12.2,80.65
45832,2018-06-29 09:08:44.250000,1.78,80.65
45833,2018-06-29 09:08:44.281250,11.08,80.65
45834,2018-06-29 09:08:44.312500,18.74,80.65
45835,2018-06-29 09:08:44.343750,30.04,80.65
45836,2018-06-29 09:08:44.375000,45.47,80.65
45837,2018-06-29 09:08:44.406250,63.24,80.65
45838,2018-06-29 09:08:44.437500,81.67,80.65
45839,2018-06-29 09:08:44.468750,97.95,80.65
45840,2018-06-29 09:08:44.500000,111.99,80.65
45841,2018-06-29 09:08:44.531250,118.74,80.6
45842,2018-06-29 09:08:44.562500,117.93,80.6
45843,2018-06-29 09:08:44.593750,110.49,80.6
45844,2018-06-29 09:08:44.625000,104.7,80.6
45845,2018-06-29 09:08:44.656250,100.82,80.6
45846,2018-06-29 09:08:44.687500,91.58,80.6
45847,2018-06-29 09:08:44.718750,73.81,80.6
45848,2018-06-29 09:08:44.750000,50.1,80.6
45849,2018-06-29 09:08:44.781250,36.96,80.6
45850,2018-06-29 09:08:44.812500,27.15,80.6
45851,2018-06-29 09:08:44.843750,18.13,80.6
45852,2018-06-29 09:08:44.875000,4.81,80.6
45853,2018-06-29 09:08:44.906250,0.58,80.6
45854,2018-06-29 09:08:44.937500,13.66,80.6
45855,2018-06-29 09:08:44.968750,50.1,80.6
45856,2018-06-29 09:08:45.000000,123.98,80.6
45857,2018-06-29 09:08:45.031250,155.68,80.6
45858,2018-06-29 09:08:45.062500,148.32,80.6
45859,2018-06-29 09:08:45.093750,130.25,80.6
45860,2018-06-29 09:08:45.125000,98.68,80.6
45861,2018-06-29 09:08:45.156250,62.34,80.6
45862,2018-06-29 09:08:45.187500,28.02,80.6
45863,2018-06-29 09:08:45.218750,-8.05,80.6
45864,2018-06-29 09:08:45.250000,-46.54,80.6
45865,2018-06-29 09:08:45.281250,-80.58,80.6
45866,2018-06-29 09:08:45.312500,-111.86,80.6
45867,2018-06-29 09:08:45.343750,-132.84,80.6
45868,2018-06-29 09:08:45.375000,-154.99,80.6
45869,2018-06-29 09:08:45.406250,-174.33,80.6
45870,2018-06-29 09:08:45.437500,-188.02,80.6
45871,2018-06-29 09:08:45.468750,-190.65,80.6
45872,2018-06-29 09:08:45.500000,-181.61,80.6
45873,2018-06-29 09:08:45.531250,-162.56,80.57
45874,2018-06-29 09:08:45.562500,-131.71,80.57
45875,2018-06-29 09:08:45.593750,-91.72,80.57
45876,2018-06-29 09:08:45.625000,-38.95,80.57
45877,2018-06-29 09:08:45.656250,14.14,80.57
45878,2018-06-29 09:08:45.687500,40.98,80.57
45879,2018-06-29 09:08:45.718750,46.66,80.57
45880,2018-06-29 09:08:45.750000,46.2,80.57
45881,2018-06-29 09:08:45.781250,44.24,80.57
45882,2018-06-29 09:08:45.812500,43.35,80.57
45883,2018-06-29 09:08:45.843750,43.91,80.57
45884,2018-06-29 09:08:45.875000,35.09,80.57
45885,2018-06-29 09:08:45.906250,17.96,80.57
45886,2018-06-29 09:08:45.937500,4.77,80.57
45887,2018-06-29 09:08:45.968750,0.98,80.57
45888,2018-06-29 09:08:46.000000,0.74,80.57
45889,2018-06-29 09:08:46.031250,-1.55,80.57
45890,2018-06-29 09:08:46.062500,-4.59,80.57
45891,2018-06-29 09:08:46.093750,-6.36,80.57
45892,2018-06-29 09:08:46.125000,-4.71,80.57
45893,2018-06-29 09:08:46.156250,0.46,80.57
45894,2018-06-29 09:08:46.187500,6.87,80.57
45895,2018-06-29 09:08:46.218750,9.64,80.57
45896,2018-06-29 09:08:46.250000,4.42,80.57
45897,2018-06-29 09:08:46.281250,-3.82,80.57
45898,2018-06-29 09:08:46.312500,-8.72,80.57
45899,2018-06-29 09:08:46.343750,-5.32,80.57
45900,2018-06-29 09:08:46.375000,6.16,80.57
45901,2018-06-29 09:08:46.406250,28.92,80.57
45902,2018-06-29 09:08:46.437500,59.51,80.57
45903,2018-06-29 09:08:46.468750,84.33,80.57
45904,2018-06-29 09:08:46.500000,90.39,80.57
45905,2018-06-29 09:08:46.531250,66.45,80.55
45906,2018-06-29 09:08:46.562500,13.07,80.55
45907,2018-06-29 09:08:46.593750,-61.8,80.55
45908,2018-06-29 09:08:46.625000,-130.2,80.55
45909,2018-06-29 09:08:46.656250,-167.66,80.55
45910,2018-06-29 09:08:46.687500,-156.11,80.55
45911,2018-06-29 09:08:46.718750,-73.07,80.55
45912,2018-06-29 09:08:46.750000,-1.81,80.55
45913,2018-06-29 09:08:46.781250,17.96,80.55
45914,2018-06-29 09:08:46.812500,12.55,80.55
45915,2018-06-29 09:08:46.843750,-1.45,80.55
45916,2018-06-29 09:08:46.875000,-26.28,80.55
45917,2018-06-29 09:08:46.906250,-45.97,80.55
45918,2018-06-29 09:08:46.937500,-51.13,80.55
45919,2018-06-29 09:08:46.968750,-44.89,80.55
45920,2018-06-29 09:08:47.000000,-28.1,80.55
45921,2018-06-29 09:08:47.031250,-2.48,80.55
45922,2018-06-29 09:08:47.062500,29.51,80.55
45923,2018-06-29 09:08:47.093750,62.32,80.55
45924,2018-06-29 09:08:47.125000,95.77,80.55
45925,2018-06-29 09:08:47.156250,125.22,80.55
45926,2018-06-29 09:08:47.187500,148.98,80.55
45927,2018-06-29 09:08:47.218750,159.97,80.55
45928,2018-06-29 09:08:47.250000,154.19,80.55
45929,2018-06-29 09:08:47.281250,130.17,80.55
45930,2018-06-29 09:08:47.312500,93.01,80.55
45931,2018-06-29 09:08:47.343750,55.43,80.55
45932,2018-06-29 09:08:47.375000,27.16,80.55
45933,2018-06-29 09:08:47.406250,7.85,80.55
45934,2018-06-29 09:08:47.437500,-9.86,80.55
45935,2018-06-29 09:08:47.468750,-29.63,80.55
45936,2018-06-29 09:08:47.500000,-50.08,80.55
45937,2018-06-29 09:08:47.531250,-68.78,80.55
45938,2018-06-29 09:08:47.562500,-85.04,80.55
45939,2018-06-29 09:08:47.593750,-97.06,80.55
45940,2018-06-29 09:08:47.625000,-100.27,80.55
45941,2018-06-29 09:08:47.656250,-91.25,80.55
45942,2018-06-29 09:08:47.687500,-73.53,80.55
45943,2018-06-29 09:08:47.718750,-55.09,80.55
45944,2018-06-29 09:08:47.750000,-41.24,80.55
45945,2018-06-29 09:08:47.781250,-32.99,80.55
45946,2018-06-29 09:08:47.812500,-30.17,80.55
45947,2018-06-29 09:08:47.843750,-31.75,80.55
45948,2018-06-29 09:08:47.875000,-34.12,80.55
45949,2018-06-29 09:08:47.906250,-34.25,80.55
45950,2018-06-29 09:08:47.937500,-33.31,80.55
45951,2018-06-29 09:08:47.968750,-33.64,80.55
45952,2018-06-29 09:08:48.000000,-34.8,80.55
45953,2018-06-29 09:08:48.031250,-35.44,80.55
45954,2018-06-29 09:08:48.062500,-35.91,80.55
45955,2018-06-29 09:08:48.093750,-36.62,80.55
45956,2018-06-29 09:08:48.125000,-36.65,80.55
45957,2018-06-29 09:08:48.156250,-35.61,80.55
45958,2018-06-29 09:08:48.187500,-34.66,80.55
45959,2018-06-29 09:08:48.218750,-34.98,80.55
45960,2018-06-29 09:08:48.250000,-36.53,80.55
45961,2018-06-29 09:08:48.281250,-39.18,80.55
45962,2018-06-29 09:08:48.312500,-43.82,80.55
45963,2018-06-29 09:08:48.343750,-51.46,80.55
45964,2018-06-29 09:08:48.375000,-60.9,80.55
45965,2018-06-29 09:08:48.406250,-66.66,80.55
45966,2018-06-29 09:08:48.437500,-62.05,80.55
45967,2018-06-29 09:08:48.468750,-46.51,80.55
45968,2018-06-29 09:08:48.500000,-27.26,80.55
45969,2018-06-29 09:08:48.531250,-11.86,80.55
45970,2018-06-29 09:08:48.562500,-2.22,80.55
45971,2018-06-29 09:08:48.593750,3.96,80.55
45972,2018-06-29 09:08:48.625000,9.44,80.55
45973,2018-06-29 09:08:48.656250,16.0,80.55
45974,2018-06-29 09:08:48.687500,23.95,80.55
45975,2018-06-29 09:08:48.718750,32.09,80.55
45976,2018-06-29 09:08:48.750000,41.76,80.55
45977,2018-06-29 09:08:48.781250,61.26,80.55
45978,2018-06-29 09:08:48.812500,98.02,80.55
45979,2018-06-29 09:08:48.843750,144.69,80.55
45980,2018-06-29 09:08:48.875000,184.09,80.55
45981,2018-06-29 09:08:48.906250,207.89,80.55
45982,2018-06-29 09:08:48.937500,219.86,80.55
45983,2018-06-29 09:08:48.968750,224.38,80.55
45984,2018-06-29 09:08:49.000000,220.16,80.55
45985,2018-06-29 09:08:49.031250,201.79,80.55
45986,2018-06-29 09:08:49.062500,165.54,80.55
45987,2018-06-29 09:08:49.093750,115.44,80.55
45988,2018-06-29 09:08:49.125000,62.03,80.55
45989,2018-06-29 09:08:49.156250,15.1,80.55
45990,2018-06-29 09:08:49.187500,-21.83,80.55
45991,2018-06-29 09:08:49.218750,-51.61,80.55
45992,2018-06-29 09:08:49.250000,-77.36,80.55
45993,2018-06-29 09:08:49.281250,-97.75,80.55
45994,2018-06-29 09:08:49.312500,-110.39,80.55
45995,2018-06-29 09:08:49.343750,-115.29,80.55
45996,2018-06-29 09:08:49.375000,-113.17,80.55
45997,2018-06-29 09:08:49.406250,-105.98,80.55
45998,2018-06-29 09:08:49.437500,-98.23,80.55
45999,2018-06-29 09:08:49.468750,-92.87,80.55
46000,2018-06-29 09:08:49.500000,-88.82,80.55
46001,2018-06-29 09:08:49.531250,-84.34,80.62
46002,2018-06-29 09:08:49.562500,-80.53,80.62
46003,2018-06-29 09:08:49.593750,-80.71,80.62
46004,2018-06-29 09:08:49.625000,-85.58,80.62
46005,2018-06-29 09:08:49.656250,-88.86,80.62
46006,2018-06-29 09:08:49.687500,-81.4,80.62
46007,2018-06-29 09:08:49.718750,-61.6,80.62
46008,2018-06-29 09:08:49.750000,-37.81,80.62
46009,2018-06-29 09:08:49.781250,-18.61,80.62
46010,2018-06-29 09:08:49.812500,-5.21,80.62
46011,2018-06-29 09:08:49.843750,4.73,80.62
46012,2018-06-29 09:08:49.875000,11.66,80.62
46013,2018-06-29 09:08:49.906250,15.95,80.62
46014,2018-06-29 09:08:49.937500,19.71,80.62
46015,2018-06-29 09:08:49.968750,23.91,80.62
46016,2018-06-29 09:08:50.000000,27.2,80.62
46017,2018-06-29 09:08:50.031250,29.03,80.62
46018,2018-06-29 09:08:50.062500,30.29,80.62
46019,2018-06-29 09:08:50.093750,30.83,80.62
46020,2018-06-29 09:08:50.125000,29.54,80.62
46021,2018-06-29 09:08:50.156250,26.84,80.62
46022,2018-06-29 09:08:50.187500,24.2,80.62
46023,2018-06-29 09:08:50.218750,21.9,80.62
46024,2018-06-29 09:08:50.250000,19.04,80.62
46025,2018-06-29 09:08:50.281250,15.24,80.62
46026,2018-06-29 09:08:50.312500,11.15,80.62
46027,2018-06-29 09:08:50.343750,7.65,80.62
46028,2018-06-29 09:08:50.375000,4.84,80.62
46029,2018-06-29 09:08:50.406250,1.93,80.62
46030,2018-06-29 09:08:50.437500,-1.56,80.62
46031,2018-06-29 09:08:50.468750,-5.12,80.62
46032,2018-06-29 09:08:50.500000,-8.6,80.62
46033,2018-06-29 09:08:50.531250,-12.93,80.67
46034,2018-06-29 09:08:50.562500,-18.47,80.67
46035,2018-06-29 09:08:50.593750,-23.79,80.67
46036,2018-06-29 09:08:50.625000,-27.87,80.67
46037,2018-06-29 09:08:50.656250,-31.89,80.67
46038,2018-06-29 09:08:50.687500,-37.84,80.67
46039,2018-06-29 09:08:50.718750,-46.29,80.67
46040,2018-06-29 09:08:50.750000,-54.5,80.67
46041,2018-06-29 09:08:50.781250,-56.29,80.67
46042,2018-06-29 09:08:50.812500,-47.2,80.67
46043,2018-06-29 09:08:50.843750,-30.35,80.67
46044,2018-06-29 09:08:50.875000,-13.48,80.67
46045,2018-06-29 09:08:50.906250,-1.07,80.67
46046,2018-06-29 09:08:50.937500,7.38,80.67
46047,2018-06-29 09:08:50.968750,13.44,80.67
46048,2018-06-29 09:08:51.000000,17.86,80.67
46049,2018-06-29 09:08:51.031250,21.11,80.67
46050,2018-06-29 09:08:51.062500,23.37,80.67
46051,2018-06-29 09:08:51.093750,24.17,80.67
46052,2018-06-29 09:08:51.125000,23.48,80.67
46053,2018-06-29 09:08:51.156250,22.61,80.67
46054,2018-06-29 09:08:51.187500,22.78,80.67
46055,2018-06-29 09:08:51.218750,23.37,80.67
46056,2018-06-29 09:08:51.250000,22.38,80.67
46057,2018-06-29 09:08:51.281250,18.79,80.67
46058,2018-06-29 09:08:51.312500,13.95,80.67
46059,2018-06-29 09:08:51.343750,9.47,80.67
46060,2018-06-29 09:08:51.375000,4.53,80.67
46061,2018-06-29 09:08:51.406250,-2.38,80.67
46062,2018-06-29 09:08:51.437500,-10.69,80.67
46063,2018-06-29 09:08:51.468750,-18.37,80.67
46064,2018-06-29 09:08:51.500000,-23.35,80.67
46065,2018-06-29 09:08:51.531250,-24.14,80.73
46066,2018-06-29 09:08:51.562500,-22.16,80.73
46067,2018-06-29 09:08:51.593750,-21.97,80.73
46068,2018-06-29 09:08:51.625000,-25.89,80.73
46069,2018-06-29 09:08:51.656250,-30.95,80.73
46070,2018-06-29 09:08:51.687500,-32.07,80.73
46071,2018-06-29 09:08:51.718750,-26.7,80.73
46072,2018-06-29 09:08:51.750000,-16.91,80.73
46073,2018-06-29 09:08:51.781250,-6.64,80.73
46074,2018-06-29 09:08:51.812500,4.18,80.73
46075,2018-06-29 09:08:51.843750,18.13,80.73
46076,2018-06-29 09:08:51.875000,32.68,80.73
46077,2018-06-29 09:08:51.906250,41.62,80.73
46078,2018-06-29 09:08:51.937500,43.74,80.73
46079,2018-06-29 09:08:51.968750,42.91,80.73
46080,2018-06-29 09:08:52.000000,41.51,80.73
46081,2018-06-29 09:08:52.031250,39.11,80.73
46082,2018-06-29 09:08:52.062500,35.87,80.73
46083,2018-06-29 09:08:52.093750,32.53,80.73
46084,2018-06-29 09:08:52.125000,27.25,80.73
46085,2018-06-29 09:08:52.156250,17.16,80.73
46086,2018-06-29 09:08:52.187500,3.66,80.73
46087,2018-06-29 09:08:52.218750,-8.65,80.73
46088,2018-06-29 09:08:52.250000,-18.16,80.73
46089,2018-06-29 09:08:52.281250,-26.52,80.73
46090,2018-06-29 09:08:52.312500,-34.41,80.73
46091,2018-06-29 09:08:52.343750,-41.22,80.73
46092,2018-06-29 09:08:52.375000,-45.91,80.73
46093,2018-06-29 09:08:52.406250,-46.02,80.73
46094,2018-06-29 09:08:52.437500,-40.29,80.73
46095,2018-06-29 09:08:52.468750,-31.61,80.73
46096,2018-06-29 09:08:52.500000,-22.51,80.73
46097,2018-06-29 09:08:52.531250,-9.86,80.73
46098,2018-06-29 09:08:52.562500,8.39,80.73
46099,2018-06-29 09:08:52.593750,25.12,80.73
46100,2018-06-29 09:08:52.625000,32.99,80.73
46101,2018-06-29 09:08:52.656250,37.19,80.73
46102,2018-06-29 09:08:52.687500,49.71,80.73
46103,2018-06-29 09:08:52.718750,75.05,80.73
46104,2018-06-29 09:08:52.750000,107.1,80.73
46105,2018-06-29 09:08:52.781250,134.56,80.73
46106,2018-06-29 09:08:52.812500,145.85,80.73
46107,2018-06-29 09:08:52.843750,136.71,80.73
46108,2018-06-29 09:08:52.875000,115.32,80.73
46109,2018-06-29 09:08:52.906250,93.43,80.73
46110,2018-06-29 09:08:52.937500,73.54,80.73
46111,2018-06-29 09:08:52.968750,52.19,80.73
46112,2018-06-29 09:08:53.000000,29.39,80.73
46113,2018-06-29 09:08:53.031250,3.91,80.73
46114,2018-06-29 09:08:53.062500,-29.03,80.73
46115,2018-06-29 09:08:53.093750,-63.36,80.73
46116,2018-06-29 09:08:53.125000,-83.46,80.73
46117,2018-06-29 09:08:53.156250,-86.24,80.73
46118,2018-06-29 09:08:53.187500,-81.27,80.73
46119,2018-06-29 09:08:53.218750,-69.29,80.73
46120,2018-06-29 09:08:53.250000,-43.82,80.73
46121,2018-06-29 09:08:53.281250,-8.86,80.73
46122,2018-06-29 09:08:53.312500,25.05,80.73
46123,2018-06-29 09:08:53.343750,54.83,80.73
46124,2018-06-29 09:08:53.375000,82.54,80.73
46125,2018-06-29 09:08:53.406250,105.85,80.73
46126,2018-06-29 09:08:53.437500,119.06,80.73
46127,2018-06-29 09:08:53.468750,116.02,80.73
46128,2018-06-29 09:08:53.500000,94.12,80.73
46129,2018-06-29 09:08:53.531250,58.93,80.73
46130,2018-06-29 09:08:53.562500,21.77,80.73
46131,2018-06-29 09:08:53.593750,-9.04,80.73
46132,2018-06-29 09:08:53.625000,-34.42,80.73
46133,2018-06-29 09:08:53.656250,-60.76,80.73
46134,2018-06-29 09:08:53.687500,-92.86,80.73
46135,2018-06-29 09:08:53.718750,-119.69,80.73
46136,2018-06-29 09:08:53.750000,-121.95,80.73
46137,2018-06-29 09:08:53.781250,-98.62,80.73
46138,2018-06-29 09:08:53.812500,-70.62,80.73
46139,2018-06-29 09:08:53.843750,-50.86,80.73
46140,2018-06-29 09:08:53.875000,-25.99,80.73
46141,2018-06-29 09:08:53.906250,14.94,80.73
46142,2018-06-29 09:08:53.937500,61.08,80.73
46143,2018-06-29 09:08:53.968750,74.61,80.73
46144,2018-06-29 09:08:54.000000,31.74,80.73
46145,2018-06-29 09:08:54.031250,-22.79,80.73
46146,2018-06-29 09:08:54.062500,-26.19,80.73
46147,2018-06-29 09:08:54.093750,50.69,80.73
46148,2018-06-29 09:08:54.125000,140.57,80.73
46149,2018-06-29 09:08:54.156250,141.62,80.73
46150,2018-06-29 09:08:54.187500,68.17,80.73
46151,2018-06-29 09:08:54.218750,-4.12,80.73
46152,2018-06-29 09:08:54.250000,-40.06,80.73
46153,2018-06-29 09:08:54.281250,-59.95,80.73
46154,2018-06-29 09:08:54.312500,-80.58,80.73
46155,2018-06-29 09:08:54.343750,-108.2,80.73
46156,2018-06-29 09:08:54.375000,-140.54,80.73
46157,2018-06-29 09:08:54.406250,-148.45,80.73
46158,2018-06-29 09:08:54.437500,-111.65,80.73
46159,2018-06-29 09:08:54.468750,-39.55,80.73
46160,2018-06-29 09:08:54.500000,21.21,80.73
46161,2018-06-29 09:08:54.531250,42.88,80.73
46162,2018-06-29 09:08:54.562500,21.23,80.73
46163,2018-06-29 09:08:54.593750,-27.36,80.73
46164,2018-06-29 09:08:54.625000,-66.23,80.73
46165,2018-06-29 09:08:54.656250,-78.46,80.73
46166,2018-06-29 09:08:54.687500,-80.02,80.73
46167,2018-06-29 09:08:54.718750,-76.73,80.73
46168,2018-06-29 09:08:54.750000,-66.29,80.73
46169,2018-06-29 09:08:54.781250,-54.6,80.73
46170,2018-06-29 09:08:54.812500,-49.57,80.73
46171,2018-06-29 09:08:54.843750,-55.55,80.73
46172,2018-06-29 09:08:54.875000,-62.45,80.73
46173,2018-06-29 09:08:54.906250,-61.79,80.73
46174,2018-06-29 09:08:54.937500,-51.45,80.73
46175,2018-06-29 09:08:54.968750,-31.18,80.73
46176,2018-06-29 09:08:55.000000,-3.46,80.73
46177,2018-06-29 09:08:55.031250,26.15,80.73
46178,2018-06-29 09:08:55.062500,52.25,80.73
46179,2018-06-29 09:08:55.093750,75.55,80.73
46180,2018-06-29 09:08:55.125000,100.04,80.73
46181,2018-06-29 09:08:55.156250,122.4,80.73
46182,2018-06-29 09:08:55.187500,131.4,80.73
46183,2018-06-29 09:08:55.218750,123.04,80.73
46184,2018-06-29 09:08:55.250000,100.02,80.73
46185,2018-06-29 09:08:55.281250,70.24,80.73
46186,2018-06-29 09:08:55.312500,43.67,80.73
46187,2018-06-29 09:08:55.343750,22.41,80.73
46188,2018-06-29 09:08:55.375000,11.62,80.73
46189,2018-06-29 09:08:55.406250,7.47,80.73
46190,2018-06-29 09:08:55.437500,8.42,80.73
46191,2018-06-29 09:08:55.468750,8.97,80.73
46192,2018-06-29 09:08:55.500000,2.35,80.73
46193,2018-06-29 09:08:55.531250,-2.26,80.73
46194,2018-06-29 09:08:55.562500,13.68,80.73
46195,2018-06-29 09:08:55.593750,48.38,80.73
46196,2018-06-29 09:08:55.625000,74.73,80.73
46197,2018-06-29 09:08:55.656250,62.76,80.73
46198,2018-06-29 09:08:55.687500,12.4,80.73
46199,2018-06-29 09:08:55.718750,-48.77,80.73
46200,2018-06-29 09:08:55.750000,-87.72,80.73
46201,2018-06-29 09:08:55.781250,-91.28,80.73
46202,2018-06-29 09:08:55.812500,-65.25,80.73
46203,2018-06-29 09:08:55.843750,-23.84,80.73
46204,2018-06-29 09:08:55.875000,-2.35,80.73
46205,2018-06-29 09:08:55.906250,-13.25,80.73
46206,2018-06-29 09:08:55.937500,-38.62,80.73
46207,2018-06-29 09:08:55.968750,-50.06,80.73
46208,2018-06-29 09:08:56.000000,-37.7,80.73
46209,2018-06-29 09:08:56.031250,-1.32,80.73
46210,2018-06-29 09:08:56.062500,48.1,80.73
46211,2018-06-29 09:08:56.093750,68.87,80.73
46212,2018-06-29 09:08:56.125000,52.42,80.73
46213,2018-06-29 09:08:56.156250,16.34,80.73
46214,2018-06-29 09:08:56.187500,-17.06,80.73
46215,2018-06-29 09:08:56.218750,-40.13,80.73
46216,2018-06-29 09:08:56.250000,-48.05,80.73
46217,2018-06-29 09:08:56.281250,-44.3,80.73
46218,2018-06-29 09:08:56.312500,-35.91,80.73
46219,2018-06-29 09:08:56.343750,-38.3,80.73
46220,2018-06-29 09:08:56.375000,-56.89,80.73
46221,2018-06-29 09:08:56.406250,-70.05,80.73
46222,2018-06-29 09:08:56.437500,-61.65,80.73
46223,2018-06-29 09:08:56.468750,-37.8,80.73
46224,2018-06-29 09:08:56.500000,-19.3,80.73
46225,2018-06-29 09:08:56.531250,-13.36,80.82
46226,2018-06-29 09:08:56.562500,-10.82,80.82
46227,2018-06-29 09:08:56.593750,1.65,80.82
46228,2018-06-29 09:08:56.625000,22.22,80.82
46229,2018-06-29 09:08:56.656250,37.98,80.82
46230,2018-06-29 09:08:56.687500,40.05,80.82
46231,2018-06-29 09:08:56.718750,33.72,80.82
46232,2018-06-29 09:08:56.750000,25.13,80.82
46233,2018-06-29 09:08:56.781250,19.46,80.82
46234,2018-06-29 09:08:56.812500,28.29,80.82
46235,2018-06-29 09:08:56.843750,55.61,80.82
46236,2018-06-29 09:08:56.875000,80.74,80.82
46237,2018-06-29 09:08:56.906250,72.51,80.82
46238,2018-06-29 09:08:56.937500,46.84,80.82
46239,2018-06-29 09:08:56.968750,24.65,80.82
46240,2018-06-29 09:08:57.000000,10.82,80.82
46241,2018-06-29 09:08:57.031250,24.88,80.82
46242,2018-06-29 09:08:57.062500,69.81,80.82
46243,2018-06-29 09:08:57.093750,103.15,80.82
46244,2018-06-29 09:08:57.125000,85.0,80.82
46245,2018-06-29 09:08:57.156250,33.02,80.82
46246,2018-06-29 09:08:57.187500,-13.96,80.82
46247,2018-06-29 09:08:57.218750,-48.6,80.82
46248,2018-06-29 09:08:57.250000,-78.05,80.82
46249,2018-06-29 09:08:57.281250,-97.65,80.82
46250,2018-06-29 09:08:57.312500,-108.59,80.82
46251,2018-06-29 09:08:57.343750,-119.91,80.82
46252,2018-06-29 09:08:57.375000,-130.93,80.82
46253,2018-06-29 09:08:57.406250,-130.27,80.82
46254,2018-06-29 09:08:57.437500,-113.59,80.82
46255,2018-06-29 09:08:57.468750,-92.45,80.82
46256,2018-06-29 09:08:57.500000,-78.14,80.82
46257,2018-06-29 09:08:57.531250,-69.51,80.82
46258,2018-06-29 09:08:57.562500,-59.6,80.82
46259,2018-06-29 09:08:57.593750,-47.34,80.82
46260,2018-06-29 09:08:57.625000,-36.26,80.82
46261,2018-06-29 09:08:57.656250,-27.92,80.82
46262,2018-06-29 09:08:57.687500,-21.24,80.82
46263,2018-06-29 09:08:57.718750,-15.1,80.82
46264,2018-06-29 09:08:57.750000,-10.02,80.82
46265,2018-06-29 09:08:57.781250,-5.69,80.82
46266,2018-06-29 09:08:57.812500,0.69,80.82
46267,2018-06-29 09:08:57.843750,10.55,80.82
46268,2018-06-29 09:08:57.875000,21.56,80.82
46269,2018-06-29 09:08:57.906250,31.27,80.82
46270,2018-06-29 09:08:57.937500,40.64,80.82
46271,2018-06-29 09:08:57.968750,53.07,80.82
46272,2018-06-29 09:08:58.000000,70.87,80.82
46273,2018-06-29 09:08:58.031250,91.59,80.82
46274,2018-06-29 09:08:58.062500,109.56,80.82
46275,2018-06-29 09:08:58.093750,121.76,80.82
46276,2018-06-29 09:08:58.125000,128.16,80.82
46277,2018-06-29 09:08:58.156250,127.94,80.82
46278,2018-06-29 09:08:58.187500,122.57,80.82
46279,2018-06-29 09:08:58.218750,123.1,80.82
46280,2018-06-29 09:08:58.250000,142.4,80.82
46281,2018-06-29 09:08:58.281250,173.08,80.82
46282,2018-06-29 09:08:58.312500,187.33,80.82
46283,2018-06-29 09:08:58.343750,168.7,80.82
46284,2018-06-29 09:08:58.375000,128.62,80.82
46285,2018-06-29 09:08:58.406250,84.16,80.82
46286,2018-06-29 09:08:58.437500,38.25,80.82
46287,2018-06-29 09:08:58.468750,-10.7,80.82
46288,2018-06-29 09:08:58.500000,-56.61,80.82
46289,2018-06-29 09:08:58.531250,-89.19,80.9
46290,2018-06-29 09:08:58.562500,-104.22,80.9
46291,2018-06-29 09:08:58.593750,-114.13,80.9
46292,2018-06-29 09:08:58.625000,-146.51,80.9
46293,2018-06-29 09:08:58.656250,-210.22,80.9
46294,2018-06-29 09:08:58.687500,-264.28,80.9
46295,2018-06-29 09:08:58.718750,-253.54,80.9
46296,2018-06-29 09:08:58.750000,-178.45,80.9
46297,2018-06-29 09:08:58.781250,-96.93,80.9
46298,2018-06-29 09:08:58.812500,-59.04,80.9
46299,2018-06-29 09:08:58.843750,-70.22,80.9
46300,2018-06-29 09:08:58.875000,-108.11,80.9
46301,2018-06-29 09:08:58.906250,-143.81,80.9
46302,2018-06-29 09:08:58.937500,-153.8,80.9
46303,2018-06-29 09:08:58.968750,-135.79,80.9
46304,2018-06-29 09:08:59.000000,-111.52,80.9
46305,2018-06-29 09:08:59.031250,-102.22,80.9
46306,2018-06-29 09:08:59.062500,-106.48,80.9
46307,2018-06-29 09:08:59.093750,-105.33,80.9
46308,2018-06-29 09:08:59.125000,-79.18,80.9
46309,2018-06-29 09:08:59.156250,-25.88,80.9
46310,2018-06-29 09:08:59.187500,30.25,80.9
46311,2018-06-29 09:08:59.218750,60.43,80.9
46312,2018-06-29 09:08:59.250000,62.4,80.9
46313,2018-06-29 09:08:59.281250,52.43,80.9
46314,2018-06-29 09:08:59.312500,39.68,80.9
46315,2018-06-29 09:08:59.343750,28.63,80.9
46316,2018-06-29 09:08:59.375000,28.3,80.9
46317,2018-06-29 09:08:59.406250,39.36,80.9
46318,2018-06-29 09:08:59.437500,48.58,80.9
46319,2018-06-29 09:08:59.468750,47.23,80.9
46320,2018-06-29 09:08:59.500000,41.32,80.9
46321,2018-06-29 09:08:59.531250,37.61,80.98
46322,2018-06-29 09:08:59.562500,31.99,80.98
46323,2018-06-29 09:08:59.593750,18.47,80.98
46324,2018-06-29 09:08:59.625000,0.83,80.98
46325,2018-06-29 09:08:59.656250,-12.69,80.98
46326,2018-06-29 09:08:59.687500,-19.37,80.98
46327,2018-06-29 09:08:59.718750,-21.63,80.98
46328,2018-06-29 09:08:59.750000,-20.43,80.98
46329,2018-06-29 09:08:59.781250,-13.34,80.98
46330,2018-06-29 09:08:59.812500,1.05,80.98
46331,2018-06-29 09:08:59.843750,19.26,80.98
46332,2018-06-29 09:08:59.875000,36.7,80.98
46333,2018-06-29 09:08:59.906250,53.38,80.98
46334,2018-06-29 09:08:59.937500,69.99,80.98
46335,2018-06-29 09:08:59.968750,82.0,80.98
46336,2018-06-29 09:09:00.000000,84.05,80.98
46337,2018-06-29 09:09:00.031250,77.13,80.98
46338,2018-06-29 09:09:00.062500,66.55,80.98
46339,2018-06-29 09:09:00.093750,55.98,80.98
46340,2018-06-29 09:09:00.125000,46.69,80.98
46341,2018-06-29 09:09:00.156250,40.0,80.98
46342,2018-06-29 09:09:00.187500,36.85,80.98
46343,2018-06-29 09:09:00.218750,36.04,80.98
46344,2018-06-29 09:09:00.250000,34.77,80.98
46345,2018-06-29 09:09:00.281250,31.13,80.98
46346,2018-06-29 09:09:00.312500,25.67,80.98
46347,2018-06-29 09:09:00.343750,20.5,80.98
46348,2018-06-29 09:09:00.375000,16.23,80.98
46349,2018-06-29 09:09:00.406250,10.78,80.98
46350,2018-06-29 09:09:00.437500,3.32,80.98
46351,2018-06-29 09:09:00.468750,-3.14,80.98
46352,2018-06-29 09:09:00.500000,-6.28,80.98
46353,2018-06-29 09:09:00.531250,-9.17,81.0
46354,2018-06-29 09:09:00.562500,-16.64,81.0
46355,2018-06-29 09:09:00.593750,-26.68,81.0
46356,2018-06-29 09:09:00.625000,-28.91,81.0
46357,2018-06-29 09:09:00.656250,-15.48,81.0
46358,2018-06-29 09:09:00.687500,8.24,81.0
46359,2018-06-29 09:09:00.718750,29.55,81.0
46360,2018-06-29 09:09:00.750000,43.72,81.0
46361,2018-06-29 09:09:00.781250,58.38,81.0
46362,2018-06-29 09:09:00.812500,82.09,81.0
46363,2018-06-29 09:09:00.843750,108.83,81.0
46364,2018-06-29 09:09:00.875000,116.37,81.0
46365,2018-06-29 09:09:00.906250,89.0,81.0
46366,2018-06-29 09:09:00.937500,41.02,81.0
46367,2018-06-29 09:09:00.968750,4.62,81.0
46368,2018-06-29 09:09:01.000000,-4.89,81.0
46369,2018-06-29 09:09:01.031250,1.82,81.0
46370,2018-06-29 09:09:01.062500,12.1,81.0
46371,2018-06-29 09:09:01.093750,29.31,81.0
46372,2018-06-29 09:09:01.125000,63.61,81.0
46373,2018-06-29 09:09:01.156250,112.35,81.0
46374,2018-06-29 09:09:01.187500,155.86,81.0
46375,2018-06-29 09:09:01.218750,173.26,81.0
46376,2018-06-29 09:09:01.250000,158.4,81.0
46377,2018-06-29 09:09:01.281250,118.43,81.0
46378,2018-06-29 09:09:01.312500,65.34,81.0
46379,2018-06-29 09:09:01.343750,13.88,81.0
46380,2018-06-29 09:09:01.375000,-22.98,81.0
46381,2018-06-29 09:09:01.406250,-42.54,81.0
46382,2018-06-29 09:09:01.437500,-49.86,81.0
46383,2018-06-29 09:09:01.468750,-46.87,81.0
46384,2018-06-29 09:09:01.500000,-31.39,81.0
46385,2018-06-29 09:09:01.531250,-0.61,81.07
46386,2018-06-29 09:09:01.562500,48.35,81.07
46387,2018-06-29 09:09:01.593750,108.41,81.07
46388,2018-06-29 09:09:01.625000,155.37,81.07
46389,2018-06-29 09:09:01.656250,169.2,81.07
46390,2018-06-29 09:09:01.687500,159.71,81.07
46391,2018-06-29 09:09:01.718750,145.81,81.07
46392,2018-06-29 09:09:01.750000,124.1,81.07
46393,2018-06-29 09:09:01.781250,83.22,81.07
46394,2018-06-29 09:09:01.812500,34.43,81.07
46395,2018-06-29 09:09:01.843750,-3.94,81.07
46396,2018-06-29 09:09:01.875000,-39.22,81.07
46397,2018-06-29 09:09:01.906250,-89.05,81.07
46398,2018-06-29 09:09:01.937500,-159.59,81.07
46399,2018-06-29 09:09:01.968750,-228.67,81.07
46400,2018-06-29 09:09:02.000000,-240.27,81.07
46401,2018-06-29 09:09:02.031250,-144.21,81.07
46402,2018-06-29 09:09:02.062500,19.42,81.07
46403,2018-06-29 09:09:02.093750,140.82,81.07
46404,2018-06-29 09:09:02.125000,172.18,81.07
46405,2018-06-29 09:09:02.156250,151.32,81.07
46406,2018-06-29 09:09:02.187500,108.38,81.07
46407,2018-06-29 09:09:02.218750,37.19,81.07
46408,2018-06-29 09:09:02.250000,-23.39,81.07
46409,2018-06-29 09:09:02.281250,-28.56,81.07
46410,2018-06-29 09:09:02.312500,-38.91,81.07
46411,2018-06-29 09:09:02.343750,-88.65,81.07
46412,2018-06-29 09:09:02.375000,-156.81,81.07
46413,2018-06-29 09:09:02.406250,-207.57,81.07
46414,2018-06-29 09:09:02.437500,-235.33,81.07
46415,2018-06-29 09:09:02.468750,-242.76,81.07
46416,2018-06-29 09:09:02.500000,-232.52,81.07
46417,2018-06-29 09:09:02.531250,-210.89,81.15
46418,2018-06-29 09:09:02.562500,-181.59,81.15
46419,2018-06-29 09:09:02.593750,-152.7,81.15
46420,2018-06-29 09:09:02.625000,-128.02,81.15
46421,2018-06-29 09:09:02.656250,-104.31,81.15
46422,2018-06-29 09:09:02.687500,-79.04,81.15
46423,2018-06-29 09:09:02.718750,-61.02,81.15
46424,2018-06-29 09:09:02.750000,-50.74,81.15
46425,2018-06-29 09:09:02.781250,-43.2,81.15
46426,2018-06-29 09:09:02.812500,-31.08,81.15
46427,2018-06-29 09:09:02.843750,-11.97,81.15
46428,2018-06-29 09:09:02.875000,13.53,81.15
46429,2018-06-29 09:09:02.906250,40.12,81.15
46430,2018-06-29 09:09:02.937500,56.61,81.15
46431,2018-06-29 09:09:02.968750,62.1,81.15
46432,2018-06-29 09:09:03.000000,62.55,81.15
46433,2018-06-29 09:09:03.031250,61.38,81.15
46434,2018-06-29 09:09:03.062500,47.89,81.15
46435,2018-06-29 09:09:03.093750,21.88,81.15
46436,2018-06-29 09:09:03.125000,1.33,81.15
46437,2018-06-29 09:09:03.156250,5.52,81.15
46438,2018-06-29 09:09:03.187500,38.98,81.15
46439,2018-06-29 09:09:03.218750,94.21,81.15
46440,2018-06-29 09:09:03.250000,164.24,81.15
46441,2018-06-29 09:09:03.281250,192.86,81.15
46442,2018-06-29 09:09:03.312500,140.07,81.15
46443,2018-06-29 09:09:03.343750,74.22,81.15
46444,2018-06-29 09:09:03.375000,39.31,81.15
46445,2018-06-29 09:09:03.406250,10.52,81.15
46446,2018-06-29 09:09:03.437500,-8.66,81.15
46447,2018-06-29 09:09:03.468750,-13.69,81.15
46448,2018-06-29 09:09:03.500000,-19.49,81.15
46449,2018-06-29 09:09:03.531250,-25.24,81.13
46450,2018-06-29 09:09:03.562500,-12.94,81.13
46451,2018-06-29 09:09:03.593750,19.16,81.13
46452,2018-06-29 09:09:03.625000,29.02,81.13
46453,2018-06-29 09:09:03.656250,-1.04,81.13
46454,2018-06-29 09:09:03.687500,-27.32,81.13
46455,2018-06-29 09:09:03.718750,-26.02,81.13
46456,2018-06-29 09:09:03.750000,-8.32,81.13
46457,2018-06-29 09:09:03.781250,7.74,81.13
46458,2018-06-29 09:09:03.812500,2.7,81.13
46459,2018-06-29 09:09:03.843750,-31.88,81.13
46460,2018-06-29 09:09:03.875000,-78.41,81.13
46461,2018-06-29 09:09:03.906250,-101.11,81.13
46462,2018-06-29 09:09:03.937500,-95.87,81.13
46463,2018-06-29 09:09:03.968750,-95.12,81.13
46464,2018-06-29 09:09:04.000000,-94.9,81.13
46465,2018-06-29 09:09:04.031250,-78.95,81.13
46466,2018-06-29 09:09:04.062500,-46.72,81.13
46467,2018-06-29 09:09:04.093750,2.54,81.13
46468,2018-06-29 09:09:04.125000,47.11,81.13
46469,2018-06-29 09:09:04.156250,77.21,81.13
46470,2018-06-29 09:09:04.187500,109.36,81.13
46471,2018-06-29 09:09:04.218750,141.61,81.13
46472,2018-06-29 09:09:04.250000,164.26,81.13
46473,2018-06-29 09:09:04.281250,180.96,81.13
46474,2018-06-29 09:09:04.312500,199.19,81.13
46475,2018-06-29 09:09:04.343750,210.94,81.13
46476,2018-06-29 09:09:04.375000,208.66,81.13
46477,2018-06-29 09:09:04.406250,198.43,81.13
46478,2018-06-29 09:09:04.437500,179.54,81.13
46479,2018-06-29 09:09:04.468750,134.21,81.13
46480,2018-06-29 09:09:04.500000,60.05,81.13
46481,2018-06-29 09:09:04.531250,-17.4,81.18
46482,2018-06-29 09:09:04.562500,-78.29,81.18
46483,2018-06-29 09:09:04.593750,-123.67,81.18
46484,2018-06-29 09:09:04.625000,-159.99,81.18
46485,2018-06-29 09:09:04.656250,-189.39,81.18
46486,2018-06-29 09:09:04.687500,-216.16,81.18
46487,2018-06-29 09:09:04.718750,-243.7,81.18
46488,2018-06-29 09:09:04.750000,-266.43,81.18
46489,2018-06-29 09:09:04.781250,-283.11,81.18
46490,2018-06-29 09:09:04.812500,-289.48,81.18
46491,2018-06-29 09:09:04.843750,-273.73,81.18
46492,2018-06-29 09:09:04.875000,-224.74,81.18
46493,2018-06-29 09:09:04.906250,-158.05,81.18
46494,2018-06-29 09:09:04.937500,-102.56,81.18
46495,2018-06-29 09:09:04.968750,-63.34,81.18
46496,2018-06-29 09:09:05.000000,-35.33,81.18
46497,2018-06-29 09:09:05.031250,-19.1,81.18
46498,2018-06-29 09:09:05.062500,-27.27,81.18
46499,2018-06-29 09:09:05.093750,-48.56,81.18
46500,2018-06-29 09:09:05.125000,-69.6,81.18
46501,2018-06-29 09:09:05.156250,-77.48,81.18
46502,2018-06-29 09:09:05.187500,-16.06,81.18
46503,2018-06-29 09:09:05.218750,49.14,81.18
46504,2018-06-29 09:09:05.250000,73.32,81.18
46505,2018-06-29 09:09:05.281250,77.68,81.18
46506,2018-06-29 09:09:05.312500,72.43,81.18
46507,2018-06-29 09:09:05.343750,54.71,81.18
46508,2018-06-29 09:09:05.375000,37.53,81.18
46509,2018-06-29 09:09:05.406250,29.65,81.18
46510,2018-06-29 09:09:05.437500,23.92,81.18
46511,2018-06-29 09:09:05.468750,11.48,81.18
46512,2018-06-29 09:09:05.500000,-8.96,81.18
46513,2018-06-29 09:09:05.531250,-18.22,81.23
46514,2018-06-29 09:09:05.562500,-9.29,81.23
46515,2018-06-29 09:09:05.593750,7.84,81.23
46516,2018-06-29 09:09:05.625000,16.57,81.23
46517,2018-06-29 09:09:05.656250,19.47,81.23
46518,2018-06-29 09:09:05.687500,25.14,81.23
46519,2018-06-29 09:09:05.718750,32.73,81.23
46520,2018-06-29 09:09:05.750000,35.2,81.23
46521,2018-06-29 09:09:05.781250,30.61,81.23
46522,2018-06-29 09:09:05.812500,26.44,81.23
46523,2018-06-29 09:09:05.843750,27.41,81.23
46524,2018-06-29 09:09:05.875000,32.39,81.23
46525,2018-06-29 09:09:05.906250,35.79,81.23
46526,2018-06-29 09:09:05.937500,32.44,81.23
46527,2018-06-29 09:09:05.968750,20.54,81.23
46528,2018-06-29 09:09:06.000000,4.49,81.23
46529,2018-06-29 09:09:06.031250,-10.29,81.23
46530,2018-06-29 09:09:06.062500,-24.47,81.23
46531,2018-06-29 09:09:06.093750,-38.67,81.23
46532,2018-06-29 09:09:06.125000,-46.09,81.23
46533,2018-06-29 09:09:06.156250,-41.18,81.23
46534,2018-06-29 09:09:06.187500,-29.39,81.23
46535,2018-06-29 09:09:06.218750,-20.75,81.23
46536,2018-06-29 09:09:06.250000,-19.85,81.23
46537,2018-06-29 09:09:06.281250,-23.44,81.23
46538,2018-06-29 09:09:06.312500,-23.41,81.23
46539,2018-06-29 09:09:06.343750,-13.77,81.23
46540,2018-06-29 09:09:06.375000,3.45,81.23
46541,2018-06-29 09:09:06.406250,21.18,81.23
46542,2018-06-29 09:09:06.437500,35.12,81.23
46543,2018-06-29 09:09:06.468750,45.63,81.23
46544,2018-06-29 09:09:06.500000,54.08,81.23
46545,2018-06-29 09:09:06.531250,59.14,81.3
46546,2018-06-29 09:09:06.562500,57.28,81.3
46547,2018-06-29 09:09:06.593750,48.03,81.3
46548,2018-06-29 09:09:06.625000,36.05,81.3
46549,2018-06-29 09:09:06.656250,25.22,81.3
46550,2018-06-29 09:09:06.687500,14.17,81.3
46551,2018-06-29 09:09:06.718750,-1.15,81.3
46552,2018-06-29 09:09:06.750000,-22.81,81.3
46553,2018-06-29 09:09:06.781250,-47.58,81.3
46554,2018-06-29 09:09:06.812500,-67.92,81.3
46555,2018-06-29 09:09:06.843750,-81.34,81.3
46556,2018-06-29 09:09:06.875000,-95.54,81.3
46557,2018-06-29 09:09:06.906250,-117.88,81.3
46558,2018-06-29 09:09:06.937500,-143.82,81.3
46559,2018-06-29 09:09:06.968750,-163.0,81.3
46560,2018-06-29 09:09:07.000000,-171.85,81.3
46561,2018-06-29 09:09:07.031250,-173.74,81.3
46562,2018-06-29 09:09:07.062500,-169.93,81.3
46563,2018-06-29 09:09:07.093750,-150.95,81.3
46564,2018-06-29 09:09:07.125000,-103.06,81.3
46565,2018-06-29 09:09:07.156250,-24.28,81.3
46566,2018-06-29 09:09:07.187500,69.33,81.3
46567,2018-06-29 09:09:07.218750,156.54,81.3
46568,2018-06-29 09:09:07.250000,228.12,81.3
46569,2018-06-29 09:09:07.281250,285.56,81.3
46570,2018-06-29 09:09:07.312500,330.41,81.3
46571,2018-06-29 09:09:07.343750,357.13,81.3
46572,2018-06-29 09:09:07.375000,361.98,81.3
46573,2018-06-29 09:09:07.406250,347.78,81.3
46574,2018-06-29 09:09:07.437500,322.84,81.3
46575,2018-06-29 09:09:07.468750,294.43,81.3
46576,2018-06-29 09:09:07.500000,263.18,81.3
46577,2018-06-29 09:09:07.531250,231.06,81.37
46578,2018-06-29 09:09:07.562500,198.79,81.37
46579,2018-06-29 09:09:07.593750,172.91,81.37
46580,2018-06-29 09:09:07.625000,144.89,81.37
46581,2018-06-29 09:09:07.656250,107.69,81.37
46582,2018-06-29 09:09:07.687500,67.87,81.37
46583,2018-06-29 09:09:07.718750,44.23,81.37
46584,2018-06-29 09:09:07.750000,42.86,81.37
46585,2018-06-29 09:09:07.781250,39.92,81.37
46586,2018-06-29 09:09:07.812500,27.17,81.37
46587,2018-06-29 09:09:07.843750,15.75,81.37
46588,2018-06-29 09:09:07.875000,38.79,81.37
46589,2018-06-29 09:09:07.906250,90.55,81.37
46590,2018-06-29 09:09:07.937500,148.75,81.37
46591,2018-06-29 09:09:07.968750,178.11,81.37
46592,2018-06-29 09:09:08.000000,50.8,81.37
46593,2018-06-29 09:09:08.031250,-120.48,81.37
46594,2018-06-29 09:09:08.062500,-211.41,81.37
46595,2018-06-29 09:09:08.093750,-241.27,81.37
46596,2018-06-29 09:09:08.125000,-246.65,81.37
46597,2018-06-29 09:09:08.156250,-223.81,81.37
46598,2018-06-29 09:09:08.187500,-189.79,81.37
46599,2018-06-29 09:09:08.218750,-167.02,81.37
46600,2018-06-29 09:09:08.250000,-158.65,81.37
46601,2018-06-29 09:09:08.281250,-145.62,81.37
46602,2018-06-29 09:09:08.312500,-117.51,81.37
46603,2018-06-29 09:09:08.343750,-96.28,81.37
46604,2018-06-29 09:09:08.375000,-90.0,81.37
46605,2018-06-29 09:09:08.406250,-90.13,81.37
46606,2018-06-29 09:09:08.437500,-82.76,81.37
46607,2018-06-29 09:09:08.468750,-73.9,81.37
46608,2018-06-29 09:09:08.500000,-74.29,81.37
46609,2018-06-29 09:09:08.531250,-79.91,81.48
46610,2018-06-29 09:09:08.562500,-78.09,81.48
46611,2018-06-29 09:09:08.593750,-63.26,81.48
46612,2018-06-29 09:09:08.625000,-47.54,81.48
46613,2018-06-29 09:09:08.656250,-38.87,81.48
46614,2018-06-29 09:09:08.687500,-32.97,81.48
46615,2018-06-29 09:09:08.718750,-19.89,81.48
46616,2018-06-29 09:09:08.750000,6.05,81.48
46617,2018-06-29 09:09:08.781250,45.62,81.48
46618,2018-06-29 09:09:08.812500,91.68,81.48
46619,2018-06-29 09:09:08.843750,128.34,81.48
46620,2018-06-29 09:09:08.875000,141.54,81.48
46621,2018-06-29 09:09:08.906250,127.89,81.48
46622,2018-06-29 09:09:08.937500,96.44,81.48
46623,2018-06-29 09:09:08.968750,62.47,81.48
46624,2018-06-29 09:09:09.000000,36.26,81.48
46625,2018-06-29 09:09:09.031250,16.61,81.48
46626,2018-06-29 09:09:09.062500,-5.74,81.48
46627,2018-06-29 09:09:09.093750,-36.42,81.48
46628,2018-06-29 09:09:09.125000,-66.32,81.48
46629,2018-06-29 09:09:09.156250,-80.31,81.48
46630,2018-06-29 09:09:09.187500,-78.65,81.48
46631,2018-06-29 09:09:09.218750,-74.01,81.48
46632,2018-06-29 09:09:09.250000,-68.44,81.48
46633,2018-06-29 09:09:09.281250,-53.99,81.48
46634,2018-06-29 09:09:09.312500,-32.98,81.48
46635,2018-06-29 09:09:09.343750,-19.67,81.48
46636,2018-06-29 09:09:09.375000,-23.88,81.48
46637,2018-06-29 09:09:09.406250,-43.14,81.48
46638,2018-06-29 09:09:09.437500,-67.27,81.48
46639,2018-06-29 09:09:09.468750,-83.85,81.48
46640,2018-06-29 09:09:09.500000,-81.7,81.48
46641,2018-06-29 09:09:09.531250,-57.2,81.58
46642,2018-06-29 09:09:09.562500,-20.76,81.58
46643,2018-06-29 09:09:09.593750,9.14,81.58
46644,2018-06-29 09:09:09.625000,22.14,81.58
46645,2018-06-29 09:09:09.656250,21.16,81.58
46646,2018-06-29 09:09:09.687500,12.24,81.58
46647,2018-06-29 09:09:09.718750,-2.66,81.58
46648,2018-06-29 09:09:09.750000,-21.95,81.58
46649,2018-06-29 09:09:09.781250,-39.34,81.58
46650,2018-06-29 09:09:09.812500,-45.39,81.58
46651,2018-06-29 09:09:09.843750,-36.57,81.58
46652,2018-06-29 09:09:09.875000,-20.85,81.58
46653,2018-06-29 09:09:09.906250,-7.83,81.58
46654,2018-06-29 09:09:09.937500,4.63,81.58
46655,2018-06-29 09:09:09.968750,22.25,81.58
46656,2018-06-29 09:09:10.000000,37.74,81.58
46657,2018-06-29 09:09:10.031250,34.33,81.58
46658,2018-06-29 09:09:10.062500,7.33,81.58
46659,2018-06-29 09:09:10.093750,-24.87,81.58
46660,2018-06-29 09:09:10.125000,-36.07,81.58
46661,2018-06-29 09:09:10.156250,-17.42,81.58
46662,2018-06-29 09:09:10.187500,14.39,81.58
46663,2018-06-29 09:09:10.218750,33.04,81.58
46664,2018-06-29 09:09:10.250000,26.53,81.58
46665,2018-06-29 09:09:10.281250,9.68,81.58
46666,2018-06-29 09:09:10.312500,6.11,81.58
46667,2018-06-29 09:09:10.343750,17.43,81.58
46668,2018-06-29 09:09:10.375000,23.03,81.58
46669,2018-06-29 09:09:10.406250,8.86,81.58
46670,2018-06-29 09:09:10.437500,-17.36,81.58
46671,2018-06-29 09:09:10.468750,-41.71,81.58
46672,2018-06-29 09:09:10.500000,-53.38,81.58
46673,2018-06-29 09:09:10.531250,-49.69,81.65
46674,2018-06-29 09:09:10.562500,-36.8,81.65
46675,2018-06-29 09:09:10.593750,-27.28,81.65
46676,2018-06-29 09:09:10.625000,-24.6,81.65
46677,2018-06-29 09:09:10.656250,-14.61,81.65
46678,2018-06-29 09:09:10.687500,10.91,81.65
46679,2018-06-29 09:09:10.718750,37.83,81.65
46680,2018-06-29 09:09:10.750000,39.51,81.65
46681,2018-06-29 09:09:10.781250,15.59,81.65
46682,2018-06-29 09:09:10.812500,-10.66,81.65
46683,2018-06-29 09:09:10.843750,-14.57,81.65
46684,2018-06-29 09:09:10.875000,24.85,81.65
46685,2018-06-29 09:09:10.906250,66.98,81.65
46686,2018-06-29 09:09:10.937500,79.08,81.65
46687,2018-06-29 09:09:10.968750,60.11,81.65
46688,2018-06-29 09:09:11.000000,24.26,81.65
46689,2018-06-29 09:09:11.031250,-10.67,81.65
46690,2018-06-29 09:09:11.062500,-31.46,81.65
46691,2018-06-29 09:09:11.093750,-40.97,81.65
46692,2018-06-29 09:09:11.125000,-45.9,81.65
46693,2018-06-29 09:09:11.156250,-47.61,81.65
46694,2018-06-29 09:09:11.187500,-46.84,81.65
46695,2018-06-29 09:09:11.218750,-43.07,81.65
46696,2018-06-29 09:09:11.250000,-35.34,81.65
46697,2018-06-29 09:09:11.281250,-24.36,81.65
46698,2018-06-29 09:09:11.312500,-13.35,81.65
46699,2018-06-29 09:09:11.343750,-2.46,81.65
46700,2018-06-29 09:09:11.375000,10.22,81.65
46701,2018-06-29 09:09:11.406250,24.01,81.65
46702,2018-06-29 09:09:11.437500,32.68,81.65
46703,2018-06-29 09:09:11.468750,32.87,81.65
46704,2018-06-29 09:09:11.500000,30.24,81.65
46705,2018-06-29 09:09:11.531250,27.27,81.67
46706,2018-06-29 09:09:11.562500,26.45,81.67
46707,2018-06-29 09:09:11.593750,34.24,81.67
46708,2018-06-29 09:09:11.625000,50.17,81.67
46709,2018-06-29 09:09:11.656250,62.44,81.67
46710,2018-06-29 09:09:11.687500,63.19,81.67
46711,2018-06-29 09:09:11.718750,56.83,81.67
46712,2018-06-29 09:09:11.750000,49.71,81.67
46713,2018-06-29 09:09:11.781250,37.89,81.67
46714,2018-06-29 09:09:11.812500,20.52,81.67
46715,2018-06-29 09:09:11.843750,4.5,81.67
46716,2018-06-29 09:09:11.875000,-2.8,81.67
46717,2018-06-29 09:09:11.906250,-1.75,81.67
46718,2018-06-29 09:09:11.937500,0.24,81.67
46719,2018-06-29 09:09:11.968750,-5.25,81.67
46720,2018-06-29 09:09:12.000000,-17.78,81.67
46721,2018-06-29 09:09:12.031250,-25.98,81.67
46722,2018-06-29 09:09:12.062500,-23.97,81.67
46723,2018-06-29 09:09:12.093750,-22.45,81.67
46724,2018-06-29 09:09:12.125000,-34.65,81.67
46725,2018-06-29 09:09:12.156250,-63.28,81.67
46726,2018-06-29 09:09:12.187500,-105.16,81.67
46727,2018-06-29 09:09:12.218750,-154.04,81.67
46728,2018-06-29 09:09:12.250000,-191.51,81.67
46729,2018-06-29 09:09:12.281250,-195.87,81.67
46730,2018-06-29 09:09:12.312500,-167.15,81.67
46731,2018-06-29 09:09:12.343750,-121.54,81.67
46732,2018-06-29 09:09:12.375000,-65.11,81.67
46733,2018-06-29 09:09:12.406250,-0.38,81.67
46734,2018-06-29 09:09:12.437500,55.96,81.67
46735,2018-06-29 09:09:12.468750,88.54,81.67
46736,2018-06-29 09:09:12.500000,101.94,81.67
46737,2018-06-29 09:09:12.531250,107.59,81.7
46738,2018-06-29 09:09:12.562500,106.5,81.7
46739,2018-06-29 09:09:12.593750,96.27,81.7
46740,2018-06-29 09:09:12.625000,82.51,81.7
46741,2018-06-29 09:09:12.656250,74.74,81.7
46742,2018-06-29 09:09:12.687500,74.63,81.7
46743,2018-06-29 09:09:12.718750,76.88,81.7
46744,2018-06-29 09:09:12.750000,78.71,81.7
46745,2018-06-29 09:09:12.781250,79.37,81.7
46746,2018-06-29 09:09:12.812500,75.05,81.7
46747,2018-06-29 09:09:12.843750,62.44,81.7
46748,2018-06-29 09:09:12.875000,47.96,81.7
46749,2018-06-29 09:09:12.906250,40.86,81.7
46750,2018-06-29 09:09:12.937500,46.25,81.7
46751,2018-06-29 09:09:12.968750,61.79,81.7
46752,2018-06-29 09:09:13.000000,80.0,81.7
46753,2018-06-29 09:09:13.031250,91.77,81.7
46754,2018-06-29 09:09:13.062500,90.22,81.7
46755,2018-06-29 09:09:13.093750,75.98,81.7
46756,2018-06-29 09:09:13.125000,51.36,81.7
46757,2018-06-29 09:09:13.156250,23.5,81.7
46758,2018-06-29 09:09:13.187500,1.76,81.7
46759,2018-06-29 09:09:13.218750,-5.62,81.7
46760,2018-06-29 09:09:13.250000,-7.02,81.7
46761,2018-06-29 09:09:13.281250,-30.78,81.7
46762,2018-06-29 09:09:13.312500,-59.31,81.7
46763,2018-06-29 09:09:13.343750,-76.64,81.7
46764,2018-06-29 09:09:13.375000,-94.44,81.7
46765,2018-06-29 09:09:13.406250,-118.18,81.7
46766,2018-06-29 09:09:13.437500,-131.6,81.7
46767,2018-06-29 09:09:13.468750,-127.03,81.7
46768,2018-06-29 09:09:13.500000,-118.79,81.7
46769,2018-06-29 09:09:13.531250,-115.56,81.73
46770,2018-06-29 09:09:13.562500,-112.4,81.73
46771,2018-06-29 09:09:13.593750,-98.95,81.73
46772,2018-06-29 09:09:13.625000,-75.07,81.73
46773,2018-06-29 09:09:13.656250,-48.33,81.73
46774,2018-06-29 09:09:13.687500,-27.93,81.73
46775,2018-06-29 09:09:13.718750,-16.83,81.73
46776,2018-06-29 09:09:13.750000,-17.19,81.73
46777,2018-06-29 09:09:13.781250,-22.47,81.73
46778,2018-06-29 09:09:13.812500,-22.34,81.73
46779,2018-06-29 09:09:13.843750,-16.89,81.73
46780,2018-06-29 09:09:13.875000,-13.58,81.73
46781,2018-06-29 09:09:13.906250,-13.51,81.73
46782,2018-06-29 09:09:13.937500,-10.19,81.73
46783,2018-06-29 09:09:13.968750,-1.01,81.73
46784,2018-06-29 09:09:14.000000,13.37,81.73
46785,2018-06-29 09:09:14.031250,32.91,81.73
46786,2018-06-29 09:09:14.062500,56.36,81.73
46787,2018-06-29 09:09:14.093750,79.82,81.73
46788,2018-06-29 09:09:14.125000,99.84,81.73
46789,2018-06-29 09:09:14.156250,114.81,81.73
46790,2018-06-29 09:09:14.187500,125.01,81.73
46791,2018-06-29 09:09:14.218750,133.1,81.73
46792,2018-06-29 09:09:14.250000,141.04,81.73
46793,2018-06-29 09:09:14.281250,145.48,81.73
46794,2018-06-29 09:09:14.312500,140.34,81.73
46795,2018-06-29 09:09:14.343750,123.46,81.73
46796,2018-06-29 09:09:14.375000,97.87,81.73
46797,2018-06-29 09:09:14.406250,67.87,81.73
46798,2018-06-29 09:09:14.437500,35.22,81.73
46799,2018-06-29 09:09:14.468750,-1.06,81.73
46800,2018-06-29 09:09:14.500000,-41.69,81.73
46801,2018-06-29 09:09:14.531250,-83.35,81.73
46802,2018-06-29 09:09:14.562500,-120.72,81.73
46803,2018-06-29 09:09:14.593750,-152.05,81.73
46804,2018-06-29 09:09:14.625000,-175.35,81.73
46805,2018-06-29 09:09:14.656250,-179.83,81.73
46806,2018-06-29 09:09:14.687500,-153.65,81.73
46807,2018-06-29 09:09:14.718750,-101.61,81.73
46808,2018-06-29 09:09:14.750000,-43.68,81.73
46809,2018-06-29 09:09:14.781250,3.93,81.73
46810,2018-06-29 09:09:14.812500,37.8,81.73
46811,2018-06-29 09:09:14.843750,60.17,81.73
46812,2018-06-29 09:09:14.875000,71.71,81.73
46813,2018-06-29 09:09:14.906250,72.97,81.73
46814,2018-06-29 09:09:14.937500,66.63,81.73
46815,2018-06-29 09:09:14.968750,56.4,81.73
46816,2018-06-29 09:09:15.000000,43.3,81.73
46817,2018-06-29 09:09:15.031250,26.92,81.73
46818,2018-06-29 09:09:15.062500,9.96,81.73
46819,2018-06-29 09:09:15.093750,-3.13,81.73
46820,2018-06-29 09:09:15.125000,-12.12,81.73
46821,2018-06-29 09:09:15.156250,-21.91,81.73
46822,2018-06-29 09:09:15.187500,-34.3,81.73
46823,2018-06-29 09:09:15.218750,-45.3,81.73
46824,2018-06-29 09:09:15.250000,-47.27,81.73
46825,2018-06-29 09:09:15.281250,-34.31,81.73
46826,2018-06-29 09:09:15.312500,-7.36,81.73
46827,2018-06-29 09:09:15.343750,24.13,81.73
46828,2018-06-29 09:09:15.375000,35.52,81.73
46829,2018-06-29 09:09:15.406250,26.56,81.73
46830,2018-06-29 09:09:15.437500,22.11,81.73
46831,2018-06-29 09:09:15.468750,28.84,81.73
46832,2018-06-29 09:09:15.500000,37.19,81.73
46833,2018-06-29 09:09:15.531250,48.29,81.82
46834,2018-06-29 09:09:15.562500,57.57,81.82
46835,2018-06-29 09:09:15.593750,58.98,81.82
46836,2018-06-29 09:09:15.625000,46.05,81.82
46837,2018-06-29 09:09:15.656250,20.47,81.82
46838,2018-06-29 09:09:15.687500,-10.87,81.82
46839,2018-06-29 09:09:15.718750,-45.7,81.82
46840,2018-06-29 09:09:15.750000,-69.01,81.82
46841,2018-06-29 09:09:15.781250,-74.07,81.82
46842,2018-06-29 09:09:15.812500,-70.81,81.82
46843,2018-06-29 09:09:15.843750,-68.08,81.82
46844,2018-06-29 09:09:15.875000,-76.4,81.82
46845,2018-06-29 09:09:15.906250,-92.41,81.82
46846,2018-06-29 09:09:15.937500,-94.99,81.82
46847,2018-06-29 09:09:15.968750,-70.96,81.82
46848,2018-06-29 09:09:16.000000,-24.68,81.82
46849,2018-06-29 09:09:16.031250,31.01,81.82
46850,2018-06-29 09:09:16.062500,56.64,81.82
46851,2018-06-29 09:09:16.093750,41.98,81.82
46852,2018-06-29 09:09:16.125000,24.91,81.82
46853,2018-06-29 09:09:16.156250,33.01,81.82
46854,2018-06-29 09:09:16.187500,57.51,81.82
46855,2018-06-29 09:09:16.218750,82.41,81.82
46856,2018-06-29 09:09:16.250000,94.85,81.82
46857,2018-06-29 09:09:16.281250,86.65,81.82
46858,2018-06-29 09:09:16.312500,62.79,81.82
46859,2018-06-29 09:09:16.343750,36.47,81.82
46860,2018-06-29 09:09:16.375000,17.05,81.82
46861,2018-06-29 09:09:16.406250,3.36,81.82
46862,2018-06-29 09:09:16.437500,-5.32,81.82
46863,2018-06-29 09:09:16.468750,-6.99,81.82
46864,2018-06-29 09:09:16.500000,2.29,81.82
46865,2018-06-29 09:09:16.531250,11.04,81.98
46866,2018-06-29 09:09:16.562500,-8.7,81.98
46867,2018-06-29 09:09:16.593750,-64.89,81.98
46868,2018-06-29 09:09:16.625000,-119.0,81.98
46869,2018-06-29 09:09:16.656250,-128.02,81.98
46870,2018-06-29 09:09:16.687500,-92.67,81.98
46871,2018-06-29 09:09:16.718750,-44.76,81.98
46872,2018-06-29 09:09:16.750000,-3.98,81.98
46873,2018-06-29 09:09:16.781250,30.71,81.98
46874,2018-06-29 09:09:16.812500,58.74,81.98
46875,2018-06-29 09:09:16.843750,73.49,81.98
46876,2018-06-29 09:09:16.875000,70.56,81.98
46877,2018-06-29 09:09:16.906250,54.5,81.98
46878,2018-06-29 09:09:16.937500,27.6,81.98
46879,2018-06-29 09:09:16.968750,-7.18,81.98
46880,2018-06-29 09:09:17.000000,-43.55,81.98
46881,2018-06-29 09:09:17.031250,-71.04,81.98
46882,2018-06-29 09:09:17.062500,-57.4,81.98
46883,2018-06-29 09:09:17.093750,-17.47,81.98
46884,2018-06-29 09:09:17.125000,6.16,81.98
46885,2018-06-29 09:09:17.156250,-0.92,81.98
46886,2018-06-29 09:09:17.187500,-22.72,81.98
46887,2018-06-29 09:09:17.218750,-44.11,81.98
46888,2018-06-29 09:09:17.250000,-63.1,81.98
46889,2018-06-29 09:09:17.281250,-76.63,81.98
46890,2018-06-29 09:09:17.312500,-76.95,81.98
46891,2018-06-29 09:09:17.343750,-69.68,81.98
46892,2018-06-29 09:09:17.375000,-63.65,81.98
46893,2018-06-29 09:09:17.406250,-60.8,81.98
46894,2018-06-29 09:09:17.437500,-56.96,81.98
46895,2018-06-29 09:09:17.468750,-50.57,81.98
46896,2018-06-29 09:09:17.500000,-46.3,81.98
46897,2018-06-29 09:09:17.531250,-44.42,82.02
46898,2018-06-29 09:09:17.562500,-36.94,82.02
46899,2018-06-29 09:09:17.593750,-17.82,82.02
46900,2018-06-29 09:09:17.625000,11.55,82.02
46901,2018-06-29 09:09:17.656250,42.85,82.02
46902,2018-06-29 09:09:17.687500,70.26,82.02
46903,2018-06-29 09:09:17.718750,96.29,82.02
46904,2018-06-29 09:09:17.750000,128.79,82.02
46905,2018-06-29 09:09:17.781250,173.09,82.02
46906,2018-06-29 09:09:17.812500,222.24,82.02
46907,2018-06-29 09:09:17.843750,257.79,82.02
46908,2018-06-29 09:09:17.875000,264.44,82.02
46909,2018-06-29 09:09:17.906250,244.74,82.02
46910,2018-06-29 09:09:17.937500,213.34,82.02
46911,2018-06-29 09:09:17.968750,177.23,82.02
46912,2018-06-29 09:09:18.000000,128.93,82.02
46913,2018-06-29 09:09:18.031250,63.24,82.02
46914,2018-06-29 09:09:18.062500,-8.25,82.02
46915,2018-06-29 09:09:18.093750,-66.78,82.02
46916,2018-06-29 09:09:18.125000,-103.36,82.02
46917,2018-06-29 09:09:18.156250,-120.35,82.02
46918,2018-06-29 09:09:18.187500,-124.02,82.02
46919,2018-06-29 09:09:18.218750,-121.45,82.02
46920,2018-06-29 09:09:18.250000,-118.29,82.02
46921,2018-06-29 09:09:18.281250,-115.61,82.02
46922,2018-06-29 09:09:18.312500,-111.45,82.02
46923,2018-06-29 09:09:18.343750,-106.22,82.02
46924,2018-06-29 09:09:18.375000,-102.89,82.02
46925,2018-06-29 09:09:18.406250,-102.45,82.02
46926,2018-06-29 09:09:18.437500,-103.24,82.02
46927,2018-06-29 09:09:18.468750,-104.57,82.02
46928,2018-06-29 09:09:18.500000,-108.19,82.02
46929,2018-06-29 09:09:18.531250,-114.72,82.05
46930,2018-06-29 09:09:18.562500,-118.92,82.05
46931,2018-06-29 09:09:18.593750,-111.54,82.05
46932,2018-06-29 09:09:18.625000,-89.91,82.05
46933,2018-06-29 09:09:18.656250,-62.8,82.05
46934,2018-06-29 09:09:18.687500,-40.54,82.05
46935,2018-06-29 09:09:18.718750,-25.04,82.05
46936,2018-06-29 09:09:18.750000,-12.66,82.05
46937,2018-06-29 09:09:18.781250,-1.21,82.05
46938,2018-06-29 09:09:18.812500,8.77,82.05
46939,2018-06-29 09:09:18.843750,16.19,82.05
46940,2018-06-29 09:09:18.875000,21.31,82.05
46941,2018-06-29 09:09:18.906250,25.43,82.05
46942,2018-06-29 09:09:18.937500,29.25,82.05
46943,2018-06-29 09:09:18.968750,32.19,82.05
46944,2018-06-29 09:09:19.000000,33.61,82.05
46945,2018-06-29 09:09:19.031250,33.38,82.05
46946,2018-06-29 09:09:19.062500,31.43,82.05
46947,2018-06-29 09:09:19.093750,28.32,82.05
46948,2018-06-29 09:09:19.125000,25.48,82.05
46949,2018-06-29 09:09:19.156250,22.97,82.05
46950,2018-06-29 09:09:19.187500,18.98,82.05
46951,2018-06-29 09:09:19.218750,13.52,82.05
46952,2018-06-29 09:09:19.250000,9.22,82.05
46953,2018-06-29 09:09:19.281250,7.61,82.05
46954,2018-06-29 09:09:19.312500,7.33,82.05
46955,2018-06-29 09:09:19.343750,5.84,82.05
46956,2018-06-29 09:09:19.375000,1.41,82.05
46957,2018-06-29 09:09:19.406250,-5.4,82.05
46958,2018-06-29 09:09:19.437500,-12.41,82.05
46959,2018-06-29 09:09:19.468750,-18.73,82.05
46960,2018-06-29 09:09:19.500000,-25.61,82.05
46961,2018-06-29 09:09:19.531250,-34.62,82.07
46962,2018-06-29 09:09:19.562500,-44.93,82.07
46963,2018-06-29 09:09:19.593750,-50.93,82.07
46964,2018-06-29 09:09:19.625000,-45.69,82.07
46965,2018-06-29 09:09:19.656250,-29.26,82.07
46966,2018-06-29 09:09:19.687500,-9.51,82.07
46967,2018-06-29 09:09:19.718750,6.81,82.07
46968,2018-06-29 09:09:19.750000,18.87,82.07
46969,2018-06-29 09:09:19.781250,27.7,82.07
46970,2018-06-29 09:09:19.812500,33.31,82.07
46971,2018-06-29 09:09:19.843750,35.98,82.07
46972,2018-06-29 09:09:19.875000,36.99,82.07
46973,2018-06-29 09:09:19.906250,37.37,82.07
46974,2018-06-29 09:09:19.937500,37.54,82.07
46975,2018-06-29 09:09:19.968750,37.96,82.07
46976,2018-06-29 09:09:20.000000,38.68,82.07
46977,2018-06-29 09:09:20.031250,38.59,82.07
46978,2018-06-29 09:09:20.062500,36.4,82.07
46979,2018-06-29 09:09:20.093750,32.36,82.07
46980,2018-06-29 09:09:20.125000,28.21,82.07
46981,2018-06-29 09:09:20.156250,25.07,82.07
46982,2018-06-29 09:09:20.187500,22.48,82.07
46983,2018-06-29 09:09:20.218750,19.41,82.07
46984,2018-06-29 09:09:20.250000,15.15,82.07
46985,2018-06-29 09:09:20.281250,9.45,82.07
46986,2018-06-29 09:09:20.312500,3.22,82.07
46987,2018-06-29 09:09:20.343750,-2.21,82.07
46988,2018-06-29 09:09:20.375000,-7.34,82.07
46989,2018-06-29 09:09:20.406250,-13.76,82.07
46990,2018-06-29 09:09:20.437500,-21.16,82.07
46991,2018-06-29 09:09:20.468750,-27.67,82.07
46992,2018-06-29 09:09:20.500000,-32.45,82.07
46993,2018-06-29 09:09:20.531250,-36.2,82.12
46994,2018-06-29 09:09:20.562500,-40.55,82.12
46995,2018-06-29 09:09:20.593750,-46.1,82.12
46996,2018-06-29 09:09:20.625000,-49.45,82.12
46997,2018-06-29 09:09:20.656250,-44.71,82.12
46998,2018-06-29 09:09:20.687500,-30.51,82.12
46999,2018-06-29 09:09:20.718750,-12.84,82.12
47000,2018-06-29 09:09:20.750000,1.39,82.12
47001,2018-06-29 09:09:20.781250,10.86,82.12
47002,2018-06-29 09:09:20.812500,17.89,82.12
47003,2018-06-29 09:09:20.843750,23.46,82.12
47004,2018-06-29 09:09:20.875000,26.87,82.12
47005,2018-06-29 09:09:20.906250,28.36,82.12
47006,2018-06-29 09:09:20.937500,29.3,82.12
47007,2018-06-29 09:09:20.968750,30.41,82.12
47008,2018-06-29 09:09:21.000000,31.35,82.12
47009,2018-06-29 09:09:21.031250,31.63,82.12
47010,2018-06-29 09:09:21.062500,30.87,82.12
47011,2018-06-29 09:09:21.093750,28.86,82.12
47012,2018-06-29 09:09:21.125000,25.61,82.12
47013,2018-06-29 09:09:21.156250,21.73,82.12
47014,2018-06-29 09:09:21.187500,18.27,82.12
47015,2018-06-29 09:09:21.218750,15.35,82.12
47016,2018-06-29 09:09:21.250000,11.98,82.12
47017,2018-06-29 09:09:21.281250,8.2,82.12
47018,2018-06-29 09:09:21.312500,5.62,82.12
47019,2018-06-29 09:09:21.343750,4.61,82.12
47020,2018-06-29 09:09:21.375000,2.96,82.12
47021,2018-06-29 09:09:21.406250,-1.74,82.12
47022,2018-06-29 09:09:21.437500,-9.49,82.12
47023,2018-06-29 09:09:21.468750,-17.57,82.12
47024,2018-06-29 09:09:21.500000,-23.34,82.12
47025,2018-06-29 09:09:21.531250,-27.72,82.12
47026,2018-06-29 09:09:21.562500,-33.79,82.12
47027,2018-06-29 09:09:21.593750,-41.35,82.12
47028,2018-06-29 09:09:21.625000,-44.66,82.12
47029,2018-06-29 09:09:21.656250,-37.44,82.12
47030,2018-06-29 09:09:21.687500,-20.2,82.12
47031,2018-06-29 09:09:21.718750,-0.42,82.12
47032,2018-06-29 09:09:21.750000,14.76,82.12
47033,2018-06-29 09:09:21.781250,23.75,82.12
47034,2018-06-29 09:09:21.812500,28.09,82.12
47035,2018-06-29 09:09:21.843750,28.97,82.12
47036,2018-06-29 09:09:21.875000,27.48,82.12
47037,2018-06-29 09:09:21.906250,25.56,82.12
47038,2018-06-29 09:09:21.937500,24.73,82.12
47039,2018-06-29 09:09:21.968750,24.58,82.12
47040,2018-06-29 09:09:22.000000,23.84,82.12
47041,2018-06-29 09:09:22.031250,22.5,82.12
47042,2018-06-29 09:09:22.062500,20.89,82.12
47043,2018-06-29 09:09:22.093750,17.8,82.12
47044,2018-06-29 09:09:22.125000,12.65,82.12
47045,2018-06-29 09:09:22.156250,8.71,82.12
47046,2018-06-29 09:09:22.187500,9.02,82.12
47047,2018-06-29 09:09:22.218750,10.85,82.12
47048,2018-06-29 09:09:22.250000,10.18,82.12
47049,2018-06-29 09:09:22.281250,6.62,82.12
47050,2018-06-29 09:09:22.312500,2.95,82.12
47051,2018-06-29 09:09:22.343750,-0.34,82.12
47052,2018-06-29 09:09:22.375000,-4.07,82.12
47053,2018-06-29 09:09:22.406250,-8.18,82.12
47054,2018-06-29 09:09:22.437500,-10.89,82.12
47055,2018-06-29 09:09:22.468750,-11.08,82.12
47056,2018-06-29 09:09:22.500000,-10.52,82.12
47057,2018-06-29 09:09:22.531250,-10.19,82.17
47058,2018-06-29 09:09:22.562500,-9.9,82.17
47059,2018-06-29 09:09:22.593750,-3.08,82.17
47060,2018-06-29 09:09:22.625000,9.2,82.17
47061,2018-06-29 09:09:22.656250,22.6,82.17
47062,2018-06-29 09:09:22.687500,35.95,82.17
47063,2018-06-29 09:09:22.718750,57.34,82.17
47064,2018-06-29 09:09:22.750000,89.2,82.17
47065,2018-06-29 09:09:22.781250,113.26,82.17
47066,2018-06-29 09:09:22.812500,123.93,82.17
47067,2018-06-29 09:09:22.843750,133.06,82.17
47068,2018-06-29 09:09:22.875000,166.43,82.17
47069,2018-06-29 09:09:22.906250,207.08,82.17
47070,2018-06-29 09:09:22.937500,228.51,82.17
47071,2018-06-29 09:09:22.968750,235.57,82.17
47072,2018-06-29 09:09:23.000000,265.31,82.17
47073,2018-06-29 09:09:23.031250,335.74,82.17
47074,2018-06-29 09:09:23.062500,403.98,82.17
47075,2018-06-29 09:09:23.093750,437.1,82.17
47076,2018-06-29 09:09:23.125000,311.68,82.17
47077,2018-06-29 09:09:23.156250,20.09,82.17
47078,2018-06-29 09:09:23.187500,-207.8,82.17
47079,2018-06-29 09:09:23.218750,-307.78,82.17
47080,2018-06-29 09:09:23.250000,-338.47,82.17
47081,2018-06-29 09:09:23.281250,-324.42,82.17
47082,2018-06-29 09:09:23.312500,-275.64,82.17
47083,2018-06-29 09:09:23.343750,-236.57,82.17
47084,2018-06-29 09:09:23.375000,-220.65,82.17
47085,2018-06-29 09:09:23.406250,-210.64,82.17
47086,2018-06-29 09:09:23.437500,-178.17,82.17
47087,2018-06-29 09:09:23.468750,-136.97,82.17
47088,2018-06-29 09:09:23.500000,-109.16,82.17
47089,2018-06-29 09:09:23.531250,-92.08,82.25
47090,2018-06-29 09:09:23.562500,-68.73,82.25
47091,2018-06-29 09:09:23.593750,-36.28,82.25
47092,2018-06-29 09:09:23.625000,-20.23,82.25
47093,2018-06-29 09:09:23.656250,-23.92,82.25
47094,2018-06-29 09:09:23.687500,-24.56,82.25
47095,2018-06-29 09:09:23.718750,-0.57,82.25
47096,2018-06-29 09:09:23.750000,34.24,82.25
47097,2018-06-29 09:09:23.781250,45.91,82.25
47098,2018-06-29 09:09:23.812500,19.58,82.25
47099,2018-06-29 09:09:23.843750,-27.53,82.25
47100,2018-06-29 09:09:23.875000,-63.11,82.25
47101,2018-06-29 09:09:23.906250,-76.63,82.25
47102,2018-06-29 09:09:23.937500,-75.88,82.25
47103,2018-06-29 09:09:23.968750,-69.54,82.25
47104,2018-06-29 09:09:24.000000,-61.04,82.25
47105,2018-06-29 09:09:24.031250,-51.18,82.25
47106,2018-06-29 09:09:24.062500,-37.94,82.25
47107,2018-06-29 09:09:24.093750,-18.33,82.25
47108,2018-06-29 09:09:24.125000,6.85,82.25
47109,2018-06-29 09:09:24.156250,28.83,82.25
47110,2018-06-29 09:09:24.187500,43.57,82.25
47111,2018-06-29 09:09:24.218750,45.94,82.25
47112,2018-06-29 09:09:24.250000,31.12,82.25
47113,2018-06-29 09:09:24.281250,-1.56,82.25
47114,2018-06-29 09:09:24.312500,-48.58,82.25
47115,2018-06-29 09:09:24.343750,-91.88,82.25
47116,2018-06-29 09:09:24.375000,-97.64,82.25
47117,2018-06-29 09:09:24.406250,-76.21,82.25
47118,2018-06-29 09:09:24.437500,-57.17,82.25
47119,2018-06-29 09:09:24.468750,-44.9,82.25
47120,2018-06-29 09:09:24.500000,-29.32,82.25
47121,2018-06-29 09:09:24.531250,-19.69,82.27
47122,2018-06-29 09:09:24.562500,-21.17,82.27
47123,2018-06-29 09:09:24.593750,-13.67,82.27
47124,2018-06-29 09:09:24.625000,16.24,82.27
47125,2018-06-29 09:09:24.656250,50.61,82.27
47126,2018-06-29 09:09:24.687500,68.9,82.27
47127,2018-06-29 09:09:24.718750,67.0,82.27
47128,2018-06-29 09:09:24.750000,50.77,82.27
47129,2018-06-29 09:09:24.781250,35.46,82.27
47130,2018-06-29 09:09:24.812500,31.85,82.27
47131,2018-06-29 09:09:24.843750,39.37,82.27
47132,2018-06-29 09:09:24.875000,48.5,82.27
47133,2018-06-29 09:09:24.906250,51.68,82.27
47134,2018-06-29 09:09:24.937500,48.94,82.27
47135,2018-06-29 09:09:24.968750,46.05,82.27
47136,2018-06-29 09:09:25.000000,46.4,82.27
47137,2018-06-29 09:09:25.031250,44.06,82.27
47138,2018-06-29 09:09:25.062500,32.27,82.27
47139,2018-06-29 09:09:25.093750,12.28,82.27
47140,2018-06-29 09:09:25.125000,-10.89,82.27
47141,2018-06-29 09:09:25.156250,-36.48,82.27
47142,2018-06-29 09:09:25.187500,-65.98,82.27
47143,2018-06-29 09:09:25.218750,-99.89,82.27
47144,2018-06-29 09:09:25.250000,-133.64,82.27
47145,2018-06-29 09:09:25.281250,-139.1,82.27
47146,2018-06-29 09:09:25.312500,-88.98,82.27
47147,2018-06-29 09:09:25.343750,-15.18,82.27
47148,2018-06-29 09:09:25.375000,25.24,82.27
47149,2018-06-29 09:09:25.406250,21.05,82.27
47150,2018-06-29 09:09:25.437500,3.94,82.27
47151,2018-06-29 09:09:25.468750,-5.91,82.27
47152,2018-06-29 09:09:25.500000,-4.12,82.27
47153,2018-06-29 09:09:25.531250,10.8,82.32
47154,2018-06-29 09:09:25.562500,26.89,82.32
47155,2018-06-29 09:09:25.593750,22.67,82.32
47156,2018-06-29 09:09:25.625000,2.25,82.32
47157,2018-06-29 09:09:25.656250,-2.99,82.32
47158,2018-06-29 09:09:25.687500,19.26,82.32
47159,2018-06-29 09:09:25.718750,37.46,82.32
47160,2018-06-29 09:09:25.750000,21.13,82.32
47161,2018-06-29 09:09:25.781250,-12.61,82.32
47162,2018-06-29 09:09:25.812500,-32.1,82.32
47163,2018-06-29 09:09:25.843750,-35.97,82.32
47164,2018-06-29 09:09:25.875000,-41.03,82.32
47165,2018-06-29 09:09:25.906250,-46.87,82.32
47166,2018-06-29 09:09:25.937500,-48.29,82.32
47167,2018-06-29 09:09:25.968750,-48.98,82.32
47168,2018-06-29 09:09:26.000000,-48.47,82.32
47169,2018-06-29 09:09:26.031250,-38.73,82.32
47170,2018-06-29 09:09:26.062500,-13.6,82.32
47171,2018-06-29 09:09:26.093750,19.75,82.32
47172,2018-06-29 09:09:26.125000,53.16,82.32
47173,2018-06-29 09:09:26.156250,77.52,82.32
47174,2018-06-29 09:09:26.187500,91.99,82.32
47175,2018-06-29 09:09:26.218750,103.43,82.32
47176,2018-06-29 09:09:26.250000,115.25,82.32
47177,2018-06-29 09:09:26.281250,117.97,82.32
47178,2018-06-29 09:09:26.312500,93.92,82.32
47179,2018-06-29 09:09:26.343750,50.91,82.32
47180,2018-06-29 09:09:26.375000,-0.8,82.32
47181,2018-06-29 09:09:26.406250,-40.05,82.32
47182,2018-06-29 09:09:26.437500,-40.64,82.32
47183,2018-06-29 09:09:26.468750,-0.74,82.32
47184,2018-06-29 09:09:26.500000,40.04,82.32
47185,2018-06-29 09:09:26.531250,47.38,82.38
47186,2018-06-29 09:09:26.562500,31.58,82.38
47187,2018-06-29 09:09:26.593750,-2.23,82.38
47188,2018-06-29 09:09:26.625000,-30.58,82.38
47189,2018-06-29 09:09:26.656250,-19.79,82.38
47190,2018-06-29 09:09:26.687500,20.2,82.38
47191,2018-06-29 09:09:26.718750,37.69,82.38
47192,2018-06-29 09:09:26.750000,16.8,82.38
47193,2018-06-29 09:09:26.781250,-17.13,82.38
47194,2018-06-29 09:09:26.812500,-46.29,82.38
47195,2018-06-29 09:09:26.843750,-68.86,82.38
47196,2018-06-29 09:09:26.875000,-70.77,82.38
47197,2018-06-29 09:09:26.906250,-43.11,82.38
47198,2018-06-29 09:09:26.937500,-14.17,82.38
47199,2018-06-29 09:09:26.968750,-10.54,82.38
47200,2018-06-29 09:09:27.000000,-20.32,82.38
47201,2018-06-29 09:09:27.031250,-16.36,82.38
47202,2018-06-29 09:09:27.062500,5.1,82.38
47203,2018-06-29 09:09:27.093750,29.63,82.38
47204,2018-06-29 09:09:27.125000,45.06,82.38
47205,2018-06-29 09:09:27.156250,39.17,82.38
47206,2018-06-29 09:09:27.187500,7.32,82.38
47207,2018-06-29 09:09:27.218750,-36.83,82.38
47208,2018-06-29 09:09:27.250000,-74.63,82.38
47209,2018-06-29 09:09:27.281250,-99.03,82.38
47210,2018-06-29 09:09:27.312500,-110.79,82.38
47211,2018-06-29 09:09:27.343750,-106.5,82.38
47212,2018-06-29 09:09:27.375000,-83.13,82.38
47213,2018-06-29 09:09:27.406250,-49.46,82.38
47214,2018-06-29 09:09:27.437500,-19.43,82.38
47215,2018-06-29 09:09:27.468750,5.17,82.38
47216,2018-06-29 09:09:27.500000,29.8,82.38
47217,2018-06-29 09:09:27.531250,48.04,82.48
47218,2018-06-29 09:09:27.562500,48.61,82.48
47219,2018-06-29 09:09:27.593750,40.65,82.48
47220,2018-06-29 09:09:27.625000,50.45,82.48
47221,2018-06-29 09:09:27.656250,83.13,82.48
47222,2018-06-29 09:09:27.687500,111.35,82.48
47223,2018-06-29 09:09:27.718750,114.66,82.48
47224,2018-06-29 09:09:27.750000,102.98,82.48
47225,2018-06-29 09:09:27.781250,93.53,82.48
47226,2018-06-29 09:09:27.812500,85.07,82.48
47227,2018-06-29 09:09:27.843750,73.16,82.48
47228,2018-06-29 09:09:27.875000,61.29,82.48
47229,2018-06-29 09:09:27.906250,53.49,82.48
47230,2018-06-29 09:09:27.937500,47.16,82.48
47231,2018-06-29 09:09:27.968750,39.54,82.48
47232,2018-06-29 09:09:28.000000,35.96,82.48
47233,2018-06-29 09:09:28.031250,28.2,82.48
47234,2018-06-29 09:09:28.062500,11.63,82.48
47235,2018-06-29 09:09:28.093750,-6.62,82.48
47236,2018-06-29 09:09:28.125000,-25.76,82.48
47237,2018-06-29 09:09:28.156250,-40.77,82.48
47238,2018-06-29 09:09:28.187500,-45.83,82.48
47239,2018-06-29 09:09:28.218750,-39.67,82.48
47240,2018-06-29 09:09:28.250000,-28.97,82.48
47241,2018-06-29 09:09:28.281250,-16.25,82.48
47242,2018-06-29 09:09:28.312500,-2.38,82.48
47243,2018-06-29 09:09:28.343750,13.38,82.48
47244,2018-06-29 09:09:28.375000,24.53,82.48
47245,2018-06-29 09:09:28.406250,29.54,82.48
47246,2018-06-29 09:09:28.437500,32.66,82.48
47247,2018-06-29 09:09:28.468750,30.41,82.48
47248,2018-06-29 09:09:28.500000,6.98,82.48
47249,2018-06-29 09:09:28.531250,-52.12,82.58
47250,2018-06-29 09:09:28.562500,-137.07,82.58
47251,2018-06-29 09:09:28.593750,-207.13,82.58
47252,2018-06-29 09:09:28.625000,-214.9,82.58
47253,2018-06-29 09:09:28.656250,-155.53,82.58
47254,2018-06-29 09:09:28.687500,-76.89,82.58
47255,2018-06-29 09:09:28.718750,-32.66,82.58
47256,2018-06-29 09:09:28.750000,-36.01,82.58
47257,2018-06-29 09:09:28.781250,-68.42,82.58
47258,2018-06-29 09:09:28.812500,-107.46,82.58
47259,2018-06-29 09:09:28.843750,-132.94,82.58
47260,2018-06-29 09:09:28.875000,-131.15,82.58
47261,2018-06-29 09:09:28.906250,-108.21,82.58
47262,2018-06-29 09:09:28.937500,-86.95,82.58
47263,2018-06-29 09:09:28.968750,-79.12,82.58
47264,2018-06-29 09:09:29.000000,-66.18,82.58
47265,2018-06-29 09:09:29.031250,-22.49,82.58
47266,2018-06-29 09:09:29.062500,40.5,82.58
47267,2018-06-29 09:09:29.093750,82.02,82.58
47268,2018-06-29 09:09:29.125000,87.19,82.58
47269,2018-06-29 09:09:29.156250,79.69,82.58
47270,2018-06-29 09:09:29.187500,75.86,82.58
47271,2018-06-29 09:09:29.218750,69.5,82.58
47272,2018-06-29 09:09:29.250000,60.69,82.58
47273,2018-06-29 09:09:29.281250,56.66,82.58
47274,2018-06-29 09:09:29.312500,53.21,82.58
47275,2018-06-29 09:09:29.343750,38.07,82.58
47276,2018-06-29 09:09:29.375000,17.59,82.58
47277,2018-06-29 09:09:29.406250,6.6,82.58
47278,2018-06-29 09:09:29.437500,5.49,82.58
47279,2018-06-29 09:09:29.468750,1.02,82.58
47280,2018-06-29 09:09:29.500000,-10.53,82.58
47281,2018-06-29 09:09:29.531250,-14.12,82.67
47282,2018-06-29 09:09:29.562500,-4.84,82.67
47283,2018-06-29 09:09:29.593750,9.38,82.67
47284,2018-06-29 09:09:29.625000,19.74,82.67
47285,2018-06-29 09:09:29.656250,37.84,82.67
47286,2018-06-29 09:09:29.687500,75.19,82.67
47287,2018-06-29 09:09:29.718750,140.25,82.67
47288,2018-06-29 09:09:29.750000,233.07,82.67
47289,2018-06-29 09:09:29.781250,264.14,82.67
47290,2018-06-29 09:09:29.812500,196.36,82.67
47291,2018-06-29 09:09:29.843750,73.24,82.67
47292,2018-06-29 09:09:29.875000,-41.24,82.67
47293,2018-06-29 09:09:29.906250,-84.72,82.67
47294,2018-06-29 09:09:29.937500,-49.38,82.67
47295,2018-06-29 09:09:29.968750,2.64,82.67
47296,2018-06-29 09:09:30.000000,24.15,82.67
47297,2018-06-29 09:09:30.031250,22.26,82.67
47298,2018-06-29 09:09:30.062500,15.23,82.67
47299,2018-06-29 09:09:30.093750,11.11,82.67
47300,2018-06-29 09:09:30.125000,14.58,82.67
47301,2018-06-29 09:09:30.156250,27.41,82.67
47302,2018-06-29 09:09:30.187500,22.41,82.67
47303,2018-06-29 09:09:30.218750,-6.43,82.67
47304,2018-06-29 09:09:30.250000,-29.59,82.67
47305,2018-06-29 09:09:30.281250,-41.95,82.67
47306,2018-06-29 09:09:30.312500,-45.72,82.67
47307,2018-06-29 09:09:30.343750,-19.56,82.67
47308,2018-06-29 09:09:30.375000,41.0,82.67
47309,2018-06-29 09:09:30.406250,97.2,82.67
47310,2018-06-29 09:09:30.437500,112.95,82.67
47311,2018-06-29 09:09:30.468750,94.83,82.67
47312,2018-06-29 09:09:30.500000,97.02,82.67
47313,2018-06-29 09:09:30.531250,113.48,82.77
47314,2018-06-29 09:09:30.562500,98.26,82.77
47315,2018-06-29 09:09:30.593750,53.04,82.77
47316,2018-06-29 09:09:30.625000,1.67,82.77
47317,2018-06-29 09:09:30.656250,-37.86,82.77
47318,2018-06-29 09:09:30.687500,-65.29,82.77
47319,2018-06-29 09:09:30.718750,-64.58,82.77
47320,2018-06-29 09:09:30.750000,-42.52,82.77
47321,2018-06-29 09:09:30.781250,-23.9,82.77
47322,2018-06-29 09:09:30.812500,-30.01,82.77
47323,2018-06-29 09:09:30.843750,-53.23,82.77
47324,2018-06-29 09:09:30.875000,-75.3,82.77
47325,2018-06-29 09:09:30.906250,-108.6,82.77
47326,2018-06-29 09:09:30.937500,-168.62,82.77
47327,2018-06-29 09:09:30.968750,-228.96,82.77
47328,2018-06-29 09:09:31.000000,-203.24,82.77
47329,2018-06-29 09:09:31.031250,-111.32,82.77
47330,2018-06-29 09:09:31.062500,-72.7,82.77
47331,2018-06-29 09:09:31.093750,-159.03,82.77
47332,2018-06-29 09:09:31.125000,-312.08,82.77
47333,2018-06-29 09:09:31.156250,-430.29,82.77
47334,2018-06-29 09:09:31.187500,-470.96,82.77
47335,2018-06-29 09:09:31.218750,-310.01,82.77
47336,2018-06-29 09:09:31.250000,-33.98,82.77
47337,2018-06-29 09:09:31.281250,118.78,82.77
47338,2018-06-29 09:09:31.312500,162.1,82.77
47339,2018-06-29 09:09:31.343750,163.88,82.77
47340,2018-06-29 09:09:31.375000,123.66,82.77
47341,2018-06-29 09:09:31.406250,59.92,82.77
47342,2018-06-29 09:09:31.437500,31.65,82.77
47343,2018-06-29 09:09:31.468750,43.46,82.77
47344,2018-06-29 09:09:31.500000,65.96,82.77
47345,2018-06-29 09:09:31.531250,69.14,82.78
47346,2018-06-29 09:09:31.562500,75.03,82.78
47347,2018-06-29 09:09:31.593750,91.75,82.78
47348,2018-06-29 09:09:31.625000,103.57,82.78
47349,2018-06-29 09:09:31.656250,99.66,82.78
47350,2018-06-29 09:09:31.687500,88.36,82.78
47351,2018-06-29 09:09:31.718750,83.48,82.78
47352,2018-06-29 09:09:31.750000,76.91,82.78
47353,2018-06-29 09:09:31.781250,63.73,82.78
47354,2018-06-29 09:09:31.812500,46.59,82.78
47355,2018-06-29 09:09:31.843750,34.43,82.78
47356,2018-06-29 09:09:31.875000,24.77,82.78
47357,2018-06-29 09:09:31.906250,11.29,82.78
47358,2018-06-29 09:09:31.937500,-3.69,82.78
47359,2018-06-29 09:09:31.968750,-11.84,82.78
47360,2018-06-29 09:09:32.000000,-10.93,82.78
47361,2018-06-29 09:09:32.031250,-9.87,82.78
47362,2018-06-29 09:09:32.062500,-14.58,82.78
47363,2018-06-29 09:09:32.093750,-16.81,82.78
47364,2018-06-29 09:09:32.125000,-10.81,82.78
47365,2018-06-29 09:09:32.156250,-3.1,82.78
47366,2018-06-29 09:09:32.187500,-2.33,82.78
47367,2018-06-29 09:09:32.218750,-0.95,82.78
47368,2018-06-29 09:09:32.250000,15.27,82.78
47369,2018-06-29 09:09:32.281250,50.64,82.78
47370,2018-06-29 09:09:32.312500,111.34,82.78
47371,2018-06-29 09:09:32.343750,166.8,82.78
47372,2018-06-29 09:09:32.375000,157.93,82.78
47373,2018-06-29 09:09:32.406250,99.92,82.78
47374,2018-06-29 09:09:32.437500,49.81,82.78
47375,2018-06-29 09:09:32.468750,15.61,82.78
47376,2018-06-29 09:09:32.500000,6.45,82.78
47377,2018-06-29 09:09:32.531250,18.15,82.87
47378,2018-06-29 09:09:32.562500,28.0,82.87
47379,2018-06-29 09:09:32.593750,19.51,82.87
47380,2018-06-29 09:09:32.625000,-3.79,82.87
47381,2018-06-29 09:09:32.656250,-16.46,82.87
47382,2018-06-29 09:09:32.687500,-0.72,82.87
47383,2018-06-29 09:09:32.718750,41.89,82.87
47384,2018-06-29 09:09:32.750000,92.5,82.87
47385,2018-06-29 09:09:32.781250,105.94,82.87
47386,2018-06-29 09:09:32.812500,92.31,82.87
47387,2018-06-29 09:09:32.843750,74.41,82.87
47388,2018-06-29 09:09:32.875000,45.57,82.87
47389,2018-06-29 09:09:32.906250,12.99,82.87
47390,2018-06-29 09:09:32.937500,-2.34,82.87
47391,2018-06-29 09:09:32.968750,-1.81,82.87
47392,2018-06-29 09:09:33.000000,1.23,82.87
47393,2018-06-29 09:09:33.031250,3.13,82.87
47394,2018-06-29 09:09:33.062500,3.62,82.87
47395,2018-06-29 09:09:33.093750,0.56,82.87
47396,2018-06-29 09:09:33.125000,-0.15,82.87
47397,2018-06-29 09:09:33.156250,12.88,82.87
47398,2018-06-29 09:09:33.187500,30.64,82.87
47399,2018-06-29 09:09:33.218750,27.74,82.87
47400,2018-06-29 09:09:33.250000,-17.87,82.87
47401,2018-06-29 09:09:33.281250,-91.75,82.87
47402,2018-06-29 09:09:33.312500,-166.07,82.87
47403,2018-06-29 09:09:33.343750,-226.7,82.87
47404,2018-06-29 09:09:33.375000,-271.82,82.87
47405,2018-06-29 09:09:33.406250,-311.73,82.87
47406,2018-06-29 09:09:33.437500,-358.38,82.87
47407,2018-06-29 09:09:33.468750,-393.88,82.87
47408,2018-06-29 09:09:33.500000,-379.73,82.87
47409,2018-06-29 09:09:33.531250,-308.13,82.9
47410,2018-06-29 09:09:33.562500,-210.77,82.9
47411,2018-06-29 09:09:33.593750,-117.52,82.9
47412,2018-06-29 09:09:33.625000,-37.56,82.9
47413,2018-06-29 09:09:33.656250,25.08,82.9
47414,2018-06-29 09:09:33.687500,66.96,82.9
47415,2018-06-29 09:09:33.718750,96.13,82.9
47416,2018-06-29 09:09:33.750000,128.74,82.9
47417,2018-06-29 09:09:33.781250,164.18,82.9
47418,2018-06-29 09:09:33.812500,182.89,82.9
47419,2018-06-29 09:09:33.843750,176.39,82.9
47420,2018-06-29 09:09:33.875000,155.46,82.9
47421,2018-06-29 09:09:33.906250,125.2,82.9
47422,2018-06-29 09:09:33.937500,84.36,82.9
47423,2018-06-29 09:09:33.968750,49.39,82.9
47424,2018-06-29 09:09:34.000000,45.14,82.9
47425,2018-06-29 09:09:34.031250,71.7,82.9
47426,2018-06-29 09:09:34.062500,105.4,82.9
47427,2018-06-29 09:09:34.093750,129.04,82.9
47428,2018-06-29 09:09:34.125000,141.01,82.9
47429,2018-06-29 09:09:34.156250,137.72,82.9
47430,2018-06-29 09:09:34.187500,107.59,82.9
47431,2018-06-29 09:09:34.218750,50.48,82.9
47432,2018-06-29 09:09:34.250000,-11.87,82.9
47433,2018-06-29 09:09:34.281250,-53.65,82.9
47434,2018-06-29 09:09:34.312500,-60.1,82.9
47435,2018-06-29 09:09:34.343750,-33.04,82.9
47436,2018-06-29 09:09:34.375000,1.94,82.9
47437,2018-06-29 09:09:34.406250,12.7,82.9
47438,2018-06-29 09:09:34.437500,-0.78,82.9
47439,2018-06-29 09:09:34.468750,-9.22,82.9
47440,2018-06-29 09:09:34.500000,-0.24,82.9
47441,2018-06-29 09:09:34.531250,10.5,82.88
47442,2018-06-29 09:09:34.562500,15.78,82.88
47443,2018-06-29 09:09:34.593750,32.97,82.88
47444,2018-06-29 09:09:34.625000,78.3,82.88
47445,2018-06-29 09:09:34.656250,138.61,82.88
