,Time,ppg,hr
48000,2018-06-29 09:09:52.000000,31.89,84.02
48001,2018-06-29 09:09:52.031250,31.03,84.02
48002,2018-06-29 09:09:52.062500,27.42,84.02
48003,2018-06-29 09:09:52.093750,20.03,84.02
48004,2018-06-29 09:09:52.125000,11.47,84.02
48005,2018-06-29 09:09:52.156250,2.68,84.02
48006,2018-06-29 09:09:52.187500,-8.22,84.02
48007,2018-06-29 09:09:52.218750,-20.65,84.02
48008,2018-06-29 09:09:52.250000,-30.53,84.02
48009,2018-06-29 09:09:52.281250,-32.94,84.02
48010,2018-06-29 09:09:52.312500,-31.79,84.02
48011,2018-06-29 09:09:52.343750,-35.48,84.02
48012,2018-06-29 09:09:52.375000,-48.35,84.02
48013,2018-06-29 09:09:52.406250,-62.47,84.02
48014,2018-06-29 09:09:52.437500,-66.28,84.02
48015,2018-06-29 09:09:52.468750,-60.64,84.02
48016,2018-06-29 09:09:52.500000,-46.7,84.02
48017,2018-06-29 09:09:52.531250,-19.92,84.08
48018,2018-06-29 09:09:52.562500,34.48,84.08
48019,2018-06-29 09:09:52.593750,98.25,84.08
48020,2018-06-29 09:09:52.625000,139.32,84.08
48021,2018-06-29 09:09:52.656250,150.28,84.08
48022,2018-06-29 09:09:52.687500,161.22,84.08
48023,2018-06-29 09:09:52.718750,197.2,84.08
48024,2018-06-29 09:09:52.750000,234.72,84.08
48025,2018-06-29 09:09:52.781250,260.05,84.08
48026,2018-06-29 09:09:52.812500,286.49,84.08
48027,2018-06-29 09:09:52.843750,353.65,84.08
48028,2018-06-29 09:09:52.875000,443.34,84.08
48029,2018-06-29 09:09:52.906250,514.35,84.08
48030,2018-06-29 09:09:52.937500,519.51,84.08
48031,2018-06-29 09:09:52.968750,290.73,84.08
48032,2018-06-29 09:09:53.000000,-19.54,84.08
48033,2018-06-29 09:09:53.031250,-208.74,84.08
48034,2018-06-29 09:09:53.062500,-279.02,84.08
48035,2018-06-29 09:09:53.093750,-280.0,84.08
48036,2018-06-29 09:09:53.125000,-220.23,84.08
48037,2018-06-29 09:09:53.156250,-139.85,84.08
48038,2018-06-29 09:09:53.187500,-87.32,84.08
48039,2018-06-29 09:09:53.218750,-81.85,84.08
48040,2018-06-29 09:09:53.250000,-100.45,84.08
48041,2018-06-29 09:09:53.281250,-106.03,84.08
48042,2018-06-29 09:09:53.312500,-100.36,84.08
48043,2018-06-29 09:09:53.343750,-99.8,84.08
48044,2018-06-29 09:09:53.375000,-114.81,84.08
48045,2018-06-29 09:09:53.406250,-128.55,84.08
48046,2018-06-29 09:09:53.437500,-136.94,84.08
48047,2018-06-29 09:09:53.468750,-152.87,84.08
48048,2018-06-29 09:09:53.500000,-180.1,84.08
48049,2018-06-29 09:09:53.531250,-209.98,84.17
48050,2018-06-29 09:09:53.562500,-229.82,84.17
48051,2018-06-29 09:09:53.593750,-241.69,84.17
48052,2018-06-29 09:09:53.625000,-258.41,84.17
48053,2018-06-29 09:09:53.656250,-279.04,84.17
48054,2018-06-29 09:09:53.687500,-288.04,84.17
48055,2018-06-29 09:09:53.718750,-263.9,84.17
48056,2018-06-29 09:09:53.750000,-212.61,84.17
48057,2018-06-29 09:09:53.781250,-140.14,84.17
48058,2018-06-29 09:09:53.812500,-16.31,84.17
48059,2018-06-29 09:09:53.843750,90.31,84.17
48060,2018-06-29 09:09:53.875000,139.86,84.17
48061,2018-06-29 09:09:53.906250,161.58,84.17
48062,2018-06-29 09:09:53.937500,177.21,84.17
48063,2018-06-29 09:09:53.968750,170.54,84.17
48064,2018-06-29 09:09:54.000000,151.2,84.17
48065,2018-06-29 09:09:54.031250,150.86,84.17
48066,2018-06-29 09:09:54.062500,172.02,84.17
48067,2018-06-29 09:09:54.093750,182.45,84.17
48068,2018-06-29 09:09:54.125000,169.42,84.17
48069,2018-06-29 09:09:54.156250,150.74,84.17
48070,2018-06-29 09:09:54.187500,127.15,84.17
48071,2018-06-29 09:09:54.218750,88.63,84.17
48072,2018-06-29 09:09:54.250000,40.27,84.17
48073,2018-06-29 09:09:54.281250,6.72,84.17
48074,2018-06-29 09:09:54.312500,-4.85,84.17
48075,2018-06-29 09:09:54.343750,-9.67,84.17
48076,2018-06-29 09:09:54.375000,-21.53,84.17
48077,2018-06-29 09:09:54.406250,-57.55,84.17
48078,2018-06-29 09:09:54.437500,-118.26,84.17
48079,2018-06-29 09:09:54.468750,-174.71,84.17
48080,2018-06-29 09:09:54.500000,-181.46,84.17
48081,2018-06-29 09:09:54.531250,-133.73,84.23
48082,2018-06-29 09:09:54.562500,-83.55,84.23
48083,2018-06-29 09:09:54.593750,-75.35,84.23
48084,2018-06-29 09:09:54.625000,-84.88,84.23
48085,2018-06-29 09:09:54.656250,-67.35,84.23
48086,2018-06-29 09:09:54.687500,-29.54,84.23
48087,2018-06-29 09:09:54.718750,-5.85,84.23
48088,2018-06-29 09:09:54.750000,-1.2,84.23
48089,2018-06-29 09:09:54.781250,2.5,84.23
48090,2018-06-29 09:09:54.812500,15.42,84.23
48091,2018-06-29 09:09:54.843750,41.61,84.23
48092,2018-06-29 09:09:54.875000,68.27,84.23
48093,2018-06-29 09:09:54.906250,64.67,84.23
48094,2018-06-29 09:09:54.937500,27.07,84.23
48095,2018-06-29 09:09:54.968750,0.0,84.23
48096,2018-06-29 09:09:55.000000,16.96,84.23
48097,2018-06-29 09:09:55.031250,49.4,84.23
48098,2018-06-29 09:09:55.062500,56.05,84.23
48099,2018-06-29 09:09:55.093750,30.92,84.23
48100,2018-06-29 09:09:55.125000,3.81,84.23
48101,2018-06-29 09:09:55.156250,-0.25,84.23
48102,2018-06-29 09:09:55.187500,24.48,84.23
48103,2018-06-29 09:09:55.218750,53.68,84.23
48104,2018-06-29 09:09:55.250000,45.33,84.23
48105,2018-06-29 09:09:55.281250,-2.03,84.23
48106,2018-06-29 09:09:55.312500,-45.04,84.23
48107,2018-06-29 09:09:55.343750,-49.07,84.23
48108,2018-06-29 09:09:55.375000,-52.82,84.23
48109,2018-06-29 09:09:55.406250,-96.43,84.23
48110,2018-06-29 09:09:55.437500,-170.14,84.23
48111,2018-06-29 09:09:55.468750,-215.55,84.23
48112,2018-06-29 09:09:55.500000,-124.41,84.23
48113,2018-06-29 09:09:55.531250,12.59,84.3
48114,2018-06-29 09:09:55.562500,79.09,84.3
48115,2018-06-29 09:09:55.593750,74.5,84.3
48116,2018-06-29 09:09:55.625000,42.53,84.3
48117,2018-06-29 09:09:55.656250,5.06,84.3
48118,2018-06-29 09:09:55.687500,-19.14,84.3
48119,2018-06-29 09:09:55.718750,-21.19,84.3
48120,2018-06-29 09:09:55.750000,-9.05,84.3
48121,2018-06-29 09:09:55.781250,-2.54,84.3
48122,2018-06-29 09:09:55.812500,-14.74,84.3
48123,2018-06-29 09:09:55.843750,-23.21,84.3
48124,2018-06-29 09:09:55.875000,-14.89,84.3
48125,2018-06-29 09:09:55.906250,3.64,84.3
48126,2018-06-29 09:09:55.937500,12.21,84.3
48127,2018-06-29 09:09:55.968750,7.81,84.3
48128,2018-06-29 09:09:56.000000,0.15,84.3
48129,2018-06-29 09:09:56.031250,-2.88,84.3
48130,2018-06-29 09:09:56.062500,-3.42,84.3
48131,2018-06-29 09:09:56.093750,-11.09,84.3
48132,2018-06-29 09:09:56.125000,-28.29,84.3
48133,2018-06-29 09:09:56.156250,-50.25,84.3
48134,2018-06-29 09:09:56.187500,-66.97,84.3
48135,2018-06-29 09:09:56.218750,-63.81,84.3
48136,2018-06-29 09:09:56.250000,-32.46,84.3
48137,2018-06-29 09:09:56.281250,2.91,84.3
48138,2018-06-29 09:09:56.312500,6.57,84.3
48139,2018-06-29 09:09:56.343750,-11.47,84.3
48140,2018-06-29 09:09:56.375000,-7.0,84.3
48141,2018-06-29 09:09:56.406250,31.05,84.3
48142,2018-06-29 09:09:56.437500,73.47,84.3
48143,2018-06-29 09:09:56.468750,96.32,84.3
48144,2018-06-29 09:09:56.500000,91.58,84.3
48145,2018-06-29 09:09:56.531250,60.13,84.33
48146,2018-06-29 09:09:56.562500,23.94,84.33
48147,2018-06-29 09:09:56.593750,13.92,84.33
48148,2018-06-29 09:09:56.625000,37.44,84.33
48149,2018-06-29 09:09:56.656250,78.78,84.33
48150,2018-06-29 09:09:56.687500,124.4,84.33
48151,2018-06-29 09:09:56.718750,164.8,84.33
48152,2018-06-29 09:09:56.750000,186.38,84.33
48153,2018-06-29 09:09:56.781250,184.12,84.33
48154,2018-06-29 09:09:56.812500,166.76,84.33
48155,2018-06-29 09:09:56.843750,142.99,84.33
48156,2018-06-29 09:09:56.875000,109.67,84.33
48157,2018-06-29 09:09:56.906250,64.01,84.33
48158,2018-06-29 09:09:56.937500,14.67,84.33
48159,2018-06-29 09:09:56.968750,-23.92,84.33
48160,2018-06-29 09:09:57.000000,-46.88,84.33
48161,2018-06-29 09:09:57.031250,-69.75,84.33
48162,2018-06-29 09:09:57.062500,-88.57,84.33
48163,2018-06-29 09:09:57.093750,-82.16,84.33
48164,2018-06-29 09:09:57.125000,-52.24,84.33
48165,2018-06-29 09:09:57.156250,-23.25,84.33
48166,2018-06-29 09:09:57.187500,-12.19,84.33
48167,2018-06-29 09:09:57.218750,-9.42,84.33
48168,2018-06-29 09:09:57.250000,1.86,84.33
48169,2018-06-29 09:09:57.281250,20.11,84.33
48170,2018-06-29 09:09:57.312500,28.16,84.33
48171,2018-06-29 09:09:57.343750,17.2,84.33
48172,2018-06-29 09:09:57.375000,-6.27,84.33
48173,2018-06-29 09:09:57.406250,-16.19,84.33
48174,2018-06-29 09:09:57.437500,19.61,84.33
48175,2018-06-29 09:09:57.468750,77.3,84.33
48176,2018-06-29 09:09:57.500000,80.42,84.33
48177,2018-06-29 09:09:57.531250,3.44,84.48
48178,2018-06-29 09:09:57.562500,-89.55,84.48
48179,2018-06-29 09:09:57.593750,-148.36,84.48
48180,2018-06-29 09:09:57.625000,-199.05,84.48
48181,2018-06-29 09:09:57.656250,-257.6,84.48
48182,2018-06-29 09:09:57.687500,-306.23,84.48
48183,2018-06-29 09:09:57.718750,-316.54,84.48
48184,2018-06-29 09:09:57.750000,-270.18,84.48
48185,2018-06-29 09:09:57.781250,-180.42,84.48
48186,2018-06-29 09:09:57.812500,-88.0,84.48
48187,2018-06-29 09:09:57.843750,-21.21,84.48
48188,2018-06-29 09:09:57.875000,16.44,84.48
48189,2018-06-29 09:09:57.906250,33.93,84.48
48190,2018-06-29 09:09:57.937500,48.98,84.48
48191,2018-06-29 09:09:57.968750,69.22,84.48
48192,2018-06-29 09:09:58.000000,86.63,84.48
48193,2018-06-29 09:09:58.031250,89.3,84.48
48194,2018-06-29 09:09:58.062500,87.79,84.48
48195,2018-06-29 09:09:58.093750,94.3,84.48
48196,2018-06-29 09:09:58.125000,107.55,84.48
48197,2018-06-29 09:09:58.156250,119.75,84.48
48198,2018-06-29 09:09:58.187500,126.47,84.48
48199,2018-06-29 09:09:58.218750,127.82,84.48
48200,2018-06-29 09:09:58.250000,127.45,84.48
48201,2018-06-29 09:09:58.281250,137.97,84.48
48202,2018-06-29 09:09:58.312500,123.4,84.48
48203,2018-06-29 09:09:58.343750,54.34,84.48
48204,2018-06-29 09:09:58.375000,-14.37,84.48
48205,2018-06-29 09:09:58.406250,-59.92,84.48
48206,2018-06-29 09:09:58.437500,-102.71,84.48
48207,2018-06-29 09:09:58.468750,-144.08,84.48
48208,2018-06-29 09:09:58.500000,-157.28,84.48
48209,2018-06-29 09:09:58.531250,-132.63,84.58
48210,2018-06-29 09:09:58.562500,-97.83,84.58
48211,2018-06-29 09:09:58.593750,-76.67,84.58
48212,2018-06-29 09:09:58.625000,-60.86,84.58
48213,2018-06-29 09:09:58.656250,-31.11,84.58
48214,2018-06-29 09:09:58.687500,14.48,84.58
48215,2018-06-29 09:09:58.718750,68.77,84.58
48216,2018-06-29 09:09:58.750000,122.72,84.58
48217,2018-06-29 09:09:58.781250,163.47,84.58
48218,2018-06-29 09:09:58.812500,184.47,84.58
48219,2018-06-29 09:09:58.843750,148.71,84.58
48220,2018-06-29 09:09:58.875000,69.85,84.58
48221,2018-06-29 09:09:58.906250,18.9,84.58
48222,2018-06-29 09:09:58.937500,5.39,84.58
48223,2018-06-29 09:09:58.968750,7.4,84.58
48224,2018-06-29 09:09:59.000000,12.92,84.58
48225,2018-06-29 09:09:59.031250,25.91,84.58
48226,2018-06-29 09:09:59.062500,29.31,84.58
48227,2018-06-29 09:09:59.093750,12.43,84.58
48228,2018-06-29 09:09:59.125000,-13.8,84.58
48229,2018-06-29 09:09:59.156250,-29.98,84.58
48230,2018-06-29 09:09:59.187500,-40.45,84.58
48231,2018-06-29 09:09:59.218750,-52.84,84.58
48232,2018-06-29 09:09:59.250000,-64.93,84.58
48233,2018-06-29 09:09:59.281250,-68.57,84.58
48234,2018-06-29 09:09:59.312500,-59.06,84.58
48235,2018-06-29 09:09:59.343750,-40.84,84.58
48236,2018-06-29 09:09:59.375000,-24.49,84.58
48237,2018-06-29 09:09:59.406250,-23.66,84.58
48238,2018-06-29 09:09:59.437500,-33.83,84.58
48239,2018-06-29 09:09:59.468750,-32.99,84.58
48240,2018-06-29 09:09:59.500000,-5.29,84.58
48241,2018-06-29 09:09:59.531250,39.47,84.67
48242,2018-06-29 09:09:59.562500,74.17,84.67
48243,2018-06-29 09:09:59.593750,80.12,84.67
48244,2018-06-29 09:09:59.625000,66.25,84.67
48245,2018-06-29 09:09:59.656250,56.49,84.67
48246,2018-06-29 09:09:59.687500,58.36,84.67
48247,2018-06-29 09:09:59.718750,55.53,84.67
48248,2018-06-29 09:09:59.750000,42.25,84.67
48249,2018-06-29 09:09:59.781250,32.48,84.67
48250,2018-06-29 09:09:59.812500,37.24,84.67
48251,2018-06-29 09:09:59.843750,47.08,84.67
48252,2018-06-29 09:09:59.875000,29.11,84.67
48253,2018-06-29 09:09:59.906250,-9.91,84.67
48254,2018-06-29 09:09:59.937500,-43.15,84.67
48255,2018-06-29 09:09:59.968750,-64.73,84.67
48256,2018-06-29 09:10:00.000000,-79.61,84.67
48257,2018-06-29 09:10:00.031250,-88.52,84.67
48258,2018-06-29 09:10:00.062500,-92.83,84.67
48259,2018-06-29 09:10:00.093750,-97.11,84.67
48260,2018-06-29 09:10:00.125000,-100.47,84.67
48261,2018-06-29 09:10:00.156250,-99.75,84.67
48262,2018-06-29 09:10:00.187500,-88.15,84.67
48263,2018-06-29 09:10:00.218750,-71.26,84.67
48264,2018-06-29 09:10:00.250000,-56.84,84.67
48265,2018-06-29 09:10:00.281250,-45.71,84.67
48266,2018-06-29 09:10:00.312500,-37.9,84.67
48267,2018-06-29 09:10:00.343750,-32.76,84.67
48268,2018-06-29 09:10:00.375000,-30.39,84.67
48269,2018-06-29 09:10:00.406250,-27.57,84.67
48270,2018-06-29 09:10:00.437500,-20.56,84.67
48271,2018-06-29 09:10:00.468750,-3.75,84.67
48272,2018-06-29 09:10:00.500000,22.24,84.67
48273,2018-06-29 09:10:00.531250,28.11,84.78
48274,2018-06-29 09:10:00.562500,19.64,84.78
48275,2018-06-29 09:10:00.593750,17.26,84.78
48276,2018-06-29 09:10:00.625000,23.13,84.78
48277,2018-06-29 09:10:00.656250,38.52,84.78
48278,2018-06-29 09:10:00.687500,62.78,84.78
48279,2018-06-29 09:10:00.718750,88.52,84.78
48280,2018-06-29 09:10:00.750000,107.38,84.78
48281,2018-06-29 09:10:00.781250,116.29,84.78
48282,2018-06-29 09:10:00.812500,115.2,84.78
48283,2018-06-29 09:10:00.843750,105.91,84.78
48284,2018-06-29 09:10:00.875000,87.65,84.78
48285,2018-06-29 09:10:00.906250,66.71,84.78
48286,2018-06-29 09:10:00.937500,51.47,84.78
48287,2018-06-29 09:10:00.968750,45.45,84.78
48288,2018-06-29 09:10:01.000000,43.24,84.78
48289,2018-06-29 09:10:01.031250,39.09,84.78
48290,2018-06-29 09:10:01.062500,32.8,84.78
48291,2018-06-29 09:10:01.093750,24.71,84.78
48292,2018-06-29 09:10:01.125000,14.13,84.78
48293,2018-06-29 09:10:01.156250,0.46,84.78
48294,2018-06-29 09:10:01.187500,-13.36,84.78
48295,2018-06-29 09:10:01.218750,-24.4,84.78
48296,2018-06-29 09:10:01.250000,-32.59,84.78
48297,2018-06-29 09:10:01.281250,-40.11,84.78
48298,2018-06-29 09:10:01.312500,-48.58,84.78
48299,2018-06-29 09:10:01.343750,-57.21,84.78
48300,2018-06-29 09:10:01.375000,-62.06,84.78
48301,2018-06-29 09:10:01.406250,-57.58,84.78
48302,2018-06-29 09:10:01.437500,-42.0,84.78
48303,2018-06-29 09:10:01.468750,-20.66,84.78
48304,2018-06-29 09:10:01.500000,-2.4,84.78
48305,2018-06-29 09:10:01.531250,4.96,84.92
48306,2018-06-29 09:10:01.562500,-3.4,84.92
48307,2018-06-29 09:10:01.593750,-26.25,84.92
48308,2018-06-29 09:10:01.625000,-54.21,84.92
48309,2018-06-29 09:10:01.656250,-74.57,84.92
48310,2018-06-29 09:10:01.687500,-80.24,84.92
48311,2018-06-29 09:10:01.718750,-74.0,84.92
48312,2018-06-29 09:10:01.750000,-63.73,84.92
48313,2018-06-29 09:10:01.781250,-54.24,84.92
48314,2018-06-29 09:10:01.812500,-45.53,84.92
48315,2018-06-29 09:10:01.843750,-36.88,84.92
48316,2018-06-29 09:10:01.875000,-29.51,84.92
48317,2018-06-29 09:10:01.906250,-25.65,84.92
48318,2018-06-29 09:10:01.937500,-26.48,84.92
48319,2018-06-29 09:10:01.968750,-32.03,84.92
48320,2018-06-29 09:10:02.000000,-43.58,84.92
48321,2018-06-29 09:10:02.031250,-63.64,84.92
48322,2018-06-29 09:10:02.062500,-89.3,84.92
48323,2018-06-29 09:10:02.093750,-107.97,84.92
48324,2018-06-29 09:10:02.125000,-105.44,84.92
48325,2018-06-29 09:10:02.156250,-79.25,84.92
48326,2018-06-29 09:10:02.187500,-41.47,84.92
48327,2018-06-29 09:10:02.218750,-6.62,84.92
48328,2018-06-29 09:10:02.250000,22.86,84.92
48329,2018-06-29 09:10:02.281250,54.31,84.92
48330,2018-06-29 09:10:02.312500,89.02,84.92
48331,2018-06-29 09:10:02.343750,118.89,84.92
48332,2018-06-29 09:10:02.375000,141.0,84.92
48333,2018-06-29 09:10:02.406250,162.14,84.92
48334,2018-06-29 09:10:02.437500,183.36,84.92
48335,2018-06-29 09:10:02.468750,192.6,84.92
48336,2018-06-29 09:10:02.500000,178.61,84.92
48337,2018-06-29 09:10:02.531250,143.69,85.0
48338,2018-06-29 09:10:02.562500,100.13,85.0
48339,2018-06-29 09:10:02.593750,58.27,85.0
48340,2018-06-29 09:10:02.625000,19.35,85.0
48341,2018-06-29 09:10:02.656250,-18.69,85.0
48342,2018-06-29 09:10:02.687500,-52.49,85.0
48343,2018-06-29 09:10:02.718750,-77.62,85.0
48344,2018-06-29 09:10:02.750000,-97.89,85.0
48345,2018-06-29 09:10:02.781250,-118.99,85.0
48346,2018-06-29 09:10:02.812500,-136.43,85.0
48347,2018-06-29 09:10:02.843750,-140.2,85.0
48348,2018-06-29 09:10:02.875000,-127.62,85.0
48349,2018-06-29 09:10:02.906250,-104.33,85.0
48350,2018-06-29 09:10:02.937500,-77.03,85.0
48351,2018-06-29 09:10:02.968750,-50.36,85.0
48352,2018-06-29 09:10:03.000000,-28.46,85.0
48353,2018-06-29 09:10:03.031250,-14.15,85.0
48354,2018-06-29 09:10:03.062500,-5.93,85.0
48355,2018-06-29 09:10:03.093750,0.37,85.0
48356,2018-06-29 09:10:03.125000,7.18,85.0
48357,2018-06-29 09:10:03.156250,14.24,85.0
48358,2018-06-29 09:10:03.187500,21.02,85.0
48359,2018-06-29 09:10:03.218750,27.68,85.0
48360,2018-06-29 09:10:03.250000,33.07,85.0
48361,2018-06-29 09:10:03.281250,34.47,85.0
48362,2018-06-29 09:10:03.312500,30.93,85.0
48363,2018-06-29 09:10:03.343750,25.15,85.0
48364,2018-06-29 09:10:03.375000,19.89,85.0
48365,2018-06-29 09:10:03.406250,14.34,85.0
48366,2018-06-29 09:10:03.437500,6.85,85.0
48367,2018-06-29 09:10:03.468750,-1.27,85.0
48368,2018-06-29 09:10:03.500000,-7.47,85.0
48369,2018-06-29 09:10:03.531250,-12.28,85.05
48370,2018-06-29 09:10:03.562500,-19.31,85.05
48371,2018-06-29 09:10:03.593750,-31.0,85.05
48372,2018-06-29 09:10:03.625000,-43.74,85.05
48373,2018-06-29 09:10:03.656250,-47.81,85.05
48374,2018-06-29 09:10:03.687500,-36.27,85.05
48375,2018-06-29 09:10:03.718750,-13.21,85.05
48376,2018-06-29 09:10:03.750000,10.89,85.05
48377,2018-06-29 09:10:03.781250,29.36,85.05
48378,2018-06-29 09:10:03.812500,40.77,85.05
48379,2018-06-29 09:10:03.843750,45.08,85.05
48380,2018-06-29 09:10:03.875000,43.56,85.05
48381,2018-06-29 09:10:03.906250,39.6,85.05
48382,2018-06-29 09:10:03.937500,36.25,85.05
48383,2018-06-29 09:10:03.968750,33.87,85.05
48384,2018-06-29 09:10:04.000000,31.12,85.05
48385,2018-06-29 09:10:04.031250,27.64,85.05
48386,2018-06-29 09:10:04.062500,24.12,85.05
48387,2018-06-29 09:10:04.093750,20.59,85.05
48388,2018-06-29 09:10:04.125000,16.03,85.05
48389,2018-06-29 09:10:04.156250,9.62,85.05
48390,2018-06-29 09:10:04.187500,1.97,85.05
48391,2018-06-29 09:10:04.218750,-4.84,85.05
48392,2018-06-29 09:10:04.250000,-9.85,85.05
48393,2018-06-29 09:10:04.281250,-15.43,85.05
48394,2018-06-29 09:10:04.312500,-23.85,85.05
48395,2018-06-29 09:10:04.343750,-33.07,85.05
48396,2018-06-29 09:10:04.375000,-40.49,85.05
48397,2018-06-29 09:10:04.406250,-47.89,85.05
48398,2018-06-29 09:10:04.437500,-57.51,85.05
48399,2018-06-29 09:10:04.468750,-66.59,85.05
48400,2018-06-29 09:10:04.500000,-68.91,85.05
48401,2018-06-29 09:10:04.531250,-57.34,85.08
48402,2018-06-29 09:10:04.562500,-27.25,85.08
48403,2018-06-29 09:10:04.593750,15.88,85.08
48404,2018-06-29 09:10:04.625000,57.66,85.08
48405,2018-06-29 09:10:04.656250,89.05,85.08
48406,2018-06-29 09:10:04.687500,111.39,85.08
48407,2018-06-29 09:10:04.718750,125.73,85.08
48408,2018-06-29 09:10:04.750000,129.13,85.08
48409,2018-06-29 09:10:04.781250,122.19,85.08
48410,2018-06-29 09:10:04.812500,110.06,85.08
48411,2018-06-29 09:10:04.843750,96.92,85.08
48412,2018-06-29 09:10:04.875000,85.21,85.08
48413,2018-06-29 09:10:04.906250,76.92,85.08
48414,2018-06-29 09:10:04.937500,71.0,85.08
48415,2018-06-29 09:10:04.968750,61.75,85.08
48416,2018-06-29 09:10:05.000000,43.43,85.08
48417,2018-06-29 09:10:05.031250,16.71,85.08
48418,2018-06-29 09:10:05.062500,-10.52,85.08
48419,2018-06-29 09:10:05.093750,-30.18,85.08
48420,2018-06-29 09:10:05.125000,-40.34,85.08
48421,2018-06-29 09:10:05.156250,-43.92,85.08
48422,2018-06-29 09:10:05.187500,-44.32,85.08
48423,2018-06-29 09:10:05.218750,-43.71,85.08
48424,2018-06-29 09:10:05.250000,-43.06,85.08
48425,2018-06-29 09:10:05.281250,-42.25,85.08
48426,2018-06-29 09:10:05.312500,-41.45,85.08
48427,2018-06-29 09:10:05.343750,-42.53,85.08
48428,2018-06-29 09:10:05.375000,-48.31,85.08
48429,2018-06-29 09:10:05.406250,-58.97,85.08
48430,2018-06-29 09:10:05.437500,-67.99,85.08
48431,2018-06-29 09:10:05.468750,-65.31,85.08
48432,2018-06-29 09:10:05.500000,-48.36,85.08
48433,2018-06-29 09:10:05.531250,-25.97,85.12
48434,2018-06-29 09:10:05.562500,-7.91,85.12
48435,2018-06-29 09:10:05.593750,3.78,85.12
48436,2018-06-29 09:10:05.625000,10.59,85.12
48437,2018-06-29 09:10:05.656250,12.71,85.12
48438,2018-06-29 09:10:05.687500,11.59,85.12
48439,2018-06-29 09:10:05.718750,10.94,85.12
48440,2018-06-29 09:10:05.750000,12.91,85.12
48441,2018-06-29 09:10:05.781250,16.3,85.12
48442,2018-06-29 09:10:05.812500,18.82,85.12
48443,2018-06-29 09:10:05.843750,19.61,85.12
48444,2018-06-29 09:10:05.875000,19.22,85.12
48445,2018-06-29 09:10:05.906250,17.48,85.12
48446,2018-06-29 09:10:05.937500,13.39,85.12
48447,2018-06-29 09:10:05.968750,7.28,85.12
48448,2018-06-29 09:10:06.000000,1.26,85.12
48449,2018-06-29 09:10:06.031250,-3.38,85.12
48450,2018-06-29 09:10:06.062500,-7.78,85.12
48451,2018-06-29 09:10:06.093750,-13.85,85.12
48452,2018-06-29 09:10:06.125000,-21.15,85.12
48453,2018-06-29 09:10:06.156250,-26.92,85.12
48454,2018-06-29 09:10:06.187500,-29.66,85.12
48455,2018-06-29 09:10:06.218750,-31.74,85.12
48456,2018-06-29 09:10:06.250000,-36.66,85.12
48457,2018-06-29 09:10:06.281250,-43.36,85.12
48458,2018-06-29 09:10:06.312500,-43.94,85.12
48459,2018-06-29 09:10:06.343750,-31.01,85.12
48460,2018-06-29 09:10:06.375000,-5.07,85.12
48461,2018-06-29 09:10:06.406250,29.74,85.12
48462,2018-06-29 09:10:06.437500,74.46,85.12
48463,2018-06-29 09:10:06.468750,131.6,85.12
48464,2018-06-29 09:10:06.500000,191.86,85.12
48465,2018-06-29 09:10:06.531250,235.12,85.07
48466,2018-06-29 09:10:06.562500,248.75,85.07
48467,2018-06-29 09:10:06.593750,242.66,85.07
48468,2018-06-29 09:10:06.625000,236.02,85.07
48469,2018-06-29 09:10:06.656250,233.02,85.07
48470,2018-06-29 09:10:06.687500,218.78,85.07
48471,2018-06-29 09:10:06.718750,182.07,85.07
48472,2018-06-29 09:10:06.750000,129.4,85.07
48473,2018-06-29 09:10:06.781250,77.81,85.07
48474,2018-06-29 09:10:06.812500,42.63,85.07
48475,2018-06-29 09:10:06.843750,23.2,85.07
48476,2018-06-29 09:10:06.875000,12.64,85.07
48477,2018-06-29 09:10:06.906250,-2.11,85.07
48478,2018-06-29 09:10:06.937500,-30.52,85.07
48479,2018-06-29 09:10:06.968750,-68.94,85.07
48480,2018-06-29 09:10:07.000000,-94.69,85.07
48481,2018-06-29 09:10:07.031250,-92.38,85.07
48482,2018-06-29 09:10:07.062500,-81.72,85.07
48483,2018-06-29 09:10:07.093750,-80.44,85.07
48484,2018-06-29 09:10:07.125000,-83.88,85.07
48485,2018-06-29 09:10:07.156250,-63.07,85.07
48486,2018-06-29 09:10:07.187500,-9.67,85.07
48487,2018-06-29 09:10:07.218750,54.06,85.07
48488,2018-06-29 09:10:07.250000,75.78,85.07
48489,2018-06-29 09:10:07.281250,-22.59,85.07
48490,2018-06-29 09:10:07.312500,-142.13,85.07
48491,2018-06-29 09:10:07.343750,-185.54,85.07
48492,2018-06-29 09:10:07.375000,-166.81,85.07
48493,2018-06-29 09:10:07.406250,-115.85,85.07
48494,2018-06-29 09:10:07.437500,-62.22,85.07
48495,2018-06-29 09:10:07.468750,-51.47,85.07
48496,2018-06-29 09:10:07.500000,-77.63,85.07
48497,2018-06-29 09:10:07.531250,-95.81,85.07
48498,2018-06-29 09:10:07.562500,-89.08,85.07
48499,2018-06-29 09:10:07.593750,-70.04,85.07
48500,2018-06-29 09:10:07.625000,-61.62,85.07
48501,2018-06-29 09:10:07.656250,-72.74,85.07
48502,2018-06-29 09:10:07.687500,-87.95,85.07
48503,2018-06-29 09:10:07.718750,-72.55,85.07
48504,2018-06-29 09:10:07.750000,-22.1,85.07
48505,2018-06-29 09:10:07.781250,34.72,85.07
48506,2018-06-29 09:10:07.812500,59.94,85.07
48507,2018-06-29 09:10:07.843750,31.74,85.07
48508,2018-06-29 09:10:07.875000,-31.06,85.07
48509,2018-06-29 09:10:07.906250,-87.06,85.07
48510,2018-06-29 09:10:07.937500,-109.05,85.07
48511,2018-06-29 09:10:07.968750,-103.05,85.07
48512,2018-06-29 09:10:08.000000,-80.29,85.07
48513,2018-06-29 09:10:08.031250,-44.94,85.07
48514,2018-06-29 09:10:08.062500,-10.66,85.07
48515,2018-06-29 09:10:08.093750,9.73,85.07
48516,2018-06-29 09:10:08.125000,19.07,85.07
48517,2018-06-29 09:10:08.156250,31.23,85.07
48518,2018-06-29 09:10:08.187500,51.03,85.07
48519,2018-06-29 09:10:08.218750,64.61,85.07
48520,2018-06-29 09:10:08.250000,60.34,85.07
48521,2018-06-29 09:10:08.281250,45.89,85.07
48522,2018-06-29 09:10:08.312500,38.84,85.07
48523,2018-06-29 09:10:08.343750,52.06,85.07
48524,2018-06-29 09:10:08.375000,76.78,85.07
48525,2018-06-29 09:10:08.406250,85.6,85.07
48526,2018-06-29 09:10:08.437500,66.77,85.07
48527,2018-06-29 09:10:08.468750,38.86,85.07
48528,2018-06-29 09:10:08.500000,19.38,85.07
48529,2018-06-29 09:10:08.531250,7.19,85.15
48530,2018-06-29 09:10:08.562500,1.55,85.15
48531,2018-06-29 09:10:08.593750,5.68,85.15
48532,2018-06-29 09:10:08.625000,11.52,85.15
48533,2018-06-29 09:10:08.656250,5.67,85.15
48534,2018-06-29 09:10:08.687500,-10.75,85.15
48535,2018-06-29 09:10:08.718750,-18.6,85.15
48536,2018-06-29 09:10:08.750000,-17.52,85.15
48537,2018-06-29 09:10:08.781250,-21.46,85.15
48538,2018-06-29 09:10:08.812500,-30.85,85.15
48539,2018-06-29 09:10:08.843750,-40.19,85.15
48540,2018-06-29 09:10:08.875000,-50.19,85.15
48541,2018-06-29 09:10:08.906250,-71.62,85.15
48542,2018-06-29 09:10:08.937500,-106.73,85.15
48543,2018-06-29 09:10:08.968750,-143.58,85.15
48544,2018-06-29 09:10:09.000000,-175.99,85.15
48545,2018-06-29 09:10:09.031250,-201.86,85.15
48546,2018-06-29 09:10:09.062500,-220.76,85.15
48547,2018-06-29 09:10:09.093750,-209.98,85.15
48548,2018-06-29 09:10:09.125000,-167.51,85.15
48549,2018-06-29 09:10:09.156250,-104.11,85.15
48550,2018-06-29 09:10:09.187500,1.39,85.15
48551,2018-06-29 09:10:09.218750,86.68,85.15
48552,2018-06-29 09:10:09.250000,136.42,85.15
48553,2018-06-29 09:10:09.281250,166.42,85.15
48554,2018-06-29 09:10:09.312500,182.49,85.15
48555,2018-06-29 09:10:09.343750,174.0,85.15
48556,2018-06-29 09:10:09.375000,151.43,85.15
48557,2018-06-29 09:10:09.406250,116.64,85.15
48558,2018-06-29 09:10:09.437500,65.52,85.15
48559,2018-06-29 09:10:09.468750,-1.4,85.15
48560,2018-06-29 09:10:09.500000,-64.5,85.15
48561,2018-06-29 09:10:09.531250,-88.24,85.23
48562,2018-06-29 09:10:09.562500,-64.79,85.23
48563,2018-06-29 09:10:09.593750,-1.16,85.23
48564,2018-06-29 09:10:09.625000,36.94,85.23
48565,2018-06-29 09:10:09.656250,21.47,85.23
48566,2018-06-29 09:10:09.687500,-12.06,85.23
48567,2018-06-29 09:10:09.718750,-39.61,85.23
48568,2018-06-29 09:10:09.750000,-57.35,85.23
48569,2018-06-29 09:10:09.781250,-64.72,85.23
48570,2018-06-29 09:10:09.812500,-62.59,85.23
48571,2018-06-29 09:10:09.843750,-48.72,85.23
48572,2018-06-29 09:10:09.875000,-17.79,85.23
48573,2018-06-29 09:10:09.906250,24.8,85.23
48574,2018-06-29 09:10:09.937500,61.53,85.23
48575,2018-06-29 09:10:09.968750,62.77,85.23
48576,2018-06-29 09:10:10.000000,9.56,85.23
48577,2018-06-29 09:10:10.031250,-74.73,85.23
48578,2018-06-29 09:10:10.062500,-132.96,85.23
48579,2018-06-29 09:10:10.093750,-132.46,85.23
48580,2018-06-29 09:10:10.125000,-92.28,85.23
48581,2018-06-29 09:10:10.156250,-44.8,85.23
48582,2018-06-29 09:10:10.187500,-7.98,85.23
48583,2018-06-29 09:10:10.218750,12.96,85.23
48584,2018-06-29 09:10:10.250000,18.46,85.23
48585,2018-06-29 09:10:10.281250,15.86,85.23
48586,2018-06-29 09:10:10.312500,13.22,85.23
48587,2018-06-29 09:10:10.343750,10.69,85.23
48588,2018-06-29 09:10:10.375000,8.21,85.23
48589,2018-06-29 09:10:10.406250,10.86,85.23
48590,2018-06-29 09:10:10.437500,22.6,85.23
48591,2018-06-29 09:10:10.468750,40.17,85.23
48592,2018-06-29 09:10:10.500000,58.5,85.23
48593,2018-06-29 09:10:10.531250,75.84,85.35
48594,2018-06-29 09:10:10.562500,90.41,85.35
48595,2018-06-29 09:10:10.593750,99.32,85.35
48596,2018-06-29 09:10:10.625000,102.39,85.35
48597,2018-06-29 09:10:10.656250,103.33,85.35
48598,2018-06-29 09:10:10.687500,104.45,85.35
48599,2018-06-29 09:10:10.718750,103.68,85.35
48600,2018-06-29 09:10:10.750000,98.9,85.35
48601,2018-06-29 09:10:10.781250,90.61,85.35
48602,2018-06-29 09:10:10.812500,77.95,85.35
48603,2018-06-29 09:10:10.843750,56.76,85.35
48604,2018-06-29 09:10:10.875000,23.47,85.35
48605,2018-06-29 09:10:10.906250,-19.93,85.35
48606,2018-06-29 09:10:10.937500,-63.49,85.35
48607,2018-06-29 09:10:10.968750,-93.75,85.35
48608,2018-06-29 09:10:11.000000,-104.17,85.35
48609,2018-06-29 09:10:11.031250,-98.93,85.35
48610,2018-06-29 09:10:11.062500,-86.38,85.35
48611,2018-06-29 09:10:11.093750,-72.88,85.35
48612,2018-06-29 09:10:11.125000,-61.58,85.35
48613,2018-06-29 09:10:11.156250,-52.78,85.35
48614,2018-06-29 09:10:11.187500,-45.68,85.35
48615,2018-06-29 09:10:11.218750,-40.29,85.35
48616,2018-06-29 09:10:11.250000,-36.8,85.35
48617,2018-06-29 09:10:11.281250,-34.03,85.35
48618,2018-06-29 09:10:11.312500,-30.48,85.35
48619,2018-06-29 09:10:11.343750,-26.21,85.35
48620,2018-06-29 09:10:11.375000,-22.66,85.35
48621,2018-06-29 09:10:11.406250,-21.18,85.35
48622,2018-06-29 09:10:11.437500,-22.06,85.35
48623,2018-06-29 09:10:11.468750,-24.82,85.35
48624,2018-06-29 09:10:11.500000,-29.47,85.35
48625,2018-06-29 09:10:11.531250,-36.45,85.47
48626,2018-06-29 09:10:11.562500,-44.94,85.47
48627,2018-06-29 09:10:11.593750,-52.4,85.47
48628,2018-06-29 09:10:11.625000,-56.96,85.47
48629,2018-06-29 09:10:11.656250,-59.98,85.47
48630,2018-06-29 09:10:11.687500,-65.23,85.47
48631,2018-06-29 09:10:11.718750,-73.02,85.47
48632,2018-06-29 09:10:11.750000,-75.83,85.47
48633,2018-06-29 09:10:11.781250,-65.2,85.47
48634,2018-06-29 09:10:11.812500,-43.07,85.47
48635,2018-06-29 09:10:11.843750,-19.38,85.47
48636,2018-06-29 09:10:11.875000,-0.76,85.47
48637,2018-06-29 09:10:11.906250,12.29,85.47
48638,2018-06-29 09:10:11.937500,20.63,85.47
48639,2018-06-29 09:10:11.968750,24.99,85.47
48640,2018-06-29 09:10:12.000000,26.35,85.47
48641,2018-06-29 09:10:12.031250,25.67,85.47
48642,2018-06-29 09:10:12.062500,25.03,85.47
48643,2018-06-29 09:10:12.093750,28.14,85.47
48644,2018-06-29 09:10:12.125000,37.07,85.47
48645,2018-06-29 09:10:12.156250,48.33,85.47
48646,2018-06-29 09:10:12.187500,54.33,85.47
48647,2018-06-29 09:10:12.218750,51.6,85.47
48648,2018-06-29 09:10:12.250000,45.24,85.47
48649,2018-06-29 09:10:12.281250,40.24,85.47
48650,2018-06-29 09:10:12.312500,33.46,85.47
48651,2018-06-29 09:10:12.343750,20.25,85.47
48652,2018-06-29 09:10:12.375000,1.69,85.47
48653,2018-06-29 09:10:12.406250,-20.61,85.47
48654,2018-06-29 09:10:12.437500,-47.89,85.47
48655,2018-06-29 09:10:12.468750,-77.83,85.47
48656,2018-06-29 09:10:12.500000,-103.79,85.47
48657,2018-06-29 09:10:12.531250,-121.11,85.6
48658,2018-06-29 09:10:12.562500,-126.28,85.6
48659,2018-06-29 09:10:12.593750,-114.5,85.6
48660,2018-06-29 09:10:12.625000,-86.34,85.6
48661,2018-06-29 09:10:12.656250,-51.3,85.6
48662,2018-06-29 09:10:12.687500,-17.86,85.6
48663,2018-06-29 09:10:12.718750,12.77,85.6
48664,2018-06-29 09:10:12.750000,41.87,85.6
48665,2018-06-29 09:10:12.781250,69.26,85.6
48666,2018-06-29 09:10:12.812500,92.23,85.6
48667,2018-06-29 09:10:12.843750,109.89,85.6
48668,2018-06-29 09:10:12.875000,122.66,85.6
48669,2018-06-29 09:10:12.906250,131.38,85.6
48670,2018-06-29 09:10:12.937500,136.32,85.6
48671,2018-06-29 09:10:12.968750,139.59,85.6
48672,2018-06-29 09:10:13.000000,141.98,85.6
48673,2018-06-29 09:10:13.031250,139.58,85.6
48674,2018-06-29 09:10:13.062500,131.99,85.6
48675,2018-06-29 09:10:13.093750,123.04,85.6
48676,2018-06-29 09:10:13.125000,123.58,85.6
48677,2018-06-29 09:10:13.156250,129.77,85.6
48678,2018-06-29 09:10:13.187500,133.95,85.6
48679,2018-06-29 09:10:13.218750,133.82,85.6
48680,2018-06-29 09:10:13.250000,139.43,85.6
48681,2018-06-29 09:10:13.281250,154.19,85.6
48682,2018-06-29 09:10:13.312500,155.29,85.6
48683,2018-06-29 09:10:13.343750,140.41,85.6
48684,2018-06-29 09:10:13.375000,134.11,85.6
48685,2018-06-29 09:10:13.406250,182.59,85.6
48686,2018-06-29 09:10:13.437500,260.52,85.6
48687,2018-06-29 09:10:13.468750,316.69,85.6
48688,2018-06-29 09:10:13.500000,342.03,85.6
48689,2018-06-29 09:10:13.531250,380.08,85.68
48690,2018-06-29 09:10:13.562500,456.89,85.68
48691,2018-06-29 09:10:13.593750,526.1,85.68
48692,2018-06-29 09:10:13.625000,570.28,85.68
48693,2018-06-29 09:10:13.656250,425.48,85.68
48694,2018-06-29 09:10:13.687500,59.83,85.68
48695,2018-06-29 09:10:13.718750,-235.96,85.68
48696,2018-06-29 09:10:13.750000,-377.16,85.68
48697,2018-06-29 09:10:13.781250,-419.02,85.68
48698,2018-06-29 09:10:13.812500,-405.73,85.68
48699,2018-06-29 09:10:13.843750,-354.86,85.68
48700,2018-06-29 09:10:13.875000,-321.85,85.68
48701,2018-06-29 09:10:13.906250,-330.32,85.68
48702,2018-06-29 09:10:13.937500,-360.73,85.68
48703,2018-06-29 09:10:13.968750,-361.22,85.68
48704,2018-06-29 09:10:14.000000,-345.25,85.68
48705,2018-06-29 09:10:14.031250,-341.96,85.68
48706,2018-06-29 09:10:14.062500,-343.69,85.68
48707,2018-06-29 09:10:14.093750,-322.49,85.68
48708,2018-06-29 09:10:14.125000,-262.6,85.68
48709,2018-06-29 09:10:14.156250,-166.31,85.68
48710,2018-06-29 09:10:14.187500,-70.62,85.68
48711,2018-06-29 09:10:14.218750,2.26,85.68
48712,2018-06-29 09:10:14.250000,56.42,85.68
48713,2018-06-29 09:10:14.281250,84.64,85.68
48714,2018-06-29 09:10:14.312500,76.94,85.68
48715,2018-06-29 09:10:14.343750,45.63,85.68
48716,2018-06-29 09:10:14.375000,14.21,85.68
48717,2018-06-29 09:10:14.406250,-0.26,85.68
48718,2018-06-29 09:10:14.437500,-0.72,85.68
48719,2018-06-29 09:10:14.468750,4.17,85.68
48720,2018-06-29 09:10:14.500000,13.19,85.68
48721,2018-06-29 09:10:14.531250,21.05,85.8
48722,2018-06-29 09:10:14.562500,22.19,85.8
48723,2018-06-29 09:10:14.593750,15.98,85.8
48724,2018-06-29 09:10:14.625000,6.58,85.8
48725,2018-06-29 09:10:14.656250,-4.78,85.8
48726,2018-06-29 09:10:14.687500,-15.46,85.8
48727,2018-06-29 09:10:14.718750,-21.51,85.8
48728,2018-06-29 09:10:14.750000,-24.24,85.8
48729,2018-06-29 09:10:14.781250,-24.79,85.8
48730,2018-06-29 09:10:14.812500,-18.21,85.8
48731,2018-06-29 09:10:14.843750,-8.04,85.8
48732,2018-06-29 09:10:14.875000,-7.56,85.8
48733,2018-06-29 09:10:14.906250,-18.41,85.8
48734,2018-06-29 09:10:14.937500,-24.64,85.8
48735,2018-06-29 09:10:14.968750,-13.52,85.8
48736,2018-06-29 09:10:15.000000,11.06,85.8
48737,2018-06-29 09:10:15.031250,40.85,85.8
48738,2018-06-29 09:10:15.062500,71.4,85.8
48739,2018-06-29 09:10:15.093750,82.13,85.8
48740,2018-06-29 09:10:15.125000,57.84,85.8
48741,2018-06-29 09:10:15.156250,12.69,85.8
48742,2018-06-29 09:10:15.187500,-28.72,85.8
48743,2018-06-29 09:10:15.218750,-51.69,85.8
48744,2018-06-29 09:10:15.250000,-58.8,85.8
48745,2018-06-29 09:10:15.281250,-60.76,85.8
48746,2018-06-29 09:10:15.312500,-63.46,85.8
48747,2018-06-29 09:10:15.343750,-67.82,85.8
48748,2018-06-29 09:10:15.375000,-72.12,85.8
48749,2018-06-29 09:10:15.406250,-69.43,85.8
48750,2018-06-29 09:10:15.437500,-60.62,85.8
48751,2018-06-29 09:10:15.468750,-51.68,85.8
48752,2018-06-29 09:10:15.500000,-44.19,85.8
48753,2018-06-29 09:10:15.531250,-26.61,85.9
48754,2018-06-29 09:10:15.562500,5.13,85.9
48755,2018-06-29 09:10:15.593750,38.36,85.9
48756,2018-06-29 09:10:15.625000,58.55,85.9
48757,2018-06-29 09:10:15.656250,60.73,85.9
48758,2018-06-29 09:10:15.687500,45.72,85.9
48759,2018-06-29 09:10:15.718750,26.3,85.9
48760,2018-06-29 09:10:15.750000,20.78,85.9
48761,2018-06-29 09:10:15.781250,31.25,85.9
48762,2018-06-29 09:10:15.812500,51.79,85.9
48763,2018-06-29 09:10:15.843750,79.72,85.9
48764,2018-06-29 09:10:15.875000,98.85,85.9
48765,2018-06-29 09:10:15.906250,84.02,85.9
48766,2018-06-29 09:10:15.937500,41.58,85.9
48767,2018-06-29 09:10:15.968750,5.59,85.9
48768,2018-06-29 09:10:16.000000,-8.67,85.9
48769,2018-06-29 09:10:16.031250,-9.73,85.9
48770,2018-06-29 09:10:16.062500,-5.47,85.9
48771,2018-06-29 09:10:16.093750,-4.34,85.9
48772,2018-06-29 09:10:16.125000,-14.28,85.9
48773,2018-06-29 09:10:16.156250,-23.95,85.9
48774,2018-06-29 09:10:16.187500,-20.35,85.9
48775,2018-06-29 09:10:16.218750,-16.95,85.9
48776,2018-06-29 09:10:16.250000,-28.13,85.9
48777,2018-06-29 09:10:16.281250,-39.03,85.9
48778,2018-06-29 09:10:16.312500,-32.51,85.9
48779,2018-06-29 09:10:16.343750,-17.77,85.9
48780,2018-06-29 09:10:16.375000,-10.6,85.9
48781,2018-06-29 09:10:16.406250,-13.69,85.9
48782,2018-06-29 09:10:16.437500,-17.83,85.9
48783,2018-06-29 09:10:16.468750,-12.9,85.9
48784,2018-06-29 09:10:16.500000,0.6,85.9
48785,2018-06-29 09:10:16.531250,6.29,85.93
48786,2018-06-29 09:10:16.562500,-15.21,85.93
48787,2018-06-29 09:10:16.593750,-56.37,85.93
48788,2018-06-29 09:10:16.625000,-70.57,85.93
48789,2018-06-29 09:10:16.656250,-22.77,85.93
48790,2018-06-29 09:10:16.687500,56.52,85.93
48791,2018-06-29 09:10:16.718750,114.09,85.93
48792,2018-06-29 09:10:16.750000,132.72,85.93
48793,2018-06-29 09:10:16.781250,118.53,85.93
48794,2018-06-29 09:10:16.812500,68.47,85.93
48795,2018-06-29 09:10:16.843750,-7.23,85.93
48796,2018-06-29 09:10:16.875000,-68.99,85.93
48797,2018-06-29 09:10:16.906250,-95.52,85.93
48798,2018-06-29 09:10:16.937500,-85.17,85.93
48799,2018-06-29 09:10:16.968750,-51.11,85.93
48800,2018-06-29 09:10:17.000000,-16.74,85.93
48801,2018-06-29 09:10:17.031250,17.92,85.93
48802,2018-06-29 09:10:17.062500,40.32,85.93
48803,2018-06-29 09:10:17.093750,24.72,85.93
48804,2018-06-29 09:10:17.125000,-31.51,85.93
48805,2018-06-29 09:10:17.156250,-94.13,85.93
48806,2018-06-29 09:10:17.187500,-96.44,85.93
48807,2018-06-29 09:10:17.218750,-26.63,85.93
48808,2018-06-29 09:10:17.250000,43.72,85.93
48809,2018-06-29 09:10:17.281250,71.86,85.93
48810,2018-06-29 09:10:17.312500,66.43,85.93
48811,2018-06-29 09:10:17.343750,42.07,85.93
48812,2018-06-29 09:10:17.375000,20.74,85.93
48813,2018-06-29 09:10:17.406250,26.93,85.93
48814,2018-06-29 09:10:17.437500,52.23,85.93
48815,2018-06-29 09:10:17.468750,59.34,85.93
48816,2018-06-29 09:10:17.500000,41.37,85.93
48817,2018-06-29 09:10:17.531250,6.47,86.0
48818,2018-06-29 09:10:17.562500,-38.04,86.0
48819,2018-06-29 09:10:17.593750,-74.0,86.0
48820,2018-06-29 09:10:17.625000,-93.35,86.0
48821,2018-06-29 09:10:17.656250,-102.87,86.0
48822,2018-06-29 09:10:17.687500,-105.89,86.0
48823,2018-06-29 09:10:17.718750,-93.26,86.0
48824,2018-06-29 09:10:17.750000,-47.14,86.0
48825,2018-06-29 09:10:17.781250,16.55,86.0
48826,2018-06-29 09:10:17.812500,68.87,86.0
48827,2018-06-29 09:10:17.843750,94.24,86.0
48828,2018-06-29 09:10:17.875000,95.88,86.0
48829,2018-06-29 09:10:17.906250,83.51,86.0
48830,2018-06-29 09:10:17.937500,68.0,86.0
48831,2018-06-29 09:10:17.968750,56.22,86.0
48832,2018-06-29 09:10:18.000000,48.42,86.0
48833,2018-06-29 09:10:18.031250,42.14,86.0
48834,2018-06-29 09:10:18.062500,37.43,86.0
48835,2018-06-29 09:10:18.093750,37.3,86.0
48836,2018-06-29 09:10:18.125000,34.55,86.0
48837,2018-06-29 09:10:18.156250,19.62,86.0
48838,2018-06-29 09:10:18.187500,-7.91,86.0
48839,2018-06-29 09:10:18.218750,-33.45,86.0
48840,2018-06-29 09:10:18.250000,-38.0,86.0
48841,2018-06-29 09:10:18.281250,-17.8,86.0
48842,2018-06-29 09:10:18.312500,1.31,86.0
48843,2018-06-29 09:10:18.343750,-13.85,86.0
48844,2018-06-29 09:10:18.375000,-60.17,86.0
48845,2018-06-29 09:10:18.406250,-102.21,86.0
48846,2018-06-29 09:10:18.437500,-112.1,86.0
48847,2018-06-29 09:10:18.468750,-97.19,86.0
48848,2018-06-29 09:10:18.500000,-70.65,86.0
48849,2018-06-29 09:10:18.531250,-46.36,86.07
48850,2018-06-29 09:10:18.562500,-31.73,86.07
48851,2018-06-29 09:10:18.593750,-11.58,86.07
48852,2018-06-29 09:10:18.625000,3.18,86.07
48853,2018-06-29 09:10:18.656250,15.3,86.07
48854,2018-06-29 09:10:18.687500,18.93,86.07
48855,2018-06-29 09:10:18.718750,3.27,86.07
48856,2018-06-29 09:10:18.750000,-31.26,86.07
48857,2018-06-29 09:10:18.781250,-45.26,86.07
48858,2018-06-29 09:10:18.812500,-15.42,86.07
48859,2018-06-29 09:10:18.843750,26.14,86.07
48860,2018-06-29 09:10:18.875000,58.59,86.07
48861,2018-06-29 09:10:18.906250,78.24,86.07
48862,2018-06-29 09:10:18.937500,91.93,86.07
48863,2018-06-29 09:10:18.968750,97.1,86.07
48864,2018-06-29 09:10:19.000000,87.41,86.07
48865,2018-06-29 09:10:19.031250,66.97,86.07
48866,2018-06-29 09:10:19.062500,43.31,86.07
48867,2018-06-29 09:10:19.093750,7.3,86.07
48868,2018-06-29 09:10:19.125000,-43.22,86.07
48869,2018-06-29 09:10:19.156250,-81.96,86.07
48870,2018-06-29 09:10:19.187500,-90.09,86.07
48871,2018-06-29 09:10:19.218750,-73.22,86.07
48872,2018-06-29 09:10:19.250000,-43.26,86.07
48873,2018-06-29 09:10:19.281250,-17.7,86.07
48874,2018-06-29 09:10:19.312500,4.8,86.07
48875,2018-06-29 09:10:19.343750,31.6,86.07
48876,2018-06-29 09:10:19.375000,64.01,86.07
48877,2018-06-29 09:10:19.406250,93.84,86.07
48878,2018-06-29 09:10:19.437500,107.87,86.07
48879,2018-06-29 09:10:19.468750,90.58,86.07
48880,2018-06-29 09:10:19.500000,41.79,86.07
48881,2018-06-29 09:10:19.531250,-23.83,86.08
48882,2018-06-29 09:10:19.562500,-61.0,86.08
48883,2018-06-29 09:10:19.593750,-37.16,86.08
48884,2018-06-29 09:10:19.625000,2.9,86.08
48885,2018-06-29 09:10:19.656250,8.69,86.08
48886,2018-06-29 09:10:19.687500,-22.21,86.08
48887,2018-06-29 09:10:19.718750,-66.17,86.08
48888,2018-06-29 09:10:19.750000,-102.7,86.08
48889,2018-06-29 09:10:19.781250,-116.35,86.08
48890,2018-06-29 09:10:19.812500,-109.29,86.08
48891,2018-06-29 09:10:19.843750,-84.18,86.08
48892,2018-06-29 09:10:19.875000,-55.87,86.08
48893,2018-06-29 09:10:19.906250,-36.4,86.08
48894,2018-06-29 09:10:19.937500,-23.94,86.08
48895,2018-06-29 09:10:19.968750,-10.05,86.08
48896,2018-06-29 09:10:20.000000,7.63,86.08
48897,2018-06-29 09:10:20.031250,26.23,86.08
48898,2018-06-29 09:10:20.062500,47.63,86.08
48899,2018-06-29 09:10:20.093750,68.34,86.08
48900,2018-06-29 09:10:20.125000,76.48,86.08
48901,2018-06-29 09:10:20.156250,63.36,86.08
48902,2018-06-29 09:10:20.187500,38.69,86.08
48903,2018-06-29 09:10:20.218750,20.83,86.08
48904,2018-06-29 09:10:20.250000,13.45,86.08
48905,2018-06-29 09:10:20.281250,5.33,86.08
48906,2018-06-29 09:10:20.312500,-13.02,86.08
48907,2018-06-29 09:10:20.343750,-38.32,86.08
48908,2018-06-29 09:10:20.375000,-61.0,86.08
48909,2018-06-29 09:10:20.406250,-68.98,86.08
48910,2018-06-29 09:10:20.437500,-55.13,86.08
48911,2018-06-29 09:10:20.468750,-28.9,86.08
48912,2018-06-29 09:10:20.500000,-1.2,86.08
48913,2018-06-29 09:10:20.531250,30.23,86.12
48914,2018-06-29 09:10:20.562500,73.61,86.12
48915,2018-06-29 09:10:20.593750,108.9,86.12
48916,2018-06-29 09:10:20.625000,103.39,86.12
48917,2018-06-29 09:10:20.656250,76.88,86.12
48918,2018-06-29 09:10:20.687500,40.89,86.12
48919,2018-06-29 09:10:20.718750,-8.78,86.12
48920,2018-06-29 09:10:20.750000,-46.15,86.12
48921,2018-06-29 09:10:20.781250,-30.29,86.12
48922,2018-06-29 09:10:20.812500,38.72,86.12
48923,2018-06-29 09:10:20.843750,109.92,86.12
48924,2018-06-29 09:10:20.875000,124.21,86.12
48925,2018-06-29 09:10:20.906250,78.68,86.12
48926,2018-06-29 09:10:20.937500,23.84,86.12
48927,2018-06-29 09:10:20.968750,-7.78,86.12
48928,2018-06-29 09:10:21.000000,-28.12,86.12
48929,2018-06-29 09:10:21.031250,-49.8,86.12
48930,2018-06-29 09:10:21.062500,-54.66,86.12
48931,2018-06-29 09:10:21.093750,-31.19,86.12
48932,2018-06-29 09:10:21.125000,-4.19,86.12
48933,2018-06-29 09:10:21.156250,-4.97,86.12
48934,2018-06-29 09:10:21.187500,-26.59,86.12
48935,2018-06-29 09:10:21.218750,-31.83,86.12
48936,2018-06-29 09:10:21.250000,-4.5,86.12
48937,2018-06-29 09:10:21.281250,34.92,86.12
48938,2018-06-29 09:10:21.312500,59.71,86.12
48939,2018-06-29 09:10:21.343750,60.79,86.12
48940,2018-06-29 09:10:21.375000,41.2,86.12
48941,2018-06-29 09:10:21.406250,5.03,86.12
48942,2018-06-29 09:10:21.437500,-27.5,86.12
48943,2018-06-29 09:10:21.468750,-40.24,86.12
48944,2018-06-29 09:10:21.500000,-39.2,86.12
48945,2018-06-29 09:10:21.531250,-41.46,86.15
48946,2018-06-29 09:10:21.562500,-56.97,86.15
48947,2018-06-29 09:10:21.593750,-75.09,86.15
48948,2018-06-29 09:10:21.625000,-80.94,86.15
48949,2018-06-29 09:10:21.656250,-73.98,86.15
48950,2018-06-29 09:10:21.687500,-58.31,86.15
48951,2018-06-29 09:10:21.718750,-38.65,86.15
48952,2018-06-29 09:10:21.750000,-19.14,86.15
48953,2018-06-29 09:10:21.781250,-6.51,86.15
48954,2018-06-29 09:10:21.812500,-6.5,86.15
48955,2018-06-29 09:10:21.843750,-18.07,86.15
48956,2018-06-29 09:10:21.875000,-29.02,86.15
48957,2018-06-29 09:10:21.906250,-30.64,86.15
48958,2018-06-29 09:10:21.937500,-25.27,86.15
48959,2018-06-29 09:10:21.968750,-20.04,86.15
48960,2018-06-29 09:10:22.000000,-17.4,86.15
48961,2018-06-29 09:10:22.031250,-17.55,86.15
48962,2018-06-29 09:10:22.062500,-20.51,86.15
48963,2018-06-29 09:10:22.093750,-23.97,86.15
48964,2018-06-29 09:10:22.125000,-24.73,86.15
48965,2018-06-29 09:10:22.156250,-20.39,86.15
48966,2018-06-29 09:10:22.187500,-10.01,86.15
48967,2018-06-29 09:10:22.218750,7.04,86.15
48968,2018-06-29 09:10:22.250000,27.61,86.15
48969,2018-06-29 09:10:22.281250,47.28,86.15
48970,2018-06-29 09:10:22.312500,64.85,86.15
48971,2018-06-29 09:10:22.343750,80.44,86.15
48972,2018-06-29 09:10:22.375000,93.45,86.15
48973,2018-06-29 09:10:22.406250,106.38,86.15
48974,2018-06-29 09:10:22.437500,119.66,86.15
48975,2018-06-29 09:10:22.468750,119.94,86.15
48976,2018-06-29 09:10:22.500000,92.04,86.15
48977,2018-06-29 09:10:22.531250,41.92,86.12
48978,2018-06-29 09:10:22.562500,-8.28,86.12
48979,2018-06-29 09:10:22.593750,-43.41,86.12
48980,2018-06-29 09:10:22.625000,-60.35,86.12
48981,2018-06-29 09:10:22.656250,-62.19,86.12
48982,2018-06-29 09:10:22.687500,-59.6,86.12
48983,2018-06-29 09:10:22.718750,-66.75,86.12
48984,2018-06-29 09:10:22.750000,-86.28,86.12
48985,2018-06-29 09:10:22.781250,-103.72,86.12
48986,2018-06-29 09:10:22.812500,-102.41,86.12
48987,2018-06-29 09:10:22.843750,-79.94,86.12
48988,2018-06-29 09:10:22.875000,-48.24,86.12
48989,2018-06-29 09:10:22.906250,-20.43,86.12
48990,2018-06-29 09:10:22.937500,-1.4,86.12
48991,2018-06-29 09:10:22.968750,11.88,86.12
48992,2018-06-29 09:10:23.000000,23.33,86.12
48993,2018-06-29 09:10:23.031250,32.17,86.12
48994,2018-06-29 09:10:23.062500,37.21,86.12
48995,2018-06-29 09:10:23.093750,39.53,86.12
48996,2018-06-29 09:10:23.125000,42.85,86.12
48997,2018-06-29 09:10:23.156250,46.4,86.12
48998,2018-06-29 09:10:23.187500,45.75,86.12
48999,2018-06-29 09:10:23.218750,38.33,86.12
49000,2018-06-29 09:10:23.250000,28.46,86.12
49001,2018-06-29 09:10:23.281250,23.54,86.12
49002,2018-06-29 09:10:23.312500,20.84,86.12
49003,2018-06-29 09:10:23.343750,14.96,86.12
49004,2018-06-29 09:10:23.375000,8.96,86.12
49005,2018-06-29 09:10:23.406250,18.13,86.12
49006,2018-06-29 09:10:23.437500,44.08,86.12
49007,2018-06-29 09:10:23.468750,74.46,86.12
49008,2018-06-29 09:10:23.500000,100.68,86.12
49009,2018-06-29 09:10:23.531250,89.16,86.13
49010,2018-06-29 09:10:23.562500,44.77,86.13
49011,2018-06-29 09:10:23.593750,0.21,86.13
49012,2018-06-29 09:10:23.625000,-28.87,86.13
49013,2018-06-29 09:10:23.656250,-47.65,86.13
49014,2018-06-29 09:10:23.687500,-57.5,86.13
49015,2018-06-29 09:10:23.718750,-44.43,86.13
49016,2018-06-29 09:10:23.750000,-8.81,86.13
49017,2018-06-29 09:10:23.781250,20.74,86.13
49018,2018-06-29 09:10:23.812500,21.65,86.13
49019,2018-06-29 09:10:23.843750,5.32,86.13
49020,2018-06-29 09:10:23.875000,-12.01,86.13
49021,2018-06-29 09:10:23.906250,-29.95,86.13
49022,2018-06-29 09:10:23.937500,-51.76,86.13
49023,2018-06-29 09:10:23.968750,-63.92,86.13
49024,2018-06-29 09:10:24.000000,-53.61,86.13
49025,2018-06-29 09:10:24.031250,-22.64,86.13
49026,2018-06-29 09:10:24.062500,20.52,86.13
49027,2018-06-29 09:10:24.093750,70.9,86.13
49028,2018-06-29 09:10:24.125000,118.9,86.13
49029,2018-06-29 09:10:24.156250,145.68,86.13
49030,2018-06-29 09:10:24.187500,146.88,86.13
49031,2018-06-29 09:10:24.218750,137.57,86.13
49032,2018-06-29 09:10:24.250000,119.56,86.13
49033,2018-06-29 09:10:24.281250,72.53,86.13
49034,2018-06-29 09:10:24.312500,-6.95,86.13
49035,2018-06-29 09:10:24.343750,-88.78,86.13
49036,2018-06-29 09:10:24.375000,-141.88,86.13
49037,2018-06-29 09:10:24.406250,-159.08,86.13
49038,2018-06-29 09:10:24.437500,-149.69,86.13
49039,2018-06-29 09:10:24.468750,-128.87,86.13
49040,2018-06-29 09:10:24.500000,-112.22,86.13
49041,2018-06-29 09:10:24.531250,-108.03,86.12
49042,2018-06-29 09:10:24.562500,-112.05,86.12
49043,2018-06-29 09:10:24.593750,-112.21,86.12
49044,2018-06-29 09:10:24.625000,-100.56,86.12
49045,2018-06-29 09:10:24.656250,-81.45,86.12
49046,2018-06-29 09:10:24.687500,-65.02,86.12
49047,2018-06-29 09:10:24.718750,-54.21,86.12
49048,2018-06-29 09:10:24.750000,-44.54,86.12
49049,2018-06-29 09:10:24.781250,-34.19,86.12
49050,2018-06-29 09:10:24.812500,-26.32,86.12
49051,2018-06-29 09:10:24.843750,-22.99,86.12
49052,2018-06-29 09:10:24.875000,-22.86,86.12
49053,2018-06-29 09:10:24.906250,-24.96,86.12
49054,2018-06-29 09:10:24.937500,-29.96,86.12
49055,2018-06-29 09:10:24.968750,-36.42,86.12
49056,2018-06-29 09:10:25.000000,-40.46,86.12
49057,2018-06-29 09:10:25.031250,-39.77,86.12
49058,2018-06-29 09:10:25.062500,-34.71,86.12
49059,2018-06-29 09:10:25.093750,-26.61,86.12
49060,2018-06-29 09:10:25.125000,-17.47,86.12
49061,2018-06-29 09:10:25.156250,-9.67,86.12
49062,2018-06-29 09:10:25.187500,-4.48,86.12
49063,2018-06-29 09:10:25.218750,-1.42,86.12
49064,2018-06-29 09:10:25.250000,1.01,86.12
49065,2018-06-29 09:10:25.281250,2.98,86.12
49066,2018-06-29 09:10:25.312500,2.27,86.12
49067,2018-06-29 09:10:25.343750,-2.87,86.12
49068,2018-06-29 09:10:25.375000,-11.21,86.12
49069,2018-06-29 09:10:25.406250,-18.81,86.12
49070,2018-06-29 09:10:25.437500,-19.89,86.12
49071,2018-06-29 09:10:25.468750,-10.09,86.12
49072,2018-06-29 09:10:25.500000,8.16,86.12
49073,2018-06-29 09:10:25.531250,27.18,86.07
49074,2018-06-29 09:10:25.562500,41.9,86.07
49075,2018-06-29 09:10:25.593750,52.52,86.07
49076,2018-06-29 09:10:25.625000,60.48,86.07
49077,2018-06-29 09:10:25.656250,65.61,86.07
49078,2018-06-29 09:10:25.687500,67.79,86.07
49079,2018-06-29 09:10:25.718750,69.32,86.07
49080,2018-06-29 09:10:25.750000,72.26,86.07
49081,2018-06-29 09:10:25.781250,74.52,86.07
49082,2018-06-29 09:10:25.812500,74.62,86.07
49083,2018-06-29 09:10:25.843750,76.98,86.07
49084,2018-06-29 09:10:25.875000,83.78,86.07
49085,2018-06-29 09:10:25.906250,87.98,86.07
49086,2018-06-29 09:10:25.937500,83.93,86.07
49087,2018-06-29 09:10:25.968750,76.07,86.07
49088,2018-06-29 09:10:26.000000,68.47,86.07
49089,2018-06-29 09:10:26.031250,56.73,86.07
49090,2018-06-29 09:10:26.062500,37.68,86.07
49091,2018-06-29 09:10:26.093750,17.32,86.07
49092,2018-06-29 09:10:26.125000,3.3,86.07
49093,2018-06-29 09:10:26.156250,-4.09,86.07
49094,2018-06-29 09:10:26.187500,-10.05,86.07
49095,2018-06-29 09:10:26.218750,-18.45,86.07
49096,2018-06-29 09:10:26.250000,-27.73,86.07
49097,2018-06-29 09:10:26.281250,-31.81,86.07
49098,2018-06-29 09:10:26.312500,-25.93,86.07
49099,2018-06-29 09:10:26.343750,-12.41,86.07
49100,2018-06-29 09:10:26.375000,1.3,86.07
49101,2018-06-29 09:10:26.406250,10.3,86.07
49102,2018-06-29 09:10:26.437500,14.84,86.07
49103,2018-06-29 09:10:26.468750,16.2,86.07
49104,2018-06-29 09:10:26.500000,14.69,86.07
49105,2018-06-29 09:10:26.531250,11.29,85.95
49106,2018-06-29 09:10:26.562500,7.75,85.95
49107,2018-06-29 09:10:26.593750,4.48,85.95
49108,2018-06-29 09:10:26.625000,0.52,85.95
49109,2018-06-29 09:10:26.656250,-3.91,85.95
49110,2018-06-29 09:10:26.687500,-6.44,85.95
49111,2018-06-29 09:10:26.718750,-6.3,85.95
49112,2018-06-29 09:10:26.750000,-7.42,85.95
49113,2018-06-29 09:10:26.781250,-14.01,85.95
49114,2018-06-29 09:10:26.812500,-24.66,85.95
49115,2018-06-29 09:10:26.843750,-34.63,85.95
49116,2018-06-29 09:10:26.875000,-42.22,85.95
49117,2018-06-29 09:10:26.906250,-49.65,85.95
49118,2018-06-29 09:10:26.937500,-59.16,85.95
49119,2018-06-29 09:10:26.968750,-69.57,85.95
49120,2018-06-29 09:10:27.000000,-76.75,85.95
49121,2018-06-29 09:10:27.031250,-79.56,85.95
49122,2018-06-29 09:10:27.062500,-84.0,85.95
49123,2018-06-29 09:10:27.093750,-96.63,85.95
49124,2018-06-29 09:10:27.125000,-113.15,85.95
49125,2018-06-29 09:10:27.156250,-119.28,85.95
49126,2018-06-29 09:10:27.187500,-107.53,85.95
49127,2018-06-29 09:10:27.218750,-86.11,85.95
49128,2018-06-29 09:10:27.250000,-65.8,85.95
49129,2018-06-29 09:10:27.281250,-44.78,85.95
49130,2018-06-29 09:10:27.312500,-7.21,85.95
49131,2018-06-29 09:10:27.343750,57.26,85.95
49132,2018-06-29 09:10:27.375000,132.95,85.95
49133,2018-06-29 09:10:27.406250,180.89,85.95
49134,2018-06-29 09:10:27.437500,176.17,85.95
49135,2018-06-29 09:10:27.468750,133.83,85.95
49136,2018-06-29 09:10:27.500000,89.8,85.95
49137,2018-06-29 09:10:27.531250,71.86,85.62
49138,2018-06-29 09:10:27.562500,87.47,85.62
49139,2018-06-29 09:10:27.593750,126.72,85.62
49140,2018-06-29 09:10:27.625000,158.2,85.62
49141,2018-06-29 09:10:27.656250,162.8,85.62
49142,2018-06-29 09:10:27.687500,152.87,85.62
49143,2018-06-29 09:10:27.718750,155.11,85.62
49144,2018-06-29 09:10:27.750000,172.56,85.62
49145,2018-06-29 09:10:27.781250,182.02,85.62
49146,2018-06-29 09:10:27.812500,177.71,85.62
49147,2018-06-29 09:10:27.843750,169.36,85.62
49148,2018-06-29 09:10:27.875000,176.89,85.62
49149,2018-06-29 09:10:27.906250,184.46,85.62
49150,2018-06-29 09:10:27.937500,174.69,85.62
49151,2018-06-29 09:10:27.968750,154.81,85.62
49152,2018-06-29 09:10:28.000000,165.43,85.62
49153,2018-06-29 09:10:28.031250,223.91,85.62
49154,2018-06-29 09:10:28.062500,276.99,85.62
49155,2018-06-29 09:10:28.093750,291.62,85.62
49156,2018-06-29 09:10:28.125000,178.93,85.62
49157,2018-06-29 09:10:28.156250,-37.99,85.62
49158,2018-06-29 09:10:28.187500,-192.69,85.62
49159,2018-06-29 09:10:28.218750,-279.39,85.62
49160,2018-06-29 09:10:28.250000,-331.72,85.62
49161,2018-06-29 09:10:28.281250,-331.14,85.62
49162,2018-06-29 09:10:28.312500,-269.42,85.62
49163,2018-06-29 09:10:28.343750,-188.67,85.62
49164,2018-06-29 09:10:28.375000,-123.63,85.62
49165,2018-06-29 09:10:28.406250,-88.86,85.62
49166,2018-06-29 09:10:28.437500,-65.56,85.62
49167,2018-06-29 09:10:28.468750,-54.49,85.62
49168,2018-06-29 09:10:28.500000,-50.73,85.62
49169,2018-06-29 09:10:28.531250,-42.19,85.4
49170,2018-06-29 09:10:28.562500,-25.76,85.4
49171,2018-06-29 09:10:28.593750,-15.36,85.4
49172,2018-06-29 09:10:28.625000,-29.21,85.4
49173,2018-06-29 09:10:28.656250,-58.26,85.4
49174,2018-06-29 09:10:28.687500,-85.03,85.4
49175,2018-06-29 09:10:28.718750,-90.86,85.4
49176,2018-06-29 09:10:28.750000,-79.18,85.4
49177,2018-06-29 09:10:28.781250,-73.09,85.4
49178,2018-06-29 09:10:28.812500,-90.63,85.4
49179,2018-06-29 09:10:28.843750,-129.23,85.4
49180,2018-06-29 09:10:28.875000,-168.7,85.4
49181,2018-06-29 09:10:28.906250,-186.66,85.4
49182,2018-06-29 09:10:28.937500,-171.9,85.4
49183,2018-06-29 09:10:28.968750,-131.18,85.4
49184,2018-06-29 09:10:29.000000,-82.59,85.4
49185,2018-06-29 09:10:29.031250,-47.19,85.4
49186,2018-06-29 09:10:29.062500,-37.22,85.4
49187,2018-06-29 09:10:29.093750,-47.84,85.4
49188,2018-06-29 09:10:29.125000,-60.92,85.4
49189,2018-06-29 09:10:29.156250,-57.27,85.4
49190,2018-06-29 09:10:29.187500,-27.38,85.4
49191,2018-06-29 09:10:29.218750,11.45,85.4
49192,2018-06-29 09:10:29.250000,32.55,85.4
49193,2018-06-29 09:10:29.281250,50.0,85.4
49194,2018-06-29 09:10:29.312500,102.33,85.4
49195,2018-06-29 09:10:29.343750,177.53,85.4
49196,2018-06-29 09:10:29.375000,213.79,85.4
49197,2018-06-29 09:10:29.406250,185.55,85.4
49198,2018-06-29 09:10:29.437500,120.46,85.4
49199,2018-06-29 09:10:29.468750,60.77,85.4
49200,2018-06-29 09:10:29.500000,32.24,85.4
49201,2018-06-29 09:10:29.531250,34.16,85.22
49202,2018-06-29 09:10:29.562500,35.54,85.22
49203,2018-06-29 09:10:29.593750,8.85,85.22
49204,2018-06-29 09:10:29.625000,-29.1,85.22
49205,2018-06-29 09:10:29.656250,-48.46,85.22
49206,2018-06-29 09:10:29.687500,-41.52,85.22
49207,2018-06-29 09:10:29.718750,-36.99,85.22
49208,2018-06-29 09:10:29.750000,-58.98,85.22
49209,2018-06-29 09:10:29.781250,-109.3,85.22
49210,2018-06-29 09:10:29.812500,-156.82,85.22
49211,2018-06-29 09:10:29.843750,-118.51,85.22
49212,2018-06-29 09:10:29.875000,-33.02,85.22
49213,2018-06-29 09:10:29.906250,26.74,85.22
49214,2018-06-29 09:10:29.937500,37.88,85.22
49215,2018-06-29 09:10:29.968750,6.09,85.22
49216,2018-06-29 09:10:30.000000,-39.72,85.22
49217,2018-06-29 09:10:30.031250,-54.14,85.22
49218,2018-06-29 09:10:30.062500,-30.62,85.22
49219,2018-06-29 09:10:30.093750,-0.54,85.22
49220,2018-06-29 09:10:30.125000,10.74,85.22
49221,2018-06-29 09:10:30.156250,0.35,85.22
49222,2018-06-29 09:10:30.187500,-6.79,85.22
49223,2018-06-29 09:10:30.218750,8.25,85.22
49224,2018-06-29 09:10:30.250000,47.79,85.22
49225,2018-06-29 09:10:30.281250,91.77,85.22
49226,2018-06-29 09:10:30.312500,121.31,85.22
49227,2018-06-29 09:10:30.343750,130.41,85.22
49228,2018-06-29 09:10:30.375000,123.06,85.22
49229,2018-06-29 09:10:30.406250,105.18,85.22
49230,2018-06-29 09:10:30.437500,80.57,85.22
49231,2018-06-29 09:10:30.468750,56.81,85.22
49232,2018-06-29 09:10:30.500000,43.39,85.22
49233,2018-06-29 09:10:30.531250,36.26,85.03
49234,2018-06-29 09:10:30.562500,21.65,85.03
49235,2018-06-29 09:10:30.593750,-0.09,85.03
49236,2018-06-29 09:10:30.625000,-16.09,85.03
49237,2018-06-29 09:10:30.656250,-23.32,85.03
49238,2018-06-29 09:10:30.687500,-29.05,85.03
49239,2018-06-29 09:10:30.718750,-36.31,85.03
49240,2018-06-29 09:10:30.750000,-42.68,85.03
49241,2018-06-29 09:10:30.781250,-48.27,85.03
49242,2018-06-29 09:10:30.812500,-54.87,85.03
49243,2018-06-29 09:10:30.843750,-60.42,85.03
49244,2018-06-29 09:10:30.875000,-61.75,85.03
49245,2018-06-29 09:10:30.906250,-60.86,85.03
49246,2018-06-29 09:10:30.937500,-62.67,85.03
49247,2018-06-29 09:10:30.968750,-66.97,85.03
49248,2018-06-29 09:10:31.000000,-68.48,85.03
49249,2018-06-29 09:10:31.031250,-64.74,85.03
49250,2018-06-29 09:10:31.062500,-59.7,85.03
49251,2018-06-29 09:10:31.093750,-58.46,85.03
49252,2018-06-29 09:10:31.125000,-61.69,85.03
49253,2018-06-29 09:10:31.156250,-65.34,85.03
49254,2018-06-29 09:10:31.187500,-63.12,85.03
49255,2018-06-29 09:10:31.218750,-50.93,85.03
49256,2018-06-29 09:10:31.250000,-31.67,85.03
49257,2018-06-29 09:10:31.281250,-13.25,85.03
49258,2018-06-29 09:10:31.312500,0.04,85.03
49259,2018-06-29 09:10:31.343750,10.04,85.03
49260,2018-06-29 09:10:31.375000,19.26,85.03
49261,2018-06-29 09:10:31.406250,27.78,85.03
49262,2018-06-29 09:10:31.437500,34.62,85.03
49263,2018-06-29 09:10:31.468750,39.22,85.03
49264,2018-06-29 09:10:31.500000,41.74,85.03
49265,2018-06-29 09:10:31.531250,42.67,84.88
49266,2018-06-29 09:10:31.562500,42.26,84.88
49267,2018-06-29 09:10:31.593750,40.7,84.88
49268,2018-06-29 09:10:31.625000,38.25,84.88
49269,2018-06-29 09:10:31.656250,34.64,84.88
49270,2018-06-29 09:10:31.687500,29.42,84.88
49271,2018-06-29 09:10:31.718750,22.7,84.88
49272,2018-06-29 09:10:31.750000,15.43,84.88
49273,2018-06-29 09:10:31.781250,8.94,84.88
49274,2018-06-29 09:10:31.812500,3.54,84.88
49275,2018-06-29 09:10:31.843750,-2.12,84.88
49276,2018-06-29 09:10:31.875000,-9.14,84.88
49277,2018-06-29 09:10:31.906250,-17.16,84.88
49278,2018-06-29 09:10:31.937500,-24.4,84.88
49279,2018-06-29 09:10:31.968750,-26.91,84.88
49280,2018-06-29 09:10:32.000000,-20.94,84.88
49281,2018-06-29 09:10:32.031250,-8.71,84.88
49282,2018-06-29 09:10:32.062500,2.68,84.88
49283,2018-06-29 09:10:32.093750,9.21,84.88
49284,2018-06-29 09:10:32.125000,12.17,84.88
49285,2018-06-29 09:10:32.156250,12.89,84.88
49286,2018-06-29 09:10:32.187500,10.81,84.88
49287,2018-06-29 09:10:32.218750,6.59,84.88
49288,2018-06-29 09:10:32.250000,2.37,84.88
49289,2018-06-29 09:10:32.281250,-1.19,84.88
49290,2018-06-29 09:10:32.312500,-4.82,84.88
49291,2018-06-29 09:10:32.343750,-7.73,84.88
49292,2018-06-29 09:10:32.375000,-8.6,84.88
49293,2018-06-29 09:10:32.406250,-8.85,84.88
49294,2018-06-29 09:10:32.437500,-10.76,84.88
49295,2018-06-29 09:10:32.468750,-13.6,84.88
49296,2018-06-29 09:10:32.500000,-15.55,84.88
49297,2018-06-29 09:10:32.531250,-17.24,84.72
49298,2018-06-29 09:10:32.562500,-19.96,84.72
49299,2018-06-29 09:10:32.593750,-22.81,84.72
49300,2018-06-29 09:10:32.625000,-23.9,84.72
49301,2018-06-29 09:10:32.656250,-23.09,84.72
49302,2018-06-29 09:10:32.687500,-22.31,84.72
49303,2018-06-29 09:10:32.718750,-22.73,84.72
49304,2018-06-29 09:10:32.750000,-22.81,84.72
49305,2018-06-29 09:10:32.781250,-21.15,84.72
49306,2018-06-29 09:10:32.812500,-19.34,84.72
49307,2018-06-29 09:10:32.843750,-19.69,84.72
49308,2018-06-29 09:10:32.875000,-22.6,84.72
49309,2018-06-29 09:10:32.906250,-26.55,84.72
49310,2018-06-29 09:10:32.937500,-27.21,84.72
49311,2018-06-29 09:10:32.968750,-19.5,84.72
49312,2018-06-29 09:10:33.000000,-4.33,84.72
49313,2018-06-29 09:10:33.031250,10.32,84.72
49314,2018-06-29 09:10:33.062500,18.43,84.72
49315,2018-06-29 09:10:33.093750,21.49,84.72
49316,2018-06-29 09:10:33.125000,23.41,84.72
49317,2018-06-29 09:10:33.156250,24.79,84.72
49318,2018-06-29 09:10:33.187500,24.02,84.72
49319,2018-06-29 09:10:33.218750,21.29,84.72
49320,2018-06-29 09:10:33.250000,18.35,84.72
49321,2018-06-29 09:10:33.281250,15.86,84.72
49322,2018-06-29 09:10:33.312500,13.58,84.72
49323,2018-06-29 09:10:33.343750,11.52,84.72
49324,2018-06-29 09:10:33.375000,8.99,84.72
49325,2018-06-29 09:10:33.406250,4.52,84.72
49326,2018-06-29 09:10:33.437500,-1.33,84.72
49327,2018-06-29 09:10:33.468750,-6.02,84.72
49328,2018-06-29 09:10:33.500000,-8.76,84.72
49329,2018-06-29 09:10:33.531250,-11.38,84.58
49330,2018-06-29 09:10:33.562500,-15.3,84.58
49331,2018-06-29 09:10:33.593750,-19.41,84.58
49332,2018-06-29 09:10:33.625000,-21.87,84.58
49333,2018-06-29 09:10:33.656250,-23.39,84.58
49334,2018-06-29 09:10:33.687500,-26.84,84.58
49335,2018-06-29 09:10:33.718750,-32.96,84.58
49336,2018-06-29 09:10:33.750000,-37.71,84.58
49337,2018-06-29 09:10:33.781250,-35.39,84.58
49338,2018-06-29 09:10:33.812500,-24.62,84.58
49339,2018-06-29 09:10:33.843750,-10.2,84.58
49340,2018-06-29 09:10:33.875000,1.97,84.58
49341,2018-06-29 09:10:33.906250,10.07,84.58
49342,2018-06-29 09:10:33.937500,15.68,84.58
49343,2018-06-29 09:10:33.968750,20.17,84.58
49344,2018-06-29 09:10:34.000000,23.34,84.58
49345,2018-06-29 09:10:34.031250,24.82,84.58
49346,2018-06-29 09:10:34.062500,25.08,84.58
49347,2018-06-29 09:10:34.093750,25.01,84.58
49348,2018-06-29 09:10:34.125000,25.29,84.58
49349,2018-06-29 09:10:34.156250,25.67,84.58
49350,2018-06-29 09:10:34.187500,25.09,84.58
49351,2018-06-29 09:10:34.218750,23.5,84.58
49352,2018-06-29 09:10:34.250000,22.64,84.58
49353,2018-06-29 09:10:34.281250,23.47,84.58
49354,2018-06-29 09:10:34.312500,24.46,84.58
49355,2018-06-29 09:10:34.343750,23.55,84.58
49356,2018-06-29 09:10:34.375000,20.19,84.58
49357,2018-06-29 09:10:34.406250,14.99,84.58
49358,2018-06-29 09:10:34.437500,8.74,84.58
49359,2018-06-29 09:10:34.468750,2.28,84.58
49360,2018-06-29 09:10:34.500000,-3.06,84.58
49361,2018-06-29 09:10:34.531250,-6.66,84.57
49362,2018-06-29 09:10:34.562500,-9.87,84.57
49363,2018-06-29 09:10:34.593750,-14.77,84.57
49364,2018-06-29 09:10:34.625000,-21.49,84.57
49365,2018-06-29 09:10:34.656250,-26.96,84.57
49366,2018-06-29 09:10:34.687500,-26.66,84.57
49367,2018-06-29 09:10:34.718750,-18.7,84.57
49368,2018-06-29 09:10:34.750000,-6.33,84.57
49369,2018-06-29 09:10:34.781250,4.99,84.57
49370,2018-06-29 09:10:34.812500,12.63,84.57
49371,2018-06-29 09:10:34.843750,17.54,84.57
49372,2018-06-29 09:10:34.875000,20.72,84.57
49373,2018-06-29 09:10:34.906250,21.74,84.57
49374,2018-06-29 09:10:34.937500,20.92,84.57
49375,2018-06-29 09:10:34.968750,19.92,84.57
49376,2018-06-29 09:10:35.000000,19.12,84.57
49377,2018-06-29 09:10:35.031250,17.41,84.57
49378,2018-06-29 09:10:35.062500,15.21,84.57
49379,2018-06-29 09:10:35.093750,13.76,84.57
49380,2018-06-29 09:10:35.125000,11.94,84.57
49381,2018-06-29 09:10:35.156250,8.12,84.57
49382,2018-06-29 09:10:35.187500,3.73,84.57
49383,2018-06-29 09:10:35.218750,1.38,84.57
49384,2018-06-29 09:10:35.250000,1.27,84.57
49385,2018-06-29 09:10:35.281250,1.17,84.57
49386,2018-06-29 09:10:35.312500,-0.49,84.57
49387,2018-06-29 09:10:35.343750,-2.61,84.57
49388,2018-06-29 09:10:35.375000,-3.45,84.57
49389,2018-06-29 09:10:35.406250,-4.28,84.57
49390,2018-06-29 09:10:35.437500,-7.95,84.57
49391,2018-06-29 09:10:35.468750,-14.59,84.57
49392,2018-06-29 09:10:35.500000,-21.24,84.57
49393,2018-06-29 09:10:35.531250,-23.9,84.5
49394,2018-06-29 09:10:35.562500,-19.77,84.5
49395,2018-06-29 09:10:35.593750,-10.36,84.5
49396,2018-06-29 09:10:35.625000,-0.93,84.5
49397,2018-06-29 09:10:35.656250,4.87,84.5
49398,2018-06-29 09:10:35.687500,7.3,84.5
49399,2018-06-29 09:10:35.718750,7.83,84.5
49400,2018-06-29 09:10:35.750000,7.05,84.5
49401,2018-06-29 09:10:35.781250,5.17,84.5
49402,2018-06-29 09:10:35.812500,2.99,84.5
49403,2018-06-29 09:10:35.843750,1.73,84.5
49404,2018-06-29 09:10:35.875000,1.41,84.5
49405,2018-06-29 09:10:35.906250,0.68,84.5
49406,2018-06-29 09:10:35.937500,-1.12,84.5
49407,2018-06-29 09:10:35.968750,-3.63,84.5
49408,2018-06-29 09:10:36.000000,-6.62,84.5
49409,2018-06-29 09:10:36.031250,-9.51,84.5
49410,2018-06-29 09:10:36.062500,-11.45,84.5
49411,2018-06-29 09:10:36.093750,-12.59,84.5
49412,2018-06-29 09:10:36.125000,-13.58,84.5
49413,2018-06-29 09:10:36.156250,-14.3,84.5
49414,2018-06-29 09:10:36.187500,-14.13,84.5
49415,2018-06-29 09:10:36.218750,-13.01,84.5
49416,2018-06-29 09:10:36.250000,-12.46,84.5
49417,2018-06-29 09:10:36.281250,-15.12,84.5
49418,2018-06-29 09:10:36.312500,-21.22,84.5
49419,2018-06-29 09:10:36.343750,-26.26,84.5
49420,2018-06-29 09:10:36.375000,-25.02,84.5
49421,2018-06-29 09:10:36.406250,-17.46,84.5
49422,2018-06-29 09:10:36.437500,-8.62,84.5
49423,2018-06-29 09:10:36.468750,-2.91,84.5
49424,2018-06-29 09:10:36.500000,-0.59,84.5
49425,2018-06-29 09:10:36.531250,0.29,84.48
49426,2018-06-29 09:10:36.562500,1.76,84.48
49427,2018-06-29 09:10:36.593750,6.18,84.48
49428,2018-06-29 09:10:36.625000,15.97,84.48
49429,2018-06-29 09:10:36.656250,32.79,84.48
49430,2018-06-29 09:10:36.687500,57.04,84.48
49431,2018-06-29 09:10:36.718750,85.36,84.48
49432,2018-06-29 09:10:36.750000,108.93,84.48
49433,2018-06-29 09:10:36.781250,118.66,84.48
49434,2018-06-29 09:10:36.812500,111.8,84.48
49435,2018-06-29 09:10:36.843750,93.84,84.48
49436,2018-06-29 09:10:36.875000,75.77,84.48
49437,2018-06-29 09:10:36.906250,64.34,84.48
49438,2018-06-29 09:10:36.937500,53.27,84.48
49439,2018-06-29 09:10:36.968750,33.0,84.48
49440,2018-06-29 09:10:37.000000,5.91,84.48
49441,2018-06-29 09:10:37.031250,-19.51,84.48
49442,2018-06-29 09:10:37.062500,-41.11,84.48
49443,2018-06-29 09:10:37.093750,-58.47,84.48
49444,2018-06-29 09:10:37.125000,-66.47,84.48
49445,2018-06-29 09:10:37.156250,-62.28,84.48
49446,2018-06-29 09:10:37.187500,-50.19,84.48
49447,2018-06-29 09:10:37.218750,-35.88,84.48
49448,2018-06-29 09:10:37.250000,-22.14,84.48
49449,2018-06-29 09:10:37.281250,-11.03,84.48
49450,2018-06-29 09:10:37.312500,-4.77,84.48
49451,2018-06-29 09:10:37.343750,-3.29,84.48
49452,2018-06-29 09:10:37.375000,-3.87,84.48
49453,2018-06-29 09:10:37.406250,-3.88,84.48
49454,2018-06-29 09:10:37.437500,-2.89,84.48
49455,2018-06-29 09:10:37.468750,-1.76,84.48
49456,2018-06-29 09:10:37.500000,-0.7,84.48
49457,2018-06-29 09:10:37.531250,0.89,84.45
49458,2018-06-29 09:10:37.562500,2.7,84.45
49459,2018-06-29 09:10:37.593750,3.08,84.45
49460,2018-06-29 09:10:37.625000,1.38,84.45
49461,2018-06-29 09:10:37.656250,-1.47,84.45
49462,2018-06-29 09:10:37.687500,-5.14,84.45
49463,2018-06-29 09:10:37.718750,-9.65,84.45
49464,2018-06-29 09:10:37.750000,-13.76,84.45
49465,2018-06-29 09:10:37.781250,-16.53,84.45
49466,2018-06-29 09:10:37.812500,-19.05,84.45
49467,2018-06-29 09:10:37.843750,-22.91,84.45
49468,2018-06-29 09:10:37.875000,-28.83,84.45
49469,2018-06-29 09:10:37.906250,-35.68,84.45
49470,2018-06-29 09:10:37.937500,-39.06,84.45
49471,2018-06-29 09:10:37.968750,-34.29,84.45
49472,2018-06-29 09:10:38.000000,-22.65,84.45
49473,2018-06-29 09:10:38.031250,-10.17,84.45
49474,2018-06-29 09:10:38.062500,-0.49,84.45
49475,2018-06-29 09:10:38.093750,6.63,84.45
49476,2018-06-29 09:10:38.125000,11.8,84.45
49477,2018-06-29 09:10:38.156250,15.21,84.45
49478,2018-06-29 09:10:38.187500,17.43,84.45
49479,2018-06-29 09:10:38.218750,18.7,84.45
49480,2018-06-29 09:10:38.250000,18.87,84.45
49481,2018-06-29 09:10:38.281250,18.28,84.45
49482,2018-06-29 09:10:38.312500,17.58,84.45
49483,2018-06-29 09:10:38.343750,17.15,84.45
49484,2018-06-29 09:10:38.375000,17.08,84.45
49485,2018-06-29 09:10:38.406250,16.53,84.45
49486,2018-06-29 09:10:38.437500,14.12,84.45
49487,2018-06-29 09:10:38.468750,9.88,84.45
49488,2018-06-29 09:10:38.500000,5.61,84.45
49489,2018-06-29 09:10:38.531250,2.48,84.45
49490,2018-06-29 09:10:38.562500,-0.13,84.45
49491,2018-06-29 09:10:38.593750,-3.03,84.45
49492,2018-06-29 09:10:38.625000,-6.21,84.45
49493,2018-06-29 09:10:38.656250,-9.69,84.45
49494,2018-06-29 09:10:38.687500,-13.78,84.45
49495,2018-06-29 09:10:38.718750,-18.82,84.45
49496,2018-06-29 09:10:38.750000,-25.4,84.45
49497,2018-06-29 09:10:38.781250,-33.65,84.45
49498,2018-06-29 09:10:38.812500,-41.19,84.45
49499,2018-06-29 09:10:38.843750,-43.46,84.45
49500,2018-06-29 09:10:38.875000,-37.78,84.45
49501,2018-06-29 09:10:38.906250,-26.6,84.45
49502,2018-06-29 09:10:38.937500,-15.35,84.45
49503,2018-06-29 09:10:38.968750,-7.51,84.45
49504,2018-06-29 09:10:39.000000,-2.46,84.45
49505,2018-06-29 09:10:39.031250,2.39,84.45
49506,2018-06-29 09:10:39.062500,8.08,84.45
49507,2018-06-29 09:10:39.093750,13.59,84.45
49508,2018-06-29 09:10:39.125000,18.21,84.45
49509,2018-06-29 09:10:39.156250,22.57,84.45
49510,2018-06-29 09:10:39.187500,26.91,84.45
49511,2018-06-29 09:10:39.218750,30.71,84.45
49512,2018-06-29 09:10:39.250000,33.58,84.45
49513,2018-06-29 09:10:39.281250,35.02,84.45
49514,2018-06-29 09:10:39.312500,34.27,84.45
49515,2018-06-29 09:10:39.343750,31.47,84.45
49516,2018-06-29 09:10:39.375000,27.74,84.45
49517,2018-06-29 09:10:39.406250,23.99,84.45
49518,2018-06-29 09:10:39.437500,20.17,84.45
49519,2018-06-29 09:10:39.468750,15.69,84.45
49520,2018-06-29 09:10:39.500000,10.38,84.45
49521,2018-06-29 09:10:39.531250,4.46,84.55
49522,2018-06-29 09:10:39.562500,-1.97,84.55
49523,2018-06-29 09:10:39.593750,-8.34,84.55
49524,2018-06-29 09:10:39.625000,-13.63,84.55
49525,2018-06-29 09:10:39.656250,-17.95,84.55
49526,2018-06-29 09:10:39.687500,-22.22,84.55
49527,2018-06-29 09:10:39.718750,-25.38,84.55
49528,2018-06-29 09:10:39.750000,-24.59,84.55
49529,2018-06-29 09:10:39.781250,-18.92,84.55
49530,2018-06-29 09:10:39.812500,-10.98,84.55
49531,2018-06-29 09:10:39.843750,-4.61,84.55
49532,2018-06-29 09:10:39.875000,-1.55,84.55
49533,2018-06-29 09:10:39.906250,-0.75,84.55
49534,2018-06-29 09:10:39.937500,-0.2,84.55
49535,2018-06-29 09:10:39.968750,1.15,84.55
49536,2018-06-29 09:10:40.000000,3.16,84.55
49537,2018-06-29 09:10:40.031250,5.73,84.55
49538,2018-06-29 09:10:40.062500,8.97,84.55
49539,2018-06-29 09:10:40.093750,12.35,84.55
49540,2018-06-29 09:10:40.125000,15.15,84.55
49541,2018-06-29 09:10:40.156250,17.63,84.55
49542,2018-06-29 09:10:40.187500,19.65,84.55
49543,2018-06-29 09:10:40.218750,19.86,84.55
49544,2018-06-29 09:10:40.250000,17.77,84.55
49545,2018-06-29 09:10:40.281250,14.71,84.55
49546,2018-06-29 09:10:40.312500,11.52,84.55
49547,2018-06-29 09:10:40.343750,7.87,84.55
49548,2018-06-29 09:10:40.375000,3.79,84.55
49549,2018-06-29 09:10:40.406250,-0.51,84.55
49550,2018-06-29 09:10:40.437500,-5.24,84.55
49551,2018-06-29 09:10:40.468750,-10.16,84.55
49552,2018-06-29 09:10:40.500000,-14.39,84.55
49553,2018-06-29 09:10:40.531250,-17.26,84.63
49554,2018-06-29 09:10:40.562500,-17.92,84.63
49555,2018-06-29 09:10:40.593750,-14.93,84.63
49556,2018-06-29 09:10:40.625000,-8.35,84.63
49557,2018-06-29 09:10:40.656250,-0.75,84.63
49558,2018-06-29 09:10:40.687500,5.25,84.63
49559,2018-06-29 09:10:40.718750,9.27,84.63
49560,2018-06-29 09:10:40.750000,12.4,84.63
49561,2018-06-29 09:10:40.781250,15.28,84.63
49562,2018-06-29 09:10:40.812500,17.49,84.63
49563,2018-06-29 09:10:40.843750,18.55,84.63
49564,2018-06-29 09:10:40.875000,18.69,84.63
49565,2018-06-29 09:10:40.906250,18.34,84.63
49566,2018-06-29 09:10:40.937500,17.26,84.63
49567,2018-06-29 09:10:40.968750,15.31,84.63
49568,2018-06-29 09:10:41.000000,13.07,84.63
49569,2018-06-29 09:10:41.031250,10.76,84.63
49570,2018-06-29 09:10:41.062500,7.11,84.63
49571,2018-06-29 09:10:41.093750,0.59,84.63
49572,2018-06-29 09:10:41.125000,-8.07,84.63
49573,2018-06-29 09:10:41.156250,-16.15,84.63
49574,2018-06-29 09:10:41.187500,-21.99,84.63
49575,2018-06-29 09:10:41.218750,-25.75,84.63
49576,2018-06-29 09:10:41.250000,-27.51,84.63
49577,2018-06-29 09:10:41.281250,-27.35,84.63
49578,2018-06-29 09:10:41.312500,-26.91,84.63
49579,2018-06-29 09:10:41.343750,-27.24,84.63
49580,2018-06-29 09:10:41.375000,-25.42,84.63
49581,2018-06-29 09:10:41.406250,-17.71,84.63
49582,2018-06-29 09:10:41.437500,-5.52,84.63
49583,2018-06-29 09:10:41.468750,5.73,84.63
49584,2018-06-29 09:10:41.500000,12.96,84.63
49585,2018-06-29 09:10:41.531250,17.08,84.63
49586,2018-06-29 09:10:41.562500,19.74,84.63
49587,2018-06-29 09:10:41.593750,20.93,84.63
49588,2018-06-29 09:10:41.625000,20.1,84.63
49589,2018-06-29 09:10:41.656250,18.33,84.63
49590,2018-06-29 09:10:41.687500,17.67,84.63
49591,2018-06-29 09:10:41.718750,18.57,84.63
49592,2018-06-29 09:10:41.750000,19.86,84.63
49593,2018-06-29 09:10:41.781250,20.38,84.63
49594,2018-06-29 09:10:41.812500,19.07,84.63
49595,2018-06-29 09:10:41.843750,15.89,84.63
49596,2018-06-29 09:10:41.875000,12.53,84.63
49597,2018-06-29 09:10:41.906250,9.9,84.63
49598,2018-06-29 09:10:41.937500,7.12,84.63
49599,2018-06-29 09:10:41.968750,4.09,84.63
49600,2018-06-29 09:10:42.000000,1.62,84.63
49601,2018-06-29 09:10:42.031250,-1.07,84.63
49602,2018-06-29 09:10:42.062500,-5.68,84.63
49603,2018-06-29 09:10:42.093750,-12.58,84.63
49604,2018-06-29 09:10:42.125000,-20.1,84.63
49605,2018-06-29 09:10:42.156250,-24.54,84.63
49606,2018-06-29 09:10:42.187500,-22.75,84.63
49607,2018-06-29 09:10:42.218750,-15.92,84.63
49608,2018-06-29 09:10:42.250000,-8.6,84.63
49609,2018-06-29 09:10:42.281250,-3.51,84.63
49610,2018-06-29 09:10:42.312500,0.0,84.63
49611,2018-06-29 09:10:42.343750,3.3,84.63
49612,2018-06-29 09:10:42.375000,6.23,84.63
49613,2018-06-29 09:10:42.406250,7.65,84.63
49614,2018-06-29 09:10:42.437500,7.95,84.63
49615,2018-06-29 09:10:42.468750,8.28,84.63
49616,2018-06-29 09:10:42.500000,7.99,84.63
49617,2018-06-29 09:10:42.531250,6.46,84.6
49618,2018-06-29 09:10:42.562500,4.04,84.6
49619,2018-06-29 09:10:42.593750,2.56,84.6
49620,2018-06-29 09:10:42.625000,3.1,84.6
49621,2018-06-29 09:10:42.656250,6.28,84.6
49622,2018-06-29 09:10:42.687500,11.1,84.6
49623,2018-06-29 09:10:42.718750,15.64,84.6
49624,2018-06-29 09:10:42.750000,18.17,84.6
49625,2018-06-29 09:10:42.781250,17.11,84.6
49626,2018-06-29 09:10:42.812500,14.59,84.6
49627,2018-06-29 09:10:42.843750,15.1,84.6
49628,2018-06-29 09:10:42.875000,27.17,84.6
49629,2018-06-29 09:10:42.906250,45.56,84.6
49630,2018-06-29 09:10:42.937500,59.67,84.6
49631,2018-06-29 09:10:42.968750,67.0,84.6
49632,2018-06-29 09:10:43.000000,81.32,84.6
49633,2018-06-29 09:10:43.031250,112.7,84.6
49634,2018-06-29 09:10:43.062500,147.47,84.6
49635,2018-06-29 09:10:43.093750,177.4,84.6
49636,2018-06-29 09:10:43.125000,205.42,84.6
49637,2018-06-29 09:10:43.156250,252.1,84.6
49638,2018-06-29 09:10:43.187500,302.83,84.6
49639,2018-06-29 09:10:43.218750,337.84,84.6
49640,2018-06-29 09:10:43.250000,366.07,84.6
49641,2018-06-29 09:10:43.281250,418.8,84.6
49642,2018-06-29 09:10:43.312500,493.54,84.6
49643,2018-06-29 09:10:43.343750,532.49,84.6
49644,2018-06-29 09:10:43.375000,519.48,84.6
49645,2018-06-29 09:10:43.406250,348.37,84.6
49646,2018-06-29 09:10:43.437500,15.91,84.6
49647,2018-06-29 09:10:43.468750,-245.37,84.6
49648,2018-06-29 09:10:43.500000,-358.85,84.6
49649,2018-06-29 09:10:43.531250,-382.59,84.57
49650,2018-06-29 09:10:43.562500,-355.1,84.57
49651,2018-06-29 09:10:43.593750,-294.31,84.57
49652,2018-06-29 09:10:43.625000,-241.22,84.57
49653,2018-06-29 09:10:43.656250,-210.84,84.57
49654,2018-06-29 09:10:43.687500,-196.62,84.57
49655,2018-06-29 09:10:43.718750,-175.01,84.57
49656,2018-06-29 09:10:43.750000,-157.68,84.57
49657,2018-06-29 09:10:43.781250,-170.11,84.57
49658,2018-06-29 09:10:43.812500,-209.33,84.57
49659,2018-06-29 09:10:43.843750,-249.41,84.57
49660,2018-06-29 09:10:43.875000,-273.61,84.57
49661,2018-06-29 09:10:43.906250,-290.17,84.57
49662,2018-06-29 09:10:43.937500,-299.51,84.57
49663,2018-06-29 09:10:43.968750,-294.47,84.57
49664,2018-06-29 09:10:44.000000,-269.34,84.57
49665,2018-06-29 09:10:44.031250,-234.41,84.57
49666,2018-06-29 09:10:44.062500,-202.38,84.57
49667,2018-06-29 09:10:44.093750,-176.02,84.57
49668,2018-06-29 09:10:44.125000,-153.24,84.57
49669,2018-06-29 09:10:44.156250,-128.83,84.57
49670,2018-06-29 09:10:44.187500,-99.31,84.57
49671,2018-06-29 09:10:44.218750,-64.02,84.57
49672,2018-06-29 09:10:44.250000,-29.22,84.57
49673,2018-06-29 09:10:44.281250,-3.51,84.57
49674,2018-06-29 09:10:44.312500,11.55,84.57
49675,2018-06-29 09:10:44.343750,21.21,84.57
49676,2018-06-29 09:10:44.375000,29.7,84.57
49677,2018-06-29 09:10:44.406250,35.62,84.57
49678,2018-06-29 09:10:44.437500,36.41,84.57
49679,2018-06-29 09:10:44.468750,32.94,84.57
49680,2018-06-29 09:10:44.500000,28.49,84.57
49681,2018-06-29 09:10:44.531250,25.76,84.55
49682,2018-06-29 09:10:44.562500,26.87,84.55
49683,2018-06-29 09:10:44.593750,33.01,84.55
49684,2018-06-29 09:10:44.625000,41.02,84.55
49685,2018-06-29 09:10:44.656250,44.28,84.55
49686,2018-06-29 09:10:44.687500,39.8,84.55
49687,2018-06-29 09:10:44.718750,31.14,84.55
49688,2018-06-29 09:10:44.750000,23.49,84.55
49689,2018-06-29 09:10:44.781250,19.61,84.55
49690,2018-06-29 09:10:44.812500,20.12,84.55
49691,2018-06-29 09:10:44.843750,23.57,84.55
49692,2018-06-29 09:10:44.875000,26.47,84.55
49693,2018-06-29 09:10:44.906250,25.99,84.55
49694,2018-06-29 09:10:44.937500,22.03,84.55
49695,2018-06-29 09:10:44.968750,15.6,84.55
49696,2018-06-29 09:10:45.000000,7.8,84.55
49697,2018-06-29 09:10:45.031250,1.0,84.55
49698,2018-06-29 09:10:45.062500,-2.2,84.55
49699,2018-06-29 09:10:45.093750,-1.77,84.55
49700,2018-06-29 09:10:45.125000,0.18,84.55
49701,2018-06-29 09:10:45.156250,1.8,84.55
49702,2018-06-29 09:10:45.187500,2.36,84.55
49703,2018-06-29 09:10:45.218750,1.53,84.55
49704,2018-06-29 09:10:45.250000,-2.12,84.55
49705,2018-06-29 09:10:45.281250,-10.34,84.55
49706,2018-06-29 09:10:45.312500,-21.11,84.55
49707,2018-06-29 09:10:45.343750,-27.71,84.55
49708,2018-06-29 09:10:45.375000,-24.87,84.55
49709,2018-06-29 09:10:45.406250,-14.12,84.55
49710,2018-06-29 09:10:45.437500,-1.8,84.55
49711,2018-06-29 09:10:45.468750,6.99,84.55
49712,2018-06-29 09:10:45.500000,12.6,84.55
49713,2018-06-29 09:10:45.531250,18.85,84.53
49714,2018-06-29 09:10:45.562500,28.28,84.53
49715,2018-06-29 09:10:45.593750,39.7,84.53
49716,2018-06-29 09:10:45.625000,50.94,84.53
49717,2018-06-29 09:10:45.656250,62.09,84.53
49718,2018-06-29 09:10:45.687500,75.47,84.53
49719,2018-06-29 09:10:45.718750,89.61,84.53
49720,2018-06-29 09:10:45.750000,94.58,84.53
49721,2018-06-29 09:10:45.781250,82.21,84.53
49722,2018-06-29 09:10:45.812500,59.23,84.53
49723,2018-06-29 09:10:45.843750,42.29,84.53
49724,2018-06-29 09:10:45.875000,34.34,84.53
49725,2018-06-29 09:10:45.906250,24.37,84.53
49726,2018-06-29 09:10:45.937500,6.64,84.53
49727,2018-06-29 09:10:45.968750,-11.94,84.53
49728,2018-06-29 09:10:46.000000,-25.61,84.53
49729,2018-06-29 09:10:46.031250,-39.65,84.53
49730,2018-06-29 09:10:46.062500,-53.48,84.53
49731,2018-06-29 09:10:46.093750,-56.58,84.53
49732,2018-06-29 09:10:46.125000,-37.27,84.53
49733,2018-06-29 09:10:46.156250,-5.94,84.53
49734,2018-06-29 09:10:46.187500,20.08,84.53
49735,2018-06-29 09:10:46.218750,39.47,84.53
49736,2018-06-29 09:10:46.250000,65.94,84.53
49737,2018-06-29 09:10:46.281250,108.08,84.53
49738,2018-06-29 09:10:46.312500,152.11,84.53
49739,2018-06-29 09:10:46.343750,182.09,84.53
49740,2018-06-29 09:10:46.375000,150.3,84.53
49741,2018-06-29 09:10:46.406250,46.31,84.53
49742,2018-06-29 09:10:46.437500,-43.1,84.53
49743,2018-06-29 09:10:46.468750,-81.64,84.53
49744,2018-06-29 09:10:46.500000,-89.81,84.53
49745,2018-06-29 09:10:46.531250,-82.06,84.38
49746,2018-06-29 09:10:46.562500,-64.51,84.38
49747,2018-06-29 09:10:46.593750,-53.23,84.38
49748,2018-06-29 09:10:46.625000,-51.82,84.38
49749,2018-06-29 09:10:46.656250,-50.52,84.38
49750,2018-06-29 09:10:46.687500,-39.23,84.38
49751,2018-06-29 09:10:46.718750,-26.71,84.38
49752,2018-06-29 09:10:46.750000,-24.23,84.38
49753,2018-06-29 09:10:46.781250,-24.95,84.38
49754,2018-06-29 09:10:46.812500,-12.07,84.38
49755,2018-06-29 09:10:46.843750,15.45,84.38
49756,2018-06-29 09:10:46.875000,35.37,84.38
49757,2018-06-29 09:10:46.906250,32.8,84.38
49758,2018-06-29 09:10:46.937500,16.07,84.38
49759,2018-06-29 09:10:46.968750,1.11,84.38
49760,2018-06-29 09:10:47.000000,-9.47,84.38
49761,2018-06-29 09:10:47.031250,-19.19,84.38
49762,2018-06-29 09:10:47.062500,-24.17,84.38
49763,2018-06-29 09:10:47.093750,-16.96,84.38
49764,2018-06-29 09:10:47.125000,-0.34,84.38
49765,2018-06-29 09:10:47.156250,15.78,84.38
49766,2018-06-29 09:10:47.187500,25.2,84.38
49767,2018-06-29 09:10:47.218750,29.79,84.38
49768,2018-06-29 09:10:47.250000,28.73,84.38
49769,2018-06-29 09:10:47.281250,18.24,84.38
49770,2018-06-29 09:10:47.312500,1.11,84.38
49771,2018-06-29 09:10:47.343750,-16.8,84.38
49772,2018-06-29 09:10:47.375000,-28.36,84.38
49773,2018-06-29 09:10:47.406250,-35.74,84.38
49774,2018-06-29 09:10:47.437500,-43.05,84.38
49775,2018-06-29 09:10:47.468750,-53.24,84.38
49776,2018-06-29 09:10:47.500000,-63.91,84.38
49777,2018-06-29 09:10:47.531250,-72.55,84.18
49778,2018-06-29 09:10:47.562500,-78.07,84.18
49779,2018-06-29 09:10:47.593750,-79.71,84.18
49780,2018-06-29 09:10:47.625000,-82.49,84.18
49781,2018-06-29 09:10:47.656250,-67.08,84.18
49782,2018-06-29 09:10:47.687500,-30.99,84.18
49783,2018-06-29 09:10:47.718750,-2.53,84.18
49784,2018-06-29 09:10:47.750000,6.7,84.18
49785,2018-06-29 09:10:47.781250,2.05,84.18
49786,2018-06-29 09:10:47.812500,-9.08,84.18
49787,2018-06-29 09:10:47.843750,-24.03,84.18
49788,2018-06-29 09:10:47.875000,-37.71,84.18
49789,2018-06-29 09:10:47.906250,-47.92,84.18
49790,2018-06-29 09:10:47.937500,-49.48,84.18
49791,2018-06-29 09:10:47.968750,-46.13,84.18
49792,2018-06-29 09:10:48.000000,-30.06,84.18
49793,2018-06-29 09:10:48.031250,9.19,84.18
49794,2018-06-29 09:10:48.062500,51.17,84.18
49795,2018-06-29 09:10:48.093750,81.42,84.18
49796,2018-06-29 09:10:48.125000,103.99,84.18
49797,2018-06-29 09:10:48.156250,113.76,84.18
49798,2018-06-29 09:10:48.187500,101.0,84.18
49799,2018-06-29 09:10:48.218750,86.8,84.18
49800,2018-06-29 09:10:48.250000,88.88,84.18
49801,2018-06-29 09:10:48.281250,100.79,84.18
49802,2018-06-29 09:10:48.312500,100.14,84.18
49803,2018-06-29 09:10:48.343750,79.04,84.18
49804,2018-06-29 09:10:48.375000,49.6,84.18
49805,2018-06-29 09:10:48.406250,27.51,84.18
49806,2018-06-29 09:10:48.437500,19.74,84.18
49807,2018-06-29 09:10:48.468750,20.46,84.18
49808,2018-06-29 09:10:48.500000,2.39,84.18
49809,2018-06-29 09:10:48.531250,-39.88,83.93
49810,2018-06-29 09:10:48.562500,-81.27,83.93
49811,2018-06-29 09:10:48.593750,-104.57,83.93
49812,2018-06-29 09:10:48.625000,-109.87,83.93
49813,2018-06-29 09:10:48.656250,-98.86,83.93
49814,2018-06-29 09:10:48.687500,-76.76,83.93
49815,2018-06-29 09:10:48.718750,-63.55,83.93
49816,2018-06-29 09:10:48.750000,-72.61,83.93
49817,2018-06-29 09:10:48.781250,-85.41,83.93
49818,2018-06-29 09:10:48.812500,-73.15,83.93
49819,2018-06-29 09:10:48.843750,-32.7,83.93
49820,2018-06-29 09:10:48.875000,18.16,83.93
49821,2018-06-29 09:10:48.906250,67.46,83.93
49822,2018-06-29 09:10:48.937500,110.14,83.93
49823,2018-06-29 09:10:48.968750,137.66,83.93
49824,2018-06-29 09:10:49.000000,146.67,83.93
49825,2018-06-29 09:10:49.031250,139.68,83.93
49826,2018-06-29 09:10:49.062500,123.4,83.93
49827,2018-06-29 09:10:49.093750,100.14,83.93
49828,2018-06-29 09:10:49.125000,66.41,83.93
49829,2018-06-29 09:10:49.156250,22.34,83.93
49830,2018-06-29 09:10:49.187500,-22.81,83.93
49831,2018-06-29 09:10:49.218750,-70.88,83.93
49832,2018-06-29 09:10:49.250000,-108.69,83.93
49833,2018-06-29 09:10:49.281250,-127.05,83.93
49834,2018-06-29 09:10:49.312500,-127.57,83.93
49835,2018-06-29 09:10:49.343750,-120.23,83.93
49836,2018-06-29 09:10:49.375000,-113.5,83.93
49837,2018-06-29 09:10:49.406250,-111.06,83.93
49838,2018-06-29 09:10:49.437500,-110.73,83.93
49839,2018-06-29 09:10:49.468750,-108.2,83.93
49840,2018-06-29 09:10:49.500000,-96.18,83.93
49841,2018-06-29 09:10:49.531250,-68.73,83.67
49842,2018-06-29 09:10:49.562500,-30.01,83.67
49843,2018-06-29 09:10:49.593750,5.86,83.67
49844,2018-06-29 09:10:49.625000,31.17,83.67
49845,2018-06-29 09:10:49.656250,50.94,83.67
49846,2018-06-29 09:10:49.687500,68.1,83.67
49847,2018-06-29 09:10:49.718750,88.69,83.67
49848,2018-06-29 09:10:49.750000,111.84,83.67
49849,2018-06-29 09:10:49.781250,125.51,83.67
49850,2018-06-29 09:10:49.812500,116.49,83.67
49851,2018-06-29 09:10:49.843750,87.85,83.67
49852,2018-06-29 09:10:49.875000,54.6,83.67
49853,2018-06-29 09:10:49.906250,28.08,83.67
49854,2018-06-29 09:10:49.937500,12.12,83.67
49855,2018-06-29 09:10:49.968750,10.87,83.67
49856,2018-06-29 09:10:50.000000,21.06,83.67
49857,2018-06-29 09:10:50.031250,26.73,83.67
49858,2018-06-29 09:10:50.062500,15.69,83.67
49859,2018-06-29 09:10:50.093750,-6.32,83.67
49860,2018-06-29 09:10:50.125000,-26.43,83.67
49861,2018-06-29 09:10:50.156250,-43.48,83.67
49862,2018-06-29 09:10:50.187500,-57.4,83.67
49863,2018-06-29 09:10:50.218750,-62.06,83.67
49864,2018-06-29 09:10:50.250000,-52.79,83.67
49865,2018-06-29 09:10:50.281250,-35.64,83.67
49866,2018-06-29 09:10:50.312500,-22.98,83.67
49867,2018-06-29 09:10:50.343750,-27.5,83.67
49868,2018-06-29 09:10:50.375000,-52.49,83.67
49869,2018-06-29 09:10:50.406250,-57.59,83.67
49870,2018-06-29 09:10:50.437500,-11.79,83.67
49871,2018-06-29 09:10:50.468750,46.35,83.67
49872,2018-06-29 09:10:50.500000,76.03,83.67
49873,2018-06-29 09:10:50.531250,83.0,83.33
49874,2018-06-29 09:10:50.562500,76.12,83.33
49875,2018-06-29 09:10:50.593750,50.03,83.33
49876,2018-06-29 09:10:50.625000,27.04,83.33
49877,2018-06-29 09:10:50.656250,37.47,83.33
49878,2018-06-29 09:10:50.687500,75.29,83.33
49879,2018-06-29 09:10:50.718750,96.87,83.33
49880,2018-06-29 09:10:50.750000,81.16,83.33
49881,2018-06-29 09:10:50.781250,45.79,83.33
49882,2018-06-29 09:10:50.812500,14.14,83.33
49883,2018-06-29 09:10:50.843750,-9.42,83.33
49884,2018-06-29 09:10:50.875000,-26.14,83.33
49885,2018-06-29 09:10:50.906250,-41.93,83.33
49886,2018-06-29 09:10:50.937500,-68.9,83.33
49887,2018-06-29 09:10:50.968750,-86.34,83.33
49888,2018-06-29 09:10:51.000000,-73.1,83.33
49889,2018-06-29 09:10:51.031250,-40.13,83.33
49890,2018-06-29 09:10:51.062500,-12.19,83.33
49891,2018-06-29 09:10:51.093750,1.88,83.33
49892,2018-06-29 09:10:51.125000,8.85,83.33
49893,2018-06-29 09:10:51.156250,10.31,83.33
49894,2018-06-29 09:10:51.187500,4.79,83.33
49895,2018-06-29 09:10:51.218750,-6.26,83.33
49896,2018-06-29 09:10:51.250000,-14.55,83.33
49897,2018-06-29 09:10:51.281250,-16.2,83.33
49898,2018-06-29 09:10:51.312500,-15.84,83.33
49899,2018-06-29 09:10:51.343750,-7.57,83.33
49900,2018-06-29 09:10:51.375000,-2.85,83.33
49901,2018-06-29 09:10:51.406250,-14.1,83.33
49902,2018-06-29 09:10:51.437500,-31.58,83.33
49903,2018-06-29 09:10:51.468750,-51.29,83.33
49904,2018-06-29 09:10:51.500000,-66.93,83.33
49905,2018-06-29 09:10:51.531250,-72.6,83.03
49906,2018-06-29 09:10:51.562500,-75.2,83.03
49907,2018-06-29 09:10:51.593750,-80.43,83.03
49908,2018-06-29 09:10:51.625000,-88.77,83.03
49909,2018-06-29 09:10:51.656250,-96.16,83.03
49910,2018-06-29 09:10:51.687500,-92.64,83.03
49911,2018-06-29 09:10:51.718750,-72.72,83.03
49912,2018-06-29 09:10:51.750000,-40.84,83.03
49913,2018-06-29 09:10:51.781250,-7.12,83.03
49914,2018-06-29 09:10:51.812500,19.53,83.03
49915,2018-06-29 09:10:51.843750,35.24,83.03
49916,2018-06-29 09:10:51.875000,39.65,83.03
49917,2018-06-29 09:10:51.906250,34.69,83.03
49918,2018-06-29 09:10:51.937500,25.91,83.03
49919,2018-06-29 09:10:51.968750,20.06,83.03
49920,2018-06-29 09:10:52.000000,19.18,83.03
49921,2018-06-29 09:10:52.031250,19.4,83.03
49922,2018-06-29 09:10:52.062500,17.6,83.03
49923,2018-06-29 09:10:52.093750,13.77,83.03
49924,2018-06-29 09:10:52.125000,7.64,83.03
49925,2018-06-29 09:10:52.156250,-1.62,83.03
49926,2018-06-29 09:10:52.187500,-11.95,83.03
49927,2018-06-29 09:10:52.218750,-19.21,83.03
49928,2018-06-29 09:10:52.250000,-23.12,83.03
49929,2018-06-29 09:10:52.281250,-28.67,83.03
49930,2018-06-29 09:10:52.312500,-40.34,83.03
49931,2018-06-29 09:10:52.343750,-55.48,83.03
49932,2018-06-29 09:10:52.375000,-64.13,83.03
49933,2018-06-29 09:10:52.406250,-57.49,83.03
49934,2018-06-29 09:10:52.437500,-37.08,83.03
49935,2018-06-29 09:10:52.468750,-12.87,83.03
49936,2018-06-29 09:10:52.500000,7.04,83.03
49937,2018-06-29 09:10:52.531250,20.51,82.77
49938,2018-06-29 09:10:52.562500,26.92,82.77
49939,2018-06-29 09:10:52.593750,25.99,82.77
49940,2018-06-29 09:10:52.625000,21.2,82.77
49941,2018-06-29 09:10:52.656250,17.69,82.77
49942,2018-06-29 09:10:52.687500,16.59,82.77
49943,2018-06-29 09:10:52.718750,15.39,82.77
49944,2018-06-29 09:10:52.750000,12.9,82.77
49945,2018-06-29 09:10:52.781250,9.39,82.77
49946,2018-06-29 09:10:52.812500,3.65,82.77
49947,2018-06-29 09:10:52.843750,-5.64,82.77
49948,2018-06-29 09:10:52.875000,-15.9,82.77
49949,2018-06-29 09:10:52.906250,-22.99,82.77
49950,2018-06-29 09:10:52.937500,-27.6,82.77
49951,2018-06-29 09:10:52.968750,-34.66,82.77
49952,2018-06-29 09:10:53.000000,-46.2,82.77
49953,2018-06-29 09:10:53.031250,-58.89,82.77
49954,2018-06-29 09:10:53.062500,-67.09,82.77
49955,2018-06-29 09:10:53.093750,-65.35,82.77
49956,2018-06-29 09:10:53.125000,-50.87,82.77
49957,2018-06-29 09:10:53.156250,-26.44,82.77
49958,2018-06-29 09:10:53.187500,1.43,82.77
49959,2018-06-29 09:10:53.218750,28.2,82.77
49960,2018-06-29 09:10:53.250000,50.59,82.77
49961,2018-06-29 09:10:53.281250,64.29,82.77
49962,2018-06-29 09:10:53.312500,71.46,82.77
49963,2018-06-29 09:10:53.343750,82.94,82.77
49964,2018-06-29 09:10:53.375000,99.94,82.77
49965,2018-06-29 09:10:53.406250,107.19,82.77
49966,2018-06-29 09:10:53.437500,96.46,82.77
49967,2018-06-29 09:10:53.468750,78.16,82.77
49968,2018-06-29 09:10:53.500000,60.68,82.77
49969,2018-06-29 09:10:53.531250,38.7,82.38
49970,2018-06-29 09:10:53.562500,8.14,82.38
49971,2018-06-29 09:10:53.593750,-23.95,82.38
49972,2018-06-29 09:10:53.625000,-48.59,82.38
49973,2018-06-29 09:10:53.656250,-64.76,82.38
49974,2018-06-29 09:10:53.687500,-77.09,82.38
49975,2018-06-29 09:10:53.718750,-88.15,82.38
49976,2018-06-29 09:10:53.750000,-96.18,82.38
49977,2018-06-29 09:10:53.781250,-97.18,82.38
49978,2018-06-29 09:10:53.812500,-87.43,82.38
49979,2018-06-29 09:10:53.843750,-67.1,82.38
49980,2018-06-29 09:10:53.875000,-41.78,82.38
49981,2018-06-29 09:10:53.906250,-17.84,82.38
49982,2018-06-29 09:10:53.937500,2.52,82.38
49983,2018-06-29 09:10:53.968750,19.77,82.38
49984,2018-06-29 09:10:54.000000,33.54,82.38
49985,2018-06-29 09:10:54.031250,42.74,82.38
49986,2018-06-29 09:10:54.062500,47.61,82.38
49987,2018-06-29 09:10:54.093750,49.72,82.38
49988,2018-06-29 09:10:54.125000,50.05,82.38
49989,2018-06-29 09:10:54.156250,48.53,82.38
49990,2018-06-29 09:10:54.187500,46.17,82.38
49991,2018-06-29 09:10:54.218750,45.18,82.38
49992,2018-06-29 09:10:54.250000,44.9,82.38
49993,2018-06-29 09:10:54.281250,41.96,82.38
49994,2018-06-29 09:10:54.312500,36.05,82.38
49995,2018-06-29 09:10:54.343750,30.81,82.38
49996,2018-06-29 09:10:54.375000,28.41,82.38
49997,2018-06-29 09:10:54.406250,26.44,82.38
49998,2018-06-29 09:10:54.437500,20.96,82.38
49999,2018-06-29 09:10:54.468750,13.0,82.38
50000,2018-06-29 09:10:54.500000,6.38,82.38
50001,2018-06-29 09:10:54.531250,6.1,82.05
50002,2018-06-29 09:10:54.562500,13.85,82.05
50003,2018-06-29 09:10:54.593750,26.75,82.05
50004,2018-06-29 09:10:54.625000,40.56,82.05
50005,2018-06-29 09:10:54.656250,55.43,82.05
50006,2018-06-29 09:10:54.687500,72.88,82.05
50007,2018-06-29 09:10:54.718750,87.31,82.05
50008,2018-06-29 09:10:54.750000,97.21,82.05
50009,2018-06-29 09:10:54.781250,110.21,82.05
50010,2018-06-29 09:10:54.812500,141.04,82.05
50011,2018-06-29 09:10:54.843750,182.91,82.05
50012,2018-06-29 09:10:54.875000,218.54,82.05
50013,2018-06-29 09:10:54.906250,245.36,82.05
50014,2018-06-29 09:10:54.937500,277.93,82.05
50015,2018-06-29 09:10:54.968750,318.51,82.05
50016,2018-06-29 09:10:55.000000,329.5,82.05
50017,2018-06-29 09:10:55.031250,300.07,82.05
50018,2018-06-29 09:10:55.062500,252.68,82.05
50019,2018-06-29 09:10:55.093750,231.71,82.05
50020,2018-06-29 09:10:55.125000,225.05,82.05
50021,2018-06-29 09:10:55.156250,204.41,82.05
50022,2018-06-29 09:10:55.187500,182.82,82.05
50023,2018-06-29 09:10:55.218750,197.52,82.05
50024,2018-06-29 09:10:55.250000,266.02,82.05
50025,2018-06-29 09:10:55.281250,336.57,82.05
50026,2018-06-29 09:10:55.312500,389.63,82.05
50027,2018-06-29 09:10:55.343750,279.1,82.05
50028,2018-06-29 09:10:55.375000,-29.46,82.05
50029,2018-06-29 09:10:55.406250,-230.03,82.05
50030,2018-06-29 09:10:55.437500,-313.64,82.05
50031,2018-06-29 09:10:55.468750,-358.81,82.05
50032,2018-06-29 09:10:55.500000,-365.96,82.05
50033,2018-06-29 09:10:55.531250,-328.09,81.67
50034,2018-06-29 09:10:55.562500,-302.61,81.67
50035,2018-06-29 09:10:55.593750,-302.44,81.67
50036,2018-06-29 09:10:55.625000,-308.5,81.67
50037,2018-06-29 09:10:55.656250,-287.14,81.67
50038,2018-06-29 09:10:55.687500,-259.28,81.67
50039,2018-06-29 09:10:55.718750,-260.32,81.67
50040,2018-06-29 09:10:55.750000,-276.71,81.67
50041,2018-06-29 09:10:55.781250,-275.09,81.67
50042,2018-06-29 09:10:55.812500,-243.37,81.67
50043,2018-06-29 09:10:55.843750,-214.58,81.67
50044,2018-06-29 09:10:55.875000,-196.97,81.67
50045,2018-06-29 09:10:55.906250,-177.52,81.67
50046,2018-06-29 09:10:55.937500,-146.94,81.67
50047,2018-06-29 09:10:55.968750,-121.66,81.67
50048,2018-06-29 09:10:56.000000,-116.8,81.67
50049,2018-06-29 09:10:56.031250,-121.02,81.67
50050,2018-06-29 09:10:56.062500,-111.06,81.67
50051,2018-06-29 09:10:56.093750,-68.06,81.67
50052,2018-06-29 09:10:56.125000,-5.3,81.67
50053,2018-06-29 09:10:56.156250,41.18,81.67
50054,2018-06-29 09:10:56.187500,59.22,81.67
50055,2018-06-29 09:10:56.218750,67.24,81.67
50056,2018-06-29 09:10:56.250000,80.72,81.67
50057,2018-06-29 09:10:56.281250,91.7,81.67
50058,2018-06-29 09:10:56.312500,95.15,81.67
50059,2018-06-29 09:10:56.343750,97.12,81.67
50060,2018-06-29 09:10:56.375000,97.67,81.67
50061,2018-06-29 09:10:56.406250,90.08,81.67
50062,2018-06-29 09:10:56.437500,72.26,81.67
50063,2018-06-29 09:10:56.468750,42.99,81.67
50064,2018-06-29 09:10:56.500000,2.99,81.67
50065,2018-06-29 09:10:56.531250,-39.0,81.28
50066,2018-06-29 09:10:56.562500,-61.72,81.28
50067,2018-06-29 09:10:56.593750,-53.01,81.28
50068,2018-06-29 09:10:56.625000,-42.72,81.28
50069,2018-06-29 09:10:56.656250,-48.29,81.28
50070,2018-06-29 09:10:56.687500,-57.98,81.28
50071,2018-06-29 09:10:56.718750,-60.07,81.28
50072,2018-06-29 09:10:56.750000,-60.31,81.28
50073,2018-06-29 09:10:56.781250,-58.99,81.28
50074,2018-06-29 09:10:56.812500,-44.85,81.28
50075,2018-06-29 09:10:56.843750,-17.58,81.28
50076,2018-06-29 09:10:56.875000,10.74,81.28
50077,2018-06-29 09:10:56.906250,37.0,81.28
50078,2018-06-29 09:10:56.937500,62.42,81.28
50079,2018-06-29 09:10:56.968750,73.55,81.28
50080,2018-06-29 09:10:57.000000,61.74,81.28
50081,2018-06-29 09:10:57.031250,43.35,81.28
50082,2018-06-29 09:10:57.062500,37.03,81.28
50083,2018-06-29 09:10:57.093750,36.86,81.28
50084,2018-06-29 09:10:57.125000,34.64,81.28
50085,2018-06-29 09:10:57.156250,33.93,81.28
50086,2018-06-29 09:10:57.187500,36.52,81.28
50087,2018-06-29 09:10:57.218750,37.41,81.28
50088,2018-06-29 09:10:57.250000,29.32,81.28
50089,2018-06-29 09:10:57.281250,10.12,81.28
50090,2018-06-29 09:10:57.312500,-1.22,81.28
50091,2018-06-29 09:10:57.343750,15.9,81.28
50092,2018-06-29 09:10:57.375000,35.12,81.28
50093,2018-06-29 09:10:57.406250,12.36,81.28
50094,2018-06-29 09:10:57.437500,-40.52,81.28
50095,2018-06-29 09:10:57.468750,-78.99,81.28
50096,2018-06-29 09:10:57.500000,-85.45,81.28
50097,2018-06-29 09:10:57.531250,-57.4,80.9
50098,2018-06-29 09:10:57.562500,3.12,80.9
50099,2018-06-29 09:10:57.593750,58.35,80.9
50100,2018-06-29 09:10:57.625000,63.22,80.9
50101,2018-06-29 09:10:57.656250,37.88,80.9
50102,2018-06-29 09:10:57.687500,20.54,80.9
50103,2018-06-29 09:10:57.718750,5.2,80.9
50104,2018-06-29 09:10:57.750000,-28.12,80.9
50105,2018-06-29 09:10:57.781250,-66.35,80.9
50106,2018-06-29 09:10:57.812500,-85.9,80.9
50107,2018-06-29 09:10:57.843750,-86.87,80.9
50108,2018-06-29 09:10:57.875000,-82.83,80.9
50109,2018-06-29 09:10:57.906250,-75.55,80.9
50110,2018-06-29 09:10:57.937500,-61.49,80.9
50111,2018-06-29 09:10:57.968750,-48.69,80.9
50112,2018-06-29 09:10:58.000000,-39.46,80.9
50113,2018-06-29 09:10:58.031250,-26.42,80.9
50114,2018-06-29 09:10:58.062500,-8.67,80.9
50115,2018-06-29 09:10:58.093750,1.63,80.9
50116,2018-06-29 09:10:58.125000,-3.73,80.9
50117,2018-06-29 09:10:58.156250,-14.92,80.9
50118,2018-06-29 09:10:58.187500,-25.0,80.9
50119,2018-06-29 09:10:58.218750,-32.95,80.9
50120,2018-06-29 09:10:58.250000,-44.51,80.9
50121,2018-06-29 09:10:58.281250,-57.18,80.9
50122,2018-06-29 09:10:58.312500,-68.11,80.9
50123,2018-06-29 09:10:58.343750,-75.21,80.9
50124,2018-06-29 09:10:58.375000,-74.95,80.9
50125,2018-06-29 09:10:58.406250,-69.3,80.9
50126,2018-06-29 09:10:58.437500,-54.68,80.9
50127,2018-06-29 09:10:58.468750,-35.89,80.9
50128,2018-06-29 09:10:58.500000,-0.27,80.9
50129,2018-06-29 09:10:58.531250,46.52,80.5
50130,2018-06-29 09:10:58.562500,69.66,80.5
50131,2018-06-29 09:10:58.593750,110.77,80.5
50132,2018-06-29 09:10:58.625000,161.08,80.5
50133,2018-06-29 09:10:58.656250,203.99,80.5
50134,2018-06-29 09:10:58.687500,215.25,80.5
50135,2018-06-29 09:10:58.718750,202.56,80.5
50136,2018-06-29 09:10:58.750000,180.72,80.5
50137,2018-06-29 09:10:58.781250,176.52,80.5
50138,2018-06-29 09:10:58.812500,182.37,80.5
50139,2018-06-29 09:10:58.843750,187.41,80.5
50140,2018-06-29 09:10:58.875000,172.46,80.5
50141,2018-06-29 09:10:58.906250,72.89,80.5
50142,2018-06-29 09:10:58.937500,-32.91,80.5
50143,2018-06-29 09:10:58.968750,-87.31,80.5
50144,2018-06-29 09:10:59.000000,-104.43,80.5
50145,2018-06-29 09:10:59.031250,-104.77,80.5
50146,2018-06-29 09:10:59.062500,-91.86,80.5
50147,2018-06-29 09:10:59.093750,-76.87,80.5
50148,2018-06-29 09:10:59.125000,-63.94,80.5
50149,2018-06-29 09:10:59.156250,-56.61,80.5
50150,2018-06-29 09:10:59.187500,-46.54,80.5
50151,2018-06-29 09:10:59.218750,-27.25,80.5
50152,2018-06-29 09:10:59.250000,-7.11,80.5
50153,2018-06-29 09:10:59.281250,10.9,80.5
50154,2018-06-29 09:10:59.312500,27.23,80.5
50155,2018-06-29 09:10:59.343750,49.89,80.5
50156,2018-06-29 09:10:59.375000,73.23,80.5
50157,2018-06-29 09:10:59.406250,83.27,80.5
50158,2018-06-29 09:10:59.437500,73.58,80.5
50159,2018-06-29 09:10:59.468750,44.49,80.5
50160,2018-06-29 09:10:59.500000,4.42,80.5
50161,2018-06-29 09:10:59.531250,-41.31,80.12
50162,2018-06-29 09:10:59.562500,-80.9,80.12
50163,2018-06-29 09:10:59.593750,-105.39,80.12
50164,2018-06-29 09:10:59.625000,-112.33,80.12
50165,2018-06-29 09:10:59.656250,-107.56,80.12
50166,2018-06-29 09:10:59.687500,-102.38,80.12
50167,2018-06-29 09:10:59.718750,-94.49,80.12
50168,2018-06-29 09:10:59.750000,-69.62,80.12
50169,2018-06-29 09:10:59.781250,-0.52,80.12
50170,2018-06-29 09:10:59.812500,101.74,80.12
50171,2018-06-29 09:10:59.843750,190.11,80.12
50172,2018-06-29 09:10:59.875000,207.95,80.12
50173,2018-06-29 09:10:59.906250,97.79,80.12
50174,2018-06-29 09:10:59.937500,-40.2,80.12
50175,2018-06-29 09:10:59.968750,-121.03,80.12
50176,2018-06-29 09:11:00.000000,-142.54,80.12
50177,2018-06-29 09:11:00.031250,-129.33,80.12
50178,2018-06-29 09:11:00.062500,-100.91,80.12
50179,2018-06-29 09:11:00.093750,-76.93,80.12
50180,2018-06-29 09:11:00.125000,-63.42,80.12
50181,2018-06-29 09:11:00.156250,-53.17,80.12
50182,2018-06-29 09:11:00.187500,-39.86,80.12
50183,2018-06-29 09:11:00.218750,-20.85,80.12
50184,2018-06-29 09:11:00.250000,-1.1,80.12
50185,2018-06-29 09:11:00.281250,19.41,80.12
50186,2018-06-29 09:11:00.312500,42.31,80.12
50187,2018-06-29 09:11:00.343750,67.86,80.12
50188,2018-06-29 09:11:00.375000,84.22,80.12
50189,2018-06-29 09:11:00.406250,85.17,80.12
50190,2018-06-29 09:11:00.437500,66.23,80.12
50191,2018-06-29 09:11:00.468750,32.78,80.12
50192,2018-06-29 09:11:00.500000,1.4,80.12
50193,2018-06-29 09:11:00.531250,-16.5,79.77
50194,2018-06-29 09:11:00.562500,-23.77,79.77
50195,2018-06-29 09:11:00.593750,-26.93,79.77
50196,2018-06-29 09:11:00.625000,-25.44,79.77
50197,2018-06-29 09:11:00.656250,-22.44,79.77
50198,2018-06-29 09:11:00.687500,-29.12,79.77
50199,2018-06-29 09:11:00.718750,-51.22,79.77
50200,2018-06-29 09:11:00.750000,-80.44,79.77
50201,2018-06-29 09:11:00.781250,-103.81,79.77
50202,2018-06-29 09:11:00.812500,-111.21,79.77
50203,2018-06-29 09:11:00.843750,-96.51,79.77
50204,2018-06-29 09:11:00.875000,-59.39,79.77
50205,2018-06-29 09:11:00.906250,-9.32,79.77
50206,2018-06-29 09:11:00.937500,36.99,79.77
50207,2018-06-29 09:11:00.968750,65.16,79.77
50208,2018-06-29 09:11:01.000000,74.74,79.77
50209,2018-06-29 09:11:01.031250,77.94,79.77
50210,2018-06-29 09:11:01.062500,81.47,79.77
50211,2018-06-29 09:11:01.093750,80.21,79.77
50212,2018-06-29 09:11:01.125000,73.12,79.77
50213,2018-06-29 09:11:01.156250,68.84,79.77
50214,2018-06-29 09:11:01.187500,72.0,79.77
50215,2018-06-29 09:11:01.218750,82.35,79.77
50216,2018-06-29 09:11:01.250000,101.03,79.77
50217,2018-06-29 09:11:01.281250,121.74,79.77
50218,2018-06-29 09:11:01.312500,128.54,79.77
50219,2018-06-29 09:11:01.343750,114.84,79.77
50220,2018-06-29 09:11:01.375000,92.28,79.77
50221,2018-06-29 09:11:01.406250,73.04,79.77
50222,2018-06-29 09:11:01.437500,57.88,79.77
50223,2018-06-29 09:11:01.468750,41.98,79.77
50224,2018-06-29 09:11:01.500000,22.19,79.77
50225,2018-06-29 09:11:01.531250,-0.77,79.42
50226,2018-06-29 09:11:01.562500,-20.57,79.42
50227,2018-06-29 09:11:01.593750,-27.93,79.42
50228,2018-06-29 09:11:01.625000,-22.13,79.42
50229,2018-06-29 09:11:01.656250,-12.45,79.42
50230,2018-06-29 09:11:01.687500,-11.67,79.42
50231,2018-06-29 09:11:01.718750,-25.98,79.42
50232,2018-06-29 09:11:01.750000,-51.99,79.42
50233,2018-06-29 09:11:01.781250,-76.06,79.42
50234,2018-06-29 09:11:01.812500,-84.34,79.42
50235,2018-06-29 09:11:01.843750,-76.2,79.42
50236,2018-06-29 09:11:01.875000,-59.27,79.42
50237,2018-06-29 09:11:01.906250,-43.96,79.42
50238,2018-06-29 09:11:01.937500,-26.11,79.42
50239,2018-06-29 09:11:01.968750,-8.2,79.42
50240,2018-06-29 09:11:02.000000,-6.87,79.42
50241,2018-06-29 09:11:02.031250,-42.51,79.42
50242,2018-06-29 09:11:02.062500,-106.12,79.42
50243,2018-06-29 09:11:02.093750,-162.34,79.42
50244,2018-06-29 09:11:02.125000,-193.33,79.42
50245,2018-06-29 09:11:02.156250,-201.27,79.42
50246,2018-06-29 09:11:02.187500,-204.26,79.42
50247,2018-06-29 09:11:02.218750,-197.65,79.42
50248,2018-06-29 09:11:02.250000,-179.0,79.42
50249,2018-06-29 09:11:02.281250,-133.98,79.42
50250,2018-06-29 09:11:02.312500,-9.61,79.42
50251,2018-06-29 09:11:02.343750,94.74,79.42
50252,2018-06-29 09:11:02.375000,137.24,79.42
50253,2018-06-29 09:11:02.406250,148.62,79.42
50254,2018-06-29 09:11:02.437500,143.26,79.42
50255,2018-06-29 09:11:02.468750,110.16,79.42
50256,2018-06-29 09:11:02.500000,68.52,79.42
50257,2018-06-29 09:11:02.531250,41.29,79.08
50258,2018-06-29 09:11:02.562500,30.42,79.08
50259,2018-06-29 09:11:02.593750,20.25,79.08
50260,2018-06-29 09:11:02.625000,8.7,79.08
50261,2018-06-29 09:11:02.656250,8.15,79.08
50262,2018-06-29 09:11:02.687500,18.27,79.08
50263,2018-06-29 09:11:02.718750,28.72,79.08
50264,2018-06-29 09:11:02.750000,30.81,79.08
50265,2018-06-29 09:11:02.781250,32.66,79.08
50266,2018-06-29 09:11:02.812500,37.33,79.08
50267,2018-06-29 09:11:02.843750,37.92,79.08
50268,2018-06-29 09:11:02.875000,29.65,79.08
50269,2018-06-29 09:11:02.906250,16.83,79.08
50270,2018-06-29 09:11:02.937500,7.04,79.08
50271,2018-06-29 09:11:02.968750,-1.56,79.08
50272,2018-06-29 09:11:03.000000,-15.14,79.08
50273,2018-06-29 09:11:03.031250,-32.62,79.08
50274,2018-06-29 09:11:03.062500,-47.6,79.08
50275,2018-06-29 09:11:03.093750,-52.22,79.08
50276,2018-06-29 09:11:03.125000,-46.43,79.08
50277,2018-06-29 09:11:03.156250,-37.58,79.08
50278,2018-06-29 09:11:03.187500,-33.89,79.08
50279,2018-06-29 09:11:03.218750,-37.36,79.08
50280,2018-06-29 09:11:03.250000,-43.0,79.08
50281,2018-06-29 09:11:03.281250,-42.46,79.08
50282,2018-06-29 09:11:03.312500,-29.71,79.08
50283,2018-06-29 09:11:03.343750,-9.29,79.08
50284,2018-06-29 09:11:03.375000,10.07,79.08
50285,2018-06-29 09:11:03.406250,25.23,79.08
50286,2018-06-29 09:11:03.437500,39.98,79.08
50287,2018-06-29 09:11:03.468750,59.66,79.08
50288,2018-06-29 09:11:03.500000,76.4,79.08
50289,2018-06-29 09:11:03.531250,82.75,78.92
50290,2018-06-29 09:11:03.562500,80.75,78.92
50291,2018-06-29 09:11:03.593750,74.82,78.92
50292,2018-06-29 09:11:03.625000,66.09,78.92
50293,2018-06-29 09:11:03.656250,53.27,78.92
50294,2018-06-29 09:11:03.687500,38.23,78.92
50295,2018-06-29 09:11:03.718750,20.0,78.92
50296,2018-06-29 09:11:03.750000,0.61,78.92
50297,2018-06-29 09:11:03.781250,-12.19,78.92
50298,2018-06-29 09:11:03.812500,-12.32,78.92
50299,2018-06-29 09:11:03.843750,-1.73,78.92
50300,2018-06-29 09:11:03.875000,10.4,78.92
50301,2018-06-29 09:11:03.906250,13.37,78.92
50302,2018-06-29 09:11:03.937500,4.02,78.92
50303,2018-06-29 09:11:03.968750,-9.94,78.92
50304,2018-06-29 09:11:04.000000,-15.45,78.92
50305,2018-06-29 09:11:04.031250,-7.91,78.92
50306,2018-06-29 09:11:04.062500,-0.04,78.92
50307,2018-06-29 09:11:04.093750,-13.67,78.92
50308,2018-06-29 09:11:04.125000,-58.52,78.92
50309,2018-06-29 09:11:04.156250,-115.37,78.92
50310,2018-06-29 09:11:04.187500,-151.64,78.92
50311,2018-06-29 09:11:04.218750,-156.49,78.92
50312,2018-06-29 09:11:04.250000,-147.66,78.92
50313,2018-06-29 09:11:04.281250,-142.18,78.92
50314,2018-06-29 09:11:04.312500,-140.15,78.92
50315,2018-06-29 09:11:04.343750,-135.32,78.92
50316,2018-06-29 09:11:04.375000,-123.4,78.92
50317,2018-06-29 09:11:04.406250,-99.67,78.92
50318,2018-06-29 09:11:04.437500,-66.05,78.92
50319,2018-06-29 09:11:04.468750,-37.18,78.92
50320,2018-06-29 09:11:04.500000,-25.63,78.92
50321,2018-06-29 09:11:04.531250,-27.44,78.72
50322,2018-06-29 09:11:04.562500,-30.22,78.72
50323,2018-06-29 09:11:04.593750,-28.99,78.72
50324,2018-06-29 09:11:04.625000,-20.75,78.72
50325,2018-06-29 09:11:04.656250,-3.23,78.72
50326,2018-06-29 09:11:04.687500,20.51,78.72
50327,2018-06-29 09:11:04.718750,41.17,78.72
50328,2018-06-29 09:11:04.750000,53.4,78.72
50329,2018-06-29 09:11:04.781250,60.53,78.72
50330,2018-06-29 09:11:04.812500,68.82,78.72
50331,2018-06-29 09:11:04.843750,87.03,78.72
50332,2018-06-29 09:11:04.875000,107.32,78.72
50333,2018-06-29 09:11:04.906250,124.57,78.72
50334,2018-06-29 09:11:04.937500,140.95,78.72
50335,2018-06-29 09:11:04.968750,167.05,78.72
50336,2018-06-29 09:11:05.000000,196.47,78.72
50337,2018-06-29 09:11:05.031250,207.9,78.72
50338,2018-06-29 09:11:05.062500,194.06,78.72
50339,2018-06-29 09:11:05.093750,167.25,78.72
50340,2018-06-29 09:11:05.125000,154.03,78.72
50341,2018-06-29 09:11:05.156250,152.15,78.72
50342,2018-06-29 09:11:05.187500,163.81,78.72
50343,2018-06-29 09:11:05.218750,185.22,78.72
50344,2018-06-29 09:11:05.250000,155.12,78.72
50345,2018-06-29 09:11:05.281250,139.55,78.72
50346,2018-06-29 09:11:05.312500,127.31,78.72
50347,2018-06-29 09:11:05.343750,105.78,78.72
50348,2018-06-29 09:11:05.375000,60.1,78.72
50349,2018-06-29 09:11:05.406250,1.41,78.72
50350,2018-06-29 09:11:05.437500,-62.42,78.72
50351,2018-06-29 09:11:05.468750,-115.26,78.72
50352,2018-06-29 09:11:05.500000,-153.2,78.72
50353,2018-06-29 09:11:05.531250,-172.3,78.47
50354,2018-06-29 09:11:05.562500,-177.52,78.47
50355,2018-06-29 09:11:05.593750,-182.09,78.47
50356,2018-06-29 09:11:05.625000,-187.44,78.47
50357,2018-06-29 09:11:05.656250,-183.33,78.47
50358,2018-06-29 09:11:05.687500,-160.71,78.47
50359,2018-06-29 09:11:05.718750,-134.79,78.47
50360,2018-06-29 09:11:05.750000,-116.21,78.47
50361,2018-06-29 09:11:05.781250,-106.53,78.47
50362,2018-06-29 09:11:05.812500,-101.38,78.47
50363,2018-06-29 09:11:05.843750,-98.55,78.47
50364,2018-06-29 09:11:05.875000,-95.83,78.47
50365,2018-06-29 09:11:05.906250,-89.04,78.47
50366,2018-06-29 09:11:05.937500,-75.7,78.47
50367,2018-06-29 09:11:05.968750,-51.89,78.47
50368,2018-06-29 09:11:06.000000,-13.73,78.47
50369,2018-06-29 09:11:06.031250,39.0,78.47
50370,2018-06-29 09:11:06.062500,98.0,78.47
50371,2018-06-29 09:11:06.093750,151.49,78.47
50372,2018-06-29 09:11:06.125000,189.72,78.47
50373,2018-06-29 09:11:06.156250,206.02,78.47
50374,2018-06-29 09:11:06.187500,197.81,78.47
50375,2018-06-29 09:11:06.218750,170.4,78.47
50376,2018-06-29 09:11:06.250000,139.68,78.47
50377,2018-06-29 09:11:06.281250,123.78,78.47
50378,2018-06-29 09:11:06.312500,128.07,78.47
50379,2018-06-29 09:11:06.343750,143.73,78.47
50380,2018-06-29 09:11:06.375000,156.74,78.47
50381,2018-06-29 09:11:06.406250,154.5,78.47
50382,2018-06-29 09:11:06.437500,132.16,78.47
50383,2018-06-29 09:11:06.468750,100.48,78.47
50384,2018-06-29 09:11:06.500000,77.24,78.47
50385,2018-06-29 09:11:06.531250,69.07,78.37
50386,2018-06-29 09:11:06.562500,68.09,78.37
50387,2018-06-29 09:11:06.593750,63.99,78.37
50388,2018-06-29 09:11:06.625000,51.85,78.37
50389,2018-06-29 09:11:06.656250,26.73,78.37
50390,2018-06-29 09:11:06.687500,-9.48,78.37
50391,2018-06-29 09:11:06.718750,-47.02,78.37
50392,2018-06-29 09:11:06.750000,-78.02,78.37
50393,2018-06-29 09:11:06.781250,-110.04,78.37
50394,2018-06-29 09:11:06.812500,-148.94,78.37
50395,2018-06-29 09:11:06.843750,-181.5,78.37
50396,2018-06-29 09:11:06.875000,-193.35,78.37
50397,2018-06-29 09:11:06.906250,-183.58,78.37
50398,2018-06-29 09:11:06.937500,-166.1,78.37
50399,2018-06-29 09:11:06.968750,-144.43,78.37
50400,2018-06-29 09:11:07.000000,-123.74,78.37
50401,2018-06-29 09:11:07.031250,-113.67,78.37
50402,2018-06-29 09:11:07.062500,-124.4,78.37
50403,2018-06-29 09:11:07.093750,-148.35,78.37
50404,2018-06-29 09:11:07.125000,-162.35,78.37
50405,2018-06-29 09:11:07.156250,-159.66,78.37
50406,2018-06-29 09:11:07.187500,-99.22,78.37
50407,2018-06-29 09:11:07.218750,5.2,78.37
50408,2018-06-29 09:11:07.250000,68.68,78.37
50409,2018-06-29 09:11:07.281250,81.55,78.37
50410,2018-06-29 09:11:07.312500,77.24,78.37
50411,2018-06-29 09:11:07.343750,57.89,78.37
50412,2018-06-29 09:11:07.375000,29.48,78.37
50413,2018-06-29 09:11:07.406250,12.01,78.37
50414,2018-06-29 09:11:07.437500,8.38,78.37
50415,2018-06-29 09:11:07.468750,9.15,78.37
50416,2018-06-29 09:11:07.500000,2.27,78.37
50417,2018-06-29 09:11:07.531250,-5.75,78.22
50418,2018-06-29 09:11:07.562500,-7.94,78.22
50419,2018-06-29 09:11:07.593750,-6.31,78.22
50420,2018-06-29 09:11:07.625000,-8.58,78.22
50421,2018-06-29 09:11:07.656250,-15.44,78.22
50422,2018-06-29 09:11:07.687500,-19.97,78.22
50423,2018-06-29 09:11:07.718750,-20.28,78.22
50424,2018-06-29 09:11:07.750000,-20.41,78.22
50425,2018-06-29 09:11:07.781250,-24.98,78.22
50426,2018-06-29 09:11:07.812500,-31.18,78.22
50427,2018-06-29 09:11:07.843750,-35.02,78.22
50428,2018-06-29 09:11:07.875000,-37.24,78.22
50429,2018-06-29 09:11:07.906250,-42.58,78.22
50430,2018-06-29 09:11:07.937500,-52.94,78.22
50431,2018-06-29 09:11:07.968750,-63.64,78.22
50432,2018-06-29 09:11:08.000000,-66.02,78.22
50433,2018-06-29 09:11:08.031250,-55.15,78.22
50434,2018-06-29 09:11:08.062500,-35.17,78.22
50435,2018-06-29 09:11:08.093750,-14.82,78.22
50436,2018-06-29 09:11:08.125000,1.56,78.22
50437,2018-06-29 09:11:08.156250,14.47,78.22
50438,2018-06-29 09:11:08.187500,24.05,78.22
50439,2018-06-29 09:11:08.218750,30.45,78.22
50440,2018-06-29 09:11:08.250000,34.72,78.22
50441,2018-06-29 09:11:08.281250,38.61,78.22
50442,2018-06-29 09:11:08.312500,41.6,78.22
50443,2018-06-29 09:11:08.343750,42.48,78.22
50444,2018-06-29 09:11:08.375000,41.63,78.22
50445,2018-06-29 09:11:08.406250,41.53,78.22
50446,2018-06-29 09:11:08.437500,43.88,78.22
50447,2018-06-29 09:11:08.468750,44.83,78.22
50448,2018-06-29 09:11:08.500000,42.32,78.22
50449,2018-06-29 09:11:08.531250,38.4,78.23
50450,2018-06-29 09:11:08.562500,38.94,78.23
50451,2018-06-29 09:11:08.593750,42.25,78.23
50452,2018-06-29 09:11:08.625000,41.92,78.23
50453,2018-06-29 09:11:08.656250,37.39,78.23
50454,2018-06-29 09:11:08.687500,36.73,78.23
50455,2018-06-29 09:11:08.718750,50.63,78.23
50456,2018-06-29 09:11:08.750000,75.82,78.23
50457,2018-06-29 09:11:08.781250,105.18,78.23
50458,2018-06-29 09:11:08.812500,108.27,78.23
50459,2018-06-29 09:11:08.843750,64.86,78.23
50460,2018-06-29 09:11:08.875000,14.21,78.23
50461,2018-06-29 09:11:08.906250,-18.78,78.23
50462,2018-06-29 09:11:08.937500,-27.04,78.23
50463,2018-06-29 09:11:08.968750,-6.37,78.23
50464,2018-06-29 09:11:09.000000,37.1,78.23
50465,2018-06-29 09:11:09.031250,72.28,78.23
50466,2018-06-29 09:11:09.062500,71.68,78.23
50467,2018-06-29 09:11:09.093750,33.6,78.23
50468,2018-06-29 09:11:09.125000,-25.52,78.23
50469,2018-06-29 09:11:09.156250,-72.25,78.23
50470,2018-06-29 09:11:09.187500,-98.37,78.23
50471,2018-06-29 09:11:09.218750,-108.34,78.23
50472,2018-06-29 09:11:09.250000,-107.05,78.23
50473,2018-06-29 09:11:09.281250,-99.73,78.23
50474,2018-06-29 09:11:09.312500,-86.26,78.23
50475,2018-06-29 09:11:09.343750,-61.71,78.23
50476,2018-06-29 09:11:09.375000,-30.14,78.23
50477,2018-06-29 09:11:09.406250,-1.77,78.23
50478,2018-06-29 09:11:09.437500,20.24,78.23
50479,2018-06-29 09:11:09.468750,36.96,78.23
50480,2018-06-29 09:11:09.500000,47.35,78.23
50481,2018-06-29 09:11:09.531250,40.72,78.22
50482,2018-06-29 09:11:09.562500,21.93,78.22
50483,2018-06-29 09:11:09.593750,1.7,78.22
50484,2018-06-29 09:11:09.625000,-23.89,78.22
50485,2018-06-29 09:11:09.656250,-67.68,78.22
50486,2018-06-29 09:11:09.687500,-121.94,78.22
50487,2018-06-29 09:11:09.718750,-157.06,78.22
50488,2018-06-29 09:11:09.750000,-159.07,78.22
50489,2018-06-29 09:11:09.781250,-102.71,78.22
50490,2018-06-29 09:11:09.812500,2.68,78.22
50491,2018-06-29 09:11:09.843750,92.03,78.22
50492,2018-06-29 09:11:09.875000,128.84,78.22
50493,2018-06-29 09:11:09.906250,115.5,78.22
50494,2018-06-29 09:11:09.937500,81.75,78.22
50495,2018-06-29 09:11:09.968750,57.83,78.22
50496,2018-06-29 09:11:10.000000,54.45,78.22
50497,2018-06-29 09:11:10.031250,61.99,78.22
50498,2018-06-29 09:11:10.062500,68.0,78.22
50499,2018-06-29 09:11:10.093750,63.33,78.22
50500,2018-06-29 09:11:10.125000,53.55,78.22
50501,2018-06-29 09:11:10.156250,44.18,78.22
50502,2018-06-29 09:11:10.187500,32.1,78.22
50503,2018-06-29 09:11:10.218750,12.98,78.22
50504,2018-06-29 09:11:10.250000,-6.88,78.22
50505,2018-06-29 09:11:10.281250,-14.71,78.22
50506,2018-06-29 09:11:10.312500,-9.21,78.22
50507,2018-06-29 09:11:10.343750,-4.34,78.22
50508,2018-06-29 09:11:10.375000,-16.66,78.22
50509,2018-06-29 09:11:10.406250,-47.1,78.22
50510,2018-06-29 09:11:10.437500,-77.06,78.22
50511,2018-06-29 09:11:10.468750,-91.45,78.22
50512,2018-06-29 09:11:10.500000,-92.84,78.22
50513,2018-06-29 09:11:10.531250,-88.12,78.2
50514,2018-06-29 09:11:10.562500,-78.59,78.2
50515,2018-06-29 09:11:10.593750,-63.67,78.2
50516,2018-06-29 09:11:10.625000,-47.55,78.2
50517,2018-06-29 09:11:10.656250,-28.23,78.2
50518,2018-06-29 09:11:10.687500,-2.83,78.2
50519,2018-06-29 09:11:10.718750,23.53,78.2
50520,2018-06-29 09:11:10.750000,43.81,78.2
50521,2018-06-29 09:11:10.781250,58.04,78.2
50522,2018-06-29 09:11:10.812500,70.18,78.2
50523,2018-06-29 09:11:10.843750,79.47,78.2
50524,2018-06-29 09:11:10.875000,84.16,78.2
50525,2018-06-29 09:11:10.906250,82.65,78.2
50526,2018-06-29 09:11:10.937500,74.63,78.2
50527,2018-06-29 09:11:10.968750,61.84,78.2
50528,2018-06-29 09:11:11.000000,43.44,78.2
50529,2018-06-29 09:11:11.031250,17.62,78.2
50530,2018-06-29 09:11:11.062500,-5.28,78.2
50531,2018-06-29 09:11:11.093750,-12.11,78.2
50532,2018-06-29 09:11:11.125000,-9.88,78.2
50533,2018-06-29 09:11:11.156250,-18.27,78.2
50534,2018-06-29 09:11:11.187500,-45.55,78.2
50535,2018-06-29 09:11:11.218750,-81.55,78.2
50536,2018-06-29 09:11:11.250000,-102.22,78.2
50537,2018-06-29 09:11:11.281250,-88.59,78.2
50538,2018-06-29 09:11:11.312500,-50.6,78.2
50539,2018-06-29 09:11:11.343750,-11.48,78.2
50540,2018-06-29 09:11:11.375000,23.01,78.2
50541,2018-06-29 09:11:11.406250,54.78,78.2
50542,2018-06-29 09:11:11.437500,73.34,78.2
50543,2018-06-29 09:11:11.468750,71.19,78.2
50544,2018-06-29 09:11:11.500000,55.93,78.2
50545,2018-06-29 09:11:11.531250,36.27,78.17
50546,2018-06-29 09:11:11.562500,18.86,78.17
50547,2018-06-29 09:11:11.593750,8.09,78.17
50548,2018-06-29 09:11:11.625000,2.34,78.17
50549,2018-06-29 09:11:11.656250,0.38,78.17
50550,2018-06-29 09:11:11.687500,8.25,78.17
50551,2018-06-29 09:11:11.718750,22.62,78.17
50552,2018-06-29 09:11:11.750000,20.47,78.17
50553,2018-06-29 09:11:11.781250,-11.13,78.17
50554,2018-06-29 09:11:11.812500,-57.94,78.17
50555,2018-06-29 09:11:11.843750,-95.22,78.17
50556,2018-06-29 09:11:11.875000,-111.32,78.17
50557,2018-06-29 09:11:11.906250,-106.69,78.17
50558,2018-06-29 09:11:11.937500,-86.39,78.17
50559,2018-06-29 09:11:11.968750,-64.85,78.17
50560,2018-06-29 09:11:12.000000,-49.71,78.17
50561,2018-06-29 09:11:12.031250,-33.39,78.17
50562,2018-06-29 09:11:12.062500,-6.69,78.17
50563,2018-06-29 09:11:12.093750,20.57,78.17
50564,2018-06-29 09:11:12.125000,32.53,78.17
50565,2018-06-29 09:11:12.156250,36.84,78.17
50566,2018-06-29 09:11:12.187500,53.65,78.17
50567,2018-06-29 09:11:12.218750,85.46,78.17
50568,2018-06-29 09:11:12.250000,111.53,78.17
50569,2018-06-29 09:11:12.281250,111.21,78.17
50570,2018-06-29 09:11:12.312500,85.29,78.17
50571,2018-06-29 09:11:12.343750,60.57,78.17
50572,2018-06-29 09:11:12.375000,53.4,78.17
50573,2018-06-29 09:11:12.406250,53.46,78.17
50574,2018-06-29 09:11:12.437500,44.17,78.17
50575,2018-06-29 09:11:12.468750,21.01,78.17
50576,2018-06-29 09:11:12.500000,-12.36,78.17
50577,2018-06-29 09:11:12.531250,-46.22,78.13
50578,2018-06-29 09:11:12.562500,-68.18,78.13
50579,2018-06-29 09:11:12.593750,-68.03,78.13
50580,2018-06-29 09:11:12.625000,-49.31,78.13
50581,2018-06-29 09:11:12.656250,-25.06,78.13
50582,2018-06-29 09:11:12.687500,-3.71,78.13
50583,2018-06-29 09:11:12.718750,15.06,78.13
50584,2018-06-29 09:11:12.750000,32.01,78.13
50585,2018-06-29 09:11:12.781250,41.93,78.13
50586,2018-06-29 09:11:12.812500,41.68,78.13
50587,2018-06-29 09:11:12.843750,36.28,78.13
50588,2018-06-29 09:11:12.875000,32.17,78.13
50589,2018-06-29 09:11:12.906250,31.25,78.13
50590,2018-06-29 09:11:12.937500,33.51,78.13
50591,2018-06-29 09:11:12.968750,48.79,78.13
50592,2018-06-29 09:11:13.000000,76.5,78.13
50593,2018-06-29 09:11:13.031250,104.72,78.13
50594,2018-06-29 09:11:13.062500,122.04,78.13
50595,2018-06-29 09:11:13.093750,124.68,78.13
50596,2018-06-29 09:11:13.125000,110.62,78.13
50597,2018-06-29 09:11:13.156250,87.24,78.13
50598,2018-06-29 09:11:13.187500,63.09,78.13
50599,2018-06-29 09:11:13.218750,39.48,78.13
50600,2018-06-29 09:11:13.250000,8.58,78.13
50601,2018-06-29 09:11:13.281250,-36.41,78.13
50602,2018-06-29 09:11:13.312500,-90.75,78.13
50603,2018-06-29 09:11:13.343750,-140.39,78.13
50604,2018-06-29 09:11:13.375000,-173.03,78.13
50605,2018-06-29 09:11:13.406250,-186.08,78.13
50606,2018-06-29 09:11:13.437500,-185.51,78.13
50607,2018-06-29 09:11:13.468750,-175.37,78.13
50608,2018-06-29 09:11:13.500000,-152.19,78.13
50609,2018-06-29 09:11:13.531250,-118.49,78.12
50610,2018-06-29 09:11:13.562500,-90.7,78.12
50611,2018-06-29 09:11:13.593750,-80.95,78.12
50612,2018-06-29 09:11:13.625000,-82.29,78.12
50613,2018-06-29 09:11:13.656250,-84.2,78.12
50614,2018-06-29 09:11:13.687500,-86.81,78.12
50615,2018-06-29 09:11:13.718750,-92.65,78.12
50616,2018-06-29 09:11:13.750000,-98.47,78.12
50617,2018-06-29 09:11:13.781250,-98.52,78.12
50618,2018-06-29 09:11:13.812500,-88.1,78.12
50619,2018-06-29 09:11:13.843750,-65.63,78.12
50620,2018-06-29 09:11:13.875000,-35.43,78.12
50621,2018-06-29 09:11:13.906250,-5.77,78.12
50622,2018-06-29 09:11:13.937500,17.96,78.12
50623,2018-06-29 09:11:13.968750,37.18,78.12
50624,2018-06-29 09:11:14.000000,56.58,78.12
50625,2018-06-29 09:11:14.031250,75.93,78.12
50626,2018-06-29 09:11:14.062500,87.73,78.12
50627,2018-06-29 09:11:14.093750,85.93,78.12
50628,2018-06-29 09:11:14.125000,73.08,78.12
50629,2018-06-29 09:11:14.156250,55.67,78.12
50630,2018-06-29 09:11:14.187500,36.61,78.12
50631,2018-06-29 09:11:14.218750,16.48,78.12
50632,2018-06-29 09:11:14.250000,-2.88,78.12
50633,2018-06-29 09:11:14.281250,-19.73,78.12
50634,2018-06-29 09:11:14.312500,-32.43,78.12
50635,2018-06-29 09:11:14.343750,-38.41,78.12
50636,2018-06-29 09:11:14.375000,-38.12,78.12
50637,2018-06-29 09:11:14.406250,-37.75,78.12
50638,2018-06-29 09:11:14.437500,-42.39,78.12
50639,2018-06-29 09:11:14.468750,-50.05,78.12
50640,2018-06-29 09:11:14.500000,-57.92,78.12
50641,2018-06-29 09:11:14.531250,-68.2,78.12
50642,2018-06-29 09:11:14.562500,-82.78,78.12
50643,2018-06-29 09:11:14.593750,-96.46,78.12
50644,2018-06-29 09:11:14.625000,-99.08,78.12
50645,2018-06-29 09:11:14.656250,-83.81,78.12
50646,2018-06-29 09:11:14.687500,-54.21,78.12
50647,2018-06-29 09:11:14.718750,-22.11,78.12
