,Time,ppg,hr
54400,2018-06-29 09:13:12.000000,-18.82,78.78
54401,2018-06-29 09:13:12.031250,-26.1,78.78
54402,2018-06-29 09:13:12.062500,-29.53,78.78
54403,2018-06-29 09:13:12.093750,-24.85,78.78
54404,2018-06-29 09:13:12.125000,-13.99,78.78
54405,2018-06-29 09:13:12.156250,-3.14,78.78
54406,2018-06-29 09:13:12.187500,4.22,78.78
54407,2018-06-29 09:13:12.218750,8.78,78.78
54408,2018-06-29 09:13:12.250000,11.5,78.78
54409,2018-06-29 09:13:12.281250,12.46,78.78
54410,2018-06-29 09:13:12.312500,12.19,78.78
54411,2018-06-29 09:13:12.343750,11.81,78.78
54412,2018-06-29 09:13:12.375000,12.16,78.78
54413,2018-06-29 09:13:12.406250,13.22,78.78
54414,2018-06-29 09:13:12.437500,14.24,78.78
54415,2018-06-29 09:13:12.468750,14.37,78.78
54416,2018-06-29 09:13:12.500000,13.31,78.78
54417,2018-06-29 09:13:12.531250,11.36,78.62
54418,2018-06-29 09:13:12.562500,8.88,78.62
54419,2018-06-29 09:13:12.593750,6.16,78.62
54420,2018-06-29 09:13:12.625000,3.79,78.62
54421,2018-06-29 09:13:12.656250,2.19,78.62
54422,2018-06-29 09:13:12.687500,0.37,78.62
54423,2018-06-29 09:13:12.718750,-2.8,78.62
54424,2018-06-29 09:13:12.750000,-6.23,78.62
54425,2018-06-29 09:13:12.781250,-8.34,78.62
54426,2018-06-29 09:13:12.812500,-10.41,78.62
54427,2018-06-29 09:13:12.843750,-15.21,78.62
54428,2018-06-29 09:13:12.875000,-22.83,78.62
54429,2018-06-29 09:13:12.906250,-29.39,78.62
54430,2018-06-29 09:13:12.937500,-29.98,78.62
54431,2018-06-29 09:13:12.968750,-23.0,78.62
54432,2018-06-29 09:13:13.000000,-11.69,78.62
54433,2018-06-29 09:13:13.031250,-0.84,78.62
54434,2018-06-29 09:13:13.062500,6.99,78.62
54435,2018-06-29 09:13:13.093750,11.84,78.62
54436,2018-06-29 09:13:13.125000,14.66,78.62
54437,2018-06-29 09:13:13.156250,16.09,78.62
54438,2018-06-29 09:13:13.187500,16.42,78.62
54439,2018-06-29 09:13:13.218750,16.33,78.62
54440,2018-06-29 09:13:13.250000,16.54,78.62
54441,2018-06-29 09:13:13.281250,17.12,78.62
54442,2018-06-29 09:13:13.312500,17.84,78.62
54443,2018-06-29 09:13:13.343750,18.19,78.62
54444,2018-06-29 09:13:13.375000,17.41,78.62
54445,2018-06-29 09:13:13.406250,15.29,78.62
54446,2018-06-29 09:13:13.437500,12.74,78.62
54447,2018-06-29 09:13:13.468750,10.82,78.62
54448,2018-06-29 09:13:13.500000,9.48,78.62
54449,2018-06-29 09:13:13.531250,7.25,78.43
54450,2018-06-29 09:13:13.562500,2.81,78.43
54451,2018-06-29 09:13:13.593750,-3.1,78.43
54452,2018-06-29 09:13:13.625000,-8.34,78.43
54453,2018-06-29 09:13:13.656250,-11.87,78.43
54454,2018-06-29 09:13:13.687500,-14.6,78.43
54455,2018-06-29 09:13:13.718750,-18.12,78.43
54456,2018-06-29 09:13:13.750000,-23.42,78.43
54457,2018-06-29 09:13:13.781250,-29.5,78.43
54458,2018-06-29 09:13:13.812500,-32.34,78.43
54459,2018-06-29 09:13:13.843750,-28.05,78.43
54460,2018-06-29 09:13:13.875000,-17.45,78.43
54461,2018-06-29 09:13:13.906250,-5.31,78.43
54462,2018-06-29 09:13:13.937500,4.54,78.43
54463,2018-06-29 09:13:13.968750,11.18,78.43
54464,2018-06-29 09:13:14.000000,15.13,78.43
54465,2018-06-29 09:13:14.031250,17.23,78.43
54466,2018-06-29 09:13:14.062500,18.05,78.43
54467,2018-06-29 09:13:14.093750,18.16,78.43
54468,2018-06-29 09:13:14.125000,18.13,78.43
54469,2018-06-29 09:13:14.156250,18.21,78.43
54470,2018-06-29 09:13:14.187500,18.2,78.43
54471,2018-06-29 09:13:14.218750,17.89,78.43
54472,2018-06-29 09:13:14.250000,17.2,78.43
54473,2018-06-29 09:13:14.281250,16.14,78.43
54474,2018-06-29 09:13:14.312500,14.78,78.43
54475,2018-06-29 09:13:14.343750,12.79,78.43
54476,2018-06-29 09:13:14.375000,9.88,78.43
54477,2018-06-29 09:13:14.406250,6.96,78.43
54478,2018-06-29 09:13:14.437500,5.24,78.43
54479,2018-06-29 09:13:14.468750,4.36,78.43
54480,2018-06-29 09:13:14.500000,2.48,78.43
54481,2018-06-29 09:13:14.531250,-1.24,78.27
54482,2018-06-29 09:13:14.562500,-5.48,78.27
54483,2018-06-29 09:13:14.593750,-8.59,78.27
54484,2018-06-29 09:13:14.625000,-11.16,78.27
54485,2018-06-29 09:13:14.656250,-15.61,78.27
54486,2018-06-29 09:13:14.687500,-22.72,78.27
54487,2018-06-29 09:13:14.718750,-29.24,78.27
54488,2018-06-29 09:13:14.750000,-29.98,78.27
54489,2018-06-29 09:13:14.781250,-23.19,78.27
54490,2018-06-29 09:13:14.812500,-12.88,78.27
54491,2018-06-29 09:13:14.843750,-4.23,78.27
54492,2018-06-29 09:13:14.875000,1.53,78.27
54493,2018-06-29 09:13:14.906250,5.89,78.27
54494,2018-06-29 09:13:14.937500,9.18,78.27
54495,2018-06-29 09:13:14.968750,10.84,78.27
54496,2018-06-29 09:13:15.000000,11.51,78.27
54497,2018-06-29 09:13:15.031250,12.41,78.27
54498,2018-06-29 09:13:15.062500,13.74,78.27
54499,2018-06-29 09:13:15.093750,15.08,78.27
54500,2018-06-29 09:13:15.125000,16.17,78.27
54501,2018-06-29 09:13:15.156250,16.87,78.27
54502,2018-06-29 09:13:15.187500,16.6,78.27
54503,2018-06-29 09:13:15.218750,15.21,78.27
54504,2018-06-29 09:13:15.250000,13.42,78.27
54505,2018-06-29 09:13:15.281250,12.15,78.27
54506,2018-06-29 09:13:15.312500,11.29,78.27
54507,2018-06-29 09:13:15.343750,9.95,78.27
54508,2018-06-29 09:13:15.375000,7.54,78.27
54509,2018-06-29 09:13:15.406250,4.36,78.27
54510,2018-06-29 09:13:15.437500,0.87,78.27
54511,2018-06-29 09:13:15.468750,-2.81,78.27
54512,2018-06-29 09:13:15.500000,-6.6,78.27
54513,2018-06-29 09:13:15.531250,-10.01,78.08
54514,2018-06-29 09:13:15.562500,-13.35,78.08
54515,2018-06-29 09:13:15.593750,-18.1,78.08
54516,2018-06-29 09:13:15.625000,-24.33,78.08
54517,2018-06-29 09:13:15.656250,-28.5,78.08
54518,2018-06-29 09:13:15.687500,-26.31,78.08
54519,2018-06-29 09:13:15.718750,-17.64,78.08
54520,2018-06-29 09:13:15.750000,-6.66,78.08
54521,2018-06-29 09:13:15.781250,2.61,78.08
54522,2018-06-29 09:13:15.812500,9.12,78.08
54523,2018-06-29 09:13:15.843750,13.13,78.08
54524,2018-06-29 09:13:15.875000,14.93,78.08
54525,2018-06-29 09:13:15.906250,15.19,78.08
54526,2018-06-29 09:13:15.937500,14.94,78.08
54527,2018-06-29 09:13:15.968750,14.83,78.08
54528,2018-06-29 09:13:16.000000,15.0,78.08
54529,2018-06-29 09:13:16.031250,15.05,78.08
54530,2018-06-29 09:13:16.062500,14.42,78.08
54531,2018-06-29 09:13:16.093750,13.17,78.08
54532,2018-06-29 09:13:16.125000,11.57,78.08
54533,2018-06-29 09:13:16.156250,9.53,78.08
54534,2018-06-29 09:13:16.187500,7.52,78.08
54535,2018-06-29 09:13:16.218750,6.36,78.08
54536,2018-06-29 09:13:16.250000,5.5,78.08
54537,2018-06-29 09:13:16.281250,3.56,78.08
54538,2018-06-29 09:13:16.312500,0.58,78.08
54539,2018-06-29 09:13:16.343750,-2.36,78.08
54540,2018-06-29 09:13:16.375000,-5.22,78.08
54541,2018-06-29 09:13:16.406250,-8.94,78.08
54542,2018-06-29 09:13:16.437500,-14.32,78.08
54543,2018-06-29 09:13:16.468750,-20.68,78.08
54544,2018-06-29 09:13:16.500000,-24.43,78.08
54545,2018-06-29 09:13:16.531250,-21.61,77.9
54546,2018-06-29 09:13:16.562500,-13.08,77.9
54547,2018-06-29 09:13:16.593750,-3.99,77.9
54548,2018-06-29 09:13:16.625000,2.32,77.9
54549,2018-06-29 09:13:16.656250,6.22,77.9
54550,2018-06-29 09:13:16.687500,8.43,77.9
54551,2018-06-29 09:13:16.718750,8.97,77.9
54552,2018-06-29 09:13:16.750000,8.75,77.9
54553,2018-06-29 09:13:16.781250,9.26,77.9
54554,2018-06-29 09:13:16.812500,10.59,77.9
54555,2018-06-29 09:13:16.843750,11.76,77.9
54556,2018-06-29 09:13:16.875000,12.2,77.9
54557,2018-06-29 09:13:16.906250,11.84,77.9
54558,2018-06-29 09:13:16.937500,10.65,77.9
54559,2018-06-29 09:13:16.968750,8.96,77.9
54560,2018-06-29 09:13:17.000000,6.86,77.9
54561,2018-06-29 09:13:17.031250,4.11,77.9
54562,2018-06-29 09:13:17.062500,1.6,77.9
54563,2018-06-29 09:13:17.093750,0.59,77.9
54564,2018-06-29 09:13:17.125000,0.75,77.9
54565,2018-06-29 09:13:17.156250,1.58,77.9
54566,2018-06-29 09:13:17.187500,3.62,77.9
54567,2018-06-29 09:13:17.218750,6.09,77.9
54568,2018-06-29 09:13:17.250000,6.64,77.9
54569,2018-06-29 09:13:17.281250,3.99,77.9
54570,2018-06-29 09:13:17.312500,-1.27,77.9
54571,2018-06-29 09:13:17.343750,-6.41,77.9
54572,2018-06-29 09:13:17.375000,-7.4,77.9
54573,2018-06-29 09:13:17.406250,-3.45,77.9
54574,2018-06-29 09:13:17.437500,1.64,77.9
54575,2018-06-29 09:13:17.468750,4.79,77.9
54576,2018-06-29 09:13:17.500000,6.5,77.9
54577,2018-06-29 09:13:17.531250,7.29,77.7
54578,2018-06-29 09:13:17.562500,6.35,77.7
54579,2018-06-29 09:13:17.593750,4.19,77.7
54580,2018-06-29 09:13:17.625000,2.87,77.7
54581,2018-06-29 09:13:17.656250,3.46,77.7
54582,2018-06-29 09:13:17.687500,5.03,77.7
54583,2018-06-29 09:13:17.718750,6.46,77.7
54584,2018-06-29 09:13:17.750000,7.21,77.7
54585,2018-06-29 09:13:17.781250,6.66,77.7
54586,2018-06-29 09:13:17.812500,4.55,77.7
54587,2018-06-29 09:13:17.843750,1.88,77.7
54588,2018-06-29 09:13:17.875000,-0.3,77.7
54589,2018-06-29 09:13:17.906250,-1.73,77.7
54590,2018-06-29 09:13:17.937500,-1.94,77.7
54591,2018-06-29 09:13:17.968750,-0.41,77.7
54592,2018-06-29 09:13:18.000000,2.45,77.7
54593,2018-06-29 09:13:18.031250,5.29,77.7
54594,2018-06-29 09:13:18.062500,6.76,77.7
54595,2018-06-29 09:13:18.093750,5.98,77.7
54596,2018-06-29 09:13:18.125000,2.97,77.7
54597,2018-06-29 09:13:18.156250,-1.42,77.7
54598,2018-06-29 09:13:18.187500,-6.76,77.7
54599,2018-06-29 09:13:18.218750,-13.08,77.7
54600,2018-06-29 09:13:18.250000,-19.19,77.7
54601,2018-06-29 09:13:18.281250,-22.0,77.7
54602,2018-06-29 09:13:18.312500,-18.9,77.7
54603,2018-06-29 09:13:18.343750,-10.64,77.7
54604,2018-06-29 09:13:18.375000,-1.03,77.7
54605,2018-06-29 09:13:18.406250,6.28,77.7
54606,2018-06-29 09:13:18.437500,9.94,77.7
54607,2018-06-29 09:13:18.468750,10.36,77.7
54608,2018-06-29 09:13:18.500000,8.53,77.7
54609,2018-06-29 09:13:18.531250,6.21,77.47
54610,2018-06-29 09:13:18.562500,5.32,77.47
54611,2018-06-29 09:13:18.593750,5.98,77.47
54612,2018-06-29 09:13:18.625000,7.24,77.47
54613,2018-06-29 09:13:18.656250,9.55,77.47
54614,2018-06-29 09:13:18.687500,13.79,77.47
54615,2018-06-29 09:13:18.718750,18.42,77.47
54616,2018-06-29 09:13:18.750000,20.8,77.47
54617,2018-06-29 09:13:18.781250,20.36,77.47
54618,2018-06-29 09:13:18.812500,18.02,77.47
54619,2018-06-29 09:13:18.843750,14.11,77.47
54620,2018-06-29 09:13:18.875000,9.22,77.47
54621,2018-06-29 09:13:18.906250,4.56,77.47
54622,2018-06-29 09:13:18.937500,0.41,77.47
54623,2018-06-29 09:13:18.968750,-3.7,77.47
54624,2018-06-29 09:13:19.000000,-7.06,77.47
54625,2018-06-29 09:13:19.031250,-9.05,77.47
54626,2018-06-29 09:13:19.062500,-10.92,77.47
54627,2018-06-29 09:13:19.093750,-13.12,77.47
54628,2018-06-29 09:13:19.125000,-13.25,77.47
54629,2018-06-29 09:13:19.156250,-9.27,77.47
54630,2018-06-29 09:13:19.187500,-2.78,77.47
54631,2018-06-29 09:13:19.218750,3.09,77.47
54632,2018-06-29 09:13:19.250000,7.09,77.47
54633,2018-06-29 09:13:19.281250,9.4,77.47
54634,2018-06-29 09:13:19.312500,10.05,77.47
54635,2018-06-29 09:13:19.343750,9.38,77.47
54636,2018-06-29 09:13:19.375000,8.99,77.47
54637,2018-06-29 09:13:19.406250,10.06,77.47
54638,2018-06-29 09:13:19.437500,11.95,77.47
54639,2018-06-29 09:13:19.468750,13.92,77.47
54640,2018-06-29 09:13:19.500000,16.25,77.47
54641,2018-06-29 09:13:19.531250,18.53,77.2
54642,2018-06-29 09:13:19.562500,18.96,77.2
54643,2018-06-29 09:13:19.593750,16.47,77.2
54644,2018-06-29 09:13:19.625000,11.59,77.2
54645,2018-06-29 09:13:19.656250,5.28,77.2
54646,2018-06-29 09:13:19.687500,-1.67,77.2
54647,2018-06-29 09:13:19.718750,-8.33,77.2
54648,2018-06-29 09:13:19.750000,-13.97,77.2
54649,2018-06-29 09:13:19.781250,-18.88,77.2
54650,2018-06-29 09:13:19.812500,-23.45,77.2
54651,2018-06-29 09:13:19.843750,-26.49,77.2
54652,2018-06-29 09:13:19.875000,-26.25,77.2
54653,2018-06-29 09:13:19.906250,-23.58,77.2
54654,2018-06-29 09:13:19.937500,-21.24,77.2
54655,2018-06-29 09:13:19.968750,-20.3,77.2
54656,2018-06-29 09:13:20.000000,-19.86,77.2
54657,2018-06-29 09:13:20.031250,-19.76,77.2
54658,2018-06-29 09:13:20.062500,-20.12,77.2
54659,2018-06-29 09:13:20.093750,-19.45,77.2
54660,2018-06-29 09:13:20.125000,-16.03,77.2
54661,2018-06-29 09:13:20.156250,-10.2,77.2
54662,2018-06-29 09:13:20.187500,-4.06,77.2
54663,2018-06-29 09:13:20.218750,0.53,77.2
54664,2018-06-29 09:13:20.250000,2.82,77.2
54665,2018-06-29 09:13:20.281250,2.62,77.2
54666,2018-06-29 09:13:20.312500,-0.06,77.2
54667,2018-06-29 09:13:20.343750,-3.69,77.2
54668,2018-06-29 09:13:20.375000,-5.89,77.2
54669,2018-06-29 09:13:20.406250,-7.18,77.2
54670,2018-06-29 09:13:20.437500,-10.23,77.2
54671,2018-06-29 09:13:20.468750,-15.0,77.2
54672,2018-06-29 09:13:20.500000,-18.81,77.2
54673,2018-06-29 09:13:20.531250,-20.61,76.92
54674,2018-06-29 09:13:20.562500,-20.48,76.92
54675,2018-06-29 09:13:20.593750,-17.63,76.92
54676,2018-06-29 09:13:20.625000,-12.45,76.92
54677,2018-06-29 09:13:20.656250,-7.75,76.92
54678,2018-06-29 09:13:20.687500,-6.02,76.92
54679,2018-06-29 09:13:20.718750,-7.36,76.92
54680,2018-06-29 09:13:20.750000,-10.93,76.92
54681,2018-06-29 09:13:20.781250,-16.39,76.92
54682,2018-06-29 09:13:20.812500,-23.36,76.92
54683,2018-06-29 09:13:20.843750,-31.02,76.92
54684,2018-06-29 09:13:20.875000,-38.86,76.92
54685,2018-06-29 09:13:20.906250,-46.37,76.92
54686,2018-06-29 09:13:20.937500,-50.88,76.92
54687,2018-06-29 09:13:20.968750,-48.35,76.92
54688,2018-06-29 09:13:21.000000,-37.54,76.92
54689,2018-06-29 09:13:21.031250,-21.07,76.92
54690,2018-06-29 09:13:21.062500,-1.3,76.92
54691,2018-06-29 09:13:21.093750,21.85,76.92
54692,2018-06-29 09:13:21.125000,47.48,76.92
54693,2018-06-29 09:13:21.156250,71.6,76.92
54694,2018-06-29 09:13:21.187500,90.63,76.92
54695,2018-06-29 09:13:21.218750,103.78,76.92
54696,2018-06-29 09:13:21.250000,110.69,76.92
54697,2018-06-29 09:13:21.281250,109.86,76.92
54698,2018-06-29 09:13:21.312500,100.54,76.92
54699,2018-06-29 09:13:21.343750,84.68,76.92
54700,2018-06-29 09:13:21.375000,66.24,76.92
54701,2018-06-29 09:13:21.406250,49.05,76.92
54702,2018-06-29 09:13:21.437500,35.65,76.92
54703,2018-06-29 09:13:21.468750,26.76,76.92
54704,2018-06-29 09:13:21.500000,20.85,76.92
54705,2018-06-29 09:13:21.531250,15.02,76.6
54706,2018-06-29 09:13:21.562500,7.54,76.6
54707,2018-06-29 09:13:21.593750,-0.65,76.6
54708,2018-06-29 09:13:21.625000,-7.5,76.6
54709,2018-06-29 09:13:21.656250,-12.16,76.6
54710,2018-06-29 09:13:21.687500,-15.6,76.6
54711,2018-06-29 09:13:21.718750,-19.39,76.6
54712,2018-06-29 09:13:21.750000,-24.48,76.6
54713,2018-06-29 09:13:21.781250,-30.85,76.6
54714,2018-06-29 09:13:21.812500,-37.46,76.6
54715,2018-06-29 09:13:21.843750,-42.95,76.6
54716,2018-06-29 09:13:21.875000,-46.52,76.6
54717,2018-06-29 09:13:21.906250,-48.01,76.6
54718,2018-06-29 09:13:21.937500,-48.3,76.6
54719,2018-06-29 09:13:21.968750,-49.16,76.6
54720,2018-06-29 09:13:22.000000,-50.41,76.6
54721,2018-06-29 09:13:22.031250,-48.35,76.6
54722,2018-06-29 09:13:22.062500,-39.95,76.6
54723,2018-06-29 09:13:22.093750,-26.86,76.6
54724,2018-06-29 09:13:22.125000,-13.19,76.6
54725,2018-06-29 09:13:22.156250,-1.28,76.6
54726,2018-06-29 09:13:22.187500,8.93,76.6
54727,2018-06-29 09:13:22.218750,18.07,76.6
54728,2018-06-29 09:13:22.250000,25.85,76.6
54729,2018-06-29 09:13:22.281250,31.3,76.6
54730,2018-06-29 09:13:22.312500,33.88,76.6
54731,2018-06-29 09:13:22.343750,33.6,76.6
54732,2018-06-29 09:13:22.375000,30.69,76.6
54733,2018-06-29 09:13:22.406250,26.2,76.6
54734,2018-06-29 09:13:22.437500,21.98,76.6
54735,2018-06-29 09:13:22.468750,18.7,76.6
54736,2018-06-29 09:13:22.500000,15.52,76.6
54737,2018-06-29 09:13:22.531250,11.99,76.25
54738,2018-06-29 09:13:22.562500,9.01,76.25
54739,2018-06-29 09:13:22.593750,7.56,76.25
54740,2018-06-29 09:13:22.625000,7.38,76.25
54741,2018-06-29 09:13:22.656250,7.56,76.25
54742,2018-06-29 09:13:22.687500,7.59,76.25
54743,2018-06-29 09:13:22.718750,6.94,76.25
54744,2018-06-29 09:13:22.750000,4.49,76.25
54745,2018-06-29 09:13:22.781250,-0.73,76.25
54746,2018-06-29 09:13:22.812500,-8.8,76.25
54747,2018-06-29 09:13:22.843750,-18.44,76.25
54748,2018-06-29 09:13:22.875000,-26.31,76.25
54749,2018-06-29 09:13:22.906250,-28.48,76.25
54750,2018-06-29 09:13:22.937500,-24.72,76.25
54751,2018-06-29 09:13:22.968750,-19.07,76.25
54752,2018-06-29 09:13:23.000000,-15.21,76.25
54753,2018-06-29 09:13:23.031250,-12.93,76.25
54754,2018-06-29 09:13:23.062500,-10.35,76.25
54755,2018-06-29 09:13:23.093750,-6.71,76.25
54756,2018-06-29 09:13:23.125000,-2.36,76.25
54757,2018-06-29 09:13:23.156250,1.91,76.25
54758,2018-06-29 09:13:23.187500,5.56,76.25
54759,2018-06-29 09:13:23.218750,9.28,76.25
54760,2018-06-29 09:13:23.250000,14.18,76.25
54761,2018-06-29 09:13:23.281250,19.03,76.25
54762,2018-06-29 09:13:23.312500,21.0,76.25
54763,2018-06-29 09:13:23.343750,20.99,76.25
54764,2018-06-29 09:13:23.375000,24.93,76.25
54765,2018-06-29 09:13:23.406250,35.87,76.25
54766,2018-06-29 09:13:23.437500,46.61,76.25
54767,2018-06-29 09:13:23.468750,45.3,76.25
54768,2018-06-29 09:13:23.500000,28.38,76.25
54769,2018-06-29 09:13:23.531250,4.93,75.92
54770,2018-06-29 09:13:23.562500,-11.67,75.92
54771,2018-06-29 09:13:23.593750,-16.55,75.92
54772,2018-06-29 09:13:23.625000,-16.35,75.92
54773,2018-06-29 09:13:23.656250,-18.83,75.92
54774,2018-06-29 09:13:23.687500,-24.24,75.92
54775,2018-06-29 09:13:23.718750,-28.65,75.92
54776,2018-06-29 09:13:23.750000,-29.95,75.92
54777,2018-06-29 09:13:23.781250,-28.08,75.92
54778,2018-06-29 09:13:23.812500,-22.72,75.92
54779,2018-06-29 09:13:23.843750,-12.23,75.92
54780,2018-06-29 09:13:23.875000,1.49,75.92
54781,2018-06-29 09:13:23.906250,9.87,75.92
54782,2018-06-29 09:13:23.937500,8.34,75.92
54783,2018-06-29 09:13:23.968750,3.81,75.92
54784,2018-06-29 09:13:24.000000,2.72,75.92
54785,2018-06-29 09:13:24.031250,3.68,75.92
54786,2018-06-29 09:13:24.062500,8.58,75.92
54787,2018-06-29 09:13:24.093750,20.21,75.92
54788,2018-06-29 09:13:24.125000,27.41,75.92
54789,2018-06-29 09:13:24.156250,18.99,75.92
54790,2018-06-29 09:13:24.187500,5.79,75.92
54791,2018-06-29 09:13:24.218750,2.76,75.92
54792,2018-06-29 09:13:24.250000,3.59,75.92
54793,2018-06-29 09:13:24.281250,-3.37,75.92
54794,2018-06-29 09:13:24.312500,-13.43,75.92
54795,2018-06-29 09:13:24.343750,-17.91,75.92
54796,2018-06-29 09:13:24.375000,-18.99,75.92
54797,2018-06-29 09:13:24.406250,-21.01,75.92
54798,2018-06-29 09:13:24.437500,-21.56,75.92
54799,2018-06-29 09:13:24.468750,-16.65,75.92
54800,2018-06-29 09:13:24.500000,-6.82,75.92
54801,2018-06-29 09:13:24.531250,4.57,75.58
54802,2018-06-29 09:13:24.562500,14.92,75.58
54803,2018-06-29 09:13:24.593750,22.4,75.58
54804,2018-06-29 09:13:24.625000,26.94,75.58
54805,2018-06-29 09:13:24.656250,33.73,75.58
54806,2018-06-29 09:13:24.687500,48.83,75.58
54807,2018-06-29 09:13:24.718750,66.75,75.58
54808,2018-06-29 09:13:24.750000,71.4,75.58
54809,2018-06-29 09:13:24.781250,54.92,75.58
54810,2018-06-29 09:13:24.812500,26.18,75.58
54811,2018-06-29 09:13:24.843750,-0.9,75.58
54812,2018-06-29 09:13:24.875000,-16.78,75.58
54813,2018-06-29 09:13:24.906250,-17.49,75.58
54814,2018-06-29 09:13:24.937500,-8.53,75.58
54815,2018-06-29 09:13:24.968750,-3.74,75.58
54816,2018-06-29 09:13:25.000000,-11.35,75.58
54817,2018-06-29 09:13:25.031250,-26.13,75.58
54818,2018-06-29 09:13:25.062500,-37.45,75.58
54819,2018-06-29 09:13:25.093750,-37.2,75.58
54820,2018-06-29 09:13:25.125000,-20.61,75.58
54821,2018-06-29 09:13:25.156250,4.67,75.58
54822,2018-06-29 09:13:25.187500,15.85,75.58
54823,2018-06-29 09:13:25.218750,3.72,75.58
54824,2018-06-29 09:13:25.250000,-10.42,75.58
54825,2018-06-29 09:13:25.281250,-8.96,75.58
54826,2018-06-29 09:13:25.312500,-3.64,75.58
54827,2018-06-29 09:13:25.343750,-7.74,75.58
54828,2018-06-29 09:13:25.375000,-14.61,75.58
54829,2018-06-29 09:13:25.406250,-17.31,75.58
54830,2018-06-29 09:13:25.437500,-19.69,75.58
54831,2018-06-29 09:13:25.468750,-23.31,75.58
54832,2018-06-29 09:13:25.500000,-24.4,75.58
54833,2018-06-29 09:13:25.531250,-22.69,75.27
54834,2018-06-29 09:13:25.562500,-22.11,75.27
54835,2018-06-29 09:13:25.593750,-23.68,75.27
54836,2018-06-29 09:13:25.625000,-24.03,75.27
54837,2018-06-29 09:13:25.656250,-20.73,75.27
54838,2018-06-29 09:13:25.687500,-15.39,75.27
54839,2018-06-29 09:13:25.718750,-10.97,75.27
54840,2018-06-29 09:13:25.750000,-8.18,75.27
54841,2018-06-29 09:13:25.781250,-4.82,75.27
54842,2018-06-29 09:13:25.812500,1.76,75.27
54843,2018-06-29 09:13:25.843750,11.22,75.27
54844,2018-06-29 09:13:25.875000,20.29,75.27
54845,2018-06-29 09:13:25.906250,26.58,75.27
54846,2018-06-29 09:13:25.937500,31.52,75.27
54847,2018-06-29 09:13:25.968750,38.62,75.27
54848,2018-06-29 09:13:26.000000,49.29,75.27
54849,2018-06-29 09:13:26.031250,59.65,75.27
54850,2018-06-29 09:13:26.062500,60.34,75.27
54851,2018-06-29 09:13:26.093750,43.14,75.27
54852,2018-06-29 09:13:26.125000,13.77,75.27
54853,2018-06-29 09:13:26.156250,-8.69,75.27
54854,2018-06-29 09:13:26.187500,-14.5,75.27
54855,2018-06-29 09:13:26.218750,-15.05,75.27
54856,2018-06-29 09:13:26.250000,-23.37,75.27
54857,2018-06-29 09:13:26.281250,-37.4,75.27
54858,2018-06-29 09:13:26.312500,-49.63,75.27
54859,2018-06-29 09:13:26.343750,-56.95,75.27
54860,2018-06-29 09:13:26.375000,-57.01,75.27
54861,2018-06-29 09:13:26.406250,-48.47,75.27
54862,2018-06-29 09:13:26.437500,-36.01,75.27
54863,2018-06-29 09:13:26.468750,-27.05,75.27
54864,2018-06-29 09:13:26.500000,-23.48,75.27
54865,2018-06-29 09:13:26.531250,-21.13,74.95
54866,2018-06-29 09:13:26.562500,-17.53,74.95
54867,2018-06-29 09:13:26.593750,-15.58,74.95
54868,2018-06-29 09:13:26.625000,-16.58,74.95
54869,2018-06-29 09:13:26.656250,-15.14,74.95
54870,2018-06-29 09:13:26.687500,-6.96,74.95
54871,2018-06-29 09:13:26.718750,3.07,74.95
54872,2018-06-29 09:13:26.750000,7.21,74.95
54873,2018-06-29 09:13:26.781250,5.47,74.95
54874,2018-06-29 09:13:26.812500,3.7,74.95
54875,2018-06-29 09:13:26.843750,4.74,74.95
54876,2018-06-29 09:13:26.875000,7.48,74.95
54877,2018-06-29 09:13:26.906250,11.3,74.95
54878,2018-06-29 09:13:26.937500,16.68,74.95
54879,2018-06-29 09:13:26.968750,23.38,74.95
54880,2018-06-29 09:13:27.000000,30.92,74.95
54881,2018-06-29 09:13:27.031250,39.85,74.95
54882,2018-06-29 09:13:27.062500,50.87,74.95
54883,2018-06-29 09:13:27.093750,62.9,74.95
54884,2018-06-29 09:13:27.125000,73.69,74.95
54885,2018-06-29 09:13:27.156250,84.64,74.95
54886,2018-06-29 09:13:27.187500,100.69,74.95
54887,2018-06-29 09:13:27.218750,119.9,74.95
54888,2018-06-29 09:13:27.250000,129.92,74.95
54889,2018-06-29 09:13:27.281250,119.77,74.95
54890,2018-06-29 09:13:27.312500,87.44,74.95
54891,2018-06-29 09:13:27.343750,39.36,74.95
54892,2018-06-29 09:13:27.375000,-7.09,74.95
54893,2018-06-29 09:13:27.406250,-33.34,74.95
54894,2018-06-29 09:13:27.437500,-42.62,74.95
54895,2018-06-29 09:13:27.468750,-56.25,74.95
54896,2018-06-29 09:13:27.500000,-82.72,74.95
54897,2018-06-29 09:13:27.531250,-111.17,74.8
54898,2018-06-29 09:13:27.562500,-131.82,74.8
54899,2018-06-29 09:13:27.593750,-141.87,74.8
54900,2018-06-29 09:13:27.625000,-137.79,74.8
54901,2018-06-29 09:13:27.656250,-119.31,74.8
54902,2018-06-29 09:13:27.687500,-95.38,74.8
54903,2018-06-29 09:13:27.718750,-75.36,74.8
54904,2018-06-29 09:13:27.750000,-58.87,74.8
54905,2018-06-29 09:13:27.781250,-41.0,74.8
54906,2018-06-29 09:13:27.812500,-21.57,74.8
54907,2018-06-29 09:13:27.843750,-4.11,74.8
54908,2018-06-29 09:13:27.875000,9.36,74.8
54909,2018-06-29 09:13:27.906250,18.16,74.8
54910,2018-06-29 09:13:27.937500,21.15,74.8
54911,2018-06-29 09:13:27.968750,18.04,74.8
54912,2018-06-29 09:13:28.000000,10.61,74.8
54913,2018-06-29 09:13:28.031250,1.93,74.8
54914,2018-06-29 09:13:28.062500,-5.25,74.8
54915,2018-06-29 09:13:28.093750,-9.39,74.8
54916,2018-06-29 09:13:28.125000,-10.19,74.8
54917,2018-06-29 09:13:28.156250,-8.29,74.8
54918,2018-06-29 09:13:28.187500,-5.33,74.8
54919,2018-06-29 09:13:28.218750,-2.67,74.8
54920,2018-06-29 09:13:28.250000,0.2,74.8
54921,2018-06-29 09:13:28.281250,4.97,74.8
54922,2018-06-29 09:13:28.312500,11.69,74.8
54923,2018-06-29 09:13:28.343750,18.35,74.8
54924,2018-06-29 09:13:28.375000,24.56,74.8
54925,2018-06-29 09:13:28.406250,33.89,74.8
54926,2018-06-29 09:13:28.437500,48.98,74.8
54927,2018-06-29 09:13:28.468750,65.64,74.8
54928,2018-06-29 09:13:28.500000,74.78,74.8
54929,2018-06-29 09:13:28.531250,68.41,74.65
54930,2018-06-29 09:13:28.562500,45.39,74.65
54931,2018-06-29 09:13:28.593750,17.24,74.65
54932,2018-06-29 09:13:28.625000,1.38,74.65
54933,2018-06-29 09:13:28.656250,0.16,74.65
54934,2018-06-29 09:13:28.687500,-2.33,74.65
54935,2018-06-29 09:13:28.718750,-16.84,74.65
54936,2018-06-29 09:13:28.750000,-36.91,74.65
54937,2018-06-29 09:13:28.781250,-53.02,74.65
54938,2018-06-29 09:13:28.812500,-62.7,74.65
54939,2018-06-29 09:13:28.843750,-65.41,74.65
54940,2018-06-29 09:13:28.875000,-60.4,74.65
54941,2018-06-29 09:13:28.906250,-50.78,74.65
54942,2018-06-29 09:13:28.937500,-42.1,74.65
54943,2018-06-29 09:13:28.968750,-36.03,74.65
54944,2018-06-29 09:13:29.000000,-29.85,74.65
54945,2018-06-29 09:13:29.031250,-22.91,74.65
54946,2018-06-29 09:13:29.062500,-18.62,74.65
54947,2018-06-29 09:13:29.093750,-18.59,74.65
54948,2018-06-29 09:13:29.125000,-20.62,74.65
54949,2018-06-29 09:13:29.156250,-23.33,74.65
54950,2018-06-29 09:13:29.187500,-26.6,74.65
54951,2018-06-29 09:13:29.218750,-28.25,74.65
54952,2018-06-29 09:13:29.250000,-26.09,74.65
54953,2018-06-29 09:13:29.281250,-21.33,74.65
54954,2018-06-29 09:13:29.312500,-16.03,74.65
54955,2018-06-29 09:13:29.343750,-9.75,74.65
54956,2018-06-29 09:13:29.375000,-1.45,74.65
54957,2018-06-29 09:13:29.406250,8.08,74.65
54958,2018-06-29 09:13:29.437500,17.4,74.65
54959,2018-06-29 09:13:29.468750,26.16,74.65
54960,2018-06-29 09:13:29.500000,33.73,74.65
54961,2018-06-29 09:13:29.531250,38.41,74.55
54962,2018-06-29 09:13:29.562500,40.6,74.55
54963,2018-06-29 09:13:29.593750,44.55,74.55
54964,2018-06-29 09:13:29.625000,53.35,74.55
54965,2018-06-29 09:13:29.656250,63.18,74.55
54966,2018-06-29 09:13:29.687500,65.66,74.55
54967,2018-06-29 09:13:29.718750,55.22,74.55
54968,2018-06-29 09:13:29.750000,32.54,74.55
54969,2018-06-29 09:13:29.781250,4.22,74.55
54970,2018-06-29 09:13:29.812500,-17.76,74.55
54971,2018-06-29 09:13:29.843750,-24.19,74.55
54972,2018-06-29 09:13:29.875000,-20.72,74.55
54973,2018-06-29 09:13:29.906250,-22.51,74.55
54974,2018-06-29 09:13:29.937500,-34.68,74.55
54975,2018-06-29 09:13:29.968750,-48.5,74.55
54976,2018-06-29 09:13:30.000000,-55.02,74.55
54977,2018-06-29 09:13:30.031250,-51.98,74.55
54978,2018-06-29 09:13:30.062500,-41.06,74.55
54979,2018-06-29 09:13:30.093750,-26.36,74.55
54980,2018-06-29 09:13:30.125000,-12.84,74.55
54981,2018-06-29 09:13:30.156250,-2.75,74.55
54982,2018-06-29 09:13:30.187500,4.59,74.55
54983,2018-06-29 09:13:30.218750,9.97,74.55
54984,2018-06-29 09:13:30.250000,12.93,74.55
54985,2018-06-29 09:13:30.281250,12.96,74.55
54986,2018-06-29 09:13:30.312500,11.26,74.55
54987,2018-06-29 09:13:30.343750,10.66,74.55
54988,2018-06-29 09:13:30.375000,12.54,74.55
54989,2018-06-29 09:13:30.406250,14.41,74.55
54990,2018-06-29 09:13:30.437500,12.99,74.55
54991,2018-06-29 09:13:30.468750,8.64,74.55
54992,2018-06-29 09:13:30.500000,4.15,74.55
54993,2018-06-29 09:13:30.531250,0.53,74.47
54994,2018-06-29 09:13:30.562500,-2.38,74.47
54995,2018-06-29 09:13:30.593750,-3.1,74.47
54996,2018-06-29 09:13:30.625000,-0.54,74.47
54997,2018-06-29 09:13:30.656250,2.5,74.47
54998,2018-06-29 09:13:30.687500,2.38,74.47
54999,2018-06-29 09:13:30.718750,0.26,74.47
55000,2018-06-29 09:13:30.750000,1.07,74.47
55001,2018-06-29 09:13:30.781250,6.71,74.47
55002,2018-06-29 09:13:30.812500,13.32,74.47
55003,2018-06-29 09:13:30.843750,17.39,74.47
55004,2018-06-29 09:13:30.875000,23.64,74.47
55005,2018-06-29 09:13:30.906250,41.42,74.47
55006,2018-06-29 09:13:30.937500,70.45,74.47
55007,2018-06-29 09:13:30.968750,92.97,74.47
55008,2018-06-29 09:13:31.000000,86.78,74.47
55009,2018-06-29 09:13:31.031250,50.17,74.47
55010,2018-06-29 09:13:31.062500,8.39,74.47
55011,2018-06-29 09:13:31.093750,-12.76,74.47
55012,2018-06-29 09:13:31.125000,-13.99,74.47
55013,2018-06-29 09:13:31.156250,-12.97,74.47
55014,2018-06-29 09:13:31.187500,-17.79,74.47
55015,2018-06-29 09:13:31.218750,-25.02,74.47
55016,2018-06-29 09:13:31.250000,-32.91,74.47
55017,2018-06-29 09:13:31.281250,-40.9,74.47
55018,2018-06-29 09:13:31.312500,-44.42,74.47
55019,2018-06-29 09:13:31.343750,-41.32,74.47
55020,2018-06-29 09:13:31.375000,-36.56,74.47
55021,2018-06-29 09:13:31.406250,-34.72,74.47
55022,2018-06-29 09:13:31.437500,-34.08,74.47
55023,2018-06-29 09:13:31.468750,-31.62,74.47
55024,2018-06-29 09:13:31.500000,-28.79,74.47
55025,2018-06-29 09:13:31.531250,-28.93,74.43
55026,2018-06-29 09:13:31.562500,-32.33,74.43
55027,2018-06-29 09:13:31.593750,-36.52,74.43
55028,2018-06-29 09:13:31.625000,-38.87,74.43
55029,2018-06-29 09:13:31.656250,-37.1,74.43
55030,2018-06-29 09:13:31.687500,-28.68,74.43
55031,2018-06-29 09:13:31.718750,-11.59,74.43
55032,2018-06-29 09:13:31.750000,10.99,74.43
55033,2018-06-29 09:13:31.781250,29.55,74.43
55034,2018-06-29 09:13:31.812500,37.35,74.43
55035,2018-06-29 09:13:31.843750,37.09,74.43
55036,2018-06-29 09:13:31.875000,34.34,74.43
55037,2018-06-29 09:13:31.906250,31.89,74.43
55038,2018-06-29 09:13:31.937500,32.9,74.43
55039,2018-06-29 09:13:31.968750,39.59,74.43
55040,2018-06-29 09:13:32.000000,48.51,74.43
55041,2018-06-29 09:13:32.031250,54.23,74.43
55042,2018-06-29 09:13:32.062500,55.14,74.43
55043,2018-06-29 09:13:32.093750,52.35,74.43
55044,2018-06-29 09:13:32.125000,47.62,74.43
55045,2018-06-29 09:13:32.156250,43.26,74.43
55046,2018-06-29 09:13:32.187500,41.59,74.43
55047,2018-06-29 09:13:32.218750,45.57,74.43
55048,2018-06-29 09:13:32.250000,57.58,74.43
55049,2018-06-29 09:13:32.281250,71.97,74.43
55050,2018-06-29 09:13:32.312500,73.7,74.43
55051,2018-06-29 09:13:32.343750,51.11,74.43
55052,2018-06-29 09:13:32.375000,7.5,74.43
55053,2018-06-29 09:13:32.406250,-40.47,74.43
55054,2018-06-29 09:13:32.437500,-71.96,74.43
55055,2018-06-29 09:13:32.468750,-74.3,74.43
55056,2018-06-29 09:13:32.500000,-52.79,74.43
55057,2018-06-29 09:13:32.531250,-25.3,74.38
55058,2018-06-29 09:13:32.562500,-4.82,74.38
55059,2018-06-29 09:13:32.593750,8.88,74.38
55060,2018-06-29 09:13:32.625000,22.53,74.38
55061,2018-06-29 09:13:32.656250,40.04,74.38
55062,2018-06-29 09:13:32.687500,60.42,74.38
55063,2018-06-29 09:13:32.718750,80.69,74.38
55064,2018-06-29 09:13:32.750000,98.82,74.38
55065,2018-06-29 09:13:32.781250,116.01,74.38
55066,2018-06-29 09:13:32.812500,136.44,74.38
55067,2018-06-29 09:13:32.843750,160.11,74.38
55068,2018-06-29 09:13:32.875000,175.67,74.38
55069,2018-06-29 09:13:32.906250,167.78,74.38
55070,2018-06-29 09:13:32.937500,135.14,74.38
55071,2018-06-29 09:13:32.968750,94.59,74.38
55072,2018-06-29 09:13:33.000000,63.71,74.38
55073,2018-06-29 09:13:33.031250,45.18,74.38
55074,2018-06-29 09:13:33.062500,30.28,74.38
55075,2018-06-29 09:13:33.093750,10.28,74.38
55076,2018-06-29 09:13:33.125000,-19.07,74.38
55077,2018-06-29 09:13:33.156250,-54.82,74.38
55078,2018-06-29 09:13:33.187500,-83.38,74.38
55079,2018-06-29 09:13:33.218750,-88.6,74.38
55080,2018-06-29 09:13:33.250000,-69.01,74.38
55081,2018-06-29 09:13:33.281250,-38.95,74.38
55082,2018-06-29 09:13:33.312500,-10.94,74.38
55083,2018-06-29 09:13:33.343750,12.15,74.38
55084,2018-06-29 09:13:33.375000,27.86,74.38
55085,2018-06-29 09:13:33.406250,32.3,74.38
55086,2018-06-29 09:13:33.437500,28.56,74.38
55087,2018-06-29 09:13:33.468750,24.47,74.38
55088,2018-06-29 09:13:33.500000,22.28,74.38
55089,2018-06-29 09:13:33.531250,19.68,74.32
55090,2018-06-29 09:13:33.562500,17.76,74.32
55091,2018-06-29 09:13:33.593750,19.53,74.32
55092,2018-06-29 09:13:33.625000,23.82,74.32
55093,2018-06-29 09:13:33.656250,26.48,74.32
55094,2018-06-29 09:13:33.687500,24.7,74.32
55095,2018-06-29 09:13:33.718750,18.12,74.32
55096,2018-06-29 09:13:33.750000,9.25,74.32
55097,2018-06-29 09:13:33.781250,1.6,74.32
55098,2018-06-29 09:13:33.812500,-6.04,74.32
55099,2018-06-29 09:13:33.843750,-18.91,74.32
55100,2018-06-29 09:13:33.875000,-36.59,74.32
55101,2018-06-29 09:13:33.906250,-50.15,74.32
55102,2018-06-29 09:13:33.937500,-54.74,74.32
55103,2018-06-29 09:13:33.968750,-58.09,74.32
55104,2018-06-29 09:13:34.000000,-67.31,74.32
55105,2018-06-29 09:13:34.031250,-74.68,74.32
55106,2018-06-29 09:13:34.062500,-71.09,74.32
55107,2018-06-29 09:13:34.093750,-63.25,74.32
55108,2018-06-29 09:13:34.125000,-61.4,74.32
55109,2018-06-29 09:13:34.156250,-67.1,74.32
55110,2018-06-29 09:13:34.187500,-84.22,74.32
55111,2018-06-29 09:13:34.218750,-118.19,74.32
55112,2018-06-29 09:13:34.250000,-163.77,74.32
55113,2018-06-29 09:13:34.281250,-218.61,74.32
55114,2018-06-29 09:13:34.312500,-287.27,74.32
55115,2018-06-29 09:13:34.343750,-340.26,74.32
55116,2018-06-29 09:13:34.375000,-317.46,74.32
55117,2018-06-29 09:13:34.406250,-214.07,74.32
55118,2018-06-29 09:13:34.437500,-106.9,74.32
55119,2018-06-29 09:13:34.468750,-58.82,74.32
55120,2018-06-29 09:13:34.500000,-55.38,74.32
55121,2018-06-29 09:13:34.531250,-59.23,74.18
55122,2018-06-29 09:13:34.562500,-62.17,74.18
55123,2018-06-29 09:13:34.593750,-64.16,74.18
55124,2018-06-29 09:13:34.625000,-55.59,74.18
55125,2018-06-29 09:13:34.656250,-37.2,74.18
55126,2018-06-29 09:13:34.687500,-24.24,74.18
55127,2018-06-29 09:13:34.718750,-22.18,74.18
55128,2018-06-29 09:13:34.750000,-18.56,74.18
55129,2018-06-29 09:13:34.781250,-3.1,74.18
55130,2018-06-29 09:13:34.812500,17.6,74.18
55131,2018-06-29 09:13:34.843750,33.01,74.18
55132,2018-06-29 09:13:34.875000,46.37,74.18
55133,2018-06-29 09:13:34.906250,62.94,74.18
55134,2018-06-29 09:13:34.937500,74.21,74.18
55135,2018-06-29 09:13:34.968750,76.68,74.18
55136,2018-06-29 09:13:35.000000,83.49,74.18
55137,2018-06-29 09:13:35.031250,98.41,74.18
55138,2018-06-29 09:13:35.062500,107.35,74.18
55139,2018-06-29 09:13:35.093750,103.73,74.18
55140,2018-06-29 09:13:35.125000,92.31,74.18
55141,2018-06-29 09:13:35.156250,73.52,74.18
55142,2018-06-29 09:13:35.187500,47.97,74.18
55143,2018-06-29 09:13:35.218750,21.25,74.18
55144,2018-06-29 09:13:35.250000,-6.76,74.18
55145,2018-06-29 09:13:35.281250,-40.49,74.18
55146,2018-06-29 09:13:35.312500,-74.75,74.18
55147,2018-06-29 09:13:35.343750,-95.31,74.18
55148,2018-06-29 09:13:35.375000,-94.33,74.18
55149,2018-06-29 09:13:35.406250,-77.77,74.18
55150,2018-06-29 09:13:35.437500,-55.04,74.18
55151,2018-06-29 09:13:35.468750,-28.05,74.18
55152,2018-06-29 09:13:35.500000,3.41,74.18
55153,2018-06-29 09:13:35.531250,31.06,74.03
55154,2018-06-29 09:13:35.562500,41.18,74.03
55155,2018-06-29 09:13:35.593750,30.42,74.03
55156,2018-06-29 09:13:35.625000,16.01,74.03
55157,2018-06-29 09:13:35.656250,25.35,74.03
55158,2018-06-29 09:13:35.687500,67.06,74.03
55159,2018-06-29 09:13:35.718750,115.59,74.03
55160,2018-06-29 09:13:35.750000,139.36,74.03
55161,2018-06-29 09:13:35.781250,136.84,74.03
55162,2018-06-29 09:13:35.812500,127.51,74.03
55163,2018-06-29 09:13:35.843750,118.01,74.03
55164,2018-06-29 09:13:35.875000,97.4,74.03
55165,2018-06-29 09:13:35.906250,57.95,74.03
55166,2018-06-29 09:13:35.937500,4.32,74.03
55167,2018-06-29 09:13:35.968750,-53.07,74.03
55168,2018-06-29 09:13:36.000000,-103.16,74.03
55169,2018-06-29 09:13:36.031250,-135.58,74.03
55170,2018-06-29 09:13:36.062500,-145.85,74.03
55171,2018-06-29 09:13:36.093750,-139.33,74.03
55172,2018-06-29 09:13:36.125000,-122.22,74.03
55173,2018-06-29 09:13:36.156250,-92.05,74.03
55174,2018-06-29 09:13:36.187500,-44.98,74.03
55175,2018-06-29 09:13:36.218750,13.22,74.03
55176,2018-06-29 09:13:36.250000,70.7,74.03
55177,2018-06-29 09:13:36.281250,118.19,74.03
55178,2018-06-29 09:13:36.312500,150.44,74.03
55179,2018-06-29 09:13:36.343750,164.19,74.03
55180,2018-06-29 09:13:36.375000,157.83,74.03
55181,2018-06-29 09:13:36.406250,132.22,74.03
55182,2018-06-29 09:13:36.437500,91.58,74.03
55183,2018-06-29 09:13:36.468750,42.86,74.03
55184,2018-06-29 09:13:36.500000,-7.14,74.03
55185,2018-06-29 09:13:36.531250,-52.62,73.92
55186,2018-06-29 09:13:36.562500,-87.9,73.92
55187,2018-06-29 09:13:36.593750,-108.03,73.92
55188,2018-06-29 09:13:36.625000,-111.29,73.92
55189,2018-06-29 09:13:36.656250,-100.4,73.92
55190,2018-06-29 09:13:36.687500,-80.88,73.92
55191,2018-06-29 09:13:36.718750,-57.29,73.92
55192,2018-06-29 09:13:36.750000,-30.58,73.92
55193,2018-06-29 09:13:36.781250,-0.53,73.92
55194,2018-06-29 09:13:36.812500,29.52,73.92
55195,2018-06-29 09:13:36.843750,52.94,73.92
55196,2018-06-29 09:13:36.875000,64.91,73.92
55197,2018-06-29 09:13:36.906250,65.21,73.92
55198,2018-06-29 09:13:36.937500,55.63,73.92
55199,2018-06-29 09:13:36.968750,37.01,73.92
55200,2018-06-29 09:13:37.000000,10.68,73.92
55201,2018-06-29 09:13:37.031250,-19.26,73.92
55202,2018-06-29 09:13:37.062500,-48.09,73.92
55203,2018-06-29 09:13:37.093750,-74.22,73.92
55204,2018-06-29 09:13:37.125000,-98.03,73.92
55205,2018-06-29 09:13:37.156250,-118.15,73.92
55206,2018-06-29 09:13:37.187500,-130.72,73.92
55207,2018-06-29 09:13:37.218750,-131.61,73.92
55208,2018-06-29 09:13:37.250000,-119.42,73.92
55209,2018-06-29 09:13:37.281250,-97.5,73.92
55210,2018-06-29 09:13:37.312500,-70.61,73.92
55211,2018-06-29 09:13:37.343750,-38.73,73.92
55212,2018-06-29 09:13:37.375000,0.61,73.92
55213,2018-06-29 09:13:37.406250,43.26,73.92
55214,2018-06-29 09:13:37.437500,79.71,73.92
55215,2018-06-29 09:13:37.468750,105.71,73.92
55216,2018-06-29 09:13:37.500000,123.51,73.92
55217,2018-06-29 09:13:37.531250,133.88,74.08
55218,2018-06-29 09:13:37.562500,133.71,74.08
55219,2018-06-29 09:13:37.593750,119.98,74.08
55220,2018-06-29 09:13:37.625000,92.28,74.08
55221,2018-06-29 09:13:37.656250,54.49,74.08
55222,2018-06-29 09:13:37.687500,15.41,74.08
55223,2018-06-29 09:13:37.718750,-15.44,74.08
55224,2018-06-29 09:13:37.750000,-33.59,74.08
55225,2018-06-29 09:13:37.781250,-40.67,74.08
55226,2018-06-29 09:13:37.812500,-40.81,74.08
55227,2018-06-29 09:13:37.843750,-37.08,74.08
55228,2018-06-29 09:13:37.875000,-30.89,74.08
55229,2018-06-29 09:13:37.906250,-23.5,74.08
55230,2018-06-29 09:13:37.937500,-17.25,74.08
55231,2018-06-29 09:13:37.968750,-14.0,74.08
55232,2018-06-29 09:13:38.000000,-11.66,74.08
55233,2018-06-29 09:13:38.031250,-5.39,74.08
55234,2018-06-29 09:13:38.062500,5.82,74.08
55235,2018-06-29 09:13:38.093750,16.32,74.08
55236,2018-06-29 09:13:38.125000,19.43,74.08
55237,2018-06-29 09:13:38.156250,13.54,74.08
55238,2018-06-29 09:13:38.187500,2.38,74.08
55239,2018-06-29 09:13:38.218750,-9.31,74.08
55240,2018-06-29 09:13:38.250000,-20.27,74.08
55241,2018-06-29 09:13:38.281250,-32.3,74.08
55242,2018-06-29 09:13:38.312500,-44.55,74.08
55243,2018-06-29 09:13:38.343750,-51.47,74.08
55244,2018-06-29 09:13:38.375000,-49.34,74.08
55245,2018-06-29 09:13:38.406250,-41.63,74.08
55246,2018-06-29 09:13:38.437500,-34.75,74.08
55247,2018-06-29 09:13:38.468750,-30.0,74.08
55248,2018-06-29 09:13:38.500000,-21.21,74.08
55249,2018-06-29 09:13:38.531250,-0.31,74.25
55250,2018-06-29 09:13:38.562500,32.31,74.25
55251,2018-06-29 09:13:38.593750,64.47,74.25
55252,2018-06-29 09:13:38.625000,84.17,74.25
55253,2018-06-29 09:13:38.656250,91.97,74.25
55254,2018-06-29 09:13:38.687500,94.19,74.25
55255,2018-06-29 09:13:38.718750,88.2,74.25
55256,2018-06-29 09:13:38.750000,65.11,74.25
55257,2018-06-29 09:13:38.781250,25.48,74.25
55258,2018-06-29 09:13:38.812500,-18.21,74.25
55259,2018-06-29 09:13:38.843750,-54.14,74.25
55260,2018-06-29 09:13:38.875000,-77.45,74.25
55261,2018-06-29 09:13:38.906250,-85.83,74.25
55262,2018-06-29 09:13:38.937500,-79.07,74.25
55263,2018-06-29 09:13:38.968750,-63.62,74.25
55264,2018-06-29 09:13:39.000000,-47.92,74.25
55265,2018-06-29 09:13:39.031250,-32.67,74.25
55266,2018-06-29 09:13:39.062500,-11.71,74.25
55267,2018-06-29 09:13:39.093750,19.69,74.25
55268,2018-06-29 09:13:39.125000,59.82,74.25
55269,2018-06-29 09:13:39.156250,97.02,74.25
55270,2018-06-29 09:13:39.187500,115.87,74.25
55271,2018-06-29 09:13:39.218750,115.14,74.25
55272,2018-06-29 09:13:39.250000,106.48,74.25
55273,2018-06-29 09:13:39.281250,91.4,74.25
55274,2018-06-29 09:13:39.312500,61.04,74.25
55275,2018-06-29 09:13:39.343750,18.27,74.25
55276,2018-06-29 09:13:39.375000,-22.79,74.25
55277,2018-06-29 09:13:39.406250,-55.0,74.25
55278,2018-06-29 09:13:39.437500,-79.45,74.25
55279,2018-06-29 09:13:39.468750,-97.18,74.25
55280,2018-06-29 09:13:39.500000,-109.19,74.25
55281,2018-06-29 09:13:39.531250,-116.55,74.47
55282,2018-06-29 09:13:39.562500,-116.05,74.47
55283,2018-06-29 09:13:39.593750,-102.34,74.47
55284,2018-06-29 09:13:39.625000,-77.26,74.47
55285,2018-06-29 09:13:39.656250,-50.68,74.47
55286,2018-06-29 09:13:39.687500,-28.95,74.47
55287,2018-06-29 09:13:39.718750,-7.63,74.47
55288,2018-06-29 09:13:39.750000,19.97,74.47
55289,2018-06-29 09:13:39.781250,50.84,74.47
55290,2018-06-29 09:13:39.812500,74.2,74.47
55291,2018-06-29 09:13:39.843750,84.95,74.47
55292,2018-06-29 09:13:39.875000,88.56,74.47
55293,2018-06-29 09:13:39.906250,89.78,74.47
55294,2018-06-29 09:13:39.937500,83.71,74.47
55295,2018-06-29 09:13:39.968750,64.24,74.47
55296,2018-06-29 09:13:40.000000,34.21,74.47
55297,2018-06-29 09:13:40.031250,1.7,74.47
55298,2018-06-29 09:13:40.062500,-27.76,74.47
55299,2018-06-29 09:13:40.093750,-50.72,74.47
55300,2018-06-29 09:13:40.125000,-63.39,74.47
55301,2018-06-29 09:13:40.156250,-64.98,74.47
55302,2018-06-29 09:13:40.187500,-60.51,74.47
55303,2018-06-29 09:13:40.218750,-56.39,74.47
55304,2018-06-29 09:13:40.250000,-53.54,74.47
55305,2018-06-29 09:13:40.281250,-46.73,74.47
55306,2018-06-29 09:13:40.312500,-30.64,74.47
55307,2018-06-29 09:13:40.343750,-5.8,74.47
55308,2018-06-29 09:13:40.375000,20.81,74.47
55309,2018-06-29 09:13:40.406250,40.32,74.47
55310,2018-06-29 09:13:40.437500,47.78,74.47
55311,2018-06-29 09:13:40.468750,44.29,74.47
55312,2018-06-29 09:13:40.500000,34.49,74.47
55313,2018-06-29 09:13:40.531250,22.99,74.85
55314,2018-06-29 09:13:40.562500,12.22,74.85
55315,2018-06-29 09:13:40.593750,2.56,74.85
55316,2018-06-29 09:13:40.625000,-5.89,74.85
55317,2018-06-29 09:13:40.656250,-11.9,74.85
55318,2018-06-29 09:13:40.687500,-14.33,74.85
55319,2018-06-29 09:13:40.718750,-13.85,74.85
55320,2018-06-29 09:13:40.750000,-12.99,74.85
55321,2018-06-29 09:13:40.781250,-14.41,74.85
55322,2018-06-29 09:13:40.812500,-18.69,74.85
55323,2018-06-29 09:13:40.843750,-23.58,74.85
55324,2018-06-29 09:13:40.875000,-25.78,74.85
55325,2018-06-29 09:13:40.906250,-23.62,74.85
55326,2018-06-29 09:13:40.937500,-18.43,74.85
55327,2018-06-29 09:13:40.968750,-13.04,74.85
55328,2018-06-29 09:13:41.000000,-7.33,74.85
55329,2018-06-29 09:13:41.031250,2.91,74.85
55330,2018-06-29 09:13:41.062500,19.55,74.85
55331,2018-06-29 09:13:41.093750,37.71,74.85
55332,2018-06-29 09:13:41.125000,50.58,74.85
55333,2018-06-29 09:13:41.156250,55.12,74.85
55334,2018-06-29 09:13:41.187500,51.96,74.85
55335,2018-06-29 09:13:41.218750,43.62,74.85
55336,2018-06-29 09:13:41.250000,33.55,74.85
55337,2018-06-29 09:13:41.281250,24.77,74.85
55338,2018-06-29 09:13:41.312500,19.0,74.85
55339,2018-06-29 09:13:41.343750,15.87,74.85
55340,2018-06-29 09:13:41.375000,12.97,74.85
55341,2018-06-29 09:13:41.406250,9.15,74.85
55342,2018-06-29 09:13:41.437500,6.16,74.85
55343,2018-06-29 09:13:41.468750,4.82,74.85
55344,2018-06-29 09:13:41.500000,2.75,74.85
55345,2018-06-29 09:13:41.531250,-1.8,75.25
55346,2018-06-29 09:13:41.562500,-7.57,75.25
55347,2018-06-29 09:13:41.593750,-12.6,75.25
55348,2018-06-29 09:13:41.625000,-16.61,75.25
55349,2018-06-29 09:13:41.656250,-20.85,75.25
55350,2018-06-29 09:13:41.687500,-27.16,75.25
55351,2018-06-29 09:13:41.718750,-35.52,75.25
55352,2018-06-29 09:13:41.750000,-41.78,75.25
55353,2018-06-29 09:13:41.781250,-39.76,75.25
55354,2018-06-29 09:13:41.812500,-27.22,75.25
55355,2018-06-29 09:13:41.843750,-8.69,75.25
55356,2018-06-29 09:13:41.875000,9.32,75.25
55357,2018-06-29 09:13:41.906250,23.87,75.25
55358,2018-06-29 09:13:41.937500,34.34,75.25
55359,2018-06-29 09:13:41.968750,39.59,75.25
55360,2018-06-29 09:13:42.000000,38.97,75.25
55361,2018-06-29 09:13:42.031250,33.69,75.25
55362,2018-06-29 09:13:42.062500,26.12,75.25
55363,2018-06-29 09:13:42.093750,18.73,75.25
55364,2018-06-29 09:13:42.125000,13.2,75.25
55365,2018-06-29 09:13:42.156250,9.73,75.25
55366,2018-06-29 09:13:42.187500,7.64,75.25
55367,2018-06-29 09:13:42.218750,6.05,75.25
55368,2018-06-29 09:13:42.250000,3.68,75.25
55369,2018-06-29 09:13:42.281250,-0.45,75.25
55370,2018-06-29 09:13:42.312500,-5.69,75.25
55371,2018-06-29 09:13:42.343750,-10.37,75.25
55372,2018-06-29 09:13:42.375000,-13.95,75.25
55373,2018-06-29 09:13:42.406250,-18.06,75.25
55374,2018-06-29 09:13:42.437500,-24.91,75.25
55375,2018-06-29 09:13:42.468750,-34.58,75.25
55376,2018-06-29 09:13:42.500000,-43.23,75.25
55377,2018-06-29 09:13:42.531250,-44.61,75.78
55378,2018-06-29 09:13:42.562500,-35.85,75.78
55379,2018-06-29 09:13:42.593750,-21.2,75.78
55380,2018-06-29 09:13:42.625000,-7.63,75.78
55381,2018-06-29 09:13:42.656250,1.92,75.78
55382,2018-06-29 09:13:42.687500,8.77,75.78
55383,2018-06-29 09:13:42.718750,14.3,75.78
55384,2018-06-29 09:13:42.750000,17.9,75.78
55385,2018-06-29 09:13:42.781250,17.97,75.78
55386,2018-06-29 09:13:42.812500,14.34,75.78
55387,2018-06-29 09:13:42.843750,9.53,75.78
55388,2018-06-29 09:13:42.875000,6.3,75.78
55389,2018-06-29 09:13:42.906250,4.83,75.78
55390,2018-06-29 09:13:42.937500,4.03,75.78
55391,2018-06-29 09:13:42.968750,3.69,75.78
55392,2018-06-29 09:13:43.000000,3.8,75.78
55393,2018-06-29 09:13:43.031250,3.44,75.78
55394,2018-06-29 09:13:43.062500,1.79,75.78
55395,2018-06-29 09:13:43.093750,-0.18,75.78
55396,2018-06-29 09:13:43.125000,-0.76,75.78
55397,2018-06-29 09:13:43.156250,-0.79,75.78
55398,2018-06-29 09:13:43.187500,-3.88,75.78
55399,2018-06-29 09:13:43.218750,-12.01,75.78
55400,2018-06-29 09:13:43.250000,-22.61,75.78
55401,2018-06-29 09:13:43.281250,-29.53,75.78
55402,2018-06-29 09:13:43.312500,-26.78,75.78
55403,2018-06-29 09:13:43.343750,-13.68,75.78
55404,2018-06-29 09:13:43.375000,3.53,75.78
55405,2018-06-29 09:13:43.406250,17.73,75.78
55406,2018-06-29 09:13:43.437500,27.39,75.78
55407,2018-06-29 09:13:43.468750,34.61,75.78
55408,2018-06-29 09:13:43.500000,39.56,75.78
55409,2018-06-29 09:13:43.531250,40.46,76.33
55410,2018-06-29 09:13:43.562500,37.05,76.33
55411,2018-06-29 09:13:43.593750,31.21,76.33
55412,2018-06-29 09:13:43.625000,25.16,76.33
55413,2018-06-29 09:13:43.656250,20.76,76.33
55414,2018-06-29 09:13:43.687500,18.39,76.33
55415,2018-06-29 09:13:43.718750,16.09,76.33
55416,2018-06-29 09:13:43.750000,11.87,76.33
55417,2018-06-29 09:13:43.781250,6.38,76.33
55418,2018-06-29 09:13:43.812500,1.45,76.33
55419,2018-06-29 09:13:43.843750,-3.19,76.33
55420,2018-06-29 09:13:43.875000,-9.3,76.33
55421,2018-06-29 09:13:43.906250,-16.87,76.33
55422,2018-06-29 09:13:43.937500,-23.99,76.33
55423,2018-06-29 09:13:43.968750,-28.01,76.33
55424,2018-06-29 09:13:44.000000,-28.24,76.33
55425,2018-06-29 09:13:44.031250,-29.0,76.33
55426,2018-06-29 09:13:44.062500,-34.7,76.33
55427,2018-06-29 09:13:44.093750,-40.62,76.33
55428,2018-06-29 09:13:44.125000,-37.21,76.33
55429,2018-06-29 09:13:44.156250,-23.08,76.33
55430,2018-06-29 09:13:44.187500,-4.91,76.33
55431,2018-06-29 09:13:44.218750,12.22,76.33
55432,2018-06-29 09:13:44.250000,25.25,76.33
55433,2018-06-29 09:13:44.281250,30.35,76.33
55434,2018-06-29 09:13:44.312500,27.6,76.33
55435,2018-06-29 09:13:44.343750,23.91,76.33
55436,2018-06-29 09:13:44.375000,25.23,76.33
55437,2018-06-29 09:13:44.406250,29.69,76.33
55438,2018-06-29 09:13:44.437500,32.88,76.33
55439,2018-06-29 09:13:44.468750,34.26,76.33
55440,2018-06-29 09:13:44.500000,33.97,76.33
55441,2018-06-29 09:13:44.531250,30.49,76.92
55442,2018-06-29 09:13:44.562500,25.58,76.92
55443,2018-06-29 09:13:44.593750,23.87,76.92
55444,2018-06-29 09:13:44.625000,24.97,76.92
55445,2018-06-29 09:13:44.656250,24.1,76.92
55446,2018-06-29 09:13:44.687500,21.19,76.92
55447,2018-06-29 09:13:44.718750,20.9,76.92
55448,2018-06-29 09:13:44.750000,24.01,76.92
55449,2018-06-29 09:13:44.781250,26.09,76.92
55450,2018-06-29 09:13:44.812500,24.74,76.92
55451,2018-06-29 09:13:44.843750,23.48,76.92
55452,2018-06-29 09:13:44.875000,29.27,76.92
55453,2018-06-29 09:13:44.906250,46.3,76.92
55454,2018-06-29 09:13:44.937500,68.85,76.92
55455,2018-06-29 09:13:44.968750,83.33,76.92
55456,2018-06-29 09:13:45.000000,81.9,76.92
55457,2018-06-29 09:13:45.031250,69.15,76.92
55458,2018-06-29 09:13:45.062500,50.86,76.92
55459,2018-06-29 09:13:45.093750,25.66,76.92
55460,2018-06-29 09:13:45.125000,-4.55,76.92
55461,2018-06-29 09:13:45.156250,-27.48,76.92
55462,2018-06-29 09:13:45.187500,-35.81,76.92
55463,2018-06-29 09:13:45.218750,-38.34,76.92
55464,2018-06-29 09:13:45.250000,-45.17,76.92
55465,2018-06-29 09:13:45.281250,-53.68,76.92
55466,2018-06-29 09:13:45.312500,-58.45,76.92
55467,2018-06-29 09:13:45.343750,-61.44,76.92
55468,2018-06-29 09:13:45.375000,-64.35,76.92
55469,2018-06-29 09:13:45.406250,-62.9,76.92
55470,2018-06-29 09:13:45.437500,-55.05,76.92
55471,2018-06-29 09:13:45.468750,-45.67,76.92
55472,2018-06-29 09:13:45.500000,-39.03,76.92
55473,2018-06-29 09:13:45.531250,-33.26,77.48
55474,2018-06-29 09:13:45.562500,-25.41,77.48
55475,2018-06-29 09:13:45.593750,-16.31,77.48
55476,2018-06-29 09:13:45.625000,-7.13,77.48
55477,2018-06-29 09:13:45.656250,3.87,77.48
55478,2018-06-29 09:13:45.687500,18.63,77.48
55479,2018-06-29 09:13:45.718750,36.4,77.48
55480,2018-06-29 09:13:45.750000,54.7,77.48
55481,2018-06-29 09:13:45.781250,71.39,77.48
55482,2018-06-29 09:13:45.812500,85.23,77.48
55483,2018-06-29 09:13:45.843750,95.12,77.48
55484,2018-06-29 09:13:45.875000,101.06,77.48
55485,2018-06-29 09:13:45.906250,105.91,77.48
55486,2018-06-29 09:13:45.937500,110.92,77.48
55487,2018-06-29 09:13:45.968750,110.62,77.48
55488,2018-06-29 09:13:46.000000,98.35,77.48
55489,2018-06-29 09:13:46.031250,75.81,77.48
55490,2018-06-29 09:13:46.062500,52.07,77.48
55491,2018-06-29 09:13:46.093750,34.44,77.48
55492,2018-06-29 09:13:46.125000,22.53,77.48
55493,2018-06-29 09:13:46.156250,10.05,77.48
55494,2018-06-29 09:13:46.187500,-7.94,77.48
55495,2018-06-29 09:13:46.218750,-29.97,77.48
55496,2018-06-29 09:13:46.250000,-49.07,77.48
55497,2018-06-29 09:13:46.281250,-58.53,77.48
55498,2018-06-29 09:13:46.312500,-58.89,77.48
55499,2018-06-29 09:13:46.343750,-56.69,77.48
55500,2018-06-29 09:13:46.375000,-55.51,77.48
55501,2018-06-29 09:13:46.406250,-52.58,77.48
55502,2018-06-29 09:13:46.437500,-43.76,77.48
55503,2018-06-29 09:13:46.468750,-27.75,77.48
55504,2018-06-29 09:13:46.500000,-7.4,77.48
55505,2018-06-29 09:13:46.531250,12.45,78.02
55506,2018-06-29 09:13:46.562500,29.22,78.02
55507,2018-06-29 09:13:46.593750,40.07,78.02
55508,2018-06-29 09:13:46.625000,39.1,78.02
55509,2018-06-29 09:13:46.656250,25.44,78.02
55510,2018-06-29 09:13:46.687500,7.56,78.02
55511,2018-06-29 09:13:46.718750,-6.21,78.02
55512,2018-06-29 09:13:46.750000,-13.52,78.02
55513,2018-06-29 09:13:46.781250,-13.47,78.02
55514,2018-06-29 09:13:46.812500,-6.98,78.02
55515,2018-06-29 09:13:46.843750,0.93,78.02
55516,2018-06-29 09:13:46.875000,7.83,78.02
55517,2018-06-29 09:13:46.906250,17.94,78.02
55518,2018-06-29 09:13:46.937500,34.64,78.02
55519,2018-06-29 09:13:46.968750,53.9,78.02
55520,2018-06-29 09:13:47.000000,66.35,78.02
55521,2018-06-29 09:13:47.031250,63.72,78.02
55522,2018-06-29 09:13:47.062500,46.31,78.02
55523,2018-06-29 09:13:47.093750,24.82,78.02
55524,2018-06-29 09:13:47.125000,9.87,78.02
55525,2018-06-29 09:13:47.156250,-0.33,78.02
55526,2018-06-29 09:13:47.187500,-15.67,78.02
55527,2018-06-29 09:13:47.218750,-37.34,78.02
55528,2018-06-29 09:13:47.250000,-52.55,78.02
55529,2018-06-29 09:13:47.281250,-48.91,78.02
55530,2018-06-29 09:13:47.312500,-29.25,78.02
55531,2018-06-29 09:13:47.343750,-11.68,78.02
55532,2018-06-29 09:13:47.375000,-13.47,78.02
55533,2018-06-29 09:13:47.406250,-31.2,78.02
55534,2018-06-29 09:13:47.437500,-43.07,78.02
55535,2018-06-29 09:13:47.468750,-36.42,78.02
55536,2018-06-29 09:13:47.500000,-21.06,78.02
55537,2018-06-29 09:13:47.531250,-11.57,78.35
55538,2018-06-29 09:13:47.562500,-11.83,78.35
55539,2018-06-29 09:13:47.593750,-17.65,78.35
55540,2018-06-29 09:13:47.625000,-21.29,78.35
55541,2018-06-29 09:13:47.656250,-16.67,78.35
55542,2018-06-29 09:13:47.687500,-5.89,78.35
55543,2018-06-29 09:13:47.718750,5.48,78.35
55544,2018-06-29 09:13:47.750000,18.2,78.35
55545,2018-06-29 09:13:47.781250,36.77,78.35
55546,2018-06-29 09:13:47.812500,59.86,78.35
55547,2018-06-29 09:13:47.843750,78.55,78.35
55548,2018-06-29 09:13:47.875000,82.05,78.35
55549,2018-06-29 09:13:47.906250,67.28,78.35
55550,2018-06-29 09:13:47.937500,45.66,78.35
55551,2018-06-29 09:13:47.968750,35.3,78.35
55552,2018-06-29 09:13:48.000000,41.9,78.35
55553,2018-06-29 09:13:48.031250,52.0,78.35
55554,2018-06-29 09:13:48.062500,48.02,78.35
55555,2018-06-29 09:13:48.093750,23.97,78.35
55556,2018-06-29 09:13:48.125000,-15.16,78.35
55557,2018-06-29 09:13:48.156250,-61.17,78.35
55558,2018-06-29 09:13:48.187500,-105.02,78.35
55559,2018-06-29 09:13:48.218750,-138.16,78.35
55560,2018-06-29 09:13:48.250000,-156.36,78.35
55561,2018-06-29 09:13:48.281250,-160.27,78.35
55562,2018-06-29 09:13:48.312500,-150.64,78.35
55563,2018-06-29 09:13:48.343750,-122.57,78.35
55564,2018-06-29 09:13:48.375000,-72.23,78.35
55565,2018-06-29 09:13:48.406250,-9.76,78.35
55566,2018-06-29 09:13:48.437500,46.55,78.35
55567,2018-06-29 09:13:48.468750,87.43,78.35
55568,2018-06-29 09:13:48.500000,112.16,78.35
55569,2018-06-29 09:13:48.531250,118.99,78.67
55570,2018-06-29 09:13:48.562500,110.28,78.67
55571,2018-06-29 09:13:48.593750,96.07,78.67
55572,2018-06-29 09:13:48.625000,80.25,78.67
55573,2018-06-29 09:13:48.656250,53.41,78.67
55574,2018-06-29 09:13:48.687500,6.36,78.67
55575,2018-06-29 09:13:48.718750,-56.25,78.67
55576,2018-06-29 09:13:48.750000,-118.61,78.67
55577,2018-06-29 09:13:48.781250,-165.2,78.67
55578,2018-06-29 09:13:48.812500,-188.74,78.67
55579,2018-06-29 09:13:48.843750,-192.29,78.67
55580,2018-06-29 09:13:48.875000,-184.97,78.67
55581,2018-06-29 09:13:48.906250,-174.09,78.67
55582,2018-06-29 09:13:48.937500,-160.84,78.67
55583,2018-06-29 09:13:48.968750,-142.58,78.67
55584,2018-06-29 09:13:49.000000,-118.1,78.67
55585,2018-06-29 09:13:49.031250,-89.96,78.67
55586,2018-06-29 09:13:49.062500,-61.4,78.67
55587,2018-06-29 09:13:49.093750,-32.72,78.67
55588,2018-06-29 09:13:49.125000,-2.21,78.67
55589,2018-06-29 09:13:49.156250,30.3,78.67
55590,2018-06-29 09:13:49.187500,62.54,78.67
55591,2018-06-29 09:13:49.218750,90.7,78.67
55592,2018-06-29 09:13:49.250000,110.7,78.67
55593,2018-06-29 09:13:49.281250,120.11,78.67
55594,2018-06-29 09:13:49.312500,118.65,78.67
55595,2018-06-29 09:13:49.343750,105.79,78.67
55596,2018-06-29 09:13:49.375000,80.47,78.67
55597,2018-06-29 09:13:49.406250,44.67,78.67
55598,2018-06-29 09:13:49.437500,4.44,78.67
55599,2018-06-29 09:13:49.468750,-33.96,78.67
55600,2018-06-29 09:13:49.500000,-65.88,78.67
55601,2018-06-29 09:13:49.531250,-86.16,78.93
55602,2018-06-29 09:13:49.562500,-90.49,78.93
55603,2018-06-29 09:13:49.593750,-80.9,78.93
55604,2018-06-29 09:13:49.625000,-65.81,78.93
55605,2018-06-29 09:13:49.656250,-52.91,78.93
55606,2018-06-29 09:13:49.687500,-43.68,78.93
55607,2018-06-29 09:13:49.718750,-36.18,78.93
55608,2018-06-29 09:13:49.750000,-29.96,78.93
55609,2018-06-29 09:13:49.781250,-25.59,78.93
55610,2018-06-29 09:13:49.812500,-21.81,78.93
55611,2018-06-29 09:13:49.843750,-16.94,78.93
55612,2018-06-29 09:13:49.875000,-11.31,78.93
55613,2018-06-29 09:13:49.906250,-5.18,78.93
55614,2018-06-29 09:13:49.937500,2.31,78.93
55615,2018-06-29 09:13:49.968750,10.6,78.93
55616,2018-06-29 09:13:50.000000,17.57,78.93
55617,2018-06-29 09:13:50.031250,21.73,78.93
55618,2018-06-29 09:13:50.062500,21.82,78.93
55619,2018-06-29 09:13:50.093750,17.11,78.93
55620,2018-06-29 09:13:50.125000,9.41,78.93
55621,2018-06-29 09:13:50.156250,1.16,78.93
55622,2018-06-29 09:13:50.187500,-7.78,78.93
55623,2018-06-29 09:13:50.218750,-18.92,78.93
55624,2018-06-29 09:13:50.250000,-31.85,78.93
55625,2018-06-29 09:13:50.281250,-42.51,78.93
55626,2018-06-29 09:13:50.312500,-44.26,78.93
55627,2018-06-29 09:13:50.343750,-33.79,78.93
55628,2018-06-29 09:13:50.375000,-16.17,78.93
55629,2018-06-29 09:13:50.406250,-0.57,78.93
55630,2018-06-29 09:13:50.437500,8.28,78.93
55631,2018-06-29 09:13:50.468750,11.51,78.93
55632,2018-06-29 09:13:50.500000,11.84,78.93
55633,2018-06-29 09:13:50.531250,10.88,79.0
55634,2018-06-29 09:13:50.562500,9.22,79.0
55635,2018-06-29 09:13:50.593750,7.05,79.0
55636,2018-06-29 09:13:50.625000,4.54,79.0
55637,2018-06-29 09:13:50.656250,2.12,79.0
55638,2018-06-29 09:13:50.687500,0.26,79.0
55639,2018-06-29 09:13:50.718750,-0.39,79.0
55640,2018-06-29 09:13:50.750000,0.8,79.0
55641,2018-06-29 09:13:50.781250,3.56,79.0
55642,2018-06-29 09:13:50.812500,6.2,79.0
55643,2018-06-29 09:13:50.843750,6.81,79.0
55644,2018-06-29 09:13:50.875000,5.11,79.0
55645,2018-06-29 09:13:50.906250,1.81,79.0
55646,2018-06-29 09:13:50.937500,-2.64,79.0
55647,2018-06-29 09:13:50.968750,-8.23,79.0
55648,2018-06-29 09:13:51.000000,-14.61,79.0
55649,2018-06-29 09:13:51.031250,-21.99,79.0
55650,2018-06-29 09:13:51.062500,-29.16,79.0
55651,2018-06-29 09:13:51.093750,-30.23,79.0
55652,2018-06-29 09:13:51.125000,-19.43,79.0
55653,2018-06-29 09:13:51.156250,1.01,79.0
55654,2018-06-29 09:13:51.187500,20.56,79.0
55655,2018-06-29 09:13:51.218750,31.03,79.0
55656,2018-06-29 09:13:51.250000,29.59,79.0
55657,2018-06-29 09:13:51.281250,17.17,79.0
55658,2018-06-29 09:13:51.312500,-2.15,79.0
55659,2018-06-29 09:13:51.343750,-20.14,79.0
55660,2018-06-29 09:13:51.375000,-30.86,79.0
55661,2018-06-29 09:13:51.406250,-41.1,79.0
55662,2018-06-29 09:13:51.437500,-59.16,79.0
55663,2018-06-29 09:13:51.468750,-79.0,79.0
55664,2018-06-29 09:13:51.500000,-81.84,79.0
55665,2018-06-29 09:13:51.531250,-63.1,79.13
55666,2018-06-29 09:13:51.562500,-33.89,79.13
55667,2018-06-29 09:13:51.593750,8.75,79.13
55668,2018-06-29 09:13:51.625000,48.71,79.13
55669,2018-06-29 09:13:51.656250,75.34,79.13
55670,2018-06-29 09:13:51.687500,95.37,79.13
55671,2018-06-29 09:13:51.718750,113.46,79.13
55672,2018-06-29 09:13:51.750000,126.59,79.13
55673,2018-06-29 09:13:51.781250,134.62,79.13
55674,2018-06-29 09:13:51.812500,138.77,79.13
55675,2018-06-29 09:13:51.843750,138.73,79.13
55676,2018-06-29 09:13:51.875000,130.14,79.13
55677,2018-06-29 09:13:51.906250,113.56,79.13
55678,2018-06-29 09:13:51.937500,93.81,79.13
55679,2018-06-29 09:13:51.968750,75.54,79.13
55680,2018-06-29 09:13:52.000000,62.65,79.13
55681,2018-06-29 09:13:52.031250,56.82,79.13
55682,2018-06-29 09:13:52.062500,56.23,79.13
55683,2018-06-29 09:13:52.093750,52.88,79.13
55684,2018-06-29 09:13:52.125000,39.45,79.13
55685,2018-06-29 09:13:52.156250,20.07,79.13
55686,2018-06-29 09:13:52.187500,11.94,79.13
55687,2018-06-29 09:13:52.218750,29.54,79.13
55688,2018-06-29 09:13:52.250000,66.65,79.13
55689,2018-06-29 09:13:52.281250,100.14,79.13
55690,2018-06-29 09:13:52.312500,108.9,79.13
55691,2018-06-29 09:13:52.343750,85.49,79.13
55692,2018-06-29 09:13:52.375000,36.4,79.13
55693,2018-06-29 09:13:52.406250,-26.65,79.13
55694,2018-06-29 09:13:52.437500,-97.48,79.13
55695,2018-06-29 09:13:52.468750,-172.3,79.13
55696,2018-06-29 09:13:52.500000,-236.4,79.13
55697,2018-06-29 09:13:52.531250,-270.99,79.23
55698,2018-06-29 09:13:52.562500,-274.14,79.23
55699,2018-06-29 09:13:52.593750,-257.53,79.23
55700,2018-06-29 09:13:52.625000,-226.78,79.23
55701,2018-06-29 09:13:52.656250,-181.69,79.23
55702,2018-06-29 09:13:52.687500,-128.28,79.23
55703,2018-06-29 09:13:52.718750,-76.11,79.23
55704,2018-06-29 09:13:52.750000,-29.48,79.23
55705,2018-06-29 09:13:52.781250,10.26,79.23
55706,2018-06-29 09:13:52.812500,40.26,79.23
55707,2018-06-29 09:13:52.843750,60.11,79.23
55708,2018-06-29 09:13:52.875000,74.4,79.23
55709,2018-06-29 09:13:52.906250,86.07,79.23
55710,2018-06-29 09:13:52.937500,91.56,79.23
55711,2018-06-29 09:13:52.968750,86.21,79.23
55712,2018-06-29 09:13:53.000000,71.21,79.23
55713,2018-06-29 09:13:53.031250,52.73,79.23
55714,2018-06-29 09:13:53.062500,36.49,79.23
55715,2018-06-29 09:13:53.093750,24.38,79.23
55716,2018-06-29 09:13:53.125000,14.76,79.23
55717,2018-06-29 09:13:53.156250,5.12,79.23
55718,2018-06-29 09:13:53.187500,-5.01,79.23
55719,2018-06-29 09:13:53.218750,-14.16,79.23
55720,2018-06-29 09:13:53.250000,-21.93,79.23
55721,2018-06-29 09:13:53.281250,-29.77,79.23
55722,2018-06-29 09:13:53.312500,-38.75,79.23
55723,2018-06-29 09:13:53.343750,-48.97,79.23
55724,2018-06-29 09:13:53.375000,-57.99,79.23
55725,2018-06-29 09:13:53.406250,-58.06,79.23
55726,2018-06-29 09:13:53.437500,-42.43,79.23
55727,2018-06-29 09:13:53.468750,-15.68,79.23
55728,2018-06-29 09:13:53.500000,10.37,79.23
55729,2018-06-29 09:13:53.531250,29.74,79.3
55730,2018-06-29 09:13:53.562500,43.65,79.3
55731,2018-06-29 09:13:53.593750,53.27,79.3
55732,2018-06-29 09:13:53.625000,58.89,79.3
55733,2018-06-29 09:13:53.656250,62.11,79.3
55734,2018-06-29 09:13:53.687500,63.71,79.3
55735,2018-06-29 09:13:53.718750,62.64,79.3
55736,2018-06-29 09:13:53.750000,58.97,79.3
55737,2018-06-29 09:13:53.781250,54.42,79.3
55738,2018-06-29 09:13:53.812500,48.77,79.3
55739,2018-06-29 09:13:53.843750,39.81,79.3
55740,2018-06-29 09:13:53.875000,27.23,79.3
55741,2018-06-29 09:13:53.906250,13.73,79.3
55742,2018-06-29 09:13:53.937500,2.51,79.3
55743,2018-06-29 09:13:53.968750,-4.56,79.3
55744,2018-06-29 09:13:54.000000,-7.94,79.3
55745,2018-06-29 09:13:54.031250,-10.66,79.3
55746,2018-06-29 09:13:54.062500,-15.81,79.3
55747,2018-06-29 09:13:54.093750,-24.85,79.3
55748,2018-06-29 09:13:54.125000,-38.39,79.3
55749,2018-06-29 09:13:54.156250,-53.74,79.3
55750,2018-06-29 09:13:54.187500,-61.13,79.3
55751,2018-06-29 09:13:54.218750,-50.28,79.3
55752,2018-06-29 09:13:54.250000,-23.02,79.3
55753,2018-06-29 09:13:54.281250,7.62,79.3
55754,2018-06-29 09:13:54.312500,30.92,79.3
55755,2018-06-29 09:13:54.343750,45.17,79.3
55756,2018-06-29 09:13:54.375000,52.74,79.3
55757,2018-06-29 09:13:54.406250,55.24,79.3
55758,2018-06-29 09:13:54.437500,54.27,79.3
55759,2018-06-29 09:13:54.468750,51.95,79.3
55760,2018-06-29 09:13:54.500000,49.56,79.3
55761,2018-06-29 09:13:54.531250,47.37,79.33
55762,2018-06-29 09:13:54.562500,45.69,79.33
55763,2018-06-29 09:13:54.593750,44.35,79.33
55764,2018-06-29 09:13:54.625000,41.71,79.33
55765,2018-06-29 09:13:54.656250,36.53,79.33
55766,2018-06-29 09:13:54.687500,29.93,79.33
55767,2018-06-29 09:13:54.718750,23.33,79.33
55768,2018-06-29 09:13:54.750000,16.36,79.33
55769,2018-06-29 09:13:54.781250,8.6,79.33
55770,2018-06-29 09:13:54.812500,1.13,79.33
55771,2018-06-29 09:13:54.843750,-5.41,79.33
55772,2018-06-29 09:13:54.875000,-12.52,79.33
55773,2018-06-29 09:13:54.906250,-22.64,79.33
55774,2018-06-29 09:13:54.937500,-36.69,79.33
55775,2018-06-29 09:13:54.968750,-50.3,79.33
55776,2018-06-29 09:13:55.000000,-53.39,79.33
55777,2018-06-29 09:13:55.031250,-39.11,79.33
55778,2018-06-29 09:13:55.062500,-12.67,79.33
55779,2018-06-29 09:13:55.093750,13.81,79.33
55780,2018-06-29 09:13:55.125000,33.04,79.33
55781,2018-06-29 09:13:55.156250,44.43,79.33
55782,2018-06-29 09:13:55.187500,48.59,79.33
55783,2018-06-29 09:13:55.218750,46.88,79.33
55784,2018-06-29 09:13:55.250000,43.09,79.33
55785,2018-06-29 09:13:55.281250,40.22,79.33
55786,2018-06-29 09:13:55.312500,38.05,79.33
55787,2018-06-29 09:13:55.343750,36.36,79.33
55788,2018-06-29 09:13:55.375000,36.17,79.33
55789,2018-06-29 09:13:55.406250,36.52,79.33
55790,2018-06-29 09:13:55.437500,34.48,79.33
55791,2018-06-29 09:13:55.468750,29.27,79.33
55792,2018-06-29 09:13:55.500000,22.66,79.33
55793,2018-06-29 09:13:55.531250,15.76,79.37
55794,2018-06-29 09:13:55.562500,8.08,79.37
55795,2018-06-29 09:13:55.593750,-0.9,79.37
55796,2018-06-29 09:13:55.625000,-10.99,79.37
55797,2018-06-29 09:13:55.656250,-21.43,79.37
55798,2018-06-29 09:13:55.687500,-31.4,79.37
55799,2018-06-29 09:13:55.718750,-41.77,79.37
55800,2018-06-29 09:13:55.750000,-54.8,79.37
55801,2018-06-29 09:13:55.781250,-69.05,79.37
55802,2018-06-29 09:13:55.812500,-76.36,79.37
55803,2018-06-29 09:13:55.843750,-68.48,79.37
55804,2018-06-29 09:13:55.875000,-46.51,79.37
55805,2018-06-29 09:13:55.906250,-20.91,79.37
55806,2018-06-29 09:13:55.937500,-2.03,79.37
55807,2018-06-29 09:13:55.968750,7.22,79.37
55808,2018-06-29 09:13:56.000000,9.85,79.37
55809,2018-06-29 09:13:56.031250,9.41,79.37
55810,2018-06-29 09:13:56.062500,8.08,79.37
55811,2018-06-29 09:13:56.093750,7.66,79.37
55812,2018-06-29 09:13:56.125000,9.26,79.37
55813,2018-06-29 09:13:56.156250,12.12,79.37
55814,2018-06-29 09:13:56.187500,14.28,79.37
55815,2018-06-29 09:13:56.218750,14.6,79.37
55816,2018-06-29 09:13:56.250000,12.78,79.37
55817,2018-06-29 09:13:56.281250,8.47,79.37
55818,2018-06-29 09:13:56.312500,1.99,79.37
55819,2018-06-29 09:13:56.343750,-5.17,79.37
55820,2018-06-29 09:13:56.375000,-12.08,79.37
55821,2018-06-29 09:13:56.406250,-18.76,79.37
55822,2018-06-29 09:13:56.437500,-24.91,79.37
55823,2018-06-29 09:13:56.468750,-30.19,79.37
55824,2018-06-29 09:13:56.500000,-35.11,79.37
55825,2018-06-29 09:13:56.531250,-40.87,79.37
55826,2018-06-29 09:13:56.562500,-48.61,79.37
55827,2018-06-29 09:13:56.593750,-56.12,79.37
55828,2018-06-29 09:13:56.625000,-55.84,79.37
55829,2018-06-29 09:13:56.656250,-42.02,79.37
55830,2018-06-29 09:13:56.687500,-19.46,79.37
55831,2018-06-29 09:13:56.718750,1.08,79.37
55832,2018-06-29 09:13:56.750000,13.97,79.37
55833,2018-06-29 09:13:56.781250,20.15,79.37
55834,2018-06-29 09:13:56.812500,21.66,79.37
55835,2018-06-29 09:13:56.843750,20.06,79.37
55836,2018-06-29 09:13:56.875000,17.77,79.37
55837,2018-06-29 09:13:56.906250,16.61,79.37
55838,2018-06-29 09:13:56.937500,16.38,79.37
55839,2018-06-29 09:13:56.968750,16.49,79.37
55840,2018-06-29 09:13:57.000000,17.14,79.37
55841,2018-06-29 09:13:57.031250,17.72,79.37
55842,2018-06-29 09:13:57.062500,16.15,79.37
55843,2018-06-29 09:13:57.093750,11.39,79.37
55844,2018-06-29 09:13:57.125000,5.15,79.37
55845,2018-06-29 09:13:57.156250,-0.34,79.37
55846,2018-06-29 09:13:57.187500,-5.15,79.37
55847,2018-06-29 09:13:57.218750,-10.71,79.37
55848,2018-06-29 09:13:57.250000,-16.82,79.37
55849,2018-06-29 09:13:57.281250,-21.81,79.37
55850,2018-06-29 09:13:57.312500,-25.43,79.37
55851,2018-06-29 09:13:57.343750,-29.69,79.37
55852,2018-06-29 09:13:57.375000,-36.33,79.37
55853,2018-06-29 09:13:57.406250,-43.18,79.37
55854,2018-06-29 09:13:57.437500,-43.54,79.37
55855,2018-06-29 09:13:57.468750,-32.06,79.37
55856,2018-06-29 09:13:57.500000,-12.23,79.37
55857,2018-06-29 09:13:57.531250,6.16,79.28
55858,2018-06-29 09:13:57.562500,17.06,79.28
55859,2018-06-29 09:13:57.593750,21.22,79.28
55860,2018-06-29 09:13:57.625000,21.23,79.28
55861,2018-06-29 09:13:57.656250,19.11,79.28
55862,2018-06-29 09:13:57.687500,17.03,79.28
55863,2018-06-29 09:13:57.718750,16.3,79.28
55864,2018-06-29 09:13:57.750000,16.37,79.28
55865,2018-06-29 09:13:57.781250,16.15,79.28
55866,2018-06-29 09:13:57.812500,15.52,79.28
55867,2018-06-29 09:13:57.843750,14.67,79.28
55868,2018-06-29 09:13:57.875000,12.68,79.28
55869,2018-06-29 09:13:57.906250,8.26,79.28
55870,2018-06-29 09:13:57.937500,2.51,79.28
55871,2018-06-29 09:13:57.968750,-1.76,79.28
55872,2018-06-29 09:13:58.000000,-4.04,79.28
55873,2018-06-29 09:13:58.031250,-6.41,79.28
55874,2018-06-29 09:13:58.062500,-9.58,79.28
55875,2018-06-29 09:13:58.093750,-12.13,79.28
55876,2018-06-29 09:13:58.125000,-13.53,79.28
55877,2018-06-29 09:13:58.156250,-15.5,79.28
55878,2018-06-29 09:13:58.187500,-20.23,79.28
55879,2018-06-29 09:13:58.218750,-27.49,79.28
55880,2018-06-29 09:13:58.250000,-32.88,79.28
55881,2018-06-29 09:13:58.281250,-30.25,79.28
55882,2018-06-29 09:13:58.312500,-17.95,79.28
55883,2018-06-29 09:13:58.343750,-1.67,79.28
55884,2018-06-29 09:13:58.375000,10.87,79.28
55885,2018-06-29 09:13:58.406250,16.73,79.28
55886,2018-06-29 09:13:58.437500,17.42,79.28
55887,2018-06-29 09:13:58.468750,15.19,79.28
55888,2018-06-29 09:13:58.500000,12.31,79.28
55889,2018-06-29 09:13:58.531250,11.19,79.17
55890,2018-06-29 09:13:58.562500,12.5,79.17
55891,2018-06-29 09:13:58.593750,14.41,79.17
55892,2018-06-29 09:13:58.625000,14.81,79.17
55893,2018-06-29 09:13:58.656250,13.33,79.17
55894,2018-06-29 09:13:58.687500,10.73,79.17
55895,2018-06-29 09:13:58.718750,7.57,79.17
55896,2018-06-29 09:13:58.750000,4.15,79.17
55897,2018-06-29 09:13:58.781250,1.01,79.17
55898,2018-06-29 09:13:58.812500,-2.05,79.17
55899,2018-06-29 09:13:58.843750,-5.98,79.17
55900,2018-06-29 09:13:58.875000,-10.45,79.17
55901,2018-06-29 09:13:58.906250,-13.78,79.17
55902,2018-06-29 09:13:58.937500,-15.9,79.17
55903,2018-06-29 09:13:58.968750,-19.01,79.17
55904,2018-06-29 09:13:59.000000,-24.49,79.17
55905,2018-06-29 09:13:59.031250,-30.43,79.17
55906,2018-06-29 09:13:59.062500,-31.94,79.17
55907,2018-06-29 09:13:59.093750,-24.75,79.17
55908,2018-06-29 09:13:59.125000,-10.01,79.17
55909,2018-06-29 09:13:59.156250,6.08,79.17
55910,2018-06-29 09:13:59.187500,18.33,79.17
55911,2018-06-29 09:13:59.218750,25.42,79.17
55912,2018-06-29 09:13:59.250000,28.41,79.17
55913,2018-06-29 09:13:59.281250,29.39,79.17
55914,2018-06-29 09:13:59.312500,30.98,79.17
55915,2018-06-29 09:13:59.343750,34.81,79.17
55916,2018-06-29 09:13:59.375000,40.47,79.17
55917,2018-06-29 09:13:59.406250,45.85,79.17
55918,2018-06-29 09:13:59.437500,48.31,79.17
55919,2018-06-29 09:13:59.468750,46.32,79.17
55920,2018-06-29 09:13:59.500000,39.92,79.17
55921,2018-06-29 09:13:59.531250,29.77,79.03
55922,2018-06-29 09:13:59.562500,17.13,79.03
55923,2018-06-29 09:13:59.593750,5.11,79.03
55924,2018-06-29 09:13:59.625000,-2.18,79.03
55925,2018-06-29 09:13:59.656250,-3.51,79.03
55926,2018-06-29 09:13:59.687500,-1.8,79.03
55927,2018-06-29 09:13:59.718750,-0.33,79.03
55928,2018-06-29 09:13:59.750000,-0.15,79.03
55929,2018-06-29 09:13:59.781250,-2.03,79.03
55930,2018-06-29 09:13:59.812500,-7.72,79.03
55931,2018-06-29 09:13:59.843750,-17.4,79.03
55932,2018-06-29 09:13:59.875000,-27.9,79.03
55933,2018-06-29 09:13:59.906250,-34.12,79.03
55934,2018-06-29 09:13:59.937500,-33.28,79.03
55935,2018-06-29 09:13:59.968750,-27.72,79.03
55936,2018-06-29 09:14:00.000000,-22.11,79.03
55937,2018-06-29 09:14:00.031250,-18.29,79.03
55938,2018-06-29 09:14:00.062500,-15.33,79.03
55939,2018-06-29 09:14:00.093750,-13.3,79.03
55940,2018-06-29 09:14:00.125000,-12.97,79.03
55941,2018-06-29 09:14:00.156250,-13.08,79.03
55942,2018-06-29 09:14:00.187500,-12.17,79.03
55943,2018-06-29 09:14:00.218750,-11.05,79.03
55944,2018-06-29 09:14:00.250000,-10.7,79.03
55945,2018-06-29 09:14:00.281250,-10.39,79.03
55946,2018-06-29 09:14:00.312500,-9.28,79.03
55947,2018-06-29 09:14:00.343750,-7.92,79.03
55948,2018-06-29 09:14:00.375000,-6.99,79.03
55949,2018-06-29 09:14:00.406250,-6.45,79.03
55950,2018-06-29 09:14:00.437500,-6.61,79.03
55951,2018-06-29 09:14:00.468750,-8.21,79.03
55952,2018-06-29 09:14:00.500000,-10.71,79.03
55953,2018-06-29 09:14:00.531250,-12.6,78.92
55954,2018-06-29 09:14:00.562500,-13.53,78.92
55955,2018-06-29 09:14:00.593750,-14.04,78.92
55956,2018-06-29 09:14:00.625000,-13.76,78.92
55957,2018-06-29 09:14:00.656250,-12.89,78.92
55958,2018-06-29 09:14:00.687500,-13.94,78.92
55959,2018-06-29 09:14:00.718750,-18.89,78.92
55960,2018-06-29 09:14:00.750000,-25.17,78.92
55961,2018-06-29 09:14:00.781250,-25.91,78.92
55962,2018-06-29 09:14:00.812500,-16.66,78.92
55963,2018-06-29 09:14:00.843750,-1.34,78.92
55964,2018-06-29 09:14:00.875000,11.47,78.92
55965,2018-06-29 09:14:00.906250,18.34,78.92
55966,2018-06-29 09:14:00.937500,21.46,78.92
55967,2018-06-29 09:14:00.968750,20.96,78.92
55968,2018-06-29 09:14:01.000000,15.08,78.92
55969,2018-06-29 09:14:01.031250,7.02,78.92
55970,2018-06-29 09:14:01.062500,6.01,78.92
55971,2018-06-29 09:14:01.093750,19.83,78.92
55972,2018-06-29 09:14:01.125000,47.35,78.92
55973,2018-06-29 09:14:01.156250,71.51,78.92
55974,2018-06-29 09:14:01.187500,71.39,78.92
55975,2018-06-29 09:14:01.218750,49.9,78.92
55976,2018-06-29 09:14:01.250000,34.31,78.92
55977,2018-06-29 09:14:01.281250,39.09,78.92
55978,2018-06-29 09:14:01.312500,48.86,78.92
55979,2018-06-29 09:14:01.343750,46.71,78.92
55980,2018-06-29 09:14:01.375000,23.97,78.92
55981,2018-06-29 09:14:01.406250,-14.32,78.92
55982,2018-06-29 09:14:01.437500,-43.48,78.92
55983,2018-06-29 09:14:01.468750,-45.59,78.92
55984,2018-06-29 09:14:01.500000,-19.23,78.92
55985,2018-06-29 09:14:01.531250,21.03,78.82
55986,2018-06-29 09:14:01.562500,52.59,78.82
55987,2018-06-29 09:14:01.593750,66.38,78.82
55988,2018-06-29 09:14:01.625000,67.67,78.82
55989,2018-06-29 09:14:01.656250,64.35,78.82
55990,2018-06-29 09:14:01.687500,60.83,78.82
55991,2018-06-29 09:14:01.718750,56.61,78.82
55992,2018-06-29 09:14:01.750000,46.45,78.82
55993,2018-06-29 09:14:01.781250,24.37,78.82
55994,2018-06-29 09:14:01.812500,-9.03,78.82
55995,2018-06-29 09:14:01.843750,-39.94,78.82
55996,2018-06-29 09:14:01.875000,-56.85,78.82
55997,2018-06-29 09:14:01.906250,-63.2,78.82
55998,2018-06-29 09:14:01.937500,-63.02,78.82
55999,2018-06-29 09:14:01.968750,-48.22,78.82
56000,2018-06-29 09:14:02.000000,-16.92,78.82
56001,2018-06-29 09:14:02.031250,13.67,78.82
56002,2018-06-29 09:14:02.062500,30.13,78.82
56003,2018-06-29 09:14:02.093750,40.54,78.82
56004,2018-06-29 09:14:02.125000,57.73,78.82
56005,2018-06-29 09:14:02.156250,79.11,78.82
56006,2018-06-29 09:14:02.187500,92.96,78.82
56007,2018-06-29 09:14:02.218750,93.39,78.82
56008,2018-06-29 09:14:02.250000,82.44,78.82
56009,2018-06-29 09:14:02.281250,65.56,78.82
56010,2018-06-29 09:14:02.312500,51.33,78.82
56011,2018-06-29 09:14:02.343750,49.73,78.82
56012,2018-06-29 09:14:02.375000,64.72,78.82
56013,2018-06-29 09:14:02.406250,90.54,78.82
56014,2018-06-29 09:14:02.437500,116.51,78.82
56015,2018-06-29 09:14:02.468750,133.51,78.82
56016,2018-06-29 09:14:02.500000,138.0,78.82
56017,2018-06-29 09:14:02.531250,133.64,78.77
56018,2018-06-29 09:14:02.562500,125.2,78.77
56019,2018-06-29 09:14:02.593750,110.12,78.77
56020,2018-06-29 09:14:02.625000,81.92,78.77
56021,2018-06-29 09:14:02.656250,40.11,78.77
56022,2018-06-29 09:14:02.687500,-10.58,78.77
56023,2018-06-29 09:14:02.718750,-65.91,78.77
56024,2018-06-29 09:14:02.750000,-119.32,78.77
56025,2018-06-29 09:14:02.781250,-160.14,78.77
56026,2018-06-29 09:14:02.812500,-182.24,78.77
56027,2018-06-29 09:14:02.843750,-189.42,78.77
56028,2018-06-29 09:14:02.875000,-188.68,78.77
56029,2018-06-29 09:14:02.906250,-182.64,78.77
56030,2018-06-29 09:14:02.937500,-170.82,78.77
56031,2018-06-29 09:14:02.968750,-154.32,78.77
56032,2018-06-29 09:14:03.000000,-136.04,78.77
56033,2018-06-29 09:14:03.031250,-117.97,78.77
56034,2018-06-29 09:14:03.062500,-101.0,78.77
56035,2018-06-29 09:14:03.093750,-87.01,78.77
56036,2018-06-29 09:14:03.125000,-78.22,78.77
56037,2018-06-29 09:14:03.156250,-74.64,78.77
56038,2018-06-29 09:14:03.187500,-72.72,78.77
56039,2018-06-29 09:14:03.218750,-66.97,78.77
56040,2018-06-29 09:14:03.250000,-54.64,78.77
56041,2018-06-29 09:14:03.281250,-38.55,78.77
56042,2018-06-29 09:14:03.312500,-23.74,78.77
56043,2018-06-29 09:14:03.343750,-12.63,78.77
56044,2018-06-29 09:14:03.375000,-5.66,78.77
56045,2018-06-29 09:14:03.406250,-2.9,78.77
56046,2018-06-29 09:14:03.437500,-2.42,78.77
56047,2018-06-29 09:14:03.468750,-0.91,78.77
56048,2018-06-29 09:14:03.500000,2.17,78.77
56049,2018-06-29 09:14:03.531250,4.73,78.73
56050,2018-06-29 09:14:03.562500,5.74,78.73
56051,2018-06-29 09:14:03.593750,5.96,78.73
56052,2018-06-29 09:14:03.625000,5.8,78.73
56053,2018-06-29 09:14:03.656250,4.54,78.73
56054,2018-06-29 09:14:03.687500,1.6,78.73
56055,2018-06-29 09:14:03.718750,-2.13,78.73
56056,2018-06-29 09:14:03.750000,-5.22,78.73
56057,2018-06-29 09:14:03.781250,-7.97,78.73
56058,2018-06-29 09:14:03.812500,-11.58,78.73
56059,2018-06-29 09:14:03.843750,-15.71,78.73
56060,2018-06-29 09:14:03.875000,-19.4,78.73
56061,2018-06-29 09:14:03.906250,-23.41,78.73
56062,2018-06-29 09:14:03.937500,-29.3,78.73
56063,2018-06-29 09:14:03.968750,-36.67,78.73
56064,2018-06-29 09:14:04.000000,-42.32,78.73
56065,2018-06-29 09:14:04.031250,-41.56,78.73
56066,2018-06-29 09:14:04.062500,-32.06,78.73
56067,2018-06-29 09:14:04.093750,-17.16,78.73
56068,2018-06-29 09:14:04.125000,-3.26,78.73
56069,2018-06-29 09:14:04.156250,5.96,78.73
56070,2018-06-29 09:14:04.187500,10.86,78.73
56071,2018-06-29 09:14:04.218750,12.88,78.73
56072,2018-06-29 09:14:04.250000,13.19,78.73
56073,2018-06-29 09:14:04.281250,13.25,78.73
56074,2018-06-29 09:14:04.312500,14.21,78.73
56075,2018-06-29 09:14:04.343750,15.96,78.73
56076,2018-06-29 09:14:04.375000,17.46,78.73
56077,2018-06-29 09:14:04.406250,18.32,78.73
56078,2018-06-29 09:14:04.437500,19.06,78.73
56079,2018-06-29 09:14:04.468750,19.44,78.73
56080,2018-06-29 09:14:04.500000,18.37,78.73
56081,2018-06-29 09:14:04.531250,15.54,78.72
56082,2018-06-29 09:14:04.562500,12.2,78.72
56083,2018-06-29 09:14:04.593750,9.45,78.72
56084,2018-06-29 09:14:04.625000,6.61,78.72
56085,2018-06-29 09:14:04.656250,1.95,78.72
56086,2018-06-29 09:14:04.687500,-4.74,78.72
56087,2018-06-29 09:14:04.718750,-11.19,78.72
56088,2018-06-29 09:14:04.750000,-15.51,78.72
56089,2018-06-29 09:14:04.781250,-18.74,78.72
56090,2018-06-29 09:14:04.812500,-23.38,78.72
56091,2018-06-29 09:14:04.843750,-30.85,78.72
56092,2018-06-29 09:14:04.875000,-39.38,78.72
56093,2018-06-29 09:14:04.906250,-43.36,78.72
56094,2018-06-29 09:14:04.937500,-37.71,78.72
56095,2018-06-29 09:14:04.968750,-23.93,78.72
56096,2018-06-29 09:14:05.000000,-9.03,78.72
56097,2018-06-29 09:14:05.031250,1.69,78.72
56098,2018-06-29 09:14:05.062500,7.99,78.72
56099,2018-06-29 09:14:05.093750,11.59,78.72
56100,2018-06-29 09:14:05.125000,13.65,78.72
56101,2018-06-29 09:14:05.156250,15.2,78.72
56102,2018-06-29 09:14:05.187500,17.11,78.72
56103,2018-06-29 09:14:05.218750,19.35,78.72
56104,2018-06-29 09:14:05.250000,21.17,78.72
56105,2018-06-29 09:14:05.281250,21.86,78.72
56106,2018-06-29 09:14:05.312500,21.28,78.72
56107,2018-06-29 09:14:05.343750,19.69,78.72
56108,2018-06-29 09:14:05.375000,17.36,78.72
56109,2018-06-29 09:14:05.406250,14.85,78.72
56110,2018-06-29 09:14:05.437500,12.7,78.72
56111,2018-06-29 09:14:05.468750,10.54,78.72
56112,2018-06-29 09:14:05.500000,7.75,78.72
56113,2018-06-29 09:14:05.531250,4.86,78.72
56114,2018-06-29 09:14:05.562500,2.65,78.72
56115,2018-06-29 09:14:05.593750,0.9,78.72
56116,2018-06-29 09:14:05.625000,-0.86,78.72
56117,2018-06-29 09:14:05.656250,-3.01,78.72
56118,2018-06-29 09:14:05.687500,-5.9,78.72
56119,2018-06-29 09:14:05.718750,-9.68,78.72
56120,2018-06-29 09:14:05.750000,-14.98,78.72
56121,2018-06-29 09:14:05.781250,-22.93,78.72
56122,2018-06-29 09:14:05.812500,-32.26,78.72
56123,2018-06-29 09:14:05.843750,-37.5,78.72
56124,2018-06-29 09:14:05.875000,-33.04,78.72
56125,2018-06-29 09:14:05.906250,-19.33,78.72
56126,2018-06-29 09:14:05.937500,-3.11,78.72
56127,2018-06-29 09:14:05.968750,8.68,78.72
56128,2018-06-29 09:14:06.000000,14.51,78.72
56129,2018-06-29 09:14:06.031250,16.92,78.72
56130,2018-06-29 09:14:06.062500,18.0,78.72
56131,2018-06-29 09:14:06.093750,18.65,78.72
56132,2018-06-29 09:14:06.125000,20.15,78.72
56133,2018-06-29 09:14:06.156250,23.12,78.72
56134,2018-06-29 09:14:06.187500,25.81,78.72
56135,2018-06-29 09:14:06.218750,26.7,78.72
56136,2018-06-29 09:14:06.250000,26.46,78.72
56137,2018-06-29 09:14:06.281250,25.47,78.72
56138,2018-06-29 09:14:06.312500,22.38,78.72
56139,2018-06-29 09:14:06.343750,17.07,78.72
56140,2018-06-29 09:14:06.375000,12.2,78.72
56141,2018-06-29 09:14:06.406250,9.63,78.72
56142,2018-06-29 09:14:06.437500,7.72,78.72
56143,2018-06-29 09:14:06.468750,4.48,78.72
56144,2018-06-29 09:14:06.500000,1.06,78.72
56145,2018-06-29 09:14:06.531250,-0.64,78.75
56146,2018-06-29 09:14:06.562500,-1.51,78.75
56147,2018-06-29 09:14:06.593750,-3.67,78.75
56148,2018-06-29 09:14:06.625000,-7.13,78.75
56149,2018-06-29 09:14:06.656250,-10.73,78.75
56150,2018-06-29 09:14:06.687500,-14.5,78.75
56151,2018-06-29 09:14:06.718750,-19.42,78.75
56152,2018-06-29 09:14:06.750000,-25.74,78.75
56153,2018-06-29 09:14:06.781250,-31.81,78.75
56154,2018-06-29 09:14:06.812500,-33.65,78.75
56155,2018-06-29 09:14:06.843750,-27.01,78.75
56156,2018-06-29 09:14:06.875000,-12.65,78.75
56157,2018-06-29 09:14:06.906250,2.53,78.75
56158,2018-06-29 09:14:06.937500,12.25,78.75
56159,2018-06-29 09:14:06.968750,16.34,78.75
56160,2018-06-29 09:14:07.000000,17.71,78.75
56161,2018-06-29 09:14:07.031250,17.9,78.75
56162,2018-06-29 09:14:07.062500,17.69,78.75
56163,2018-06-29 09:14:07.093750,18.18,78.75
56164,2018-06-29 09:14:07.125000,19.55,78.75
56165,2018-06-29 09:14:07.156250,20.76,78.75
56166,2018-06-29 09:14:07.187500,21.31,78.75
56167,2018-06-29 09:14:07.218750,21.81,78.75
56168,2018-06-29 09:14:07.250000,22.17,78.75
56169,2018-06-29 09:14:07.281250,20.9,78.75
56170,2018-06-29 09:14:07.312500,17.51,78.75
56171,2018-06-29 09:14:07.343750,13.99,78.75
56172,2018-06-29 09:14:07.375000,12.26,78.75
56173,2018-06-29 09:14:07.406250,11.61,78.75
56174,2018-06-29 09:14:07.437500,10.06,78.75
56175,2018-06-29 09:14:07.468750,7.01,78.75
56176,2018-06-29 09:14:07.500000,3.52,78.75
56177,2018-06-29 09:14:07.531250,0.46,78.78
56178,2018-06-29 09:14:07.562500,-2.71,78.78
56179,2018-06-29 09:14:07.593750,-6.55,78.78
56180,2018-06-29 09:14:07.625000,-10.05,78.78
56181,2018-06-29 09:14:07.656250,-11.92,78.78
56182,2018-06-29 09:14:07.687500,-13.24,78.78
56183,2018-06-29 09:14:07.718750,-16.81,78.78
56184,2018-06-29 09:14:07.750000,-23.43,78.78
56185,2018-06-29 09:14:07.781250,-29.91,78.78
56186,2018-06-29 09:14:07.812500,-30.82,78.78
56187,2018-06-29 09:14:07.843750,-22.88,78.78
56188,2018-06-29 09:14:07.875000,-8.54,78.78
56189,2018-06-29 09:14:07.906250,5.57,78.78
56190,2018-06-29 09:14:07.937500,14.35,78.78
56191,2018-06-29 09:14:07.968750,17.35,78.78
56192,2018-06-29 09:14:08.000000,16.73,78.78
56193,2018-06-29 09:14:08.031250,15.08,78.78
56194,2018-06-29 09:14:08.062500,14.79,78.78
56195,2018-06-29 09:14:08.093750,16.82,78.78
56196,2018-06-29 09:14:08.125000,19.96,78.78
56197,2018-06-29 09:14:08.156250,22.17,78.78
56198,2018-06-29 09:14:08.187500,22.19,78.78
56199,2018-06-29 09:14:08.218750,19.78,78.78
56200,2018-06-29 09:14:08.250000,15.83,78.78
56201,2018-06-29 09:14:08.281250,12.08,78.78
56202,2018-06-29 09:14:08.312500,9.67,78.78
56203,2018-06-29 09:14:08.343750,8.13,78.78
56204,2018-06-29 09:14:08.375000,6.38,78.78
56205,2018-06-29 09:14:08.406250,4.1,78.78
56206,2018-06-29 09:14:08.437500,1.97,78.78
56207,2018-06-29 09:14:08.468750,0.67,78.78
56208,2018-06-29 09:14:08.500000,-0.36,78.78
56209,2018-06-29 09:14:08.531250,-2.45,78.78
56210,2018-06-29 09:14:08.562500,-6.01,78.78
56211,2018-06-29 09:14:08.593750,-10.11,78.78
56212,2018-06-29 09:14:08.625000,-14.03,78.78
56213,2018-06-29 09:14:08.656250,-18.24,78.78
56214,2018-06-29 09:14:08.687500,-23.67,78.78
56215,2018-06-29 09:14:08.718750,-29.65,78.78
56216,2018-06-29 09:14:08.750000,-32.43,78.78
56217,2018-06-29 09:14:08.781250,-27.96,78.78
56218,2018-06-29 09:14:08.812500,-16.72,78.78
56219,2018-06-29 09:14:08.843750,-4.11,78.78
56220,2018-06-29 09:14:08.875000,4.9,78.78
56221,2018-06-29 09:14:08.906250,9.54,78.78
56222,2018-06-29 09:14:08.937500,11.67,78.78
56223,2018-06-29 09:14:08.968750,12.78,78.78
56224,2018-06-29 09:14:09.000000,13.53,78.78
56225,2018-06-29 09:14:09.031250,14.69,78.78
56226,2018-06-29 09:14:09.062500,16.54,78.78
56227,2018-06-29 09:14:09.093750,17.87,78.78
56228,2018-06-29 09:14:09.125000,17.72,78.78
56229,2018-06-29 09:14:09.156250,17.21,78.78
56230,2018-06-29 09:14:09.187500,17.29,78.78
56231,2018-06-29 09:14:09.218750,16.6,78.78
56232,2018-06-29 09:14:09.250000,13.92,78.78
56233,2018-06-29 09:14:09.281250,10.47,78.78
56234,2018-06-29 09:14:09.312500,7.93,78.78
56235,2018-06-29 09:14:09.343750,6.32,78.78
56236,2018-06-29 09:14:09.375000,4.8,78.78
56237,2018-06-29 09:14:09.406250,2.84,78.78
56238,2018-06-29 09:14:09.437500,0.05,78.78
56239,2018-06-29 09:14:09.468750,-3.68,78.78
56240,2018-06-29 09:14:09.500000,-7.69,78.78
56241,2018-06-29 09:14:09.531250,-11.05,78.75
56242,2018-06-29 09:14:09.562500,-13.6,78.75
56243,2018-06-29 09:14:09.593750,-15.99,78.75
56244,2018-06-29 09:14:09.625000,-19.13,78.75
56245,2018-06-29 09:14:09.656250,-23.66,78.75
56246,2018-06-29 09:14:09.687500,-28.66,78.75
56247,2018-06-29 09:14:09.718750,-30.68,78.75
56248,2018-06-29 09:14:09.750000,-26.05,78.75
56249,2018-06-29 09:14:09.781250,-15.11,78.75
56250,2018-06-29 09:14:09.812500,-2.38,78.75
56251,2018-06-29 09:14:09.843750,7.71,78.75
56252,2018-06-29 09:14:09.875000,13.44,78.75
56253,2018-06-29 09:14:09.906250,14.85,78.75
56254,2018-06-29 09:14:09.937500,13.18,78.75
56255,2018-06-29 09:14:09.968750,11.01,78.75
56256,2018-06-29 09:14:10.000000,10.63,78.75
56257,2018-06-29 09:14:10.031250,11.98,78.75
56258,2018-06-29 09:14:10.062500,13.45,78.75
56259,2018-06-29 09:14:10.093750,14.35,78.75
56260,2018-06-29 09:14:10.125000,14.81,78.75
56261,2018-06-29 09:14:10.156250,14.07,78.75
56262,2018-06-29 09:14:10.187500,10.93,78.75
56263,2018-06-29 09:14:10.218750,5.82,78.75
56264,2018-06-29 09:14:10.250000,0.85,78.75
56265,2018-06-29 09:14:10.281250,-2.14,78.75
56266,2018-06-29 09:14:10.312500,-3.18,78.75
56267,2018-06-29 09:14:10.343750,-3.94,78.75
56268,2018-06-29 09:14:10.375000,-5.79,78.75
56269,2018-06-29 09:14:10.406250,-8.41,78.75
56270,2018-06-29 09:14:10.437500,-10.98,78.75
56271,2018-06-29 09:14:10.468750,-13.63,78.75
56272,2018-06-29 09:14:10.500000,-16.8,78.75
56273,2018-06-29 09:14:10.531250,-20.3,78.77
56274,2018-06-29 09:14:10.562500,-23.56,78.77
56275,2018-06-29 09:14:10.593750,-24.73,78.77
56276,2018-06-29 09:14:10.625000,-20.63,78.77
56277,2018-06-29 09:14:10.656250,-10.55,78.77
56278,2018-06-29 09:14:10.687500,1.36,78.77
56279,2018-06-29 09:14:10.718750,10.2,78.77
56280,2018-06-29 09:14:10.750000,14.68,78.77
56281,2018-06-29 09:14:10.781250,15.68,78.77
56282,2018-06-29 09:14:10.812500,13.8,78.77
56283,2018-06-29 09:14:10.843750,9.79,78.77
56284,2018-06-29 09:14:10.875000,5.29,78.77
56285,2018-06-29 09:14:10.906250,2.29,78.77
56286,2018-06-29 09:14:10.937500,2.45,78.77
56287,2018-06-29 09:14:10.968750,6.11,78.77
56288,2018-06-29 09:14:11.000000,11.76,78.77
56289,2018-06-29 09:14:11.031250,16.88,78.77
56290,2018-06-29 09:14:11.062500,19.09,78.77
56291,2018-06-29 09:14:11.093750,17.15,78.77
56292,2018-06-29 09:14:11.125000,12.06,78.77
56293,2018-06-29 09:14:11.156250,6.77,78.77
56294,2018-06-29 09:14:11.187500,3.73,78.77
56295,2018-06-29 09:14:11.218750,2.61,78.77
56296,2018-06-29 09:14:11.250000,0.91,78.77
56297,2018-06-29 09:14:11.281250,-3.12,78.77
56298,2018-06-29 09:14:11.312500,-9.04,78.77
56299,2018-06-29 09:14:11.343750,-14.88,78.77
56300,2018-06-29 09:14:11.375000,-18.96,78.77
56301,2018-06-29 09:14:11.406250,-22.09,78.77
56302,2018-06-29 09:14:11.437500,-26.07,78.77
56303,2018-06-29 09:14:11.468750,-29.11,78.77
56304,2018-06-29 09:14:11.500000,-26.48,78.77
56305,2018-06-29 09:14:11.531250,-17.19,78.75
56306,2018-06-29 09:14:11.562500,-5.71,78.75
56307,2018-06-29 09:14:11.593750,3.41,78.75
56308,2018-06-29 09:14:11.625000,8.98,78.75
56309,2018-06-29 09:14:11.656250,11.33,78.75
56310,2018-06-29 09:14:11.687500,11.51,78.75
56311,2018-06-29 09:14:11.718750,11.65,78.75
56312,2018-06-29 09:14:11.750000,13.24,78.75
56313,2018-06-29 09:14:11.781250,15.27,78.75
56314,2018-06-29 09:14:11.812500,15.69,78.75
56315,2018-06-29 09:14:11.843750,13.96,78.75
56316,2018-06-29 09:14:11.875000,11.75,78.75
56317,2018-06-29 09:14:11.906250,10.78,78.75
56318,2018-06-29 09:14:11.937500,10.22,78.75
56319,2018-06-29 09:14:11.968750,7.95,78.75
56320,2018-06-29 09:14:12.000000,4.2,78.75
56321,2018-06-29 09:14:12.031250,1.08,78.75
56322,2018-06-29 09:14:12.062500,-1.14,78.75
56323,2018-06-29 09:14:12.093750,-4.13,78.75
56324,2018-06-29 09:14:12.125000,-8.23,78.75
56325,2018-06-29 09:14:12.156250,-12.09,78.75
56326,2018-06-29 09:14:12.187500,-15.42,78.75
56327,2018-06-29 09:14:12.218750,-19.65,78.75
56328,2018-06-29 09:14:12.250000,-25.63,78.75
56329,2018-06-29 09:14:12.281250,-32.1,78.75
56330,2018-06-29 09:14:12.312500,-35.55,78.75
56331,2018-06-29 09:14:12.343750,-31.43,78.75
56332,2018-06-29 09:14:12.375000,-18.7,78.75
56333,2018-06-29 09:14:12.406250,-3.0,78.75
56334,2018-06-29 09:14:12.437500,8.78,78.75
56335,2018-06-29 09:14:12.468750,15.19,78.75
56336,2018-06-29 09:14:12.500000,18.15,78.75
56337,2018-06-29 09:14:12.531250,18.23,78.77
56338,2018-06-29 09:14:12.562500,16.32,78.77
56339,2018-06-29 09:14:12.593750,14.94,78.77
56340,2018-06-29 09:14:12.625000,15.21,78.77
56341,2018-06-29 09:14:12.656250,15.8,78.77
56342,2018-06-29 09:14:12.687500,15.87,78.77
56343,2018-06-29 09:14:12.718750,16.28,78.77
56344,2018-06-29 09:14:12.750000,17.12,78.77
56345,2018-06-29 09:14:12.781250,16.63,78.77
56346,2018-06-29 09:14:12.812500,14.0,78.77
56347,2018-06-29 09:14:12.843750,10.68,78.77
56348,2018-06-29 09:14:12.875000,8.0,78.77
56349,2018-06-29 09:14:12.906250,5.29,78.77
56350,2018-06-29 09:14:12.937500,1.35,78.77
56351,2018-06-29 09:14:12.968750,-3.96,78.77
56352,2018-06-29 09:14:13.000000,-9.69,78.77
56353,2018-06-29 09:14:13.031250,-14.68,78.77
56354,2018-06-29 09:14:13.062500,-18.95,78.77
56355,2018-06-29 09:14:13.093750,-23.65,78.77
56356,2018-06-29 09:14:13.125000,-29.0,78.77
56357,2018-06-29 09:14:13.156250,-32.37,78.77
56358,2018-06-29 09:14:13.187500,-29.58,78.77
56359,2018-06-29 09:14:13.218750,-19.12,78.77
56360,2018-06-29 09:14:13.250000,-4.76,78.77
56361,2018-06-29 09:14:13.281250,7.51,78.77
56362,2018-06-29 09:14:13.312500,14.42,78.77
56363,2018-06-29 09:14:13.343750,16.15,78.77
56364,2018-06-29 09:14:13.375000,14.2,78.77
56365,2018-06-29 09:14:13.406250,11.27,78.77
56366,2018-06-29 09:14:13.437500,10.79,78.77
56367,2018-06-29 09:14:13.468750,14.16,78.77
56368,2018-06-29 09:14:13.500000,19.3,78.77
56369,2018-06-29 09:14:13.531250,23.15,78.78
56370,2018-06-29 09:14:13.562500,24.39,78.78
56371,2018-06-29 09:14:13.593750,23.32,78.78
56372,2018-06-29 09:14:13.625000,20.44,78.78
56373,2018-06-29 09:14:13.656250,16.13,78.78
56374,2018-06-29 09:14:13.687500,11.27,78.78
56375,2018-06-29 09:14:13.718750,6.68,78.78
56376,2018-06-29 09:14:13.750000,2.43,78.78
56377,2018-06-29 09:14:13.781250,-1.37,78.78
56378,2018-06-29 09:14:13.812500,-3.93,78.78
56379,2018-06-29 09:14:13.843750,-5.37,78.78
56380,2018-06-29 09:14:13.875000,-7.97,78.78
56381,2018-06-29 09:14:13.906250,-13.89,78.78
56382,2018-06-29 09:14:13.937500,-21.68,78.78
56383,2018-06-29 09:14:13.968750,-25.95,78.78
56384,2018-06-29 09:14:14.000000,-21.66,78.78
56385,2018-06-29 09:14:14.031250,-9.1,78.78
56386,2018-06-29 09:14:14.062500,5.99,78.78
56387,2018-06-29 09:14:14.093750,17.26,78.78
56388,2018-06-29 09:14:14.125000,22.24,78.78
56389,2018-06-29 09:14:14.156250,22.05,78.78
56390,2018-06-29 09:14:14.187500,19.11,78.78
56391,2018-06-29 09:14:14.218750,16.28,78.78
56392,2018-06-29 09:14:14.250000,15.99,78.78
56393,2018-06-29 09:14:14.281250,18.09,78.78
56394,2018-06-29 09:14:14.312500,19.78,78.78
56395,2018-06-29 09:14:14.343750,18.58,78.78
56396,2018-06-29 09:14:14.375000,14.61,78.78
56397,2018-06-29 09:14:14.406250,9.46,78.78
56398,2018-06-29 09:14:14.437500,4.3,78.78
56399,2018-06-29 09:14:14.468750,-0.39,78.78
56400,2018-06-29 09:14:14.500000,-4.15,78.78
56401,2018-06-29 09:14:14.531250,-6.95,78.82
56402,2018-06-29 09:14:14.562500,-9.66,78.82
56403,2018-06-29 09:14:14.593750,-12.82,78.82
56404,2018-06-29 09:14:14.625000,-15.75,78.82
56405,2018-06-29 09:14:14.656250,-18.22,78.82
56406,2018-06-29 09:14:14.687500,-21.31,78.82
56407,2018-06-29 09:14:14.718750,-24.88,78.82
56408,2018-06-29 09:14:14.750000,-25.71,78.82
56409,2018-06-29 09:14:14.781250,-20.75,78.82
56410,2018-06-29 09:14:14.812500,-10.95,78.82
56411,2018-06-29 09:14:14.843750,-0.37,78.82
56412,2018-06-29 09:14:14.875000,7.46,78.82
56413,2018-06-29 09:14:14.906250,11.06,78.82
56414,2018-06-29 09:14:14.937500,10.53,78.82
56415,2018-06-29 09:14:14.968750,7.46,78.82
56416,2018-06-29 09:14:15.000000,5.01,78.82
56417,2018-06-29 09:14:15.031250,5.66,78.82
56418,2018-06-29 09:14:15.062500,8.29,78.82
56419,2018-06-29 09:14:15.093750,9.68,78.82
56420,2018-06-29 09:14:15.125000,9.04,78.82
56421,2018-06-29 09:14:15.156250,7.9,78.82
56422,2018-06-29 09:14:15.187500,6.37,78.82
56423,2018-06-29 09:14:15.218750,3.69,78.82
56424,2018-06-29 09:14:15.250000,0.9,78.82
56425,2018-06-29 09:14:15.281250,-0.26,78.82
56426,2018-06-29 09:14:15.312500,-0.09,78.82
56427,2018-06-29 09:14:15.343750,-0.27,78.82
56428,2018-06-29 09:14:15.375000,-2.13,78.82
56429,2018-06-29 09:14:15.406250,-6.13,78.82
56430,2018-06-29 09:14:15.437500,-11.09,78.82
56431,2018-06-29 09:14:15.468750,-13.54,78.82
56432,2018-06-29 09:14:15.500000,-10.32,78.82
56433,2018-06-29 09:14:15.531250,-2.28,78.88
56434,2018-06-29 09:14:15.562500,6.13,78.88
56435,2018-06-29 09:14:15.593750,10.99,78.88
56436,2018-06-29 09:14:15.625000,11.21,78.88
56437,2018-06-29 09:14:15.656250,7.98,78.88
56438,2018-06-29 09:14:15.687500,3.61,78.88
56439,2018-06-29 09:14:15.718750,0.95,78.88
56440,2018-06-29 09:14:15.750000,2.0,78.88
56441,2018-06-29 09:14:15.781250,5.93,78.88
56442,2018-06-29 09:14:15.812500,8.87,78.88
56443,2018-06-29 09:14:15.843750,7.65,78.88
56444,2018-06-29 09:14:15.875000,3.38,78.88
56445,2018-06-29 09:14:15.906250,-0.89,78.88
56446,2018-06-29 09:14:15.937500,-4.53,78.88
56447,2018-06-29 09:14:15.968750,-8.9,78.88
56448,2018-06-29 09:14:16.000000,-14.61,78.88
56449,2018-06-29 09:14:16.031250,-21.12,78.88
56450,2018-06-29 09:14:16.062500,-27.85,78.88
56451,2018-06-29 09:14:16.093750,-34.79,78.88
56452,2018-06-29 09:14:16.125000,-42.62,78.88
56453,2018-06-29 09:14:16.156250,-51.4,78.88
56454,2018-06-29 09:14:16.187500,-58.12,78.88
56455,2018-06-29 09:14:16.218750,-57.44,78.88
56456,2018-06-29 09:14:16.250000,-46.79,78.88
56457,2018-06-29 09:14:16.281250,-29.85,78.88
56458,2018-06-29 09:14:16.312500,-13.22,78.88
56459,2018-06-29 09:14:16.343750,-0.85,78.88
56460,2018-06-29 09:14:16.375000,7.25,78.88
56461,2018-06-29 09:14:16.406250,13.38,78.88
56462,2018-06-29 09:14:16.437500,21.03,78.88
56463,2018-06-29 09:14:16.468750,32.11,78.88
56464,2018-06-29 09:14:16.500000,43.78,78.88
56465,2018-06-29 09:14:16.531250,50.41,78.98
56466,2018-06-29 09:14:16.562500,49.44,78.98
56467,2018-06-29 09:14:16.593750,42.29,78.98
56468,2018-06-29 09:14:16.625000,31.21,78.98
56469,2018-06-29 09:14:16.656250,19.44,78.98
56470,2018-06-29 09:14:16.687500,12.29,78.98
56471,2018-06-29 09:14:16.718750,12.71,78.98
56472,2018-06-29 09:14:16.750000,17.73,78.98
56473,2018-06-29 09:14:16.781250,22.47,78.98
56474,2018-06-29 09:14:16.812500,23.72,78.98
56475,2018-06-29 09:14:16.843750,20.77,78.98
56476,2018-06-29 09:14:16.875000,16.6,78.98
56477,2018-06-29 09:14:16.906250,16.21,78.98
56478,2018-06-29 09:14:16.937500,21.34,78.98
56479,2018-06-29 09:14:16.968750,30.8,78.98
56480,2018-06-29 09:14:17.000000,45.14,78.98
56481,2018-06-29 09:14:17.031250,67.39,78.98
56482,2018-06-29 09:14:17.062500,99.66,78.98
56483,2018-06-29 09:14:17.093750,138.82,78.98
56484,2018-06-29 09:14:17.125000,175.25,78.98
56485,2018-06-29 09:14:17.156250,195.46,78.98
56486,2018-06-29 09:14:17.187500,191.88,78.98
56487,2018-06-29 09:14:17.218750,168.36,78.98
56488,2018-06-29 09:14:17.250000,136.74,78.98
56489,2018-06-29 09:14:17.281250,106.91,78.98
56490,2018-06-29 09:14:17.312500,82.23,78.98
56491,2018-06-29 09:14:17.343750,61.74,78.98
56492,2018-06-29 09:14:17.375000,38.04,78.98
56493,2018-06-29 09:14:17.406250,2.76,78.98
56494,2018-06-29 09:14:17.437500,-41.14,78.98
56495,2018-06-29 09:14:17.468750,-73.18,78.98
56496,2018-06-29 09:14:17.500000,-74.57,78.98
56497,2018-06-29 09:14:17.531250,-45.21,79.07
56498,2018-06-29 09:14:17.562500,-1.01,79.07
56499,2018-06-29 09:14:17.593750,15.49,79.07
56500,2018-06-29 09:14:17.625000,-12.15,79.07
56501,2018-06-29 09:14:17.656250,-53.05,79.07
56502,2018-06-29 09:14:17.687500,-75.53,79.07
56503,2018-06-29 09:14:17.718750,-78.54,79.07
56504,2018-06-29 09:14:17.750000,-80.46,79.07
56505,2018-06-29 09:14:17.781250,-87.98,79.07
56506,2018-06-29 09:14:17.812500,-96.21,79.07
56507,2018-06-29 09:14:17.843750,-101.02,79.07
56508,2018-06-29 09:14:17.875000,-100.56,79.07
56509,2018-06-29 09:14:17.906250,-99.89,79.07
56510,2018-06-29 09:14:17.937500,-100.98,79.07
56511,2018-06-29 09:14:17.968750,-96.67,79.07
56512,2018-06-29 09:14:18.000000,-86.71,79.07
56513,2018-06-29 09:14:18.031250,-80.47,79.07
56514,2018-06-29 09:14:18.062500,-76.17,79.07
56515,2018-06-29 09:14:18.093750,-59.88,79.07
56516,2018-06-29 09:14:18.125000,-28.91,79.07
56517,2018-06-29 09:14:18.156250,2.44,79.07
56518,2018-06-29 09:14:18.187500,25.98,79.07
56519,2018-06-29 09:14:18.218750,47.67,79.07
56520,2018-06-29 09:14:18.250000,69.05,79.07
56521,2018-06-29 09:14:18.281250,78.54,79.07
56522,2018-06-29 09:14:18.312500,67.69,79.07
56523,2018-06-29 09:14:18.343750,43.32,79.07
56524,2018-06-29 09:14:18.375000,16.8,79.07
56525,2018-06-29 09:14:18.406250,-8.1,79.07
56526,2018-06-29 09:14:18.437500,-31.92,79.07
56527,2018-06-29 09:14:18.468750,-52.27,79.07
56528,2018-06-29 09:14:18.500000,-63.64,79.07
56529,2018-06-29 09:14:18.531250,-62.77,79.18
56530,2018-06-29 09:14:18.562500,-51.39,79.18
56531,2018-06-29 09:14:18.593750,-35.51,79.18
56532,2018-06-29 09:14:18.625000,-20.66,79.18
56533,2018-06-29 09:14:18.656250,-7.45,79.18
56534,2018-06-29 09:14:18.687500,4.31,79.18
56535,2018-06-29 09:14:18.718750,11.4,79.18
56536,2018-06-29 09:14:18.750000,6.38,79.18
56537,2018-06-29 09:14:18.781250,-10.26,79.18
56538,2018-06-29 09:14:18.812500,-28.78,79.18
56539,2018-06-29 09:14:18.843750,-42.92,79.18
56540,2018-06-29 09:14:18.875000,-56.71,79.18
56541,2018-06-29 09:14:18.906250,-73.89,79.18
56542,2018-06-29 09:14:18.937500,-85.71,79.18
56543,2018-06-29 09:14:18.968750,-86.88,79.18
56544,2018-06-29 09:14:19.000000,-81.04,79.18
56545,2018-06-29 09:14:19.031250,-76.68,79.18
56546,2018-06-29 09:14:19.062500,-77.27,79.18
56547,2018-06-29 09:14:19.093750,-85.85,79.18
56548,2018-06-29 09:14:19.125000,-94.62,79.18
56549,2018-06-29 09:14:19.156250,-58.06,79.18
56550,2018-06-29 09:14:19.187500,-0.03,79.18
56551,2018-06-29 09:14:19.218750,19.91,79.18
56552,2018-06-29 09:14:19.250000,5.05,79.18
56553,2018-06-29 09:14:19.281250,-11.67,79.18
56554,2018-06-29 09:14:19.312500,-18.91,79.18
56555,2018-06-29 09:14:19.343750,-24.92,79.18
56556,2018-06-29 09:14:19.375000,-29.17,79.18
56557,2018-06-29 09:14:19.406250,-22.78,79.18
56558,2018-06-29 09:14:19.437500,-13.28,79.18
56559,2018-06-29 09:14:19.468750,-12.57,79.18
56560,2018-06-29 09:14:19.500000,-15.49,79.18
56561,2018-06-29 09:14:19.531250,-10.82,79.3
56562,2018-06-29 09:14:19.562500,1.44,79.3
56563,2018-06-29 09:14:19.593750,8.5,79.3
56564,2018-06-29 09:14:19.625000,4.05,79.3
56565,2018-06-29 09:14:19.656250,-3.29,79.3
56566,2018-06-29 09:14:19.687500,-2.47,79.3
56567,2018-06-29 09:14:19.718750,10.54,79.3
56568,2018-06-29 09:14:19.750000,32.61,79.3
56569,2018-06-29 09:14:19.781250,59.27,79.3
56570,2018-06-29 09:14:19.812500,85.31,79.3
56571,2018-06-29 09:14:19.843750,107.86,79.3
56572,2018-06-29 09:14:19.875000,125.45,79.3
56573,2018-06-29 09:14:19.906250,130.42,79.3
56574,2018-06-29 09:14:19.937500,112.47,79.3
56575,2018-06-29 09:14:19.968750,73.27,79.3
56576,2018-06-29 09:14:20.000000,26.05,79.3
56577,2018-06-29 09:14:20.031250,-20.72,79.3
56578,2018-06-29 09:14:20.062500,-64.29,79.3
56579,2018-06-29 09:14:20.093750,-95.54,79.3
56580,2018-06-29 09:14:20.125000,-103.69,79.3
56581,2018-06-29 09:14:20.156250,-91.96,79.3
56582,2018-06-29 09:14:20.187500,-75.09,79.3
56583,2018-06-29 09:14:20.218750,-60.7,79.3
56584,2018-06-29 09:14:20.250000,-44.7,79.3
56585,2018-06-29 09:14:20.281250,-24.25,79.3
56586,2018-06-29 09:14:20.312500,-4.94,79.3
56587,2018-06-29 09:14:20.343750,6.95,79.3
56588,2018-06-29 09:14:20.375000,12.86,79.3
56589,2018-06-29 09:14:20.406250,21.43,79.3
56590,2018-06-29 09:14:20.437500,41.51,79.3
56591,2018-06-29 09:14:20.468750,72.77,79.3
56592,2018-06-29 09:14:20.500000,103.46,79.3
56593,2018-06-29 09:14:20.531250,122.0,79.43
56594,2018-06-29 09:14:20.562500,128.26,79.43
56595,2018-06-29 09:14:20.593750,126.66,79.43
56596,2018-06-29 09:14:20.625000,113.0,79.43
56597,2018-06-29 09:14:20.656250,79.68,79.43
56598,2018-06-29 09:14:20.687500,30.2,79.43
56599,2018-06-29 09:14:20.718750,-21.95,79.43
56600,2018-06-29 09:14:20.750000,-65.16,79.43
56601,2018-06-29 09:14:20.781250,-92.89,79.43
56602,2018-06-29 09:14:20.812500,-101.86,79.43
56603,2018-06-29 09:14:20.843750,-95.84,79.43
56604,2018-06-29 09:14:20.875000,-85.53,79.43
56605,2018-06-29 09:14:20.906250,-78.18,79.43
56606,2018-06-29 09:14:20.937500,-70.04,79.43
56607,2018-06-29 09:14:20.968750,-53.98,79.43
56608,2018-06-29 09:14:21.000000,-32.3,79.43
56609,2018-06-29 09:14:21.031250,-15.0,79.43
56610,2018-06-29 09:14:21.062500,-6.5,79.43
56611,2018-06-29 09:14:21.093750,-2.22,79.43
56612,2018-06-29 09:14:21.125000,2.41,79.43
56613,2018-06-29 09:14:21.156250,7.01,79.43
56614,2018-06-29 09:14:21.187500,10.22,79.43
56615,2018-06-29 09:14:21.218750,12.57,79.43
56616,2018-06-29 09:14:21.250000,14.74,79.43
56617,2018-06-29 09:14:21.281250,16.34,79.43
56618,2018-06-29 09:14:21.312500,17.46,79.43
56619,2018-06-29 09:14:21.343750,19.14,79.43
56620,2018-06-29 09:14:21.375000,21.03,79.43
56621,2018-06-29 09:14:21.406250,20.6,79.43
56622,2018-06-29 09:14:21.437500,16.77,79.43
56623,2018-06-29 09:14:21.468750,11.89,79.43
56624,2018-06-29 09:14:21.500000,8.73,79.43
56625,2018-06-29 09:14:21.531250,7.46,79.57
56626,2018-06-29 09:14:21.562500,6.12,79.57
56627,2018-06-29 09:14:21.593750,3.0,79.57
56628,2018-06-29 09:14:21.625000,-2.14,79.57
56629,2018-06-29 09:14:21.656250,-8.87,79.57
56630,2018-06-29 09:14:21.687500,-17.25,79.57
56631,2018-06-29 09:14:21.718750,-27.55,79.57
56632,2018-06-29 09:14:21.750000,-39.67,79.57
56633,2018-06-29 09:14:21.781250,-52.17,79.57
56634,2018-06-29 09:14:21.812500,-60.42,79.57
56635,2018-06-29 09:14:21.843750,-58.58,79.57
56636,2018-06-29 09:14:21.875000,-46.14,79.57
56637,2018-06-29 09:14:21.906250,-29.88,79.57
56638,2018-06-29 09:14:21.937500,-16.99,79.57
56639,2018-06-29 09:14:21.968750,-8.68,79.57
56640,2018-06-29 09:14:22.000000,-1.79,79.57
56641,2018-06-29 09:14:22.031250,6.64,79.57
56642,2018-06-29 09:14:22.062500,19.16,79.57
56643,2018-06-29 09:14:22.093750,37.82,79.57
56644,2018-06-29 09:14:22.125000,59.56,79.57
56645,2018-06-29 09:14:22.156250,79.96,79.57
56646,2018-06-29 09:14:22.187500,101.53,79.57
56647,2018-06-29 09:14:22.218750,122.9,79.57
56648,2018-06-29 09:14:22.250000,129.08,79.57
56649,2018-06-29 09:14:22.281250,111.63,79.57
56650,2018-06-29 09:14:22.312500,82.97,79.57
56651,2018-06-29 09:14:22.343750,55.42,79.57
56652,2018-06-29 09:14:22.375000,26.14,79.57
56653,2018-06-29 09:14:22.406250,-6.26,79.57
56654,2018-06-29 09:14:22.437500,-30.98,79.57
56655,2018-06-29 09:14:22.468750,-39.14,79.57
56656,2018-06-29 09:14:22.500000,-36.64,79.57
56657,2018-06-29 09:14:22.531250,-36.91,79.72
56658,2018-06-29 09:14:22.562500,-43.42,79.72
56659,2018-06-29 09:14:22.593750,-44.05,79.72
56660,2018-06-29 09:14:22.625000,-21.34,79.72
56661,2018-06-29 09:14:22.656250,30.56,79.72
56662,2018-06-29 09:14:22.687500,91.89,79.72
56663,2018-06-29 09:14:22.718750,125.74,79.72
56664,2018-06-29 09:14:22.750000,115.57,79.72
56665,2018-06-29 09:14:22.781250,84.35,79.72
56666,2018-06-29 09:14:22.812500,59.68,79.72
56667,2018-06-29 09:14:22.843750,39.38,79.72
56668,2018-06-29 09:14:22.875000,11.27,79.72
56669,2018-06-29 09:14:22.906250,-19.52,79.72
56670,2018-06-29 09:14:22.937500,-43.57,79.72
56671,2018-06-29 09:14:22.968750,-62.42,79.72
56672,2018-06-29 09:14:23.000000,-75.9,79.72
56673,2018-06-29 09:14:23.031250,-75.68,79.72
56674,2018-06-29 09:14:23.062500,-61.16,79.72
56675,2018-06-29 09:14:23.093750,-45.91,79.72
56676,2018-06-29 09:14:23.125000,-40.98,79.72
56677,2018-06-29 09:14:23.156250,-40.92,79.72
56678,2018-06-29 09:14:23.187500,-31.61,79.72
56679,2018-06-29 09:14:23.218750,-6.9,79.72
56680,2018-06-29 09:14:23.250000,23.91,79.72
56681,2018-06-29 09:14:23.281250,40.34,79.72
56682,2018-06-29 09:14:23.312500,25.91,79.72
56683,2018-06-29 09:14:23.343750,-10.04,79.72
56684,2018-06-29 09:14:23.375000,-35.03,79.72
56685,2018-06-29 09:14:23.406250,-29.89,79.72
56686,2018-06-29 09:14:23.437500,-6.84,79.72
56687,2018-06-29 09:14:23.468750,16.03,79.72
56688,2018-06-29 09:14:23.500000,32.93,79.72
56689,2018-06-29 09:14:23.531250,40.18,79.87
56690,2018-06-29 09:14:23.562500,35.89,79.87
56691,2018-06-29 09:14:23.593750,29.99,79.87
56692,2018-06-29 09:14:23.625000,33.18,79.87
56693,2018-06-29 09:14:23.656250,40.73,79.87
56694,2018-06-29 09:14:23.687500,41.84,79.87
56695,2018-06-29 09:14:23.718750,37.05,79.87
56696,2018-06-29 09:14:23.750000,37.71,79.87
56697,2018-06-29 09:14:23.781250,54.49,79.87
56698,2018-06-29 09:14:23.812500,88.91,79.87
56699,2018-06-29 09:14:23.843750,129.32,79.87
56700,2018-06-29 09:14:23.875000,156.36,79.87
56701,2018-06-29 09:14:23.906250,157.4,79.87
56702,2018-06-29 09:14:23.937500,132.7,79.87
56703,2018-06-29 09:14:23.968750,88.54,79.87
56704,2018-06-29 09:14:24.000000,35.21,79.87
56705,2018-06-29 09:14:24.031250,-12.43,79.87
56706,2018-06-29 09:14:24.062500,-48.13,79.87
56707,2018-06-29 09:14:24.093750,-81.64,79.87
56708,2018-06-29 09:14:24.125000,-120.55,79.87
56709,2018-06-29 09:14:24.156250,-155.01,79.87
56710,2018-06-29 09:14:24.187500,-170.63,79.87
56711,2018-06-29 09:14:24.218750,-165.52,79.87
56712,2018-06-29 09:14:24.250000,-147.35,79.87
56713,2018-06-29 09:14:24.281250,-122.59,79.87
56714,2018-06-29 09:14:24.312500,-94.15,79.87
56715,2018-06-29 09:14:24.343750,-64.42,79.87
56716,2018-06-29 09:14:24.375000,-36.69,79.87
56717,2018-06-29 09:14:24.406250,-14.89,79.87
56718,2018-06-29 09:14:24.437500,-0.49,79.87
56719,2018-06-29 09:14:24.468750,10.54,79.87
56720,2018-06-29 09:14:24.500000,22.55,79.87
56721,2018-06-29 09:14:24.531250,32.9,79.98
56722,2018-06-29 09:14:24.562500,36.5,79.98
56723,2018-06-29 09:14:24.593750,33.95,79.98
56724,2018-06-29 09:14:24.625000,28.92,79.98
56725,2018-06-29 09:14:24.656250,22.9,79.98
56726,2018-06-29 09:14:24.687500,17.37,79.98
56727,2018-06-29 09:14:24.718750,14.88,79.98
56728,2018-06-29 09:14:24.750000,15.88,79.98
56729,2018-06-29 09:14:24.781250,17.94,79.98
56730,2018-06-29 09:14:24.812500,18.73,79.98
56731,2018-06-29 09:14:24.843750,18.53,79.98
56732,2018-06-29 09:14:24.875000,20.23,79.98
56733,2018-06-29 09:14:24.906250,28.06,79.98
56734,2018-06-29 09:14:24.937500,46.05,79.98
56735,2018-06-29 09:14:24.968750,72.88,79.98
56736,2018-06-29 09:14:25.000000,96.62,79.98
56737,2018-06-29 09:14:25.031250,101.6,79.98
56738,2018-06-29 09:14:25.062500,82.64,79.98
56739,2018-06-29 09:14:25.093750,48.13,79.98
56740,2018-06-29 09:14:25.125000,12.21,79.98
56741,2018-06-29 09:14:25.156250,-14.13,79.98
56742,2018-06-29 09:14:25.187500,-30.28,79.98
56743,2018-06-29 09:14:25.218750,-44.27,79.98
56744,2018-06-29 09:14:25.250000,-60.13,79.98
56745,2018-06-29 09:14:25.281250,-72.83,79.98
56746,2018-06-29 09:14:25.312500,-77.64,79.98
56747,2018-06-29 09:14:25.343750,-75.29,79.98
56748,2018-06-29 09:14:25.375000,-66.48,79.98
56749,2018-06-29 09:14:25.406250,-48.82,79.98
56750,2018-06-29 09:14:25.437500,-23.14,79.98
56751,2018-06-29 09:14:25.468750,0.94,79.98
56752,2018-06-29 09:14:25.500000,11.33,79.98
56753,2018-06-29 09:14:25.531250,5.96,80.1
56754,2018-06-29 09:14:25.562500,-3.3,80.1
56755,2018-06-29 09:14:25.593750,-2.35,80.1
56756,2018-06-29 09:14:25.625000,8.39,80.1
56757,2018-06-29 09:14:25.656250,14.48,80.1
56758,2018-06-29 09:14:25.687500,6.73,80.1
56759,2018-06-29 09:14:25.718750,-8.46,80.1
56760,2018-06-29 09:14:25.750000,-19.99,80.1
56761,2018-06-29 09:14:25.781250,-22.54,80.1
56762,2018-06-29 09:14:25.812500,-15.42,80.1
56763,2018-06-29 09:14:25.843750,-1.19,80.1
56764,2018-06-29 09:14:25.875000,14.51,80.1
56765,2018-06-29 09:14:25.906250,27.32,80.1
56766,2018-06-29 09:14:25.937500,37.41,80.1
56767,2018-06-29 09:14:25.968750,48.13,80.1
56768,2018-06-29 09:14:26.000000,62.97,80.1
56769,2018-06-29 09:14:26.031250,84.55,80.1
56770,2018-06-29 09:14:26.062500,114.32,80.1
56771,2018-06-29 09:14:26.093750,147.76,80.1
56772,2018-06-29 09:14:26.125000,170.54,80.1
56773,2018-06-29 09:14:26.156250,169.56,80.1
56774,2018-06-29 09:14:26.187500,149.2,80.1
56775,2018-06-29 09:14:26.218750,125.33,80.1
56776,2018-06-29 09:14:26.250000,104.61,80.1
56777,2018-06-29 09:14:26.281250,80.54,80.1
56778,2018-06-29 09:14:26.312500,44.19,80.1
56779,2018-06-29 09:14:26.343750,-9.53,80.1
56780,2018-06-29 09:14:26.375000,-77.06,80.1
56781,2018-06-29 09:14:26.406250,-143.66,80.1
56782,2018-06-29 09:14:26.437500,-194.09,80.1
56783,2018-06-29 09:14:26.468750,-224.41,80.1
56784,2018-06-29 09:14:26.500000,-235.31,80.1
56785,2018-06-29 09:14:26.531250,-221.6,80.28
56786,2018-06-29 09:14:26.562500,-180.45,80.28
56787,2018-06-29 09:14:26.593750,-125.58,80.28
56788,2018-06-29 09:14:26.625000,-79.53,80.28
56789,2018-06-29 09:14:26.656250,-50.12,80.28
56790,2018-06-29 09:14:26.687500,-25.85,80.28
56791,2018-06-29 09:14:26.718750,3.29,80.28
56792,2018-06-29 09:14:26.750000,31.13,80.28
56793,2018-06-29 09:14:26.781250,44.73,80.28
56794,2018-06-29 09:14:26.812500,39.95,80.28
56795,2018-06-29 09:14:26.843750,23.36,80.28
56796,2018-06-29 09:14:26.875000,4.62,80.28
56797,2018-06-29 09:14:26.906250,-8.72,80.28
56798,2018-06-29 09:14:26.937500,-13.71,80.28
56799,2018-06-29 09:14:26.968750,-13.12,80.28
56800,2018-06-29 09:14:27.000000,-11.55,80.28
56801,2018-06-29 09:14:27.031250,-9.64,80.28
56802,2018-06-29 09:14:27.062500,-4.34,80.28
56803,2018-06-29 09:14:27.093750,5.82,80.28
56804,2018-06-29 09:14:27.125000,17.74,80.28
56805,2018-06-29 09:14:27.156250,28.08,80.28
56806,2018-06-29 09:14:27.187500,41.08,80.28
56807,2018-06-29 09:14:27.218750,64.39,80.28
56808,2018-06-29 09:14:27.250000,93.05,80.28
56809,2018-06-29 09:14:27.281250,109.61,80.28
56810,2018-06-29 09:14:27.312500,106.39,80.28
56811,2018-06-29 09:14:27.343750,93.75,80.28
56812,2018-06-29 09:14:27.375000,82.06,80.28
56813,2018-06-29 09:14:27.406250,68.43,80.28
56814,2018-06-29 09:14:27.437500,43.53,80.28
56815,2018-06-29 09:14:27.468750,2.86,80.28
56816,2018-06-29 09:14:27.500000,-47.99,80.28
56817,2018-06-29 09:14:27.531250,-96.32,80.33
56818,2018-06-29 09:14:27.562500,-130.56,80.33
56819,2018-06-29 09:14:27.593750,-145.27,80.33
56820,2018-06-29 09:14:27.625000,-139.86,80.33
56821,2018-06-29 09:14:27.656250,-117.45,80.33
56822,2018-06-29 09:14:27.687500,-84.9,80.33
56823,2018-06-29 09:14:27.718750,-51.44,80.33
56824,2018-06-29 09:14:27.750000,-24.85,80.33
56825,2018-06-29 09:14:27.781250,-6.59,80.33
56826,2018-06-29 09:14:27.812500,8.25,80.33
56827,2018-06-29 09:14:27.843750,22.48,80.33
56828,2018-06-29 09:14:27.875000,30.91,80.33
56829,2018-06-29 09:14:27.906250,26.34,80.33
56830,2018-06-29 09:14:27.937500,7.55,80.33
56831,2018-06-29 09:14:27.968750,-19.95,80.33
56832,2018-06-29 09:14:28.000000,-45.86,80.33
56833,2018-06-29 09:14:28.031250,-58.14,80.33
56834,2018-06-29 09:14:28.062500,-52.25,80.33
56835,2018-06-29 09:14:28.093750,-36.27,80.33
56836,2018-06-29 09:14:28.125000,-21.22,80.33
56837,2018-06-29 09:14:28.156250,-9.56,80.33
56838,2018-06-29 09:14:28.187500,2.52,80.33
56839,2018-06-29 09:14:28.218750,16.35,80.33
56840,2018-06-29 09:14:28.250000,28.93,80.33
56841,2018-06-29 09:14:28.281250,38.7,80.33
56842,2018-06-29 09:14:28.312500,51.8,80.33
56843,2018-06-29 09:14:28.343750,78.48,80.33
56844,2018-06-29 09:14:28.375000,117.25,80.33
56845,2018-06-29 09:14:28.406250,149.0,80.33
56846,2018-06-29 09:14:28.437500,156.68,80.33
56847,2018-06-29 09:14:28.468750,143.18,80.33
56848,2018-06-29 09:14:28.500000,121.43,80.33
56849,2018-06-29 09:14:28.531250,96.21,80.4
56850,2018-06-29 09:14:28.562500,62.91,80.4
56851,2018-06-29 09:14:28.593750,16.79,80.4
56852,2018-06-29 09:14:28.625000,-41.33,80.4
56853,2018-06-29 09:14:28.656250,-103.69,80.4
56854,2018-06-29 09:14:28.687500,-156.78,80.4
56855,2018-06-29 09:14:28.718750,-184.57,80.4
56856,2018-06-29 09:14:28.750000,-175.02,80.4
56857,2018-06-29 09:14:28.781250,-130.63,80.4
56858,2018-06-29 09:14:28.812500,-71.84,80.4
56859,2018-06-29 09:14:28.843750,-22.15,80.4
56860,2018-06-29 09:14:28.875000,10.72,80.4
56861,2018-06-29 09:14:28.906250,34.04,80.4
56862,2018-06-29 09:14:28.937500,52.98,80.4
56863,2018-06-29 09:14:28.968750,62.56,80.4
56864,2018-06-29 09:14:29.000000,56.11,80.4
56865,2018-06-29 09:14:29.031250,33.98,80.4
56866,2018-06-29 09:14:29.062500,2.42,80.4
56867,2018-06-29 09:14:29.093750,-29.81,80.4
56868,2018-06-29 09:14:29.125000,-52.87,80.4
56869,2018-06-29 09:14:29.156250,-61.04,80.4
56870,2018-06-29 09:14:29.187500,-58.99,80.4
56871,2018-06-29 09:14:29.218750,-56.08,80.4
56872,2018-06-29 09:14:29.250000,-54.04,80.4
56873,2018-06-29 09:14:29.281250,-47.38,80.4
56874,2018-06-29 09:14:29.312500,-35.04,80.4
56875,2018-06-29 09:14:29.343750,-24.83,80.4
56876,2018-06-29 09:14:29.375000,-24.08,80.4
56877,2018-06-29 09:14:29.406250,-25.98,80.4
56878,2018-06-29 09:14:29.437500,-9.26,80.4
56879,2018-06-29 09:14:29.468750,37.43,80.4
56880,2018-06-29 09:14:29.500000,93.75,80.4
56881,2018-06-29 09:14:29.531250,128.04,80.42
56882,2018-06-29 09:14:29.562500,134.22,80.42
56883,2018-06-29 09:14:29.593750,129.34,80.42
56884,2018-06-29 09:14:29.625000,121.58,80.42
56885,2018-06-29 09:14:29.656250,100.83,80.42
56886,2018-06-29 09:14:29.687500,57.61,80.42
56887,2018-06-29 09:14:29.718750,-2.48,80.42
56888,2018-06-29 09:14:29.750000,-63.33,80.42
56889,2018-06-29 09:14:29.781250,-110.19,80.42
56890,2018-06-29 09:14:29.812500,-136.04,80.42
56891,2018-06-29 09:14:29.843750,-141.26,80.42
56892,2018-06-29 09:14:29.875000,-131.79,80.42
56893,2018-06-29 09:14:29.906250,-115.31,80.42
56894,2018-06-29 09:14:29.937500,-95.36,80.42
56895,2018-06-29 09:14:29.968750,-69.9,80.42
56896,2018-06-29 09:14:30.000000,-37.69,80.42
56897,2018-06-29 09:14:30.031250,-4.56,80.42
56898,2018-06-29 09:14:30.062500,20.12,80.42
56899,2018-06-29 09:14:30.093750,31.31,80.42
56900,2018-06-29 09:14:30.125000,29.37,80.42
56901,2018-06-29 09:14:30.156250,16.2,80.42
56902,2018-06-29 09:14:30.187500,-4.28,80.42
56903,2018-06-29 09:14:30.218750,-23.72,80.42
56904,2018-06-29 09:14:30.250000,-33.46,80.42
56905,2018-06-29 09:14:30.281250,-32.06,80.42
56906,2018-06-29 09:14:30.312500,-25.18,80.42
56907,2018-06-29 09:14:30.343750,-18.01,80.42
56908,2018-06-29 09:14:30.375000,-11.43,80.42
56909,2018-06-29 09:14:30.406250,-4.37,80.42
56910,2018-06-29 09:14:30.437500,4.05,80.42
56911,2018-06-29 09:14:30.468750,13.61,80.42
56912,2018-06-29 09:14:30.500000,24.09,80.42
56913,2018-06-29 09:14:30.531250,40.67,80.37
56914,2018-06-29 09:14:30.562500,71.21,80.37
56915,2018-06-29 09:14:30.593750,111.34,80.37
56916,2018-06-29 09:14:30.625000,144.48,80.37
56917,2018-06-29 09:14:30.656250,162.23,80.37
56918,2018-06-29 09:14:30.687500,170.2,80.37
56919,2018-06-29 09:14:30.718750,172.81,80.37
56920,2018-06-29 09:14:30.750000,167.12,80.37
56921,2018-06-29 09:14:30.781250,146.59,80.37
56922,2018-06-29 09:14:30.812500,101.87,80.37
56923,2018-06-29 09:14:30.843750,28.8,80.37
56924,2018-06-29 09:14:30.875000,-59.8,80.37
56925,2018-06-29 09:14:30.906250,-140.66,80.37
56926,2018-06-29 09:14:30.937500,-197.62,80.37
56927,2018-06-29 09:14:30.968750,-224.73,80.37
56928,2018-06-29 09:14:31.000000,-219.43,80.37
56929,2018-06-29 09:14:31.031250,-184.88,80.37
56930,2018-06-29 09:14:31.062500,-134.83,80.37
56931,2018-06-29 09:14:31.093750,-85.32,80.37
56932,2018-06-29 09:14:31.125000,-42.02,80.37
56933,2018-06-29 09:14:31.156250,-3.21,80.37
56934,2018-06-29 09:14:31.187500,27.82,80.37
56935,2018-06-29 09:14:31.218750,42.53,80.37
56936,2018-06-29 09:14:31.250000,38.76,80.37
56937,2018-06-29 09:14:31.281250,23.95,80.37
56938,2018-06-29 09:14:31.312500,5.74,80.37
56939,2018-06-29 09:14:31.343750,-12.83,80.37
56940,2018-06-29 09:14:31.375000,-27.79,80.37
56941,2018-06-29 09:14:31.406250,-33.55,80.37
56942,2018-06-29 09:14:31.437500,-30.58,80.37
56943,2018-06-29 09:14:31.468750,-26.24,80.37
56944,2018-06-29 09:14:31.500000,-25.54,80.37
56945,2018-06-29 09:14:31.531250,-25.64,80.3
56946,2018-06-29 09:14:31.562500,-20.97,80.3
56947,2018-06-29 09:14:31.593750,-11.32,80.3
56948,2018-06-29 09:14:31.625000,-2.92,80.3
56949,2018-06-29 09:14:31.656250,1.27,80.3
56950,2018-06-29 09:14:31.687500,11.65,80.3
56951,2018-06-29 09:14:31.718750,42.34,80.3
56952,2018-06-29 09:14:31.750000,90.46,80.3
56953,2018-06-29 09:14:31.781250,135.79,80.3
56954,2018-06-29 09:14:31.812500,162.7,80.3
56955,2018-06-29 09:14:31.843750,172.79,80.3
56956,2018-06-29 09:14:31.875000,174.5,80.3
56957,2018-06-29 09:14:31.906250,167.87,80.3
56958,2018-06-29 09:14:31.937500,142.58,80.3
56959,2018-06-29 09:14:31.968750,89.62,80.3
56960,2018-06-29 09:14:32.000000,13.51,80.3
56961,2018-06-29 09:14:32.031250,-68.24,80.3
56962,2018-06-29 09:14:32.062500,-136.18,80.3
56963,2018-06-29 09:14:32.093750,-177.33,80.3
56964,2018-06-29 09:14:32.125000,-186.15,80.3
56965,2018-06-29 09:14:32.156250,-165.57,80.3
56966,2018-06-29 09:14:32.187500,-128.06,80.3
56967,2018-06-29 09:14:32.218750,-88.39,80.3
56968,2018-06-29 09:14:32.250000,-53.62,80.3
56969,2018-06-29 09:14:32.281250,-21.32,80.3
56970,2018-06-29 09:14:32.312500,12.24,80.3
56971,2018-06-29 09:14:32.343750,41.23,80.3
56972,2018-06-29 09:14:32.375000,50.49,80.3
56973,2018-06-29 09:14:32.406250,31.79,80.3
56974,2018-06-29 09:14:32.437500,-5.18,80.3
56975,2018-06-29 09:14:32.468750,-42.3,80.3
56976,2018-06-29 09:14:32.500000,-67.2,80.3
56977,2018-06-29 09:14:32.531250,-75.81,80.38
56978,2018-06-29 09:14:32.562500,-70.37,80.38
56979,2018-06-29 09:14:32.593750,-58.14,80.38
56980,2018-06-29 09:14:32.625000,-46.11,80.38
56981,2018-06-29 09:14:32.656250,-35.24,80.38
56982,2018-06-29 09:14:32.687500,-21.89,80.38
56983,2018-06-29 09:14:32.718750,-5.04,80.38
56984,2018-06-29 09:14:32.750000,10.16,80.38
56985,2018-06-29 09:14:32.781250,20.12,80.38
56986,2018-06-29 09:14:32.812500,33.19,80.38
56987,2018-06-29 09:14:32.843750,62.33,80.38
56988,2018-06-29 09:14:32.875000,103.65,80.38
56989,2018-06-29 09:14:32.906250,135.7,80.38
56990,2018-06-29 09:14:32.937500,144.65,80.38
56991,2018-06-29 09:14:32.968750,136.87,80.38
56992,2018-06-29 09:14:33.000000,124.03,80.38
56993,2018-06-29 09:14:33.031250,106.81,80.38
56994,2018-06-29 09:14:33.062500,75.73,80.38
56995,2018-06-29 09:14:33.093750,23.0,80.38
56996,2018-06-29 09:14:33.125000,-46.47,80.38
56997,2018-06-29 09:14:33.156250,-114.77,80.38
56998,2018-06-29 09:14:33.187500,-162.31,80.38
56999,2018-06-29 09:14:33.218750,-178.75,80.38
57000,2018-06-29 09:14:33.250000,-165.54,80.38
57001,2018-06-29 09:14:33.281250,-132.79,80.38
57002,2018-06-29 09:14:33.312500,-93.03,80.38
57003,2018-06-29 09:14:33.343750,-54.38,80.38
57004,2018-06-29 09:14:33.375000,-18.4,80.38
57005,2018-06-29 09:14:33.406250,14.97,80.38
57006,2018-06-29 09:14:33.437500,41.99,80.38
57007,2018-06-29 09:14:33.468750,56.7,80.38
57008,2018-06-29 09:14:33.500000,56.68,80.38
57009,2018-06-29 09:14:33.531250,45.02,80.48
57010,2018-06-29 09:14:33.562500,27.36,80.48
57011,2018-06-29 09:14:33.593750,8.59,80.48
57012,2018-06-29 09:14:33.625000,-7.57,80.48
57013,2018-06-29 09:14:33.656250,-18.8,80.48
57014,2018-06-29 09:14:33.687500,-25.63,80.48
57015,2018-06-29 09:14:33.718750,-30.05,80.48
57016,2018-06-29 09:14:33.750000,-32.63,80.48
57017,2018-06-29 09:14:33.781250,-33.8,80.48
57018,2018-06-29 09:14:33.812500,-36.4,80.48
57019,2018-06-29 09:14:33.843750,-41.9,80.48
57020,2018-06-29 09:14:33.875000,-44.36,80.48
57021,2018-06-29 09:14:33.906250,-31.49,80.48
57022,2018-06-29 09:14:33.937500,6.45,80.48
57023,2018-06-29 09:14:33.968750,65.33,80.48
57024,2018-06-29 09:14:34.000000,123.68,80.48
57025,2018-06-29 09:14:34.031250,158.04,80.48
57026,2018-06-29 09:14:34.062500,164.5,80.48
57027,2018-06-29 09:14:34.093750,156.85,80.48
57028,2018-06-29 09:14:34.125000,144.25,80.48
57029,2018-06-29 09:14:34.156250,121.85,80.48
57030,2018-06-29 09:14:34.187500,82.35,80.48
57031,2018-06-29 09:14:34.218750,26.8,80.48
57032,2018-06-29 09:14:34.250000,-35.59,80.48
57033,2018-06-29 09:14:34.281250,-91.76,80.48
57034,2018-06-29 09:14:34.312500,-129.49,80.48
57035,2018-06-29 09:14:34.343750,-143.32,80.48
57036,2018-06-29 09:14:34.375000,-136.94,80.48
57037,2018-06-29 09:14:34.406250,-118.65,80.48
57038,2018-06-29 09:14:34.437500,-94.62,80.48
57039,2018-06-29 09:14:34.468750,-68.04,80.48
57040,2018-06-29 09:14:34.500000,-42.23,80.48
57041,2018-06-29 09:14:34.531250,-21.33,80.68
57042,2018-06-29 09:14:34.562500,-8.56,80.68
57043,2018-06-29 09:14:34.593750,-3.44,80.68
57044,2018-06-29 09:14:34.625000,-1.38,80.68
57045,2018-06-29 09:14:34.656250,1.06,80.68
57046,2018-06-29 09:14:34.687500,1.98,80.68
57047,2018-06-29 09:14:34.718750,-0.69,80.68
57048,2018-06-29 09:14:34.750000,-3.52,80.68
57049,2018-06-29 09:14:34.781250,-3.31,80.68
57050,2018-06-29 09:14:34.812500,-3.01,80.68
57051,2018-06-29 09:14:34.843750,-5.21,80.68
57052,2018-06-29 09:14:34.875000,-6.32,80.68
57053,2018-06-29 09:14:34.906250,-2.96,80.68
57054,2018-06-29 09:14:34.937500,2.27,80.68
57055,2018-06-29 09:14:34.968750,6.7,80.68
57056,2018-06-29 09:14:35.000000,13.91,80.68
57057,2018-06-29 09:14:35.031250,31.44,80.68
57058,2018-06-29 09:14:35.062500,65.16,80.68
57059,2018-06-29 09:14:35.093750,109.74,80.68
