,Time,ppg,hr
60800,2018-06-29 09:16:32.000000,-30.15,86.05
60801,2018-06-29 09:16:32.031250,-11.93,86.05
60802,2018-06-29 09:16:32.062500,4.3,86.05
60803,2018-06-29 09:16:32.093750,22.64,86.05
60804,2018-06-29 09:16:32.125000,46.23,86.05
60805,2018-06-29 09:16:32.156250,68.61,86.05
60806,2018-06-29 09:16:32.187500,82.61,86.05
60807,2018-06-29 09:16:32.218750,90.47,86.05
60808,2018-06-29 09:16:32.250000,100.5,86.05
60809,2018-06-29 09:16:32.281250,118.51,86.05
60810,2018-06-29 09:16:32.312500,143.83,86.05
60811,2018-06-29 09:16:32.343750,165.25,86.05
60812,2018-06-29 09:16:32.375000,161.71,86.05
60813,2018-06-29 09:16:32.406250,120.38,86.05
60814,2018-06-29 09:16:32.437500,54.55,86.05
60815,2018-06-29 09:16:32.468750,-8.1,86.05
60816,2018-06-29 09:16:32.500000,-54.28,86.05
60817,2018-06-29 09:16:32.531250,-91.82,86.3
60818,2018-06-29 09:16:32.562500,-130.03,86.3
60819,2018-06-29 09:16:32.593750,-164.26,86.3
60820,2018-06-29 09:16:32.625000,-181.85,86.3
60821,2018-06-29 09:16:32.656250,-176.24,86.3
60822,2018-06-29 09:16:32.687500,-151.78,86.3
60823,2018-06-29 09:16:32.718750,-118.6,86.3
60824,2018-06-29 09:16:32.750000,-86.54,86.3
60825,2018-06-29 09:16:32.781250,-61.08,86.3
60826,2018-06-29 09:16:32.812500,-41.89,86.3
60827,2018-06-29 09:16:32.843750,-25.27,86.3
60828,2018-06-29 09:16:32.875000,-8.34,86.3
60829,2018-06-29 09:16:32.906250,7.74,86.3
60830,2018-06-29 09:16:32.937500,18.86,86.3
60831,2018-06-29 09:16:32.968750,22.87,86.3
60832,2018-06-29 09:16:33.000000,21.66,86.3
60833,2018-06-29 09:16:33.031250,18.25,86.3
60834,2018-06-29 09:16:33.062500,15.41,86.3
60835,2018-06-29 09:16:33.093750,15.26,86.3
60836,2018-06-29 09:16:33.125000,15.42,86.3
60837,2018-06-29 09:16:33.156250,7.92,86.3
60838,2018-06-29 09:16:33.187500,-12.3,86.3
60839,2018-06-29 09:16:33.218750,-37.71,86.3
60840,2018-06-29 09:16:33.250000,-49.44,86.3
60841,2018-06-29 09:16:33.281250,-32.41,86.3
60842,2018-06-29 09:16:33.312500,10.4,86.3
60843,2018-06-29 09:16:33.343750,62.27,86.3
60844,2018-06-29 09:16:33.375000,108.47,86.3
60845,2018-06-29 09:16:33.406250,143.54,86.3
60846,2018-06-29 09:16:33.437500,169.08,86.3
60847,2018-06-29 09:16:33.468750,188.64,86.3
60848,2018-06-29 09:16:33.500000,200.45,86.3
60849,2018-06-29 09:16:33.531250,194.36,86.52
60850,2018-06-29 09:16:33.562500,159.69,86.52
60851,2018-06-29 09:16:33.593750,96.72,86.52
60852,2018-06-29 09:16:33.625000,21.88,86.52
60853,2018-06-29 09:16:33.656250,-39.84,86.52
60854,2018-06-29 09:16:33.687500,-74.82,86.52
60855,2018-06-29 09:16:33.718750,-91.02,86.52
60856,2018-06-29 09:16:33.750000,-101.63,86.52
60857,2018-06-29 09:16:33.781250,-106.8,86.52
60858,2018-06-29 09:16:33.812500,-101.05,86.52
60859,2018-06-29 09:16:33.843750,-88.01,86.52
60860,2018-06-29 09:16:33.875000,-75.22,86.52
60861,2018-06-29 09:16:33.906250,-61.97,86.52
60862,2018-06-29 09:16:33.937500,-42.38,86.52
60863,2018-06-29 09:16:33.968750,-15.63,86.52
60864,2018-06-29 09:16:34.000000,12.08,86.52
60865,2018-06-29 09:16:34.031250,30.61,86.52
60866,2018-06-29 09:16:34.062500,29.67,86.52
60867,2018-06-29 09:16:34.093750,9.55,86.52
60868,2018-06-29 09:16:34.125000,-11.97,86.52
60869,2018-06-29 09:16:34.156250,-16.72,86.52
60870,2018-06-29 09:16:34.187500,-7.98,86.52
60871,2018-06-29 09:16:34.218750,-1.8,86.52
60872,2018-06-29 09:16:34.250000,-3.85,86.52
60873,2018-06-29 09:16:34.281250,-9.85,86.52
60874,2018-06-29 09:16:34.312500,-18.65,86.52
60875,2018-06-29 09:16:34.343750,-28.57,86.52
60876,2018-06-29 09:16:34.375000,-30.14,86.52
60877,2018-06-29 09:16:34.406250,-16.63,86.52
60878,2018-06-29 09:16:34.437500,4.96,86.52
60879,2018-06-29 09:16:34.468750,23.57,86.52
60880,2018-06-29 09:16:34.500000,38.39,86.52
60881,2018-06-29 09:16:34.531250,55.06,86.72
60882,2018-06-29 09:16:34.562500,74.52,86.72
60883,2018-06-29 09:16:34.593750,91.88,86.72
60884,2018-06-29 09:16:34.625000,100.71,86.72
60885,2018-06-29 09:16:34.656250,95.48,86.72
60886,2018-06-29 09:16:34.687500,73.55,86.72
60887,2018-06-29 09:16:34.718750,37.8,86.72
60888,2018-06-29 09:16:34.750000,-2.05,86.72
60889,2018-06-29 09:16:34.781250,-33.48,86.72
60890,2018-06-29 09:16:34.812500,-51.9,86.72
60891,2018-06-29 09:16:34.843750,-65.37,86.72
60892,2018-06-29 09:16:34.875000,-83.22,86.72
60893,2018-06-29 09:16:34.906250,-103.49,86.72
60894,2018-06-29 09:16:34.937500,-116.97,86.72
60895,2018-06-29 09:16:34.968750,-118.11,86.72
60896,2018-06-29 09:16:35.000000,-107.53,86.72
60897,2018-06-29 09:16:35.031250,-88.88,86.72
60898,2018-06-29 09:16:35.062500,-67.68,86.72
60899,2018-06-29 09:16:35.093750,-50.17,86.72
60900,2018-06-29 09:16:35.125000,-39.03,86.72
60901,2018-06-29 09:16:35.156250,-31.21,86.72
60902,2018-06-29 09:16:35.187500,-22.7,86.72
60903,2018-06-29 09:16:35.218750,-13.99,86.72
60904,2018-06-29 09:16:35.250000,-8.35,86.72
60905,2018-06-29 09:16:35.281250,-5.94,86.72
60906,2018-06-29 09:16:35.312500,-2.85,86.72
60907,2018-06-29 09:16:35.343750,4.29,86.72
60908,2018-06-29 09:16:35.375000,13.59,86.72
60909,2018-06-29 09:16:35.406250,18.79,86.72
60910,2018-06-29 09:16:35.437500,16.54,86.72
60911,2018-06-29 09:16:35.468750,12.27,86.72
60912,2018-06-29 09:16:35.500000,16.51,86.72
60913,2018-06-29 09:16:35.531250,33.71,86.93
60914,2018-06-29 09:16:35.562500,56.8,86.93
60915,2018-06-29 09:16:35.593750,75.62,86.93
60916,2018-06-29 09:16:35.625000,87.71,86.93
60917,2018-06-29 09:16:35.656250,96.79,86.93
60918,2018-06-29 09:16:35.687500,105.58,86.93
60919,2018-06-29 09:16:35.718750,115.66,86.93
60920,2018-06-29 09:16:35.750000,128.2,86.93
60921,2018-06-29 09:16:35.781250,139.4,86.93
60922,2018-06-29 09:16:35.812500,139.04,86.93
60923,2018-06-29 09:16:35.843750,116.71,86.93
60924,2018-06-29 09:16:35.875000,68.99,86.93
60925,2018-06-29 09:16:35.906250,2.34,86.93
60926,2018-06-29 09:16:35.937500,-68.8,86.93
60927,2018-06-29 09:16:35.968750,-128.86,86.93
60928,2018-06-29 09:16:36.000000,-166.33,86.93
60929,2018-06-29 09:16:36.031250,-173.13,86.93
60930,2018-06-29 09:16:36.062500,-146.43,86.93
60931,2018-06-29 09:16:36.093750,-95.96,86.93
60932,2018-06-29 09:16:36.125000,-42.57,86.93
60933,2018-06-29 09:16:36.156250,-1.85,86.93
60934,2018-06-29 09:16:36.187500,27.6,86.93
60935,2018-06-29 09:16:36.218750,55.79,86.93
60936,2018-06-29 09:16:36.250000,85.29,86.93
60937,2018-06-29 09:16:36.281250,106.1,86.93
60938,2018-06-29 09:16:36.312500,102.84,86.93
60939,2018-06-29 09:16:36.343750,68.33,86.93
60940,2018-06-29 09:16:36.375000,18.09,86.93
60941,2018-06-29 09:16:36.406250,-14.45,86.93
60942,2018-06-29 09:16:36.437500,-12.21,86.93
60943,2018-06-29 09:16:36.468750,4.88,86.93
60944,2018-06-29 09:16:36.500000,9.09,86.93
60945,2018-06-29 09:16:36.531250,-2.19,87.22
60946,2018-06-29 09:16:36.562500,-18.61,87.22
60947,2018-06-29 09:16:36.593750,-36.71,87.22
60948,2018-06-29 09:16:36.625000,-51.36,87.22
60949,2018-06-29 09:16:36.656250,-52.06,87.22
60950,2018-06-29 09:16:36.687500,-38.97,87.22
60951,2018-06-29 09:16:36.718750,-22.97,87.22
60952,2018-06-29 09:16:36.750000,-7.65,87.22
60953,2018-06-29 09:16:36.781250,12.54,87.22
60954,2018-06-29 09:16:36.812500,37.65,87.22
60955,2018-06-29 09:16:36.843750,62.56,87.22
60956,2018-06-29 09:16:36.875000,91.17,87.22
60957,2018-06-29 09:16:36.906250,129.96,87.22
60958,2018-06-29 09:16:36.937500,164.7,87.22
60959,2018-06-29 09:16:36.968750,170.35,87.22
60960,2018-06-29 09:16:37.000000,146.71,87.22
60961,2018-06-29 09:16:37.031250,112.56,87.22
60962,2018-06-29 09:16:37.062500,72.6,87.22
60963,2018-06-29 09:16:37.093750,25.81,87.22
60964,2018-06-29 09:16:37.125000,-15.12,87.22
60965,2018-06-29 09:16:37.156250,-45.99,87.22
60966,2018-06-29 09:16:37.187500,-83.33,87.22
60967,2018-06-29 09:16:37.218750,-132.58,87.22
60968,2018-06-29 09:16:37.250000,-175.44,87.22
60969,2018-06-29 09:16:37.281250,-197.36,87.22
60970,2018-06-29 09:16:37.312500,-201.29,87.22
60971,2018-06-29 09:16:37.343750,-194.9,87.22
60972,2018-06-29 09:16:37.375000,-182.22,87.22
60973,2018-06-29 09:16:37.406250,-162.67,87.22
60974,2018-06-29 09:16:37.437500,-131.56,87.22
60975,2018-06-29 09:16:37.468750,-87.32,87.22
60976,2018-06-29 09:16:37.500000,-37.3,87.22
60977,2018-06-29 09:16:37.531250,7.01,87.53
60978,2018-06-29 09:16:37.562500,35.24,87.53
60979,2018-06-29 09:16:37.593750,42.92,87.53
60980,2018-06-29 09:16:37.625000,38.33,87.53
60981,2018-06-29 09:16:37.656250,36.36,87.53
60982,2018-06-29 09:16:37.687500,40.34,87.53
60983,2018-06-29 09:16:37.718750,41.75,87.53
60984,2018-06-29 09:16:37.750000,37.78,87.53
60985,2018-06-29 09:16:37.781250,36.52,87.53
60986,2018-06-29 09:16:37.812500,44.45,87.53
60987,2018-06-29 09:16:37.843750,57.76,87.53
60988,2018-06-29 09:16:37.875000,66.16,87.53
60989,2018-06-29 09:16:37.906250,64.6,87.53
60990,2018-06-29 09:16:37.937500,61.97,87.53
60991,2018-06-29 09:16:37.968750,74.73,87.53
60992,2018-06-29 09:16:38.000000,105.83,87.53
60993,2018-06-29 09:16:38.031250,132.46,87.53
60994,2018-06-29 09:16:38.062500,127.41,87.53
60995,2018-06-29 09:16:38.093750,92.41,87.53
60996,2018-06-29 09:16:38.125000,55.02,87.53
60997,2018-06-29 09:16:38.156250,35.03,87.53
60998,2018-06-29 09:16:38.187500,29.96,87.53
60999,2018-06-29 09:16:38.218750,27.44,87.53
61000,2018-06-29 09:16:38.250000,14.37,87.53
61001,2018-06-29 09:16:38.281250,-18.94,87.53
61002,2018-06-29 09:16:38.312500,-68.34,87.53
61003,2018-06-29 09:16:38.343750,-112.27,87.53
61004,2018-06-29 09:16:38.375000,-128.52,87.53
61005,2018-06-29 09:16:38.406250,-114.8,87.53
61006,2018-06-29 09:16:38.437500,-87.98,87.53
61007,2018-06-29 09:16:38.468750,-64.1,87.53
61008,2018-06-29 09:16:38.500000,-44.23,87.53
61009,2018-06-29 09:16:38.531250,-19.74,87.85
61010,2018-06-29 09:16:38.562500,12.68,87.85
61011,2018-06-29 09:16:38.593750,40.2,87.85
61012,2018-06-29 09:16:38.625000,39.09,87.85
61013,2018-06-29 09:16:38.656250,0.85,87.85
61014,2018-06-29 09:16:38.687500,-47.67,87.85
61015,2018-06-29 09:16:38.718750,-67.85,87.85
61016,2018-06-29 09:16:38.750000,-54.02,87.85
61017,2018-06-29 09:16:38.781250,-33.67,87.85
61018,2018-06-29 09:16:38.812500,-26.99,87.85
61019,2018-06-29 09:16:38.843750,-31.62,87.85
61020,2018-06-29 09:16:38.875000,-40.87,87.85
61021,2018-06-29 09:16:38.906250,-50.35,87.85
61022,2018-06-29 09:16:38.937500,-51.9,87.85
61023,2018-06-29 09:16:38.968750,-41.19,87.85
61024,2018-06-29 09:16:39.000000,-25.3,87.85
61025,2018-06-29 09:16:39.031250,-11.92,87.85
61026,2018-06-29 09:16:39.062500,1.25,87.85
61027,2018-06-29 09:16:39.093750,19.83,87.85
61028,2018-06-29 09:16:39.125000,42.19,87.85
61029,2018-06-29 09:16:39.156250,62.29,87.85
61030,2018-06-29 09:16:39.187500,77.5,87.85
61031,2018-06-29 09:16:39.218750,87.07,87.85
61032,2018-06-29 09:16:39.250000,86.72,87.85
61033,2018-06-29 09:16:39.281250,70.87,87.85
61034,2018-06-29 09:16:39.312500,38.5,87.85
61035,2018-06-29 09:16:39.343750,-5.47,87.85
61036,2018-06-29 09:16:39.375000,-52.56,87.85
61037,2018-06-29 09:16:39.406250,-93.91,87.85
61038,2018-06-29 09:16:39.437500,-120.47,87.85
61039,2018-06-29 09:16:39.468750,-123.26,87.85
61040,2018-06-29 09:16:39.500000,-100.98,87.85
61041,2018-06-29 09:16:39.531250,-66.53,88.17
61042,2018-06-29 09:16:39.562500,-38.07,88.17
61043,2018-06-29 09:16:39.593750,-21.99,88.17
61044,2018-06-29 09:16:39.625000,-9.69,88.17
61045,2018-06-29 09:16:39.656250,10.43,88.17
61046,2018-06-29 09:16:39.687500,38.39,88.17
61047,2018-06-29 09:16:39.718750,57.85,88.17
61048,2018-06-29 09:16:39.750000,51.01,88.17
61049,2018-06-29 09:16:39.781250,22.6,88.17
61050,2018-06-29 09:16:39.812500,1.57,88.17
61051,2018-06-29 09:16:39.843750,5.79,88.17
61052,2018-06-29 09:16:39.875000,19.91,88.17
61053,2018-06-29 09:16:39.906250,19.64,88.17
61054,2018-06-29 09:16:39.937500,2.96,88.17
61055,2018-06-29 09:16:39.968750,-19.5,88.17
61056,2018-06-29 09:16:40.000000,-43.74,88.17
61057,2018-06-29 09:16:40.031250,-61.32,88.17
61058,2018-06-29 09:16:40.062500,-58.87,88.17
61059,2018-06-29 09:16:40.093750,-37.14,88.17
61060,2018-06-29 09:16:40.125000,-17.28,88.17
61061,2018-06-29 09:16:40.156250,-10.24,88.17
61062,2018-06-29 09:16:40.187500,-6.64,88.17
61063,2018-06-29 09:16:40.218750,4.28,88.17
61064,2018-06-29 09:16:40.250000,23.19,88.17
61065,2018-06-29 09:16:40.281250,42.03,88.17
61066,2018-06-29 09:16:40.312500,53.32,88.17
61067,2018-06-29 09:16:40.343750,49.13,88.17
61068,2018-06-29 09:16:40.375000,46.49,88.17
61069,2018-06-29 09:16:40.406250,68.28,88.17
61070,2018-06-29 09:16:40.437500,93.4,88.17
61071,2018-06-29 09:16:40.468750,112.87,88.17
61072,2018-06-29 09:16:40.500000,120.87,88.17
61073,2018-06-29 09:16:40.531250,110.96,88.5
61074,2018-06-29 09:16:40.562500,79.16,88.5
61075,2018-06-29 09:16:40.593750,28.69,88.5
61076,2018-06-29 09:16:40.625000,-36.87,88.5
61077,2018-06-29 09:16:40.656250,-105.61,88.5
61078,2018-06-29 09:16:40.687500,-158.4,88.5
61079,2018-06-29 09:16:40.718750,-177.59,88.5
61080,2018-06-29 09:16:40.750000,-162.59,88.5
61081,2018-06-29 09:16:40.781250,-127.87,88.5
61082,2018-06-29 09:16:40.812500,-87.23,88.5
61083,2018-06-29 09:16:40.843750,-51.08,88.5
61084,2018-06-29 09:16:40.875000,-25.51,88.5
61085,2018-06-29 09:16:40.906250,-12.77,88.5
61086,2018-06-29 09:16:40.937500,-8.95,88.5
61087,2018-06-29 09:16:40.968750,-6.02,88.5
61088,2018-06-29 09:16:41.000000,7.17,88.5
61089,2018-06-29 09:16:41.031250,34.65,88.5
61090,2018-06-29 09:16:41.062500,66.03,88.5
61091,2018-06-29 09:16:41.093750,90.22,88.5
61092,2018-06-29 09:16:41.125000,104.72,88.5
61093,2018-06-29 09:16:41.156250,109.05,88.5
61094,2018-06-29 09:16:41.187500,104.99,88.5
61095,2018-06-29 09:16:41.218750,102.4,88.5
61096,2018-06-29 09:16:41.250000,102.49,88.5
61097,2018-06-29 09:16:41.281250,85.68,88.5
61098,2018-06-29 09:16:41.312500,38.78,88.5
61099,2018-06-29 09:16:41.343750,-20.23,88.5
61100,2018-06-29 09:16:41.375000,-60.58,88.5
61101,2018-06-29 09:16:41.406250,-65.47,88.5
61102,2018-06-29 09:16:41.437500,-35.5,88.5
61103,2018-06-29 09:16:41.468750,13.85,88.5
61104,2018-06-29 09:16:41.500000,57.9,88.5
61105,2018-06-29 09:16:41.531250,80.86,88.88
61106,2018-06-29 09:16:41.562500,85.76,88.88
61107,2018-06-29 09:16:41.593750,84.69,88.88
61108,2018-06-29 09:16:41.625000,84.1,88.88
61109,2018-06-29 09:16:41.656250,74.43,88.88
61110,2018-06-29 09:16:41.687500,36.19,88.88
61111,2018-06-29 09:16:41.718750,-32.77,88.88
61112,2018-06-29 09:16:41.750000,-107.04,88.88
61113,2018-06-29 09:16:41.781250,-160.52,88.88
61114,2018-06-29 09:16:41.812500,-187.78,88.88
61115,2018-06-29 09:16:41.843750,-194.62,88.88
61116,2018-06-29 09:16:41.875000,-187.54,88.88
61117,2018-06-29 09:16:41.906250,-174.88,88.88
61118,2018-06-29 09:16:41.937500,-161.32,88.88
61119,2018-06-29 09:16:41.968750,-138.56,88.88
61120,2018-06-29 09:16:42.000000,-93.83,88.88
61121,2018-06-29 09:16:42.031250,-29.11,88.88
61122,2018-06-29 09:16:42.062500,39.3,88.88
61123,2018-06-29 09:16:42.093750,98.26,88.88
61124,2018-06-29 09:16:42.125000,140.68,88.88
61125,2018-06-29 09:16:42.156250,161.49,88.88
61126,2018-06-29 09:16:42.187500,164.55,88.88
61127,2018-06-29 09:16:42.218750,160.76,88.88
61128,2018-06-29 09:16:42.250000,154.58,88.88
61129,2018-06-29 09:16:42.281250,144.09,88.88
61130,2018-06-29 09:16:42.312500,125.35,88.88
61131,2018-06-29 09:16:42.343750,87.8,88.88
61132,2018-06-29 09:16:42.375000,23.72,88.88
61133,2018-06-29 09:16:42.406250,-53.5,88.88
61134,2018-06-29 09:16:42.437500,-118.44,88.88
61135,2018-06-29 09:16:42.468750,-157.22,88.88
61136,2018-06-29 09:16:42.500000,-170.45,88.88
61137,2018-06-29 09:16:42.531250,-163.51,89.23
61138,2018-06-29 09:16:42.562500,-142.33,89.23
61139,2018-06-29 09:16:42.593750,-110.61,89.23
61140,2018-06-29 09:16:42.625000,-68.43,89.23
61141,2018-06-29 09:16:42.656250,-19.27,89.23
61142,2018-06-29 09:16:42.687500,24.42,89.23
61143,2018-06-29 09:16:42.718750,53.11,89.23
61144,2018-06-29 09:16:42.750000,72.93,89.23
61145,2018-06-29 09:16:42.781250,91.42,89.23
61146,2018-06-29 09:16:42.812500,99.56,89.23
61147,2018-06-29 09:16:42.843750,87.14,89.23
61148,2018-06-29 09:16:42.875000,65.05,89.23
61149,2018-06-29 09:16:42.906250,49.44,89.23
61150,2018-06-29 09:16:42.937500,36.05,89.23
61151,2018-06-29 09:16:42.968750,11.87,89.23
61152,2018-06-29 09:16:43.000000,-20.87,89.23
61153,2018-06-29 09:16:43.031250,-49.61,89.23
61154,2018-06-29 09:16:43.062500,-68.65,89.23
61155,2018-06-29 09:16:43.093750,-78.99,89.23
61156,2018-06-29 09:16:43.125000,-81.28,89.23
61157,2018-06-29 09:16:43.156250,-77.48,89.23
61158,2018-06-29 09:16:43.187500,-71.81,89.23
61159,2018-06-29 09:16:43.218750,-63.76,89.23
61160,2018-06-29 09:16:43.250000,-46.61,89.23
61161,2018-06-29 09:16:43.281250,-18.03,89.23
61162,2018-06-29 09:16:43.312500,13.57,89.23
61163,2018-06-29 09:16:43.343750,38.26,89.23
61164,2018-06-29 09:16:43.375000,55.78,89.23
61165,2018-06-29 09:16:43.406250,72.22,89.23
61166,2018-06-29 09:16:43.437500,85.93,89.23
61167,2018-06-29 09:16:43.468750,83.82,89.23
61168,2018-06-29 09:16:43.500000,57.56,89.23
61169,2018-06-29 09:16:43.531250,16.48,89.55
61170,2018-06-29 09:16:43.562500,-22.45,89.55
61171,2018-06-29 09:16:43.593750,-49.58,89.55
61172,2018-06-29 09:16:43.625000,-62.83,89.55
61173,2018-06-29 09:16:43.656250,-63.64,89.55
61174,2018-06-29 09:16:43.687500,-56.75,89.55
61175,2018-06-29 09:16:43.718750,-47.28,89.55
61176,2018-06-29 09:16:43.750000,-36.32,89.55
61177,2018-06-29 09:16:43.781250,-22.61,89.55
61178,2018-06-29 09:16:43.812500,-7.18,89.55
61179,2018-06-29 09:16:43.843750,7.71,89.55
61180,2018-06-29 09:16:43.875000,24.99,89.55
61181,2018-06-29 09:16:43.906250,50.63,89.55
61182,2018-06-29 09:16:43.937500,82.32,89.55
61183,2018-06-29 09:16:43.968750,108.1,89.55
61184,2018-06-29 09:16:44.000000,118.27,89.55
61185,2018-06-29 09:16:44.031250,113.27,89.55
61186,2018-06-29 09:16:44.062500,101.25,89.55
61187,2018-06-29 09:16:44.093750,89.52,89.55
61188,2018-06-29 09:16:44.125000,74.41,89.55
61189,2018-06-29 09:16:44.156250,43.94,89.55
61190,2018-06-29 09:16:44.187500,-4.17,89.55
61191,2018-06-29 09:16:44.218750,-55.08,89.55
61192,2018-06-29 09:16:44.250000,-91.86,89.55
61193,2018-06-29 09:16:44.281250,-110.04,89.55
61194,2018-06-29 09:16:44.312500,-114.9,89.55
61195,2018-06-29 09:16:44.343750,-112.7,89.55
61196,2018-06-29 09:16:44.375000,-105.95,89.55
61197,2018-06-29 09:16:44.406250,-90.8,89.55
61198,2018-06-29 09:16:44.437500,-61.84,89.55
61199,2018-06-29 09:16:44.468750,-26.44,89.55
61200,2018-06-29 09:16:44.500000,-2.48,89.55
61201,2018-06-29 09:16:44.531250,8.39,89.83
61202,2018-06-29 09:16:44.562500,26.99,89.83
61203,2018-06-29 09:16:44.593750,67.13,89.83
61204,2018-06-29 09:16:44.625000,116.39,89.83
61205,2018-06-29 09:16:44.656250,148.29,89.83
61206,2018-06-29 09:16:44.687500,141.89,89.83
61207,2018-06-29 09:16:44.718750,95.64,89.83
61208,2018-06-29 09:16:44.750000,29.58,89.83
61209,2018-06-29 09:16:44.781250,-30.33,89.83
61210,2018-06-29 09:16:44.812500,-69.83,89.83
61211,2018-06-29 09:16:44.843750,-88.34,89.83
61212,2018-06-29 09:16:44.875000,-91.61,89.83
61213,2018-06-29 09:16:44.906250,-85.25,89.83
61214,2018-06-29 09:16:44.937500,-72.73,89.83
61215,2018-06-29 09:16:44.968750,-57.58,89.83
61216,2018-06-29 09:16:45.000000,-42.6,89.83
61217,2018-06-29 09:16:45.031250,-26.49,89.83
61218,2018-06-29 09:16:45.062500,-5.33,89.83
61219,2018-06-29 09:16:45.093750,20.77,89.83
61220,2018-06-29 09:16:45.125000,43.04,89.83
61221,2018-06-29 09:16:45.156250,50.06,89.83
61222,2018-06-29 09:16:45.187500,43.15,89.83
61223,2018-06-29 09:16:45.218750,41.1,89.83
61224,2018-06-29 09:16:45.250000,60.55,89.83
61225,2018-06-29 09:16:45.281250,93.21,89.83
61226,2018-06-29 09:16:45.312500,110.23,89.83
61227,2018-06-29 09:16:45.343750,90.18,89.83
61228,2018-06-29 09:16:45.375000,38.44,89.83
61229,2018-06-29 09:16:45.406250,-21.35,89.83
61230,2018-06-29 09:16:45.437500,-68.88,89.83
61231,2018-06-29 09:16:45.468750,-96.03,89.83
61232,2018-06-29 09:16:45.500000,-101.32,89.83
61233,2018-06-29 09:16:45.531250,-87.32,90.12
61234,2018-06-29 09:16:45.562500,-63.42,90.12
61235,2018-06-29 09:16:45.593750,-42.09,90.12
61236,2018-06-29 09:16:45.625000,-29.16,90.12
61237,2018-06-29 09:16:45.656250,-20.15,90.12
61238,2018-06-29 09:16:45.687500,-6.72,90.12
61239,2018-06-29 09:16:45.718750,12.73,90.12
61240,2018-06-29 09:16:45.750000,26.95,90.12
61241,2018-06-29 09:16:45.781250,19.33,90.12
61242,2018-06-29 09:16:45.812500,-9.82,90.12
61243,2018-06-29 09:16:45.843750,-33.3,90.12
61244,2018-06-29 09:16:45.875000,-25.39,90.12
61245,2018-06-29 09:16:45.906250,4.61,90.12
61246,2018-06-29 09:16:45.937500,25.74,90.12
61247,2018-06-29 09:16:45.968750,23.97,90.12
61248,2018-06-29 09:16:46.000000,8.1,90.12
61249,2018-06-29 09:16:46.031250,-11.57,90.12
61250,2018-06-29 09:16:46.062500,-29.58,90.12
61251,2018-06-29 09:16:46.093750,-39.21,90.12
61252,2018-06-29 09:16:46.125000,-37.09,90.12
61253,2018-06-29 09:16:46.156250,-28.9,90.12
61254,2018-06-29 09:16:46.187500,-22.08,90.12
61255,2018-06-29 09:16:46.218750,-17.31,90.12
61256,2018-06-29 09:16:46.250000,-10.75,90.12
61257,2018-06-29 09:16:46.281250,0.16,90.12
61258,2018-06-29 09:16:46.312500,17.14,90.12
61259,2018-06-29 09:16:46.343750,42.28,90.12
61260,2018-06-29 09:16:46.375000,71.79,90.12
61261,2018-06-29 09:16:46.406250,92.29,90.12
61262,2018-06-29 09:16:46.437500,93.01,90.12
61263,2018-06-29 09:16:46.468750,81.54,90.12
61264,2018-06-29 09:16:46.500000,78.24,90.12
61265,2018-06-29 09:16:46.531250,95.1,90.38
61266,2018-06-29 09:16:46.562500,126.2,90.38
61267,2018-06-29 09:16:46.593750,152.74,90.38
61268,2018-06-29 09:16:46.625000,151.8,90.38
61269,2018-06-29 09:16:46.656250,110.77,90.38
61270,2018-06-29 09:16:46.687500,40.3,90.38
61271,2018-06-29 09:16:46.718750,-33.65,90.38
61272,2018-06-29 09:16:46.750000,-91.01,90.38
61273,2018-06-29 09:16:46.781250,-125.01,90.38
61274,2018-06-29 09:16:46.812500,-136.27,90.38
61275,2018-06-29 09:16:46.843750,-130.53,90.38
61276,2018-06-29 09:16:46.875000,-116.69,90.38
61277,2018-06-29 09:16:46.906250,-100.01,90.38
61278,2018-06-29 09:16:46.937500,-80.46,90.38
61279,2018-06-29 09:16:46.968750,-60.0,90.38
61280,2018-06-29 09:16:47.000000,-44.31,90.38
61281,2018-06-29 09:16:47.031250,-34.06,90.38
61282,2018-06-29 09:16:47.062500,-21.69,90.38
61283,2018-06-29 09:16:47.093750,-2.18,90.38
61284,2018-06-29 09:16:47.125000,20.48,90.38
61285,2018-06-29 09:16:47.156250,39.75,90.38
61286,2018-06-29 09:16:47.187500,51.98,90.38
61287,2018-06-29 09:16:47.218750,57.22,90.38
61288,2018-06-29 09:16:47.250000,61.0,90.38
61289,2018-06-29 09:16:47.281250,66.46,90.38
61290,2018-06-29 09:16:47.312500,63.07,90.38
61291,2018-06-29 09:16:47.343750,37.66,90.38
61292,2018-06-29 09:16:47.375000,-5.57,90.38
61293,2018-06-29 09:16:47.406250,-49.42,90.38
61294,2018-06-29 09:16:47.437500,-80.09,90.38
61295,2018-06-29 09:16:47.468750,-90.55,90.38
61296,2018-06-29 09:16:47.500000,-80.58,90.38
61297,2018-06-29 09:16:47.531250,-59.49,90.62
61298,2018-06-29 09:16:47.562500,-38.97,90.62
61299,2018-06-29 09:16:47.593750,-21.86,90.62
61300,2018-06-29 09:16:47.625000,-4.5,90.62
61301,2018-06-29 09:16:47.656250,14.23,90.62
61302,2018-06-29 09:16:47.687500,32.55,90.62
61303,2018-06-29 09:16:47.718750,49.37,90.62
61304,2018-06-29 09:16:47.750000,63.78,90.62
61305,2018-06-29 09:16:47.781250,76.17,90.62
61306,2018-06-29 09:16:47.812500,87.83,90.62
61307,2018-06-29 09:16:47.843750,95.7,90.62
61308,2018-06-29 09:16:47.875000,95.46,90.62
61309,2018-06-29 09:16:47.906250,92.61,90.62
61310,2018-06-29 09:16:47.937500,97.58,90.62
61311,2018-06-29 09:16:47.968750,106.18,90.62
61312,2018-06-29 09:16:48.000000,97.48,90.62
61313,2018-06-29 09:16:48.031250,56.4,90.62
61314,2018-06-29 09:16:48.062500,-8.58,90.62
61315,2018-06-29 09:16:48.093750,-73.09,90.62
61316,2018-06-29 09:16:48.125000,-116.72,90.62
61317,2018-06-29 09:16:48.156250,-133.91,90.62
61318,2018-06-29 09:16:48.187500,-132.29,90.62
61319,2018-06-29 09:16:48.218750,-124.05,90.62
61320,2018-06-29 09:16:48.250000,-115.05,90.62
61321,2018-06-29 09:16:48.281250,-102.13,90.62
61322,2018-06-29 09:16:48.312500,-84.42,90.62
61323,2018-06-29 09:16:48.343750,-71.03,90.62
61324,2018-06-29 09:16:48.375000,-70.1,90.62
61325,2018-06-29 09:16:48.406250,-73.04,90.62
61326,2018-06-29 09:16:48.437500,-58.06,90.62
61327,2018-06-29 09:16:48.468750,-13.55,90.62
61328,2018-06-29 09:16:48.500000,43.02,90.62
61329,2018-06-29 09:16:48.531250,76.16,90.8
61330,2018-06-29 09:16:48.562500,69.06,90.8
61331,2018-06-29 09:16:48.593750,43.0,90.8
61332,2018-06-29 09:16:48.625000,28.41,90.8
61333,2018-06-29 09:16:48.656250,27.9,90.8
61334,2018-06-29 09:16:48.687500,25.06,90.8
61335,2018-06-29 09:16:48.718750,14.2,90.8
61336,2018-06-29 09:16:48.750000,0.33,90.8
61337,2018-06-29 09:16:48.781250,-14.98,90.8
61338,2018-06-29 09:16:48.812500,-29.23,90.8
61339,2018-06-29 09:16:48.843750,-34.47,90.8
61340,2018-06-29 09:16:48.875000,-29.31,90.8
61341,2018-06-29 09:16:48.906250,-22.94,90.8
61342,2018-06-29 09:16:48.937500,-20.52,90.8
61343,2018-06-29 09:16:48.968750,-16.55,90.8
61344,2018-06-29 09:16:49.000000,-6.81,90.8
61345,2018-06-29 09:16:49.031250,4.24,90.8
61346,2018-06-29 09:16:49.062500,13.88,90.8
61347,2018-06-29 09:16:49.093750,30.78,90.8
61348,2018-06-29 09:16:49.125000,67.38,90.8
61349,2018-06-29 09:16:49.156250,123.02,90.8
61350,2018-06-29 09:16:49.187500,175.94,90.8
61351,2018-06-29 09:16:49.218750,196.51,90.8
61352,2018-06-29 09:16:49.250000,173.16,90.8
61353,2018-06-29 09:16:49.281250,123.69,90.8
61354,2018-06-29 09:16:49.312500,78.85,90.8
61355,2018-06-29 09:16:49.343750,55.92,90.8
61356,2018-06-29 09:16:49.375000,46.28,90.8
61357,2018-06-29 09:16:49.406250,27.24,90.8
61358,2018-06-29 09:16:49.437500,-14.09,90.8
61359,2018-06-29 09:16:49.468750,-69.87,90.8
61360,2018-06-29 09:16:49.500000,-121.29,90.8
61361,2018-06-29 09:16:49.531250,-153.02,90.95
61362,2018-06-29 09:16:49.562500,-161.28,90.95
61363,2018-06-29 09:16:49.593750,-155.05,90.95
61364,2018-06-29 09:16:49.625000,-148.46,90.95
61365,2018-06-29 09:16:49.656250,-146.87,90.95
61366,2018-06-29 09:16:49.687500,-141.72,90.95
61367,2018-06-29 09:16:49.718750,-122.05,90.95
61368,2018-06-29 09:16:49.750000,-88.94,90.95
61369,2018-06-29 09:16:49.781250,-54.73,90.95
61370,2018-06-29 09:16:49.812500,-29.59,90.95
61371,2018-06-29 09:16:49.843750,-14.98,90.95
61372,2018-06-29 09:16:49.875000,-8.84,90.95
61373,2018-06-29 09:16:49.906250,-9.15,90.95
61374,2018-06-29 09:16:49.937500,-11.21,90.95
61375,2018-06-29 09:16:49.968750,-6.65,90.95
61376,2018-06-29 09:16:50.000000,11.22,90.95
61377,2018-06-29 09:16:50.031250,37.58,90.95
61378,2018-06-29 09:16:50.062500,52.71,90.95
61379,2018-06-29 09:16:50.093750,40.4,90.95
61380,2018-06-29 09:16:50.125000,11.27,90.95
61381,2018-06-29 09:16:50.156250,-10.15,90.95
61382,2018-06-29 09:16:50.187500,-18.56,90.95
61383,2018-06-29 09:16:50.218750,-26.65,90.95
61384,2018-06-29 09:16:50.250000,-39.28,90.95
61385,2018-06-29 09:16:50.281250,-51.6,90.95
61386,2018-06-29 09:16:50.312500,-59.58,90.95
61387,2018-06-29 09:16:50.343750,-55.92,90.95
61388,2018-06-29 09:16:50.375000,-32.85,90.95
61389,2018-06-29 09:16:50.406250,1.72,90.95
61390,2018-06-29 09:16:50.437500,28.2,90.95
61391,2018-06-29 09:16:50.468750,38.94,90.95
61392,2018-06-29 09:16:50.500000,43.36,90.95
61393,2018-06-29 09:16:50.531250,49.43,91.07
61394,2018-06-29 09:16:50.562500,53.66,91.07
61395,2018-06-29 09:16:50.593750,50.68,91.07
61396,2018-06-29 09:16:50.625000,44.03,91.07
61397,2018-06-29 09:16:50.656250,42.77,91.07
61398,2018-06-29 09:16:50.687500,49.94,91.07
61399,2018-06-29 09:16:50.718750,56.01,91.07
61400,2018-06-29 09:16:50.750000,46.94,91.07
61401,2018-06-29 09:16:50.781250,21.99,91.07
61402,2018-06-29 09:16:50.812500,-2.57,91.07
61403,2018-06-29 09:16:50.843750,-13.19,91.07
61404,2018-06-29 09:16:50.875000,-15.04,91.07
61405,2018-06-29 09:16:50.906250,-21.29,91.07
61406,2018-06-29 09:16:50.937500,-35.03,91.07
61407,2018-06-29 09:16:50.968750,-47.15,91.07
61408,2018-06-29 09:16:51.000000,-46.12,91.07
61409,2018-06-29 09:16:51.031250,-28.65,91.07
61410,2018-06-29 09:16:51.062500,-3.21,91.07
61411,2018-06-29 09:16:51.093750,17.35,91.07
61412,2018-06-29 09:16:51.125000,26.59,91.07
61413,2018-06-29 09:16:51.156250,26.88,91.07
61414,2018-06-29 09:16:51.187500,24.16,91.07
61415,2018-06-29 09:16:51.218750,22.78,91.07
61416,2018-06-29 09:16:51.250000,23.31,91.07
61417,2018-06-29 09:16:51.281250,24.24,91.07
61418,2018-06-29 09:16:51.312500,25.26,91.07
61419,2018-06-29 09:16:51.343750,26.98,91.07
61420,2018-06-29 09:16:51.375000,28.36,91.07
61421,2018-06-29 09:16:51.406250,27.04,91.07
61422,2018-06-29 09:16:51.437500,22.17,91.07
61423,2018-06-29 09:16:51.468750,15.29,91.07
61424,2018-06-29 09:16:51.500000,7.84,91.07
61425,2018-06-29 09:16:51.531250,-1.06,91.18
61426,2018-06-29 09:16:51.562500,-12.58,91.18
61427,2018-06-29 09:16:51.593750,-23.59,91.18
61428,2018-06-29 09:16:51.625000,-26.47,91.18
61429,2018-06-29 09:16:51.656250,-16.86,91.18
61430,2018-06-29 09:16:51.687500,0.29,91.18
61431,2018-06-29 09:16:51.718750,15.32,91.18
61432,2018-06-29 09:16:51.750000,22.44,91.18
61433,2018-06-29 09:16:51.781250,21.47,91.18
61434,2018-06-29 09:16:51.812500,14.69,91.18
61435,2018-06-29 09:16:51.843750,5.75,91.18
61436,2018-06-29 09:16:51.875000,-0.75,91.18
61437,2018-06-29 09:16:51.906250,-2.02,91.18
61438,2018-06-29 09:16:51.937500,1.03,91.18
61439,2018-06-29 09:16:51.968750,5.77,91.18
61440,2018-06-29 09:16:52.000000,10.94,91.18
61441,2018-06-29 09:16:52.031250,15.71,91.18
61442,2018-06-29 09:16:52.062500,17.75,91.18
61443,2018-06-29 09:16:52.093750,15.65,91.18
61444,2018-06-29 09:16:52.125000,11.72,91.18
61445,2018-06-29 09:16:52.156250,8.51,91.18
61446,2018-06-29 09:16:52.187500,4.6,91.18
61447,2018-06-29 09:16:52.218750,-0.86,91.18
61448,2018-06-29 09:16:52.250000,-2.49,91.18
61449,2018-06-29 09:16:52.281250,6.95,91.18
61450,2018-06-29 09:16:52.312500,28.56,91.18
61451,2018-06-29 09:16:52.343750,55.57,91.18
61452,2018-06-29 09:16:52.375000,74.77,91.18
61453,2018-06-29 09:16:52.406250,71.37,91.18
61454,2018-06-29 09:16:52.437500,42.02,91.18
61455,2018-06-29 09:16:52.468750,3.77,91.18
61456,2018-06-29 09:16:52.500000,-19.52,91.18
61457,2018-06-29 09:16:52.531250,-19.49,91.3
61458,2018-06-29 09:16:52.562500,-5.96,91.3
61459,2018-06-29 09:16:52.593750,8.4,91.3
61460,2018-06-29 09:16:52.625000,18.31,91.3
61461,2018-06-29 09:16:52.656250,24.16,91.3
61462,2018-06-29 09:16:52.687500,27.83,91.3
61463,2018-06-29 09:16:52.718750,31.43,91.3
61464,2018-06-29 09:16:52.750000,36.52,91.3
61465,2018-06-29 09:16:52.781250,43.07,91.3
61466,2018-06-29 09:16:52.812500,48.89,91.3
61467,2018-06-29 09:16:52.843750,52.16,91.3
61468,2018-06-29 09:16:52.875000,56.54,91.3
61469,2018-06-29 09:16:52.906250,69.45,91.3
61470,2018-06-29 09:16:52.937500,91.76,91.3
61471,2018-06-29 09:16:52.968750,114.17,91.3
61472,2018-06-29 09:16:53.000000,124.08,91.3
61473,2018-06-29 09:16:53.031250,110.54,91.3
61474,2018-06-29 09:16:53.062500,68.39,91.3
61475,2018-06-29 09:16:53.093750,5.71,91.3
61476,2018-06-29 09:16:53.125000,-58.28,91.3
61477,2018-06-29 09:16:53.156250,-106.77,91.3
61478,2018-06-29 09:16:53.187500,-132.11,91.3
61479,2018-06-29 09:16:53.218750,-133.19,91.3
61480,2018-06-29 09:16:53.250000,-116.83,91.3
61481,2018-06-29 09:16:53.281250,-98.53,91.3
61482,2018-06-29 09:16:53.312500,-90.93,91.3
61483,2018-06-29 09:16:53.343750,-91.33,91.3
61484,2018-06-29 09:16:53.375000,-87.89,91.3
61485,2018-06-29 09:16:53.406250,-76.45,91.3
61486,2018-06-29 09:16:53.437500,-63.2,91.3
61487,2018-06-29 09:16:53.468750,-53.66,91.3
61488,2018-06-29 09:16:53.500000,-47.69,91.3
61489,2018-06-29 09:16:53.531250,-41.59,91.43
61490,2018-06-29 09:16:53.562500,-28.33,91.43
61491,2018-06-29 09:16:53.593750,-2.13,91.43
61492,2018-06-29 09:16:53.625000,32.78,91.43
61493,2018-06-29 09:16:53.656250,64.41,91.43
61494,2018-06-29 09:16:53.687500,85.61,91.43
61495,2018-06-29 09:16:53.718750,98.75,91.43
61496,2018-06-29 09:16:53.750000,108.76,91.43
61497,2018-06-29 09:16:53.781250,116.99,91.43
61498,2018-06-29 09:16:53.812500,122.51,91.43
61499,2018-06-29 09:16:53.843750,128.36,91.43
61500,2018-06-29 09:16:53.875000,141.87,91.43
61501,2018-06-29 09:16:53.906250,161.08,91.43
61502,2018-06-29 09:16:53.937500,165.33,91.43
61503,2018-06-29 09:16:53.968750,130.6,91.43
61504,2018-06-29 09:16:54.000000,51.7,91.43
61505,2018-06-29 09:16:54.031250,-51.63,91.43
61506,2018-06-29 09:16:54.062500,-142.93,91.43
61507,2018-06-29 09:16:54.093750,-192.16,91.43
61508,2018-06-29 09:16:54.125000,-200.79,91.43
61509,2018-06-29 09:16:54.156250,-191.32,91.43
61510,2018-06-29 09:16:54.187500,-174.02,91.43
61511,2018-06-29 09:16:54.218750,-145.43,91.43
61512,2018-06-29 09:16:54.250000,-109.49,91.43
61513,2018-06-29 09:16:54.281250,-75.09,91.43
61514,2018-06-29 09:16:54.312500,-43.14,91.43
61515,2018-06-29 09:16:54.343750,-12.85,91.43
61516,2018-06-29 09:16:54.375000,11.38,91.43
61517,2018-06-29 09:16:54.406250,28.34,91.43
61518,2018-06-29 09:16:54.437500,44.94,91.43
61519,2018-06-29 09:16:54.468750,67.35,91.43
61520,2018-06-29 09:16:54.500000,93.47,91.43
61521,2018-06-29 09:16:54.531250,116.88,91.68
61522,2018-06-29 09:16:54.562500,134.36,91.68
61523,2018-06-29 09:16:54.593750,146.29,91.68
61524,2018-06-29 09:16:54.625000,150.27,91.68
61525,2018-06-29 09:16:54.656250,136.92,91.68
61526,2018-06-29 09:16:54.687500,95.53,91.68
61527,2018-06-29 09:16:54.718750,26.01,91.68
61528,2018-06-29 09:16:54.750000,-54.5,91.68
61529,2018-06-29 09:16:54.781250,-117.97,91.68
61530,2018-06-29 09:16:54.812500,-143.54,91.68
61531,2018-06-29 09:16:54.843750,-132.92,91.68
61532,2018-06-29 09:16:54.875000,-105.73,91.68
61533,2018-06-29 09:16:54.906250,-79.71,91.68
61534,2018-06-29 09:16:54.937500,-59.6,91.68
61535,2018-06-29 09:16:54.968750,-42.19,91.68
61536,2018-06-29 09:16:55.000000,-23.97,91.68
61537,2018-06-29 09:16:55.031250,-3.67,91.68
61538,2018-06-29 09:16:55.062500,17.32,91.68
61539,2018-06-29 09:16:55.093750,37.8,91.68
61540,2018-06-29 09:16:55.125000,59.22,91.68
61541,2018-06-29 09:16:55.156250,80.78,91.68
61542,2018-06-29 09:16:55.187500,94.31,91.68
61543,2018-06-29 09:16:55.218750,89.73,91.68
61544,2018-06-29 09:16:55.250000,64.41,91.68
61545,2018-06-29 09:16:55.281250,24.99,91.68
61546,2018-06-29 09:16:55.312500,-17.45,91.68
61547,2018-06-29 09:16:55.343750,-53.95,91.68
61548,2018-06-29 09:16:55.375000,-80.37,91.68
61549,2018-06-29 09:16:55.406250,-93.34,91.68
61550,2018-06-29 09:16:55.437500,-89.83,91.68
61551,2018-06-29 09:16:55.468750,-72.92,91.68
61552,2018-06-29 09:16:55.500000,-49.31,91.68
61553,2018-06-29 09:16:55.531250,-21.39,91.93
61554,2018-06-29 09:16:55.562500,9.46,91.93
61555,2018-06-29 09:16:55.593750,37.14,91.93
61556,2018-06-29 09:16:55.625000,56.32,91.93
61557,2018-06-29 09:16:55.656250,66.73,91.93
61558,2018-06-29 09:16:55.687500,69.7,91.93
61559,2018-06-29 09:16:55.718750,70.31,91.93
61560,2018-06-29 09:16:55.750000,80.07,91.93
61561,2018-06-29 09:16:55.781250,106.09,91.93
61562,2018-06-29 09:16:55.812500,141.15,91.93
61563,2018-06-29 09:16:55.843750,170.49,91.93
61564,2018-06-29 09:16:55.875000,182.94,91.93
61565,2018-06-29 09:16:55.906250,173.06,91.93
61566,2018-06-29 09:16:55.937500,141.11,91.93
61567,2018-06-29 09:16:55.968750,94.1,91.93
61568,2018-06-29 09:16:56.000000,41.02,91.93
61569,2018-06-29 09:16:56.031250,-12.93,91.93
61570,2018-06-29 09:16:56.062500,-63.11,91.93
61571,2018-06-29 09:16:56.093750,-101.36,91.93
61572,2018-06-29 09:16:56.125000,-124.55,91.93
61573,2018-06-29 09:16:56.156250,-141.3,91.93
61574,2018-06-29 09:16:56.187500,-159.48,91.93
61575,2018-06-29 09:16:56.218750,-174.16,91.93
61576,2018-06-29 09:16:56.250000,-176.55,91.93
61577,2018-06-29 09:16:56.281250,-165.45,91.93
61578,2018-06-29 09:16:56.312500,-144.42,91.93
61579,2018-06-29 09:16:56.343750,-116.57,91.93
61580,2018-06-29 09:16:56.375000,-84.29,91.93
61581,2018-06-29 09:16:56.406250,-49.75,91.93
61582,2018-06-29 09:16:56.437500,-17.47,91.93
61583,2018-06-29 09:16:56.468750,4.22,91.93
61584,2018-06-29 09:16:56.500000,7.55,91.93
61585,2018-06-29 09:16:56.531250,-7.62,92.17
61586,2018-06-29 09:16:56.562500,-30.12,92.17
61587,2018-06-29 09:16:56.593750,-42.94,92.17
61588,2018-06-29 09:16:56.625000,-38.91,92.17
61589,2018-06-29 09:16:56.656250,-28.42,92.17
61590,2018-06-29 09:16:56.687500,-24.69,92.17
61591,2018-06-29 09:16:56.718750,-28.73,92.17
61592,2018-06-29 09:16:56.750000,-34.86,92.17
61593,2018-06-29 09:16:56.781250,-40.43,92.17
61594,2018-06-29 09:16:56.812500,-42.56,92.17
61595,2018-06-29 09:16:56.843750,-34.48,92.17
61596,2018-06-29 09:16:56.875000,-11.52,92.17
61597,2018-06-29 09:16:56.906250,22.82,92.17
61598,2018-06-29 09:16:56.937500,60.43,92.17
61599,2018-06-29 09:16:56.968750,96.1,92.17
61600,2018-06-29 09:16:57.000000,128.57,92.17
61601,2018-06-29 09:16:57.031250,156.46,92.17
61602,2018-06-29 09:16:57.062500,176.34,92.17
61603,2018-06-29 09:16:57.093750,182.43,92.17
61604,2018-06-29 09:16:57.125000,168.07,92.17
61605,2018-06-29 09:16:57.156250,130.54,92.17
61606,2018-06-29 09:16:57.187500,75.52,92.17
61607,2018-06-29 09:16:57.218750,16.58,92.17
61608,2018-06-29 09:16:57.250000,-29.67,92.17
61609,2018-06-29 09:16:57.281250,-54.3,92.17
61610,2018-06-29 09:16:57.312500,-65.6,92.17
61611,2018-06-29 09:16:57.343750,-79.91,92.17
61612,2018-06-29 09:16:57.375000,-101.37,92.17
61613,2018-06-29 09:16:57.406250,-120.37,92.17
61614,2018-06-29 09:16:57.437500,-130.32,92.17
61615,2018-06-29 09:16:57.468750,-133.54,92.17
61616,2018-06-29 09:16:57.500000,-130.19,92.17
61617,2018-06-29 09:16:57.531250,-112.44,92.38
61618,2018-06-29 09:16:57.562500,-76.63,92.38
61619,2018-06-29 09:16:57.593750,-35.53,92.38
61620,2018-06-29 09:16:57.625000,-9.55,92.38
61621,2018-06-29 09:16:57.656250,-6.13,92.38
61622,2018-06-29 09:16:57.687500,-14.29,92.38
61623,2018-06-29 09:16:57.718750,-17.41,92.38
61624,2018-06-29 09:16:57.750000,-7.71,92.38
61625,2018-06-29 09:16:57.781250,8.65,92.38
61626,2018-06-29 09:16:57.812500,19.38,92.38
61627,2018-06-29 09:16:57.843750,18.99,92.38
61628,2018-06-29 09:16:57.875000,11.68,92.38
61629,2018-06-29 09:16:57.906250,4.63,92.38
61630,2018-06-29 09:16:57.937500,3.22,92.38
61631,2018-06-29 09:16:57.968750,9.23,92.38
61632,2018-06-29 09:16:58.000000,19.98,92.38
61633,2018-06-29 09:16:58.031250,31.47,92.38
61634,2018-06-29 09:16:58.062500,42.83,92.38
61635,2018-06-29 09:16:58.093750,56.52,92.38
61636,2018-06-29 09:16:58.125000,74.92,92.38
61637,2018-06-29 09:16:58.156250,96.33,92.38
61638,2018-06-29 09:16:58.187500,115.58,92.38
61639,2018-06-29 09:16:58.218750,128.88,92.38
61640,2018-06-29 09:16:58.250000,134.46,92.38
61641,2018-06-29 09:16:58.281250,129.06,92.38
61642,2018-06-29 09:16:58.312500,110.32,92.38
61643,2018-06-29 09:16:58.343750,83.3,92.38
61644,2018-06-29 09:16:58.375000,58.69,92.38
61645,2018-06-29 09:16:58.406250,43.45,92.38
61646,2018-06-29 09:16:58.437500,33.8,92.38
61647,2018-06-29 09:16:58.468750,15.75,92.38
61648,2018-06-29 09:16:58.500000,-21.77,92.38
61649,2018-06-29 09:16:58.531250,-72.14,92.6
61650,2018-06-29 09:16:58.562500,-115.92,92.6
61651,2018-06-29 09:16:58.593750,-140.4,92.6
61652,2018-06-29 09:16:58.625000,-145.58,92.6
61653,2018-06-29 09:16:58.656250,-133.48,92.6
61654,2018-06-29 09:16:58.687500,-105.56,92.6
61655,2018-06-29 09:16:58.718750,-71.8,92.6
61656,2018-06-29 09:16:58.750000,-49.4,92.6
61657,2018-06-29 09:16:58.781250,-47.33,92.6
61658,2018-06-29 09:16:58.812500,-59.03,92.6
61659,2018-06-29 09:16:58.843750,-69.54,92.6
61660,2018-06-29 09:16:58.875000,-63.51,92.6
61661,2018-06-29 09:16:58.906250,-35.8,92.6
61662,2018-06-29 09:16:58.937500,-2.22,92.6
61663,2018-06-29 09:16:58.968750,12.02,92.6
61664,2018-06-29 09:16:59.000000,-0.86,92.6
61665,2018-06-29 09:16:59.031250,-26.47,92.6
61666,2018-06-29 09:16:59.062500,-47.48,92.6
61667,2018-06-29 09:16:59.093750,-56.22,92.6
61668,2018-06-29 09:16:59.125000,-53.09,92.6
61669,2018-06-29 09:16:59.156250,-42.27,92.6
61670,2018-06-29 09:16:59.187500,-27.85,92.6
61671,2018-06-29 09:16:59.218750,-11.0,92.6
61672,2018-06-29 09:16:59.250000,8.94,92.6
61673,2018-06-29 09:16:59.281250,30.2,92.6
61674,2018-06-29 09:16:59.312500,46.95,92.6
61675,2018-06-29 09:16:59.343750,55.9,92.6
61676,2018-06-29 09:16:59.375000,63.82,92.6
61677,2018-06-29 09:16:59.406250,78.67,92.6
61678,2018-06-29 09:16:59.437500,92.17,92.6
61679,2018-06-29 09:16:59.468750,87.0,92.6
61680,2018-06-29 09:16:59.500000,63.78,92.6
61681,2018-06-29 09:16:59.531250,42.31,92.78
61682,2018-06-29 09:16:59.562500,35.25,92.78
61683,2018-06-29 09:16:59.593750,36.51,92.78
61684,2018-06-29 09:16:59.625000,33.01,92.78
61685,2018-06-29 09:16:59.656250,15.07,92.78
61686,2018-06-29 09:16:59.687500,-20.15,92.78
61687,2018-06-29 09:16:59.718750,-65.61,92.78
61688,2018-06-29 09:16:59.750000,-106.21,92.78
61689,2018-06-29 09:16:59.781250,-127.25,92.78
61690,2018-06-29 09:16:59.812500,-122.68,92.78
61691,2018-06-29 09:16:59.843750,-98.23,92.78
61692,2018-06-29 09:16:59.875000,-68.86,92.78
61693,2018-06-29 09:16:59.906250,-50.23,92.78
61694,2018-06-29 09:16:59.937500,-46.31,92.78
61695,2018-06-29 09:16:59.968750,-45.32,92.78
61696,2018-06-29 09:17:00.000000,-34.95,92.78
61697,2018-06-29 09:17:00.031250,-20.37,92.78
61698,2018-06-29 09:17:00.062500,-16.83,92.78
61699,2018-06-29 09:17:00.093750,-26.75,92.78
61700,2018-06-29 09:17:00.125000,-37.46,92.78
61701,2018-06-29 09:17:00.156250,-39.52,92.78
61702,2018-06-29 09:17:00.187500,-34.33,92.78
61703,2018-06-29 09:17:00.218750,-25.66,92.78
61704,2018-06-29 09:17:00.250000,-15.08,92.78
61705,2018-06-29 09:17:00.281250,-4.15,92.78
61706,2018-06-29 09:17:00.312500,6.27,92.78
61707,2018-06-29 09:17:00.343750,16.46,92.78
61708,2018-06-29 09:17:00.375000,26.23,92.78
61709,2018-06-29 09:17:00.406250,36.17,92.78
61710,2018-06-29 09:17:00.437500,48.33,92.78
61711,2018-06-29 09:17:00.468750,62.8,92.78
61712,2018-06-29 09:17:00.500000,77.92,92.78
61713,2018-06-29 09:17:00.531250,92.98,93.05
61714,2018-06-29 09:17:00.562500,104.72,93.05
61715,2018-06-29 09:17:00.593750,105.81,93.05
61716,2018-06-29 09:17:00.625000,95.21,93.05
61717,2018-06-29 09:17:00.656250,82.86,93.05
61718,2018-06-29 09:17:00.687500,76.39,93.05
61719,2018-06-29 09:17:00.718750,74.52,93.05
61720,2018-06-29 09:17:00.750000,76.37,93.05
61721,2018-06-29 09:17:00.781250,80.52,93.05
61722,2018-06-29 09:17:00.812500,75.26,93.05
61723,2018-06-29 09:17:00.843750,48.39,93.05
61724,2018-06-29 09:17:00.875000,4.98,93.05
61725,2018-06-29 09:17:00.906250,-39.03,93.05
61726,2018-06-29 09:17:00.937500,-73.76,93.05
61727,2018-06-29 09:17:00.968750,-96.28,93.05
61728,2018-06-29 09:17:01.000000,-104.46,93.05
61729,2018-06-29 09:17:01.031250,-98.73,93.05
61730,2018-06-29 09:17:01.062500,-85.22,93.05
61731,2018-06-29 09:17:01.093750,-71.41,93.05
61732,2018-06-29 09:17:01.125000,-59.54,93.05
61733,2018-06-29 09:17:01.156250,-48.37,93.05
61734,2018-06-29 09:17:01.187500,-39.66,93.05
61735,2018-06-29 09:17:01.218750,-37.83,93.05
61736,2018-06-29 09:17:01.250000,-43.49,93.05
61737,2018-06-29 09:17:01.281250,-53.28,93.05
61738,2018-06-29 09:17:01.312500,-65.31,93.05
61739,2018-06-29 09:17:01.343750,-77.05,93.05
61740,2018-06-29 09:17:01.375000,-79.93,93.05
61741,2018-06-29 09:17:01.406250,-66.14,93.05
61742,2018-06-29 09:17:01.437500,-40.29,93.05
61743,2018-06-29 09:17:01.468750,-15.11,93.05
61744,2018-06-29 09:17:01.500000,3.15,93.05
61745,2018-06-29 09:17:01.531250,17.44,93.4
61746,2018-06-29 09:17:01.562500,30.82,93.4
61747,2018-06-29 09:17:01.593750,42.44,93.4
61748,2018-06-29 09:17:01.625000,50.72,93.4
61749,2018-06-29 09:17:01.656250,56.76,93.4
61750,2018-06-29 09:17:01.687500,65.31,93.4
61751,2018-06-29 09:17:01.718750,80.02,93.4
61752,2018-06-29 09:17:01.750000,93.58,93.4
61753,2018-06-29 09:17:01.781250,90.06,93.4
61754,2018-06-29 09:17:01.812500,64.19,93.4
61755,2018-06-29 09:17:01.843750,31.12,93.4
61756,2018-06-29 09:17:01.875000,8.91,93.4
61757,2018-06-29 09:17:01.906250,-2.86,93.4
61758,2018-06-29 09:17:01.937500,-19.23,93.4
61759,2018-06-29 09:17:01.968750,-48.63,93.4
61760,2018-06-29 09:17:02.000000,-82.43,93.4
61761,2018-06-29 09:17:02.031250,-104.13,93.4
61762,2018-06-29 09:17:02.062500,-104.26,93.4
61763,2018-06-29 09:17:02.093750,-86.19,93.4
61764,2018-06-29 09:17:02.125000,-61.04,93.4
61765,2018-06-29 09:17:02.156250,-39.44,93.4
61766,2018-06-29 09:17:02.187500,-26.61,93.4
61767,2018-06-29 09:17:02.218750,-20.78,93.4
61768,2018-06-29 09:17:02.250000,-15.71,93.4
61769,2018-06-29 09:17:02.281250,-8.05,93.4
61770,2018-06-29 09:17:02.312500,-0.75,93.4
61771,2018-06-29 09:17:02.343750,4.6,93.4
61772,2018-06-29 09:17:02.375000,11.51,93.4
61773,2018-06-29 09:17:02.406250,20.3,93.4
61774,2018-06-29 09:17:02.437500,25.02,93.4
61775,2018-06-29 09:17:02.468750,21.84,93.4
61776,2018-06-29 09:17:02.500000,13.54,93.4
61777,2018-06-29 09:17:02.531250,4.85,93.75
61778,2018-06-29 09:17:02.562500,-0.9,93.75
61779,2018-06-29 09:17:02.593750,-2.63,93.75
61780,2018-06-29 09:17:02.625000,-3.5,93.75
61781,2018-06-29 09:17:02.656250,-7.64,93.75
61782,2018-06-29 09:17:02.687500,-11.77,93.75
61783,2018-06-29 09:17:02.718750,-5.58,93.75
61784,2018-06-29 09:17:02.750000,15.38,93.75
61785,2018-06-29 09:17:02.781250,42.99,93.75
61786,2018-06-29 09:17:02.812500,66.51,93.75
61787,2018-06-29 09:17:02.843750,81.95,93.75
61788,2018-06-29 09:17:02.875000,90.61,93.75
61789,2018-06-29 09:17:02.906250,96.42,93.75
61790,2018-06-29 09:17:02.937500,104.89,93.75
61791,2018-06-29 09:17:02.968750,116.92,93.75
61792,2018-06-29 09:17:03.000000,124.28,93.75
61793,2018-06-29 09:17:03.031250,116.47,93.75
61794,2018-06-29 09:17:03.062500,91.32,93.75
61795,2018-06-29 09:17:03.093750,55.99,93.75
61796,2018-06-29 09:17:03.125000,19.51,93.75
61797,2018-06-29 09:17:03.156250,-12.66,93.75
61798,2018-06-29 09:17:03.187500,-38.87,93.75
61799,2018-06-29 09:17:03.218750,-60.19,93.75
61800,2018-06-29 09:17:03.250000,-79.26,93.75
61801,2018-06-29 09:17:03.281250,-98.29,93.75
61802,2018-06-29 09:17:03.312500,-117.41,93.75
61803,2018-06-29 09:17:03.343750,-133.51,93.75
61804,2018-06-29 09:17:03.375000,-139.77,93.75
61805,2018-06-29 09:17:03.406250,-129.5,93.75
61806,2018-06-29 09:17:03.437500,-103.09,93.75
61807,2018-06-29 09:17:03.468750,-69.28,93.75
61808,2018-06-29 09:17:03.500000,-38.75,93.75
61809,2018-06-29 09:17:03.531250,-17.65,94.1
61810,2018-06-29 09:17:03.562500,-6.73,94.1
61811,2018-06-29 09:17:03.593750,-3.14,94.1
61812,2018-06-29 09:17:03.625000,-2.98,94.1
61813,2018-06-29 09:17:03.656250,-3.75,94.1
61814,2018-06-29 09:17:03.687500,-5.04,94.1
61815,2018-06-29 09:17:03.718750,-6.49,94.1
61816,2018-06-29 09:17:03.750000,-5.94,94.1
61817,2018-06-29 09:17:03.781250,-0.89,94.1
61818,2018-06-29 09:17:03.812500,8.03,94.1
61819,2018-06-29 09:17:03.843750,16.42,94.1
61820,2018-06-29 09:17:03.875000,18.72,94.1
61821,2018-06-29 09:17:03.906250,13.21,94.1
61822,2018-06-29 09:17:03.937500,3.56,94.1
61823,2018-06-29 09:17:03.968750,-8.31,94.1
61824,2018-06-29 09:17:04.000000,-25.86,94.1
61825,2018-06-29 09:17:04.031250,-47.25,94.1
61826,2018-06-29 09:17:04.062500,-59.44,94.1
61827,2018-06-29 09:17:04.093750,-53.03,94.1
61828,2018-06-29 09:17:04.125000,-33.75,94.1
61829,2018-06-29 09:17:04.156250,-12.66,94.1
61830,2018-06-29 09:17:04.187500,4.74,94.1
61831,2018-06-29 09:17:04.218750,16.82,94.1
61832,2018-06-29 09:17:04.250000,23.1,94.1
61833,2018-06-29 09:17:04.281250,25.52,94.1
61834,2018-06-29 09:17:04.312500,26.85,94.1
61835,2018-06-29 09:17:04.343750,27.45,94.1
61836,2018-06-29 09:17:04.375000,26.01,94.1
61837,2018-06-29 09:17:04.406250,22.62,94.1
61838,2018-06-29 09:17:04.437500,19.1,94.1
61839,2018-06-29 09:17:04.468750,16.41,94.1
61840,2018-06-29 09:17:04.500000,12.61,94.1
61841,2018-06-29 09:17:04.531250,6.08,94.55
61842,2018-06-29 09:17:04.562500,-0.19,94.55
61843,2018-06-29 09:17:04.593750,-1.5,94.55
61844,2018-06-29 09:17:04.625000,1.71,94.55
61845,2018-06-29 09:17:04.656250,4.23,94.55
61846,2018-06-29 09:17:04.687500,3.22,94.55
61847,2018-06-29 09:17:04.718750,1.78,94.55
61848,2018-06-29 09:17:04.750000,5.53,94.55
61849,2018-06-29 09:17:04.781250,15.74,94.55
61850,2018-06-29 09:17:04.812500,26.42,94.55
61851,2018-06-29 09:17:04.843750,31.82,94.55
61852,2018-06-29 09:17:04.875000,34.33,94.55
61853,2018-06-29 09:17:04.906250,39.34,94.55
61854,2018-06-29 09:17:04.937500,45.66,94.55
61855,2018-06-29 09:17:04.968750,49.1,94.55
61856,2018-06-29 09:17:05.000000,52.37,94.55
61857,2018-06-29 09:17:05.031250,63.58,94.55
61858,2018-06-29 09:17:05.062500,86.95,94.55
61859,2018-06-29 09:17:05.093750,115.77,94.55
61860,2018-06-29 09:17:05.125000,133.13,94.55
61861,2018-06-29 09:17:05.156250,126.16,94.55
61862,2018-06-29 09:17:05.187500,100.69,94.55
61863,2018-06-29 09:17:05.218750,72.42,94.55
61864,2018-06-29 09:17:05.250000,47.11,94.55
61865,2018-06-29 09:17:05.281250,22.49,94.55
61866,2018-06-29 09:17:05.312500,0.89,94.55
61867,2018-06-29 09:17:05.343750,-13.0,94.55
61868,2018-06-29 09:17:05.375000,-17.74,94.55
61869,2018-06-29 09:17:05.406250,-11.38,94.55
61870,2018-06-29 09:17:05.437500,7.4,94.55
61871,2018-06-29 09:17:05.468750,32.33,94.55
61872,2018-06-29 09:17:05.500000,52.57,94.55
61873,2018-06-29 09:17:05.531250,61.67,95.0
61874,2018-06-29 09:17:05.562500,58.95,95.0
61875,2018-06-29 09:17:05.593750,45.04,95.0
61876,2018-06-29 09:17:05.625000,20.31,95.0
61877,2018-06-29 09:17:05.656250,-11.15,95.0
61878,2018-06-29 09:17:05.687500,-38.09,95.0
61879,2018-06-29 09:17:05.718750,-48.18,95.0
61880,2018-06-29 09:17:05.750000,-40.95,95.0
61881,2018-06-29 09:17:05.781250,-30.24,95.0
61882,2018-06-29 09:17:05.812500,-29.76,95.0
61883,2018-06-29 09:17:05.843750,-39.8,95.0
61884,2018-06-29 09:17:05.875000,-50.56,95.0
61885,2018-06-29 09:17:05.906250,-53.87,95.0
61886,2018-06-29 09:17:05.937500,-48.77,95.0
61887,2018-06-29 09:17:05.968750,-41.42,95.0
61888,2018-06-29 09:17:06.000000,-43.23,95.0
61889,2018-06-29 09:17:06.031250,-61.49,95.0
61890,2018-06-29 09:17:06.062500,-86.25,95.0
61891,2018-06-29 09:17:06.093750,-94.87,95.0
61892,2018-06-29 09:17:06.125000,-76.82,95.0
61893,2018-06-29 09:17:06.156250,-44.19,95.0
61894,2018-06-29 09:17:06.187500,-12.83,95.0
61895,2018-06-29 09:17:06.218750,12.08,95.0
61896,2018-06-29 09:17:06.250000,27.64,95.0
61897,2018-06-29 09:17:06.281250,28.35,95.0
61898,2018-06-29 09:17:06.312500,15.85,95.0
61899,2018-06-29 09:17:06.343750,1.66,95.0
61900,2018-06-29 09:17:06.375000,-2.88,95.0
61901,2018-06-29 09:17:06.406250,6.35,95.0
61902,2018-06-29 09:17:06.437500,29.27,95.0
61903,2018-06-29 09:17:06.468750,64.36,95.0
61904,2018-06-29 09:17:06.500000,104.2,95.0
61905,2018-06-29 09:17:06.531250,131.54,95.45
61906,2018-06-29 09:17:06.562500,127.78,95.45
61907,2018-06-29 09:17:06.593750,89.61,95.45
61908,2018-06-29 09:17:06.625000,35.73,95.45
61909,2018-06-29 09:17:06.656250,-7.2,95.45
61910,2018-06-29 09:17:06.687500,-25.43,95.45
61911,2018-06-29 09:17:06.718750,-20.43,95.45
61912,2018-06-29 09:17:06.750000,3.25,95.45
61913,2018-06-29 09:17:06.781250,39.1,95.45
61914,2018-06-29 09:17:06.812500,72.16,95.45
61915,2018-06-29 09:17:06.843750,85.86,95.45
61916,2018-06-29 09:17:06.875000,75.27,95.45
61917,2018-06-29 09:17:06.906250,47.25,95.45
61918,2018-06-29 09:17:06.937500,11.9,95.45
61919,2018-06-29 09:17:06.968750,-19.84,95.45
61920,2018-06-29 09:17:07.000000,-35.21,95.45
61921,2018-06-29 09:17:07.031250,-26.3,95.45
61922,2018-06-29 09:17:07.062500,0.11,95.45
61923,2018-06-29 09:17:07.093750,25.32,95.45
61924,2018-06-29 09:17:07.125000,33.62,95.45
61925,2018-06-29 09:17:07.156250,21.52,95.45
61926,2018-06-29 09:17:07.187500,-5.58,95.45
61927,2018-06-29 09:17:07.218750,-41.13,95.45
61928,2018-06-29 09:17:07.250000,-79.16,95.45
61929,2018-06-29 09:17:07.281250,-108.61,95.45
61930,2018-06-29 09:17:07.312500,-114.55,95.45
61931,2018-06-29 09:17:07.343750,-92.77,95.45
61932,2018-06-29 09:17:07.375000,-58.13,95.45
61933,2018-06-29 09:17:07.406250,-32.33,95.45
61934,2018-06-29 09:17:07.437500,-26.73,95.45
61935,2018-06-29 09:17:07.468750,-39.18,95.45
61936,2018-06-29 09:17:07.500000,-62.58,95.45
61937,2018-06-29 09:17:07.531250,-92.46,95.9
61938,2018-06-29 09:17:07.562500,-125.8,95.9
61939,2018-06-29 09:17:07.593750,-155.04,95.9
61940,2018-06-29 09:17:07.625000,-167.73,95.9
61941,2018-06-29 09:17:07.656250,-155.2,95.9
61942,2018-06-29 09:17:07.687500,-120.9,95.9
61943,2018-06-29 09:17:07.718750,-77.79,95.9
61944,2018-06-29 09:17:07.750000,-37.1,95.9
61945,2018-06-29 09:17:07.781250,-1.8,95.9
61946,2018-06-29 09:17:07.812500,29.27,95.9
61947,2018-06-29 09:17:07.843750,55.43,95.9
61948,2018-06-29 09:17:07.875000,75.61,95.9
61949,2018-06-29 09:17:07.906250,92.58,95.9
61950,2018-06-29 09:17:07.937500,110.05,95.9
61951,2018-06-29 09:17:07.968750,126.85,95.9
61952,2018-06-29 09:17:08.000000,138.57,95.9
61953,2018-06-29 09:17:08.031250,140.48,95.9
61954,2018-06-29 09:17:08.062500,126.6,95.9
61955,2018-06-29 09:17:08.093750,95.21,95.9
61956,2018-06-29 09:17:08.125000,58.04,95.9
61957,2018-06-29 09:17:08.156250,34.3,95.9
61958,2018-06-29 09:17:08.187500,31.59,95.9
61959,2018-06-29 09:17:08.218750,38.52,95.9
61960,2018-06-29 09:17:08.250000,38.9,95.9
61961,2018-06-29 09:17:08.281250,29.35,95.9
61962,2018-06-29 09:17:08.312500,18.88,95.9
61963,2018-06-29 09:17:08.343750,14.23,95.9
61964,2018-06-29 09:17:08.375000,12.92,95.9
61965,2018-06-29 09:17:08.406250,9.78,95.9
61966,2018-06-29 09:17:08.437500,3.4,95.9
61967,2018-06-29 09:17:08.468750,-4.82,95.9
61968,2018-06-29 09:17:08.500000,-13.56,95.9
61969,2018-06-29 09:17:08.531250,-20.97,96.38
61970,2018-06-29 09:17:08.562500,-25.26,96.38
61971,2018-06-29 09:17:08.593750,-28.38,96.38
61972,2018-06-29 09:17:08.625000,-34.66,96.38
61973,2018-06-29 09:17:08.656250,-44.92,96.38
61974,2018-06-29 09:17:08.687500,-58.94,96.38
61975,2018-06-29 09:17:08.718750,-80.9,96.38
61976,2018-06-29 09:17:08.750000,-112.16,96.38
61977,2018-06-29 09:17:08.781250,-144.16,96.38
61978,2018-06-29 09:17:08.812500,-168.6,96.38
61979,2018-06-29 09:17:08.843750,-183.38,96.38
61980,2018-06-29 09:17:08.875000,-183.49,96.38
61981,2018-06-29 09:17:08.906250,-163.42,96.38
61982,2018-06-29 09:17:08.937500,-131.21,96.38
61983,2018-06-29 09:17:08.968750,-100.43,96.38
61984,2018-06-29 09:17:09.000000,-69.59,96.38
61985,2018-06-29 09:17:09.031250,-28.84,96.38
61986,2018-06-29 09:17:09.062500,18.57,96.38
61987,2018-06-29 09:17:09.093750,59.27,96.38
61988,2018-06-29 09:17:09.125000,87.19,96.38
61989,2018-06-29 09:17:09.156250,103.63,96.38
61990,2018-06-29 09:17:09.187500,106.89,96.38
61991,2018-06-29 09:17:09.218750,94.08,96.38
61992,2018-06-29 09:17:09.250000,69.87,96.38
61993,2018-06-29 09:17:09.281250,44.98,96.38
61994,2018-06-29 09:17:09.312500,26.64,96.38
61995,2018-06-29 09:17:09.343750,14.26,96.38
61996,2018-06-29 09:17:09.375000,3.48,96.38
61997,2018-06-29 09:17:09.406250,-10.38,96.38
61998,2018-06-29 09:17:09.437500,-31.36,96.38
61999,2018-06-29 09:17:09.468750,-57.89,96.38
62000,2018-06-29 09:17:09.500000,-78.01,96.38
62001,2018-06-29 09:17:09.531250,-78.02,96.85
62002,2018-06-29 09:17:09.562500,-57.81,96.85
62003,2018-06-29 09:17:09.593750,-29.86,96.85
62004,2018-06-29 09:17:09.625000,-4.33,96.85
62005,2018-06-29 09:17:09.656250,17.02,96.85
62006,2018-06-29 09:17:09.687500,35.73,96.85
62007,2018-06-29 09:17:09.718750,53.25,96.85
62008,2018-06-29 09:17:09.750000,68.17,96.85
62009,2018-06-29 09:17:09.781250,72.11,96.85
62010,2018-06-29 09:17:09.812500,57.7,96.85
62011,2018-06-29 09:17:09.843750,32.03,96.85
62012,2018-06-29 09:17:09.875000,10.47,96.85
62013,2018-06-29 09:17:09.906250,-1.78,96.85
62014,2018-06-29 09:17:09.937500,-10.88,96.85
62015,2018-06-29 09:17:09.968750,-22.21,96.85
62016,2018-06-29 09:17:10.000000,-35.67,96.85
62017,2018-06-29 09:17:10.031250,-47.08,96.85
62018,2018-06-29 09:17:10.062500,-52.33,96.85
62019,2018-06-29 09:17:10.093750,-53.97,96.85
62020,2018-06-29 09:17:10.125000,-58.37,96.85
62021,2018-06-29 09:17:10.156250,-66.3,96.85
62022,2018-06-29 09:17:10.187500,-75.29,96.85
62023,2018-06-29 09:17:10.218750,-86.61,96.85
62024,2018-06-29 09:17:10.250000,-101.08,96.85
62025,2018-06-29 09:17:10.281250,-115.65,96.85
62026,2018-06-29 09:17:10.312500,-128.56,96.85
62027,2018-06-29 09:17:10.343750,-136.35,96.85
62028,2018-06-29 09:17:10.375000,-127.57,96.85
62029,2018-06-29 09:17:10.406250,-94.51,96.85
62030,2018-06-29 09:17:10.437500,-47.41,96.85
62031,2018-06-29 09:17:10.468750,-4.28,96.85
62032,2018-06-29 09:17:10.500000,26.55,96.85
62033,2018-06-29 09:17:10.531250,45.33,97.28
62034,2018-06-29 09:17:10.562500,53.58,97.28
62035,2018-06-29 09:17:10.593750,55.81,97.28
62036,2018-06-29 09:17:10.625000,59.29,97.28
62037,2018-06-29 09:17:10.656250,67.17,97.28
62038,2018-06-29 09:17:10.687500,76.14,97.28
62039,2018-06-29 09:17:10.718750,81.9,97.28
62040,2018-06-29 09:17:10.750000,83.77,97.28
62041,2018-06-29 09:17:10.781250,83.56,97.28
62042,2018-06-29 09:17:10.812500,81.24,97.28
62043,2018-06-29 09:17:10.843750,74.34,97.28
62044,2018-06-29 09:17:10.875000,62.12,97.28
62045,2018-06-29 09:17:10.906250,47.49,97.28
62046,2018-06-29 09:17:10.937500,32.94,97.28
62047,2018-06-29 09:17:10.968750,17.48,97.28
62048,2018-06-29 09:17:11.000000,-1.12,97.28
62049,2018-06-29 09:17:11.031250,-22.62,97.28
62050,2018-06-29 09:17:11.062500,-40.7,97.28
62051,2018-06-29 09:17:11.093750,-42.34,97.28
62052,2018-06-29 09:17:11.125000,-18.27,97.28
62053,2018-06-29 09:17:11.156250,23.72,97.28
62054,2018-06-29 09:17:11.187500,63.02,97.28
62055,2018-06-29 09:17:11.218750,84.18,97.28
62056,2018-06-29 09:17:11.250000,84.78,97.28
62057,2018-06-29 09:17:11.281250,70.37,97.28
62058,2018-06-29 09:17:11.312500,51.05,97.28
62059,2018-06-29 09:17:11.343750,39.01,97.28
62060,2018-06-29 09:17:11.375000,39.94,97.28
62061,2018-06-29 09:17:11.406250,47.94,97.28
62062,2018-06-29 09:17:11.437500,53.2,97.28
62063,2018-06-29 09:17:11.468750,52.26,97.28
62064,2018-06-29 09:17:11.500000,47.32,97.28
62065,2018-06-29 09:17:11.531250,39.08,97.47
62066,2018-06-29 09:17:11.562500,25.77,97.47
62067,2018-06-29 09:17:11.593750,9.01,97.47
62068,2018-06-29 09:17:11.625000,-4.95,97.47
62069,2018-06-29 09:17:11.656250,-12.17,97.47
62070,2018-06-29 09:17:11.687500,-15.94,97.47
62071,2018-06-29 09:17:11.718750,-23.56,97.47
62072,2018-06-29 09:17:11.750000,-39.33,97.47
62073,2018-06-29 09:17:11.781250,-56.82,97.47
62074,2018-06-29 09:17:11.812500,-59.39,97.47
62075,2018-06-29 09:17:11.843750,-36.7,97.47
62076,2018-06-29 09:17:11.875000,1.87,97.47
62077,2018-06-29 09:17:11.906250,37.24,97.47
62078,2018-06-29 09:17:11.937500,57.93,97.47
62079,2018-06-29 09:17:11.968750,61.89,97.47
62080,2018-06-29 09:17:12.000000,52.7,97.47
62081,2018-06-29 09:17:12.031250,39.87,97.47
62082,2018-06-29 09:17:12.062500,33.39,97.47
62083,2018-06-29 09:17:12.093750,34.19,97.47
62084,2018-06-29 09:17:12.125000,35.74,97.47
62085,2018-06-29 09:17:12.156250,34.24,97.47
62086,2018-06-29 09:17:12.187500,31.33,97.47
62087,2018-06-29 09:17:12.218750,27.62,97.47
62088,2018-06-29 09:17:12.250000,20.4,97.47
62089,2018-06-29 09:17:12.281250,8.91,97.47
62090,2018-06-29 09:17:12.312500,-3.31,97.47
62091,2018-06-29 09:17:12.343750,-13.35,97.47
62092,2018-06-29 09:17:12.375000,-22.36,97.47
62093,2018-06-29 09:17:12.406250,-33.76,97.47
62094,2018-06-29 09:17:12.437500,-49.6,97.47
62095,2018-06-29 09:17:12.468750,-64.39,97.47
62096,2018-06-29 09:17:12.500000,-64.08,97.47
62097,2018-06-29 09:17:12.531250,-40.17,97.72
62098,2018-06-29 09:17:12.562500,-2.81,97.72
62099,2018-06-29 09:17:12.593750,29.95,97.72
62100,2018-06-29 09:17:12.625000,50.04,97.72
62101,2018-06-29 09:17:12.656250,58.1,97.72
62102,2018-06-29 09:17:12.687500,55.51,97.72
62103,2018-06-29 09:17:12.718750,46.77,97.72
62104,2018-06-29 09:17:12.750000,39.58,97.72
62105,2018-06-29 09:17:12.781250,36.66,97.72
62106,2018-06-29 09:17:12.812500,34.86,97.72
62107,2018-06-29 09:17:12.843750,31.99,97.72
62108,2018-06-29 09:17:12.875000,27.55,97.72
62109,2018-06-29 09:17:12.906250,19.4,97.72
62110,2018-06-29 09:17:12.937500,6.59,97.72
62111,2018-06-29 09:17:12.968750,-7.24,97.72
62112,2018-06-29 09:17:13.000000,-18.16,97.72
62113,2018-06-29 09:17:13.031250,-27.15,97.72
62114,2018-06-29 09:17:13.062500,-38.79,97.72
62115,2018-06-29 09:17:13.093750,-55.58,97.72
62116,2018-06-29 09:17:13.125000,-71.27,97.72
62117,2018-06-29 09:17:13.156250,-70.64,97.72
62118,2018-06-29 09:17:13.187500,-44.15,97.72
62119,2018-06-29 09:17:13.218750,-1.81,97.72
62120,2018-06-29 09:17:13.250000,35.91,97.72
62121,2018-06-29 09:17:13.281250,57.96,97.72
62122,2018-06-29 09:17:13.312500,65.35,97.72
62123,2018-06-29 09:17:13.343750,61.95,97.72
62124,2018-06-29 09:17:13.375000,52.25,97.72
62125,2018-06-29 09:17:13.406250,42.78,97.72
62126,2018-06-29 09:17:13.437500,37.69,97.72
62127,2018-06-29 09:17:13.468750,35.89,97.72
62128,2018-06-29 09:17:13.500000,34.64,97.72
62129,2018-06-29 09:17:13.531250,32.62,97.9
62130,2018-06-29 09:17:13.562500,28.79,97.9
62131,2018-06-29 09:17:13.593750,22.44,97.9
62132,2018-06-29 09:17:13.625000,14.31,97.9
62133,2018-06-29 09:17:13.656250,5.93,97.9
62134,2018-06-29 09:17:13.687500,-1.32,97.9
62135,2018-06-29 09:17:13.718750,-7.67,97.9
62136,2018-06-29 09:17:13.750000,-16.15,97.9
62137,2018-06-29 09:17:13.781250,-25.65,97.9
62138,2018-06-29 09:17:13.812500,-23.98,97.9
62139,2018-06-29 09:17:13.843750,1.24,97.9
62140,2018-06-29 09:17:13.875000,47.08,97.9
62141,2018-06-29 09:17:13.906250,98.25,97.9
62142,2018-06-29 09:17:13.937500,136.38,97.9
62143,2018-06-29 09:17:13.968750,143.21,97.9
62144,2018-06-29 09:17:14.000000,111.23,97.9
62145,2018-06-29 09:17:14.031250,55.59,97.9
62146,2018-06-29 09:17:14.062500,2.52,97.9
62147,2018-06-29 09:17:14.093750,-32.83,97.9
62148,2018-06-29 09:17:14.125000,-50.77,97.9
62149,2018-06-29 09:17:14.156250,-58.14,97.9
62150,2018-06-29 09:17:14.187500,-62.74,97.9
62151,2018-06-29 09:17:14.218750,-70.62,97.9
62152,2018-06-29 09:17:14.250000,-82.38,97.9
62153,2018-06-29 09:17:14.281250,-93.2,97.9
62154,2018-06-29 09:17:14.312500,-98.67,97.9
62155,2018-06-29 09:17:14.343750,-99.37,97.9
62156,2018-06-29 09:17:14.375000,-99.01,97.9
62157,2018-06-29 09:17:14.406250,-97.18,97.9
62158,2018-06-29 09:17:14.437500,-84.8,97.9
62159,2018-06-29 09:17:14.468750,-52.12,97.9
62160,2018-06-29 09:17:14.500000,-4.05,97.9
62161,2018-06-29 09:17:14.531250,40.44,98.12
62162,2018-06-29 09:17:14.562500,66.67,98.12
62163,2018-06-29 09:17:14.593750,73.45,98.12
62164,2018-06-29 09:17:14.625000,65.44,98.12
62165,2018-06-29 09:17:14.656250,48.65,98.12
62166,2018-06-29 09:17:14.687500,31.66,98.12
62167,2018-06-29 09:17:14.718750,21.44,98.12
62168,2018-06-29 09:17:14.750000,18.45,98.12
62169,2018-06-29 09:17:14.781250,18.33,98.12
62170,2018-06-29 09:17:14.812500,15.65,98.12
62171,2018-06-29 09:17:14.843750,6.81,98.12
62172,2018-06-29 09:17:14.875000,-7.24,98.12
62173,2018-06-29 09:17:14.906250,-22.15,98.12
62174,2018-06-29 09:17:14.937500,-34.56,98.12
62175,2018-06-29 09:17:14.968750,-44.35,98.12
62176,2018-06-29 09:17:15.000000,-54.19,98.12
62177,2018-06-29 09:17:15.031250,-66.22,98.12
62178,2018-06-29 09:17:15.062500,-74.96,98.12
62179,2018-06-29 09:17:15.093750,-67.48,98.12
62180,2018-06-29 09:17:15.125000,-38.81,98.12
62181,2018-06-29 09:17:15.156250,-1.52,98.12
62182,2018-06-29 09:17:15.187500,27.83,98.12
62183,2018-06-29 09:17:15.218750,43.82,98.12
62184,2018-06-29 09:17:15.250000,48.61,98.12
62185,2018-06-29 09:17:15.281250,44.98,98.12
62186,2018-06-29 09:17:15.312500,38.08,98.12
62187,2018-06-29 09:17:15.343750,34.05,98.12
62188,2018-06-29 09:17:15.375000,33.35,98.12
62189,2018-06-29 09:17:15.406250,31.33,98.12
62190,2018-06-29 09:17:15.437500,26.07,98.12
62191,2018-06-29 09:17:15.468750,19.97,98.12
62192,2018-06-29 09:17:15.500000,13.77,98.12
62193,2018-06-29 09:17:15.531250,5.01,98.32
62194,2018-06-29 09:17:15.562500,-6.41,98.32
62195,2018-06-29 09:17:15.593750,-16.57,98.32
62196,2018-06-29 09:17:15.625000,-23.52,98.32
62197,2018-06-29 09:17:15.656250,-30.57,98.32
62198,2018-06-29 09:17:15.687500,-41.98,98.32
62199,2018-06-29 09:17:15.718750,-56.44,98.32
62200,2018-06-29 09:17:15.750000,-64.25,98.32
62201,2018-06-29 09:17:15.781250,-53.99,98.32
62202,2018-06-29 09:17:15.812500,-26.29,98.32
62203,2018-06-29 09:17:15.843750,4.56,98.32
62204,2018-06-29 09:17:15.875000,25.92,98.32
62205,2018-06-29 09:17:15.906250,35.81,98.32
62206,2018-06-29 09:17:15.937500,36.26,98.32
62207,2018-06-29 09:17:15.968750,29.63,98.32
62208,2018-06-29 09:17:16.000000,21.74,98.32
62209,2018-06-29 09:17:16.031250,18.5,98.32
62210,2018-06-29 09:17:16.062500,19.71,98.32
62211,2018-06-29 09:17:16.093750,20.82,98.32
62212,2018-06-29 09:17:16.125000,19.2,98.32
62213,2018-06-29 09:17:16.156250,15.51,98.32
62214,2018-06-29 09:17:16.187500,10.96,98.32
62215,2018-06-29 09:17:16.218750,5.87,98.32
62216,2018-06-29 09:17:16.250000,0.2,98.32
62217,2018-06-29 09:17:16.281250,-6.33,98.32
62218,2018-06-29 09:17:16.312500,-13.59,98.32
62219,2018-06-29 09:17:16.343750,-20.2,98.32
62220,2018-06-29 09:17:16.375000,-25.18,98.32
62221,2018-06-29 09:17:16.406250,-30.18,98.32
62222,2018-06-29 09:17:16.437500,-38.06,98.32
62223,2018-06-29 09:17:16.468750,-48.91,98.32
62224,2018-06-29 09:17:16.500000,-56.57,98.32
62225,2018-06-29 09:17:16.531250,-51.27,98.55
62226,2018-06-29 09:17:16.562500,-30.14,98.55
62227,2018-06-29 09:17:16.593750,-2.94,98.55
62228,2018-06-29 09:17:16.625000,17.26,98.55
62229,2018-06-29 09:17:16.656250,25.95,98.55
62230,2018-06-29 09:17:16.687500,26.29,98.55
62231,2018-06-29 09:17:16.718750,22.47,98.55
62232,2018-06-29 09:17:16.750000,18.14,98.55
62233,2018-06-29 09:17:16.781250,16.56,98.55
62234,2018-06-29 09:17:16.812500,18.27,98.55
62235,2018-06-29 09:17:16.843750,20.53,98.55
62236,2018-06-29 09:17:16.875000,20.38,98.55
62237,2018-06-29 09:17:16.906250,17.45,98.55
62238,2018-06-29 09:17:16.937500,12.97,98.55
62239,2018-06-29 09:17:16.968750,7.65,98.55
62240,2018-06-29 09:17:17.000000,1.6,98.55
62241,2018-06-29 09:17:17.031250,-4.92,98.55
62242,2018-06-29 09:17:17.062500,-11.51,98.55
62243,2018-06-29 09:17:17.093750,-17.82,98.55
62244,2018-06-29 09:17:17.125000,-23.5,98.55
62245,2018-06-29 09:17:17.156250,-28.33,98.55
62246,2018-06-29 09:17:17.187500,-32.85,98.55
62247,2018-06-29 09:17:17.218750,-38.72,98.55
62248,2018-06-29 09:17:17.250000,-46.71,98.55
62249,2018-06-29 09:17:17.281250,-51.92,98.55
62250,2018-06-29 09:17:17.312500,-45.28,98.55
62251,2018-06-29 09:17:17.343750,-24.63,98.55
62252,2018-06-29 09:17:17.375000,0.13,98.55
62253,2018-06-29 09:17:17.406250,17.72,98.55
62254,2018-06-29 09:17:17.437500,25.53,98.55
62255,2018-06-29 09:17:17.468750,26.29,98.55
62256,2018-06-29 09:17:17.500000,22.68,98.55
62257,2018-06-29 09:17:17.531250,18.02,98.78
62258,2018-06-29 09:17:17.562500,15.82,98.78
62259,2018-06-29 09:17:17.593750,16.28,98.78
62260,2018-06-29 09:17:17.625000,16.83,98.78
62261,2018-06-29 09:17:17.656250,16.09,98.78
62262,2018-06-29 09:17:17.687500,14.55,98.78
62263,2018-06-29 09:17:17.718750,12.44,98.78
62264,2018-06-29 09:17:17.750000,9.64,98.78
62265,2018-06-29 09:17:17.781250,6.61,98.78
62266,2018-06-29 09:17:17.812500,3.76,98.78
62267,2018-06-29 09:17:17.843750,0.33,98.78
62268,2018-06-29 09:17:17.875000,-4.31,98.78
62269,2018-06-29 09:17:17.906250,-9.52,98.78
62270,2018-06-29 09:17:17.937500,-14.3,98.78
62271,2018-06-29 09:17:17.968750,-18.73,98.78
62272,2018-06-29 09:17:18.000000,-24.03,98.78
62273,2018-06-29 09:17:18.031250,-31.07,98.78
62274,2018-06-29 09:17:18.062500,-37.07,98.78
62275,2018-06-29 09:17:18.093750,-35.08,98.78
62276,2018-06-29 09:17:18.125000,-21.39,98.78
62277,2018-06-29 09:17:18.156250,-1.85,98.78
62278,2018-06-29 09:17:18.187500,13.7,98.78
62279,2018-06-29 09:17:18.218750,20.94,98.78
62280,2018-06-29 09:17:18.250000,21.32,98.78
62281,2018-06-29 09:17:18.281250,17.59,98.78
62282,2018-06-29 09:17:18.312500,13.1,98.78
62283,2018-06-29 09:17:18.343750,11.34,98.78
62284,2018-06-29 09:17:18.375000,12.74,98.78
62285,2018-06-29 09:17:18.406250,14.72,98.78
62286,2018-06-29 09:17:18.437500,15.59,98.78
62287,2018-06-29 09:17:18.468750,15.44,98.78
62288,2018-06-29 09:17:18.500000,14.15,98.78
62289,2018-06-29 09:17:18.531250,11.17,99.05
62290,2018-06-29 09:17:18.562500,6.88,99.05
62291,2018-06-29 09:17:18.593750,2.47,99.05
62292,2018-06-29 09:17:18.625000,-1.53,99.05
62293,2018-06-29 09:17:18.656250,-5.81,99.05
62294,2018-06-29 09:17:18.687500,-10.82,99.05
62295,2018-06-29 09:17:18.718750,-15.45,99.05
62296,2018-06-29 09:17:18.750000,-18.56,99.05
62297,2018-06-29 09:17:18.781250,-21.28,99.05
62298,2018-06-29 09:17:18.812500,-25.97,99.05
62299,2018-06-29 09:17:18.843750,-32.49,99.05
62300,2018-06-29 09:17:18.875000,-35.74,99.05
62301,2018-06-29 09:17:18.906250,-29.43,99.05
62302,2018-06-29 09:17:18.937500,-13.75,99.05
62303,2018-06-29 09:17:18.968750,3.29,99.05
62304,2018-06-29 09:17:19.000000,14.04,99.05
62305,2018-06-29 09:17:19.031250,17.52,99.05
62306,2018-06-29 09:17:19.062500,16.5,99.05
62307,2018-06-29 09:17:19.093750,13.43,99.05
62308,2018-06-29 09:17:19.125000,10.8,99.05
62309,2018-06-29 09:17:19.156250,10.82,99.05
62310,2018-06-29 09:17:19.187500,13.13,99.05
62311,2018-06-29 09:17:19.218750,15.46,99.05
62312,2018-06-29 09:17:19.250000,16.34,99.05
62313,2018-06-29 09:17:19.281250,15.25,99.05
62314,2018-06-29 09:17:19.312500,12.02,99.05
62315,2018-06-29 09:17:19.343750,7.52,99.05
62316,2018-06-29 09:17:19.375000,3.44,99.05
62317,2018-06-29 09:17:19.406250,0.36,99.05
62318,2018-06-29 09:17:19.437500,-3.02,99.05
62319,2018-06-29 09:17:19.468750,-7.61,99.05
62320,2018-06-29 09:17:19.500000,-12.07,99.05
62321,2018-06-29 09:17:19.531250,-14.65,99.38
62322,2018-06-29 09:17:19.562500,-16.25,99.38
62323,2018-06-29 09:17:19.593750,-19.5,99.38
62324,2018-06-29 09:17:19.625000,-24.5,99.38
62325,2018-06-29 09:17:19.656250,-27.04,99.38
62326,2018-06-29 09:17:19.687500,-22.3,99.38
62327,2018-06-29 09:17:19.718750,-10.18,99.38
62328,2018-06-29 09:17:19.750000,4.24,99.38
62329,2018-06-29 09:17:19.781250,15.15,99.38
62330,2018-06-29 09:17:19.812500,19.57,99.38
62331,2018-06-29 09:17:19.843750,17.84,99.38
62332,2018-06-29 09:17:19.875000,13.0,99.38
62333,2018-06-29 09:17:19.906250,8.75,99.38
62334,2018-06-29 09:17:19.937500,7.02,99.38
62335,2018-06-29 09:17:19.968750,7.6,99.38
62336,2018-06-29 09:17:20.000000,8.91,99.38
62337,2018-06-29 09:17:20.031250,8.97,99.38
62338,2018-06-29 09:17:20.062500,7.2,99.38
62339,2018-06-29 09:17:20.093750,5.03,99.38
62340,2018-06-29 09:17:20.125000,3.23,99.38
62341,2018-06-29 09:17:20.156250,0.89,99.38
62342,2018-06-29 09:17:20.187500,-2.25,99.38
62343,2018-06-29 09:17:20.218750,-4.85,99.38
62344,2018-06-29 09:17:20.250000,-6.36,99.38
62345,2018-06-29 09:17:20.281250,-7.88,99.38
62346,2018-06-29 09:17:20.312500,-10.63,99.38
62347,2018-06-29 09:17:20.343750,-15.03,99.38
62348,2018-06-29 09:17:20.375000,-19.77,99.38
62349,2018-06-29 09:17:20.406250,-20.88,99.38
62350,2018-06-29 09:17:20.437500,-14.59,99.38
62351,2018-06-29 09:17:20.468750,-2.25,99.38
62352,2018-06-29 09:17:20.500000,10.05,99.38
62353,2018-06-29 09:17:20.531250,16.85,99.22
62354,2018-06-29 09:17:20.562500,16.85,99.22
62355,2018-06-29 09:17:20.593750,12.54,99.22
62356,2018-06-29 09:17:20.625000,8.33,99.22
62357,2018-06-29 09:17:20.656250,7.28,99.22
62358,2018-06-29 09:17:20.687500,8.68,99.22
62359,2018-06-29 09:17:20.718750,9.84,99.22
62360,2018-06-29 09:17:20.750000,9.34,99.22
62361,2018-06-29 09:17:20.781250,7.62,99.22
62362,2018-06-29 09:17:20.812500,5.66,99.22
62363,2018-06-29 09:17:20.843750,3.39,99.22
62364,2018-06-29 09:17:20.875000,-0.23,99.22
62365,2018-06-29 09:17:20.906250,-5.11,99.22
62366,2018-06-29 09:17:20.937500,-9.52,99.22
62367,2018-06-29 09:17:20.968750,-12.69,99.22
62368,2018-06-29 09:17:21.000000,-16.04,99.22
62369,2018-06-29 09:17:21.031250,-21.28,99.22
62370,2018-06-29 09:17:21.062500,-27.5,99.22
62371,2018-06-29 09:17:21.093750,-29.99,99.22
62372,2018-06-29 09:17:21.125000,-23.94,99.22
62373,2018-06-29 09:17:21.156250,-10.66,99.22
62374,2018-06-29 09:17:21.187500,2.95,99.22
62375,2018-06-29 09:17:21.218750,11.66,99.22
62376,2018-06-29 09:17:21.250000,14.97,99.22
62377,2018-06-29 09:17:21.281250,14.2,99.22
62378,2018-06-29 09:17:21.312500,11.55,99.22
62379,2018-06-29 09:17:21.343750,10.3,99.22
62380,2018-06-29 09:17:21.375000,11.6,99.22
62381,2018-06-29 09:17:21.406250,12.96,99.22
62382,2018-06-29 09:17:21.437500,12.16,99.22
62383,2018-06-29 09:17:21.468750,10.12,99.22
62384,2018-06-29 09:17:21.500000,8.75,99.22
62385,2018-06-29 09:17:21.531250,7.87,99.03
62386,2018-06-29 09:17:21.562500,4.95,99.03
62387,2018-06-29 09:17:21.593750,-1.68,99.03
62388,2018-06-29 09:17:21.625000,-10.08,99.03
62389,2018-06-29 09:17:21.656250,-16.67,99.03
62390,2018-06-29 09:17:21.687500,-20.84,99.03
62391,2018-06-29 09:17:21.718750,-24.46,99.03
62392,2018-06-29 09:17:21.750000,-26.28,99.03
62393,2018-06-29 09:17:21.781250,-21.35,99.03
62394,2018-06-29 09:17:21.812500,-8.48,99.03
62395,2018-06-29 09:17:21.843750,6.21,99.03
62396,2018-06-29 09:17:21.875000,16.31,99.03
62397,2018-06-29 09:17:21.906250,20.89,99.03
62398,2018-06-29 09:17:21.937500,21.62,99.03
62399,2018-06-29 09:17:21.968750,19.63,99.03
62400,2018-06-29 09:17:22.000000,16.99,99.03
62401,2018-06-29 09:17:22.031250,16.03,99.03
62402,2018-06-29 09:17:22.062500,16.58,99.03
62403,2018-06-29 09:17:22.093750,16.5,99.03
62404,2018-06-29 09:17:22.125000,14.48,99.03
62405,2018-06-29 09:17:22.156250,10.49,99.03
62406,2018-06-29 09:17:22.187500,4.45,99.03
62407,2018-06-29 09:17:22.218750,-3.66,99.03
62408,2018-06-29 09:17:22.250000,-12.37,99.03
62409,2018-06-29 09:17:22.281250,-19.09,99.03
62410,2018-06-29 09:17:22.312500,-22.86,99.03
62411,2018-06-29 09:17:22.343750,-25.54,99.03
62412,2018-06-29 09:17:22.375000,-29.49,99.03
62413,2018-06-29 09:17:22.406250,-34.45,99.03
62414,2018-06-29 09:17:22.437500,-36.12,99.03
62415,2018-06-29 09:17:22.468750,-28.87,99.03
62416,2018-06-29 09:17:22.500000,-12.73,99.03
62417,2018-06-29 09:17:22.531250,4.37,98.85
62418,2018-06-29 09:17:22.562500,14.94,98.85
62419,2018-06-29 09:17:22.593750,19.07,98.85
62420,2018-06-29 09:17:22.625000,20.28,98.85
62421,2018-06-29 09:17:22.656250,19.82,98.85
62422,2018-06-29 09:17:22.687500,18.16,98.85
62423,2018-06-29 09:17:22.718750,17.08,98.85
62424,2018-06-29 09:17:22.750000,17.36,98.85
62425,2018-06-29 09:17:22.781250,17.49,98.85
62426,2018-06-29 09:17:22.812500,16.23,98.85
62427,2018-06-29 09:17:22.843750,14.1,98.85
62428,2018-06-29 09:17:22.875000,11.63,98.85
62429,2018-06-29 09:17:22.906250,8.18,98.85
62430,2018-06-29 09:17:22.937500,3.17,98.85
62431,2018-06-29 09:17:22.968750,-2.58,98.85
62432,2018-06-29 09:17:23.000000,-7.38,98.85
62433,2018-06-29 09:17:23.031250,-10.7,98.85
62434,2018-06-29 09:17:23.062500,-13.85,98.85
62435,2018-06-29 09:17:23.093750,-18.52,98.85
62436,2018-06-29 09:17:23.125000,-24.59,98.85
62437,2018-06-29 09:17:23.156250,-28.62,98.85
62438,2018-06-29 09:17:23.187500,-25.32,98.85
62439,2018-06-29 09:17:23.218750,-13.38,98.85
62440,2018-06-29 09:17:23.250000,1.68,98.85
62441,2018-06-29 09:17:23.281250,13.35,98.85
62442,2018-06-29 09:17:23.312500,19.92,98.85
62443,2018-06-29 09:17:23.343750,22.47,98.85
62444,2018-06-29 09:17:23.375000,21.9,98.85
62445,2018-06-29 09:17:23.406250,19.74,98.85
62446,2018-06-29 09:17:23.437500,18.18,98.85
62447,2018-06-29 09:17:23.468750,17.89,98.85
62448,2018-06-29 09:17:23.500000,17.95,98.85
62449,2018-06-29 09:17:23.531250,17.59,98.63
62450,2018-06-29 09:17:23.562500,16.76,98.63
62451,2018-06-29 09:17:23.593750,15.04,98.63
62452,2018-06-29 09:17:23.625000,11.64,98.63
62453,2018-06-29 09:17:23.656250,6.82,98.63
62454,2018-06-29 09:17:23.687500,2.28,98.63
62455,2018-06-29 09:17:23.718750,-0.49,98.63
62456,2018-06-29 09:17:23.750000,-2.1,98.63
62457,2018-06-29 09:17:23.781250,-4.21,98.63
62458,2018-06-29 09:17:23.812500,-7.16,98.63
62459,2018-06-29 09:17:23.843750,-9.58,98.63
62460,2018-06-29 09:17:23.875000,-10.5,98.63
62461,2018-06-29 09:17:23.906250,-11.25,98.63
62462,2018-06-29 09:17:23.937500,-14.77,98.63
62463,2018-06-29 09:17:23.968750,-21.43,98.63
62464,2018-06-29 09:17:24.000000,-25.82,98.63
62465,2018-06-29 09:17:24.031250,-21.43,98.63
62466,2018-06-29 09:17:24.062500,-8.7,98.63
62467,2018-06-29 09:17:24.093750,5.32,98.63
62468,2018-06-29 09:17:24.125000,14.89,98.63
62469,2018-06-29 09:17:24.156250,19.05,98.63
62470,2018-06-29 09:17:24.187500,18.94,98.63
62471,2018-06-29 09:17:24.218750,16.41,98.63
62472,2018-06-29 09:17:24.250000,14.54,98.63
62473,2018-06-29 09:17:24.281250,15.27,98.63
62474,2018-06-29 09:17:24.312500,17.01,98.63
62475,2018-06-29 09:17:24.343750,17.47,98.63
62476,2018-06-29 09:17:24.375000,16.97,98.63
62477,2018-06-29 09:17:24.406250,16.51,98.63
62478,2018-06-29 09:17:24.437500,15.26,98.63
62479,2018-06-29 09:17:24.468750,12.33,98.63
62480,2018-06-29 09:17:24.500000,8.39,98.63
62481,2018-06-29 09:17:24.531250,4.58,98.45
62482,2018-06-29 09:17:24.562500,1.64,98.45
62483,2018-06-29 09:17:24.593750,-0.38,98.45
62484,2018-06-29 09:17:24.625000,-2.25,98.45
62485,2018-06-29 09:17:24.656250,-4.5,98.45
62486,2018-06-29 09:17:24.687500,-6.79,98.45
62487,2018-06-29 09:17:24.718750,-8.9,98.45
62488,2018-06-29 09:17:24.750000,-11.44,98.45
62489,2018-06-29 09:17:24.781250,-15.57,98.45
62490,2018-06-29 09:17:24.812500,-21.53,98.45
62491,2018-06-29 09:17:24.843750,-26.25,98.45
62492,2018-06-29 09:17:24.875000,-24.55,98.45
62493,2018-06-29 09:17:24.906250,-14.93,98.45
62494,2018-06-29 09:17:24.937500,-2.2,98.45
62495,2018-06-29 09:17:24.968750,7.76,98.45
62496,2018-06-29 09:17:25.000000,13.14,98.45
62497,2018-06-29 09:17:25.031250,15.25,98.45
62498,2018-06-29 09:17:25.062500,15.54,98.45
62499,2018-06-29 09:17:25.093750,15.19,98.45
62500,2018-06-29 09:17:25.125000,15.24,98.45
62501,2018-06-29 09:17:25.156250,16.08,98.45
62502,2018-06-29 09:17:25.187500,17.12,98.45
62503,2018-06-29 09:17:25.218750,17.41,98.45
62504,2018-06-29 09:17:25.250000,16.59,98.45
62505,2018-06-29 09:17:25.281250,15.32,98.45
62506,2018-06-29 09:17:25.312500,14.03,98.45
62507,2018-06-29 09:17:25.343750,12.11,98.45
62508,2018-06-29 09:17:25.375000,9.34,98.45
62509,2018-06-29 09:17:25.406250,6.59,98.45
62510,2018-06-29 09:17:25.437500,4.57,98.45
62511,2018-06-29 09:17:25.468750,3.16,98.45
62512,2018-06-29 09:17:25.500000,1.84,98.45
62513,2018-06-29 09:17:25.531250,-0.24,98.27
62514,2018-06-29 09:17:25.562500,-3.72,98.27
62515,2018-06-29 09:17:25.593750,-7.8,98.27
62516,2018-06-29 09:17:25.625000,-10.92,98.27
62517,2018-06-29 09:17:25.656250,-12.8,98.27
62518,2018-06-29 09:17:25.687500,-14.71,98.27
62519,2018-06-29 09:17:25.718750,-18.22,98.27
62520,2018-06-29 09:17:25.750000,-23.1,98.27
62521,2018-06-29 09:17:25.781250,-25.44,98.27
62522,2018-06-29 09:17:25.812500,-20.64,98.27
62523,2018-06-29 09:17:25.843750,-9.61,98.27
62524,2018-06-29 09:17:25.875000,1.43,98.27
62525,2018-06-29 09:17:25.906250,8.06,98.27
62526,2018-06-29 09:17:25.937500,10.71,98.27
62527,2018-06-29 09:17:25.968750,11.23,98.27
62528,2018-06-29 09:17:26.000000,10.87,98.27
62529,2018-06-29 09:17:26.031250,10.9,98.27
62530,2018-06-29 09:17:26.062500,11.95,98.27
62531,2018-06-29 09:17:26.093750,13.1,98.27
62532,2018-06-29 09:17:26.125000,13.22,98.27
62533,2018-06-29 09:17:26.156250,12.27,98.27
62534,2018-06-29 09:17:26.187500,10.81,98.27
62535,2018-06-29 09:17:26.218750,9.31,98.27
62536,2018-06-29 09:17:26.250000,7.98,98.27
62537,2018-06-29 09:17:26.281250,6.57,98.27
62538,2018-06-29 09:17:26.312500,4.67,98.27
62539,2018-06-29 09:17:26.343750,2.57,98.27
62540,2018-06-29 09:17:26.375000,0.75,98.27
62541,2018-06-29 09:17:26.406250,-1.44,98.27
62542,2018-06-29 09:17:26.437500,-4.76,98.27
62543,2018-06-29 09:17:26.468750,-8.15,98.27
62544,2018-06-29 09:17:26.500000,-10.4,98.27
62545,2018-06-29 09:17:26.531250,-12.04,98.08
62546,2018-06-29 09:17:26.562500,-14.28,98.08
62547,2018-06-29 09:17:26.593750,-17.49,98.08
62548,2018-06-29 09:17:26.625000,-21.34,98.08
62549,2018-06-29 09:17:26.656250,-23.5,98.08
62550,2018-06-29 09:17:26.687500,-19.96,98.08
62551,2018-06-29 09:17:26.718750,-9.97,98.08
62552,2018-06-29 09:17:26.750000,1.44,98.08
62553,2018-06-29 09:17:26.781250,8.78,98.08
62554,2018-06-29 09:17:26.812500,11.47,98.08
62555,2018-06-29 09:17:26.843750,12.01,98.08
62556,2018-06-29 09:17:26.875000,11.84,98.08
62557,2018-06-29 09:17:26.906250,11.14,98.08
62558,2018-06-29 09:17:26.937500,10.34,98.08
62559,2018-06-29 09:17:26.968750,9.81,98.08
62560,2018-06-29 09:17:27.000000,9.34,98.08
62561,2018-06-29 09:17:27.031250,8.83,98.08
62562,2018-06-29 09:17:27.062500,8.4,98.08
62563,2018-06-29 09:17:27.093750,7.96,98.08
62564,2018-06-29 09:17:27.125000,7.33,98.08
62565,2018-06-29 09:17:27.156250,6.34,98.08
62566,2018-06-29 09:17:27.187500,4.81,98.08
62567,2018-06-29 09:17:27.218750,3.17,98.08
62568,2018-06-29 09:17:27.250000,2.12,98.08
62569,2018-06-29 09:17:27.281250,1.5,98.08
62570,2018-06-29 09:17:27.312500,0.57,98.08
62571,2018-06-29 09:17:27.343750,-1.14,98.08
62572,2018-06-29 09:17:27.375000,-3.26,98.08
62573,2018-06-29 09:17:27.406250,-5.11,98.08
62574,2018-06-29 09:17:27.437500,-7.13,98.08
62575,2018-06-29 09:17:27.468750,-10.65,98.08
62576,2018-06-29 09:17:27.500000,-15.36,98.08
62577,2018-06-29 09:17:27.531250,-17.68,97.75
62578,2018-06-29 09:17:27.562500,-13.78,97.75
62579,2018-06-29 09:17:27.593750,-3.82,97.75
62580,2018-06-29 09:17:27.625000,7.94,97.75
62581,2018-06-29 09:17:27.656250,17.59,97.75
62582,2018-06-29 09:17:27.687500,24.27,97.75
62583,2018-06-29 09:17:27.718750,28.59,97.75
62584,2018-06-29 09:17:27.750000,31.52,97.75
62585,2018-06-29 09:17:27.781250,34.96,97.75
62586,2018-06-29 09:17:27.812500,40.4,97.75
62587,2018-06-29 09:17:27.843750,47.08,97.75
62588,2018-06-29 09:17:27.875000,53.11,97.75
62589,2018-06-29 09:17:27.906250,58.27,97.75
62590,2018-06-29 09:17:27.937500,64.21,97.75
62591,2018-06-29 09:17:27.968750,71.7,97.75
62592,2018-06-29 09:17:28.000000,79.04,97.75
62593,2018-06-29 09:17:28.031250,83.45,97.75
62594,2018-06-29 09:17:28.062500,83.09,97.75
62595,2018-06-29 09:17:28.093750,78.59,97.75
62596,2018-06-29 09:17:28.125000,70.72,97.75
62597,2018-06-29 09:17:28.156250,54.85,97.75
62598,2018-06-29 09:17:28.187500,23.33,97.75
62599,2018-06-29 09:17:28.218750,-20.72,97.75
62600,2018-06-29 09:17:28.250000,-59.17,97.75
62601,2018-06-29 09:17:28.281250,-75.88,97.75
62602,2018-06-29 09:17:28.312500,-71.97,97.75
62603,2018-06-29 09:17:28.343750,-58.97,97.75
62604,2018-06-29 09:17:28.375000,-45.37,97.75
62605,2018-06-29 09:17:28.406250,-34.4,97.75
62606,2018-06-29 09:17:28.437500,-24.66,97.75
62607,2018-06-29 09:17:28.468750,-8.73,97.75
62608,2018-06-29 09:17:28.500000,18.69,97.75
62609,2018-06-29 09:17:28.531250,50.31,97.38
62610,2018-06-29 09:17:28.562500,73.73,97.38
62611,2018-06-29 09:17:28.593750,85.14,97.38
62612,2018-06-29 09:17:28.625000,86.78,97.38
62613,2018-06-29 09:17:28.656250,77.87,97.38
62614,2018-06-29 09:17:28.687500,58.53,97.38
62615,2018-06-29 09:17:28.718750,34.06,97.38
62616,2018-06-29 09:17:28.750000,8.59,97.38
62617,2018-06-29 09:17:28.781250,-17.4,97.38
62618,2018-06-29 09:17:28.812500,-41.4,97.38
62619,2018-06-29 09:17:28.843750,-57.61,97.38
62620,2018-06-29 09:17:28.875000,-63.15,97.38
62621,2018-06-29 09:17:28.906250,-57.22,97.38
62622,2018-06-29 09:17:28.937500,-40.27,97.38
62623,2018-06-29 09:17:28.968750,-16.94,97.38
62624,2018-06-29 09:17:29.000000,2.12,97.38
62625,2018-06-29 09:17:29.031250,8.13,97.38
62626,2018-06-29 09:17:29.062500,3.72,97.38
62627,2018-06-29 09:17:29.093750,-5.07,97.38
62628,2018-06-29 09:17:29.125000,-16.53,97.38
62629,2018-06-29 09:17:29.156250,-37.44,97.38
62630,2018-06-29 09:17:29.187500,-65.26,97.38
62631,2018-06-29 09:17:29.218750,-90.06,97.38
62632,2018-06-29 09:17:29.250000,-109.37,97.38
62633,2018-06-29 09:17:29.281250,-133.08,97.38
62634,2018-06-29 09:17:29.312500,-166.48,97.38
62635,2018-06-29 09:17:29.343750,-193.32,97.38
62636,2018-06-29 09:17:29.375000,-207.03,97.38
62637,2018-06-29 09:17:29.406250,-222.14,97.38
62638,2018-06-29 09:17:29.437500,-263.03,97.38
62639,2018-06-29 09:17:29.468750,-321.05,97.38
62640,2018-06-29 09:17:29.500000,-366.99,97.38
62641,2018-06-29 09:17:29.531250,-370.6,97.05
62642,2018-06-29 09:17:29.562500,-247.48,97.05
62643,2018-06-29 09:17:29.593750,-46.76,97.05
62644,2018-06-29 09:17:29.625000,112.32,97.05
62645,2018-06-29 09:17:29.656250,197.45,97.05
62646,2018-06-29 09:17:29.687500,230.53,97.05
62647,2018-06-29 09:17:29.718750,229.03,97.05
62648,2018-06-29 09:17:29.750000,210.53,97.05
62649,2018-06-29 09:17:29.781250,195.97,97.05
62650,2018-06-29 09:17:29.812500,191.62,97.05
62651,2018-06-29 09:17:29.843750,186.56,97.05
62652,2018-06-29 09:17:29.875000,168.5,97.05
62653,2018-06-29 09:17:29.906250,145.66,97.05
62654,2018-06-29 09:17:29.937500,127.57,97.05
62655,2018-06-29 09:17:29.968750,113.74,97.05
62656,2018-06-29 09:17:30.000000,94.28,97.05
62657,2018-06-29 09:17:30.031250,68.92,97.05
62658,2018-06-29 09:17:30.062500,45.74,97.05
62659,2018-06-29 09:17:30.093750,27.64,97.05
62660,2018-06-29 09:17:30.125000,13.75,97.05
62661,2018-06-29 09:17:30.156250,5.03,97.05
62662,2018-06-29 09:17:30.187500,5.79,97.05
62663,2018-06-29 09:17:30.218750,14.01,97.05
62664,2018-06-29 09:17:30.250000,22.68,97.05
62665,2018-06-29 09:17:30.281250,26.14,97.05
62666,2018-06-29 09:17:30.312500,23.22,97.05
62667,2018-06-29 09:17:30.343750,15.62,97.05
62668,2018-06-29 09:17:30.375000,6.57,97.05
62669,2018-06-29 09:17:30.406250,1.03,97.05
62670,2018-06-29 09:17:30.437500,1.58,97.05
62671,2018-06-29 09:17:30.468750,6.52,97.05
62672,2018-06-29 09:17:30.500000,13.68,97.05
62673,2018-06-29 09:17:30.531250,23.09,96.72
62674,2018-06-29 09:17:30.562500,34.02,96.72
62675,2018-06-29 09:17:30.593750,43.26,96.72
62676,2018-06-29 09:17:30.625000,48.31,96.72
62677,2018-06-29 09:17:30.656250,49.46,96.72
62678,2018-06-29 09:17:30.687500,48.31,96.72
62679,2018-06-29 09:17:30.718750,47.19,96.72
62680,2018-06-29 09:17:30.750000,48.49,96.72
62681,2018-06-29 09:17:30.781250,49.47,96.72
62682,2018-06-29 09:17:30.812500,42.69,96.72
62683,2018-06-29 09:17:30.843750,27.35,96.72
62684,2018-06-29 09:17:30.875000,12.13,96.72
62685,2018-06-29 09:17:30.906250,3.59,96.72
62686,2018-06-29 09:17:30.937500,1.8,96.72
62687,2018-06-29 09:17:30.968750,5.46,96.72
62688,2018-06-29 09:17:31.000000,10.1,96.72
62689,2018-06-29 09:17:31.031250,6.12,96.72
62690,2018-06-29 09:17:31.062500,-11.59,96.72
62691,2018-06-29 09:17:31.093750,-37.28,96.72
62692,2018-06-29 09:17:31.125000,-62.01,96.72
62693,2018-06-29 09:17:31.156250,-81.92,96.72
62694,2018-06-29 09:17:31.187500,-96.63,96.72
62695,2018-06-29 09:17:31.218750,-104.83,96.72
62696,2018-06-29 09:17:31.250000,-107.7,96.72
62697,2018-06-29 09:17:31.281250,-109.12,96.72
62698,2018-06-29 09:17:31.312500,-111.58,96.72
62699,2018-06-29 09:17:31.343750,-114.63,96.72
62700,2018-06-29 09:17:31.375000,-118.75,96.72
62701,2018-06-29 09:17:31.406250,-125.82,96.72
62702,2018-06-29 09:17:31.437500,-136.19,96.72
62703,2018-06-29 09:17:31.468750,-148.9,96.72
62704,2018-06-29 09:17:31.500000,-160.9,96.72
62705,2018-06-29 09:17:31.531250,-170.85,96.38
62706,2018-06-29 09:17:31.562500,-177.6,96.38
62707,2018-06-29 09:17:31.593750,-179.32,96.38
62708,2018-06-29 09:17:31.625000,-168.37,96.38
62709,2018-06-29 09:17:31.656250,-139.08,96.38
62710,2018-06-29 09:17:31.687500,-95.12,96.38
62711,2018-06-29 09:17:31.718750,-44.4,96.38
62712,2018-06-29 09:17:31.750000,3.31,96.38
62713,2018-06-29 09:17:31.781250,48.81,96.38
62714,2018-06-29 09:17:31.812500,87.64,96.38
62715,2018-06-29 09:17:31.843750,118.66,96.38
62716,2018-06-29 09:17:31.875000,138.34,96.38
62717,2018-06-29 09:17:31.906250,151.67,96.38
62718,2018-06-29 09:17:31.937500,161.12,96.38
62719,2018-06-29 09:17:31.968750,157.01,96.38
62720,2018-06-29 09:17:32.000000,131.93,96.38
62721,2018-06-29 09:17:32.031250,87.04,96.38
62722,2018-06-29 09:17:32.062500,52.63,96.38
62723,2018-06-29 09:17:32.093750,34.54,96.38
62724,2018-06-29 09:17:32.125000,30.7,96.38
62725,2018-06-29 09:17:32.156250,63.1,96.38
62726,2018-06-29 09:17:32.187500,51.44,96.38
62727,2018-06-29 09:17:32.218750,13.69,96.38
62728,2018-06-29 09:17:32.250000,-34.24,96.38
62729,2018-06-29 09:17:32.281250,-84.13,96.38
62730,2018-06-29 09:17:32.312500,-136.24,96.38
62731,2018-06-29 09:17:32.343750,-171.95,96.38
62732,2018-06-29 09:17:32.375000,-183.28,96.38
62733,2018-06-29 09:17:32.406250,-163.56,96.38
62734,2018-06-29 09:17:32.437500,-125.0,96.38
62735,2018-06-29 09:17:32.468750,-83.23,96.38
62736,2018-06-29 09:17:32.500000,-45.02,96.38
62737,2018-06-29 09:17:32.531250,-12.47,96.05
62738,2018-06-29 09:17:32.562500,11.94,96.05
62739,2018-06-29 09:17:32.593750,21.85,96.05
62740,2018-06-29 09:17:32.625000,26.23,96.05
62741,2018-06-29 09:17:32.656250,29.29,96.05
62742,2018-06-29 09:17:32.687500,30.43,96.05
62743,2018-06-29 09:17:32.718750,27.09,96.05
62744,2018-06-29 09:17:32.750000,23.35,96.05
62745,2018-06-29 09:17:32.781250,22.92,96.05
62746,2018-06-29 09:17:32.812500,21.84,96.05
62747,2018-06-29 09:17:32.843750,16.37,96.05
62748,2018-06-29 09:17:32.875000,8.35,96.05
62749,2018-06-29 09:17:32.906250,3.49,96.05
62750,2018-06-29 09:17:32.937500,1.49,96.05
62751,2018-06-29 09:17:32.968750,-0.91,96.05
62752,2018-06-29 09:17:33.000000,-2.99,96.05
62753,2018-06-29 09:17:33.031250,-1.15,96.05
62754,2018-06-29 09:17:33.062500,4.15,96.05
62755,2018-06-29 09:17:33.093750,8.41,96.05
62756,2018-06-29 09:17:33.125000,10.15,96.05
62757,2018-06-29 09:17:33.156250,11.33,96.05
62758,2018-06-29 09:17:33.187500,16.71,96.05
62759,2018-06-29 09:17:33.218750,36.03,96.05
62760,2018-06-29 09:17:33.250000,71.29,96.05
62761,2018-06-29 09:17:33.281250,103.18,96.05
62762,2018-06-29 09:17:33.312500,112.52,96.05
62763,2018-06-29 09:17:33.343750,107.26,96.05
62764,2018-06-29 09:17:33.375000,104.47,96.05
62765,2018-06-29 09:17:33.406250,107.18,96.05
62766,2018-06-29 09:17:33.437500,112.32,96.05
62767,2018-06-29 09:17:33.468750,121.93,96.05
62768,2018-06-29 09:17:33.500000,133.65,96.05
62769,2018-06-29 09:17:33.531250,138.93,95.72
62770,2018-06-29 09:17:33.562500,134.73,95.72
62771,2018-06-29 09:17:33.593750,125.49,95.72
62772,2018-06-29 09:17:33.625000,114.05,95.72
62773,2018-06-29 09:17:33.656250,92.37,95.72
62774,2018-06-29 09:17:33.687500,57.66,95.72
62775,2018-06-29 09:17:33.718750,20.41,95.72
62776,2018-06-29 09:17:33.750000,-12.35,95.72
62777,2018-06-29 09:17:33.781250,-28.96,95.72
62778,2018-06-29 09:17:33.812500,-26.21,95.72
62779,2018-06-29 09:17:33.843750,-5.49,95.72
62780,2018-06-29 09:17:33.875000,24.65,95.72
62781,2018-06-29 09:17:33.906250,50.99,95.72
62782,2018-06-29 09:17:33.937500,66.69,95.72
62783,2018-06-29 09:17:33.968750,74.53,95.72
62784,2018-06-29 09:17:34.000000,77.49,95.72
62785,2018-06-29 09:17:34.031250,79.4,95.72
62786,2018-06-29 09:17:34.062500,82.72,95.72
62787,2018-06-29 09:17:34.093750,88.37,95.72
62788,2018-06-29 09:17:34.125000,93.49,95.72
62789,2018-06-29 09:17:34.156250,91.9,95.72
62790,2018-06-29 09:17:34.187500,86.95,95.72
62791,2018-06-29 09:17:34.218750,80.69,95.72
62792,2018-06-29 09:17:34.250000,74.03,95.72
62793,2018-06-29 09:17:34.281250,64.13,95.72
62794,2018-06-29 09:17:34.312500,46.12,95.72
62795,2018-06-29 09:17:34.343750,16.51,95.72
62796,2018-06-29 09:17:34.375000,-22.71,95.72
62797,2018-06-29 09:17:34.406250,-66.83,95.72
62798,2018-06-29 09:17:34.437500,-113.85,95.72
62799,2018-06-29 09:17:34.468750,-167.0,95.72
62800,2018-06-29 09:17:34.500000,-226.38,95.72
62801,2018-06-29 09:17:34.531250,-275.03,95.32
62802,2018-06-29 09:17:34.562500,-285.4,95.32
62803,2018-06-29 09:17:34.593750,-247.99,95.32
62804,2018-06-29 09:17:34.625000,-184.74,95.32
62805,2018-06-29 09:17:34.656250,-125.28,95.32
62806,2018-06-29 09:17:34.687500,-87.39,95.32
62807,2018-06-29 09:17:34.718750,-81.21,95.32
62808,2018-06-29 09:17:34.750000,-110.4,95.32
62809,2018-06-29 09:17:34.781250,-166.85,95.32
62810,2018-06-29 09:17:34.812500,-235.24,95.32
62811,2018-06-29 09:17:34.843750,-294.52,95.32
62812,2018-06-29 09:17:34.875000,-316.43,95.32
62813,2018-06-29 09:17:34.906250,-284.7,95.32
62814,2018-06-29 09:17:34.937500,-214.42,95.32
62815,2018-06-29 09:17:34.968750,-138.16,95.32
62816,2018-06-29 09:17:35.000000,-80.52,95.32
62817,2018-06-29 09:17:35.031250,-51.38,95.32
62818,2018-06-29 09:17:35.062500,-47.56,95.32
62819,2018-06-29 09:17:35.093750,-52.86,95.32
62820,2018-06-29 09:17:35.125000,-48.66,95.32
62821,2018-06-29 09:17:35.156250,-32.46,95.32
62822,2018-06-29 09:17:35.187500,-20.83,95.32
62823,2018-06-29 09:17:35.218750,-27.71,95.32
62824,2018-06-29 09:17:35.250000,-44.41,95.32
62825,2018-06-29 09:17:35.281250,-48.29,95.32
62826,2018-06-29 09:17:35.312500,-28.56,95.32
62827,2018-06-29 09:17:35.343750,3.95,95.32
62828,2018-06-29 09:17:35.375000,33.04,95.32
62829,2018-06-29 09:17:35.406250,56.2,95.32
62830,2018-06-29 09:17:35.437500,82.26,95.32
62831,2018-06-29 09:17:35.468750,115.87,95.32
62832,2018-06-29 09:17:35.500000,152.26,95.32
62833,2018-06-29 09:17:35.531250,184.79,94.93
62834,2018-06-29 09:17:35.562500,210.63,94.93
62835,2018-06-29 09:17:35.593750,231.07,94.93
62836,2018-06-29 09:17:35.625000,249.72,94.93
62837,2018-06-29 09:17:35.656250,268.4,94.93
62838,2018-06-29 09:17:35.687500,282.88,94.93
62839,2018-06-29 09:17:35.718750,284.25,94.93
62840,2018-06-29 09:17:35.750000,266.15,94.93
62841,2018-06-29 09:17:35.781250,230.8,94.93
62842,2018-06-29 09:17:35.812500,186.3,94.93
62843,2018-06-29 09:17:35.843750,139.45,94.93
62844,2018-06-29 09:17:35.875000,94.75,94.93
62845,2018-06-29 09:17:35.906250,55.88,94.93
62846,2018-06-29 09:17:35.937500,20.93,94.93
62847,2018-06-29 09:17:35.968750,-19.28,94.93
62848,2018-06-29 09:17:36.000000,-69.82,94.93
62849,2018-06-29 09:17:36.031250,-119.03,94.93
62850,2018-06-29 09:17:36.062500,-143.73,94.93
62851,2018-06-29 09:17:36.093750,-131.59,94.93
62852,2018-06-29 09:17:36.125000,-93.4,94.93
62853,2018-06-29 09:17:36.156250,-48.37,94.93
62854,2018-06-29 09:17:36.187500,-4.71,94.93
62855,2018-06-29 09:17:36.218750,39.76,94.93
62856,2018-06-29 09:17:36.250000,89.42,94.93
62857,2018-06-29 09:17:36.281250,149.07,94.93
62858,2018-06-29 09:17:36.312500,218.87,94.93
62859,2018-06-29 09:17:36.343750,287.49,94.93
62860,2018-06-29 09:17:36.375000,335.75,94.93
62861,2018-06-29 09:17:36.406250,346.31,94.93
62862,2018-06-29 09:17:36.437500,313.51,94.93
62863,2018-06-29 09:17:36.468750,249.9,94.93
62864,2018-06-29 09:17:36.500000,178.96,94.93
62865,2018-06-29 09:17:36.531250,117.48,94.53
62866,2018-06-29 09:17:36.562500,68.57,94.53
62867,2018-06-29 09:17:36.593750,27.51,94.53
62868,2018-06-29 09:17:36.625000,-15.69,94.53
62869,2018-06-29 09:17:36.656250,-73.23,94.53
62870,2018-06-29 09:17:36.687500,-140.6,94.53
62871,2018-06-29 09:17:36.718750,-187.59,94.53
62872,2018-06-29 09:17:36.750000,-187.14,94.53
62873,2018-06-29 09:17:36.781250,-146.65,94.53
62874,2018-06-29 09:17:36.812500,-98.23,94.53
62875,2018-06-29 09:17:36.843750,-68.93,94.53
62876,2018-06-29 09:17:36.875000,-69.73,94.53
62877,2018-06-29 09:17:36.906250,-100.64,94.53
62878,2018-06-29 09:17:36.937500,-151.07,94.53
62879,2018-06-29 09:17:36.968750,-194.82,94.53
62880,2018-06-29 09:17:37.000000,-205.35,94.53
62881,2018-06-29 09:17:37.031250,-188.79,94.53
62882,2018-06-29 09:17:37.062500,-180.92,94.53
62883,2018-06-29 09:17:37.093750,-204.17,94.53
62884,2018-06-29 09:17:37.125000,-254.03,94.53
62885,2018-06-29 09:17:37.156250,-317.56,94.53
62886,2018-06-29 09:17:37.187500,-372.38,94.53
62887,2018-06-29 09:17:37.218750,-389.59,94.53
62888,2018-06-29 09:17:37.250000,-366.62,94.53
62889,2018-06-29 09:17:37.281250,-332.08,94.53
62890,2018-06-29 09:17:37.312500,-306.79,94.53
62891,2018-06-29 09:17:37.343750,-286.54,94.53
62892,2018-06-29 09:17:37.375000,-259.63,94.53
62893,2018-06-29 09:17:37.406250,-218.28,94.53
62894,2018-06-29 09:17:37.437500,-159.73,94.53
62895,2018-06-29 09:17:37.468750,-88.76,94.53
62896,2018-06-29 09:17:37.500000,-15.99,94.53
62897,2018-06-29 09:17:37.531250,45.25,94.17
62898,2018-06-29 09:17:37.562500,84.24,94.17
62899,2018-06-29 09:17:37.593750,102.4,94.17
62900,2018-06-29 09:17:37.625000,110.93,94.17
62901,2018-06-29 09:17:37.656250,114.48,94.17
62902,2018-06-29 09:17:37.687500,108.23,94.17
62903,2018-06-29 09:17:37.718750,87.9,94.17
62904,2018-06-29 09:17:37.750000,51.57,94.17
62905,2018-06-29 09:17:37.781250,-0.5,94.17
62906,2018-06-29 09:17:37.812500,-59.14,94.17
62907,2018-06-29 09:17:37.843750,-109.83,94.17
62908,2018-06-29 09:17:37.875000,-146.59,94.17
62909,2018-06-29 09:17:37.906250,-171.14,94.17
62910,2018-06-29 09:17:37.937500,-178.73,94.17
62911,2018-06-29 09:17:37.968750,-161.34,94.17
62912,2018-06-29 09:17:38.000000,-124.36,94.17
62913,2018-06-29 09:17:38.031250,-82.91,94.17
62914,2018-06-29 09:17:38.062500,-43.21,94.17
62915,2018-06-29 09:17:38.093750,-1.52,94.17
62916,2018-06-29 09:17:38.125000,42.26,94.17
62917,2018-06-29 09:17:38.156250,81.23,94.17
62918,2018-06-29 09:17:38.187500,108.93,94.17
62919,2018-06-29 09:17:38.218750,124.85,94.17
62920,2018-06-29 09:17:38.250000,132.62,94.17
62921,2018-06-29 09:17:38.281250,135.8,94.17
62922,2018-06-29 09:17:38.312500,137.51,94.17
62923,2018-06-29 09:17:38.343750,140.39,94.17
62924,2018-06-29 09:17:38.375000,141.92,94.17
62925,2018-06-29 09:17:38.406250,134.9,94.17
62926,2018-06-29 09:17:38.437500,117.39,94.17
62927,2018-06-29 09:17:38.468750,97.31,94.17
62928,2018-06-29 09:17:38.500000,85.98,94.17
62929,2018-06-29 09:17:38.531250,89.83,93.8
62930,2018-06-29 09:17:38.562500,104.24,93.8
62931,2018-06-29 09:17:38.593750,116.39,93.8
62932,2018-06-29 09:17:38.625000,121.47,93.8
62933,2018-06-29 09:17:38.656250,126.27,93.8
62934,2018-06-29 09:17:38.687500,129.01,93.8
62935,2018-06-29 09:17:38.718750,114.43,93.8
62936,2018-06-29 09:17:38.750000,79.1,93.8
62937,2018-06-29 09:17:38.781250,39.08,93.8
62938,2018-06-29 09:17:38.812500,5.56,93.8
62939,2018-06-29 09:17:38.843750,-26.09,93.8
62940,2018-06-29 09:17:38.875000,-58.97,93.8
62941,2018-06-29 09:17:38.906250,-80.89,93.8
62942,2018-06-29 09:17:38.937500,-74.3,93.8
62943,2018-06-29 09:17:38.968750,-36.47,93.8
62944,2018-06-29 09:17:39.000000,15.69,93.8
62945,2018-06-29 09:17:39.031250,62.63,93.8
62946,2018-06-29 09:17:39.062500,96.89,93.8
62947,2018-06-29 09:17:39.093750,118.79,93.8
62948,2018-06-29 09:17:39.125000,128.57,93.8
62949,2018-06-29 09:17:39.156250,129.12,93.8
62950,2018-06-29 09:17:39.187500,127.37,93.8
62951,2018-06-29 09:17:39.218750,127.18,93.8
62952,2018-06-29 09:17:39.250000,126.16,93.8
62953,2018-06-29 09:17:39.281250,122.68,93.8
62954,2018-06-29 09:17:39.312500,119.13,93.8
62955,2018-06-29 09:17:39.343750,115.93,93.8
62956,2018-06-29 09:17:39.375000,109.3,93.8
62957,2018-06-29 09:17:39.406250,97.69,93.8
62958,2018-06-29 09:17:39.437500,84.86,93.8
62959,2018-06-29 09:17:39.468750,74.25,93.8
62960,2018-06-29 09:17:39.500000,64.53,93.8
62961,2018-06-29 09:17:39.531250,52.36,93.43
62962,2018-06-29 09:17:39.562500,37.74,93.43
62963,2018-06-29 09:17:39.593750,24.06,93.43
62964,2018-06-29 09:17:39.625000,12.22,93.43
62965,2018-06-29 09:17:39.656250,-1.32,93.43
62966,2018-06-29 09:17:39.687500,-18.22,93.43
62967,2018-06-29 09:17:39.718750,-34.86,93.43
62968,2018-06-29 09:17:39.750000,-48.03,93.43
62969,2018-06-29 09:17:39.781250,-60.14,93.43
62970,2018-06-29 09:17:39.812500,-76.46,93.43
62971,2018-06-29 09:17:39.843750,-98.87,93.43
62972,2018-06-29 09:17:39.875000,-119.36,93.43
62973,2018-06-29 09:17:39.906250,-120.42,93.43
62974,2018-06-29 09:17:39.937500,-90.85,93.43
62975,2018-06-29 09:17:39.968750,-41.48,93.43
62976,2018-06-29 09:17:40.000000,5.44,93.43
62977,2018-06-29 09:17:40.031250,37.71,93.43
62978,2018-06-29 09:17:40.062500,57.64,93.43
62979,2018-06-29 09:17:40.093750,69.52,93.43
62980,2018-06-29 09:17:40.125000,74.96,93.43
62981,2018-06-29 09:17:40.156250,77.15,93.43
62982,2018-06-29 09:17:40.187500,78.55,93.43
62983,2018-06-29 09:17:40.218750,78.84,93.43
62984,2018-06-29 09:17:40.250000,78.38,93.43
62985,2018-06-29 09:17:40.281250,81.71,93.43
62986,2018-06-29 09:17:40.312500,87.06,93.43
62987,2018-06-29 09:17:40.343750,86.83,93.43
62988,2018-06-29 09:17:40.375000,80.6,93.43
62989,2018-06-29 09:17:40.406250,83.39,93.43
62990,2018-06-29 09:17:40.437500,106.75,93.43
62991,2018-06-29 09:17:40.468750,137.73,93.43
62992,2018-06-29 09:17:40.500000,162.19,93.43
62993,2018-06-29 09:17:40.531250,185.88,93.07
62994,2018-06-29 09:17:40.562500,232.29,93.07
62995,2018-06-29 09:17:40.593750,288.5,93.07
62996,2018-06-29 09:17:40.625000,316.55,93.07
62997,2018-06-29 09:17:40.656250,303.36,93.07
62998,2018-06-29 09:17:40.687500,282.68,93.07
62999,2018-06-29 09:17:40.718750,287.23,93.07
63000,2018-06-29 09:17:40.750000,292.87,93.07
63001,2018-06-29 09:17:40.781250,269.01,93.07
63002,2018-06-29 09:17:40.812500,213.06,93.07
63003,2018-06-29 09:17:40.843750,174.52,93.07
63004,2018-06-29 09:17:40.875000,187.24,93.07
63005,2018-06-29 09:17:40.906250,249.48,93.07
63006,2018-06-29 09:17:40.937500,294.96,93.07
63007,2018-06-29 09:17:40.968750,117.77,93.07
63008,2018-06-29 09:17:41.000000,-177.97,93.07
63009,2018-06-29 09:17:41.031250,-382.37,93.07
63010,2018-06-29 09:17:41.062500,-488.45,93.07
63011,2018-06-29 09:17:41.093750,-545.88,93.07
63012,2018-06-29 09:17:41.125000,-537.26,93.07
63013,2018-06-29 09:17:41.156250,-482.4,93.07
63014,2018-06-29 09:17:41.187500,-435.97,93.07
63015,2018-06-29 09:17:41.218750,-412.61,93.07
63016,2018-06-29 09:17:41.250000,-381.45,93.07
63017,2018-06-29 09:17:41.281250,-322.88,93.07
63018,2018-06-29 09:17:41.312500,-267.51,93.07
63019,2018-06-29 09:17:41.343750,-232.78,93.07
63020,2018-06-29 09:17:41.375000,-207.95,93.07
63021,2018-06-29 09:17:41.406250,-170.44,93.07
63022,2018-06-29 09:17:41.437500,-129.77,93.07
63023,2018-06-29 09:17:41.468750,-106.97,93.07
63024,2018-06-29 09:17:41.500000,-100.63,93.07
63025,2018-06-29 09:17:41.531250,-93.54,92.72
63026,2018-06-29 09:17:41.562500,-77.26,92.72
63027,2018-06-29 09:17:41.593750,-61.84,92.72
63028,2018-06-29 09:17:41.625000,-53.64,92.72
63029,2018-06-29 09:17:41.656250,-50.26,92.72
63030,2018-06-29 09:17:41.687500,-48.76,92.72
63031,2018-06-29 09:17:41.718750,-52.36,92.72
63032,2018-06-29 09:17:41.750000,-60.26,92.72
63033,2018-06-29 09:17:41.781250,-60.7,92.72
63034,2018-06-29 09:17:41.812500,-42.33,92.72
63035,2018-06-29 09:17:41.843750,-8.25,92.72
63036,2018-06-29 09:17:41.875000,26.69,92.72
63037,2018-06-29 09:17:41.906250,50.77,92.72
63038,2018-06-29 09:17:41.937500,62.37,92.72
63039,2018-06-29 09:17:41.968750,64.21,92.72
63040,2018-06-29 09:17:42.000000,59.86,92.72
63041,2018-06-29 09:17:42.031250,54.77,92.72
63042,2018-06-29 09:17:42.062500,53.15,92.72
63043,2018-06-29 09:17:42.093750,53.62,92.72
63044,2018-06-29 09:17:42.125000,52.25,92.72
63045,2018-06-29 09:17:42.156250,48.15,92.72
63046,2018-06-29 09:17:42.187500,42.8,92.72
63047,2018-06-29 09:17:42.218750,36.93,92.72
63048,2018-06-29 09:17:42.250000,30.64,92.72
63049,2018-06-29 09:17:42.281250,24.81,92.72
63050,2018-06-29 09:17:42.312500,20.08,92.72
63051,2018-06-29 09:17:42.343750,16.18,92.72
63052,2018-06-29 09:17:42.375000,12.32,92.72
63053,2018-06-29 09:17:42.406250,7.06,92.72
63054,2018-06-29 09:17:42.437500,-0.52,92.72
63055,2018-06-29 09:17:42.468750,-9.2,92.72
63056,2018-06-29 09:17:42.500000,-16.85,92.72
63057,2018-06-29 09:17:42.531250,-22.83,92.35
63058,2018-06-29 09:17:42.562500,-27.94,92.35
63059,2018-06-29 09:17:42.593750,-33.45,92.35
63060,2018-06-29 09:17:42.625000,-41.66,92.35
63061,2018-06-29 09:17:42.656250,-52.8,92.35
63062,2018-06-29 09:17:42.687500,-59.4,92.35
63063,2018-06-29 09:17:42.718750,-50.7,92.35
63064,2018-06-29 09:17:42.750000,-25.86,92.35
63065,2018-06-29 09:17:42.781250,3.16,92.35
63066,2018-06-29 09:17:42.812500,24.37,92.35
63067,2018-06-29 09:17:42.843750,35.52,92.35
63068,2018-06-29 09:17:42.875000,39.91,92.35
63069,2018-06-29 09:17:42.906250,39.7,92.35
63070,2018-06-29 09:17:42.937500,36.57,92.35
63071,2018-06-29 09:17:42.968750,33.94,92.35
63072,2018-06-29 09:17:43.000000,34.24,92.35
63073,2018-06-29 09:17:43.031250,35.86,92.35
63074,2018-06-29 09:17:43.062500,35.88,92.35
63075,2018-06-29 09:17:43.093750,33.73,92.35
63076,2018-06-29 09:17:43.125000,30.54,92.35
63077,2018-06-29 09:17:43.156250,26.86,92.35
63078,2018-06-29 09:17:43.187500,22.62,92.35
63079,2018-06-29 09:17:43.218750,17.96,92.35
63080,2018-06-29 09:17:43.250000,13.57,92.35
63081,2018-06-29 09:17:43.281250,9.96,92.35
63082,2018-06-29 09:17:43.312500,6.3,92.35
63083,2018-06-29 09:17:43.343750,1.25,92.35
63084,2018-06-29 09:17:43.375000,-4.8,92.35
63085,2018-06-29 09:17:43.406250,-9.39,92.35
63086,2018-06-29 09:17:43.437500,-10.76,92.35
63087,2018-06-29 09:17:43.468750,-10.98,92.35
63088,2018-06-29 09:17:43.500000,-14.66,92.35
63089,2018-06-29 09:17:43.531250,-23.92,92.0
63090,2018-06-29 09:17:43.562500,-35.27,92.0
63091,2018-06-29 09:17:43.593750,-40.94,92.0
63092,2018-06-29 09:17:43.625000,-34.22,92.0
63093,2018-06-29 09:17:43.656250,-16.33,92.0
63094,2018-06-29 09:17:43.687500,3.37,92.0
63095,2018-06-29 09:17:43.718750,16.35,92.0
63096,2018-06-29 09:17:43.750000,21.48,92.0
63097,2018-06-29 09:17:43.781250,21.77,92.0
63098,2018-06-29 09:17:43.812500,19.48,92.0
63099,2018-06-29 09:17:43.843750,16.85,92.0
63100,2018-06-29 09:17:43.875000,16.92,92.0
63101,2018-06-29 09:17:43.906250,20.0,92.0
63102,2018-06-29 09:17:43.937500,22.76,92.0
63103,2018-06-29 09:17:43.968750,23.2,92.0
63104,2018-06-29 09:17:44.000000,23.06,92.0
63105,2018-06-29 09:17:44.031250,23.6,92.0
63106,2018-06-29 09:17:44.062500,23.12,92.0
63107,2018-06-29 09:17:44.093750,20.33,92.0
63108,2018-06-29 09:17:44.125000,16.78,92.0
63109,2018-06-29 09:17:44.156250,14.43,92.0
63110,2018-06-29 09:17:44.187500,13.07,92.0
63111,2018-06-29 09:17:44.218750,11.34,92.0
63112,2018-06-29 09:17:44.250000,9.38,92.0
63113,2018-06-29 09:17:44.281250,8.61,92.0
63114,2018-06-29 09:17:44.312500,9.36,92.0
63115,2018-06-29 09:17:44.343750,10.15,92.0
63116,2018-06-29 09:17:44.375000,9.53,92.0
63117,2018-06-29 09:17:44.406250,7.52,92.0
63118,2018-06-29 09:17:44.437500,6.11,92.0
63119,2018-06-29 09:17:44.468750,9.85,92.0
63120,2018-06-29 09:17:44.500000,24.02,92.0
63121,2018-06-29 09:17:44.531250,49.02,91.63
63122,2018-06-29 09:17:44.562500,78.01,91.63
63123,2018-06-29 09:17:44.593750,102.37,91.63
63124,2018-06-29 09:17:44.625000,118.9,91.63
63125,2018-06-29 09:17:44.656250,131.16,91.63
63126,2018-06-29 09:17:44.687500,145.43,91.63
63127,2018-06-29 09:17:44.718750,165.45,91.63
63128,2018-06-29 09:17:44.750000,187.53,91.63
63129,2018-06-29 09:17:44.781250,199.72,91.63
63130,2018-06-29 09:17:44.812500,189.22,91.63
63131,2018-06-29 09:17:44.843750,153.99,91.63
63132,2018-06-29 09:17:44.875000,105.58,91.63
63133,2018-06-29 09:17:44.906250,58.22,91.63
63134,2018-06-29 09:17:44.937500,18.68,91.63
63135,2018-06-29 09:17:44.968750,-10.16,91.63
63136,2018-06-29 09:17:45.000000,-23.84,91.63
63137,2018-06-29 09:17:45.031250,-25.14,91.63
63138,2018-06-29 09:17:45.062500,-30.29,91.63
63139,2018-06-29 09:17:45.093750,-51.15,91.63
63140,2018-06-29 09:17:45.125000,-77.67,91.63
63141,2018-06-29 09:17:45.156250,-91.33,91.63
63142,2018-06-29 09:17:45.187500,-89.21,91.63
63143,2018-06-29 09:17:45.218750,-85.07,91.63
63144,2018-06-29 09:17:45.250000,-93.61,91.63
63145,2018-06-29 09:17:45.281250,-119.37,91.63
63146,2018-06-29 09:17:45.312500,-153.55,91.63
63147,2018-06-29 09:17:45.343750,-178.48,91.63
63148,2018-06-29 09:17:45.375000,-180.39,91.63
63149,2018-06-29 09:17:45.406250,-159.58,91.63
63150,2018-06-29 09:17:45.437500,-127.5,91.63
63151,2018-06-29 09:17:45.468750,-96.33,91.63
63152,2018-06-29 09:17:45.500000,-71.02,91.63
63153,2018-06-29 09:17:45.531250,-49.41,91.18
63154,2018-06-29 09:17:45.562500,-28.63,91.18
63155,2018-06-29 09:17:45.593750,-10.07,91.18
63156,2018-06-29 09:17:45.625000,4.32,91.18
63157,2018-06-29 09:17:45.656250,16.46,91.18
63158,2018-06-29 09:17:45.687500,27.8,91.18
63159,2018-06-29 09:17:45.718750,35.06,91.18
63160,2018-06-29 09:17:45.750000,32.8,91.18
63161,2018-06-29 09:17:45.781250,21.35,91.18
63162,2018-06-29 09:17:45.812500,9.44,91.18
63163,2018-06-29 09:17:45.843750,9.57,91.18
63164,2018-06-29 09:17:45.875000,25.67,91.18
63165,2018-06-29 09:17:45.906250,47.78,91.18
63166,2018-06-29 09:17:45.937500,63.97,91.18
63167,2018-06-29 09:17:45.968750,69.3,91.18
63168,2018-06-29 09:17:46.000000,62.9,91.18
63169,2018-06-29 09:17:46.031250,37.99,91.18
63170,2018-06-29 09:17:46.062500,-6.88,91.18
63171,2018-06-29 09:17:46.093750,-56.85,91.18
63172,2018-06-29 09:17:46.125000,-90.0,91.18
63173,2018-06-29 09:17:46.156250,-104.42,91.18
63174,2018-06-29 09:17:46.187500,-118.83,91.18
63175,2018-06-29 09:17:46.218750,-139.68,91.18
63176,2018-06-29 09:17:46.250000,-155.29,91.18
63177,2018-06-29 09:17:46.281250,-132.47,91.18
63178,2018-06-29 09:17:46.312500,-53.44,91.18
63179,2018-06-29 09:17:46.343750,43.76,91.18
63180,2018-06-29 09:17:46.375000,121.91,91.18
63181,2018-06-29 09:17:46.406250,173.82,91.18
63182,2018-06-29 09:17:46.437500,207.72,91.18
63183,2018-06-29 09:17:46.468750,230.54,91.18
63184,2018-06-29 09:17:46.500000,244.94,91.18
63185,2018-06-29 09:17:46.531250,231.88,90.77
63186,2018-06-29 09:17:46.562500,180.36,90.77
63187,2018-06-29 09:17:46.593750,109.92,90.77
63188,2018-06-29 09:17:46.625000,45.89,90.77
63189,2018-06-29 09:17:46.656250,-9.87,90.77
63190,2018-06-29 09:17:46.687500,-61.02,90.77
63191,2018-06-29 09:17:46.718750,-99.18,90.77
63192,2018-06-29 09:17:46.750000,-117.3,90.77
63193,2018-06-29 09:17:46.781250,-112.18,90.77
63194,2018-06-29 09:17:46.812500,-80.58,90.77
63195,2018-06-29 09:17:46.843750,-30.26,90.77
63196,2018-06-29 09:17:46.875000,9.97,90.77
63197,2018-06-29 09:17:46.906250,20.09,90.77
63198,2018-06-29 09:17:46.937500,12.02,90.77
63199,2018-06-29 09:17:46.968750,7.36,90.77
63200,2018-06-29 09:17:47.000000,8.67,90.77
63201,2018-06-29 09:17:47.031250,1.95,90.77
63202,2018-06-29 09:17:47.062500,-26.93,90.77
63203,2018-06-29 09:17:47.093750,-77.48,90.77
63204,2018-06-29 09:17:47.125000,-128.77,90.77
63205,2018-06-29 09:17:47.156250,-158.42,90.77
63206,2018-06-29 09:17:47.187500,-163.96,90.77
63207,2018-06-29 09:17:47.218750,-154.66,90.77
63208,2018-06-29 09:17:47.250000,-135.73,90.77
63209,2018-06-29 09:17:47.281250,-112.13,90.77
63210,2018-06-29 09:17:47.312500,-91.56,90.77
63211,2018-06-29 09:17:47.343750,-75.45,90.77
63212,2018-06-29 09:17:47.375000,-59.89,90.77
63213,2018-06-29 09:17:47.406250,-45.22,90.77
63214,2018-06-29 09:17:47.437500,-34.94,90.77
63215,2018-06-29 09:17:47.468750,-30.06,90.77
63216,2018-06-29 09:17:47.500000,-29.39,90.77
63217,2018-06-29 09:17:47.531250,-31.54,90.37
63218,2018-06-29 09:17:47.562500,-34.43,90.37
63219,2018-06-29 09:17:47.593750,-35.73,90.37
63220,2018-06-29 09:17:47.625000,-34.85,90.37
63221,2018-06-29 09:17:47.656250,-32.81,90.37
63222,2018-06-29 09:17:47.687500,-31.14,90.37
63223,2018-06-29 09:17:47.718750,-30.14,90.37
63224,2018-06-29 09:17:47.750000,-26.57,90.37
63225,2018-06-29 09:17:47.781250,-15.38,90.37
63226,2018-06-29 09:17:47.812500,3.88,90.37
63227,2018-06-29 09:17:47.843750,25.64,90.37
63228,2018-06-29 09:17:47.875000,45.0,90.37
63229,2018-06-29 09:17:47.906250,61.63,90.37
63230,2018-06-29 09:17:47.937500,76.47,90.37
63231,2018-06-29 09:17:47.968750,89.23,90.37
63232,2018-06-29 09:17:48.000000,99.1,90.37
63233,2018-06-29 09:17:48.031250,105.41,90.37
63234,2018-06-29 09:17:48.062500,107.84,90.37
63235,2018-06-29 09:17:48.093750,105.18,90.37
63236,2018-06-29 09:17:48.125000,94.14,90.37
63237,2018-06-29 09:17:48.156250,72.73,90.37
63238,2018-06-29 09:17:48.187500,44.8,90.37
63239,2018-06-29 09:17:48.218750,16.24,90.37
63240,2018-06-29 09:17:48.250000,-10.7,90.37
63241,2018-06-29 09:17:48.281250,-35.51,90.37
63242,2018-06-29 09:17:48.312500,-56.24,90.37
63243,2018-06-29 09:17:48.343750,-71.29,90.37
63244,2018-06-29 09:17:48.375000,-80.22,90.37
63245,2018-06-29 09:17:48.406250,-81.88,90.37
63246,2018-06-29 09:17:48.437500,-75.38,90.37
63247,2018-06-29 09:17:48.468750,-62.63,90.37
63248,2018-06-29 09:17:48.500000,-48.07,90.37
63249,2018-06-29 09:17:48.531250,-36.94,90.0
63250,2018-06-29 09:17:48.562500,-32.74,90.0
63251,2018-06-29 09:17:48.593750,-34.68,90.0
63252,2018-06-29 09:17:48.625000,-37.41,90.0
63253,2018-06-29 09:17:48.656250,-34.01,90.0
63254,2018-06-29 09:17:48.687500,-22.46,90.0
63255,2018-06-29 09:17:48.718750,-8.19,90.0
63256,2018-06-29 09:17:48.750000,3.03,90.0
63257,2018-06-29 09:17:48.781250,11.13,90.0
63258,2018-06-29 09:17:48.812500,18.19,90.0
63259,2018-06-29 09:17:48.843750,24.58,90.0
63260,2018-06-29 09:17:48.875000,31.4,90.0
63261,2018-06-29 09:17:48.906250,39.44,90.0
63262,2018-06-29 09:17:48.937500,46.5,90.0
63263,2018-06-29 09:17:48.968750,51.45,90.0
63264,2018-06-29 09:17:49.000000,57.78,90.0
63265,2018-06-29 09:17:49.031250,68.65,90.0
63266,2018-06-29 09:17:49.062500,81.61,90.0
63267,2018-06-29 09:17:49.093750,91.27,90.0
63268,2018-06-29 09:17:49.125000,93.33,90.0
63269,2018-06-29 09:17:49.156250,85.71,90.0
63270,2018-06-29 09:17:49.187500,69.34,90.0
63271,2018-06-29 09:17:49.218750,47.96,90.0
63272,2018-06-29 09:17:49.250000,25.58,90.0
63273,2018-06-29 09:17:49.281250,3.98,90.0
63274,2018-06-29 09:17:49.312500,-16.32,90.0
63275,2018-06-29 09:17:49.343750,-34.07,90.0
63276,2018-06-29 09:17:49.375000,-47.93,90.0
63277,2018-06-29 09:17:49.406250,-57.42,90.0
63278,2018-06-29 09:17:49.437500,-62.12,90.0
63279,2018-06-29 09:17:49.468750,-61.03,90.0
63280,2018-06-29 09:17:49.500000,-55.09,90.0
63281,2018-06-29 09:17:49.531250,-48.23,89.62
63282,2018-06-29 09:17:49.562500,-42.97,89.62
63283,2018-06-29 09:17:49.593750,-38.76,89.62
63284,2018-06-29 09:17:49.625000,-35.95,89.62
63285,2018-06-29 09:17:49.656250,-35.97,89.62
63286,2018-06-29 09:17:49.687500,-37.37,89.62
63287,2018-06-29 09:17:49.718750,-36.56,89.62
63288,2018-06-29 09:17:49.750000,-31.64,89.62
63289,2018-06-29 09:17:49.781250,-23.56,89.62
63290,2018-06-29 09:17:49.812500,-14.49,89.62
63291,2018-06-29 09:17:49.843750,-6.39,89.62
63292,2018-06-29 09:17:49.875000,-0.46,89.62
63293,2018-06-29 09:17:49.906250,2.1,89.62
63294,2018-06-29 09:17:49.937500,1.23,89.62
63295,2018-06-29 09:17:49.968750,-0.56,89.62
63296,2018-06-29 09:17:50.000000,-0.75,89.62
63297,2018-06-29 09:17:50.031250,0.26,89.62
63298,2018-06-29 09:17:50.062500,0.62,89.62
63299,2018-06-29 09:17:50.093750,-0.79,89.62
63300,2018-06-29 09:17:50.125000,-3.85,89.62
63301,2018-06-29 09:17:50.156250,-7.14,89.62
63302,2018-06-29 09:17:50.187500,-9.47,89.62
63303,2018-06-29 09:17:50.218750,-11.58,89.62
63304,2018-06-29 09:17:50.250000,-14.88,89.62
63305,2018-06-29 09:17:50.281250,-18.86,89.62
63306,2018-06-29 09:17:50.312500,-19.91,89.62
63307,2018-06-29 09:17:50.343750,-14.03,89.62
63308,2018-06-29 09:17:50.375000,-2.24,89.62
63309,2018-06-29 09:17:50.406250,9.24,89.62
63310,2018-06-29 09:17:50.437500,16.0,89.62
63311,2018-06-29 09:17:50.468750,19.76,89.62
63312,2018-06-29 09:17:50.500000,23.19,89.62
63313,2018-06-29 09:17:50.531250,25.37,89.27
63314,2018-06-29 09:17:50.562500,24.58,89.27
63315,2018-06-29 09:17:50.593750,22.51,89.27
63316,2018-06-29 09:17:50.625000,22.37,89.27
63317,2018-06-29 09:17:50.656250,24.24,89.27
63318,2018-06-29 09:17:50.687500,25.34,89.27
63319,2018-06-29 09:17:50.718750,23.75,89.27
63320,2018-06-29 09:17:50.750000,19.94,89.27
63321,2018-06-29 09:17:50.781250,15.48,89.27
63322,2018-06-29 09:17:50.812500,11.71,89.27
63323,2018-06-29 09:17:50.843750,7.9,89.27
63324,2018-06-29 09:17:50.875000,1.84,89.27
63325,2018-06-29 09:17:50.906250,-5.27,89.27
63326,2018-06-29 09:17:50.937500,-8.47,89.27
63327,2018-06-29 09:17:50.968750,-6.5,89.27
63328,2018-06-29 09:17:51.000000,-6.61,89.27
63329,2018-06-29 09:17:51.031250,-14.13,89.27
63330,2018-06-29 09:17:51.062500,-22.87,89.27
63331,2018-06-29 09:17:51.093750,-22.75,89.27
63332,2018-06-29 09:17:51.125000,-13.84,89.27
63333,2018-06-29 09:17:51.156250,-4.62,89.27
63334,2018-06-29 09:17:51.187500,1.79,89.27
63335,2018-06-29 09:17:51.218750,8.42,89.27
63336,2018-06-29 09:17:51.250000,19.43,89.27
63337,2018-06-29 09:17:51.281250,33.45,89.27
63338,2018-06-29 09:17:51.312500,36.42,89.27
63339,2018-06-29 09:17:51.343750,9.79,89.27
63340,2018-06-29 09:17:51.375000,-34.56,89.27
63341,2018-06-29 09:17:51.406250,-48.98,89.27
63342,2018-06-29 09:17:51.437500,-23.66,89.27
63343,2018-06-29 09:17:51.468750,8.5,89.27
63344,2018-06-29 09:17:51.500000,34.41,89.27
63345,2018-06-29 09:17:51.531250,58.4,88.9
63346,2018-06-29 09:17:51.562500,70.22,88.9
63347,2018-06-29 09:17:51.593750,62.35,88.9
63348,2018-06-29 09:17:51.625000,50.43,88.9
63349,2018-06-29 09:17:51.656250,51.35,88.9
63350,2018-06-29 09:17:51.687500,56.85,88.9
63351,2018-06-29 09:17:51.718750,43.02,88.9
63352,2018-06-29 09:17:51.750000,2.73,88.9
63353,2018-06-29 09:17:51.781250,-45.17,88.9
63354,2018-06-29 09:17:51.812500,-66.17,88.9
63355,2018-06-29 09:17:51.843750,-40.28,88.9
63356,2018-06-29 09:17:51.875000,9.57,88.9
63357,2018-06-29 09:17:51.906250,36.1,88.9
63358,2018-06-29 09:17:51.937500,25.04,88.9
63359,2018-06-29 09:17:51.968750,2.91,88.9
63360,2018-06-29 09:17:52.000000,-12.08,88.9
63361,2018-06-29 09:17:52.031250,-22.88,88.9
63362,2018-06-29 09:17:52.062500,-33.94,88.9
63363,2018-06-29 09:17:52.093750,-39.19,88.9
63364,2018-06-29 09:17:52.125000,-38.22,88.9
63365,2018-06-29 09:17:52.156250,-40.35,88.9
63366,2018-06-29 09:17:52.187500,-47.32,88.9
63367,2018-06-29 09:17:52.218750,-48.91,88.9
63368,2018-06-29 09:17:52.250000,-40.54,88.9
63369,2018-06-29 09:17:52.281250,-29.56,88.9
63370,2018-06-29 09:17:52.312500,-21.01,88.9
63371,2018-06-29 09:17:52.343750,-11.27,88.9
63372,2018-06-29 09:17:52.375000,2.09,88.9
63373,2018-06-29 09:17:52.406250,15.5,88.9
63374,2018-06-29 09:17:52.437500,25.7,88.9
63375,2018-06-29 09:17:52.468750,32.85,88.9
63376,2018-06-29 09:17:52.500000,38.38,88.9
63377,2018-06-29 09:17:52.531250,41.26,88.55
63378,2018-06-29 09:17:52.562500,38.13,88.55
63379,2018-06-29 09:17:52.593750,28.51,88.55
63380,2018-06-29 09:17:52.625000,17.23,88.55
63381,2018-06-29 09:17:52.656250,8.31,88.55
63382,2018-06-29 09:17:52.687500,1.28,88.55
63383,2018-06-29 09:17:52.718750,-4.06,88.55
63384,2018-06-29 09:17:52.750000,-6.22,88.55
63385,2018-06-29 09:17:52.781250,-5.0,88.55
63386,2018-06-29 09:17:52.812500,-2.82,88.55
63387,2018-06-29 09:17:52.843750,-1.52,88.55
63388,2018-06-29 09:17:52.875000,0.51,88.55
63389,2018-06-29 09:17:52.906250,4.45,88.55
63390,2018-06-29 09:17:52.937500,6.81,88.55
63391,2018-06-29 09:17:52.968750,4.22,88.55
63392,2018-06-29 09:17:53.000000,-1.95,88.55
63393,2018-06-29 09:17:53.031250,-7.19,88.55
63394,2018-06-29 09:17:53.062500,-5.4,88.55
63395,2018-06-29 09:17:53.093750,5.85,88.55
63396,2018-06-29 09:17:53.125000,19.1,88.55
63397,2018-06-29 09:17:53.156250,25.84,88.55
63398,2018-06-29 09:17:53.187500,27.59,88.55
63399,2018-06-29 09:17:53.218750,26.99,88.55
63400,2018-06-29 09:17:53.250000,21.25,88.55
63401,2018-06-29 09:17:53.281250,11.55,88.55
63402,2018-06-29 09:17:53.312500,2.76,88.55
63403,2018-06-29 09:17:53.343750,-6.27,88.55
63404,2018-06-29 09:17:53.375000,-17.79,88.55
63405,2018-06-29 09:17:53.406250,-26.65,88.55
63406,2018-06-29 09:17:53.437500,-29.12,88.55
63407,2018-06-29 09:17:53.468750,-31.85,88.55
63408,2018-06-29 09:17:53.500000,-39.86,88.55
63409,2018-06-29 09:17:53.531250,-46.33,88.23
63410,2018-06-29 09:17:53.562500,-43.25,88.23
63411,2018-06-29 09:17:53.593750,-32.98,88.23
63412,2018-06-29 09:17:53.625000,-21.89,88.23
63413,2018-06-29 09:17:53.656250,-11.76,88.23
63414,2018-06-29 09:17:53.687500,-1.8,88.23
63415,2018-06-29 09:17:53.718750,9.76,88.23
63416,2018-06-29 09:17:53.750000,24.13,88.23
63417,2018-06-29 09:17:53.781250,38.45,88.23
63418,2018-06-29 09:17:53.812500,47.85,88.23
63419,2018-06-29 09:17:53.843750,50.41,88.23
63420,2018-06-29 09:17:53.875000,46.39,88.23
63421,2018-06-29 09:17:53.906250,37.47,88.23
63422,2018-06-29 09:17:53.937500,30.8,88.23
63423,2018-06-29 09:17:53.968750,33.34,88.23
63424,2018-06-29 09:17:54.000000,39.03,88.23
63425,2018-06-29 09:17:54.031250,34.94,88.23
63426,2018-06-29 09:17:54.062500,19.74,88.23
63427,2018-06-29 09:17:54.093750,3.86,88.23
63428,2018-06-29 09:17:54.125000,-5.93,88.23
63429,2018-06-29 09:17:54.156250,-12.09,88.23
63430,2018-06-29 09:17:54.187500,-20.23,88.23
63431,2018-06-29 09:17:54.218750,-32.11,88.23
63432,2018-06-29 09:17:54.250000,-43.64,88.23
63433,2018-06-29 09:17:54.281250,-49.66,88.23
63434,2018-06-29 09:17:54.312500,-48.06,88.23
63435,2018-06-29 09:17:54.343750,-37.63,88.23
63436,2018-06-29 09:17:54.375000,-17.38,88.23
63437,2018-06-29 09:17:54.406250,10.31,88.23
63438,2018-06-29 09:17:54.437500,39.89,88.23
63439,2018-06-29 09:17:54.468750,63.77,88.23
63440,2018-06-29 09:17:54.500000,72.87,88.23
63441,2018-06-29 09:17:54.531250,64.5,87.97
63442,2018-06-29 09:17:54.562500,48.68,87.97
63443,2018-06-29 09:17:54.593750,37.19,87.97
63444,2018-06-29 09:17:54.625000,30.46,87.97
63445,2018-06-29 09:17:54.656250,21.79,87.97
63446,2018-06-29 09:17:54.687500,7.75,87.97
63447,2018-06-29 09:17:54.718750,-9.97,87.97
63448,2018-06-29 09:17:54.750000,-27.51,87.97
63449,2018-06-29 09:17:54.781250,-40.8,87.97
63450,2018-06-29 09:17:54.812500,-46.51,87.97
63451,2018-06-29 09:17:54.843750,-44.79,87.97
