,Time,ppg,hr
64000,2018-06-29 09:18:12.000000,-0.59,80.77
64001,2018-06-29 09:18:12.031250,-19.24,80.77
64002,2018-06-29 09:18:12.062500,-35.85,80.77
64003,2018-06-29 09:18:12.093750,-50.43,80.77
64004,2018-06-29 09:18:12.125000,-62.25,80.77
64005,2018-06-29 09:18:12.156250,-70.76,80.77
64006,2018-06-29 09:18:12.187500,-75.6,80.77
64007,2018-06-29 09:18:12.218750,-75.11,80.77
64008,2018-06-29 09:18:12.250000,-65.93,80.77
64009,2018-06-29 09:18:12.281250,-44.89,80.77
64010,2018-06-29 09:18:12.312500,-13.33,80.77
64011,2018-06-29 09:18:12.343750,19.58,80.77
64012,2018-06-29 09:18:12.375000,41.21,80.77
64013,2018-06-29 09:18:12.406250,47.44,80.77
64014,2018-06-29 09:18:12.437500,45.81,80.77
64015,2018-06-29 09:18:12.468750,43.16,80.77
64016,2018-06-29 09:18:12.500000,37.44,80.77
64017,2018-06-29 09:18:12.531250,25.74,80.28
64018,2018-06-29 09:18:12.562500,12.19,80.28
64019,2018-06-29 09:18:12.593750,2.38,80.28
64020,2018-06-29 09:18:12.625000,-2.79,80.28
64021,2018-06-29 09:18:12.656250,-4.54,80.28
64022,2018-06-29 09:18:12.687500,-4.16,80.28
64023,2018-06-29 09:18:12.718750,-4.06,80.28
64024,2018-06-29 09:18:12.750000,-5.82,80.28
64025,2018-06-29 09:18:12.781250,-8.16,80.28
64026,2018-06-29 09:18:12.812500,-10.41,80.28
64027,2018-06-29 09:18:12.843750,-15.27,80.28
64028,2018-06-29 09:18:12.875000,-24.54,80.28
64029,2018-06-29 09:18:12.906250,-34.79,80.28
64030,2018-06-29 09:18:12.937500,-40.74,80.28
64031,2018-06-29 09:18:12.968750,-41.32,80.28
64032,2018-06-29 09:18:13.000000,-41.71,80.28
64033,2018-06-29 09:18:13.031250,-47.75,80.28
64034,2018-06-29 09:18:13.062500,-56.91,80.28
64035,2018-06-29 09:18:13.093750,-58.92,80.28
64036,2018-06-29 09:18:13.125000,-48.28,80.28
64037,2018-06-29 09:18:13.156250,-30.95,80.28
64038,2018-06-29 09:18:13.187500,-16.06,80.28
64039,2018-06-29 09:18:13.218750,-7.0,80.28
64040,2018-06-29 09:18:13.250000,-3.01,80.28
64041,2018-06-29 09:18:13.281250,-3.8,80.28
64042,2018-06-29 09:18:13.312500,-10.34,80.28
64043,2018-06-29 09:18:13.343750,-20.71,80.28
64044,2018-06-29 09:18:13.375000,-28.23,80.28
64045,2018-06-29 09:18:13.406250,-27.75,80.28
64046,2018-06-29 09:18:13.437500,-20.75,80.28
64047,2018-06-29 09:18:13.468750,-10.12,80.28
64048,2018-06-29 09:18:13.500000,4.33,80.28
64049,2018-06-29 09:18:13.531250,21.88,79.77
64050,2018-06-29 09:18:13.562500,39.06,79.77
64051,2018-06-29 09:18:13.593750,53.93,79.77
64052,2018-06-29 09:18:13.625000,66.0,79.77
64053,2018-06-29 09:18:13.656250,72.25,79.77
64054,2018-06-29 09:18:13.687500,67.7,79.77
64055,2018-06-29 09:18:13.718750,50.56,79.77
64056,2018-06-29 09:18:13.750000,24.98,79.77
64057,2018-06-29 09:18:13.781250,-3.52,79.77
64058,2018-06-29 09:18:13.812500,-33.18,79.77
64059,2018-06-29 09:18:13.843750,-62.95,79.77
64060,2018-06-29 09:18:13.875000,-85.07,79.77
64061,2018-06-29 09:18:13.906250,-88.12,79.77
64062,2018-06-29 09:18:13.937500,-70.52,79.77
64063,2018-06-29 09:18:13.968750,-44.11,79.77
64064,2018-06-29 09:18:14.000000,-20.9,79.77
64065,2018-06-29 09:18:14.031250,-3.96,79.77
64066,2018-06-29 09:18:14.062500,7.65,79.77
64067,2018-06-29 09:18:14.093750,14.73,79.77
64068,2018-06-29 09:18:14.125000,19.63,79.77
64069,2018-06-29 09:18:14.156250,23.95,79.77
64070,2018-06-29 09:18:14.187500,25.45,79.77
64071,2018-06-29 09:18:14.218750,22.48,79.77
64072,2018-06-29 09:18:14.250000,18.12,79.77
64073,2018-06-29 09:18:14.281250,15.3,79.77
64074,2018-06-29 09:18:14.312500,12.01,79.77
64075,2018-06-29 09:18:14.343750,5.22,79.77
64076,2018-06-29 09:18:14.375000,-3.78,79.77
64077,2018-06-29 09:18:14.406250,-11.14,79.77
64078,2018-06-29 09:18:14.437500,-16.13,79.77
64079,2018-06-29 09:18:14.468750,-22.02,79.77
64080,2018-06-29 09:18:14.500000,-31.45,79.77
64081,2018-06-29 09:18:14.531250,-42.75,79.3
64082,2018-06-29 09:18:14.562500,-52.47,79.3
64083,2018-06-29 09:18:14.593750,-60.56,79.3
64084,2018-06-29 09:18:14.625000,-70.91,79.3
64085,2018-06-29 09:18:14.656250,-84.51,79.3
64086,2018-06-29 09:18:14.687500,-93.53,79.3
64087,2018-06-29 09:18:14.718750,-87.31,79.3
64088,2018-06-29 09:18:14.750000,-65.42,79.3
64089,2018-06-29 09:18:14.781250,-38.74,79.3
64090,2018-06-29 09:18:14.812500,-17.05,79.3
64091,2018-06-29 09:18:14.843750,-2.44,79.3
64092,2018-06-29 09:18:14.875000,6.8,79.3
64093,2018-06-29 09:18:14.906250,13.44,79.3
64094,2018-06-29 09:18:14.937500,20.19,79.3
64095,2018-06-29 09:18:14.968750,26.1,79.3
64096,2018-06-29 09:18:15.000000,27.63,79.3
64097,2018-06-29 09:18:15.031250,24.24,79.3
64098,2018-06-29 09:18:15.062500,18.52,79.3
64099,2018-06-29 09:18:15.093750,12.04,79.3
64100,2018-06-29 09:18:15.125000,4.87,79.3
64101,2018-06-29 09:18:15.156250,-2.17,79.3
64102,2018-06-29 09:18:15.187500,-7.03,79.3
64103,2018-06-29 09:18:15.218750,-7.77,79.3
64104,2018-06-29 09:18:15.250000,-4.42,79.3
64105,2018-06-29 09:18:15.281250,0.36,79.3
64106,2018-06-29 09:18:15.312500,1.8,79.3
64107,2018-06-29 09:18:15.343750,-5.74,79.3
64108,2018-06-29 09:18:15.375000,-24.91,79.3
64109,2018-06-29 09:18:15.406250,-52.27,79.3
64110,2018-06-29 09:18:15.437500,-81.7,79.3
64111,2018-06-29 09:18:15.468750,-106.78,79.3
64112,2018-06-29 09:18:15.500000,-118.72,79.3
64113,2018-06-29 09:18:15.531250,-110.5,78.87
64114,2018-06-29 09:18:15.562500,-85.76,78.87
64115,2018-06-29 09:18:15.593750,-55.56,78.87
64116,2018-06-29 09:18:15.625000,-26.93,78.87
64117,2018-06-29 09:18:15.656250,-0.91,78.87
64118,2018-06-29 09:18:15.687500,21.83,78.87
64119,2018-06-29 09:18:15.718750,39.83,78.87
64120,2018-06-29 09:18:15.750000,53.43,78.87
64121,2018-06-29 09:18:15.781250,64.26,78.87
64122,2018-06-29 09:18:15.812500,72.7,78.87
64123,2018-06-29 09:18:15.843750,77.73,78.87
64124,2018-06-29 09:18:15.875000,78.9,78.87
64125,2018-06-29 09:18:15.906250,77.21,78.87
64126,2018-06-29 09:18:15.937500,73.32,78.87
64127,2018-06-29 09:18:15.968750,65.42,78.87
64128,2018-06-29 09:18:16.000000,50.52,78.87
64129,2018-06-29 09:18:16.031250,28.0,78.87
64130,2018-06-29 09:18:16.062500,0.98,78.87
64131,2018-06-29 09:18:16.093750,-25.11,78.87
64132,2018-06-29 09:18:16.125000,-44.89,78.87
64133,2018-06-29 09:18:16.156250,-56.05,78.87
64134,2018-06-29 09:18:16.187500,-61.52,78.87
64135,2018-06-29 09:18:16.218750,-66.73,78.87
64136,2018-06-29 09:18:16.250000,-72.24,78.87
64137,2018-06-29 09:18:16.281250,-70.19,78.87
64138,2018-06-29 09:18:16.312500,-51.84,78.87
64139,2018-06-29 09:18:16.343750,-19.15,78.87
64140,2018-06-29 09:18:16.375000,16.67,78.87
64141,2018-06-29 09:18:16.406250,47.67,78.87
64142,2018-06-29 09:18:16.437500,73.47,78.87
64143,2018-06-29 09:18:16.468750,93.12,78.87
64144,2018-06-29 09:18:16.500000,102.12,78.87
64145,2018-06-29 09:18:16.531250,100.38,78.43
64146,2018-06-29 09:18:16.562500,95.82,78.43
64147,2018-06-29 09:18:16.593750,96.69,78.43
64148,2018-06-29 09:18:16.625000,105.94,78.43
64149,2018-06-29 09:18:16.656250,123.54,78.43
64150,2018-06-29 09:18:16.687500,144.02,78.43
64151,2018-06-29 09:18:16.718750,154.28,78.43
64152,2018-06-29 09:18:16.750000,147.01,78.43
64153,2018-06-29 09:18:16.781250,131.26,78.43
64154,2018-06-29 09:18:16.812500,116.89,78.43
64155,2018-06-29 09:18:16.843750,99.2,78.43
64156,2018-06-29 09:18:16.875000,71.22,78.43
64157,2018-06-29 09:18:16.906250,36.77,78.43
64158,2018-06-29 09:18:16.937500,0.97,78.43
64159,2018-06-29 09:18:16.968750,-35.91,78.43
64160,2018-06-29 09:18:17.000000,-70.68,78.43
64161,2018-06-29 09:18:17.031250,-98.3,78.43
64162,2018-06-29 09:18:17.062500,-119.05,78.43
64163,2018-06-29 09:18:17.093750,-131.18,78.43
64164,2018-06-29 09:18:17.125000,-125.63,78.43
64165,2018-06-29 09:18:17.156250,-100.35,78.43
64166,2018-06-29 09:18:17.187500,-68.62,78.43
64167,2018-06-29 09:18:17.218750,-44.13,78.43
64168,2018-06-29 09:18:17.250000,-27.69,78.43
64169,2018-06-29 09:18:17.281250,-13.53,78.43
64170,2018-06-29 09:18:17.312500,0.28,78.43
64171,2018-06-29 09:18:17.343750,12.3,78.43
64172,2018-06-29 09:18:17.375000,23.36,78.43
64173,2018-06-29 09:18:17.406250,35.22,78.43
64174,2018-06-29 09:18:17.437500,46.18,78.43
64175,2018-06-29 09:18:17.468750,52.88,78.43
64176,2018-06-29 09:18:17.500000,54.58,78.43
64177,2018-06-29 09:18:17.531250,52.74,78.0
64178,2018-06-29 09:18:17.562500,47.99,78.0
64179,2018-06-29 09:18:17.593750,38.86,78.0
64180,2018-06-29 09:18:17.625000,24.17,78.0
64181,2018-06-29 09:18:17.656250,7.04,78.0
64182,2018-06-29 09:18:17.687500,-5.96,78.0
64183,2018-06-29 09:18:17.718750,-11.76,78.0
64184,2018-06-29 09:18:17.750000,-13.76,78.0
64185,2018-06-29 09:18:17.781250,-19.09,78.0
64186,2018-06-29 09:18:17.812500,-34.62,78.0
64187,2018-06-29 09:18:17.843750,-60.06,78.0
64188,2018-06-29 09:18:17.875000,-82.15,78.0
64189,2018-06-29 09:18:17.906250,-85.6,78.0
64190,2018-06-29 09:18:17.937500,-73.09,78.0
64191,2018-06-29 09:18:17.968750,-60.4,78.0
64192,2018-06-29 09:18:18.000000,-52.98,78.0
64193,2018-06-29 09:18:18.031250,-41.8,78.0
64194,2018-06-29 09:18:18.062500,-24.59,78.0
64195,2018-06-29 09:18:18.093750,-10.66,78.0
64196,2018-06-29 09:18:18.125000,-4.87,78.0
64197,2018-06-29 09:18:18.156250,-3.17,78.0
64198,2018-06-29 09:18:18.187500,6.13,78.0
64199,2018-06-29 09:18:18.218750,34.96,78.0
64200,2018-06-29 09:18:18.250000,78.73,78.0
64201,2018-06-29 09:18:18.281250,95.89,78.0
64202,2018-06-29 09:18:18.312500,51.33,78.0
64203,2018-06-29 09:18:18.343750,-34.65,78.0
64204,2018-06-29 09:18:18.375000,-109.0,78.0
64205,2018-06-29 09:18:18.406250,-143.02,78.0
64206,2018-06-29 09:18:18.437500,-149.09,78.0
64207,2018-06-29 09:18:18.468750,-148.7,78.0
64208,2018-06-29 09:18:18.500000,-160.29,78.0
64209,2018-06-29 09:18:18.531250,-176.52,77.62
64210,2018-06-29 09:18:18.562500,-176.03,77.62
64211,2018-06-29 09:18:18.593750,-136.24,77.62
64212,2018-06-29 09:18:18.625000,-29.15,77.62
64213,2018-06-29 09:18:18.656250,71.85,77.62
64214,2018-06-29 09:18:18.687500,114.64,77.62
64215,2018-06-29 09:18:18.718750,115.65,77.62
64216,2018-06-29 09:18:18.750000,96.97,77.62
64217,2018-06-29 09:18:18.781250,66.69,77.62
64218,2018-06-29 09:18:18.812500,41.08,77.62
64219,2018-06-29 09:18:18.843750,28.52,77.62
64220,2018-06-29 09:18:18.875000,26.05,77.62
64221,2018-06-29 09:18:18.906250,23.72,77.62
64222,2018-06-29 09:18:18.937500,19.07,77.62
64223,2018-06-29 09:18:18.968750,19.59,77.62
64224,2018-06-29 09:18:19.000000,27.38,77.62
64225,2018-06-29 09:18:19.031250,39.29,77.62
64226,2018-06-29 09:18:19.062500,48.35,77.62
64227,2018-06-29 09:18:19.093750,53.89,77.62
64228,2018-06-29 09:18:19.125000,56.73,77.62
64229,2018-06-29 09:18:19.156250,55.03,77.62
64230,2018-06-29 09:18:19.187500,46.53,77.62
64231,2018-06-29 09:18:19.218750,31.77,77.62
64232,2018-06-29 09:18:19.250000,14.69,77.62
64233,2018-06-29 09:18:19.281250,-1.75,77.62
64234,2018-06-29 09:18:19.312500,-15.98,77.62
64235,2018-06-29 09:18:19.343750,-28.52,77.62
64236,2018-06-29 09:18:19.375000,-40.72,77.62
64237,2018-06-29 09:18:19.406250,-53.52,77.62
64238,2018-06-29 09:18:19.437500,-64.67,77.62
64239,2018-06-29 09:18:19.468750,-66.55,77.62
64240,2018-06-29 09:18:19.500000,-52.08,77.62
64241,2018-06-29 09:18:19.531250,-24.26,77.13
64242,2018-06-29 09:18:19.562500,5.37,77.13
64243,2018-06-29 09:18:19.593750,27.98,77.13
64244,2018-06-29 09:18:19.625000,41.35,77.13
64245,2018-06-29 09:18:19.656250,45.07,77.13
64246,2018-06-29 09:18:19.687500,40.58,77.13
64247,2018-06-29 09:18:19.718750,33.16,77.13
64248,2018-06-29 09:18:19.750000,27.77,77.13
64249,2018-06-29 09:18:19.781250,24.94,77.13
64250,2018-06-29 09:18:19.812500,22.83,77.13
64251,2018-06-29 09:18:19.843750,20.21,77.13
64252,2018-06-29 09:18:19.875000,16.73,77.13
64253,2018-06-29 09:18:19.906250,12.47,77.13
64254,2018-06-29 09:18:19.937500,7.7,77.13
64255,2018-06-29 09:18:19.968750,2.28,77.13
64256,2018-06-29 09:18:20.000000,-4.09,77.13
64257,2018-06-29 09:18:20.031250,-10.88,77.13
64258,2018-06-29 09:18:20.062500,-16.93,77.13
64259,2018-06-29 09:18:20.093750,-22.2,77.13
64260,2018-06-29 09:18:20.125000,-28.4,77.13
64261,2018-06-29 09:18:20.156250,-37.51,77.13
64262,2018-06-29 09:18:20.187500,-48.44,77.13
64263,2018-06-29 09:18:20.218750,-54.63,77.13
64264,2018-06-29 09:18:20.250000,-48.15,77.13
64265,2018-06-29 09:18:20.281250,-28.52,77.13
64266,2018-06-29 09:18:20.312500,-4.15,77.13
64267,2018-06-29 09:18:20.343750,16.71,77.13
64268,2018-06-29 09:18:20.375000,31.84,77.13
64269,2018-06-29 09:18:20.406250,41.73,77.13
64270,2018-06-29 09:18:20.437500,46.32,77.13
64271,2018-06-29 09:18:20.468750,46.67,77.13
64272,2018-06-29 09:18:20.500000,45.57,77.13
64273,2018-06-29 09:18:20.531250,44.69,76.88
64274,2018-06-29 09:18:20.562500,43.49,76.88
64275,2018-06-29 09:18:20.593750,41.34,76.88
64276,2018-06-29 09:18:20.625000,38.68,76.88
64277,2018-06-29 09:18:20.656250,35.46,76.88
64278,2018-06-29 09:18:20.687500,30.27,76.88
64279,2018-06-29 09:18:20.718750,22.3,76.88
64280,2018-06-29 09:18:20.750000,13.08,76.88
64281,2018-06-29 09:18:20.781250,4.96,76.88
64282,2018-06-29 09:18:20.812500,-1.85,76.88
64283,2018-06-29 09:18:20.843750,-9.58,76.88
64284,2018-06-29 09:18:20.875000,-20.0,76.88
64285,2018-06-29 09:18:20.906250,-31.34,76.88
64286,2018-06-29 09:18:20.937500,-38.15,76.88
64287,2018-06-29 09:18:20.968750,-35.14,76.88
64288,2018-06-29 09:18:21.000000,-21.98,76.88
64289,2018-06-29 09:18:21.031250,-3.38,76.88
64290,2018-06-29 09:18:21.062500,14.84,76.88
64291,2018-06-29 09:18:21.093750,28.61,76.88
64292,2018-06-29 09:18:21.125000,35.89,76.88
64293,2018-06-29 09:18:21.156250,36.51,76.88
64294,2018-06-29 09:18:21.187500,32.57,76.88
64295,2018-06-29 09:18:21.218750,27.69,76.88
64296,2018-06-29 09:18:21.250000,24.41,76.88
64297,2018-06-29 09:18:21.281250,21.93,76.88
64298,2018-06-29 09:18:21.312500,18.22,76.88
64299,2018-06-29 09:18:21.343750,13.86,76.88
64300,2018-06-29 09:18:21.375000,10.69,76.88
64301,2018-06-29 09:18:21.406250,8.0,76.88
64302,2018-06-29 09:18:21.437500,3.52,76.88
64303,2018-06-29 09:18:21.468750,-2.93,76.88
64304,2018-06-29 09:18:21.500000,-9.6,76.88
64305,2018-06-29 09:18:21.531250,-15.54,76.65
64306,2018-06-29 09:18:21.562500,-21.54,76.65
64307,2018-06-29 09:18:21.593750,-29.42,76.65
64308,2018-06-29 09:18:21.625000,-39.99,76.65
64309,2018-06-29 09:18:21.656250,-49.34,76.65
64310,2018-06-29 09:18:21.687500,-49.87,76.65
64311,2018-06-29 09:18:21.718750,-38.28,76.65
64312,2018-06-29 09:18:21.750000,-19.71,76.65
64313,2018-06-29 09:18:21.781250,-1.6,76.65
64314,2018-06-29 09:18:21.812500,12.44,76.65
64315,2018-06-29 09:18:21.843750,21.31,76.65
64316,2018-06-29 09:18:21.875000,24.96,76.65
64317,2018-06-29 09:18:21.906250,25.39,76.65
64318,2018-06-29 09:18:21.937500,25.43,76.65
64319,2018-06-29 09:18:21.968750,25.89,76.65
64320,2018-06-29 09:18:22.000000,26.1,76.65
64321,2018-06-29 09:18:22.031250,26.34,76.65
64322,2018-06-29 09:18:22.062500,26.98,76.65
64323,2018-06-29 09:18:22.093750,26.56,76.65
64324,2018-06-29 09:18:22.125000,23.69,76.65
64325,2018-06-29 09:18:22.156250,19.63,76.65
64326,2018-06-29 09:18:22.187500,16.18,76.65
64327,2018-06-29 09:18:22.218750,12.44,76.65
64328,2018-06-29 09:18:22.250000,6.88,76.65
64329,2018-06-29 09:18:22.281250,0.05,76.65
64330,2018-06-29 09:18:22.312500,-6.53,76.65
64331,2018-06-29 09:18:22.343750,-12.32,76.65
64332,2018-06-29 09:18:22.375000,-16.89,76.65
64333,2018-06-29 09:18:22.406250,-20.44,76.65
64334,2018-06-29 09:18:22.437500,-23.39,76.65
64335,2018-06-29 09:18:22.468750,-23.28,76.65
64336,2018-06-29 09:18:22.500000,-15.95,76.65
64337,2018-06-29 09:18:22.531250,-1.25,76.43
64338,2018-06-29 09:18:22.562500,15.78,76.43
64339,2018-06-29 09:18:22.593750,30.54,76.43
64340,2018-06-29 09:18:22.625000,40.08,76.43
64341,2018-06-29 09:18:22.656250,42.46,76.43
64342,2018-06-29 09:18:22.687500,38.97,76.43
64343,2018-06-29 09:18:22.718750,35.61,76.43
64344,2018-06-29 09:18:22.750000,36.73,76.43
64345,2018-06-29 09:18:22.781250,39.25,76.43
64346,2018-06-29 09:18:22.812500,40.33,76.43
64347,2018-06-29 09:18:22.843750,42.12,76.43
64348,2018-06-29 09:18:22.875000,48.8,76.43
64349,2018-06-29 09:18:22.906250,55.25,76.43
64350,2018-06-29 09:18:22.937500,55.43,76.43
64351,2018-06-29 09:18:22.968750,52.78,76.43
64352,2018-06-29 09:18:23.000000,56.32,76.43
64353,2018-06-29 09:18:23.031250,66.76,76.43
64354,2018-06-29 09:18:23.062500,72.34,76.43
64355,2018-06-29 09:18:23.093750,68.97,76.43
64356,2018-06-29 09:18:23.125000,63.25,76.43
64357,2018-06-29 09:18:23.156250,69.35,76.43
64358,2018-06-29 09:18:23.187500,87.88,76.43
64359,2018-06-29 09:18:23.218750,102.48,76.43
64360,2018-06-29 09:18:23.250000,86.42,76.43
64361,2018-06-29 09:18:23.281250,6.42,76.43
64362,2018-06-29 09:18:23.312500,-75.09,76.43
64363,2018-06-29 09:18:23.343750,-100.43,76.43
64364,2018-06-29 09:18:23.375000,-91.6,76.43
64365,2018-06-29 09:18:23.406250,-77.25,76.43
64366,2018-06-29 09:18:23.437500,-60.81,76.43
64367,2018-06-29 09:18:23.468750,-62.21,76.43
64368,2018-06-29 09:18:23.500000,-94.43,76.43
64369,2018-06-29 09:18:23.531250,-127.43,76.22
64370,2018-06-29 09:18:23.562500,-124.39,76.22
64371,2018-06-29 09:18:23.593750,-80.37,76.22
64372,2018-06-29 09:18:23.625000,-25.46,76.22
64373,2018-06-29 09:18:23.656250,11.19,76.22
64374,2018-06-29 09:18:23.687500,15.39,76.22
64375,2018-06-29 09:18:23.718750,-19.61,76.22
64376,2018-06-29 09:18:23.750000,-76.03,76.22
64377,2018-06-29 09:18:23.781250,-123.33,76.22
64378,2018-06-29 09:18:23.812500,-148.39,76.22
64379,2018-06-29 09:18:23.843750,-155.8,76.22
64380,2018-06-29 09:18:23.875000,-145.7,76.22
64381,2018-06-29 09:18:23.906250,-121.7,76.22
64382,2018-06-29 09:18:23.937500,-97.89,76.22
64383,2018-06-29 09:18:23.968750,-80.77,76.22
64384,2018-06-29 09:18:24.000000,-69.5,76.22
64385,2018-06-29 09:18:24.031250,-58.03,76.22
64386,2018-06-29 09:18:24.062500,-47.0,76.22
64387,2018-06-29 09:18:24.093750,-34.99,76.22
64388,2018-06-29 09:18:24.125000,-17.51,76.22
64389,2018-06-29 09:18:24.156250,5.5,76.22
64390,2018-06-29 09:18:24.187500,23.66,76.22
64391,2018-06-29 09:18:24.218750,29.09,76.22
64392,2018-06-29 09:18:24.250000,23.84,76.22
64393,2018-06-29 09:18:24.281250,14.51,76.22
64394,2018-06-29 09:18:24.312500,4.71,76.22
64395,2018-06-29 09:18:24.343750,-5.55,76.22
64396,2018-06-29 09:18:24.375000,-14.5,76.22
64397,2018-06-29 09:18:24.406250,-18.28,76.22
64398,2018-06-29 09:18:24.437500,-13.55,76.22
64399,2018-06-29 09:18:24.468750,0.04,76.22
64400,2018-06-29 09:18:24.500000,21.36,76.22
64401,2018-06-29 09:18:24.531250,45.41,75.98
64402,2018-06-29 09:18:24.562500,62.13,75.98
64403,2018-06-29 09:18:24.593750,64.59,75.98
64404,2018-06-29 09:18:24.625000,55.83,75.98
64405,2018-06-29 09:18:24.656250,43.41,75.98
64406,2018-06-29 09:18:24.687500,31.45,75.98
64407,2018-06-29 09:18:24.718750,20.98,75.98
64408,2018-06-29 09:18:24.750000,12.44,75.98
64409,2018-06-29 09:18:24.781250,5.3,75.98
64410,2018-06-29 09:18:24.812500,-2.04,75.98
64411,2018-06-29 09:18:24.843750,-10.06,75.98
64412,2018-06-29 09:18:24.875000,-17.79,75.98
64413,2018-06-29 09:18:24.906250,-24.34,75.98
64414,2018-06-29 09:18:24.937500,-27.69,75.98
64415,2018-06-29 09:18:24.968750,-24.17,75.98
64416,2018-06-29 09:18:25.000000,-13.02,75.98
64417,2018-06-29 09:18:25.031250,1.1,75.98
64418,2018-06-29 09:18:25.062500,12.5,75.98
64419,2018-06-29 09:18:25.093750,18.97,75.98
64420,2018-06-29 09:18:25.125000,20.6,75.98
64421,2018-06-29 09:18:25.156250,18.27,75.98
64422,2018-06-29 09:18:25.187500,14.63,75.98
64423,2018-06-29 09:18:25.218750,13.05,75.98
64424,2018-06-29 09:18:25.250000,13.96,75.98
64425,2018-06-29 09:18:25.281250,15.36,75.98
64426,2018-06-29 09:18:25.312500,16.06,75.98
64427,2018-06-29 09:18:25.343750,15.94,75.98
64428,2018-06-29 09:18:25.375000,14.25,75.98
64429,2018-06-29 09:18:25.406250,10.31,75.98
64430,2018-06-29 09:18:25.437500,5.3,75.98
64431,2018-06-29 09:18:25.468750,1.08,75.98
64432,2018-06-29 09:18:25.500000,-2.26,75.98
64433,2018-06-29 09:18:25.531250,-6.08,75.73
64434,2018-06-29 09:18:25.562500,-10.27,75.73
64435,2018-06-29 09:18:25.593750,-13.33,75.73
64436,2018-06-29 09:18:25.625000,-16.02,75.73
64437,2018-06-29 09:18:25.656250,-21.32,75.73
64438,2018-06-29 09:18:25.687500,-30.16,75.73
64439,2018-06-29 09:18:25.718750,-39.7,75.73
64440,2018-06-29 09:18:25.750000,-45.1,75.73
64441,2018-06-29 09:18:25.781250,-41.89,75.73
64442,2018-06-29 09:18:25.812500,-29.13,75.73
64443,2018-06-29 09:18:25.843750,-11.58,75.73
64444,2018-06-29 09:18:25.875000,3.75,75.73
64445,2018-06-29 09:18:25.906250,13.32,75.73
64446,2018-06-29 09:18:25.937500,17.82,75.73
64447,2018-06-29 09:18:25.968750,19.18,75.73
64448,2018-06-29 09:18:26.000000,18.75,75.73
64449,2018-06-29 09:18:26.031250,18.02,75.73
64450,2018-06-29 09:18:26.062500,18.59,75.73
64451,2018-06-29 09:18:26.093750,20.59,75.73
64452,2018-06-29 09:18:26.125000,22.48,75.73
64453,2018-06-29 09:18:26.156250,23.26,75.73
64454,2018-06-29 09:18:26.187500,23.34,75.73
64455,2018-06-29 09:18:26.218750,22.42,75.73
64456,2018-06-29 09:18:26.250000,19.44,75.73
64457,2018-06-29 09:18:26.281250,15.15,75.73
64458,2018-06-29 09:18:26.312500,11.74,75.73
64459,2018-06-29 09:18:26.343750,9.69,75.73
64460,2018-06-29 09:18:26.375000,7.41,75.73
64461,2018-06-29 09:18:26.406250,3.63,75.73
64462,2018-06-29 09:18:26.437500,-1.35,75.73
64463,2018-06-29 09:18:26.468750,-6.33,75.73
64464,2018-06-29 09:18:26.500000,-10.57,75.73
64465,2018-06-29 09:18:26.531250,-14.89,75.47
64466,2018-06-29 09:18:26.562500,-21.44,75.47
64467,2018-06-29 09:18:26.593750,-30.61,75.47
64468,2018-06-29 09:18:26.625000,-37.71,75.47
64469,2018-06-29 09:18:26.656250,-35.69,75.47
64470,2018-06-29 09:18:26.687500,-23.25,75.47
64471,2018-06-29 09:18:26.718750,-6.81,75.47
64472,2018-06-29 09:18:26.750000,7.03,75.47
64473,2018-06-29 09:18:26.781250,16.67,75.47
64474,2018-06-29 09:18:26.812500,22.11,75.47
64475,2018-06-29 09:18:26.843750,22.87,75.47
64476,2018-06-29 09:18:26.875000,21.03,75.47
64477,2018-06-29 09:18:26.906250,20.8,75.47
64478,2018-06-29 09:18:26.937500,23.28,75.47
64479,2018-06-29 09:18:26.968750,25.65,75.47
64480,2018-06-29 09:18:27.000000,25.97,75.47
64481,2018-06-29 09:18:27.031250,25.02,75.47
64482,2018-06-29 09:18:27.062500,23.67,75.47
64483,2018-06-29 09:18:27.093750,21.48,75.47
64484,2018-06-29 09:18:27.125000,18.21,75.47
64485,2018-06-29 09:18:27.156250,14.85,75.47
64486,2018-06-29 09:18:27.187500,12.34,75.47
64487,2018-06-29 09:18:27.218750,10.01,75.47
64488,2018-06-29 09:18:27.250000,6.63,75.47
64489,2018-06-29 09:18:27.281250,2.55,75.47
64490,2018-06-29 09:18:27.312500,-0.85,75.47
64491,2018-06-29 09:18:27.343750,-3.41,75.47
64492,2018-06-29 09:18:27.375000,-6.37,75.47
64493,2018-06-29 09:18:27.406250,-11.26,75.47
64494,2018-06-29 09:18:27.437500,-18.23,75.47
64495,2018-06-29 09:18:27.468750,-23.99,75.47
64496,2018-06-29 09:18:27.500000,-22.96,75.47
64497,2018-06-29 09:18:27.531250,-13.46,75.33
64498,2018-06-29 09:18:27.562500,-0.76,75.33
64499,2018-06-29 09:18:27.593750,8.81,75.33
64500,2018-06-29 09:18:27.625000,14.42,75.33
64501,2018-06-29 09:18:27.656250,18.05,75.33
64502,2018-06-29 09:18:27.687500,19.35,75.33
64503,2018-06-29 09:18:27.718750,17.89,75.33
64504,2018-06-29 09:18:27.750000,16.39,75.33
64505,2018-06-29 09:18:27.781250,17.2,75.33
64506,2018-06-29 09:18:27.812500,18.9,75.33
64507,2018-06-29 09:18:27.843750,19.44,75.33
64508,2018-06-29 09:18:27.875000,19.28,75.33
64509,2018-06-29 09:18:27.906250,19.31,75.33
64510,2018-06-29 09:18:27.937500,18.48,75.33
64511,2018-06-29 09:18:27.968750,15.7,75.33
64512,2018-06-29 09:18:28.000000,12.46,75.33
64513,2018-06-29 09:18:28.031250,10.88,75.33
64514,2018-06-29 09:18:28.062500,10.21,75.33
64515,2018-06-29 09:18:28.093750,7.97,75.33
64516,2018-06-29 09:18:28.125000,3.73,75.33
64517,2018-06-29 09:18:28.156250,-0.7,75.33
64518,2018-06-29 09:18:28.187500,-3.99,75.33
64519,2018-06-29 09:18:28.218750,-6.55,75.33
64520,2018-06-29 09:18:28.250000,-9.87,75.33
64521,2018-06-29 09:18:28.281250,-15.2,75.33
64522,2018-06-29 09:18:28.312500,-21.83,75.33
64523,2018-06-29 09:18:28.343750,-25.78,75.33
64524,2018-06-29 09:18:28.375000,-22.37,75.33
64525,2018-06-29 09:18:28.406250,-11.73,75.33
64526,2018-06-29 09:18:28.437500,0.45,75.33
64527,2018-06-29 09:18:28.468750,9.27,75.33
64528,2018-06-29 09:18:28.500000,14.32,75.33
64529,2018-06-29 09:18:28.531250,16.95,75.22
64530,2018-06-29 09:18:28.562500,17.77,75.22
64531,2018-06-29 09:18:28.593750,17.55,75.22
64532,2018-06-29 09:18:28.625000,17.46,75.22
64533,2018-06-29 09:18:28.656250,18.13,75.22
64534,2018-06-29 09:18:28.687500,19.42,75.22
64535,2018-06-29 09:18:28.718750,20.93,75.22
64536,2018-06-29 09:18:28.750000,22.14,75.22
64537,2018-06-29 09:18:28.781250,21.62,75.22
64538,2018-06-29 09:18:28.812500,18.26,75.22
64539,2018-06-29 09:18:28.843750,13.56,75.22
64540,2018-06-29 09:18:28.875000,10.13,75.22
64541,2018-06-29 09:18:28.906250,8.11,75.22
64542,2018-06-29 09:18:28.937500,6.18,75.22
64543,2018-06-29 09:18:28.968750,4.27,75.22
64544,2018-06-29 09:18:29.000000,2.66,75.22
64545,2018-06-29 09:18:29.031250,0.9,75.22
64546,2018-06-29 09:18:29.062500,-0.99,75.22
64547,2018-06-29 09:18:29.093750,-2.35,75.22
64548,2018-06-29 09:18:29.125000,-3.53,75.22
64549,2018-06-29 09:18:29.156250,-6.17,75.22
64550,2018-06-29 09:18:29.187500,-10.93,75.22
64551,2018-06-29 09:18:29.218750,-16.12,75.22
64552,2018-06-29 09:18:29.250000,-18.61,75.22
64553,2018-06-29 09:18:29.281250,-15.76,75.22
64554,2018-06-29 09:18:29.312500,-7.25,75.22
64555,2018-06-29 09:18:29.343750,3.73,75.22
64556,2018-06-29 09:18:29.375000,12.19,75.22
64557,2018-06-29 09:18:29.406250,15.66,75.22
64558,2018-06-29 09:18:29.437500,15.4,75.22
64559,2018-06-29 09:18:29.468750,13.73,75.22
64560,2018-06-29 09:18:29.500000,12.2,75.22
64561,2018-06-29 09:18:29.531250,12.08,75.02
64562,2018-06-29 09:18:29.562500,13.63,75.02
64563,2018-06-29 09:18:29.593750,15.27,75.02
64564,2018-06-29 09:18:29.625000,15.66,75.02
64565,2018-06-29 09:18:29.656250,15.24,75.02
64566,2018-06-29 09:18:29.687500,14.56,75.02
64567,2018-06-29 09:18:29.718750,12.84,75.02
64568,2018-06-29 09:18:29.750000,9.65,75.02
64569,2018-06-29 09:18:29.781250,6.25,75.02
64570,2018-06-29 09:18:29.812500,3.66,75.02
64571,2018-06-29 09:18:29.843750,1.3,75.02
64572,2018-06-29 09:18:29.875000,-1.41,75.02
64573,2018-06-29 09:18:29.906250,-3.8,75.02
64574,2018-06-29 09:18:29.937500,-5.25,75.02
64575,2018-06-29 09:18:29.968750,-6.34,75.02
64576,2018-06-29 09:18:30.000000,-8.28,75.02
64577,2018-06-29 09:18:30.031250,-11.81,75.02
64578,2018-06-29 09:18:30.062500,-16.0,75.02
64579,2018-06-29 09:18:30.093750,-17.77,75.02
64580,2018-06-29 09:18:30.125000,-14.4,75.02
64581,2018-06-29 09:18:30.156250,-6.62,75.02
64582,2018-06-29 09:18:30.187500,1.81,75.02
64583,2018-06-29 09:18:30.218750,7.79,75.02
64584,2018-06-29 09:18:30.250000,10.94,75.02
64585,2018-06-29 09:18:30.281250,11.92,75.02
64586,2018-06-29 09:18:30.312500,11.12,75.02
64587,2018-06-29 09:18:30.343750,9.4,75.02
64588,2018-06-29 09:18:30.375000,8.24,75.02
64589,2018-06-29 09:18:30.406250,8.0,75.02
64590,2018-06-29 09:18:30.437500,7.75,75.02
64591,2018-06-29 09:18:30.468750,7.08,75.02
64592,2018-06-29 09:18:30.500000,6.41,75.02
64593,2018-06-29 09:18:30.531250,5.54,74.8
64594,2018-06-29 09:18:30.562500,3.62,74.8
64595,2018-06-29 09:18:30.593750,0.2,74.8
64596,2018-06-29 09:18:30.625000,-4.37,74.8
64597,2018-06-29 09:18:30.656250,-9.01,74.8
64598,2018-06-29 09:18:30.687500,-12.36,74.8
64599,2018-06-29 09:18:30.718750,-13.47,74.8
64600,2018-06-29 09:18:30.750000,-12.01,74.8
64601,2018-06-29 09:18:30.781250,-8.86,74.8
64602,2018-06-29 09:18:30.812500,-6.6,74.8
64603,2018-06-29 09:18:30.843750,-7.04,74.8
64604,2018-06-29 09:18:30.875000,-8.46,74.8
64605,2018-06-29 09:18:30.906250,-7.93,74.8
64606,2018-06-29 09:18:30.937500,-4.27,74.8
64607,2018-06-29 09:18:30.968750,2.59,74.8
64608,2018-06-29 09:18:31.000000,11.81,74.8
64609,2018-06-29 09:18:31.031250,20.12,74.8
64610,2018-06-29 09:18:31.062500,24.43,74.8
64611,2018-06-29 09:18:31.093750,25.04,74.8
64612,2018-06-29 09:18:31.125000,23.71,74.8
64613,2018-06-29 09:18:31.156250,21.06,74.8
64614,2018-06-29 09:18:31.187500,17.7,74.8
64615,2018-06-29 09:18:31.218750,14.98,74.8
64616,2018-06-29 09:18:31.250000,13.03,74.8
64617,2018-06-29 09:18:31.281250,10.87,74.8
64618,2018-06-29 09:18:31.312500,8.51,74.8
64619,2018-06-29 09:18:31.343750,6.53,74.8
64620,2018-06-29 09:18:31.375000,4.7,74.8
64621,2018-06-29 09:18:31.406250,2.73,74.8
64622,2018-06-29 09:18:31.437500,0.79,74.8
64623,2018-06-29 09:18:31.468750,-1.16,74.8
64624,2018-06-29 09:18:31.500000,-3.04,74.8
64625,2018-06-29 09:18:31.531250,-4.0,74.58
64626,2018-06-29 09:18:31.562500,-3.77,74.58
64627,2018-06-29 09:18:31.593750,-2.93,74.58
64628,2018-06-29 09:18:31.625000,-1.57,74.58
64629,2018-06-29 09:18:31.656250,0.4,74.58
64630,2018-06-29 09:18:31.687500,2.2,74.58
64631,2018-06-29 09:18:31.718750,3.08,74.58
64632,2018-06-29 09:18:31.750000,3.56,74.58
64633,2018-06-29 09:18:31.781250,4.54,74.58
64634,2018-06-29 09:18:31.812500,6.58,74.58
64635,2018-06-29 09:18:31.843750,9.52,74.58
64636,2018-06-29 09:18:31.875000,12.3,74.58
64637,2018-06-29 09:18:31.906250,13.83,74.58
64638,2018-06-29 09:18:31.937500,13.89,74.58
64639,2018-06-29 09:18:31.968750,12.57,74.58
64640,2018-06-29 09:18:32.000000,10.11,74.58
64641,2018-06-29 09:18:32.031250,7.44,74.58
64642,2018-06-29 09:18:32.062500,5.11,74.58
64643,2018-06-29 09:18:32.093750,2.99,74.58
64644,2018-06-29 09:18:32.125000,1.49,74.58
64645,2018-06-29 09:18:32.156250,0.87,74.58
64646,2018-06-29 09:18:32.187500,-0.15,74.58
64647,2018-06-29 09:18:32.218750,-2.61,74.58
64648,2018-06-29 09:18:32.250000,-5.53,74.58
64649,2018-06-29 09:18:32.281250,-7.47,74.58
64650,2018-06-29 09:18:32.312500,-8.32,74.58
64651,2018-06-29 09:18:32.343750,-8.66,74.58
64652,2018-06-29 09:18:32.375000,-8.8,74.58
64653,2018-06-29 09:18:32.406250,-8.58,74.58
64654,2018-06-29 09:18:32.437500,-7.69,74.58
64655,2018-06-29 09:18:32.468750,-6.54,74.58
64656,2018-06-29 09:18:32.500000,-6.22,74.58
64657,2018-06-29 09:18:32.531250,-6.9,74.38
64658,2018-06-29 09:18:32.562500,-7.0,74.38
64659,2018-06-29 09:18:32.593750,-4.38,74.38
64660,2018-06-29 09:18:32.625000,1.42,74.38
64661,2018-06-29 09:18:32.656250,8.22,74.38
64662,2018-06-29 09:18:32.687500,12.95,74.38
64663,2018-06-29 09:18:32.718750,14.52,74.38
64664,2018-06-29 09:18:32.750000,13.96,74.38
64665,2018-06-29 09:18:32.781250,12.43,74.38
64666,2018-06-29 09:18:32.812500,10.34,74.38
64667,2018-06-29 09:18:32.843750,8.01,74.38
64668,2018-06-29 09:18:32.875000,5.93,74.38
64669,2018-06-29 09:18:32.906250,4.38,74.38
64670,2018-06-29 09:18:32.937500,3.33,74.38
64671,2018-06-29 09:18:32.968750,2.64,74.38
64672,2018-06-29 09:18:33.000000,2.31,74.38
64673,2018-06-29 09:18:33.031250,1.8,74.38
64674,2018-06-29 09:18:33.062500,0.28,74.38
64675,2018-06-29 09:18:33.093750,-1.83,74.38
64676,2018-06-29 09:18:33.125000,-3.01,74.38
64677,2018-06-29 09:18:33.156250,-3.26,74.38
64678,2018-06-29 09:18:33.187500,-4.13,74.38
64679,2018-06-29 09:18:33.218750,-5.56,74.38
64680,2018-06-29 09:18:33.250000,-6.09,74.38
64681,2018-06-29 09:18:33.281250,-5.91,74.38
64682,2018-06-29 09:18:33.312500,-6.79,74.38
64683,2018-06-29 09:18:33.343750,-9.22,74.38
64684,2018-06-29 09:18:33.375000,-12.02,74.38
64685,2018-06-29 09:18:33.406250,-13.41,74.38
64686,2018-06-29 09:18:33.437500,-11.76,74.38
64687,2018-06-29 09:18:33.468750,-7.03,74.38
64688,2018-06-29 09:18:33.500000,-1.48,74.38
64689,2018-06-29 09:18:33.531250,2.45,74.17
64690,2018-06-29 09:18:33.562500,4.12,74.17
64691,2018-06-29 09:18:33.593750,3.93,74.17
64692,2018-06-29 09:18:33.625000,2.46,74.17
64693,2018-06-29 09:18:33.656250,0.67,74.17
64694,2018-06-29 09:18:33.687500,-0.2,74.17
64695,2018-06-29 09:18:33.718750,0.31,74.17
64696,2018-06-29 09:18:33.750000,1.43,74.17
64697,2018-06-29 09:18:33.781250,2.23,74.17
64698,2018-06-29 09:18:33.812500,2.65,74.17
64699,2018-06-29 09:18:33.843750,2.78,74.17
64700,2018-06-29 09:18:33.875000,2.03,74.17
64701,2018-06-29 09:18:33.906250,0.32,74.17
64702,2018-06-29 09:18:33.937500,-1.33,74.17
64703,2018-06-29 09:18:33.968750,-2.13,74.17
64704,2018-06-29 09:18:34.000000,-2.49,74.17
64705,2018-06-29 09:18:34.031250,-3.11,74.17
64706,2018-06-29 09:18:34.062500,-4.14,74.17
64707,2018-06-29 09:18:34.093750,-5.42,74.17
64708,2018-06-29 09:18:34.125000,-6.5,74.17
64709,2018-06-29 09:18:34.156250,-6.98,74.17
64710,2018-06-29 09:18:34.187500,-7.26,74.17
64711,2018-06-29 09:18:34.218750,-8.08,74.17
64712,2018-06-29 09:18:34.250000,-9.13,74.17
64713,2018-06-29 09:18:34.281250,-8.9,74.17
64714,2018-06-29 09:18:34.312500,-6.18,74.17
64715,2018-06-29 09:18:34.343750,-1.64,74.17
64716,2018-06-29 09:18:34.375000,2.29,74.17
64717,2018-06-29 09:18:34.406250,3.65,74.17
64718,2018-06-29 09:18:34.437500,2.63,74.17
64719,2018-06-29 09:18:34.468750,0.57,74.17
64720,2018-06-29 09:18:34.500000,-1.65,74.17
64721,2018-06-29 09:18:34.531250,-3.47,74.0
64722,2018-06-29 09:18:34.562500,-4.11,74.0
64723,2018-06-29 09:18:34.593750,-3.38,74.0
64724,2018-06-29 09:18:34.625000,-2.0,74.0
64725,2018-06-29 09:18:34.656250,-0.89,74.0
64726,2018-06-29 09:18:34.687500,-0.57,74.0
64727,2018-06-29 09:18:34.718750,-0.68,74.0
64728,2018-06-29 09:18:34.750000,-0.5,74.0
64729,2018-06-29 09:18:34.781250,-0.03,74.0
64730,2018-06-29 09:18:34.812500,0.05,74.0
64731,2018-06-29 09:18:34.843750,-0.53,74.0
64732,2018-06-29 09:18:34.875000,-1.63,74.0
64733,2018-06-29 09:18:34.906250,-2.89,74.0
64734,2018-06-29 09:18:34.937500,-3.57,74.0
64735,2018-06-29 09:18:34.968750,-3.69,74.0
64736,2018-06-29 09:18:35.000000,-4.46,74.0
64737,2018-06-29 09:18:35.031250,-6.36,74.0
64738,2018-06-29 09:18:35.062500,-7.77,74.0
64739,2018-06-29 09:18:35.093750,-6.65,74.0
64740,2018-06-29 09:18:35.125000,-2.73,74.0
64741,2018-06-29 09:18:35.156250,2.14,74.0
64742,2018-06-29 09:18:35.187500,5.68,74.0
64743,2018-06-29 09:18:35.218750,7.24,74.0
64744,2018-06-29 09:18:35.250000,7.78,74.0
64745,2018-06-29 09:18:35.281250,7.92,74.0
64746,2018-06-29 09:18:35.312500,7.34,74.0
64747,2018-06-29 09:18:35.343750,6.32,74.0
64748,2018-06-29 09:18:35.375000,5.66,74.0
64749,2018-06-29 09:18:35.406250,5.45,74.0
64750,2018-06-29 09:18:35.437500,5.19,74.0
64751,2018-06-29 09:18:35.468750,4.5,74.0
64752,2018-06-29 09:18:35.500000,3.15,74.0
64753,2018-06-29 09:18:35.531250,1.47,73.83
64754,2018-06-29 09:18:35.562500,0.24,73.83
64755,2018-06-29 09:18:35.593750,-0.52,73.83
64756,2018-06-29 09:18:35.625000,-1.43,73.83
64757,2018-06-29 09:18:35.656250,-2.74,73.83
64758,2018-06-29 09:18:35.687500,-4.17,73.83
64759,2018-06-29 09:18:35.718750,-5.49,73.83
64760,2018-06-29 09:18:35.750000,-6.9,73.83
64761,2018-06-29 09:18:35.781250,-8.79,73.83
64762,2018-06-29 09:18:35.812500,-11.1,73.83
64763,2018-06-29 09:18:35.843750,-13.17,73.83
64764,2018-06-29 09:18:35.875000,-14.0,73.83
64765,2018-06-29 09:18:35.906250,-12.31,73.83
64766,2018-06-29 09:18:35.937500,-7.96,73.83
64767,2018-06-29 09:18:35.968750,-3.18,73.83
64768,2018-06-29 09:18:36.000000,-0.49,73.83
64769,2018-06-29 09:18:36.031250,-0.31,73.83
64770,2018-06-29 09:18:36.062500,-1.68,73.83
64771,2018-06-29 09:18:36.093750,-3.66,73.83
64772,2018-06-29 09:18:36.125000,-5.1,73.83
64773,2018-06-29 09:18:36.156250,-5.29,73.83
64774,2018-06-29 09:18:36.187500,-4.71,73.83
64775,2018-06-29 09:18:36.218750,-4.15,73.83
64776,2018-06-29 09:18:36.250000,-3.82,73.83
64777,2018-06-29 09:18:36.281250,-3.74,73.83
64778,2018-06-29 09:18:36.312500,-3.84,73.83
64779,2018-06-29 09:18:36.343750,-3.89,73.83
64780,2018-06-29 09:18:36.375000,-3.72,73.83
64781,2018-06-29 09:18:36.406250,-3.7,73.83
64782,2018-06-29 09:18:36.437500,-4.28,73.83
64783,2018-06-29 09:18:36.468750,-5.39,73.83
64784,2018-06-29 09:18:36.500000,-6.51,73.83
64785,2018-06-29 09:18:36.531250,-7.3,73.68
64786,2018-06-29 09:18:36.562500,-7.89,73.68
64787,2018-06-29 09:18:36.593750,-8.47,73.68
64788,2018-06-29 09:18:36.625000,-8.79,73.68
64789,2018-06-29 09:18:36.656250,-8.27,73.68
64790,2018-06-29 09:18:36.687500,-6.33,73.68
64791,2018-06-29 09:18:36.718750,-3.01,73.68
64792,2018-06-29 09:18:36.750000,0.61,73.68
64793,2018-06-29 09:18:36.781250,3.24,73.68
64794,2018-06-29 09:18:36.812500,4.66,73.68
64795,2018-06-29 09:18:36.843750,5.08,73.68
64796,2018-06-29 09:18:36.875000,4.03,73.68
64797,2018-06-29 09:18:36.906250,1.71,73.68
64798,2018-06-29 09:18:36.937500,0.18,73.68
64799,2018-06-29 09:18:36.968750,0.94,73.68
64800,2018-06-29 09:18:37.000000,2.56,73.68
64801,2018-06-29 09:18:37.031250,2.87,73.68
64802,2018-06-29 09:18:37.062500,1.85,73.68
64803,2018-06-29 09:18:37.093750,1.02,73.68
64804,2018-06-29 09:18:37.125000,1.02,73.68
64805,2018-06-29 09:18:37.156250,1.11,73.68
64806,2018-06-29 09:18:37.187500,0.37,73.68
64807,2018-06-29 09:18:37.218750,-1.06,73.68
64808,2018-06-29 09:18:37.250000,-2.55,73.68
64809,2018-06-29 09:18:37.281250,-4.0,73.68
64810,2018-06-29 09:18:37.312500,-5.51,73.68
64811,2018-06-29 09:18:37.343750,-6.93,73.68
64812,2018-06-29 09:18:37.375000,-8.41,73.68
64813,2018-06-29 09:18:37.406250,-9.68,73.68
64814,2018-06-29 09:18:37.437500,-9.2,73.68
64815,2018-06-29 09:18:37.468750,-5.98,73.68
64816,2018-06-29 09:18:37.500000,-1.63,73.68
64817,2018-06-29 09:18:37.531250,1.35,73.52
64818,2018-06-29 09:18:37.562500,2.2,73.52
64819,2018-06-29 09:18:37.593750,1.84,73.52
64820,2018-06-29 09:18:37.625000,1.15,73.52
64821,2018-06-29 09:18:37.656250,0.43,73.52
64822,2018-06-29 09:18:37.687500,0.24,73.52
64823,2018-06-29 09:18:37.718750,0.97,73.52
64824,2018-06-29 09:18:37.750000,1.8,73.52
64825,2018-06-29 09:18:37.781250,1.5,73.52
64826,2018-06-29 09:18:37.812500,0.26,73.52
64827,2018-06-29 09:18:37.843750,-0.67,73.52
64828,2018-06-29 09:18:37.875000,-0.99,73.52
64829,2018-06-29 09:18:37.906250,-1.55,73.52
64830,2018-06-29 09:18:37.937500,-2.83,73.52
64831,2018-06-29 09:18:37.968750,-4.2,73.52
64832,2018-06-29 09:18:38.000000,-5.0,73.52
64833,2018-06-29 09:18:38.031250,-5.1,73.52
64834,2018-06-29 09:18:38.062500,-4.84,73.52
64835,2018-06-29 09:18:38.093750,-5.14,73.52
64836,2018-06-29 09:18:38.125000,-6.79,73.52
64837,2018-06-29 09:18:38.156250,-8.96,73.52
64838,2018-06-29 09:18:38.187500,-9.31,73.52
64839,2018-06-29 09:18:38.218750,-6.51,73.52
64840,2018-06-29 09:18:38.250000,-2.01,73.52
64841,2018-06-29 09:18:38.281250,1.49,73.52
64842,2018-06-29 09:18:38.312500,3.13,73.52
64843,2018-06-29 09:18:38.343750,3.73,73.52
64844,2018-06-29 09:18:38.375000,3.58,73.52
64845,2018-06-29 09:18:38.406250,2.34,73.52
64846,2018-06-29 09:18:38.437500,0.68,73.52
64847,2018-06-29 09:18:38.468750,-0.05,73.52
64848,2018-06-29 09:18:38.500000,0.51,73.52
64849,2018-06-29 09:18:38.531250,1.7,73.35
64850,2018-06-29 09:18:38.562500,2.62,73.35
64851,2018-06-29 09:18:38.593750,2.76,73.35
64852,2018-06-29 09:18:38.625000,2.18,73.35
64853,2018-06-29 09:18:38.656250,1.25,73.35
64854,2018-06-29 09:18:38.687500,0.52,73.35
64855,2018-06-29 09:18:38.718750,0.47,73.35
64856,2018-06-29 09:18:38.750000,0.66,73.35
64857,2018-06-29 09:18:38.781250,-0.17,73.35
64858,2018-06-29 09:18:38.812500,-2.16,73.35
64859,2018-06-29 09:18:38.843750,-4.1,73.35
64860,2018-06-29 09:18:38.875000,-5.56,73.35
64861,2018-06-29 09:18:38.906250,-7.08,73.35
64862,2018-06-29 09:18:38.937500,-7.82,73.35
64863,2018-06-29 09:18:38.968750,-6.01,73.35
64864,2018-06-29 09:18:39.000000,-1.6,73.35
64865,2018-06-29 09:18:39.031250,3.19,73.35
64866,2018-06-29 09:18:39.062500,6.15,73.35
64867,2018-06-29 09:18:39.093750,6.58,73.35
64868,2018-06-29 09:18:39.125000,4.89,73.35
64869,2018-06-29 09:18:39.156250,2.35,73.35
64870,2018-06-29 09:18:39.187500,0.43,73.35
64871,2018-06-29 09:18:39.218750,-0.19,73.35
64872,2018-06-29 09:18:39.250000,0.41,73.35
64873,2018-06-29 09:18:39.281250,1.8,73.35
64874,2018-06-29 09:18:39.312500,3.08,73.35
64875,2018-06-29 09:18:39.343750,3.26,73.35
64876,2018-06-29 09:18:39.375000,2.44,73.35
64877,2018-06-29 09:18:39.406250,1.57,73.35
64878,2018-06-29 09:18:39.437500,1.09,73.35
64879,2018-06-29 09:18:39.468750,0.67,73.35
64880,2018-06-29 09:18:39.500000,-0.14,73.35
64881,2018-06-29 09:18:39.531250,-1.54,73.2
64882,2018-06-29 09:18:39.562500,-3.28,73.2
64883,2018-06-29 09:18:39.593750,-4.66,73.2
64884,2018-06-29 09:18:39.625000,-5.28,73.2
64885,2018-06-29 09:18:39.656250,-5.62,73.2
64886,2018-06-29 09:18:39.687500,-6.26,73.2
64887,2018-06-29 09:18:39.718750,-6.67,73.2
64888,2018-06-29 09:18:39.750000,-5.27,73.2
64889,2018-06-29 09:18:39.781250,-1.05,73.2
64890,2018-06-29 09:18:39.812500,4.71,73.2
64891,2018-06-29 09:18:39.843750,9.41,73.2
64892,2018-06-29 09:18:39.875000,11.79,73.2
64893,2018-06-29 09:18:39.906250,12.54,73.2
64894,2018-06-29 09:18:39.937500,12.62,73.2
64895,2018-06-29 09:18:39.968750,12.66,73.2
64896,2018-06-29 09:18:40.000000,13.04,73.2
64897,2018-06-29 09:18:40.031250,13.38,73.2
64898,2018-06-29 09:18:40.062500,13.15,73.2
64899,2018-06-29 09:18:40.093750,12.82,73.2
64900,2018-06-29 09:18:40.125000,13.09,73.2
64901,2018-06-29 09:18:40.156250,13.37,73.2
64902,2018-06-29 09:18:40.187500,12.29,73.2
64903,2018-06-29 09:18:40.218750,9.56,73.2
64904,2018-06-29 09:18:40.250000,6.23,73.2
64905,2018-06-29 09:18:40.281250,3.42,73.2
64906,2018-06-29 09:18:40.312500,1.26,73.2
64907,2018-06-29 09:18:40.343750,-0.96,73.2
64908,2018-06-29 09:18:40.375000,-3.65,73.2
64909,2018-06-29 09:18:40.406250,-6.21,73.2
64910,2018-06-29 09:18:40.437500,-8.15,73.2
64911,2018-06-29 09:18:40.468750,-9.96,73.2
64912,2018-06-29 09:18:40.500000,-12.1,73.2
64913,2018-06-29 09:18:40.531250,-14.06,73.07
64914,2018-06-29 09:18:40.562500,-15.0,73.07
64915,2018-06-29 09:18:40.593750,-14.12,73.07
64916,2018-06-29 09:18:40.625000,-11.22,73.07
64917,2018-06-29 09:18:40.656250,-7.53,73.07
64918,2018-06-29 09:18:40.687500,-4.71,73.07
64919,2018-06-29 09:18:40.718750,-3.3,73.07
64920,2018-06-29 09:18:40.750000,-2.84,73.07
64921,2018-06-29 09:18:40.781250,-3.1,73.07
64922,2018-06-29 09:18:40.812500,-3.87,73.07
64923,2018-06-29 09:18:40.843750,-4.57,73.07
64924,2018-06-29 09:18:40.875000,-4.77,73.07
64925,2018-06-29 09:18:40.906250,-4.65,73.07
64926,2018-06-29 09:18:40.937500,-4.53,73.07
64927,2018-06-29 09:18:40.968750,-4.35,73.07
64928,2018-06-29 09:18:41.000000,-3.94,73.07
64929,2018-06-29 09:18:41.031250,-3.4,73.07
64930,2018-06-29 09:18:41.062500,-2.89,73.07
64931,2018-06-29 09:18:41.093750,-2.55,73.07
64932,2018-06-29 09:18:41.125000,-2.71,73.07
64933,2018-06-29 09:18:41.156250,-3.55,73.07
64934,2018-06-29 09:18:41.187500,-4.77,73.07
64935,2018-06-29 09:18:41.218750,-5.89,73.07
64936,2018-06-29 09:18:41.250000,-6.87,73.07
64937,2018-06-29 09:18:41.281250,-7.74,73.07
64938,2018-06-29 09:18:41.312500,-8.42,73.07
64939,2018-06-29 09:18:41.343750,-8.86,73.07
64940,2018-06-29 09:18:41.375000,-9.19,73.07
64941,2018-06-29 09:18:41.406250,-9.75,73.07
64942,2018-06-29 09:18:41.437500,-10.49,73.07
64943,2018-06-29 09:18:41.468750,-10.18,73.07
64944,2018-06-29 09:18:41.500000,-7.41,73.07
64945,2018-06-29 09:18:41.531250,-2.72,72.93
64946,2018-06-29 09:18:41.562500,1.76,72.93
64947,2018-06-29 09:18:41.593750,5.08,72.93
64948,2018-06-29 09:18:41.625000,7.71,72.93
64949,2018-06-29 09:18:41.656250,9.63,72.93
64950,2018-06-29 09:18:41.687500,10.41,72.93
64951,2018-06-29 09:18:41.718750,10.66,72.93
64952,2018-06-29 09:18:41.750000,11.54,72.93
64953,2018-06-29 09:18:41.781250,13.11,72.93
64954,2018-06-29 09:18:41.812500,14.43,72.93
64955,2018-06-29 09:18:41.843750,14.81,72.93
64956,2018-06-29 09:18:41.875000,14.34,72.93
64957,2018-06-29 09:18:41.906250,13.48,72.93
64958,2018-06-29 09:18:41.937500,12.68,72.93
64959,2018-06-29 09:18:41.968750,12.47,72.93
64960,2018-06-29 09:18:42.000000,13.39,72.93
64961,2018-06-29 09:18:42.031250,15.25,72.93
64962,2018-06-29 09:18:42.062500,17.29,72.93
64963,2018-06-29 09:18:42.093750,19.5,72.93
64964,2018-06-29 09:18:42.125000,22.7,72.93
64965,2018-06-29 09:18:42.156250,26.68,72.93
64966,2018-06-29 09:18:42.187500,29.84,72.93
64967,2018-06-29 09:18:42.218750,30.93,72.93
64968,2018-06-29 09:18:42.250000,30.52,72.93
64969,2018-06-29 09:18:42.281250,31.0,72.93
64970,2018-06-29 09:18:42.312500,34.84,72.93
64971,2018-06-29 09:18:42.343750,42.37,72.93
64972,2018-06-29 09:18:42.375000,52.25,72.93
64973,2018-06-29 09:18:42.406250,64.17,72.93
64974,2018-06-29 09:18:42.437500,79.18,72.93
64975,2018-06-29 09:18:42.468750,95.24,72.93
64976,2018-06-29 09:18:42.500000,104.36,72.93
64977,2018-06-29 09:18:42.531250,99.56,72.83
64978,2018-06-29 09:18:42.562500,84.53,72.83
64979,2018-06-29 09:18:42.593750,69.53,72.83
64980,2018-06-29 09:18:42.625000,58.37,72.83
64981,2018-06-29 09:18:42.656250,46.99,72.83
64982,2018-06-29 09:18:42.687500,33.0,72.83
64983,2018-06-29 09:18:42.718750,19.57,72.83
64984,2018-06-29 09:18:42.750000,10.63,72.83
64985,2018-06-29 09:18:42.781250,5.12,72.83
64986,2018-06-29 09:18:42.812500,-4.81,72.83
64987,2018-06-29 09:18:42.843750,-27.41,72.83
64988,2018-06-29 09:18:42.875000,-61.05,72.83
64989,2018-06-29 09:18:42.906250,-93.28,72.83
64990,2018-06-29 09:18:42.937500,-111.94,72.83
64991,2018-06-29 09:18:42.968750,-115.25,72.83
64992,2018-06-29 09:18:43.000000,-110.12,72.83
64993,2018-06-29 09:18:43.031250,-103.66,72.83
64994,2018-06-29 09:18:43.062500,-98.38,72.83
64995,2018-06-29 09:18:43.093750,-93.6,72.83
64996,2018-06-29 09:18:43.125000,-88.75,72.83
64997,2018-06-29 09:18:43.156250,-84.35,72.83
64998,2018-06-29 09:18:43.187500,-80.6,72.83
64999,2018-06-29 09:18:43.218750,-75.31,72.83
65000,2018-06-29 09:18:43.250000,-65.4,72.83
65001,2018-06-29 09:18:43.281250,-51.51,72.83
65002,2018-06-29 09:18:43.312500,-38.69,72.83
65003,2018-06-29 09:18:43.343750,-31.18,72.83
65004,2018-06-29 09:18:43.375000,-28.79,72.83
65005,2018-06-29 09:18:43.406250,-28.79,72.83
65006,2018-06-29 09:18:43.437500,-28.57,72.83
65007,2018-06-29 09:18:43.468750,-26.64,72.83
65008,2018-06-29 09:18:43.500000,-23.09,72.83
65009,2018-06-29 09:18:43.531250,-19.34,72.72
65010,2018-06-29 09:18:43.562500,-16.84,72.72
65011,2018-06-29 09:18:43.593750,-15.52,72.72
65012,2018-06-29 09:18:43.625000,-14.11,72.72
65013,2018-06-29 09:18:43.656250,-12.76,72.72
65014,2018-06-29 09:18:43.687500,-13.15,72.72
65015,2018-06-29 09:18:43.718750,-15.2,72.72
65016,2018-06-29 09:18:43.750000,-16.58,72.72
65017,2018-06-29 09:18:43.781250,-16.26,72.72
65018,2018-06-29 09:18:43.812500,-15.61,72.72
65019,2018-06-29 09:18:43.843750,-15.62,72.72
65020,2018-06-29 09:18:43.875000,-16.0,72.72
65021,2018-06-29 09:18:43.906250,-16.74,72.72
65022,2018-06-29 09:18:43.937500,-18.05,72.72
65023,2018-06-29 09:18:43.968750,-19.07,72.72
65024,2018-06-29 09:18:44.000000,-18.02,72.72
65025,2018-06-29 09:18:44.031250,-13.66,72.72
65026,2018-06-29 09:18:44.062500,-6.62,72.72
65027,2018-06-29 09:18:44.093750,0.92,72.72
65028,2018-06-29 09:18:44.125000,7.43,72.72
65029,2018-06-29 09:18:44.156250,13.3,72.72
65030,2018-06-29 09:18:44.187500,18.55,72.72
65031,2018-06-29 09:18:44.218750,21.84,72.72
65032,2018-06-29 09:18:44.250000,23.43,72.72
65033,2018-06-29 09:18:44.281250,25.67,72.72
65034,2018-06-29 09:18:44.312500,29.71,72.72
65035,2018-06-29 09:18:44.343750,34.27,72.72
65036,2018-06-29 09:18:44.375000,38.31,72.72
65037,2018-06-29 09:18:44.406250,42.08,72.72
65038,2018-06-29 09:18:44.437500,45.87,72.72
65039,2018-06-29 09:18:44.468750,49.8,72.72
65040,2018-06-29 09:18:44.500000,54.5,72.72
65041,2018-06-29 09:18:44.531250,60.82,72.65
65042,2018-06-29 09:18:44.562500,69.04,72.65
65043,2018-06-29 09:18:44.593750,79.06,72.65
65044,2018-06-29 09:18:44.625000,90.38,72.65
65045,2018-06-29 09:18:44.656250,101.52,72.65
65046,2018-06-29 09:18:44.687500,110.63,72.65
65047,2018-06-29 09:18:44.718750,117.33,72.65
65048,2018-06-29 09:18:44.750000,123.27,72.65
65049,2018-06-29 09:18:44.781250,129.78,72.65
65050,2018-06-29 09:18:44.812500,136.81,72.65
65051,2018-06-29 09:18:44.843750,144.84,72.65
65052,2018-06-29 09:18:44.875000,155.19,72.65
65053,2018-06-29 09:18:44.906250,167.52,72.65
65054,2018-06-29 09:18:44.937500,176.85,72.65
65055,2018-06-29 09:18:44.968750,171.95,72.65
65056,2018-06-29 09:18:45.000000,144.45,72.65
65057,2018-06-29 09:18:45.031250,103.45,72.65
65058,2018-06-29 09:18:45.062500,69.4,72.65
65059,2018-06-29 09:18:45.093750,50.06,72.65
65060,2018-06-29 09:18:45.125000,33.46,72.65
65061,2018-06-29 09:18:45.156250,3.84,72.65
65062,2018-06-29 09:18:45.187500,-45.15,72.65
65063,2018-06-29 09:18:45.218750,-105.94,72.65
65064,2018-06-29 09:18:45.250000,-161.11,72.65
65065,2018-06-29 09:18:45.281250,-197.15,72.65
65066,2018-06-29 09:18:45.312500,-214.14,72.65
65067,2018-06-29 09:18:45.343750,-219.76,72.65
65068,2018-06-29 09:18:45.375000,-218.78,72.65
65069,2018-06-29 09:18:45.406250,-212.8,72.65
65070,2018-06-29 09:18:45.437500,-202.26,72.65
65071,2018-06-29 09:18:45.468750,-185.88,72.65
65072,2018-06-29 09:18:45.500000,-161.31,72.65
65073,2018-06-29 09:18:45.531250,-132.48,72.67
65074,2018-06-29 09:18:45.562500,-109.55,72.67
65075,2018-06-29 09:18:45.593750,-101.4,72.67
65076,2018-06-29 09:18:45.625000,-106.74,72.67
65077,2018-06-29 09:18:45.656250,-111.01,72.67
65078,2018-06-29 09:18:45.687500,-102.82,72.67
65079,2018-06-29 09:18:45.718750,-87.31,72.67
65080,2018-06-29 09:18:45.750000,-86.63,72.67
65081,2018-06-29 09:18:45.781250,-106.26,72.67
65082,2018-06-29 09:18:45.812500,-131.0,72.67
65083,2018-06-29 09:18:45.843750,-147.41,72.67
65084,2018-06-29 09:18:45.875000,-161.27,72.67
65085,2018-06-29 09:18:45.906250,-185.22,72.67
65086,2018-06-29 09:18:45.937500,-212.09,72.67
65087,2018-06-29 09:18:45.968750,-232.51,72.67
65088,2018-06-29 09:18:46.000000,-246.33,72.67
65089,2018-06-29 09:18:46.031250,-270.72,72.67
65090,2018-06-29 09:18:46.062500,-305.37,72.67
65091,2018-06-29 09:18:46.093750,-340.79,72.67
65092,2018-06-29 09:18:46.125000,-359.17,72.67
65093,2018-06-29 09:18:46.156250,-242.29,72.67
65094,2018-06-29 09:18:46.187500,-10.76,72.67
65095,2018-06-29 09:18:46.218750,205.76,72.67
65096,2018-06-29 09:18:46.250000,350.41,72.67
65097,2018-06-29 09:18:46.281250,427.39,72.67
65098,2018-06-29 09:18:46.312500,436.47,72.67
65099,2018-06-29 09:18:46.343750,400.93,72.67
65100,2018-06-29 09:18:46.375000,365.49,72.67
65101,2018-06-29 09:18:46.406250,354.07,72.67
65102,2018-06-29 09:18:46.437500,350.85,72.67
65103,2018-06-29 09:18:46.468750,328.48,72.67
65104,2018-06-29 09:18:46.500000,291.52,72.67
65105,2018-06-29 09:18:46.531250,255.0,72.68
65106,2018-06-29 09:18:46.562500,224.3,72.68
65107,2018-06-29 09:18:46.593750,194.88,72.68
65108,2018-06-29 09:18:46.625000,171.7,72.68
65109,2018-06-29 09:18:46.656250,162.18,72.68
65110,2018-06-29 09:18:46.687500,163.36,72.68
65111,2018-06-29 09:18:46.718750,168.4,72.68
65112,2018-06-29 09:18:46.750000,172.58,72.68
65113,2018-06-29 09:18:46.781250,171.35,72.68
65114,2018-06-29 09:18:46.812500,157.31,72.68
65115,2018-06-29 09:18:46.843750,130.75,72.68
65116,2018-06-29 09:18:46.875000,102.71,72.68
65117,2018-06-29 09:18:46.906250,89.1,72.68
65118,2018-06-29 09:18:46.937500,96.44,72.68
65119,2018-06-29 09:18:46.968750,106.34,72.68
65120,2018-06-29 09:18:47.000000,85.45,72.68
65121,2018-06-29 09:18:47.031250,24.35,72.68
65122,2018-06-29 09:18:47.062500,-48.14,72.68
65123,2018-06-29 09:18:47.093750,-100.65,72.68
65124,2018-06-29 09:18:47.125000,-129.77,72.68
65125,2018-06-29 09:18:47.156250,-147.62,72.68
65126,2018-06-29 09:18:47.187500,-161.12,72.68
65127,2018-06-29 09:18:47.218750,-172.1,72.68
65128,2018-06-29 09:18:47.250000,-181.48,72.68
65129,2018-06-29 09:18:47.281250,-185.98,72.68
65130,2018-06-29 09:18:47.312500,-180.01,72.68
65131,2018-06-29 09:18:47.343750,-164.85,72.68
65132,2018-06-29 09:18:47.375000,-150.81,72.68
65133,2018-06-29 09:18:47.406250,-143.7,72.68
65134,2018-06-29 09:18:47.437500,-134.74,72.68
65135,2018-06-29 09:18:47.468750,-114.36,72.68
65136,2018-06-29 09:18:47.500000,-90.82,72.68
65137,2018-06-29 09:18:47.531250,-82.24,72.72
65138,2018-06-29 09:18:47.562500,-93.85,72.72
65139,2018-06-29 09:18:47.593750,-115.58,72.72
65140,2018-06-29 09:18:47.625000,-137.29,72.72
65141,2018-06-29 09:18:47.656250,-156.97,72.72
65142,2018-06-29 09:18:47.687500,-177.33,72.72
65143,2018-06-29 09:18:47.718750,-195.31,72.72
65144,2018-06-29 09:18:47.750000,-195.67,72.72
65145,2018-06-29 09:18:47.781250,-164.2,72.72
65146,2018-06-29 09:18:47.812500,-106.62,72.72
65147,2018-06-29 09:18:47.843750,-43.57,72.72
65148,2018-06-29 09:18:47.875000,9.26,72.72
65149,2018-06-29 09:18:47.906250,47.25,72.72
65150,2018-06-29 09:18:47.937500,73.18,72.72
65151,2018-06-29 09:18:47.968750,96.31,72.72
65152,2018-06-29 09:18:48.000000,125.5,72.72
65153,2018-06-29 09:18:48.031250,157.31,72.72
65154,2018-06-29 09:18:48.062500,179.01,72.72
65155,2018-06-29 09:18:48.093750,184.6,72.72
65156,2018-06-29 09:18:48.125000,180.43,72.72
65157,2018-06-29 09:18:48.156250,175.54,72.72
65158,2018-06-29 09:18:48.187500,173.35,72.72
65159,2018-06-29 09:18:48.218750,172.44,72.72
65160,2018-06-29 09:18:48.250000,167.39,72.72
65161,2018-06-29 09:18:48.281250,148.4,72.72
65162,2018-06-29 09:18:48.312500,109.13,72.72
65163,2018-06-29 09:18:48.343750,54.29,72.72
65164,2018-06-29 09:18:48.375000,-5.34,72.72
65165,2018-06-29 09:18:48.406250,-60.94,72.72
65166,2018-06-29 09:18:48.437500,-105.73,72.72
65167,2018-06-29 09:18:48.468750,-134.55,72.72
65168,2018-06-29 09:18:48.500000,-145.64,72.72
65169,2018-06-29 09:18:48.531250,-141.39,72.73
65170,2018-06-29 09:18:48.562500,-128.64,72.73
65171,2018-06-29 09:18:48.593750,-115.95,72.73
65172,2018-06-29 09:18:48.625000,-107.69,72.73
65173,2018-06-29 09:18:48.656250,-104.53,72.73
65174,2018-06-29 09:18:48.687500,-107.62,72.73
65175,2018-06-29 09:18:48.718750,-116.3,72.73
65176,2018-06-29 09:18:48.750000,-126.29,72.73
65177,2018-06-29 09:18:48.781250,-135.03,72.73
65178,2018-06-29 09:18:48.812500,-142.13,72.73
65179,2018-06-29 09:18:48.843750,-144.07,72.73
65180,2018-06-29 09:18:48.875000,-136.94,72.73
65181,2018-06-29 09:18:48.906250,-123.17,72.73
65182,2018-06-29 09:18:48.937500,-107.45,72.73
65183,2018-06-29 09:18:48.968750,-91.96,72.73
65184,2018-06-29 09:18:49.000000,-80.4,72.73
65185,2018-06-29 09:18:49.031250,-77.57,72.73
65186,2018-06-29 09:18:49.062500,-80.79,72.73
65187,2018-06-29 09:18:49.093750,-81.84,72.73
65188,2018-06-29 09:18:49.125000,-77.7,72.73
65189,2018-06-29 09:18:49.156250,-69.52,72.73
65190,2018-06-29 09:18:49.187500,-54.06,72.73
65191,2018-06-29 09:18:49.218750,-27.08,72.73
65192,2018-06-29 09:18:49.250000,7.05,72.73
65193,2018-06-29 09:18:49.281250,37.57,72.73
65194,2018-06-29 09:18:49.312500,58.1,72.73
65195,2018-06-29 09:18:49.343750,69.22,72.73
65196,2018-06-29 09:18:49.375000,73.52,72.73
65197,2018-06-29 09:18:49.406250,74.63,72.73
65198,2018-06-29 09:18:49.437500,76.75,72.73
65199,2018-06-29 09:18:49.468750,79.63,72.73
65200,2018-06-29 09:18:49.500000,78.04,72.73
65201,2018-06-29 09:18:49.531250,70.11,72.8
65202,2018-06-29 09:18:49.562500,60.03,72.8
65203,2018-06-29 09:18:49.593750,50.93,72.8
65204,2018-06-29 09:18:49.625000,41.95,72.8
65205,2018-06-29 09:18:49.656250,33.0,72.8
65206,2018-06-29 09:18:49.687500,24.4,72.8
65207,2018-06-29 09:18:49.718750,13.14,72.8
65208,2018-06-29 09:18:49.750000,-3.69,72.8
65209,2018-06-29 09:18:49.781250,-23.48,72.8
65210,2018-06-29 09:18:49.812500,-41.32,72.8
65211,2018-06-29 09:18:49.843750,-55.91,72.8
65212,2018-06-29 09:18:49.875000,-69.34,72.8
65213,2018-06-29 09:18:49.906250,-83.53,72.8
65214,2018-06-29 09:18:49.937500,-98.72,72.8
65215,2018-06-29 09:18:49.968750,-113.4,72.8
65216,2018-06-29 09:18:50.000000,-123.7,72.8
65217,2018-06-29 09:18:50.031250,-123.91,72.8
65218,2018-06-29 09:18:50.062500,-109.72,72.8
65219,2018-06-29 09:18:50.093750,-81.46,72.8
65220,2018-06-29 09:18:50.125000,-42.38,72.8
65221,2018-06-29 09:18:50.156250,4.79,72.8
65222,2018-06-29 09:18:50.187500,55.54,72.8
65223,2018-06-29 09:18:50.218750,100.5,72.8
65224,2018-06-29 09:18:50.250000,129.77,72.8
65225,2018-06-29 09:18:50.281250,140.08,72.8
65226,2018-06-29 09:18:50.312500,136.32,72.8
65227,2018-06-29 09:18:50.343750,127.42,72.8
65228,2018-06-29 09:18:50.375000,121.0,72.8
65229,2018-06-29 09:18:50.406250,119.36,72.8
65230,2018-06-29 09:18:50.437500,119.71,72.8
65231,2018-06-29 09:18:50.468750,116.77,72.8
65232,2018-06-29 09:18:50.500000,107.5,72.8
65233,2018-06-29 09:18:50.531250,94.51,72.87
65234,2018-06-29 09:18:50.562500,81.8,72.87
65235,2018-06-29 09:18:50.593750,68.22,72.87
65236,2018-06-29 09:18:50.625000,49.87,72.87
65237,2018-06-29 09:18:50.656250,25.17,72.87
65238,2018-06-29 09:18:50.687500,-5.47,72.87
65239,2018-06-29 09:18:50.718750,-38.38,72.87
65240,2018-06-29 09:18:50.750000,-64.59,72.87
65241,2018-06-29 09:18:50.781250,-75.15,72.87
65242,2018-06-29 09:18:50.812500,-66.94,72.87
65243,2018-06-29 09:18:50.843750,-41.53,72.87
65244,2018-06-29 09:18:50.875000,-4.34,72.87
65245,2018-06-29 09:18:50.906250,35.18,72.87
65246,2018-06-29 09:18:50.937500,68.54,72.87
65247,2018-06-29 09:18:50.968750,94.32,72.87
65248,2018-06-29 09:18:51.000000,114.82,72.87
65249,2018-06-29 09:18:51.031250,129.12,72.87
65250,2018-06-29 09:18:51.062500,135.05,72.87
65251,2018-06-29 09:18:51.093750,135.2,72.87
65252,2018-06-29 09:18:51.125000,134.32,72.87
65253,2018-06-29 09:18:51.156250,133.09,72.87
65254,2018-06-29 09:18:51.187500,128.56,72.87
65255,2018-06-29 09:18:51.218750,119.15,72.87
65256,2018-06-29 09:18:51.250000,105.73,72.87
65257,2018-06-29 09:18:51.281250,88.38,72.87
65258,2018-06-29 09:18:51.312500,65.31,72.87
65259,2018-06-29 09:18:51.343750,36.36,72.87
65260,2018-06-29 09:18:51.375000,5.14,72.87
65261,2018-06-29 09:18:51.406250,-24.51,72.87
65262,2018-06-29 09:18:51.437500,-52.01,72.87
65263,2018-06-29 09:18:51.468750,-79.1,72.87
65264,2018-06-29 09:18:51.500000,-108.3,72.87
65265,2018-06-29 09:18:51.531250,-140.23,72.97
65266,2018-06-29 09:18:51.562500,-168.01,72.97
65267,2018-06-29 09:18:51.593750,-178.25,72.97
65268,2018-06-29 09:18:51.625000,-162.63,72.97
65269,2018-06-29 09:18:51.656250,-126.95,72.97
65270,2018-06-29 09:18:51.687500,-85.2,72.97
65271,2018-06-29 09:18:51.718750,-47.83,72.97
65272,2018-06-29 09:18:51.750000,-18.49,72.97
65273,2018-06-29 09:18:51.781250,2.06,72.97
65274,2018-06-29 09:18:51.812500,14.36,72.97
65275,2018-06-29 09:18:51.843750,22.19,72.97
65276,2018-06-29 09:18:51.875000,30.4,72.97
65277,2018-06-29 09:18:51.906250,39.25,72.97
65278,2018-06-29 09:18:51.937500,45.27,72.97
65279,2018-06-29 09:18:51.968750,47.17,72.97
65280,2018-06-29 09:18:52.000000,45.81,72.97
65281,2018-06-29 09:18:52.031250,39.61,72.97
65282,2018-06-29 09:18:52.062500,25.59,72.97
65283,2018-06-29 09:18:52.093750,5.73,72.97
65284,2018-06-29 09:18:52.125000,-13.48,72.97
65285,2018-06-29 09:18:52.156250,-28.2,72.97
65286,2018-06-29 09:18:52.187500,-38.77,72.97
65287,2018-06-29 09:18:52.218750,-45.53,72.97
65288,2018-06-29 09:18:52.250000,-49.09,72.97
65289,2018-06-29 09:18:52.281250,-51.24,72.97
65290,2018-06-29 09:18:52.312500,-50.14,72.97
65291,2018-06-29 09:18:52.343750,-38.83,72.97
65292,2018-06-29 09:18:52.375000,-13.29,72.97
65293,2018-06-29 09:18:52.406250,22.54,72.97
65294,2018-06-29 09:18:52.437500,60.55,72.97
65295,2018-06-29 09:18:52.468750,93.43,72.97
65296,2018-06-29 09:18:52.500000,115.92,72.97
65297,2018-06-29 09:18:52.531250,125.19,73.07
65298,2018-06-29 09:18:52.562500,122.37,73.07
65299,2018-06-29 09:18:52.593750,112.08,73.07
65300,2018-06-29 09:18:52.625000,99.69,73.07
65301,2018-06-29 09:18:52.656250,88.68,73.07
65302,2018-06-29 09:18:52.687500,79.97,73.07
65303,2018-06-29 09:18:52.718750,72.08,73.07
65304,2018-06-29 09:18:52.750000,62.42,73.07
65305,2018-06-29 09:18:52.781250,49.8,73.07
65306,2018-06-29 09:18:52.812500,34.73,73.07
65307,2018-06-29 09:18:52.843750,17.89,73.07
65308,2018-06-29 09:18:52.875000,0.68,73.07
65309,2018-06-29 09:18:52.906250,-14.78,73.07
65310,2018-06-29 09:18:52.937500,-28.18,73.07
65311,2018-06-29 09:18:52.968750,-41.59,73.07
65312,2018-06-29 09:18:53.000000,-57.02,73.07
65313,2018-06-29 09:18:53.031250,-75.84,73.07
65314,2018-06-29 09:18:53.062500,-98.44,73.07
65315,2018-06-29 09:18:53.093750,-119.65,73.07
65316,2018-06-29 09:18:53.125000,-128.51,73.07
65317,2018-06-29 09:18:53.156250,-118.33,73.07
65318,2018-06-29 09:18:53.187500,-94.17,73.07
65319,2018-06-29 09:18:53.218750,-66.6,73.07
65320,2018-06-29 09:18:53.250000,-43.09,73.07
65321,2018-06-29 09:18:53.281250,-28.07,73.07
65322,2018-06-29 09:18:53.312500,-24.32,73.07
65323,2018-06-29 09:18:53.343750,-29.46,73.07
65324,2018-06-29 09:18:53.375000,-36.37,73.07
65325,2018-06-29 09:18:53.406250,-39.43,73.07
65326,2018-06-29 09:18:53.437500,-37.48,73.07
65327,2018-06-29 09:18:53.468750,-31.37,73.07
65328,2018-06-29 09:18:53.500000,-22.78,73.07
65329,2018-06-29 09:18:53.531250,-14.24,73.13
65330,2018-06-29 09:18:53.562500,-7.54,73.13
65331,2018-06-29 09:18:53.593750,-3.64,73.13
65332,2018-06-29 09:18:53.625000,-3.15,73.13
65333,2018-06-29 09:18:53.656250,-4.43,73.13
65334,2018-06-29 09:18:53.687500,-4.16,73.13
65335,2018-06-29 09:18:53.718750,-2.11,73.13
65336,2018-06-29 09:18:53.750000,-2.01,73.13
65337,2018-06-29 09:18:53.781250,-7.36,73.13
65338,2018-06-29 09:18:53.812500,-18.39,73.13
65339,2018-06-29 09:18:53.843750,-29.96,73.13
65340,2018-06-29 09:18:53.875000,-32.16,73.13
65341,2018-06-29 09:18:53.906250,-18.93,73.13
65342,2018-06-29 09:18:53.937500,3.94,73.13
65343,2018-06-29 09:18:53.968750,24.86,73.13
65344,2018-06-29 09:18:54.000000,38.93,73.13
65345,2018-06-29 09:18:54.031250,48.9,73.13
65346,2018-06-29 09:18:54.062500,56.74,73.13
65347,2018-06-29 09:18:54.093750,60.77,73.13
65348,2018-06-29 09:18:54.125000,59.97,73.13
65349,2018-06-29 09:18:54.156250,56.65,73.13
65350,2018-06-29 09:18:54.187500,54.0,73.13
65351,2018-06-29 09:18:54.218750,53.22,73.13
65352,2018-06-29 09:18:54.250000,52.84,73.13
65353,2018-06-29 09:18:54.281250,50.2,73.13
65354,2018-06-29 09:18:54.312500,43.61,73.13
65355,2018-06-29 09:18:54.343750,33.95,73.13
65356,2018-06-29 09:18:54.375000,23.97,73.13
65357,2018-06-29 09:18:54.406250,15.28,73.13
65358,2018-06-29 09:18:54.437500,6.53,73.13
65359,2018-06-29 09:18:54.468750,-3.91,73.13
65360,2018-06-29 09:18:54.500000,-14.62,73.13
65361,2018-06-29 09:18:54.531250,-22.97,73.17
65362,2018-06-29 09:18:54.562500,-29.87,73.17
65363,2018-06-29 09:18:54.593750,-39.41,73.17
65364,2018-06-29 09:18:54.625000,-52.26,73.17
65365,2018-06-29 09:18:54.656250,-60.93,73.17
65366,2018-06-29 09:18:54.687500,-55.44,73.17
65367,2018-06-29 09:18:54.718750,-34.52,73.17
65368,2018-06-29 09:18:54.750000,-7.84,73.17
65369,2018-06-29 09:18:54.781250,14.49,73.17
65370,2018-06-29 09:18:54.812500,30.14,73.17
65371,2018-06-29 09:18:54.843750,41.33,73.17
65372,2018-06-29 09:18:54.875000,48.66,73.17
65373,2018-06-29 09:18:54.906250,51.51,73.17
65374,2018-06-29 09:18:54.937500,50.76,73.17
65375,2018-06-29 09:18:54.968750,47.73,73.17
65376,2018-06-29 09:18:55.000000,43.2,73.17
65377,2018-06-29 09:18:55.031250,39.23,73.17
65378,2018-06-29 09:18:55.062500,37.66,73.17
65379,2018-06-29 09:18:55.093750,36.6,73.17
65380,2018-06-29 09:18:55.125000,32.67,73.17
65381,2018-06-29 09:18:55.156250,25.88,73.17
65382,2018-06-29 09:18:55.187500,18.69,73.17
65383,2018-06-29 09:18:55.218750,12.0,73.17
65384,2018-06-29 09:18:55.250000,4.6,73.17
65385,2018-06-29 09:18:55.281250,-4.0,73.17
65386,2018-06-29 09:18:55.312500,-12.54,73.17
65387,2018-06-29 09:18:55.343750,-19.85,73.17
65388,2018-06-29 09:18:55.375000,-26.87,73.17
65389,2018-06-29 09:18:55.406250,-36.02,73.17
65390,2018-06-29 09:18:55.437500,-48.78,73.17
65391,2018-06-29 09:18:55.468750,-61.2,73.17
65392,2018-06-29 09:18:55.500000,-63.17,73.17
65393,2018-06-29 09:18:55.531250,-48.44,73.2
65394,2018-06-29 09:18:55.562500,-23.81,73.2
65395,2018-06-29 09:18:55.593750,-1.34,73.2
65396,2018-06-29 09:18:55.625000,14.34,73.2
65397,2018-06-29 09:18:55.656250,24.77,73.2
65398,2018-06-29 09:18:55.687500,30.59,73.2
65399,2018-06-29 09:18:55.718750,32.0,73.2
65400,2018-06-29 09:18:55.750000,31.14,73.2
65401,2018-06-29 09:18:55.781250,30.22,73.2
65402,2018-06-29 09:18:55.812500,29.89,73.2
65403,2018-06-29 09:18:55.843750,29.8,73.2
65404,2018-06-29 09:18:55.875000,29.79,73.2
65405,2018-06-29 09:18:55.906250,29.75,73.2
65406,2018-06-29 09:18:55.937500,28.51,73.2
65407,2018-06-29 09:18:55.968750,24.33,73.2
65408,2018-06-29 09:18:56.000000,17.7,73.2
65409,2018-06-29 09:18:56.031250,11.49,73.2
65410,2018-06-29 09:18:56.062500,7.25,73.2
65411,2018-06-29 09:18:56.093750,3.09,73.2
65412,2018-06-29 09:18:56.125000,-2.97,73.2
65413,2018-06-29 09:18:56.156250,-9.65,73.2
65414,2018-06-29 09:18:56.187500,-14.97,73.2
65415,2018-06-29 09:18:56.218750,-19.63,73.2
65416,2018-06-29 09:18:56.250000,-25.36,73.2
65417,2018-06-29 09:18:56.281250,-32.86,73.2
65418,2018-06-29 09:18:56.312500,-40.3,73.2
65419,2018-06-29 09:18:56.343750,-41.07,73.2
65420,2018-06-29 09:18:56.375000,-28.75,73.2
65421,2018-06-29 09:18:56.406250,-7.59,73.2
65422,2018-06-29 09:18:56.437500,10.11,73.2
65423,2018-06-29 09:18:56.468750,18.05,73.2
65424,2018-06-29 09:18:56.500000,20.72,73.2
65425,2018-06-29 09:18:56.531250,24.06,73.23
65426,2018-06-29 09:18:56.562500,27.39,73.23
65427,2018-06-29 09:18:56.593750,27.57,73.23
65428,2018-06-29 09:18:56.625000,27.04,73.23
65429,2018-06-29 09:18:56.656250,30.47,73.23
65430,2018-06-29 09:18:56.687500,36.94,73.23
65431,2018-06-29 09:18:56.718750,43.03,73.23
65432,2018-06-29 09:18:56.750000,48.61,73.23
65433,2018-06-29 09:18:56.781250,54.02,73.23
65434,2018-06-29 09:18:56.812500,57.79,73.23
65435,2018-06-29 09:18:56.843750,60.09,73.23
65436,2018-06-29 09:18:56.875000,63.32,73.23
65437,2018-06-29 09:18:56.906250,69.78,73.23
65438,2018-06-29 09:18:56.937500,79.97,73.23
65439,2018-06-29 09:18:56.968750,91.37,73.23
65440,2018-06-29 09:18:57.000000,101.22,73.23
65441,2018-06-29 09:18:57.031250,110.81,73.23
65442,2018-06-29 09:18:57.062500,121.58,73.23
65443,2018-06-29 09:18:57.093750,131.34,73.23
65444,2018-06-29 09:18:57.125000,140.69,73.23
65445,2018-06-29 09:18:57.156250,154.07,73.23
65446,2018-06-29 09:18:57.187500,166.56,73.23
65447,2018-06-29 09:18:57.218750,164.11,73.23
65448,2018-06-29 09:18:57.250000,143.96,73.23
65449,2018-06-29 09:18:57.281250,119.19,73.23
65450,2018-06-29 09:18:57.312500,98.97,73.23
65451,2018-06-29 09:18:57.343750,78.53,73.23
65452,2018-06-29 09:18:57.375000,48.89,73.23
65453,2018-06-29 09:18:57.406250,1.87,73.23
65454,2018-06-29 09:18:57.437500,-66.33,73.23
65455,2018-06-29 09:18:57.468750,-140.54,73.23
65456,2018-06-29 09:18:57.500000,-191.35,73.23
65457,2018-06-29 09:18:57.531250,-209.15,73.3
65458,2018-06-29 09:18:57.562500,-215.2,73.3
65459,2018-06-29 09:18:57.593750,-230.51,73.3
65460,2018-06-29 09:18:57.625000,-255.04,73.3
65461,2018-06-29 09:18:57.656250,-278.4,73.3
65462,2018-06-29 09:18:57.687500,-289.85,73.3
65463,2018-06-29 09:18:57.718750,-281.13,73.3
65464,2018-06-29 09:18:57.750000,-253.85,73.3
65465,2018-06-29 09:18:57.781250,-219.71,73.3
65466,2018-06-29 09:18:57.812500,-189.06,73.3
65467,2018-06-29 09:18:57.843750,-163.47,73.3
65468,2018-06-29 09:18:57.875000,-140.19,73.3
65469,2018-06-29 09:18:57.906250,-119.14,73.3
65470,2018-06-29 09:18:57.937500,-102.07,73.3
65471,2018-06-29 09:18:57.968750,-85.35,73.3
65472,2018-06-29 09:18:58.000000,-62.03,73.3
65473,2018-06-29 09:18:58.031250,-33.33,73.3
65474,2018-06-29 09:18:58.062500,-8.27,73.3
65475,2018-06-29 09:18:58.093750,9.25,73.3
65476,2018-06-29 09:18:58.125000,22.84,73.3
65477,2018-06-29 09:18:58.156250,33.79,73.3
65478,2018-06-29 09:18:58.187500,39.39,73.3
65479,2018-06-29 09:18:58.218750,39.86,73.3
65480,2018-06-29 09:18:58.250000,39.41,73.3
65481,2018-06-29 09:18:58.281250,40.82,73.3
65482,2018-06-29 09:18:58.312500,43.44,73.3
65483,2018-06-29 09:18:58.343750,46.23,73.3
65484,2018-06-29 09:18:58.375000,48.83,73.3
65485,2018-06-29 09:18:58.406250,49.32,73.3
65486,2018-06-29 09:18:58.437500,45.04,73.3
65487,2018-06-29 09:18:58.468750,36.47,73.3
65488,2018-06-29 09:18:58.500000,26.85,73.3
65489,2018-06-29 09:18:58.531250,18.77,73.33
65490,2018-06-29 09:18:58.562500,12.95,73.33
65491,2018-06-29 09:18:58.593750,9.79,73.33
65492,2018-06-29 09:18:58.625000,9.57,73.33
65493,2018-06-29 09:18:58.656250,11.67,73.33
65494,2018-06-29 09:18:58.687500,15.66,73.33
65495,2018-06-29 09:18:58.718750,24.57,73.33
65496,2018-06-29 09:18:58.750000,44.02,73.33
65497,2018-06-29 09:18:58.781250,74.06,73.33
65498,2018-06-29 09:18:58.812500,105.94,73.33
65499,2018-06-29 09:18:58.843750,131.74,73.33
65500,2018-06-29 09:18:58.875000,151.78,73.33
65501,2018-06-29 09:18:58.906250,168.88,73.33
65502,2018-06-29 09:18:58.937500,181.9,73.33
65503,2018-06-29 09:18:58.968750,188.95,73.33
65504,2018-06-29 09:18:59.000000,191.27,73.33
65505,2018-06-29 09:18:59.031250,189.31,73.33
65506,2018-06-29 09:18:59.062500,177.04,73.33
65507,2018-06-29 09:18:59.093750,146.58,73.33
65508,2018-06-29 09:18:59.125000,100.8,73.33
65509,2018-06-29 09:18:59.156250,54.47,73.33
65510,2018-06-29 09:18:59.187500,20.96,73.33
65511,2018-06-29 09:18:59.218750,3.22,73.33
65512,2018-06-29 09:18:59.250000,-3.21,73.33
65513,2018-06-29 09:18:59.281250,-5.77,73.33
65514,2018-06-29 09:18:59.312500,-13.23,73.33
65515,2018-06-29 09:18:59.343750,-30.42,73.33
65516,2018-06-29 09:18:59.375000,-54.21,73.33
65517,2018-06-29 09:18:59.406250,-78.13,73.33
65518,2018-06-29 09:18:59.437500,-97.61,73.33
65519,2018-06-29 09:18:59.468750,-108.03,73.33
65520,2018-06-29 09:18:59.500000,-104.82,73.33
65521,2018-06-29 09:18:59.531250,-90.18,73.4
65522,2018-06-29 09:18:59.562500,-72.95,73.4
65523,2018-06-29 09:18:59.593750,-59.08,73.4
65524,2018-06-29 09:18:59.625000,-48.92,73.4
65525,2018-06-29 09:18:59.656250,-43.82,73.4
65526,2018-06-29 09:18:59.687500,-46.73,73.4
65527,2018-06-29 09:18:59.718750,-55.14,73.4
65528,2018-06-29 09:18:59.750000,-62.03,73.4
65529,2018-06-29 09:18:59.781250,-65.38,73.4
65530,2018-06-29 09:18:59.812500,-68.93,73.4
65531,2018-06-29 09:18:59.843750,-72.64,73.4
65532,2018-06-29 09:18:59.875000,-72.59,73.4
65533,2018-06-29 09:18:59.906250,-69.88,73.4
65534,2018-06-29 09:18:59.937500,-69.09,73.4
65535,2018-06-29 09:18:59.968750,-69.35,73.4
65536,2018-06-29 09:19:00.000000,-66.02,73.4
65537,2018-06-29 09:19:00.031250,-60.01,73.4
65538,2018-06-29 09:19:00.062500,-58.72,73.4
65539,2018-06-29 09:19:00.093750,-68.26,73.4
65540,2018-06-29 09:19:00.125000,-85.3,73.4
65541,2018-06-29 09:19:00.156250,-96.07,73.4
65542,2018-06-29 09:19:00.187500,-88.52,73.4
65543,2018-06-29 09:19:00.218750,-66.69,73.4
65544,2018-06-29 09:19:00.250000,-45.73,73.4
65545,2018-06-29 09:19:00.281250,-33.35,73.4
65546,2018-06-29 09:19:00.312500,-25.9,73.4
65547,2018-06-29 09:19:00.343750,-20.46,73.4
65548,2018-06-29 09:19:00.375000,-19.08,73.4
65549,2018-06-29 09:19:00.406250,-22.06,73.4
65550,2018-06-29 09:19:00.437500,-26.52,73.4
65551,2018-06-29 09:19:00.468750,-31.38,73.4
65552,2018-06-29 09:19:00.500000,-37.58,73.4
65553,2018-06-29 09:19:00.531250,-43.44,73.52
65554,2018-06-29 09:19:00.562500,-44.03,73.52
65555,2018-06-29 09:19:00.593750,-37.17,73.52
65556,2018-06-29 09:19:00.625000,-27.11,73.52
65557,2018-06-29 09:19:00.656250,-20.06,73.52
65558,2018-06-29 09:19:00.687500,-20.38,73.52
65559,2018-06-29 09:19:00.718750,-30.97,73.52
65560,2018-06-29 09:19:00.750000,-51.74,73.52
65561,2018-06-29 09:19:00.781250,-79.51,73.52
65562,2018-06-29 09:19:00.812500,-111.04,73.52
65563,2018-06-29 09:19:00.843750,-139.47,73.52
65564,2018-06-29 09:19:00.875000,-151.31,73.52
65565,2018-06-29 09:19:00.906250,-140.14,73.52
65566,2018-06-29 09:19:00.937500,-119.53,73.52
65567,2018-06-29 09:19:00.968750,-108.83,73.52
65568,2018-06-29 09:19:01.000000,-110.99,73.52
65569,2018-06-29 09:19:01.031250,-113.75,73.52
65570,2018-06-29 09:19:01.062500,-108.44,73.52
65571,2018-06-29 09:19:01.093750,-100.6,73.52
65572,2018-06-29 09:19:01.125000,-99.93,73.52
65573,2018-06-29 09:19:01.156250,-103.48,73.52
65574,2018-06-29 09:19:01.187500,-96.49,73.52
65575,2018-06-29 09:19:01.218750,-69.05,73.52
65576,2018-06-29 09:19:01.250000,-23.83,73.52
65577,2018-06-29 09:19:01.281250,29.69,73.52
65578,2018-06-29 09:19:01.312500,80.11,73.52
65579,2018-06-29 09:19:01.343750,118.58,73.52
65580,2018-06-29 09:19:01.375000,144.52,73.52
65581,2018-06-29 09:19:01.406250,162.89,73.52
65582,2018-06-29 09:19:01.437500,174.95,73.52
65583,2018-06-29 09:19:01.468750,176.09,73.52
65584,2018-06-29 09:19:01.500000,163.45,73.52
65585,2018-06-29 09:19:01.531250,143.75,73.6
65586,2018-06-29 09:19:01.562500,130.68,73.6
65587,2018-06-29 09:19:01.593750,132.34,73.6
65588,2018-06-29 09:19:01.625000,144.2,73.6
65589,2018-06-29 09:19:01.656250,156.98,73.6
65590,2018-06-29 09:19:01.687500,166.22,73.6
65591,2018-06-29 09:19:01.718750,171.71,73.6
65592,2018-06-29 09:19:01.750000,172.68,73.6
65593,2018-06-29 09:19:01.781250,168.81,73.6
65594,2018-06-29 09:19:01.812500,163.19,73.6
65595,2018-06-29 09:19:01.843750,157.69,73.6
65596,2018-06-29 09:19:01.875000,147.78,73.6
65597,2018-06-29 09:19:01.906250,126.83,73.6
65598,2018-06-29 09:19:01.937500,92.59,73.6
65599,2018-06-29 09:19:01.968750,49.41,73.6
65600,2018-06-29 09:19:02.000000,6.94,73.6
65601,2018-06-29 09:19:02.031250,-27.22,73.6
65602,2018-06-29 09:19:02.062500,-55.27,73.6
65603,2018-06-29 09:19:02.093750,-84.31,73.6
65604,2018-06-29 09:19:02.125000,-118.07,73.6
65605,2018-06-29 09:19:02.156250,-158.94,73.6
65606,2018-06-29 09:19:02.187500,-205.24,73.6
65607,2018-06-29 09:19:02.218750,-240.2,73.6
65608,2018-06-29 09:19:02.250000,-240.36,73.6
65609,2018-06-29 09:19:02.281250,-201.94,73.6
65610,2018-06-29 09:19:02.312500,-145.39,73.6
65611,2018-06-29 09:19:02.343750,-90.89,73.6
65612,2018-06-29 09:19:02.375000,-42.82,73.6
65613,2018-06-29 09:19:02.406250,-1.05,73.6
65614,2018-06-29 09:19:02.437500,28.38,73.6
65615,2018-06-29 09:19:02.468750,42.15,73.6
65616,2018-06-29 09:19:02.500000,47.68,73.6
65617,2018-06-29 09:19:02.531250,52.51,73.73
65618,2018-06-29 09:19:02.562500,54.27,73.73
65619,2018-06-29 09:19:02.593750,49.02,73.73
65620,2018-06-29 09:19:02.625000,39.62,73.73
65621,2018-06-29 09:19:02.656250,29.47,73.73
65622,2018-06-29 09:19:02.687500,17.77,73.73
65623,2018-06-29 09:19:02.718750,3.48,73.73
65624,2018-06-29 09:19:02.750000,-12.43,73.73
65625,2018-06-29 09:19:02.781250,-29.97,73.73
65626,2018-06-29 09:19:02.812500,-51.26,73.73
65627,2018-06-29 09:19:02.843750,-75.89,73.73
65628,2018-06-29 09:19:02.875000,-95.21,73.73
65629,2018-06-29 09:19:02.906250,-97.58,73.73
65630,2018-06-29 09:19:02.937500,-81.53,73.73
65631,2018-06-29 09:19:02.968750,-57.06,73.73
65632,2018-06-29 09:19:03.000000,-33.63,73.73
65633,2018-06-29 09:19:03.031250,-14.47,73.73
65634,2018-06-29 09:19:03.062500,-1.87,73.73
65635,2018-06-29 09:19:03.093750,0.31,73.73
65636,2018-06-29 09:19:03.125000,-4.34,73.73
65637,2018-06-29 09:19:03.156250,-3.07,73.73
65638,2018-06-29 09:19:03.187500,11.08,73.73
65639,2018-06-29 09:19:03.218750,32.09,73.73
65640,2018-06-29 09:19:03.250000,53.59,73.73
65641,2018-06-29 09:19:03.281250,75.34,73.73
65642,2018-06-29 09:19:03.312500,93.98,73.73
65643,2018-06-29 09:19:03.343750,102.87,73.73
65644,2018-06-29 09:19:03.375000,101.54,73.73
65645,2018-06-29 09:19:03.406250,94.34,73.73
65646,2018-06-29 09:19:03.437500,84.2,73.73
65647,2018-06-29 09:19:03.468750,75.55,73.73
65648,2018-06-29 09:19:03.500000,73.34,73.73
65649,2018-06-29 09:19:03.531250,72.38,73.9
65650,2018-06-29 09:19:03.562500,62.15,73.9
65651,2018-06-29 09:19:03.593750,44.74,73.9
65652,2018-06-29 09:19:03.625000,30.72,73.9
65653,2018-06-29 09:19:03.656250,22.68,73.9
65654,2018-06-29 09:19:03.687500,19.49,73.9
65655,2018-06-29 09:19:03.718750,23.59,73.9
65656,2018-06-29 09:19:03.750000,31.56,73.9
65657,2018-06-29 09:19:03.781250,32.13,73.9
65658,2018-06-29 09:19:03.812500,22.65,73.9
65659,2018-06-29 09:19:03.843750,12.52,73.9
65660,2018-06-29 09:19:03.875000,8.36,73.9
65661,2018-06-29 09:19:03.906250,5.72,73.9
65662,2018-06-29 09:19:03.937500,-2.22,73.9
65663,2018-06-29 09:19:03.968750,-15.12,73.9
65664,2018-06-29 09:19:04.000000,-27.98,73.9
65665,2018-06-29 09:19:04.031250,-38.19,73.9
65666,2018-06-29 09:19:04.062500,-47.43,73.9
65667,2018-06-29 09:19:04.093750,-59.23,73.9
65668,2018-06-29 09:19:04.125000,-76.47,73.9
65669,2018-06-29 09:19:04.156250,-97.44,73.9
65670,2018-06-29 09:19:04.187500,-112.25,73.9
65671,2018-06-29 09:19:04.218750,-109.06,73.9
65672,2018-06-29 09:19:04.250000,-87.79,73.9
65673,2018-06-29 09:19:04.281250,-61.51,73.9
65674,2018-06-29 09:19:04.312500,-41.94,73.9
65675,2018-06-29 09:19:04.343750,-30.33,73.9
65676,2018-06-29 09:19:04.375000,-24.33,73.9
65677,2018-06-29 09:19:04.406250,-23.92,73.9
65678,2018-06-29 09:19:04.437500,-27.03,73.9
65679,2018-06-29 09:19:04.468750,-27.61,73.9
65680,2018-06-29 09:19:04.500000,-20.48,73.9
65681,2018-06-29 09:19:04.531250,-4.97,74.08
65682,2018-06-29 09:19:04.562500,14.41,74.08
65683,2018-06-29 09:19:04.593750,31.52,74.08
65684,2018-06-29 09:19:04.625000,44.64,74.08
65685,2018-06-29 09:19:04.656250,57.08,74.08
65686,2018-06-29 09:19:04.687500,70.28,74.08
65687,2018-06-29 09:19:04.718750,80.19,74.08
65688,2018-06-29 09:19:04.750000,80.75,74.08
65689,2018-06-29 09:19:04.781250,70.67,74.08
65690,2018-06-29 09:19:04.812500,61.11,74.08
65691,2018-06-29 09:19:04.843750,69.58,74.08
65692,2018-06-29 09:19:04.875000,95.95,74.08
65693,2018-06-29 09:19:04.906250,117.46,74.08
65694,2018-06-29 09:19:04.937500,117.7,74.08
65695,2018-06-29 09:19:04.968750,103.31,74.08
65696,2018-06-29 09:19:05.000000,85.82,74.08
65697,2018-06-29 09:19:05.031250,67.46,74.08
65698,2018-06-29 09:19:05.062500,47.9,74.08
65699,2018-06-29 09:19:05.093750,27.07,74.08
65700,2018-06-29 09:19:05.125000,4.96,74.08
65701,2018-06-29 09:19:05.156250,-12.51,74.08
65702,2018-06-29 09:19:05.187500,-18.22,74.08
65703,2018-06-29 09:19:05.218750,-16.58,74.08
65704,2018-06-29 09:19:05.250000,-19.01,74.08
65705,2018-06-29 09:19:05.281250,-29.09,74.08
65706,2018-06-29 09:19:05.312500,-40.69,74.08
65707,2018-06-29 09:19:05.343750,-47.52,74.08
65708,2018-06-29 09:19:05.375000,-49.67,74.08
65709,2018-06-29 09:19:05.406250,-53.32,74.08
65710,2018-06-29 09:19:05.437500,-65.76,74.08
65711,2018-06-29 09:19:05.468750,-86.87,74.08
65712,2018-06-29 09:19:05.500000,-103.65,74.08
65713,2018-06-29 09:19:05.531250,-100.46,74.25
65714,2018-06-29 09:19:05.562500,-77.83,74.25
65715,2018-06-29 09:19:05.593750,-50.7,74.25
65716,2018-06-29 09:19:05.625000,-27.53,74.25
65717,2018-06-29 09:19:05.656250,-5.61,74.25
65718,2018-06-29 09:19:05.687500,15.06,74.25
65719,2018-06-29 09:19:05.718750,30.01,74.25
65720,2018-06-29 09:19:05.750000,38.77,74.25
65721,2018-06-29 09:19:05.781250,44.97,74.25
65722,2018-06-29 09:19:05.812500,52.15,74.25
65723,2018-06-29 09:19:05.843750,63.05,74.25
65724,2018-06-29 09:19:05.875000,78.12,74.25
65725,2018-06-29 09:19:05.906250,92.84,74.25
65726,2018-06-29 09:19:05.937500,99.77,74.25
65727,2018-06-29 09:19:05.968750,95.48,74.25
65728,2018-06-29 09:19:06.000000,83.61,74.25
65729,2018-06-29 09:19:06.031250,69.54,74.25
65730,2018-06-29 09:19:06.062500,54.25,74.25
65731,2018-06-29 09:19:06.093750,36.65,74.25
65732,2018-06-29 09:19:06.125000,19.67,74.25
65733,2018-06-29 09:19:06.156250,9.51,74.25
65734,2018-06-29 09:19:06.187500,9.37,74.25
65735,2018-06-29 09:19:06.218750,16.9,74.25
65736,2018-06-29 09:19:06.250000,26.95,74.25
65737,2018-06-29 09:19:06.281250,34.99,74.25
65738,2018-06-29 09:19:06.312500,38.19,74.25
65739,2018-06-29 09:19:06.343750,36.09,74.25
65740,2018-06-29 09:19:06.375000,31.22,74.25
65741,2018-06-29 09:19:06.406250,26.18,74.25
65742,2018-06-29 09:19:06.437500,20.34,74.25
65743,2018-06-29 09:19:06.468750,13.12,74.25
65744,2018-06-29 09:19:06.500000,8.15,74.25
65745,2018-06-29 09:19:06.531250,8.37,74.42
65746,2018-06-29 09:19:06.562500,9.64,74.42
65747,2018-06-29 09:19:06.593750,5.81,74.42
65748,2018-06-29 09:19:06.625000,-3.7,74.42
65749,2018-06-29 09:19:06.656250,-15.97,74.42
65750,2018-06-29 09:19:06.687500,-28.88,74.42
65751,2018-06-29 09:19:06.718750,-40.33,74.42
65752,2018-06-29 09:19:06.750000,-50.9,74.42
65753,2018-06-29 09:19:06.781250,-63.95,74.42
65754,2018-06-29 09:19:06.812500,-73.9,74.42
65755,2018-06-29 09:19:06.843750,-65.2,74.42
65756,2018-06-29 09:19:06.875000,-34.91,74.42
65757,2018-06-29 09:19:06.906250,-0.53,74.42
65758,2018-06-29 09:19:06.937500,23.28,74.42
65759,2018-06-29 09:19:06.968750,37.96,74.42
65760,2018-06-29 09:19:07.000000,47.94,74.42
65761,2018-06-29 09:19:07.031250,52.44,74.42
65762,2018-06-29 09:19:07.062500,51.92,74.42
65763,2018-06-29 09:19:07.093750,50.59,74.42
65764,2018-06-29 09:19:07.125000,52.48,74.42
65765,2018-06-29 09:19:07.156250,59.83,74.42
65766,2018-06-29 09:19:07.187500,71.04,74.42
65767,2018-06-29 09:19:07.218750,77.58,74.42
65768,2018-06-29 09:19:07.250000,69.94,74.42
65769,2018-06-29 09:19:07.281250,47.82,74.42
65770,2018-06-29 09:19:07.312500,18.34,74.42
65771,2018-06-29 09:19:07.343750,-11.24,74.42
65772,2018-06-29 09:19:07.375000,-34.89,74.42
65773,2018-06-29 09:19:07.406250,-50.82,74.42
65774,2018-06-29 09:19:07.437500,-64.07,74.42
65775,2018-06-29 09:19:07.468750,-75.32,74.42
65776,2018-06-29 09:19:07.500000,-73.96,74.42
65777,2018-06-29 09:19:07.531250,-53.31,74.63
65778,2018-06-29 09:19:07.562500,-22.45,74.63
65779,2018-06-29 09:19:07.593750,4.28,74.63
65780,2018-06-29 09:19:07.625000,20.75,74.63
65781,2018-06-29 09:19:07.656250,29.15,74.63
65782,2018-06-29 09:19:07.687500,34.03,74.63
65783,2018-06-29 09:19:07.718750,38.07,74.63
65784,2018-06-29 09:19:07.750000,40.85,74.63
65785,2018-06-29 09:19:07.781250,41.61,74.63
65786,2018-06-29 09:19:07.812500,40.8,74.63
65787,2018-06-29 09:19:07.843750,38.78,74.63
65788,2018-06-29 09:19:07.875000,34.92,74.63
65789,2018-06-29 09:19:07.906250,27.97,74.63
65790,2018-06-29 09:19:07.937500,16.85,74.63
65791,2018-06-29 09:19:07.968750,2.44,74.63
65792,2018-06-29 09:19:08.000000,-11.31,74.63
65793,2018-06-29 09:19:08.031250,-21.58,74.63
65794,2018-06-29 09:19:08.062500,-31.13,74.63
65795,2018-06-29 09:19:08.093750,-44.49,74.63
65796,2018-06-29 09:19:08.125000,-59.22,74.63
65797,2018-06-29 09:19:08.156250,-66.39,74.63
65798,2018-06-29 09:19:08.187500,-60.57,74.63
65799,2018-06-29 09:19:08.218750,-44.88,74.63
65800,2018-06-29 09:19:08.250000,-27.07,74.63
65801,2018-06-29 09:19:08.281250,-12.3,74.63
65802,2018-06-29 09:19:08.312500,1.72,74.63
65803,2018-06-29 09:19:08.343750,18.92,74.63
65804,2018-06-29 09:19:08.375000,34.77,74.63
65805,2018-06-29 09:19:08.406250,41.28,74.63
65806,2018-06-29 09:19:08.437500,38.59,74.63
65807,2018-06-29 09:19:08.468750,31.88,74.63
65808,2018-06-29 09:19:08.500000,23.1,74.63
65809,2018-06-29 09:19:08.531250,13.13,74.87
65810,2018-06-29 09:19:08.562500,4.02,74.87
65811,2018-06-29 09:19:08.593750,-2.73,74.87
65812,2018-06-29 09:19:08.625000,-6.02,74.87
65813,2018-06-29 09:19:08.656250,-7.1,74.87
65814,2018-06-29 09:19:08.687500,-9.16,74.87
65815,2018-06-29 09:19:08.718750,-11.96,74.87
65816,2018-06-29 09:19:08.750000,-14.67,74.87
65817,2018-06-29 09:19:08.781250,-21.93,74.87
65818,2018-06-29 09:19:08.812500,-37.73,74.87
65819,2018-06-29 09:19:08.843750,-56.33,74.87
65820,2018-06-29 09:19:08.875000,-65.75,74.87
65821,2018-06-29 09:19:08.906250,-58.16,74.87
65822,2018-06-29 09:19:08.937500,-36.54,74.87
65823,2018-06-29 09:19:08.968750,-12.55,74.87
65824,2018-06-29 09:19:09.000000,4.56,74.87
65825,2018-06-29 09:19:09.031250,15.5,74.87
65826,2018-06-29 09:19:09.062500,25.09,74.87
65827,2018-06-29 09:19:09.093750,34.89,74.87
65828,2018-06-29 09:19:09.125000,43.33,74.87
65829,2018-06-29 09:19:09.156250,47.74,74.87
65830,2018-06-29 09:19:09.187500,45.88,74.87
65831,2018-06-29 09:19:09.218750,38.63,74.87
65832,2018-06-29 09:19:09.250000,29.53,74.87
65833,2018-06-29 09:19:09.281250,21.33,74.87
65834,2018-06-29 09:19:09.312500,15.52,74.87
65835,2018-06-29 09:19:09.343750,13.07,74.87
65836,2018-06-29 09:19:09.375000,12.52,74.87
65837,2018-06-29 09:19:09.406250,10.56,74.87
65838,2018-06-29 09:19:09.437500,6.44,74.87
65839,2018-06-29 09:19:09.468750,2.37,74.87
65840,2018-06-29 09:19:09.500000,-3.37,74.87
65841,2018-06-29 09:19:09.531250,-18.14,75.08
65842,2018-06-29 09:19:09.562500,-45.14,75.08
65843,2018-06-29 09:19:09.593750,-77.93,75.08
65844,2018-06-29 09:19:09.625000,-105.5,75.08
65845,2018-06-29 09:19:09.656250,-115.16,75.08
65846,2018-06-29 09:19:09.687500,-96.68,75.08
65847,2018-06-29 09:19:09.718750,-55.56,75.08
65848,2018-06-29 09:19:09.750000,-14.29,75.08
65849,2018-06-29 09:19:09.781250,9.37,75.08
65850,2018-06-29 09:19:09.812500,16.92,75.08
65851,2018-06-29 09:19:09.843750,17.84,75.08
65852,2018-06-29 09:19:09.875000,15.68,75.08
65853,2018-06-29 09:19:09.906250,10.34,75.08
65854,2018-06-29 09:19:09.937500,4.55,75.08
65855,2018-06-29 09:19:09.968750,1.12,75.08
65856,2018-06-29 09:19:10.000000,-0.45,75.08
65857,2018-06-29 09:19:10.031250,0.2,75.08
65858,2018-06-29 09:19:10.062500,7.59,75.08
65859,2018-06-29 09:19:10.093750,23.65,75.08
65860,2018-06-29 09:19:10.125000,40.09,75.08
65861,2018-06-29 09:19:10.156250,42.35,75.08
65862,2018-06-29 09:19:10.187500,25.16,75.08
65863,2018-06-29 09:19:10.218750,1.12,75.08
65864,2018-06-29 09:19:10.250000,-14.11,75.08
65865,2018-06-29 09:19:10.281250,-18.65,75.08
65866,2018-06-29 09:19:10.312500,-17.78,75.08
65867,2018-06-29 09:19:10.343750,-9.87,75.08
65868,2018-06-29 09:19:10.375000,7.84,75.08
65869,2018-06-29 09:19:10.406250,27.91,75.08
65870,2018-06-29 09:19:10.437500,38.82,75.08
65871,2018-06-29 09:19:10.468750,36.95,75.08
65872,2018-06-29 09:19:10.500000,26.02,75.08
65873,2018-06-29 09:19:10.531250,10.2,75.17
65874,2018-06-29 09:19:10.562500,-7.09,75.17
65875,2018-06-29 09:19:10.593750,-21.39,75.17
65876,2018-06-29 09:19:10.625000,-29.22,75.17
65877,2018-06-29 09:19:10.656250,-31.05,75.17
65878,2018-06-29 09:19:10.687500,-29.55,75.17
65879,2018-06-29 09:19:10.718750,-25.73,75.17
65880,2018-06-29 09:19:10.750000,-19.61,75.17
65881,2018-06-29 09:19:10.781250,-13.65,75.17
65882,2018-06-29 09:19:10.812500,-11.79,75.17
65883,2018-06-29 09:19:10.843750,-15.12,75.17
65884,2018-06-29 09:19:10.875000,-21.36,75.17
65885,2018-06-29 09:19:10.906250,-28.31,75.17
65886,2018-06-29 09:19:10.937500,-35.21,75.17
65887,2018-06-29 09:19:10.968750,-41.89,75.17
65888,2018-06-29 09:19:11.000000,-48.72,75.17
65889,2018-06-29 09:19:11.031250,-55.54,75.17
65890,2018-06-29 09:19:11.062500,-57.65,75.17
65891,2018-06-29 09:19:11.093750,-46.43,75.17
65892,2018-06-29 09:19:11.125000,-19.08,75.17
65893,2018-06-29 09:19:11.156250,15.24,75.17
65894,2018-06-29 09:19:11.187500,43.05,75.17
65895,2018-06-29 09:19:11.218750,58.12,75.17
65896,2018-06-29 09:19:11.250000,63.2,75.17
65897,2018-06-29 09:19:11.281250,63.39,75.17
65898,2018-06-29 09:19:11.312500,61.41,75.17
65899,2018-06-29 09:19:11.343750,57.21,75.17
65900,2018-06-29 09:19:11.375000,50.08,75.17
65901,2018-06-29 09:19:11.406250,40.24,75.17
65902,2018-06-29 09:19:11.437500,28.67,75.17
65903,2018-06-29 09:19:11.468750,16.49,75.17
65904,2018-06-29 09:19:11.500000,4.08,75.17
65905,2018-06-29 09:19:11.531250,-9.33,75.33
65906,2018-06-29 09:19:11.562500,-24.58,75.33
65907,2018-06-29 09:19:11.593750,-39.64,75.33
65908,2018-06-29 09:19:11.625000,-50.3,75.33
65909,2018-06-29 09:19:11.656250,-55.67,75.33
65910,2018-06-29 09:19:11.687500,-59.68,75.33
65911,2018-06-29 09:19:11.718750,-66.22,75.33
65912,2018-06-29 09:19:11.750000,-74.47,75.33
65913,2018-06-29 09:19:11.781250,-78.26,75.33
65914,2018-06-29 09:19:11.812500,-70.26,75.33
65915,2018-06-29 09:19:11.843750,-49.89,75.33
65916,2018-06-29 09:19:11.875000,-26.08,75.33
65917,2018-06-29 09:19:11.906250,-7.93,75.33
65918,2018-06-29 09:19:11.937500,3.65,75.33
65919,2018-06-29 09:19:11.968750,12.24,75.33
65920,2018-06-29 09:19:12.000000,20.07,75.33
65921,2018-06-29 09:19:12.031250,27.69,75.33
65922,2018-06-29 09:19:12.062500,33.88,75.33
65923,2018-06-29 09:19:12.093750,35.94,75.33
65924,2018-06-29 09:19:12.125000,33.53,75.33
65925,2018-06-29 09:19:12.156250,30.86,75.33
65926,2018-06-29 09:19:12.187500,31.46,75.33
65927,2018-06-29 09:19:12.218750,33.81,75.33
65928,2018-06-29 09:19:12.250000,33.89,75.33
65929,2018-06-29 09:19:12.281250,29.35,75.33
65930,2018-06-29 09:19:12.312500,19.89,75.33
65931,2018-06-29 09:19:12.343750,5.94,75.33
65932,2018-06-29 09:19:12.375000,-11.83,75.33
65933,2018-06-29 09:19:12.406250,-32.34,75.33
65934,2018-06-29 09:19:12.437500,-52.59,75.33
65935,2018-06-29 09:19:12.468750,-65.89,75.33
65936,2018-06-29 09:19:12.500000,-65.24,75.33
65937,2018-06-29 09:19:12.531250,-49.82,75.55
65938,2018-06-29 09:19:12.562500,-26.76,75.55
65939,2018-06-29 09:19:12.593750,-5.41,75.55
65940,2018-06-29 09:19:12.625000,8.93,75.55
65941,2018-06-29 09:19:12.656250,16.32,75.55
65942,2018-06-29 09:19:12.687500,19.07,75.55
65943,2018-06-29 09:19:12.718750,18.73,75.55
65944,2018-06-29 09:19:12.750000,17.64,75.55
65945,2018-06-29 09:19:12.781250,18.75,75.55
65946,2018-06-29 09:19:12.812500,21.73,75.55
65947,2018-06-29 09:19:12.843750,22.84,75.55
65948,2018-06-29 09:19:12.875000,20.23,75.55
65949,2018-06-29 09:19:12.906250,15.8,75.55
65950,2018-06-29 09:19:12.937500,10.4,75.55
65951,2018-06-29 09:19:12.968750,3.03,75.55
65952,2018-06-29 09:19:13.000000,-5.03,75.55
65953,2018-06-29 09:19:13.031250,-9.87,75.55
65954,2018-06-29 09:19:13.062500,-10.84,75.55
65955,2018-06-29 09:19:13.093750,-12.76,75.55
65956,2018-06-29 09:19:13.125000,-17.89,75.55
65957,2018-06-29 09:19:13.156250,-18.89,75.55
65958,2018-06-29 09:19:13.187500,-7.14,75.55
65959,2018-06-29 09:19:13.218750,12.55,75.55
65960,2018-06-29 09:19:13.250000,26.17,75.55
65961,2018-06-29 09:19:13.281250,28.74,75.55
65962,2018-06-29 09:19:13.312500,25.97,75.55
65963,2018-06-29 09:19:13.343750,20.35,75.55
65964,2018-06-29 09:19:13.375000,10.34,75.55
65965,2018-06-29 09:19:13.406250,-0.02,75.55
65966,2018-06-29 09:19:13.437500,-5.04,75.55
65967,2018-06-29 09:19:13.468750,-5.18,75.55
65968,2018-06-29 09:19:13.500000,-3.75,75.55
65969,2018-06-29 09:19:13.531250,-1.33,75.82
65970,2018-06-29 09:19:13.562500,2.46,75.82
65971,2018-06-29 09:19:13.593750,5.66,75.82
65972,2018-06-29 09:19:13.625000,5.82,75.82
65973,2018-06-29 09:19:13.656250,3.17,75.82
65974,2018-06-29 09:19:13.687500,-0.02,75.82
65975,2018-06-29 09:19:13.718750,-3.9,75.82
65976,2018-06-29 09:19:13.750000,-13.41,75.82
65977,2018-06-29 09:19:13.781250,-31.17,75.82
65978,2018-06-29 09:19:13.812500,-49.35,75.82
65979,2018-06-29 09:19:13.843750,-53.65,75.82
65980,2018-06-29 09:19:13.875000,-38.17,75.82
65981,2018-06-29 09:19:13.906250,-11.63,75.82
65982,2018-06-29 09:19:13.937500,12.2,75.82
65983,2018-06-29 09:19:13.968750,26.4,75.82
65984,2018-06-29 09:19:14.000000,34.41,75.82
65985,2018-06-29 09:19:14.031250,44.07,75.82
65986,2018-06-29 09:19:14.062500,56.06,75.82
65987,2018-06-29 09:19:14.093750,62.26,75.82
65988,2018-06-29 09:19:14.125000,56.78,75.82
65989,2018-06-29 09:19:14.156250,42.04,75.82
65990,2018-06-29 09:19:14.187500,24.54,75.82
65991,2018-06-29 09:19:14.218750,9.71,75.82
65992,2018-06-29 09:19:14.250000,-1.64,75.82
65993,2018-06-29 09:19:14.281250,-12.7,75.82
65994,2018-06-29 09:19:14.312500,-25.1,75.82
65995,2018-06-29 09:19:14.343750,-36.24,75.82
65996,2018-06-29 09:19:14.375000,-43.79,75.82
65997,2018-06-29 09:19:14.406250,-48.9,75.82
65998,2018-06-29 09:19:14.437500,-54.96,75.82
65999,2018-06-29 09:19:14.468750,-63.12,75.82
66000,2018-06-29 09:19:14.500000,-65.64,75.82
66001,2018-06-29 09:19:14.531250,-51.26,76.05
66002,2018-06-29 09:19:14.562500,-22.21,76.05
66003,2018-06-29 09:19:14.593750,5.36,76.05
66004,2018-06-29 09:19:14.625000,21.28,76.05
66005,2018-06-29 09:19:14.656250,27.82,76.05
66006,2018-06-29 09:19:14.687500,28.55,76.05
66007,2018-06-29 09:19:14.718750,26.08,76.05
66008,2018-06-29 09:19:14.750000,25.15,76.05
66009,2018-06-29 09:19:14.781250,27.07,76.05
66010,2018-06-29 09:19:14.812500,27.31,76.05
66011,2018-06-29 09:19:14.843750,23.3,76.05
66012,2018-06-29 09:19:14.875000,18.86,76.05
66013,2018-06-29 09:19:14.906250,18.58,76.05
66014,2018-06-29 09:19:14.937500,22.81,76.05
66015,2018-06-29 09:19:14.968750,26.68,76.05
66016,2018-06-29 09:19:15.000000,23.81,76.05
66017,2018-06-29 09:19:15.031250,12.76,76.05
66018,2018-06-29 09:19:15.062500,-2.45,76.05
66019,2018-06-29 09:19:15.093750,-19.32,76.05
66020,2018-06-29 09:19:15.125000,-37.89,76.05
66021,2018-06-29 09:19:15.156250,-52.41,76.05
66022,2018-06-29 09:19:15.187500,-51.85,76.05
66023,2018-06-29 09:19:15.218750,-33.25,76.05
66024,2018-06-29 09:19:15.250000,-7.67,76.05
66025,2018-06-29 09:19:15.281250,11.62,76.05
66026,2018-06-29 09:19:15.312500,22.54,76.05
66027,2018-06-29 09:19:15.343750,28.9,76.05
66028,2018-06-29 09:19:15.375000,29.79,76.05
66029,2018-06-29 09:19:15.406250,23.41,76.05
66030,2018-06-29 09:19:15.437500,14.66,76.05
66031,2018-06-29 09:19:15.468750,9.01,76.05
66032,2018-06-29 09:19:15.500000,5.45,76.05
66033,2018-06-29 09:19:15.531250,1.61,76.27
66034,2018-06-29 09:19:15.562500,-1.59,76.27
66035,2018-06-29 09:19:15.593750,-3.17,76.27
66036,2018-06-29 09:19:15.625000,-4.53,76.27
66037,2018-06-29 09:19:15.656250,-6.36,76.27
66038,2018-06-29 09:19:15.687500,-7.67,76.27
66039,2018-06-29 09:19:15.718750,-11.84,76.27
66040,2018-06-29 09:19:15.750000,-25.05,76.27
66041,2018-06-29 09:19:15.781250,-42.33,76.27
66042,2018-06-29 09:19:15.812500,-46.03,76.27
66043,2018-06-29 09:19:15.843750,-27.47,76.27
66044,2018-06-29 09:19:15.875000,0.99,76.27
66045,2018-06-29 09:19:15.906250,23.04,76.27
66046,2018-06-29 09:19:15.937500,34.01,76.27
66047,2018-06-29 09:19:15.968750,36.53,76.27
66048,2018-06-29 09:19:16.000000,33.47,76.27
66049,2018-06-29 09:19:16.031250,28.0,76.27
66050,2018-06-29 09:19:16.062500,23.01,76.27
66051,2018-06-29 09:19:16.093750,18.04,76.27
66052,2018-06-29 09:19:16.125000,11.34,76.27
66053,2018-06-29 09:19:16.156250,4.43,76.27
66054,2018-06-29 09:19:16.187500,0.13,76.27
66055,2018-06-29 09:19:16.218750,-2.91,76.27
66056,2018-06-29 09:19:16.250000,-8.44,76.27
66057,2018-06-29 09:19:16.281250,-15.65,76.27
66058,2018-06-29 09:19:16.312500,-20.21,76.27
66059,2018-06-29 09:19:16.343750,-21.69,76.27
66060,2018-06-29 09:19:16.375000,-24.33,76.27
66061,2018-06-29 09:19:16.406250,-30.46,76.27
66062,2018-06-29 09:19:16.437500,-38.54,76.27
66063,2018-06-29 09:19:16.468750,-45.08,76.27
66064,2018-06-29 09:19:16.500000,-43.35,76.27
66065,2018-06-29 09:19:16.531250,-27.17,76.5
66066,2018-06-29 09:19:16.562500,-1.29,76.5
66067,2018-06-29 09:19:16.593750,20.43,76.5
66068,2018-06-29 09:19:16.625000,30.89,76.5
66069,2018-06-29 09:19:16.656250,34.14,76.5
66070,2018-06-29 09:19:16.687500,34.95,76.5
66071,2018-06-29 09:19:16.718750,35.49,76.5
66072,2018-06-29 09:19:16.750000,37.99,76.5
66073,2018-06-29 09:19:16.781250,41.15,76.5
66074,2018-06-29 09:19:16.812500,39.65,76.5
66075,2018-06-29 09:19:16.843750,31.74,76.5
66076,2018-06-29 09:19:16.875000,21.41,76.5
66077,2018-06-29 09:19:16.906250,11.4,76.5
66078,2018-06-29 09:19:16.937500,0.92,76.5
66079,2018-06-29 09:19:16.968750,-10.04,76.5
66080,2018-06-29 09:19:17.000000,-20.13,76.5
66081,2018-06-29 09:19:17.031250,-29.71,76.5
66082,2018-06-29 09:19:17.062500,-40.76,76.5
66083,2018-06-29 09:19:17.093750,-53.32,76.5
66084,2018-06-29 09:19:17.125000,-62.47,76.5
66085,2018-06-29 09:19:17.156250,-60.59,76.5
66086,2018-06-29 09:19:17.187500,-45.65,76.5
66087,2018-06-29 09:19:17.218750,-24.95,76.5
66088,2018-06-29 09:19:17.250000,-6.5,76.5
66089,2018-06-29 09:19:17.281250,7.55,76.5
66090,2018-06-29 09:19:17.312500,15.96,76.5
66091,2018-06-29 09:19:17.343750,17.31,76.5
66092,2018-06-29 09:19:17.375000,14.87,76.5
66093,2018-06-29 09:19:17.406250,13.37,76.5
66094,2018-06-29 09:19:17.437500,13.44,76.5
66095,2018-06-29 09:19:17.468750,13.98,76.5
66096,2018-06-29 09:19:17.500000,15.36,76.5
66097,2018-06-29 09:19:17.531250,17.86,76.73
66098,2018-06-29 09:19:17.562500,20.42,76.73
66099,2018-06-29 09:19:17.593750,21.51,76.73
66100,2018-06-29 09:19:17.625000,21.0,76.73
66101,2018-06-29 09:19:17.656250,21.14,76.73
66102,2018-06-29 09:19:17.687500,20.8,76.73
66103,2018-06-29 09:19:17.718750,12.29,76.73
66104,2018-06-29 09:19:17.750000,-7.97,76.73
66105,2018-06-29 09:19:17.781250,-30.71,76.73
66106,2018-06-29 09:19:17.812500,-43.74,76.73
66107,2018-06-29 09:19:17.843750,-44.21,76.73
66108,2018-06-29 09:19:17.875000,-37.19,76.73
66109,2018-06-29 09:19:17.906250,-27.14,76.73
66110,2018-06-29 09:19:17.937500,-13.95,76.73
66111,2018-06-29 09:19:17.968750,3.17,76.73
66112,2018-06-29 09:19:18.000000,18.26,76.73
66113,2018-06-29 09:19:18.031250,24.2,76.73
66114,2018-06-29 09:19:18.062500,24.45,76.73
66115,2018-06-29 09:19:18.093750,25.58,76.73
66116,2018-06-29 09:19:18.125000,24.83,76.73
66117,2018-06-29 09:19:18.156250,19.45,76.73
66118,2018-06-29 09:19:18.187500,14.94,76.73
66119,2018-06-29 09:19:18.218750,11.89,76.73
66120,2018-06-29 09:19:18.250000,2.73,76.73
66121,2018-06-29 09:19:18.281250,-11.13,76.73
66122,2018-06-29 09:19:18.312500,-19.31,76.73
66123,2018-06-29 09:19:18.343750,-20.73,76.73
66124,2018-06-29 09:19:18.375000,-23.0,76.73
66125,2018-06-29 09:19:18.406250,-26.86,76.73
66126,2018-06-29 09:19:18.437500,-25.75,76.73
66127,2018-06-29 09:19:18.468750,-15.81,76.73
66128,2018-06-29 09:19:18.500000,1.32,76.73
66129,2018-06-29 09:19:18.531250,19.61,76.95
66130,2018-06-29 09:19:18.562500,31.88,76.95
66131,2018-06-29 09:19:18.593750,36.2,76.95
66132,2018-06-29 09:19:18.625000,35.77,76.95
66133,2018-06-29 09:19:18.656250,32.59,76.95
66134,2018-06-29 09:19:18.687500,26.28,76.95
66135,2018-06-29 09:19:18.718750,16.74,76.95
66136,2018-06-29 09:19:18.750000,6.09,76.95
66137,2018-06-29 09:19:18.781250,-1.22,76.95
66138,2018-06-29 09:19:18.812500,-3.57,76.95
66139,2018-06-29 09:19:18.843750,-5.22,76.95
66140,2018-06-29 09:19:18.875000,-8.53,76.95
66141,2018-06-29 09:19:18.906250,-11.86,76.95
66142,2018-06-29 09:19:18.937500,-15.96,76.95
66143,2018-06-29 09:19:18.968750,-21.78,76.95
66144,2018-06-29 09:19:19.000000,-27.61,76.95
66145,2018-06-29 09:19:19.031250,-35.39,76.95
66146,2018-06-29 09:19:19.062500,-48.65,76.95
66147,2018-06-29 09:19:19.093750,-60.47,76.95
66148,2018-06-29 09:19:19.125000,-58.21,76.95
66149,2018-06-29 09:19:19.156250,-40.14,76.95
66150,2018-06-29 09:19:19.187500,-14.79,76.95
66151,2018-06-29 09:19:19.218750,10.32,76.95
66152,2018-06-29 09:19:19.250000,30.99,76.95
66153,2018-06-29 09:19:19.281250,44.84,76.95
66154,2018-06-29 09:19:19.312500,51.5,76.95
66155,2018-06-29 09:19:19.343750,51.1,76.95
66156,2018-06-29 09:19:19.375000,44.88,76.95
66157,2018-06-29 09:19:19.406250,37.38,76.95
66158,2018-06-29 09:19:19.437500,31.74,76.95
66159,2018-06-29 09:19:19.468750,26.84,76.95
66160,2018-06-29 09:19:19.500000,21.12,76.95
66161,2018-06-29 09:19:19.531250,12.61,77.2
66162,2018-06-29 09:19:19.562500,-1.28,77.2
66163,2018-06-29 09:19:19.593750,-18.89,77.2
66164,2018-06-29 09:19:19.625000,-36.02,77.2
66165,2018-06-29 09:19:19.656250,-51.75,77.2
66166,2018-06-29 09:19:19.687500,-65.88,77.2
66167,2018-06-29 09:19:19.718750,-74.16,77.2
66168,2018-06-29 09:19:19.750000,-71.31,77.2
66169,2018-06-29 09:19:19.781250,-56.23,77.2
66170,2018-06-29 09:19:19.812500,-33.44,77.2
66171,2018-06-29 09:19:19.843750,-10.6,77.2
66172,2018-06-29 09:19:19.875000,7.31,77.2
66173,2018-06-29 09:19:19.906250,20.01,77.2
66174,2018-06-29 09:19:19.937500,27.48,77.2
66175,2018-06-29 09:19:19.968750,29.26,77.2
66176,2018-06-29 09:19:20.000000,27.34,77.2
66177,2018-06-29 09:19:20.031250,24.62,77.2
66178,2018-06-29 09:19:20.062500,21.84,77.2
66179,2018-06-29 09:19:20.093750,19.1,77.2
66180,2018-06-29 09:19:20.125000,17.69,77.2
66181,2018-06-29 09:19:20.156250,18.13,77.2
66182,2018-06-29 09:19:20.187500,18.13,77.2
66183,2018-06-29 09:19:20.218750,13.6,77.2
66184,2018-06-29 09:19:20.250000,4.15,77.2
66185,2018-06-29 09:19:20.281250,-6.14,77.2
66186,2018-06-29 09:19:20.312500,-15.36,77.2
66187,2018-06-29 09:19:20.343750,-23.05,77.2
66188,2018-06-29 09:19:20.375000,-24.22,77.2
66189,2018-06-29 09:19:20.406250,-14.7,77.2
66190,2018-06-29 09:19:20.437500,-0.51,77.2
66191,2018-06-29 09:19:20.468750,9.5,77.2
66192,2018-06-29 09:19:20.500000,14.86,77.2
66193,2018-06-29 09:19:20.531250,18.29,77.45
66194,2018-06-29 09:19:20.562500,18.04,77.45
66195,2018-06-29 09:19:20.593750,12.83,77.45
66196,2018-06-29 09:19:20.625000,7.87,77.45
66197,2018-06-29 09:19:20.656250,7.39,77.45
66198,2018-06-29 09:19:20.687500,8.1,77.45
66199,2018-06-29 09:19:20.718750,6.81,77.45
66200,2018-06-29 09:19:20.750000,4.62,77.45
66201,2018-06-29 09:19:20.781250,0.5,77.45
66202,2018-06-29 09:19:20.812500,-8.22,77.45
66203,2018-06-29 09:19:20.843750,-17.04,77.45
66204,2018-06-29 09:19:20.875000,-19.44,77.45
66205,2018-06-29 09:19:20.906250,-20.2,77.45
66206,2018-06-29 09:19:20.937500,-28.81,77.45
66207,2018-06-29 09:19:20.968750,-43.22,77.45
66208,2018-06-29 09:19:21.000000,-52.29,77.45
66209,2018-06-29 09:19:21.031250,-48.26,77.45
66210,2018-06-29 09:19:21.062500,-29.35,77.45
66211,2018-06-29 09:19:21.093750,0.43,77.45
66212,2018-06-29 09:19:21.125000,28.88,77.45
66213,2018-06-29 09:19:21.156250,45.0,77.45
66214,2018-06-29 09:19:21.187500,49.81,77.45
66215,2018-06-29 09:19:21.218750,51.36,77.45
66216,2018-06-29 09:19:21.250000,54.86,77.45
66217,2018-06-29 09:19:21.281250,60.11,77.45
66218,2018-06-29 09:19:21.312500,62.36,77.45
66219,2018-06-29 09:19:21.343750,57.44,77.45
66220,2018-06-29 09:19:21.375000,47.92,77.45
66221,2018-06-29 09:19:21.406250,39.37,77.45
66222,2018-06-29 09:19:21.437500,31.92,77.45
66223,2018-06-29 09:19:21.468750,22.85,77.45
66224,2018-06-29 09:19:21.500000,14.85,77.45
66225,2018-06-29 09:19:21.531250,13.28,77.7
66226,2018-06-29 09:19:21.562500,16.7,77.7
66227,2018-06-29 09:19:21.593750,17.8,77.7
66228,2018-06-29 09:19:21.625000,15.12,77.7
66229,2018-06-29 09:19:21.656250,20.11,77.7
66230,2018-06-29 09:19:21.687500,46.0,77.7
66231,2018-06-29 09:19:21.718750,88.87,77.7
66232,2018-06-29 09:19:21.750000,128.51,77.7
66233,2018-06-29 09:19:21.781250,148.47,77.7
66234,2018-06-29 09:19:21.812500,148.04,77.7
66235,2018-06-29 09:19:21.843750,134.36,77.7
66236,2018-06-29 09:19:21.875000,110.65,77.7
66237,2018-06-29 09:19:21.906250,73.4,77.7
66238,2018-06-29 09:19:21.937500,21.28,77.7
66239,2018-06-29 09:19:21.968750,-33.02,77.7
66240,2018-06-29 09:19:22.000000,-74.35,77.7
66241,2018-06-29 09:19:22.031250,-108.17,77.7
66242,2018-06-29 09:19:22.062500,-148.41,77.7
66243,2018-06-29 09:19:22.093750,-185.78,77.7
66244,2018-06-29 09:19:22.125000,-196.93,77.7
66245,2018-06-29 09:19:22.156250,-180.73,77.7
66246,2018-06-29 09:19:22.187500,-158.73,77.7
66247,2018-06-29 09:19:22.218750,-146.38,77.7
66248,2018-06-29 09:19:22.250000,-142.69,77.7
66249,2018-06-29 09:19:22.281250,-139.32,77.7
66250,2018-06-29 09:19:22.312500,-127.66,77.7
66251,2018-06-29 09:19:22.343750,-102.94,77.7
66252,2018-06-29 09:19:22.375000,-68.72,77.7
66253,2018-06-29 09:19:22.406250,-35.07,77.7
66254,2018-06-29 09:19:22.437500,-10.76,77.7
66255,2018-06-29 09:19:22.468750,3.05,77.7
66256,2018-06-29 09:19:22.500000,10.82,77.7
66257,2018-06-29 09:19:22.531250,15.25,77.95
66258,2018-06-29 09:19:22.562500,15.72,77.95
66259,2018-06-29 09:19:22.593750,13.92,77.95
66260,2018-06-29 09:19:22.625000,14.03,77.95
66261,2018-06-29 09:19:22.656250,16.48,77.95
66262,2018-06-29 09:19:22.687500,17.15,77.95
66263,2018-06-29 09:19:22.718750,13.06,77.95
66264,2018-06-29 09:19:22.750000,5.5,77.95
66265,2018-06-29 09:19:22.781250,-1.96,77.95
66266,2018-06-29 09:19:22.812500,-7.47,77.95
66267,2018-06-29 09:19:22.843750,-12.8,77.95
66268,2018-06-29 09:19:22.875000,-18.86,77.95
66269,2018-06-29 09:19:22.906250,-20.33,77.95
66270,2018-06-29 09:19:22.937500,-9.29,77.95
66271,2018-06-29 09:19:22.968750,15.28,77.95
66272,2018-06-29 09:19:23.000000,44.38,77.95
66273,2018-06-29 09:19:23.031250,67.88,77.95
66274,2018-06-29 09:19:23.062500,82.56,77.95
66275,2018-06-29 09:19:23.093750,89.42,77.95
66276,2018-06-29 09:19:23.125000,87.06,77.95
66277,2018-06-29 09:19:23.156250,73.92,77.95
66278,2018-06-29 09:19:23.187500,53.76,77.95
66279,2018-06-29 09:19:23.218750,33.24,77.95
66280,2018-06-29 09:19:23.250000,15.56,77.95
66281,2018-06-29 09:19:23.281250,0.39,77.95
66282,2018-06-29 09:19:23.312500,-12.62,77.95
66283,2018-06-29 09:19:23.343750,-23.45,77.95
66284,2018-06-29 09:19:23.375000,-32.67,77.95
66285,2018-06-29 09:19:23.406250,-40.94,77.95
66286,2018-06-29 09:19:23.437500,-48.78,77.95
66287,2018-06-29 09:19:23.468750,-57.7,77.95
66288,2018-06-29 09:19:23.500000,-69.09,77.95
66289,2018-06-29 09:19:23.531250,-79.18,78.23
66290,2018-06-29 09:19:23.562500,-78.52,78.23
66291,2018-06-29 09:19:23.593750,-61.57,78.23
66292,2018-06-29 09:19:23.625000,-34.84,78.23
66293,2018-06-29 09:19:23.656250,-9.95,78.23
66294,2018-06-29 09:19:23.687500,8.45,78.23
66295,2018-06-29 09:19:23.718750,22.45,78.23
66296,2018-06-29 09:19:23.750000,33.4,78.23
66297,2018-06-29 09:19:23.781250,41.1,78.23
66298,2018-06-29 09:19:23.812500,45.79,78.23
66299,2018-06-29 09:19:23.843750,45.89,78.23
66300,2018-06-29 09:19:23.875000,39.18,78.23
66301,2018-06-29 09:19:23.906250,29.23,78.23
66302,2018-06-29 09:19:23.937500,23.44,78.23
66303,2018-06-29 09:19:23.968750,22.37,78.23
66304,2018-06-29 09:19:24.000000,18.72,78.23
66305,2018-06-29 09:19:24.031250,7.63,78.23
66306,2018-06-29 09:19:24.062500,-8.52,78.23
66307,2018-06-29 09:19:24.093750,-26.06,78.23
66308,2018-06-29 09:19:24.125000,-44.29,78.23
66309,2018-06-29 09:19:24.156250,-60.34,78.23
66310,2018-06-29 09:19:24.187500,-65.31,78.23
66311,2018-06-29 09:19:24.218750,-53.57,78.23
66312,2018-06-29 09:19:24.250000,-30.93,78.23
66313,2018-06-29 09:19:24.281250,-6.17,78.23
66314,2018-06-29 09:19:24.312500,17.14,78.23
66315,2018-06-29 09:19:24.343750,34.95,78.23
66316,2018-06-29 09:19:24.375000,40.36,78.23
66317,2018-06-29 09:19:24.406250,33.35,78.23
66318,2018-06-29 09:19:24.437500,23.02,78.23
66319,2018-06-29 09:19:24.468750,16.88,78.23
66320,2018-06-29 09:19:24.500000,14.82,78.23
66321,2018-06-29 09:19:24.531250,12.9,78.52
66322,2018-06-29 09:19:24.562500,8.08,78.52
66323,2018-06-29 09:19:24.593750,0.47,78.52
66324,2018-06-29 09:19:24.625000,-6.75,78.52
66325,2018-06-29 09:19:24.656250,-9.75,78.52
66326,2018-06-29 09:19:24.687500,-8.35,78.52
66327,2018-06-29 09:19:24.718750,-8.89,78.52
66328,2018-06-29 09:19:24.750000,-19.28,78.52
66329,2018-06-29 09:19:24.781250,-35.76,78.52
66330,2018-06-29 09:19:24.812500,-40.3,78.52
66331,2018-06-29 09:19:24.843750,-22.04,78.52
66332,2018-06-29 09:19:24.875000,7.53,78.52
66333,2018-06-29 09:19:24.906250,30.38,78.52
66334,2018-06-29 09:19:24.937500,41.54,78.52
66335,2018-06-29 09:19:24.968750,45.16,78.52
66336,2018-06-29 09:19:25.000000,43.96,78.52
66337,2018-06-29 09:19:25.031250,38.78,78.52
66338,2018-06-29 09:19:25.062500,31.49,78.52
66339,2018-06-29 09:19:25.093750,24.76,78.52
66340,2018-06-29 09:19:25.125000,20.0,78.52
66341,2018-06-29 09:19:25.156250,15.77,78.52
66342,2018-06-29 09:19:25.187500,10.0,78.52
66343,2018-06-29 09:19:25.218750,3.39,78.52
66344,2018-06-29 09:19:25.250000,-1.67,78.52
66345,2018-06-29 09:19:25.281250,-4.72,78.52
66346,2018-06-29 09:19:25.312500,-7.89,78.52
66347,2018-06-29 09:19:25.343750,-14.45,78.52
66348,2018-06-29 09:19:25.375000,-27.04,78.52
66349,2018-06-29 09:19:25.406250,-43.57,78.52
66350,2018-06-29 09:19:25.437500,-54.09,78.52
66351,2018-06-29 09:19:25.468750,-46.95,78.52
66352,2018-06-29 09:19:25.500000,-21.12,78.52
66353,2018-06-29 09:19:25.531250,11.32,78.82
66354,2018-06-29 09:19:25.562500,37.66,78.82
66355,2018-06-29 09:19:25.593750,54.72,78.82
66356,2018-06-29 09:19:25.625000,64.86,78.82
66357,2018-06-29 09:19:25.656250,68.71,78.82
66358,2018-06-29 09:19:25.687500,66.94,78.82
66359,2018-06-29 09:19:25.718750,62.23,78.82
66360,2018-06-29 09:19:25.750000,55.01,78.82
66361,2018-06-29 09:19:25.781250,43.35,78.82
66362,2018-06-29 09:19:25.812500,28.13,78.82
66363,2018-06-29 09:19:25.843750,13.29,78.82
66364,2018-06-29 09:19:25.875000,0.52,78.82
66365,2018-06-29 09:19:25.906250,-11.56,78.82
66366,2018-06-29 09:19:25.937500,-24.06,78.82
66367,2018-06-29 09:19:25.968750,-36.54,78.82
66368,2018-06-29 09:19:26.000000,-48.96,78.82
66369,2018-06-29 09:19:26.031250,-61.66,78.82
66370,2018-06-29 09:19:26.062500,-69.9,78.82
66371,2018-06-29 09:19:26.093750,-64.09,78.82
66372,2018-06-29 09:19:26.125000,-41.61,78.82
66373,2018-06-29 09:19:26.156250,-13.3,78.82
66374,2018-06-29 09:19:26.187500,8.64,78.82
66375,2018-06-29 09:19:26.218750,21.91,78.82
66376,2018-06-29 09:19:26.250000,28.73,78.82
66377,2018-06-29 09:19:26.281250,28.46,78.82
66378,2018-06-29 09:19:26.312500,22.27,78.82
66379,2018-06-29 09:19:26.343750,17.06,78.82
66380,2018-06-29 09:19:26.375000,17.82,78.82
66381,2018-06-29 09:19:26.406250,21.12,78.82
66382,2018-06-29 09:19:26.437500,22.34,78.82
66383,2018-06-29 09:19:26.468750,23.46,78.82
66384,2018-06-29 09:19:26.500000,26.99,78.82
66385,2018-06-29 09:19:26.531250,29.6,79.13
66386,2018-06-29 09:19:26.562500,27.47,79.13
66387,2018-06-29 09:19:26.593750,20.33,79.13
66388,2018-06-29 09:19:26.625000,6.58,79.13
66389,2018-06-29 09:19:26.656250,-15.27,79.13
66390,2018-06-29 09:19:26.687500,-37.57,79.13
66391,2018-06-29 09:19:26.718750,-46.68,79.13
66392,2018-06-29 09:19:26.750000,-38.49,79.13
66393,2018-06-29 09:19:26.781250,-22.64,79.13
66394,2018-06-29 09:19:26.812500,-9.34,79.13
66395,2018-06-29 09:19:26.843750,1.44,79.13
66396,2018-06-29 09:19:26.875000,14.33,79.13
66397,2018-06-29 09:19:26.906250,27.71,79.13
66398,2018-06-29 09:19:26.937500,33.93,79.13
66399,2018-06-29 09:19:26.968750,30.74,79.13
66400,2018-06-29 09:19:27.000000,25.51,79.13
66401,2018-06-29 09:19:27.031250,24.49,79.13
66402,2018-06-29 09:19:27.062500,26.15,79.13
66403,2018-06-29 09:19:27.093750,27.82,79.13
66404,2018-06-29 09:19:27.125000,28.79,79.13
66405,2018-06-29 09:19:27.156250,25.28,79.13
66406,2018-06-29 09:19:27.187500,15.12,79.13
66407,2018-06-29 09:19:27.218750,4.41,79.13
66408,2018-06-29 09:19:27.250000,-2.25,79.13
66409,2018-06-29 09:19:27.281250,-9.8,79.13
66410,2018-06-29 09:19:27.312500,-20.79,79.13
66411,2018-06-29 09:19:27.343750,-25.57,79.13
66412,2018-06-29 09:19:27.375000,-14.6,79.13
66413,2018-06-29 09:19:27.406250,7.78,79.13
66414,2018-06-29 09:19:27.437500,28.93,79.13
66415,2018-06-29 09:19:27.468750,39.78,79.13
66416,2018-06-29 09:19:27.500000,37.92,79.13
66417,2018-06-29 09:19:27.531250,25.61,79.45
66418,2018-06-29 09:19:27.562500,9.52,79.45
66419,2018-06-29 09:19:27.593750,-3.4,79.45
66420,2018-06-29 09:19:27.625000,-11.96,79.45
66421,2018-06-29 09:19:27.656250,-19.18,79.45
66422,2018-06-29 09:19:27.687500,-26.05,79.45
66423,2018-06-29 09:19:27.718750,-29.94,79.45
66424,2018-06-29 09:19:27.750000,-28.29,79.45
66425,2018-06-29 09:19:27.781250,-23.16,79.45
66426,2018-06-29 09:19:27.812500,-20.91,79.45
66427,2018-06-29 09:19:27.843750,-24.46,79.45
66428,2018-06-29 09:19:27.875000,-30.76,79.45
66429,2018-06-29 09:19:27.906250,-37.32,79.45
66430,2018-06-29 09:19:27.937500,-42.63,79.45
66431,2018-06-29 09:19:27.968750,-40.49,79.45
66432,2018-06-29 09:19:28.000000,-25.96,79.45
66433,2018-06-29 09:19:28.031250,-4.49,79.45
66434,2018-06-29 09:19:28.062500,14.66,79.45
66435,2018-06-29 09:19:28.093750,29.4,79.45
66436,2018-06-29 09:19:28.125000,41.53,79.45
66437,2018-06-29 09:19:28.156250,48.52,79.45
66438,2018-06-29 09:19:28.187500,46.64,79.45
66439,2018-06-29 09:19:28.218750,39.64,79.45
66440,2018-06-29 09:19:28.250000,34.77,79.45
66441,2018-06-29 09:19:28.281250,31.94,79.45
66442,2018-06-29 09:19:28.312500,26.47,79.45
66443,2018-06-29 09:19:28.343750,18.27,79.45
66444,2018-06-29 09:19:28.375000,9.63,79.45
66445,2018-06-29 09:19:28.406250,-0.41,79.45
66446,2018-06-29 09:19:28.437500,-13.25,79.45
66447,2018-06-29 09:19:28.468750,-28.33,79.45
66448,2018-06-29 09:19:28.500000,-45.37,79.45
66449,2018-06-29 09:19:28.531250,-62.4,79.77
66450,2018-06-29 09:19:28.562500,-71.9,79.77
66451,2018-06-29 09:19:28.593750,-65.51,79.77
66452,2018-06-29 09:19:28.625000,-44.15,79.77
66453,2018-06-29 09:19:28.656250,-18.72,79.77
66454,2018-06-29 09:19:28.687500,1.74,79.77
66455,2018-06-29 09:19:28.718750,17.05,79.77
66456,2018-06-29 09:19:28.750000,28.48,79.77
66457,2018-06-29 09:19:28.781250,33.11,79.77
66458,2018-06-29 09:19:28.812500,29.24,79.77
66459,2018-06-29 09:19:28.843750,20.38,79.77
66460,2018-06-29 09:19:28.875000,11.7,79.77
66461,2018-06-29 09:19:28.906250,7.04,79.77
66462,2018-06-29 09:19:28.937500,7.63,79.77
66463,2018-06-29 09:19:28.968750,10.82,79.77
66464,2018-06-29 09:19:29.000000,12.61,79.77
66465,2018-06-29 09:19:29.031250,11.66,79.77
66466,2018-06-29 09:19:29.062500,8.54,79.77
66467,2018-06-29 09:19:29.093750,3.49,79.77
66468,2018-06-29 09:19:29.125000,-3.17,79.77
66469,2018-06-29 09:19:29.156250,-9.41,79.77
66470,2018-06-29 09:19:29.187500,-11.5,79.77
66471,2018-06-29 09:19:29.218750,-7.05,79.77
66472,2018-06-29 09:19:29.250000,1.42,79.77
66473,2018-06-29 09:19:29.281250,8.48,79.77
66474,2018-06-29 09:19:29.312500,11.09,79.77
66475,2018-06-29 09:19:29.343750,9.49,79.77
66476,2018-06-29 09:19:29.375000,4.4,79.77
66477,2018-06-29 09:19:29.406250,-4.14,79.77
66478,2018-06-29 09:19:29.437500,-14.15,79.77
66479,2018-06-29 09:19:29.468750,-21.04,79.77
66480,2018-06-29 09:19:29.500000,-22.35,79.77
66481,2018-06-29 09:19:29.531250,-20.77,80.12
66482,2018-06-29 09:19:29.562500,-18.67,80.12
66483,2018-06-29 09:19:29.593750,-15.11,80.12
66484,2018-06-29 09:19:29.625000,-10.98,80.12
66485,2018-06-29 09:19:29.656250,-10.09,80.12
66486,2018-06-29 09:19:29.687500,-15.09,80.12
66487,2018-06-29 09:19:29.718750,-26.13,80.12
66488,2018-06-29 09:19:29.750000,-37.79,80.12
66489,2018-06-29 09:19:29.781250,-39.53,80.12
66490,2018-06-29 09:19:29.812500,-26.62,80.12
66491,2018-06-29 09:19:29.843750,-5.5,80.12
66492,2018-06-29 09:19:29.875000,16.62,80.12
66493,2018-06-29 09:19:29.906250,36.95,80.12
66494,2018-06-29 09:19:29.937500,51.82,80.12
66495,2018-06-29 09:19:29.968750,58.6,80.12
66496,2018-06-29 09:19:30.000000,58.79,80.12
66497,2018-06-29 09:19:30.031250,53.45,80.12
66498,2018-06-29 09:19:30.062500,42.97,80.12
66499,2018-06-29 09:19:30.093750,31.11,80.12
66500,2018-06-29 09:19:30.125000,19.9,80.12
66501,2018-06-29 09:19:30.156250,5.18,80.12
66502,2018-06-29 09:19:30.187500,-14.17,80.12
66503,2018-06-29 09:19:30.218750,-31.04,80.12
66504,2018-06-29 09:19:30.250000,-39.13,80.12
66505,2018-06-29 09:19:30.281250,-40.92,80.12
66506,2018-06-29 09:19:30.312500,-44.15,80.12
66507,2018-06-29 09:19:30.343750,-50.29,80.12
66508,2018-06-29 09:19:30.375000,-50.7,80.12
66509,2018-06-29 09:19:30.406250,-38.69,80.12
66510,2018-06-29 09:19:30.437500,-19.45,80.12
66511,2018-06-29 09:19:30.468750,-0.2,80.12
66512,2018-06-29 09:19:30.500000,18.78,80.12
66513,2018-06-29 09:19:30.531250,34.82,80.5
66514,2018-06-29 09:19:30.562500,39.74,80.5
66515,2018-06-29 09:19:30.593750,33.69,80.5
66516,2018-06-29 09:19:30.625000,27.23,80.5
66517,2018-06-29 09:19:30.656250,25.04,80.5
66518,2018-06-29 09:19:30.687500,22.46,80.5
66519,2018-06-29 09:19:30.718750,18.62,80.5
66520,2018-06-29 09:19:30.750000,16.05,80.5
66521,2018-06-29 09:19:30.781250,11.59,80.5
66522,2018-06-29 09:19:30.812500,4.41,80.5
66523,2018-06-29 09:19:30.843750,1.39,80.5
66524,2018-06-29 09:19:30.875000,2.5,80.5
66525,2018-06-29 09:19:30.906250,-2.13,80.5
66526,2018-06-29 09:19:30.937500,-16.01,80.5
66527,2018-06-29 09:19:30.968750,-32.31,80.5
66528,2018-06-29 09:19:31.000000,-43.07,80.5
66529,2018-06-29 09:19:31.031250,-42.68,80.5
66530,2018-06-29 09:19:31.062500,-28.93,80.5
66531,2018-06-29 09:19:31.093750,-6.89,80.5
66532,2018-06-29 09:19:31.125000,13.47,80.5
66533,2018-06-29 09:19:31.156250,24.17,80.5
66534,2018-06-29 09:19:31.187500,23.81,80.5
66535,2018-06-29 09:19:31.218750,17.82,80.5
66536,2018-06-29 09:19:31.250000,13.21,80.5
66537,2018-06-29 09:19:31.281250,14.01,80.5
66538,2018-06-29 09:19:31.312500,19.37,80.5
66539,2018-06-29 09:19:31.343750,22.13,80.5
66540,2018-06-29 09:19:31.375000,15.05,80.5
66541,2018-06-29 09:19:31.406250,2.08,80.5
66542,2018-06-29 09:19:31.437500,-3.88,80.5
66543,2018-06-29 09:19:31.468750,0.92,80.5
66544,2018-06-29 09:19:31.500000,3.96,80.5
66545,2018-06-29 09:19:31.531250,-6.33,80.88
66546,2018-06-29 09:19:31.562500,-25.0,80.88
66547,2018-06-29 09:19:31.593750,-38.4,80.88
66548,2018-06-29 09:19:31.625000,-37.79,80.88
66549,2018-06-29 09:19:31.656250,-21.62,80.88
66550,2018-06-29 09:19:31.687500,5.19,80.88
66551,2018-06-29 09:19:31.718750,30.22,80.88
66552,2018-06-29 09:19:31.750000,42.31,80.88
66553,2018-06-29 09:19:31.781250,41.53,80.88
66554,2018-06-29 09:19:31.812500,34.16,80.88
66555,2018-06-29 09:19:31.843750,23.71,80.88
66556,2018-06-29 09:19:31.875000,11.05,80.88
66557,2018-06-29 09:19:31.906250,-1.43,80.88
66558,2018-06-29 09:19:31.937500,-8.68,80.88
66559,2018-06-29 09:19:31.968750,-9.25,80.88
66560,2018-06-29 09:19:32.000000,-9.87,80.88
66561,2018-06-29 09:19:32.031250,-15.56,80.88
66562,2018-06-29 09:19:32.062500,-21.63,80.88
66563,2018-06-29 09:19:32.093750,-23.6,80.88
66564,2018-06-29 09:19:32.125000,-25.51,80.88
66565,2018-06-29 09:19:32.156250,-31.4,80.88
66566,2018-06-29 09:19:32.187500,-38.98,80.88
66567,2018-06-29 09:19:32.218750,-43.98,80.88
66568,2018-06-29 09:19:32.250000,-41.93,80.88
66569,2018-06-29 09:19:32.281250,-26.89,80.88
66570,2018-06-29 09:19:32.312500,1.21,80.88
66571,2018-06-29 09:19:32.343750,27.9,80.88
66572,2018-06-29 09:19:32.375000,36.86,80.88
66573,2018-06-29 09:19:32.406250,31.57,80.88
66574,2018-06-29 09:19:32.437500,27.15,80.88
66575,2018-06-29 09:19:32.468750,25.87,80.88
66576,2018-06-29 09:19:32.500000,21.54,80.88
66577,2018-06-29 09:19:32.531250,18.03,81.27
66578,2018-06-29 09:19:32.562500,19.87,81.27
66579,2018-06-29 09:19:32.593750,19.36,81.27
66580,2018-06-29 09:19:32.625000,9.71,81.27
66581,2018-06-29 09:19:32.656250,-4.11,81.27
66582,2018-06-29 09:19:32.687500,-15.22,81.27
66583,2018-06-29 09:19:32.718750,-23.31,81.27
66584,2018-06-29 09:19:32.750000,-30.59,81.27
66585,2018-06-29 09:19:32.781250,-37.27,81.27
66586,2018-06-29 09:19:32.812500,-43.78,81.27
66587,2018-06-29 09:19:32.843750,-51.89,81.27
66588,2018-06-29 09:19:32.875000,-58.5,81.27
66589,2018-06-29 09:19:32.906250,-52.89,81.27
66590,2018-06-29 09:19:32.937500,-30.93,81.27
66591,2018-06-29 09:19:32.968750,-4.13,81.27
66592,2018-06-29 09:19:33.000000,14.33,81.27
66593,2018-06-29 09:19:33.031250,22.93,81.27
66594,2018-06-29 09:19:33.062500,26.02,81.27
66595,2018-06-29 09:19:33.093750,25.72,81.27
66596,2018-06-29 09:19:33.125000,23.97,81.27
66597,2018-06-29 09:19:33.156250,24.67,81.27
66598,2018-06-29 09:19:33.187500,28.95,81.27
66599,2018-06-29 09:19:33.218750,31.64,81.27
66600,2018-06-29 09:19:33.250000,27.14,81.27
66601,2018-06-29 09:19:33.281250,18.3,81.27
66602,2018-06-29 09:19:33.312500,12.07,81.27
66603,2018-06-29 09:19:33.343750,9.93,81.27
66604,2018-06-29 09:19:33.375000,8.07,81.27
66605,2018-06-29 09:19:33.406250,1.9,81.27
66606,2018-06-29 09:19:33.437500,-11.93,81.27
66607,2018-06-29 09:19:33.468750,-31.39,81.27
66608,2018-06-29 09:19:33.500000,-46.14,81.27
66609,2018-06-29 09:19:33.531250,-45.32,81.68
66610,2018-06-29 09:19:33.562500,-29.76,81.68
66611,2018-06-29 09:19:33.593750,-10.29,81.68
66612,2018-06-29 09:19:33.625000,5.09,81.68
66613,2018-06-29 09:19:33.656250,15.7,81.68
66614,2018-06-29 09:19:33.687500,21.21,81.68
66615,2018-06-29 09:19:33.718750,19.93,81.68
66616,2018-06-29 09:19:33.750000,13.83,81.68
66617,2018-06-29 09:19:33.781250,7.88,81.68
66618,2018-06-29 09:19:33.812500,4.52,81.68
66619,2018-06-29 09:19:33.843750,2.08,81.68
66620,2018-06-29 09:19:33.875000,-2.21,81.68
66621,2018-06-29 09:19:33.906250,-8.2,81.68
66622,2018-06-29 09:19:33.937500,-12.23,81.68
66623,2018-06-29 09:19:33.968750,-12.46,81.68
66624,2018-06-29 09:19:34.000000,-12.65,81.68
66625,2018-06-29 09:19:34.031250,-17.87,81.68
66626,2018-06-29 09:19:34.062500,-28.51,81.68
66627,2018-06-29 09:19:34.093750,-39.49,81.68
66628,2018-06-29 09:19:34.125000,-41.93,81.68
66629,2018-06-29 09:19:34.156250,-28.6,81.68
66630,2018-06-29 09:19:34.187500,-2.36,81.68
66631,2018-06-29 09:19:34.218750,24.86,81.68
66632,2018-06-29 09:19:34.250000,42.86,81.68
66633,2018-06-29 09:19:34.281250,48.81,81.68
66634,2018-06-29 09:19:34.312500,44.81,81.68
66635,2018-06-29 09:19:34.343750,35.12,81.68
66636,2018-06-29 09:19:34.375000,23.58,81.68
66637,2018-06-29 09:19:34.406250,11.41,81.68
66638,2018-06-29 09:19:34.437500,-0.28,81.68
66639,2018-06-29 09:19:34.468750,-8.78,81.68
66640,2018-06-29 09:19:34.500000,-13.54,81.68
66641,2018-06-29 09:19:34.531250,-16.87,82.12
66642,2018-06-29 09:19:34.562500,-20.82,82.12
66643,2018-06-29 09:19:34.593750,-27.24,82.12
66644,2018-06-29 09:19:34.625000,-37.4,82.12
66645,2018-06-29 09:19:34.656250,-49.09,82.12
66646,2018-06-29 09:19:34.687500,-57.62,82.12
66647,2018-06-29 09:19:34.718750,-57.8,82.12
66648,2018-06-29 09:19:34.750000,-45.9,82.12
66649,2018-06-29 09:19:34.781250,-24.37,82.12
66650,2018-06-29 09:19:34.812500,-1.02,82.12
66651,2018-06-29 09:19:34.843750,19.3,82.12
66652,2018-06-29 09:19:34.875000,34.88,82.12
66653,2018-06-29 09:19:34.906250,42.3,82.12
66654,2018-06-29 09:19:34.937500,40.79,82.12
66655,2018-06-29 09:19:34.968750,34.05,82.12
66656,2018-06-29 09:19:35.000000,23.6,82.12
66657,2018-06-29 09:19:35.031250,11.38,82.12
66658,2018-06-29 09:19:35.062500,3.75,82.12
66659,2018-06-29 09:19:35.093750,2.33,82.12
66660,2018-06-29 09:19:35.125000,-0.34,82.12
66661,2018-06-29 09:19:35.156250,-9.5,82.12
66662,2018-06-29 09:19:35.187500,-23.09,82.12
