,Time,ppg,hr
70400,2018-06-29 09:21:32.000000,-19.72,103.02
70401,2018-06-29 09:21:32.031250,-50.83,103.02
70402,2018-06-29 09:21:32.062500,-58.64,103.02
70403,2018-06-29 09:21:32.093750,-43.78,103.02
70404,2018-06-29 09:21:32.125000,-22.41,103.02
70405,2018-06-29 09:21:32.156250,-8.13,103.02
70406,2018-06-29 09:21:32.187500,-3.28,103.02
70407,2018-06-29 09:21:32.218750,-3.76,103.02
70408,2018-06-29 09:21:32.250000,-5.69,103.02
70409,2018-06-29 09:21:32.281250,-8.84,103.02
70410,2018-06-29 09:21:32.312500,-12.69,103.02
70411,2018-06-29 09:21:32.343750,-17.85,103.02
70412,2018-06-29 09:21:32.375000,-27.64,103.02
70413,2018-06-29 09:21:32.406250,-38.77,103.02
70414,2018-06-29 09:21:32.437500,-41.84,103.02
70415,2018-06-29 09:21:32.468750,-40.14,103.02
70416,2018-06-29 09:21:32.500000,-47.0,103.02
70417,2018-06-29 09:21:32.531250,-55.26,103.3
70418,2018-06-29 09:21:32.562500,-46.41,103.3
70419,2018-06-29 09:21:32.593750,-21.78,103.3
70420,2018-06-29 09:21:32.625000,7.45,103.3
70421,2018-06-29 09:21:32.656250,39.35,103.3
70422,2018-06-29 09:21:32.687500,68.25,103.3
70423,2018-06-29 09:21:32.718750,83.22,103.3
70424,2018-06-29 09:21:32.750000,88.74,103.3
70425,2018-06-29 09:21:32.781250,95.36,103.3
70426,2018-06-29 09:21:32.812500,94.47,103.3
70427,2018-06-29 09:21:32.843750,73.79,103.3
70428,2018-06-29 09:21:32.875000,37.18,103.3
70429,2018-06-29 09:21:32.906250,-2.03,103.3
70430,2018-06-29 09:21:32.937500,-36.16,103.3
70431,2018-06-29 09:21:32.968750,-64.31,103.3
70432,2018-06-29 09:21:33.000000,-88.4,103.3
70433,2018-06-29 09:21:33.031250,-110.82,103.3
70434,2018-06-29 09:21:33.062500,-127.43,103.3
70435,2018-06-29 09:21:33.093750,-126.94,103.3
70436,2018-06-29 09:21:33.125000,-103.67,103.3
70437,2018-06-29 09:21:33.156250,-64.71,103.3
70438,2018-06-29 09:21:33.187500,-22.73,103.3
70439,2018-06-29 09:21:33.218750,12.95,103.3
70440,2018-06-29 09:21:33.250000,35.63,103.3
70441,2018-06-29 09:21:33.281250,41.43,103.3
70442,2018-06-29 09:21:33.312500,33.72,103.3
70443,2018-06-29 09:21:33.343750,22.19,103.3
70444,2018-06-29 09:21:33.375000,13.12,103.3
70445,2018-06-29 09:21:33.406250,6.65,103.3
70446,2018-06-29 09:21:33.437500,-0.94,103.3
70447,2018-06-29 09:21:33.468750,-14.31,103.3
70448,2018-06-29 09:21:33.500000,-33.22,103.3
70449,2018-06-29 09:21:33.531250,-53.28,103.48
70450,2018-06-29 09:21:33.562500,-71.85,103.48
70451,2018-06-29 09:21:33.593750,-83.31,103.48
70452,2018-06-29 09:21:33.625000,-71.97,103.48
70453,2018-06-29 09:21:33.656250,-28.35,103.48
70454,2018-06-29 09:21:33.687500,30.43,103.48
70455,2018-06-29 09:21:33.718750,77.85,103.48
70456,2018-06-29 09:21:33.750000,103.15,103.48
70457,2018-06-29 09:21:33.781250,104.94,103.48
70458,2018-06-29 09:21:33.812500,83.79,103.48
70459,2018-06-29 09:21:33.843750,51.44,103.48
70460,2018-06-29 09:21:33.875000,25.98,103.48
70461,2018-06-29 09:21:33.906250,8.35,103.48
70462,2018-06-29 09:21:33.937500,-12.62,103.48
70463,2018-06-29 09:21:33.968750,-37.17,103.48
70464,2018-06-29 09:21:34.000000,-56.9,103.48
70465,2018-06-29 09:21:34.031250,-69.23,103.48
70466,2018-06-29 09:21:34.062500,-79.16,103.48
70467,2018-06-29 09:21:34.093750,-91.9,103.48
70468,2018-06-29 09:21:34.125000,-104.9,103.48
70469,2018-06-29 09:21:34.156250,-104.0,103.48
70470,2018-06-29 09:21:34.187500,-78.45,103.48
70471,2018-06-29 09:21:34.218750,-38.52,103.48
70472,2018-06-29 09:21:34.250000,-4.24,103.48
70473,2018-06-29 09:21:34.281250,17.09,103.48
70474,2018-06-29 09:21:34.312500,26.87,103.48
70475,2018-06-29 09:21:34.343750,27.17,103.48
70476,2018-06-29 09:21:34.375000,25.53,103.48
70477,2018-06-29 09:21:34.406250,29.74,103.48
70478,2018-06-29 09:21:34.437500,36.1,103.48
70479,2018-06-29 09:21:34.468750,36.71,103.48
70480,2018-06-29 09:21:34.500000,32.86,103.48
70481,2018-06-29 09:21:34.531250,30.04,103.68
70482,2018-06-29 09:21:34.562500,27.64,103.68
70483,2018-06-29 09:21:34.593750,20.02,103.68
70484,2018-06-29 09:21:34.625000,6.12,103.68
70485,2018-06-29 09:21:34.656250,-2.69,103.68
70486,2018-06-29 09:21:34.687500,8.58,103.68
70487,2018-06-29 09:21:34.718750,39.26,103.68
70488,2018-06-29 09:21:34.750000,70.97,103.68
70489,2018-06-29 09:21:34.781250,87.25,103.68
70490,2018-06-29 09:21:34.812500,84.31,103.68
70491,2018-06-29 09:21:34.843750,66.16,103.68
70492,2018-06-29 09:21:34.875000,41.83,103.68
70493,2018-06-29 09:21:34.906250,22.14,103.68
70494,2018-06-29 09:21:34.937500,11.99,103.68
70495,2018-06-29 09:21:34.968750,7.03,103.68
70496,2018-06-29 09:21:35.000000,1.67,103.68
70497,2018-06-29 09:21:35.031250,-5.78,103.68
70498,2018-06-29 09:21:35.062500,-13.15,103.68
70499,2018-06-29 09:21:35.093750,-17.73,103.68
70500,2018-06-29 09:21:35.125000,-24.31,103.68
70501,2018-06-29 09:21:35.156250,-41.81,103.68
70502,2018-06-29 09:21:35.187500,-63.21,103.68
70503,2018-06-29 09:21:35.218750,-63.02,103.68
70504,2018-06-29 09:21:35.250000,-29.66,103.68
70505,2018-06-29 09:21:35.281250,15.76,103.68
70506,2018-06-29 09:21:35.312500,49.05,103.68
70507,2018-06-29 09:21:35.343750,67.91,103.68
70508,2018-06-29 09:21:35.375000,77.34,103.68
70509,2018-06-29 09:21:35.406250,75.6,103.68
70510,2018-06-29 09:21:35.437500,63.51,103.68
70511,2018-06-29 09:21:35.468750,46.8,103.68
70512,2018-06-29 09:21:35.500000,30.41,103.68
70513,2018-06-29 09:21:35.531250,16.56,103.9
70514,2018-06-29 09:21:35.562500,3.8,103.9
70515,2018-06-29 09:21:35.593750,-9.97,103.9
70516,2018-06-29 09:21:35.625000,-24.41,103.9
70517,2018-06-29 09:21:35.656250,-43.26,103.9
70518,2018-06-29 09:21:35.687500,-68.46,103.9
70519,2018-06-29 09:21:35.718750,-83.46,103.9
70520,2018-06-29 09:21:35.750000,-67.37,103.9
70521,2018-06-29 09:21:35.781250,-28.19,103.9
70522,2018-06-29 09:21:35.812500,6.87,103.9
70523,2018-06-29 09:21:35.843750,27.31,103.9
70524,2018-06-29 09:21:35.875000,38.91,103.9
70525,2018-06-29 09:21:35.906250,43.29,103.9
70526,2018-06-29 09:21:35.937500,38.46,103.9
70527,2018-06-29 09:21:35.968750,29.24,103.9
70528,2018-06-29 09:21:36.000000,22.0,103.9
70529,2018-06-29 09:21:36.031250,15.01,103.9
70530,2018-06-29 09:21:36.062500,5.65,103.9
70531,2018-06-29 09:21:36.093750,-5.07,103.9
70532,2018-06-29 09:21:36.125000,-16.76,103.9
70533,2018-06-29 09:21:36.156250,-31.27,103.9
70534,2018-06-29 09:21:36.187500,-49.86,103.9
70535,2018-06-29 09:21:36.218750,-67.8,103.9
70536,2018-06-29 09:21:36.250000,-69.9,103.9
70537,2018-06-29 09:21:36.281250,-41.95,103.9
70538,2018-06-29 09:21:36.312500,8.59,103.9
70539,2018-06-29 09:21:36.343750,56.05,103.9
70540,2018-06-29 09:21:36.375000,83.11,103.9
70541,2018-06-29 09:21:36.406250,88.64,103.9
70542,2018-06-29 09:21:36.437500,77.26,103.9
70543,2018-06-29 09:21:36.468750,54.72,103.9
70544,2018-06-29 09:21:36.500000,29.58,103.9
70545,2018-06-29 09:21:36.531250,10.42,104.15
70546,2018-06-29 09:21:36.562500,0.31,104.15
70547,2018-06-29 09:21:36.593750,-3.41,104.15
70548,2018-06-29 09:21:36.625000,-5.27,104.15
70549,2018-06-29 09:21:36.656250,-10.85,104.15
70550,2018-06-29 09:21:36.687500,-24.93,104.15
70551,2018-06-29 09:21:36.718750,-47.74,104.15
70552,2018-06-29 09:21:36.750000,-68.93,104.15
70553,2018-06-29 09:21:36.781250,-72.01,104.15
70554,2018-06-29 09:21:36.812500,-48.58,104.15
70555,2018-06-29 09:21:36.843750,-7.91,104.15
70556,2018-06-29 09:21:36.875000,29.48,104.15
70557,2018-06-29 09:21:36.906250,50.07,104.15
70558,2018-06-29 09:21:36.937500,53.01,104.15
70559,2018-06-29 09:21:36.968750,40.72,104.15
70560,2018-06-29 09:21:37.000000,17.67,104.15
70561,2018-06-29 09:21:37.031250,-5.78,104.15
70562,2018-06-29 09:21:37.062500,-20.04,104.15
70563,2018-06-29 09:21:37.093750,-28.01,104.15
70564,2018-06-29 09:21:37.125000,-35.88,104.15
70565,2018-06-29 09:21:37.156250,-42.45,104.15
70566,2018-06-29 09:21:37.187500,-45.84,104.15
70567,2018-06-29 09:21:37.218750,-48.92,104.15
70568,2018-06-29 09:21:37.250000,-51.98,104.15
70569,2018-06-29 09:21:37.281250,-44.95,104.15
70570,2018-06-29 09:21:37.312500,-16.07,104.15
70571,2018-06-29 09:21:37.343750,30.59,104.15
70572,2018-06-29 09:21:37.375000,71.45,104.15
70573,2018-06-29 09:21:37.406250,88.03,104.15
70574,2018-06-29 09:21:37.437500,84.99,104.15
70575,2018-06-29 09:21:37.468750,72.32,104.15
70576,2018-06-29 09:21:37.500000,50.69,104.15
70577,2018-06-29 09:21:37.531250,24.19,104.43
70578,2018-06-29 09:21:37.562500,2.08,104.43
70579,2018-06-29 09:21:37.593750,-13.53,104.43
70580,2018-06-29 09:21:37.625000,-25.94,104.43
70581,2018-06-29 09:21:37.656250,-34.28,104.43
70582,2018-06-29 09:21:37.687500,-36.31,104.43
70583,2018-06-29 09:21:37.718750,-35.19,104.43
70584,2018-06-29 09:21:37.750000,-38.55,104.43
70585,2018-06-29 09:21:37.781250,-54.11,104.43
70586,2018-06-29 09:21:37.812500,-74.26,104.43
70587,2018-06-29 09:21:37.843750,-74.34,104.43
70588,2018-06-29 09:21:37.875000,-42.13,104.43
70589,2018-06-29 09:21:37.906250,3.33,104.43
70590,2018-06-29 09:21:37.937500,37.94,104.43
70591,2018-06-29 09:21:37.968750,57.13,104.43
70592,2018-06-29 09:21:38.000000,66.87,104.43
70593,2018-06-29 09:21:38.031250,70.75,104.43
70594,2018-06-29 09:21:38.062500,69.51,104.43
70595,2018-06-29 09:21:38.093750,61.06,104.43
70596,2018-06-29 09:21:38.125000,46.02,104.43
70597,2018-06-29 09:21:38.156250,30.49,104.43
70598,2018-06-29 09:21:38.187500,18.56,104.43
70599,2018-06-29 09:21:38.218750,9.7,104.43
70600,2018-06-29 09:21:38.250000,1.05,104.43
70601,2018-06-29 09:21:38.281250,-13.52,104.43
70602,2018-06-29 09:21:38.312500,-39.07,104.43
70603,2018-06-29 09:21:38.343750,-63.4,104.43
70604,2018-06-29 09:21:38.375000,-65.0,104.43
70605,2018-06-29 09:21:38.406250,-41.86,104.43
70606,2018-06-29 09:21:38.437500,-13.22,104.43
70607,2018-06-29 09:21:38.468750,9.64,104.43
70608,2018-06-29 09:21:38.500000,31.24,104.43
70609,2018-06-29 09:21:38.531250,52.89,104.75
70610,2018-06-29 09:21:38.562500,64.62,104.75
70611,2018-06-29 09:21:38.593750,61.02,104.75
70612,2018-06-29 09:21:38.625000,52.42,104.75
70613,2018-06-29 09:21:38.656250,47.34,104.75
70614,2018-06-29 09:21:38.687500,36.64,104.75
70615,2018-06-29 09:21:38.718750,10.21,104.75
70616,2018-06-29 09:21:38.750000,-25.72,104.75
70617,2018-06-29 09:21:38.781250,-60.39,104.75
70618,2018-06-29 09:21:38.812500,-90.58,104.75
70619,2018-06-29 09:21:38.843750,-112.6,104.75
70620,2018-06-29 09:21:38.875000,-115.1,104.75
70621,2018-06-29 09:21:38.906250,-87.62,104.75
70622,2018-06-29 09:21:38.937500,-32.81,104.75
70623,2018-06-29 09:21:38.968750,30.35,104.75
70624,2018-06-29 09:21:39.000000,78.33,104.75
70625,2018-06-29 09:21:39.031250,99.34,104.75
70626,2018-06-29 09:21:39.062500,94.0,104.75
70627,2018-06-29 09:21:39.093750,71.54,104.75
70628,2018-06-29 09:21:39.125000,47.48,104.75
70629,2018-06-29 09:21:39.156250,33.6,104.75
70630,2018-06-29 09:21:39.187500,26.0,104.75
70631,2018-06-29 09:21:39.218750,12.75,104.75
70632,2018-06-29 09:21:39.250000,-6.45,104.75
70633,2018-06-29 09:21:39.281250,-22.75,104.75
70634,2018-06-29 09:21:39.312500,-40.72,104.75
70635,2018-06-29 09:21:39.343750,-72.73,104.75
70636,2018-06-29 09:21:39.375000,-108.1,104.75
70637,2018-06-29 09:21:39.406250,-115.98,104.75
70638,2018-06-29 09:21:39.437500,-83.96,104.75
70639,2018-06-29 09:21:39.468750,-30.53,104.75
70640,2018-06-29 09:21:39.500000,17.66,104.75
70641,2018-06-29 09:21:39.531250,47.33,105.1
70642,2018-06-29 09:21:39.562500,58.72,105.1
70643,2018-06-29 09:21:39.593750,53.2,105.1
70644,2018-06-29 09:21:39.625000,31.62,105.1
70645,2018-06-29 09:21:39.656250,2.56,105.1
70646,2018-06-29 09:21:39.687500,-21.22,105.1
70647,2018-06-29 09:21:39.718750,-36.83,105.1
70648,2018-06-29 09:21:39.750000,-46.21,105.1
70649,2018-06-29 09:21:39.781250,-47.9,105.1
70650,2018-06-29 09:21:39.812500,-45.85,105.1
70651,2018-06-29 09:21:39.843750,-51.45,105.1
70652,2018-06-29 09:21:39.875000,-66.9,105.1
70653,2018-06-29 09:21:39.906250,-76.7,105.1
70654,2018-06-29 09:21:39.937500,-63.17,105.1
70655,2018-06-29 09:21:39.968750,-27.08,105.1
70656,2018-06-29 09:21:40.000000,13.37,105.1
70657,2018-06-29 09:21:40.031250,41.64,105.1
70658,2018-06-29 09:21:40.062500,56.04,105.1
70659,2018-06-29 09:21:40.093750,62.44,105.1
70660,2018-06-29 09:21:40.125000,62.88,105.1
70661,2018-06-29 09:21:40.156250,58.68,105.1
70662,2018-06-29 09:21:40.187500,52.83,105.1
70663,2018-06-29 09:21:40.218750,44.78,105.1
70664,2018-06-29 09:21:40.250000,32.41,105.1
70665,2018-06-29 09:21:40.281250,18.57,105.1
70666,2018-06-29 09:21:40.312500,7.86,105.1
70667,2018-06-29 09:21:40.343750,-2.08,105.1
70668,2018-06-29 09:21:40.375000,-20.19,105.1
70669,2018-06-29 09:21:40.406250,-48.5,105.1
70670,2018-06-29 09:21:40.437500,-70.29,105.1
70671,2018-06-29 09:21:40.468750,-64.35,105.1
70672,2018-06-29 09:21:40.500000,-30.85,105.1
70673,2018-06-29 09:21:40.531250,10.67,105.45
70674,2018-06-29 09:21:40.562500,43.83,105.45
70675,2018-06-29 09:21:40.593750,64.48,105.45
70676,2018-06-29 09:21:40.625000,71.85,105.45
70677,2018-06-29 09:21:40.656250,63.21,105.45
70678,2018-06-29 09:21:40.687500,44.18,105.45
70679,2018-06-29 09:21:40.718750,30.65,105.45
70680,2018-06-29 09:21:40.750000,28.55,105.45
70681,2018-06-29 09:21:40.781250,27.72,105.45
70682,2018-06-29 09:21:40.812500,20.7,105.45
70683,2018-06-29 09:21:40.843750,9.73,105.45
70684,2018-06-29 09:21:40.875000,-4.14,105.45
70685,2018-06-29 09:21:40.906250,-24.1,105.45
70686,2018-06-29 09:21:40.937500,-48.75,105.45
70687,2018-06-29 09:21:40.968750,-69.18,105.45
70688,2018-06-29 09:21:41.000000,-72.81,105.45
70689,2018-06-29 09:21:41.031250,-52.28,105.45
70690,2018-06-29 09:21:41.062500,-10.77,105.45
70691,2018-06-29 09:21:41.093750,34.67,105.45
70692,2018-06-29 09:21:41.125000,60.39,105.45
70693,2018-06-29 09:21:41.156250,59.78,105.45
70694,2018-06-29 09:21:41.187500,50.17,105.45
70695,2018-06-29 09:21:41.218750,41.94,105.45
70696,2018-06-29 09:21:41.250000,24.98,105.45
70697,2018-06-29 09:21:41.281250,-2.11,105.45
70698,2018-06-29 09:21:41.312500,-20.88,105.45
70699,2018-06-29 09:21:41.343750,-20.98,105.45
70700,2018-06-29 09:21:41.375000,-13.02,105.45
70701,2018-06-29 09:21:41.406250,-7.02,105.45
70702,2018-06-29 09:21:41.437500,-5.63,105.45
70703,2018-06-29 09:21:41.468750,-14.3,105.45
70704,2018-06-29 09:21:41.500000,-28.56,105.45
70705,2018-06-29 09:21:41.531250,-31.26,105.83
70706,2018-06-29 09:21:41.562500,-18.67,105.83
70707,2018-06-29 09:21:41.593750,-3.87,105.83
70708,2018-06-29 09:21:41.625000,8.29,105.83
70709,2018-06-29 09:21:41.656250,20.95,105.83
70710,2018-06-29 09:21:41.687500,29.77,105.83
70711,2018-06-29 09:21:41.718750,27.82,105.83
70712,2018-06-29 09:21:41.750000,17.31,105.83
70713,2018-06-29 09:21:41.781250,4.75,105.83
70714,2018-06-29 09:21:41.812500,-2.85,105.83
70715,2018-06-29 09:21:41.843750,-7.8,105.83
70716,2018-06-29 09:21:41.875000,-20.36,105.83
70717,2018-06-29 09:21:41.906250,-39.37,105.83
70718,2018-06-29 09:21:41.937500,-52.09,105.83
70719,2018-06-29 09:21:41.968750,-62.84,105.83
70720,2018-06-29 09:21:42.000000,-85.61,105.83
70721,2018-06-29 09:21:42.031250,-106.45,105.83
70722,2018-06-29 09:21:42.062500,-93.52,105.83
70723,2018-06-29 09:21:42.093750,-44.88,105.83
70724,2018-06-29 09:21:42.125000,12.13,105.83
70725,2018-06-29 09:21:42.156250,58.02,105.83
70726,2018-06-29 09:21:42.187500,83.74,105.83
70727,2018-06-29 09:21:42.218750,82.55,105.83
70728,2018-06-29 09:21:42.250000,60.39,105.83
70729,2018-06-29 09:21:42.281250,33.71,105.83
70730,2018-06-29 09:21:42.312500,10.1,105.83
70731,2018-06-29 09:21:42.343750,-10.86,105.83
70732,2018-06-29 09:21:42.375000,-24.23,105.83
70733,2018-06-29 09:21:42.406250,-27.13,105.83
70734,2018-06-29 09:21:42.437500,-27.84,105.83
70735,2018-06-29 09:21:42.468750,-33.12,105.83
70736,2018-06-29 09:21:42.500000,-42.47,105.83
70737,2018-06-29 09:21:42.531250,-58.48,106.23
70738,2018-06-29 09:21:42.562500,-80.27,106.23
70739,2018-06-29 09:21:42.593750,-90.2,106.23
70740,2018-06-29 09:21:42.625000,-70.06,106.23
70741,2018-06-29 09:21:42.656250,-22.72,106.23
70742,2018-06-29 09:21:42.687500,35.84,106.23
70743,2018-06-29 09:21:42.718750,89.85,106.23
70744,2018-06-29 09:21:42.750000,125.07,106.23
70745,2018-06-29 09:21:42.781250,132.22,106.23
70746,2018-06-29 09:21:42.812500,112.52,106.23
70747,2018-06-29 09:21:42.843750,77.91,106.23
70748,2018-06-29 09:21:42.875000,45.45,106.23
70749,2018-06-29 09:21:42.906250,21.87,106.23
70750,2018-06-29 09:21:42.937500,1.77,106.23
70751,2018-06-29 09:21:42.968750,-19.07,106.23
70752,2018-06-29 09:21:43.000000,-39.12,106.23
70753,2018-06-29 09:21:43.031250,-58.69,106.23
70754,2018-06-29 09:21:43.062500,-81.21,106.23
70755,2018-06-29 09:21:43.093750,-105.08,106.23
70756,2018-06-29 09:21:43.125000,-119.89,106.23
70757,2018-06-29 09:21:43.156250,-110.83,106.23
70758,2018-06-29 09:21:43.187500,-72.48,106.23
70759,2018-06-29 09:21:43.218750,-18.32,106.23
70760,2018-06-29 09:21:43.250000,30.94,106.23
70761,2018-06-29 09:21:43.281250,63.94,106.23
70762,2018-06-29 09:21:43.312500,78.44,106.23
70763,2018-06-29 09:21:43.343750,76.24,106.23
70764,2018-06-29 09:21:43.375000,65.41,106.23
70765,2018-06-29 09:21:43.406250,53.91,106.23
70766,2018-06-29 09:21:43.437500,39.76,106.23
70767,2018-06-29 09:21:43.468750,17.56,106.23
70768,2018-06-29 09:21:43.500000,-9.45,106.23
70769,2018-06-29 09:21:43.531250,-30.52,106.62
70770,2018-06-29 09:21:43.562500,-42.0,106.62
70771,2018-06-29 09:21:43.593750,-49.72,106.62
70772,2018-06-29 09:21:43.625000,-56.7,106.62
70773,2018-06-29 09:21:43.656250,-57.44,106.62
70774,2018-06-29 09:21:43.687500,-42.58,106.62
70775,2018-06-29 09:21:43.718750,-4.98,106.62
70776,2018-06-29 09:21:43.750000,50.51,106.62
70777,2018-06-29 09:21:43.781250,99.75,106.62
70778,2018-06-29 09:21:43.812500,125.17,106.62
70779,2018-06-29 09:21:43.843750,136.6,106.62
70780,2018-06-29 09:21:43.875000,141.67,106.62
70781,2018-06-29 09:21:43.906250,129.7,106.62
70782,2018-06-29 09:21:43.937500,102.57,106.62
70783,2018-06-29 09:21:43.968750,78.76,106.62
70784,2018-06-29 09:21:44.000000,61.18,106.62
70785,2018-06-29 09:21:44.031250,37.95,106.62
70786,2018-06-29 09:21:44.062500,10.39,106.62
70787,2018-06-29 09:21:44.093750,-13.92,106.62
70788,2018-06-29 09:21:44.125000,-37.72,106.62
70789,2018-06-29 09:21:44.156250,-66.45,106.62
70790,2018-06-29 09:21:44.187500,-97.42,106.62
70791,2018-06-29 09:21:44.218750,-125.18,106.62
70792,2018-06-29 09:21:44.250000,-144.77,106.62
70793,2018-06-29 09:21:44.281250,-148.73,106.62
70794,2018-06-29 09:21:44.312500,-128.82,106.62
70795,2018-06-29 09:21:44.343750,-87.57,106.62
70796,2018-06-29 09:21:44.375000,-38.84,106.62
70797,2018-06-29 09:21:44.406250,5.01,106.62
70798,2018-06-29 09:21:44.437500,38.45,106.62
70799,2018-06-29 09:21:44.468750,58.51,106.62
70800,2018-06-29 09:21:44.500000,64.45,106.62
70801,2018-06-29 09:21:44.531250,58.8,107.0
70802,2018-06-29 09:21:44.562500,43.44,107.0
70803,2018-06-29 09:21:44.593750,19.59,107.0
70804,2018-06-29 09:21:44.625000,-6.36,107.0
70805,2018-06-29 09:21:44.656250,-24.99,107.0
70806,2018-06-29 09:21:44.687500,-31.17,107.0
70807,2018-06-29 09:21:44.718750,-27.72,107.0
70808,2018-06-29 09:21:44.750000,-25.06,107.0
70809,2018-06-29 09:21:44.781250,-32.56,107.0
70810,2018-06-29 09:21:44.812500,-50.95,107.0
70811,2018-06-29 09:21:44.843750,-70.15,107.0
70812,2018-06-29 09:21:44.875000,-72.53,107.0
70813,2018-06-29 09:21:44.906250,-48.56,107.0
70814,2018-06-29 09:21:44.937500,-11.48,107.0
70815,2018-06-29 09:21:44.968750,17.85,107.0
70816,2018-06-29 09:21:45.000000,34.83,107.0
70817,2018-06-29 09:21:45.031250,43.92,107.0
70818,2018-06-29 09:21:45.062500,43.69,107.0
70819,2018-06-29 09:21:45.093750,33.35,107.0
70820,2018-06-29 09:21:45.125000,23.16,107.0
70821,2018-06-29 09:21:45.156250,22.24,107.0
70822,2018-06-29 09:21:45.187500,24.77,107.0
70823,2018-06-29 09:21:45.218750,21.67,107.0
70824,2018-06-29 09:21:45.250000,14.55,107.0
70825,2018-06-29 09:21:45.281250,7.67,107.0
70826,2018-06-29 09:21:45.312500,-3.69,107.0
70827,2018-06-29 09:21:45.343750,-23.91,107.0
70828,2018-06-29 09:21:45.375000,-48.32,107.0
70829,2018-06-29 09:21:45.406250,-71.77,107.0
70830,2018-06-29 09:21:45.437500,-86.56,107.0
70831,2018-06-29 09:21:45.468750,-78.26,107.0
70832,2018-06-29 09:21:45.500000,-44.05,107.0
70833,2018-06-29 09:21:45.531250,-0.68,107.37
70834,2018-06-29 09:21:45.562500,37.72,107.37
70835,2018-06-29 09:21:45.593750,73.06,107.37
70836,2018-06-29 09:21:45.625000,104.54,107.37
70837,2018-06-29 09:21:45.656250,122.74,107.37
70838,2018-06-29 09:21:45.687500,124.69,107.37
70839,2018-06-29 09:21:45.718750,115.06,107.37
70840,2018-06-29 09:21:45.750000,96.78,107.37
70841,2018-06-29 09:21:45.781250,70.49,107.37
70842,2018-06-29 09:21:45.812500,42.97,107.37
70843,2018-06-29 09:21:45.843750,23.67,107.37
70844,2018-06-29 09:21:45.875000,11.34,107.37
70845,2018-06-29 09:21:45.906250,-5.38,107.37
70846,2018-06-29 09:21:45.937500,-34.67,107.37
70847,2018-06-29 09:21:45.968750,-73.88,107.37
70848,2018-06-29 09:21:46.000000,-110.01,107.37
70849,2018-06-29 09:21:46.031250,-123.79,107.37
70850,2018-06-29 09:21:46.062500,-102.89,107.37
70851,2018-06-29 09:21:46.093750,-56.58,107.37
70852,2018-06-29 09:21:46.125000,-9.96,107.37
70853,2018-06-29 09:21:46.156250,19.6,107.37
70854,2018-06-29 09:21:46.187500,35.66,107.37
70855,2018-06-29 09:21:46.218750,46.29,107.37
70856,2018-06-29 09:21:46.250000,47.77,107.37
70857,2018-06-29 09:21:46.281250,38.06,107.37
70858,2018-06-29 09:21:46.312500,25.24,107.37
70859,2018-06-29 09:21:46.343750,15.14,107.37
70860,2018-06-29 09:21:46.375000,3.62,107.37
70861,2018-06-29 09:21:46.406250,-8.95,107.37
70862,2018-06-29 09:21:46.437500,-16.96,107.37
70863,2018-06-29 09:21:46.468750,-23.43,107.37
70864,2018-06-29 09:21:46.500000,-35.1,107.37
70865,2018-06-29 09:21:46.531250,-53.25,107.7
70866,2018-06-29 09:21:46.562500,-73.66,107.7
70867,2018-06-29 09:21:46.593750,-83.32,107.7
70868,2018-06-29 09:21:46.625000,-65.37,107.7
70869,2018-06-29 09:21:46.656250,-19.28,107.7
70870,2018-06-29 09:21:46.687500,32.21,107.7
70871,2018-06-29 09:21:46.718750,69.18,107.7
70872,2018-06-29 09:21:46.750000,88.38,107.7
70873,2018-06-29 09:21:46.781250,89.03,107.7
70874,2018-06-29 09:21:46.812500,70.95,107.7
70875,2018-06-29 09:21:46.843750,45.0,107.7
70876,2018-06-29 09:21:46.875000,25.35,107.7
70877,2018-06-29 09:21:46.906250,12.22,107.7
70878,2018-06-29 09:21:46.937500,-2.2,107.7
70879,2018-06-29 09:21:46.968750,-16.87,107.7
70880,2018-06-29 09:21:47.000000,-24.41,107.7
70881,2018-06-29 09:21:47.031250,-24.18,107.7
70882,2018-06-29 09:21:47.062500,-22.76,107.7
70883,2018-06-29 09:21:47.093750,-27.05,107.7
70884,2018-06-29 09:21:47.125000,-40.5,107.7
70885,2018-06-29 09:21:47.156250,-56.2,107.7
70886,2018-06-29 09:21:47.187500,-57.76,107.7
70887,2018-06-29 09:21:47.218750,-38.09,107.7
70888,2018-06-29 09:21:47.250000,-8.6,107.7
70889,2018-06-29 09:21:47.281250,16.09,107.7
70890,2018-06-29 09:21:47.312500,33.46,107.7
70891,2018-06-29 09:21:47.343750,45.2,107.7
70892,2018-06-29 09:21:47.375000,50.2,107.7
70893,2018-06-29 09:21:47.406250,50.59,107.7
70894,2018-06-29 09:21:47.437500,52.01,107.7
70895,2018-06-29 09:21:47.468750,56.93,107.7
70896,2018-06-29 09:21:47.500000,60.37,107.7
70897,2018-06-29 09:21:47.531250,55.3,108.0
70898,2018-06-29 09:21:47.562500,41.71,108.0
70899,2018-06-29 09:21:47.593750,26.55,108.0
70900,2018-06-29 09:21:47.625000,12.34,108.0
70901,2018-06-29 09:21:47.656250,-7.7,108.0
70902,2018-06-29 09:21:47.687500,-35.53,108.0
70903,2018-06-29 09:21:47.718750,-62.82,108.0
70904,2018-06-29 09:21:47.750000,-76.51,108.0
70905,2018-06-29 09:21:47.781250,-66.34,108.0
70906,2018-06-29 09:21:47.812500,-35.0,108.0
70907,2018-06-29 09:21:47.843750,-0.11,108.0
70908,2018-06-29 09:21:47.875000,24.01,108.0
70909,2018-06-29 09:21:47.906250,38.62,108.0
70910,2018-06-29 09:21:47.937500,43.75,108.0
70911,2018-06-29 09:21:47.968750,34.92,108.0
70912,2018-06-29 09:21:48.000000,14.87,108.0
70913,2018-06-29 09:21:48.031250,-7.81,108.0
70914,2018-06-29 09:21:48.062500,-25.63,108.0
70915,2018-06-29 09:21:48.093750,-32.27,108.0
70916,2018-06-29 09:21:48.125000,-26.69,108.0
70917,2018-06-29 09:21:48.156250,-19.2,108.0
70918,2018-06-29 09:21:48.187500,-21.04,108.0
70919,2018-06-29 09:21:48.218750,-32.4,108.0
70920,2018-06-29 09:21:48.250000,-50.47,108.0
70921,2018-06-29 09:21:48.281250,-71.41,108.0
70922,2018-06-29 09:21:48.312500,-82.49,108.0
70923,2018-06-29 09:21:48.343750,-70.32,108.0
70924,2018-06-29 09:21:48.375000,-36.78,108.0
70925,2018-06-29 09:21:48.406250,4.08,108.0
70926,2018-06-29 09:21:48.437500,41.18,108.0
70927,2018-06-29 09:21:48.468750,67.58,108.0
70928,2018-06-29 09:21:48.500000,78.26,108.0
70929,2018-06-29 09:21:48.531250,75.08,108.25
70930,2018-06-29 09:21:48.562500,67.17,108.25
70931,2018-06-29 09:21:48.593750,61.13,108.25
70932,2018-06-29 09:21:48.625000,53.51,108.25
70933,2018-06-29 09:21:48.656250,37.91,108.25
70934,2018-06-29 09:21:48.687500,17.06,108.25
70935,2018-06-29 09:21:48.718750,-1.17,108.25
70936,2018-06-29 09:21:48.750000,-13.79,108.25
70937,2018-06-29 09:21:48.781250,-24.72,108.25
70938,2018-06-29 09:21:48.812500,-41.44,108.25
70939,2018-06-29 09:21:48.843750,-68.57,108.25
70940,2018-06-29 09:21:48.875000,-92.73,108.25
70941,2018-06-29 09:21:48.906250,-87.97,108.25
70942,2018-06-29 09:21:48.937500,-48.2,108.25
70943,2018-06-29 09:21:48.968750,4.75,108.25
70944,2018-06-29 09:21:49.000000,48.03,108.25
70945,2018-06-29 09:21:49.031250,72.85,108.25
70946,2018-06-29 09:21:49.062500,76.67,108.25
70947,2018-06-29 09:21:49.093750,64.39,108.25
70948,2018-06-29 09:21:49.125000,52.03,108.25
70949,2018-06-29 09:21:49.156250,49.57,108.25
70950,2018-06-29 09:21:49.187500,48.19,108.25
70951,2018-06-29 09:21:49.218750,34.0,108.25
70952,2018-06-29 09:21:49.250000,8.6,108.25
70953,2018-06-29 09:21:49.281250,-13.53,108.25
70954,2018-06-29 09:21:49.312500,-25.57,108.25
70955,2018-06-29 09:21:49.343750,-34.84,108.25
70956,2018-06-29 09:21:49.375000,-49.78,108.25
70957,2018-06-29 09:21:49.406250,-68.99,108.25
70958,2018-06-29 09:21:49.437500,-80.31,108.25
70959,2018-06-29 09:21:49.468750,-68.93,108.25
70960,2018-06-29 09:21:49.500000,-33.18,108.25
70961,2018-06-29 09:21:49.531250,9.08,108.43
70962,2018-06-29 09:21:49.562500,38.62,108.43
70963,2018-06-29 09:21:49.593750,50.14,108.43
70964,2018-06-29 09:21:49.625000,47.7,108.43
70965,2018-06-29 09:21:49.656250,37.45,108.43
70966,2018-06-29 09:21:49.687500,27.09,108.43
70967,2018-06-29 09:21:49.718750,21.26,108.43
70968,2018-06-29 09:21:49.750000,15.11,108.43
70969,2018-06-29 09:21:49.781250,1.51,108.43
70970,2018-06-29 09:21:49.812500,-18.62,108.43
70971,2018-06-29 09:21:49.843750,-38.78,108.43
70972,2018-06-29 09:21:49.875000,-57.1,108.43
70973,2018-06-29 09:21:49.906250,-79.97,108.43
70974,2018-06-29 09:21:49.937500,-110.25,108.43
70975,2018-06-29 09:21:49.968750,-138.34,108.43
70976,2018-06-29 09:21:50.000000,-146.24,108.43
70977,2018-06-29 09:21:50.031250,-121.04,108.43
70978,2018-06-29 09:21:50.062500,-67.06,108.43
70979,2018-06-29 09:21:50.093750,-3.99,108.43
70980,2018-06-29 09:21:50.125000,49.12,108.43
70981,2018-06-29 09:21:50.156250,87.74,108.43
70982,2018-06-29 09:21:50.187500,110.85,108.43
70983,2018-06-29 09:21:50.218750,107.33,108.43
70984,2018-06-29 09:21:50.250000,76.14,108.43
70985,2018-06-29 09:21:50.281250,39.52,108.43
70986,2018-06-29 09:21:50.312500,14.55,108.43
70987,2018-06-29 09:21:50.343750,-4.16,108.43
70988,2018-06-29 09:21:50.375000,-20.69,108.43
70989,2018-06-29 09:21:50.406250,-27.6,108.43
70990,2018-06-29 09:21:50.437500,-29.1,108.43
70991,2018-06-29 09:21:50.468750,-37.73,108.43
70992,2018-06-29 09:21:50.500000,-54.48,108.43
70993,2018-06-29 09:21:50.531250,-68.51,108.57
70994,2018-06-29 09:21:50.562500,-67.9,108.57
70995,2018-06-29 09:21:50.593750,-43.18,108.57
70996,2018-06-29 09:21:50.625000,3.33,108.57
70997,2018-06-29 09:21:50.656250,53.27,108.57
70998,2018-06-29 09:21:50.687500,86.81,108.57
70999,2018-06-29 09:21:50.718750,97.52,108.57
71000,2018-06-29 09:21:50.750000,88.74,108.57
71001,2018-06-29 09:21:50.781250,68.04,108.57
71002,2018-06-29 09:21:50.812500,45.82,108.57
71003,2018-06-29 09:21:50.843750,27.84,108.57
71004,2018-06-29 09:21:50.875000,10.27,108.57
71005,2018-06-29 09:21:50.906250,-11.56,108.57
71006,2018-06-29 09:21:50.937500,-32.61,108.57
71007,2018-06-29 09:21:50.968750,-46.74,108.57
71008,2018-06-29 09:21:51.000000,-56.57,108.57
71009,2018-06-29 09:21:51.031250,-66.0,108.57
71010,2018-06-29 09:21:51.062500,-75.37,108.57
71011,2018-06-29 09:21:51.093750,-83.5,108.57
71012,2018-06-29 09:21:51.125000,-81.8,108.57
71013,2018-06-29 09:21:51.156250,-56.51,108.57
71014,2018-06-29 09:21:51.187500,-9.16,108.57
71015,2018-06-29 09:21:51.218750,37.66,108.57
71016,2018-06-29 09:21:51.250000,67.41,108.57
71017,2018-06-29 09:21:51.281250,81.83,108.57
71018,2018-06-29 09:21:51.312500,86.16,108.57
71019,2018-06-29 09:21:51.343750,80.27,108.57
71020,2018-06-29 09:21:51.375000,65.95,108.57
71021,2018-06-29 09:21:51.406250,51.06,108.57
71022,2018-06-29 09:21:51.437500,39.15,108.57
71023,2018-06-29 09:21:51.468750,25.97,108.57
71024,2018-06-29 09:21:51.500000,10.11,108.57
71025,2018-06-29 09:21:51.531250,-3.34,108.68
71026,2018-06-29 09:21:51.562500,-11.74,108.68
71027,2018-06-29 09:21:51.593750,-19.49,108.68
71028,2018-06-29 09:21:51.625000,-31.41,108.68
71029,2018-06-29 09:21:51.656250,-49.58,108.68
71030,2018-06-29 09:21:51.687500,-69.42,108.68
71031,2018-06-29 09:21:51.718750,-71.28,108.68
71032,2018-06-29 09:21:51.750000,-39.83,108.68
71033,2018-06-29 09:21:51.781250,8.38,108.68
71034,2018-06-29 09:21:51.812500,45.15,108.68
71035,2018-06-29 09:21:51.843750,66.09,108.68
71036,2018-06-29 09:21:51.875000,79.51,108.68
71037,2018-06-29 09:21:51.906250,80.88,108.68
71038,2018-06-29 09:21:51.937500,69.23,108.68
71039,2018-06-29 09:21:51.968750,60.54,108.68
71040,2018-06-29 09:21:52.000000,60.88,108.68
71041,2018-06-29 09:21:52.031250,52.3,108.68
71042,2018-06-29 09:21:52.062500,24.13,108.68
71043,2018-06-29 09:21:52.093750,-5.41,108.68
71044,2018-06-29 09:21:52.125000,-18.62,108.68
71045,2018-06-29 09:21:52.156250,-23.36,108.68
71046,2018-06-29 09:21:52.187500,-33.86,108.68
71047,2018-06-29 09:21:52.218750,-47.94,108.68
71048,2018-06-29 09:21:52.250000,-52.62,108.68
71049,2018-06-29 09:21:52.281250,-35.67,108.68
71050,2018-06-29 09:21:52.312500,6.17,108.68
71051,2018-06-29 09:21:52.343750,55.53,108.68
71052,2018-06-29 09:21:52.375000,84.12,108.68
71053,2018-06-29 09:21:52.406250,83.67,108.68
71054,2018-06-29 09:21:52.437500,71.62,108.68
71055,2018-06-29 09:21:52.468750,61.83,108.68
71056,2018-06-29 09:21:52.500000,49.09,108.68
71057,2018-06-29 09:21:52.531250,32.23,108.78
71058,2018-06-29 09:21:52.562500,25.18,108.78
71059,2018-06-29 09:21:52.593750,34.29,108.78
71060,2018-06-29 09:21:52.625000,47.35,108.78
71061,2018-06-29 09:21:52.656250,47.11,108.78
71062,2018-06-29 09:21:52.687500,26.19,108.78
71063,2018-06-29 09:21:52.718750,-9.29,108.78
71064,2018-06-29 09:21:52.750000,-48.51,108.78
71065,2018-06-29 09:21:52.781250,-83.87,108.78
71066,2018-06-29 09:21:52.812500,-103.8,108.78
71067,2018-06-29 09:21:52.843750,-94.6,108.78
71068,2018-06-29 09:21:52.875000,-60.73,108.78
71069,2018-06-29 09:21:52.906250,-22.5,108.78
71070,2018-06-29 09:21:52.937500,7.54,108.78
71071,2018-06-29 09:21:52.968750,26.21,108.78
71072,2018-06-29 09:21:53.000000,31.15,108.78
71073,2018-06-29 09:21:53.031250,20.47,108.78
71074,2018-06-29 09:21:53.062500,-3.23,108.78
71075,2018-06-29 09:21:53.093750,-29.35,108.78
71076,2018-06-29 09:21:53.125000,-46.7,108.78
71077,2018-06-29 09:21:53.156250,-54.35,108.78
71078,2018-06-29 09:21:53.187500,-62.01,108.78
71079,2018-06-29 09:21:53.218750,-74.65,108.78
71080,2018-06-29 09:21:53.250000,-88.96,108.78
71081,2018-06-29 09:21:53.281250,-100.59,108.78
71082,2018-06-29 09:21:53.312500,-110.96,108.78
71083,2018-06-29 09:21:53.343750,-124.69,108.78
71084,2018-06-29 09:21:53.375000,-138.19,108.78
71085,2018-06-29 09:21:53.406250,-136.97,108.78
71086,2018-06-29 09:21:53.437500,-109.2,108.78
71087,2018-06-29 09:21:53.468750,-57.85,108.78
71088,2018-06-29 09:21:53.500000,2.23,108.78
71089,2018-06-29 09:21:53.531250,53.11,108.88
71090,2018-06-29 09:21:53.562500,80.44,108.88
71091,2018-06-29 09:21:53.593750,81.53,108.88
71092,2018-06-29 09:21:53.625000,70.64,108.88
71093,2018-06-29 09:21:53.656250,61.61,108.88
71094,2018-06-29 09:21:53.687500,52.21,108.88
71095,2018-06-29 09:21:53.718750,45.75,108.88
71096,2018-06-29 09:21:53.750000,53.95,108.88
71097,2018-06-29 09:21:53.781250,68.59,108.88
71098,2018-06-29 09:21:53.812500,74.01,108.88
71099,2018-06-29 09:21:53.843750,74.87,108.88
71100,2018-06-29 09:21:53.875000,73.78,108.88
71101,2018-06-29 09:21:53.906250,53.25,108.88
71102,2018-06-29 09:21:53.937500,14.92,108.88
71103,2018-06-29 09:21:53.968750,-7.71,108.88
71104,2018-06-29 09:21:54.000000,4.23,108.88
71105,2018-06-29 09:21:54.031250,34.18,108.88
71106,2018-06-29 09:21:54.062500,60.34,108.88
71107,2018-06-29 09:21:54.093750,77.87,108.88
71108,2018-06-29 09:21:54.125000,83.27,108.88
71109,2018-06-29 09:21:54.156250,67.02,108.88
71110,2018-06-29 09:21:54.187500,34.47,108.88
71111,2018-06-29 09:21:54.218750,5.06,108.88
71112,2018-06-29 09:21:54.250000,-11.34,108.88
71113,2018-06-29 09:21:54.281250,-21.6,108.88
71114,2018-06-29 09:21:54.312500,-34.26,108.88
71115,2018-06-29 09:21:54.343750,-48.08,108.88
71116,2018-06-29 09:21:54.375000,-53.72,108.88
71117,2018-06-29 09:21:54.406250,-49.56,108.88
71118,2018-06-29 09:21:54.437500,-47.87,108.88
71119,2018-06-29 09:21:54.468750,-58.93,108.88
71120,2018-06-29 09:21:54.500000,-79.59,108.88
71121,2018-06-29 09:21:54.531250,-98.59,108.98
71122,2018-06-29 09:21:54.562500,-103.07,108.98
71123,2018-06-29 09:21:54.593750,-88.53,108.98
71124,2018-06-29 09:21:54.625000,-65.03,108.98
71125,2018-06-29 09:21:54.656250,-43.36,108.98
71126,2018-06-29 09:21:54.687500,-22.92,108.98
71127,2018-06-29 09:21:54.718750,-1.72,108.98
71128,2018-06-29 09:21:54.750000,14.7,108.98
71129,2018-06-29 09:21:54.781250,24.99,108.98
71130,2018-06-29 09:21:54.812500,36.21,108.98
71131,2018-06-29 09:21:54.843750,50.24,108.98
71132,2018-06-29 09:21:54.875000,59.37,108.98
71133,2018-06-29 09:21:54.906250,54.75,108.98
71134,2018-06-29 09:21:54.937500,33.77,108.98
71135,2018-06-29 09:21:54.968750,1.29,108.98
71136,2018-06-29 09:21:55.000000,-34.07,108.98
71137,2018-06-29 09:21:55.031250,-66.89,108.98
71138,2018-06-29 09:21:55.062500,-97.5,108.98
71139,2018-06-29 09:21:55.093750,-120.18,108.98
71140,2018-06-29 09:21:55.125000,-119.97,108.98
71141,2018-06-29 09:21:55.156250,-90.66,108.98
71142,2018-06-29 09:21:55.187500,-44.79,108.98
71143,2018-06-29 09:21:55.218750,1.25,108.98
71144,2018-06-29 09:21:55.250000,38.32,108.98
71145,2018-06-29 09:21:55.281250,58.05,108.98
71146,2018-06-29 09:21:55.312500,55.62,108.98
71147,2018-06-29 09:21:55.343750,39.77,108.98
71148,2018-06-29 09:21:55.375000,27.84,108.98
71149,2018-06-29 09:21:55.406250,25.43,108.98
71150,2018-06-29 09:21:55.437500,24.3,108.98
71151,2018-06-29 09:21:55.468750,19.77,108.98
71152,2018-06-29 09:21:55.500000,15.75,108.98
71153,2018-06-29 09:21:55.531250,15.35,109.07
71154,2018-06-29 09:21:55.562500,15.19,109.07
71155,2018-06-29 09:21:55.593750,7.65,109.07
71156,2018-06-29 09:21:55.625000,-11.44,109.07
71157,2018-06-29 09:21:55.656250,-31.86,109.07
71158,2018-06-29 09:21:55.687500,-31.79,109.07
71159,2018-06-29 09:21:55.718750,-3.32,109.07
71160,2018-06-29 09:21:55.750000,38.17,109.07
71161,2018-06-29 09:21:55.781250,75.31,109.07
71162,2018-06-29 09:21:55.812500,102.36,109.07
71163,2018-06-29 09:21:55.843750,116.29,109.07
71164,2018-06-29 09:21:55.875000,112.58,109.07
71165,2018-06-29 09:21:55.906250,94.01,109.07
71166,2018-06-29 09:21:55.937500,69.68,109.07
71167,2018-06-29 09:21:55.968750,41.93,109.07
71168,2018-06-29 09:21:56.000000,9.76,109.07
71169,2018-06-29 09:21:56.031250,-20.65,109.07
71170,2018-06-29 09:21:56.062500,-39.77,109.07
71171,2018-06-29 09:21:56.093750,-48.52,109.07
71172,2018-06-29 09:21:56.125000,-58.81,109.07
71173,2018-06-29 09:21:56.156250,-77.13,109.07
71174,2018-06-29 09:21:56.187500,-92.86,109.07
71175,2018-06-29 09:21:56.218750,-87.34,109.07
71176,2018-06-29 09:21:56.250000,-55.11,109.07
71177,2018-06-29 09:21:56.281250,-12.46,109.07
71178,2018-06-29 09:21:56.312500,22.26,109.07
71179,2018-06-29 09:21:56.343750,44.15,109.07
71180,2018-06-29 09:21:56.375000,54.01,109.07
71181,2018-06-29 09:21:56.406250,51.96,109.07
71182,2018-06-29 09:21:56.437500,42.59,109.07
71183,2018-06-29 09:21:56.468750,35.49,109.07
71184,2018-06-29 09:21:56.500000,33.65,109.07
71185,2018-06-29 09:21:56.531250,30.89,109.13
71186,2018-06-29 09:21:56.562500,21.71,109.13
71187,2018-06-29 09:21:56.593750,7.97,109.13
71188,2018-06-29 09:21:56.625000,-6.77,109.13
71189,2018-06-29 09:21:56.656250,-24.28,109.13
71190,2018-06-29 09:21:56.687500,-48.24,109.13
71191,2018-06-29 09:21:56.718750,-73.29,109.13
71192,2018-06-29 09:21:56.750000,-84.11,109.13
71193,2018-06-29 09:21:56.781250,-68.95,109.13
71194,2018-06-29 09:21:56.812500,-33.18,109.13
71195,2018-06-29 09:21:56.843750,6.53,109.13
71196,2018-06-29 09:21:56.875000,36.57,109.13
71197,2018-06-29 09:21:56.906250,50.9,109.13
71198,2018-06-29 09:21:56.937500,50.03,109.13
71199,2018-06-29 09:21:56.968750,41.74,109.13
71200,2018-06-29 09:21:57.000000,35.53,109.13
71201,2018-06-29 09:21:57.031250,32.68,109.13
71202,2018-06-29 09:21:57.062500,27.33,109.13
71203,2018-06-29 09:21:57.093750,17.5,109.13
71204,2018-06-29 09:21:57.125000,6.82,109.13
71205,2018-06-29 09:21:57.156250,-1.46,109.13
71206,2018-06-29 09:21:57.187500,-7.65,109.13
71207,2018-06-29 09:21:57.218750,-15.68,109.13
71208,2018-06-29 09:21:57.250000,-32.82,109.13
71209,2018-06-29 09:21:57.281250,-61.54,109.13
71210,2018-06-29 09:21:57.312500,-84.24,109.13
71211,2018-06-29 09:21:57.343750,-75.36,109.13
71212,2018-06-29 09:21:57.375000,-35.92,109.13
71213,2018-06-29 09:21:57.406250,6.43,109.13
71214,2018-06-29 09:21:57.437500,34.8,109.13
71215,2018-06-29 09:21:57.468750,58.0,109.13
71216,2018-06-29 09:21:57.500000,81.88,109.13
71217,2018-06-29 09:21:57.531250,94.38,109.2
71218,2018-06-29 09:21:57.562500,87.21,109.2
71219,2018-06-29 09:21:57.593750,70.62,109.2
71220,2018-06-29 09:21:57.625000,57.09,109.2
71221,2018-06-29 09:21:57.656250,45.11,109.2
71222,2018-06-29 09:21:57.687500,28.05,109.2
71223,2018-06-29 09:21:57.718750,7.07,109.2
71224,2018-06-29 09:21:57.750000,-12.71,109.2
71225,2018-06-29 09:21:57.781250,-31.93,109.2
71226,2018-06-29 09:21:57.812500,-55.85,109.2
71227,2018-06-29 09:21:57.843750,-83.07,109.2
71228,2018-06-29 09:21:57.875000,-99.74,109.2
71229,2018-06-29 09:21:57.906250,-90.33,109.2
71230,2018-06-29 09:21:57.937500,-55.27,109.2
71231,2018-06-29 09:21:57.968750,-10.04,109.2
71232,2018-06-29 09:21:58.000000,32.07,109.2
71233,2018-06-29 09:21:58.031250,62.58,109.2
71234,2018-06-29 09:21:58.062500,72.8,109.2
71235,2018-06-29 09:21:58.093750,62.14,109.2
71236,2018-06-29 09:21:58.125000,43.6,109.2
71237,2018-06-29 09:21:58.156250,29.73,109.2
71238,2018-06-29 09:21:58.187500,19.39,109.2
71239,2018-06-29 09:21:58.218750,6.69,109.2
71240,2018-06-29 09:21:58.250000,-7.28,109.2
71241,2018-06-29 09:21:58.281250,-17.75,109.2
71242,2018-06-29 09:21:58.312500,-23.24,109.2
71243,2018-06-29 09:21:58.343750,-26.74,109.2
71244,2018-06-29 09:21:58.375000,-34.03,109.2
71245,2018-06-29 09:21:58.406250,-48.67,109.2
71246,2018-06-29 09:21:58.437500,-64.92,109.2
71247,2018-06-29 09:21:58.468750,-68.36,109.2
71248,2018-06-29 09:21:58.500000,-47.37,109.2
71249,2018-06-29 09:21:58.531250,-5.86,109.25
71250,2018-06-29 09:21:58.562500,39.44,109.25
71251,2018-06-29 09:21:58.593750,74.25,109.25
71252,2018-06-29 09:21:58.625000,91.88,109.25
71253,2018-06-29 09:21:58.656250,87.18,109.25
71254,2018-06-29 09:21:58.687500,60.89,109.25
71255,2018-06-29 09:21:58.718750,28.76,109.25
71256,2018-06-29 09:21:58.750000,7.37,109.25
71257,2018-06-29 09:21:58.781250,-3.52,109.25
71258,2018-06-29 09:21:58.812500,-13.44,109.25
71259,2018-06-29 09:21:58.843750,-23.73,109.25
71260,2018-06-29 09:21:58.875000,-29.8,109.25
71261,2018-06-29 09:21:58.906250,-33.03,109.25
71262,2018-06-29 09:21:58.937500,-38.7,109.25
71263,2018-06-29 09:21:58.968750,-50.1,109.25
71264,2018-06-29 09:21:59.000000,-69.67,109.25
71265,2018-06-29 09:21:59.031250,-93.68,109.25
71266,2018-06-29 09:21:59.062500,-104.44,109.25
71267,2018-06-29 09:21:59.093750,-85.06,109.25
71268,2018-06-29 09:21:59.125000,-42.82,109.25
71269,2018-06-29 09:21:59.156250,0.75,109.25
71270,2018-06-29 09:21:59.187500,34.23,109.25
71271,2018-06-29 09:21:59.218750,57.44,109.25
71272,2018-06-29 09:21:59.250000,67.94,109.25
71273,2018-06-29 09:21:59.281250,64.67,109.25
71274,2018-06-29 09:21:59.312500,54.66,109.25
71275,2018-06-29 09:21:59.343750,45.14,109.25
71276,2018-06-29 09:21:59.375000,37.47,109.25
71277,2018-06-29 09:21:59.406250,29.52,109.25
71278,2018-06-29 09:21:59.437500,19.47,109.25
71279,2018-06-29 09:21:59.468750,9.75,109.25
71280,2018-06-29 09:21:59.500000,4.08,109.25
71281,2018-06-29 09:21:59.531250,0.79,109.28
71282,2018-06-29 09:21:59.562500,-7.26,109.28
71283,2018-06-29 09:21:59.593750,-24.96,109.28
71284,2018-06-29 09:21:59.625000,-48.89,109.28
71285,2018-06-29 09:21:59.656250,-63.28,109.28
71286,2018-06-29 09:21:59.687500,-49.43,109.28
71287,2018-06-29 09:21:59.718750,-11.75,109.28
71288,2018-06-29 09:21:59.750000,23.18,109.28
71289,2018-06-29 09:21:59.781250,40.89,109.28
71290,2018-06-29 09:21:59.812500,47.82,109.28
71291,2018-06-29 09:21:59.843750,47.53,109.28
71292,2018-06-29 09:21:59.875000,36.52,109.28
71293,2018-06-29 09:21:59.906250,20.78,109.28
71294,2018-06-29 09:21:59.937500,11.39,109.28
71295,2018-06-29 09:21:59.968750,8.13,109.28
71296,2018-06-29 09:22:00.000000,2.7,109.28
71297,2018-06-29 09:22:00.031250,-6.84,109.28
71298,2018-06-29 09:22:00.062500,-15.06,109.28
71299,2018-06-29 09:22:00.093750,-21.95,109.28
71300,2018-06-29 09:22:00.125000,-30.45,109.28
71301,2018-06-29 09:22:00.156250,-42.41,109.28
71302,2018-06-29 09:22:00.187500,-57.65,109.28
71303,2018-06-29 09:22:00.218750,-67.2,109.28
71304,2018-06-29 09:22:00.250000,-54.1,109.28
71305,2018-06-29 09:22:00.281250,-14.12,109.28
71306,2018-06-29 09:22:00.312500,34.46,109.28
71307,2018-06-29 09:22:00.343750,72.47,109.28
71308,2018-06-29 09:22:00.375000,93.11,109.28
71309,2018-06-29 09:22:00.406250,94.83,109.28
71310,2018-06-29 09:22:00.437500,81.25,109.28
71311,2018-06-29 09:22:00.468750,62.75,109.28
71312,2018-06-29 09:22:00.500000,49.64,109.28
71313,2018-06-29 09:22:00.531250,40.78,109.28
71314,2018-06-29 09:22:00.562500,25.96,109.28
71315,2018-06-29 09:22:00.593750,0.99,109.28
71316,2018-06-29 09:22:00.625000,-23.63,109.28
71317,2018-06-29 09:22:00.656250,-36.67,109.28
71318,2018-06-29 09:22:00.687500,-43.12,109.28
71319,2018-06-29 09:22:00.718750,-56.65,109.28
71320,2018-06-29 09:22:00.750000,-80.57,109.28
71321,2018-06-29 09:22:00.781250,-101.66,109.28
71322,2018-06-29 09:22:00.812500,-100.96,109.28
71323,2018-06-29 09:22:00.843750,-71.13,109.28
71324,2018-06-29 09:22:00.875000,-24.49,109.28
71325,2018-06-29 09:22:00.906250,19.3,109.28
71326,2018-06-29 09:22:00.937500,49.21,109.28
71327,2018-06-29 09:22:00.968750,62.94,109.28
71328,2018-06-29 09:22:01.000000,61.12,109.28
71329,2018-06-29 09:22:01.031250,49.2,109.28
71330,2018-06-29 09:22:01.062500,36.54,109.28
71331,2018-06-29 09:22:01.093750,26.8,109.28
71332,2018-06-29 09:22:01.125000,16.1,109.28
71333,2018-06-29 09:22:01.156250,1.84,109.28
71334,2018-06-29 09:22:01.187500,-11.04,109.28
71335,2018-06-29 09:22:01.218750,-18.24,109.28
71336,2018-06-29 09:22:01.250000,-25.42,109.28
71337,2018-06-29 09:22:01.281250,-39.81,109.28
71338,2018-06-29 09:22:01.312500,-58.68,109.28
71339,2018-06-29 09:22:01.343750,-68.42,109.28
71340,2018-06-29 09:22:01.375000,-56.9,109.28
71341,2018-06-29 09:22:01.406250,-25.06,109.28
71342,2018-06-29 09:22:01.437500,13.5,109.28
71343,2018-06-29 09:22:01.468750,46.08,109.28
71344,2018-06-29 09:22:01.500000,67.1,109.28
71345,2018-06-29 09:22:01.531250,72.54,109.28
71346,2018-06-29 09:22:01.562500,61.01,109.28
71347,2018-06-29 09:22:01.593750,40.49,109.28
71348,2018-06-29 09:22:01.625000,22.05,109.28
71349,2018-06-29 09:22:01.656250,6.84,109.28
71350,2018-06-29 09:22:01.687500,-10.62,109.28
71351,2018-06-29 09:22:01.718750,-28.06,109.28
71352,2018-06-29 09:22:01.750000,-37.03,109.28
71353,2018-06-29 09:22:01.781250,-38.24,109.28
71354,2018-06-29 09:22:01.812500,-42.05,109.28
71355,2018-06-29 09:22:01.843750,-53.36,109.28
71356,2018-06-29 09:22:01.875000,-69.39,109.28
71357,2018-06-29 09:22:01.906250,-82.37,109.28
71358,2018-06-29 09:22:01.937500,-80.53,109.28
71359,2018-06-29 09:22:01.968750,-56.75,109.28
71360,2018-06-29 09:22:02.000000,-19.45,109.28
71361,2018-06-29 09:22:02.031250,15.79,109.28
71362,2018-06-29 09:22:02.062500,42.57,109.28
71363,2018-06-29 09:22:02.093750,56.46,109.28
71364,2018-06-29 09:22:02.125000,54.33,109.28
71365,2018-06-29 09:22:02.156250,45.27,109.28
71366,2018-06-29 09:22:02.187500,43.79,109.28
71367,2018-06-29 09:22:02.218750,53.34,109.28
71368,2018-06-29 09:22:02.250000,64.44,109.28
71369,2018-06-29 09:22:02.281250,65.88,109.28
71370,2018-06-29 09:22:02.312500,57.05,109.28
71371,2018-06-29 09:22:02.343750,48.47,109.28
71372,2018-06-29 09:22:02.375000,42.26,109.28
71373,2018-06-29 09:22:02.406250,22.74,109.28
71374,2018-06-29 09:22:02.437500,-16.86,109.28
71375,2018-06-29 09:22:02.468750,-59.09,109.28
71376,2018-06-29 09:22:02.500000,-81.5,109.28
71377,2018-06-29 09:22:02.531250,-76.75,109.27
71378,2018-06-29 09:22:02.562500,-49.32,109.27
71379,2018-06-29 09:22:02.593750,-10.56,109.27
71380,2018-06-29 09:22:02.625000,23.37,109.27
71381,2018-06-29 09:22:02.656250,43.03,109.27
71382,2018-06-29 09:22:02.687500,50.17,109.27
71383,2018-06-29 09:22:02.718750,47.48,109.27
71384,2018-06-29 09:22:02.750000,38.39,109.27
71385,2018-06-29 09:22:02.781250,30.81,109.27
71386,2018-06-29 09:22:02.812500,24.73,109.27
71387,2018-06-29 09:22:02.843750,10.56,109.27
71388,2018-06-29 09:22:02.875000,-8.49,109.27
71389,2018-06-29 09:22:02.906250,-19.0,109.27
71390,2018-06-29 09:22:02.937500,-20.23,109.27
71391,2018-06-29 09:22:02.968750,-19.63,109.27
71392,2018-06-29 09:22:03.000000,-18.43,109.27
71393,2018-06-29 09:22:03.031250,-19.73,109.27
71394,2018-06-29 09:22:03.062500,-29.06,109.27
71395,2018-06-29 09:22:03.093750,-35.62,109.27
71396,2018-06-29 09:22:03.125000,-15.77,109.27
71397,2018-06-29 09:22:03.156250,27.14,109.27
71398,2018-06-29 09:22:03.187500,59.81,109.27
71399,2018-06-29 09:22:03.218750,64.69,109.27
71400,2018-06-29 09:22:03.250000,55.48,109.27
71401,2018-06-29 09:22:03.281250,41.99,109.27
71402,2018-06-29 09:22:03.312500,21.75,109.27
71403,2018-06-29 09:22:03.343750,5.3,109.27
71404,2018-06-29 09:22:03.375000,3.18,109.27
71405,2018-06-29 09:22:03.406250,2.26,109.27
71406,2018-06-29 09:22:03.437500,-12.67,109.27
71407,2018-06-29 09:22:03.468750,-34.18,109.27
71408,2018-06-29 09:22:03.500000,-49.05,109.27
71409,2018-06-29 09:22:03.531250,-56.95,109.23
71410,2018-06-29 09:22:03.562500,-65.17,109.23
71411,2018-06-29 09:22:03.593750,-79.01,109.23
71412,2018-06-29 09:22:03.625000,-92.21,109.23
71413,2018-06-29 09:22:03.656250,-86.99,109.23
71414,2018-06-29 09:22:03.687500,-54.49,109.23
71415,2018-06-29 09:22:03.718750,-9.5,109.23
71416,2018-06-29 09:22:03.750000,26.81,109.23
71417,2018-06-29 09:22:03.781250,45.45,109.23
71418,2018-06-29 09:22:03.812500,46.65,109.23
71419,2018-06-29 09:22:03.843750,35.42,109.23
71420,2018-06-29 09:22:03.875000,22.03,109.23
71421,2018-06-29 09:22:03.906250,14.0,109.23
71422,2018-06-29 09:22:03.937500,9.04,109.23
71423,2018-06-29 09:22:03.968750,0.97,109.23
71424,2018-06-29 09:22:04.000000,-5.49,109.23
71425,2018-06-29 09:22:04.031250,0.9,109.23
71426,2018-06-29 09:22:04.062500,17.3,109.23
71427,2018-06-29 09:22:04.093750,25.96,109.23
71428,2018-06-29 09:22:04.125000,14.19,109.23
71429,2018-06-29 09:22:04.156250,-16.28,109.23
71430,2018-06-29 09:22:04.187500,-48.15,109.23
71431,2018-06-29 09:22:04.218750,-55.22,109.23
71432,2018-06-29 09:22:04.250000,-30.7,109.23
71433,2018-06-29 09:22:04.281250,1.32,109.23
71434,2018-06-29 09:22:04.312500,21.6,109.23
71435,2018-06-29 09:22:04.343750,34.71,109.23
71436,2018-06-29 09:22:04.375000,42.87,109.23
71437,2018-06-29 09:22:04.406250,40.72,109.23
71438,2018-06-29 09:22:04.437500,32.66,109.23
71439,2018-06-29 09:22:04.468750,28.11,109.23
71440,2018-06-29 09:22:04.500000,25.7,109.23
71441,2018-06-29 09:22:04.531250,17.23,109.2
71442,2018-06-29 09:22:04.562500,1.02,109.2
71443,2018-06-29 09:22:04.593750,-15.44,109.2
71444,2018-06-29 09:22:04.625000,-25.75,109.2
71445,2018-06-29 09:22:04.656250,-32.36,109.2
71446,2018-06-29 09:22:04.687500,-43.54,109.2
71447,2018-06-29 09:22:04.718750,-61.07,109.2
71448,2018-06-29 09:22:04.750000,-74.05,109.2
71449,2018-06-29 09:22:04.781250,-68.52,109.2
71450,2018-06-29 09:22:04.812500,-41.29,109.2
71451,2018-06-29 09:22:04.843750,-5.78,109.2
71452,2018-06-29 09:22:04.875000,21.09,109.2
71453,2018-06-29 09:22:04.906250,37.46,109.2
71454,2018-06-29 09:22:04.937500,50.76,109.2
71455,2018-06-29 09:22:04.968750,63.19,109.2
71456,2018-06-29 09:22:05.000000,71.31,109.2
71457,2018-06-29 09:22:05.031250,74.53,109.2
71458,2018-06-29 09:22:05.062500,72.95,109.2
71459,2018-06-29 09:22:05.093750,63.33,109.2
71460,2018-06-29 09:22:05.125000,44.43,109.2
71461,2018-06-29 09:22:05.156250,23.95,109.2
71462,2018-06-29 09:22:05.187500,9.08,109.2
71463,2018-06-29 09:22:05.218750,-3.51,109.2
71464,2018-06-29 09:22:05.250000,-21.94,109.2
71465,2018-06-29 09:22:05.281250,-44.46,109.2
71466,2018-06-29 09:22:05.312500,-59.94,109.2
71467,2018-06-29 09:22:05.343750,-59.21,109.2
71468,2018-06-29 09:22:05.375000,-40.27,109.2
71469,2018-06-29 09:22:05.406250,-9.69,109.2
71470,2018-06-29 09:22:05.437500,16.94,109.2
71471,2018-06-29 09:22:05.468750,27.65,109.2
71472,2018-06-29 09:22:05.500000,20.12,109.2
71473,2018-06-29 09:22:05.531250,-0.99,109.17
71474,2018-06-29 09:22:05.562500,-25.77,109.17
71475,2018-06-29 09:22:05.593750,-40.83,109.17
71476,2018-06-29 09:22:05.625000,-41.65,109.17
71477,2018-06-29 09:22:05.656250,-39.17,109.17
71478,2018-06-29 09:22:05.687500,-42.09,109.17
71479,2018-06-29 09:22:05.718750,-43.92,109.17
71480,2018-06-29 09:22:05.750000,-37.52,109.17
71481,2018-06-29 09:22:05.781250,-28.83,109.17
71482,2018-06-29 09:22:05.812500,-26.66,109.17
71483,2018-06-29 09:22:05.843750,-29.66,109.17
71484,2018-06-29 09:22:05.875000,-27.92,109.17
71485,2018-06-29 09:22:05.906250,-9.88,109.17
71486,2018-06-29 09:22:05.937500,29.77,109.17
71487,2018-06-29 09:22:05.968750,83.44,109.17
71488,2018-06-29 09:22:06.000000,139.99,109.17
71489,2018-06-29 09:22:06.031250,194.61,109.17
71490,2018-06-29 09:22:06.062500,238.31,109.17
71491,2018-06-29 09:22:06.093750,252.76,109.17
71492,2018-06-29 09:22:06.125000,232.1,109.17
71493,2018-06-29 09:22:06.156250,191.64,109.17
71494,2018-06-29 09:22:06.187500,145.66,109.17
71495,2018-06-29 09:22:06.218750,97.51,109.17
71496,2018-06-29 09:22:06.250000,53.0,109.17
71497,2018-06-29 09:22:06.281250,21.61,109.17
71498,2018-06-29 09:22:06.312500,3.49,109.17
71499,2018-06-29 09:22:06.343750,-11.59,109.17
71500,2018-06-29 09:22:06.375000,-33.98,109.17
71501,2018-06-29 09:22:06.406250,-67.94,109.17
71502,2018-06-29 09:22:06.437500,-107.32,109.17
71503,2018-06-29 09:22:06.468750,-134.57,109.17
71504,2018-06-29 09:22:06.500000,-134.62,109.17
71505,2018-06-29 09:22:06.531250,-111.74,109.1
71506,2018-06-29 09:22:06.562500,-85.61,109.1
71507,2018-06-29 09:22:06.593750,-68.23,109.1
71508,2018-06-29 09:22:06.625000,-55.35,109.1
71509,2018-06-29 09:22:06.656250,-39.18,109.1
71510,2018-06-29 09:22:06.687500,-21.8,109.1
71511,2018-06-29 09:22:06.718750,-19.19,109.1
71512,2018-06-29 09:22:06.750000,-49.0,109.1
71513,2018-06-29 09:22:06.781250,-102.55,109.1
71514,2018-06-29 09:22:06.812500,-146.51,109.1
71515,2018-06-29 09:22:06.843750,-162.36,109.1
71516,2018-06-29 09:22:06.875000,-161.09,109.1
71517,2018-06-29 09:22:06.906250,-157.57,109.1
71518,2018-06-29 09:22:06.937500,-158.17,109.1
71519,2018-06-29 09:22:06.968750,-166.76,109.1
71520,2018-06-29 09:22:07.000000,-180.61,109.1
71521,2018-06-29 09:22:07.031250,-185.65,109.1
71522,2018-06-29 09:22:07.062500,-165.67,109.1
71523,2018-06-29 09:22:07.093750,-113.15,109.1
71524,2018-06-29 09:22:07.125000,-37.31,109.1
71525,2018-06-29 09:22:07.156250,37.87,109.1
71526,2018-06-29 09:22:07.187500,92.18,109.1
71527,2018-06-29 09:22:07.218750,123.58,109.1
71528,2018-06-29 09:22:07.250000,142.07,109.1
71529,2018-06-29 09:22:07.281250,158.86,109.1
71530,2018-06-29 09:22:07.312500,176.51,109.1
71531,2018-06-29 09:22:07.343750,185.68,109.1
71532,2018-06-29 09:22:07.375000,176.14,109.1
71533,2018-06-29 09:22:07.406250,154.47,109.1
71534,2018-06-29 09:22:07.437500,138.9,109.1
71535,2018-06-29 09:22:07.468750,133.87,109.1
71536,2018-06-29 09:22:07.500000,122.69,109.1
71537,2018-06-29 09:22:07.531250,89.59,109.03
71538,2018-06-29 09:22:07.562500,38.13,109.03
71539,2018-06-29 09:22:07.593750,-16.32,109.03
71540,2018-06-29 09:22:07.625000,-61.23,109.03
71541,2018-06-29 09:22:07.656250,-90.02,109.03
71542,2018-06-29 09:22:07.687500,-105.34,109.03
71543,2018-06-29 09:22:07.718750,-117.2,109.03
71544,2018-06-29 09:22:07.750000,-127.92,109.03
71545,2018-06-29 09:22:07.781250,-128.24,109.03
71546,2018-06-29 09:22:07.812500,-113.3,109.03
71547,2018-06-29 09:22:07.843750,-93.76,109.03
71548,2018-06-29 09:22:07.875000,-83.43,109.03
71549,2018-06-29 09:22:07.906250,-81.4,109.03
71550,2018-06-29 09:22:07.937500,-75.53,109.03
71551,2018-06-29 09:22:07.968750,-63.99,109.03
71552,2018-06-29 09:22:08.000000,-56.73,109.03
71553,2018-06-29 09:22:08.031250,-56.03,109.03
71554,2018-06-29 09:22:08.062500,-53.97,109.03
71555,2018-06-29 09:22:08.093750,-48.39,109.03
71556,2018-06-29 09:22:08.125000,-46.89,109.03
71557,2018-06-29 09:22:08.156250,-55.51,109.03
71558,2018-06-29 09:22:08.187500,-71.95,109.03
71559,2018-06-29 09:22:08.218750,-81.98,109.03
71560,2018-06-29 09:22:08.250000,-65.52,109.03
71561,2018-06-29 09:22:08.281250,-17.1,109.03
71562,2018-06-29 09:22:08.312500,44.06,109.03
71563,2018-06-29 09:22:08.343750,94.11,109.03
71564,2018-06-29 09:22:08.375000,126.43,109.03
71565,2018-06-29 09:22:08.406250,143.14,109.03
71566,2018-06-29 09:22:08.437500,144.17,109.03
71567,2018-06-29 09:22:08.468750,138.23,109.03
71568,2018-06-29 09:22:08.500000,141.41,109.03
71569,2018-06-29 09:22:08.531250,156.03,108.98
71570,2018-06-29 09:22:08.562500,165.36,108.98
71571,2018-06-29 09:22:08.593750,161.25,108.98
71572,2018-06-29 09:22:08.625000,159.74,108.98
71573,2018-06-29 09:22:08.656250,180.75,108.98
71574,2018-06-29 09:22:08.687500,216.48,108.98
71575,2018-06-29 09:22:08.718750,231.97,108.98
71576,2018-06-29 09:22:08.750000,204.58,108.98
71577,2018-06-29 09:22:08.781250,154.39,108.98
71578,2018-06-29 09:22:08.812500,130.03,108.98
71579,2018-06-29 09:22:08.843750,159.43,108.98
71580,2018-06-29 09:22:08.875000,213.56,108.98
71581,2018-06-29 09:22:08.906250,236.45,108.98
71582,2018-06-29 09:22:08.937500,208.91,108.98
71583,2018-06-29 09:22:08.968750,154.38,108.98
71584,2018-06-29 09:22:09.000000,91.58,108.98
71585,2018-06-29 09:22:09.031250,25.03,108.98
71586,2018-06-29 09:22:09.062500,-32.51,108.98
71587,2018-06-29 09:22:09.093750,-73.57,108.98
71588,2018-06-29 09:22:09.125000,-116.31,108.98
71589,2018-06-29 09:22:09.156250,-186.87,108.98
71590,2018-06-29 09:22:09.187500,-286.65,108.98
71591,2018-06-29 09:22:09.218750,-375.15,108.98
71592,2018-06-29 09:22:09.250000,-397.37,108.98
71593,2018-06-29 09:22:09.281250,-344.11,108.98
71594,2018-06-29 09:22:09.312500,-264.63,108.98
71595,2018-06-29 09:22:09.343750,-208.48,108.98
71596,2018-06-29 09:22:09.375000,-182.63,108.98
71597,2018-06-29 09:22:09.406250,-162.49,108.98
71598,2018-06-29 09:22:09.437500,-116.41,108.98
71599,2018-06-29 09:22:09.468750,-28.83,108.98
71600,2018-06-29 09:22:09.500000,80.13,108.98
71601,2018-06-29 09:22:09.531250,173.97,108.93
71602,2018-06-29 09:22:09.562500,235.26,108.93
71603,2018-06-29 09:22:09.593750,268.66,108.93
71604,2018-06-29 09:22:09.625000,284.28,108.93
71605,2018-06-29 09:22:09.656250,291.54,108.93
71606,2018-06-29 09:22:09.687500,295.51,108.93
71607,2018-06-29 09:22:09.718750,291.26,108.93
71608,2018-06-29 09:22:09.750000,269.91,108.93
71609,2018-06-29 09:22:09.781250,230.15,108.93
71610,2018-06-29 09:22:09.812500,177.34,108.93
71611,2018-06-29 09:22:09.843750,117.72,108.93
71612,2018-06-29 09:22:09.875000,56.27,108.93
71613,2018-06-29 09:22:09.906250,-3.52,108.93
71614,2018-06-29 09:22:09.937500,-62.2,108.93
71615,2018-06-29 09:22:09.968750,-124.31,108.93
71616,2018-06-29 09:22:10.000000,-189.8,108.93
71617,2018-06-29 09:22:10.031250,-242.56,108.93
71618,2018-06-29 09:22:10.062500,-261.33,108.93
71619,2018-06-29 09:22:10.093750,-247.41,108.93
71620,2018-06-29 09:22:10.125000,-225.28,108.93
71621,2018-06-29 09:22:10.156250,-211.34,108.93
71622,2018-06-29 09:22:10.187500,-201.86,108.93
71623,2018-06-29 09:22:10.218750,-190.62,108.93
71624,2018-06-29 09:22:10.250000,-173.06,108.93
71625,2018-06-29 09:22:10.281250,-140.54,108.93
71626,2018-06-29 09:22:10.312500,-90.58,108.93
71627,2018-06-29 09:22:10.343750,-38.91,108.93
71628,2018-06-29 09:22:10.375000,-5.75,108.93
71629,2018-06-29 09:22:10.406250,6.24,108.93
71630,2018-06-29 09:22:10.437500,11.33,108.93
71631,2018-06-29 09:22:10.468750,15.99,108.93
71632,2018-06-29 09:22:10.500000,12.03,108.93
71633,2018-06-29 09:22:10.531250,-3.9,108.87
71634,2018-06-29 09:22:10.562500,-21.96,108.87
71635,2018-06-29 09:22:10.593750,-26.87,108.87
71636,2018-06-29 09:22:10.625000,-5.71,108.87
71637,2018-06-29 09:22:10.656250,33.07,108.87
71638,2018-06-29 09:22:10.687500,55.55,108.87
71639,2018-06-29 09:22:10.718750,42.02,108.87
71640,2018-06-29 09:22:10.750000,8.58,108.87
71641,2018-06-29 09:22:10.781250,-26.02,108.87
71642,2018-06-29 09:22:10.812500,-55.96,108.87
71643,2018-06-29 09:22:10.843750,-69.93,108.87
71644,2018-06-29 09:22:10.875000,-54.08,108.87
71645,2018-06-29 09:22:10.906250,-14.08,108.87
71646,2018-06-29 09:22:10.937500,28.74,108.87
71647,2018-06-29 09:22:10.968750,61.42,108.87
71648,2018-06-29 09:22:11.000000,88.33,108.87
71649,2018-06-29 09:22:11.031250,113.64,108.87
71650,2018-06-29 09:22:11.062500,129.3,108.87
71651,2018-06-29 09:22:11.093750,126.18,108.87
71652,2018-06-29 09:22:11.125000,99.53,108.87
71653,2018-06-29 09:22:11.156250,48.82,108.87
71654,2018-06-29 09:22:11.187500,-9.74,108.87
71655,2018-06-29 09:22:11.218750,-50.14,108.87
71656,2018-06-29 09:22:11.250000,-68.75,108.87
71657,2018-06-29 09:22:11.281250,-86.65,108.87
71658,2018-06-29 09:22:11.312500,-121.51,108.87
71659,2018-06-29 09:22:11.343750,-174.5,108.87
71660,2018-06-29 09:22:11.375000,-232.02,108.87
71661,2018-06-29 09:22:11.406250,-268.09,108.87
71662,2018-06-29 09:22:11.437500,-263.93,108.87
71663,2018-06-29 09:22:11.468750,-226.0,108.87
71664,2018-06-29 09:22:11.500000,-175.86,108.87
71665,2018-06-29 09:22:11.531250,-128.74,108.8
71666,2018-06-29 09:22:11.562500,-89.5,108.8
71667,2018-06-29 09:22:11.593750,-60.08,108.8
71668,2018-06-29 09:22:11.625000,-42.99,108.8
71669,2018-06-29 09:22:11.656250,-42.29,108.8
71670,2018-06-29 09:22:11.687500,-60.64,108.8
71671,2018-06-29 09:22:11.718750,-87.78,108.8
71672,2018-06-29 09:22:11.750000,-98.49,108.8
71673,2018-06-29 09:22:11.781250,-73.01,108.8
71674,2018-06-29 09:22:11.812500,-18.73,108.8
71675,2018-06-29 09:22:11.843750,35.86,108.8
71676,2018-06-29 09:22:11.875000,68.91,108.8
71677,2018-06-29 09:22:11.906250,79.79,108.8
71678,2018-06-29 09:22:11.937500,76.06,108.8
71679,2018-06-29 09:22:11.968750,59.59,108.8
71680,2018-06-29 09:22:12.000000,34.28,108.8
71681,2018-06-29 09:22:12.031250,13.01,108.8
71682,2018-06-29 09:22:12.062500,4.85,108.8
71683,2018-06-29 09:22:12.093750,6.85,108.8
71684,2018-06-29 09:22:12.125000,10.88,108.8
71685,2018-06-29 09:22:12.156250,11.52,108.8
71686,2018-06-29 09:22:12.187500,11.58,108.8
71687,2018-06-29 09:22:12.218750,17.29,108.8
71688,2018-06-29 09:22:12.250000,25.16,108.8
71689,2018-06-29 09:22:12.281250,23.05,108.8
71690,2018-06-29 09:22:12.312500,7.09,108.8
71691,2018-06-29 09:22:12.343750,-10.16,108.8
71692,2018-06-29 09:22:12.375000,-5.03,108.8
71693,2018-06-29 09:22:12.406250,38.18,108.8
71694,2018-06-29 09:22:12.437500,106.42,108.8
71695,2018-06-29 09:22:12.468750,166.04,108.8
71696,2018-06-29 09:22:12.500000,195.83,108.8
71697,2018-06-29 09:22:12.531250,197.64,108.72
71698,2018-06-29 09:22:12.562500,178.74,108.72
71699,2018-06-29 09:22:12.593750,144.24,108.72
71700,2018-06-29 09:22:12.625000,104.06,108.72
71701,2018-06-29 09:22:12.656250,69.37,108.72
71702,2018-06-29 09:22:12.687500,40.53,108.72
71703,2018-06-29 09:22:12.718750,12.39,108.72
71704,2018-06-29 09:22:12.750000,-12.13,108.72
71705,2018-06-29 09:22:12.781250,-27.44,108.72
71706,2018-06-29 09:22:12.812500,-36.33,108.72
71707,2018-06-29 09:22:12.843750,-44.56,108.72
71708,2018-06-29 09:22:12.875000,-51.89,108.72
71709,2018-06-29 09:22:12.906250,-56.69,108.72
71710,2018-06-29 09:22:12.937500,-60.15,108.72
71711,2018-06-29 09:22:12.968750,-58.71,108.72
71712,2018-06-29 09:22:13.000000,-40.56,108.72
71713,2018-06-29 09:22:13.031250,-2.33,108.72
71714,2018-06-29 09:22:13.062500,43.96,108.72
71715,2018-06-29 09:22:13.093750,87.19,108.72
71716,2018-06-29 09:22:13.125000,120.05,108.72
71717,2018-06-29 09:22:13.156250,123.13,108.72
71718,2018-06-29 09:22:13.187500,85.44,108.72
71719,2018-06-29 09:22:13.218750,27.13,108.72
71720,2018-06-29 09:22:13.250000,-38.68,108.72
71721,2018-06-29 09:22:13.281250,-134.48,108.72
71722,2018-06-29 09:22:13.312500,-261.32,108.72
71723,2018-06-29 09:22:13.343750,-365.56,108.72
71724,2018-06-29 09:22:13.375000,-407.21,108.72
71725,2018-06-29 09:22:13.406250,-398.28,108.72
71726,2018-06-29 09:22:13.437500,-362.74,108.72
71727,2018-06-29 09:22:13.468750,-311.23,108.72
71728,2018-06-29 09:22:13.500000,-255.11,108.72
71729,2018-06-29 09:22:13.531250,-205.4,108.62
71730,2018-06-29 09:22:13.562500,-159.42,108.62
71731,2018-06-29 09:22:13.593750,-102.91,108.62
71732,2018-06-29 09:22:13.625000,-25.35,108.62
71733,2018-06-29 09:22:13.656250,68.2,108.62
71734,2018-06-29 09:22:13.687500,164.46,108.62
71735,2018-06-29 09:22:13.718750,252.15,108.62
71736,2018-06-29 09:22:13.750000,312.76,108.62
71737,2018-06-29 09:22:13.781250,326.1,108.62
71738,2018-06-29 09:22:13.812500,291.25,108.62
71739,2018-06-29 09:22:13.843750,216.49,108.62
71740,2018-06-29 09:22:13.875000,111.13,108.62
71741,2018-06-29 09:22:13.906250,-0.41,108.62
71742,2018-06-29 09:22:13.937500,-85.98,108.62
71743,2018-06-29 09:22:13.968750,-135.15,108.62
71744,2018-06-29 09:22:14.000000,-160.07,108.62
71745,2018-06-29 09:22:14.031250,-175.03,108.62
71746,2018-06-29 09:22:14.062500,-185.25,108.62
71747,2018-06-29 09:22:14.093750,-189.75,108.62
71748,2018-06-29 09:22:14.125000,-195.39,108.62
71749,2018-06-29 09:22:14.156250,-215.12,108.62
71750,2018-06-29 09:22:14.187500,-240.86,108.62
71751,2018-06-29 09:22:14.218750,-243.34,108.62
71752,2018-06-29 09:22:14.250000,-210.19,108.62
71753,2018-06-29 09:22:14.281250,-159.24,108.62
71754,2018-06-29 09:22:14.312500,-107.86,108.62
71755,2018-06-29 09:22:14.343750,-55.57,108.62
71756,2018-06-29 09:22:14.375000,1.76,108.62
71757,2018-06-29 09:22:14.406250,59.93,108.62
71758,2018-06-29 09:22:14.437500,107.52,108.62
71759,2018-06-29 09:22:14.468750,132.49,108.62
71760,2018-06-29 09:22:14.500000,131.09,108.62
71761,2018-06-29 09:22:14.531250,113.17,108.5
71762,2018-06-29 09:22:14.562500,92.8,108.5
71763,2018-06-29 09:22:14.593750,75.5,108.5
71764,2018-06-29 09:22:14.625000,59.61,108.5
71765,2018-06-29 09:22:14.656250,43.96,108.5
71766,2018-06-29 09:22:14.687500,27.59,108.5
71767,2018-06-29 09:22:14.718750,7.78,108.5
71768,2018-06-29 09:22:14.750000,-17.56,108.5
71769,2018-06-29 09:22:14.781250,-46.33,108.5
71770,2018-06-29 09:22:14.812500,-70.98,108.5
71771,2018-06-29 09:22:14.843750,-75.37,108.5
71772,2018-06-29 09:22:14.875000,-46.07,108.5
71773,2018-06-29 09:22:14.906250,7.43,108.5
71774,2018-06-29 09:22:14.937500,59.46,108.5
71775,2018-06-29 09:22:14.968750,97.12,108.5
71776,2018-06-29 09:22:15.000000,125.77,108.5
71777,2018-06-29 09:22:15.031250,148.38,108.5
71778,2018-06-29 09:22:15.062500,157.79,108.5
71779,2018-06-29 09:22:15.093750,151.35,108.5
71780,2018-06-29 09:22:15.125000,136.2,108.5
71781,2018-06-29 09:22:15.156250,119.36,108.5
71782,2018-06-29 09:22:15.187500,101.85,108.5
71783,2018-06-29 09:22:15.218750,83.59,108.5
71784,2018-06-29 09:22:15.250000,67.62,108.5
71785,2018-06-29 09:22:15.281250,54.51,108.5
71786,2018-06-29 09:22:15.312500,39.69,108.5
71787,2018-06-29 09:22:15.343750,16.52,108.5
71788,2018-06-29 09:22:15.375000,-16.56,108.5
71789,2018-06-29 09:22:15.406250,-48.5,108.5
71790,2018-06-29 09:22:15.437500,-59.3,108.5
71791,2018-06-29 09:22:15.468750,-39.21,108.5
71792,2018-06-29 09:22:15.500000,2.5,108.5
71793,2018-06-29 09:22:15.531250,49.54,108.37
71794,2018-06-29 09:22:15.562500,89.33,108.37
71795,2018-06-29 09:22:15.593750,111.35,108.37
71796,2018-06-29 09:22:15.625000,111.97,108.37
71797,2018-06-29 09:22:15.656250,97.77,108.37
71798,2018-06-29 09:22:15.687500,80.5,108.37
71799,2018-06-29 09:22:15.718750,68.37,108.37
71800,2018-06-29 09:22:15.750000,63.2,108.37
71801,2018-06-29 09:22:15.781250,60.63,108.37
71802,2018-06-29 09:22:15.812500,56.8,108.37
71803,2018-06-29 09:22:15.843750,54.08,108.37
71804,2018-06-29 09:22:15.875000,56.43,108.37
71805,2018-06-29 09:22:15.906250,57.8,108.37
71806,2018-06-29 09:22:15.937500,45.85,108.37
71807,2018-06-29 09:22:15.968750,16.7,108.37
71808,2018-06-29 09:22:16.000000,-17.47,108.37
71809,2018-06-29 09:22:16.031250,-34.59,108.37
71810,2018-06-29 09:22:16.062500,-17.76,108.37
71811,2018-06-29 09:22:16.093750,29.74,108.37
71812,2018-06-29 09:22:16.125000,84.42,108.37
71813,2018-06-29 09:22:16.156250,123.15,108.37
71814,2018-06-29 09:22:16.187500,139.77,108.37
71815,2018-06-29 09:22:16.218750,140.04,108.37
71816,2018-06-29 09:22:16.250000,130.38,108.37
71817,2018-06-29 09:22:16.281250,114.58,108.37
71818,2018-06-29 09:22:16.312500,95.61,108.37
71819,2018-06-29 09:22:16.343750,77.22,108.37
71820,2018-06-29 09:22:16.375000,61.18,108.37
71821,2018-06-29 09:22:16.406250,46.2,108.37
71822,2018-06-29 09:22:16.437500,32.44,108.37
71823,2018-06-29 09:22:16.468750,22.89,108.37
71824,2018-06-29 09:22:16.500000,16.54,108.37
71825,2018-06-29 09:22:16.531250,4.35,108.22
71826,2018-06-29 09:22:16.562500,-18.3,108.22
71827,2018-06-29 09:22:16.593750,-41.43,108.22
71828,2018-06-29 09:22:16.625000,-46.5,108.22
71829,2018-06-29 09:22:16.656250,-23.94,108.22
71830,2018-06-29 09:22:16.687500,16.47,108.22
71831,2018-06-29 09:22:16.718750,55.68,108.22
71832,2018-06-29 09:22:16.750000,80.47,108.22
71833,2018-06-29 09:22:16.781250,88.32,108.22
71834,2018-06-29 09:22:16.812500,84.18,108.22
71835,2018-06-29 09:22:16.843750,74.54,108.22
71836,2018-06-29 09:22:16.875000,66.37,108.22
71837,2018-06-29 09:22:16.906250,64.1,108.22
71838,2018-06-29 09:22:16.937500,64.88,108.22
71839,2018-06-29 09:22:16.968750,58.05,108.22
71840,2018-06-29 09:22:17.000000,39.22,108.22
71841,2018-06-29 09:22:17.031250,16.35,108.22
71842,2018-06-29 09:22:17.062500,-3.42,108.22
71843,2018-06-29 09:22:17.093750,-22.81,108.22
71844,2018-06-29 09:22:17.125000,-46.86,108.22
71845,2018-06-29 09:22:17.156250,-76.32,108.22
71846,2018-06-29 09:22:17.187500,-106.72,108.22
71847,2018-06-29 09:22:17.218750,-124.86,108.22
71848,2018-06-29 09:22:17.250000,-112.7,108.22
71849,2018-06-29 09:22:17.281250,-68.48,108.22
71850,2018-06-29 09:22:17.312500,-13.56,108.22
71851,2018-06-29 09:22:17.343750,29.81,108.22
71852,2018-06-29 09:22:17.375000,54.95,108.22
71853,2018-06-29 09:22:17.406250,62.01,108.22
71854,2018-06-29 09:22:17.437500,55.42,108.22
71855,2018-06-29 09:22:17.468750,47.05,108.22
71856,2018-06-29 09:22:17.500000,43.99,108.22
71857,2018-06-29 09:22:17.531250,40.08,108.03
71858,2018-06-29 09:22:17.562500,28.53,108.03
71859,2018-06-29 09:22:17.593750,14.15,108.03
71860,2018-06-29 09:22:17.625000,6.74,108.03
71861,2018-06-29 09:22:17.656250,9.99,108.03
71862,2018-06-29 09:22:17.687500,16.87,108.03
71863,2018-06-29 09:22:17.718750,11.75,108.03
71864,2018-06-29 09:22:17.750000,-15.43,108.03
71865,2018-06-29 09:22:17.781250,-53.96,108.03
71866,2018-06-29 09:22:17.812500,-75.64,108.03
71867,2018-06-29 09:22:17.843750,-60.71,108.03
71868,2018-06-29 09:22:17.875000,-17.43,108.03
71869,2018-06-29 09:22:17.906250,29.26,108.03
71870,2018-06-29 09:22:17.937500,63.99,108.03
71871,2018-06-29 09:22:17.968750,86.01,108.03
71872,2018-06-29 09:22:18.000000,96.42,108.03
71873,2018-06-29 09:22:18.031250,94.69,108.03
71874,2018-06-29 09:22:18.062500,83.99,108.03
71875,2018-06-29 09:22:18.093750,69.24,108.03
71876,2018-06-29 09:22:18.125000,51.2,108.03
71877,2018-06-29 09:22:18.156250,29.65,108.03
71878,2018-06-29 09:22:18.187500,7.41,108.03
71879,2018-06-29 09:22:18.218750,-12.53,108.03
71880,2018-06-29 09:22:18.250000,-28.78,108.03
71881,2018-06-29 09:22:18.281250,-41.64,108.03
71882,2018-06-29 09:22:18.312500,-54.29,108.03
71883,2018-06-29 09:22:18.343750,-72.36,108.03
71884,2018-06-29 09:22:18.375000,-93.22,108.03
71885,2018-06-29 09:22:18.406250,-101.21,108.03
71886,2018-06-29 09:22:18.437500,-83.54,108.03
71887,2018-06-29 09:22:18.468750,-44.79,108.03
71888,2018-06-29 09:22:18.500000,-1.31,108.03
71889,2018-06-29 09:22:18.531250,32.16,107.83
71890,2018-06-29 09:22:18.562500,49.18,107.83
71891,2018-06-29 09:22:18.593750,51.22,107.83
71892,2018-06-29 09:22:18.625000,43.34,107.83
71893,2018-06-29 09:22:18.656250,31.47,107.83
71894,2018-06-29 09:22:18.687500,22.94,107.83
71895,2018-06-29 09:22:18.718750,21.19,107.83
71896,2018-06-29 09:22:18.750000,21.37,107.83
71897,2018-06-29 09:22:18.781250,17.46,107.83
71898,2018-06-29 09:22:18.812500,9.84,107.83
71899,2018-06-29 09:22:18.843750,0.64,107.83
71900,2018-06-29 09:22:18.875000,-11.25,107.83
71901,2018-06-29 09:22:18.906250,-30.0,107.83
71902,2018-06-29 09:22:18.937500,-56.82,107.83
71903,2018-06-29 09:22:18.968750,-85.92,107.83
71904,2018-06-29 09:22:19.000000,-104.31,107.83
71905,2018-06-29 09:22:19.031250,-97.32,107.83
71906,2018-06-29 09:22:19.062500,-61.88,107.83
71907,2018-06-29 09:22:19.093750,-13.43,107.83
71908,2018-06-29 09:22:19.125000,29.51,107.83
71909,2018-06-29 09:22:19.156250,59.67,107.83
71910,2018-06-29 09:22:19.187500,74.38,107.83
71911,2018-06-29 09:22:19.218750,70.52,107.83
71912,2018-06-29 09:22:19.250000,52.63,107.83
71913,2018-06-29 09:22:19.281250,29.64,107.83
71914,2018-06-29 09:22:19.312500,5.97,107.83
71915,2018-06-29 09:22:19.343750,-15.87,107.83
71916,2018-06-29 09:22:19.375000,-31.31,107.83
71917,2018-06-29 09:22:19.406250,-40.14,107.83
71918,2018-06-29 09:22:19.437500,-47.65,107.83
71919,2018-06-29 09:22:19.468750,-56.04,107.83
71920,2018-06-29 09:22:19.500000,-65.39,107.83
71921,2018-06-29 09:22:19.531250,-77.28,107.57
71922,2018-06-29 09:22:19.562500,-84.97,107.57
71923,2018-06-29 09:22:19.593750,-71.6,107.57
71924,2018-06-29 09:22:19.625000,-29.78,107.57
71925,2018-06-29 09:22:19.656250,27.8,107.57
71926,2018-06-29 09:22:19.687500,81.43,107.57
71927,2018-06-29 09:22:19.718750,116.87,107.57
71928,2018-06-29 09:22:19.750000,128.04,107.57
71929,2018-06-29 09:22:19.781250,118.24,107.57
71930,2018-06-29 09:22:19.812500,95.31,107.57
71931,2018-06-29 09:22:19.843750,66.16,107.57
71932,2018-06-29 09:22:19.875000,38.05,107.57
71933,2018-06-29 09:22:19.906250,17.46,107.57
71934,2018-06-29 09:22:19.937500,5.7,107.57
71935,2018-06-29 09:22:19.968750,0.87,107.57
71936,2018-06-29 09:22:20.000000,-0.14,107.57
71937,2018-06-29 09:22:20.031250,-0.63,107.57
71938,2018-06-29 09:22:20.062500,-0.76,107.57
71939,2018-06-29 09:22:20.093750,-0.47,107.57
71940,2018-06-29 09:22:20.125000,-2.81,107.57
71941,2018-06-29 09:22:20.156250,-0.25,107.57
71942,2018-06-29 09:22:20.187500,28.52,107.57
71943,2018-06-29 09:22:20.218750,94.22,107.57
71944,2018-06-29 09:22:20.250000,177.11,107.57
71945,2018-06-29 09:22:20.281250,241.22,107.57
71946,2018-06-29 09:22:20.312500,264.09,107.57
71947,2018-06-29 09:22:20.343750,253.49,107.57
71948,2018-06-29 09:22:20.375000,235.59,107.57
71949,2018-06-29 09:22:20.406250,225.94,107.57
71950,2018-06-29 09:22:20.437500,218.48,107.57
71951,2018-06-29 09:22:20.468750,204.31,107.57
71952,2018-06-29 09:22:20.500000,185.15,107.57
71953,2018-06-29 09:22:20.531250,167.18,107.32
71954,2018-06-29 09:22:20.562500,150.0,107.32
71955,2018-06-29 09:22:20.593750,126.4,107.32
71956,2018-06-29 09:22:20.625000,92.21,107.32
71957,2018-06-29 09:22:20.656250,51.01,107.32
71958,2018-06-29 09:22:20.687500,5.47,107.32
71959,2018-06-29 09:22:20.718750,-49.39,107.32
71960,2018-06-29 09:22:20.750000,-121.14,107.32
71961,2018-06-29 09:22:20.781250,-211.82,107.32
71962,2018-06-29 09:22:20.812500,-302.17,107.32
71963,2018-06-29 09:22:20.843750,-347.84,107.32
71964,2018-06-29 09:22:20.875000,-325.64,107.32
71965,2018-06-29 09:22:20.906250,-277.98,107.32
71966,2018-06-29 09:22:20.937500,-265.11,107.32
71967,2018-06-29 09:22:20.968750,-288.06,107.32
71968,2018-06-29 09:22:21.000000,-307.1,107.32
71969,2018-06-29 09:22:21.031250,-304.97,107.32
71970,2018-06-29 09:22:21.062500,-287.93,107.32
71971,2018-06-29 09:22:21.093750,-257.03,107.32
71972,2018-06-29 09:22:21.125000,-214.93,107.32
71973,2018-06-29 09:22:21.156250,-174.93,107.32
71974,2018-06-29 09:22:21.187500,-145.17,107.32
71975,2018-06-29 09:22:21.218750,-120.04,107.32
71976,2018-06-29 09:22:21.250000,-94.13,107.32
71977,2018-06-29 09:22:21.281250,-72.9,107.32
71978,2018-06-29 09:22:21.312500,-60.82,107.32
71979,2018-06-29 09:22:21.343750,-46.51,107.32
71980,2018-06-29 09:22:21.375000,-14.12,107.32
71981,2018-06-29 09:22:21.406250,33.1,107.32
71982,2018-06-29 09:22:21.437500,75.69,107.32
71983,2018-06-29 09:22:21.468750,103.5,107.32
71984,2018-06-29 09:22:21.500000,121.16,107.32
71985,2018-06-29 09:22:21.531250,131.3,107.1
71986,2018-06-29 09:22:21.562500,131.04,107.1
71987,2018-06-29 09:22:21.593750,121.93,107.1
71988,2018-06-29 09:22:21.625000,109.8,107.1
71989,2018-06-29 09:22:21.656250,94.85,107.1
71990,2018-06-29 09:22:21.687500,73.12,107.1
71991,2018-06-29 09:22:21.718750,45.59,107.1
71992,2018-06-29 09:22:21.750000,17.37,107.1
71993,2018-06-29 09:22:21.781250,-7.08,107.1
71994,2018-06-29 09:22:21.812500,-25.86,107.1
71995,2018-06-29 09:22:21.843750,-41.38,107.1
71996,2018-06-29 09:22:21.875000,-60.06,107.1
71997,2018-06-29 09:22:21.906250,-83.23,107.1
71998,2018-06-29 09:22:21.937500,-100.25,107.1
71999,2018-06-29 09:22:21.968750,-95.76,107.1
72000,2018-06-29 09:22:22.000000,-65.2,107.1
72001,2018-06-29 09:22:22.031250,-21.14,107.1
72002,2018-06-29 09:22:22.062500,17.46,107.1
72003,2018-06-29 09:22:22.093750,42.51,107.1
72004,2018-06-29 09:22:22.125000,57.1,107.1
72005,2018-06-29 09:22:22.156250,64.61,107.1
72006,2018-06-29 09:22:22.187500,65.76,107.1
72007,2018-06-29 09:22:22.218750,62.61,107.1
72008,2018-06-29 09:22:22.250000,59.13,107.1
72009,2018-06-29 09:22:22.281250,60.0,107.1
72010,2018-06-29 09:22:22.312500,66.61,107.1
72011,2018-06-29 09:22:22.343750,75.13,107.1
72012,2018-06-29 09:22:22.375000,80.84,107.1
72013,2018-06-29 09:22:22.406250,82.11,107.1
72014,2018-06-29 09:22:22.437500,78.2,107.1
72015,2018-06-29 09:22:22.468750,68.11,107.1
72016,2018-06-29 09:22:22.500000,53.11,107.1
72017,2018-06-29 09:22:22.531250,34.77,106.88
72018,2018-06-29 09:22:22.562500,13.55,106.88
72019,2018-06-29 09:22:22.593750,-6.77,106.88
72020,2018-06-29 09:22:22.625000,-24.58,106.88
72021,2018-06-29 09:22:22.656250,-50.99,106.88
72022,2018-06-29 09:22:22.687500,-98.27,106.88
72023,2018-06-29 09:22:22.718750,-156.33,106.88
72024,2018-06-29 09:22:22.750000,-198.39,106.88
72025,2018-06-29 09:22:22.781250,-214.01,106.88
72026,2018-06-29 09:22:22.812500,-213.48,106.88
72027,2018-06-29 09:22:22.843750,-197.91,106.88
72028,2018-06-29 09:22:22.875000,-158.45,106.88
72029,2018-06-29 09:22:22.906250,-103.64,106.88
72030,2018-06-29 09:22:22.937500,-57.6,106.88
72031,2018-06-29 09:22:22.968750,-31.93,106.88
72032,2018-06-29 09:22:23.000000,-19.84,106.88
72033,2018-06-29 09:22:23.031250,-11.5,106.88
72034,2018-06-29 09:22:23.062500,-7.57,106.88
72035,2018-06-29 09:22:23.093750,-22.43,106.88
72036,2018-06-29 09:22:23.125000,-66.2,106.88
72037,2018-06-29 09:22:23.156250,-124.16,106.88
72038,2018-06-29 09:22:23.187500,-167.59,106.88
72039,2018-06-29 09:22:23.218750,-178.16,106.88
72040,2018-06-29 09:22:23.250000,-161.68,106.88
72041,2018-06-29 09:22:23.281250,-137.14,106.88
72042,2018-06-29 09:22:23.312500,-106.75,106.88
72043,2018-06-29 09:22:23.343750,-55.49,106.88
72044,2018-06-29 09:22:23.375000,8.29,106.88
72045,2018-06-29 09:22:23.406250,48.54,106.88
72046,2018-06-29 09:22:23.437500,48.16,106.88
72047,2018-06-29 09:22:23.468750,27.52,106.88
72048,2018-06-29 09:22:23.500000,11.73,106.88
72049,2018-06-29 09:22:23.531250,2.6,106.7
72050,2018-06-29 09:22:23.562500,-9.96,106.7
72051,2018-06-29 09:22:23.593750,-24.07,106.7
72052,2018-06-29 09:22:23.625000,-30.4,106.7
72053,2018-06-29 09:22:23.656250,-30.72,106.7
72054,2018-06-29 09:22:23.687500,-32.19,106.7
72055,2018-06-29 09:22:23.718750,-35.45,106.7
72056,2018-06-29 09:22:23.750000,-44.16,106.7
72057,2018-06-29 09:22:23.781250,-61.41,106.7
72058,2018-06-29 09:22:23.812500,-73.9,106.7
72059,2018-06-29 09:22:23.843750,-60.55,106.7
72060,2018-06-29 09:22:23.875000,-18.04,106.7
72061,2018-06-29 09:22:23.906250,32.47,106.7
72062,2018-06-29 09:22:23.937500,68.6,106.7
72063,2018-06-29 09:22:23.968750,90.32,106.7
72064,2018-06-29 09:22:24.000000,108.08,106.7
72065,2018-06-29 09:22:24.031250,122.22,106.7
72066,2018-06-29 09:22:24.062500,126.88,106.7
72067,2018-06-29 09:22:24.093750,125.96,106.7
72068,2018-06-29 09:22:24.125000,129.5,106.7
72069,2018-06-29 09:22:24.156250,141.92,106.7
72070,2018-06-29 09:22:24.187500,156.4,106.7
72071,2018-06-29 09:22:24.218750,160.13,106.7
72072,2018-06-29 09:22:24.250000,150.4,106.7
72073,2018-06-29 09:22:24.281250,136.78,106.7
72074,2018-06-29 09:22:24.312500,124.23,106.7
72075,2018-06-29 09:22:24.343750,106.69,106.7
72076,2018-06-29 09:22:24.375000,77.88,106.7
72077,2018-06-29 09:22:24.406250,47.39,106.7
72078,2018-06-29 09:22:24.437500,40.49,106.7
72079,2018-06-29 09:22:24.468750,73.88,106.7
72080,2018-06-29 09:22:24.500000,127.09,106.7
72081,2018-06-29 09:22:24.531250,155.31,106.52
72082,2018-06-29 09:22:24.562500,143.15,106.52
72083,2018-06-29 09:22:24.593750,121.0,106.52
72084,2018-06-29 09:22:24.625000,112.82,106.52
72085,2018-06-29 09:22:24.656250,101.38,106.52
72086,2018-06-29 09:22:24.687500,63.77,106.52
72087,2018-06-29 09:22:24.718750,5.22,106.52
72088,2018-06-29 09:22:24.750000,-52.21,106.52
72089,2018-06-29 09:22:24.781250,-84.74,106.52
72090,2018-06-29 09:22:24.812500,-74.68,106.52
72091,2018-06-29 09:22:24.843750,-29.69,106.52
72092,2018-06-29 09:22:24.875000,23.12,106.52
72093,2018-06-29 09:22:24.906250,69.58,106.52
72094,2018-06-29 09:22:24.937500,109.65,106.52
72095,2018-06-29 09:22:24.968750,137.12,106.52
72096,2018-06-29 09:22:25.000000,148.83,106.52
72097,2018-06-29 09:22:25.031250,156.04,106.52
72098,2018-06-29 09:22:25.062500,160.71,106.52
72099,2018-06-29 09:22:25.093750,143.51,106.52
72100,2018-06-29 09:22:25.125000,94.26,106.52
72101,2018-06-29 09:22:25.156250,28.95,106.52
72102,2018-06-29 09:22:25.187500,-38.05,106.52
72103,2018-06-29 09:22:25.218750,-110.96,106.52
72104,2018-06-29 09:22:25.250000,-189.9,106.52
72105,2018-06-29 09:22:25.281250,-255.38,106.52
72106,2018-06-29 09:22:25.312500,-282.21,106.52
72107,2018-06-29 09:22:25.343750,-258.9,106.52
72108,2018-06-29 09:22:25.375000,-198.13,106.52
72109,2018-06-29 09:22:25.406250,-130.85,106.52
72110,2018-06-29 09:22:25.437500,-80.17,106.52
72111,2018-06-29 09:22:25.468750,-43.26,106.52
72112,2018-06-29 09:22:25.500000,-6.83,106.52
72113,2018-06-29 09:22:25.531250,26.32,106.37
72114,2018-06-29 09:22:25.562500,39.44,106.37
72115,2018-06-29 09:22:25.593750,27.99,106.37
72116,2018-06-29 09:22:25.625000,6.82,106.37
72117,2018-06-29 09:22:25.656250,-8.25,106.37
72118,2018-06-29 09:22:25.687500,-7.98,106.37
72119,2018-06-29 09:22:25.718750,13.05,106.37
72120,2018-06-29 09:22:25.750000,45.3,106.37
72121,2018-06-29 09:22:25.781250,63.2,106.37
72122,2018-06-29 09:22:25.812500,51.83,106.37
72123,2018-06-29 09:22:25.843750,19.73,106.37
72124,2018-06-29 09:22:25.875000,-15.77,106.37
72125,2018-06-29 09:22:25.906250,-38.23,106.37
72126,2018-06-29 09:22:25.937500,-37.62,106.37
72127,2018-06-29 09:22:25.968750,-25.46,106.37
72128,2018-06-29 09:22:26.000000,-31.13,106.37
72129,2018-06-29 09:22:26.031250,-66.57,106.37
72130,2018-06-29 09:22:26.062500,-114.02,106.37
72131,2018-06-29 09:22:26.093750,-155.38,106.37
72132,2018-06-29 09:22:26.125000,-183.38,106.37
72133,2018-06-29 09:22:26.156250,-181.49,106.37
72134,2018-06-29 09:22:26.187500,-133.51,106.37
72135,2018-06-29 09:22:26.218750,-54.92,106.37
72136,2018-06-29 09:22:26.250000,21.09,106.37
72137,2018-06-29 09:22:26.281250,84.34,106.37
72138,2018-06-29 09:22:26.312500,147.42,106.37
72139,2018-06-29 09:22:26.343750,215.19,106.37
72140,2018-06-29 09:22:26.375000,274.73,106.37
72141,2018-06-29 09:22:26.406250,305.63,106.37
72142,2018-06-29 09:22:26.437500,291.31,106.37
72143,2018-06-29 09:22:26.468750,234.01,106.37
72144,2018-06-29 09:22:26.500000,161.42,106.37
72145,2018-06-29 09:22:26.531250,106.59,106.18
72146,2018-06-29 09:22:26.562500,80.78,106.18
72147,2018-06-29 09:22:26.593750,71.06,106.18
72148,2018-06-29 09:22:26.625000,56.09,106.18
72149,2018-06-29 09:22:26.656250,24.3,106.18
72150,2018-06-29 09:22:26.687500,-16.82,106.18
72151,2018-06-29 09:22:26.718750,-54.11,106.18
72152,2018-06-29 09:22:26.750000,-88.49,106.18
72153,2018-06-29 09:22:26.781250,-133.48,106.18
72154,2018-06-29 09:22:26.812500,-204.48,106.18
72155,2018-06-29 09:22:26.843750,-302.91,106.18
72156,2018-06-29 09:22:26.875000,-386.45,106.18
72157,2018-06-29 09:22:26.906250,-386.68,106.18
72158,2018-06-29 09:22:26.937500,-293.56,106.18
72159,2018-06-29 09:22:26.968750,-174.74,106.18
72160,2018-06-29 09:22:27.000000,-81.5,106.18
72161,2018-06-29 09:22:27.031250,-5.24,106.18
72162,2018-06-29 09:22:27.062500,52.7,106.18
72163,2018-06-29 09:22:27.093750,64.58,106.18
72164,2018-06-29 09:22:27.125000,43.03,106.18
72165,2018-06-29 09:22:27.156250,33.65,106.18
72166,2018-06-29 09:22:27.187500,46.12,106.18
72167,2018-06-29 09:22:27.218750,63.45,106.18
72168,2018-06-29 09:22:27.250000,88.52,106.18
72169,2018-06-29 09:22:27.281250,116.86,106.18
72170,2018-06-29 09:22:27.312500,114.4,106.18
72171,2018-06-29 09:22:27.343750,64.7,106.18
72172,2018-06-29 09:22:27.375000,-2.46,106.18
72173,2018-06-29 09:22:27.406250,-53.92,106.18
72174,2018-06-29 09:22:27.437500,-83.55,106.18
72175,2018-06-29 09:22:27.468750,-91.86,106.18
72176,2018-06-29 09:22:27.500000,-74.08,106.18
72177,2018-06-29 09:22:27.531250,-37.23,105.98
72178,2018-06-29 09:22:27.562500,1.82,105.98
72179,2018-06-29 09:22:27.593750,36.87,105.98
72180,2018-06-29 09:22:27.625000,69.97,105.98
72181,2018-06-29 09:22:27.656250,94.11,105.98
72182,2018-06-29 09:22:27.687500,99.23,105.98
72183,2018-06-29 09:22:27.718750,88.01,105.98
72184,2018-06-29 09:22:27.750000,72.48,105.98
72185,2018-06-29 09:22:27.781250,56.61,105.98
72186,2018-06-29 09:22:27.812500,36.55,105.98
72187,2018-06-29 09:22:27.843750,13.25,105.98
72188,2018-06-29 09:22:27.875000,-6.87,105.98
72189,2018-06-29 09:22:27.906250,-21.22,105.98
72190,2018-06-29 09:22:27.937500,-34.03,105.98
72191,2018-06-29 09:22:27.968750,-51.91,105.98
72192,2018-06-29 09:22:28.000000,-82.88,105.98
72193,2018-06-29 09:22:28.031250,-129.39,105.98
72194,2018-06-29 09:22:28.062500,-177.25,105.98
72195,2018-06-29 09:22:28.093750,-204.65,105.98
72196,2018-06-29 09:22:28.125000,-205.79,105.98
72197,2018-06-29 09:22:28.156250,-195.98,105.98
72198,2018-06-29 09:22:28.187500,-185.96,105.98
72199,2018-06-29 09:22:28.218750,-168.12,105.98
72200,2018-06-29 09:22:28.250000,-134.83,105.98
72201,2018-06-29 09:22:28.281250,-94.95,105.98
72202,2018-06-29 09:22:28.312500,-59.99,105.98
72203,2018-06-29 09:22:28.343750,-32.76,105.98
72204,2018-06-29 09:22:28.375000,-15.68,105.98
72205,2018-06-29 09:22:28.406250,-10.55,105.98
72206,2018-06-29 09:22:28.437500,-12.52,105.98
72207,2018-06-29 09:22:28.468750,-14.61,105.98
72208,2018-06-29 09:22:28.500000,-16.78,105.98
72209,2018-06-29 09:22:28.531250,-23.0,105.77
72210,2018-06-29 09:22:28.562500,-34.49,105.77
72211,2018-06-29 09:22:28.593750,-51.52,105.77
72212,2018-06-29 09:22:28.625000,-72.76,105.77
72213,2018-06-29 09:22:28.656250,-88.3,105.77
72214,2018-06-29 09:22:28.687500,-79.45,105.77
72215,2018-06-29 09:22:28.718750,-41.13,105.77
72216,2018-06-29 09:22:28.750000,8.89,105.77
72217,2018-06-29 09:22:28.781250,57.06,105.77
72218,2018-06-29 09:22:28.812500,105.32,105.77
72219,2018-06-29 09:22:28.843750,146.04,105.77
72220,2018-06-29 09:22:28.875000,161.33,105.77
72221,2018-06-29 09:22:28.906250,151.73,105.77
72222,2018-06-29 09:22:28.937500,137.53,105.77
72223,2018-06-29 09:22:28.968750,129.48,105.77
72224,2018-06-29 09:22:29.000000,120.58,105.77
72225,2018-06-29 09:22:29.031250,105.9,105.77
72226,2018-06-29 09:22:29.062500,89.78,105.77
72227,2018-06-29 09:22:29.093750,73.62,105.77
72228,2018-06-29 09:22:29.125000,52.63,105.77
72229,2018-06-29 09:22:29.156250,26.35,105.77
72230,2018-06-29 09:22:29.187500,-2.14,105.77
72231,2018-06-29 09:22:29.218750,-29.74,105.77
72232,2018-06-29 09:22:29.250000,-44.76,105.77
72233,2018-06-29 09:22:29.281250,-33.94,105.77
72234,2018-06-29 09:22:29.312500,-1.52,105.77
72235,2018-06-29 09:22:29.343750,33.86,105.77
72236,2018-06-29 09:22:29.375000,59.08,105.77
72237,2018-06-29 09:22:29.406250,71.52,105.77
72238,2018-06-29 09:22:29.437500,73.31,105.77
72239,2018-06-29 09:22:29.468750,69.77,105.77
72240,2018-06-29 09:22:29.500000,63.48,105.77
72241,2018-06-29 09:22:29.531250,52.53,105.57
72242,2018-06-29 09:22:29.562500,36.84,105.57
72243,2018-06-29 09:22:29.593750,18.72,105.57
72244,2018-06-29 09:22:29.625000,-0.17,105.57
72245,2018-06-29 09:22:29.656250,-18.88,105.57
72246,2018-06-29 09:22:29.687500,-37.58,105.57
72247,2018-06-29 09:22:29.718750,-60.01,105.57
72248,2018-06-29 09:22:29.750000,-88.28,105.57
72249,2018-06-29 09:22:29.781250,-112.28,105.57
72250,2018-06-29 09:22:29.812500,-111.93,105.57
72251,2018-06-29 09:22:29.843750,-73.95,105.57
72252,2018-06-29 09:22:29.875000,-7.72,105.57
72253,2018-06-29 09:22:29.906250,62.9,105.57
72254,2018-06-29 09:22:29.937500,116.29,105.57
72255,2018-06-29 09:22:29.968750,143.77,105.57
72256,2018-06-29 09:22:30.000000,149.22,105.57
72257,2018-06-29 09:22:30.031250,143.75,105.57
72258,2018-06-29 09:22:30.062500,136.43,105.57
72259,2018-06-29 09:22:30.093750,128.71,105.57
72260,2018-06-29 09:22:30.125000,116.6,105.57
72261,2018-06-29 09:22:30.156250,95.92,105.57
72262,2018-06-29 09:22:30.187500,68.91,105.57
72263,2018-06-29 09:22:30.218750,43.81,105.57
72264,2018-06-29 09:22:30.250000,27.44,105.57
72265,2018-06-29 09:22:30.281250,17.74,105.57
72266,2018-06-29 09:22:30.312500,3.25,105.57
72267,2018-06-29 09:22:30.343750,-23.58,105.57
72268,2018-06-29 09:22:30.375000,-51.14,105.57
72269,2018-06-29 09:22:30.406250,-59.42,105.57
72270,2018-06-29 09:22:30.437500,-46.37,105.57
72271,2018-06-29 09:22:30.468750,-30.33,105.57
72272,2018-06-29 09:22:30.500000,-25.13,105.57
72273,2018-06-29 09:22:30.531250,-25.71,105.33
72274,2018-06-29 09:22:30.562500,-23.19,105.33
72275,2018-06-29 09:22:30.593750,-19.55,105.33
72276,2018-06-29 09:22:30.625000,-18.34,105.33
72277,2018-06-29 09:22:30.656250,-16.42,105.33
72278,2018-06-29 09:22:30.687500,-11.47,105.33
72279,2018-06-29 09:22:30.718750,-7.68,105.33
72280,2018-06-29 09:22:30.750000,-11.26,105.33
72281,2018-06-29 09:22:30.781250,-23.78,105.33
72282,2018-06-29 09:22:30.812500,-40.85,105.33
72283,2018-06-29 09:22:30.843750,-57.08,105.33
72284,2018-06-29 09:22:30.875000,-74.25,105.33
72285,2018-06-29 09:22:30.906250,-98.32,105.33
72286,2018-06-29 09:22:30.937500,-127.98,105.33
72287,2018-06-29 09:22:30.968750,-147.89,105.33
72288,2018-06-29 09:22:31.000000,-136.58,105.33
72289,2018-06-29 09:22:31.031250,-86.79,105.33
72290,2018-06-29 09:22:31.062500,-18.07,105.33
72291,2018-06-29 09:22:31.093750,40.59,105.33
72292,2018-06-29 09:22:31.125000,75.0,105.33
72293,2018-06-29 09:22:31.156250,87.57,105.33
72294,2018-06-29 09:22:31.187500,85.33,105.33
72295,2018-06-29 09:22:31.218750,73.51,105.33
72296,2018-06-29 09:22:31.250000,56.34,105.33
72297,2018-06-29 09:22:31.281250,38.67,105.33
72298,2018-06-29 09:22:31.312500,22.27,105.33
72299,2018-06-29 09:22:31.343750,4.99,105.33
72300,2018-06-29 09:22:31.375000,-11.4,105.33
72301,2018-06-29 09:22:31.406250,-19.11,105.33
72302,2018-06-29 09:22:31.437500,-15.76,105.33
72303,2018-06-29 09:22:31.468750,-11.39,105.33
72304,2018-06-29 09:22:31.500000,-17.48,105.33
72305,2018-06-29 09:22:31.531250,-33.89,105.17
72306,2018-06-29 09:22:31.562500,-47.79,105.17
72307,2018-06-29 09:22:31.593750,-41.57,105.17
72308,2018-06-29 09:22:31.625000,-7.46,105.17
72309,2018-06-29 09:22:31.656250,40.99,105.17
72310,2018-06-29 09:22:31.687500,80.54,105.17
72311,2018-06-29 09:22:31.718750,99.87,105.17
72312,2018-06-29 09:22:31.750000,100.88,105.17
72313,2018-06-29 09:22:31.781250,88.93,105.17
72314,2018-06-29 09:22:31.812500,70.07,105.17
72315,2018-06-29 09:22:31.843750,51.61,105.17
72316,2018-06-29 09:22:31.875000,37.12,105.17
72317,2018-06-29 09:22:31.906250,23.14,105.17
72318,2018-06-29 09:22:31.937500,3.09,105.17
72319,2018-06-29 09:22:31.968750,-20.93,105.17
72320,2018-06-29 09:22:32.000000,-33.75,105.17
72321,2018-06-29 09:22:32.031250,-29.98,105.17
72322,2018-06-29 09:22:32.062500,-32.17,105.17
72323,2018-06-29 09:22:32.093750,-61.02,105.17
72324,2018-06-29 09:22:32.125000,-102.2,105.17
72325,2018-06-29 09:22:32.156250,-123.75,105.17
72326,2018-06-29 09:22:32.187500,-109.93,105.17
72327,2018-06-29 09:22:32.218750,-65.53,105.17
72328,2018-06-29 09:22:32.250000,-8.42,105.17
72329,2018-06-29 09:22:32.281250,38.2,105.17
72330,2018-06-29 09:22:32.312500,61.7,105.17
72331,2018-06-29 09:22:32.343750,65.75,105.17
72332,2018-06-29 09:22:32.375000,57.22,105.17
72333,2018-06-29 09:22:32.406250,42.78,105.17
72334,2018-06-29 09:22:32.437500,33.01,105.17
72335,2018-06-29 09:22:32.468750,31.34,105.17
72336,2018-06-29 09:22:32.500000,29.08,105.17
72337,2018-06-29 09:22:32.531250,20.6,104.98
72338,2018-06-29 09:22:32.562500,12.15,104.98
72339,2018-06-29 09:22:32.593750,7.47,104.98
72340,2018-06-29 09:22:32.625000,-1.48,104.98
72341,2018-06-29 09:22:32.656250,-21.65,104.98
72342,2018-06-29 09:22:32.687500,-49.9,104.98
72343,2018-06-29 09:22:32.718750,-76.9,104.98
72344,2018-06-29 09:22:32.750000,-86.95,104.98
72345,2018-06-29 09:22:32.781250,-63.79,104.98
72346,2018-06-29 09:22:32.812500,-10.7,104.98
72347,2018-06-29 09:22:32.843750,47.63,104.98
72348,2018-06-29 09:22:32.875000,93.89,104.98
72349,2018-06-29 09:22:32.906250,126.65,104.98
72350,2018-06-29 09:22:32.937500,143.79,104.98
72351,2018-06-29 09:22:32.968750,141.73,104.98
72352,2018-06-29 09:22:33.000000,126.11,104.98
72353,2018-06-29 09:22:33.031250,106.75,104.98
72354,2018-06-29 09:22:33.062500,88.1,104.98
72355,2018-06-29 09:22:33.093750,68.13,104.98
72356,2018-06-29 09:22:33.125000,43.63,104.98
72357,2018-06-29 09:22:33.156250,17.0,104.98
72358,2018-06-29 09:22:33.187500,-5.13,104.98
72359,2018-06-29 09:22:33.218750,-20.07,104.98
72360,2018-06-29 09:22:33.250000,-30.91,104.98
72361,2018-06-29 09:22:33.281250,-45.83,104.98
72362,2018-06-29 09:22:33.312500,-69.32,104.98
72363,2018-06-29 09:22:33.343750,-87.71,104.98
72364,2018-06-29 09:22:33.375000,-77.95,104.98
72365,2018-06-29 09:22:33.406250,-37.39,104.98
72366,2018-06-29 09:22:33.437500,11.87,104.98
72367,2018-06-29 09:22:33.468750,50.69,104.98
72368,2018-06-29 09:22:33.500000,74.02,104.98
72369,2018-06-29 09:22:33.531250,81.76,104.83
72370,2018-06-29 09:22:33.562500,77.03,104.83
72371,2018-06-29 09:22:33.593750,67.38,104.83
72372,2018-06-29 09:22:33.625000,56.4,104.83
72373,2018-06-29 09:22:33.656250,41.92,104.83
72374,2018-06-29 09:22:33.687500,23.33,104.83
72375,2018-06-29 09:22:33.718750,3.29,104.83
72376,2018-06-29 09:22:33.750000,-15.41,104.83
72377,2018-06-29 09:22:33.781250,-28.44,104.83
72378,2018-06-29 09:22:33.812500,-32.13,104.83
72379,2018-06-29 09:22:33.843750,-31.92,104.83
72380,2018-06-29 09:22:33.875000,-40.8,104.83
72381,2018-06-29 09:22:33.906250,-59.3,104.83
72382,2018-06-29 09:22:33.937500,-68.03,104.83
72383,2018-06-29 09:22:33.968750,-51.92,104.83
72384,2018-06-29 09:22:34.000000,-19.47,104.83
72385,2018-06-29 09:22:34.031250,13.28,104.83
72386,2018-06-29 09:22:34.062500,42.59,104.83
72387,2018-06-29 09:22:34.093750,65.37,104.83
72388,2018-06-29 09:22:34.125000,71.8,104.83
72389,2018-06-29 09:22:34.156250,62.15,104.83
72390,2018-06-29 09:22:34.187500,49.63,104.83
72391,2018-06-29 09:22:34.218750,42.06,104.83
72392,2018-06-29 09:22:34.250000,35.43,104.83
72393,2018-06-29 09:22:34.281250,25.25,104.83
72394,2018-06-29 09:22:34.312500,12.3,104.83
72395,2018-06-29 09:22:34.343750,-1.75,104.83
72396,2018-06-29 09:22:34.375000,-16.3,104.83
72397,2018-06-29 09:22:34.406250,-30.92,104.83
72398,2018-06-29 09:22:34.437500,-45.47,104.83
72399,2018-06-29 09:22:34.468750,-62.66,104.83
72400,2018-06-29 09:22:34.500000,-82.52,104.83
72401,2018-06-29 09:22:34.531250,-94.15,104.68
72402,2018-06-29 09:22:34.562500,-84.12,104.68
72403,2018-06-29 09:22:34.593750,-52.53,104.68
72404,2018-06-29 09:22:34.625000,-11.93,104.68
72405,2018-06-29 09:22:34.656250,23.21,104.68
72406,2018-06-29 09:22:34.687500,43.71,104.68
72407,2018-06-29 09:22:34.718750,47.92,104.68
72408,2018-06-29 09:22:34.750000,41.39,104.68
72409,2018-06-29 09:22:34.781250,31.02,104.68
72410,2018-06-29 09:22:34.812500,20.38,104.68
72411,2018-06-29 09:22:34.843750,12.18,104.68
72412,2018-06-29 09:22:34.875000,8.69,104.68
72413,2018-06-29 09:22:34.906250,8.11,104.68
72414,2018-06-29 09:22:34.937500,5.72,104.68
72415,2018-06-29 09:22:34.968750,1.06,104.68
72416,2018-06-29 09:22:35.000000,-3.92,104.68
72417,2018-06-29 09:22:35.031250,-14.09,104.68
72418,2018-06-29 09:22:35.062500,-36.8,104.68
72419,2018-06-29 09:22:35.093750,-68.58,104.68
72420,2018-06-29 09:22:35.125000,-93.62,104.68
72421,2018-06-29 09:22:35.156250,-94.35,104.68
72422,2018-06-29 09:22:35.187500,-66.32,104.68
72423,2018-06-29 09:22:35.218750,-24.26,104.68
72424,2018-06-29 09:22:35.250000,14.26,104.68
72425,2018-06-29 09:22:35.281250,42.75,104.68
72426,2018-06-29 09:22:35.312500,58.55,104.68
72427,2018-06-29 09:22:35.343750,60.84,104.68
72428,2018-06-29 09:22:35.375000,57.06,104.68
72429,2018-06-29 09:22:35.406250,55.78,104.68
72430,2018-06-29 09:22:35.437500,56.09,104.68
72431,2018-06-29 09:22:35.468750,52.29,104.68
72432,2018-06-29 09:22:35.500000,41.47,104.68
72433,2018-06-29 09:22:35.531250,24.22,104.5
72434,2018-06-29 09:22:35.562500,1.75,104.5
72435,2018-06-29 09:22:35.593750,-23.66,104.5
72436,2018-06-29 09:22:35.625000,-48.08,104.5
72437,2018-06-29 09:22:35.656250,-70.17,104.5
72438,2018-06-29 09:22:35.687500,-91.57,104.5
72439,2018-06-29 09:22:35.718750,-105.45,104.5
72440,2018-06-29 09:22:35.750000,-95.94,104.5
72441,2018-06-29 09:22:35.781250,-57.23,104.5
72442,2018-06-29 09:22:35.812500,-5.0,104.5
72443,2018-06-29 09:22:35.843750,37.08,104.5
72444,2018-06-29 09:22:35.875000,56.61,104.5
72445,2018-06-29 09:22:35.906250,55.23,104.5
72446,2018-06-29 09:22:35.937500,39.98,104.5
72447,2018-06-29 09:22:35.968750,18.66,104.5
72448,2018-06-29 09:22:36.000000,2.02,104.5
72449,2018-06-29 09:22:36.031250,-3.19,104.5
72450,2018-06-29 09:22:36.062500,-2.98,104.5
72451,2018-06-29 09:22:36.093750,-4.26,104.5
72452,2018-06-29 09:22:36.125000,-2.89,104.5
72453,2018-06-29 09:22:36.156250,3.46,104.5
72454,2018-06-29 09:22:36.187500,6.34,104.5
72455,2018-06-29 09:22:36.218750,-2.59,104.5
72456,2018-06-29 09:22:36.250000,-22.5,104.5
72457,2018-06-29 09:22:36.281250,-50.58,104.5
72458,2018-06-29 09:22:36.312500,-75.4,104.5
72459,2018-06-29 09:22:36.343750,-75.34,104.5
72460,2018-06-29 09:22:36.375000,-42.22,104.5
72461,2018-06-29 09:22:36.406250,4.39,104.5
72462,2018-06-29 09:22:36.437500,40.35,104.5
72463,2018-06-29 09:22:36.468750,60.17,104.5
72464,2018-06-29 09:22:36.500000,66.1,104.5
72465,2018-06-29 09:22:36.531250,54.56,104.32
72466,2018-06-29 09:22:36.562500,29.79,104.32
72467,2018-06-29 09:22:36.593750,9.9,104.32
72468,2018-06-29 09:22:36.625000,4.34,104.32
72469,2018-06-29 09:22:36.656250,0.92,104.32
72470,2018-06-29 09:22:36.687500,-10.14,104.32
72471,2018-06-29 09:22:36.718750,-22.5,104.32
72472,2018-06-29 09:22:36.750000,-28.49,104.32
72473,2018-06-29 09:22:36.781250,-30.62,104.32
72474,2018-06-29 09:22:36.812500,-35.1,104.32
72475,2018-06-29 09:22:36.843750,-44.69,104.32
72476,2018-06-29 09:22:36.875000,-54.95,104.32
72477,2018-06-29 09:22:36.906250,-55.49,104.32
72478,2018-06-29 09:22:36.937500,-39.54,104.32
72479,2018-06-29 09:22:36.968750,-10.47,104.32
72480,2018-06-29 09:22:37.000000,21.69,104.32
72481,2018-06-29 09:22:37.031250,48.44,104.32
72482,2018-06-29 09:22:37.062500,65.57,104.32
72483,2018-06-29 09:22:37.093750,68.15,104.32
72484,2018-06-29 09:22:37.125000,53.03,104.32
72485,2018-06-29 09:22:37.156250,28.08,104.32
72486,2018-06-29 09:22:37.187500,9.18,104.32
72487,2018-06-29 09:22:37.218750,4.64,104.32
72488,2018-06-29 09:22:37.250000,6.33,104.32
72489,2018-06-29 09:22:37.281250,3.64,104.32
72490,2018-06-29 09:22:37.312500,-3.22,104.32
72491,2018-06-29 09:22:37.343750,-10.71,104.32
72492,2018-06-29 09:22:37.375000,-19.19,104.32
72493,2018-06-29 09:22:37.406250,-27.75,104.32
72494,2018-06-29 09:22:37.437500,-34.22,104.32
72495,2018-06-29 09:22:37.468750,-40.74,104.32
72496,2018-06-29 09:22:37.500000,-45.72,104.32
72497,2018-06-29 09:22:37.531250,-37.67,104.12
72498,2018-06-29 09:22:37.562500,-13.53,104.12
72499,2018-06-29 09:22:37.593750,12.66,104.12
72500,2018-06-29 09:22:37.625000,28.4,104.12
72501,2018-06-29 09:22:37.656250,34.81,104.12
72502,2018-06-29 09:22:37.687500,38.1,104.12
72503,2018-06-29 09:22:37.718750,41.63,104.12
72504,2018-06-29 09:22:37.750000,45.39,104.12
72505,2018-06-29 09:22:37.781250,46.43,104.12
72506,2018-06-29 09:22:37.812500,41.43,104.12
72507,2018-06-29 09:22:37.843750,25.42,104.12
72508,2018-06-29 09:22:37.875000,-1.8,104.12
72509,2018-06-29 09:22:37.906250,-29.36,104.12
72510,2018-06-29 09:22:37.937500,-51.4,104.12
72511,2018-06-29 09:22:37.968750,-75.12,104.12
72512,2018-06-29 09:22:38.000000,-102.35,104.12
72513,2018-06-29 09:22:38.031250,-122.13,104.12
72514,2018-06-29 09:22:38.062500,-127.31,104.12
72515,2018-06-29 09:22:38.093750,-115.55,104.12
72516,2018-06-29 09:22:38.125000,-83.47,104.12
72517,2018-06-29 09:22:38.156250,-38.28,104.12
72518,2018-06-29 09:22:38.187500,1.57,104.12
72519,2018-06-29 09:22:38.218750,27.07,104.12
72520,2018-06-29 09:22:38.250000,43.11,104.12
72521,2018-06-29 09:22:38.281250,50.57,104.12
72522,2018-06-29 09:22:38.312500,47.38,104.12
72523,2018-06-29 09:22:38.343750,44.52,104.12
72524,2018-06-29 09:22:38.375000,51.97,104.12
72525,2018-06-29 09:22:38.406250,59.09,104.12
72526,2018-06-29 09:22:38.437500,53.32,104.12
72527,2018-06-29 09:22:38.468750,39.51,104.12
72528,2018-06-29 09:22:38.500000,25.52,104.12
72529,2018-06-29 09:22:38.531250,9.97,103.9
72530,2018-06-29 09:22:38.562500,-7.67,103.9
72531,2018-06-29 09:22:38.593750,-23.02,103.9
72532,2018-06-29 09:22:38.625000,-34.33,103.9
72533,2018-06-29 09:22:38.656250,-42.94,103.9
72534,2018-06-29 09:22:38.687500,-43.5,103.9
72535,2018-06-29 09:22:38.718750,-30.22,103.9
72536,2018-06-29 09:22:38.750000,-7.07,103.9
72537,2018-06-29 09:22:38.781250,15.97,103.9
72538,2018-06-29 09:22:38.812500,36.65,103.9
72539,2018-06-29 09:22:38.843750,56.03,103.9
72540,2018-06-29 09:22:38.875000,65.87,103.9
72541,2018-06-29 09:22:38.906250,56.63,103.9
72542,2018-06-29 09:22:38.937500,33.32,103.9
72543,2018-06-29 09:22:38.968750,10.74,103.9
72544,2018-06-29 09:22:39.000000,-5.28,103.9
72545,2018-06-29 09:22:39.031250,-15.66,103.9
72546,2018-06-29 09:22:39.062500,-18.63,103.9
72547,2018-06-29 09:22:39.093750,-16.86,103.9
72548,2018-06-29 09:22:39.125000,-18.59,103.9
72549,2018-06-29 09:22:39.156250,-24.97,103.9
72550,2018-06-29 09:22:39.187500,-31.6,103.9
72551,2018-06-29 09:22:39.218750,-39.54,103.9
72552,2018-06-29 09:22:39.250000,-50.84,103.9
72553,2018-06-29 09:22:39.281250,-58.65,103.9
72554,2018-06-29 09:22:39.312500,-51.19,103.9
72555,2018-06-29 09:22:39.343750,-23.87,103.9
72556,2018-06-29 09:22:39.375000,10.87,103.9
72557,2018-06-29 09:22:39.406250,36.38,103.9
72558,2018-06-29 09:22:39.437500,49.11,103.9
72559,2018-06-29 09:22:39.468750,53.49,103.9
72560,2018-06-29 09:22:39.500000,48.1,103.9
72561,2018-06-29 09:22:39.531250,33.49,103.68
72562,2018-06-29 09:22:39.562500,18.56,103.68
72563,2018-06-29 09:22:39.593750,7.72,103.68
72564,2018-06-29 09:22:39.625000,-3.04,103.68
72565,2018-06-29 09:22:39.656250,-15.8,103.68
72566,2018-06-29 09:22:39.687500,-27.8,103.68
72567,2018-06-29 09:22:39.718750,-35.2,103.68
72568,2018-06-29 09:22:39.750000,-38.89,103.68
72569,2018-06-29 09:22:39.781250,-45.68,103.68
72570,2018-06-29 09:22:39.812500,-58.69,103.68
72571,2018-06-29 09:22:39.843750,-69.37,103.68
72572,2018-06-29 09:22:39.875000,-68.66,103.68
72573,2018-06-29 09:22:39.906250,-55.73,103.68
72574,2018-06-29 09:22:39.937500,-32.42,103.68
72575,2018-06-29 09:22:39.968750,-8.52,103.68
72576,2018-06-29 09:22:40.000000,7.22,103.68
72577,2018-06-29 09:22:40.031250,22.98,103.68
72578,2018-06-29 09:22:40.062500,44.3,103.68
72579,2018-06-29 09:22:40.093750,54.47,103.68
72580,2018-06-29 09:22:40.125000,48.5,103.68
72581,2018-06-29 09:22:40.156250,47.43,103.68
72582,2018-06-29 09:22:40.187500,56.56,103.68
72583,2018-06-29 09:22:40.218750,53.55,103.68
72584,2018-06-29 09:22:40.250000,31.22,103.68
72585,2018-06-29 09:22:40.281250,5.06,103.68
72586,2018-06-29 09:22:40.312500,-13.52,103.68
72587,2018-06-29 09:22:40.343750,-28.75,103.68
72588,2018-06-29 09:22:40.375000,-47.18,103.68
72589,2018-06-29 09:22:40.406250,-66.49,103.68
72590,2018-06-29 09:22:40.437500,-78.05,103.68
72591,2018-06-29 09:22:40.468750,-78.77,103.68
72592,2018-06-29 09:22:40.500000,-69.3,103.68
72593,2018-06-29 09:22:40.531250,-46.19,103.48
72594,2018-06-29 09:22:40.562500,-13.58,103.48
72595,2018-06-29 09:22:40.593750,14.11,103.48
72596,2018-06-29 09:22:40.625000,31.84,103.48
72597,2018-06-29 09:22:40.656250,45.37,103.48
72598,2018-06-29 09:22:40.687500,53.36,103.48
72599,2018-06-29 09:22:40.718750,54.74,103.48
72600,2018-06-29 09:22:40.750000,56.31,103.48
72601,2018-06-29 09:22:40.781250,56.5,103.48
72602,2018-06-29 09:22:40.812500,46.55,103.48
72603,2018-06-29 09:22:40.843750,27.89,103.48
72604,2018-06-29 09:22:40.875000,5.1,103.48
72605,2018-06-29 09:22:40.906250,-21.8,103.48
72606,2018-06-29 09:22:40.937500,-48.47,103.48
72607,2018-06-29 09:22:40.968750,-62.93,103.48
72608,2018-06-29 09:22:41.000000,-59.57,103.48
72609,2018-06-29 09:22:41.031250,-45.64,103.48
72610,2018-06-29 09:22:41.062500,-34.7,103.48
72611,2018-06-29 09:22:41.093750,-30.22,103.48
72612,2018-06-29 09:22:41.125000,-13.23,103.48
72613,2018-06-29 09:22:41.156250,31.78,103.48
72614,2018-06-29 09:22:41.187500,83.32,103.48
72615,2018-06-29 09:22:41.218750,103.74,103.48
72616,2018-06-29 09:22:41.250000,87.91,103.48
72617,2018-06-29 09:22:41.281250,58.02,103.48
72618,2018-06-29 09:22:41.312500,27.9,103.48
72619,2018-06-29 09:22:41.343750,0.76,103.48
72620,2018-06-29 09:22:41.375000,-17.66,103.48
72621,2018-06-29 09:22:41.406250,-23.37,103.48
72622,2018-06-29 09:22:41.437500,-20.82,103.48
72623,2018-06-29 09:22:41.468750,-20.62,103.48
72624,2018-06-29 09:22:41.500000,-27.75,103.48
72625,2018-06-29 09:22:41.531250,-37.58,103.27
72626,2018-06-29 09:22:41.562500,-47.63,103.27
72627,2018-06-29 09:22:41.593750,-63.63,103.27
72628,2018-06-29 09:22:41.625000,-87.99,103.27
72629,2018-06-29 09:22:41.656250,-110.94,103.27
72630,2018-06-29 09:22:41.687500,-118.02,103.27
72631,2018-06-29 09:22:41.718750,-100.76,103.27
72632,2018-06-29 09:22:41.750000,-64.08,103.27
72633,2018-06-29 09:22:41.781250,-22.99,103.27
72634,2018-06-29 09:22:41.812500,10.96,103.27
72635,2018-06-29 09:22:41.843750,35.91,103.27
72636,2018-06-29 09:22:41.875000,51.94,103.27
72637,2018-06-29 09:22:41.906250,56.69,103.27
72638,2018-06-29 09:22:41.937500,52.09,103.27
72639,2018-06-29 09:22:41.968750,46.67,103.27
72640,2018-06-29 09:22:42.000000,44.41,103.27
72641,2018-06-29 09:22:42.031250,39.73,103.27
72642,2018-06-29 09:22:42.062500,31.24,103.27
72643,2018-06-29 09:22:42.093750,24.1,103.27
72644,2018-06-29 09:22:42.125000,18.26,103.27
72645,2018-06-29 09:22:42.156250,9.68,103.27
72646,2018-06-29 09:22:42.187500,-0.61,103.27
72647,2018-06-29 09:22:42.218750,-12.73,103.27
72648,2018-06-29 09:22:42.250000,-32.24,103.27
72649,2018-06-29 09:22:42.281250,-55.46,103.27
72650,2018-06-29 09:22:42.312500,-64.24,103.27
72651,2018-06-29 09:22:42.343750,-48.39,103.27
72652,2018-06-29 09:22:42.375000,-19.93,103.27
72653,2018-06-29 09:22:42.406250,5.39,103.27
72654,2018-06-29 09:22:42.437500,26.45,103.27
72655,2018-06-29 09:22:42.468750,45.31,103.27
72656,2018-06-29 09:22:42.500000,56.89,103.27
72657,2018-06-29 09:22:42.531250,60.68,103.03
72658,2018-06-29 09:22:42.562500,63.98,103.03
72659,2018-06-29 09:22:42.593750,68.12,103.03
72660,2018-06-29 09:22:42.625000,65.9,103.03
72661,2018-06-29 09:22:42.656250,54.48,103.03
72662,2018-06-29 09:22:42.687500,37.35,103.03
72663,2018-06-29 09:22:42.718750,19.12,103.03
72664,2018-06-29 09:22:42.750000,2.74,103.03
72665,2018-06-29 09:22:42.781250,-11.77,103.03
72666,2018-06-29 09:22:42.812500,-25.85,103.03
72667,2018-06-29 09:22:42.843750,-41.03,103.03
72668,2018-06-29 09:22:42.875000,-59.7,103.03
72669,2018-06-29 09:22:42.906250,-77.99,103.03
72670,2018-06-29 09:22:42.937500,-80.44,103.03
72671,2018-06-29 09:22:42.968750,-56.6,103.03
72672,2018-06-29 09:22:43.000000,-17.73,103.03
72673,2018-06-29 09:22:43.031250,17.79,103.03
72674,2018-06-29 09:22:43.062500,41.68,103.03
72675,2018-06-29 09:22:43.093750,54.64,103.03
72676,2018-06-29 09:22:43.125000,58.85,103.03
72677,2018-06-29 09:22:43.156250,56.99,103.03
72678,2018-06-29 09:22:43.187500,51.03,103.03
72679,2018-06-29 09:22:43.218750,42.49,103.03
72680,2018-06-29 09:22:43.250000,34.92,103.03
72681,2018-06-29 09:22:43.281250,31.96,103.03
72682,2018-06-29 09:22:43.312500,33.08,103.03
72683,2018-06-29 09:22:43.343750,32.02,103.03
72684,2018-06-29 09:22:43.375000,23.43,103.03
72685,2018-06-29 09:22:43.406250,7.37,103.03
72686,2018-06-29 09:22:43.437500,-15.19,103.03
72687,2018-06-29 09:22:43.468750,-43.73,103.03
72688,2018-06-29 09:22:43.500000,-74.44,103.03
72689,2018-06-29 09:22:43.531250,-96.58,102.82
72690,2018-06-29 09:22:43.562500,-96.64,102.82
72691,2018-06-29 09:22:43.593750,-70.91,102.82
72692,2018-06-29 09:22:43.625000,-28.72,102.82
72693,2018-06-29 09:22:43.656250,15.18,102.82
72694,2018-06-29 09:22:43.687500,51.36,102.82
72695,2018-06-29 09:22:43.718750,72.12,102.82
72696,2018-06-29 09:22:43.750000,69.61,102.82
72697,2018-06-29 09:22:43.781250,45.69,102.82
72698,2018-06-29 09:22:43.812500,15.06,102.82
72699,2018-06-29 09:22:43.843750,-4.66,102.82
72700,2018-06-29 09:22:43.875000,-11.02,102.82
72701,2018-06-29 09:22:43.906250,-10.91,102.82
72702,2018-06-29 09:22:43.937500,-6.22,102.82
72703,2018-06-29 09:22:43.968750,-0.1,102.82
72704,2018-06-29 09:22:44.000000,-2.05,102.82
72705,2018-06-29 09:22:44.031250,-14.94,102.82
72706,2018-06-29 09:22:44.062500,-30.21,102.82
72707,2018-06-29 09:22:44.093750,-45.5,102.82
72708,2018-06-29 09:22:44.125000,-64.75,102.82
72709,2018-06-29 09:22:44.156250,-77.23,102.82
72710,2018-06-29 09:22:44.187500,-64.48,102.82
72711,2018-06-29 09:22:44.218750,-29.8,102.82
72712,2018-06-29 09:22:44.250000,2.02,102.82
72713,2018-06-29 09:22:44.281250,21.05,102.82
72714,2018-06-29 09:22:44.312500,37.71,102.82
72715,2018-06-29 09:22:44.343750,52.1,102.82
72716,2018-06-29 09:22:44.375000,50.68,102.82
72717,2018-06-29 09:22:44.406250,34.13,102.82
72718,2018-06-29 09:22:44.437500,19.04,102.82
72719,2018-06-29 09:22:44.468750,12.33,102.82
72720,2018-06-29 09:22:44.500000,8.16,102.82
72721,2018-06-29 09:22:44.531250,3.83,102.6
72722,2018-06-29 09:22:44.562500,4.36,102.6
72723,2018-06-29 09:22:44.593750,10.96,102.6
72724,2018-06-29 09:22:44.625000,13.14,102.6
72725,2018-06-29 09:22:44.656250,2.09,102.6
72726,2018-06-29 09:22:44.687500,-17.06,102.6
72727,2018-06-29 09:22:44.718750,-39.28,102.6
72728,2018-06-29 09:22:44.750000,-64.47,102.6
72729,2018-06-29 09:22:44.781250,-80.36,102.6
72730,2018-06-29 09:22:44.812500,-66.75,102.6
72731,2018-06-29 09:22:44.843750,-28.8,102.6
72732,2018-06-29 09:22:44.875000,5.85,102.6
72733,2018-06-29 09:22:44.906250,23.38,102.6
72734,2018-06-29 09:22:44.937500,31.75,102.6
72735,2018-06-29 09:22:44.968750,38.27,102.6
72736,2018-06-29 09:22:45.000000,42.02,102.6
72737,2018-06-29 09:22:45.031250,42.86,102.6
72738,2018-06-29 09:22:45.062500,44.28,102.6
72739,2018-06-29 09:22:45.093750,45.93,102.6
72740,2018-06-29 09:22:45.125000,45.22,102.6
72741,2018-06-29 09:22:45.156250,41.84,102.6
72742,2018-06-29 09:22:45.187500,37.6,102.6
72743,2018-06-29 09:22:45.218750,30.32,102.6
72744,2018-06-29 09:22:45.250000,16.99,102.6
72745,2018-06-29 09:22:45.281250,0.9,102.6
72746,2018-06-29 09:22:45.312500,-14.38,102.6
72747,2018-06-29 09:22:45.343750,-32.8,102.6
72748,2018-06-29 09:22:45.375000,-56.12,102.6
72749,2018-06-29 09:22:45.406250,-69.86,102.6
72750,2018-06-29 09:22:45.437500,-56.14,102.6
72751,2018-06-29 09:22:45.468750,-16.4,102.6
72752,2018-06-29 09:22:45.500000,30.51,102.6
72753,2018-06-29 09:22:45.531250,67.5,102.38
72754,2018-06-29 09:22:45.562500,86.63,102.38
72755,2018-06-29 09:22:45.593750,84.77,102.38
72756,2018-06-29 09:22:45.625000,67.0,102.38
72757,2018-06-29 09:22:45.656250,46.36,102.38
72758,2018-06-29 09:22:45.687500,29.06,102.38
72759,2018-06-29 09:22:45.718750,12.61,102.38
72760,2018-06-29 09:22:45.750000,-3.52,102.38
72761,2018-06-29 09:22:45.781250,-15.01,102.38
72762,2018-06-29 09:22:45.812500,-19.95,102.38
72763,2018-06-29 09:22:45.843750,-19.78,102.38
72764,2018-06-29 09:22:45.875000,-17.02,102.38
72765,2018-06-29 09:22:45.906250,-19.58,102.38
72766,2018-06-29 09:22:45.937500,-35.74,102.38
72767,2018-06-29 09:22:45.968750,-62.55,102.38
72768,2018-06-29 09:22:46.000000,-87.5,102.38
72769,2018-06-29 09:22:46.031250,-98.82,102.38
72770,2018-06-29 09:22:46.062500,-90.21,102.38
72771,2018-06-29 09:22:46.093750,-61.79,102.38
72772,2018-06-29 09:22:46.125000,-22.4,102.38
72773,2018-06-29 09:22:46.156250,14.89,102.38
72774,2018-06-29 09:22:46.187500,41.93,102.38
72775,2018-06-29 09:22:46.218750,57.83,102.38
72776,2018-06-29 09:22:46.250000,64.37,102.38
72777,2018-06-29 09:22:46.281250,62.4,102.38
72778,2018-06-29 09:22:46.312500,52.68,102.38
72779,2018-06-29 09:22:46.343750,40.07,102.38
72780,2018-06-29 09:22:46.375000,28.92,102.38
72781,2018-06-29 09:22:46.406250,18.39,102.38
72782,2018-06-29 09:22:46.437500,7.17,102.38
72783,2018-06-29 09:22:46.468750,-1.25,102.38
72784,2018-06-29 09:22:46.500000,-4.15,102.38
72785,2018-06-29 09:22:46.531250,-5.86,102.18
72786,2018-06-29 09:22:46.562500,-15.4,102.18
72787,2018-06-29 09:22:46.593750,-37.54,102.18
72788,2018-06-29 09:22:46.625000,-66.52,102.18
72789,2018-06-29 09:22:46.656250,-85.06,102.18
72790,2018-06-29 09:22:46.687500,-76.12,102.18
72791,2018-06-29 09:22:46.718750,-40.58,102.18
72792,2018-06-29 09:22:46.750000,0.3,102.18
72793,2018-06-29 09:22:46.781250,27.74,102.18
72794,2018-06-29 09:22:46.812500,43.41,102.18
72795,2018-06-29 09:22:46.843750,55.42,102.18
72796,2018-06-29 09:22:46.875000,62.75,102.18
72797,2018-06-29 09:22:46.906250,61.03,102.18
72798,2018-06-29 09:22:46.937500,52.4,102.18
72799,2018-06-29 09:22:46.968750,42.11,102.18
72800,2018-06-29 09:22:47.000000,36.09,102.18
72801,2018-06-29 09:22:47.031250,33.95,102.18
72802,2018-06-29 09:22:47.062500,24.96,102.18
72803,2018-06-29 09:22:47.093750,3.62,102.18
72804,2018-06-29 09:22:47.125000,-21.02,102.18
72805,2018-06-29 09:22:47.156250,-42.3,102.18
72806,2018-06-29 09:22:47.187500,-60.54,102.18
72807,2018-06-29 09:22:47.218750,-72.35,102.18
72808,2018-06-29 09:22:47.250000,-77.02,102.18
72809,2018-06-29 09:22:47.281250,-76.87,102.18
72810,2018-06-29 09:22:47.312500,-59.4,102.18
72811,2018-06-29 09:22:47.343750,-11.37,102.18
72812,2018-06-29 09:22:47.375000,46.99,102.18
72813,2018-06-29 09:22:47.406250,82.14,102.18
72814,2018-06-29 09:22:47.437500,89.15,102.18
72815,2018-06-29 09:22:47.468750,84.66,102.18
72816,2018-06-29 09:22:47.500000,75.45,102.18
72817,2018-06-29 09:22:47.531250,60.42,102.0
72818,2018-06-29 09:22:47.562500,45.47,102.0
72819,2018-06-29 09:22:47.593750,36.76,102.0
72820,2018-06-29 09:22:47.625000,28.66,102.0
72821,2018-06-29 09:22:47.656250,15.2,102.0
72822,2018-06-29 09:22:47.687500,1.08,102.0
72823,2018-06-29 09:22:47.718750,-9.6,102.0
72824,2018-06-29 09:22:47.750000,-22.75,102.0
72825,2018-06-29 09:22:47.781250,-39.89,102.0
72826,2018-06-29 09:22:47.812500,-57.61,102.0
72827,2018-06-29 09:22:47.843750,-74.88,102.0
72828,2018-06-29 09:22:47.875000,-83.58,102.0
72829,2018-06-29 09:22:47.906250,-64.7,102.0
72830,2018-06-29 09:22:47.937500,-16.55,102.0
72831,2018-06-29 09:22:47.968750,37.01,102.0
72832,2018-06-29 09:22:48.000000,76.4,102.0
72833,2018-06-29 09:22:48.031250,99.31,102.0
72834,2018-06-29 09:22:48.062500,108.39,102.0
72835,2018-06-29 09:22:48.093750,106.3,102.0
72836,2018-06-29 09:22:48.125000,99.25,102.0
72837,2018-06-29 09:22:48.156250,91.6,102.0
72838,2018-06-29 09:22:48.187500,81.11,102.0
72839,2018-06-29 09:22:48.218750,64.16,102.0
72840,2018-06-29 09:22:48.250000,42.23,102.0
72841,2018-06-29 09:22:48.281250,21.31,102.0
72842,2018-06-29 09:22:48.312500,1.56,102.0
72843,2018-06-29 09:22:48.343750,-23.46,102.0
72844,2018-06-29 09:22:48.375000,-54.86,102.0
72845,2018-06-29 09:22:48.406250,-89.73,102.0
72846,2018-06-29 09:22:48.437500,-125.04,102.0
72847,2018-06-29 09:22:48.468750,-151.24,102.0
72848,2018-06-29 09:22:48.500000,-154.1,102.0
72849,2018-06-29 09:22:48.531250,-134.01,101.85
72850,2018-06-29 09:22:48.562500,-106.32,101.85
72851,2018-06-29 09:22:48.593750,-80.75,101.85
72852,2018-06-29 09:22:48.625000,-56.02,101.85
72853,2018-06-29 09:22:48.656250,-31.15,101.85
72854,2018-06-29 09:22:48.687500,-11.23,101.85
72855,2018-06-29 09:22:48.718750,-1.85,101.85
72856,2018-06-29 09:22:48.750000,-3.13,101.85
72857,2018-06-29 09:22:48.781250,-8.34,101.85
72858,2018-06-29 09:22:48.812500,-12.64,101.85
72859,2018-06-29 09:22:48.843750,-18.43,101.85
72860,2018-06-29 09:22:48.875000,-28.8,101.85
72861,2018-06-29 09:22:48.906250,-41.46,101.85
72862,2018-06-29 09:22:48.937500,-52.84,101.85
72863,2018-06-29 09:22:48.968750,-63.66,101.85
72864,2018-06-29 09:22:49.000000,-76.72,101.85
72865,2018-06-29 09:22:49.031250,-91.89,101.85
72866,2018-06-29 09:22:49.062500,-105.1,101.85
72867,2018-06-29 09:22:49.093750,-104.12,101.85
72868,2018-06-29 09:22:49.125000,-71.77,101.85
72869,2018-06-29 09:22:49.156250,-8.42,101.85
72870,2018-06-29 09:22:49.187500,57.24,101.85
72871,2018-06-29 09:22:49.218750,98.96,101.85
72872,2018-06-29 09:22:49.250000,118.37,101.85
72873,2018-06-29 09:22:49.281250,124.22,101.85
72874,2018-06-29 09:22:49.312500,112.53,101.85
72875,2018-06-29 09:22:49.343750,85.01,101.85
72876,2018-06-29 09:22:49.375000,58.01,101.85
72877,2018-06-29 09:22:49.406250,43.01,101.85
72878,2018-06-29 09:22:49.437500,34.26,101.85
72879,2018-06-29 09:22:49.468750,23.39,101.85
72880,2018-06-29 09:22:49.500000,12.12,101.85
72881,2018-06-29 09:22:49.531250,2.3,101.72
72882,2018-06-29 09:22:49.562500,-13.73,101.72
72883,2018-06-29 09:22:49.593750,-41.7,101.72
72884,2018-06-29 09:22:49.625000,-74.31,101.72
72885,2018-06-29 09:22:49.656250,-96.19,101.72
72886,2018-06-29 09:22:49.687500,-92.72,101.72
72887,2018-06-29 09:22:49.718750,-57.46,101.72
72888,2018-06-29 09:22:49.750000,-1.07,101.72
72889,2018-06-29 09:22:49.781250,55.03,101.72
72890,2018-06-29 09:22:49.812500,95.99,101.72
72891,2018-06-29 09:22:49.843750,115.76,101.72
72892,2018-06-29 09:22:49.875000,114.24,101.72
72893,2018-06-29 09:22:49.906250,98.02,101.72
72894,2018-06-29 09:22:49.937500,79.64,101.72
72895,2018-06-29 09:22:49.968750,66.23,101.72
72896,2018-06-29 09:22:50.000000,53.07,101.72
72897,2018-06-29 09:22:50.031250,30.24,101.72
72898,2018-06-29 09:22:50.062500,-0.83,101.72
72899,2018-06-29 09:22:50.093750,-27.17,101.72
72900,2018-06-29 09:22:50.125000,-40.93,101.72
72901,2018-06-29 09:22:50.156250,-49.76,101.72
72902,2018-06-29 09:22:50.187500,-63.86,101.72
72903,2018-06-29 09:22:50.218750,-85.01,101.72
72904,2018-06-29 09:22:50.250000,-106.63,101.72
72905,2018-06-29 09:22:50.281250,-114.42,101.72
72906,2018-06-29 09:22:50.312500,-93.96,101.72
72907,2018-06-29 09:22:50.343750,-47.43,101.72
72908,2018-06-29 09:22:50.375000,5.17,101.72
72909,2018-06-29 09:22:50.406250,46.55,101.72
72910,2018-06-29 09:22:50.437500,73.01,101.72
72911,2018-06-29 09:22:50.468750,86.09,101.72
72912,2018-06-29 09:22:50.500000,85.63,101.72
72913,2018-06-29 09:22:50.531250,74.84,101.58
72914,2018-06-29 09:22:50.562500,60.81,101.58
72915,2018-06-29 09:22:50.593750,43.71,101.58
72916,2018-06-29 09:22:50.625000,19.75,101.58
72917,2018-06-29 09:22:50.656250,-5.66,101.58
72918,2018-06-29 09:22:50.687500,-24.61,101.58
72919,2018-06-29 09:22:50.718750,-36.44,101.58
72920,2018-06-29 09:22:50.750000,-41.88,101.58
72921,2018-06-29 09:22:50.781250,-42.88,101.58
72922,2018-06-29 09:22:50.812500,-49.22,101.58
72923,2018-06-29 09:22:50.843750,-68.19,101.58
72924,2018-06-29 09:22:50.875000,-91.49,101.58
72925,2018-06-29 09:22:50.906250,-99.22,101.58
72926,2018-06-29 09:22:50.937500,-74.88,101.58
72927,2018-06-29 09:22:50.968750,-26.1,101.58
72928,2018-06-29 09:22:51.000000,17.63,101.58
72929,2018-06-29 09:22:51.031250,40.87,101.58
72930,2018-06-29 09:22:51.062500,54.24,101.58
72931,2018-06-29 09:22:51.093750,66.24,101.58
72932,2018-06-29 09:22:51.125000,71.14,101.58
72933,2018-06-29 09:22:51.156250,69.2,101.58
72934,2018-06-29 09:22:51.187500,70.21,101.58
72935,2018-06-29 09:22:51.218750,78.38,101.58
72936,2018-06-29 09:22:51.250000,86.97,101.58
72937,2018-06-29 09:22:51.281250,85.96,101.58
72938,2018-06-29 09:22:51.312500,70.93,101.58
72939,2018-06-29 09:22:51.343750,43.68,101.58
72940,2018-06-29 09:22:51.375000,8.15,101.58
72941,2018-06-29 09:22:51.406250,-33.52,101.58
72942,2018-06-29 09:22:51.437500,-78.9,101.58
72943,2018-06-29 09:22:51.468750,-120.92,101.58
72944,2018-06-29 09:22:51.500000,-141.89,101.58
72945,2018-06-29 09:22:51.531250,-121.77,101.47
72946,2018-06-29 09:22:51.562500,-63.27,101.47
72947,2018-06-29 09:22:51.593750,4.35,101.47
72948,2018-06-29 09:22:51.625000,54.13,101.47
72949,2018-06-29 09:22:51.656250,79.25,101.47
72950,2018-06-29 09:22:51.687500,85.6,101.47
72951,2018-06-29 09:22:51.718750,79.97,101.47
72952,2018-06-29 09:22:51.750000,68.91,101.47
72953,2018-06-29 09:22:51.781250,56.04,101.47
72954,2018-06-29 09:22:51.812500,42.7,101.47
72955,2018-06-29 09:22:51.843750,32.06,101.47
72956,2018-06-29 09:22:51.875000,25.83,101.47
72957,2018-06-29 09:22:51.906250,23.01,101.47
72958,2018-06-29 09:22:51.937500,19.91,101.47
72959,2018-06-29 09:22:51.968750,9.12,101.47
72960,2018-06-29 09:22:52.000000,-14.33,101.47
72961,2018-06-29 09:22:52.031250,-45.53,101.47
72962,2018-06-29 09:22:52.062500,-77.52,101.47
72963,2018-06-29 09:22:52.093750,-104.9,101.47
72964,2018-06-29 09:22:52.125000,-112.89,101.47
72965,2018-06-29 09:22:52.156250,-85.86,101.47
72966,2018-06-29 09:22:52.187500,-35.22,101.47
72967,2018-06-29 09:22:52.218750,10.79,101.47
72968,2018-06-29 09:22:52.250000,41.29,101.47
72969,2018-06-29 09:22:52.281250,60.83,101.47
72970,2018-06-29 09:22:52.312500,69.12,101.47
72971,2018-06-29 09:22:52.343750,64.51,101.47
72972,2018-06-29 09:22:52.375000,54.29,101.47
72973,2018-06-29 09:22:52.406250,44.26,101.47
72974,2018-06-29 09:22:52.437500,32.23,101.47
72975,2018-06-29 09:22:52.468750,17.4,101.47
72976,2018-06-29 09:22:52.500000,3.22,101.47
72977,2018-06-29 09:22:52.531250,-8.89,101.35
72978,2018-06-29 09:22:52.562500,-19.82,101.35
72979,2018-06-29 09:22:52.593750,-30.37,101.35
72980,2018-06-29 09:22:52.625000,-41.32,101.35
72981,2018-06-29 09:22:52.656250,-53.46,101.35
72982,2018-06-29 09:22:52.687500,-68.28,101.35
72983,2018-06-29 09:22:52.718750,-83.98,101.35
72984,2018-06-29 09:22:52.750000,-89.49,101.35
72985,2018-06-29 09:22:52.781250,-71.57,101.35
72986,2018-06-29 09:22:52.812500,-31.39,101.35
72987,2018-06-29 09:22:52.843750,16.06,101.35
72988,2018-06-29 09:22:52.875000,55.43,101.35
72989,2018-06-29 09:22:52.906250,79.46,101.35
72990,2018-06-29 09:22:52.937500,87.88,101.35
72991,2018-06-29 09:22:52.968750,85.23,101.35
72992,2018-06-29 09:22:53.000000,74.37,101.35
72993,2018-06-29 09:22:53.031250,57.14,101.35
72994,2018-06-29 09:22:53.062500,39.15,101.35
72995,2018-06-29 09:22:53.093750,26.84,101.35
