,Time,ppg,hr
73600,2018-06-29 09:23:12.000000,255.38,99.27
73601,2018-06-29 09:23:12.031250,280.82,99.27
73602,2018-06-29 09:23:12.062500,297.51,99.27
73603,2018-06-29 09:23:12.093750,305.88,99.27
73604,2018-06-29 09:23:12.125000,315.88,99.27
73605,2018-06-29 09:23:12.156250,333.05,99.27
73606,2018-06-29 09:23:12.187500,351.4,99.27
73607,2018-06-29 09:23:12.218750,364.59,99.27
73608,2018-06-29 09:23:12.250000,365.53,99.27
73609,2018-06-29 09:23:12.281250,336.61,99.27
73610,2018-06-29 09:23:12.312500,268.63,99.27
73611,2018-06-29 09:23:12.343750,181.48,99.27
73612,2018-06-29 09:23:12.375000,99.45,99.27
73613,2018-06-29 09:23:12.406250,25.73,99.27
73614,2018-06-29 09:23:12.437500,-37.0,99.27
73615,2018-06-29 09:23:12.468750,-71.07,99.27
73616,2018-06-29 09:23:12.500000,-68.09,99.27
73617,2018-06-29 09:23:12.531250,-44.54,99.13
73618,2018-06-29 09:23:12.562500,-23.43,99.13
73619,2018-06-29 09:23:12.593750,-15.14,99.13
73620,2018-06-29 09:23:12.625000,-19.1,99.13
73621,2018-06-29 09:23:12.656250,-32.5,99.13
73622,2018-06-29 09:23:12.687500,-53.95,99.13
73623,2018-06-29 09:23:12.718750,-82.68,99.13
73624,2018-06-29 09:23:12.750000,-115.77,99.13
73625,2018-06-29 09:23:12.781250,-150.19,99.13
73626,2018-06-29 09:23:12.812500,-190.88,99.13
73627,2018-06-29 09:23:12.843750,-251.44,99.13
73628,2018-06-29 09:23:12.875000,-341.58,99.13
73629,2018-06-29 09:23:12.906250,-448.34,99.13
73630,2018-06-29 09:23:12.937500,-531.48,99.13
73631,2018-06-29 09:23:12.968750,-549.99,99.13
73632,2018-06-29 09:23:13.000000,-498.6,99.13
73633,2018-06-29 09:23:13.031250,-408.9,99.13
73634,2018-06-29 09:23:13.062500,-313.91,99.13
73635,2018-06-29 09:23:13.093750,-225.65,99.13
73636,2018-06-29 09:23:13.125000,-140.99,99.13
73637,2018-06-29 09:23:13.156250,-53.38,99.13
73638,2018-06-29 09:23:13.187500,39.74,99.13
73639,2018-06-29 09:23:13.218750,134.65,99.13
73640,2018-06-29 09:23:13.250000,224.38,99.13
73641,2018-06-29 09:23:13.281250,302.23,99.13
73642,2018-06-29 09:23:13.312500,366.1,99.13
73643,2018-06-29 09:23:13.343750,414.17,99.13
73644,2018-06-29 09:23:13.375000,432.9,99.13
73645,2018-06-29 09:23:13.406250,409.6,99.13
73646,2018-06-29 09:23:13.437500,364.02,99.13
73647,2018-06-29 09:23:13.468750,331.38,99.13
73648,2018-06-29 09:23:13.500000,310.63,99.13
73649,2018-06-29 09:23:13.531250,273.35,98.95
73650,2018-06-29 09:23:13.562500,218.3,98.95
73651,2018-06-29 09:23:13.593750,169.37,98.95
73652,2018-06-29 09:23:13.625000,130.32,98.95
73653,2018-06-29 09:23:13.656250,85.31,98.95
73654,2018-06-29 09:23:13.687500,30.41,98.95
73655,2018-06-29 09:23:13.718750,-27.94,98.95
73656,2018-06-29 09:23:13.750000,-81.31,98.95
73657,2018-06-29 09:23:13.781250,-113.42,98.95
73658,2018-06-29 09:23:13.812500,-123.99,98.95
73659,2018-06-29 09:23:13.843750,-145.23,98.95
73660,2018-06-29 09:23:13.875000,-189.5,98.95
73661,2018-06-29 09:23:13.906250,-217.62,98.95
73662,2018-06-29 09:23:13.937500,-204.15,98.95
73663,2018-06-29 09:23:13.968750,-178.95,98.95
73664,2018-06-29 09:23:14.000000,-168.29,98.95
73665,2018-06-29 09:23:14.031250,-159.38,98.95
73666,2018-06-29 09:23:14.062500,-141.81,98.95
73667,2018-06-29 09:23:14.093750,-124.56,98.95
73668,2018-06-29 09:23:14.125000,-106.96,98.95
73669,2018-06-29 09:23:14.156250,-78.69,98.95
73670,2018-06-29 09:23:14.187500,-46.2,98.95
73671,2018-06-29 09:23:14.218750,-22.24,98.95
73672,2018-06-29 09:23:14.250000,1.66,98.95
73673,2018-06-29 09:23:14.281250,37.51,98.95
73674,2018-06-29 09:23:14.312500,67.74,98.95
73675,2018-06-29 09:23:14.343750,62.28,98.95
73676,2018-06-29 09:23:14.375000,17.03,98.95
73677,2018-06-29 09:23:14.406250,-50.41,98.95
73678,2018-06-29 09:23:14.437500,-125.93,98.95
73679,2018-06-29 09:23:14.468750,-200.64,98.95
73680,2018-06-29 09:23:14.500000,-263.93,98.95
73681,2018-06-29 09:23:14.531250,-309.38,98.77
73682,2018-06-29 09:23:14.562500,-337.65,98.77
73683,2018-06-29 09:23:14.593750,-351.11,98.77
73684,2018-06-29 09:23:14.625000,-349.37,98.77
73685,2018-06-29 09:23:14.656250,-326.69,98.77
73686,2018-06-29 09:23:14.687500,-278.09,98.77
73687,2018-06-29 09:23:14.718750,-213.53,98.77
73688,2018-06-29 09:23:14.750000,-160.75,98.77
73689,2018-06-29 09:23:14.781250,-142.89,98.77
73690,2018-06-29 09:23:14.812500,-154.28,98.77
73691,2018-06-29 09:23:14.843750,-165.01,98.77
73692,2018-06-29 09:23:14.875000,-151.08,98.77
73693,2018-06-29 09:23:14.906250,-113.66,98.77
73694,2018-06-29 09:23:14.937500,-67.48,98.77
73695,2018-06-29 09:23:14.968750,-20.51,98.77
73696,2018-06-29 09:23:15.000000,28.05,98.77
73697,2018-06-29 09:23:15.031250,76.87,98.77
73698,2018-06-29 09:23:15.062500,115.81,98.77
73699,2018-06-29 09:23:15.093750,134.22,98.77
73700,2018-06-29 09:23:15.125000,133.62,98.77
73701,2018-06-29 09:23:15.156250,126.91,98.77
73702,2018-06-29 09:23:15.187500,123.8,98.77
73703,2018-06-29 09:23:15.218750,125.42,98.77
73704,2018-06-29 09:23:15.250000,130.4,98.77
73705,2018-06-29 09:23:15.281250,136.14,98.77
73706,2018-06-29 09:23:15.312500,136.47,98.77
73707,2018-06-29 09:23:15.343750,127.02,98.77
73708,2018-06-29 09:23:15.375000,106.5,98.77
73709,2018-06-29 09:23:15.406250,70.16,98.77
73710,2018-06-29 09:23:15.437500,13.66,98.77
73711,2018-06-29 09:23:15.468750,-42.94,98.77
73712,2018-06-29 09:23:15.500000,-59.42,98.77
73713,2018-06-29 09:23:15.531250,-20.14,98.63
73714,2018-06-29 09:23:15.562500,46.69,98.63
73715,2018-06-29 09:23:15.593750,105.51,98.63
73716,2018-06-29 09:23:15.625000,137.75,98.63
73717,2018-06-29 09:23:15.656250,143.47,98.63
73718,2018-06-29 09:23:15.687500,142.09,98.63
73719,2018-06-29 09:23:15.718750,148.64,98.63
73720,2018-06-29 09:23:15.750000,147.37,98.63
73721,2018-06-29 09:23:15.781250,122.32,98.63
73722,2018-06-29 09:23:15.812500,89.25,98.63
73723,2018-06-29 09:23:15.843750,65.88,98.63
73724,2018-06-29 09:23:15.875000,48.19,98.63
73725,2018-06-29 09:23:15.906250,35.67,98.63
73726,2018-06-29 09:23:15.937500,38.48,98.63
73727,2018-06-29 09:23:15.968750,52.37,98.63
73728,2018-06-29 09:23:16.000000,58.5,98.63
73729,2018-06-29 09:23:16.031250,43.66,98.63
73730,2018-06-29 09:23:16.062500,5.09,98.63
73731,2018-06-29 09:23:16.093750,-44.53,98.63
73732,2018-06-29 09:23:16.125000,-72.49,98.63
73733,2018-06-29 09:23:16.156250,-54.74,98.63
73734,2018-06-29 09:23:16.187500,-6.43,98.63
73735,2018-06-29 09:23:16.218750,38.62,98.63
73736,2018-06-29 09:23:16.250000,64.12,98.63
73737,2018-06-29 09:23:16.281250,70.06,98.63
73738,2018-06-29 09:23:16.312500,58.87,98.63
73739,2018-06-29 09:23:16.343750,36.87,98.63
73740,2018-06-29 09:23:16.375000,14.91,98.63
73741,2018-06-29 09:23:16.406250,-1.47,98.63
73742,2018-06-29 09:23:16.437500,-14.35,98.63
73743,2018-06-29 09:23:16.468750,-25.98,98.63
73744,2018-06-29 09:23:16.500000,-35.99,98.63
73745,2018-06-29 09:23:16.531250,-46.94,98.53
73746,2018-06-29 09:23:16.562500,-61.77,98.53
73747,2018-06-29 09:23:16.593750,-77.76,98.53
73748,2018-06-29 09:23:16.625000,-88.71,98.53
73749,2018-06-29 09:23:16.656250,-93.5,98.53
73750,2018-06-29 09:23:16.687500,-98.93,98.53
73751,2018-06-29 09:23:16.718750,-113.23,98.53
73752,2018-06-29 09:23:16.750000,-131.38,98.53
73753,2018-06-29 09:23:16.781250,-128.74,98.53
73754,2018-06-29 09:23:16.812500,-81.3,98.53
73755,2018-06-29 09:23:16.843750,3.27,98.53
73756,2018-06-29 09:23:16.875000,88.72,98.53
73757,2018-06-29 09:23:16.906250,145.83,98.53
73758,2018-06-29 09:23:16.937500,171.97,98.53
73759,2018-06-29 09:23:16.968750,176.67,98.53
73760,2018-06-29 09:23:17.000000,167.1,98.53
73761,2018-06-29 09:23:17.031250,150.52,98.53
73762,2018-06-29 09:23:17.062500,133.4,98.53
73763,2018-06-29 09:23:17.093750,117.57,98.53
73764,2018-06-29 09:23:17.125000,104.17,98.53
73765,2018-06-29 09:23:17.156250,97.39,98.53
73766,2018-06-29 09:23:17.187500,97.23,98.53
73767,2018-06-29 09:23:17.218750,95.17,98.53
73768,2018-06-29 09:23:17.250000,83.63,98.53
73769,2018-06-29 09:23:17.281250,65.98,98.53
73770,2018-06-29 09:23:17.312500,50.24,98.53
73771,2018-06-29 09:23:17.343750,35.86,98.53
73772,2018-06-29 09:23:17.375000,12.75,98.53
73773,2018-06-29 09:23:17.406250,-27.26,98.53
73774,2018-06-29 09:23:17.437500,-76.08,98.53
73775,2018-06-29 09:23:17.468750,-103.5,98.53
73776,2018-06-29 09:23:17.500000,-80.52,98.53
73777,2018-06-29 09:23:17.531250,-15.84,98.45
73778,2018-06-29 09:23:17.562500,50.75,98.45
73779,2018-06-29 09:23:17.593750,91.31,98.45
73780,2018-06-29 09:23:17.625000,105.7,98.45
73781,2018-06-29 09:23:17.656250,101.85,98.45
73782,2018-06-29 09:23:17.687500,86.23,98.45
73783,2018-06-29 09:23:17.718750,68.08,98.45
73784,2018-06-29 09:23:17.750000,56.1,98.45
73785,2018-06-29 09:23:17.781250,51.57,98.45
73786,2018-06-29 09:23:17.812500,50.25,98.45
73787,2018-06-29 09:23:17.843750,48.15,98.45
73788,2018-06-29 09:23:17.875000,41.73,98.45
73789,2018-06-29 09:23:17.906250,27.8,98.45
73790,2018-06-29 09:23:17.937500,8.69,98.45
73791,2018-06-29 09:23:17.968750,-8.32,98.45
73792,2018-06-29 09:23:18.000000,-21.02,98.45
73793,2018-06-29 09:23:18.031250,-36.95,98.45
73794,2018-06-29 09:23:18.062500,-63.99,98.45
73795,2018-06-29 09:23:18.093750,-91.77,98.45
73796,2018-06-29 09:23:18.125000,-88.38,98.45
73797,2018-06-29 09:23:18.156250,-33.97,98.45
73798,2018-06-29 09:23:18.187500,46.93,98.45
73799,2018-06-29 09:23:18.218750,109.62,98.45
73800,2018-06-29 09:23:18.250000,135.33,98.45
73801,2018-06-29 09:23:18.281250,130.68,98.45
73802,2018-06-29 09:23:18.312500,106.61,98.45
73803,2018-06-29 09:23:18.343750,76.44,98.45
73804,2018-06-29 09:23:18.375000,51.73,98.45
73805,2018-06-29 09:23:18.406250,32.29,98.45
73806,2018-06-29 09:23:18.437500,13.61,98.45
73807,2018-06-29 09:23:18.468750,-1.75,98.45
73808,2018-06-29 09:23:18.500000,-10.15,98.45
73809,2018-06-29 09:23:18.531250,-16.51,98.37
73810,2018-06-29 09:23:18.562500,-29.68,98.37
73811,2018-06-29 09:23:18.593750,-51.35,98.37
73812,2018-06-29 09:23:18.625000,-73.52,98.37
73813,2018-06-29 09:23:18.656250,-88.19,98.37
73814,2018-06-29 09:23:18.687500,-100.07,98.37
73815,2018-06-29 09:23:18.718750,-123.37,98.37
73816,2018-06-29 09:23:18.750000,-158.26,98.37
73817,2018-06-29 09:23:18.781250,-177.41,98.37
73818,2018-06-29 09:23:18.812500,-149.49,98.37
73819,2018-06-29 09:23:18.843750,-73.19,98.37
73820,2018-06-29 09:23:18.875000,23.02,98.37
73821,2018-06-29 09:23:18.906250,106.03,98.37
73822,2018-06-29 09:23:18.937500,156.91,98.37
73823,2018-06-29 09:23:18.968750,172.94,98.37
73824,2018-06-29 09:23:19.000000,163.51,98.37
73825,2018-06-29 09:23:19.031250,143.33,98.37
73826,2018-06-29 09:23:19.062500,125.21,98.37
73827,2018-06-29 09:23:19.093750,111.44,98.37
73828,2018-06-29 09:23:19.125000,97.33,98.37
73829,2018-06-29 09:23:19.156250,83.13,98.37
73830,2018-06-29 09:23:19.187500,74.06,98.37
73831,2018-06-29 09:23:19.218750,68.71,98.37
73832,2018-06-29 09:23:19.250000,59.38,98.37
73833,2018-06-29 09:23:19.281250,43.96,98.37
73834,2018-06-29 09:23:19.312500,28.85,98.37
73835,2018-06-29 09:23:19.343750,17.18,98.37
73836,2018-06-29 09:23:19.375000,4.34,98.37
73837,2018-06-29 09:23:19.406250,-15.7,98.37
73838,2018-06-29 09:23:19.437500,-45.1,98.37
73839,2018-06-29 09:23:19.468750,-72.66,98.37
73840,2018-06-29 09:23:19.500000,-68.9,98.37
73841,2018-06-29 09:23:19.531250,-7.79,98.33
73842,2018-06-29 09:23:19.562500,94.64,98.33
73843,2018-06-29 09:23:19.593750,187.82,98.33
73844,2018-06-29 09:23:19.625000,236.83,98.33
73845,2018-06-29 09:23:19.656250,240.65,98.33
73846,2018-06-29 09:23:19.687500,209.84,98.33
73847,2018-06-29 09:23:19.718750,157.35,98.33
73848,2018-06-29 09:23:19.750000,103.76,98.33
73849,2018-06-29 09:23:19.781250,66.41,98.33
73850,2018-06-29 09:23:19.812500,42.4,98.33
73851,2018-06-29 09:23:19.843750,16.02,98.33
73852,2018-06-29 09:23:19.875000,-19.87,98.33
73853,2018-06-29 09:23:19.906250,-56.28,98.33
73854,2018-06-29 09:23:19.937500,-81.18,98.33
73855,2018-06-29 09:23:19.968750,-91.41,98.33
73856,2018-06-29 09:23:20.000000,-90.08,98.33
73857,2018-06-29 09:23:20.031250,-85.96,98.33
73858,2018-06-29 09:23:20.062500,-91.58,98.33
73859,2018-06-29 09:23:20.093750,-110.3,98.33
73860,2018-06-29 09:23:20.125000,-133.98,98.33
73861,2018-06-29 09:23:20.156250,-161.62,98.33
73862,2018-06-29 09:23:20.187500,-208.25,98.33
73863,2018-06-29 09:23:20.218750,-272.57,98.33
73864,2018-06-29 09:23:20.250000,-306.52,98.33
73865,2018-06-29 09:23:20.281250,-256.41,98.33
73866,2018-06-29 09:23:20.312500,-132.65,98.33
73867,2018-06-29 09:23:20.343750,5.25,98.33
73868,2018-06-29 09:23:20.375000,117.88,98.33
73869,2018-06-29 09:23:20.406250,193.92,98.33
73870,2018-06-29 09:23:20.437500,219.83,98.33
73871,2018-06-29 09:23:20.468750,193.36,98.33
73872,2018-06-29 09:23:20.500000,141.2,98.33
73873,2018-06-29 09:23:20.531250,88.93,98.25
73874,2018-06-29 09:23:20.562500,36.2,98.25
73875,2018-06-29 09:23:20.593750,-25.66,98.25
73876,2018-06-29 09:23:20.625000,-89.41,98.25
73877,2018-06-29 09:23:20.656250,-142.22,98.25
73878,2018-06-29 09:23:20.687500,-184.39,98.25
73879,2018-06-29 09:23:20.718750,-219.66,98.25
73880,2018-06-29 09:23:20.750000,-243.99,98.25
73881,2018-06-29 09:23:20.781250,-257.51,98.25
73882,2018-06-29 09:23:20.812500,-267.06,98.25
73883,2018-06-29 09:23:20.843750,-268.54,98.25
73884,2018-06-29 09:23:20.875000,-241.82,98.25
73885,2018-06-29 09:23:20.906250,-174.85,98.25
73886,2018-06-29 09:23:20.937500,-85.23,98.25
73887,2018-06-29 09:23:20.968750,-7.83,98.25
73888,2018-06-29 09:23:21.000000,41.84,98.25
73889,2018-06-29 09:23:21.031250,76.71,98.25
73890,2018-06-29 09:23:21.062500,104.19,98.25
73891,2018-06-29 09:23:21.093750,113.9,98.25
73892,2018-06-29 09:23:21.125000,115.82,98.25
73893,2018-06-29 09:23:21.156250,135.45,98.25
73894,2018-06-29 09:23:21.187500,164.01,98.25
73895,2018-06-29 09:23:21.218750,168.77,98.25
73896,2018-06-29 09:23:21.250000,144.08,98.25
73897,2018-06-29 09:23:21.281250,115.6,98.25
73898,2018-06-29 09:23:21.312500,109.18,98.25
73899,2018-06-29 09:23:21.343750,125.8,98.25
73900,2018-06-29 09:23:21.375000,130.29,98.25
73901,2018-06-29 09:23:21.406250,79.75,98.25
73902,2018-06-29 09:23:21.437500,-27.45,98.25
73903,2018-06-29 09:23:21.468750,-144.95,98.25
73904,2018-06-29 09:23:21.500000,-198.71,98.25
73905,2018-06-29 09:23:21.531250,-137.53,98.17
73906,2018-06-29 09:23:21.562500,-1.13,98.17
73907,2018-06-29 09:23:21.593750,105.62,98.17
73908,2018-06-29 09:23:21.625000,123.2,98.17
73909,2018-06-29 09:23:21.656250,73.12,98.17
73910,2018-06-29 09:23:21.687500,-5.14,98.17
73911,2018-06-29 09:23:21.718750,-93.81,98.17
73912,2018-06-29 09:23:21.750000,-192.54,98.17
73913,2018-06-29 09:23:21.781250,-303.22,98.17
73914,2018-06-29 09:23:21.812500,-406.54,98.17
73915,2018-06-29 09:23:21.843750,-461.87,98.17
73916,2018-06-29 09:23:21.875000,-443.56,98.17
73917,2018-06-29 09:23:21.906250,-366.51,98.17
73918,2018-06-29 09:23:21.937500,-270.16,98.17
73919,2018-06-29 09:23:21.968750,-186.9,98.17
73920,2018-06-29 09:23:22.000000,-125.14,98.17
73921,2018-06-29 09:23:22.031250,-76.7,98.17
73922,2018-06-29 09:23:22.062500,-39.77,98.17
73923,2018-06-29 09:23:22.093750,-25.72,98.17
73924,2018-06-29 09:23:22.125000,-38.83,98.17
73925,2018-06-29 09:23:22.156250,-63.89,98.17
73926,2018-06-29 09:23:22.187500,-82.86,98.17
73927,2018-06-29 09:23:22.218750,-91.75,98.17
73928,2018-06-29 09:23:22.250000,-94.55,98.17
73929,2018-06-29 09:23:22.281250,-91.91,98.17
73930,2018-06-29 09:23:22.312500,-83.09,98.17
73931,2018-06-29 09:23:22.343750,-71.63,98.17
73932,2018-06-29 09:23:22.375000,-60.42,98.17
73933,2018-06-29 09:23:22.406250,-47.6,98.17
73934,2018-06-29 09:23:22.437500,-32.0,98.17
73935,2018-06-29 09:23:22.468750,-15.2,98.17
73936,2018-06-29 09:23:22.500000,6.16,98.17
73937,2018-06-29 09:23:22.531250,26.74,98.08
73938,2018-06-29 09:23:22.562500,22.6,98.08
73939,2018-06-29 09:23:22.593750,-6.2,98.08
73940,2018-06-29 09:23:22.625000,-21.3,98.08
73941,2018-06-29 09:23:22.656250,-12.64,98.08
73942,2018-06-29 09:23:22.687500,-18.82,98.08
73943,2018-06-29 09:23:22.718750,-49.93,98.08
73944,2018-06-29 09:23:22.750000,-64.08,98.08
73945,2018-06-29 09:23:22.781250,-37.5,98.08
73946,2018-06-29 09:23:22.812500,8.93,98.08
73947,2018-06-29 09:23:22.843750,52.63,98.08
73948,2018-06-29 09:23:22.875000,91.01,98.08
73949,2018-06-29 09:23:22.906250,117.9,98.08
73950,2018-06-29 09:23:22.937500,125.47,98.08
73951,2018-06-29 09:23:22.968750,124.38,98.08
73952,2018-06-29 09:23:23.000000,126.96,98.08
73953,2018-06-29 09:23:23.031250,127.15,98.08
73954,2018-06-29 09:23:23.062500,115.6,98.08
73955,2018-06-29 09:23:23.093750,102.99,98.08
73956,2018-06-29 09:23:23.125000,100.25,98.08
73957,2018-06-29 09:23:23.156250,94.65,98.08
73958,2018-06-29 09:23:23.187500,78.23,98.08
73959,2018-06-29 09:23:23.218750,66.18,98.08
73960,2018-06-29 09:23:23.250000,62.05,98.08
73961,2018-06-29 09:23:23.281250,45.56,98.08
73962,2018-06-29 09:23:23.312500,17.45,98.08
73963,2018-06-29 09:23:23.343750,4.48,98.08
73964,2018-06-29 09:23:23.375000,7.95,98.08
73965,2018-06-29 09:23:23.406250,10.97,98.08
73966,2018-06-29 09:23:23.437500,8.02,98.08
73967,2018-06-29 09:23:23.468750,-4.13,98.08
73968,2018-06-29 09:23:23.500000,-25.6,98.08
73969,2018-06-29 09:23:23.531250,-38.7,97.9
73970,2018-06-29 09:23:23.562500,-24.77,97.9
73971,2018-06-29 09:23:23.593750,14.38,97.9
73972,2018-06-29 09:23:23.625000,67.64,97.9
73973,2018-06-29 09:23:23.656250,122.92,97.9
73974,2018-06-29 09:23:23.687500,161.63,97.9
73975,2018-06-29 09:23:23.718750,171.58,97.9
73976,2018-06-29 09:23:23.750000,159.32,97.9
73977,2018-06-29 09:23:23.781250,138.16,97.9
73978,2018-06-29 09:23:23.812500,116.38,97.9
73979,2018-06-29 09:23:23.843750,100.47,97.9
73980,2018-06-29 09:23:23.875000,94.96,97.9
73981,2018-06-29 09:23:23.906250,98.09,97.9
73982,2018-06-29 09:23:23.937500,104.19,97.9
73983,2018-06-29 09:23:23.968750,109.25,97.9
73984,2018-06-29 09:23:24.000000,118.35,97.9
73985,2018-06-29 09:23:24.031250,134.58,97.9
73986,2018-06-29 09:23:24.062500,141.42,97.9
73987,2018-06-29 09:23:24.093750,124.2,97.9
73988,2018-06-29 09:23:24.125000,99.87,97.9
73989,2018-06-29 09:23:24.156250,92.89,97.9
73990,2018-06-29 09:23:24.187500,97.3,97.9
73991,2018-06-29 09:23:24.218750,94.7,97.9
73992,2018-06-29 09:23:24.250000,81.31,97.9
73993,2018-06-29 09:23:24.281250,49.03,97.9
73994,2018-06-29 09:23:24.312500,-21.27,97.9
73995,2018-06-29 09:23:24.343750,-125.09,97.9
73996,2018-06-29 09:23:24.375000,-220.75,97.9
73997,2018-06-29 09:23:24.406250,-260.55,97.9
73998,2018-06-29 09:23:24.437500,-226.16,97.9
73999,2018-06-29 09:23:24.468750,-142.84,97.9
74000,2018-06-29 09:23:24.500000,-61.43,97.9
74001,2018-06-29 09:23:24.531250,-10.45,97.7
74002,2018-06-29 09:23:24.562500,21.54,97.7
74003,2018-06-29 09:23:24.593750,46.78,97.7
74004,2018-06-29 09:23:24.625000,58.45,97.7
74005,2018-06-29 09:23:24.656250,55.36,97.7
74006,2018-06-29 09:23:24.687500,47.37,97.7
74007,2018-06-29 09:23:24.718750,35.26,97.7
74008,2018-06-29 09:23:24.750000,13.1,97.7
74009,2018-06-29 09:23:24.781250,-16.04,97.7
74010,2018-06-29 09:23:24.812500,-45.87,97.7
74011,2018-06-29 09:23:24.843750,-77.39,97.7
74012,2018-06-29 09:23:24.875000,-108.6,97.7
74013,2018-06-29 09:23:24.906250,-125.2,97.7
74014,2018-06-29 09:23:24.937500,-110.58,97.7
74015,2018-06-29 09:23:24.968750,-59.97,97.7
74016,2018-06-29 09:23:25.000000,16.26,97.7
74017,2018-06-29 09:23:25.031250,97.53,97.7
74018,2018-06-29 09:23:25.062500,161.73,97.7
74019,2018-06-29 09:23:25.093750,193.82,97.7
74020,2018-06-29 09:23:25.125000,189.38,97.7
74021,2018-06-29 09:23:25.156250,154.83,97.7
74022,2018-06-29 09:23:25.187500,106.68,97.7
74023,2018-06-29 09:23:25.218750,63.25,97.7
74024,2018-06-29 09:23:25.250000,30.52,97.7
74025,2018-06-29 09:23:25.281250,0.44,97.7
74026,2018-06-29 09:23:25.312500,-36.84,97.7
74027,2018-06-29 09:23:25.343750,-84.68,97.7
74028,2018-06-29 09:23:25.375000,-141.29,97.7
74029,2018-06-29 09:23:25.406250,-207.04,97.7
74030,2018-06-29 09:23:25.437500,-283.78,97.7
74031,2018-06-29 09:23:25.468750,-349.76,97.7
74032,2018-06-29 09:23:25.500000,-354.35,97.7
74033,2018-06-29 09:23:25.531250,-274.4,97.48
74034,2018-06-29 09:23:25.562500,-148.01,97.48
74035,2018-06-29 09:23:25.593750,-25.35,97.48
74036,2018-06-29 09:23:25.625000,73.62,97.48
74037,2018-06-29 09:23:25.656250,138.32,97.48
74038,2018-06-29 09:23:25.687500,158.62,97.48
74039,2018-06-29 09:23:25.718750,146.04,97.48
74040,2018-06-29 09:23:25.750000,126.69,97.48
74041,2018-06-29 09:23:25.781250,113.08,97.48
74042,2018-06-29 09:23:25.812500,101.05,97.48
74043,2018-06-29 09:23:25.843750,86.85,97.48
74044,2018-06-29 09:23:25.875000,74.31,97.48
74045,2018-06-29 09:23:25.906250,67.32,97.48
74046,2018-06-29 09:23:25.937500,62.75,97.48
74047,2018-06-29 09:23:25.968750,55.14,97.48
74048,2018-06-29 09:23:26.000000,43.63,97.48
74049,2018-06-29 09:23:26.031250,33.28,97.48
74050,2018-06-29 09:23:26.062500,35.39,97.48
74051,2018-06-29 09:23:26.093750,61.08,97.48
74052,2018-06-29 09:23:26.125000,105.84,97.48
74053,2018-06-29 09:23:26.156250,146.6,97.48
74054,2018-06-29 09:23:26.187500,161.61,97.48
74055,2018-06-29 09:23:26.218750,149.14,97.48
74056,2018-06-29 09:23:26.250000,124.06,97.48
74057,2018-06-29 09:23:26.281250,101.97,97.48
74058,2018-06-29 09:23:26.312500,89.87,97.48
74059,2018-06-29 09:23:26.343750,84.62,97.48
74060,2018-06-29 09:23:26.375000,74.03,97.48
74061,2018-06-29 09:23:26.406250,42.61,97.48
74062,2018-06-29 09:23:26.437500,-16.03,97.48
74063,2018-06-29 09:23:26.468750,-93.14,97.48
74064,2018-06-29 09:23:26.500000,-172.29,97.48
74065,2018-06-29 09:23:26.531250,-234.49,97.32
74066,2018-06-29 09:23:26.562500,-259.53,97.32
74067,2018-06-29 09:23:26.593750,-237.44,97.32
74068,2018-06-29 09:23:26.625000,-178.32,97.32
74069,2018-06-29 09:23:26.656250,-104.62,97.32
74070,2018-06-29 09:23:26.687500,-37.25,97.32
74071,2018-06-29 09:23:26.718750,10.48,97.32
74072,2018-06-29 09:23:26.750000,37.32,97.32
74073,2018-06-29 09:23:26.781250,52.41,97.32
74074,2018-06-29 09:23:26.812500,61.26,97.32
74075,2018-06-29 09:23:26.843750,60.32,97.32
74076,2018-06-29 09:23:26.875000,50.27,97.32
74077,2018-06-29 09:23:26.906250,41.36,97.32
74078,2018-06-29 09:23:26.937500,38.55,97.32
74079,2018-06-29 09:23:26.968750,32.7,97.32
74080,2018-06-29 09:23:27.000000,12.18,97.32
74081,2018-06-29 09:23:27.031250,-21.94,97.32
74082,2018-06-29 09:23:27.062500,-51.87,97.32
74083,2018-06-29 09:23:27.093750,-55.57,97.32
74084,2018-06-29 09:23:27.125000,-33.96,97.32
74085,2018-06-29 09:23:27.156250,-13.64,97.32
74086,2018-06-29 09:23:27.187500,-11.23,97.32
74087,2018-06-29 09:23:27.218750,-20.61,97.32
74088,2018-06-29 09:23:27.250000,-43.66,97.32
74089,2018-06-29 09:23:27.281250,-99.39,97.32
74090,2018-06-29 09:23:27.312500,-188.68,97.32
74091,2018-06-29 09:23:27.343750,-269.83,97.32
74092,2018-06-29 09:23:27.375000,-285.66,97.32
74093,2018-06-29 09:23:27.406250,-220.05,97.32
74094,2018-06-29 09:23:27.437500,-116.89,97.32
74095,2018-06-29 09:23:27.468750,-30.26,97.32
74096,2018-06-29 09:23:27.500000,23.66,97.32
74097,2018-06-29 09:23:27.531250,52.08,97.17
74098,2018-06-29 09:23:27.562500,60.73,97.17
74099,2018-06-29 09:23:27.593750,62.91,97.17
74100,2018-06-29 09:23:27.625000,81.74,97.17
74101,2018-06-29 09:23:27.656250,125.53,97.17
74102,2018-06-29 09:23:27.687500,176.71,97.17
74103,2018-06-29 09:23:27.718750,214.71,97.17
74104,2018-06-29 09:23:27.750000,238.41,97.17
74105,2018-06-29 09:23:27.781250,257.35,97.17
74106,2018-06-29 09:23:27.812500,273.46,97.17
74107,2018-06-29 09:23:27.843750,281.48,97.17
74108,2018-06-29 09:23:27.875000,276.39,97.17
74109,2018-06-29 09:23:27.906250,251.84,97.17
74110,2018-06-29 09:23:27.937500,202.65,97.17
74111,2018-06-29 09:23:27.968750,135.06,97.17
74112,2018-06-29 09:23:28.000000,62.84,97.17
74113,2018-06-29 09:23:28.031250,-7.38,97.17
74114,2018-06-29 09:23:28.062500,-73.05,97.17
74115,2018-06-29 09:23:28.093750,-121.61,97.17
74116,2018-06-29 09:23:28.125000,-136.9,97.17
74117,2018-06-29 09:23:28.156250,-120.85,97.17
74118,2018-06-29 09:23:28.187500,-93.32,97.17
74119,2018-06-29 09:23:28.218750,-70.41,97.17
74120,2018-06-29 09:23:28.250000,-56.25,97.17
74121,2018-06-29 09:23:28.281250,-52.64,97.17
74122,2018-06-29 09:23:28.312500,-60.12,97.17
74123,2018-06-29 09:23:28.343750,-72.19,97.17
74124,2018-06-29 09:23:28.375000,-82.46,97.17
74125,2018-06-29 09:23:28.406250,-92.81,97.17
74126,2018-06-29 09:23:28.437500,-106.17,97.17
74127,2018-06-29 09:23:28.468750,-119.81,97.17
74128,2018-06-29 09:23:28.500000,-131.03,97.17
74129,2018-06-29 09:23:28.531250,-143.6,97.03
74130,2018-06-29 09:23:28.562500,-164.06,97.03
74131,2018-06-29 09:23:28.593750,-188.54,97.03
74132,2018-06-29 09:23:28.625000,-198.12,97.03
74133,2018-06-29 09:23:28.656250,-176.81,97.03
74134,2018-06-29 09:23:28.687500,-128.21,97.03
74135,2018-06-29 09:23:28.718750,-67.94,97.03
74136,2018-06-29 09:23:28.750000,-11.09,97.03
74137,2018-06-29 09:23:28.781250,26.16,97.03
74138,2018-06-29 09:23:28.812500,30.46,97.03
74139,2018-06-29 09:23:28.843750,4.64,97.03
74140,2018-06-29 09:23:28.875000,-34.81,97.03
74141,2018-06-29 09:23:28.906250,-76.14,97.03
74142,2018-06-29 09:23:28.937500,-119.06,97.03
74143,2018-06-29 09:23:28.968750,-160.97,97.03
74144,2018-06-29 09:23:29.000000,-185.86,97.03
74145,2018-06-29 09:23:29.031250,-175.24,97.03
74146,2018-06-29 09:23:29.062500,-128.91,97.03
74147,2018-06-29 09:23:29.093750,-68.39,97.03
74148,2018-06-29 09:23:29.125000,-16.71,97.03
74149,2018-06-29 09:23:29.156250,22.01,97.03
74150,2018-06-29 09:23:29.187500,58.52,97.03
74151,2018-06-29 09:23:29.218750,97.92,97.03
74152,2018-06-29 09:23:29.250000,133.69,97.03
74153,2018-06-29 09:23:29.281250,160.86,97.03
74154,2018-06-29 09:23:29.312500,181.56,97.03
74155,2018-06-29 09:23:29.343750,197.32,97.03
74156,2018-06-29 09:23:29.375000,206.62,97.03
74157,2018-06-29 09:23:29.406250,210.43,97.03
74158,2018-06-29 09:23:29.437500,213.23,97.03
74159,2018-06-29 09:23:29.468750,217.54,97.03
74160,2018-06-29 09:23:29.500000,217.29,97.03
74161,2018-06-29 09:23:29.531250,196.73,96.9
74162,2018-06-29 09:23:29.562500,142.34,96.9
74163,2018-06-29 09:23:29.593750,61.32,96.9
74164,2018-06-29 09:23:29.625000,-15.36,96.9
74165,2018-06-29 09:23:29.656250,-54.49,96.9
74166,2018-06-29 09:23:29.687500,-47.01,96.9
74167,2018-06-29 09:23:29.718750,-12.04,96.9
74168,2018-06-29 09:23:29.750000,23.14,96.9
74169,2018-06-29 09:23:29.781250,42.36,96.9
74170,2018-06-29 09:23:29.812500,41.92,96.9
74171,2018-06-29 09:23:29.843750,23.37,96.9
74172,2018-06-29 09:23:29.875000,-8.76,96.9
74173,2018-06-29 09:23:29.906250,-45.46,96.9
74174,2018-06-29 09:23:29.937500,-75.09,96.9
74175,2018-06-29 09:23:29.968750,-89.91,96.9
74176,2018-06-29 09:23:30.000000,-90.95,96.9
74177,2018-06-29 09:23:30.031250,-85.45,96.9
74178,2018-06-29 09:23:30.062500,-83.2,96.9
74179,2018-06-29 09:23:30.093750,-94.03,96.9
74180,2018-06-29 09:23:30.125000,-118.21,96.9
74181,2018-06-29 09:23:30.156250,-136.46,96.9
74182,2018-06-29 09:23:30.187500,-123.64,96.9
74183,2018-06-29 09:23:30.218750,-76.03,96.9
74184,2018-06-29 09:23:30.250000,-15.1,96.9
74185,2018-06-29 09:23:30.281250,32.67,96.9
74186,2018-06-29 09:23:30.312500,50.79,96.9
74187,2018-06-29 09:23:30.343750,36.5,96.9
74188,2018-06-29 09:23:30.375000,-0.88,96.9
74189,2018-06-29 09:23:30.406250,-48.71,96.9
74190,2018-06-29 09:23:30.437500,-98.24,96.9
74191,2018-06-29 09:23:30.468750,-141.97,96.9
74192,2018-06-29 09:23:30.500000,-171.15,96.9
74193,2018-06-29 09:23:30.531250,-178.89,96.85
74194,2018-06-29 09:23:30.562500,-163.49,96.85
74195,2018-06-29 09:23:30.593750,-130.89,96.85
74196,2018-06-29 09:23:30.625000,-89.35,96.85
74197,2018-06-29 09:23:30.656250,-35.02,96.85
74198,2018-06-29 09:23:30.687500,46.49,96.85
74199,2018-06-29 09:23:30.718750,154.29,96.85
74200,2018-06-29 09:23:30.750000,259.53,96.85
74201,2018-06-29 09:23:30.781250,329.7,96.85
74202,2018-06-29 09:23:30.812500,356.05,96.85
74203,2018-06-29 09:23:30.843750,349.66,96.85
74204,2018-06-29 09:23:30.875000,323.04,96.85
74205,2018-06-29 09:23:30.906250,284.23,96.85
74206,2018-06-29 09:23:30.937500,238.98,96.85
74207,2018-06-29 09:23:30.968750,190.6,96.85
74208,2018-06-29 09:23:31.000000,140.75,96.85
74209,2018-06-29 09:23:31.031250,92.9,96.85
74210,2018-06-29 09:23:31.062500,47.84,96.85
74211,2018-06-29 09:23:31.093750,-1.91,96.85
74212,2018-06-29 09:23:31.125000,-62.96,96.85
74213,2018-06-29 09:23:31.156250,-124.46,96.85
74214,2018-06-29 09:23:31.187500,-160.86,96.85
74215,2018-06-29 09:23:31.218750,-157.01,96.85
74216,2018-06-29 09:23:31.250000,-126.53,96.85
74217,2018-06-29 09:23:31.281250,-99.19,96.85
74218,2018-06-29 09:23:31.312500,-92.65,96.85
74219,2018-06-29 09:23:31.343750,-102.53,96.85
74220,2018-06-29 09:23:31.375000,-115.19,96.85
74221,2018-06-29 09:23:31.406250,-124.19,96.85
74222,2018-06-29 09:23:31.437500,-133.64,96.85
74223,2018-06-29 09:23:31.468750,-146.2,96.85
74224,2018-06-29 09:23:31.500000,-153.23,96.85
74225,2018-06-29 09:23:31.531250,-143.77,96.72
74226,2018-06-29 09:23:31.562500,-119.18,96.72
74227,2018-06-29 09:23:31.593750,-92.56,96.72
74228,2018-06-29 09:23:31.625000,-77.42,96.72
74229,2018-06-29 09:23:31.656250,-74.72,96.72
74230,2018-06-29 09:23:31.687500,-66.16,96.72
74231,2018-06-29 09:23:31.718750,-31.7,96.72
74232,2018-06-29 09:23:31.750000,24.09,96.72
74233,2018-06-29 09:23:31.781250,75.48,96.72
74234,2018-06-29 09:23:31.812500,102.28,96.72
74235,2018-06-29 09:23:31.843750,102.58,96.72
74236,2018-06-29 09:23:31.875000,84.03,96.72
74237,2018-06-29 09:23:31.906250,53.68,96.72
74238,2018-06-29 09:23:31.937500,16.78,96.72
74239,2018-06-29 09:23:31.968750,-19.83,96.72
74240,2018-06-29 09:23:32.000000,-48.41,96.72
74241,2018-06-29 09:23:32.031250,-63.35,96.72
74242,2018-06-29 09:23:32.062500,-59.32,96.72
74243,2018-06-29 09:23:32.093750,-33.24,96.72
74244,2018-06-29 09:23:32.125000,7.04,96.72
74245,2018-06-29 09:23:32.156250,47.91,96.72
74246,2018-06-29 09:23:32.187500,86.61,96.72
74247,2018-06-29 09:23:32.218750,129.28,96.72
74248,2018-06-29 09:23:32.250000,173.29,96.72
74249,2018-06-29 09:23:32.281250,206.36,96.72
74250,2018-06-29 09:23:32.312500,221.23,96.72
74251,2018-06-29 09:23:32.343750,219.58,96.72
74252,2018-06-29 09:23:32.375000,203.1,96.72
74253,2018-06-29 09:23:32.406250,171.01,96.72
74254,2018-06-29 09:23:32.437500,127.74,96.72
74255,2018-06-29 09:23:32.468750,86.8,96.72
74256,2018-06-29 09:23:32.500000,59.32,96.72
74257,2018-06-29 09:23:32.531250,41.47,96.57
74258,2018-06-29 09:23:32.562500,20.31,96.57
74259,2018-06-29 09:23:32.593750,-11.29,96.57
74260,2018-06-29 09:23:32.625000,-52.08,96.57
74261,2018-06-29 09:23:32.656250,-96.64,96.57
74262,2018-06-29 09:23:32.687500,-131.27,96.57
74263,2018-06-29 09:23:32.718750,-136.98,96.57
74264,2018-06-29 09:23:32.750000,-110.49,96.57
74265,2018-06-29 09:23:32.781250,-72.73,96.57
74266,2018-06-29 09:23:32.812500,-46.8,96.57
74267,2018-06-29 09:23:32.843750,-36.54,96.57
74268,2018-06-29 09:23:32.875000,-33.11,96.57
74269,2018-06-29 09:23:32.906250,-30.85,96.57
74270,2018-06-29 09:23:32.937500,-30.47,96.57
74271,2018-06-29 09:23:32.968750,-34.56,96.57
74272,2018-06-29 09:23:33.000000,-43.82,96.57
74273,2018-06-29 09:23:33.031250,-57.34,96.57
74274,2018-06-29 09:23:33.062500,-74.05,96.57
74275,2018-06-29 09:23:33.093750,-92.54,96.57
74276,2018-06-29 09:23:33.125000,-113.12,96.57
74277,2018-06-29 09:23:33.156250,-139.46,96.57
74278,2018-06-29 09:23:33.187500,-164.97,96.57
74279,2018-06-29 09:23:33.218750,-164.25,96.57
74280,2018-06-29 09:23:33.250000,-121.73,96.57
74281,2018-06-29 09:23:33.281250,-58.78,96.57
74282,2018-06-29 09:23:33.312500,-7.57,96.57
74283,2018-06-29 09:23:33.343750,26.84,96.57
74284,2018-06-29 09:23:33.375000,56.6,96.57
74285,2018-06-29 09:23:33.406250,84.45,96.57
74286,2018-06-29 09:23:33.437500,106.19,96.57
74287,2018-06-29 09:23:33.468750,123.67,96.57
74288,2018-06-29 09:23:33.500000,141.88,96.57
74289,2018-06-29 09:23:33.531250,161.86,96.37
74290,2018-06-29 09:23:33.562500,179.86,96.37
74291,2018-06-29 09:23:33.593750,188.72,96.37
74292,2018-06-29 09:23:33.625000,180.28,96.37
74293,2018-06-29 09:23:33.656250,152.4,96.37
74294,2018-06-29 09:23:33.687500,117.19,96.37
74295,2018-06-29 09:23:33.718750,95.26,96.37
74296,2018-06-29 09:23:33.750000,94.4,96.37
74297,2018-06-29 09:23:33.781250,102.18,96.37
74298,2018-06-29 09:23:33.812500,103.69,96.37
74299,2018-06-29 09:23:33.843750,94.78,96.37
74300,2018-06-29 09:23:33.875000,74.27,96.37
74301,2018-06-29 09:23:33.906250,39.13,96.37
74302,2018-06-29 09:23:33.937500,-7.64,96.37
74303,2018-06-29 09:23:33.968750,-56.62,96.37
74304,2018-06-29 09:23:34.000000,-100.92,96.37
74305,2018-06-29 09:23:34.031250,-139.52,96.37
74306,2018-06-29 09:23:34.062500,-171.8,96.37
74307,2018-06-29 09:23:34.093750,-196.62,96.37
74308,2018-06-29 09:23:34.125000,-218.33,96.37
74309,2018-06-29 09:23:34.156250,-246.81,96.37
74310,2018-06-29 09:23:34.187500,-281.02,96.37
74311,2018-06-29 09:23:34.218750,-295.71,96.37
74312,2018-06-29 09:23:34.250000,-260.23,96.37
74313,2018-06-29 09:23:34.281250,-174.45,96.37
74314,2018-06-29 09:23:34.312500,-72.36,96.37
74315,2018-06-29 09:23:34.343750,11.99,96.37
74316,2018-06-29 09:23:34.375000,66.51,96.37
74317,2018-06-29 09:23:34.406250,91.1,96.37
74318,2018-06-29 09:23:34.437500,86.73,96.37
74319,2018-06-29 09:23:34.468750,58.43,96.37
74320,2018-06-29 09:23:34.500000,17.29,96.37
74321,2018-06-29 09:23:34.531250,-26.8,96.15
74322,2018-06-29 09:23:34.562500,-68.55,96.15
74323,2018-06-29 09:23:34.593750,-102.08,96.15
74324,2018-06-29 09:23:34.625000,-119.91,96.15
74325,2018-06-29 09:23:34.656250,-120.62,96.15
74326,2018-06-29 09:23:34.687500,-104.88,96.15
74327,2018-06-29 09:23:34.718750,-60.91,96.15
74328,2018-06-29 09:23:34.750000,22.94,96.15
74329,2018-06-29 09:23:34.781250,129.48,96.15
74330,2018-06-29 09:23:34.812500,221.39,96.15
74331,2018-06-29 09:23:34.843750,276.22,96.15
74332,2018-06-29 09:23:34.875000,292.97,96.15
74333,2018-06-29 09:23:34.906250,278.27,96.15
74334,2018-06-29 09:23:34.937500,243.29,96.15
74335,2018-06-29 09:23:34.968750,200.4,96.15
74336,2018-06-29 09:23:35.000000,156.54,96.15
74337,2018-06-29 09:23:35.031250,112.72,96.15
74338,2018-06-29 09:23:35.062500,64.58,96.15
74339,2018-06-29 09:23:35.093750,7.48,96.15
74340,2018-06-29 09:23:35.125000,-55.97,96.15
74341,2018-06-29 09:23:35.156250,-120.54,96.15
74342,2018-06-29 09:23:35.187500,-181.13,96.15
74343,2018-06-29 09:23:35.218750,-218.95,96.15
74344,2018-06-29 09:23:35.250000,-208.83,96.15
74345,2018-06-29 09:23:35.281250,-154.26,96.15
74346,2018-06-29 09:23:35.312500,-89.43,96.15
74347,2018-06-29 09:23:35.343750,-42.25,96.15
74348,2018-06-29 09:23:35.375000,-17.44,96.15
74349,2018-06-29 09:23:35.406250,-9.4,96.15
74350,2018-06-29 09:23:35.437500,-9.83,96.15
74351,2018-06-29 09:23:35.468750,-8.7,96.15
74352,2018-06-29 09:23:35.500000,-0.81,96.15
74353,2018-06-29 09:23:35.531250,12.43,95.95
74354,2018-06-29 09:23:35.562500,27.18,95.95
74355,2018-06-29 09:23:35.593750,34.55,95.95
74356,2018-06-29 09:23:35.625000,19.81,95.95
74357,2018-06-29 09:23:35.656250,-25.18,95.95
74358,2018-06-29 09:23:35.687500,-88.73,95.95
74359,2018-06-29 09:23:35.718750,-139.93,95.95
74360,2018-06-29 09:23:35.750000,-148.84,95.95
74361,2018-06-29 09:23:35.781250,-112.5,95.95
74362,2018-06-29 09:23:35.812500,-55.14,95.95
74363,2018-06-29 09:23:35.843750,2.6,95.95
74364,2018-06-29 09:23:35.875000,60.14,95.95
74365,2018-06-29 09:23:35.906250,118.87,95.95
74366,2018-06-29 09:23:35.937500,169.73,95.95
74367,2018-06-29 09:23:35.968750,203.93,95.95
74368,2018-06-29 09:23:36.000000,220.12,95.95
74369,2018-06-29 09:23:36.031250,222.7,95.95
74370,2018-06-29 09:23:36.062500,219.44,95.95
74371,2018-06-29 09:23:36.093750,211.57,95.95
74372,2018-06-29 09:23:36.125000,182.79,95.95
74373,2018-06-29 09:23:36.156250,115.83,95.95
74374,2018-06-29 09:23:36.187500,24.51,95.95
74375,2018-06-29 09:23:36.218750,-47.92,95.95
74376,2018-06-29 09:23:36.250000,-68.01,95.95
74377,2018-06-29 09:23:36.281250,-41.02,95.95
74378,2018-06-29 09:23:36.312500,-0.23,95.95
74379,2018-06-29 09:23:36.343750,23.32,95.95
74380,2018-06-29 09:23:36.375000,19.65,95.95
74381,2018-06-29 09:23:36.406250,-2.94,95.95
74382,2018-06-29 09:23:36.437500,-33.51,95.95
74383,2018-06-29 09:23:36.468750,-68.65,95.95
74384,2018-06-29 09:23:36.500000,-108.63,95.95
74385,2018-06-29 09:23:36.531250,-147.53,95.77
74386,2018-06-29 09:23:36.562500,-173.23,95.77
74387,2018-06-29 09:23:36.593750,-179.17,95.77
74388,2018-06-29 09:23:36.625000,-170.52,95.77
74389,2018-06-29 09:23:36.656250,-157.49,95.77
74390,2018-06-29 09:23:36.687500,-143.3,95.77
74391,2018-06-29 09:23:36.718750,-116.96,95.77
74392,2018-06-29 09:23:36.750000,-64.08,95.77
74393,2018-06-29 09:23:36.781250,8.77,95.77
74394,2018-06-29 09:23:36.812500,71.82,95.77
74395,2018-06-29 09:23:36.843750,102.84,95.77
74396,2018-06-29 09:23:36.875000,104.4,95.77
74397,2018-06-29 09:23:36.906250,85.89,95.77
74398,2018-06-29 09:23:36.937500,48.97,95.77
74399,2018-06-29 09:23:36.968750,-1.52,95.77
74400,2018-06-29 09:23:37.000000,-50.25,95.77
74401,2018-06-29 09:23:37.031250,-82.05,95.77
74402,2018-06-29 09:23:37.062500,-89.25,95.77
74403,2018-06-29 09:23:37.093750,-69.74,95.77
74404,2018-06-29 09:23:37.125000,-30.74,95.77
74405,2018-06-29 09:23:37.156250,6.39,95.77
74406,2018-06-29 09:23:37.187500,23.69,95.77
74407,2018-06-29 09:23:37.218750,33.97,95.77
74408,2018-06-29 09:23:37.250000,70.08,95.77
74409,2018-06-29 09:23:37.281250,138.94,95.77
74410,2018-06-29 09:23:37.312500,205.91,95.77
74411,2018-06-29 09:23:37.343750,231.95,95.77
74412,2018-06-29 09:23:37.375000,211.07,95.77
74413,2018-06-29 09:23:37.406250,163.79,95.77
74414,2018-06-29 09:23:37.437500,109.41,95.77
74415,2018-06-29 09:23:37.468750,53.43,95.77
74416,2018-06-29 09:23:37.500000,-4.27,95.77
74417,2018-06-29 09:23:37.531250,-61.3,95.58
74418,2018-06-29 09:23:37.562500,-113.81,95.58
74419,2018-06-29 09:23:37.593750,-158.79,95.58
74420,2018-06-29 09:23:37.625000,-193.63,95.58
74421,2018-06-29 09:23:37.656250,-221.09,95.58
74422,2018-06-29 09:23:37.687500,-248.04,95.58
74423,2018-06-29 09:23:37.718750,-266.08,95.58
74424,2018-06-29 09:23:37.750000,-245.15,95.58
74425,2018-06-29 09:23:37.781250,-167.24,95.58
74426,2018-06-29 09:23:37.812500,-55.78,95.58
74427,2018-06-29 09:23:37.843750,44.92,95.58
74428,2018-06-29 09:23:37.875000,106.88,95.58
74429,2018-06-29 09:23:37.906250,124.78,95.58
74430,2018-06-29 09:23:37.937500,106.09,95.58
74431,2018-06-29 09:23:37.968750,66.39,95.58
74432,2018-06-29 09:23:38.000000,22.87,95.58
74433,2018-06-29 09:23:38.031250,-12.9,95.58
74434,2018-06-29 09:23:38.062500,-37.04,95.58
74435,2018-06-29 09:23:38.093750,-52.13,95.58
74436,2018-06-29 09:23:38.125000,-65.26,95.58
74437,2018-06-29 09:23:38.156250,-82.37,95.58
74438,2018-06-29 09:23:38.187500,-98.84,95.58
74439,2018-06-29 09:23:38.218750,-93.05,95.58
74440,2018-06-29 09:23:38.250000,-41.17,95.58
74441,2018-06-29 09:23:38.281250,52.4,95.58
74442,2018-06-29 09:23:38.312500,151.26,95.58
74443,2018-06-29 09:23:38.343750,223.46,95.58
74444,2018-06-29 09:23:38.375000,268.0,95.58
74445,2018-06-29 09:23:38.406250,297.61,95.58
74446,2018-06-29 09:23:38.437500,309.05,95.58
74447,2018-06-29 09:23:38.468750,284.18,95.58
74448,2018-06-29 09:23:38.500000,215.22,95.58
74449,2018-06-29 09:23:38.531250,119.03,95.35
74450,2018-06-29 09:23:38.562500,24.11,95.35
74451,2018-06-29 09:23:38.593750,-51.05,95.35
74452,2018-06-29 09:23:38.625000,-108.06,95.35
74453,2018-06-29 09:23:38.656250,-163.44,95.35
74454,2018-06-29 09:23:38.687500,-228.57,95.35
74455,2018-06-29 09:23:38.718750,-286.71,95.35
74456,2018-06-29 09:23:38.750000,-300.49,95.35
74457,2018-06-29 09:23:38.781250,-253.63,95.35
74458,2018-06-29 09:23:38.812500,-172.86,95.35
74459,2018-06-29 09:23:38.843750,-95.14,95.35
74460,2018-06-29 09:23:38.875000,-32.42,95.35
74461,2018-06-29 09:23:38.906250,19.24,95.35
74462,2018-06-29 09:23:38.937500,57.31,95.35
74463,2018-06-29 09:23:38.968750,75.1,95.35
74464,2018-06-29 09:23:39.000000,73.15,95.35
74465,2018-06-29 09:23:39.031250,59.59,95.35
74466,2018-06-29 09:23:39.062500,42.47,95.35
74467,2018-06-29 09:23:39.093750,24.51,95.35
74468,2018-06-29 09:23:39.125000,3.74,95.35
74469,2018-06-29 09:23:39.156250,-23.76,95.35
74470,2018-06-29 09:23:39.187500,-60.21,95.35
74471,2018-06-29 09:23:39.218750,-93.36,95.35
74472,2018-06-29 09:23:39.250000,-93.0,95.35
74473,2018-06-29 09:23:39.281250,-40.38,95.35
74474,2018-06-29 09:23:39.312500,42.73,95.35
74475,2018-06-29 09:23:39.343750,115.31,95.35
74476,2018-06-29 09:23:39.375000,158.34,95.35
74477,2018-06-29 09:23:39.406250,177.92,95.35
74478,2018-06-29 09:23:39.437500,181.96,95.35
74479,2018-06-29 09:23:39.468750,175.41,95.35
74480,2018-06-29 09:23:39.500000,167.98,95.35
74481,2018-06-29 09:23:39.531250,164.63,95.07
74482,2018-06-29 09:23:39.562500,152.42,95.07
74483,2018-06-29 09:23:39.593750,114.73,95.07
74484,2018-06-29 09:23:39.625000,52.0,95.07
74485,2018-06-29 09:23:39.656250,-25.47,95.07
74486,2018-06-29 09:23:39.687500,-109.17,95.07
74487,2018-06-29 09:23:39.718750,-179.24,95.07
74488,2018-06-29 09:23:39.750000,-204.18,95.07
74489,2018-06-29 09:23:39.781250,-175.85,95.07
74490,2018-06-29 09:23:39.812500,-123.31,95.07
74491,2018-06-29 09:23:39.843750,-77.97,95.07
74492,2018-06-29 09:23:39.875000,-46.8,95.07
74493,2018-06-29 09:23:39.906250,-25.98,95.07
74494,2018-06-29 09:23:39.937500,-16.22,95.07
74495,2018-06-29 09:23:39.968750,-15.8,95.07
74496,2018-06-29 09:23:40.000000,-15.42,95.07
74497,2018-06-29 09:23:40.031250,-6.27,95.07
74498,2018-06-29 09:23:40.062500,11.81,95.07
74499,2018-06-29 09:23:40.093750,29.32,95.07
74500,2018-06-29 09:23:40.125000,32.93,95.07
74501,2018-06-29 09:23:40.156250,13.23,95.07
74502,2018-06-29 09:23:40.187500,-31.46,95.07
74503,2018-06-29 09:23:40.218750,-87.79,95.07
74504,2018-06-29 09:23:40.250000,-123.16,95.07
74505,2018-06-29 09:23:40.281250,-109.71,95.07
74506,2018-06-29 09:23:40.312500,-56.53,95.07
74507,2018-06-29 09:23:40.343750,0.58,95.07
74508,2018-06-29 09:23:40.375000,39.72,95.07
74509,2018-06-29 09:23:40.406250,63.38,95.07
74510,2018-06-29 09:23:40.437500,78.39,95.07
74511,2018-06-29 09:23:40.468750,87.29,95.07
74512,2018-06-29 09:23:40.500000,92.18,95.07
74513,2018-06-29 09:23:40.531250,93.86,95.03
74514,2018-06-29 09:23:40.562500,92.64,95.03
74515,2018-06-29 09:23:40.593750,92.41,95.03
74516,2018-06-29 09:23:40.625000,94.39,95.03
74517,2018-06-29 09:23:40.656250,87.86,95.03
74518,2018-06-29 09:23:40.687500,57.63,95.03
74519,2018-06-29 09:23:40.718750,5.46,95.03
74520,2018-06-29 09:23:40.750000,-39.77,95.03
74521,2018-06-29 09:23:40.781250,-42.22,95.03
74522,2018-06-29 09:23:40.812500,3.26,95.03
74523,2018-06-29 09:23:40.843750,60.32,95.03
74524,2018-06-29 09:23:40.875000,86.37,95.03
74525,2018-06-29 09:23:40.906250,70.17,95.03
74526,2018-06-29 09:23:40.937500,28.81,95.03
74527,2018-06-29 09:23:40.968750,-15.17,95.03
74528,2018-06-29 09:23:41.000000,-47.67,95.03
74529,2018-06-29 09:23:41.031250,-66.94,95.03
74530,2018-06-29 09:23:41.062500,-79.35,95.03
74531,2018-06-29 09:23:41.093750,-86.63,95.03
74532,2018-06-29 09:23:41.125000,-82.46,95.03
74533,2018-06-29 09:23:41.156250,-66.02,95.03
74534,2018-06-29 09:23:41.187500,-49.84,95.03
74535,2018-06-29 09:23:41.218750,-46.65,95.03
74536,2018-06-29 09:23:41.250000,-49.63,95.03
74537,2018-06-29 09:23:41.281250,-35.61,95.03
74538,2018-06-29 09:23:41.312500,5.01,95.03
74539,2018-06-29 09:23:41.343750,52.41,95.03
74540,2018-06-29 09:23:41.375000,78.69,95.03
74541,2018-06-29 09:23:41.406250,73.62,95.03
74542,2018-06-29 09:23:41.437500,47.16,95.03
74543,2018-06-29 09:23:41.468750,19.29,95.03
74544,2018-06-29 09:23:41.500000,4.96,95.03
74545,2018-06-29 09:23:41.531250,3.1,94.9
74546,2018-06-29 09:23:41.562500,4.97,94.9
74547,2018-06-29 09:23:41.593750,8.94,94.9
74548,2018-06-29 09:23:41.625000,18.07,94.9
74549,2018-06-29 09:23:41.656250,30.4,94.9
74550,2018-06-29 09:23:41.687500,38.2,94.9
74551,2018-06-29 09:23:41.718750,32.24,94.9
74552,2018-06-29 09:23:41.750000,14.59,94.9
74553,2018-06-29 09:23:41.781250,8.51,94.9
74554,2018-06-29 09:23:41.812500,35.29,94.9
74555,2018-06-29 09:23:41.843750,80.5,94.9
74556,2018-06-29 09:23:41.875000,106.77,94.9
74557,2018-06-29 09:23:41.906250,96.83,94.9
74558,2018-06-29 09:23:41.937500,62.79,94.9
74559,2018-06-29 09:23:41.968750,21.66,94.9
74560,2018-06-29 09:23:42.000000,-20.07,94.9
74561,2018-06-29 09:23:42.031250,-63.45,94.9
74562,2018-06-29 09:23:42.062500,-107.12,94.9
74563,2018-06-29 09:23:42.093750,-141.39,94.9
74564,2018-06-29 09:23:42.125000,-156.0,94.9
74565,2018-06-29 09:23:42.156250,-153.56,94.9
74566,2018-06-29 09:23:42.187500,-147.46,94.9
74567,2018-06-29 09:23:42.218750,-145.99,94.9
74568,2018-06-29 09:23:42.250000,-139.75,94.9
74569,2018-06-29 09:23:42.281250,-104.14,94.9
74570,2018-06-29 09:23:42.312500,-21.49,94.9
74571,2018-06-29 09:23:42.343750,93.64,94.9
74572,2018-06-29 09:23:42.375000,200.4,94.9
74573,2018-06-29 09:23:42.406250,269.58,94.9
74574,2018-06-29 09:23:42.437500,305.91,94.9
74575,2018-06-29 09:23:42.468750,324.1,94.9
74576,2018-06-29 09:23:42.500000,319.17,94.9
74577,2018-06-29 09:23:42.531250,279.28,94.8
74578,2018-06-29 09:23:42.562500,213.65,94.8
74579,2018-06-29 09:23:42.593750,143.57,94.8
74580,2018-06-29 09:23:42.625000,75.38,94.8
74581,2018-06-29 09:23:42.656250,1.93,94.8
74582,2018-06-29 09:23:42.687500,-77.76,94.8
74583,2018-06-29 09:23:42.718750,-156.54,94.8
74584,2018-06-29 09:23:42.750000,-223.57,94.8
74585,2018-06-29 09:23:42.781250,-255.22,94.8
74586,2018-06-29 09:23:42.812500,-222.94,94.8
74587,2018-06-29 09:23:42.843750,-136.28,94.8
74588,2018-06-29 09:23:42.875000,-50.67,94.8
74589,2018-06-29 09:23:42.906250,-5.06,94.8
74590,2018-06-29 09:23:42.937500,13.78,94.8
74591,2018-06-29 09:23:42.968750,28.95,94.8
74592,2018-06-29 09:23:43.000000,40.67,94.8
74593,2018-06-29 09:23:43.031250,47.34,94.8
74594,2018-06-29 09:23:43.062500,58.42,94.8
74595,2018-06-29 09:23:43.093750,79.32,94.8
74596,2018-06-29 09:23:43.125000,107.79,94.8
74597,2018-06-29 09:23:43.156250,141.53,94.8
74598,2018-06-29 09:23:43.187500,173.95,94.8
74599,2018-06-29 09:23:43.218750,192.33,94.8
74600,2018-06-29 09:23:43.250000,192.03,94.8
74601,2018-06-29 09:23:43.281250,183.36,94.8
74602,2018-06-29 09:23:43.312500,178.73,94.8
74603,2018-06-29 09:23:43.343750,181.96,94.8
74604,2018-06-29 09:23:43.375000,186.65,94.8
74605,2018-06-29 09:23:43.406250,179.27,94.8
74606,2018-06-29 09:23:43.437500,152.89,94.8
74607,2018-06-29 09:23:43.468750,118.43,94.8
74608,2018-06-29 09:23:43.500000,89.07,94.8
74609,2018-06-29 09:23:43.531250,60.1,94.72
74610,2018-06-29 09:23:43.562500,17.6,94.72
74611,2018-06-29 09:23:43.593750,-41.57,94.72
74612,2018-06-29 09:23:43.625000,-105.44,94.72
74613,2018-06-29 09:23:43.656250,-152.8,94.72
74614,2018-06-29 09:23:43.687500,-168.33,94.72
74615,2018-06-29 09:23:43.718750,-161.74,94.72
74616,2018-06-29 09:23:43.750000,-159.85,94.72
74617,2018-06-29 09:23:43.781250,-174.63,94.72
74618,2018-06-29 09:23:43.812500,-199.44,94.72
74619,2018-06-29 09:23:43.843750,-236.76,94.72
74620,2018-06-29 09:23:43.875000,-294.71,94.72
74621,2018-06-29 09:23:43.906250,-347.54,94.72
74622,2018-06-29 09:23:43.937500,-342.69,94.72
74623,2018-06-29 09:23:43.968750,-266.95,94.72
74624,2018-06-29 09:23:44.000000,-168.29,94.72
74625,2018-06-29 09:23:44.031250,-93.23,94.72
74626,2018-06-29 09:23:44.062500,-41.79,94.72
74627,2018-06-29 09:23:44.093750,1.79,94.72
74628,2018-06-29 09:23:44.125000,37.38,94.72
74629,2018-06-29 09:23:44.156250,62.16,94.72
74630,2018-06-29 09:23:44.187500,82.17,94.72
74631,2018-06-29 09:23:44.218750,101.23,94.72
74632,2018-06-29 09:23:44.250000,117.79,94.72
74633,2018-06-29 09:23:44.281250,132.4,94.72
74634,2018-06-29 09:23:44.312500,143.55,94.72
74635,2018-06-29 09:23:44.343750,141.87,94.72
74636,2018-06-29 09:23:44.375000,121.34,94.72
74637,2018-06-29 09:23:44.406250,87.48,94.72
74638,2018-06-29 09:23:44.437500,46.37,94.72
74639,2018-06-29 09:23:44.468750,-2.63,94.72
74640,2018-06-29 09:23:44.500000,-59.19,94.72
74641,2018-06-29 09:23:44.531250,-120.91,94.63
74642,2018-06-29 09:23:44.562500,-192.24,94.63
74643,2018-06-29 09:23:44.593750,-285.49,94.63
74644,2018-06-29 09:23:44.625000,-405.51,94.63
74645,2018-06-29 09:23:44.656250,-524.54,94.63
74646,2018-06-29 09:23:44.687500,-584.13,94.63
74647,2018-06-29 09:23:44.718750,-548.16,94.63
74648,2018-06-29 09:23:44.750000,-445.92,94.63
74649,2018-06-29 09:23:44.781250,-341.92,94.63
74650,2018-06-29 09:23:44.812500,-277.47,94.63
74651,2018-06-29 09:23:44.843750,-251.09,94.63
74652,2018-06-29 09:23:44.875000,-234.78,94.63
74653,2018-06-29 09:23:44.906250,-200.38,94.63
74654,2018-06-29 09:23:44.937500,-139.23,94.63
74655,2018-06-29 09:23:44.968750,-59.65,94.63
74656,2018-06-29 09:23:45.000000,23.92,94.63
74657,2018-06-29 09:23:45.031250,94.02,94.63
74658,2018-06-29 09:23:45.062500,143.64,94.63
74659,2018-06-29 09:23:45.093750,189.89,94.63
74660,2018-06-29 09:23:45.125000,250.62,94.63
74661,2018-06-29 09:23:45.156250,311.97,94.63
74662,2018-06-29 09:23:45.187500,344.52,94.63
74663,2018-06-29 09:23:45.218750,339.28,94.63
74664,2018-06-29 09:23:45.250000,300.17,94.63
74665,2018-06-29 09:23:45.281250,231.2,94.63
74666,2018-06-29 09:23:45.312500,159.39,94.63
74667,2018-06-29 09:23:45.343750,129.38,94.63
74668,2018-06-29 09:23:45.375000,155.82,94.63
74669,2018-06-29 09:23:45.406250,212.81,94.63
74670,2018-06-29 09:23:45.437500,264.76,94.63
74671,2018-06-29 09:23:45.468750,281.96,94.63
74672,2018-06-29 09:23:45.500000,252.03,94.63
74673,2018-06-29 09:23:45.531250,193.34,94.57
74674,2018-06-29 09:23:45.562500,133.82,94.57
74675,2018-06-29 09:23:45.593750,75.01,94.57
74676,2018-06-29 09:23:45.625000,0.67,94.57
74677,2018-06-29 09:23:45.656250,-91.27,94.57
74678,2018-06-29 09:23:45.687500,-188.29,94.57
74679,2018-06-29 09:23:45.718750,-287.57,94.57
74680,2018-06-29 09:23:45.750000,-392.47,94.57
74681,2018-06-29 09:23:45.781250,-486.76,94.57
74682,2018-06-29 09:23:45.812500,-542.69,94.57
74683,2018-06-29 09:23:45.843750,-551.41,94.57
74684,2018-06-29 09:23:45.875000,-516.99,94.57
74685,2018-06-29 09:23:45.906250,-439.26,94.57
74686,2018-06-29 09:23:45.937500,-328.67,94.57
74687,2018-06-29 09:23:45.968750,-216.31,94.57
74688,2018-06-29 09:23:46.000000,-125.32,94.57
74689,2018-06-29 09:23:46.031250,-49.43,94.57
74690,2018-06-29 09:23:46.062500,28.47,94.57
74691,2018-06-29 09:23:46.093750,115.3,94.57
74692,2018-06-29 09:23:46.125000,205.09,94.57
74693,2018-06-29 09:23:46.156250,283.08,94.57
74694,2018-06-29 09:23:46.187500,334.97,94.57
74695,2018-06-29 09:23:46.218750,359.13,94.57
74696,2018-06-29 09:23:46.250000,363.3,94.57
74697,2018-06-29 09:23:46.281250,348.07,94.57
74698,2018-06-29 09:23:46.312500,305.15,94.57
74699,2018-06-29 09:23:46.343750,237.92,94.57
74700,2018-06-29 09:23:46.375000,173.9,94.57
74701,2018-06-29 09:23:46.406250,142.31,94.57
74702,2018-06-29 09:23:46.437500,143.92,94.57
74703,2018-06-29 09:23:46.468750,155.68,94.57
74704,2018-06-29 09:23:46.500000,160.75,94.57
74705,2018-06-29 09:23:46.531250,153.09,94.5
74706,2018-06-29 09:23:46.562500,123.67,94.5
74707,2018-06-29 09:23:46.593750,68.89,94.5
74708,2018-06-29 09:23:46.625000,5.26,94.5
74709,2018-06-29 09:23:46.656250,-44.63,94.5
74710,2018-06-29 09:23:46.687500,-72.48,94.5
74711,2018-06-29 09:23:46.718750,-76.97,94.5
74712,2018-06-29 09:23:46.750000,-54.45,94.5
74713,2018-06-29 09:23:46.781250,-13.2,94.5
74714,2018-06-29 09:23:46.812500,21.22,94.5
74715,2018-06-29 09:23:46.843750,27.53,94.5
74716,2018-06-29 09:23:46.875000,8.08,94.5
74717,2018-06-29 09:23:46.906250,-11.33,94.5
74718,2018-06-29 09:23:46.937500,8.29,94.5
74719,2018-06-29 09:23:46.968750,77.07,94.5
74720,2018-06-29 09:23:47.000000,139.63,94.5
74721,2018-06-29 09:23:47.031250,128.04,94.5
74722,2018-06-29 09:23:47.062500,42.05,94.5
74723,2018-06-29 09:23:47.093750,-73.15,94.5
74724,2018-06-29 09:23:47.125000,-191.48,94.5
74725,2018-06-29 09:23:47.156250,-291.69,94.5
74726,2018-06-29 09:23:47.187500,-336.92,94.5
74727,2018-06-29 09:23:47.218750,-335.81,94.5
74728,2018-06-29 09:23:47.250000,-347.41,94.5
74729,2018-06-29 09:23:47.281250,-385.02,94.5
74730,2018-06-29 09:23:47.312500,-401.49,94.5
74731,2018-06-29 09:23:47.343750,-380.88,94.5
74732,2018-06-29 09:23:47.375000,-348.64,94.5
74733,2018-06-29 09:23:47.406250,-304.63,94.5
74734,2018-06-29 09:23:47.437500,-233.57,94.5
74735,2018-06-29 09:23:47.468750,-153.16,94.5
74736,2018-06-29 09:23:47.500000,-90.14,94.5
74737,2018-06-29 09:23:47.531250,-41.79,94.4
74738,2018-06-29 09:23:47.562500,10.22,94.4
74739,2018-06-29 09:23:47.593750,72.62,94.4
74740,2018-06-29 09:23:47.625000,133.11,94.4
74741,2018-06-29 09:23:47.656250,170.83,94.4
74742,2018-06-29 09:23:47.687500,174.95,94.4
74743,2018-06-29 09:23:47.718750,153.8,94.4
74744,2018-06-29 09:23:47.750000,120.6,94.4
74745,2018-06-29 09:23:47.781250,76.68,94.4
74746,2018-06-29 09:23:47.812500,15.31,94.4
74747,2018-06-29 09:23:47.843750,-60.59,94.4
74748,2018-06-29 09:23:47.875000,-125.82,94.4
74749,2018-06-29 09:23:47.906250,-146.71,94.4
74750,2018-06-29 09:23:47.937500,-114.62,94.4
74751,2018-06-29 09:23:47.968750,-52.26,94.4
74752,2018-06-29 09:23:48.000000,18.31,94.4
74753,2018-06-29 09:23:48.031250,91.75,94.4
74754,2018-06-29 09:23:48.062500,159.18,94.4
74755,2018-06-29 09:23:48.093750,198.8,94.4
74756,2018-06-29 09:23:48.125000,198.72,94.4
74757,2018-06-29 09:23:48.156250,171.44,94.4
74758,2018-06-29 09:23:48.187500,134.88,94.4
74759,2018-06-29 09:23:48.218750,91.89,94.4
74760,2018-06-29 09:23:48.250000,41.33,94.4
74761,2018-06-29 09:23:48.281250,-8.51,94.4
74762,2018-06-29 09:23:48.312500,-53.37,94.4
74763,2018-06-29 09:23:48.343750,-95.43,94.4
74764,2018-06-29 09:23:48.375000,-118.15,94.4
74765,2018-06-29 09:23:48.406250,-90.84,94.4
74766,2018-06-29 09:23:48.437500,-10.61,94.4
74767,2018-06-29 09:23:48.468750,92.54,94.4
74768,2018-06-29 09:23:48.500000,196.04,94.4
74769,2018-06-29 09:23:48.531250,293.8,94.38
74770,2018-06-29 09:23:48.562500,368.83,94.38
74771,2018-06-29 09:23:48.593750,396.65,94.38
74772,2018-06-29 09:23:48.625000,374.75,94.38
74773,2018-06-29 09:23:48.656250,325.2,94.38
74774,2018-06-29 09:23:48.687500,272.35,94.38
74775,2018-06-29 09:23:48.718750,226.71,94.38
74776,2018-06-29 09:23:48.750000,182.78,94.38
74777,2018-06-29 09:23:48.781250,127.15,94.38
74778,2018-06-29 09:23:48.812500,49.54,94.38
74779,2018-06-29 09:23:48.843750,-49.16,94.38
74780,2018-06-29 09:23:48.875000,-144.59,94.38
74781,2018-06-29 09:23:48.906250,-193.24,94.38
74782,2018-06-29 09:23:48.937500,-174.14,94.38
74783,2018-06-29 09:23:48.968750,-116.39,94.38
74784,2018-06-29 09:23:49.000000,-65.13,94.38
74785,2018-06-29 09:23:49.031250,-39.01,94.38
74786,2018-06-29 09:23:49.062500,-32.01,94.38
74787,2018-06-29 09:23:49.093750,-34.89,94.38
74788,2018-06-29 09:23:49.125000,-42.47,94.38
74789,2018-06-29 09:23:49.156250,-50.09,94.38
74790,2018-06-29 09:23:49.187500,-50.8,94.38
74791,2018-06-29 09:23:49.218750,-38.34,94.38
74792,2018-06-29 09:23:49.250000,-13.82,94.38
74793,2018-06-29 09:23:49.281250,12.49,94.38
74794,2018-06-29 09:23:49.312500,22.45,94.38
74795,2018-06-29 09:23:49.343750,0.1,94.38
74796,2018-06-29 09:23:49.375000,-43.85,94.38
74797,2018-06-29 09:23:49.406250,-67.81,94.38
74798,2018-06-29 09:23:49.437500,-42.22,94.38
74799,2018-06-29 09:23:49.468750,15.62,94.38
74800,2018-06-29 09:23:49.500000,68.75,94.38
74801,2018-06-29 09:23:49.531250,103.48,94.35
74802,2018-06-29 09:23:49.562500,126.14,94.35
74803,2018-06-29 09:23:49.593750,140.24,94.35
74804,2018-06-29 09:23:49.625000,145.21,94.35
74805,2018-06-29 09:23:49.656250,144.71,94.35
74806,2018-06-29 09:23:49.687500,143.9,94.35
74807,2018-06-29 09:23:49.718750,142.72,94.35
74808,2018-06-29 09:23:49.750000,135.48,94.35
74809,2018-06-29 09:23:49.781250,116.33,94.35
74810,2018-06-29 09:23:49.812500,83.41,94.35
74811,2018-06-29 09:23:49.843750,39.72,94.35
74812,2018-06-29 09:23:49.875000,-2.89,94.35
74813,2018-06-29 09:23:49.906250,-21.15,94.35
74814,2018-06-29 09:23:49.937500,1.01,94.35
74815,2018-06-29 09:23:49.968750,47.99,94.35
74816,2018-06-29 09:23:50.000000,83.35,94.35
74817,2018-06-29 09:23:50.031250,86.17,94.35
74818,2018-06-29 09:23:50.062500,61.31,94.35
74819,2018-06-29 09:23:50.093750,20.78,94.35
74820,2018-06-29 09:23:50.125000,-27.23,94.35
74821,2018-06-29 09:23:50.156250,-76.26,94.35
74822,2018-06-29 09:23:50.187500,-121.09,94.35
74823,2018-06-29 09:23:50.218750,-158.22,94.35
74824,2018-06-29 09:23:50.250000,-184.66,94.35
74825,2018-06-29 09:23:50.281250,-198.67,94.35
74826,2018-06-29 09:23:50.312500,-202.19,94.35
74827,2018-06-29 09:23:50.343750,-200.69,94.35
74828,2018-06-29 09:23:50.375000,-193.76,94.35
74829,2018-06-29 09:23:50.406250,-163.76,94.35
74830,2018-06-29 09:23:50.437500,-89.37,94.35
74831,2018-06-29 09:23:50.468750,22.84,94.35
74832,2018-06-29 09:23:50.500000,132.52,94.35
74833,2018-06-29 09:23:50.531250,198.74,94.33
74834,2018-06-29 09:23:50.562500,211.34,94.33
74835,2018-06-29 09:23:50.593750,187.54,94.33
74836,2018-06-29 09:23:50.625000,147.01,94.33
74837,2018-06-29 09:23:50.656250,98.29,94.33
74838,2018-06-29 09:23:50.687500,48.0,94.33
74839,2018-06-29 09:23:50.718750,10.26,94.33
74840,2018-06-29 09:23:50.750000,-4.99,94.33
74841,2018-06-29 09:23:50.781250,-5.09,94.33
74842,2018-06-29 09:23:50.812500,-5.48,94.33
74843,2018-06-29 09:23:50.843750,-13.79,94.33
74844,2018-06-29 09:23:50.875000,-26.07,94.33
74845,2018-06-29 09:23:50.906250,-23.57,94.33
74846,2018-06-29 09:23:50.937500,20.0,94.33
74847,2018-06-29 09:23:50.968750,103.44,94.33
74848,2018-06-29 09:23:51.000000,185.07,94.33
74849,2018-06-29 09:23:51.031250,226.19,94.33
74850,2018-06-29 09:23:51.062500,224.97,94.33
74851,2018-06-29 09:23:51.093750,193.7,94.33
74852,2018-06-29 09:23:51.125000,137.46,94.33
74853,2018-06-29 09:23:51.156250,67.79,94.33
74854,2018-06-29 09:23:51.187500,2.67,94.33
74855,2018-06-29 09:23:51.218750,-53.3,94.33
74856,2018-06-29 09:23:51.250000,-103.28,94.33
74857,2018-06-29 09:23:51.281250,-141.61,94.33
74858,2018-06-29 09:23:51.312500,-164.09,94.33
74859,2018-06-29 09:23:51.343750,-182.39,94.33
74860,2018-06-29 09:23:51.375000,-209.36,94.33
74861,2018-06-29 09:23:51.406250,-235.12,94.33
74862,2018-06-29 09:23:51.437500,-225.95,94.33
74863,2018-06-29 09:23:51.468750,-154.91,94.33
74864,2018-06-29 09:23:51.500000,-36.9,94.33
74865,2018-06-29 09:23:51.531250,80.41,94.32
74866,2018-06-29 09:23:51.562500,161.31,94.32
74867,2018-06-29 09:23:51.593750,200.44,94.32
74868,2018-06-29 09:23:51.625000,207.47,94.32
74869,2018-06-29 09:23:51.656250,198.93,94.32
74870,2018-06-29 09:23:51.687500,192.9,94.32
74871,2018-06-29 09:23:51.718750,189.69,94.32
74872,2018-06-29 09:23:51.750000,171.87,94.32
74873,2018-06-29 09:23:51.781250,132.92,94.32
74874,2018-06-29 09:23:51.812500,92.67,94.32
74875,2018-06-29 09:23:51.843750,73.57,94.32
74876,2018-06-29 09:23:51.875000,77.73,94.32
74877,2018-06-29 09:23:51.906250,85.25,94.32
74878,2018-06-29 09:23:51.937500,72.94,94.32
74879,2018-06-29 09:23:51.968750,50.33,94.32
74880,2018-06-29 09:23:52.000000,52.03,94.32
74881,2018-06-29 09:23:52.031250,78.17,94.32
74882,2018-06-29 09:23:52.062500,90.33,94.32
74883,2018-06-29 09:23:52.093750,75.19,94.32
74884,2018-06-29 09:23:52.125000,49.64,94.32
74885,2018-06-29 09:23:52.156250,11.79,94.32
74886,2018-06-29 09:23:52.187500,-49.3,94.32
74887,2018-06-29 09:23:52.218750,-122.04,94.32
74888,2018-06-29 09:23:52.250000,-189.87,94.32
74889,2018-06-29 09:23:52.281250,-247.74,94.32
74890,2018-06-29 09:23:52.312500,-289.85,94.32
74891,2018-06-29 09:23:52.343750,-309.89,94.32
74892,2018-06-29 09:23:52.375000,-316.41,94.32
74893,2018-06-29 09:23:52.406250,-321.63,94.32
74894,2018-06-29 09:23:52.437500,-315.71,94.32
74895,2018-06-29 09:23:52.468750,-275.28,94.32
74896,2018-06-29 09:23:52.500000,-198.57,94.32
74897,2018-06-29 09:23:52.531250,-110.39,94.35
74898,2018-06-29 09:23:52.562500,-32.96,94.35
74899,2018-06-29 09:23:52.593750,27.4,94.35
74900,2018-06-29 09:23:52.625000,68.32,94.35
74901,2018-06-29 09:23:52.656250,86.15,94.35
74902,2018-06-29 09:23:52.687500,80.48,94.35
74903,2018-06-29 09:23:52.718750,55.44,94.35
74904,2018-06-29 09:23:52.750000,19.51,94.35
74905,2018-06-29 09:23:52.781250,-18.04,94.35
74906,2018-06-29 09:23:52.812500,-54.55,94.35
74907,2018-06-29 09:23:52.843750,-94.15,94.35
74908,2018-06-29 09:23:52.875000,-140.86,94.35
74909,2018-06-29 09:23:52.906250,-190.65,94.35
74910,2018-06-29 09:23:52.937500,-221.06,94.35
74911,2018-06-29 09:23:52.968750,-199.85,94.35
74912,2018-06-29 09:23:53.000000,-121.34,94.35
74913,2018-06-29 09:23:53.031250,-20.0,94.35
74914,2018-06-29 09:23:53.062500,65.65,94.35
74915,2018-06-29 09:23:53.093750,126.95,94.35
74916,2018-06-29 09:23:53.125000,174.89,94.35
74917,2018-06-29 09:23:53.156250,217.87,94.35
74918,2018-06-29 09:23:53.187500,256.31,94.35
74919,2018-06-29 09:23:53.218750,289.12,94.35
74920,2018-06-29 09:23:53.250000,309.98,94.35
74921,2018-06-29 09:23:53.281250,299.21,94.35
74922,2018-06-29 09:23:53.312500,242.49,94.35
74923,2018-06-29 09:23:53.343750,161.21,94.35
74924,2018-06-29 09:23:53.375000,86.65,94.35
74925,2018-06-29 09:23:53.406250,16.6,94.35
74926,2018-06-29 09:23:53.437500,-54.01,94.35
74927,2018-06-29 09:23:53.468750,-97.87,94.35
74928,2018-06-29 09:23:53.500000,-101.55,94.35
74929,2018-06-29 09:23:53.531250,-92.32,94.4
74930,2018-06-29 09:23:53.562500,-90.19,94.4
74931,2018-06-29 09:23:53.593750,-93.33,94.4
74932,2018-06-29 09:23:53.625000,-105.43,94.4
74933,2018-06-29 09:23:53.656250,-124.36,94.4
74934,2018-06-29 09:23:53.687500,-135.94,94.4
74935,2018-06-29 09:23:53.718750,-140.75,94.4
74936,2018-06-29 09:23:53.750000,-145.98,94.4
74937,2018-06-29 09:23:53.781250,-141.94,94.4
74938,2018-06-29 09:23:53.812500,-123.31,94.4
74939,2018-06-29 09:23:53.843750,-107.68,94.4
74940,2018-06-29 09:23:53.875000,-113.24,94.4
74941,2018-06-29 09:23:53.906250,-138.27,94.4
74942,2018-06-29 09:23:53.937500,-156.35,94.4
74943,2018-06-29 09:23:53.968750,-132.37,94.4
74944,2018-06-29 09:23:54.000000,-61.95,94.4
74945,2018-06-29 09:23:54.031250,19.15,94.4
74946,2018-06-29 09:23:54.062500,75.71,94.4
74947,2018-06-29 09:23:54.093750,98.62,94.4
74948,2018-06-29 09:23:54.125000,89.25,94.4
74949,2018-06-29 09:23:54.156250,50.87,94.4
74950,2018-06-29 09:23:54.187500,-2.92,94.4
74951,2018-06-29 09:23:54.218750,-51.14,94.4
74952,2018-06-29 09:23:54.250000,-77.47,94.4
74953,2018-06-29 09:23:54.281250,-77.47,94.4
74954,2018-06-29 09:23:54.312500,-59.63,94.4
74955,2018-06-29 09:23:54.343750,-40.61,94.4
74956,2018-06-29 09:23:54.375000,-39.06,94.4
74957,2018-06-29 09:23:54.406250,-61.92,94.4
74958,2018-06-29 09:23:54.437500,-86.9,94.4
74959,2018-06-29 09:23:54.468750,-76.52,94.4
74960,2018-06-29 09:23:54.500000,-18.52,94.4
74961,2018-06-29 09:23:54.531250,64.06,94.48
74962,2018-06-29 09:23:54.562500,138.93,94.48
74963,2018-06-29 09:23:54.593750,179.69,94.48
74964,2018-06-29 09:23:54.625000,169.65,94.48
74965,2018-06-29 09:23:54.656250,114.39,94.48
74966,2018-06-29 09:23:54.687500,41.05,94.48
74967,2018-06-29 09:23:54.718750,-25.1,94.48
74968,2018-06-29 09:23:54.750000,-75.08,94.48
74969,2018-06-29 09:23:54.781250,-109.86,94.48
74970,2018-06-29 09:23:54.812500,-131.52,94.48
74971,2018-06-29 09:23:54.843750,-144.15,94.48
74972,2018-06-29 09:23:54.875000,-157.46,94.48
74973,2018-06-29 09:23:54.906250,-174.71,94.48
74974,2018-06-29 09:23:54.937500,-174.84,94.48
74975,2018-06-29 09:23:54.968750,-128.62,94.48
74976,2018-06-29 09:23:55.000000,-36.24,94.48
74977,2018-06-29 09:23:55.031250,73.45,94.48
74978,2018-06-29 09:23:55.062500,173.2,94.48
74979,2018-06-29 09:23:55.093750,241.91,94.48
74980,2018-06-29 09:23:55.125000,258.37,94.48
74981,2018-06-29 09:23:55.156250,220.27,94.48
74982,2018-06-29 09:23:55.187500,153.28,94.48
74983,2018-06-29 09:23:55.218750,85.5,94.48
74984,2018-06-29 09:23:55.250000,28.08,94.48
74985,2018-06-29 09:23:55.281250,-12.41,94.48
74986,2018-06-29 09:23:55.312500,-26.3,94.48
74987,2018-06-29 09:23:55.343750,-15.93,94.48
74988,2018-06-29 09:23:55.375000,-0.79,94.48
74989,2018-06-29 09:23:55.406250,7.76,94.48
74990,2018-06-29 09:23:55.437500,25.39,94.48
74991,2018-06-29 09:23:55.468750,71.95,94.48
74992,2018-06-29 09:23:55.500000,137.61,94.48
74993,2018-06-29 09:23:55.531250,191.14,94.58
74994,2018-06-29 09:23:55.562500,216.34,94.58
74995,2018-06-29 09:23:55.593750,220.72,94.58
74996,2018-06-29 09:23:55.625000,208.86,94.58
74997,2018-06-29 09:23:55.656250,173.56,94.58
74998,2018-06-29 09:23:55.687500,115.8,94.58
74999,2018-06-29 09:23:55.718750,48.04,94.58
75000,2018-06-29 09:23:55.750000,-22.49,94.58
75001,2018-06-29 09:23:55.781250,-93.17,94.58
75002,2018-06-29 09:23:55.812500,-155.41,94.58
75003,2018-06-29 09:23:55.843750,-205.07,94.58
75004,2018-06-29 09:23:55.875000,-252.42,94.58
75005,2018-06-29 09:23:55.906250,-298.47,94.58
75006,2018-06-29 09:23:55.937500,-313.03,94.58
75007,2018-06-29 09:23:55.968750,-264.22,94.58
75008,2018-06-29 09:23:56.000000,-164.02,94.58
75009,2018-06-29 09:23:56.031250,-56.26,94.58
75010,2018-06-29 09:23:56.062500,31.93,94.58
75011,2018-06-29 09:23:56.093750,97.84,94.58
75012,2018-06-29 09:23:56.125000,138.52,94.58
75013,2018-06-29 09:23:56.156250,149.13,94.58
75014,2018-06-29 09:23:56.187500,134.41,94.58
75015,2018-06-29 09:23:56.218750,103.77,94.58
75016,2018-06-29 09:23:56.250000,64.37,94.58
75017,2018-06-29 09:23:56.281250,23.28,94.58
75018,2018-06-29 09:23:56.312500,-14.05,94.58
75019,2018-06-29 09:23:56.343750,-50.11,94.58
75020,2018-06-29 09:23:56.375000,-87.86,94.58
75021,2018-06-29 09:23:56.406250,-109.52,94.58
75022,2018-06-29 09:23:56.437500,-81.2,94.58
75023,2018-06-29 09:23:56.468750,6.0,94.58
75024,2018-06-29 09:23:56.500000,117.18,94.58
75025,2018-06-29 09:23:56.531250,208.37,94.72
75026,2018-06-29 09:23:56.562500,260.42,94.72
75027,2018-06-29 09:23:56.593750,273.02,94.72
75028,2018-06-29 09:23:56.625000,250.98,94.72
75029,2018-06-29 09:23:56.656250,205.47,94.72
75030,2018-06-29 09:23:56.687500,154.13,94.72
75031,2018-06-29 09:23:56.718750,111.93,94.72
75032,2018-06-29 09:23:56.750000,78.8,94.72
75033,2018-06-29 09:23:56.781250,38.39,94.72
75034,2018-06-29 09:23:56.812500,-26.46,94.72
75035,2018-06-29 09:23:56.843750,-118.4,94.72
75036,2018-06-29 09:23:56.875000,-220.26,94.72
75037,2018-06-29 09:23:56.906250,-292.55,94.72
75038,2018-06-29 09:23:56.937500,-290.95,94.72
75039,2018-06-29 09:23:56.968750,-211.19,94.72
75040,2018-06-29 09:23:57.000000,-102.91,94.72
75041,2018-06-29 09:23:57.031250,-19.62,94.72
75042,2018-06-29 09:23:57.062500,26.23,94.72
75043,2018-06-29 09:23:57.093750,49.09,94.72
75044,2018-06-29 09:23:57.125000,59.08,94.72
75045,2018-06-29 09:23:57.156250,59.78,94.72
75046,2018-06-29 09:23:57.187500,58.08,94.72
75047,2018-06-29 09:23:57.218750,62.01,94.72
75048,2018-06-29 09:23:57.250000,73.17,94.72
75049,2018-06-29 09:23:57.281250,82.95,94.72
75050,2018-06-29 09:23:57.312500,73.37,94.72
75051,2018-06-29 09:23:57.343750,27.7,94.72
75052,2018-06-29 09:23:57.375000,-46.44,94.72
75053,2018-06-29 09:23:57.406250,-108.64,94.72
75054,2018-06-29 09:23:57.437500,-120.59,94.72
75055,2018-06-29 09:23:57.468750,-87.99,94.72
75056,2018-06-29 09:23:57.500000,-50.51,94.72
75057,2018-06-29 09:23:57.531250,-34.93,94.85
75058,2018-06-29 09:23:57.562500,-36.44,94.85
75059,2018-06-29 09:23:57.593750,-37.62,94.85
75060,2018-06-29 09:23:57.625000,-27.82,94.85
75061,2018-06-29 09:23:57.656250,-8.05,94.85
75062,2018-06-29 09:23:57.687500,12.33,94.85
75063,2018-06-29 09:23:57.718750,25.4,94.85
75064,2018-06-29 09:23:57.750000,33.28,94.85
75065,2018-06-29 09:23:57.781250,43.29,94.85
75066,2018-06-29 09:23:57.812500,51.19,94.85
75067,2018-06-29 09:23:57.843750,38.66,94.85
75068,2018-06-29 09:23:57.875000,1.9,94.85
75069,2018-06-29 09:23:57.906250,-29.75,94.85
75070,2018-06-29 09:23:57.937500,-29.32,94.85
75071,2018-06-29 09:23:57.968750,-10.87,94.85
75072,2018-06-29 09:23:58.000000,-7.51,94.85
75073,2018-06-29 09:23:58.031250,-28.77,94.85
75074,2018-06-29 09:23:58.062500,-60.61,94.85
75075,2018-06-29 09:23:58.093750,-87.26,94.85
75076,2018-06-29 09:23:58.125000,-100.79,94.85
75077,2018-06-29 09:23:58.156250,-102.64,94.85
75078,2018-06-29 09:23:58.187500,-99.41,94.85
75079,2018-06-29 09:23:58.218750,-93.57,94.85
75080,2018-06-29 09:23:58.250000,-83.06,94.85
75081,2018-06-29 09:23:58.281250,-71.31,94.85
75082,2018-06-29 09:23:58.312500,-68.7,94.85
75083,2018-06-29 09:23:58.343750,-72.89,94.85
75084,2018-06-29 09:23:58.375000,-54.79,94.85
75085,2018-06-29 09:23:58.406250,13.05,94.85
75086,2018-06-29 09:23:58.437500,112.59,94.85
75087,2018-06-29 09:23:58.468750,191.94,94.85
75088,2018-06-29 09:23:58.500000,220.47,94.85
75089,2018-06-29 09:23:58.531250,207.61,94.98
75090,2018-06-29 09:23:58.562500,174.73,94.98
75091,2018-06-29 09:23:58.593750,137.26,94.98
75092,2018-06-29 09:23:58.625000,107.53,94.98
75093,2018-06-29 09:23:58.656250,94.21,94.98
75094,2018-06-29 09:23:58.687500,99.12,94.98
75095,2018-06-29 09:23:58.718750,115.99,94.98
75096,2018-06-29 09:23:58.750000,126.08,94.98
75097,2018-06-29 09:23:58.781250,101.32,94.98
75098,2018-06-29 09:23:58.812500,29.96,94.98
75099,2018-06-29 09:23:58.843750,-54.91,94.98
75100,2018-06-29 09:23:58.875000,-91.05,94.98
75101,2018-06-29 09:23:58.906250,-48.41,94.98
75102,2018-06-29 09:23:58.937500,37.89,94.98
75103,2018-06-29 09:23:58.968750,107.8,94.98
75104,2018-06-29 09:23:59.000000,128.07,94.98
75105,2018-06-29 09:23:59.031250,96.71,94.98
75106,2018-06-29 09:23:59.062500,27.65,94.98
75107,2018-06-29 09:23:59.093750,-55.35,94.98
75108,2018-06-29 09:23:59.125000,-131.2,94.98
75109,2018-06-29 09:23:59.156250,-194.9,94.98
75110,2018-06-29 09:23:59.187500,-249.16,94.98
75111,2018-06-29 09:23:59.218750,-288.7,94.98
75112,2018-06-29 09:23:59.250000,-309.09,94.98
75113,2018-06-29 09:23:59.281250,-324.35,94.98
75114,2018-06-29 09:23:59.312500,-347.67,94.98
75115,2018-06-29 09:23:59.343750,-355.48,94.98
75116,2018-06-29 09:23:59.375000,-305.71,94.98
75117,2018-06-29 09:23:59.406250,-195.21,94.98
75118,2018-06-29 09:23:59.437500,-67.14,94.98
75119,2018-06-29 09:23:59.468750,36.93,94.98
75120,2018-06-29 09:23:59.500000,101.72,94.98
75121,2018-06-29 09:23:59.531250,124.67,95.1
75122,2018-06-29 09:23:59.562500,110.65,95.1
75123,2018-06-29 09:23:59.593750,79.27,95.1
75124,2018-06-29 09:23:59.625000,54.83,95.1
75125,2018-06-29 09:23:59.656250,45.2,95.1
75126,2018-06-29 09:23:59.687500,40.58,95.1
75127,2018-06-29 09:23:59.718750,30.82,95.1
75128,2018-06-29 09:23:59.750000,12.71,95.1
75129,2018-06-29 09:23:59.781250,-10.53,95.1
75130,2018-06-29 09:23:59.812500,-21.46,95.1
75131,2018-06-29 09:23:59.843750,5.31,95.1
75132,2018-06-29 09:23:59.875000,71.66,95.1
75133,2018-06-29 09:23:59.906250,146.07,95.1
75134,2018-06-29 09:23:59.937500,195.56,95.1
75135,2018-06-29 09:23:59.968750,210.22,95.1
75136,2018-06-29 09:24:00.000000,194.67,95.1
75137,2018-06-29 09:24:00.031250,157.63,95.1
75138,2018-06-29 09:24:00.062500,114.48,95.1
75139,2018-06-29 09:24:00.093750,82.77,95.1
75140,2018-06-29 09:24:00.125000,66.28,95.1
75141,2018-06-29 09:24:00.156250,50.14,95.1
75142,2018-06-29 09:24:00.187500,18.15,95.1
75143,2018-06-29 09:24:00.218750,-33.02,95.1
75144,2018-06-29 09:24:00.250000,-97.42,95.1
75145,2018-06-29 09:24:00.281250,-157.58,95.1
75146,2018-06-29 09:24:00.312500,-177.87,95.1
75147,2018-06-29 09:24:00.343750,-131.06,95.1
75148,2018-06-29 09:24:00.375000,-36.05,95.1
75149,2018-06-29 09:24:00.406250,56.82,95.1
75150,2018-06-29 09:24:00.437500,115.8,95.1
75151,2018-06-29 09:24:00.468750,141.59,95.1
75152,2018-06-29 09:24:00.500000,144.14,95.1
75153,2018-06-29 09:24:00.531250,131.42,95.22
75154,2018-06-29 09:24:00.562500,112.71,95.22
75155,2018-06-29 09:24:00.593750,91.29,95.22
75156,2018-06-29 09:24:00.625000,59.79,95.22
75157,2018-06-29 09:24:00.656250,14.76,95.22
75158,2018-06-29 09:24:00.687500,-36.07,95.22
75159,2018-06-29 09:24:00.718750,-87.9,95.22
75160,2018-06-29 09:24:00.750000,-137.6,95.22
75161,2018-06-29 09:24:00.781250,-161.91,95.22
75162,2018-06-29 09:24:00.812500,-128.33,95.22
75163,2018-06-29 09:24:00.843750,-39.79,95.22
75164,2018-06-29 09:24:00.875000,59.43,95.22
75165,2018-06-29 09:24:00.906250,129.02,95.22
75166,2018-06-29 09:24:00.937500,160.54,95.22
75167,2018-06-29 09:24:00.968750,161.66,95.22
75168,2018-06-29 09:24:01.000000,141.91,95.22
75169,2018-06-29 09:24:01.031250,114.87,95.22
75170,2018-06-29 09:24:01.062500,88.94,95.22
75171,2018-06-29 09:24:01.093750,57.53,95.22
75172,2018-06-29 09:24:01.125000,14.47,95.22
75173,2018-06-29 09:24:01.156250,-32.77,95.22
75174,2018-06-29 09:24:01.187500,-78.92,95.22
75175,2018-06-29 09:24:01.218750,-125.07,95.22
75176,2018-06-29 09:24:01.250000,-153.47,95.22
75177,2018-06-29 09:24:01.281250,-133.32,95.22
75178,2018-06-29 09:24:01.312500,-66.49,95.22
75179,2018-06-29 09:24:01.343750,6.2,95.22
75180,2018-06-29 09:24:01.375000,51.76,95.22
75181,2018-06-29 09:24:01.406250,67.83,95.22
75182,2018-06-29 09:24:01.437500,62.19,95.22
75183,2018-06-29 09:24:01.468750,40.37,95.22
75184,2018-06-29 09:24:01.500000,14.46,95.22
75185,2018-06-29 09:24:01.531250,2.59,95.3
75186,2018-06-29 09:24:01.562500,11.87,95.3
75187,2018-06-29 09:24:01.593750,27.61,95.3
75188,2018-06-29 09:24:01.625000,27.74,95.3
75189,2018-06-29 09:24:01.656250,4.18,95.3
75190,2018-06-29 09:24:01.687500,-35.17,95.3
75191,2018-06-29 09:24:01.718750,-73.79,95.3
75192,2018-06-29 09:24:01.750000,-90.34,95.3
75193,2018-06-29 09:24:01.781250,-72.81,95.3
75194,2018-06-29 09:24:01.812500,-33.43,95.3
75195,2018-06-29 09:24:01.843750,2.93,95.3
75196,2018-06-29 09:24:01.875000,21.2,95.3
75197,2018-06-29 09:24:01.906250,20.6,95.3
75198,2018-06-29 09:24:01.937500,9.55,95.3
75199,2018-06-29 09:24:01.968750,1.18,95.3
75200,2018-06-29 09:24:02.000000,5.41,95.3
75201,2018-06-29 09:24:02.031250,22.39,95.3
75202,2018-06-29 09:24:02.062500,45.83,95.3
75203,2018-06-29 09:24:02.093750,69.6,95.3
75204,2018-06-29 09:24:02.125000,85.95,95.3
75205,2018-06-29 09:24:02.156250,82.81,95.3
75206,2018-06-29 09:24:02.187500,60.76,95.3
75207,2018-06-29 09:24:02.218750,46.65,95.3
75208,2018-06-29 09:24:02.250000,63.91,95.3
75209,2018-06-29 09:24:02.281250,96.52,95.3
75210,2018-06-29 09:24:02.312500,109.7,95.3
75211,2018-06-29 09:24:02.343750,93.3,95.3
75212,2018-06-29 09:24:02.375000,59.62,95.3
75213,2018-06-29 09:24:02.406250,15.57,95.3
75214,2018-06-29 09:24:02.437500,-38.8,95.3
75215,2018-06-29 09:24:02.468750,-95.7,95.3
75216,2018-06-29 09:24:02.500000,-142.15,95.3
75217,2018-06-29 09:24:02.531250,-173.46,95.42
75218,2018-06-29 09:24:02.562500,-193.91,95.42
75219,2018-06-29 09:24:02.593750,-208.74,95.42
75220,2018-06-29 09:24:02.625000,-220.47,95.42
75221,2018-06-29 09:24:02.656250,-220.82,95.42
75222,2018-06-29 09:24:02.687500,-183.92,95.42
75223,2018-06-29 09:24:02.718750,-92.0,95.42
75224,2018-06-29 09:24:02.750000,29.22,95.42
75225,2018-06-29 09:24:02.781250,126.87,95.42
75226,2018-06-29 09:24:02.812500,170.49,95.42
75227,2018-06-29 09:24:02.843750,165.0,95.42
75228,2018-06-29 09:24:02.875000,127.42,95.42
75229,2018-06-29 09:24:02.906250,73.35,95.42
75230,2018-06-29 09:24:02.937500,17.31,95.42
75231,2018-06-29 09:24:02.968750,-31.6,95.42
75232,2018-06-29 09:24:03.000000,-73.48,95.42
75233,2018-06-29 09:24:03.031250,-111.16,95.42
75234,2018-06-29 09:24:03.062500,-142.94,95.42
75235,2018-06-29 09:24:03.093750,-166.4,95.42
75236,2018-06-29 09:24:03.125000,-177.88,95.42
75237,2018-06-29 09:24:03.156250,-161.13,95.42
75238,2018-06-29 09:24:03.187500,-95.62,95.42
75239,2018-06-29 09:24:03.218750,11.65,95.42
75240,2018-06-29 09:24:03.250000,122.22,95.42
75241,2018-06-29 09:24:03.281250,200.2,95.42
75242,2018-06-29 09:24:03.312500,232.46,95.42
75243,2018-06-29 09:24:03.343750,221.24,95.42
75244,2018-06-29 09:24:03.375000,178.96,95.42
75245,2018-06-29 09:24:03.406250,124.4,95.42
75246,2018-06-29 09:24:03.437500,69.58,95.42
75247,2018-06-29 09:24:03.468750,13.78,95.42
75248,2018-06-29 09:24:03.500000,-43.92,95.42
75249,2018-06-29 09:24:03.531250,-99.85,95.53
75250,2018-06-29 09:24:03.562500,-154.11,95.53
75251,2018-06-29 09:24:03.593750,-205.34,95.53
75252,2018-06-29 09:24:03.625000,-234.12,95.53
75253,2018-06-29 09:24:03.656250,-211.89,95.53
75254,2018-06-29 09:24:03.687500,-134.5,95.53
75255,2018-06-29 09:24:03.718750,-32.04,95.53
75256,2018-06-29 09:24:03.750000,59.81,95.53
75257,2018-06-29 09:24:03.781250,124.6,95.53
75258,2018-06-29 09:24:03.812500,160.09,95.53
75259,2018-06-29 09:24:03.843750,166.03,95.53
75260,2018-06-29 09:24:03.875000,146.75,95.53
75261,2018-06-29 09:24:03.906250,113.14,95.53
75262,2018-06-29 09:24:03.937500,73.98,95.53
75263,2018-06-29 09:24:03.968750,32.21,95.53
75264,2018-06-29 09:24:04.000000,-8.71,95.53
75265,2018-06-29 09:24:04.031250,-44.29,95.53
75266,2018-06-29 09:24:04.062500,-73.34,95.53
75267,2018-06-29 09:24:04.093750,-88.04,95.53
75268,2018-06-29 09:24:04.125000,-66.98,95.53
75269,2018-06-29 09:24:04.156250,-1.92,95.53
75270,2018-06-29 09:24:04.187500,77.52,95.53
75271,2018-06-29 09:24:04.218750,132.82,95.53
75272,2018-06-29 09:24:04.250000,157.35,95.53
75273,2018-06-29 09:24:04.281250,165.75,95.53
75274,2018-06-29 09:24:04.312500,162.56,95.53
75275,2018-06-29 09:24:04.343750,144.69,95.53
75276,2018-06-29 09:24:04.375000,118.82,95.53
75277,2018-06-29 09:24:04.406250,97.02,95.53
75278,2018-06-29 09:24:04.437500,84.29,95.53
75279,2018-06-29 09:24:04.468750,78.55,95.53
75280,2018-06-29 09:24:04.500000,67.46,95.53
75281,2018-06-29 09:24:04.531250,27.13,95.65
75282,2018-06-29 09:24:04.562500,-45.29,95.65
75283,2018-06-29 09:24:04.593750,-106.96,95.65
75284,2018-06-29 09:24:04.625000,-117.02,95.65
75285,2018-06-29 09:24:04.656250,-91.75,95.65
75286,2018-06-29 09:24:04.687500,-74.0,95.65
75287,2018-06-29 09:24:04.718750,-75.02,95.65
75288,2018-06-29 09:24:04.750000,-79.54,95.65
75289,2018-06-29 09:24:04.781250,-80.35,95.65
75290,2018-06-29 09:24:04.812500,-82.29,95.65
75291,2018-06-29 09:24:04.843750,-88.19,95.65
75292,2018-06-29 09:24:04.875000,-94.2,95.65
75293,2018-06-29 09:24:04.906250,-95.38,95.65
75294,2018-06-29 09:24:04.937500,-89.85,95.65
75295,2018-06-29 09:24:04.968750,-79.71,95.65
75296,2018-06-29 09:24:05.000000,-74.53,95.65
75297,2018-06-29 09:24:05.031250,-84.36,95.65
75298,2018-06-29 09:24:05.062500,-98.19,95.65
75299,2018-06-29 09:24:05.093750,-89.64,95.65
75300,2018-06-29 09:24:05.125000,-54.62,95.65
75301,2018-06-29 09:24:05.156250,-18.69,95.65
75302,2018-06-29 09:24:05.187500,-0.06,95.65
75303,2018-06-29 09:24:05.218750,8.76,95.65
75304,2018-06-29 09:24:05.250000,19.71,95.65
75305,2018-06-29 09:24:05.281250,32.86,95.65
75306,2018-06-29 09:24:05.312500,43.06,95.65
75307,2018-06-29 09:24:05.343750,47.94,95.65
75308,2018-06-29 09:24:05.375000,46.59,95.65
75309,2018-06-29 09:24:05.406250,37.15,95.65
75310,2018-06-29 09:24:05.437500,18.15,95.65
75311,2018-06-29 09:24:05.468750,-10.08,95.65
75312,2018-06-29 09:24:05.500000,-38.55,95.65
75313,2018-06-29 09:24:05.531250,-42.31,95.75
75314,2018-06-29 09:24:05.562500,2.56,95.75
75315,2018-06-29 09:24:05.593750,83.03,95.75
75316,2018-06-29 09:24:05.625000,148.19,95.75
75317,2018-06-29 09:24:05.656250,158.45,95.75
75318,2018-06-29 09:24:05.687500,121.13,95.75
75319,2018-06-29 09:24:05.718750,66.41,95.75
75320,2018-06-29 09:24:05.750000,9.58,95.75
75321,2018-06-29 09:24:05.781250,-48.93,95.75
75322,2018-06-29 09:24:05.812500,-105.44,95.75
75323,2018-06-29 09:24:05.843750,-152.01,95.75
75324,2018-06-29 09:24:05.875000,-182.59,95.75
75325,2018-06-29 09:24:05.906250,-194.11,95.75
75326,2018-06-29 09:24:05.937500,-191.18,95.75
75327,2018-06-29 09:24:05.968750,-183.11,95.75
75328,2018-06-29 09:24:06.000000,-163.73,95.75
75329,2018-06-29 09:24:06.031250,-109.95,95.75
75330,2018-06-29 09:24:06.062500,-16.66,95.75
75331,2018-06-29 09:24:06.093750,84.18,95.75
75332,2018-06-29 09:24:06.125000,152.73,95.75
75333,2018-06-29 09:24:06.156250,174.37,95.75
75334,2018-06-29 09:24:06.187500,158.38,95.75
75335,2018-06-29 09:24:06.218750,120.53,95.75
75336,2018-06-29 09:24:06.250000,74.22,95.75
75337,2018-06-29 09:24:06.281250,28.79,95.75
75338,2018-06-29 09:24:06.312500,-9.55,95.75
75339,2018-06-29 09:24:06.343750,-36.47,95.75
75340,2018-06-29 09:24:06.375000,-50.3,95.75
75341,2018-06-29 09:24:06.406250,-55.04,95.75
75342,2018-06-29 09:24:06.437500,-59.5,95.75
75343,2018-06-29 09:24:06.468750,-65.58,95.75
75344,2018-06-29 09:24:06.500000,-57.05,95.75
75345,2018-06-29 09:24:06.531250,-14.74,95.88
75346,2018-06-29 09:24:06.562500,55.67,95.88
75347,2018-06-29 09:24:06.593750,127.17,95.88
75348,2018-06-29 09:24:06.625000,180.29,95.88
75349,2018-06-29 09:24:06.656250,208.26,95.88
75350,2018-06-29 09:24:06.687500,201.62,95.88
75351,2018-06-29 09:24:06.718750,154.4,95.88
75352,2018-06-29 09:24:06.750000,82.37,95.88
75353,2018-06-29 09:24:06.781250,12.94,95.88
75354,2018-06-29 09:24:06.812500,-41.47,95.88
75355,2018-06-29 09:24:06.843750,-85.36,95.88
75356,2018-06-29 09:24:06.875000,-123.95,95.88
75357,2018-06-29 09:24:06.906250,-160.53,95.88
75358,2018-06-29 09:24:06.937500,-196.53,95.88
75359,2018-06-29 09:24:06.968750,-215.92,95.88
75360,2018-06-29 09:24:07.000000,-188.69,95.88
75361,2018-06-29 09:24:07.031250,-109.72,95.88
75362,2018-06-29 09:24:07.062500,-15.03,95.88
75363,2018-06-29 09:24:07.093750,56.22,95.88
75364,2018-06-29 09:24:07.125000,95.55,95.88
75365,2018-06-29 09:24:07.156250,113.34,95.88
75366,2018-06-29 09:24:07.187500,117.05,95.88
75367,2018-06-29 09:24:07.218750,109.23,95.88
75368,2018-06-29 09:24:07.250000,90.24,95.88
75369,2018-06-29 09:24:07.281250,58.92,95.88
75370,2018-06-29 09:24:07.312500,17.47,95.88
75371,2018-06-29 09:24:07.343750,-27.05,95.88
75372,2018-06-29 09:24:07.375000,-71.23,95.88
75373,2018-06-29 09:24:07.406250,-114.9,95.88
75374,2018-06-29 09:24:07.437500,-145.42,95.88
75375,2018-06-29 09:24:07.468750,-138.77,95.88
75376,2018-06-29 09:24:07.500000,-87.81,95.88
75377,2018-06-29 09:24:07.531250,-15.91,96.05
75378,2018-06-29 09:24:07.562500,48.33,96.05
75379,2018-06-29 09:24:07.593750,93.17,96.05
75380,2018-06-29 09:24:07.625000,115.68,96.05
75381,2018-06-29 09:24:07.656250,112.83,96.05
75382,2018-06-29 09:24:07.687500,90.17,96.05
75383,2018-06-29 09:24:07.718750,65.09,96.05
75384,2018-06-29 09:24:07.750000,53.54,96.05
75385,2018-06-29 09:24:07.781250,53.43,96.05
75386,2018-06-29 09:24:07.812500,44.81,96.05
75387,2018-06-29 09:24:07.843750,11.81,96.05
75388,2018-06-29 09:24:07.875000,-37.51,96.05
75389,2018-06-29 09:24:07.906250,-77.15,96.05
75390,2018-06-29 09:24:07.937500,-83.35,96.05
75391,2018-06-29 09:24:07.968750,-50.92,96.05
75392,2018-06-29 09:24:08.000000,0.2,96.05
75393,2018-06-29 09:24:08.031250,39.11,96.05
75394,2018-06-29 09:24:08.062500,50.9,96.05
75395,2018-06-29 09:24:08.093750,41.94,96.05
75396,2018-06-29 09:24:08.125000,21.58,96.05
75397,2018-06-29 09:24:08.156250,-6.89,96.05
75398,2018-06-29 09:24:08.187500,-38.69,96.05
75399,2018-06-29 09:24:08.218750,-64.87,96.05
75400,2018-06-29 09:24:08.250000,-80.17,96.05
75401,2018-06-29 09:24:08.281250,-86.74,96.05
75402,2018-06-29 09:24:08.312500,-91.05,96.05
75403,2018-06-29 09:24:08.343750,-101.04,96.05
75404,2018-06-29 09:24:08.375000,-117.51,96.05
75405,2018-06-29 09:24:08.406250,-122.27,96.05
75406,2018-06-29 09:24:08.437500,-91.78,96.05
75407,2018-06-29 09:24:08.468750,-30.88,96.05
75408,2018-06-29 09:24:08.500000,26.71,96.05
75409,2018-06-29 09:24:08.531250,56.63,96.23
75410,2018-06-29 09:24:08.562500,61.55,96.23
75411,2018-06-29 09:24:08.593750,52.72,96.23
75412,2018-06-29 09:24:08.625000,37.66,96.23
75413,2018-06-29 09:24:08.656250,24.45,96.23
75414,2018-06-29 09:24:08.687500,18.9,96.23
75415,2018-06-29 09:24:08.718750,18.07,96.23
75416,2018-06-29 09:24:08.750000,16.35,96.23
75417,2018-06-29 09:24:08.781250,12.64,96.23
75418,2018-06-29 09:24:08.812500,3.69,96.23
75419,2018-06-29 09:24:08.843750,-13.72,96.23
75420,2018-06-29 09:24:08.875000,-23.31,96.23
75421,2018-06-29 09:24:08.906250,5.56,96.23
75422,2018-06-29 09:24:08.937500,77.56,96.23
75423,2018-06-29 09:24:08.968750,156.87,96.23
75424,2018-06-29 09:24:09.000000,202.03,96.23
75425,2018-06-29 09:24:09.031250,199.73,96.23
75426,2018-06-29 09:24:09.062500,164.01,96.23
75427,2018-06-29 09:24:09.093750,116.55,96.23
75428,2018-06-29 09:24:09.125000,70.13,96.23
75429,2018-06-29 09:24:09.156250,27.54,96.23
75430,2018-06-29 09:24:09.187500,-8.68,96.23
75431,2018-06-29 09:24:09.218750,-34.96,96.23
75432,2018-06-29 09:24:09.250000,-49.93,96.23
75433,2018-06-29 09:24:09.281250,-55.3,96.23
75434,2018-06-29 09:24:09.312500,-57.27,96.23
75435,2018-06-29 09:24:09.343750,-52.76,96.23
75436,2018-06-29 09:24:09.375000,-12.47,96.23
75437,2018-06-29 09:24:09.406250,87.15,96.23
75438,2018-06-29 09:24:09.437500,212.5,96.23
75439,2018-06-29 09:24:09.468750,297.1,96.23
75440,2018-06-29 09:24:09.500000,312.66,96.23
75441,2018-06-29 09:24:09.531250,278.96,96.38
75442,2018-06-29 09:24:09.562500,221.84,96.38
75443,2018-06-29 09:24:09.593750,156.38,96.38
75444,2018-06-29 09:24:09.625000,91.13,96.38
75445,2018-06-29 09:24:09.656250,22.1,96.38
75446,2018-06-29 09:24:09.687500,-56.78,96.38
75447,2018-06-29 09:24:09.718750,-126.03,96.38
75448,2018-06-29 09:24:09.750000,-157.0,96.38
75449,2018-06-29 09:24:09.781250,-159.89,96.38
75450,2018-06-29 09:24:09.812500,-171.94,96.38
75451,2018-06-29 09:24:09.843750,-200.32,96.38
75452,2018-06-29 09:24:09.875000,-222.38,96.38
75453,2018-06-29 09:24:09.906250,-230.65,96.38
75454,2018-06-29 09:24:09.937500,-235.44,96.38
75455,2018-06-29 09:24:09.968750,-240.21,96.38
75456,2018-06-29 09:24:10.000000,-242.75,96.38
75457,2018-06-29 09:24:10.031250,-241.87,96.38
75458,2018-06-29 09:24:10.062500,-230.92,96.38
75459,2018-06-29 09:24:10.093750,-201.9,96.38
75460,2018-06-29 09:24:10.125000,-159.91,96.38
75461,2018-06-29 09:24:10.156250,-122.56,96.38
75462,2018-06-29 09:24:10.187500,-104.63,96.38
75463,2018-06-29 09:24:10.218750,-109.96,96.38
75464,2018-06-29 09:24:10.250000,-134.55,96.38
75465,2018-06-29 09:24:10.281250,-163.69,96.38
75466,2018-06-29 09:24:10.312500,-166.59,96.38
75467,2018-06-29 09:24:10.343750,-117.7,96.38
75468,2018-06-29 09:24:10.375000,-29.14,96.38
75469,2018-06-29 09:24:10.406250,58.11,96.38
75470,2018-06-29 09:24:10.437500,115.89,96.38
75471,2018-06-29 09:24:10.468750,143.63,96.38
75472,2018-06-29 09:24:10.500000,149.49,96.38
75473,2018-06-29 09:24:10.531250,140.0,96.53
75474,2018-06-29 09:24:10.562500,125.07,96.53
75475,2018-06-29 09:24:10.593750,116.5,96.53
75476,2018-06-29 09:24:10.625000,117.14,96.53
75477,2018-06-29 09:24:10.656250,117.93,96.53
75478,2018-06-29 09:24:10.687500,106.26,96.53
75479,2018-06-29 09:24:10.718750,72.45,96.53
75480,2018-06-29 09:24:10.750000,17.44,96.53
75481,2018-06-29 09:24:10.781250,-31.76,96.53
75482,2018-06-29 09:24:10.812500,-33.67,96.53
75483,2018-06-29 09:24:10.843750,18.75,96.53
75484,2018-06-29 09:24:10.875000,81.44,96.53
75485,2018-06-29 09:24:10.906250,111.01,96.53
75486,2018-06-29 09:24:10.937500,106.15,96.53
75487,2018-06-29 09:24:10.968750,85.97,96.53
75488,2018-06-29 09:24:11.000000,60.66,96.53
75489,2018-06-29 09:24:11.031250,35.59,96.53
75490,2018-06-29 09:24:11.062500,18.15,96.53
75491,2018-06-29 09:24:11.093750,10.05,96.53
75492,2018-06-29 09:24:11.125000,5.47,96.53
75493,2018-06-29 09:24:11.156250,-2.59,96.53
75494,2018-06-29 09:24:11.187500,-19.39,96.53
75495,2018-06-29 09:24:11.218750,-44.39,96.53
75496,2018-06-29 09:24:11.250000,-60.29,96.53
75497,2018-06-29 09:24:11.281250,-37.65,96.53
75498,2018-06-29 09:24:11.312500,32.68,96.53
75499,2018-06-29 09:24:11.343750,121.76,96.53
75500,2018-06-29 09:24:11.375000,191.83,96.53
75501,2018-06-29 09:24:11.406250,229.1,96.53
75502,2018-06-29 09:24:11.437500,239.39,96.53
75503,2018-06-29 09:24:11.468750,232.65,96.53
75504,2018-06-29 09:24:11.500000,225.07,96.53
75505,2018-06-29 09:24:11.531250,232.14,96.73
75506,2018-06-29 09:24:11.562500,255.43,96.73
75507,2018-06-29 09:24:11.593750,279.18,96.73
75508,2018-06-29 09:24:11.625000,276.23,96.73
75509,2018-06-29 09:24:11.656250,227.03,96.73
75510,2018-06-29 09:24:11.687500,137.67,96.73
75511,2018-06-29 09:24:11.718750,34.6,96.73
75512,2018-06-29 09:24:11.750000,-47.27,96.73
75513,2018-06-29 09:24:11.781250,-73.92,96.73
75514,2018-06-29 09:24:11.812500,-44.92,96.73
75515,2018-06-29 09:24:11.843750,-12.87,96.73
75516,2018-06-29 09:24:11.875000,-28.79,96.73
75517,2018-06-29 09:24:11.906250,-90.42,96.73
75518,2018-06-29 09:24:11.937500,-167.18,96.73
75519,2018-06-29 09:24:11.968750,-236.6,96.73
75520,2018-06-29 09:24:12.000000,-279.57,96.73
75521,2018-06-29 09:24:12.031250,-281.76,96.73
75522,2018-06-29 09:24:12.062500,-253.39,96.73
75523,2018-06-29 09:24:12.093750,-224.58,96.73
75524,2018-06-29 09:24:12.125000,-216.65,96.73
75525,2018-06-29 09:24:12.156250,-228.56,96.73
75526,2018-06-29 09:24:12.187500,-237.76,96.73
75527,2018-06-29 09:24:12.218750,-210.02,96.73
75528,2018-06-29 09:24:12.250000,-129.36,96.73
75529,2018-06-29 09:24:12.281250,-22.04,96.73
75530,2018-06-29 09:24:12.312500,67.77,96.73
75531,2018-06-29 09:24:12.343750,121.21,96.73
75532,2018-06-29 09:24:12.375000,146.45,96.73
75533,2018-06-29 09:24:12.406250,152.57,96.73
75534,2018-06-29 09:24:12.437500,145.25,96.73
75535,2018-06-29 09:24:12.468750,137.07,96.73
75536,2018-06-29 09:24:12.500000,142.54,96.73
75537,2018-06-29 09:24:12.531250,164.24,96.93
75538,2018-06-29 09:24:12.562500,191.98,96.93
75539,2018-06-29 09:24:12.593750,210.43,96.93
75540,2018-06-29 09:24:12.625000,201.8,96.93
75541,2018-06-29 09:24:12.656250,160.08,96.93
75542,2018-06-29 09:24:12.687500,117.16,96.93
75543,2018-06-29 09:24:12.718750,120.11,96.93
75544,2018-06-29 09:24:12.750000,162.43,96.93
75545,2018-06-29 09:24:12.781250,184.5,96.93
75546,2018-06-29 09:24:12.812500,156.77,96.93
75547,2018-06-29 09:24:12.843750,108.88,96.93
75548,2018-06-29 09:24:12.875000,69.65,96.93
75549,2018-06-29 09:24:12.906250,31.46,96.93
75550,2018-06-29 09:24:12.937500,-24.53,96.93
75551,2018-06-29 09:24:12.968750,-103.56,96.93
75552,2018-06-29 09:24:13.000000,-181.4,96.93
75553,2018-06-29 09:24:13.031250,-211.35,96.93
75554,2018-06-29 09:24:13.062500,-173.45,96.93
75555,2018-06-29 09:24:13.093750,-108.76,96.93
75556,2018-06-29 09:24:13.125000,-77.61,96.93
75557,2018-06-29 09:24:13.156250,-101.47,96.93
75558,2018-06-29 09:24:13.187500,-161.94,96.93
75559,2018-06-29 09:24:13.218750,-234.91,96.93
75560,2018-06-29 09:24:13.250000,-309.79,96.93
75561,2018-06-29 09:24:13.281250,-385.89,96.93
75562,2018-06-29 09:24:13.312500,-449.92,96.93
75563,2018-06-29 09:24:13.343750,-474.87,96.93
75564,2018-06-29 09:24:13.375000,-468.77,96.93
75565,2018-06-29 09:24:13.406250,-475.96,96.93
75566,2018-06-29 09:24:13.437500,-497.19,96.93
75567,2018-06-29 09:24:13.468750,-481.1,96.93
75568,2018-06-29 09:24:13.500000,-415.2,96.93
75569,2018-06-29 09:24:13.531250,-339.17,97.22
75570,2018-06-29 09:24:13.562500,-271.05,97.22
75571,2018-06-29 09:24:13.593750,-200.56,97.22
75572,2018-06-29 09:24:13.625000,-132.43,97.22
75573,2018-06-29 09:24:13.656250,-75.11,97.22
75574,2018-06-29 09:24:13.687500,-20.97,97.22
75575,2018-06-29 09:24:13.718750,36.52,97.22
75576,2018-06-29 09:24:13.750000,88.55,97.22
75577,2018-06-29 09:24:13.781250,128.82,97.22
75578,2018-06-29 09:24:13.812500,168.94,97.22
75579,2018-06-29 09:24:13.843750,218.78,97.22
75580,2018-06-29 09:24:13.875000,256.58,97.22
75581,2018-06-29 09:24:13.906250,250.03,97.22
75582,2018-06-29 09:24:13.937500,203.03,97.22
75583,2018-06-29 09:24:13.968750,148.82,97.22
75584,2018-06-29 09:24:14.000000,100.59,97.22
75585,2018-06-29 09:24:14.031250,45.94,97.22
75586,2018-06-29 09:24:14.062500,-21.53,97.22
75587,2018-06-29 09:24:14.093750,-92.13,97.22
75588,2018-06-29 09:24:14.125000,-142.3,97.22
75589,2018-06-29 09:24:14.156250,-143.04,97.22
75590,2018-06-29 09:24:14.187500,-88.22,97.22
75591,2018-06-29 09:24:14.218750,-3.38,97.22
75592,2018-06-29 09:24:14.250000,85.93,97.22
75593,2018-06-29 09:24:14.281250,164.44,97.22
75594,2018-06-29 09:24:14.312500,205.76,97.22
75595,2018-06-29 09:24:14.343750,188.66,97.22
75596,2018-06-29 09:24:14.375000,130.79,97.22
75597,2018-06-29 09:24:14.406250,68.09,97.22
75598,2018-06-29 09:24:14.437500,15.73,97.22
75599,2018-06-29 09:24:14.468750,-28.71,97.22
75600,2018-06-29 09:24:14.500000,-62.84,97.22
75601,2018-06-29 09:24:14.531250,-84.07,97.53
75602,2018-06-29 09:24:14.562500,-95.76,97.53
75603,2018-06-29 09:24:14.593750,-92.03,97.53
75604,2018-06-29 09:24:14.625000,-54.67,97.53
75605,2018-06-29 09:24:14.656250,21.37,97.53
75606,2018-06-29 09:24:14.687500,118.61,97.53
75607,2018-06-29 09:24:14.718750,216.46,97.53
75608,2018-06-29 09:24:14.750000,298.35,97.53
75609,2018-06-29 09:24:14.781250,341.99,97.53
75610,2018-06-29 09:24:14.812500,336.56,97.53
75611,2018-06-29 09:24:14.843750,299.95,97.53
75612,2018-06-29 09:24:14.875000,252.59,97.53
75613,2018-06-29 09:24:14.906250,192.32,97.53
75614,2018-06-29 09:24:14.937500,109.94,97.53
75615,2018-06-29 09:24:14.968750,11.43,97.53
75616,2018-06-29 09:24:15.000000,-89.75,97.53
75617,2018-06-29 09:24:15.031250,-188.0,97.53
75618,2018-06-29 09:24:15.062500,-271.21,97.53
75619,2018-06-29 09:24:15.093750,-303.25,97.53
75620,2018-06-29 09:24:15.125000,-255.4,97.53
75621,2018-06-29 09:24:15.156250,-148.55,97.53
75622,2018-06-29 09:24:15.187500,-31.4,97.53
75623,2018-06-29 09:24:15.218750,65.9,97.53
75624,2018-06-29 09:24:15.250000,131.46,97.53
75625,2018-06-29 09:24:15.281250,160.33,97.53
75626,2018-06-29 09:24:15.312500,161.34,97.53
75627,2018-06-29 09:24:15.343750,150.71,97.53
75628,2018-06-29 09:24:15.375000,136.47,97.53
75629,2018-06-29 09:24:15.406250,117.77,97.53
75630,2018-06-29 09:24:15.437500,92.32,97.53
75631,2018-06-29 09:24:15.468750,59.77,97.53
75632,2018-06-29 09:24:15.500000,16.74,97.53
75633,2018-06-29 09:24:15.531250,-41.87,97.82
75634,2018-06-29 09:24:15.562500,-99.07,97.82
75635,2018-06-29 09:24:15.593750,-109.73,97.82
75636,2018-06-29 09:24:15.625000,-50.3,97.82
75637,2018-06-29 09:24:15.656250,45.47,97.82
75638,2018-06-29 09:24:15.687500,125.99,97.82
75639,2018-06-29 09:24:15.718750,169.55,97.82
75640,2018-06-29 09:24:15.750000,179.23,97.82
75641,2018-06-29 09:24:15.781250,163.24,97.82
75642,2018-06-29 09:24:15.812500,133.65,97.82
75643,2018-06-29 09:24:15.843750,104.41,97.82
75644,2018-06-29 09:24:15.875000,84.39,97.82
75645,2018-06-29 09:24:15.906250,75.67,97.82
75646,2018-06-29 09:24:15.937500,75.63,97.82
75647,2018-06-29 09:24:15.968750,74.66,97.82
75648,2018-06-29 09:24:16.000000,53.79,97.82
75649,2018-06-29 09:24:16.031250,4.45,97.82
75650,2018-06-29 09:24:16.062500,-44.14,97.82
75651,2018-06-29 09:24:16.093750,-50.13,97.82
75652,2018-06-29 09:24:16.125000,-13.36,97.82
75653,2018-06-29 09:24:16.156250,29.65,97.82
75654,2018-06-29 09:24:16.187500,55.06,97.82
75655,2018-06-29 09:24:16.218750,61.36,97.82
75656,2018-06-29 09:24:16.250000,48.82,97.82
75657,2018-06-29 09:24:16.281250,18.63,97.82
75658,2018-06-29 09:24:16.312500,-21.95,97.82
75659,2018-06-29 09:24:16.343750,-62.21,97.82
75660,2018-06-29 09:24:16.375000,-92.98,97.82
75661,2018-06-29 09:24:16.406250,-111.51,97.82
75662,2018-06-29 09:24:16.437500,-123.26,97.82
75663,2018-06-29 09:24:16.468750,-135.73,97.82
75664,2018-06-29 09:24:16.500000,-150.6,97.82
75665,2018-06-29 09:24:16.531250,-155.22,98.17
75666,2018-06-29 09:24:16.562500,-122.48,98.17
75667,2018-06-29 09:24:16.593750,-41.7,98.17
75668,2018-06-29 09:24:16.625000,55.34,98.17
75669,2018-06-29 09:24:16.656250,122.19,98.17
75670,2018-06-29 09:24:16.687500,143.49,98.17
75671,2018-06-29 09:24:16.718750,130.83,98.17
75672,2018-06-29 09:24:16.750000,94.56,98.17
75673,2018-06-29 09:24:16.781250,43.79,98.17
75674,2018-06-29 09:24:16.812500,-4.81,98.17
75675,2018-06-29 09:24:16.843750,-37.3,98.17
75676,2018-06-29 09:24:16.875000,-54.17,98.17
75677,2018-06-29 09:24:16.906250,-62.22,98.17
75678,2018-06-29 09:24:16.937500,-63.08,98.17
75679,2018-06-29 09:24:16.968750,-61.47,98.17
75680,2018-06-29 09:24:17.000000,-60.82,98.17
75681,2018-06-29 09:24:17.031250,-45.62,98.17
75682,2018-06-29 09:24:17.062500,7.8,98.17
75683,2018-06-29 09:24:17.093750,94.14,98.17
75684,2018-06-29 09:24:17.125000,175.43,98.17
75685,2018-06-29 09:24:17.156250,218.45,98.17
75686,2018-06-29 09:24:17.187500,217.08,98.17
75687,2018-06-29 09:24:17.218750,184.37,98.17
75688,2018-06-29 09:24:17.250000,132.17,98.17
75689,2018-06-29 09:24:17.281250,63.89,98.17
75690,2018-06-29 09:24:17.312500,-12.05,98.17
75691,2018-06-29 09:24:17.343750,-80.37,98.17
75692,2018-06-29 09:24:17.375000,-130.83,98.17
75693,2018-06-29 09:24:17.406250,-166.42,98.17
75694,2018-06-29 09:24:17.437500,-198.37,98.17
75695,2018-06-29 09:24:17.468750,-233.48,98.17
75696,2018-06-29 09:24:17.500000,-257.51,98.17
75697,2018-06-29 09:24:17.531250,-236.64,98.53
75698,2018-06-29 09:24:17.562500,-153.41,98.53
75699,2018-06-29 09:24:17.593750,-36.17,98.53
75700,2018-06-29 09:24:17.625000,64.31,98.53
75701,2018-06-29 09:24:17.656250,122.21,98.53
75702,2018-06-29 09:24:17.687500,142.81,98.53
75703,2018-06-29 09:24:17.718750,133.75,98.53
75704,2018-06-29 09:24:17.750000,99.78,98.53
75705,2018-06-29 09:24:17.781250,54.59,98.53
75706,2018-06-29 09:24:17.812500,14.47,98.53
75707,2018-06-29 09:24:17.843750,-15.04,98.53
75708,2018-06-29 09:24:17.875000,-39.95,98.53
75709,2018-06-29 09:24:17.906250,-68.94,98.53
75710,2018-06-29 09:24:17.937500,-106.12,98.53
75711,2018-06-29 09:24:17.968750,-143.93,98.53
75712,2018-06-29 09:24:18.000000,-156.78,98.53
75713,2018-06-29 09:24:18.031250,-116.35,98.53
75714,2018-06-29 09:24:18.062500,-27.86,98.53
75715,2018-06-29 09:24:18.093750,68.7,98.53
75716,2018-06-29 09:24:18.125000,138.93,98.53
75717,2018-06-29 09:24:18.156250,176.17,98.53
75718,2018-06-29 09:24:18.187500,184.88,98.53
75719,2018-06-29 09:24:18.218750,170.63,98.53
75720,2018-06-29 09:24:18.250000,145.61,98.53
75721,2018-06-29 09:24:18.281250,126.28,98.53
75722,2018-06-29 09:24:18.312500,115.89,98.53
75723,2018-06-29 09:24:18.343750,95.88,98.53
75724,2018-06-29 09:24:18.375000,51.57,98.53
75725,2018-06-29 09:24:18.406250,-8.87,98.53
75726,2018-06-29 09:24:18.437500,-71.74,98.53
75727,2018-06-29 09:24:18.468750,-124.13,98.53
75728,2018-06-29 09:24:18.500000,-142.45,98.53
75729,2018-06-29 09:24:18.531250,-112.72,98.92
75730,2018-06-29 09:24:18.562500,-56.94,98.92
75731,2018-06-29 09:24:18.593750,-11.27,98.92
75732,2018-06-29 09:24:18.625000,9.99,98.92
75733,2018-06-29 09:24:18.656250,16.28,98.92
75734,2018-06-29 09:24:18.687500,19.87,98.92
75735,2018-06-29 09:24:18.718750,19.66,98.92
75736,2018-06-29 09:24:18.750000,11.15,98.92
75737,2018-06-29 09:24:18.781250,4.73,98.92
75738,2018-06-29 09:24:18.812500,13.94,98.92
75739,2018-06-29 09:24:18.843750,32.34,98.92
75740,2018-06-29 09:24:18.875000,37.26,98.92
75741,2018-06-29 09:24:18.906250,12.73,98.92
75742,2018-06-29 09:24:18.937500,-31.78,98.92
75743,2018-06-29 09:24:18.968750,-60.48,98.92
75744,2018-06-29 09:24:19.000000,-43.23,98.92
75745,2018-06-29 09:24:19.031250,8.45,98.92
75746,2018-06-29 09:24:19.062500,53.23,98.92
75747,2018-06-29 09:24:19.093750,70.08,98.92
75748,2018-06-29 09:24:19.125000,71.19,98.92
75749,2018-06-29 09:24:19.156250,69.02,98.92
75750,2018-06-29 09:24:19.187500,58.92,98.92
75751,2018-06-29 09:24:19.218750,39.46,98.92
75752,2018-06-29 09:24:19.250000,24.44,98.92
75753,2018-06-29 09:24:19.281250,23.96,98.92
75754,2018-06-29 09:24:19.312500,28.7,98.92
75755,2018-06-29 09:24:19.343750,22.03,98.92
75756,2018-06-29 09:24:19.375000,-2.81,98.92
75757,2018-06-29 09:24:19.406250,-42.2,98.92
75758,2018-06-29 09:24:19.437500,-80.84,98.92
75759,2018-06-29 09:24:19.468750,-91.84,98.92
75760,2018-06-29 09:24:19.500000,-60.23,98.92
75761,2018-06-29 09:24:19.531250,-2.87,99.42
75762,2018-06-29 09:24:19.562500,45.96,99.42
75763,2018-06-29 09:24:19.593750,65.99,99.42
75764,2018-06-29 09:24:19.625000,58.86,99.42
75765,2018-06-29 09:24:19.656250,35.72,99.42
75766,2018-06-29 09:24:19.687500,2.88,99.42
75767,2018-06-29 09:24:19.718750,-36.67,99.42
75768,2018-06-29 09:24:19.750000,-72.45,99.42
75769,2018-06-29 09:24:19.781250,-93.29,99.42
75770,2018-06-29 09:24:19.812500,-98.63,99.42
75771,2018-06-29 09:24:19.843750,-94.05,99.42
75772,2018-06-29 09:24:19.875000,-87.36,99.42
75773,2018-06-29 09:24:19.906250,-83.91,99.42
75774,2018-06-29 09:24:19.937500,-72.57,99.42
75775,2018-06-29 09:24:19.968750,-33.78,99.42
75776,2018-06-29 09:24:20.000000,24.41,99.42
75777,2018-06-29 09:24:20.031250,66.96,99.42
75778,2018-06-29 09:24:20.062500,76.16,99.42
75779,2018-06-29 09:24:20.093750,62.87,99.42
75780,2018-06-29 09:24:20.125000,38.94,99.42
75781,2018-06-29 09:24:20.156250,8.09,99.42
75782,2018-06-29 09:24:20.187500,-21.79,99.42
75783,2018-06-29 09:24:20.218750,-40.33,99.42
75784,2018-06-29 09:24:20.250000,-44.18,99.42
75785,2018-06-29 09:24:20.281250,-37.08,99.42
75786,2018-06-29 09:24:20.312500,-25.5,99.42
75787,2018-06-29 09:24:20.343750,-19.07,99.42
75788,2018-06-29 09:24:20.375000,-24.18,99.42
75789,2018-06-29 09:24:20.406250,-27.57,99.42
75790,2018-06-29 09:24:20.437500,1.31,99.42
75791,2018-06-29 09:24:20.468750,70.49,99.42
75792,2018-06-29 09:24:20.500000,142.27,99.42
75793,2018-06-29 09:24:20.531250,171.9,99.95
75794,2018-06-29 09:24:20.562500,155.44,99.95
75795,2018-06-29 09:24:20.593750,116.95,99.95
75796,2018-06-29 09:24:20.625000,70.01,99.95
75797,2018-06-29 09:24:20.656250,19.74,99.95
75798,2018-06-29 09:24:20.687500,-21.38,99.95
75799,2018-06-29 09:24:20.718750,-47.79,99.95
75800,2018-06-29 09:24:20.750000,-71.82,99.95
75801,2018-06-29 09:24:20.781250,-100.95,99.95
75802,2018-06-29 09:24:20.812500,-129.24,99.95
75803,2018-06-29 09:24:20.843750,-155.94,99.95
75804,2018-06-29 09:24:20.875000,-180.82,99.95
75805,2018-06-29 09:24:20.906250,-181.58,99.95
75806,2018-06-29 09:24:20.937500,-132.6,99.95
75807,2018-06-29 09:24:20.968750,-45.56,99.95
75808,2018-06-29 09:24:21.000000,39.34,99.95
75809,2018-06-29 09:24:21.031250,97.93,99.95
75810,2018-06-29 09:24:21.062500,129.83,99.95
75811,2018-06-29 09:24:21.093750,133.52,99.95
75812,2018-06-29 09:24:21.125000,106.95,99.95
75813,2018-06-29 09:24:21.156250,66.29,99.95
75814,2018-06-29 09:24:21.187500,31.06,99.95
75815,2018-06-29 09:24:21.218750,1.75,99.95
75816,2018-06-29 09:24:21.250000,-24.78,99.95
75817,2018-06-29 09:24:21.281250,-44.97,99.95
75818,2018-06-29 09:24:21.312500,-69.49,99.95
75819,2018-06-29 09:24:21.343750,-112.61,99.95
75820,2018-06-29 09:24:21.375000,-148.0,99.95
75821,2018-06-29 09:24:21.406250,-130.36,99.95
75822,2018-06-29 09:24:21.437500,-61.88,99.95
75823,2018-06-29 09:24:21.468750,14.66,99.95
75824,2018-06-29 09:24:21.500000,75.58,99.95
75825,2018-06-29 09:24:21.531250,118.92,100.43
75826,2018-06-29 09:24:21.562500,133.76,100.43
75827,2018-06-29 09:24:21.593750,115.92,100.43
75828,2018-06-29 09:24:21.625000,85.44,100.43
75829,2018-06-29 09:24:21.656250,57.0,100.43
75830,2018-06-29 09:24:21.687500,24.32,100.43
75831,2018-06-29 09:24:21.718750,-13.9,100.43
75832,2018-06-29 09:24:21.750000,-46.99,100.43
75833,2018-06-29 09:24:21.781250,-75.53,100.43
75834,2018-06-29 09:24:21.812500,-111.62,100.43
75835,2018-06-29 09:24:21.843750,-149.2,100.43
75836,2018-06-29 09:24:21.875000,-156.21,100.43
75837,2018-06-29 09:24:21.906250,-111.86,100.43
75838,2018-06-29 09:24:21.937500,-38.79,100.43
75839,2018-06-29 09:24:21.968750,21.67,100.43
75840,2018-06-29 09:24:22.000000,57.34,100.43
75841,2018-06-29 09:24:22.031250,81.0,100.43
75842,2018-06-29 09:24:22.062500,97.16,100.43
75843,2018-06-29 09:24:22.093750,101.82,100.43
75844,2018-06-29 09:24:22.125000,98.94,100.43
75845,2018-06-29 09:24:22.156250,95.15,100.43
75846,2018-06-29 09:24:22.187500,88.4,100.43
75847,2018-06-29 09:24:22.218750,73.64,100.43
75848,2018-06-29 09:24:22.250000,49.62,100.43
75849,2018-06-29 09:24:22.281250,9.34,100.43
75850,2018-06-29 09:24:22.312500,-53.49,100.43
75851,2018-06-29 09:24:22.343750,-116.24,100.43
75852,2018-06-29 09:24:22.375000,-134.53,100.43
75853,2018-06-29 09:24:22.406250,-99.79,100.43
75854,2018-06-29 09:24:22.437500,-49.77,100.43
75855,2018-06-29 09:24:22.468750,-13.4,100.43
75856,2018-06-29 09:24:22.500000,7.54,100.43
75857,2018-06-29 09:24:22.531250,14.58,100.93
75858,2018-06-29 09:24:22.562500,11.69,100.93
75859,2018-06-29 09:24:22.593750,11.87,100.93
75860,2018-06-29 09:24:22.625000,19.36,100.93
75861,2018-06-29 09:24:22.656250,26.38,100.93
75862,2018-06-29 09:24:22.687500,28.16,100.93
75863,2018-06-29 09:24:22.718750,26.62,100.93
75864,2018-06-29 09:24:22.750000,25.98,100.93
75865,2018-06-29 09:24:22.781250,26.55,100.93
75866,2018-06-29 09:24:22.812500,24.78,100.93
75867,2018-06-29 09:24:22.843750,27.93,100.93
75868,2018-06-29 09:24:22.875000,48.02,100.93
75869,2018-06-29 09:24:22.906250,75.9,100.93
75870,2018-06-29 09:24:22.937500,88.75,100.93
75871,2018-06-29 09:24:22.968750,81.29,100.93
75872,2018-06-29 09:24:23.000000,65.74,100.93
75873,2018-06-29 09:24:23.031250,44.12,100.93
75874,2018-06-29 09:24:23.062500,10.39,100.93
75875,2018-06-29 09:24:23.093750,-29.47,100.93
75876,2018-06-29 09:24:23.125000,-58.89,100.93
75877,2018-06-29 09:24:23.156250,-70.2,100.93
75878,2018-06-29 09:24:23.187500,-67.85,100.93
75879,2018-06-29 09:24:23.218750,-53.96,100.93
75880,2018-06-29 09:24:23.250000,-35.97,100.93
75881,2018-06-29 09:24:23.281250,-24.66,100.93
75882,2018-06-29 09:24:23.312500,11.68,100.93
75883,2018-06-29 09:24:23.343750,86.13,100.93
75884,2018-06-29 09:24:23.375000,163.41,100.93
75885,2018-06-29 09:24:23.406250,213.39,100.93
75886,2018-06-29 09:24:23.437500,243.71,100.93
75887,2018-06-29 09:24:23.468750,255.92,100.93
75888,2018-06-29 09:24:23.500000,247.56,100.93
75889,2018-06-29 09:24:23.531250,217.47,101.52
75890,2018-06-29 09:24:23.562500,174.38,101.52
75891,2018-06-29 09:24:23.593750,127.27,101.52
75892,2018-06-29 09:24:23.625000,76.44,101.52
75893,2018-06-29 09:24:23.656250,15.6,101.52
75894,2018-06-29 09:24:23.687500,-54.89,101.52
75895,2018-06-29 09:24:23.718750,-121.03,101.52
75896,2018-06-29 09:24:23.750000,-160.98,101.52
75897,2018-06-29 09:24:23.781250,-157.56,101.52
75898,2018-06-29 09:24:23.812500,-112.4,101.52
75899,2018-06-29 09:24:23.843750,-51.17,101.52
75900,2018-06-29 09:24:23.875000,-6.43,101.52
75901,2018-06-29 09:24:23.906250,9.43,101.52
75902,2018-06-29 09:24:23.937500,3.21,101.52
75903,2018-06-29 09:24:23.968750,-14.84,101.52
75904,2018-06-29 09:24:24.000000,-36.15,101.52
75905,2018-06-29 09:24:24.031250,-57.78,101.52
75906,2018-06-29 09:24:24.062500,-91.4,101.52
75907,2018-06-29 09:24:24.093750,-153.64,101.52
75908,2018-06-29 09:24:24.125000,-246.11,101.52
75909,2018-06-29 09:24:24.156250,-338.19,101.52
75910,2018-06-29 09:24:24.187500,-370.0,101.52
75911,2018-06-29 09:24:24.218750,-310.35,101.52
75912,2018-06-29 09:24:24.250000,-206.75,101.52
75913,2018-06-29 09:24:24.281250,-123.66,101.52
75914,2018-06-29 09:24:24.312500,-61.72,101.52
75915,2018-06-29 09:24:24.343750,-2.92,101.52
75916,2018-06-29 09:24:24.375000,24.83,101.52
75917,2018-06-29 09:24:24.406250,0.3,101.52
75918,2018-06-29 09:24:24.437500,-38.23,101.52
75919,2018-06-29 09:24:24.468750,-48.54,101.52
75920,2018-06-29 09:24:24.500000,-39.5,101.52
75921,2018-06-29 09:24:24.531250,-37.96,102.12
75922,2018-06-29 09:24:24.562500,-45.12,102.12
75923,2018-06-29 09:24:24.593750,-49.3,102.12
75924,2018-06-29 09:24:24.625000,-51.29,102.12
75925,2018-06-29 09:24:24.656250,-57.88,102.12
75926,2018-06-29 09:24:24.687500,-65.51,102.12
75927,2018-06-29 09:24:24.718750,-73.23,102.12
75928,2018-06-29 09:24:24.750000,-82.58,102.12
75929,2018-06-29 09:24:24.781250,-69.2,102.12
75930,2018-06-29 09:24:24.812500,-0.84,102.12
75931,2018-06-29 09:24:24.843750,104.13,102.12
75932,2018-06-29 09:24:24.875000,184.36,102.12
75933,2018-06-29 09:24:24.906250,208.48,102.12
75934,2018-06-29 09:24:24.937500,195.35,102.12
75935,2018-06-29 09:24:24.968750,169.26,102.12
75936,2018-06-29 09:24:25.000000,135.83,102.12
75937,2018-06-29 09:24:25.031250,90.53,102.12
75938,2018-06-29 09:24:25.062500,28.83,102.12
75939,2018-06-29 09:24:25.093750,-51.79,102.12
75940,2018-06-29 09:24:25.125000,-149.82,102.12
75941,2018-06-29 09:24:25.156250,-252.09,102.12
75942,2018-06-29 09:24:25.187500,-333.36,102.12
75943,2018-06-29 09:24:25.218750,-373.06,102.12
75944,2018-06-29 09:24:25.250000,-367.38,102.12
75945,2018-06-29 09:24:25.281250,-318.07,102.12
75946,2018-06-29 09:24:25.312500,-229.48,102.12
75947,2018-06-29 09:24:25.343750,-123.56,102.12
75948,2018-06-29 09:24:25.375000,-34.19,102.12
75949,2018-06-29 09:24:25.406250,20.4,102.12
75950,2018-06-29 09:24:25.437500,46.16,102.12
75951,2018-06-29 09:24:25.468750,56.75,102.12
75952,2018-06-29 09:24:25.500000,59.08,102.12
75953,2018-06-29 09:24:25.531250,53.76,102.68
75954,2018-06-29 09:24:25.562500,44.61,102.68
75955,2018-06-29 09:24:25.593750,39.8,102.68
75956,2018-06-29 09:24:25.625000,42.29,102.68
75957,2018-06-29 09:24:25.656250,44.89,102.68
75958,2018-06-29 09:24:25.687500,39.38,102.68
75959,2018-06-29 09:24:25.718750,33.61,102.68
75960,2018-06-29 09:24:25.750000,52.22,102.68
75961,2018-06-29 09:24:25.781250,106.19,102.68
75962,2018-06-29 09:24:25.812500,170.18,102.68
75963,2018-06-29 09:24:25.843750,209.93,102.68
75964,2018-06-29 09:24:25.875000,218.35,102.68
75965,2018-06-29 09:24:25.906250,205.21,102.68
75966,2018-06-29 09:24:25.937500,174.12,102.68
75967,2018-06-29 09:24:25.968750,129.76,102.68
75968,2018-06-29 09:24:26.000000,86.3,102.68
75969,2018-06-29 09:24:26.031250,54.24,102.68
75970,2018-06-29 09:24:26.062500,28.08,102.68
75971,2018-06-29 09:24:26.093750,-9.26,102.68
75972,2018-06-29 09:24:26.125000,-72.4,102.68
75973,2018-06-29 09:24:26.156250,-158.9,102.68
75974,2018-06-29 09:24:26.187500,-245.89,102.68
75975,2018-06-29 09:24:26.218750,-298.71,102.68
75976,2018-06-29 09:24:26.250000,-287.8,102.68
75977,2018-06-29 09:24:26.281250,-213.11,102.68
75978,2018-06-29 09:24:26.312500,-110.18,102.68
75979,2018-06-29 09:24:26.343750,-12.93,102.68
75980,2018-06-29 09:24:26.375000,79.6,102.68
75981,2018-06-29 09:24:26.406250,170.22,102.68
75982,2018-06-29 09:24:26.437500,221.5,102.68
75983,2018-06-29 09:24:26.468750,198.65,102.68
75984,2018-06-29 09:24:26.500000,127.1,102.68
75985,2018-06-29 09:24:26.531250,57.57,103.23
75986,2018-06-29 09:24:26.562500,6.62,103.23
75987,2018-06-29 09:24:26.593750,-31.59,103.23
75988,2018-06-29 09:24:26.625000,-68.9,103.23
75989,2018-06-29 09:24:26.656250,-126.45,103.23
75990,2018-06-29 09:24:26.687500,-193.81,103.23
75991,2018-06-29 09:24:26.718750,-214.55,103.23
75992,2018-06-29 09:24:26.750000,-162.4,103.23
75993,2018-06-29 09:24:26.781250,-77.21,103.23
75994,2018-06-29 09:24:26.812500,3.31,103.23
75995,2018-06-29 09:24:26.843750,82.92,103.23
75996,2018-06-29 09:24:26.875000,164.92,103.23
75997,2018-06-29 09:24:26.906250,226.03,103.23
75998,2018-06-29 09:24:26.937500,244.3,103.23
75999,2018-06-29 09:24:26.968750,225.67,103.23
76000,2018-06-29 09:24:27.000000,191.03,103.23
76001,2018-06-29 09:24:27.031250,153.53,103.23
76002,2018-06-29 09:24:27.062500,119.18,103.23
76003,2018-06-29 09:24:27.093750,85.48,103.23
76004,2018-06-29 09:24:27.125000,32.33,103.23
76005,2018-06-29 09:24:27.156250,-54.39,103.23
76006,2018-06-29 09:24:27.187500,-143.23,103.23
76007,2018-06-29 09:24:27.218750,-178.28,103.23
76008,2018-06-29 09:24:27.250000,-145.25,103.23
76009,2018-06-29 09:24:27.281250,-85.16,103.23
76010,2018-06-29 09:24:27.312500,-41.06,103.23
76011,2018-06-29 09:24:27.343750,-22.04,103.23
76012,2018-06-29 09:24:27.375000,-19.04,103.23
76013,2018-06-29 09:24:27.406250,-24.6,103.23
76014,2018-06-29 09:24:27.437500,-30.32,103.23
76015,2018-06-29 09:24:27.468750,-25.25,103.23
76016,2018-06-29 09:24:27.500000,-6.6,103.23
76017,2018-06-29 09:24:27.531250,17.57,103.78
76018,2018-06-29 09:24:27.562500,36.88,103.78
76019,2018-06-29 09:24:27.593750,40.2,103.78
76020,2018-06-29 09:24:27.625000,17.34,103.78
76021,2018-06-29 09:24:27.656250,-21.17,103.78
76022,2018-06-29 09:24:27.687500,-35.88,103.78
76023,2018-06-29 09:24:27.718750,5.28,103.78
76024,2018-06-29 09:24:27.750000,87.95,103.78
76025,2018-06-29 09:24:27.781250,163.85,103.78
76026,2018-06-29 09:24:27.812500,194.99,103.78
76027,2018-06-29 09:24:27.843750,180.3,103.78
76028,2018-06-29 09:24:27.875000,149.58,103.78
76029,2018-06-29 09:24:27.906250,137.66,103.78
76030,2018-06-29 09:24:27.937500,156.07,103.78
76031,2018-06-29 09:24:27.968750,185.54,103.78
76032,2018-06-29 09:24:28.000000,197.78,103.78
76033,2018-06-29 09:24:28.031250,181.65,103.78
76034,2018-06-29 09:24:28.062500,142.89,103.78
76035,2018-06-29 09:24:28.093750,88.16,103.78
76036,2018-06-29 09:24:28.125000,30.25,103.78
76037,2018-06-29 09:24:28.156250,2.08,103.78
76038,2018-06-29 09:24:28.187500,32.92,103.78
76039,2018-06-29 09:24:28.218750,110.02,103.78
76040,2018-06-29 09:24:28.250000,186.73,103.78
76041,2018-06-29 09:24:28.281250,226.92,103.78
76042,2018-06-29 09:24:28.312500,223.49,103.78
76043,2018-06-29 09:24:28.343750,182.65,103.78
76044,2018-06-29 09:24:28.375000,114.4,103.78
76045,2018-06-29 09:24:28.406250,38.52,103.78
76046,2018-06-29 09:24:28.437500,-20.06,103.78
76047,2018-06-29 09:24:28.468750,-51.02,103.78
76048,2018-06-29 09:24:28.500000,-66.45,103.78
76049,2018-06-29 09:24:28.531250,-83.78,104.33
76050,2018-06-29 09:24:28.562500,-111.24,104.33
76051,2018-06-29 09:24:28.593750,-145.63,104.33
76052,2018-06-29 09:24:28.625000,-167.08,104.33
76053,2018-06-29 09:24:28.656250,-149.11,104.33
76054,2018-06-29 09:24:28.687500,-94.65,104.33
76055,2018-06-29 09:24:28.718750,-41.87,104.33
76056,2018-06-29 09:24:28.750000,-19.35,104.33
76057,2018-06-29 09:24:28.781250,-25.01,104.33
76058,2018-06-29 09:24:28.812500,-52.4,104.33
76059,2018-06-29 09:24:28.843750,-99.31,104.33
76060,2018-06-29 09:24:28.875000,-148.43,104.33
76061,2018-06-29 09:24:28.906250,-173.76,104.33
76062,2018-06-29 09:24:28.937500,-169.09,104.33
76063,2018-06-29 09:24:28.968750,-153.93,104.33
76064,2018-06-29 09:24:29.000000,-153.88,104.33
76065,2018-06-29 09:24:29.031250,-183.22,104.33
76066,2018-06-29 09:24:29.062500,-236.27,104.33
76067,2018-06-29 09:24:29.093750,-282.38,104.33
76068,2018-06-29 09:24:29.125000,-282.3,104.33
76069,2018-06-29 09:24:29.156250,-225.03,104.33
76070,2018-06-29 09:24:29.187500,-137.25,104.33
76071,2018-06-29 09:24:29.218750,-48.03,104.33
76072,2018-06-29 09:24:29.250000,38.97,104.33
76073,2018-06-29 09:24:29.281250,127.33,104.33
76074,2018-06-29 09:24:29.312500,201.25,104.33
76075,2018-06-29 09:24:29.343750,239.05,104.33
76076,2018-06-29 09:24:29.375000,240.16,104.33
76077,2018-06-29 09:24:29.406250,215.38,104.33
76078,2018-06-29 09:24:29.437500,164.34,104.33
76079,2018-06-29 09:24:29.468750,85.96,104.33
76080,2018-06-29 09:24:29.500000,-7.99,104.33
76081,2018-06-29 09:24:29.531250,-105.13,104.85
76082,2018-06-29 09:24:29.562500,-189.2,104.85
76083,2018-06-29 09:24:29.593750,-225.68,104.85
76084,2018-06-29 09:24:29.625000,-190.65,104.85
76085,2018-06-29 09:24:29.656250,-109.32,104.85
76086,2018-06-29 09:24:29.687500,-32.85,104.85
76087,2018-06-29 09:24:29.718750,12.08,104.85
76088,2018-06-29 09:24:29.750000,29.33,104.85
76089,2018-06-29 09:24:29.781250,27.98,104.85
76090,2018-06-29 09:24:29.812500,14.86,104.85
76091,2018-06-29 09:24:29.843750,1.06,104.85
76092,2018-06-29 09:24:29.875000,-2.41,104.85
76093,2018-06-29 09:24:29.906250,3.06,104.85
76094,2018-06-29 09:24:29.937500,3.04,104.85
76095,2018-06-29 09:24:29.968750,-18.22,104.85
76096,2018-06-29 09:24:30.000000,-63.83,104.85
76097,2018-06-29 09:24:30.031250,-112.37,104.85
76098,2018-06-29 09:24:30.062500,-123.59,104.85
76099,2018-06-29 09:24:30.093750,-73.49,104.85
76100,2018-06-29 09:24:30.125000,17.59,104.85
76101,2018-06-29 09:24:30.156250,104.59,104.85
76102,2018-06-29 09:24:30.187500,160.26,104.85
76103,2018-06-29 09:24:30.218750,186.63,104.85
76104,2018-06-29 09:24:30.250000,194.9,104.85
76105,2018-06-29 09:24:30.281250,190.73,104.85
76106,2018-06-29 09:24:30.312500,178.45,104.85
76107,2018-06-29 09:24:30.343750,164.62,104.85
76108,2018-06-29 09:24:30.375000,150.55,104.85
76109,2018-06-29 09:24:30.406250,130.03,104.85
76110,2018-06-29 09:24:30.437500,98.67,104.85
76111,2018-06-29 09:24:30.468750,60.07,104.85
76112,2018-06-29 09:24:30.500000,26.81,104.85
76113,2018-06-29 09:24:30.531250,19.18,105.33
76114,2018-06-29 09:24:30.562500,47.78,105.33
76115,2018-06-29 09:24:30.593750,93.55,105.33
76116,2018-06-29 09:24:30.625000,122.19,105.33
76117,2018-06-29 09:24:30.656250,119.71,105.33
76118,2018-06-29 09:24:30.687500,95.08,105.33
76119,2018-06-29 09:24:30.718750,56.62,105.33
76120,2018-06-29 09:24:30.750000,6.79,105.33
76121,2018-06-29 09:24:30.781250,-48.11,105.33
76122,2018-06-29 09:24:30.812500,-99.58,105.33
76123,2018-06-29 09:24:30.843750,-143.35,105.33
76124,2018-06-29 09:24:30.875000,-177.88,105.33
76125,2018-06-29 09:24:30.906250,-203.6,105.33
76126,2018-06-29 09:24:30.937500,-223.72,105.33
76127,2018-06-29 09:24:30.968750,-231.43,105.33
76128,2018-06-29 09:24:31.000000,-202.13,105.33
76129,2018-06-29 09:24:31.031250,-117.88,105.33
76130,2018-06-29 09:24:31.062500,3.86,105.33
76131,2018-06-29 09:24:31.093750,119.09,105.33
76132,2018-06-29 09:24:31.125000,190.24,105.33
76133,2018-06-29 09:24:31.156250,205.18,105.33
76134,2018-06-29 09:24:31.187500,173.5,105.33
76135,2018-06-29 09:24:31.218750,114.71,105.33
76136,2018-06-29 09:24:31.250000,50.9,105.33
76137,2018-06-29 09:24:31.281250,1.35,105.33
76138,2018-06-29 09:24:31.312500,-26.79,105.33
76139,2018-06-29 09:24:31.343750,-40.75,105.33
76140,2018-06-29 09:24:31.375000,-51.01,105.33
76141,2018-06-29 09:24:31.406250,-60.14,105.33
76142,2018-06-29 09:24:31.437500,-55.18,105.33
76143,2018-06-29 09:24:31.468750,-9.37,105.33
76144,2018-06-29 09:24:31.500000,88.34,105.33
76145,2018-06-29 09:24:31.531250,205.47,105.85
76146,2018-06-29 09:24:31.562500,291.8,105.85
76147,2018-06-29 09:24:31.593750,327.75,105.85
76148,2018-06-29 09:24:31.625000,324.4,105.85
76149,2018-06-29 09:24:31.656250,288.39,105.85
76150,2018-06-29 09:24:31.687500,217.81,105.85
76151,2018-06-29 09:24:31.718750,124.85,105.85
76152,2018-06-29 09:24:31.750000,34.08,105.85
76153,2018-06-29 09:24:31.781250,-42.39,105.85
76154,2018-06-29 09:24:31.812500,-111.98,105.85
76155,2018-06-29 09:24:31.843750,-187.62,105.85
76156,2018-06-29 09:24:31.875000,-273.36,105.85
76157,2018-06-29 09:24:31.906250,-350.76,105.85
76158,2018-06-29 09:24:31.937500,-377.99,105.85
76159,2018-06-29 09:24:31.968750,-326.5,105.85
76160,2018-06-29 09:24:32.000000,-218.19,105.85
76161,2018-06-29 09:24:32.031250,-104.52,105.85
76162,2018-06-29 09:24:32.062500,-18.0,105.85
76163,2018-06-29 09:24:32.093750,36.37,105.85
76164,2018-06-29 09:24:32.125000,60.19,105.85
76165,2018-06-29 09:24:32.156250,57.56,105.85
76166,2018-06-29 09:24:32.187500,42.58,105.85
76167,2018-06-29 09:24:32.218750,32.29,105.85
76168,2018-06-29 09:24:32.250000,31.09,105.85
76169,2018-06-29 09:24:32.281250,28.91,105.85
76170,2018-06-29 09:24:32.312500,13.48,105.85
76171,2018-06-29 09:24:32.343750,-18.05,105.85
76172,2018-06-29 09:24:32.375000,-52.09,105.85
76173,2018-06-29 09:24:32.406250,-60.55,105.85
76174,2018-06-29 09:24:32.437500,-26.29,105.85
76175,2018-06-29 09:24:32.468750,30.68,105.85
76176,2018-06-29 09:24:32.500000,73.49,105.85
76177,2018-06-29 09:24:32.531250,91.24,106.4
76178,2018-06-29 09:24:32.562500,98.98,106.4
76179,2018-06-29 09:24:32.593750,106.65,106.4
76180,2018-06-29 09:24:32.625000,113.33,106.4
76181,2018-06-29 09:24:32.656250,120.6,106.4
76182,2018-06-29 09:24:32.687500,130.63,106.4
76183,2018-06-29 09:24:32.718750,136.38,106.4
76184,2018-06-29 09:24:32.750000,123.59,106.4
76185,2018-06-29 09:24:32.781250,80.29,106.4
76186,2018-06-29 09:24:32.812500,8.93,106.4
76187,2018-06-29 09:24:32.843750,-64.05,106.4
76188,2018-06-29 09:24:32.875000,-103.01,106.4
76189,2018-06-29 09:24:32.906250,-98.52,106.4
76190,2018-06-29 09:24:32.937500,-75.49,106.4
76191,2018-06-29 09:24:32.968750,-59.85,106.4
76192,2018-06-29 09:24:33.000000,-56.5,106.4
76193,2018-06-29 09:24:33.031250,-64.79,106.4
76194,2018-06-29 09:24:33.062500,-89.03,106.4
76195,2018-06-29 09:24:33.093750,-126.07,106.4
76196,2018-06-29 09:24:33.125000,-161.96,106.4
76197,2018-06-29 09:24:33.156250,-185.56,106.4
76198,2018-06-29 09:24:33.187500,-194.11,106.4
76199,2018-06-29 09:24:33.218750,-190.08,106.4
76200,2018-06-29 09:24:33.250000,-181.7,106.4
76201,2018-06-29 09:24:33.281250,-175.16,106.4
76202,2018-06-29 09:24:33.312500,-156.87,106.4
76203,2018-06-29 09:24:33.343750,-104.21,106.4
76204,2018-06-29 09:24:33.375000,-22.13,106.4
76205,2018-06-29 09:24:33.406250,54.0,106.4
76206,2018-06-29 09:24:33.437500,98.61,106.4
76207,2018-06-29 09:24:33.468750,113.42,106.4
76208,2018-06-29 09:24:33.500000,106.39,106.4
76209,2018-06-29 09:24:33.531250,81.54,106.97
76210,2018-06-29 09:24:33.562500,50.07,106.97
76211,2018-06-29 09:24:33.593750,30.11,106.97
76212,2018-06-29 09:24:33.625000,32.31,106.97
76213,2018-06-29 09:24:33.656250,52.11,106.97
76214,2018-06-29 09:24:33.687500,73.98,106.97
76215,2018-06-29 09:24:33.718750,82.03,106.97
76216,2018-06-29 09:24:33.750000,76.34,106.97
76217,2018-06-29 09:24:33.781250,82.14,106.97
76218,2018-06-29 09:24:33.812500,127.31,106.97
