,Time,ppg,hr
83200,2018-06-29 09:28:12.000000,-7.75,83.03
83201,2018-06-29 09:28:12.031250,-17.03,83.03
83202,2018-06-29 09:28:12.062500,-25.72,83.03
83203,2018-06-29 09:28:12.093750,-29.53,83.03
83204,2018-06-29 09:28:12.125000,-27.0,83.03
83205,2018-06-29 09:28:12.156250,-22.84,83.03
83206,2018-06-29 09:28:12.187500,-24.33,83.03
83207,2018-06-29 09:28:12.218750,-34.62,83.03
83208,2018-06-29 09:28:12.250000,-48.95,83.03
83209,2018-06-29 09:28:12.281250,-55.41,83.03
83210,2018-06-29 09:28:12.312500,-42.59,83.03
83211,2018-06-29 09:28:12.343750,-11.83,83.03
83212,2018-06-29 09:28:12.375000,22.05,83.03
83213,2018-06-29 09:28:12.406250,46.45,83.03
83214,2018-06-29 09:28:12.437500,61.18,83.03
83215,2018-06-29 09:28:12.468750,70.42,83.03
83216,2018-06-29 09:28:12.500000,74.86,83.03
83217,2018-06-29 09:28:12.531250,75.86,82.95
83218,2018-06-29 09:28:12.562500,78.08,82.95
83219,2018-06-29 09:28:12.593750,82.76,82.95
83220,2018-06-29 09:28:12.625000,84.25,82.95
83221,2018-06-29 09:28:12.656250,78.03,82.95
83222,2018-06-29 09:28:12.687500,68.86,82.95
83223,2018-06-29 09:28:12.718750,64.89,82.95
83224,2018-06-29 09:28:12.750000,65.05,82.95
83225,2018-06-29 09:28:12.781250,59.09,82.95
83226,2018-06-29 09:28:12.812500,42.28,82.95
83227,2018-06-29 09:28:12.843750,23.12,82.95
83228,2018-06-29 09:28:12.875000,11.46,82.95
83229,2018-06-29 09:28:12.906250,4.66,82.95
83230,2018-06-29 09:28:12.937500,-10.18,82.95
83231,2018-06-29 09:28:12.968750,-44.59,82.95
83232,2018-06-29 09:28:13.000000,-95.9,82.95
83233,2018-06-29 09:28:13.031250,-140.13,82.95
83234,2018-06-29 09:28:13.062500,-149.69,82.95
83235,2018-06-29 09:28:13.093750,-124.55,82.95
83236,2018-06-29 09:28:13.125000,-87.65,82.95
83237,2018-06-29 09:28:13.156250,-52.54,82.95
83238,2018-06-29 09:28:13.187500,-19.34,82.95
83239,2018-06-29 09:28:13.218750,6.81,82.95
83240,2018-06-29 09:28:13.250000,18.92,82.95
83241,2018-06-29 09:28:13.281250,20.77,82.95
83242,2018-06-29 09:28:13.312500,20.04,82.95
83243,2018-06-29 09:28:13.343750,18.84,82.95
83244,2018-06-29 09:28:13.375000,17.04,82.95
83245,2018-06-29 09:28:13.406250,14.2,82.95
83246,2018-06-29 09:28:13.437500,7.18,82.95
83247,2018-06-29 09:28:13.468750,-5.36,82.95
83248,2018-06-29 09:28:13.500000,-16.97,82.95
83249,2018-06-29 09:28:13.531250,-19.24,82.82
83250,2018-06-29 09:28:13.562500,-12.18,82.82
83251,2018-06-29 09:28:13.593750,-8.71,82.82
83252,2018-06-29 09:28:13.625000,-27.96,82.82
83253,2018-06-29 09:28:13.656250,-70.09,82.82
83254,2018-06-29 09:28:13.687500,-105.84,82.82
83255,2018-06-29 09:28:13.718750,-108.61,82.82
83256,2018-06-29 09:28:13.750000,-79.44,82.82
83257,2018-06-29 09:28:13.781250,-29.69,82.82
83258,2018-06-29 09:28:13.812500,28.74,82.82
83259,2018-06-29 09:28:13.843750,72.86,82.82
83260,2018-06-29 09:28:13.875000,84.26,82.82
83261,2018-06-29 09:28:13.906250,71.14,82.82
83262,2018-06-29 09:28:13.937500,50.78,82.82
83263,2018-06-29 09:28:13.968750,28.08,82.82
83264,2018-06-29 09:28:14.000000,4.07,82.82
83265,2018-06-29 09:28:14.031250,-14.12,82.82
83266,2018-06-29 09:28:14.062500,-21.47,82.82
83267,2018-06-29 09:28:14.093750,-22.14,82.82
83268,2018-06-29 09:28:14.125000,-23.63,82.82
83269,2018-06-29 09:28:14.156250,-28.38,82.82
83270,2018-06-29 09:28:14.187500,-33.95,82.82
83271,2018-06-29 09:28:14.218750,-38.82,82.82
83272,2018-06-29 09:28:14.250000,-43.3,82.82
83273,2018-06-29 09:28:14.281250,-45.14,82.82
83274,2018-06-29 09:28:14.312500,-40.3,82.82
83275,2018-06-29 09:28:14.343750,-29.99,82.82
83276,2018-06-29 09:28:14.375000,-22.02,82.82
83277,2018-06-29 09:28:14.406250,-23.13,82.82
83278,2018-06-29 09:28:14.437500,-29.4,82.82
83279,2018-06-29 09:28:14.468750,-25.8,82.82
83280,2018-06-29 09:28:14.500000,-1.19,82.82
83281,2018-06-29 09:28:14.531250,36.51,82.67
83282,2018-06-29 09:28:14.562500,67.63,82.67
83283,2018-06-29 09:28:14.593750,81.31,82.67
83284,2018-06-29 09:28:14.625000,80.31,82.67
83285,2018-06-29 09:28:14.656250,69.97,82.67
83286,2018-06-29 09:28:14.687500,54.01,82.67
83287,2018-06-29 09:28:14.718750,38.59,82.67
83288,2018-06-29 09:28:14.750000,30.71,82.67
83289,2018-06-29 09:28:14.781250,31.74,82.67
83290,2018-06-29 09:28:14.812500,37.64,82.67
83291,2018-06-29 09:28:14.843750,45.0,82.67
83292,2018-06-29 09:28:14.875000,51.91,82.67
83293,2018-06-29 09:28:14.906250,53.89,82.67
83294,2018-06-29 09:28:14.937500,45.66,82.67
83295,2018-06-29 09:28:14.968750,28.42,82.67
83296,2018-06-29 09:28:15.000000,8.22,82.67
83297,2018-06-29 09:28:15.031250,-10.82,82.67
83298,2018-06-29 09:28:15.062500,-24.14,82.67
83299,2018-06-29 09:28:15.093750,-24.58,82.67
83300,2018-06-29 09:28:15.125000,-9.06,82.67
83301,2018-06-29 09:28:15.156250,20.46,82.67
83302,2018-06-29 09:28:15.187500,59.99,82.67
83303,2018-06-29 09:28:15.218750,96.25,82.67
83304,2018-06-29 09:28:15.250000,105.72,82.67
83305,2018-06-29 09:28:15.281250,75.32,82.67
83306,2018-06-29 09:28:15.312500,17.9,82.67
83307,2018-06-29 09:28:15.343750,-38.67,82.67
83308,2018-06-29 09:28:15.375000,-70.63,82.67
83309,2018-06-29 09:28:15.406250,-67.42,82.67
83310,2018-06-29 09:28:15.437500,-33.5,82.67
83311,2018-06-29 09:28:15.468750,13.3,82.67
83312,2018-06-29 09:28:15.500000,50.81,82.67
83313,2018-06-29 09:28:15.531250,68.14,82.57
83314,2018-06-29 09:28:15.562500,71.9,82.57
83315,2018-06-29 09:28:15.593750,71.95,82.57
83316,2018-06-29 09:28:15.625000,65.03,82.57
83317,2018-06-29 09:28:15.656250,40.07,82.57
83318,2018-06-29 09:28:15.687500,-2.73,82.57
83319,2018-06-29 09:28:15.718750,-46.61,82.57
83320,2018-06-29 09:28:15.750000,-73.2,82.57
83321,2018-06-29 09:28:15.781250,-77.66,82.57
83322,2018-06-29 09:28:15.812500,-69.5,82.57
83323,2018-06-29 09:28:15.843750,-61.89,82.57
83324,2018-06-29 09:28:15.875000,-57.45,82.57
83325,2018-06-29 09:28:15.906250,-47.35,82.57
83326,2018-06-29 09:28:15.937500,-30.52,82.57
83327,2018-06-29 09:28:15.968750,-24.43,82.57
83328,2018-06-29 09:28:16.000000,-42.16,82.57
83329,2018-06-29 09:28:16.031250,-67.74,82.57
83330,2018-06-29 09:28:16.062500,-73.37,82.57
83331,2018-06-29 09:28:16.093750,-52.64,82.57
83332,2018-06-29 09:28:16.125000,-18.18,82.57
83333,2018-06-29 09:28:16.156250,20.34,82.57
83334,2018-06-29 09:28:16.187500,56.31,82.57
83335,2018-06-29 09:28:16.218750,77.26,82.57
83336,2018-06-29 09:28:16.250000,76.26,82.57
83337,2018-06-29 09:28:16.281250,63.65,82.57
83338,2018-06-29 09:28:16.312500,53.59,82.57
83339,2018-06-29 09:28:16.343750,46.57,82.57
83340,2018-06-29 09:28:16.375000,33.89,82.57
83341,2018-06-29 09:28:16.406250,13.49,82.57
83342,2018-06-29 09:28:16.437500,-6.24,82.57
83343,2018-06-29 09:28:16.468750,-15.02,82.57
83344,2018-06-29 09:28:16.500000,-8.51,82.57
83345,2018-06-29 09:28:16.531250,9.2,82.45
83346,2018-06-29 09:28:16.562500,29.07,82.45
83347,2018-06-29 09:28:16.593750,45.87,82.45
83348,2018-06-29 09:28:16.625000,59.06,82.45
83349,2018-06-29 09:28:16.656250,62.44,82.45
83350,2018-06-29 09:28:16.687500,43.39,82.45
83351,2018-06-29 09:28:16.718750,-1.35,82.45
83352,2018-06-29 09:28:16.750000,-56.54,82.45
83353,2018-06-29 09:28:16.781250,-98.16,82.45
83354,2018-06-29 09:28:16.812500,-109.65,82.45
83355,2018-06-29 09:28:16.843750,-91.26,82.45
83356,2018-06-29 09:28:16.875000,-57.9,82.45
83357,2018-06-29 09:28:16.906250,-28.71,82.45
83358,2018-06-29 09:28:16.937500,-17.31,82.45
83359,2018-06-29 09:28:16.968750,-25.35,82.45
83360,2018-06-29 09:28:17.000000,-37.94,82.45
83361,2018-06-29 09:28:17.031250,-32.49,82.45
83362,2018-06-29 09:28:17.062500,-5.46,82.45
83363,2018-06-29 09:28:17.093750,18.2,82.45
83364,2018-06-29 09:28:17.125000,16.39,82.45
83365,2018-06-29 09:28:17.156250,-2.34,82.45
83366,2018-06-29 09:28:17.187500,-17.1,82.45
83367,2018-06-29 09:28:17.218750,-24.58,82.45
83368,2018-06-29 09:28:17.250000,-34.95,82.45
83369,2018-06-29 09:28:17.281250,-51.96,82.45
83370,2018-06-29 09:28:17.312500,-67.18,82.45
83371,2018-06-29 09:28:17.343750,-63.53,82.45
83372,2018-06-29 09:28:17.375000,-24.85,82.45
83373,2018-06-29 09:28:17.406250,45.55,82.45
83374,2018-06-29 09:28:17.437500,118.53,82.45
83375,2018-06-29 09:28:17.468750,161.19,82.45
83376,2018-06-29 09:28:17.500000,163.34,82.45
83377,2018-06-29 09:28:17.531250,138.61,82.33
83378,2018-06-29 09:28:17.562500,107.15,82.33
83379,2018-06-29 09:28:17.593750,81.12,82.33
83380,2018-06-29 09:28:17.625000,61.46,82.33
83381,2018-06-29 09:28:17.656250,45.62,82.33
83382,2018-06-29 09:28:17.687500,37.91,82.33
83383,2018-06-29 09:28:17.718750,48.16,82.33
83384,2018-06-29 09:28:17.750000,76.59,82.33
83385,2018-06-29 09:28:17.781250,105.09,82.33
83386,2018-06-29 09:28:17.812500,111.22,82.33
83387,2018-06-29 09:28:17.843750,87.52,82.33
83388,2018-06-29 09:28:17.875000,42.09,82.33
83389,2018-06-29 09:28:17.906250,-11.87,82.33
83390,2018-06-29 09:28:17.937500,-62.64,82.33
83391,2018-06-29 09:28:17.968750,-105.27,82.33
83392,2018-06-29 09:28:18.000000,-141.35,82.33
83393,2018-06-29 09:28:18.031250,-169.81,82.33
83394,2018-06-29 09:28:18.062500,-189.66,82.33
83395,2018-06-29 09:28:18.093750,-210.59,82.33
83396,2018-06-29 09:28:18.125000,-239.35,82.33
83397,2018-06-29 09:28:18.156250,-259.7,82.33
83398,2018-06-29 09:28:18.187500,-250.05,82.33
83399,2018-06-29 09:28:18.218750,-211.73,82.33
83400,2018-06-29 09:28:18.250000,-160.03,82.33
83401,2018-06-29 09:28:18.281250,-101.55,82.33
83402,2018-06-29 09:28:18.312500,-38.14,82.33
83403,2018-06-29 09:28:18.343750,18.36,82.33
83404,2018-06-29 09:28:18.375000,51.61,82.33
83405,2018-06-29 09:28:18.406250,56.47,82.33
83406,2018-06-29 09:28:18.437500,41.72,82.33
83407,2018-06-29 09:28:18.468750,23.29,82.33
83408,2018-06-29 09:28:18.500000,18.72,82.33
83409,2018-06-29 09:28:18.531250,37.21,82.23
83410,2018-06-29 09:28:18.562500,70.91,82.23
83411,2018-06-29 09:28:18.593750,103.55,82.23
83412,2018-06-29 09:28:18.625000,124.69,82.23
83413,2018-06-29 09:28:18.656250,129.34,82.23
83414,2018-06-29 09:28:18.687500,115.64,82.23
83415,2018-06-29 09:28:18.718750,90.17,82.23
83416,2018-06-29 09:28:18.750000,64.06,82.23
83417,2018-06-29 09:28:18.781250,40.44,82.23
83418,2018-06-29 09:28:18.812500,16.67,82.23
83419,2018-06-29 09:28:18.843750,-1.64,82.23
83420,2018-06-29 09:28:18.875000,0.8,82.23
83421,2018-06-29 09:28:18.906250,33.31,82.23
83422,2018-06-29 09:28:18.937500,85.64,82.23
83423,2018-06-29 09:28:18.968750,133.8,82.23
83424,2018-06-29 09:28:19.000000,159.44,82.23
83425,2018-06-29 09:28:19.031250,158.06,82.23
83426,2018-06-29 09:28:19.062500,130.46,82.23
83427,2018-06-29 09:28:19.093750,78.75,82.23
83428,2018-06-29 09:28:19.125000,11.29,82.23
83429,2018-06-29 09:28:19.156250,-56.49,82.23
83430,2018-06-29 09:28:19.187500,-105.98,82.23
83431,2018-06-29 09:28:19.218750,-125.78,82.23
83432,2018-06-29 09:28:19.250000,-125.17,82.23
83433,2018-06-29 09:28:19.281250,-125.34,82.23
83434,2018-06-29 09:28:19.312500,-133.45,82.23
83435,2018-06-29 09:28:19.343750,-140.74,82.23
83436,2018-06-29 09:28:19.375000,-143.05,82.23
83437,2018-06-29 09:28:19.406250,-142.16,82.23
83438,2018-06-29 09:28:19.437500,-131.83,82.23
83439,2018-06-29 09:28:19.468750,-101.85,82.23
83440,2018-06-29 09:28:19.500000,-57.33,82.23
83441,2018-06-29 09:28:19.531250,-23.89,82.17
83442,2018-06-29 09:28:19.562500,-26.72,82.17
83443,2018-06-29 09:28:19.593750,-62.68,82.17
83444,2018-06-29 09:28:19.625000,-96.28,82.17
83445,2018-06-29 09:28:19.656250,-89.5,82.17
83446,2018-06-29 09:28:19.687500,-37.11,82.17
83447,2018-06-29 09:28:19.718750,32.92,82.17
83448,2018-06-29 09:28:19.750000,92.25,82.17
83449,2018-06-29 09:28:19.781250,132.92,82.17
83450,2018-06-29 09:28:19.812500,156.61,82.17
83451,2018-06-29 09:28:19.843750,163.31,82.17
83452,2018-06-29 09:28:19.875000,155.89,82.17
83453,2018-06-29 09:28:19.906250,140.04,82.17
83454,2018-06-29 09:28:19.937500,116.07,82.17
83455,2018-06-29 09:28:19.968750,83.01,82.17
83456,2018-06-29 09:28:20.000000,53.07,82.17
83457,2018-06-29 09:28:20.031250,47.74,82.17
83458,2018-06-29 09:28:20.062500,73.12,82.17
83459,2018-06-29 09:28:20.093750,108.63,82.17
83460,2018-06-29 09:28:20.125000,127.1,82.17
83461,2018-06-29 09:28:20.156250,118.65,82.17
83462,2018-06-29 09:28:20.187500,88.62,82.17
83463,2018-06-29 09:28:20.218750,42.71,82.17
83464,2018-06-29 09:28:20.250000,-16.37,82.17
83465,2018-06-29 09:28:20.281250,-83.24,82.17
83466,2018-06-29 09:28:20.312500,-145.87,82.17
83467,2018-06-29 09:28:20.343750,-184.36,82.17
83468,2018-06-29 09:28:20.375000,-182.27,82.17
83469,2018-06-29 09:28:20.406250,-148.32,82.17
83470,2018-06-29 09:28:20.437500,-114.12,82.17
83471,2018-06-29 09:28:20.468750,-100.15,82.17
83472,2018-06-29 09:28:20.500000,-98.39,82.17
83473,2018-06-29 09:28:20.531250,-93.27,82.1
83474,2018-06-29 09:28:20.562500,-80.88,82.1
83475,2018-06-29 09:28:20.593750,-61.78,82.1
83476,2018-06-29 09:28:20.625000,-31.94,82.1
83477,2018-06-29 09:28:20.656250,8.58,82.1
83478,2018-06-29 09:28:20.687500,44.87,82.1
83479,2018-06-29 09:28:20.718750,55.24,82.1
83480,2018-06-29 09:28:20.750000,30.11,82.1
83481,2018-06-29 09:28:20.781250,-18.63,82.1
83482,2018-06-29 09:28:20.812500,-63.32,82.1
83483,2018-06-29 09:28:20.843750,-78.45,82.1
83484,2018-06-29 09:28:20.875000,-61.87,82.1
83485,2018-06-29 09:28:20.906250,-34.95,82.1
83486,2018-06-29 09:28:20.937500,-17.26,82.1
83487,2018-06-29 09:28:20.968750,-10.95,82.1
83488,2018-06-29 09:28:21.000000,-11.95,82.1
83489,2018-06-29 09:28:21.031250,-21.15,82.1
83490,2018-06-29 09:28:21.062500,-37.46,82.1
83491,2018-06-29 09:28:21.093750,-49.17,82.1
83492,2018-06-29 09:28:21.125000,-39.71,82.1
83493,2018-06-29 09:28:21.156250,-2.14,82.1
83494,2018-06-29 09:28:21.187500,53.96,82.1
83495,2018-06-29 09:28:21.218750,110.76,82.1
83496,2018-06-29 09:28:21.250000,153.93,82.1
83497,2018-06-29 09:28:21.281250,177.02,82.1
83498,2018-06-29 09:28:21.312500,181.3,82.1
83499,2018-06-29 09:28:21.343750,171.5,82.1
83500,2018-06-29 09:28:21.375000,146.36,82.1
83501,2018-06-29 09:28:21.406250,98.0,82.1
83502,2018-06-29 09:28:21.437500,26.09,82.1
83503,2018-06-29 09:28:21.468750,-51.54,82.1
83504,2018-06-29 09:28:21.500000,-107.44,82.1
83505,2018-06-29 09:28:21.531250,-126.48,82.05
83506,2018-06-29 09:28:21.562500,-120.71,82.05
83507,2018-06-29 09:28:21.593750,-116.3,82.05
83508,2018-06-29 09:28:21.625000,-124.26,82.05
83509,2018-06-29 09:28:21.656250,-133.75,82.05
83510,2018-06-29 09:28:21.687500,-132.91,82.05
83511,2018-06-29 09:28:21.718750,-121.97,82.05
83512,2018-06-29 09:28:21.750000,-106.52,82.05
83513,2018-06-29 09:28:21.781250,-90.02,82.05
83514,2018-06-29 09:28:21.812500,-70.3,82.05
83515,2018-06-29 09:28:21.843750,-39.61,82.05
83516,2018-06-29 09:28:21.875000,4.85,82.05
83517,2018-06-29 09:28:21.906250,49.75,82.05
83518,2018-06-29 09:28:21.937500,75.23,82.05
83519,2018-06-29 09:28:21.968750,77.49,82.05
83520,2018-06-29 09:28:22.000000,74.11,82.05
83521,2018-06-29 09:28:22.031250,84.56,82.05
83522,2018-06-29 09:28:22.062500,110.72,82.05
83523,2018-06-29 09:28:22.093750,139.53,82.05
83524,2018-06-29 09:28:22.125000,157.66,82.05
83525,2018-06-29 09:28:22.156250,157.04,82.05
83526,2018-06-29 09:28:22.187500,134.68,82.05
83527,2018-06-29 09:28:22.218750,96.35,82.05
83528,2018-06-29 09:28:22.250000,54.99,82.05
83529,2018-06-29 09:28:22.281250,21.66,82.05
83530,2018-06-29 09:28:22.312500,4.14,82.05
83531,2018-06-29 09:28:22.343750,8.85,82.05
83532,2018-06-29 09:28:22.375000,32.47,82.05
83533,2018-06-29 09:28:22.406250,57.4,82.05
83534,2018-06-29 09:28:22.437500,65.24,82.05
83535,2018-06-29 09:28:22.468750,49.94,82.05
83536,2018-06-29 09:28:22.500000,15.18,82.05
83537,2018-06-29 09:28:22.531250,-30.08,82.05
83538,2018-06-29 09:28:22.562500,-73.01,82.05
83539,2018-06-29 09:28:22.593750,-106.07,82.05
83540,2018-06-29 09:28:22.625000,-132.29,82.05
83541,2018-06-29 09:28:22.656250,-151.47,82.05
83542,2018-06-29 09:28:22.687500,-152.3,82.05
83543,2018-06-29 09:28:22.718750,-130.67,82.05
83544,2018-06-29 09:28:22.750000,-101.69,82.05
83545,2018-06-29 09:28:22.781250,-81.62,82.05
83546,2018-06-29 09:28:22.812500,-70.86,82.05
83547,2018-06-29 09:28:22.843750,-60.39,82.05
83548,2018-06-29 09:28:22.875000,-42.09,82.05
83549,2018-06-29 09:28:22.906250,-13.02,82.05
83550,2018-06-29 09:28:22.937500,18.3,82.05
83551,2018-06-29 09:28:22.968750,33.63,82.05
83552,2018-06-29 09:28:23.000000,22.52,82.05
83553,2018-06-29 09:28:23.031250,-4.73,82.05
83554,2018-06-29 09:28:23.062500,-25.44,82.05
83555,2018-06-29 09:28:23.093750,-23.18,82.05
83556,2018-06-29 09:28:23.125000,1.06,82.05
83557,2018-06-29 09:28:23.156250,31.88,82.05
83558,2018-06-29 09:28:23.187500,54.39,82.05
83559,2018-06-29 09:28:23.218750,65.55,82.05
83560,2018-06-29 09:28:23.250000,68.57,82.05
83561,2018-06-29 09:28:23.281250,63.24,82.05
83562,2018-06-29 09:28:23.312500,49.58,82.05
83563,2018-06-29 09:28:23.343750,33.95,82.05
83564,2018-06-29 09:28:23.375000,21.7,82.05
83565,2018-06-29 09:28:23.406250,11.01,82.05
83566,2018-06-29 09:28:23.437500,1.9,82.05
83567,2018-06-29 09:28:23.468750,2.95,82.05
83568,2018-06-29 09:28:23.500000,20.8,82.05
83569,2018-06-29 09:28:23.531250,49.99,82.03
83570,2018-06-29 09:28:23.562500,78.75,82.03
83571,2018-06-29 09:28:23.593750,97.64,82.03
83572,2018-06-29 09:28:23.625000,101.82,82.03
83573,2018-06-29 09:28:23.656250,94.07,82.03
83574,2018-06-29 09:28:23.687500,82.22,82.03
83575,2018-06-29 09:28:23.718750,65.54,82.03
83576,2018-06-29 09:28:23.750000,31.8,82.03
83577,2018-06-29 09:28:23.781250,-24.26,82.03
83578,2018-06-29 09:28:23.812500,-89.02,82.03
83579,2018-06-29 09:28:23.843750,-141.64,82.03
83580,2018-06-29 09:28:23.875000,-169.17,82.03
83581,2018-06-29 09:28:23.906250,-169.69,82.03
83582,2018-06-29 09:28:23.937500,-150.7,82.03
83583,2018-06-29 09:28:23.968750,-125.15,82.03
83584,2018-06-29 09:28:24.000000,-102.67,82.03
83585,2018-06-29 09:28:24.031250,-84.85,82.03
83586,2018-06-29 09:28:24.062500,-66.88,82.03
83587,2018-06-29 09:28:24.093750,-38.49,82.03
83588,2018-06-29 09:28:24.125000,9.52,82.03
83589,2018-06-29 09:28:24.156250,70.47,82.03
83590,2018-06-29 09:28:24.187500,122.89,82.03
83591,2018-06-29 09:28:24.218750,154.34,82.03
83592,2018-06-29 09:28:24.250000,171.55,82.03
83593,2018-06-29 09:28:24.281250,182.98,82.03
83594,2018-06-29 09:28:24.312500,186.85,82.03
83595,2018-06-29 09:28:24.343750,179.44,82.03
83596,2018-06-29 09:28:24.375000,161.48,82.03
83597,2018-06-29 09:28:24.406250,133.7,82.03
83598,2018-06-29 09:28:24.437500,95.09,82.03
83599,2018-06-29 09:28:24.468750,47.53,82.03
83600,2018-06-29 09:28:24.500000,-2.8,82.03
83601,2018-06-29 09:28:24.531250,-49.31,82.0
83602,2018-06-29 09:28:24.562500,-85.21,82.0
83603,2018-06-29 09:28:24.593750,-102.65,82.0
83604,2018-06-29 09:28:24.625000,-100.31,82.0
83605,2018-06-29 09:28:24.656250,-89.3,82.0
83606,2018-06-29 09:28:24.687500,-83.22,82.0
83607,2018-06-29 09:28:24.718750,-87.1,82.0
83608,2018-06-29 09:28:24.750000,-98.95,82.0
83609,2018-06-29 09:28:24.781250,-113.31,82.0
83610,2018-06-29 09:28:24.812500,-121.36,82.0
83611,2018-06-29 09:28:24.843750,-113.87,82.0
83612,2018-06-29 09:28:24.875000,-86.03,82.0
83613,2018-06-29 09:28:24.906250,-40.54,82.0
83614,2018-06-29 09:28:24.937500,11.03,82.0
83615,2018-06-29 09:28:24.968750,52.82,82.0
83616,2018-06-29 09:28:25.000000,73.85,82.0
83617,2018-06-29 09:28:25.031250,72.66,82.0
83618,2018-06-29 09:28:25.062500,56.38,82.0
83619,2018-06-29 09:28:25.093750,38.91,82.0
83620,2018-06-29 09:28:25.125000,34.7,82.0
83621,2018-06-29 09:28:25.156250,45.93,82.0
83622,2018-06-29 09:28:25.187500,57.66,82.0
83623,2018-06-29 09:28:25.218750,52.6,82.0
83624,2018-06-29 09:28:25.250000,27.36,82.0
83625,2018-06-29 09:28:25.281250,-10.82,82.0
83626,2018-06-29 09:28:25.312500,-54.82,82.0
83627,2018-06-29 09:28:25.343750,-94.69,82.0
83628,2018-06-29 09:28:25.375000,-112.78,82.0
83629,2018-06-29 09:28:25.406250,-99.05,82.0
83630,2018-06-29 09:28:25.437500,-66.96,82.0
83631,2018-06-29 09:28:25.468750,-38.4,82.0
83632,2018-06-29 09:28:25.500000,-18.16,82.0
83633,2018-06-29 09:28:25.531250,-0.26,82.05
83634,2018-06-29 09:28:25.562500,10.72,82.05
83635,2018-06-29 09:28:25.593750,6.58,82.05
83636,2018-06-29 09:28:25.625000,-4.22,82.05
83637,2018-06-29 09:28:25.656250,-4.08,82.05
83638,2018-06-29 09:28:25.687500,10.89,82.05
83639,2018-06-29 09:28:25.718750,31.69,82.05
83640,2018-06-29 09:28:25.750000,54.09,82.05
83641,2018-06-29 09:28:25.781250,78.58,82.05
83642,2018-06-29 09:28:25.812500,98.46,82.05
83643,2018-06-29 09:28:25.843750,104.84,82.05
83644,2018-06-29 09:28:25.875000,98.94,82.05
83645,2018-06-29 09:28:25.906250,85.71,82.05
83646,2018-06-29 09:28:25.937500,62.51,82.05
83647,2018-06-29 09:28:25.968750,26.74,82.05
83648,2018-06-29 09:28:26.000000,-14.22,82.05
83649,2018-06-29 09:28:26.031250,-50.82,82.05
83650,2018-06-29 09:28:26.062500,-80.33,82.05
83651,2018-06-29 09:28:26.093750,-101.87,82.05
83652,2018-06-29 09:28:26.125000,-112.89,82.05
83653,2018-06-29 09:28:26.156250,-115.18,82.05
83654,2018-06-29 09:28:26.187500,-114.47,82.05
83655,2018-06-29 09:28:26.218750,-110.96,82.05
83656,2018-06-29 09:28:26.250000,-98.57,82.05
83657,2018-06-29 09:28:26.281250,-75.39,82.05
83658,2018-06-29 09:28:26.312500,-48.95,82.05
83659,2018-06-29 09:28:26.343750,-27.94,82.05
83660,2018-06-29 09:28:26.375000,-10.38,82.05
83661,2018-06-29 09:28:26.406250,13.79,82.05
83662,2018-06-29 09:28:26.437500,45.9,82.05
83663,2018-06-29 09:28:26.468750,72.75,82.05
83664,2018-06-29 09:28:26.500000,83.13,82.05
83665,2018-06-29 09:28:26.531250,82.16,82.1
83666,2018-06-29 09:28:26.562500,84.56,82.1
83667,2018-06-29 09:28:26.593750,99.27,82.1
83668,2018-06-29 09:28:26.625000,121.96,82.1
83669,2018-06-29 09:28:26.656250,138.21,82.1
83670,2018-06-29 09:28:26.687500,135.49,82.1
83671,2018-06-29 09:28:26.718750,114.75,82.1
83672,2018-06-29 09:28:26.750000,88.65,82.1
83673,2018-06-29 09:28:26.781250,67.94,82.1
83674,2018-06-29 09:28:26.812500,52.53,82.1
83675,2018-06-29 09:28:26.843750,36.57,82.1
83676,2018-06-29 09:28:26.875000,17.87,82.1
83677,2018-06-29 09:28:26.906250,0.61,82.1
83678,2018-06-29 09:28:26.937500,-7.87,82.1
83679,2018-06-29 09:28:26.968750,-2.52,82.1
83680,2018-06-29 09:28:27.000000,13.27,82.1
83681,2018-06-29 09:28:27.031250,27.25,82.1
83682,2018-06-29 09:28:27.062500,26.96,82.1
83683,2018-06-29 09:28:27.093750,6.26,82.1
83684,2018-06-29 09:28:27.125000,-36.26,82.1
83685,2018-06-29 09:28:27.156250,-93.58,82.1
83686,2018-06-29 09:28:27.187500,-143.79,82.1
83687,2018-06-29 09:28:27.218750,-164.01,82.1
83688,2018-06-29 09:28:27.250000,-152.33,82.1
83689,2018-06-29 09:28:27.281250,-125.41,82.1
83690,2018-06-29 09:28:27.312500,-99.94,82.1
83691,2018-06-29 09:28:27.343750,-85.21,82.1
83692,2018-06-29 09:28:27.375000,-81.84,82.1
83693,2018-06-29 09:28:27.406250,-79.69,82.1
83694,2018-06-29 09:28:27.437500,-65.82,82.1
83695,2018-06-29 09:28:27.468750,-37.67,82.1
83696,2018-06-29 09:28:27.500000,-3.2,82.1
83697,2018-06-29 09:28:27.531250,29.81,82.15
83698,2018-06-29 09:28:27.562500,59.42,82.15
83699,2018-06-29 09:28:27.593750,84.46,82.15
83700,2018-06-29 09:28:27.625000,97.79,82.15
83701,2018-06-29 09:28:27.656250,89.81,82.15
83702,2018-06-29 09:28:27.687500,61.66,82.15
83703,2018-06-29 09:28:27.718750,33.14,82.15
83704,2018-06-29 09:28:27.750000,28.7,82.15
83705,2018-06-29 09:28:27.781250,51.92,82.15
83706,2018-06-29 09:28:27.812500,80.08,82.15
83707,2018-06-29 09:28:27.843750,88.08,82.15
83708,2018-06-29 09:28:27.875000,72.55,82.15
83709,2018-06-29 09:28:27.906250,48.91,82.15
83710,2018-06-29 09:28:27.937500,31.26,82.15
83711,2018-06-29 09:28:27.968750,21.92,82.15
83712,2018-06-29 09:28:28.000000,16.59,82.15
83713,2018-06-29 09:28:28.031250,13.97,82.15
83714,2018-06-29 09:28:28.062500,19.16,82.15
83715,2018-06-29 09:28:28.093750,37.71,82.15
83716,2018-06-29 09:28:28.125000,68.99,82.15
83717,2018-06-29 09:28:28.156250,105.75,82.15
83718,2018-06-29 09:28:28.187500,133.75,82.15
83719,2018-06-29 09:28:28.218750,134.16,82.15
83720,2018-06-29 09:28:28.250000,99.83,82.15
83721,2018-06-29 09:28:28.281250,45.89,82.15
83722,2018-06-29 09:28:28.312500,-8.17,82.15
83723,2018-06-29 09:28:28.343750,-57.24,82.15
83724,2018-06-29 09:28:28.375000,-100.86,82.15
83725,2018-06-29 09:28:28.406250,-131.36,82.15
83726,2018-06-29 09:28:28.437500,-146.06,82.15
83727,2018-06-29 09:28:28.468750,-156.9,82.15
83728,2018-06-29 09:28:28.500000,-175.38,82.15
83729,2018-06-29 09:28:28.531250,-198.19,82.2
83730,2018-06-29 09:28:28.562500,-215.99,82.2
83731,2018-06-29 09:28:28.593750,-224.39,82.2
83732,2018-06-29 09:28:28.625000,-217.38,82.2
83733,2018-06-29 09:28:28.656250,-184.78,82.2
83734,2018-06-29 09:28:28.687500,-125.19,82.2
83735,2018-06-29 09:28:28.718750,-51.64,82.2
83736,2018-06-29 09:28:28.750000,17.18,82.2
83737,2018-06-29 09:28:28.781250,64.56,82.2
83738,2018-06-29 09:28:28.812500,80.08,82.2
83739,2018-06-29 09:28:28.843750,68.44,82.2
83740,2018-06-29 09:28:28.875000,52.39,82.2
83741,2018-06-29 09:28:28.906250,55.93,82.2
83742,2018-06-29 09:28:28.937500,83.09,82.2
83743,2018-06-29 09:28:28.968750,117.04,82.2
83744,2018-06-29 09:28:29.000000,137.39,82.2
83745,2018-06-29 09:28:29.031250,133.67,82.2
83746,2018-06-29 09:28:29.062500,106.97,82.2
83747,2018-06-29 09:28:29.093750,67.2,82.2
83748,2018-06-29 09:28:29.125000,27.4,82.2
83749,2018-06-29 09:28:29.156250,-3.82,82.2
83750,2018-06-29 09:28:29.187500,-23.87,82.2
83751,2018-06-29 09:28:29.218750,-31.94,82.2
83752,2018-06-29 09:28:29.250000,-28.16,82.2
83753,2018-06-29 09:28:29.281250,-14.52,82.2
83754,2018-06-29 09:28:29.312500,7.45,82.2
83755,2018-06-29 09:28:29.343750,35.72,82.2
83756,2018-06-29 09:28:29.375000,62.47,82.2
83757,2018-06-29 09:28:29.406250,75.58,82.2
83758,2018-06-29 09:28:29.437500,66.74,82.2
83759,2018-06-29 09:28:29.468750,33.48,82.2
83760,2018-06-29 09:28:29.500000,-20.95,82.2
83761,2018-06-29 09:28:29.531250,-81.58,82.28
83762,2018-06-29 09:28:29.562500,-123.96,82.28
83763,2018-06-29 09:28:29.593750,-133.85,82.28
83764,2018-06-29 09:28:29.625000,-121.08,82.28
83765,2018-06-29 09:28:29.656250,-105.1,82.28
83766,2018-06-29 09:28:29.687500,-93.02,82.28
83767,2018-06-29 09:28:29.718750,-79.48,82.28
83768,2018-06-29 09:28:29.750000,-60.07,82.28
83769,2018-06-29 09:28:29.781250,-36.88,82.28
83770,2018-06-29 09:28:29.812500,-16.86,82.28
83771,2018-06-29 09:28:29.843750,-8.59,82.28
83772,2018-06-29 09:28:29.875000,-14.3,82.28
83773,2018-06-29 09:28:29.906250,-24.8,82.28
83774,2018-06-29 09:28:29.937500,-28.37,82.28
83775,2018-06-29 09:28:29.968750,-22.32,82.28
83776,2018-06-29 09:28:30.000000,-7.6,82.28
83777,2018-06-29 09:28:30.031250,20.08,82.28
83778,2018-06-29 09:28:30.062500,62.05,82.28
83779,2018-06-29 09:28:30.093750,107.8,82.28
83780,2018-06-29 09:28:30.125000,143.39,82.28
83781,2018-06-29 09:28:30.156250,160.19,82.28
83782,2018-06-29 09:28:30.187500,153.15,82.28
83783,2018-06-29 09:28:30.218750,124.72,82.28
83784,2018-06-29 09:28:30.250000,89.56,82.28
83785,2018-06-29 09:28:30.281250,62.46,82.28
83786,2018-06-29 09:28:30.312500,44.69,82.28
83787,2018-06-29 09:28:30.343750,31.98,82.28
83788,2018-06-29 09:28:30.375000,27.65,82.28
83789,2018-06-29 09:28:30.406250,37.82,82.28
83790,2018-06-29 09:28:30.437500,59.76,82.28
83791,2018-06-29 09:28:30.468750,82.7,82.28
83792,2018-06-29 09:28:30.500000,94.93,82.28
83793,2018-06-29 09:28:30.531250,89.7,82.42
83794,2018-06-29 09:28:30.562500,68.29,82.42
83795,2018-06-29 09:28:30.593750,32.45,82.42
83796,2018-06-29 09:28:30.625000,-24.61,82.42
83797,2018-06-29 09:28:30.656250,-103.78,82.42
83798,2018-06-29 09:28:30.687500,-178.45,82.42
83799,2018-06-29 09:28:30.718750,-210.35,82.42
83800,2018-06-29 09:28:30.750000,-190.96,82.42
83801,2018-06-29 09:28:30.781250,-147.56,82.42
83802,2018-06-29 09:28:30.812500,-108.37,82.42
83803,2018-06-29 09:28:30.843750,-80.43,82.42
83804,2018-06-29 09:28:30.875000,-59.99,82.42
83805,2018-06-29 09:28:30.906250,-42.4,82.42
83806,2018-06-29 09:28:30.937500,-18.61,82.42
83807,2018-06-29 09:28:30.968750,17.49,82.42
83808,2018-06-29 09:28:31.000000,53.61,82.42
83809,2018-06-29 09:28:31.031250,66.29,82.42
83810,2018-06-29 09:28:31.062500,46.44,82.42
83811,2018-06-29 09:28:31.093750,8.81,82.42
83812,2018-06-29 09:28:31.125000,-22.46,82.42
83813,2018-06-29 09:28:31.156250,-29.83,82.42
83814,2018-06-29 09:28:31.187500,-9.13,82.42
83815,2018-06-29 09:28:31.218750,30.78,82.42
83816,2018-06-29 09:28:31.250000,74.09,82.42
83817,2018-06-29 09:28:31.281250,104.63,82.42
83818,2018-06-29 09:28:31.312500,111.78,82.42
83819,2018-06-29 09:28:31.343750,98.21,82.42
83820,2018-06-29 09:28:31.375000,78.03,82.42
83821,2018-06-29 09:28:31.406250,61.41,82.42
83822,2018-06-29 09:28:31.437500,47.18,82.42
83823,2018-06-29 09:28:31.468750,33.21,82.42
83824,2018-06-29 09:28:31.500000,25.7,82.42
83825,2018-06-29 09:28:31.531250,35.86,82.57
83826,2018-06-29 09:28:31.562500,68.11,82.57
83827,2018-06-29 09:28:31.593750,107.96,82.57
83828,2018-06-29 09:28:31.625000,126.45,82.57
83829,2018-06-29 09:28:31.656250,103.56,82.57
83830,2018-06-29 09:28:31.687500,44.13,82.57
83831,2018-06-29 09:28:31.718750,-30.41,82.57
83832,2018-06-29 09:28:31.750000,-100.39,82.57
83833,2018-06-29 09:28:31.781250,-156.02,82.57
83834,2018-06-29 09:28:31.812500,-192.67,82.57
83835,2018-06-29 09:28:31.843750,-207.86,82.57
83836,2018-06-29 09:28:31.875000,-207.8,82.57
83837,2018-06-29 09:28:31.906250,-207.73,82.57
83838,2018-06-29 09:28:31.937500,-215.68,82.57
83839,2018-06-29 09:28:31.968750,-220.35,82.57
83840,2018-06-29 09:28:32.000000,-202.85,82.57
83841,2018-06-29 09:28:32.031250,-156.43,82.57
83842,2018-06-29 09:28:32.062500,-90.48,82.57
83843,2018-06-29 09:28:32.093750,-20.32,82.57
83844,2018-06-29 09:28:32.125000,41.88,82.57
83845,2018-06-29 09:28:32.156250,89.95,82.57
83846,2018-06-29 09:28:32.187500,122.33,82.57
83847,2018-06-29 09:28:32.218750,137.58,82.57
83848,2018-06-29 09:28:32.250000,134.92,82.57
83849,2018-06-29 09:28:32.281250,122.04,82.57
83850,2018-06-29 09:28:32.312500,115.23,82.57
83851,2018-06-29 09:28:32.343750,124.8,82.57
83852,2018-06-29 09:28:32.375000,143.17,82.57
83853,2018-06-29 09:28:32.406250,151.64,82.57
83854,2018-06-29 09:28:32.437500,138.7,82.57
83855,2018-06-29 09:28:32.468750,109.0,82.57
83856,2018-06-29 09:28:32.500000,74.7,82.57
83857,2018-06-29 09:28:32.531250,42.21,82.72
83858,2018-06-29 09:28:32.562500,10.13,82.72
83859,2018-06-29 09:28:32.593750,-20.83,82.72
83860,2018-06-29 09:28:32.625000,-38.9,82.72
83861,2018-06-29 09:28:32.656250,-26.65,82.72
83862,2018-06-29 09:28:32.687500,19.32,82.72
83863,2018-06-29 09:28:32.718750,77.15,82.72
83864,2018-06-29 09:28:32.750000,115.93,82.72
83865,2018-06-29 09:28:32.781250,121.14,82.72
83866,2018-06-29 09:28:32.812500,98.1,82.72
83867,2018-06-29 09:28:32.843750,57.01,82.72
83868,2018-06-29 09:28:32.875000,4.63,82.72
83869,2018-06-29 09:28:32.906250,-51.28,82.72
83870,2018-06-29 09:28:32.937500,-97.35,82.72
83871,2018-06-29 09:28:32.968750,-118.94,82.72
83872,2018-06-29 09:28:33.000000,-112.48,82.72
83873,2018-06-29 09:28:33.031250,-91.9,82.72
83874,2018-06-29 09:28:33.062500,-77.74,82.72
83875,2018-06-29 09:28:33.093750,-79.17,82.72
83876,2018-06-29 09:28:33.125000,-86.91,82.72
83877,2018-06-29 09:28:33.156250,-80.93,82.72
83878,2018-06-29 09:28:33.187500,-48.43,82.72
83879,2018-06-29 09:28:33.218750,1.22,82.72
83880,2018-06-29 09:28:33.250000,44.21,82.72
83881,2018-06-29 09:28:33.281250,66.85,82.72
83882,2018-06-29 09:28:33.312500,73.71,82.72
83883,2018-06-29 09:28:33.343750,70.32,82.72
83884,2018-06-29 09:28:33.375000,52.51,82.72
83885,2018-06-29 09:28:33.406250,21.81,82.72
83886,2018-06-29 09:28:33.437500,-0.27,82.72
83887,2018-06-29 09:28:33.468750,8.25,82.72
83888,2018-06-29 09:28:33.500000,41.96,82.72
83889,2018-06-29 09:28:33.531250,80.26,82.78
83890,2018-06-29 09:28:33.562500,113.12,82.78
83891,2018-06-29 09:28:33.593750,126.22,82.78
83892,2018-06-29 09:28:33.625000,92.1,82.78
83893,2018-06-29 09:28:33.656250,13.36,82.78
83894,2018-06-29 09:28:33.687500,-63.66,82.78
83895,2018-06-29 09:28:33.718750,-105.57,82.78
83896,2018-06-29 09:28:33.750000,-119.99,82.78
83897,2018-06-29 09:28:33.781250,-119.46,82.78
83898,2018-06-29 09:28:33.812500,-106.3,82.78
83899,2018-06-29 09:28:33.843750,-91.37,82.78
83900,2018-06-29 09:28:33.875000,-85.72,82.78
83901,2018-06-29 09:28:33.906250,-80.57,82.78
83902,2018-06-29 09:28:33.937500,-60.24,82.78
83903,2018-06-29 09:28:33.968750,-25.46,82.78
83904,2018-06-29 09:28:34.000000,11.92,82.78
83905,2018-06-29 09:28:34.031250,48.69,82.78
83906,2018-06-29 09:28:34.062500,83.95,82.78
83907,2018-06-29 09:28:34.093750,98.49,82.78
83908,2018-06-29 09:28:34.125000,70.07,82.78
83909,2018-06-29 09:28:34.156250,9.47,82.78
83910,2018-06-29 09:28:34.187500,-47.61,82.78
83911,2018-06-29 09:28:34.218750,-79.34,82.78
83912,2018-06-29 09:28:34.250000,-85.13,82.78
83913,2018-06-29 09:28:34.281250,-70.43,82.78
83914,2018-06-29 09:28:34.312500,-48.53,82.78
83915,2018-06-29 09:28:34.343750,-43.27,82.78
83916,2018-06-29 09:28:34.375000,-70.16,82.78
83917,2018-06-29 09:28:34.406250,-119.55,82.78
83918,2018-06-29 09:28:34.437500,-166.32,82.78
83919,2018-06-29 09:28:34.468750,-194.15,82.78
83920,2018-06-29 09:28:34.500000,-204.07,82.78
83921,2018-06-29 09:28:34.531250,-197.72,82.87
83922,2018-06-29 09:28:34.562500,-166.78,82.87
83923,2018-06-29 09:28:34.593750,-108.23,82.87
83924,2018-06-29 09:28:34.625000,-38.13,82.87
83925,2018-06-29 09:28:34.656250,22.8,82.87
83926,2018-06-29 09:28:34.687500,68.37,82.87
83927,2018-06-29 09:28:34.718750,101.33,82.87
83928,2018-06-29 09:28:34.750000,119.97,82.87
83929,2018-06-29 09:28:34.781250,120.96,82.87
83930,2018-06-29 09:28:34.812500,108.58,82.87
83931,2018-06-29 09:28:34.843750,93.06,82.87
83932,2018-06-29 09:28:34.875000,82.91,82.87
83933,2018-06-29 09:28:34.906250,82.45,82.87
83934,2018-06-29 09:28:34.937500,92.38,82.87
83935,2018-06-29 09:28:34.968750,109.0,82.87
83936,2018-06-29 09:28:35.000000,126.3,82.87
83937,2018-06-29 09:28:35.031250,139.46,82.87
83938,2018-06-29 09:28:35.062500,141.79,82.87
83939,2018-06-29 09:28:35.093750,120.26,82.87
83940,2018-06-29 09:28:35.125000,63.81,82.87
83941,2018-06-29 09:28:35.156250,-19.56,82.87
83942,2018-06-29 09:28:35.187500,-99.56,82.87
83943,2018-06-29 09:28:35.218750,-145.91,82.87
83944,2018-06-29 09:28:35.250000,-152.76,82.87
83945,2018-06-29 09:28:35.281250,-135.82,82.87
83946,2018-06-29 09:28:35.312500,-111.34,82.87
83947,2018-06-29 09:28:35.343750,-87.3,82.87
83948,2018-06-29 09:28:35.375000,-67.74,82.87
83949,2018-06-29 09:28:35.406250,-51.91,82.87
83950,2018-06-29 09:28:35.437500,-32.42,82.87
83951,2018-06-29 09:28:35.468750,-3.58,82.87
83952,2018-06-29 09:28:35.500000,30.74,82.87
83953,2018-06-29 09:28:35.531250,61.84,82.97
83954,2018-06-29 09:28:35.562500,83.6,82.97
83955,2018-06-29 09:28:35.593750,91.82,82.97
83956,2018-06-29 09:28:35.625000,84.2,82.97
83957,2018-06-29 09:28:35.656250,64.68,82.97
83958,2018-06-29 09:28:35.687500,43.6,82.97
83959,2018-06-29 09:28:35.718750,31.89,82.97
83960,2018-06-29 09:28:35.750000,35.11,82.97
83961,2018-06-29 09:28:35.781250,51.35,82.97
83962,2018-06-29 09:28:35.812500,74.1,82.97
83963,2018-06-29 09:28:35.843750,97.26,82.97
83964,2018-06-29 09:28:35.875000,114.42,82.97
83965,2018-06-29 09:28:35.906250,117.63,82.97
83966,2018-06-29 09:28:35.937500,103.66,82.97
83967,2018-06-29 09:28:35.968750,79.52,82.97
83968,2018-06-29 09:28:36.000000,56.06,82.97
83969,2018-06-29 09:28:36.031250,39.01,82.97
83970,2018-06-29 09:28:36.062500,30.24,82.97
83971,2018-06-29 09:28:36.093750,32.68,82.97
83972,2018-06-29 09:28:36.125000,46.49,82.97
83973,2018-06-29 09:28:36.156250,64.25,82.97
83974,2018-06-29 09:28:36.187500,76.84,82.97
83975,2018-06-29 09:28:36.218750,79.62,82.97
83976,2018-06-29 09:28:36.250000,67.04,82.97
83977,2018-06-29 09:28:36.281250,32.18,82.97
83978,2018-06-29 09:28:36.312500,-20.68,82.97
83979,2018-06-29 09:28:36.343750,-77.01,82.97
83980,2018-06-29 09:28:36.375000,-128.17,82.97
83981,2018-06-29 09:28:36.406250,-170.8,82.97
83982,2018-06-29 09:28:36.437500,-200.31,82.97
83983,2018-06-29 09:28:36.468750,-222.35,82.97
83984,2018-06-29 09:28:36.500000,-250.09,82.97
83985,2018-06-29 09:28:36.531250,-276.48,83.1
83986,2018-06-29 09:28:36.562500,-274.33,83.1
83987,2018-06-29 09:28:36.593750,-230.13,83.1
83988,2018-06-29 09:28:36.625000,-153.47,83.1
83989,2018-06-29 09:28:36.656250,-58.41,83.1
83990,2018-06-29 09:28:36.687500,39.53,83.1
83991,2018-06-29 09:28:36.718750,114.98,83.1
83992,2018-06-29 09:28:36.750000,144.49,83.1
83993,2018-06-29 09:28:36.781250,128.11,83.1
83994,2018-06-29 09:28:36.812500,90.3,83.1
83995,2018-06-29 09:28:36.843750,62.92,83.1
83996,2018-06-29 09:28:36.875000,69.39,83.1
83997,2018-06-29 09:28:36.906250,111.6,83.1
83998,2018-06-29 09:28:36.937500,164.94,83.1
83999,2018-06-29 09:28:36.968750,194.31,83.1
84000,2018-06-29 09:28:37.000000,180.73,83.1
84001,2018-06-29 09:28:37.031250,131.19,83.1
84002,2018-06-29 09:28:37.062500,66.26,83.1
84003,2018-06-29 09:28:37.093750,2.63,83.1
84004,2018-06-29 09:28:37.125000,-54.13,83.1
84005,2018-06-29 09:28:37.156250,-101.71,83.1
84006,2018-06-29 09:28:37.187500,-129.21,83.1
84007,2018-06-29 09:28:37.218750,-121.89,83.1
84008,2018-06-29 09:28:37.250000,-77.79,83.1
84009,2018-06-29 09:28:37.281250,-12.21,83.1
84010,2018-06-29 09:28:37.312500,49.27,83.1
84011,2018-06-29 09:28:37.343750,79.38,83.1
84012,2018-06-29 09:28:37.375000,67.14,83.1
84013,2018-06-29 09:28:37.406250,32.64,83.1
84014,2018-06-29 09:28:37.437500,6.6,83.1
84015,2018-06-29 09:28:37.468750,-4.06,83.1
84016,2018-06-29 09:28:37.500000,-12.76,83.1
84017,2018-06-29 09:28:37.531250,-24.84,83.2
84018,2018-06-29 09:28:37.562500,-32.04,83.2
84019,2018-06-29 09:28:37.593750,-29.79,83.2
84020,2018-06-29 09:28:37.625000,-23.37,83.2
84021,2018-06-29 09:28:37.656250,-20.51,83.2
84022,2018-06-29 09:28:37.687500,-24.42,83.2
84023,2018-06-29 09:28:37.718750,-31.32,83.2
84024,2018-06-29 09:28:37.750000,-32.84,83.2
84025,2018-06-29 09:28:37.781250,-23.97,83.2
84026,2018-06-29 09:28:37.812500,-9.93,83.2
84027,2018-06-29 09:28:37.843750,6.79,83.2
84028,2018-06-29 09:28:37.875000,34.33,83.2
84029,2018-06-29 09:28:37.906250,77.65,83.2
84030,2018-06-29 09:28:37.937500,122.59,83.2
84031,2018-06-29 09:28:37.968750,149.79,83.2
84032,2018-06-29 09:28:38.000000,156.24,83.2
84033,2018-06-29 09:28:38.031250,149.93,83.2
84034,2018-06-29 09:28:38.062500,134.42,83.2
84035,2018-06-29 09:28:38.093750,99.81,83.2
84036,2018-06-29 09:28:38.125000,38.23,83.2
84037,2018-06-29 09:28:38.156250,-45.89,83.2
84038,2018-06-29 09:28:38.187500,-127.77,83.2
84039,2018-06-29 09:28:38.218750,-159.69,83.2
84040,2018-06-29 09:28:38.250000,-139.82,83.2
84041,2018-06-29 09:28:38.281250,-97.48,83.2
84042,2018-06-29 09:28:38.312500,-55.47,83.2
84043,2018-06-29 09:28:38.343750,-25.7,83.2
84044,2018-06-29 09:28:38.375000,-10.5,83.2
84045,2018-06-29 09:28:38.406250,1.15,83.2
84046,2018-06-29 09:28:38.437500,16.36,83.2
84047,2018-06-29 09:28:38.468750,27.46,83.2
84048,2018-06-29 09:28:38.500000,27.04,83.2
84049,2018-06-29 09:28:38.531250,17.58,83.25
84050,2018-06-29 09:28:38.562500,6.25,83.25
84051,2018-06-29 09:28:38.593750,-9.6,83.25
84052,2018-06-29 09:28:38.625000,-36.35,83.25
84053,2018-06-29 09:28:38.656250,-76.36,83.25
84054,2018-06-29 09:28:38.687500,-119.4,83.25
84055,2018-06-29 09:28:38.718750,-130.94,83.25
84056,2018-06-29 09:28:38.750000,-99.64,83.25
84057,2018-06-29 09:28:38.781250,-63.22,83.25
84058,2018-06-29 09:28:38.812500,-58.72,83.25
84059,2018-06-29 09:28:38.843750,-75.1,83.25
84060,2018-06-29 09:28:38.875000,-86.11,83.25
84061,2018-06-29 09:28:38.906250,-94.84,83.25
84062,2018-06-29 09:28:38.937500,-105.28,83.25
84063,2018-06-29 09:28:38.968750,-106.86,83.25
84064,2018-06-29 09:28:39.000000,-94.19,83.25
84065,2018-06-29 09:28:39.031250,-78.36,83.25
84066,2018-06-29 09:28:39.062500,-64.39,83.25
84067,2018-06-29 09:28:39.093750,-46.56,83.25
84068,2018-06-29 09:28:39.125000,-28.49,83.25
84069,2018-06-29 09:28:39.156250,-25.3,83.25
84070,2018-06-29 09:28:39.187500,-38.53,83.25
84071,2018-06-29 09:28:39.218750,-52.11,83.25
84072,2018-06-29 09:28:39.250000,-48.61,83.25
84073,2018-06-29 09:28:39.281250,-31.82,83.25
84074,2018-06-29 09:28:39.312500,-16.4,83.25
84075,2018-06-29 09:28:39.343750,-6.04,83.25
84076,2018-06-29 09:28:39.375000,3.6,83.25
84077,2018-06-29 09:28:39.406250,12.86,83.25
84078,2018-06-29 09:28:39.437500,21.06,83.25
84079,2018-06-29 09:28:39.468750,31.02,83.25
84080,2018-06-29 09:28:39.500000,44.85,83.25
84081,2018-06-29 09:28:39.531250,59.26,83.27
84082,2018-06-29 09:28:39.562500,68.97,83.27
84083,2018-06-29 09:28:39.593750,72.35,83.27
84084,2018-06-29 09:28:39.625000,71.42,83.27
84085,2018-06-29 09:28:39.656250,67.49,83.27
84086,2018-06-29 09:28:39.687500,59.22,83.27
84087,2018-06-29 09:28:39.718750,47.44,83.27
84088,2018-06-29 09:28:39.750000,37.15,83.27
84089,2018-06-29 09:28:39.781250,30.97,83.27
84090,2018-06-29 09:28:39.812500,23.54,83.27
84091,2018-06-29 09:28:39.843750,8.22,83.27
84092,2018-06-29 09:28:39.875000,-11.0,83.27
84093,2018-06-29 09:28:39.906250,-18.52,83.27
84094,2018-06-29 09:28:39.937500,-1.34,83.27
84095,2018-06-29 09:28:39.968750,35.42,83.27
84096,2018-06-29 09:28:40.000000,72.15,83.27
84097,2018-06-29 09:28:40.031250,93.84,83.27
84098,2018-06-29 09:28:40.062500,100.3,83.27
84099,2018-06-29 09:28:40.093750,98.45,83.27
84100,2018-06-29 09:28:40.125000,93.12,83.27
84101,2018-06-29 09:28:40.156250,86.75,83.27
84102,2018-06-29 09:28:40.187500,80.86,83.27
84103,2018-06-29 09:28:40.218750,75.06,83.27
84104,2018-06-29 09:28:40.250000,66.15,83.27
84105,2018-06-29 09:28:40.281250,49.62,83.27
84106,2018-06-29 09:28:40.312500,22.88,83.27
84107,2018-06-29 09:28:40.343750,-11.98,83.27
84108,2018-06-29 09:28:40.375000,-46.9,83.27
84109,2018-06-29 09:28:40.406250,-68.49,83.27
84110,2018-06-29 09:28:40.437500,-64.98,83.27
84111,2018-06-29 09:28:40.468750,-38.77,83.27
84112,2018-06-29 09:28:40.500000,-8.75,83.27
84113,2018-06-29 09:28:40.531250,6.32,83.27
84114,2018-06-29 09:28:40.562500,5.03,83.27
84115,2018-06-29 09:28:40.593750,2.48,83.27
84116,2018-06-29 09:28:40.625000,15.29,83.27
84117,2018-06-29 09:28:40.656250,45.11,83.27
84118,2018-06-29 09:28:40.687500,75.58,83.27
84119,2018-06-29 09:28:40.718750,89.12,83.27
84120,2018-06-29 09:28:40.750000,84.26,83.27
84121,2018-06-29 09:28:40.781250,70.94,83.27
84122,2018-06-29 09:28:40.812500,54.79,83.27
84123,2018-06-29 09:28:40.843750,34.13,83.27
84124,2018-06-29 09:28:40.875000,9.42,83.27
84125,2018-06-29 09:28:40.906250,-11.72,83.27
84126,2018-06-29 09:28:40.937500,-20.96,83.27
84127,2018-06-29 09:28:40.968750,-18.69,83.27
84128,2018-06-29 09:28:41.000000,-14.7,83.27
84129,2018-06-29 09:28:41.031250,-18.78,83.27
84130,2018-06-29 09:28:41.062500,-32.64,83.27
84131,2018-06-29 09:28:41.093750,-50.52,83.27
84132,2018-06-29 09:28:41.125000,-64.33,83.27
84133,2018-06-29 09:28:41.156250,-69.14,83.27
84134,2018-06-29 09:28:41.187500,-66.44,83.27
84135,2018-06-29 09:28:41.218750,-62.09,83.27
84136,2018-06-29 09:28:41.250000,-59.88,83.27
84137,2018-06-29 09:28:41.281250,-56.35,83.27
84138,2018-06-29 09:28:41.312500,-42.93,83.27
84139,2018-06-29 09:28:41.343750,-15.71,83.27
84140,2018-06-29 09:28:41.375000,18.32,83.27
84141,2018-06-29 09:28:41.406250,48.68,83.27
84142,2018-06-29 09:28:41.437500,71.46,83.27
84143,2018-06-29 09:28:41.468750,87.24,83.27
84144,2018-06-29 09:28:41.500000,94.96,83.27
84145,2018-06-29 09:28:41.531250,94.4,83.27
84146,2018-06-29 09:28:41.562500,89.38,83.27
84147,2018-06-29 09:28:41.593750,82.97,83.27
84148,2018-06-29 09:28:41.625000,73.21,83.27
84149,2018-06-29 09:28:41.656250,58.56,83.27
84150,2018-06-29 09:28:41.687500,44.09,83.27
84151,2018-06-29 09:28:41.718750,36.55,83.27
84152,2018-06-29 09:28:41.750000,35.07,83.27
84153,2018-06-29 09:28:41.781250,32.65,83.27
84154,2018-06-29 09:28:41.812500,25.62,83.27
84155,2018-06-29 09:28:41.843750,15.72,83.27
84156,2018-06-29 09:28:41.875000,3.32,83.27
84157,2018-06-29 09:28:41.906250,-17.04,83.27
84158,2018-06-29 09:28:41.937500,-51.07,83.27
84159,2018-06-29 09:28:41.968750,-93.05,83.27
84160,2018-06-29 09:28:42.000000,-122.39,83.27
84161,2018-06-29 09:28:42.031250,-116.94,83.27
84162,2018-06-29 09:28:42.062500,-72.11,83.27
84163,2018-06-29 09:28:42.093750,-6.2,83.27
84164,2018-06-29 09:28:42.125000,51.97,83.27
84165,2018-06-29 09:28:42.156250,82.16,83.27
84166,2018-06-29 09:28:42.187500,83.74,83.27
84167,2018-06-29 09:28:42.218750,69.28,83.27
84168,2018-06-29 09:28:42.250000,50.53,83.27
84169,2018-06-29 09:28:42.281250,33.77,83.27
84170,2018-06-29 09:28:42.312500,21.58,83.27
84171,2018-06-29 09:28:42.343750,10.22,83.27
84172,2018-06-29 09:28:42.375000,-9.55,83.27
84173,2018-06-29 09:28:42.406250,-41.27,83.27
84174,2018-06-29 09:28:42.437500,-76.81,83.27
84175,2018-06-29 09:28:42.468750,-105.02,83.27
84176,2018-06-29 09:28:42.500000,-120.25,83.27
84177,2018-06-29 09:28:42.531250,-120.37,83.28
84178,2018-06-29 09:28:42.562500,-103.66,83.28
84179,2018-06-29 09:28:42.593750,-71.81,83.28
84180,2018-06-29 09:28:42.625000,-33.01,83.28
84181,2018-06-29 09:28:42.656250,-0.45,83.28
84182,2018-06-29 09:28:42.687500,12.8,83.28
84183,2018-06-29 09:28:42.718750,2.99,83.28
84184,2018-06-29 09:28:42.750000,-16.52,83.28
84185,2018-06-29 09:28:42.781250,-22.01,83.28
84186,2018-06-29 09:28:42.812500,0.79,83.28
84187,2018-06-29 09:28:42.843750,44.0,83.28
84188,2018-06-29 09:28:42.875000,85.57,83.28
84189,2018-06-29 09:28:42.906250,107.63,83.28
84190,2018-06-29 09:28:42.937500,106.99,83.28
84191,2018-06-29 09:28:42.968750,92.86,83.28
84192,2018-06-29 09:28:43.000000,77.45,83.28
84193,2018-06-29 09:28:43.031250,65.94,83.28
84194,2018-06-29 09:28:43.062500,52.66,83.28
84195,2018-06-29 09:28:43.093750,29.61,83.28
84196,2018-06-29 09:28:43.125000,0.43,83.28
84197,2018-06-29 09:28:43.156250,-17.8,83.28
84198,2018-06-29 09:28:43.187500,-11.73,83.28
84199,2018-06-29 09:28:43.218750,11.46,83.28
84200,2018-06-29 09:28:43.250000,30.83,83.28
84201,2018-06-29 09:28:43.281250,34.05,83.28
84202,2018-06-29 09:28:43.312500,24.45,83.28
84203,2018-06-29 09:28:43.343750,9.05,83.28
84204,2018-06-29 09:28:43.375000,-10.41,83.28
84205,2018-06-29 09:28:43.406250,-34.96,83.28
84206,2018-06-29 09:28:43.437500,-63.27,83.28
84207,2018-06-29 09:28:43.468750,-89.07,83.28
84208,2018-06-29 09:28:43.500000,-103.26,83.28
84209,2018-06-29 09:28:43.531250,-99.89,83.23
84210,2018-06-29 09:28:43.562500,-77.98,83.23
84211,2018-06-29 09:28:43.593750,-40.82,83.23
84212,2018-06-29 09:28:43.625000,2.44,83.23
84213,2018-06-29 09:28:43.656250,38.52,83.23
84214,2018-06-29 09:28:43.687500,57.84,83.23
84215,2018-06-29 09:28:43.718750,62.93,83.23
84216,2018-06-29 09:28:43.750000,69.4,83.23
84217,2018-06-29 09:28:43.781250,91.3,83.23
84218,2018-06-29 09:28:43.812500,124.59,83.23
84219,2018-06-29 09:28:43.843750,153.99,83.23
84220,2018-06-29 09:28:43.875000,170.12,83.23
84221,2018-06-29 09:28:43.906250,166.72,83.23
84222,2018-06-29 09:28:43.937500,135.47,83.23
84223,2018-06-29 09:28:43.968750,81.24,83.23
84224,2018-06-29 09:28:44.000000,24.8,83.23
84225,2018-06-29 09:28:44.031250,-24.68,83.23
84226,2018-06-29 09:28:44.062500,-76.15,83.23
84227,2018-06-29 09:28:44.093750,-127.06,83.23
84228,2018-06-29 09:28:44.125000,-159.74,83.23
84229,2018-06-29 09:28:44.156250,-172.92,83.23
84230,2018-06-29 09:28:44.187500,-182.02,83.23
84231,2018-06-29 09:28:44.218750,-187.84,83.23
84232,2018-06-29 09:28:44.250000,-178.4,83.23
84233,2018-06-29 09:28:44.281250,-155.26,83.23
84234,2018-06-29 09:28:44.312500,-129.18,83.23
84235,2018-06-29 09:28:44.343750,-97.81,83.23
84236,2018-06-29 09:28:44.375000,-49.14,83.23
84237,2018-06-29 09:28:44.406250,18.66,83.23
84238,2018-06-29 09:28:44.437500,89.9,83.23
84239,2018-06-29 09:28:44.468750,141.82,83.23
84240,2018-06-29 09:28:44.500000,160.0,83.23
84241,2018-06-29 09:28:44.531250,144.1,83.15
84242,2018-06-29 09:28:44.562500,99.62,83.15
84243,2018-06-29 09:28:44.593750,32.65,83.15
84244,2018-06-29 09:28:44.625000,-43.52,83.15
84245,2018-06-29 09:28:44.656250,-105.73,83.15
84246,2018-06-29 09:28:44.687500,-134.4,83.15
84247,2018-06-29 09:28:44.718750,-128.67,83.15
84248,2018-06-29 09:28:44.750000,-105.23,83.15
84249,2018-06-29 09:28:44.781250,-81.98,83.15
84250,2018-06-29 09:28:44.812500,-64.95,83.15
84251,2018-06-29 09:28:44.843750,-50.47,83.15
84252,2018-06-29 09:28:44.875000,-33.68,83.15
84253,2018-06-29 09:28:44.906250,-13.74,83.15
84254,2018-06-29 09:28:44.937500,4.22,83.15
84255,2018-06-29 09:28:44.968750,12.56,83.15
84256,2018-06-29 09:28:45.000000,8.78,83.15
84257,2018-06-29 09:28:45.031250,-4.94,83.15
84258,2018-06-29 09:28:45.062500,-28.35,83.15
84259,2018-06-29 09:28:45.093750,-59.59,83.15
84260,2018-06-29 09:28:45.125000,-84.15,83.15
84261,2018-06-29 09:28:45.156250,-77.81,83.15
84262,2018-06-29 09:28:45.187500,-28.76,83.15
84263,2018-06-29 09:28:45.218750,46.18,83.15
84264,2018-06-29 09:28:45.250000,113.42,83.15
84265,2018-06-29 09:28:45.281250,148.58,83.15
84266,2018-06-29 09:28:45.312500,147.95,83.15
84267,2018-06-29 09:28:45.343750,121.11,83.15
84268,2018-06-29 09:28:45.375000,81.27,83.15
84269,2018-06-29 09:28:45.406250,42.2,83.15
84270,2018-06-29 09:28:45.437500,16.93,83.15
84271,2018-06-29 09:28:45.468750,12.76,83.15
84272,2018-06-29 09:28:45.500000,27.29,83.15
84273,2018-06-29 09:28:45.531250,52.47,83.03
84274,2018-06-29 09:28:45.562500,79.39,83.03
84275,2018-06-29 09:28:45.593750,97.91,83.03
84276,2018-06-29 09:28:45.625000,102.38,83.03
84277,2018-06-29 09:28:45.656250,97.95,83.03
84278,2018-06-29 09:28:45.687500,87.34,83.03
84279,2018-06-29 09:28:45.718750,60.72,83.03
84280,2018-06-29 09:28:45.750000,14.89,83.03
84281,2018-06-29 09:28:45.781250,-36.52,83.03
84282,2018-06-29 09:28:45.812500,-85.95,83.03
84283,2018-06-29 09:28:45.843750,-137.44,83.03
84284,2018-06-29 09:28:45.875000,-181.57,83.03
84285,2018-06-29 09:28:45.906250,-197.34,83.03
84286,2018-06-29 09:28:45.937500,-183.8,83.03
84287,2018-06-29 09:28:45.968750,-161.4,83.03
84288,2018-06-29 09:28:46.000000,-141.76,83.03
84289,2018-06-29 09:28:46.031250,-119.25,83.03
84290,2018-06-29 09:28:46.062500,-90.37,83.03
84291,2018-06-29 09:28:46.093750,-61.77,83.03
84292,2018-06-29 09:28:46.125000,-38.97,83.03
84293,2018-06-29 09:28:46.156250,-20.8,83.03
84294,2018-06-29 09:28:46.187500,-4.14,83.03
84295,2018-06-29 09:28:46.218750,13.92,83.03
84296,2018-06-29 09:28:46.250000,36.01,83.03
84297,2018-06-29 09:28:46.281250,63.6,83.03
84298,2018-06-29 09:28:46.312500,96.17,83.03
84299,2018-06-29 09:28:46.343750,129.45,83.03
84300,2018-06-29 09:28:46.375000,154.03,83.03
84301,2018-06-29 09:28:46.406250,159.72,83.03
84302,2018-06-29 09:28:46.437500,142.6,83.03
84303,2018-06-29 09:28:46.468750,108.05,83.03
84304,2018-06-29 09:28:46.500000,67.63,83.03
84305,2018-06-29 09:28:46.531250,31.03,82.92
84306,2018-06-29 09:28:46.562500,-0.24,82.92
84307,2018-06-29 09:28:46.593750,-27.36,82.92
84308,2018-06-29 09:28:46.625000,-43.04,82.92
84309,2018-06-29 09:28:46.656250,-32.98,82.92
84310,2018-06-29 09:28:46.687500,8.63,82.92
84311,2018-06-29 09:28:46.718750,68.95,82.92
84312,2018-06-29 09:28:46.750000,123.63,82.92
84313,2018-06-29 09:28:46.781250,151.2,82.92
84314,2018-06-29 09:28:46.812500,141.63,82.92
84315,2018-06-29 09:28:46.843750,98.01,82.92
84316,2018-06-29 09:28:46.875000,33.68,82.92
84317,2018-06-29 09:28:46.906250,-33.93,82.92
84318,2018-06-29 09:28:46.937500,-89.05,82.92
84319,2018-06-29 09:28:46.968750,-121.4,82.92
84320,2018-06-29 09:28:47.000000,-132.02,82.92
84321,2018-06-29 09:28:47.031250,-133.36,82.92
84322,2018-06-29 09:28:47.062500,-137.22,82.92
84323,2018-06-29 09:28:47.093750,-144.05,82.92
84324,2018-06-29 09:28:47.125000,-148.38,82.92
84325,2018-06-29 09:28:47.156250,-147.07,82.92
84326,2018-06-29 09:28:47.187500,-137.19,82.92
84327,2018-06-29 09:28:47.218750,-113.51,82.92
84328,2018-06-29 09:28:47.250000,-77.86,82.92
84329,2018-06-29 09:28:47.281250,-48.91,82.92
84330,2018-06-29 09:28:47.312500,-48.42,82.92
84331,2018-06-29 09:28:47.343750,-72.44,82.92
84332,2018-06-29 09:28:47.375000,-90.71,82.92
84333,2018-06-29 09:28:47.406250,-77.32,82.92
84334,2018-06-29 09:28:47.437500,-29.9,82.92
84335,2018-06-29 09:28:47.468750,35.63,82.92
84336,2018-06-29 09:28:47.500000,95.53,82.92
84337,2018-06-29 09:28:47.531250,130.16,82.77
84338,2018-06-29 09:28:47.562500,135.46,82.77
84339,2018-06-29 09:28:47.593750,120.47,82.77
84340,2018-06-29 09:28:47.625000,96.79,82.77
84341,2018-06-29 09:28:47.656250,72.73,82.77
84342,2018-06-29 09:28:47.687500,50.66,82.77
84343,2018-06-29 09:28:47.718750,28.91,82.77
84344,2018-06-29 09:28:47.750000,9.58,82.77
84345,2018-06-29 09:28:47.781250,0.9,82.77
84346,2018-06-29 09:28:47.812500,8.99,82.77
84347,2018-06-29 09:28:47.843750,32.23,82.77
84348,2018-06-29 09:28:47.875000,61.93,82.77
84349,2018-06-29 09:28:47.906250,84.13,82.77
84350,2018-06-29 09:28:47.937500,84.88,82.77
84351,2018-06-29 09:28:47.968750,57.39,82.77
84352,2018-06-29 09:28:48.000000,4.01,82.77
84353,2018-06-29 09:28:48.031250,-61.81,82.77
84354,2018-06-29 09:28:48.062500,-114.62,82.77
84355,2018-06-29 09:28:48.093750,-132.93,82.77
84356,2018-06-29 09:28:48.125000,-118.31,82.77
84357,2018-06-29 09:28:48.156250,-89.98,82.77
84358,2018-06-29 09:28:48.187500,-66.45,82.77
84359,2018-06-29 09:28:48.218750,-57.45,82.77
84360,2018-06-29 09:28:48.250000,-62.11,82.77
84361,2018-06-29 09:28:48.281250,-68.88,82.77
84362,2018-06-29 09:28:48.312500,-65.26,82.77
84363,2018-06-29 09:28:48.343750,-47.89,82.77
84364,2018-06-29 09:28:48.375000,-19.99,82.77
84365,2018-06-29 09:28:48.406250,15.64,82.77
84366,2018-06-29 09:28:48.437500,55.08,82.77
84367,2018-06-29 09:28:48.468750,86.08,82.77
84368,2018-06-29 09:28:48.500000,92.5,82.77
84369,2018-06-29 09:28:48.531250,69.51,82.55
84370,2018-06-29 09:28:48.562500,28.47,82.55
84371,2018-06-29 09:28:48.593750,-10.35,82.55
84372,2018-06-29 09:28:48.625000,-26.47,82.55
84373,2018-06-29 09:28:48.656250,-12.76,82.55
84374,2018-06-29 09:28:48.687500,16.95,82.55
84375,2018-06-29 09:28:48.718750,45.09,82.55
84376,2018-06-29 09:28:48.750000,67.2,82.55
84377,2018-06-29 09:28:48.781250,81.66,82.55
84378,2018-06-29 09:28:48.812500,82.02,82.55
84379,2018-06-29 09:28:48.843750,68.41,82.55
84380,2018-06-29 09:28:48.875000,48.78,82.55
84381,2018-06-29 09:28:48.906250,27.65,82.55
84382,2018-06-29 09:28:48.937500,6.73,82.55
84383,2018-06-29 09:28:48.968750,-9.32,82.55
84384,2018-06-29 09:28:49.000000,-15.08,82.55
84385,2018-06-29 09:28:49.031250,-8.21,82.55
84386,2018-06-29 09:28:49.062500,8.87,82.55
84387,2018-06-29 09:28:49.093750,31.29,82.55
84388,2018-06-29 09:28:49.125000,55.58,82.55
84389,2018-06-29 09:28:49.156250,74.75,82.55
84390,2018-06-29 09:28:49.187500,72.56,82.55
84391,2018-06-29 09:28:49.218750,37.28,82.55
84392,2018-06-29 09:28:49.250000,-19.79,82.55
84393,2018-06-29 09:28:49.281250,-75.18,82.55
84394,2018-06-29 09:28:49.312500,-120.37,82.55
84395,2018-06-29 09:28:49.343750,-163.73,82.55
84396,2018-06-29 09:28:49.375000,-203.66,82.55
84397,2018-06-29 09:28:49.406250,-216.3,82.55
84398,2018-06-29 09:28:49.437500,-182.83,82.55
84399,2018-06-29 09:28:49.468750,-115.71,82.55
84400,2018-06-29 09:28:49.500000,-42.59,82.55
84401,2018-06-29 09:28:49.531250,22.38,82.38
84402,2018-06-29 09:28:49.562500,79.22,82.38
84403,2018-06-29 09:28:49.593750,129.99,82.38
84404,2018-06-29 09:28:49.625000,171.73,82.38
84405,2018-06-29 09:28:49.656250,194.4,82.38
84406,2018-06-29 09:28:49.687500,190.57,82.38
84407,2018-06-29 09:28:49.718750,164.78,82.38
84408,2018-06-29 09:28:49.750000,122.48,82.38
84409,2018-06-29 09:28:49.781250,63.41,82.38
84410,2018-06-29 09:28:49.812500,-1.67,82.38
84411,2018-06-29 09:28:49.843750,-48.94,82.38
84412,2018-06-29 09:28:49.875000,-64.86,82.38
84413,2018-06-29 09:28:49.906250,-54.17,82.38
84414,2018-06-29 09:28:49.937500,-29.41,82.38
84415,2018-06-29 09:28:49.968750,-6.6,82.38
84416,2018-06-29 09:28:50.000000,-0.53,82.38
84417,2018-06-29 09:28:50.031250,-13.95,82.38
84418,2018-06-29 09:28:50.062500,-38.33,82.38
84419,2018-06-29 09:28:50.093750,-62.24,82.38
84420,2018-06-29 09:28:50.125000,-72.79,82.38
84421,2018-06-29 09:28:50.156250,-60.92,82.38
84422,2018-06-29 09:28:50.187500,-32.7,82.38
84423,2018-06-29 09:28:50.218750,-5.03,82.38
84424,2018-06-29 09:28:50.250000,13.57,82.38
84425,2018-06-29 09:28:50.281250,30.31,82.38
84426,2018-06-29 09:28:50.312500,51.92,82.38
84427,2018-06-29 09:28:50.343750,66.47,82.38
84428,2018-06-29 09:28:50.375000,55.44,82.38
84429,2018-06-29 09:28:50.406250,21.16,82.38
84430,2018-06-29 09:28:50.437500,-17.48,82.38
84431,2018-06-29 09:28:50.468750,-49.74,82.38
84432,2018-06-29 09:28:50.500000,-71.35,82.38
84433,2018-06-29 09:28:50.531250,-72.61,82.22
84434,2018-06-29 09:28:50.562500,-53.66,82.22
84435,2018-06-29 09:28:50.593750,-37.54,82.22
84436,2018-06-29 09:28:50.625000,-47.88,82.22
84437,2018-06-29 09:28:50.656250,-83.38,82.22
84438,2018-06-29 09:28:50.687500,-123.57,82.22
84439,2018-06-29 09:28:50.718750,-152.2,82.22
84440,2018-06-29 09:28:50.750000,-165.43,82.22
84441,2018-06-29 09:28:50.781250,-159.94,82.22
84442,2018-06-29 09:28:50.812500,-127.02,82.22
84443,2018-06-29 09:28:50.843750,-65.26,82.22
84444,2018-06-29 09:28:50.875000,10.57,82.22
84445,2018-06-29 09:28:50.906250,80.9,82.22
84446,2018-06-29 09:28:50.937500,136.04,82.22
84447,2018-06-29 09:28:50.968750,175.92,82.22
84448,2018-06-29 09:28:51.000000,201.06,82.22
84449,2018-06-29 09:28:51.031250,210.66,82.22
84450,2018-06-29 09:28:51.062500,209.57,82.22
84451,2018-06-29 09:28:51.093750,206.45,82.22
84452,2018-06-29 09:28:51.125000,198.76,82.22
84453,2018-06-29 09:28:51.156250,171.04,82.22
84454,2018-06-29 09:28:51.187500,115.51,82.22
84455,2018-06-29 09:28:51.218750,40.37,82.22
84456,2018-06-29 09:28:51.250000,-41.03,82.22
84457,2018-06-29 09:28:51.281250,-107.9,82.22
84458,2018-06-29 09:28:51.312500,-132.71,82.22
84459,2018-06-29 09:28:51.343750,-112.38,82.22
84460,2018-06-29 09:28:51.375000,-81.61,82.22
84461,2018-06-29 09:28:51.406250,-72.4,82.22
84462,2018-06-29 09:28:51.437500,-81.28,82.22
84463,2018-06-29 09:28:51.468750,-87.27,82.22
84464,2018-06-29 09:28:51.500000,-78.09,82.22
84465,2018-06-29 09:28:51.531250,-54.38,82.07
84466,2018-06-29 09:28:51.562500,-25.91,82.07
84467,2018-06-29 09:28:51.593750,-0.43,82.07
84468,2018-06-29 09:28:51.625000,28.84,82.07
84469,2018-06-29 09:28:51.656250,73.08,82.07
84470,2018-06-29 09:28:51.687500,124.8,82.07
84471,2018-06-29 09:28:51.718750,159.7,82.07
84472,2018-06-29 09:28:51.750000,161.6,82.07
84473,2018-06-29 09:28:51.781250,134.16,82.07
84474,2018-06-29 09:28:51.812500,88.83,82.07
84475,2018-06-29 09:28:51.843750,32.24,82.07
84476,2018-06-29 09:28:51.875000,-30.7,82.07
84477,2018-06-29 09:28:51.906250,-86.71,82.07
84478,2018-06-29 09:28:51.937500,-117.79,82.07
84479,2018-06-29 09:28:51.968750,-119.85,82.07
84480,2018-06-29 09:28:52.000000,-108.38,82.07
84481,2018-06-29 09:28:52.031250,-99.34,82.07
84482,2018-06-29 09:28:52.062500,-95.6,82.07
84483,2018-06-29 09:28:52.093750,-97.88,82.07
84484,2018-06-29 09:28:52.125000,-112.17,82.07
84485,2018-06-29 09:28:52.156250,-134.46,82.07
84486,2018-06-29 09:28:52.187500,-137.98,82.07
84487,2018-06-29 09:28:52.218750,-93.09,82.07
84488,2018-06-29 09:28:52.250000,-4.44,82.07
84489,2018-06-29 09:28:52.281250,87.69,82.07
84490,2018-06-29 09:28:52.312500,149.14,82.07
84491,2018-06-29 09:28:52.343750,177.41,82.07
84492,2018-06-29 09:28:52.375000,183.37,82.07
84493,2018-06-29 09:28:52.406250,170.63,82.07
84494,2018-06-29 09:28:52.437500,137.27,82.07
84495,2018-06-29 09:28:52.468750,82.78,82.07
84496,2018-06-29 09:28:52.500000,14.41,82.07
84497,2018-06-29 09:28:52.531250,-48.91,81.93
84498,2018-06-29 09:28:52.562500,-86.68,81.93
84499,2018-06-29 09:28:52.593750,-89.94,81.93
84500,2018-06-29 09:28:52.625000,-65.66,81.93
84501,2018-06-29 09:28:52.656250,-34.83,81.93
84502,2018-06-29 09:28:52.687500,-18.49,81.93
84503,2018-06-29 09:28:52.718750,-18.47,81.93
84504,2018-06-29 09:28:52.750000,-22.91,81.93
84505,2018-06-29 09:28:52.781250,-30.03,81.93
84506,2018-06-29 09:28:52.812500,-49.09,81.93
84507,2018-06-29 09:28:52.843750,-77.52,81.93
84508,2018-06-29 09:28:52.875000,-91.48,81.93
84509,2018-06-29 09:28:52.906250,-64.23,81.93
84510,2018-06-29 09:28:52.937500,4.73,81.93
84511,2018-06-29 09:28:52.968750,84.49,81.93
84512,2018-06-29 09:28:53.000000,142.22,81.93
84513,2018-06-29 09:28:53.031250,168.66,81.93
84514,2018-06-29 09:28:53.062500,169.53,81.93
84515,2018-06-29 09:28:53.093750,149.77,81.93
84516,2018-06-29 09:28:53.125000,115.25,81.93
84517,2018-06-29 09:28:53.156250,75.55,81.93
84518,2018-06-29 09:28:53.187500,37.57,81.93
84519,2018-06-29 09:28:53.218750,4.74,81.93
84520,2018-06-29 09:28:53.250000,-18.16,81.93
84521,2018-06-29 09:28:53.281250,-27.53,81.93
84522,2018-06-29 09:28:53.312500,-28.72,81.93
84523,2018-06-29 09:28:53.343750,-36.93,81.93
84524,2018-06-29 09:28:53.375000,-65.84,81.93
84525,2018-06-29 09:28:53.406250,-110.57,81.93
84526,2018-06-29 09:28:53.437500,-144.1,81.93
84527,2018-06-29 09:28:53.468750,-141.71,81.93
84528,2018-06-29 09:28:53.500000,-109.93,81.93
84529,2018-06-29 09:28:53.531250,-77.44,81.92
84530,2018-06-29 09:28:53.562500,-57.32,81.92
84531,2018-06-29 09:28:53.593750,-33.63,81.92
84532,2018-06-29 09:28:53.625000,8.77,81.92
84533,2018-06-29 09:28:53.656250,53.15,81.92
84534,2018-06-29 09:28:53.687500,63.69,81.92
84535,2018-06-29 09:28:53.718750,30.93,81.92
84536,2018-06-29 09:28:53.750000,-12.22,81.92
84537,2018-06-29 09:28:53.781250,-26.84,81.92
84538,2018-06-29 09:28:53.812500,-4.9,81.92
84539,2018-06-29 09:28:53.843750,35.35,81.92
84540,2018-06-29 09:28:53.875000,72.62,81.92
84541,2018-06-29 09:28:53.906250,92.74,81.92
84542,2018-06-29 09:28:53.937500,89.23,81.92
84543,2018-06-29 09:28:53.968750,66.5,81.92
84544,2018-06-29 09:28:54.000000,37.26,81.92
84545,2018-06-29 09:28:54.031250,9.76,81.92
84546,2018-06-29 09:28:54.062500,-17.48,81.92
84547,2018-06-29 09:28:54.093750,-40.81,81.92
84548,2018-06-29 09:28:54.125000,-44.56,81.92
84549,2018-06-29 09:28:54.156250,-21.15,81.92
84550,2018-06-29 09:28:54.187500,13.69,81.92
84551,2018-06-29 09:28:54.218750,37.25,81.92
84552,2018-06-29 09:28:54.250000,41.51,81.92
84553,2018-06-29 09:28:54.281250,31.48,81.92
84554,2018-06-29 09:28:54.312500,13.13,81.92
84555,2018-06-29 09:28:54.343750,-10.46,81.92
84556,2018-06-29 09:28:54.375000,-36.31,81.92
84557,2018-06-29 09:28:54.406250,-56.96,81.92
84558,2018-06-29 09:28:54.437500,-61.24,81.92
84559,2018-06-29 09:28:54.468750,-46.25,81.92
84560,2018-06-29 09:28:54.500000,-24.62,81.92
84561,2018-06-29 09:28:54.531250,-13.06,81.87
84562,2018-06-29 09:28:54.562500,-18.71,81.87
84563,2018-06-29 09:28:54.593750,-38.74,81.87
84564,2018-06-29 09:28:54.625000,-62.78,81.87
84565,2018-06-29 09:28:54.656250,-73.62,81.87
84566,2018-06-29 09:28:54.687500,-56.92,81.87
84567,2018-06-29 09:28:54.718750,-17.16,81.87
84568,2018-06-29 09:28:54.750000,21.05,81.87
84569,2018-06-29 09:28:54.781250,37.35,81.87
84570,2018-06-29 09:28:54.812500,36.64,81.87
84571,2018-06-29 09:28:54.843750,35.46,81.87
84572,2018-06-29 09:28:54.875000,34.71,81.87
84573,2018-06-29 09:28:54.906250,17.88,81.87
84574,2018-06-29 09:28:54.937500,-28.05,81.87
84575,2018-06-29 09:28:54.968750,-92.77,81.87
84576,2018-06-29 09:28:55.000000,-137.88,81.87
84577,2018-06-29 09:28:55.031250,-121.88,81.87
84578,2018-06-29 09:28:55.062500,-42.04,81.87
84579,2018-06-29 09:28:55.093750,59.66,81.87
84580,2018-06-29 09:28:55.125000,136.4,81.87
84581,2018-06-29 09:28:55.156250,168.62,81.87
84582,2018-06-29 09:28:55.187500,160.29,81.87
84583,2018-06-29 09:28:55.218750,125.2,81.87
84584,2018-06-29 09:28:55.250000,79.68,81.87
84585,2018-06-29 09:28:55.281250,36.38,81.87
84586,2018-06-29 09:28:55.312500,3.52,81.87
84587,2018-06-29 09:28:55.343750,-9.59,81.87
84588,2018-06-29 09:28:55.375000,4.38,81.87
84589,2018-06-29 09:28:55.406250,38.22,81.87
84590,2018-06-29 09:28:55.437500,70.47,81.87
84591,2018-06-29 09:28:55.468750,83.61,81.87
84592,2018-06-29 09:28:55.500000,74.51,81.87
84593,2018-06-29 09:28:55.531250,47.42,81.82
84594,2018-06-29 09:28:55.562500,7.3,81.82
84595,2018-06-29 09:28:55.593750,-38.82,81.82
84596,2018-06-29 09:28:55.625000,-83.48,81.82
84597,2018-06-29 09:28:55.656250,-124.41,81.82
84598,2018-06-29 09:28:55.687500,-161.16,81.82
84599,2018-06-29 09:28:55.718750,-184.15,81.82
84600,2018-06-29 09:28:55.750000,-178.97,81.82
84601,2018-06-29 09:28:55.781250,-147.15,81.82
84602,2018-06-29 09:28:55.812500,-108.82,81.82
84603,2018-06-29 09:28:55.843750,-79.39,81.82
84604,2018-06-29 09:28:55.875000,-56.29,81.82
84605,2018-06-29 09:28:55.906250,-30.85,81.82
84606,2018-06-29 09:28:55.937500,-0.74,81.82
84607,2018-06-29 09:28:55.968750,30.17,81.82
84608,2018-06-29 09:28:56.000000,57.39,81.82
84609,2018-06-29 09:28:56.031250,79.62,81.82
84610,2018-06-29 09:28:56.062500,95.9,81.82
84611,2018-06-29 09:28:56.093750,100.53,81.82
84612,2018-06-29 09:28:56.125000,88.57,81.82
84613,2018-06-29 09:28:56.156250,66.17,81.82
84614,2018-06-29 09:28:56.187500,48.07,81.82
84615,2018-06-29 09:28:56.218750,44.74,81.82
84616,2018-06-29 09:28:56.250000,55.31,81.82
84617,2018-06-29 09:28:56.281250,69.9,81.82
84618,2018-06-29 09:28:56.312500,75.32,81.82
84619,2018-06-29 09:28:56.343750,60.43,81.82
84620,2018-06-29 09:28:56.375000,21.91,81.82
84621,2018-06-29 09:28:56.406250,-28.92,81.82
84622,2018-06-29 09:28:56.437500,-68.12,81.82
84623,2018-06-29 09:28:56.468750,-77.57,81.82
84624,2018-06-29 09:28:56.500000,-58.98,81.82
84625,2018-06-29 09:28:56.531250,-23.31,81.73
84626,2018-06-29 09:28:56.562500,22.16,81.73
84627,2018-06-29 09:28:56.593750,68.61,81.73
84628,2018-06-29 09:28:56.625000,103.86,81.73
84629,2018-06-29 09:28:56.656250,123.23,81.73
84630,2018-06-29 09:28:56.687500,129.16,81.73
84631,2018-06-29 09:28:56.718750,121.07,81.73
84632,2018-06-29 09:28:56.750000,96.94,81.73
84633,2018-06-29 09:28:56.781250,60.16,81.73
84634,2018-06-29 09:28:56.812500,17.75,81.73
84635,2018-06-29 09:28:56.843750,-24.59,81.73
84636,2018-06-29 09:28:56.875000,-63.67,81.73
84637,2018-06-29 09:28:56.906250,-95.66,81.73
84638,2018-06-29 09:28:56.937500,-116.37,81.73
84639,2018-06-29 09:28:56.968750,-127.45,81.73
84640,2018-06-29 09:28:57.000000,-134.85,81.73
84641,2018-06-29 09:28:57.031250,-135.74,81.73
84642,2018-06-29 09:28:57.062500,-120.69,81.73
84643,2018-06-29 09:28:57.093750,-94.95,81.73
84644,2018-06-29 09:28:57.125000,-76.4,81.73
84645,2018-06-29 09:28:57.156250,-65.2,81.73
84646,2018-06-29 09:28:57.187500,-41.25,81.73
84647,2018-06-29 09:28:57.218750,1.05,81.73
84648,2018-06-29 09:28:57.250000,38.61,81.73
84649,2018-06-29 09:28:57.281250,46.66,81.73
84650,2018-06-29 09:28:57.312500,25.17,81.73
84651,2018-06-29 09:28:57.343750,-1.16,81.73
84652,2018-06-29 09:28:57.375000,-1.98,81.73
84653,2018-06-29 09:28:57.406250,33.6,81.73
84654,2018-06-29 09:28:57.437500,87.53,81.73
84655,2018-06-29 09:28:57.468750,129.42,81.73
84656,2018-06-29 09:28:57.500000,138.77,81.73
84657,2018-06-29 09:28:57.531250,113.87,81.67
84658,2018-06-29 09:28:57.562500,68.19,81.67
84659,2018-06-29 09:28:57.593750,18.73,81.67
84660,2018-06-29 09:28:57.625000,-24.52,81.67
84661,2018-06-29 09:28:57.656250,-55.58,81.67
84662,2018-06-29 09:28:57.687500,-64.74,81.67
84663,2018-06-29 09:28:57.718750,-47.14,81.67
84664,2018-06-29 09:28:57.750000,-16.76,81.67
84665,2018-06-29 09:28:57.781250,5.09,81.67
84666,2018-06-29 09:28:57.812500,14.01,81.67
84667,2018-06-29 09:28:57.843750,19.16,81.67
84668,2018-06-29 09:28:57.875000,23.23,81.67
84669,2018-06-29 09:28:57.906250,21.84,81.67
84670,2018-06-29 09:28:57.937500,11.72,81.67
84671,2018-06-29 09:28:57.968750,-11.14,81.67
84672,2018-06-29 09:28:58.000000,-47.38,81.67
84673,2018-06-29 09:28:58.031250,-84.46,81.67
84674,2018-06-29 09:28:58.062500,-106.63,81.67
84675,2018-06-29 09:28:58.093750,-113.14,81.67
84676,2018-06-29 09:28:58.125000,-112.45,81.67
84677,2018-06-29 09:28:58.156250,-105.2,81.67
84678,2018-06-29 09:28:58.187500,-84.5,81.67
84679,2018-06-29 09:28:58.218750,-48.96,81.67
84680,2018-06-29 09:28:58.250000,-7.8,81.67
84681,2018-06-29 09:28:58.281250,27.36,81.67
84682,2018-06-29 09:28:58.312500,52.35,81.67
84683,2018-06-29 09:28:58.343750,68.28,81.67
84684,2018-06-29 09:28:58.375000,70.64,81.67
84685,2018-06-29 09:28:58.406250,49.22,81.67
84686,2018-06-29 09:28:58.437500,3.32,81.67
84687,2018-06-29 09:28:58.468750,-46.36,81.67
84688,2018-06-29 09:28:58.500000,-65.42,81.67
84689,2018-06-29 09:28:58.531250,-32.18,81.6
84690,2018-06-29 09:28:58.562500,40.94,81.6
84691,2018-06-29 09:28:58.593750,115.41,81.6
84692,2018-06-29 09:28:58.625000,155.62,81.6
84693,2018-06-29 09:28:58.656250,149.05,81.6
84694,2018-06-29 09:28:58.687500,107.58,81.6
84695,2018-06-29 09:28:58.718750,56.54,81.6
84696,2018-06-29 09:28:58.750000,17.25,81.6
84697,2018-06-29 09:28:58.781250,-4.06,81.6
84698,2018-06-29 09:28:58.812500,-10.13,81.6
84699,2018-06-29 09:28:58.843750,-2.24,81.6
84700,2018-06-29 09:28:58.875000,21.0,81.6
84701,2018-06-29 09:28:58.906250,57.91,81.6
84702,2018-06-29 09:28:58.937500,94.88,81.6
84703,2018-06-29 09:28:58.968750,104.16,81.6
84704,2018-06-29 09:28:59.000000,66.11,81.6
84705,2018-06-29 09:28:59.031250,-5.15,81.6
84706,2018-06-29 09:28:59.062500,-76.82,81.6
84707,2018-06-29 09:28:59.093750,-132.2,81.6
84708,2018-06-29 09:28:59.125000,-174.03,81.6
84709,2018-06-29 09:28:59.156250,-205.62,81.6
84710,2018-06-29 09:28:59.187500,-222.86,81.6
84711,2018-06-29 09:28:59.218750,-217.8,81.6
84712,2018-06-29 09:28:59.250000,-187.23,81.6
84713,2018-06-29 09:28:59.281250,-139.36,81.6
84714,2018-06-29 09:28:59.312500,-85.93,81.6
84715,2018-06-29 09:28:59.343750,-32.31,81.6
84716,2018-06-29 09:28:59.375000,16.69,81.6
84717,2018-06-29 09:28:59.406250,53.8,81.6
84718,2018-06-29 09:28:59.437500,79.99,81.6
84719,2018-06-29 09:28:59.468750,103.48,81.6
84720,2018-06-29 09:28:59.500000,121.88,81.6
84721,2018-06-29 09:28:59.531250,120.67,81.5
84722,2018-06-29 09:28:59.562500,96.43,81.5
84723,2018-06-29 09:28:59.593750,69.59,81.5
84724,2018-06-29 09:28:59.625000,64.61,81.5
84725,2018-06-29 09:28:59.656250,84.56,81.5
84726,2018-06-29 09:28:59.687500,111.92,81.5
84727,2018-06-29 09:28:59.718750,126.88,81.5
84728,2018-06-29 09:28:59.750000,117.9,81.5
84729,2018-06-29 09:28:59.781250,82.66,81.5
84730,2018-06-29 09:28:59.812500,28.8,81.5
84731,2018-06-29 09:28:59.843750,-30.33,81.5
84732,2018-06-29 09:28:59.875000,-82.5,81.5
84733,2018-06-29 09:28:59.906250,-113.27,81.5
84734,2018-06-29 09:28:59.937500,-104.17,81.5
84735,2018-06-29 09:28:59.968750,-50.31,81.5
84736,2018-06-29 09:29:00.000000,27.19,81.5
84737,2018-06-29 09:29:00.031250,98.74,81.5
84738,2018-06-29 09:29:00.062500,146.57,81.5
84739,2018-06-29 09:29:00.093750,161.95,81.5
84740,2018-06-29 09:29:00.125000,139.77,81.5
84741,2018-06-29 09:29:00.156250,84.9,81.5
84742,2018-06-29 09:29:00.187500,12.73,81.5
84743,2018-06-29 09:29:00.218750,-60.75,81.5
84744,2018-06-29 09:29:00.250000,-123.52,81.5
84745,2018-06-29 09:29:00.281250,-165.75,81.5
84746,2018-06-29 09:29:00.312500,-183.88,81.5
84747,2018-06-29 09:29:00.343750,-185.54,81.5
84748,2018-06-29 09:29:00.375000,-180.84,81.5
84749,2018-06-29 09:29:00.406250,-169.98,81.5
84750,2018-06-29 09:29:00.437500,-146.09,81.5
84751,2018-06-29 09:29:00.468750,-108.27,81.5
84752,2018-06-29 09:29:00.500000,-65.21,81.5
84753,2018-06-29 09:29:00.531250,-27.28,81.4
84754,2018-06-29 09:29:00.562500,1.47,81.4
84755,2018-06-29 09:29:00.593750,23.94,81.4
84756,2018-06-29 09:29:00.625000,43.65,81.4
84757,2018-06-29 09:29:00.656250,58.57,81.4
84758,2018-06-29 09:29:00.687500,64.95,81.4
84759,2018-06-29 09:29:00.718750,67.81,81.4
84760,2018-06-29 09:29:00.750000,79.92,81.4
84761,2018-06-29 09:29:00.781250,104.55,81.4
84762,2018-06-29 09:29:00.812500,126.36,81.4
84763,2018-06-29 09:29:00.843750,127.42,81.4
84764,2018-06-29 09:29:00.875000,105.81,81.4
84765,2018-06-29 09:29:00.906250,71.6,81.4
84766,2018-06-29 09:29:00.937500,33.09,81.4
84767,2018-06-29 09:29:00.968750,-5.51,81.4
84768,2018-06-29 09:29:01.000000,-39.22,81.4
84769,2018-06-29 09:29:01.031250,-59.55,81.4
84770,2018-06-29 09:29:01.062500,-56.83,81.4
84771,2018-06-29 09:29:01.093750,-29.04,81.4
84772,2018-06-29 09:29:01.125000,11.8,81.4
84773,2018-06-29 09:29:01.156250,47.01,81.4
84774,2018-06-29 09:29:01.187500,64.5,81.4
84775,2018-06-29 09:29:01.218750,62.67,81.4
84776,2018-06-29 09:29:01.250000,48.28,81.4
84777,2018-06-29 09:29:01.281250,31.22,81.4
84778,2018-06-29 09:29:01.312500,14.62,81.4
84779,2018-06-29 09:29:01.343750,-8.65,81.4
84780,2018-06-29 09:29:01.375000,-42.24,81.4
84781,2018-06-29 09:29:01.406250,-75.76,81.4
84782,2018-06-29 09:29:01.437500,-97.55,81.4
84783,2018-06-29 09:29:01.468750,-109.74,81.4
84784,2018-06-29 09:29:01.500000,-119.35,81.4
84785,2018-06-29 09:29:01.531250,-122.29,81.38
84786,2018-06-29 09:29:01.562500,-107.95,81.38
84787,2018-06-29 09:29:01.593750,-74.32,81.38
84788,2018-06-29 09:29:01.625000,-30.78,81.38
84789,2018-06-29 09:29:01.656250,11.47,81.38
84790,2018-06-29 09:29:01.687500,46.03,81.38
84791,2018-06-29 09:29:01.718750,67.18,81.38
84792,2018-06-29 09:29:01.750000,65.88,81.38
84793,2018-06-29 09:29:01.781250,37.68,81.38
84794,2018-06-29 09:29:01.812500,-5.18,81.38
84795,2018-06-29 09:29:01.843750,-32.78,81.38
84796,2018-06-29 09:29:01.875000,-14.11,81.38
84797,2018-06-29 09:29:01.906250,54.88,81.38
84798,2018-06-29 09:29:01.937500,139.0,81.38
84799,2018-06-29 09:29:01.968750,190.99,81.38
84800,2018-06-29 09:29:02.000000,190.54,81.38
84801,2018-06-29 09:29:02.031250,149.64,81.38
84802,2018-06-29 09:29:02.062500,91.17,81.38
84803,2018-06-29 09:29:02.093750,32.92,81.38
84804,2018-06-29 09:29:02.125000,-15.03,81.38
84805,2018-06-29 09:29:02.156250,-46.54,81.38
84806,2018-06-29 09:29:02.187500,-55.7,81.38
84807,2018-06-29 09:29:02.218750,-40.26,81.38
84808,2018-06-29 09:29:02.250000,-6.76,81.38
84809,2018-06-29 09:29:02.281250,32.3,81.38
84810,2018-06-29 09:29:02.312500,63.4,81.38
84811,2018-06-29 09:29:02.343750,75.08,81.38
84812,2018-06-29 09:29:02.375000,62.52,81.38
84813,2018-06-29 09:29:02.406250,25.17,81.38
84814,2018-06-29 09:29:02.437500,-40.19,81.38
84815,2018-06-29 09:29:02.468750,-127.68,81.38
84816,2018-06-29 09:29:02.500000,-203.72,81.38
84817,2018-06-29 09:29:02.531250,-226.44,81.38
84818,2018-06-29 09:29:02.562500,-190.61,81.38
84819,2018-06-29 09:29:02.593750,-132.62,81.38
84820,2018-06-29 09:29:02.625000,-90.37,81.38
84821,2018-06-29 09:29:02.656250,-74.91,81.38
84822,2018-06-29 09:29:02.687500,-74.57,81.38
84823,2018-06-29 09:29:02.718750,-70.04,81.38
84824,2018-06-29 09:29:02.750000,-49.95,81.38
84825,2018-06-29 09:29:02.781250,-18.85,81.38
84826,2018-06-29 09:29:02.812500,12.28,81.38
84827,2018-06-29 09:29:02.843750,37.8,81.38
84828,2018-06-29 09:29:02.875000,56.47,81.38
84829,2018-06-29 09:29:02.906250,69.74,81.38
84830,2018-06-29 09:29:02.937500,84.42,81.38
84831,2018-06-29 09:29:02.968750,107.89,81.38
84832,2018-06-29 09:29:03.000000,138.5,81.38
84833,2018-06-29 09:29:03.031250,162.42,81.38
84834,2018-06-29 09:29:03.062500,161.42,81.38
84835,2018-06-29 09:29:03.093750,129.26,81.38
84836,2018-06-29 09:29:03.125000,82.08,81.38
84837,2018-06-29 09:29:03.156250,45.09,81.38
84838,2018-06-29 09:29:03.187500,28.21,81.38
84839,2018-06-29 09:29:03.218750,23.19,81.38
84840,2018-06-29 09:29:03.250000,21.67,81.38
84841,2018-06-29 09:29:03.281250,25.33,81.38
84842,2018-06-29 09:29:03.312500,38.61,81.38
84843,2018-06-29 09:29:03.343750,60.7,81.38
84844,2018-06-29 09:29:03.375000,84.31,81.38
84845,2018-06-29 09:29:03.406250,95.23,81.38
84846,2018-06-29 09:29:03.437500,77.01,81.38
84847,2018-06-29 09:29:03.468750,26.67,81.38
84848,2018-06-29 09:29:03.500000,-38.32,81.38
84849,2018-06-29 09:29:03.531250,-96.93,81.32
84850,2018-06-29 09:29:03.562500,-139.52,81.32
84851,2018-06-29 09:29:03.593750,-164.6,81.32
84852,2018-06-29 09:29:03.625000,-175.74,81.32
84853,2018-06-29 09:29:03.656250,-182.29,81.32
84854,2018-06-29 09:29:03.687500,-192.98,81.32
84855,2018-06-29 09:29:03.718750,-208.48,81.32
84856,2018-06-29 09:29:03.750000,-218.42,81.32
84857,2018-06-29 09:29:03.781250,-203.62,81.32
84858,2018-06-29 09:29:03.812500,-151.78,81.32
84859,2018-06-29 09:29:03.843750,-74.23,81.32
84860,2018-06-29 09:29:03.875000,3.39,81.32
84861,2018-06-29 09:29:03.906250,65.24,81.32
84862,2018-06-29 09:29:03.937500,111.73,81.32
84863,2018-06-29 09:29:03.968750,144.14,81.32
84864,2018-06-29 09:29:04.000000,155.4,81.32
84865,2018-06-29 09:29:04.031250,141.67,81.32
84866,2018-06-29 09:29:04.062500,115.72,81.32
84867,2018-06-29 09:29:04.093750,98.93,81.32
84868,2018-06-29 09:29:04.125000,101.43,81.32
84869,2018-06-29 09:29:04.156250,114.48,81.32
84870,2018-06-29 09:29:04.187500,120.62,81.32
84871,2018-06-29 09:29:04.218750,107.77,81.32
84872,2018-06-29 09:29:04.250000,73.78,81.32
84873,2018-06-29 09:29:04.281250,24.42,81.32
84874,2018-06-29 09:29:04.312500,-28.82,81.32
84875,2018-06-29 09:29:04.343750,-73.37,81.32
84876,2018-06-29 09:29:04.375000,-98.96,81.32
84877,2018-06-29 09:29:04.406250,-94.33,81.32
84878,2018-06-29 09:29:04.437500,-51.24,81.32
84879,2018-06-29 09:29:04.468750,21.18,81.32
84880,2018-06-29 09:29:04.500000,97.75,81.32
84881,2018-06-29 09:29:04.531250,155.85,81.3
84882,2018-06-29 09:29:04.562500,181.62,81.3
84883,2018-06-29 09:29:04.593750,166.21,81.3
84884,2018-06-29 09:29:04.625000,113.29,81.3
84885,2018-06-29 09:29:04.656250,42.74,81.3
84886,2018-06-29 09:29:04.687500,-26.77,81.3
84887,2018-06-29 09:29:04.718750,-90.37,81.3
84888,2018-06-29 09:29:04.750000,-145.96,81.3
84889,2018-06-29 09:29:04.781250,-183.83,81.3
84890,2018-06-29 09:29:04.812500,-197.46,81.3
84891,2018-06-29 09:29:04.843750,-193.73,81.3
84892,2018-06-29 09:29:04.875000,-181.57,81.3
84893,2018-06-29 09:29:04.906250,-159.7,81.3
84894,2018-06-29 09:29:04.937500,-126.05,81.3
84895,2018-06-29 09:29:04.968750,-90.8,81.3
84896,2018-06-29 09:29:05.000000,-64.83,81.3
84897,2018-06-29 09:29:05.031250,-38.81,81.3
84898,2018-06-29 09:29:05.062500,6.35,81.3
84899,2018-06-29 09:29:05.093750,65.91,81.3
84900,2018-06-29 09:29:05.125000,109.91,81.3
84901,2018-06-29 09:29:05.156250,120.07,81.3
84902,2018-06-29 09:29:05.187500,107.74,81.3
84903,2018-06-29 09:29:05.218750,93.2,81.3
84904,2018-06-29 09:29:05.250000,86.28,81.3
84905,2018-06-29 09:29:05.281250,86.86,81.3
84906,2018-06-29 09:29:05.312500,89.47,81.3
84907,2018-06-29 09:29:05.343750,85.15,81.3
84908,2018-06-29 09:29:05.375000,65.83,81.3
84909,2018-06-29 09:29:05.406250,31.77,81.3
84910,2018-06-29 09:29:05.437500,-5.3,81.3
84911,2018-06-29 09:29:05.468750,-30.18,81.3
84912,2018-06-29 09:29:05.500000,-34.66,81.3
84913,2018-06-29 09:29:05.531250,-19.64,81.3
84914,2018-06-29 09:29:05.562500,8.17,81.3
84915,2018-06-29 09:29:05.593750,38.48,81.3
84916,2018-06-29 09:29:05.625000,63.42,81.3
84917,2018-06-29 09:29:05.656250,82.67,81.3
84918,2018-06-29 09:29:05.687500,95.55,81.3
84919,2018-06-29 09:29:05.718750,91.82,81.3
84920,2018-06-29 09:29:05.750000,64.16,81.3
84921,2018-06-29 09:29:05.781250,23.76,81.3
84922,2018-06-29 09:29:05.812500,-14.05,81.3
84923,2018-06-29 09:29:05.843750,-50.32,81.3
84924,2018-06-29 09:29:05.875000,-89.36,81.3
84925,2018-06-29 09:29:05.906250,-120.35,81.3
84926,2018-06-29 09:29:05.937500,-132.48,81.3
84927,2018-06-29 09:29:05.968750,-131.46,81.3
84928,2018-06-29 09:29:06.000000,-124.26,81.3
84929,2018-06-29 09:29:06.031250,-106.25,81.3
84930,2018-06-29 09:29:06.062500,-74.29,81.3
84931,2018-06-29 09:29:06.093750,-36.9,81.3
84932,2018-06-29 09:29:06.125000,-5.9,81.3
84933,2018-06-29 09:29:06.156250,12.13,81.3
84934,2018-06-29 09:29:06.187500,15.37,81.3
84935,2018-06-29 09:29:06.218750,2.76,81.3
84936,2018-06-29 09:29:06.250000,-23.39,81.3
84937,2018-06-29 09:29:06.281250,-47.51,81.3
84938,2018-06-29 09:29:06.312500,-45.61,81.3
84939,2018-06-29 09:29:06.343750,-9.73,81.3
84940,2018-06-29 09:29:06.375000,44.3,81.3
84941,2018-06-29 09:29:06.406250,96.3,81.3
84942,2018-06-29 09:29:06.437500,133.5,81.3
84943,2018-06-29 09:29:06.468750,146.12,81.3
84944,2018-06-29 09:29:06.500000,129.57,81.3
84945,2018-06-29 09:29:06.531250,91.49,81.48
84946,2018-06-29 09:29:06.562500,47.16,81.48
84947,2018-06-29 09:29:06.593750,9.51,81.48
84948,2018-06-29 09:29:06.625000,-14.08,81.48
84949,2018-06-29 09:29:06.656250,-19.11,81.48
84950,2018-06-29 09:29:06.687500,-3.18,81.48
84951,2018-06-29 09:29:06.718750,29.43,81.48
84952,2018-06-29 09:29:06.750000,66.09,81.48
84953,2018-06-29 09:29:06.781250,90.86,81.48
84954,2018-06-29 09:29:06.812500,89.25,81.48
84955,2018-06-29 09:29:06.843750,52.71,81.48
84956,2018-06-29 09:29:06.875000,-9.52,81.48
84957,2018-06-29 09:29:06.906250,-66.31,81.48
84958,2018-06-29 09:29:06.937500,-89.57,81.48
84959,2018-06-29 09:29:06.968750,-82.79,81.48
84960,2018-06-29 09:29:07.000000,-71.06,81.48
84961,2018-06-29 09:29:07.031250,-69.13,81.48
84962,2018-06-29 09:29:07.062500,-74.77,81.48
84963,2018-06-29 09:29:07.093750,-82.57,81.48
84964,2018-06-29 09:29:07.125000,-85.51,81.48
84965,2018-06-29 09:29:07.156250,-71.98,81.48
84966,2018-06-29 09:29:07.187500,-38.44,81.48
84967,2018-06-29 09:29:07.218750,1.74,81.48
84968,2018-06-29 09:29:07.250000,32.73,81.48
84969,2018-06-29 09:29:07.281250,50.53,81.48
84970,2018-06-29 09:29:07.312500,55.58,81.48
84971,2018-06-29 09:29:07.343750,42.16,81.48
84972,2018-06-29 09:29:07.375000,4.19,81.48
84973,2018-06-29 09:29:07.406250,-53.36,81.48
84974,2018-06-29 09:29:07.437500,-113.2,81.48
84975,2018-06-29 09:29:07.468750,-153.51,81.48
84976,2018-06-29 09:29:07.500000,-157.05,81.48
84977,2018-06-29 09:29:07.531250,-119.96,81.7
84978,2018-06-29 09:29:07.562500,-55.96,81.7
84979,2018-06-29 09:29:07.593750,9.4,81.7
84980,2018-06-29 09:29:07.625000,53.05,81.7
84981,2018-06-29 09:29:07.656250,66.78,81.7
84982,2018-06-29 09:29:07.687500,58.89,81.7
84983,2018-06-29 09:29:07.718750,46.51,81.7
84984,2018-06-29 09:29:07.750000,44.45,81.7
84985,2018-06-29 09:29:07.781250,56.99,81.7
84986,2018-06-29 09:29:07.812500,78.87,81.7
84987,2018-06-29 09:29:07.843750,104.03,81.7
84988,2018-06-29 09:29:07.875000,129.48,81.7
84989,2018-06-29 09:29:07.906250,146.94,81.7
84990,2018-06-29 09:29:07.937500,139.6,81.7
84991,2018-06-29 09:29:07.968750,99.29,81.7
84992,2018-06-29 09:29:08.000000,38.93,81.7
84993,2018-06-29 09:29:08.031250,-21.71,81.7
84994,2018-06-29 09:29:08.062500,-73.48,81.7
84995,2018-06-29 09:29:08.093750,-115.27,81.7
84996,2018-06-29 09:29:08.125000,-143.07,81.7
84997,2018-06-29 09:29:08.156250,-148.82,81.7
84998,2018-06-29 09:29:08.187500,-130.41,81.7
84999,2018-06-29 09:29:08.218750,-99.12,81.7
85000,2018-06-29 09:29:08.250000,-69.32,81.7
85001,2018-06-29 09:29:08.281250,-41.93,81.7
85002,2018-06-29 09:29:08.312500,-10.38,81.7
85003,2018-06-29 09:29:08.343750,19.99,81.7
85004,2018-06-29 09:29:08.375000,35.38,81.7
85005,2018-06-29 09:29:08.406250,34.84,81.7
85006,2018-06-29 09:29:08.437500,31.41,81.7
85007,2018-06-29 09:29:08.468750,31.58,81.7
85008,2018-06-29 09:29:08.500000,28.18,81.7
85009,2018-06-29 09:29:08.531250,13.55,81.93
85010,2018-06-29 09:29:08.562500,-9.19,81.93
85011,2018-06-29 09:29:08.593750,-24.31,81.93
85012,2018-06-29 09:29:08.625000,-12.2,81.93
85013,2018-06-29 09:29:08.656250,31.08,81.93
85014,2018-06-29 09:29:08.687500,87.25,81.93
85015,2018-06-29 09:29:08.718750,134.05,81.93
85016,2018-06-29 09:29:08.750000,157.86,81.93
85017,2018-06-29 09:29:08.781250,152.84,81.93
85018,2018-06-29 09:29:08.812500,131.27,81.93
85019,2018-06-29 09:29:08.843750,125.1,81.93
85020,2018-06-29 09:29:08.875000,150.87,81.93
85021,2018-06-29 09:29:08.906250,185.45,81.93
85022,2018-06-29 09:29:08.937500,193.88,81.93
85023,2018-06-29 09:29:08.968750,165.41,81.93
85024,2018-06-29 09:29:09.000000,116.48,81.93
85025,2018-06-29 09:29:09.031250,72.37,81.93
85026,2018-06-29 09:29:09.062500,43.58,81.93
85027,2018-06-29 09:29:09.093750,14.66,81.93
85028,2018-06-29 09:29:09.125000,-32.56,81.93
85029,2018-06-29 09:29:09.156250,-89.67,81.93
85030,2018-06-29 09:29:09.187500,-132.48,81.93
85031,2018-06-29 09:29:09.218750,-150.13,81.93
85032,2018-06-29 09:29:09.250000,-146.97,81.93
85033,2018-06-29 09:29:09.281250,-128.47,81.93
85034,2018-06-29 09:29:09.312500,-98.74,81.93
85035,2018-06-29 09:29:09.343750,-64.29,81.93
85036,2018-06-29 09:29:09.375000,-31.89,81.93
85037,2018-06-29 09:29:09.406250,-7.21,81.93
85038,2018-06-29 09:29:09.437500,3.32,81.93
85039,2018-06-29 09:29:09.468750,-3.66,81.93
85040,2018-06-29 09:29:09.500000,-20.22,81.93
85041,2018-06-29 09:29:09.531250,-31.5,82.17
85042,2018-06-29 09:29:09.562500,-31.09,82.17
85043,2018-06-29 09:29:09.593750,-25.53,82.17
85044,2018-06-29 09:29:09.625000,-24.13,82.17
85045,2018-06-29 09:29:09.656250,-30.47,82.17
85046,2018-06-29 09:29:09.687500,-40.92,82.17
85047,2018-06-29 09:29:09.718750,-46.91,82.17
85048,2018-06-29 09:29:09.750000,-42.74,82.17
85049,2018-06-29 09:29:09.781250,-31.01,82.17
85050,2018-06-29 09:29:09.812500,-17.68,82.17
85051,2018-06-29 09:29:09.843750,-7.65,82.17
85052,2018-06-29 09:29:09.875000,-5.52,82.17
85053,2018-06-29 09:29:09.906250,-11.97,82.17
85054,2018-06-29 09:29:09.937500,-19.05,82.17
85055,2018-06-29 09:29:09.968750,-16.4,82.17
85056,2018-06-29 09:29:10.000000,-1.68,82.17
85057,2018-06-29 09:29:10.031250,17.83,82.17
85058,2018-06-29 09:29:10.062500,29.71,82.17
85059,2018-06-29 09:29:10.093750,23.99,82.17
85060,2018-06-29 09:29:10.125000,3.75,82.17
85061,2018-06-29 09:29:10.156250,-18.84,82.17
85062,2018-06-29 09:29:10.187500,-41.12,82.17
85063,2018-06-29 09:29:10.218750,-70.14,82.17
85064,2018-06-29 09:29:10.250000,-104.66,82.17
85065,2018-06-29 09:29:10.281250,-136.05,82.17
85066,2018-06-29 09:29:10.312500,-162.67,82.17
85067,2018-06-29 09:29:10.343750,-185.62,82.17
85068,2018-06-29 09:29:10.375000,-197.84,82.17
85069,2018-06-29 09:29:10.406250,-191.03,82.17
85070,2018-06-29 09:29:10.437500,-166.12,82.17
85071,2018-06-29 09:29:10.468750,-132.44,82.17
85072,2018-06-29 09:29:10.500000,-102.6,82.17
85073,2018-06-29 09:29:10.531250,-83.98,82.48
85074,2018-06-29 09:29:10.562500,-70.18,82.48
85075,2018-06-29 09:29:10.593750,-50.9,82.48
85076,2018-06-29 09:29:10.625000,-30.54,82.48
85077,2018-06-29 09:29:10.656250,-23.36,82.48
85078,2018-06-29 09:29:10.687500,-32.59,82.48
85079,2018-06-29 09:29:10.718750,-47.08,82.48
85080,2018-06-29 09:29:10.750000,-52.35,82.48
85081,2018-06-29 09:29:10.781250,-36.13,82.48
85082,2018-06-29 09:29:10.812500,4.95,82.48
85083,2018-06-29 09:29:10.843750,57.72,82.48
85084,2018-06-29 09:29:10.875000,99.98,82.48
85085,2018-06-29 09:29:10.906250,119.21,82.48
85086,2018-06-29 09:29:10.937500,118.67,82.48
85087,2018-06-29 09:29:10.968750,107.29,82.48
85088,2018-06-29 09:29:11.000000,90.88,82.48
85089,2018-06-29 09:29:11.031250,72.88,82.48
85090,2018-06-29 09:29:11.062500,56.64,82.48
85091,2018-06-29 09:29:11.093750,43.04,82.48
85092,2018-06-29 09:29:11.125000,29.7,82.48
85093,2018-06-29 09:29:11.156250,15.57,82.48
85094,2018-06-29 09:29:11.187500,3.46,82.48
85095,2018-06-29 09:29:11.218750,-4.76,82.48
85096,2018-06-29 09:29:11.250000,-12.56,82.48
85097,2018-06-29 09:29:11.281250,-25.04,82.48
85098,2018-06-29 09:29:11.312500,-42.38,82.48
85099,2018-06-29 09:29:11.343750,-56.07,82.48
85100,2018-06-29 09:29:11.375000,-50.54,82.48
85101,2018-06-29 09:29:11.406250,-16.92,82.48
85102,2018-06-29 09:29:11.437500,32.61,82.48
85103,2018-06-29 09:29:11.468750,74.09,82.48
85104,2018-06-29 09:29:11.500000,94.76,82.48
85105,2018-06-29 09:29:11.531250,96.03,82.68
85106,2018-06-29 09:29:11.562500,80.04,82.68
85107,2018-06-29 09:29:11.593750,48.13,82.68
85108,2018-06-29 09:29:11.625000,9.09,82.68
85109,2018-06-29 09:29:11.656250,-23.16,82.68
85110,2018-06-29 09:29:11.687500,-40.94,82.68
85111,2018-06-29 09:29:11.718750,-46.99,82.68
85112,2018-06-29 09:29:11.750000,-47.28,82.68
85113,2018-06-29 09:29:11.781250,-44.17,82.68
85114,2018-06-29 09:29:11.812500,-38.89,82.68
85115,2018-06-29 09:29:11.843750,-36.25,82.68
85116,2018-06-29 09:29:11.875000,-41.6,82.68
85117,2018-06-29 09:29:11.906250,-55.25,82.68
85118,2018-06-29 09:29:11.937500,-69.03,82.68
85119,2018-06-29 09:29:11.968750,-65.78,82.68
85120,2018-06-29 09:29:12.000000,-30.85,82.68
85121,2018-06-29 09:29:12.031250,29.58,82.68
85122,2018-06-29 09:29:12.062500,89.59,82.68
85123,2018-06-29 09:29:12.093750,126.32,82.68
85124,2018-06-29 09:29:12.125000,133.71,82.68
85125,2018-06-29 09:29:12.156250,117.06,82.68
85126,2018-06-29 09:29:12.187500,85.91,82.68
85127,2018-06-29 09:29:12.218750,52.08,82.68
85128,2018-06-29 09:29:12.250000,25.97,82.68
85129,2018-06-29 09:29:12.281250,11.38,82.68
85130,2018-06-29 09:29:12.312500,5.59,82.68
85131,2018-06-29 09:29:12.343750,4.79,82.68
85132,2018-06-29 09:29:12.375000,7.96,82.68
85133,2018-06-29 09:29:12.406250,13.97,82.68
85134,2018-06-29 09:29:12.437500,18.19,82.68
85135,2018-06-29 09:29:12.468750,14.85,82.68
85136,2018-06-29 09:29:12.500000,1.25,82.68
85137,2018-06-29 09:29:12.531250,-22.26,82.9
85138,2018-06-29 09:29:12.562500,-50.83,82.9
85139,2018-06-29 09:29:12.593750,-70.46,82.9
85140,2018-06-29 09:29:12.625000,-63.56,82.9
85141,2018-06-29 09:29:12.656250,-27.84,82.9
85142,2018-06-29 09:29:12.687500,16.03,82.9
85143,2018-06-29 09:29:12.718750,43.38,82.9
85144,2018-06-29 09:29:12.750000,47.15,82.9
85145,2018-06-29 09:29:12.781250,35.99,82.9
85146,2018-06-29 09:29:12.812500,18.97,82.9
85147,2018-06-29 09:29:12.843750,0.83,82.9
85148,2018-06-29 09:29:12.875000,-13.79,82.9
85149,2018-06-29 09:29:12.906250,-20.98,82.9
85150,2018-06-29 09:29:12.937500,-22.26,82.9
85151,2018-06-29 09:29:12.968750,-23.36,82.9
85152,2018-06-29 09:29:13.000000,-28.19,82.9
85153,2018-06-29 09:29:13.031250,-34.69,82.9
85154,2018-06-29 09:29:13.062500,-36.61,82.9
85155,2018-06-29 09:29:13.093750,-30.51,82.9
85156,2018-06-29 09:29:13.125000,-21.72,82.9
85157,2018-06-29 09:29:13.156250,-19.7,82.9
85158,2018-06-29 09:29:13.187500,-25.22,82.9
85159,2018-06-29 09:29:13.218750,-25.75,82.9
85160,2018-06-29 09:29:13.250000,-9.18,82.9
85161,2018-06-29 09:29:13.281250,20.24,82.9
85162,2018-06-29 09:29:13.312500,46.93,82.9
85163,2018-06-29 09:29:13.343750,62.77,82.9
85164,2018-06-29 09:29:13.375000,71.76,82.9
85165,2018-06-29 09:29:13.406250,77.11,82.9
85166,2018-06-29 09:29:13.437500,74.68,82.9
85167,2018-06-29 09:29:13.468750,63.16,82.9
85168,2018-06-29 09:29:13.500000,52.24,82.9
85169,2018-06-29 09:29:13.531250,53.37,83.12
85170,2018-06-29 09:29:13.562500,62.89,83.12
85171,2018-06-29 09:29:13.593750,61.94,83.12
85172,2018-06-29 09:29:13.625000,36.78,83.12
85173,2018-06-29 09:29:13.656250,-4.33,83.12
85174,2018-06-29 09:29:13.687500,-38.47,83.12
85175,2018-06-29 09:29:13.718750,-52.38,83.12
85176,2018-06-29 09:29:13.750000,-56.28,83.12
85177,2018-06-29 09:29:13.781250,-70.73,83.12
85178,2018-06-29 09:29:13.812500,-100.11,83.12
85179,2018-06-29 09:29:13.843750,-123.97,83.12
85180,2018-06-29 09:29:13.875000,-119.45,83.12
85181,2018-06-29 09:29:13.906250,-86.43,83.12
85182,2018-06-29 09:29:13.937500,-43.49,83.12
85183,2018-06-29 09:29:13.968750,-5.38,83.12
85184,2018-06-29 09:29:14.000000,25.87,83.12
85185,2018-06-29 09:29:14.031250,51.74,83.12
85186,2018-06-29 09:29:14.062500,70.01,83.12
85187,2018-06-29 09:29:14.093750,76.64,83.12
85188,2018-06-29 09:29:14.125000,69.73,83.12
85189,2018-06-29 09:29:14.156250,51.74,83.12
85190,2018-06-29 09:29:14.187500,30.37,83.12
85191,2018-06-29 09:29:14.218750,14.42,83.12
85192,2018-06-29 09:29:14.250000,6.16,83.12
85193,2018-06-29 09:29:14.281250,1.19,83.12
85194,2018-06-29 09:29:14.312500,-3.51,83.12
85195,2018-06-29 09:29:14.343750,-8.08,83.12
85196,2018-06-29 09:29:14.375000,-16.47,83.12
85197,2018-06-29 09:29:14.406250,-36.87,83.12
85198,2018-06-29 09:29:14.437500,-70.7,83.12
85199,2018-06-29 09:29:14.468750,-100.4,83.12
85200,2018-06-29 09:29:14.500000,-96.12,83.12
85201,2018-06-29 09:29:14.531250,-45.03,83.33
85202,2018-06-29 09:29:14.562500,30.66,83.33
85203,2018-06-29 09:29:14.593750,95.49,83.33
85204,2018-06-29 09:29:14.625000,134.45,83.33
85205,2018-06-29 09:29:14.656250,154.83,83.33
85206,2018-06-29 09:29:14.687500,164.07,83.33
85207,2018-06-29 09:29:14.718750,159.65,83.33
85208,2018-06-29 09:29:14.750000,137.36,83.33
85209,2018-06-29 09:29:14.781250,99.65,83.33
85210,2018-06-29 09:29:14.812500,56.48,83.33
85211,2018-06-29 09:29:14.843750,19.21,83.33
85212,2018-06-29 09:29:14.875000,-9.11,83.33
85213,2018-06-29 09:29:14.906250,-34.52,83.33
85214,2018-06-29 09:29:14.937500,-61.6,83.33
85215,2018-06-29 09:29:14.968750,-89.41,83.33
85216,2018-06-29 09:29:15.000000,-117.99,83.33
85217,2018-06-29 09:29:15.031250,-147.93,83.33
85218,2018-06-29 09:29:15.062500,-172.15,83.33
85219,2018-06-29 09:29:15.093750,-173.49,83.33
85220,2018-06-29 09:29:15.125000,-135.73,83.33
85221,2018-06-29 09:29:15.156250,-62.7,83.33
85222,2018-06-29 09:29:15.187500,18.26,83.33
85223,2018-06-29 09:29:15.218750,79.19,83.33
85224,2018-06-29 09:29:15.250000,110.48,83.33
85225,2018-06-29 09:29:15.281250,113.83,83.33
85226,2018-06-29 09:29:15.312500,93.63,83.33
85227,2018-06-29 09:29:15.343750,62.76,83.33
85228,2018-06-29 09:29:15.375000,40.01,83.33
85229,2018-06-29 09:29:15.406250,34.96,83.33
85230,2018-06-29 09:29:15.437500,44.06,83.33
85231,2018-06-29 09:29:15.468750,59.36,83.33
85232,2018-06-29 09:29:15.500000,71.51,83.33
85233,2018-06-29 09:29:15.531250,68.04,83.53
85234,2018-06-29 09:29:15.562500,40.68,83.53
85235,2018-06-29 09:29:15.593750,-3.87,83.53
85236,2018-06-29 09:29:15.625000,-46.32,83.53
85237,2018-06-29 09:29:15.656250,-69.68,83.53
85238,2018-06-29 09:29:15.687500,-71.58,83.53
85239,2018-06-29 09:29:15.718750,-60.81,83.53
85240,2018-06-29 09:29:15.750000,-39.38,83.53
85241,2018-06-29 09:29:15.781250,5.07,83.53
85242,2018-06-29 09:29:15.812500,78.65,83.53
85243,2018-06-29 09:29:15.843750,157.48,83.53
85244,2018-06-29 09:29:15.875000,199.78,83.53
85245,2018-06-29 09:29:15.906250,183.61,83.53
85246,2018-06-29 09:29:15.937500,126.74,83.53
85247,2018-06-29 09:29:15.968750,66.25,83.53
85248,2018-06-29 09:29:16.000000,23.34,83.53
85249,2018-06-29 09:29:16.031250,-5.54,83.53
85250,2018-06-29 09:29:16.062500,-29.19,83.53
85251,2018-06-29 09:29:16.093750,-51.66,83.53
85252,2018-06-29 09:29:16.125000,-78.21,83.53
85253,2018-06-29 09:29:16.156250,-111.14,83.53
85254,2018-06-29 09:29:16.187500,-139.73,83.53
85255,2018-06-29 09:29:16.218750,-148.81,83.53
85256,2018-06-29 09:29:16.250000,-135.22,83.53
85257,2018-06-29 09:29:16.281250,-109.44,83.53
85258,2018-06-29 09:29:16.312500,-85.99,83.53
85259,2018-06-29 09:29:16.343750,-76.03,83.53
85260,2018-06-29 09:29:16.375000,-79.69,83.53
85261,2018-06-29 09:29:16.406250,-80.93,83.53
85262,2018-06-29 09:29:16.437500,-60.22,83.53
85263,2018-06-29 09:29:16.468750,-15.56,83.53
85264,2018-06-29 09:29:16.500000,36.35,83.53
85265,2018-06-29 09:29:16.531250,77.72,83.77
85266,2018-06-29 09:29:16.562500,101.88,83.77
85267,2018-06-29 09:29:16.593750,113.23,83.77
85268,2018-06-29 09:29:16.625000,118.83,83.77
85269,2018-06-29 09:29:16.656250,117.02,83.77
85270,2018-06-29 09:29:16.687500,96.86,83.77
85271,2018-06-29 09:29:16.718750,53.03,83.77
85272,2018-06-29 09:29:16.750000,-2.2,83.77
85273,2018-06-29 09:29:16.781250,-45.09,83.77
85274,2018-06-29 09:29:16.812500,-58.57,83.77
85275,2018-06-29 09:29:16.843750,-44.33,83.77
85276,2018-06-29 09:29:16.875000,-16.64,83.77
85277,2018-06-29 09:29:16.906250,12.72,83.77
85278,2018-06-29 09:29:16.937500,39.93,83.77
85279,2018-06-29 09:29:16.968750,59.5,83.77
85280,2018-06-29 09:29:17.000000,53.87,83.77
85281,2018-06-29 09:29:17.031250,10.25,83.77
85282,2018-06-29 09:29:17.062500,-46.65,83.77
85283,2018-06-29 09:29:17.093750,-65.04,83.77
85284,2018-06-29 09:29:17.125000,-23.53,83.77
85285,2018-06-29 09:29:17.156250,44.99,83.77
85286,2018-06-29 09:29:17.187500,94.4,83.77
85287,2018-06-29 09:29:17.218750,104.17,83.77
85288,2018-06-29 09:29:17.250000,76.82,83.77
85289,2018-06-29 09:29:17.281250,25.84,83.77
85290,2018-06-29 09:29:17.312500,-24.97,83.77
85291,2018-06-29 09:29:17.343750,-49.18,83.77
85292,2018-06-29 09:29:17.375000,-38.98,83.77
85293,2018-06-29 09:29:17.406250,-12.67,83.77
85294,2018-06-29 09:29:17.437500,7.93,83.77
85295,2018-06-29 09:29:17.468750,18.06,83.77
85296,2018-06-29 09:29:17.500000,19.76,83.77
85297,2018-06-29 09:29:17.531250,7.3,83.95
85298,2018-06-29 09:29:17.562500,-23.89,83.95
85299,2018-06-29 09:29:17.593750,-65.4,83.95
85300,2018-06-29 09:29:17.625000,-103.17,83.95
85301,2018-06-29 09:29:17.656250,-129.3,83.95
85302,2018-06-29 09:29:17.687500,-138.03,83.95
85303,2018-06-29 09:29:17.718750,-117.04,83.95
85304,2018-06-29 09:29:17.750000,-59.66,83.95
85305,2018-06-29 09:29:17.781250,13.79,83.95
85306,2018-06-29 09:29:17.812500,65.47,83.95
85307,2018-06-29 09:29:17.843750,75.5,83.95
85308,2018-06-29 09:29:17.875000,55.85,83.95
85309,2018-06-29 09:29:17.906250,31.19,83.95
85310,2018-06-29 09:29:17.937500,19.13,83.95
85311,2018-06-29 09:29:17.968750,25.75,83.95
85312,2018-06-29 09:29:18.000000,47.77,83.95
85313,2018-06-29 09:29:18.031250,76.5,83.95
85314,2018-06-29 09:29:18.062500,105.34,83.95
85315,2018-06-29 09:29:18.093750,131.64,83.95
85316,2018-06-29 09:29:18.125000,146.48,83.95
85317,2018-06-29 09:29:18.156250,134.14,83.95
85318,2018-06-29 09:29:18.187500,91.67,83.95
85319,2018-06-29 09:29:18.218750,36.67,83.95
85320,2018-06-29 09:29:18.250000,-14.06,83.95
85321,2018-06-29 09:29:18.281250,-60.21,83.95
85322,2018-06-29 09:29:18.312500,-105.56,83.95
85323,2018-06-29 09:29:18.343750,-141.52,83.95
85324,2018-06-29 09:29:18.375000,-151.57,83.95
85325,2018-06-29 09:29:18.406250,-129.4,83.95
85326,2018-06-29 09:29:18.437500,-85.46,83.95
85327,2018-06-29 09:29:18.468750,-34.81,83.95
85328,2018-06-29 09:29:18.500000,10.74,83.95
85329,2018-06-29 09:29:18.531250,38.78,84.13
85330,2018-06-29 09:29:18.562500,43.17,84.13
85331,2018-06-29 09:29:18.593750,34.34,84.13
85332,2018-06-29 09:29:18.625000,24.67,84.13
85333,2018-06-29 09:29:18.656250,9.4,84.13
85334,2018-06-29 09:29:18.687500,-19.73,84.13
85335,2018-06-29 09:29:18.718750,-51.41,84.13
85336,2018-06-29 09:29:18.750000,-62.59,84.13
85337,2018-06-29 09:29:18.781250,-43.39,84.13
85338,2018-06-29 09:29:18.812500,-4.13,84.13
85339,2018-06-29 09:29:18.843750,36.08,84.13
85340,2018-06-29 09:29:18.875000,60.71,84.13
85341,2018-06-29 09:29:18.906250,59.98,84.13
85342,2018-06-29 09:29:18.937500,30.69,84.13
85343,2018-06-29 09:29:18.968750,-21.13,84.13
85344,2018-06-29 09:29:19.000000,-73.27,84.13
85345,2018-06-29 09:29:19.031250,-92.7,84.13
85346,2018-06-29 09:29:19.062500,-62.34,84.13
85347,2018-06-29 09:29:19.093750,-0.04,84.13
85348,2018-06-29 09:29:19.125000,60.62,84.13
85349,2018-06-29 09:29:19.156250,105.7,84.13
85350,2018-06-29 09:29:19.187500,142.86,84.13
85351,2018-06-29 09:29:19.218750,171.46,84.13
85352,2018-06-29 09:29:19.250000,172.09,84.13
85353,2018-06-29 09:29:19.281250,132.83,84.13
85354,2018-06-29 09:29:19.312500,68.57,84.13
85355,2018-06-29 09:29:19.343750,7.76,84.13
85356,2018-06-29 09:29:19.375000,-28.42,84.13
85357,2018-06-29 09:29:19.406250,-36.82,84.13
85358,2018-06-29 09:29:19.437500,-33.27,84.13
85359,2018-06-29 09:29:19.468750,-39.2,84.13
85360,2018-06-29 09:29:19.500000,-63.77,84.13
85361,2018-06-29 09:29:19.531250,-102.01,84.3
85362,2018-06-29 09:29:19.562500,-144.22,84.3
85363,2018-06-29 09:29:19.593750,-180.13,84.3
85364,2018-06-29 09:29:19.625000,-198.75,84.3
85365,2018-06-29 09:29:19.656250,-188.14,84.3
85366,2018-06-29 09:29:19.687500,-142.33,84.3
85367,2018-06-29 09:29:19.718750,-73.87,84.3
85368,2018-06-29 09:29:19.750000,-9.66,84.3
85369,2018-06-29 09:29:19.781250,31.93,84.3
85370,2018-06-29 09:29:19.812500,51.81,84.3
85371,2018-06-29 09:29:19.843750,59.75,84.3
85372,2018-06-29 09:29:19.875000,63.95,84.3
85373,2018-06-29 09:29:19.906250,67.46,84.3
85374,2018-06-29 09:29:19.937500,69.56,84.3
85375,2018-06-29 09:29:19.968750,72.58,84.3
85376,2018-06-29 09:29:20.000000,80.92,84.3
85377,2018-06-29 09:29:20.031250,89.01,84.3
85378,2018-06-29 09:29:20.062500,82.31,84.3
85379,2018-06-29 09:29:20.093750,54.7,84.3
85380,2018-06-29 09:29:20.125000,16.09,84.3
85381,2018-06-29 09:29:20.156250,-17.1,84.3
85382,2018-06-29 09:29:20.187500,-32.96,84.3
85383,2018-06-29 09:29:20.218750,-31.35,84.3
85384,2018-06-29 09:29:20.250000,-21.79,84.3
85385,2018-06-29 09:29:20.281250,-7.55,84.3
85386,2018-06-29 09:29:20.312500,20.04,84.3
85387,2018-06-29 09:29:20.343750,60.51,84.3
85388,2018-06-29 09:29:20.375000,89.36,84.3
85389,2018-06-29 09:29:20.406250,83.5,84.3
85390,2018-06-29 09:29:20.437500,52.32,84.3
85391,2018-06-29 09:29:20.468750,25.68,84.3
85392,2018-06-29 09:29:20.500000,17.74,84.3
85393,2018-06-29 09:29:20.531250,17.81,84.48
85394,2018-06-29 09:29:20.562500,10.54,84.48
85395,2018-06-29 09:29:20.593750,-8.96,84.48
85396,2018-06-29 09:29:20.625000,-36.51,84.48
85397,2018-06-29 09:29:20.656250,-64.07,84.48
85398,2018-06-29 09:29:20.687500,-82.92,84.48
85399,2018-06-29 09:29:20.718750,-87.07,84.48
85400,2018-06-29 09:29:20.750000,-77.67,84.48
85401,2018-06-29 09:29:20.781250,-62.21,84.48
85402,2018-06-29 09:29:20.812500,-46.25,84.48
85403,2018-06-29 09:29:20.843750,-29.87,84.48
85404,2018-06-29 09:29:20.875000,-17.97,84.48
85405,2018-06-29 09:29:20.906250,-21.84,84.48
85406,2018-06-29 09:29:20.937500,-37.34,84.48
85407,2018-06-29 09:29:20.968750,-36.7,84.48
85408,2018-06-29 09:29:21.000000,-0.39,84.48
85409,2018-06-29 09:29:21.031250,54.94,84.48
85410,2018-06-29 09:29:21.062500,94.36,84.48
85411,2018-06-29 09:29:21.093750,99.54,84.48
85412,2018-06-29 09:29:21.125000,77.03,84.48
85413,2018-06-29 09:29:21.156250,42.99,84.48
85414,2018-06-29 09:29:21.187500,9.2,84.48
85415,2018-06-29 09:29:21.218750,-18.49,84.48
85416,2018-06-29 09:29:21.250000,-35.99,84.48
85417,2018-06-29 09:29:21.281250,-41.23,84.48
85418,2018-06-29 09:29:21.312500,-37.67,84.48
85419,2018-06-29 09:29:21.343750,-31.82,84.48
85420,2018-06-29 09:29:21.375000,-27.3,84.48
85421,2018-06-29 09:29:21.406250,-24.72,84.48
85422,2018-06-29 09:29:21.437500,-23.9,84.48
85423,2018-06-29 09:29:21.468750,-24.73,84.48
85424,2018-06-29 09:29:21.500000,-30.33,84.48
85425,2018-06-29 09:29:21.531250,-47.02,84.65
85426,2018-06-29 09:29:21.562500,-70.57,84.65
85427,2018-06-29 09:29:21.593750,-77.14,84.65
85428,2018-06-29 09:29:21.625000,-44.13,84.65
85429,2018-06-29 09:29:21.656250,20.84,84.65
85430,2018-06-29 09:29:21.687500,84.64,84.65
85431,2018-06-29 09:29:21.718750,120.8,84.65
85432,2018-06-29 09:29:21.750000,126.57,84.65
85433,2018-06-29 09:29:21.781250,113.48,84.65
85434,2018-06-29 09:29:21.812500,94.31,84.65
85435,2018-06-29 09:29:21.843750,79.54,84.65
85436,2018-06-29 09:29:21.875000,77.43,84.65
85437,2018-06-29 09:29:21.906250,91.3,84.65
85438,2018-06-29 09:29:21.937500,117.86,84.65
85439,2018-06-29 09:29:21.968750,151.48,84.65
85440,2018-06-29 09:29:22.000000,186.97,84.65
85441,2018-06-29 09:29:22.031250,213.11,84.65
85442,2018-06-29 09:29:22.062500,214.62,84.65
85443,2018-06-29 09:29:22.093750,188.86,84.65
85444,2018-06-29 09:29:22.125000,146.53,84.65
85445,2018-06-29 09:29:22.156250,91.29,84.65
85446,2018-06-29 09:29:22.187500,18.4,84.65
85447,2018-06-29 09:29:22.218750,-59.5,84.65
85448,2018-06-29 09:29:22.250000,-109.79,84.65
85449,2018-06-29 09:29:22.281250,-117.47,84.65
85450,2018-06-29 09:29:22.312500,-106.4,84.65
85451,2018-06-29 09:29:22.343750,-110.21,84.65
85452,2018-06-29 09:29:22.375000,-138.11,84.65
85453,2018-06-29 09:29:22.406250,-179.81,84.65
85454,2018-06-29 09:29:22.437500,-224.06,84.65
85455,2018-06-29 09:29:22.468750,-260.54,84.65
85456,2018-06-29 09:29:22.500000,-278.44,84.65
85457,2018-06-29 09:29:22.531250,-270.71,84.8
85458,2018-06-29 09:29:22.562500,-233.41,84.8
85459,2018-06-29 09:29:22.593750,-166.61,84.8
85460,2018-06-29 09:29:22.625000,-85.04,84.8
85461,2018-06-29 09:29:22.656250,-16.16,84.8
85462,2018-06-29 09:29:22.687500,23.14,84.8
85463,2018-06-29 09:29:22.718750,39.17,84.8
85464,2018-06-29 09:29:22.750000,46.78,84.8
85465,2018-06-29 09:29:22.781250,52.57,84.8
85466,2018-06-29 09:29:22.812500,51.51,84.8
85467,2018-06-29 09:29:22.843750,33.33,84.8
85468,2018-06-29 09:29:22.875000,1.48,84.8
85469,2018-06-29 09:29:22.906250,-17.97,84.8
85470,2018-06-29 09:29:22.937500,-4.98,84.8
85471,2018-06-29 09:29:22.968750,23.63,84.8
85472,2018-06-29 09:29:23.000000,33.86,84.8
85473,2018-06-29 09:29:23.031250,17.03,84.8
85474,2018-06-29 09:29:23.062500,-7.12,84.8
85475,2018-06-29 09:29:23.093750,-22.88,84.8
85476,2018-06-29 09:29:23.125000,-39.38,84.8
85477,2018-06-29 09:29:23.156250,-77.72,84.8
85478,2018-06-29 09:29:23.187500,-140.08,84.8
85479,2018-06-29 09:29:23.218750,-190.17,84.8
85480,2018-06-29 09:29:23.250000,-178.5,84.8
85481,2018-06-29 09:29:23.281250,-110.04,84.8
85482,2018-06-29 09:29:23.312500,-59.96,84.8
85483,2018-06-29 09:29:23.343750,-81.08,84.8
85484,2018-06-29 09:29:23.375000,-134.75,84.8
85485,2018-06-29 09:29:23.406250,-159.91,84.8
85486,2018-06-29 09:29:23.437500,-156.02,84.8
85487,2018-06-29 09:29:23.468750,-149.9,84.8
85488,2018-06-29 09:29:23.500000,-142.17,84.8
85489,2018-06-29 09:29:23.531250,-124.26,84.98
85490,2018-06-29 09:29:23.562500,-97.18,84.98
85491,2018-06-29 09:29:23.593750,-55.18,84.98
85492,2018-06-29 09:29:23.625000,12.41,84.98
85493,2018-06-29 09:29:23.656250,96.97,84.98
85494,2018-06-29 09:29:23.687500,169.25,84.98
85495,2018-06-29 09:29:23.718750,197.48,84.98
85496,2018-06-29 09:29:23.750000,163.21,84.98
85497,2018-06-29 09:29:23.781250,81.11,84.98
85498,2018-06-29 09:29:23.812500,5.28,84.98
85499,2018-06-29 09:29:23.843750,-12.02,84.98
85500,2018-06-29 09:29:23.875000,27.81,84.98
85501,2018-06-29 09:29:23.906250,78.27,84.98
85502,2018-06-29 09:29:23.937500,99.57,84.98
85503,2018-06-29 09:29:23.968750,82.23,84.98
85504,2018-06-29 09:29:24.000000,35.39,84.98
85505,2018-06-29 09:29:24.031250,-22.93,84.98
85506,2018-06-29 09:29:24.062500,-70.75,84.98
85507,2018-06-29 09:29:24.093750,-98.9,84.98
85508,2018-06-29 09:29:24.125000,-120.2,84.98
85509,2018-06-29 09:29:24.156250,-146.27,84.98
85510,2018-06-29 09:29:24.187500,-161.53,84.98
85511,2018-06-29 09:29:24.218750,-138.41,84.98
85512,2018-06-29 09:29:24.250000,-72.85,84.98
85513,2018-06-29 09:29:24.281250,9.21,84.98
85514,2018-06-29 09:29:24.312500,76.75,84.98
85515,2018-06-29 09:29:24.343750,117.25,84.98
85516,2018-06-29 09:29:24.375000,137.89,84.98
85517,2018-06-29 09:29:24.406250,149.31,84.98
85518,2018-06-29 09:29:24.437500,154.23,84.98
85519,2018-06-29 09:29:24.468750,153.86,84.98
85520,2018-06-29 09:29:24.500000,153.1,84.98
85521,2018-06-29 09:29:24.531250,151.1,85.15
85522,2018-06-29 09:29:24.562500,136.97,85.15
85523,2018-06-29 09:29:24.593750,102.82,85.15
85524,2018-06-29 09:29:24.625000,55.19,85.15
85525,2018-06-29 09:29:24.656250,9.46,85.15
85526,2018-06-29 09:29:24.687500,-22.42,85.15
85527,2018-06-29 09:29:24.718750,-37.98,85.15
85528,2018-06-29 09:29:24.750000,-43.36,85.15
85529,2018-06-29 09:29:24.781250,-42.94,85.15
85530,2018-06-29 09:29:24.812500,-25.33,85.15
85531,2018-06-29 09:29:24.843750,23.72,85.15
85532,2018-06-29 09:29:24.875000,88.78,85.15
85533,2018-06-29 09:29:24.906250,130.8,85.15
85534,2018-06-29 09:29:24.937500,132.72,85.15
85535,2018-06-29 09:29:24.968750,111.67,85.15
85536,2018-06-29 09:29:25.000000,86.5,85.15
85537,2018-06-29 09:29:25.031250,59.5,85.15
85538,2018-06-29 09:29:25.062500,26.66,85.15
85539,2018-06-29 09:29:25.093750,-13.42,85.15
85540,2018-06-29 09:29:25.125000,-56.71,85.15
85541,2018-06-29 09:29:25.156250,-93.12,85.15
85542,2018-06-29 09:29:25.187500,-113.82,85.15
85543,2018-06-29 09:29:25.218750,-117.42,85.15
85544,2018-06-29 09:29:25.250000,-106.61,85.15
85545,2018-06-29 09:29:25.281250,-84.78,85.15
85546,2018-06-29 09:29:25.312500,-56.81,85.15
85547,2018-06-29 09:29:25.343750,-28.77,85.15
85548,2018-06-29 09:29:25.375000,-9.04,85.15
85549,2018-06-29 09:29:25.406250,-5.9,85.15
85550,2018-06-29 09:29:25.437500,-13.49,85.15
85551,2018-06-29 09:29:25.468750,-9.37,85.15
85552,2018-06-29 09:29:25.500000,18.72,85.15
85553,2018-06-29 09:29:25.531250,56.13,85.35
85554,2018-06-29 09:29:25.562500,84.7,85.35
85555,2018-06-29 09:29:25.593750,105.16,85.35
85556,2018-06-29 09:29:25.625000,121.87,85.35
85557,2018-06-29 09:29:25.656250,123.96,85.35
85558,2018-06-29 09:29:25.687500,97.77,85.35
85559,2018-06-29 09:29:25.718750,47.99,85.35
85560,2018-06-29 09:29:25.750000,-4.78,85.35
85561,2018-06-29 09:29:25.781250,-42.73,85.35
85562,2018-06-29 09:29:25.812500,-63.82,85.35
85563,2018-06-29 09:29:25.843750,-77.7,85.35
85564,2018-06-29 09:29:25.875000,-90.17,85.35
85565,2018-06-29 09:29:25.906250,-94.51,85.35
85566,2018-06-29 09:29:25.937500,-77.92,85.35
85567,2018-06-29 09:29:25.968750,-36.9,85.35
85568,2018-06-29 09:29:26.000000,12.7,85.35
85569,2018-06-29 09:29:26.031250,48.91,85.35
85570,2018-06-29 09:29:26.062500,71.99,85.35
85571,2018-06-29 09:29:26.093750,101.0,85.35
85572,2018-06-29 09:29:26.125000,134.69,85.35
85573,2018-06-29 09:29:26.156250,145.22,85.35
85574,2018-06-29 09:29:26.187500,115.84,85.35
85575,2018-06-29 09:29:26.218750,55.28,85.35
85576,2018-06-29 09:29:26.250000,-20.48,85.35
85577,2018-06-29 09:29:26.281250,-93.06,85.35
85578,2018-06-29 09:29:26.312500,-137.98,85.35
85579,2018-06-29 09:29:26.343750,-141.68,85.35
85580,2018-06-29 09:29:26.375000,-114.57,85.35
85581,2018-06-29 09:29:26.406250,-77.34,85.35
85582,2018-06-29 09:29:26.437500,-42.44,85.35
85583,2018-06-29 09:29:26.468750,-13.09,85.35
85584,2018-06-29 09:29:26.500000,7.79,85.35
85585,2018-06-29 09:29:26.531250,15.09,85.58
85586,2018-06-29 09:29:26.562500,8.09,85.58
85587,2018-06-29 09:29:26.593750,-5.24,85.58
85588,2018-06-29 09:29:26.625000,-14.42,85.58
85589,2018-06-29 09:29:26.656250,-13.02,85.58
85590,2018-06-29 09:29:26.687500,5.7,85.58
85591,2018-06-29 09:29:26.718750,46.69,85.58
85592,2018-06-29 09:29:26.750000,96.99,85.58
85593,2018-06-29 09:29:26.781250,127.07,85.58
85594,2018-06-29 09:29:26.812500,120.2,85.58
85595,2018-06-29 09:29:26.843750,88.62,85.58
85596,2018-06-29 09:29:26.875000,55.21,85.58
85597,2018-06-29 09:29:26.906250,31.46,85.58
85598,2018-06-29 09:29:26.937500,19.91,85.58
85599,2018-06-29 09:29:26.968750,24.58,85.58
85600,2018-06-29 09:29:27.000000,45.34,85.58
85601,2018-06-29 09:29:27.031250,68.26,85.58
85602,2018-06-29 09:29:27.062500,75.09,85.58
85603,2018-06-29 09:29:27.093750,60.25,85.58
85604,2018-06-29 09:29:27.125000,33.77,85.58
85605,2018-06-29 09:29:27.156250,11.58,85.58
85606,2018-06-29 09:29:27.187500,-1.17,85.58
85607,2018-06-29 09:29:27.218750,-16.56,85.58
85608,2018-06-29 09:29:27.250000,-46.55,85.58
85609,2018-06-29 09:29:27.281250,-86.48,85.58
85610,2018-06-29 09:29:27.312500,-116.6,85.58
85611,2018-06-29 09:29:27.343750,-114.2,85.58
85612,2018-06-29 09:29:27.375000,-75.55,85.58
85613,2018-06-29 09:29:27.406250,-26.9,85.58
85614,2018-06-29 09:29:27.437500,7.83,85.58
85615,2018-06-29 09:29:27.468750,34.69,85.58
85616,2018-06-29 09:29:27.500000,65.39,85.58
85617,2018-06-29 09:29:27.531250,90.13,85.8
85618,2018-06-29 09:29:27.562500,96.43,85.8
85619,2018-06-29 09:29:27.593750,92.15,85.8
85620,2018-06-29 09:29:27.625000,91.45,85.8
85621,2018-06-29 09:29:27.656250,93.96,85.8
85622,2018-06-29 09:29:27.687500,87.44,85.8
85623,2018-06-29 09:29:27.718750,69.56,85.8
85624,2018-06-29 09:29:27.750000,53.17,85.8
85625,2018-06-29 09:29:27.781250,51.34,85.8
85626,2018-06-29 09:29:27.812500,58.79,85.8
85627,2018-06-29 09:29:27.843750,53.44,85.8
85628,2018-06-29 09:29:27.875000,17.7,85.8
85629,2018-06-29 09:29:27.906250,-60.72,85.8
85630,2018-06-29 09:29:27.937500,-149.89,85.8
85631,2018-06-29 09:29:27.968750,-175.87,85.8
85632,2018-06-29 09:29:28.000000,-118.45,85.8
85633,2018-06-29 09:29:28.031250,-13.79,85.8
85634,2018-06-29 09:29:28.062500,94.29,85.8
85635,2018-06-29 09:29:28.093750,164.44,85.8
85636,2018-06-29 09:29:28.125000,181.29,85.8
85637,2018-06-29 09:29:28.156250,128.48,85.8
85638,2018-06-29 09:29:28.187500,18.83,85.8
85639,2018-06-29 09:29:28.218750,-86.95,85.8
85640,2018-06-29 09:29:28.250000,-159.72,85.8
85641,2018-06-29 09:29:28.281250,-204.26,85.8
85642,2018-06-29 09:29:28.312500,-214.81,85.8
85643,2018-06-29 09:29:28.343750,-193.9,85.8
85644,2018-06-29 09:29:28.375000,-168.38,85.8
85645,2018-06-29 09:29:28.406250,-162.4,85.8
85646,2018-06-29 09:29:28.437500,-177.45,85.8
85647,2018-06-29 09:29:28.468750,-196.88,85.8
85648,2018-06-29 09:29:28.500000,-211.15,85.8
85649,2018-06-29 09:29:28.531250,-219.37,86.03
85650,2018-06-29 09:29:28.562500,-209.82,86.03
85651,2018-06-29 09:29:28.593750,-161.66,86.03
85652,2018-06-29 09:29:28.625000,-79.7,86.03
85653,2018-06-29 09:29:28.656250,-3.35,86.03
85654,2018-06-29 09:29:28.687500,38.2,86.03
85655,2018-06-29 09:29:28.718750,55.52,86.03
85656,2018-06-29 09:29:28.750000,71.3,86.03
85657,2018-06-29 09:29:28.781250,86.86,86.03
85658,2018-06-29 09:29:28.812500,93.7,86.03
85659,2018-06-29 09:29:28.843750,95.91,86.03
85660,2018-06-29 09:29:28.875000,106.02,86.03
85661,2018-06-29 09:29:28.906250,127.8,86.03
85662,2018-06-29 09:29:28.937500,152.49,86.03
85663,2018-06-29 09:29:28.968750,167.76,86.03
85664,2018-06-29 09:29:29.000000,164.4,86.03
85665,2018-06-29 09:29:29.031250,137.79,86.03
85666,2018-06-29 09:29:29.062500,91.16,86.03
85667,2018-06-29 09:29:29.093750,37.01,86.03
85668,2018-06-29 09:29:29.125000,-10.06,86.03
85669,2018-06-29 09:29:29.156250,-40.31,86.03
85670,2018-06-29 09:29:29.187500,-44.33,86.03
85671,2018-06-29 09:29:29.218750,-10.48,86.03
85672,2018-06-29 09:29:29.250000,58.97,86.03
85673,2018-06-29 09:29:29.281250,135.66,86.03
85674,2018-06-29 09:29:29.312500,183.82,86.03
85675,2018-06-29 09:29:29.343750,188.29,86.03
85676,2018-06-29 09:29:29.375000,160.28,86.03
85677,2018-06-29 09:29:29.406250,123.37,86.03
85678,2018-06-29 09:29:29.437500,94.69,86.03
85679,2018-06-29 09:29:29.468750,71.82,86.03
85680,2018-06-29 09:29:29.500000,38.03,86.03
85681,2018-06-29 09:29:29.531250,-17.56,86.28
85682,2018-06-29 09:29:29.562500,-88.57,86.28
85683,2018-06-29 09:29:29.593750,-157.46,86.28
85684,2018-06-29 09:29:29.625000,-205.65,86.28
85685,2018-06-29 09:29:29.656250,-223.25,86.28
85686,2018-06-29 09:29:29.687500,-214.83,86.28
85687,2018-06-29 09:29:29.718750,-193.23,86.28
85688,2018-06-29 09:29:29.750000,-167.53,86.28
85689,2018-06-29 09:29:29.781250,-140.77,86.28
85690,2018-06-29 09:29:29.812500,-111.57,86.28
85691,2018-06-29 09:29:29.843750,-72.02,86.28
85692,2018-06-29 09:29:29.875000,-16.96,86.28
85693,2018-06-29 09:29:29.906250,40.44,86.28
85694,2018-06-29 09:29:29.937500,76.55,86.28
85695,2018-06-29 09:29:29.968750,81.27,86.28
85696,2018-06-29 09:29:30.000000,66.3,86.28
85697,2018-06-29 09:29:30.031250,54.37,86.28
85698,2018-06-29 09:29:30.062500,62.35,86.28
85699,2018-06-29 09:29:30.093750,85.85,86.28
85700,2018-06-29 09:29:30.125000,101.21,86.28
85701,2018-06-29 09:29:30.156250,89.21,86.28
85702,2018-06-29 09:29:30.187500,53.23,86.28
85703,2018-06-29 09:29:30.218750,13.17,86.28
85704,2018-06-29 09:29:30.250000,-12.45,86.28
85705,2018-06-29 09:29:30.281250,-16.15,86.28
85706,2018-06-29 09:29:30.312500,0.37,86.28
85707,2018-06-29 09:29:30.343750,30.51,86.28
85708,2018-06-29 09:29:30.375000,65.59,86.28
85709,2018-06-29 09:29:30.406250,96.32,86.28
85710,2018-06-29 09:29:30.437500,108.09,86.28
85711,2018-06-29 09:29:30.468750,83.48,86.28
85712,2018-06-29 09:29:30.500000,27.51,86.28
85713,2018-06-29 09:29:30.531250,-21.94,86.57
85714,2018-06-29 09:29:30.562500,-32.12,86.57
85715,2018-06-29 09:29:30.593750,-13.56,86.57
85716,2018-06-29 09:29:30.625000,-2.36,86.57
85717,2018-06-29 09:29:30.656250,-18.53,86.57
85718,2018-06-29 09:29:30.687500,-56.88,86.57
85719,2018-06-29 09:29:30.718750,-103.43,86.57
85720,2018-06-29 09:29:30.750000,-143.96,86.57
85721,2018-06-29 09:29:30.781250,-163.49,86.57
85722,2018-06-29 09:29:30.812500,-152.07,86.57
85723,2018-06-29 09:29:30.843750,-112.85,86.57
85724,2018-06-29 09:29:30.875000,-59.09,86.57
85725,2018-06-29 09:29:30.906250,-3.65,86.57
85726,2018-06-29 09:29:30.937500,41.22,86.57
85727,2018-06-29 09:29:30.968750,56.54,86.57
85728,2018-06-29 09:29:31.000000,26.15,86.57
85729,2018-06-29 09:29:31.031250,-42.29,86.57
85730,2018-06-29 09:29:31.062500,-118.39,86.57
85731,2018-06-29 09:29:31.093750,-168.83,86.57
85732,2018-06-29 09:29:31.125000,-167.71,86.57
85733,2018-06-29 09:29:31.156250,-105.81,86.57
85734,2018-06-29 09:29:31.187500,-6.19,86.57
85735,2018-06-29 09:29:31.218750,85.41,86.57
85736,2018-06-29 09:29:31.250000,135.91,86.57
85737,2018-06-29 09:29:31.281250,141.8,86.57
85738,2018-06-29 09:29:31.312500,117.41,86.57
85739,2018-06-29 09:29:31.343750,81.6,86.57
85740,2018-06-29 09:29:31.375000,54.29,86.57
85741,2018-06-29 09:29:31.406250,52.17,86.57
85742,2018-06-29 09:29:31.437500,78.05,86.57
85743,2018-06-29 09:29:31.468750,117.05,86.57
85744,2018-06-29 09:29:31.500000,152.37,86.57
85745,2018-06-29 09:29:31.531250,179.28,86.8
85746,2018-06-29 09:29:31.562500,192.85,86.8
85747,2018-06-29 09:29:31.593750,177.14,86.8
85748,2018-06-29 09:29:31.625000,125.7,86.8
85749,2018-06-29 09:29:31.656250,56.38,86.8
85750,2018-06-29 09:29:31.687500,-11.29,86.8
85751,2018-06-29 09:29:31.718750,-77.59,86.8
85752,2018-06-29 09:29:31.750000,-147.61,86.8
85753,2018-06-29 09:29:31.781250,-206.23,86.8
85754,2018-06-29 09:29:31.812500,-225.04,86.8
85755,2018-06-29 09:29:31.843750,-193.2,86.8
85756,2018-06-29 09:29:31.875000,-130.88,86.8
85757,2018-06-29 09:29:31.906250,-67.08,86.8
85758,2018-06-29 09:29:31.937500,-13.25,86.8
85759,2018-06-29 09:29:31.968750,33.68,86.8
85760,2018-06-29 09:29:32.000000,71.12,86.8
85761,2018-06-29 09:29:32.031250,89.34,86.8
85762,2018-06-29 09:29:32.062500,87.9,86.8
85763,2018-06-29 09:29:32.093750,76.56,86.8
85764,2018-06-29 09:29:32.125000,58.86,86.8
85765,2018-06-29 09:29:32.156250,30.73,86.8
85766,2018-06-29 09:29:32.187500,-5.92,86.8
85767,2018-06-29 09:29:32.218750,-43.45,86.8
85768,2018-06-29 09:29:32.250000,-77.37,86.8
85769,2018-06-29 09:29:32.281250,-102.1,86.8
85770,2018-06-29 09:29:32.312500,-107.87,86.8
85771,2018-06-29 09:29:32.343750,-94.38,86.8
85772,2018-06-29 09:29:32.375000,-78.74,86.8
85773,2018-06-29 09:29:32.406250,-77.39,86.8
85774,2018-06-29 09:29:32.437500,-84.12,86.8
85775,2018-06-29 09:29:32.468750,-76.04,86.8
85776,2018-06-29 09:29:32.500000,-39.28,86.8
85777,2018-06-29 09:29:32.531250,19.69,86.98
85778,2018-06-29 09:29:32.562500,83.83,86.98
85779,2018-06-29 09:29:32.593750,138.52,86.98
85780,2018-06-29 09:29:32.625000,178.22,86.98
85781,2018-06-29 09:29:32.656250,203.85,86.98
85782,2018-06-29 09:29:32.687500,211.38,86.98
85783,2018-06-29 09:29:32.718750,192.85,86.98
85784,2018-06-29 09:29:32.750000,154.18,86.98
85785,2018-06-29 09:29:32.781250,112.24,86.98
85786,2018-06-29 09:29:32.812500,68.19,86.98
85787,2018-06-29 09:29:32.843750,6.57,86.98
85788,2018-06-29 09:29:32.875000,-75.05,86.98
85789,2018-06-29 09:29:32.906250,-156.51,86.98
85790,2018-06-29 09:29:32.937500,-214.95,86.98
85791,2018-06-29 09:29:32.968750,-240.32,86.98
85792,2018-06-29 09:29:33.000000,-235.38,86.98
85793,2018-06-29 09:29:33.031250,-211.66,86.98
85794,2018-06-29 09:29:33.062500,-181.07,86.98
85795,2018-06-29 09:29:33.093750,-142.57,86.98
85796,2018-06-29 09:29:33.125000,-82.38,86.98
85797,2018-06-29 09:29:33.156250,0.7,86.98
85798,2018-06-29 09:29:33.187500,77.33,86.98
85799,2018-06-29 09:29:33.218750,111.25,86.98
85800,2018-06-29 09:29:33.250000,96.03,86.98
85801,2018-06-29 09:29:33.281250,56.78,86.98
85802,2018-06-29 09:29:33.312500,25.66,86.98
85803,2018-06-29 09:29:33.343750,23.43,86.98
85804,2018-06-29 09:29:33.375000,51.79,86.98
85805,2018-06-29 09:29:33.406250,94.57,86.98
85806,2018-06-29 09:29:33.437500,129.93,86.98
85807,2018-06-29 09:29:33.468750,142.56,86.98
85808,2018-06-29 09:29:33.500000,127.71,86.98
85809,2018-06-29 09:29:33.531250,92.33,87.23
85810,2018-06-29 09:29:33.562500,51.13,87.23
85811,2018-06-29 09:29:33.593750,15.29,87.23
85812,2018-06-29 09:29:33.625000,-12.43,87.23
85813,2018-06-29 09:29:33.656250,-30.5,87.23
85814,2018-06-29 09:29:33.687500,-33.51,87.23
85815,2018-06-29 09:29:33.718750,-12.73,87.23
85816,2018-06-29 09:29:33.750000,38.73,87.23
85817,2018-06-29 09:29:33.781250,107.7,87.23
85818,2018-06-29 09:29:33.812500,153.84,87.23
85819,2018-06-29 09:29:33.843750,144.35,87.23
85820,2018-06-29 09:29:33.875000,90.29,87.23
85821,2018-06-29 09:29:33.906250,27.89,87.23
85822,2018-06-29 09:29:33.937500,-23.51,87.23
85823,2018-06-29 09:29:33.968750,-67.44,87.23
85824,2018-06-29 09:29:34.000000,-109.65,87.23
85825,2018-06-29 09:29:34.031250,-146.91,87.23
85826,2018-06-29 09:29:34.062500,-171.07,87.23
85827,2018-06-29 09:29:34.093750,-177.37,87.23
85828,2018-06-29 09:29:34.125000,-167.81,87.23
85829,2018-06-29 09:29:34.156250,-148.26,87.23
85830,2018-06-29 09:29:34.187500,-124.96,87.23
85831,2018-06-29 09:29:34.218750,-101.54,87.23
85832,2018-06-29 09:29:34.250000,-75.23,87.23
85833,2018-06-29 09:29:34.281250,-39.38,87.23
85834,2018-06-29 09:29:34.312500,2.86,87.23
85835,2018-06-29 09:29:34.343750,32.14,87.23
85836,2018-06-29 09:29:34.375000,33.48,87.23
85837,2018-06-29 09:29:34.406250,19.41,87.23
85838,2018-06-29 09:29:34.437500,16.18,87.23
85839,2018-06-29 09:29:34.468750,33.15,87.23
85840,2018-06-29 09:29:34.500000,61.2,87.23
85841,2018-06-29 09:29:34.531250,89.95,87.45
85842,2018-06-29 09:29:34.562500,110.54,87.45
