,Time,ppg,hr
86400,2018-06-29 09:29:52.000000,-32.77,91.27
86401,2018-06-29 09:29:52.031250,9.97,91.27
86402,2018-06-29 09:29:52.062500,49.28,91.27
86403,2018-06-29 09:29:52.093750,82.42,91.27
86404,2018-06-29 09:29:52.125000,104.28,91.27
86405,2018-06-29 09:29:52.156250,105.5,91.27
86406,2018-06-29 09:29:52.187500,81.89,91.27
86407,2018-06-29 09:29:52.218750,41.93,91.27
86408,2018-06-29 09:29:52.250000,2.74,91.27
86409,2018-06-29 09:29:52.281250,-16.61,91.27
86410,2018-06-29 09:29:52.312500,-3.95,91.27
86411,2018-06-29 09:29:52.343750,33.14,91.27
86412,2018-06-29 09:29:52.375000,67.54,91.27
86413,2018-06-29 09:29:52.406250,74.84,91.27
86414,2018-06-29 09:29:52.437500,53.9,91.27
86415,2018-06-29 09:29:52.468750,22.63,91.27
86416,2018-06-29 09:29:52.500000,-0.96,91.27
86417,2018-06-29 09:29:52.531250,-9.22,91.45
86418,2018-06-29 09:29:52.562500,-2.33,91.45
86419,2018-06-29 09:29:52.593750,15.6,91.45
86420,2018-06-29 09:29:52.625000,39.17,91.45
86421,2018-06-29 09:29:52.656250,65.08,91.45
86422,2018-06-29 09:29:52.687500,87.24,91.45
86423,2018-06-29 09:29:52.718750,91.32,91.45
86424,2018-06-29 09:29:52.750000,69.99,91.45
86425,2018-06-29 09:29:52.781250,38.76,91.45
86426,2018-06-29 09:29:52.812500,14.56,91.45
86427,2018-06-29 09:29:52.843750,-13.18,91.45
86428,2018-06-29 09:29:52.875000,-66.59,91.45
86429,2018-06-29 09:29:52.906250,-142.54,91.45
86430,2018-06-29 09:29:52.937500,-208.24,91.45
86431,2018-06-29 09:29:52.968750,-231.0,91.45
86432,2018-06-29 09:29:53.000000,-205.04,91.45
86433,2018-06-29 09:29:53.031250,-150.51,91.45
86434,2018-06-29 09:29:53.062500,-90.94,91.45
86435,2018-06-29 09:29:53.093750,-37.01,91.45
86436,2018-06-29 09:29:53.125000,9.06,91.45
86437,2018-06-29 09:29:53.156250,45.62,91.45
86438,2018-06-29 09:29:53.187500,72.38,91.45
86439,2018-06-29 09:29:53.218750,88.23,91.45
86440,2018-06-29 09:29:53.250000,86.8,91.45
86441,2018-06-29 09:29:53.281250,66.52,91.45
86442,2018-06-29 09:29:53.312500,45.2,91.45
86443,2018-06-29 09:29:53.343750,48.0,91.45
86444,2018-06-29 09:29:53.375000,78.01,91.45
86445,2018-06-29 09:29:53.406250,111.59,91.45
86446,2018-06-29 09:29:53.437500,123.62,91.45
86447,2018-06-29 09:29:53.468750,105.82,91.45
86448,2018-06-29 09:29:53.500000,63.07,91.45
86449,2018-06-29 09:29:53.531250,7.74,91.5
86450,2018-06-29 09:29:53.562500,-38.51,91.5
86451,2018-06-29 09:29:53.593750,-53.31,91.5
86452,2018-06-29 09:29:53.625000,-33.55,91.5
86453,2018-06-29 09:29:53.656250,1.88,91.5
86454,2018-06-29 09:29:53.687500,33.28,91.5
86455,2018-06-29 09:29:53.718750,55.15,91.5
86456,2018-06-29 09:29:53.750000,71.71,91.5
86457,2018-06-29 09:29:53.781250,85.03,91.5
86458,2018-06-29 09:29:53.812500,86.81,91.5
86459,2018-06-29 09:29:53.843750,65.72,91.5
86460,2018-06-29 09:29:53.875000,25.45,91.5
86461,2018-06-29 09:29:53.906250,-18.89,91.5
86462,2018-06-29 09:29:53.937500,-63.52,91.5
86463,2018-06-29 09:29:53.968750,-113.19,91.5
86464,2018-06-29 09:29:54.000000,-158.66,91.5
86465,2018-06-29 09:29:54.031250,-182.17,91.5
86466,2018-06-29 09:29:54.062500,-181.66,91.5
86467,2018-06-29 09:29:54.093750,-170.46,91.5
86468,2018-06-29 09:29:54.125000,-158.6,91.5
86469,2018-06-29 09:29:54.156250,-144.63,91.5
86470,2018-06-29 09:29:54.187500,-118.77,91.5
86471,2018-06-29 09:29:54.218750,-72.44,91.5
86472,2018-06-29 09:29:54.250000,-9.1,91.5
86473,2018-06-29 09:29:54.281250,56.55,91.5
86474,2018-06-29 09:29:54.312500,108.4,91.5
86475,2018-06-29 09:29:54.343750,132.88,91.5
86476,2018-06-29 09:29:54.375000,125.24,91.5
86477,2018-06-29 09:29:54.406250,101.26,91.5
86478,2018-06-29 09:29:54.437500,88.41,91.5
86479,2018-06-29 09:29:54.468750,96.61,91.5
86480,2018-06-29 09:29:54.500000,109.75,91.5
86481,2018-06-29 09:29:54.531250,108.27,91.6
86482,2018-06-29 09:29:54.562500,87.68,91.6
86483,2018-06-29 09:29:54.593750,55.39,91.6
86484,2018-06-29 09:29:54.625000,21.89,91.6
86485,2018-06-29 09:29:54.656250,-3.57,91.6
86486,2018-06-29 09:29:54.687500,-17.37,91.6
86487,2018-06-29 09:29:54.718750,-23.68,91.6
86488,2018-06-29 09:29:54.750000,-29.02,91.6
86489,2018-06-29 09:29:54.781250,-32.35,91.6
86490,2018-06-29 09:29:54.812500,-23.79,91.6
86491,2018-06-29 09:29:54.843750,5.08,91.6
86492,2018-06-29 09:29:54.875000,51.82,91.6
86493,2018-06-29 09:29:54.906250,101.93,91.6
86494,2018-06-29 09:29:54.937500,132.34,91.6
86495,2018-06-29 09:29:54.968750,124.87,91.6
86496,2018-06-29 09:29:55.000000,84.19,91.6
86497,2018-06-29 09:29:55.031250,32.22,91.6
86498,2018-06-29 09:29:55.062500,-17.68,91.6
86499,2018-06-29 09:29:55.093750,-64.7,91.6
86500,2018-06-29 09:29:55.125000,-102.98,91.6
86501,2018-06-29 09:29:55.156250,-123.43,91.6
86502,2018-06-29 09:29:55.187500,-129.1,91.6
86503,2018-06-29 09:29:55.218750,-128.2,91.6
86504,2018-06-29 09:29:55.250000,-118.2,91.6
86505,2018-06-29 09:29:55.281250,-92.96,91.6
86506,2018-06-29 09:29:55.312500,-57.65,91.6
86507,2018-06-29 09:29:55.343750,-22.48,91.6
86508,2018-06-29 09:29:55.375000,11.17,91.6
86509,2018-06-29 09:29:55.406250,45.44,91.6
86510,2018-06-29 09:29:55.437500,73.16,91.6
86511,2018-06-29 09:29:55.468750,83.75,91.6
86512,2018-06-29 09:29:55.500000,80.4,91.6
86513,2018-06-29 09:29:55.531250,80.08,91.72
86514,2018-06-29 09:29:55.562500,95.26,91.72
86515,2018-06-29 09:29:55.593750,120.28,91.72
86516,2018-06-29 09:29:55.625000,136.0,91.72
86517,2018-06-29 09:29:55.656250,126.45,91.72
86518,2018-06-29 09:29:55.687500,91.53,91.72
86519,2018-06-29 09:29:55.718750,44.91,91.72
86520,2018-06-29 09:29:55.750000,3.4,91.72
86521,2018-06-29 09:29:55.781250,-21.66,91.72
86522,2018-06-29 09:29:55.812500,-30.07,91.72
86523,2018-06-29 09:29:55.843750,-32.61,91.72
86524,2018-06-29 09:29:55.875000,-39.06,91.72
86525,2018-06-29 09:29:55.906250,-47.13,91.72
86526,2018-06-29 09:29:55.937500,-50.01,91.72
86527,2018-06-29 09:29:55.968750,-48.18,91.72
86528,2018-06-29 09:29:56.000000,-45.82,91.72
86529,2018-06-29 09:29:56.031250,-41.58,91.72
86530,2018-06-29 09:29:56.062500,-26.63,91.72
86531,2018-06-29 09:29:56.093750,3.98,91.72
86532,2018-06-29 09:29:56.125000,33.15,91.72
86533,2018-06-29 09:29:56.156250,32.21,91.72
86534,2018-06-29 09:29:56.187500,-2.51,91.72
86535,2018-06-29 09:29:56.218750,-46.71,91.72
86536,2018-06-29 09:29:56.250000,-81.96,91.72
86537,2018-06-29 09:29:56.281250,-105.2,91.72
86538,2018-06-29 09:29:56.312500,-114.96,91.72
86539,2018-06-29 09:29:56.343750,-113.14,91.72
86540,2018-06-29 09:29:56.375000,-107.96,91.72
86541,2018-06-29 09:29:56.406250,-103.85,91.72
86542,2018-06-29 09:29:56.437500,-98.83,91.72
86543,2018-06-29 09:29:56.468750,-89.81,91.72
86544,2018-06-29 09:29:56.500000,-74.08,91.72
86545,2018-06-29 09:29:56.531250,-54.78,91.9
86546,2018-06-29 09:29:56.562500,-47.65,91.9
86547,2018-06-29 09:29:56.593750,-68.17,91.9
86548,2018-06-29 09:29:56.625000,-108.01,91.9
86549,2018-06-29 09:29:56.656250,-136.8,91.9
86550,2018-06-29 09:29:56.687500,-130.47,91.9
86551,2018-06-29 09:29:56.718750,-87.37,91.9
86552,2018-06-29 09:29:56.750000,-21.84,91.9
86553,2018-06-29 09:29:56.781250,44.67,91.9
86554,2018-06-29 09:29:56.812500,91.17,91.9
86555,2018-06-29 09:29:56.843750,110.13,91.9
86556,2018-06-29 09:29:56.875000,112.27,91.9
86557,2018-06-29 09:29:56.906250,111.74,91.9
86558,2018-06-29 09:29:56.937500,110.74,91.9
86559,2018-06-29 09:29:56.968750,105.04,91.9
86560,2018-06-29 09:29:57.000000,98.9,91.9
86561,2018-06-29 09:29:57.031250,104.14,91.9
86562,2018-06-29 09:29:57.062500,126.35,91.9
86563,2018-06-29 09:29:57.093750,156.12,91.9
86564,2018-06-29 09:29:57.125000,171.86,91.9
86565,2018-06-29 09:29:57.156250,154.37,91.9
86566,2018-06-29 09:29:57.187500,103.13,91.9
86567,2018-06-29 09:29:57.218750,34.4,91.9
86568,2018-06-29 09:29:57.250000,-39.72,91.9
86569,2018-06-29 09:29:57.281250,-118.7,91.9
86570,2018-06-29 09:29:57.312500,-192.87,91.9
86571,2018-06-29 09:29:57.343750,-235.47,91.9
86572,2018-06-29 09:29:57.375000,-229.71,91.9
86573,2018-06-29 09:29:57.406250,-187.27,91.9
86574,2018-06-29 09:29:57.437500,-128.61,91.9
86575,2018-06-29 09:29:57.468750,-65.31,91.9
86576,2018-06-29 09:29:57.500000,-7.86,91.9
86577,2018-06-29 09:29:57.531250,34.48,92.05
86578,2018-06-29 09:29:57.562500,67.52,92.05
86579,2018-06-29 09:29:57.593750,104.42,92.05
86580,2018-06-29 09:29:57.625000,139.25,92.05
86581,2018-06-29 09:29:57.656250,145.92,92.05
86582,2018-06-29 09:29:57.687500,111.01,92.05
86583,2018-06-29 09:29:57.718750,54.84,92.05
86584,2018-06-29 09:29:57.750000,15.97,92.05
86585,2018-06-29 09:29:57.781250,19.27,92.05
86586,2018-06-29 09:29:57.812500,58.87,92.05
86587,2018-06-29 09:29:57.843750,109.37,92.05
86588,2018-06-29 09:29:57.875000,145.67,92.05
86589,2018-06-29 09:29:57.906250,149.32,92.05
86590,2018-06-29 09:29:57.937500,111.28,92.05
86591,2018-06-29 09:29:57.968750,41.76,92.05
86592,2018-06-29 09:29:58.000000,-29.79,92.05
86593,2018-06-29 09:29:58.031250,-73.75,92.05
86594,2018-06-29 09:29:58.062500,-78.95,92.05
86595,2018-06-29 09:29:58.093750,-56.69,92.05
86596,2018-06-29 09:29:58.125000,-29.68,92.05
86597,2018-06-29 09:29:58.156250,-10.48,92.05
86598,2018-06-29 09:29:58.187500,6.3,92.05
86599,2018-06-29 09:29:58.218750,23.76,92.05
86600,2018-06-29 09:29:58.250000,23.83,92.05
86601,2018-06-29 09:29:58.281250,-14.82,92.05
86602,2018-06-29 09:29:58.312500,-82.82,92.05
86603,2018-06-29 09:29:58.343750,-142.14,92.05
86604,2018-06-29 09:29:58.375000,-164.52,92.05
86605,2018-06-29 09:29:58.406250,-154.06,92.05
86606,2018-06-29 09:29:58.437500,-132.62,92.05
86607,2018-06-29 09:29:58.468750,-119.48,92.05
86608,2018-06-29 09:29:58.500000,-124.11,92.05
86609,2018-06-29 09:29:58.531250,-141.62,92.18
86610,2018-06-29 09:29:58.562500,-155.25,92.18
86611,2018-06-29 09:29:58.593750,-154.94,92.18
86612,2018-06-29 09:29:58.625000,-147.39,92.18
86613,2018-06-29 09:29:58.656250,-137.3,92.18
86614,2018-06-29 09:29:58.687500,-113.83,92.18
86615,2018-06-29 09:29:58.718750,-69.48,92.18
86616,2018-06-29 09:29:58.750000,-18.69,92.18
86617,2018-06-29 09:29:58.781250,16.16,92.18
86618,2018-06-29 09:29:58.812500,29.94,92.18
86619,2018-06-29 09:29:58.843750,36.52,92.18
86620,2018-06-29 09:29:58.875000,49.62,92.18
86621,2018-06-29 09:29:58.906250,70.04,92.18
86622,2018-06-29 09:29:58.937500,89.66,92.18
86623,2018-06-29 09:29:58.968750,100.17,92.18
86624,2018-06-29 09:29:59.000000,98.22,92.18
86625,2018-06-29 09:29:59.031250,87.47,92.18
86626,2018-06-29 09:29:59.062500,76.26,92.18
86627,2018-06-29 09:29:59.093750,70.76,92.18
86628,2018-06-29 09:29:59.125000,70.96,92.18
86629,2018-06-29 09:29:59.156250,73.89,92.18
86630,2018-06-29 09:29:59.187500,78.73,92.18
86631,2018-06-29 09:29:59.218750,87.07,92.18
86632,2018-06-29 09:29:59.250000,98.56,92.18
86633,2018-06-29 09:29:59.281250,105.92,92.18
86634,2018-06-29 09:29:59.312500,99.1,92.18
86635,2018-06-29 09:29:59.343750,78.15,92.18
86636,2018-06-29 09:29:59.375000,52.18,92.18
86637,2018-06-29 09:29:59.406250,20.4,92.18
86638,2018-06-29 09:29:59.437500,-26.12,92.18
86639,2018-06-29 09:29:59.468750,-77.25,92.18
86640,2018-06-29 09:29:59.500000,-107.43,92.18
86641,2018-06-29 09:29:59.531250,-111.86,92.32
86642,2018-06-29 09:29:59.562500,-106.98,92.32
86643,2018-06-29 09:29:59.593750,-96.82,92.32
86644,2018-06-29 09:29:59.625000,-71.44,92.32
86645,2018-06-29 09:29:59.656250,-33.05,92.32
86646,2018-06-29 09:29:59.687500,3.36,92.32
86647,2018-06-29 09:29:59.718750,30.47,92.32
86648,2018-06-29 09:29:59.750000,53.56,92.32
86649,2018-06-29 09:29:59.781250,77.24,92.32
86650,2018-06-29 09:29:59.812500,92.12,92.32
86651,2018-06-29 09:29:59.843750,79.24,92.32
86652,2018-06-29 09:29:59.875000,32.64,92.32
86653,2018-06-29 09:29:59.906250,-26.82,92.32
86654,2018-06-29 09:29:59.937500,-66.25,92.32
86655,2018-06-29 09:29:59.968750,-65.14,92.32
86656,2018-06-29 09:30:00.000000,-24.27,92.32
86657,2018-06-29 09:30:00.031250,37.54,92.32
86658,2018-06-29 09:30:00.062500,90.93,92.32
86659,2018-06-29 09:30:00.093750,111.6,92.32
86660,2018-06-29 09:30:00.125000,98.0,92.32
86661,2018-06-29 09:30:00.156250,70.4,92.32
86662,2018-06-29 09:30:00.187500,48.54,92.32
86663,2018-06-29 09:30:00.218750,36.82,92.32
86664,2018-06-29 09:30:00.250000,34.46,92.32
86665,2018-06-29 09:30:00.281250,45.66,92.32
86666,2018-06-29 09:30:00.312500,71.99,92.32
86667,2018-06-29 09:30:00.343750,106.53,92.32
86668,2018-06-29 09:30:00.375000,138.55,92.32
86669,2018-06-29 09:30:00.406250,152.14,92.32
86670,2018-06-29 09:30:00.437500,129.84,92.32
86671,2018-06-29 09:30:00.468750,71.74,92.32
86672,2018-06-29 09:30:00.500000,-4.67,92.32
86673,2018-06-29 09:30:00.531250,-88.5,92.37
86674,2018-06-29 09:30:00.562500,-172.73,92.37
86675,2018-06-29 09:30:00.593750,-230.31,92.37
86676,2018-06-29 09:30:00.625000,-231.03,92.37
86677,2018-06-29 09:30:00.656250,-184.77,92.37
86678,2018-06-29 09:30:00.687500,-136.85,92.37
86679,2018-06-29 09:30:00.718750,-116.84,92.37
86680,2018-06-29 09:30:00.750000,-113.3,92.37
86681,2018-06-29 09:30:00.781250,-101.53,92.37
86682,2018-06-29 09:30:00.812500,-76.72,92.37
86683,2018-06-29 09:30:00.843750,-49.13,92.37
86684,2018-06-29 09:30:00.875000,-22.69,92.37
86685,2018-06-29 09:30:00.906250,4.96,92.37
86686,2018-06-29 09:30:00.937500,29.98,92.37
86687,2018-06-29 09:30:00.968750,44.68,92.37
86688,2018-06-29 09:30:01.000000,48.83,92.37
86689,2018-06-29 09:30:01.031250,49.88,92.37
86690,2018-06-29 09:30:01.062500,54.35,92.37
86691,2018-06-29 09:30:01.093750,61.17,92.37
86692,2018-06-29 09:30:01.125000,62.97,92.37
86693,2018-06-29 09:30:01.156250,53.54,92.37
86694,2018-06-29 09:30:01.187500,34.17,92.37
86695,2018-06-29 09:30:01.218750,14.95,92.37
86696,2018-06-29 09:30:01.250000,10.11,92.37
86697,2018-06-29 09:30:01.281250,26.06,92.37
86698,2018-06-29 09:30:01.312500,54.42,92.37
86699,2018-06-29 09:30:01.343750,83.08,92.37
86700,2018-06-29 09:30:01.375000,109.2,92.37
86701,2018-06-29 09:30:01.406250,133.5,92.37
86702,2018-06-29 09:30:01.437500,152.19,92.37
86703,2018-06-29 09:30:01.468750,158.53,92.37
86704,2018-06-29 09:30:01.500000,142.51,92.37
86705,2018-06-29 09:30:01.531250,97.04,92.52
86706,2018-06-29 09:30:01.562500,32.04,92.52
86707,2018-06-29 09:30:01.593750,-35.39,92.52
86708,2018-06-29 09:30:01.625000,-101.93,92.52
86709,2018-06-29 09:30:01.656250,-163.77,92.52
86710,2018-06-29 09:30:01.687500,-199.77,92.52
86711,2018-06-29 09:30:01.718750,-200.16,92.52
86712,2018-06-29 09:30:01.750000,-188.04,92.52
86713,2018-06-29 09:30:01.781250,-188.16,92.52
86714,2018-06-29 09:30:01.812500,-198.05,92.52
86715,2018-06-29 09:30:01.843750,-198.4,92.52
86716,2018-06-29 09:30:01.875000,-171.96,92.52
86717,2018-06-29 09:30:01.906250,-114.64,92.52
86718,2018-06-29 09:30:01.937500,-41.17,92.52
86719,2018-06-29 09:30:01.968750,27.01,92.52
86720,2018-06-29 09:30:02.000000,80.93,92.52
86721,2018-06-29 09:30:02.031250,122.51,92.52
86722,2018-06-29 09:30:02.062500,151.08,92.52
86723,2018-06-29 09:30:02.093750,162.13,92.52
86724,2018-06-29 09:30:02.125000,155.59,92.52
86725,2018-06-29 09:30:02.156250,140.92,92.52
86726,2018-06-29 09:30:02.187500,130.95,92.52
86727,2018-06-29 09:30:02.218750,127.99,92.52
86728,2018-06-29 09:30:02.250000,120.85,92.52
86729,2018-06-29 09:30:02.281250,98.01,92.52
86730,2018-06-29 09:30:02.312500,58.29,92.52
86731,2018-06-29 09:30:02.343750,9.81,92.52
86732,2018-06-29 09:30:02.375000,-34.01,92.52
86733,2018-06-29 09:30:02.406250,-61.73,92.52
86734,2018-06-29 09:30:02.437500,-71.61,92.52
86735,2018-06-29 09:30:02.468750,-66.22,92.52
86736,2018-06-29 09:30:02.500000,-42.13,92.52
86737,2018-06-29 09:30:02.531250,4.79,92.63
86738,2018-06-29 09:30:02.562500,65.82,92.63
86739,2018-06-29 09:30:02.593750,119.8,92.63
86740,2018-06-29 09:30:02.625000,147.93,92.63
86741,2018-06-29 09:30:02.656250,146.12,92.63
86742,2018-06-29 09:30:02.687500,122.45,92.63
86743,2018-06-29 09:30:02.718750,84.58,92.63
86744,2018-06-29 09:30:02.750000,33.17,92.63
86745,2018-06-29 09:30:02.781250,-32.45,92.63
86746,2018-06-29 09:30:02.812500,-105.9,92.63
86747,2018-06-29 09:30:02.843750,-174.35,92.63
86748,2018-06-29 09:30:02.875000,-224.42,92.63
86749,2018-06-29 09:30:02.906250,-245.82,92.63
86750,2018-06-29 09:30:02.937500,-234.07,92.63
86751,2018-06-29 09:30:02.968750,-195.92,92.63
86752,2018-06-29 09:30:03.000000,-148.75,92.63
86753,2018-06-29 09:30:03.031250,-108.2,92.63
86754,2018-06-29 09:30:03.062500,-76.94,92.63
86755,2018-06-29 09:30:03.093750,-47.99,92.63
86756,2018-06-29 09:30:03.125000,-15.24,92.63
86757,2018-06-29 09:30:03.156250,19.07,92.63
86758,2018-06-29 09:30:03.187500,46.41,92.63
86759,2018-06-29 09:30:03.218750,63.06,92.63
86760,2018-06-29 09:30:03.250000,76.94,92.63
86761,2018-06-29 09:30:03.281250,97.75,92.63
86762,2018-06-29 09:30:03.312500,122.56,92.63
86763,2018-06-29 09:30:03.343750,137.48,92.63
86764,2018-06-29 09:30:03.375000,132.15,92.63
86765,2018-06-29 09:30:03.406250,108.1,92.63
86766,2018-06-29 09:30:03.437500,76.5,92.63
86767,2018-06-29 09:30:03.468750,51.64,92.63
86768,2018-06-29 09:30:03.500000,43.33,92.63
86769,2018-06-29 09:30:03.531250,51.68,92.78
86770,2018-06-29 09:30:03.562500,67.91,92.78
86771,2018-06-29 09:30:03.593750,80.44,92.78
86772,2018-06-29 09:30:03.625000,85.67,92.78
86773,2018-06-29 09:30:03.656250,91.35,92.78
86774,2018-06-29 09:30:03.687500,98.4,92.78
86775,2018-06-29 09:30:03.718750,88.41,92.78
86776,2018-06-29 09:30:03.750000,49.52,92.78
86777,2018-06-29 09:30:03.781250,-2.74,92.78
86778,2018-06-29 09:30:03.812500,-47.41,92.78
86779,2018-06-29 09:30:03.843750,-75.04,92.78
86780,2018-06-29 09:30:03.875000,-79.69,92.78
86781,2018-06-29 09:30:03.906250,-68.2,92.78
86782,2018-06-29 09:30:03.937500,-68.51,92.78
86783,2018-06-29 09:30:03.968750,-98.35,92.78
86784,2018-06-29 09:30:04.000000,-140.02,92.78
86785,2018-06-29 09:30:04.031250,-161.91,92.78
86786,2018-06-29 09:30:04.062500,-147.59,92.78
86787,2018-06-29 09:30:04.093750,-102.84,92.78
86788,2018-06-29 09:30:04.125000,-48.89,92.78
86789,2018-06-29 09:30:04.156250,-4.16,92.78
86790,2018-06-29 09:30:04.187500,33.77,92.78
86791,2018-06-29 09:30:04.218750,79.0,92.78
86792,2018-06-29 09:30:04.250000,126.61,92.78
86793,2018-06-29 09:30:04.281250,148.6,92.78
86794,2018-06-29 09:30:04.312500,125.01,92.78
86795,2018-06-29 09:30:04.343750,66.32,92.78
86796,2018-06-29 09:30:04.375000,7.68,92.78
86797,2018-06-29 09:30:04.406250,-15.17,92.78
86798,2018-06-29 09:30:04.437500,-1.32,92.78
86799,2018-06-29 09:30:04.468750,9.75,92.78
86800,2018-06-29 09:30:04.500000,-10.08,92.78
86801,2018-06-29 09:30:04.531250,-43.11,92.93
86802,2018-06-29 09:30:04.562500,-61.52,92.93
86803,2018-06-29 09:30:04.593750,-59.07,92.93
86804,2018-06-29 09:30:04.625000,-37.81,92.93
86805,2018-06-29 09:30:04.656250,-3.99,92.93
86806,2018-06-29 09:30:04.687500,17.04,92.93
86807,2018-06-29 09:30:04.718750,-4.03,92.93
86808,2018-06-29 09:30:04.750000,-61.63,92.93
86809,2018-06-29 09:30:04.781250,-110.73,92.93
86810,2018-06-29 09:30:04.812500,-115.15,92.93
86811,2018-06-29 09:30:04.843750,-89.66,92.93
86812,2018-06-29 09:30:04.875000,-71.59,92.93
86813,2018-06-29 09:30:04.906250,-67.52,92.93
86814,2018-06-29 09:30:04.937500,-64.4,92.93
86815,2018-06-29 09:30:04.968750,-71.46,92.93
86816,2018-06-29 09:30:05.000000,-102.58,92.93
86817,2018-06-29 09:30:05.031250,-135.77,92.93
86818,2018-06-29 09:30:05.062500,-137.36,92.93
86819,2018-06-29 09:30:05.093750,-108.63,92.93
86820,2018-06-29 09:30:05.125000,-71.37,92.93
86821,2018-06-29 09:30:05.156250,-32.09,92.93
86822,2018-06-29 09:30:05.187500,10.19,92.93
86823,2018-06-29 09:30:05.218750,46.32,92.93
86824,2018-06-29 09:30:05.250000,69.77,92.93
86825,2018-06-29 09:30:05.281250,85.42,92.93
86826,2018-06-29 09:30:05.312500,95.7,92.93
86827,2018-06-29 09:30:05.343750,95.8,92.93
86828,2018-06-29 09:30:05.375000,87.13,92.93
86829,2018-06-29 09:30:05.406250,80.85,92.93
86830,2018-06-29 09:30:05.437500,85.81,92.93
86831,2018-06-29 09:30:05.468750,100.34,92.93
86832,2018-06-29 09:30:05.500000,115.07,92.93
86833,2018-06-29 09:30:05.531250,119.47,93.12
86834,2018-06-29 09:30:05.562500,106.9,93.12
86835,2018-06-29 09:30:05.593750,79.63,93.12
86836,2018-06-29 09:30:05.625000,50.75,93.12
86837,2018-06-29 09:30:05.656250,35.01,93.12
86838,2018-06-29 09:30:05.687500,35.28,93.12
86839,2018-06-29 09:30:05.718750,43.59,93.12
86840,2018-06-29 09:30:05.750000,53.5,93.12
86841,2018-06-29 09:30:05.781250,62.44,93.12
86842,2018-06-29 09:30:05.812500,68.73,93.12
86843,2018-06-29 09:30:05.843750,75.49,93.12
86844,2018-06-29 09:30:05.875000,86.49,93.12
86845,2018-06-29 09:30:05.906250,94.2,93.12
86846,2018-06-29 09:30:05.937500,84.17,93.12
86847,2018-06-29 09:30:05.968750,50.51,93.12
86848,2018-06-29 09:30:06.000000,-2.76,93.12
86849,2018-06-29 09:30:06.031250,-67.71,93.12
86850,2018-06-29 09:30:06.062500,-132.46,93.12
86851,2018-06-29 09:30:06.093750,-184.11,93.12
86852,2018-06-29 09:30:06.125000,-215.73,93.12
86853,2018-06-29 09:30:06.156250,-226.88,93.12
86854,2018-06-29 09:30:06.187500,-221.71,93.12
86855,2018-06-29 09:30:06.218750,-209.79,93.12
86856,2018-06-29 09:30:06.250000,-199.13,93.12
86857,2018-06-29 09:30:06.281250,-184.17,93.12
86858,2018-06-29 09:30:06.312500,-148.67,93.12
86859,2018-06-29 09:30:06.343750,-85.61,93.12
86860,2018-06-29 09:30:06.375000,-10.86,93.12
86861,2018-06-29 09:30:06.406250,46.89,93.12
86862,2018-06-29 09:30:06.437500,71.22,93.12
86863,2018-06-29 09:30:06.468750,71.61,93.12
86864,2018-06-29 09:30:06.500000,70.44,93.12
86865,2018-06-29 09:30:06.531250,80.77,93.15
86866,2018-06-29 09:30:06.562500,100.91,93.15
86867,2018-06-29 09:30:06.593750,122.21,93.15
86868,2018-06-29 09:30:06.625000,133.66,93.15
86869,2018-06-29 09:30:06.656250,125.72,93.15
86870,2018-06-29 09:30:06.687500,99.06,93.15
86871,2018-06-29 09:30:06.718750,66.78,93.15
86872,2018-06-29 09:30:06.750000,43.09,93.15
86873,2018-06-29 09:30:06.781250,31.95,93.15
86874,2018-06-29 09:30:06.812500,29.03,93.15
86875,2018-06-29 09:30:06.843750,30.39,93.15
86876,2018-06-29 09:30:06.875000,37.16,93.15
86877,2018-06-29 09:30:06.906250,56.06,93.15
86878,2018-06-29 09:30:06.937500,91.31,93.15
86879,2018-06-29 09:30:06.968750,128.68,93.15
86880,2018-06-29 09:30:07.000000,139.61,93.15
86881,2018-06-29 09:30:07.031250,112.23,93.15
86882,2018-06-29 09:30:07.062500,61.95,93.15
86883,2018-06-29 09:30:07.093750,4.35,93.15
86884,2018-06-29 09:30:07.125000,-58.34,93.15
86885,2018-06-29 09:30:07.156250,-119.75,93.15
86886,2018-06-29 09:30:07.187500,-164.75,93.15
86887,2018-06-29 09:30:07.218750,-186.36,93.15
86888,2018-06-29 09:30:07.250000,-188.82,93.15
86889,2018-06-29 09:30:07.281250,-174.79,93.15
86890,2018-06-29 09:30:07.312500,-144.62,93.15
86891,2018-06-29 09:30:07.343750,-106.84,93.15
86892,2018-06-29 09:30:07.375000,-75.77,93.15
86893,2018-06-29 09:30:07.406250,-55.15,93.15
86894,2018-06-29 09:30:07.437500,-34.2,93.15
86895,2018-06-29 09:30:07.468750,-7.41,93.15
86896,2018-06-29 09:30:07.500000,11.03,93.15
86897,2018-06-29 09:30:07.531250,4.04,93.2
86898,2018-06-29 09:30:07.562500,-20.91,93.2
86899,2018-06-29 09:30:07.593750,-32.35,93.2
86900,2018-06-29 09:30:07.625000,-6.21,93.2
86901,2018-06-29 09:30:07.656250,49.52,93.2
86902,2018-06-29 09:30:07.687500,105.33,93.2
86903,2018-06-29 09:30:07.718750,137.46,93.2
86904,2018-06-29 09:30:07.750000,138.91,93.2
86905,2018-06-29 09:30:07.781250,115.33,93.2
86906,2018-06-29 09:30:07.812500,81.88,93.2
86907,2018-06-29 09:30:07.843750,56.2,93.2
86908,2018-06-29 09:30:07.875000,44.87,93.2
86909,2018-06-29 09:30:07.906250,42.73,93.2
86910,2018-06-29 09:30:07.937500,47.48,93.2
86911,2018-06-29 09:30:07.968750,64.32,93.2
86912,2018-06-29 09:30:08.000000,94.48,93.2
86913,2018-06-29 09:30:08.031250,127.55,93.2
86914,2018-06-29 09:30:08.062500,145.44,93.2
86915,2018-06-29 09:30:08.093750,133.49,93.2
86916,2018-06-29 09:30:08.125000,91.94,93.2
86917,2018-06-29 09:30:08.156250,33.9,93.2
86918,2018-06-29 09:30:08.187500,-32.73,93.2
86919,2018-06-29 09:30:08.218750,-109.98,93.2
86920,2018-06-29 09:30:08.250000,-186.46,93.2
86921,2018-06-29 09:30:08.281250,-229.94,93.2
86922,2018-06-29 09:30:08.312500,-222.18,93.2
86923,2018-06-29 09:30:08.343750,-181.93,93.2
86924,2018-06-29 09:30:08.375000,-136.81,93.2
86925,2018-06-29 09:30:08.406250,-93.95,93.2
86926,2018-06-29 09:30:08.437500,-52.6,93.2
86927,2018-06-29 09:30:08.468750,-20.08,93.2
86928,2018-06-29 09:30:08.500000,1.68,93.2
86929,2018-06-29 09:30:08.531250,25.77,93.32
86930,2018-06-29 09:30:08.562500,59.11,93.32
86931,2018-06-29 09:30:08.593750,83.27,93.32
86932,2018-06-29 09:30:08.625000,72.83,93.32
86933,2018-06-29 09:30:08.656250,28.5,93.32
86934,2018-06-29 09:30:08.687500,-18.08,93.32
86935,2018-06-29 09:30:08.718750,-33.75,93.32
86936,2018-06-29 09:30:08.750000,-13.62,93.32
86937,2018-06-29 09:30:08.781250,22.2,93.32
86938,2018-06-29 09:30:08.812500,54.22,93.32
86939,2018-06-29 09:30:08.843750,71.74,93.32
86940,2018-06-29 09:30:08.875000,66.1,93.32
86941,2018-06-29 09:30:08.906250,41.61,93.32
86942,2018-06-29 09:30:08.937500,22.63,93.32
86943,2018-06-29 09:30:08.968750,27.1,93.32
86944,2018-06-29 09:30:09.000000,48.21,93.32
86945,2018-06-29 09:30:09.031250,73.72,93.32
86946,2018-06-29 09:30:09.062500,101.96,93.32
86947,2018-06-29 09:30:09.093750,134.15,93.32
86948,2018-06-29 09:30:09.125000,165.54,93.32
86949,2018-06-29 09:30:09.156250,180.41,93.32
86950,2018-06-29 09:30:09.187500,157.39,93.32
86951,2018-06-29 09:30:09.218750,93.09,93.32
86952,2018-06-29 09:30:09.250000,9.27,93.32
86953,2018-06-29 09:30:09.281250,-72.9,93.32
86954,2018-06-29 09:30:09.312500,-145.34,93.32
86955,2018-06-29 09:30:09.343750,-197.31,93.32
86956,2018-06-29 09:30:09.375000,-216.96,93.32
86957,2018-06-29 09:30:09.406250,-210.93,93.32
86958,2018-06-29 09:30:09.437500,-197.52,93.32
86959,2018-06-29 09:30:09.468750,-183.58,93.32
86960,2018-06-29 09:30:09.500000,-166.57,93.32
86961,2018-06-29 09:30:09.531250,-148.67,93.45
86962,2018-06-29 09:30:09.562500,-129.4,93.45
86963,2018-06-29 09:30:09.593750,-95.64,93.45
86964,2018-06-29 09:30:09.625000,-36.49,93.45
86965,2018-06-29 09:30:09.656250,37.54,93.45
86966,2018-06-29 09:30:09.687500,95.34,93.45
86967,2018-06-29 09:30:09.718750,105.71,93.45
86968,2018-06-29 09:30:09.750000,65.7,93.45
86969,2018-06-29 09:30:09.781250,10.19,93.45
86970,2018-06-29 09:30:09.812500,-16.9,93.45
86971,2018-06-29 09:30:09.843750,-1.25,93.45
86972,2018-06-29 09:30:09.875000,38.09,93.45
86973,2018-06-29 09:30:09.906250,75.54,93.45
86974,2018-06-29 09:30:09.937500,97.08,93.45
86975,2018-06-29 09:30:09.968750,97.44,93.45
86976,2018-06-29 09:30:10.000000,77.89,93.45
86977,2018-06-29 09:30:10.031250,50.96,93.45
86978,2018-06-29 09:30:10.062500,31.94,93.45
86979,2018-06-29 09:30:10.093750,22.23,93.45
86980,2018-06-29 09:30:10.125000,13.36,93.45
86981,2018-06-29 09:30:10.156250,4.41,93.45
86982,2018-06-29 09:30:10.187500,7.6,93.45
86983,2018-06-29 09:30:10.218750,39.08,93.45
86984,2018-06-29 09:30:10.250000,96.49,93.45
86985,2018-06-29 09:30:10.281250,142.03,93.45
86986,2018-06-29 09:30:10.312500,131.71,93.45
86987,2018-06-29 09:30:10.343750,68.36,93.45
86988,2018-06-29 09:30:10.375000,-1.72,93.45
86989,2018-06-29 09:30:10.406250,-48.13,93.45
86990,2018-06-29 09:30:10.437500,-80.43,93.45
86991,2018-06-29 09:30:10.468750,-113.61,93.45
86992,2018-06-29 09:30:10.500000,-145.52,93.45
86993,2018-06-29 09:30:10.531250,-170.18,93.5
86994,2018-06-29 09:30:10.562500,-184.55,93.5
86995,2018-06-29 09:30:10.593750,-181.63,93.5
86996,2018-06-29 09:30:10.625000,-158.71,93.5
86997,2018-06-29 09:30:10.656250,-128.92,93.5
86998,2018-06-29 09:30:10.687500,-107.49,93.5
86999,2018-06-29 09:30:10.718750,-93.0,93.5
87000,2018-06-29 09:30:10.750000,-74.26,93.5
87001,2018-06-29 09:30:10.781250,-50.08,93.5
87002,2018-06-29 09:30:10.812500,-32.18,93.5
87003,2018-06-29 09:30:10.843750,-25.82,93.5
87004,2018-06-29 09:30:10.875000,-15.6,93.5
87005,2018-06-29 09:30:10.906250,17.1,93.5
87006,2018-06-29 09:30:10.937500,67.52,93.5
87007,2018-06-29 09:30:10.968750,113.16,93.5
87008,2018-06-29 09:30:11.000000,140.69,93.5
87009,2018-06-29 09:30:11.031250,151.32,93.5
87010,2018-06-29 09:30:11.062500,145.91,93.5
87011,2018-06-29 09:30:11.093750,122.06,93.5
87012,2018-06-29 09:30:11.125000,84.62,93.5
87013,2018-06-29 09:30:11.156250,48.11,93.5
87014,2018-06-29 09:30:11.187500,26.96,93.5
87015,2018-06-29 09:30:11.218750,26.95,93.5
87016,2018-06-29 09:30:11.250000,43.63,93.5
87017,2018-06-29 09:30:11.281250,66.17,93.5
87018,2018-06-29 09:30:11.312500,86.68,93.5
87019,2018-06-29 09:30:11.343750,106.06,93.5
87020,2018-06-29 09:30:11.375000,124.99,93.5
87021,2018-06-29 09:30:11.406250,132.99,93.5
87022,2018-06-29 09:30:11.437500,115.1,93.5
87023,2018-06-29 09:30:11.468750,65.91,93.5
87024,2018-06-29 09:30:11.500000,-5.76,93.5
87025,2018-06-29 09:30:11.531250,-80.77,93.6
87026,2018-06-29 09:30:11.562500,-138.23,93.6
87027,2018-06-29 09:30:11.593750,-165.73,93.6
87028,2018-06-29 09:30:11.625000,-164.92,93.6
87029,2018-06-29 09:30:11.656250,-148.48,93.6
87030,2018-06-29 09:30:11.687500,-129.98,93.6
87031,2018-06-29 09:30:11.718750,-114.36,93.6
87032,2018-06-29 09:30:11.750000,-98.46,93.6
87033,2018-06-29 09:30:11.781250,-79.1,93.6
87034,2018-06-29 09:30:11.812500,-56.05,93.6
87035,2018-06-29 09:30:11.843750,-29.67,93.6
87036,2018-06-29 09:30:11.875000,-0.98,93.6
87037,2018-06-29 09:30:11.906250,24.91,93.6
87038,2018-06-29 09:30:11.937500,38.59,93.6
87039,2018-06-29 09:30:11.968750,33.57,93.6
87040,2018-06-29 09:30:12.000000,13.84,93.6
87041,2018-06-29 09:30:12.031250,-7.59,93.6
87042,2018-06-29 09:30:12.062500,-17.96,93.6
87043,2018-06-29 09:30:12.093750,-11.13,93.6
87044,2018-06-29 09:30:12.125000,12.34,93.6
87045,2018-06-29 09:30:12.156250,46.79,93.6
87046,2018-06-29 09:30:12.187500,80.75,93.6
87047,2018-06-29 09:30:12.218750,101.04,93.6
87048,2018-06-29 09:30:12.250000,103.48,93.6
87049,2018-06-29 09:30:12.281250,95.96,93.6
87050,2018-06-29 09:30:12.312500,87.66,93.6
87051,2018-06-29 09:30:12.343750,81.78,93.6
87052,2018-06-29 09:30:12.375000,80.42,93.6
87053,2018-06-29 09:30:12.406250,86.67,93.6
87054,2018-06-29 09:30:12.437500,101.87,93.6
87055,2018-06-29 09:30:12.468750,124.39,93.6
87056,2018-06-29 09:30:12.500000,142.82,93.6
87057,2018-06-29 09:30:12.531250,133.85,93.83
87058,2018-06-29 09:30:12.562500,84.37,93.83
87059,2018-06-29 09:30:12.593750,7.85,93.83
87060,2018-06-29 09:30:12.625000,-76.21,93.83
87061,2018-06-29 09:30:12.656250,-157.78,93.83
87062,2018-06-29 09:30:12.687500,-221.22,93.83
87063,2018-06-29 09:30:12.718750,-248.57,93.83
87064,2018-06-29 09:30:12.750000,-242.98,93.83
87065,2018-06-29 09:30:12.781250,-219.5,93.83
87066,2018-06-29 09:30:12.812500,-181.83,93.83
87067,2018-06-29 09:30:12.843750,-130.67,93.83
87068,2018-06-29 09:30:12.875000,-77.25,93.83
87069,2018-06-29 09:30:12.906250,-31.76,93.83
87070,2018-06-29 09:30:12.937500,6.39,93.83
87071,2018-06-29 09:30:12.968750,41.15,93.83
87072,2018-06-29 09:30:13.000000,72.5,93.83
87073,2018-06-29 09:30:13.031250,96.48,93.83
87074,2018-06-29 09:30:13.062500,109.41,93.83
87075,2018-06-29 09:30:13.093750,110.82,93.83
87076,2018-06-29 09:30:13.125000,101.68,93.83
87077,2018-06-29 09:30:13.156250,82.4,93.83
87078,2018-06-29 09:30:13.187500,56.96,93.83
87079,2018-06-29 09:30:13.218750,36.53,93.83
87080,2018-06-29 09:30:13.250000,31.26,93.83
87081,2018-06-29 09:30:13.281250,36.27,93.83
87082,2018-06-29 09:30:13.312500,34.14,93.83
87083,2018-06-29 09:30:13.343750,14.57,93.83
87084,2018-06-29 09:30:13.375000,-14.05,93.83
87085,2018-06-29 09:30:13.406250,-31.8,93.83
87086,2018-06-29 09:30:13.437500,-20.83,93.83
87087,2018-06-29 09:30:13.468750,22.88,93.83
87088,2018-06-29 09:30:13.500000,84.53,93.83
87089,2018-06-29 09:30:13.531250,139.97,94.08
87090,2018-06-29 09:30:13.562500,170.35,94.08
87091,2018-06-29 09:30:13.593750,165.95,94.08
87092,2018-06-29 09:30:13.625000,125.66,94.08
87093,2018-06-29 09:30:13.656250,60.33,94.08
87094,2018-06-29 09:30:13.687500,-10.89,94.08
87095,2018-06-29 09:30:13.718750,-73.62,94.08
87096,2018-06-29 09:30:13.750000,-123.06,94.08
87097,2018-06-29 09:30:13.781250,-157.66,94.08
87098,2018-06-29 09:30:13.812500,-175.59,94.08
87099,2018-06-29 09:30:13.843750,-177.92,94.08
87100,2018-06-29 09:30:13.875000,-170.51,94.08
87101,2018-06-29 09:30:13.906250,-160.34,94.08
87102,2018-06-29 09:30:13.937500,-150.11,94.08
87103,2018-06-29 09:30:13.968750,-139.11,94.08
87104,2018-06-29 09:30:14.000000,-128.71,94.08
87105,2018-06-29 09:30:14.031250,-118.57,94.08
87106,2018-06-29 09:30:14.062500,-97.64,94.08
87107,2018-06-29 09:30:14.093750,-52.09,94.08
87108,2018-06-29 09:30:14.125000,12.76,94.08
87109,2018-06-29 09:30:14.156250,70.96,94.08
87110,2018-06-29 09:30:14.187500,100.54,94.08
87111,2018-06-29 09:30:14.218750,99.87,94.08
87112,2018-06-29 09:30:14.250000,81.29,94.08
87113,2018-06-29 09:30:14.281250,60.68,94.08
87114,2018-06-29 09:30:14.312500,50.88,94.08
87115,2018-06-29 09:30:14.343750,54.29,94.08
87116,2018-06-29 09:30:14.375000,61.81,94.08
87117,2018-06-29 09:30:14.406250,63.18,94.08
87118,2018-06-29 09:30:14.437500,56.72,94.08
87119,2018-06-29 09:30:14.468750,48.13,94.08
87120,2018-06-29 09:30:14.500000,42.31,94.08
87121,2018-06-29 09:30:14.531250,40.66,94.32
87122,2018-06-29 09:30:14.562500,45.07,94.32
87123,2018-06-29 09:30:14.593750,57.89,94.32
87124,2018-06-29 09:30:14.625000,77.64,94.32
87125,2018-06-29 09:30:14.656250,98.83,94.32
87126,2018-06-29 09:30:14.687500,111.75,94.32
87127,2018-06-29 09:30:14.718750,106.36,94.32
87128,2018-06-29 09:30:14.750000,84.85,94.32
87129,2018-06-29 09:30:14.781250,60.06,94.32
87130,2018-06-29 09:30:14.812500,30.39,94.32
87131,2018-06-29 09:30:14.843750,-21.79,94.32
87132,2018-06-29 09:30:14.875000,-93.87,94.32
87133,2018-06-29 09:30:14.906250,-151.69,94.32
87134,2018-06-29 09:30:14.937500,-168.56,94.32
87135,2018-06-29 09:30:14.968750,-153.42,94.32
87136,2018-06-29 09:30:15.000000,-128.19,94.32
87137,2018-06-29 09:30:15.031250,-100.24,94.32
87138,2018-06-29 09:30:15.062500,-68.21,94.32
87139,2018-06-29 09:30:15.093750,-38.31,94.32
87140,2018-06-29 09:30:15.125000,-16.2,94.32
87141,2018-06-29 09:30:15.156250,7.89,94.32
87142,2018-06-29 09:30:15.187500,44.86,94.32
87143,2018-06-29 09:30:15.218750,84.18,94.32
87144,2018-06-29 09:30:15.250000,102.0,94.32
87145,2018-06-29 09:30:15.281250,92.61,94.32
87146,2018-06-29 09:30:15.312500,71.04,94.32
87147,2018-06-29 09:30:15.343750,55.56,94.32
87148,2018-06-29 09:30:15.375000,52.68,94.32
87149,2018-06-29 09:30:15.406250,48.42,94.32
87150,2018-06-29 09:30:15.437500,17.92,94.32
87151,2018-06-29 09:30:15.468750,-41.81,94.32
87152,2018-06-29 09:30:15.500000,-81.62,94.32
87153,2018-06-29 09:30:15.531250,-66.76,94.55
87154,2018-06-29 09:30:15.562500,-24.8,94.55
87155,2018-06-29 09:30:15.593750,18.21,94.55
87156,2018-06-29 09:30:15.625000,59.19,94.55
87157,2018-06-29 09:30:15.656250,90.8,94.55
87158,2018-06-29 09:30:15.687500,105.63,94.55
87159,2018-06-29 09:30:15.718750,113.53,94.55
87160,2018-06-29 09:30:15.750000,126.84,94.55
87161,2018-06-29 09:30:15.781250,141.75,94.55
87162,2018-06-29 09:30:15.812500,140.52,94.55
87163,2018-06-29 09:30:15.843750,122.04,94.55
87164,2018-06-29 09:30:15.875000,102.42,94.55
87165,2018-06-29 09:30:15.906250,93.27,94.55
87166,2018-06-29 09:30:15.937500,86.6,94.55
87167,2018-06-29 09:30:15.968750,71.76,94.55
87168,2018-06-29 09:30:16.000000,52.6,94.55
87169,2018-06-29 09:30:16.031250,31.46,94.55
87170,2018-06-29 09:30:16.062500,5.43,94.55
87171,2018-06-29 09:30:16.093750,-37.46,94.55
87172,2018-06-29 09:30:16.125000,-96.02,94.55
87173,2018-06-29 09:30:16.156250,-155.74,94.55
87174,2018-06-29 09:30:16.187500,-207.69,94.55
87175,2018-06-29 09:30:16.218750,-262.43,94.55
87176,2018-06-29 09:30:16.250000,-332.51,94.55
87177,2018-06-29 09:30:16.281250,-417.65,94.55
87178,2018-06-29 09:30:16.312500,-496.09,94.55
87179,2018-06-29 09:30:16.343750,-517.96,94.55
87180,2018-06-29 09:30:16.375000,-456.2,94.55
87181,2018-06-29 09:30:16.406250,-333.46,94.55
87182,2018-06-29 09:30:16.437500,-204.38,94.55
87183,2018-06-29 09:30:16.468750,-89.86,94.55
87184,2018-06-29 09:30:16.500000,39.21,94.55
87185,2018-06-29 09:30:16.531250,133.41,94.73
87186,2018-06-29 09:30:16.562500,171.8,94.73
87187,2018-06-29 09:30:16.593750,179.73,94.73
87188,2018-06-29 09:30:16.625000,162.92,94.73
87189,2018-06-29 09:30:16.656250,101.75,94.73
87190,2018-06-29 09:30:16.687500,13.4,94.73
87191,2018-06-29 09:30:16.718750,-57.58,94.73
87192,2018-06-29 09:30:16.750000,-79.22,94.73
87193,2018-06-29 09:30:16.781250,-55.92,94.73
87194,2018-06-29 09:30:16.812500,-10.99,94.73
87195,2018-06-29 09:30:16.843750,35.08,94.73
87196,2018-06-29 09:30:16.875000,69.02,94.73
87197,2018-06-29 09:30:16.906250,87.07,94.73
87198,2018-06-29 09:30:16.937500,87.73,94.73
87199,2018-06-29 09:30:16.968750,76.47,94.73
87200,2018-06-29 09:30:17.000000,58.94,94.73
87201,2018-06-29 09:30:17.031250,37.55,94.73
87202,2018-06-29 09:30:17.062500,12.77,94.73
87203,2018-06-29 09:30:17.093750,-13.08,94.73
87204,2018-06-29 09:30:17.125000,-36.17,94.73
87205,2018-06-29 09:30:17.156250,-55.59,94.73
87206,2018-06-29 09:30:17.187500,-72.56,94.73
87207,2018-06-29 09:30:17.218750,-87.71,94.73
87208,2018-06-29 09:30:17.250000,-97.79,94.73
87209,2018-06-29 09:30:17.281250,-99.33,94.73
87210,2018-06-29 09:30:17.312500,-93.93,94.73
87211,2018-06-29 09:30:17.343750,-88.07,94.73
87212,2018-06-29 09:30:17.375000,-84.44,94.73
87213,2018-06-29 09:30:17.406250,-73.43,94.73
87214,2018-06-29 09:30:17.437500,-40.21,94.73
87215,2018-06-29 09:30:17.468750,18.77,94.73
87216,2018-06-29 09:30:17.500000,91.97,94.73
87217,2018-06-29 09:30:17.531250,161.17,94.93
87218,2018-06-29 09:30:17.562500,209.47,94.93
87219,2018-06-29 09:30:17.593750,228.67,94.93
87220,2018-06-29 09:30:17.625000,224.21,94.93
87221,2018-06-29 09:30:17.656250,207.32,94.93
87222,2018-06-29 09:30:17.687500,184.12,94.93
87223,2018-06-29 09:30:17.718750,157.78,94.93
87224,2018-06-29 09:30:17.750000,133.5,94.93
87225,2018-06-29 09:30:17.781250,114.09,94.93
87226,2018-06-29 09:30:17.812500,96.64,94.93
87227,2018-06-29 09:30:17.843750,79.28,94.93
87228,2018-06-29 09:30:17.875000,66.46,94.93
87229,2018-06-29 09:30:17.906250,63.82,94.93
87230,2018-06-29 09:30:17.937500,72.32,94.93
87231,2018-06-29 09:30:17.968750,86.28,94.93
87232,2018-06-29 09:30:18.000000,90.62,94.93
87233,2018-06-29 09:30:18.031250,69.49,94.93
87234,2018-06-29 09:30:18.062500,27.45,94.93
87235,2018-06-29 09:30:18.093750,-13.08,94.93
87236,2018-06-29 09:30:18.125000,-39.99,94.93
87237,2018-06-29 09:30:18.156250,-56.89,94.93
87238,2018-06-29 09:30:18.187500,-66.46,94.93
87239,2018-06-29 09:30:18.218750,-71.33,94.93
87240,2018-06-29 09:30:18.250000,-80.04,94.93
87241,2018-06-29 09:30:18.281250,-93.29,94.93
87242,2018-06-29 09:30:18.312500,-96.87,94.93
87243,2018-06-29 09:30:18.343750,-79.1,94.93
87244,2018-06-29 09:30:18.375000,-45.02,94.93
87245,2018-06-29 09:30:18.406250,-8.48,94.93
87246,2018-06-29 09:30:18.437500,23.73,94.93
87247,2018-06-29 09:30:18.468750,52.97,94.93
87248,2018-06-29 09:30:18.500000,73.58,94.93
87249,2018-06-29 09:30:18.531250,70.33,95.15
87250,2018-06-29 09:30:18.562500,40.82,95.15
87251,2018-06-29 09:30:18.593750,5.05,95.15
87252,2018-06-29 09:30:18.625000,-15.94,95.15
87253,2018-06-29 09:30:18.656250,-16.54,95.15
87254,2018-06-29 09:30:18.687500,1.63,95.15
87255,2018-06-29 09:30:18.718750,36.63,95.15
87256,2018-06-29 09:30:18.750000,78.73,95.15
87257,2018-06-29 09:30:18.781250,109.07,95.15
87258,2018-06-29 09:30:18.812500,113.04,95.15
87259,2018-06-29 09:30:18.843750,93.33,95.15
87260,2018-06-29 09:30:18.875000,66.6,95.15
87261,2018-06-29 09:30:18.906250,47.5,95.15
87262,2018-06-29 09:30:18.937500,39.79,95.15
87263,2018-06-29 09:30:18.968750,41.95,95.15
87264,2018-06-29 09:30:19.000000,53.34,95.15
87265,2018-06-29 09:30:19.031250,73.72,95.15
87266,2018-06-29 09:30:19.062500,99.69,95.15
87267,2018-06-29 09:30:19.093750,118.82,95.15
87268,2018-06-29 09:30:19.125000,111.8,95.15
87269,2018-06-29 09:30:19.156250,70.31,95.15
87270,2018-06-29 09:30:19.187500,7.17,95.15
87271,2018-06-29 09:30:19.218750,-61.35,95.15
87272,2018-06-29 09:30:19.250000,-133.19,95.15
87273,2018-06-29 09:30:19.281250,-208.41,95.15
87274,2018-06-29 09:30:19.312500,-271.65,95.15
87275,2018-06-29 09:30:19.343750,-299.7,95.15
87276,2018-06-29 09:30:19.375000,-281.5,95.15
87277,2018-06-29 09:30:19.406250,-224.47,95.15
87278,2018-06-29 09:30:19.437500,-145.93,95.15
87279,2018-06-29 09:30:19.468750,-64.71,95.15
87280,2018-06-29 09:30:19.500000,2.72,95.15
87281,2018-06-29 09:30:19.531250,48.49,95.42
87282,2018-06-29 09:30:19.562500,79.46,95.42
87283,2018-06-29 09:30:19.593750,109.2,95.42
87284,2018-06-29 09:30:19.625000,138.13,95.42
87285,2018-06-29 09:30:19.656250,150.8,95.42
87286,2018-06-29 09:30:19.687500,139.02,95.42
87287,2018-06-29 09:30:19.718750,116.54,95.42
87288,2018-06-29 09:30:19.750000,102.53,95.42
87289,2018-06-29 09:30:19.781250,99.5,95.42
87290,2018-06-29 09:30:19.812500,95.61,95.42
87291,2018-06-29 09:30:19.843750,81.55,95.42
87292,2018-06-29 09:30:19.875000,56.41,95.42
87293,2018-06-29 09:30:19.906250,20.82,95.42
87294,2018-06-29 09:30:19.937500,-23.64,95.42
87295,2018-06-29 09:30:19.968750,-64.89,95.42
87296,2018-06-29 09:30:20.000000,-81.94,95.42
87297,2018-06-29 09:30:20.031250,-64.08,95.42
87298,2018-06-29 09:30:20.062500,-20.88,95.42
87299,2018-06-29 09:30:20.093750,31.08,95.42
87300,2018-06-29 09:30:20.125000,82.66,95.42
87301,2018-06-29 09:30:20.156250,129.41,95.42
87302,2018-06-29 09:30:20.187500,161.63,95.42
87303,2018-06-29 09:30:20.218750,161.68,95.42
87304,2018-06-29 09:30:20.250000,119.18,95.42
87305,2018-06-29 09:30:20.281250,48.13,95.42
87306,2018-06-29 09:30:20.312500,-22.75,95.42
87307,2018-06-29 09:30:20.343750,-78.25,95.42
87308,2018-06-29 09:30:20.375000,-120.76,95.42
87309,2018-06-29 09:30:20.406250,-149.95,95.42
87310,2018-06-29 09:30:20.437500,-162.71,95.42
87311,2018-06-29 09:30:20.468750,-161.87,95.42
87312,2018-06-29 09:30:20.500000,-153.64,95.42
87313,2018-06-29 09:30:20.531250,-134.88,95.68
87314,2018-06-29 09:30:20.562500,-102.14,95.68
87315,2018-06-29 09:30:20.593750,-62.52,95.68
87316,2018-06-29 09:30:20.625000,-22.7,95.68
87317,2018-06-29 09:30:20.656250,25.23,95.68
87318,2018-06-29 09:30:20.687500,101.05,95.68
87319,2018-06-29 09:30:20.718750,195.5,95.68
87320,2018-06-29 09:30:20.750000,272.38,95.68
87321,2018-06-29 09:30:20.781250,300.32,95.68
87322,2018-06-29 09:30:20.812500,292.61,95.68
87323,2018-06-29 09:30:20.843750,287.17,95.68
87324,2018-06-29 09:30:20.875000,298.68,95.68
87325,2018-06-29 09:30:20.906250,304.85,95.68
87326,2018-06-29 09:30:20.937500,269.9,95.68
87327,2018-06-29 09:30:20.968750,200.46,95.68
87328,2018-06-29 09:30:21.000000,80.14,95.68
87329,2018-06-29 09:30:21.031250,-71.55,95.68
87330,2018-06-29 09:30:21.062500,-156.23,95.68
87331,2018-06-29 09:30:21.093750,-179.66,95.68
87332,2018-06-29 09:30:21.125000,-179.2,95.68
87333,2018-06-29 09:30:21.156250,-163.36,95.68
87334,2018-06-29 09:30:21.187500,-136.98,95.68
87335,2018-06-29 09:30:21.218750,-128.99,95.68
87336,2018-06-29 09:30:21.250000,-156.9,95.68
87337,2018-06-29 09:30:21.281250,-216.13,95.68
87338,2018-06-29 09:30:21.312500,-276.98,95.68
87339,2018-06-29 09:30:21.343750,-312.67,95.68
87340,2018-06-29 09:30:21.375000,-309.47,95.68
87341,2018-06-29 09:30:21.406250,-271.5,95.68
87342,2018-06-29 09:30:21.437500,-220.73,95.68
87343,2018-06-29 09:30:21.468750,-177.07,95.68
87344,2018-06-29 09:30:21.500000,-149.59,95.68
87345,2018-06-29 09:30:21.531250,-132.09,95.95
87346,2018-06-29 09:30:21.562500,-118.75,95.95
87347,2018-06-29 09:30:21.593750,-106.65,95.95
87348,2018-06-29 09:30:21.625000,-95.21,95.95
87349,2018-06-29 09:30:21.656250,-81.71,95.95
87350,2018-06-29 09:30:21.687500,-61.96,95.95
87351,2018-06-29 09:30:21.718750,-36.94,95.95
87352,2018-06-29 09:30:21.750000,-12.1,95.95
87353,2018-06-29 09:30:21.781250,7.18,95.95
87354,2018-06-29 09:30:21.812500,21.38,95.95
87355,2018-06-29 09:30:21.843750,36.29,95.95
87356,2018-06-29 09:30:21.875000,56.87,95.95
87357,2018-06-29 09:30:21.906250,78.21,95.95
87358,2018-06-29 09:30:21.937500,87.78,95.95
87359,2018-06-29 09:30:21.968750,82.33,95.95
87360,2018-06-29 09:30:22.000000,75.7,95.95
87361,2018-06-29 09:30:22.031250,83.77,95.95
87362,2018-06-29 09:30:22.062500,106.7,95.95
87363,2018-06-29 09:30:22.093750,129.42,95.95
87364,2018-06-29 09:30:22.125000,136.57,95.95
87365,2018-06-29 09:30:22.156250,124.56,95.95
87366,2018-06-29 09:30:22.187500,101.83,95.95
87367,2018-06-29 09:30:22.218750,81.36,95.95
87368,2018-06-29 09:30:22.250000,73.23,95.95
87369,2018-06-29 09:30:22.281250,78.14,95.95
87370,2018-06-29 09:30:22.312500,88.84,95.95
87371,2018-06-29 09:30:22.343750,102.46,95.95
87372,2018-06-29 09:30:22.375000,122.13,95.95
87373,2018-06-29 09:30:22.406250,138.95,95.95
87374,2018-06-29 09:30:22.437500,127.18,95.95
87375,2018-06-29 09:30:22.468750,71.6,95.95
87376,2018-06-29 09:30:22.500000,-11.1,95.95
87377,2018-06-29 09:30:22.531250,-89.67,96.27
87378,2018-06-29 09:30:22.562500,-147.1,96.27
87379,2018-06-29 09:30:22.593750,-184.59,96.27
87380,2018-06-29 09:30:22.625000,-209.66,96.27
87381,2018-06-29 09:30:22.656250,-227.42,96.27
87382,2018-06-29 09:30:22.687500,-233.69,96.27
87383,2018-06-29 09:30:22.718750,-214.93,96.27
87384,2018-06-29 09:30:22.750000,-165.0,96.27
87385,2018-06-29 09:30:22.781250,-98.53,96.27
87386,2018-06-29 09:30:22.812500,-37.28,96.27
87387,2018-06-29 09:30:22.843750,10.77,96.27
87388,2018-06-29 09:30:22.875000,50.73,96.27
87389,2018-06-29 09:30:22.906250,81.53,96.27
87390,2018-06-29 09:30:22.937500,89.55,96.27
87391,2018-06-29 09:30:22.968750,71.72,96.27
87392,2018-06-29 09:30:23.000000,52.37,96.27
87393,2018-06-29 09:30:23.031250,58.22,96.27
87394,2018-06-29 09:30:23.062500,87.16,96.27
87395,2018-06-29 09:30:23.093750,117.56,96.27
87396,2018-06-29 09:30:23.125000,132.76,96.27
87397,2018-06-29 09:30:23.156250,124.5,96.27
87398,2018-06-29 09:30:23.187500,91.81,96.27
87399,2018-06-29 09:30:23.218750,46.58,96.27
87400,2018-06-29 09:30:23.250000,9.62,96.27
87401,2018-06-29 09:30:23.281250,-4.61,96.27
87402,2018-06-29 09:30:23.312500,1.82,96.27
87403,2018-06-29 09:30:23.343750,14.41,96.27
87404,2018-06-29 09:30:23.375000,23.19,96.27
87405,2018-06-29 09:30:23.406250,35.67,96.27
87406,2018-06-29 09:30:23.437500,64.67,96.27
87407,2018-06-29 09:30:23.468750,103.39,96.27
87408,2018-06-29 09:30:23.500000,124.6,96.27
87409,2018-06-29 09:30:23.531250,106.37,96.57
87410,2018-06-29 09:30:23.562500,49.75,96.57
87411,2018-06-29 09:30:23.593750,-25.9,96.57
87412,2018-06-29 09:30:23.625000,-96.0,96.57
87413,2018-06-29 09:30:23.656250,-143.35,96.57
87414,2018-06-29 09:30:23.687500,-164.87,96.57
87415,2018-06-29 09:30:23.718750,-166.63,96.57
87416,2018-06-29 09:30:23.750000,-154.9,96.57
87417,2018-06-29 09:30:23.781250,-134.68,96.57
87418,2018-06-29 09:30:23.812500,-110.46,96.57
87419,2018-06-29 09:30:23.843750,-84.24,96.57
87420,2018-06-29 09:30:23.875000,-58.03,96.57
87421,2018-06-29 09:30:23.906250,-36.46,96.57
87422,2018-06-29 09:30:23.937500,-20.37,96.57
87423,2018-06-29 09:30:23.968750,-5.05,96.57
87424,2018-06-29 09:30:24.000000,8.15,96.57
87425,2018-06-29 09:30:24.031250,13.81,96.57
87426,2018-06-29 09:30:24.062500,20.82,96.57
87427,2018-06-29 09:30:24.093750,46.06,96.57
87428,2018-06-29 09:30:24.125000,88.15,96.57
87429,2018-06-29 09:30:24.156250,129.0,96.57
87430,2018-06-29 09:30:24.187500,156.69,96.57
87431,2018-06-29 09:30:24.218750,167.8,96.57
87432,2018-06-29 09:30:24.250000,156.94,96.57
87433,2018-06-29 09:30:24.281250,121.74,96.57
87434,2018-06-29 09:30:24.312500,73.01,96.57
87435,2018-06-29 09:30:24.343750,29.79,96.57
87436,2018-06-29 09:30:24.375000,4.32,96.57
87437,2018-06-29 09:30:24.406250,-3.5,96.57
87438,2018-06-29 09:30:24.437500,1.13,96.57
87439,2018-06-29 09:30:24.468750,12.91,96.57
87440,2018-06-29 09:30:24.500000,26.56,96.57
87441,2018-06-29 09:30:24.531250,38.68,96.9
87442,2018-06-29 09:30:24.562500,42.34,96.9
87443,2018-06-29 09:30:24.593750,19.03,96.9
87444,2018-06-29 09:30:24.625000,-42.53,96.9
87445,2018-06-29 09:30:24.656250,-118.06,96.9
87446,2018-06-29 09:30:24.687500,-164.01,96.9
87447,2018-06-29 09:30:24.718750,-164.31,96.9
87448,2018-06-29 09:30:24.750000,-139.48,96.9
87449,2018-06-29 09:30:24.781250,-114.64,96.9
87450,2018-06-29 09:30:24.812500,-100.67,96.9
87451,2018-06-29 09:30:24.843750,-98.7,96.9
87452,2018-06-29 09:30:24.875000,-101.83,96.9
87453,2018-06-29 09:30:24.906250,-95.21,96.9
87454,2018-06-29 09:30:24.937500,-70.0,96.9
87455,2018-06-29 09:30:24.968750,-35.11,96.9
87456,2018-06-29 09:30:25.000000,-4.89,96.9
87457,2018-06-29 09:30:25.031250,19.31,96.9
87458,2018-06-29 09:30:25.062500,44.59,96.9
87459,2018-06-29 09:30:25.093750,68.42,96.9
87460,2018-06-29 09:30:25.125000,77.5,96.9
87461,2018-06-29 09:30:25.156250,65.58,96.9
87462,2018-06-29 09:30:25.187500,45.42,96.9
87463,2018-06-29 09:30:25.218750,37.7,96.9
87464,2018-06-29 09:30:25.250000,48.03,96.9
87465,2018-06-29 09:30:25.281250,61.44,96.9
87466,2018-06-29 09:30:25.312500,62.11,96.9
87467,2018-06-29 09:30:25.343750,49.88,96.9
87468,2018-06-29 09:30:25.375000,33.19,96.9
87469,2018-06-29 09:30:25.406250,17.36,96.9
87470,2018-06-29 09:30:25.437500,5.39,96.9
87471,2018-06-29 09:30:25.468750,0.27,96.9
87472,2018-06-29 09:30:25.500000,4.71,96.9
87473,2018-06-29 09:30:25.531250,21.12,97.2
87474,2018-06-29 09:30:25.562500,47.32,97.2
87475,2018-06-29 09:30:25.593750,74.27,97.2
87476,2018-06-29 09:30:25.625000,93.72,97.2
87477,2018-06-29 09:30:25.656250,101.8,97.2
87478,2018-06-29 09:30:25.687500,96.29,97.2
87479,2018-06-29 09:30:25.718750,80.64,97.2
87480,2018-06-29 09:30:25.750000,59.82,97.2
87481,2018-06-29 09:30:25.781250,23.59,97.2
87482,2018-06-29 09:30:25.812500,-44.15,97.2
87483,2018-06-29 09:30:25.843750,-128.07,97.2
87484,2018-06-29 09:30:25.875000,-185.36,97.2
87485,2018-06-29 09:30:25.906250,-196.36,97.2
87486,2018-06-29 09:30:25.937500,-180.99,97.2
87487,2018-06-29 09:30:25.968750,-162.83,97.2
87488,2018-06-29 09:30:26.000000,-146.31,97.2
87489,2018-06-29 09:30:26.031250,-127.05,97.2
87490,2018-06-29 09:30:26.062500,-99.48,97.2
87491,2018-06-29 09:30:26.093750,-55.56,97.2
87492,2018-06-29 09:30:26.125000,6.12,97.2
87493,2018-06-29 09:30:26.156250,67.55,97.2
87494,2018-06-29 09:30:26.187500,96.56,97.2
87495,2018-06-29 09:30:26.218750,75.16,97.2
87496,2018-06-29 09:30:26.250000,24.26,97.2
87497,2018-06-29 09:30:26.281250,-11.16,97.2
87498,2018-06-29 09:30:26.312500,-7.29,97.2
87499,2018-06-29 09:30:26.343750,21.59,97.2
87500,2018-06-29 09:30:26.375000,52.69,97.2
87501,2018-06-29 09:30:26.406250,76.87,97.2
87502,2018-06-29 09:30:26.437500,87.11,97.2
87503,2018-06-29 09:30:26.468750,74.92,97.2
87504,2018-06-29 09:30:26.500000,47.69,97.2
87505,2018-06-29 09:30:26.531250,25.56,97.45
87506,2018-06-29 09:30:26.562500,17.07,97.45
87507,2018-06-29 09:30:26.593750,15.42,97.45
87508,2018-06-29 09:30:26.625000,15.27,97.45
87509,2018-06-29 09:30:26.656250,19.7,97.45
87510,2018-06-29 09:30:26.687500,33.58,97.45
87511,2018-06-29 09:30:26.718750,56.47,97.45
87512,2018-06-29 09:30:26.750000,81.62,97.45
87513,2018-06-29 09:30:26.781250,103.15,97.45
87514,2018-06-29 09:30:26.812500,122.6,97.45
87515,2018-06-29 09:30:26.843750,136.69,97.45
87516,2018-06-29 09:30:26.875000,124.21,97.45
87517,2018-06-29 09:30:26.906250,64.74,97.45
87518,2018-06-29 09:30:26.937500,-30.88,97.45
87519,2018-06-29 09:30:26.968750,-123.44,97.45
87520,2018-06-29 09:30:27.000000,-177.29,97.45
87521,2018-06-29 09:30:27.031250,-185.01,97.45
87522,2018-06-29 09:30:27.062500,-165.54,97.45
87523,2018-06-29 09:30:27.093750,-142.8,97.45
87524,2018-06-29 09:30:27.125000,-127.53,97.45
87525,2018-06-29 09:30:27.156250,-118.35,97.45
87526,2018-06-29 09:30:27.187500,-109.1,97.45
87527,2018-06-29 09:30:27.218750,-91.58,97.45
87528,2018-06-29 09:30:27.250000,-64.23,97.45
87529,2018-06-29 09:30:27.281250,-41.09,97.45
87530,2018-06-29 09:30:27.312500,-38.27,97.45
87531,2018-06-29 09:30:27.343750,-50.59,97.45
87532,2018-06-29 09:30:27.375000,-53.28,97.45
87533,2018-06-29 09:30:27.406250,-28.18,97.45
87534,2018-06-29 09:30:27.437500,20.7,97.45
87535,2018-06-29 09:30:27.468750,77.11,97.45
87536,2018-06-29 09:30:27.500000,126.5,97.45
87537,2018-06-29 09:30:27.531250,157.65,97.68
87538,2018-06-29 09:30:27.562500,161.4,97.68
87539,2018-06-29 09:30:27.593750,138.02,97.68
87540,2018-06-29 09:30:27.625000,101.41,97.68
87541,2018-06-29 09:30:27.656250,68.23,97.68
87542,2018-06-29 09:30:27.687500,46.48,97.68
87543,2018-06-29 09:30:27.718750,37.73,97.68
87544,2018-06-29 09:30:27.750000,41.35,97.68
87545,2018-06-29 09:30:27.781250,53.63,97.68
87546,2018-06-29 09:30:27.812500,71.09,97.68
87547,2018-06-29 09:30:27.843750,93.22,97.68
87548,2018-06-29 09:30:27.875000,113.48,97.68
87549,2018-06-29 09:30:27.906250,113.49,97.68
87550,2018-06-29 09:30:27.937500,77.42,97.68
87551,2018-06-29 09:30:27.968750,8.79,97.68
87552,2018-06-29 09:30:28.000000,-72.83,97.68
87553,2018-06-29 09:30:28.031250,-146.84,97.68
87554,2018-06-29 09:30:28.062500,-199.69,97.68
87555,2018-06-29 09:30:28.093750,-223.63,97.68
87556,2018-06-29 09:30:28.125000,-216.24,97.68
87557,2018-06-29 09:30:28.156250,-184.16,97.68
87558,2018-06-29 09:30:28.187500,-141.91,97.68
87559,2018-06-29 09:30:28.218750,-102.01,97.68
87560,2018-06-29 09:30:28.250000,-68.99,97.68
87561,2018-06-29 09:30:28.281250,-42.92,97.68
87562,2018-06-29 09:30:28.312500,-21.96,97.68
87563,2018-06-29 09:30:28.343750,-0.64,97.68
87564,2018-06-29 09:30:28.375000,24.05,97.68
87565,2018-06-29 09:30:28.406250,42.43,97.68
87566,2018-06-29 09:30:28.437500,40.55,97.68
87567,2018-06-29 09:30:28.468750,24.46,97.68
87568,2018-06-29 09:30:28.500000,20.84,97.68
87569,2018-06-29 09:30:28.531250,42.83,97.95
87570,2018-06-29 09:30:28.562500,73.86,97.95
87571,2018-06-29 09:30:28.593750,94.66,97.95
87572,2018-06-29 09:30:28.625000,102.8,97.95
87573,2018-06-29 09:30:28.656250,97.46,97.95
87574,2018-06-29 09:30:28.687500,72.27,97.95
87575,2018-06-29 09:30:28.718750,31.78,97.95
87576,2018-06-29 09:30:28.750000,-6.85,97.95
87577,2018-06-29 09:30:28.781250,-31.05,97.95
87578,2018-06-29 09:30:28.812500,-35.99,97.95
87579,2018-06-29 09:30:28.843750,-18.85,97.95
87580,2018-06-29 09:30:28.875000,16.21,97.95
87581,2018-06-29 09:30:28.906250,56.05,97.95
87582,2018-06-29 09:30:28.937500,89.49,97.95
87583,2018-06-29 09:30:28.968750,111.94,97.95
87584,2018-06-29 09:30:29.000000,119.51,97.95
87585,2018-06-29 09:30:29.031250,109.24,97.95
87586,2018-06-29 09:30:29.062500,81.82,97.95
87587,2018-06-29 09:30:29.093750,35.84,97.95
87588,2018-06-29 09:30:29.125000,-30.95,97.95
87589,2018-06-29 09:30:29.156250,-105.32,97.95
87590,2018-06-29 09:30:29.187500,-158.03,97.95
87591,2018-06-29 09:30:29.218750,-172.81,97.95
87592,2018-06-29 09:30:29.250000,-163.24,97.95
87593,2018-06-29 09:30:29.281250,-149.68,97.95
87594,2018-06-29 09:30:29.312500,-135.47,97.95
87595,2018-06-29 09:30:29.343750,-116.45,97.95
87596,2018-06-29 09:30:29.375000,-97.06,97.95
87597,2018-06-29 09:30:29.406250,-83.89,97.95
87598,2018-06-29 09:30:29.437500,-73.19,97.95
87599,2018-06-29 09:30:29.468750,-53.87,97.95
87600,2018-06-29 09:30:29.500000,-22.26,97.95
87601,2018-06-29 09:30:29.531250,11.63,98.18
87602,2018-06-29 09:30:29.562500,37.87,98.18
87603,2018-06-29 09:30:29.593750,62.61,98.18
87604,2018-06-29 09:30:29.625000,96.8,98.18
87605,2018-06-29 09:30:29.656250,135.09,98.18
87606,2018-06-29 09:30:29.687500,163.01,98.18
87607,2018-06-29 09:30:29.718750,175.69,98.18
87608,2018-06-29 09:30:29.750000,172.45,98.18
87609,2018-06-29 09:30:29.781250,147.28,98.18
87610,2018-06-29 09:30:29.812500,101.43,98.18
87611,2018-06-29 09:30:29.843750,51.72,98.18
87612,2018-06-29 09:30:29.875000,15.25,98.18
87613,2018-06-29 09:30:29.906250,-3.41,98.18
87614,2018-06-29 09:30:29.937500,-6.88,98.18
87615,2018-06-29 09:30:29.968750,0.6,98.18
87616,2018-06-29 09:30:30.000000,13.43,98.18
87617,2018-06-29 09:30:30.031250,28.45,98.18
87618,2018-06-29 09:30:30.062500,43.44,98.18
87619,2018-06-29 09:30:30.093750,47.12,98.18
87620,2018-06-29 09:30:30.125000,25.3,98.18
87621,2018-06-29 09:30:30.156250,-18.2,98.18
87622,2018-06-29 09:30:30.187500,-62.98,98.18
87623,2018-06-29 09:30:30.218750,-95.72,98.18
87624,2018-06-29 09:30:30.250000,-115.83,98.18
87625,2018-06-29 09:30:30.281250,-124.27,98.18
87626,2018-06-29 09:30:30.312500,-124.1,98.18
87627,2018-06-29 09:30:30.343750,-124.21,98.18
87628,2018-06-29 09:30:30.375000,-128.71,98.18
87629,2018-06-29 09:30:30.406250,-129.38,98.18
87630,2018-06-29 09:30:30.437500,-116.26,98.18
87631,2018-06-29 09:30:30.468750,-90.15,98.18
87632,2018-06-29 09:30:30.500000,-60.66,98.18
87633,2018-06-29 09:30:30.531250,-35.25,98.37
87634,2018-06-29 09:30:30.562500,-13.85,98.37
87635,2018-06-29 09:30:30.593750,4.51,98.37
87636,2018-06-29 09:30:30.625000,15.77,98.37
87637,2018-06-29 09:30:30.656250,19.04,98.37
87638,2018-06-29 09:30:30.687500,23.52,98.37
87639,2018-06-29 09:30:30.718750,37.99,98.37
87640,2018-06-29 09:30:30.750000,61.46,98.37
87641,2018-06-29 09:30:30.781250,90.29,98.37
87642,2018-06-29 09:30:30.812500,121.05,98.37
87643,2018-06-29 09:30:30.843750,142.79,98.37
87644,2018-06-29 09:30:30.875000,141.26,98.37
87645,2018-06-29 09:30:30.906250,115.26,98.37
87646,2018-06-29 09:30:30.937500,78.6,98.37
87647,2018-06-29 09:30:30.968750,45.88,98.37
87648,2018-06-29 09:30:31.000000,24.32,98.37
87649,2018-06-29 09:30:31.031250,16.21,98.37
87650,2018-06-29 09:30:31.062500,20.88,98.37
87651,2018-06-29 09:30:31.093750,35.07,98.37
87652,2018-06-29 09:30:31.125000,57.35,98.37
87653,2018-06-29 09:30:31.156250,84.34,98.37
87654,2018-06-29 09:30:31.187500,97.47,98.37
87655,2018-06-29 09:30:31.218750,70.41,98.37
87656,2018-06-29 09:30:31.250000,0.04,98.37
87657,2018-06-29 09:30:31.281250,-84.67,98.37
87658,2018-06-29 09:30:31.312500,-152.05,98.37
87659,2018-06-29 09:30:31.343750,-192.7,98.37
87660,2018-06-29 09:30:31.375000,-210.21,98.37
87661,2018-06-29 09:30:31.406250,-205.11,98.37
87662,2018-06-29 09:30:31.437500,-179.78,98.37
87663,2018-06-29 09:30:31.468750,-145.96,98.37
87664,2018-06-29 09:30:31.500000,-113.67,98.37
87665,2018-06-29 09:30:31.531250,-81.3,98.58
87666,2018-06-29 09:30:31.562500,-46.09,98.58
87667,2018-06-29 09:30:31.593750,-14.13,98.58
87668,2018-06-29 09:30:31.625000,8.68,98.58
87669,2018-06-29 09:30:31.656250,25.87,98.58
87670,2018-06-29 09:30:31.687500,43.15,98.58
87671,2018-06-29 09:30:31.718750,60.7,98.58
87672,2018-06-29 09:30:31.750000,77.88,98.58
87673,2018-06-29 09:30:31.781250,97.2,98.58
87674,2018-06-29 09:30:31.812500,118.97,98.58
87675,2018-06-29 09:30:31.843750,138.54,98.58
87676,2018-06-29 09:30:31.875000,151.68,98.58
87677,2018-06-29 09:30:31.906250,158.13,98.58
87678,2018-06-29 09:30:31.937500,158.66,98.58
87679,2018-06-29 09:30:31.968750,151.73,98.58
87680,2018-06-29 09:30:32.000000,136.73,98.58
87681,2018-06-29 09:30:32.031250,120.95,98.58
87682,2018-06-29 09:30:32.062500,117.12,98.58
87683,2018-06-29 09:30:32.093750,129.09,98.58
87684,2018-06-29 09:30:32.125000,145.44,98.58
87685,2018-06-29 09:30:32.156250,150.85,98.58
87686,2018-06-29 09:30:32.187500,139.01,98.58
87687,2018-06-29 09:30:32.218750,115.24,98.58
87688,2018-06-29 09:30:32.250000,91.57,98.58
87689,2018-06-29 09:30:32.281250,75.76,98.58
87690,2018-06-29 09:30:32.312500,63.79,98.58
87691,2018-06-29 09:30:32.343750,47.32,98.58
87692,2018-06-29 09:30:32.375000,24.67,98.58
87693,2018-06-29 09:30:32.406250,-3.16,98.58
87694,2018-06-29 09:30:32.437500,-39.9,98.58
87695,2018-06-29 09:30:32.468750,-85.9,98.58
87696,2018-06-29 09:30:32.500000,-128.76,98.58
87697,2018-06-29 09:30:32.531250,-152.44,98.83
87698,2018-06-29 09:30:32.562500,-153.2,98.83
87699,2018-06-29 09:30:32.593750,-140.21,98.83
87700,2018-06-29 09:30:32.625000,-124.78,98.83
87701,2018-06-29 09:30:32.656250,-113.98,98.83
87702,2018-06-29 09:30:32.687500,-110.35,98.83
87703,2018-06-29 09:30:32.718750,-110.46,98.83
87704,2018-06-29 09:30:32.750000,-104.49,98.83
87705,2018-06-29 09:30:32.781250,-84.13,98.83
87706,2018-06-29 09:30:32.812500,-52.61,98.83
87707,2018-06-29 09:30:32.843750,-22.15,98.83
87708,2018-06-29 09:30:32.875000,-1.09,98.83
87709,2018-06-29 09:30:32.906250,10.6,98.83
87710,2018-06-29 09:30:32.937500,15.44,98.83
87711,2018-06-29 09:30:32.968750,15.57,98.83
87712,2018-06-29 09:30:33.000000,13.6,98.83
87713,2018-06-29 09:30:33.031250,11.67,98.83
87714,2018-06-29 09:30:33.062500,11.18,98.83
87715,2018-06-29 09:30:33.093750,13.61,98.83
87716,2018-06-29 09:30:33.125000,23.13,98.83
87717,2018-06-29 09:30:33.156250,49.88,98.83
87718,2018-06-29 09:30:33.187500,98.99,98.83
87719,2018-06-29 09:30:33.218750,152.51,98.83
87720,2018-06-29 09:30:33.250000,179.74,98.83
87721,2018-06-29 09:30:33.281250,167.83,98.83
87722,2018-06-29 09:30:33.312500,124.09,98.83
87723,2018-06-29 09:30:33.343750,55.18,98.83
87724,2018-06-29 09:30:33.375000,-33.44,98.83
87725,2018-06-29 09:30:33.406250,-123.93,98.83
87726,2018-06-29 09:30:33.437500,-193.63,98.83
87727,2018-06-29 09:30:33.468750,-234.18,98.83
87728,2018-06-29 09:30:33.500000,-249.44,98.83
87729,2018-06-29 09:30:33.531250,-239.26,99.12
87730,2018-06-29 09:30:33.562500,-201.05,99.12
87731,2018-06-29 09:30:33.593750,-145.39,99.12
87732,2018-06-29 09:30:33.625000,-92.12,99.12
87733,2018-06-29 09:30:33.656250,-52.64,99.12
87734,2018-06-29 09:30:33.687500,-28.86,99.12
87735,2018-06-29 09:30:33.718750,-18.97,99.12
87736,2018-06-29 09:30:33.750000,-16.18,99.12
87737,2018-06-29 09:30:33.781250,-14.67,99.12
87738,2018-06-29 09:30:33.812500,-16.49,99.12
87739,2018-06-29 09:30:33.843750,-21.77,99.12
87740,2018-06-29 09:30:33.875000,-23.38,99.12
87741,2018-06-29 09:30:33.906250,-21.04,99.12
87742,2018-06-29 09:30:33.937500,-23.22,99.12
87743,2018-06-29 09:30:33.968750,-30.25,99.12
87744,2018-06-29 09:30:34.000000,-33.15,99.12
87745,2018-06-29 09:30:34.031250,-29.72,99.12
87746,2018-06-29 09:30:34.062500,-28.04,99.12
87747,2018-06-29 09:30:34.093750,-32.95,99.12
87748,2018-06-29 09:30:34.125000,-35.97,99.12
87749,2018-06-29 09:30:34.156250,-22.47,99.12
87750,2018-06-29 09:30:34.187500,10.15,99.12
87751,2018-06-29 09:30:34.218750,46.21,99.12
87752,2018-06-29 09:30:34.250000,68.84,99.12
87753,2018-06-29 09:30:34.281250,75.45,99.12
87754,2018-06-29 09:30:34.312500,71.82,99.12
87755,2018-06-29 09:30:34.343750,61.96,99.12
87756,2018-06-29 09:30:34.375000,48.98,99.12
87757,2018-06-29 09:30:34.406250,36.55,99.12
87758,2018-06-29 09:30:34.437500,26.03,99.12
87759,2018-06-29 09:30:34.468750,18.67,99.12
87760,2018-06-29 09:30:34.500000,17.2,99.12
87761,2018-06-29 09:30:34.531250,20.89,99.4
87762,2018-06-29 09:30:34.562500,26.16,99.4
87763,2018-06-29 09:30:34.593750,33.38,99.4
87764,2018-06-29 09:30:34.625000,42.62,99.4
87765,2018-06-29 09:30:34.656250,44.15,99.4
87766,2018-06-29 09:30:34.687500,24.59,99.4
87767,2018-06-29 09:30:34.718750,-19.89,99.4
87768,2018-06-29 09:30:34.750000,-82.07,99.4
87769,2018-06-29 09:30:34.781250,-146.88,99.4
87770,2018-06-29 09:30:34.812500,-190.79,99.4
87771,2018-06-29 09:30:34.843750,-191.45,99.4
87772,2018-06-29 09:30:34.875000,-149.8,99.4
87773,2018-06-29 09:30:34.906250,-93.8,99.4
87774,2018-06-29 09:30:34.937500,-50.1,99.4
87775,2018-06-29 09:30:34.968750,-21.14,99.4
87776,2018-06-29 09:30:35.000000,2.73,99.4
87777,2018-06-29 09:30:35.031250,24.02,99.4
87778,2018-06-29 09:30:35.062500,42.45,99.4
87779,2018-06-29 09:30:35.093750,63.35,99.4
87780,2018-06-29 09:30:35.125000,89.01,99.4
87781,2018-06-29 09:30:35.156250,110.78,99.4
87782,2018-06-29 09:30:35.187500,118.66,99.4
87783,2018-06-29 09:30:35.218750,112.17,99.4
87784,2018-06-29 09:30:35.250000,94.28,99.4
87785,2018-06-29 09:30:35.281250,62.8,99.4
87786,2018-06-29 09:30:35.312500,18.43,99.4
87787,2018-06-29 09:30:35.343750,-25.39,99.4
87788,2018-06-29 09:30:35.375000,-53.28,99.4
87789,2018-06-29 09:30:35.406250,-63.64,99.4
87790,2018-06-29 09:30:35.437500,-66.12,99.4
87791,2018-06-29 09:30:35.468750,-69.69,99.4
87792,2018-06-29 09:30:35.500000,-74.0,99.4
87793,2018-06-29 09:30:35.531250,-65.12,99.68
87794,2018-06-29 09:30:35.562500,-29.37,99.68
87795,2018-06-29 09:30:35.593750,23.55,99.68
87796,2018-06-29 09:30:35.625000,70.04,99.68
87797,2018-06-29 09:30:35.656250,104.32,99.68
87798,2018-06-29 09:30:35.687500,134.97,99.68
87799,2018-06-29 09:30:35.718750,157.67,99.68
87800,2018-06-29 09:30:35.750000,159.45,99.68
87801,2018-06-29 09:30:35.781250,139.16,99.68
87802,2018-06-29 09:30:35.812500,102.32,99.68
87803,2018-06-29 09:30:35.843750,51.05,99.68
87804,2018-06-29 09:30:35.875000,-5.63,99.68
87805,2018-06-29 09:30:35.906250,-47.29,99.68
87806,2018-06-29 09:30:35.937500,-63.02,99.68
87807,2018-06-29 09:30:35.968750,-67.39,99.68
87808,2018-06-29 09:30:36.000000,-83.61,99.68
87809,2018-06-29 09:30:36.031250,-116.36,99.68
87810,2018-06-29 09:30:36.062500,-149.15,99.68
87811,2018-06-29 09:30:36.093750,-164.72,99.68
87812,2018-06-29 09:30:36.125000,-161.49,99.68
87813,2018-06-29 09:30:36.156250,-150.73,99.68
87814,2018-06-29 09:30:36.187500,-138.21,99.68
87815,2018-06-29 09:30:36.218750,-114.08,99.68
87816,2018-06-29 09:30:36.250000,-70.9,99.68
87817,2018-06-29 09:30:36.281250,-22.58,99.68
87818,2018-06-29 09:30:36.312500,10.78,99.68
87819,2018-06-29 09:30:36.343750,26.03,99.68
87820,2018-06-29 09:30:36.375000,31.09,99.68
87821,2018-06-29 09:30:36.406250,29.13,99.68
87822,2018-06-29 09:30:36.437500,20.5,99.68
87823,2018-06-29 09:30:36.468750,8.85,99.68
87824,2018-06-29 09:30:36.500000,-1.06,99.68
87825,2018-06-29 09:30:36.531250,-5.58,99.95
87826,2018-06-29 09:30:36.562500,-2.11,99.95
87827,2018-06-29 09:30:36.593750,10.54,99.95
87828,2018-06-29 09:30:36.625000,31.97,99.95
87829,2018-06-29 09:30:36.656250,58.03,99.95
87830,2018-06-29 09:30:36.687500,81.1,99.95
87831,2018-06-29 09:30:36.718750,98.37,99.95
87832,2018-06-29 09:30:36.750000,112.77,99.95
87833,2018-06-29 09:30:36.781250,118.14,99.95
87834,2018-06-29 09:30:36.812500,97.59,99.95
87835,2018-06-29 09:30:36.843750,45.48,99.95
87836,2018-06-29 09:30:36.875000,-19.95,99.95
87837,2018-06-29 09:30:36.906250,-70.86,99.95
87838,2018-06-29 09:30:36.937500,-90.8,99.95
87839,2018-06-29 09:30:36.968750,-83.5,99.95
87840,2018-06-29 09:30:37.000000,-64.4,99.95
87841,2018-06-29 09:30:37.031250,-45.01,99.95
87842,2018-06-29 09:30:37.062500,-27.06,99.95
87843,2018-06-29 09:30:37.093750,-9.1,99.95
87844,2018-06-29 09:30:37.125000,7.73,99.95
87845,2018-06-29 09:30:37.156250,19.48,99.95
87846,2018-06-29 09:30:37.187500,21.56,99.95
87847,2018-06-29 09:30:37.218750,12.12,99.95
87848,2018-06-29 09:30:37.250000,-4.81,99.95
87849,2018-06-29 09:30:37.281250,-20.37,99.95
87850,2018-06-29 09:30:37.312500,-25.65,99.95
87851,2018-06-29 09:30:37.343750,-15.05,99.95
87852,2018-06-29 09:30:37.375000,10.39,99.95
87853,2018-06-29 09:30:37.406250,39.59,99.95
87854,2018-06-29 09:30:37.437500,56.52,99.95
87855,2018-06-29 09:30:37.468750,51.46,99.95
87856,2018-06-29 09:30:37.500000,23.66,99.95
87857,2018-06-29 09:30:37.531250,-21.83,100.22
87858,2018-06-29 09:30:37.562500,-70.23,100.22
87859,2018-06-29 09:30:37.593750,-96.13,100.22
87860,2018-06-29 09:30:37.625000,-82.23,100.22
87861,2018-06-29 09:30:37.656250,-37.47,100.22
87862,2018-06-29 09:30:37.687500,13.49,100.22
87863,2018-06-29 09:30:37.718750,55.58,100.22
87864,2018-06-29 09:30:37.750000,89.89,100.22
87865,2018-06-29 09:30:37.781250,118.07,100.22
87866,2018-06-29 09:30:37.812500,128.64,100.22
87867,2018-06-29 09:30:37.843750,106.15,100.22
87868,2018-06-29 09:30:37.875000,58.58,100.22
87869,2018-06-29 09:30:37.906250,20.89,100.22
87870,2018-06-29 09:30:37.937500,16.81,100.22
87871,2018-06-29 09:30:37.968750,36.75,100.22
87872,2018-06-29 09:30:38.000000,62.91,100.22
87873,2018-06-29 09:30:38.031250,86.21,100.22
87874,2018-06-29 09:30:38.062500,94.73,100.22
87875,2018-06-29 09:30:38.093750,78.4,100.22
87876,2018-06-29 09:30:38.125000,46.17,100.22
87877,2018-06-29 09:30:38.156250,16.54,100.22
87878,2018-06-29 09:30:38.187500,-3.36,100.22
87879,2018-06-29 09:30:38.218750,-20.13,100.22
87880,2018-06-29 09:30:38.250000,-41.02,100.22
87881,2018-06-29 09:30:38.281250,-59.85,100.22
87882,2018-06-29 09:30:38.312500,-59.08,100.22
87883,2018-06-29 09:30:38.343750,-32.03,100.22
87884,2018-06-29 09:30:38.375000,7.16,100.22
87885,2018-06-29 09:30:38.406250,42.46,100.22
87886,2018-06-29 09:30:38.437500,69.92,100.22
87887,2018-06-29 09:30:38.468750,86.85,100.22
87888,2018-06-29 09:30:38.500000,85.28,100.22
87889,2018-06-29 09:30:38.531250,63.39,100.47
87890,2018-06-29 09:30:38.562500,30.24,100.47
87891,2018-06-29 09:30:38.593750,-4.89,100.47
87892,2018-06-29 09:30:38.625000,-38.24,100.47
87893,2018-06-29 09:30:38.656250,-66.97,100.47
87894,2018-06-29 09:30:38.687500,-87.71,100.47
87895,2018-06-29 09:30:38.718750,-98.52,100.47
87896,2018-06-29 09:30:38.750000,-97.78,100.47
87897,2018-06-29 09:30:38.781250,-84.71,100.47
87898,2018-06-29 09:30:38.812500,-63.62,100.47
87899,2018-06-29 09:30:38.843750,-42.81,100.47
87900,2018-06-29 09:30:38.875000,-27.76,100.47
87901,2018-06-29 09:30:38.906250,-15.85,100.47
87902,2018-06-29 09:30:38.937500,4.8,100.47
87903,2018-06-29 09:30:38.968750,45.25,100.47
87904,2018-06-29 09:30:39.000000,94.02,100.47
87905,2018-06-29 09:30:39.031250,117.42,100.47
87906,2018-06-29 09:30:39.062500,96.05,100.47
87907,2018-06-29 09:30:39.093750,47.21,100.47
87908,2018-06-29 09:30:39.125000,0.48,100.47
87909,2018-06-29 09:30:39.156250,-29.92,100.47
87910,2018-06-29 09:30:39.187500,-41.98,100.47
87911,2018-06-29 09:30:39.218750,-37.47,100.47
87912,2018-06-29 09:30:39.250000,-23.91,100.47
87913,2018-06-29 09:30:39.281250,-10.39,100.47
87914,2018-06-29 09:30:39.312500,0.05,100.47
87915,2018-06-29 09:30:39.343750,7.0,100.47
87916,2018-06-29 09:30:39.375000,7.36,100.47
87917,2018-06-29 09:30:39.406250,-1.46,100.47
87918,2018-06-29 09:30:39.437500,-18.8,100.47
87919,2018-06-29 09:30:39.468750,-42.83,100.47
87920,2018-06-29 09:30:39.500000,-68.74,100.47
87921,2018-06-29 09:30:39.531250,-85.39,100.68
87922,2018-06-29 09:30:39.562500,-81.8,100.68
87923,2018-06-29 09:30:39.593750,-56.44,100.68
87924,2018-06-29 09:30:39.625000,-15.45,100.68
87925,2018-06-29 09:30:39.656250,33.02,100.68
87926,2018-06-29 09:30:39.687500,76.61,100.68
87927,2018-06-29 09:30:39.718750,98.04,100.68
87928,2018-06-29 09:30:39.750000,88.2,100.68
87929,2018-06-29 09:30:39.781250,57.06,100.68
87930,2018-06-29 09:30:39.812500,25.41,100.68
87931,2018-06-29 09:30:39.843750,8.73,100.68
87932,2018-06-29 09:30:39.875000,10.31,100.68
87933,2018-06-29 09:30:39.906250,23.72,100.68
87934,2018-06-29 09:30:39.937500,40.55,100.68
87935,2018-06-29 09:30:39.968750,59.02,100.68
87936,2018-06-29 09:30:40.000000,78.34,100.68
87937,2018-06-29 09:30:40.031250,84.51,100.68
87938,2018-06-29 09:30:40.062500,58.95,100.68
87939,2018-06-29 09:30:40.093750,5.61,100.68
87940,2018-06-29 09:30:40.125000,-48.41,100.68
87941,2018-06-29 09:30:40.156250,-83.04,100.68
87942,2018-06-29 09:30:40.187500,-102.11,100.68
87943,2018-06-29 09:30:40.218750,-119.69,100.68
87944,2018-06-29 09:30:40.250000,-138.97,100.68
87945,2018-06-29 09:30:40.281250,-146.62,100.68
87946,2018-06-29 09:30:40.312500,-128.51,100.68
87947,2018-06-29 09:30:40.343750,-86.79,100.68
87948,2018-06-29 09:30:40.375000,-36.03,100.68
87949,2018-06-29 09:30:40.406250,10.68,100.68
87950,2018-06-29 09:30:40.437500,45.24,100.68
87951,2018-06-29 09:30:40.468750,65.97,100.68
87952,2018-06-29 09:30:40.500000,80.43,100.68
87953,2018-06-29 09:30:40.531250,92.63,100.92
87954,2018-06-29 09:30:40.562500,92.52,100.92
87955,2018-06-29 09:30:40.593750,75.53,100.92
87956,2018-06-29 09:30:40.625000,60.55,100.92
87957,2018-06-29 09:30:40.656250,68.83,100.92
87958,2018-06-29 09:30:40.687500,95.08,100.92
87959,2018-06-29 09:30:40.718750,113.74,100.92
87960,2018-06-29 09:30:40.750000,104.3,100.92
87961,2018-06-29 09:30:40.781250,62.15,100.92
87962,2018-06-29 09:30:40.812500,-5.19,100.92
87963,2018-06-29 09:30:40.843750,-80.76,100.92
87964,2018-06-29 09:30:40.875000,-141.07,100.92
87965,2018-06-29 09:30:40.906250,-167.17,100.92
87966,2018-06-29 09:30:40.937500,-152.21,100.92
87967,2018-06-29 09:30:40.968750,-98.44,100.92
87968,2018-06-29 09:30:41.000000,-18.24,100.92
87969,2018-06-29 09:30:41.031250,62.49,100.92
87970,2018-06-29 09:30:41.062500,119.84,100.92
87971,2018-06-29 09:30:41.093750,150.7,100.92
87972,2018-06-29 09:30:41.125000,164.61,100.92
87973,2018-06-29 09:30:41.156250,166.67,100.92
87974,2018-06-29 09:30:41.187500,157.81,100.92
87975,2018-06-29 09:30:41.218750,139.67,100.92
87976,2018-06-29 09:30:41.250000,112.96,100.92
87977,2018-06-29 09:30:41.281250,79.73,100.92
87978,2018-06-29 09:30:41.312500,47.13,100.92
87979,2018-06-29 09:30:41.343750,20.35,100.92
87980,2018-06-29 09:30:41.375000,-5.6,100.92
87981,2018-06-29 09:30:41.406250,-39.61,100.92
87982,2018-06-29 09:30:41.437500,-81.15,100.92
87983,2018-06-29 09:30:41.468750,-117.88,100.92
87984,2018-06-29 09:30:41.500000,-136.78,100.92
87985,2018-06-29 09:30:41.531250,-137.05,101.13
87986,2018-06-29 09:30:41.562500,-130.79,101.13
87987,2018-06-29 09:30:41.593750,-128.52,101.13
87988,2018-06-29 09:30:41.625000,-122.45,101.13
87989,2018-06-29 09:30:41.656250,-91.22,101.13
87990,2018-06-29 09:30:41.687500,-27.76,101.13
87991,2018-06-29 09:30:41.718750,46.14,101.13
87992,2018-06-29 09:30:41.750000,100.91,101.13
87993,2018-06-29 09:30:41.781250,126.1,101.13
87994,2018-06-29 09:30:41.812500,131.23,101.13
87995,2018-06-29 09:30:41.843750,128.56,101.13
87996,2018-06-29 09:30:41.875000,117.32,101.13
87997,2018-06-29 09:30:41.906250,86.91,101.13
87998,2018-06-29 09:30:41.937500,44.85,101.13
87999,2018-06-29 09:30:41.968750,26.5,101.13
88000,2018-06-29 09:30:42.000000,57.78,101.13
88001,2018-06-29 09:30:42.031250,122.65,101.13
88002,2018-06-29 09:30:42.062500,183.06,101.13
88003,2018-06-29 09:30:42.093750,210.37,101.13
88004,2018-06-29 09:30:42.125000,189.53,101.13
88005,2018-06-29 09:30:42.156250,118.42,101.13
88006,2018-06-29 09:30:42.187500,14.43,101.13
88007,2018-06-29 09:30:42.218750,-95.49,101.13
88008,2018-06-29 09:30:42.250000,-196.66,101.13
88009,2018-06-29 09:30:42.281250,-288.61,101.13
88010,2018-06-29 09:30:42.312500,-362.33,101.13
88011,2018-06-29 09:30:42.343750,-389.86,101.13
88012,2018-06-29 09:30:42.375000,-350.25,101.13
88013,2018-06-29 09:30:42.406250,-260.15,101.13
88014,2018-06-29 09:30:42.437500,-161.27,101.13
88015,2018-06-29 09:30:42.468750,-81.34,101.13
88016,2018-06-29 09:30:42.500000,-23.32,101.13
88017,2018-06-29 09:30:42.531250,16.13,101.32
88018,2018-06-29 09:30:42.562500,36.85,101.32
88019,2018-06-29 09:30:42.593750,39.06,101.32
88020,2018-06-29 09:30:42.625000,23.95,101.32
88021,2018-06-29 09:30:42.656250,-4.76,101.32
88022,2018-06-29 09:30:42.687500,-37.03,101.32
88023,2018-06-29 09:30:42.718750,-61.22,101.32
88024,2018-06-29 09:30:42.750000,-73.83,101.32
88025,2018-06-29 09:30:42.781250,-79.78,101.32
88026,2018-06-29 09:30:42.812500,-83.37,101.32
88027,2018-06-29 09:30:42.843750,-82.63,101.32
88028,2018-06-29 09:30:42.875000,-74.09,101.32
88029,2018-06-29 09:30:42.906250,-60.73,101.32
88030,2018-06-29 09:30:42.937500,-51.66,101.32
88031,2018-06-29 09:30:42.968750,-53.03,101.32
88032,2018-06-29 09:30:43.000000,-60.38,101.32
88033,2018-06-29 09:30:43.031250,-60.31,101.32
88034,2018-06-29 09:30:43.062500,-42.66,101.32
88035,2018-06-29 09:30:43.093750,-11.08,101.32
88036,2018-06-29 09:30:43.125000,22.74,101.32
88037,2018-06-29 09:30:43.156250,51.86,101.32
88038,2018-06-29 09:30:43.187500,75.03,101.32
88039,2018-06-29 09:30:43.218750,90.43,101.32
88040,2018-06-29 09:30:43.250000,97.97,101.32
88041,2018-06-29 09:30:43.281250,103.23,101.32
88042,2018-06-29 09:30:43.312500,112.68,101.32
88043,2018-06-29 09:30:43.343750,122.67,101.32
88044,2018-06-29 09:30:43.375000,117.0,101.32
88045,2018-06-29 09:30:43.406250,84.12,101.32
88046,2018-06-29 09:30:43.437500,35.09,101.32
88047,2018-06-29 09:30:43.468750,-7.93,101.32
88048,2018-06-29 09:30:43.500000,-37.59,101.32
88049,2018-06-29 09:30:43.531250,-61.3,101.47
88050,2018-06-29 09:30:43.562500,-81.95,101.47
88051,2018-06-29 09:30:43.593750,-94.92,101.47
88052,2018-06-29 09:30:43.625000,-99.47,101.47
88053,2018-06-29 09:30:43.656250,-99.2,101.47
88054,2018-06-29 09:30:43.687500,-94.49,101.47
88055,2018-06-29 09:30:43.718750,-81.96,101.47
88056,2018-06-29 09:30:43.750000,-60.35,101.47
88057,2018-06-29 09:30:43.781250,-33.39,101.47
88058,2018-06-29 09:30:43.812500,-5.38,101.47
88059,2018-06-29 09:30:43.843750,24.84,101.47
88060,2018-06-29 09:30:43.875000,61.28,101.47
88061,2018-06-29 09:30:43.906250,100.23,101.47
88062,2018-06-29 09:30:43.937500,130.05,101.47
88063,2018-06-29 09:30:43.968750,145.52,101.47
88064,2018-06-29 09:30:44.000000,152.3,101.47
88065,2018-06-29 09:30:44.031250,153.23,101.47
88066,2018-06-29 09:30:44.062500,142.5,101.47
88067,2018-06-29 09:30:44.093750,118.55,101.47
88068,2018-06-29 09:30:44.125000,90.33,101.47
88069,2018-06-29 09:30:44.156250,65.75,101.47
88070,2018-06-29 09:30:44.187500,47.41,101.47
88071,2018-06-29 09:30:44.218750,40.17,101.47
88072,2018-06-29 09:30:44.250000,49.06,101.47
88073,2018-06-29 09:30:44.281250,70.32,101.47
88074,2018-06-29 09:30:44.312500,92.73,101.47
88075,2018-06-29 09:30:44.343750,103.6,101.47
88076,2018-06-29 09:30:44.375000,94.26,101.47
88077,2018-06-29 09:30:44.406250,68.0,101.47
88078,2018-06-29 09:30:44.437500,35.83,101.47
88079,2018-06-29 09:30:44.468750,0.21,101.47
88080,2018-06-29 09:30:44.500000,-43.91,101.47
88081,2018-06-29 09:30:44.531250,-93.16,101.63
88082,2018-06-29 09:30:44.562500,-134.49,101.63
88083,2018-06-29 09:30:44.593750,-156.38,101.63
88084,2018-06-29 09:30:44.625000,-155.94,101.63
88085,2018-06-29 09:30:44.656250,-141.0,101.63
88086,2018-06-29 09:30:44.687500,-125.08,101.63
88087,2018-06-29 09:30:44.718750,-114.55,101.63
88088,2018-06-29 09:30:44.750000,-104.93,101.63
88089,2018-06-29 09:30:44.781250,-88.77,101.63
88090,2018-06-29 09:30:44.812500,-62.18,101.63
88091,2018-06-29 09:30:44.843750,-28.3,101.63
88092,2018-06-29 09:30:44.875000,1.75,101.63
88093,2018-06-29 09:30:44.906250,17.9,101.63
88094,2018-06-29 09:30:44.937500,24.52,101.63
88095,2018-06-29 09:30:44.968750,36.82,101.63
88096,2018-06-29 09:30:45.000000,60.28,101.63
88097,2018-06-29 09:30:45.031250,83.36,101.63
88098,2018-06-29 09:30:45.062500,92.97,101.63
88099,2018-06-29 09:30:45.093750,88.88,101.63
88100,2018-06-29 09:30:45.125000,80.45,101.63
88101,2018-06-29 09:30:45.156250,75.78,101.63
88102,2018-06-29 09:30:45.187500,74.22,101.63
88103,2018-06-29 09:30:45.218750,67.26,101.63
88104,2018-06-29 09:30:45.250000,50.04,101.63
88105,2018-06-29 09:30:45.281250,32.17,101.63
88106,2018-06-29 09:30:45.312500,30.41,101.63
88107,2018-06-29 09:30:45.343750,49.84,101.63
88108,2018-06-29 09:30:45.375000,80.04,101.63
88109,2018-06-29 09:30:45.406250,107.8,101.63
88110,2018-06-29 09:30:45.437500,125.28,101.63
88111,2018-06-29 09:30:45.468750,130.05,101.63
88112,2018-06-29 09:30:45.500000,120.45,101.63
88113,2018-06-29 09:30:45.531250,87.04,101.78
88114,2018-06-29 09:30:45.562500,17.08,101.78
88115,2018-06-29 09:30:45.593750,-80.88,101.78
88116,2018-06-29 09:30:45.625000,-170.19,101.78
88117,2018-06-29 09:30:45.656250,-218.84,101.78
88118,2018-06-29 09:30:45.687500,-227.99,101.78
88119,2018-06-29 09:30:45.718750,-221.67,101.78
88120,2018-06-29 09:30:45.750000,-216.88,101.78
88121,2018-06-29 09:30:45.781250,-208.48,101.78
88122,2018-06-29 09:30:45.812500,-180.93,101.78
88123,2018-06-29 09:30:45.843750,-129.79,101.78
88124,2018-06-29 09:30:45.875000,-66.93,101.78
88125,2018-06-29 09:30:45.906250,-7.65,101.78
88126,2018-06-29 09:30:45.937500,37.17,101.78
88127,2018-06-29 09:30:45.968750,61.63,101.78
88128,2018-06-29 09:30:46.000000,70.09,101.78
88129,2018-06-29 09:30:46.031250,76.93,101.78
88130,2018-06-29 09:30:46.062500,92.38,101.78
88131,2018-06-29 09:30:46.093750,114.34,101.78
88132,2018-06-29 09:30:46.125000,136.56,101.78
88133,2018-06-29 09:30:46.156250,154.32,101.78
88134,2018-06-29 09:30:46.187500,158.93,101.78
88135,2018-06-29 09:30:46.218750,139.65,101.78
88136,2018-06-29 09:30:46.250000,97.28,101.78
88137,2018-06-29 09:30:46.281250,48.19,101.78
88138,2018-06-29 09:30:46.312500,9.2,101.78
88139,2018-06-29 09:30:46.343750,-15.32,101.78
88140,2018-06-29 09:30:46.375000,-27.37,101.78
88141,2018-06-29 09:30:46.406250,-25.04,101.78
88142,2018-06-29 09:30:46.437500,-3.78,101.78
88143,2018-06-29 09:30:46.468750,35.72,101.78
88144,2018-06-29 09:30:46.500000,81.67,101.78
88145,2018-06-29 09:30:46.531250,114.27,101.95
88146,2018-06-29 09:30:46.562500,122.77,101.95
88147,2018-06-29 09:30:46.593750,117.04,101.95
88148,2018-06-29 09:30:46.625000,107.3,101.95
88149,2018-06-29 09:30:46.656250,80.0,101.95
88150,2018-06-29 09:30:46.687500,15.78,101.95
88151,2018-06-29 09:30:46.718750,-75.61,101.95
88152,2018-06-29 09:30:46.750000,-158.25,101.95
88153,2018-06-29 09:30:46.781250,-202.55,101.95
88154,2018-06-29 09:30:46.812500,-204.55,101.95
88155,2018-06-29 09:30:46.843750,-181.36,101.95
88156,2018-06-29 09:30:46.875000,-155.48,101.95
88157,2018-06-29 09:30:46.906250,-139.63,101.95
88158,2018-06-29 09:30:46.937500,-131.88,101.95
88159,2018-06-29 09:30:46.968750,-120.85,101.95
88160,2018-06-29 09:30:47.000000,-96.72,101.95
88161,2018-06-29 09:30:47.031250,-64.81,101.95
88162,2018-06-29 09:30:47.062500,-44.82,101.95
88163,2018-06-29 09:30:47.093750,-46.14,101.95
88164,2018-06-29 09:30:47.125000,-49.49,101.95
88165,2018-06-29 09:30:47.156250,-26.07,101.95
88166,2018-06-29 09:30:47.187500,28.16,101.95
88167,2018-06-29 09:30:47.218750,89.39,101.95
88168,2018-06-29 09:30:47.250000,133.16,101.95
88169,2018-06-29 09:30:47.281250,150.95,101.95
88170,2018-06-29 09:30:47.312500,144.13,101.95
88171,2018-06-29 09:30:47.343750,118.85,101.95
88172,2018-06-29 09:30:47.375000,89.03,101.95
88173,2018-06-29 09:30:47.406250,70.11,101.95
88174,2018-06-29 09:30:47.437500,66.49,101.95
88175,2018-06-29 09:30:47.468750,72.2,101.95
88176,2018-06-29 09:30:47.500000,81.03,101.95
88177,2018-06-29 09:30:47.531250,90.26,102.1
88178,2018-06-29 09:30:47.562500,98.68,102.1
88179,2018-06-29 09:30:47.593750,104.4,102.1
88180,2018-06-29 09:30:47.625000,101.77,102.1
88181,2018-06-29 09:30:47.656250,83.83,102.1
88182,2018-06-29 09:30:47.687500,50.53,102.1
88183,2018-06-29 09:30:47.718750,5.45,102.1
88184,2018-06-29 09:30:47.750000,-52.65,102.1
88185,2018-06-29 09:30:47.781250,-120.88,102.1
88186,2018-06-29 09:30:47.812500,-178.04,102.1
88187,2018-06-29 09:30:47.843750,-198.49,102.1
88188,2018-06-29 09:30:47.875000,-181.19,102.1
88189,2018-06-29 09:30:47.906250,-149.93,102.1
88190,2018-06-29 09:30:47.937500,-124.91,102.1
88191,2018-06-29 09:30:47.968750,-108.41,102.1
88192,2018-06-29 09:30:48.000000,-96.6,102.1
88193,2018-06-29 09:30:48.031250,-87.28,102.1
88194,2018-06-29 09:30:48.062500,-73.98,102.1
88195,2018-06-29 09:30:48.093750,-48.23,102.1
88196,2018-06-29 09:30:48.125000,-11.59,102.1
88197,2018-06-29 09:30:48.156250,24.65,102.1
88198,2018-06-29 09:30:48.187500,53.39,102.1
88199,2018-06-29 09:30:48.218750,78.24,102.1
88200,2018-06-29 09:30:48.250000,103.96,102.1
88201,2018-06-29 09:30:48.281250,127.65,102.1
88202,2018-06-29 09:30:48.312500,142.47,102.1
88203,2018-06-29 09:30:48.343750,141.5,102.1
88204,2018-06-29 09:30:48.375000,117.14,102.1
88205,2018-06-29 09:30:48.406250,70.13,102.1
88206,2018-06-29 09:30:48.437500,17.97,102.1
88207,2018-06-29 09:30:48.468750,-16.89,102.1
88208,2018-06-29 09:30:48.500000,-25.1,102.1
88209,2018-06-29 09:30:48.531250,-9.66,102.17
88210,2018-06-29 09:30:48.562500,21.51,102.17
88211,2018-06-29 09:30:48.593750,54.49,102.17
88212,2018-06-29 09:30:48.625000,74.14,102.17
88213,2018-06-29 09:30:48.656250,78.63,102.17
88214,2018-06-29 09:30:48.687500,79.38,102.17
88215,2018-06-29 09:30:48.718750,77.61,102.17
88216,2018-06-29 09:30:48.750000,56.31,102.17
88217,2018-06-29 09:30:48.781250,7.77,102.17
88218,2018-06-29 09:30:48.812500,-48.99,102.17
88219,2018-06-29 09:30:48.843750,-93.99,102.17
88220,2018-06-29 09:30:48.875000,-127.84,102.17
88221,2018-06-29 09:30:48.906250,-153.66,102.17
88222,2018-06-29 09:30:48.937500,-164.21,102.17
88223,2018-06-29 09:30:48.968750,-159.68,102.17
88224,2018-06-29 09:30:49.000000,-153.27,102.17
88225,2018-06-29 09:30:49.031250,-150.73,102.17
88226,2018-06-29 09:30:49.062500,-144.51,102.17
88227,2018-06-29 09:30:49.093750,-129.66,102.17
88228,2018-06-29 09:30:49.125000,-107.42,102.17
88229,2018-06-29 09:30:49.156250,-75.86,102.17
88230,2018-06-29 09:30:49.187500,-32.12,102.17
88231,2018-06-29 09:30:49.218750,18.52,102.17
88232,2018-06-29 09:30:49.250000,64.48,102.17
88233,2018-06-29 09:30:49.281250,96.15,102.17
88234,2018-06-29 09:30:49.312500,110.48,102.17
88235,2018-06-29 09:30:49.343750,114.26,102.17
88236,2018-06-29 09:30:49.375000,120.54,102.17
88237,2018-06-29 09:30:49.406250,135.32,102.17
88238,2018-06-29 09:30:49.437500,151.5,102.17
88239,2018-06-29 09:30:49.468750,158.36,102.17
88240,2018-06-29 09:30:49.500000,149.96,102.17
88241,2018-06-29 09:30:49.531250,124.43,102.22
88242,2018-06-29 09:30:49.562500,84.41,102.22
88243,2018-06-29 09:30:49.593750,39.2,102.22
88244,2018-06-29 09:30:49.625000,0.11,102.22
88245,2018-06-29 09:30:49.656250,-26.28,102.22
88246,2018-06-29 09:30:49.687500,-37.43,102.22
88247,2018-06-29 09:30:49.718750,-32.69,102.22
88248,2018-06-29 09:30:49.750000,-15.28,102.22
88249,2018-06-29 09:30:49.781250,10.63,102.22
88250,2018-06-29 09:30:49.812500,43.95,102.22
88251,2018-06-29 09:30:49.843750,77.9,102.22
88252,2018-06-29 09:30:49.875000,96.78,102.22
88253,2018-06-29 09:30:49.906250,92.85,102.22
88254,2018-06-29 09:30:49.937500,72.84,102.22
88255,2018-06-29 09:30:49.968750,39.73,102.22
88256,2018-06-29 09:30:50.000000,-11.14,102.22
88257,2018-06-29 09:30:50.031250,-72.7,102.22
88258,2018-06-29 09:30:50.062500,-124.05,102.22
88259,2018-06-29 09:30:50.093750,-151.01,102.22
88260,2018-06-29 09:30:50.125000,-155.42,102.22
88261,2018-06-29 09:30:50.156250,-142.48,102.22
88262,2018-06-29 09:30:50.187500,-113.57,102.22
88263,2018-06-29 09:30:50.218750,-73.03,102.22
88264,2018-06-29 09:30:50.250000,-32.64,102.22
88265,2018-06-29 09:30:50.281250,-1.01,102.22
88266,2018-06-29 09:30:50.312500,26.75,102.22
88267,2018-06-29 09:30:50.343750,58.1,102.22
88268,2018-06-29 09:30:50.375000,91.79,102.22
88269,2018-06-29 09:30:50.406250,116.86,102.22
88270,2018-06-29 09:30:50.437500,127.16,102.22
88271,2018-06-29 09:30:50.468750,124.96,102.22
88272,2018-06-29 09:30:50.500000,114.89,102.22
88273,2018-06-29 09:30:50.531250,94.44,102.3
88274,2018-06-29 09:30:50.562500,55.24,102.3
88275,2018-06-29 09:30:50.593750,3.12,102.3
88276,2018-06-29 09:30:50.625000,-45.14,102.3
88277,2018-06-29 09:30:50.656250,-77.49,102.3
88278,2018-06-29 09:30:50.687500,-101.1,102.3
88279,2018-06-29 09:30:50.718750,-121.37,102.3
88280,2018-06-29 09:30:50.750000,-139.53,102.3
88281,2018-06-29 09:30:50.781250,-153.34,102.3
88282,2018-06-29 09:30:50.812500,-111.19,102.3
88283,2018-06-29 09:30:50.843750,-10.97,102.3
88284,2018-06-29 09:30:50.875000,95.1,102.3
88285,2018-06-29 09:30:50.906250,176.76,102.3
88286,2018-06-29 09:30:50.937500,232.82,102.3
88287,2018-06-29 09:30:50.968750,265.13,102.3
88288,2018-06-29 09:30:51.000000,273.69,102.3
88289,2018-06-29 09:30:51.031250,266.44,102.3
88290,2018-06-29 09:30:51.062500,252.28,102.3
88291,2018-06-29 09:30:51.093750,230.63,102.3
88292,2018-06-29 09:30:51.125000,196.12,102.3
88293,2018-06-29 09:30:51.156250,154.46,102.3
88294,2018-06-29 09:30:51.187500,114.8,102.3
88295,2018-06-29 09:30:51.218750,81.72,102.3
88296,2018-06-29 09:30:51.250000,50.62,102.3
88297,2018-06-29 09:30:51.281250,18.36,102.3
88298,2018-06-29 09:30:51.312500,-13.53,102.3
88299,2018-06-29 09:30:51.343750,-42.47,102.3
88300,2018-06-29 09:30:51.375000,-66.43,102.3
88301,2018-06-29 09:30:51.406250,-86.24,102.3
88302,2018-06-29 09:30:51.437500,-104.14,102.3
88303,2018-06-29 09:30:51.468750,-122.95,102.3
88304,2018-06-29 09:30:51.500000,-142.34,102.3
88305,2018-06-29 09:30:51.531250,-160.39,102.38
88306,2018-06-29 09:30:51.562500,-177.65,102.38
88307,2018-06-29 09:30:51.593750,-199.93,102.38
88308,2018-06-29 09:30:51.625000,-236.21,102.38
88309,2018-06-29 09:30:51.656250,-286.1,102.38
88310,2018-06-29 09:30:51.687500,-326.74,102.38
88311,2018-06-29 09:30:51.718750,-328.72,102.38
88312,2018-06-29 09:30:51.750000,-292.14,102.38
88313,2018-06-29 09:30:51.781250,-247.13,102.38
88314,2018-06-29 09:30:51.812500,-214.13,102.38
88315,2018-06-29 09:30:51.843750,-182.55,102.38
88316,2018-06-29 09:30:51.875000,-129.53,102.38
88317,2018-06-29 09:30:51.906250,-46.73,102.38
88318,2018-06-29 09:30:51.937500,51.15,102.38
88319,2018-06-29 09:30:51.968750,136.55,102.38
88320,2018-06-29 09:30:52.000000,187.05,102.38
88321,2018-06-29 09:30:52.031250,196.59,102.38
88322,2018-06-29 09:30:52.062500,175.53,102.38
88323,2018-06-29 09:30:52.093750,141.2,102.38
88324,2018-06-29 09:30:52.125000,106.53,102.38
88325,2018-06-29 09:30:52.156250,77.25,102.38
88326,2018-06-29 09:30:52.187500,55.71,102.38
88327,2018-06-29 09:30:52.218750,41.56,102.38
88328,2018-06-29 09:30:52.250000,32.97,102.38
88329,2018-06-29 09:30:52.281250,26.23,102.38
88330,2018-06-29 09:30:52.312500,11.38,102.38
88331,2018-06-29 09:30:52.343750,-23.13,102.38
88332,2018-06-29 09:30:52.375000,-74.3,102.38
88333,2018-06-29 09:30:52.406250,-122.99,102.38
88334,2018-06-29 09:30:52.437500,-156.59,102.38
88335,2018-06-29 09:30:52.468750,-183.1,102.38
88336,2018-06-29 09:30:52.500000,-215.45,102.38
88337,2018-06-29 09:30:52.531250,-251.23,102.48
88338,2018-06-29 09:30:52.562500,-268.53,102.48
88339,2018-06-29 09:30:52.593750,-235.61,102.48
88340,2018-06-29 09:30:52.625000,-142.37,102.48
88341,2018-06-29 09:30:52.656250,-28.48,102.48
88342,2018-06-29 09:30:52.687500,50.68,102.48
88343,2018-06-29 09:30:52.718750,84.76,102.48
88344,2018-06-29 09:30:52.750000,101.0,102.48
88345,2018-06-29 09:30:52.781250,112.26,102.48
88346,2018-06-29 09:30:52.812500,109.95,102.48
88347,2018-06-29 09:30:52.843750,86.93,102.48
88348,2018-06-29 09:30:52.875000,38.13,102.48
88349,2018-06-29 09:30:52.906250,-43.07,102.48
88350,2018-06-29 09:30:52.937500,-146.02,102.48
88351,2018-06-29 09:30:52.968750,-226.4,102.48
88352,2018-06-29 09:30:53.000000,-236.15,102.48
88353,2018-06-29 09:30:53.031250,-181.22,102.48
88354,2018-06-29 09:30:53.062500,-120.22,102.48
88355,2018-06-29 09:30:53.093750,-94.25,102.48
88356,2018-06-29 09:30:53.125000,-95.02,102.48
88357,2018-06-29 09:30:53.156250,-100.17,102.48
88358,2018-06-29 09:30:53.187500,-100.56,102.48
88359,2018-06-29 09:30:53.218750,-93.56,102.48
88360,2018-06-29 09:30:53.250000,-83.12,102.48
88361,2018-06-29 09:30:53.281250,-79.9,102.48
88362,2018-06-29 09:30:53.312500,-84.31,102.48
88363,2018-06-29 09:30:53.343750,-86.4,102.48
88364,2018-06-29 09:30:53.375000,-77.67,102.48
88365,2018-06-29 09:30:53.406250,-59.13,102.48
88366,2018-06-29 09:30:53.437500,-35.93,102.48
88367,2018-06-29 09:30:53.468750,-16.06,102.48
88368,2018-06-29 09:30:53.500000,-1.9,102.48
88369,2018-06-29 09:30:53.531250,20.7,102.53
88370,2018-06-29 09:30:53.562500,76.19,102.53
88371,2018-06-29 09:30:53.593750,177.92,102.53
88372,2018-06-29 09:30:53.625000,302.21,102.53
88373,2018-06-29 09:30:53.656250,406.28,102.53
88374,2018-06-29 09:30:53.687500,430.68,102.53
88375,2018-06-29 09:30:53.718750,335.72,102.53
88376,2018-06-29 09:30:53.750000,196.5,102.53
88377,2018-06-29 09:30:53.781250,92.74,102.53
88378,2018-06-29 09:30:53.812500,27.68,102.53
88379,2018-06-29 09:30:53.843750,-5.8,102.53
88380,2018-06-29 09:30:53.875000,-22.99,102.53
88381,2018-06-29 09:30:53.906250,-52.41,102.53
88382,2018-06-29 09:30:53.937500,-101.2,102.53
88383,2018-06-29 09:30:53.968750,-148.91,102.53
88384,2018-06-29 09:30:54.000000,-169.59,102.53
88385,2018-06-29 09:30:54.031250,-150.36,102.53
88386,2018-06-29 09:30:54.062500,-99.49,102.53
88387,2018-06-29 09:30:54.093750,-40.27,102.53
88388,2018-06-29 09:30:54.125000,7.4,102.53
88389,2018-06-29 09:30:54.156250,41.03,102.53
88390,2018-06-29 09:30:54.187500,64.47,102.53
88391,2018-06-29 09:30:54.218750,80.77,102.53
88392,2018-06-29 09:30:54.250000,95.07,102.53
88393,2018-06-29 09:30:54.281250,109.18,102.53
88394,2018-06-29 09:30:54.312500,113.89,102.53
88395,2018-06-29 09:30:54.343750,97.66,102.53
88396,2018-06-29 09:30:54.375000,62.53,102.53
88397,2018-06-29 09:30:54.406250,19.5,102.53
88398,2018-06-29 09:30:54.437500,-24.65,102.53
88399,2018-06-29 09:30:54.468750,-66.58,102.53
88400,2018-06-29 09:30:54.500000,-100.53,102.53
88401,2018-06-29 09:30:54.531250,-121.99,102.55
88402,2018-06-29 09:30:54.562500,-131.38,102.55
88403,2018-06-29 09:30:54.593750,-131.47,102.55
88404,2018-06-29 09:30:54.625000,-128.01,102.55
88405,2018-06-29 09:30:54.656250,-126.1,102.55
88406,2018-06-29 09:30:54.687500,-118.54,102.55
88407,2018-06-29 09:30:54.718750,-89.74,102.55
88408,2018-06-29 09:30:54.750000,-35.62,102.55
88409,2018-06-29 09:30:54.781250,32.46,102.55
88410,2018-06-29 09:30:54.812500,100.87,102.55
88411,2018-06-29 09:30:54.843750,157.81,102.55
88412,2018-06-29 09:30:54.875000,193.76,102.55
88413,2018-06-29 09:30:54.906250,208.65,102.55
88414,2018-06-29 09:30:54.937500,208.86,102.55
88415,2018-06-29 09:30:54.968750,196.12,102.55
88416,2018-06-29 09:30:55.000000,170.3,102.55
88417,2018-06-29 09:30:55.031250,139.35,102.55
88418,2018-06-29 09:30:55.062500,114.83,102.55
88419,2018-06-29 09:30:55.093750,99.66,102.55
88420,2018-06-29 09:30:55.125000,89.07,102.55
88421,2018-06-29 09:30:55.156250,80.95,102.55
88422,2018-06-29 09:30:55.187500,77.53,102.55
88423,2018-06-29 09:30:55.218750,80.82,102.55
88424,2018-06-29 09:30:55.250000,88.72,102.55
88425,2018-06-29 09:30:55.281250,91.2,102.55
88426,2018-06-29 09:30:55.312500,73.12,102.55
88427,2018-06-29 09:30:55.343750,36.2,102.55
88428,2018-06-29 09:30:55.375000,5.81,102.55
88429,2018-06-29 09:30:55.406250,-1.53,102.55
88430,2018-06-29 09:30:55.437500,3.3,102.55
88431,2018-06-29 09:30:55.468750,6.96,102.55
88432,2018-06-29 09:30:55.500000,14.73,102.55
88433,2018-06-29 09:30:55.531250,25.16,102.42
88434,2018-06-29 09:30:55.562500,29.25,102.42
88435,2018-06-29 09:30:55.593750,33.09,102.42
88436,2018-06-29 09:30:55.625000,58.85,102.42
88437,2018-06-29 09:30:55.656250,112.91,102.42
88438,2018-06-29 09:30:55.687500,170.72,102.42
88439,2018-06-29 09:30:55.718750,214.18,102.42
88440,2018-06-29 09:30:55.750000,248.23,102.42
88441,2018-06-29 09:30:55.781250,290.56,102.42
88442,2018-06-29 09:30:55.812500,324.1,102.42
88443,2018-06-29 09:30:55.843750,323.93,102.42
88444,2018-06-29 09:30:55.875000,296.07,102.42
88445,2018-06-29 09:30:55.906250,273.33,102.42
88446,2018-06-29 09:30:55.937500,273.72,102.42
88447,2018-06-29 09:30:55.968750,270.97,102.42
88448,2018-06-29 09:30:56.000000,238.83,102.42
88449,2018-06-29 09:30:56.031250,97.64,102.42
88450,2018-06-29 09:30:56.062500,-141.61,102.42
88451,2018-06-29 09:30:56.093750,-309.86,102.42
88452,2018-06-29 09:30:56.125000,-361.61,102.42
88453,2018-06-29 09:30:56.156250,-360.26,102.42
88454,2018-06-29 09:30:56.187500,-340.85,102.42
88455,2018-06-29 09:30:56.218750,-298.23,102.42
88456,2018-06-29 09:30:56.250000,-242.52,102.42
88457,2018-06-29 09:30:56.281250,-183.38,102.42
88458,2018-06-29 09:30:56.312500,-122.74,102.42
88459,2018-06-29 09:30:56.343750,-65.64,102.42
88460,2018-06-29 09:30:56.375000,-40.11,102.42
88461,2018-06-29 09:30:56.406250,-62.99,102.42
88462,2018-06-29 09:30:56.437500,-132.14,102.42
88463,2018-06-29 09:30:56.468750,-213.42,102.42
88464,2018-06-29 09:30:56.500000,-263.66,102.42
88465,2018-06-29 09:30:56.531250,-273.52,102.25
88466,2018-06-29 09:30:56.562500,-260.06,102.25
88467,2018-06-29 09:30:56.593750,-240.7,102.25
88468,2018-06-29 09:30:56.625000,-225.48,102.25
88469,2018-06-29 09:30:56.656250,-228.91,102.25
88470,2018-06-29 09:30:56.687500,-251.29,102.25
88471,2018-06-29 09:30:56.718750,-260.93,102.25
88472,2018-06-29 09:30:56.750000,-225.12,102.25
88473,2018-06-29 09:30:56.781250,-151.38,102.25
88474,2018-06-29 09:30:56.812500,-75.59,102.25
88475,2018-06-29 09:30:56.843750,-19.08,102.25
88476,2018-06-29 09:30:56.875000,20.3,102.25
88477,2018-06-29 09:30:56.906250,47.75,102.25
88478,2018-06-29 09:30:56.937500,64.9,102.25
88479,2018-06-29 09:30:56.968750,77.47,102.25
88480,2018-06-29 09:30:57.000000,95.21,102.25
88481,2018-06-29 09:30:57.031250,121.34,102.25
88482,2018-06-29 09:30:57.062500,146.91,102.25
88483,2018-06-29 09:30:57.093750,159.12,102.25
88484,2018-06-29 09:30:57.125000,154.15,102.25
88485,2018-06-29 09:30:57.156250,137.6,102.25
88486,2018-06-29 09:30:57.187500,113.39,102.25
88487,2018-06-29 09:30:57.218750,81.66,102.25
88488,2018-06-29 09:30:57.250000,47.94,102.25
88489,2018-06-29 09:30:57.281250,23.65,102.25
88490,2018-06-29 09:30:57.312500,14.34,102.25
88491,2018-06-29 09:30:57.343750,13.13,102.25
88492,2018-06-29 09:30:57.375000,9.76,102.25
88493,2018-06-29 09:30:57.406250,6.26,102.25
88494,2018-06-29 09:30:57.437500,19.51,102.25
88495,2018-06-29 09:30:57.468750,62.36,102.25
88496,2018-06-29 09:30:57.500000,123.43,102.25
88497,2018-06-29 09:30:57.531250,169.32,101.93
88498,2018-06-29 09:30:57.562500,170.73,101.93
88499,2018-06-29 09:30:57.593750,130.91,101.93
88500,2018-06-29 09:30:57.625000,80.56,101.93
88501,2018-06-29 09:30:57.656250,41.14,101.93
88502,2018-06-29 09:30:57.687500,6.84,101.93
88503,2018-06-29 09:30:57.718750,-30.92,101.93
88504,2018-06-29 09:30:57.750000,-67.48,101.93
88505,2018-06-29 09:30:57.781250,-94.47,101.93
88506,2018-06-29 09:30:57.812500,-104.51,101.93
88507,2018-06-29 09:30:57.843750,-91.01,101.93
88508,2018-06-29 09:30:57.875000,-55.66,101.93
88509,2018-06-29 09:30:57.906250,-16.1,101.93
88510,2018-06-29 09:30:57.937500,15.97,101.93
88511,2018-06-29 09:30:57.968750,43.36,101.93
88512,2018-06-29 09:30:58.000000,74.55,101.93
88513,2018-06-29 09:30:58.031250,105.55,101.93
88514,2018-06-29 09:30:58.062500,123.26,101.93
88515,2018-06-29 09:30:58.093750,126.29,101.93
88516,2018-06-29 09:30:58.125000,132.64,101.93
88517,2018-06-29 09:30:58.156250,161.46,101.93
88518,2018-06-29 09:30:58.187500,193.42,101.93
88519,2018-06-29 09:30:58.218750,194.06,101.93
88520,2018-06-29 09:30:58.250000,155.21,101.93
88521,2018-06-29 09:30:58.281250,89.86,101.93
88522,2018-06-29 09:30:58.312500,52.87,101.93
88523,2018-06-29 09:30:58.343750,39.51,101.93
88524,2018-06-29 09:30:58.375000,36.95,101.93
88525,2018-06-29 09:30:58.406250,37.04,101.93
88526,2018-06-29 09:30:58.437500,27.81,101.93
88527,2018-06-29 09:30:58.468750,-9.18,101.93
88528,2018-06-29 09:30:58.500000,-62.0,101.93
88529,2018-06-29 09:30:58.531250,-105.24,101.63
88530,2018-06-29 09:30:58.562500,-133.98,101.63
88531,2018-06-29 09:30:58.593750,-163.74,101.63
88532,2018-06-29 09:30:58.625000,-197.77,101.63
88533,2018-06-29 09:30:58.656250,-221.07,101.63
88534,2018-06-29 09:30:58.687500,-223.11,101.63
88535,2018-06-29 09:30:58.718750,-204.31,101.63
88536,2018-06-29 09:30:58.750000,-175.54,101.63
88537,2018-06-29 09:30:58.781250,-147.84,101.63
88538,2018-06-29 09:30:58.812500,-128.71,101.63
88539,2018-06-29 09:30:58.843750,-117.07,101.63
88540,2018-06-29 09:30:58.875000,-103.26,101.63
88541,2018-06-29 09:30:58.906250,-73.08,101.63
88542,2018-06-29 09:30:58.937500,-22.22,101.63
88543,2018-06-29 09:30:58.968750,33.4,101.63
88544,2018-06-29 09:30:59.000000,73.8,101.63
88545,2018-06-29 09:30:59.031250,93.02,101.63
88546,2018-06-29 09:30:59.062500,98.34,101.63
88547,2018-06-29 09:30:59.093750,101.54,101.63
88548,2018-06-29 09:30:59.125000,106.97,101.63
88549,2018-06-29 09:30:59.156250,97.36,101.63
88550,2018-06-29 09:30:59.187500,51.58,101.63
88551,2018-06-29 09:30:59.218750,-17.3,101.63
88552,2018-06-29 09:30:59.250000,-64.25,101.63
88553,2018-06-29 09:30:59.281250,-60.41,101.63
88554,2018-06-29 09:30:59.312500,-24.53,101.63
88555,2018-06-29 09:30:59.343750,-1.17,101.63
88556,2018-06-29 09:30:59.375000,-17.69,101.63
88557,2018-06-29 09:30:59.406250,-69.15,101.63
88558,2018-06-29 09:30:59.437500,-133.34,101.63
88559,2018-06-29 09:30:59.468750,-183.0,101.63
88560,2018-06-29 09:30:59.500000,-191.98,101.63
88561,2018-06-29 09:30:59.531250,-153.67,101.37
88562,2018-06-29 09:30:59.562500,-89.74,101.37
88563,2018-06-29 09:30:59.593750,-28.55,101.37
88564,2018-06-29 09:30:59.625000,18.83,101.37
88565,2018-06-29 09:30:59.656250,54.98,101.37
88566,2018-06-29 09:30:59.687500,81.41,101.37
88567,2018-06-29 09:30:59.718750,98.25,101.37
88568,2018-06-29 09:30:59.750000,107.41,101.37
88569,2018-06-29 09:30:59.781250,104.94,101.37
88570,2018-06-29 09:30:59.812500,79.02,101.37
88571,2018-06-29 09:30:59.843750,26.11,101.37
88572,2018-06-29 09:30:59.875000,-36.66,101.37
88573,2018-06-29 09:30:59.906250,-84.23,101.37
88574,2018-06-29 09:30:59.937500,-105.04,101.37
88575,2018-06-29 09:30:59.968750,-103.24,101.37
88576,2018-06-29 09:31:00.000000,-88.83,101.37
88577,2018-06-29 09:31:00.031250,-71.72,101.37
88578,2018-06-29 09:31:00.062500,-60.69,101.37
88579,2018-06-29 09:31:00.093750,-59.27,101.37
88580,2018-06-29 09:31:00.125000,-63.01,101.37
88581,2018-06-29 09:31:00.156250,-61.6,101.37
88582,2018-06-29 09:31:00.187500,-45.03,101.37
88583,2018-06-29 09:31:00.218750,-11.93,101.37
88584,2018-06-29 09:31:00.250000,30.95,101.37
88585,2018-06-29 09:31:00.281250,75.25,101.37
88586,2018-06-29 09:31:00.312500,115.66,101.37
88587,2018-06-29 09:31:00.343750,144.96,101.37
88588,2018-06-29 09:31:00.375000,160.08,101.37
88589,2018-06-29 09:31:00.406250,168.3,101.37
88590,2018-06-29 09:31:00.437500,176.74,101.37
88591,2018-06-29 09:31:00.468750,179.94,101.37
88592,2018-06-29 09:31:00.500000,165.0,101.37
88593,2018-06-29 09:31:00.531250,139.94,101.17
88594,2018-06-29 09:31:00.562500,123.57,101.17
88595,2018-06-29 09:31:00.593750,124.7,101.17
88596,2018-06-29 09:31:00.625000,131.24,101.17
88597,2018-06-29 09:31:00.656250,134.25,101.17
88598,2018-06-29 09:31:00.687500,137.09,101.17
88599,2018-06-29 09:31:00.718750,146.08,101.17
88600,2018-06-29 09:31:00.750000,162.67,101.17
88601,2018-06-29 09:31:00.781250,164.31,101.17
88602,2018-06-29 09:31:00.812500,130.93,101.17
88603,2018-06-29 09:31:00.843750,60.4,101.17
88604,2018-06-29 09:31:00.875000,-24.38,101.17
88605,2018-06-29 09:31:00.906250,-56.03,101.17
88606,2018-06-29 09:31:00.937500,-53.62,101.17
88607,2018-06-29 09:31:00.968750,-49.54,101.17
88608,2018-06-29 09:31:01.000000,-57.54,101.17
88609,2018-06-29 09:31:01.031250,-75.28,101.17
88610,2018-06-29 09:31:01.062500,-112.82,101.17
88611,2018-06-29 09:31:01.093750,-168.58,101.17
88612,2018-06-29 09:31:01.125000,-220.9,101.17
88613,2018-06-29 09:31:01.156250,-241.93,101.17
88614,2018-06-29 09:31:01.187500,-236.42,101.17
88615,2018-06-29 09:31:01.218750,-224.72,101.17
88616,2018-06-29 09:31:01.250000,-208.78,101.17
88617,2018-06-29 09:31:01.281250,-179.86,101.17
88618,2018-06-29 09:31:01.312500,-140.15,101.17
88619,2018-06-29 09:31:01.343750,-103.18,101.17
88620,2018-06-29 09:31:01.375000,-69.6,101.17
88621,2018-06-29 09:31:01.406250,-37.34,101.17
88622,2018-06-29 09:31:01.437500,-11.85,101.17
88623,2018-06-29 09:31:01.468750,-0.9,101.17
88624,2018-06-29 09:31:01.500000,-0.98,101.17
88625,2018-06-29 09:31:01.531250,0.84,100.9
88626,2018-06-29 09:31:01.562500,15.21,100.9
88627,2018-06-29 09:31:01.593750,43.16,100.9
88628,2018-06-29 09:31:01.625000,77.67,100.9
88629,2018-06-29 09:31:01.656250,113.75,100.9
88630,2018-06-29 09:31:01.687500,149.03,100.9
88631,2018-06-29 09:31:01.718750,178.91,100.9
88632,2018-06-29 09:31:01.750000,196.88,100.9
88633,2018-06-29 09:31:01.781250,200.85,100.9
88634,2018-06-29 09:31:01.812500,198.34,100.9
88635,2018-06-29 09:31:01.843750,200.45,100.9
88636,2018-06-29 09:31:01.875000,203.65,100.9
88637,2018-06-29 09:31:01.906250,186.41,100.9
88638,2018-06-29 09:31:01.937500,140.35,100.9
88639,2018-06-29 09:31:01.968750,87.44,100.9
88640,2018-06-29 09:31:02.000000,51.26,100.9
88641,2018-06-29 09:31:02.031250,36.99,100.9
88642,2018-06-29 09:31:02.062500,40.7,100.9
88643,2018-06-29 09:31:02.093750,47.39,100.9
88644,2018-06-29 09:31:02.125000,30.07,100.9
88645,2018-06-29 09:31:02.156250,-21.97,100.9
88646,2018-06-29 09:31:02.187500,-90.16,100.9
88647,2018-06-29 09:31:02.218750,-150.47,100.9
88648,2018-06-29 09:31:02.250000,-187.95,100.9
88649,2018-06-29 09:31:02.281250,-193.14,100.9
88650,2018-06-29 09:31:02.312500,-167.93,100.9
88651,2018-06-29 09:31:02.343750,-130.35,100.9
88652,2018-06-29 09:31:02.375000,-99.54,100.9
88653,2018-06-29 09:31:02.406250,-76.73,100.9
88654,2018-06-29 09:31:02.437500,-48.91,100.9
88655,2018-06-29 09:31:02.468750,-11.39,100.9
88656,2018-06-29 09:31:02.500000,21.44,100.9
88657,2018-06-29 09:31:02.531250,31.38,100.65
88658,2018-06-29 09:31:02.562500,13.92,100.65
88659,2018-06-29 09:31:02.593750,-16.48,100.65
88660,2018-06-29 09:31:02.625000,-33.08,100.65
88661,2018-06-29 09:31:02.656250,-22.04,100.65
88662,2018-06-29 09:31:02.687500,1.44,100.65
88663,2018-06-29 09:31:02.718750,20.4,100.65
88664,2018-06-29 09:31:02.750000,39.38,100.65
88665,2018-06-29 09:31:02.781250,55.18,100.65
88666,2018-06-29 09:31:02.812500,39.74,100.65
88667,2018-06-29 09:31:02.843750,-20.26,100.65
88668,2018-06-29 09:31:02.875000,-94.81,100.65
88669,2018-06-29 09:31:02.906250,-139.42,100.65
88670,2018-06-29 09:31:02.937500,-138.84,100.65
88671,2018-06-29 09:31:02.968750,-111.77,100.65
88672,2018-06-29 09:31:03.000000,-74.77,100.65
88673,2018-06-29 09:31:03.031250,-20.98,100.65
88674,2018-06-29 09:31:03.062500,50.4,100.65
88675,2018-06-29 09:31:03.093750,107.63,100.65
88676,2018-06-29 09:31:03.125000,115.55,100.65
88677,2018-06-29 09:31:03.156250,72.9,100.65
88678,2018-06-29 09:31:03.187500,3.31,100.65
88679,2018-06-29 09:31:03.218750,-69.63,100.65
88680,2018-06-29 09:31:03.250000,-124.74,100.65
88681,2018-06-29 09:31:03.281250,-142.01,100.65
88682,2018-06-29 09:31:03.312500,-119.07,100.65
88683,2018-06-29 09:31:03.343750,-78.62,100.65
88684,2018-06-29 09:31:03.375000,-44.76,100.65
88685,2018-06-29 09:31:03.406250,-21.1,100.65
88686,2018-06-29 09:31:03.437500,-1.93,100.65
88687,2018-06-29 09:31:03.468750,13.03,100.65
88688,2018-06-29 09:31:03.500000,26.2,100.65
88689,2018-06-29 09:31:03.531250,43.27,100.38
88690,2018-06-29 09:31:03.562500,59.24,100.38
88691,2018-06-29 09:31:03.593750,63.45,100.38
88692,2018-06-29 09:31:03.625000,55.38,100.38
88693,2018-06-29 09:31:03.656250,40.91,100.38
88694,2018-06-29 09:31:03.687500,27.71,100.38
88695,2018-06-29 09:31:03.718750,31.42,100.38
88696,2018-06-29 09:31:03.750000,61.57,100.38
88697,2018-06-29 09:31:03.781250,98.79,100.38
88698,2018-06-29 09:31:03.812500,109.54,100.38
88699,2018-06-29 09:31:03.843750,79.44,100.38
88700,2018-06-29 09:31:03.875000,19.91,100.38
88701,2018-06-29 09:31:03.906250,-46.97,100.38
88702,2018-06-29 09:31:03.937500,-101.14,100.38
88703,2018-06-29 09:31:03.968750,-131.01,100.38
88704,2018-06-29 09:31:04.000000,-137.61,100.38
88705,2018-06-29 09:31:04.031250,-132.34,100.38
88706,2018-06-29 09:31:04.062500,-126.66,100.38
88707,2018-06-29 09:31:04.093750,-122.54,100.38
88708,2018-06-29 09:31:04.125000,-114.04,100.38
88709,2018-06-29 09:31:04.156250,-98.84,100.38
88710,2018-06-29 09:31:04.187500,-84.25,100.38
88711,2018-06-29 09:31:04.218750,-78.05,100.38
88712,2018-06-29 09:31:04.250000,-77.33,100.38
88713,2018-06-29 09:31:04.281250,-72.13,100.38
88714,2018-06-29 09:31:04.312500,-58.88,100.38
88715,2018-06-29 09:31:04.343750,-44.13,100.38
88716,2018-06-29 09:31:04.375000,-34.95,100.38
88717,2018-06-29 09:31:04.406250,-31.71,100.38
88718,2018-06-29 09:31:04.437500,-31.75,100.38
88719,2018-06-29 09:31:04.468750,-33.3,100.38
88720,2018-06-29 09:31:04.500000,-33.36,100.38
88721,2018-06-29 09:31:04.531250,-27.4,100.1
88722,2018-06-29 09:31:04.562500,-13.97,100.1
88723,2018-06-29 09:31:04.593750,3.37,100.1
88724,2018-06-29 09:31:04.625000,20.69,100.1
88725,2018-06-29 09:31:04.656250,36.98,100.1
88726,2018-06-29 09:31:04.687500,51.27,100.1
88727,2018-06-29 09:31:04.718750,59.15,100.1
88728,2018-06-29 09:31:04.750000,56.82,100.1
88729,2018-06-29 09:31:04.781250,47.42,100.1
88730,2018-06-29 09:31:04.812500,38.13,100.1
88731,2018-06-29 09:31:04.843750,31.31,100.1
88732,2018-06-29 09:31:04.875000,23.07,100.1
88733,2018-06-29 09:31:04.906250,9.81,100.1
88734,2018-06-29 09:31:04.937500,-6.04,100.1
88735,2018-06-29 09:31:04.968750,-14.51,100.1
88736,2018-06-29 09:31:05.000000,-3.47,100.1
88737,2018-06-29 09:31:05.031250,28.17,100.1
88738,2018-06-29 09:31:05.062500,66.22,100.1
88739,2018-06-29 09:31:05.093750,96.28,100.1
88740,2018-06-29 09:31:05.125000,117.08,100.1
88741,2018-06-29 09:31:05.156250,133.96,100.1
88742,2018-06-29 09:31:05.187500,148.01,100.1
88743,2018-06-29 09:31:05.218750,156.28,100.1
88744,2018-06-29 09:31:05.250000,153.6,100.1
88745,2018-06-29 09:31:05.281250,131.59,100.1
88746,2018-06-29 09:31:05.312500,84.79,100.1
88747,2018-06-29 09:31:05.343750,19.47,100.1
88748,2018-06-29 09:31:05.375000,-48.5,100.1
88749,2018-06-29 09:31:05.406250,-102.92,100.1
88750,2018-06-29 09:31:05.437500,-135.16,100.1
88751,2018-06-29 09:31:05.468750,-148.1,100.1
88752,2018-06-29 09:31:05.500000,-151.96,100.1
88753,2018-06-29 09:31:05.531250,-154.54,99.82
88754,2018-06-29 09:31:05.562500,-157.45,99.82
88755,2018-06-29 09:31:05.593750,-157.93,99.82
88756,2018-06-29 09:31:05.625000,-148.38,99.82
88757,2018-06-29 09:31:05.656250,-119.53,99.82
88758,2018-06-29 09:31:05.687500,-71.13,99.82
88759,2018-06-29 09:31:05.718750,-15.78,99.82
88760,2018-06-29 09:31:05.750000,31.94,99.82
88761,2018-06-29 09:31:05.781250,66.23,99.82
88762,2018-06-29 09:31:05.812500,87.75,99.82
88763,2018-06-29 09:31:05.843750,97.3,99.82
88764,2018-06-29 09:31:05.875000,97.0,99.82
88765,2018-06-29 09:31:05.906250,93.59,99.82
88766,2018-06-29 09:31:05.937500,93.28,99.82
88767,2018-06-29 09:31:05.968750,94.24,99.82
88768,2018-06-29 09:31:06.000000,89.31,99.82
88769,2018-06-29 09:31:06.031250,75.24,99.82
88770,2018-06-29 09:31:06.062500,56.21,99.82
88771,2018-06-29 09:31:06.093750,40.67,99.82
88772,2018-06-29 09:31:06.125000,36.17,99.82
88773,2018-06-29 09:31:06.156250,44.11,99.82
88774,2018-06-29 09:31:06.187500,59.56,99.82
88775,2018-06-29 09:31:06.218750,76.91,99.82
88776,2018-06-29 09:31:06.250000,90.63,99.82
88777,2018-06-29 09:31:06.281250,93.34,99.82
88778,2018-06-29 09:31:06.312500,81.51,99.82
88779,2018-06-29 09:31:06.343750,60.5,99.82
88780,2018-06-29 09:31:06.375000,36.7,99.82
88781,2018-06-29 09:31:06.406250,9.32,99.82
88782,2018-06-29 09:31:06.437500,-24.05,99.82
88783,2018-06-29 09:31:06.468750,-59.62,99.82
88784,2018-06-29 09:31:06.500000,-89.79,99.82
88785,2018-06-29 09:31:06.531250,-109.8,99.5
88786,2018-06-29 09:31:06.562500,-119.21,99.5
88787,2018-06-29 09:31:06.593750,-119.41,99.5
88788,2018-06-29 09:31:06.625000,-111.75,99.5
88789,2018-06-29 09:31:06.656250,-97.71,99.5
88790,2018-06-29 09:31:06.687500,-79.64,99.5
88791,2018-06-29 09:31:06.718750,-60.1,99.5
88792,2018-06-29 09:31:06.750000,-39.74,99.5
88793,2018-06-29 09:31:06.781250,-18.35,99.5
88794,2018-06-29 09:31:06.812500,-0.08,99.5
88795,2018-06-29 09:31:06.843750,6.1,99.5
88796,2018-06-29 09:31:06.875000,-2.31,99.5
88797,2018-06-29 09:31:06.906250,-12.43,99.5
88798,2018-06-29 09:31:06.937500,-6.74,99.5
88799,2018-06-29 09:31:06.968750,19.0,99.5
88800,2018-06-29 09:31:07.000000,55.03,99.5
88801,2018-06-29 09:31:07.031250,88.81,99.5
88802,2018-06-29 09:31:07.062500,108.56,99.5
88803,2018-06-29 09:31:07.093750,105.01,99.5
88804,2018-06-29 09:31:07.125000,80.03,99.5
88805,2018-06-29 09:31:07.156250,48.33,99.5
88806,2018-06-29 09:31:07.187500,25.93,99.5
88807,2018-06-29 09:31:07.218750,21.12,99.5
88808,2018-06-29 09:31:07.250000,33.39,99.5
88809,2018-06-29 09:31:07.281250,55.4,99.5
88810,2018-06-29 09:31:07.312500,79.1,99.5
88811,2018-06-29 09:31:07.343750,100.58,99.5
88812,2018-06-29 09:31:07.375000,116.26,99.5
88813,2018-06-29 09:31:07.406250,118.59,99.5
88814,2018-06-29 09:31:07.437500,98.55,99.5
88815,2018-06-29 09:31:07.468750,51.04,99.5
88816,2018-06-29 09:31:07.500000,-20.77,99.5
88817,2018-06-29 09:31:07.531250,-102.78,99.2
88818,2018-06-29 09:31:07.562500,-173.88,99.2
88819,2018-06-29 09:31:07.593750,-214.85,99.2
88820,2018-06-29 09:31:07.625000,-217.52,99.2
88821,2018-06-29 09:31:07.656250,-190.32,99.2
88822,2018-06-29 09:31:07.687500,-152.65,99.2
88823,2018-06-29 09:31:07.718750,-118.47,99.2
88824,2018-06-29 09:31:07.750000,-88.07,99.2
88825,2018-06-29 09:31:07.781250,-56.26,99.2
88826,2018-06-29 09:31:07.812500,-21.58,99.2
88827,2018-06-29 09:31:07.843750,14.03,99.2
88828,2018-06-29 09:31:07.875000,46.02,99.2
88829,2018-06-29 09:31:07.906250,65.9,99.2
88830,2018-06-29 09:31:07.937500,67.85,99.2
88831,2018-06-29 09:31:07.968750,59.63,99.2
88832,2018-06-29 09:31:08.000000,58.16,99.2
88833,2018-06-29 09:31:08.031250,72.11,99.2
88834,2018-06-29 09:31:08.062500,95.49,99.2
88835,2018-06-29 09:31:08.093750,116.81,99.2
88836,2018-06-29 09:31:08.125000,127.3,99.2
88837,2018-06-29 09:31:08.156250,121.13,99.2
88838,2018-06-29 09:31:08.187500,95.79,99.2
88839,2018-06-29 09:31:08.218750,55.08,99.2
88840,2018-06-29 09:31:08.250000,8.97,99.2
88841,2018-06-29 09:31:08.281250,-29.53,99.2
88842,2018-06-29 09:31:08.312500,-47.11,99.2
88843,2018-06-29 09:31:08.343750,-34.46,99.2
88844,2018-06-29 09:31:08.375000,6.13,99.2
88845,2018-06-29 09:31:08.406250,60.39,99.2
88846,2018-06-29 09:31:08.437500,113.01,99.2
88847,2018-06-29 09:31:08.468750,153.22,99.2
88848,2018-06-29 09:31:08.500000,170.63,99.2
88849,2018-06-29 09:31:08.531250,160.22,98.8
88850,2018-06-29 09:31:08.562500,127.91,98.8
88851,2018-06-29 09:31:08.593750,78.51,98.8
88852,2018-06-29 09:31:08.625000,9.26,98.8
88853,2018-06-29 09:31:08.656250,-72.83,98.8
88854,2018-06-29 09:31:08.687500,-144.12,98.8
88855,2018-06-29 09:31:08.718750,-186.21,98.8
88856,2018-06-29 09:31:08.750000,-201.07,98.8
88857,2018-06-29 09:31:08.781250,-201.87,98.8
88858,2018-06-29 09:31:08.812500,-199.23,98.8
88859,2018-06-29 09:31:08.843750,-195.83,98.8
88860,2018-06-29 09:31:08.875000,-188.54,98.8
88861,2018-06-29 09:31:08.906250,-174.87,98.8
88862,2018-06-29 09:31:08.937500,-154.91,98.8
88863,2018-06-29 09:31:08.968750,-126.01,98.8
88864,2018-06-29 09:31:09.000000,-83.43,98.8
88865,2018-06-29 09:31:09.031250,-29.74,98.8
88866,2018-06-29 09:31:09.062500,26.23,98.8
88867,2018-06-29 09:31:09.093750,79.81,98.8
88868,2018-06-29 09:31:09.125000,129.43,98.8
88869,2018-06-29 09:31:09.156250,169.36,98.8
88870,2018-06-29 09:31:09.187500,194.63,98.8
88871,2018-06-29 09:31:09.218750,205.77,98.8
88872,2018-06-29 09:31:09.250000,200.48,98.8
88873,2018-06-29 09:31:09.281250,172.26,98.8
88874,2018-06-29 09:31:09.312500,123.64,98.8
88875,2018-06-29 09:31:09.343750,70.53,98.8
88876,2018-06-29 09:31:09.375000,29.33,98.8
88877,2018-06-29 09:31:09.406250,6.6,98.8
88878,2018-06-29 09:31:09.437500,1.51,98.8
88879,2018-06-29 09:31:09.468750,10.37,98.8
88880,2018-06-29 09:31:09.500000,27.1,98.8
88881,2018-06-29 09:31:09.531250,44.07,98.33
88882,2018-06-29 09:31:09.562500,54.71,98.33
88883,2018-06-29 09:31:09.593750,50.13,98.33
88884,2018-06-29 09:31:09.625000,18.58,98.33
88885,2018-06-29 09:31:09.656250,-37.32,98.33
88886,2018-06-29 09:31:09.687500,-89.67,98.33
88887,2018-06-29 09:31:09.718750,-111.19,98.33
88888,2018-06-29 09:31:09.750000,-107.23,98.33
88889,2018-06-29 09:31:09.781250,-103.3,98.33
88890,2018-06-29 09:31:09.812500,-110.15,98.33
88891,2018-06-29 09:31:09.843750,-120.12,98.33
88892,2018-06-29 09:31:09.875000,-125.82,98.33
88893,2018-06-29 09:31:09.906250,-124.66,98.33
88894,2018-06-29 09:31:09.937500,-112.85,98.33
88895,2018-06-29 09:31:09.968750,-89.04,98.33
88896,2018-06-29 09:31:10.000000,-59.82,98.33
88897,2018-06-29 09:31:10.031250,-33.78,98.33
88898,2018-06-29 09:31:10.062500,-12.3,98.33
88899,2018-06-29 09:31:10.093750,8.96,98.33
88900,2018-06-29 09:31:10.125000,31.13,98.33
88901,2018-06-29 09:31:10.156250,50.63,98.33
88902,2018-06-29 09:31:10.187500,66.01,98.33
88903,2018-06-29 09:31:10.218750,79.3,98.33
88904,2018-06-29 09:31:10.250000,92.06,98.33
88905,2018-06-29 09:31:10.281250,106.92,98.33
88906,2018-06-29 09:31:10.312500,127.21,98.33
88907,2018-06-29 09:31:10.343750,148.63,98.33
88908,2018-06-29 09:31:10.375000,158.56,98.33
88909,2018-06-29 09:31:10.406250,148.46,98.33
88910,2018-06-29 09:31:10.437500,121.32,98.33
88911,2018-06-29 09:31:10.468750,85.52,98.33
88912,2018-06-29 09:31:10.500000,47.51,98.33
88913,2018-06-29 09:31:10.531250,12.44,97.82
88914,2018-06-29 09:31:10.562500,-11.98,97.82
88915,2018-06-29 09:31:10.593750,-16.59,97.82
88916,2018-06-29 09:31:10.625000,1.76,97.82
88917,2018-06-29 09:31:10.656250,34.84,97.82
88918,2018-06-29 09:31:10.687500,65.34,97.82
88919,2018-06-29 09:31:10.718750,74.05,97.82
88920,2018-06-29 09:31:10.750000,53.96,97.82
88921,2018-06-29 09:31:10.781250,20.06,97.82
88922,2018-06-29 09:31:10.812500,-9.91,97.82
88923,2018-06-29 09:31:10.843750,-42.41,97.82
88924,2018-06-29 09:31:10.875000,-94.79,97.82
88925,2018-06-29 09:31:10.906250,-162.34,97.82
88926,2018-06-29 09:31:10.937500,-219.65,97.82
88927,2018-06-29 09:31:10.968750,-245.35,97.82
88928,2018-06-29 09:31:11.000000,-233.87,97.82
88929,2018-06-29 09:31:11.031250,-195.47,97.82
88930,2018-06-29 09:31:11.062500,-149.55,97.82
88931,2018-06-29 09:31:11.093750,-109.63,97.82
88932,2018-06-29 09:31:11.125000,-76.72,97.82
88933,2018-06-29 09:31:11.156250,-46.36,97.82
88934,2018-06-29 09:31:11.187500,-14.12,97.82
88935,2018-06-29 09:31:11.218750,22.23,97.82
88936,2018-06-29 09:31:11.250000,56.84,97.82
88937,2018-06-29 09:31:11.281250,77.35,97.82
88938,2018-06-29 09:31:11.312500,78.78,97.82
88939,2018-06-29 09:31:11.343750,71.72,97.82
88940,2018-06-29 09:31:11.375000,72.47,97.82
88941,2018-06-29 09:31:11.406250,87.64,97.82
88942,2018-06-29 09:31:11.437500,110.17,97.82
88943,2018-06-29 09:31:11.468750,127.11,97.82
88944,2018-06-29 09:31:11.500000,127.96,97.82
88945,2018-06-29 09:31:11.531250,108.42,97.3
88946,2018-06-29 09:31:11.562500,71.98,97.3
88947,2018-06-29 09:31:11.593750,28.84,97.3
88948,2018-06-29 09:31:11.625000,-9.22,97.3
88949,2018-06-29 09:31:11.656250,-32.6,97.3
88950,2018-06-29 09:31:11.687500,-34.02,97.3
88951,2018-06-29 09:31:11.718750,-10.83,97.3
88952,2018-06-29 09:31:11.750000,31.24,97.3
88953,2018-06-29 09:31:11.781250,80.19,97.3
88954,2018-06-29 09:31:11.812500,120.36,97.3
88955,2018-06-29 09:31:11.843750,133.07,97.3
88956,2018-06-29 09:31:11.875000,110.21,97.3
88957,2018-06-29 09:31:11.906250,69.65,97.3
88958,2018-06-29 09:31:11.937500,36.16,97.3
88959,2018-06-29 09:31:11.968750,6.64,97.3
88960,2018-06-29 09:31:12.000000,-39.78,97.3
88961,2018-06-29 09:31:12.031250,-102.89,97.3
88962,2018-06-29 09:31:12.062500,-159.43,97.3
88963,2018-06-29 09:31:12.093750,-192.08,97.3
88964,2018-06-29 09:31:12.125000,-199.84,97.3
88965,2018-06-29 09:31:12.156250,-189.59,97.3
88966,2018-06-29 09:31:12.187500,-171.59,97.3
88967,2018-06-29 09:31:12.218750,-155.4,97.3
88968,2018-06-29 09:31:12.250000,-143.58,97.3
88969,2018-06-29 09:31:12.281250,-131.98,97.3
88970,2018-06-29 09:31:12.312500,-114.65,97.3
88971,2018-06-29 09:31:12.343750,-87.56,97.3
88972,2018-06-29 09:31:12.375000,-51.62,97.3
88973,2018-06-29 09:31:12.406250,-11.0,97.3
88974,2018-06-29 09:31:12.437500,33.4,97.3
88975,2018-06-29 09:31:12.468750,81.09,97.3
88976,2018-06-29 09:31:12.500000,123.72,97.3
88977,2018-06-29 09:31:12.531250,152.08,96.72
88978,2018-06-29 09:31:12.562500,166.81,96.72
88979,2018-06-29 09:31:12.593750,169.83,96.72
88980,2018-06-29 09:31:12.625000,155.06,96.72
88981,2018-06-29 09:31:12.656250,119.95,96.72
88982,2018-06-29 09:31:12.687500,75.37,96.72
88983,2018-06-29 09:31:12.718750,36.13,96.72
88984,2018-06-29 09:31:12.750000,11.06,96.72
88985,2018-06-29 09:31:12.781250,3.92,96.72
88986,2018-06-29 09:31:12.812500,13.23,96.72
88987,2018-06-29 09:31:12.843750,31.26,96.72
88988,2018-06-29 09:31:12.875000,52.05,96.72
88989,2018-06-29 09:31:12.906250,74.69,96.72
88990,2018-06-29 09:31:12.937500,90.19,96.72
88991,2018-06-29 09:31:12.968750,78.75,96.72
88992,2018-06-29 09:31:13.000000,33.98,96.72
88993,2018-06-29 09:31:13.031250,-24.27,96.72
88994,2018-06-29 09:31:13.062500,-73.74,96.72
88995,2018-06-29 09:31:13.093750,-110.95,96.72
88996,2018-06-29 09:31:13.125000,-139.12,96.72
88997,2018-06-29 09:31:13.156250,-154.79,96.72
88998,2018-06-29 09:31:13.187500,-155.88,96.72
88999,2018-06-29 09:31:13.218750,-146.72,96.72
89000,2018-06-29 09:31:13.250000,-129.23,96.72
89001,2018-06-29 09:31:13.281250,-102.77,96.72
89002,2018-06-29 09:31:13.312500,-72.83,96.72
89003,2018-06-29 09:31:13.343750,-47.33,96.72
89004,2018-06-29 09:31:13.375000,-26.35,96.72
89005,2018-06-29 09:31:13.406250,-4.31,96.72
89006,2018-06-29 09:31:13.437500,20.36,96.72
89007,2018-06-29 09:31:13.468750,42.8,96.72
89008,2018-06-29 09:31:13.500000,58.77,96.72
89009,2018-06-29 09:31:13.531250,71.35,96.1
89010,2018-06-29 09:31:13.562500,87.38,96.1
89011,2018-06-29 09:31:13.593750,108.32,96.1
89012,2018-06-29 09:31:13.625000,130.07,96.1
89013,2018-06-29 09:31:13.656250,148.25,96.1
89014,2018-06-29 09:31:13.687500,156.35,96.1
89015,2018-06-29 09:31:13.718750,144.0,96.1
89016,2018-06-29 09:31:13.750000,107.7,96.1
89017,2018-06-29 09:31:13.781250,60.86,96.1
89018,2018-06-29 09:31:13.812500,23.96,96.1
89019,2018-06-29 09:31:13.843750,4.81,96.1
