,Time,ppg,hr
92800,2018-06-29 09:33:12.000000,-30.35,104.77
92801,2018-06-29 09:33:12.031250,-21.59,104.77
92802,2018-06-29 09:33:12.062500,-17.99,104.77
92803,2018-06-29 09:33:12.093750,-30.31,104.77
92804,2018-06-29 09:33:12.125000,-56.58,104.77
92805,2018-06-29 09:33:12.156250,-79.78,104.77
92806,2018-06-29 09:33:12.187500,-86.36,104.77
92807,2018-06-29 09:33:12.218750,-82.74,104.77
92808,2018-06-29 09:33:12.250000,-84.36,104.77
92809,2018-06-29 09:33:12.281250,-94.57,104.77
92810,2018-06-29 09:33:12.312500,-102.88,104.77
92811,2018-06-29 09:33:12.343750,-98.38,104.77
92812,2018-06-29 09:33:12.375000,-78.73,104.77
92813,2018-06-29 09:33:12.406250,-50.62,104.77
92814,2018-06-29 09:33:12.437500,-25.5,104.77
92815,2018-06-29 09:33:12.468750,-11.83,104.77
92816,2018-06-29 09:33:12.500000,-9.68,104.77
92817,2018-06-29 09:33:12.531250,-13.59,104.75
92818,2018-06-29 09:33:12.562500,-19.93,104.75
92819,2018-06-29 09:33:12.593750,-29.15,104.75
92820,2018-06-29 09:33:12.625000,-41.19,104.75
92821,2018-06-29 09:33:12.656250,-51.76,104.75
92822,2018-06-29 09:33:12.687500,-56.48,104.75
92823,2018-06-29 09:33:12.718750,-56.76,104.75
92824,2018-06-29 09:33:12.750000,-58.16,104.75
92825,2018-06-29 09:33:12.781250,-63.13,104.75
92826,2018-06-29 09:33:12.812500,-65.3,104.75
92827,2018-06-29 09:33:12.843750,-52.46,104.75
92828,2018-06-29 09:33:12.875000,-19.42,104.75
92829,2018-06-29 09:33:12.906250,23.46,104.75
92830,2018-06-29 09:33:12.937500,59.24,104.75
92831,2018-06-29 09:33:12.968750,79.32,104.75
92832,2018-06-29 09:33:13.000000,84.88,104.75
92833,2018-06-29 09:33:13.031250,79.91,104.75
92834,2018-06-29 09:33:13.062500,68.45,104.75
92835,2018-06-29 09:33:13.093750,55.23,104.75
92836,2018-06-29 09:33:13.125000,44.75,104.75
92837,2018-06-29 09:33:13.156250,38.58,104.75
92838,2018-06-29 09:33:13.187500,34.45,104.75
92839,2018-06-29 09:33:13.218750,28.84,104.75
92840,2018-06-29 09:33:13.250000,21.04,104.75
92841,2018-06-29 09:33:13.281250,12.89,104.75
92842,2018-06-29 09:33:13.312500,4.6,104.75
92843,2018-06-29 09:33:13.343750,-5.66,104.75
92844,2018-06-29 09:33:13.375000,-17.59,104.75
92845,2018-06-29 09:33:13.406250,-28.3,104.75
92846,2018-06-29 09:33:13.437500,-36.48,104.75
92847,2018-06-29 09:33:13.468750,-43.78,104.75
92848,2018-06-29 09:33:13.500000,-52.79,104.75
92849,2018-06-29 09:33:13.531250,-65.2,104.58
92850,2018-06-29 09:33:13.562500,-77.46,104.58
92851,2018-06-29 09:33:13.593750,-78.25,104.58
92852,2018-06-29 09:33:13.625000,-58.6,104.58
92853,2018-06-29 09:33:13.656250,-24.53,104.58
92854,2018-06-29 09:33:13.687500,8.37,104.58
92855,2018-06-29 09:33:13.718750,30.77,104.58
92856,2018-06-29 09:33:13.750000,43.29,104.58
92857,2018-06-29 09:33:13.781250,49.21,104.58
92858,2018-06-29 09:33:13.812500,51.11,104.58
92859,2018-06-29 09:33:13.843750,51.69,104.58
92860,2018-06-29 09:33:13.875000,52.69,104.58
92861,2018-06-29 09:33:13.906250,54.72,104.58
92862,2018-06-29 09:33:13.937500,58.91,104.58
92863,2018-06-29 09:33:13.968750,66.23,104.58
92864,2018-06-29 09:33:14.000000,74.14,104.58
92865,2018-06-29 09:33:14.031250,77.98,104.58
92866,2018-06-29 09:33:14.062500,76.75,104.58
92867,2018-06-29 09:33:14.093750,74.02,104.58
92868,2018-06-29 09:33:14.125000,71.85,104.58
92869,2018-06-29 09:33:14.156250,68.6,104.58
92870,2018-06-29 09:33:14.187500,64.27,104.58
92871,2018-06-29 09:33:14.218750,62.75,104.58
92872,2018-06-29 09:33:14.250000,65.93,104.58
92873,2018-06-29 09:33:14.281250,68.97,104.58
92874,2018-06-29 09:33:14.312500,62.14,104.58
92875,2018-06-29 09:33:14.343750,39.02,104.58
92876,2018-06-29 09:33:14.375000,8.49,104.58
92877,2018-06-29 09:33:14.406250,-6.65,104.58
92878,2018-06-29 09:33:14.437500,6.86,104.58
92879,2018-06-29 09:33:14.468750,37.3,104.58
92880,2018-06-29 09:33:14.500000,64.88,104.58
92881,2018-06-29 09:33:14.531250,82.88,104.48
92882,2018-06-29 09:33:14.562500,93.95,104.48
92883,2018-06-29 09:33:14.593750,98.22,104.48
92884,2018-06-29 09:33:14.625000,93.95,104.48
92885,2018-06-29 09:33:14.656250,82.1,104.48
92886,2018-06-29 09:33:14.687500,64.09,104.48
92887,2018-06-29 09:33:14.718750,41.06,104.48
92888,2018-06-29 09:33:14.750000,16.71,104.48
92889,2018-06-29 09:33:14.781250,-3.76,104.48
92890,2018-06-29 09:33:14.812500,-19.14,104.48
92891,2018-06-29 09:33:14.843750,-31.64,104.48
92892,2018-06-29 09:33:14.875000,-42.36,104.48
92893,2018-06-29 09:33:14.906250,-52.11,104.48
92894,2018-06-29 09:33:14.937500,-63.46,104.48
92895,2018-06-29 09:33:14.968750,-77.72,104.48
92896,2018-06-29 09:33:15.000000,-93.31,104.48
92897,2018-06-29 09:33:15.031250,-109.13,104.48
92898,2018-06-29 09:33:15.062500,-126.95,104.48
92899,2018-06-29 09:33:15.093750,-150.41,104.48
92900,2018-06-29 09:33:15.125000,-179.53,104.48
92901,2018-06-29 09:33:15.156250,-202.15,104.48
92902,2018-06-29 09:33:15.187500,-198.36,104.48
92903,2018-06-29 09:33:15.218750,-163.34,104.48
92904,2018-06-29 09:33:15.250000,-117.16,104.48
92905,2018-06-29 09:33:15.281250,-83.54,104.48
92906,2018-06-29 09:33:15.312500,-69.29,104.48
92907,2018-06-29 09:33:15.343750,-68.75,104.48
92908,2018-06-29 09:33:15.375000,-75.55,104.48
92909,2018-06-29 09:33:15.406250,-84.26,104.48
92910,2018-06-29 09:33:15.437500,-90.14,104.48
92911,2018-06-29 09:33:15.468750,-90.82,104.48
92912,2018-06-29 09:33:15.500000,-86.13,104.48
92913,2018-06-29 09:33:15.531250,-76.47,104.32
92914,2018-06-29 09:33:15.562500,-63.49,104.32
92915,2018-06-29 09:33:15.593750,-51.88,104.32
92916,2018-06-29 09:33:15.625000,-47.99,104.32
92917,2018-06-29 09:33:15.656250,-54.62,104.32
92918,2018-06-29 09:33:15.687500,-68.31,104.32
92919,2018-06-29 09:33:15.718750,-82.81,104.32
92920,2018-06-29 09:33:15.750000,-93.39,104.32
92921,2018-06-29 09:33:15.781250,-97.32,104.32
92922,2018-06-29 09:33:15.812500,-94.08,104.32
92923,2018-06-29 09:33:15.843750,-87.16,104.32
92924,2018-06-29 09:33:15.875000,-83.75,104.32
92925,2018-06-29 09:33:15.906250,-89.77,104.32
92926,2018-06-29 09:33:15.937500,-101.37,104.32
92927,2018-06-29 09:33:15.968750,-100.78,104.32
92928,2018-06-29 09:33:16.000000,-70.16,104.32
92929,2018-06-29 09:33:16.031250,-13.73,104.32
92930,2018-06-29 09:33:16.062500,43.57,104.32
92931,2018-06-29 09:33:16.093750,81.88,104.32
92932,2018-06-29 09:33:16.125000,99.52,104.32
92933,2018-06-29 09:33:16.156250,101.91,104.32
92934,2018-06-29 09:33:16.187500,92.78,104.32
92935,2018-06-29 09:33:16.218750,77.58,104.32
92936,2018-06-29 09:33:16.250000,64.45,104.32
92937,2018-06-29 09:33:16.281250,58.22,104.32
92938,2018-06-29 09:33:16.312500,56.75,104.32
92939,2018-06-29 09:33:16.343750,55.31,104.32
92940,2018-06-29 09:33:16.375000,52.61,104.32
92941,2018-06-29 09:33:16.406250,49.96,104.32
92942,2018-06-29 09:33:16.437500,46.44,104.32
92943,2018-06-29 09:33:16.468750,38.35,104.32
92944,2018-06-29 09:33:16.500000,24.7,104.32
92945,2018-06-29 09:33:16.531250,9.58,104.17
92946,2018-06-29 09:33:16.562500,-2.29,104.17
92947,2018-06-29 09:33:16.593750,-11.19,104.17
92948,2018-06-29 09:33:16.625000,-22.4,104.17
92949,2018-06-29 09:33:16.656250,-41.12,104.17
92950,2018-06-29 09:33:16.687500,-65.11,104.17
92951,2018-06-29 09:33:16.718750,-78.97,104.17
92952,2018-06-29 09:33:16.750000,-63.19,104.17
92953,2018-06-29 09:33:16.781250,-16.61,104.17
92954,2018-06-29 09:33:16.812500,38.01,104.17
92955,2018-06-29 09:33:16.843750,76.77,104.17
92956,2018-06-29 09:33:16.875000,93.76,104.17
92957,2018-06-29 09:33:16.906250,95.29,104.17
92958,2018-06-29 09:33:16.937500,87.18,104.17
92959,2018-06-29 09:33:16.968750,73.38,104.17
92960,2018-06-29 09:33:17.000000,59.23,104.17
92961,2018-06-29 09:33:17.031250,49.59,104.17
92962,2018-06-29 09:33:17.062500,44.84,104.17
92963,2018-06-29 09:33:17.093750,41.81,104.17
92964,2018-06-29 09:33:17.125000,37.63,104.17
92965,2018-06-29 09:33:17.156250,30.46,104.17
92966,2018-06-29 09:33:17.187500,18.89,104.17
92967,2018-06-29 09:33:17.218750,3.28,104.17
92968,2018-06-29 09:33:17.250000,-14.36,104.17
92969,2018-06-29 09:33:17.281250,-32.94,104.17
92970,2018-06-29 09:33:17.312500,-52.6,104.17
92971,2018-06-29 09:33:17.343750,-72.42,104.17
92972,2018-06-29 09:33:17.375000,-90.1,104.17
92973,2018-06-29 09:33:17.406250,-105.69,104.17
92974,2018-06-29 09:33:17.437500,-123.78,104.17
92975,2018-06-29 09:33:17.468750,-146.86,104.17
92976,2018-06-29 09:33:17.500000,-163.59,104.17
92977,2018-06-29 09:33:17.531250,-153.18,103.97
92978,2018-06-29 09:33:17.562500,-108.73,103.97
92979,2018-06-29 09:33:17.593750,-47.17,103.97
92980,2018-06-29 09:33:17.625000,9.51,103.97
92981,2018-06-29 09:33:17.656250,52.44,103.97
92982,2018-06-29 09:33:17.687500,81.32,103.97
92983,2018-06-29 09:33:17.718750,95.99,103.97
92984,2018-06-29 09:33:17.750000,98.2,103.97
92985,2018-06-29 09:33:17.781250,93.03,103.97
92986,2018-06-29 09:33:17.812500,85.05,103.97
92987,2018-06-29 09:33:17.843750,76.86,103.97
92988,2018-06-29 09:33:17.875000,70.25,103.97
92989,2018-06-29 09:33:17.906250,65.46,103.97
92990,2018-06-29 09:33:17.937500,60.02,103.97
92991,2018-06-29 09:33:17.968750,50.84,103.97
92992,2018-06-29 09:33:18.000000,37.51,103.97
92993,2018-06-29 09:33:18.031250,22.49,103.97
92994,2018-06-29 09:33:18.062500,7.88,103.97
92995,2018-06-29 09:33:18.093750,-7.04,103.97
92996,2018-06-29 09:33:18.125000,-23.75,103.97
92997,2018-06-29 09:33:18.156250,-40.6,103.97
92998,2018-06-29 09:33:18.187500,-54.13,103.97
92999,2018-06-29 09:33:18.218750,-64.59,103.97
93000,2018-06-29 09:33:18.250000,-78.01,103.97
93001,2018-06-29 09:33:18.281250,-99.69,103.97
93002,2018-06-29 09:33:18.312500,-122.86,103.97
93003,2018-06-29 09:33:18.343750,-126.94,103.97
93004,2018-06-29 09:33:18.375000,-96.3,103.97
93005,2018-06-29 09:33:18.406250,-39.43,103.97
93006,2018-06-29 09:33:18.437500,19.56,103.97
93007,2018-06-29 09:33:18.468750,64.84,103.97
93008,2018-06-29 09:33:18.500000,94.58,103.97
93009,2018-06-29 09:33:18.531250,110.74,103.83
93010,2018-06-29 09:33:18.562500,115.59,103.83
93011,2018-06-29 09:33:18.593750,113.76,103.83
93012,2018-06-29 09:33:18.625000,109.46,103.83
93013,2018-06-29 09:33:18.656250,103.52,103.83
93014,2018-06-29 09:33:18.687500,96.39,103.83
93015,2018-06-29 09:33:18.718750,90.63,103.83
93016,2018-06-29 09:33:18.750000,87.39,103.83
93017,2018-06-29 09:33:18.781250,83.4,103.83
93018,2018-06-29 09:33:18.812500,74.48,103.83
93019,2018-06-29 09:33:18.843750,60.95,103.83
93020,2018-06-29 09:33:18.875000,46.62,103.83
93021,2018-06-29 09:33:18.906250,32.92,103.83
93022,2018-06-29 09:33:18.937500,17.48,103.83
93023,2018-06-29 09:33:18.968750,-0.5,103.83
93024,2018-06-29 09:33:19.000000,-17.41,103.83
93025,2018-06-29 09:33:19.031250,-30.09,103.83
93026,2018-06-29 09:33:19.062500,-40.74,103.83
93027,2018-06-29 09:33:19.093750,-55.06,103.83
93028,2018-06-29 09:33:19.125000,-75.32,103.83
93029,2018-06-29 09:33:19.156250,-92.59,103.83
93030,2018-06-29 09:33:19.187500,-89.32,103.83
93031,2018-06-29 09:33:19.218750,-56.59,103.83
93032,2018-06-29 09:33:19.250000,-5.62,103.83
93033,2018-06-29 09:33:19.281250,43.15,103.83
93034,2018-06-29 09:33:19.312500,76.69,103.83
93035,2018-06-29 09:33:19.343750,92.76,103.83
93036,2018-06-29 09:33:19.375000,95.49,103.83
93037,2018-06-29 09:33:19.406250,91.46,103.83
93038,2018-06-29 09:33:19.437500,86.07,103.83
93039,2018-06-29 09:33:19.468750,82.02,103.83
93040,2018-06-29 09:33:19.500000,79.96,103.83
93041,2018-06-29 09:33:19.531250,78.66,103.32
93042,2018-06-29 09:33:19.562500,75.59,103.32
93043,2018-06-29 09:33:19.593750,69.54,103.32
93044,2018-06-29 09:33:19.625000,61.43,103.32
93045,2018-06-29 09:33:19.656250,52.16,103.32
93046,2018-06-29 09:33:19.687500,41.06,103.32
93047,2018-06-29 09:33:19.718750,27.06,103.32
93048,2018-06-29 09:33:19.750000,10.82,103.32
93049,2018-06-29 09:33:19.781250,-5.36,103.32
93050,2018-06-29 09:33:19.812500,-20.09,103.32
93051,2018-06-29 09:33:19.843750,-34.56,103.32
93052,2018-06-29 09:33:19.875000,-51.67,103.32
93053,2018-06-29 09:33:19.906250,-71.89,103.32
93054,2018-06-29 09:33:19.937500,-87.56,103.32
93055,2018-06-29 09:33:19.968750,-84.27,103.32
93056,2018-06-29 09:33:20.000000,-54.9,103.32
93057,2018-06-29 09:33:20.031250,-10.07,103.32
93058,2018-06-29 09:33:20.062500,31.17,103.32
93059,2018-06-29 09:33:20.093750,58.31,103.32
93060,2018-06-29 09:33:20.125000,72.29,103.32
93061,2018-06-29 09:33:20.156250,77.04,103.32
93062,2018-06-29 09:33:20.187500,75.39,103.32
93063,2018-06-29 09:33:20.218750,70.82,103.32
93064,2018-06-29 09:33:20.250000,66.43,103.32
93065,2018-06-29 09:33:20.281250,62.4,103.32
93066,2018-06-29 09:33:20.312500,58.26,103.32
93067,2018-06-29 09:33:20.343750,55.12,103.32
93068,2018-06-29 09:33:20.375000,52.59,103.32
93069,2018-06-29 09:33:20.406250,47.38,103.32
93070,2018-06-29 09:33:20.437500,37.85,103.32
93071,2018-06-29 09:33:20.468750,26.37,103.32
93072,2018-06-29 09:33:20.500000,14.8,103.32
93073,2018-06-29 09:33:20.531250,1.46,102.8
93074,2018-06-29 09:33:20.562500,-14.87,102.8
93075,2018-06-29 09:33:20.593750,-31.67,102.8
93076,2018-06-29 09:33:20.625000,-45.89,102.8
93077,2018-06-29 09:33:20.656250,-58.27,102.8
93078,2018-06-29 09:33:20.687500,-72.81,102.8
93079,2018-06-29 09:33:20.718750,-91.27,102.8
93080,2018-06-29 09:33:20.750000,-106.33,102.8
93081,2018-06-29 09:33:20.781250,-103.27,102.8
93082,2018-06-29 09:33:20.812500,-74.27,102.8
93083,2018-06-29 09:33:20.843750,-29.06,102.8
93084,2018-06-29 09:33:20.875000,14.08,102.8
93085,2018-06-29 09:33:20.906250,44.33,102.8
93086,2018-06-29 09:33:20.937500,61.49,102.8
93087,2018-06-29 09:33:20.968750,69.29,102.8
93088,2018-06-29 09:33:21.000000,70.56,102.8
93089,2018-06-29 09:33:21.031250,67.4,102.8
93090,2018-06-29 09:33:21.062500,62.32,102.8
93091,2018-06-29 09:33:21.093750,57.86,102.8
93092,2018-06-29 09:33:21.125000,55.73,102.8
93093,2018-06-29 09:33:21.156250,56.22,102.8
93094,2018-06-29 09:33:21.187500,57.25,102.8
93095,2018-06-29 09:33:21.218750,54.41,102.8
93096,2018-06-29 09:33:21.250000,44.43,102.8
93097,2018-06-29 09:33:21.281250,29.31,102.8
93098,2018-06-29 09:33:21.312500,14.34,102.8
93099,2018-06-29 09:33:21.343750,1.82,102.8
93100,2018-06-29 09:33:21.375000,-10.57,102.8
93101,2018-06-29 09:33:21.406250,-24.08,102.8
93102,2018-06-29 09:33:21.437500,-36.42,102.8
93103,2018-06-29 09:33:21.468750,-46.39,102.8
93104,2018-06-29 09:33:21.500000,-57.06,102.8
93105,2018-06-29 09:33:21.531250,-72.79,102.23
93106,2018-06-29 09:33:21.562500,-91.87,102.23
93107,2018-06-29 09:33:21.593750,-102.06,102.23
93108,2018-06-29 09:33:21.625000,-89.09,102.23
93109,2018-06-29 09:33:21.656250,-53.1,102.23
93110,2018-06-29 09:33:21.687500,-10.48,102.23
93111,2018-06-29 09:33:21.718750,22.81,102.23
93112,2018-06-29 09:33:21.750000,42.19,102.23
93113,2018-06-29 09:33:21.781250,49.71,102.23
93114,2018-06-29 09:33:21.812500,48.28,102.23
93115,2018-06-29 09:33:21.843750,42.3,102.23
93116,2018-06-29 09:33:21.875000,36.74,102.23
93117,2018-06-29 09:33:21.906250,33.17,102.23
93118,2018-06-29 09:33:21.937500,30.09,102.23
93119,2018-06-29 09:33:21.968750,26.62,102.23
93120,2018-06-29 09:33:22.000000,23.31,102.23
93121,2018-06-29 09:33:22.031250,20.07,102.23
93122,2018-06-29 09:33:22.062500,15.87,102.23
93123,2018-06-29 09:33:22.093750,10.21,102.23
93124,2018-06-29 09:33:22.125000,3.01,102.23
93125,2018-06-29 09:33:22.156250,-5.75,102.23
93126,2018-06-29 09:33:22.187500,-15.19,102.23
93127,2018-06-29 09:33:22.218750,-24.3,102.23
93128,2018-06-29 09:33:22.250000,-34.35,102.23
93129,2018-06-29 09:33:22.281250,-48.62,102.23
93130,2018-06-29 09:33:22.312500,-67.86,102.23
93131,2018-06-29 09:33:22.343750,-85.06,102.23
93132,2018-06-29 09:33:22.375000,-86.95,102.23
93133,2018-06-29 09:33:22.406250,-65.54,102.23
93134,2018-06-29 09:33:22.437500,-28.03,102.23
93135,2018-06-29 09:33:22.468750,9.24,102.23
93136,2018-06-29 09:33:22.500000,35.23,102.23
93137,2018-06-29 09:33:22.531250,48.41,101.67
93138,2018-06-29 09:33:22.562500,50.99,101.67
93139,2018-06-29 09:33:22.593750,45.81,101.67
93140,2018-06-29 09:33:22.625000,37.02,101.67
93141,2018-06-29 09:33:22.656250,28.98,101.67
93142,2018-06-29 09:33:22.687500,23.57,101.67
93143,2018-06-29 09:33:22.718750,19.79,101.67
93144,2018-06-29 09:33:22.750000,15.81,101.67
93145,2018-06-29 09:33:22.781250,10.66,101.67
93146,2018-06-29 09:33:22.812500,4.38,101.67
93147,2018-06-29 09:33:22.843750,-3.37,101.67
93148,2018-06-29 09:33:22.875000,-13.62,101.67
93149,2018-06-29 09:33:22.906250,-26.08,101.67
93150,2018-06-29 09:33:22.937500,-38.41,101.67
93151,2018-06-29 09:33:22.968750,-49.02,101.67
93152,2018-06-29 09:33:23.000000,-58.89,101.67
93153,2018-06-29 09:33:23.031250,-70.35,101.67
93154,2018-06-29 09:33:23.062500,-85.2,101.67
93155,2018-06-29 09:33:23.093750,-100.35,101.67
93156,2018-06-29 09:33:23.125000,-104.04,101.67
93157,2018-06-29 09:33:23.156250,-84.39,101.67
93158,2018-06-29 09:33:23.187500,-43.93,101.67
93159,2018-06-29 09:33:23.218750,1.29,101.67
93160,2018-06-29 09:33:23.250000,37.3,101.67
93161,2018-06-29 09:33:23.281250,60.33,101.67
93162,2018-06-29 09:33:23.312500,72.28,101.67
93163,2018-06-29 09:33:23.343750,75.98,101.67
93164,2018-06-29 09:33:23.375000,74.4,101.67
93165,2018-06-29 09:33:23.406250,70.01,101.67
93166,2018-06-29 09:33:23.437500,64.51,101.67
93167,2018-06-29 09:33:23.468750,59.28,101.67
93168,2018-06-29 09:33:23.500000,54.81,101.67
93169,2018-06-29 09:33:23.531250,49.8,101.15
93170,2018-06-29 09:33:23.562500,42.6,101.15
93171,2018-06-29 09:33:23.593750,33.08,101.15
93172,2018-06-29 09:33:23.625000,22.58,101.15
93173,2018-06-29 09:33:23.656250,11.88,101.15
93174,2018-06-29 09:33:23.687500,0.24,101.15
93175,2018-06-29 09:33:23.718750,-12.56,101.15
93176,2018-06-29 09:33:23.750000,-24.52,101.15
93177,2018-06-29 09:33:23.781250,-33.92,101.15
93178,2018-06-29 09:33:23.812500,-42.34,101.15
93179,2018-06-29 09:33:23.843750,-53.05,101.15
93180,2018-06-29 09:33:23.875000,-65.12,101.15
93181,2018-06-29 09:33:23.906250,-69.21,101.15
93182,2018-06-29 09:33:23.937500,-52.92,101.15
93183,2018-06-29 09:33:23.968750,-13.61,101.15
93184,2018-06-29 09:33:24.000000,37.3,101.15
93185,2018-06-29 09:33:24.031250,84.85,101.15
93186,2018-06-29 09:33:24.062500,121.09,101.15
93187,2018-06-29 09:33:24.093750,145.43,101.15
93188,2018-06-29 09:33:24.125000,162.08,101.15
93189,2018-06-29 09:33:24.156250,177.36,101.15
93190,2018-06-29 09:33:24.187500,195.01,101.15
93191,2018-06-29 09:33:24.218750,214.54,101.15
93192,2018-06-29 09:33:24.250000,234.95,101.15
93193,2018-06-29 09:33:24.281250,257.01,101.15
93194,2018-06-29 09:33:24.312500,280.84,101.15
93195,2018-06-29 09:33:24.343750,299.98,101.15
93196,2018-06-29 09:33:24.375000,299.07,101.15
93197,2018-06-29 09:33:24.406250,265.88,101.15
93198,2018-06-29 09:33:24.437500,206.67,101.15
93199,2018-06-29 09:33:24.468750,139.49,101.15
93200,2018-06-29 09:33:24.500000,73.66,101.15
93201,2018-06-29 09:33:24.531250,8.22,100.62
93202,2018-06-29 09:33:24.562500,-54.99,100.62
93203,2018-06-29 09:33:24.593750,-111.9,100.62
93204,2018-06-29 09:33:24.625000,-164.91,100.62
93205,2018-06-29 09:33:24.656250,-221.21,100.62
93206,2018-06-29 09:33:24.687500,-285.66,100.62
93207,2018-06-29 09:33:24.718750,-350.53,100.62
93208,2018-06-29 09:33:24.750000,-389.65,100.62
93209,2018-06-29 09:33:24.781250,-378.29,100.62
93210,2018-06-29 09:33:24.812500,-323.0,100.62
93211,2018-06-29 09:33:24.843750,-254.76,100.62
93212,2018-06-29 09:33:24.875000,-197.2,100.62
93213,2018-06-29 09:33:24.906250,-157.92,100.62
93214,2018-06-29 09:33:24.937500,-138.82,100.62
93215,2018-06-29 09:33:24.968750,-135.33,100.62
93216,2018-06-29 09:33:25.000000,-135.25,100.62
93217,2018-06-29 09:33:25.031250,-130.67,100.62
93218,2018-06-29 09:33:25.062500,-125.26,100.62
93219,2018-06-29 09:33:25.093750,-124.89,100.62
93220,2018-06-29 09:33:25.125000,-126.12,100.62
93221,2018-06-29 09:33:25.156250,-120.55,100.62
93222,2018-06-29 09:33:25.187500,-108.52,100.62
93223,2018-06-29 09:33:25.218750,-98.95,100.62
93224,2018-06-29 09:33:25.250000,-95.92,100.62
93225,2018-06-29 09:33:25.281250,-94.53,100.62
93226,2018-06-29 09:33:25.312500,-90.04,100.62
93227,2018-06-29 09:33:25.343750,-82.42,100.62
93228,2018-06-29 09:33:25.375000,-72.54,100.62
93229,2018-06-29 09:33:25.406250,-61.21,100.62
93230,2018-06-29 09:33:25.437500,-50.42,100.62
93231,2018-06-29 09:33:25.468750,-41.41,100.62
93232,2018-06-29 09:33:25.500000,-33.55,100.62
93233,2018-06-29 09:33:25.531250,-27.4,100.1
93234,2018-06-29 09:33:25.562500,-26.19,100.1
93235,2018-06-29 09:33:25.593750,-31.32,100.1
93236,2018-06-29 09:33:25.625000,-34.73,100.1
93237,2018-06-29 09:33:25.656250,-20.5,100.1
93238,2018-06-29 09:33:25.687500,19.28,100.1
93239,2018-06-29 09:33:25.718750,74.12,100.1
93240,2018-06-29 09:33:25.750000,126.74,100.1
93241,2018-06-29 09:33:25.781250,169.54,100.1
93242,2018-06-29 09:33:25.812500,203.63,100.1
93243,2018-06-29 09:33:25.843750,229.78,100.1
93244,2018-06-29 09:33:25.875000,247.59,100.1
93245,2018-06-29 09:33:25.906250,259.3,100.1
93246,2018-06-29 09:33:25.937500,268.23,100.1
93247,2018-06-29 09:33:25.968750,275.26,100.1
93248,2018-06-29 09:33:26.000000,279.75,100.1
93249,2018-06-29 09:33:26.031250,282.86,100.1
93250,2018-06-29 09:33:26.062500,286.92,100.1
93251,2018-06-29 09:33:26.093750,290.72,100.1
93252,2018-06-29 09:33:26.125000,288.47,100.1
93253,2018-06-29 09:33:26.156250,275.16,100.1
93254,2018-06-29 09:33:26.187500,249.13,100.1
93255,2018-06-29 09:33:26.218750,207.3,100.1
93256,2018-06-29 09:33:26.250000,145.97,100.1
93257,2018-06-29 09:33:26.281250,70.16,100.1
93258,2018-06-29 09:33:26.312500,-8.37,100.1
93259,2018-06-29 09:33:26.343750,-82.38,100.1
93260,2018-06-29 09:33:26.375000,-146.68,100.1
93261,2018-06-29 09:33:26.406250,-191.09,100.1
93262,2018-06-29 09:33:26.437500,-210.91,100.1
93263,2018-06-29 09:33:26.468750,-215.63,100.1
93264,2018-06-29 09:33:26.500000,-216.88,100.1
93265,2018-06-29 09:33:26.531250,-217.85,99.57
93266,2018-06-29 09:33:26.562500,-215.69,99.57
93267,2018-06-29 09:33:26.593750,-201.17,99.57
93268,2018-06-29 09:33:26.625000,-162.8,99.57
93269,2018-06-29 09:33:26.656250,-104.47,99.57
93270,2018-06-29 09:33:26.687500,-48.89,99.57
93271,2018-06-29 09:33:26.718750,-14.07,99.57
93272,2018-06-29 09:33:26.750000,1.11,99.57
93273,2018-06-29 09:33:26.781250,4.66,99.57
93274,2018-06-29 09:33:26.812500,-0.45,99.57
93275,2018-06-29 09:33:26.843750,-12.72,99.57
93276,2018-06-29 09:33:26.875000,-27.46,99.57
93277,2018-06-29 09:33:26.906250,-39.99,99.57
93278,2018-06-29 09:33:26.937500,-49.35,99.57
93279,2018-06-29 09:33:26.968750,-56.46,99.57
93280,2018-06-29 09:33:27.000000,-61.05,99.57
93281,2018-06-29 09:33:27.031250,-62.68,99.57
93282,2018-06-29 09:33:27.062500,-62.84,99.57
93283,2018-06-29 09:33:27.093750,-62.96,99.57
93284,2018-06-29 09:33:27.125000,-62.06,99.57
93285,2018-06-29 09:33:27.156250,-58.71,99.57
93286,2018-06-29 09:33:27.187500,-53.88,99.57
93287,2018-06-29 09:33:27.218750,-50.15,99.57
93288,2018-06-29 09:33:27.250000,-48.83,99.57
93289,2018-06-29 09:33:27.281250,-48.19,99.57
93290,2018-06-29 09:33:27.312500,-45.29,99.57
93291,2018-06-29 09:33:27.343750,-39.46,99.57
93292,2018-06-29 09:33:27.375000,-32.17,99.57
93293,2018-06-29 09:33:27.406250,-22.5,99.57
93294,2018-06-29 09:33:27.437500,-6.68,99.57
93295,2018-06-29 09:33:27.468750,14.02,99.57
93296,2018-06-29 09:33:27.500000,30.57,99.57
93297,2018-06-29 09:33:27.531250,40.71,99.05
93298,2018-06-29 09:33:27.562500,60.54,99.05
93299,2018-06-29 09:33:27.593750,108.82,99.05
93300,2018-06-29 09:33:27.625000,184.72,99.05
93301,2018-06-29 09:33:27.656250,268.6,99.05
93302,2018-06-29 09:33:27.687500,331.42,99.05
93303,2018-06-29 09:33:27.718750,343.47,99.05
93304,2018-06-29 09:33:27.750000,295.89,99.05
93305,2018-06-29 09:33:27.781250,213.95,99.05
93306,2018-06-29 09:33:27.812500,132.42,99.05
93307,2018-06-29 09:33:27.843750,65.7,99.05
93308,2018-06-29 09:33:27.875000,10.93,99.05
93309,2018-06-29 09:33:27.906250,-38.51,99.05
93310,2018-06-29 09:33:27.937500,-93.22,99.05
93311,2018-06-29 09:33:27.968750,-162.71,99.05
93312,2018-06-29 09:33:28.000000,-236.62,99.05
93313,2018-06-29 09:33:28.031250,-285.15,99.05
93314,2018-06-29 09:33:28.062500,-291.7,99.05
93315,2018-06-29 09:33:28.093750,-272.18,99.05
93316,2018-06-29 09:33:28.125000,-250.09,99.05
93317,2018-06-29 09:33:28.156250,-230.69,99.05
93318,2018-06-29 09:33:28.187500,-211.78,99.05
93319,2018-06-29 09:33:28.218750,-198.61,99.05
93320,2018-06-29 09:33:28.250000,-193.66,99.05
93321,2018-06-29 09:33:28.281250,-187.51,99.05
93322,2018-06-29 09:33:28.312500,-172.54,99.05
93323,2018-06-29 09:33:28.343750,-156.03,99.05
93324,2018-06-29 09:33:28.375000,-149.75,99.05
93325,2018-06-29 09:33:28.406250,-153.97,99.05
93326,2018-06-29 09:33:28.437500,-156.04,99.05
93327,2018-06-29 09:33:28.468750,-138.05,99.05
93328,2018-06-29 09:33:28.500000,-91.35,99.05
93329,2018-06-29 09:33:28.531250,-36.2,98.5
93330,2018-06-29 09:33:28.562500,-11.04,98.5
93331,2018-06-29 09:33:28.593750,-28.8,98.5
93332,2018-06-29 09:33:28.625000,-66.92,98.5
93333,2018-06-29 09:33:28.656250,-102.41,98.5
93334,2018-06-29 09:33:28.687500,-122.3,98.5
93335,2018-06-29 09:33:28.718750,-109.41,98.5
93336,2018-06-29 09:33:28.750000,-59.34,98.5
93337,2018-06-29 09:33:28.781250,-2.02,98.5
93338,2018-06-29 09:33:28.812500,23.99,98.5
93339,2018-06-29 09:33:28.843750,10.12,98.5
93340,2018-06-29 09:33:28.875000,-19.1,98.5
93341,2018-06-29 09:33:28.906250,-34.59,98.5
93342,2018-06-29 09:33:28.937500,-29.61,98.5
93343,2018-06-29 09:33:28.968750,-18.31,98.5
93344,2018-06-29 09:33:29.000000,-13.28,98.5
93345,2018-06-29 09:33:29.031250,-16.46,98.5
93346,2018-06-29 09:33:29.062500,-29.44,98.5
93347,2018-06-29 09:33:29.093750,-53.88,98.5
93348,2018-06-29 09:33:29.125000,-81.58,98.5
93349,2018-06-29 09:33:29.156250,-100.59,98.5
93350,2018-06-29 09:33:29.187500,-112.23,98.5
93351,2018-06-29 09:33:29.218750,-130.21,98.5
93352,2018-06-29 09:33:29.250000,-159.29,98.5
93353,2018-06-29 09:33:29.281250,-183.51,98.5
93354,2018-06-29 09:33:29.312500,-180.58,98.5
93355,2018-06-29 09:33:29.343750,-144.72,98.5
93356,2018-06-29 09:33:29.375000,-89.75,98.5
93357,2018-06-29 09:33:29.406250,-31.0,98.5
93358,2018-06-29 09:33:29.437500,27.23,98.5
93359,2018-06-29 09:33:29.468750,85.34,98.5
93360,2018-06-29 09:33:29.500000,142.01,98.5
93361,2018-06-29 09:33:29.531250,198.46,97.87
93362,2018-06-29 09:33:29.562500,257.9,97.87
93363,2018-06-29 09:33:29.593750,315.16,97.87
93364,2018-06-29 09:33:29.625000,356.02,97.87
93365,2018-06-29 09:33:29.656250,372.89,97.87
93366,2018-06-29 09:33:29.687500,369.18,97.87
93367,2018-06-29 09:33:29.718750,343.34,97.87
93368,2018-06-29 09:33:29.750000,289.35,97.87
93369,2018-06-29 09:33:29.781250,216.83,97.87
93370,2018-06-29 09:33:29.812500,146.18,97.87
93371,2018-06-29 09:33:29.843750,83.3,97.87
93372,2018-06-29 09:33:29.875000,23.11,97.87
93373,2018-06-29 09:33:29.906250,-29.96,97.87
93374,2018-06-29 09:33:29.937500,-67.87,97.87
93375,2018-06-29 09:33:29.968750,-93.25,97.87
93376,2018-06-29 09:33:30.000000,-112.53,97.87
93377,2018-06-29 09:33:30.031250,-128.37,97.87
93378,2018-06-29 09:33:30.062500,-146.5,97.87
93379,2018-06-29 09:33:30.093750,-175.29,97.87
93380,2018-06-29 09:33:30.125000,-209.85,97.87
93381,2018-06-29 09:33:30.156250,-227.31,97.87
93382,2018-06-29 09:33:30.187500,-207.66,97.87
93383,2018-06-29 09:33:30.218750,-155.94,97.87
93384,2018-06-29 09:33:30.250000,-94.21,97.87
93385,2018-06-29 09:33:30.281250,-34.83,97.87
93386,2018-06-29 09:33:30.312500,24.74,97.87
93387,2018-06-29 09:33:30.343750,83.1,97.87
93388,2018-06-29 09:33:30.375000,127.78,97.87
93389,2018-06-29 09:33:30.406250,148.92,97.87
93390,2018-06-29 09:33:30.437500,149.13,97.87
93391,2018-06-29 09:33:30.468750,142.28,97.87
93392,2018-06-29 09:33:30.500000,146.36,97.87
93393,2018-06-29 09:33:30.531250,169.54,97.15
93394,2018-06-29 09:33:30.562500,201.6,97.15
93395,2018-06-29 09:33:30.593750,224.14,97.15
93396,2018-06-29 09:33:30.625000,224.45,97.15
93397,2018-06-29 09:33:30.656250,200.79,97.15
93398,2018-06-29 09:33:30.687500,162.69,97.15
93399,2018-06-29 09:33:30.718750,121.65,97.15
93400,2018-06-29 09:33:30.750000,80.29,97.15
93401,2018-06-29 09:33:30.781250,40.08,97.15
93402,2018-06-29 09:33:30.812500,10.38,97.15
93403,2018-06-29 09:33:30.843750,-1.86,97.15
93404,2018-06-29 09:33:30.875000,-1.88,97.15
93405,2018-06-29 09:33:30.906250,-2.36,97.15
93406,2018-06-29 09:33:30.937500,-16.68,97.15
93407,2018-06-29 09:33:30.968750,-51.31,97.15
93408,2018-06-29 09:33:31.000000,-96.58,97.15
93409,2018-06-29 09:33:31.031250,-128.92,97.15
93410,2018-06-29 09:33:31.062500,-127.58,97.15
93411,2018-06-29 09:33:31.093750,-91.4,97.15
93412,2018-06-29 09:33:31.125000,-39.33,97.15
93413,2018-06-29 09:33:31.156250,7.29,97.15
93414,2018-06-29 09:33:31.187500,39.02,97.15
93415,2018-06-29 09:33:31.218750,56.12,97.15
93416,2018-06-29 09:33:31.250000,61.51,97.15
93417,2018-06-29 09:33:31.281250,59.99,97.15
93418,2018-06-29 09:33:31.312500,58.08,97.15
93419,2018-06-29 09:33:31.343750,59.55,97.15
93420,2018-06-29 09:33:31.375000,63.67,97.15
93421,2018-06-29 09:33:31.406250,68.28,97.15
93422,2018-06-29 09:33:31.437500,71.52,97.15
93423,2018-06-29 09:33:31.468750,70.51,97.15
93424,2018-06-29 09:33:31.500000,62.95,97.15
93425,2018-06-29 09:33:31.531250,50.29,96.43
93426,2018-06-29 09:33:31.562500,36.28,96.43
93427,2018-06-29 09:33:31.593750,22.19,96.43
93428,2018-06-29 09:33:31.625000,6.69,96.43
93429,2018-06-29 09:33:31.656250,-10.14,96.43
93430,2018-06-29 09:33:31.687500,-26.07,96.43
93431,2018-06-29 09:33:31.718750,-40.1,96.43
93432,2018-06-29 09:33:31.750000,-55.13,96.43
93433,2018-06-29 09:33:31.781250,-75.47,96.43
93434,2018-06-29 09:33:31.812500,-99.07,96.43
93435,2018-06-29 09:33:31.843750,-111.79,96.43
93436,2018-06-29 09:33:31.875000,-96.8,96.43
93437,2018-06-29 09:33:31.906250,-53.48,96.43
93438,2018-06-29 09:33:31.937500,-0.05,96.43
93439,2018-06-29 09:33:31.968750,44.76,96.43
93440,2018-06-29 09:33:32.000000,74.9,96.43
93441,2018-06-29 09:33:32.031250,92.74,96.43
93442,2018-06-29 09:33:32.062500,101.06,96.43
93443,2018-06-29 09:33:32.093750,101.98,96.43
93444,2018-06-29 09:33:32.125000,98.51,96.43
93445,2018-06-29 09:33:32.156250,93.88,96.43
93446,2018-06-29 09:33:32.187500,90.1,96.43
93447,2018-06-29 09:33:32.218750,87.58,96.43
93448,2018-06-29 09:33:32.250000,85.25,96.43
93449,2018-06-29 09:33:32.281250,80.99,96.43
93450,2018-06-29 09:33:32.312500,73.16,96.43
93451,2018-06-29 09:33:32.343750,61.88,96.43
93452,2018-06-29 09:33:32.375000,48.16,96.43
93453,2018-06-29 09:33:32.406250,33.22,96.43
93454,2018-06-29 09:33:32.437500,18.54,96.43
93455,2018-06-29 09:33:32.468750,4.83,96.43
93456,2018-06-29 09:33:32.500000,-8.96,96.43
93457,2018-06-29 09:33:32.531250,-24.28,95.73
93458,2018-06-29 09:33:32.562500,-40.42,95.73
93459,2018-06-29 09:33:32.593750,-55.22,95.73
93460,2018-06-29 09:33:32.625000,-67.82,95.73
93461,2018-06-29 09:33:32.656250,-79.79,95.73
93462,2018-06-29 09:33:32.687500,-94.57,95.73
93463,2018-06-29 09:33:32.718750,-114.2,95.73
93464,2018-06-29 09:33:32.750000,-131.66,95.73
93465,2018-06-29 09:33:32.781250,-129.65,95.73
93466,2018-06-29 09:33:32.812500,-96.82,95.73
93467,2018-06-29 09:33:32.843750,-43.66,95.73
93468,2018-06-29 09:33:32.875000,7.83,95.73
93469,2018-06-29 09:33:32.906250,45.61,95.73
93470,2018-06-29 09:33:32.937500,70.27,95.73
93471,2018-06-29 09:33:32.968750,84.6,95.73
93472,2018-06-29 09:33:33.000000,90.42,95.73
93473,2018-06-29 09:33:33.031250,90.82,95.73
93474,2018-06-29 09:33:33.062500,88.51,95.73
93475,2018-06-29 09:33:33.093750,84.24,95.73
93476,2018-06-29 09:33:33.125000,79.15,95.73
93477,2018-06-29 09:33:33.156250,75.63,95.73
93478,2018-06-29 09:33:33.187500,74.07,95.73
93479,2018-06-29 09:33:33.218750,71.35,95.73
93480,2018-06-29 09:33:33.250000,64.11,95.73
93481,2018-06-29 09:33:33.281250,52.78,95.73
93482,2018-06-29 09:33:33.312500,41.09,95.73
93483,2018-06-29 09:33:33.343750,31.46,95.73
93484,2018-06-29 09:33:33.375000,22.29,95.73
93485,2018-06-29 09:33:33.406250,11.01,95.73
93486,2018-06-29 09:33:33.437500,-1.58,95.73
93487,2018-06-29 09:33:33.468750,-12.76,95.73
93488,2018-06-29 09:33:33.500000,-22.5,95.73
93489,2018-06-29 09:33:33.531250,-33.29,95.03
93490,2018-06-29 09:33:33.562500,-45.42,95.03
93491,2018-06-29 09:33:33.593750,-56.4,95.03
93492,2018-06-29 09:33:33.625000,-64.97,95.03
93493,2018-06-29 09:33:33.656250,-73.49,95.03
93494,2018-06-29 09:33:33.687500,-85.81,95.03
93495,2018-06-29 09:33:33.718750,-102.27,95.03
93496,2018-06-29 09:33:33.750000,-114.02,95.03
93497,2018-06-29 09:33:33.781250,-105.85,95.03
93498,2018-06-29 09:33:33.812500,-71.97,95.03
93499,2018-06-29 09:33:33.843750,-25.21,95.03
93500,2018-06-29 09:33:33.875000,15.6,95.03
93501,2018-06-29 09:33:33.906250,42.33,95.03
93502,2018-06-29 09:33:33.937500,56.91,95.03
93503,2018-06-29 09:33:33.968750,62.37,95.03
93504,2018-06-29 09:33:34.000000,61.77,95.03
93505,2018-06-29 09:33:34.031250,59.51,95.03
93506,2018-06-29 09:33:34.062500,58.25,95.03
93507,2018-06-29 09:33:34.093750,57.21,95.03
93508,2018-06-29 09:33:34.125000,55.26,95.03
93509,2018-06-29 09:33:34.156250,52.94,95.03
93510,2018-06-29 09:33:34.187500,50.48,95.03
93511,2018-06-29 09:33:34.218750,46.48,95.03
93512,2018-06-29 09:33:34.250000,39.3,95.03
93513,2018-06-29 09:33:34.281250,29.51,95.03
93514,2018-06-29 09:33:34.312500,20.09,95.03
93515,2018-06-29 09:33:34.343750,12.92,95.03
93516,2018-06-29 09:33:34.375000,6.28,95.03
93517,2018-06-29 09:33:34.406250,-2.35,95.03
93518,2018-06-29 09:33:34.437500,-12.1,95.03
93519,2018-06-29 09:33:34.468750,-20.0,95.03
93520,2018-06-29 09:33:34.500000,-25.91,95.03
93521,2018-06-29 09:33:34.531250,-33.17,94.57
93522,2018-06-29 09:33:34.562500,-43.38,94.57
93523,2018-06-29 09:33:34.593750,-54.15,94.57
93524,2018-06-29 09:33:34.625000,-63.1,94.57
93525,2018-06-29 09:33:34.656250,-71.2,94.57
93526,2018-06-29 09:33:34.687500,-81.59,94.57
93527,2018-06-29 09:33:34.718750,-95.82,94.57
93528,2018-06-29 09:33:34.750000,-108.62,94.57
93529,2018-06-29 09:33:34.781250,-107.31,94.57
93530,2018-06-29 09:33:34.812500,-83.23,94.57
93531,2018-06-29 09:33:34.843750,-43.38,94.57
93532,2018-06-29 09:33:34.875000,-4.12,94.57
93533,2018-06-29 09:33:34.906250,24.31,94.57
93534,2018-06-29 09:33:34.937500,41.69,94.57
93535,2018-06-29 09:33:34.968750,51.02,94.57
93536,2018-06-29 09:33:35.000000,54.52,94.57
93537,2018-06-29 09:33:35.031250,54.5,94.57
93538,2018-06-29 09:33:35.062500,53.22,94.57
93539,2018-06-29 09:33:35.093750,51.38,94.57
93540,2018-06-29 09:33:35.125000,48.97,94.57
93541,2018-06-29 09:33:35.156250,47.09,94.57
93542,2018-06-29 09:33:35.187500,46.3,94.57
93543,2018-06-29 09:33:35.218750,44.93,94.57
93544,2018-06-29 09:33:35.250000,41.45,94.57
93545,2018-06-29 09:33:35.281250,36.6,94.57
93546,2018-06-29 09:33:35.312500,31.07,94.57
93547,2018-06-29 09:33:35.343750,24.47,94.57
93548,2018-06-29 09:33:35.375000,17.05,94.57
93549,2018-06-29 09:33:35.406250,10.34,94.57
93550,2018-06-29 09:33:35.437500,5.12,94.57
93551,2018-06-29 09:33:35.468750,0.39,94.57
93552,2018-06-29 09:33:35.500000,-5.2,94.57
93553,2018-06-29 09:33:35.531250,-11.83,94.12
93554,2018-06-29 09:33:35.562500,-18.54,94.12
93555,2018-06-29 09:33:35.593750,-24.85,94.12
93556,2018-06-29 09:33:35.625000,-32.18,94.12
93557,2018-06-29 09:33:35.656250,-41.69,94.12
93558,2018-06-29 09:33:35.687500,-51.84,94.12
93559,2018-06-29 09:33:35.718750,-60.32,94.12
93560,2018-06-29 09:33:35.750000,-67.32,94.12
93561,2018-06-29 09:33:35.781250,-75.7,94.12
93562,2018-06-29 09:33:35.812500,-87.2,94.12
93563,2018-06-29 09:33:35.843750,-96.84,94.12
93564,2018-06-29 09:33:35.875000,-93.07,94.12
93565,2018-06-29 09:33:35.906250,-69.7,94.12
93566,2018-06-29 09:33:35.937500,-35.1,94.12
93567,2018-06-29 09:33:35.968750,-3.81,94.12
93568,2018-06-29 09:33:36.000000,17.11,94.12
93569,2018-06-29 09:33:36.031250,29.1,94.12
93570,2018-06-29 09:33:36.062500,35.54,94.12
93571,2018-06-29 09:33:36.093750,38.55,94.12
93572,2018-06-29 09:33:36.125000,39.52,94.12
93573,2018-06-29 09:33:36.156250,39.4,94.12
93574,2018-06-29 09:33:36.187500,38.71,94.12
93575,2018-06-29 09:33:36.218750,37.85,94.12
93576,2018-06-29 09:33:36.250000,37.32,94.12
93577,2018-06-29 09:33:36.281250,36.8,94.12
93578,2018-06-29 09:33:36.312500,35.07,94.12
93579,2018-06-29 09:33:36.343750,31.11,94.12
93580,2018-06-29 09:33:36.375000,25.55,94.12
93581,2018-06-29 09:33:36.406250,20.13,94.12
93582,2018-06-29 09:33:36.437500,15.59,94.12
93583,2018-06-29 09:33:36.468750,10.6,94.12
93584,2018-06-29 09:33:36.500000,3.66,94.12
93585,2018-06-29 09:33:36.531250,-4.43,93.7
93586,2018-06-29 09:33:36.562500,-11.39,93.7
93587,2018-06-29 09:33:36.593750,-16.84,93.7
93588,2018-06-29 09:33:36.625000,-23.08,93.7
93589,2018-06-29 09:33:36.656250,-31.44,93.7
93590,2018-06-29 09:33:36.687500,-39.98,93.7
93591,2018-06-29 09:33:36.718750,-46.39,93.7
93592,2018-06-29 09:33:36.750000,-51.08,93.7
93593,2018-06-29 09:33:36.781250,-57.14,93.7
93594,2018-06-29 09:33:36.812500,-67.12,93.7
93595,2018-06-29 09:33:36.843750,-77.64,93.7
93596,2018-06-29 09:33:36.875000,-78.26,93.7
93597,2018-06-29 09:33:36.906250,-61.25,93.7
93598,2018-06-29 09:33:36.937500,-31.88,93.7
93599,2018-06-29 09:33:36.968750,-3.63,93.7
93600,2018-06-29 09:33:37.000000,15.17,93.7
93601,2018-06-29 09:33:37.031250,25.15,93.7
93602,2018-06-29 09:33:37.062500,29.83,93.7
93603,2018-06-29 09:33:37.093750,31.58,93.7
93604,2018-06-29 09:33:37.125000,32.28,93.7
93605,2018-06-29 09:33:37.156250,33.38,93.7
93606,2018-06-29 09:33:37.187500,34.69,93.7
93607,2018-06-29 09:33:37.218750,35.34,93.7
93608,2018-06-29 09:33:37.250000,35.63,93.7
93609,2018-06-29 09:33:37.281250,36.25,93.7
93610,2018-06-29 09:33:37.312500,35.84,93.7
93611,2018-06-29 09:33:37.343750,31.91,93.7
93612,2018-06-29 09:33:37.375000,24.69,93.7
93613,2018-06-29 09:33:37.406250,17.53,93.7
93614,2018-06-29 09:33:37.437500,12.77,93.7
93615,2018-06-29 09:33:37.468750,9.01,93.7
93616,2018-06-29 09:33:37.500000,3.72,93.7
93617,2018-06-29 09:33:37.531250,-2.96,93.45
93618,2018-06-29 09:33:37.562500,-8.99,93.45
93619,2018-06-29 09:33:37.593750,-13.93,93.45
93620,2018-06-29 09:33:37.625000,-19.5,93.45
93621,2018-06-29 09:33:37.656250,-26.87,93.45
93622,2018-06-29 09:33:37.687500,-35.08,93.45
93623,2018-06-29 09:33:37.718750,-42.65,93.45
93624,2018-06-29 09:33:37.750000,-48.96,93.45
93625,2018-06-29 09:33:37.781250,-54.89,93.45
93626,2018-06-29 09:33:37.812500,-62.74,93.45
93627,2018-06-29 09:33:37.843750,-72.75,93.45
93628,2018-06-29 09:33:37.875000,-78.19,93.45
93629,2018-06-29 09:33:37.906250,-69.31,93.45
93630,2018-06-29 09:33:37.937500,-44.84,93.45
93631,2018-06-29 09:33:37.968750,-14.92,93.45
93632,2018-06-29 09:33:38.000000,9.17,93.45
93633,2018-06-29 09:33:38.031250,23.81,93.45
93634,2018-06-29 09:33:38.062500,31.34,93.45
93635,2018-06-29 09:33:38.093750,34.44,93.45
93636,2018-06-29 09:33:38.125000,34.81,93.45
93637,2018-06-29 09:33:38.156250,34.04,93.45
93638,2018-06-29 09:33:38.187500,33.18,93.45
93639,2018-06-29 09:33:38.218750,32.18,93.45
93640,2018-06-29 09:33:38.250000,30.92,93.45
93641,2018-06-29 09:33:38.281250,29.87,93.45
93642,2018-06-29 09:33:38.312500,28.72,93.45
93643,2018-06-29 09:33:38.343750,26.25,93.45
93644,2018-06-29 09:33:38.375000,21.97,93.45
93645,2018-06-29 09:33:38.406250,16.35,93.45
93646,2018-06-29 09:33:38.437500,10.07,93.45
93647,2018-06-29 09:33:38.468750,3.8,93.45
93648,2018-06-29 09:33:38.500000,-2.08,93.45
93649,2018-06-29 09:33:38.531250,-8.23,93.15
93650,2018-06-29 09:33:38.562500,-15.49,93.15
93651,2018-06-29 09:33:38.593750,-23.37,93.15
93652,2018-06-29 09:33:38.625000,-30.43,93.15
93653,2018-06-29 09:33:38.656250,-36.42,93.15
93654,2018-06-29 09:33:38.687500,-42.88,93.15
93655,2018-06-29 09:33:38.718750,-51.97,93.15
93656,2018-06-29 09:33:38.750000,-64.09,93.15
93657,2018-06-29 09:33:38.781250,-74.03,93.15
93658,2018-06-29 09:33:38.812500,-71.69,93.15
93659,2018-06-29 09:33:38.843750,-52.02,93.15
93660,2018-06-29 09:33:38.875000,-22.27,93.15
93661,2018-06-29 09:33:38.906250,4.99,93.15
93662,2018-06-29 09:33:38.937500,23.26,93.15
93663,2018-06-29 09:33:38.968750,33.36,93.15
93664,2018-06-29 09:33:39.000000,38.07,93.15
93665,2018-06-29 09:33:39.031250,39.24,93.15
93666,2018-06-29 09:33:39.062500,38.05,93.15
93667,2018-06-29 09:33:39.093750,35.6,93.15
93668,2018-06-29 09:33:39.125000,32.97,93.15
93669,2018-06-29 09:33:39.156250,30.89,93.15
93670,2018-06-29 09:33:39.187500,29.57,93.15
93671,2018-06-29 09:33:39.218750,28.75,93.15
93672,2018-06-29 09:33:39.250000,27.43,93.15
93673,2018-06-29 09:33:39.281250,24.18,93.15
93674,2018-06-29 09:33:39.312500,18.43,93.15
93675,2018-06-29 09:33:39.343750,11.15,93.15
93676,2018-06-29 09:33:39.375000,3.79,93.15
93677,2018-06-29 09:33:39.406250,-3.44,93.15
93678,2018-06-29 09:33:39.437500,-11.37,93.15
93679,2018-06-29 09:33:39.468750,-20.47,93.15
93680,2018-06-29 09:33:39.500000,-30.2,93.15
93681,2018-06-29 09:33:39.531250,-39.24,92.75
93682,2018-06-29 09:33:39.562500,-46.44,92.75
93683,2018-06-29 09:33:39.593750,-52.0,92.75
93684,2018-06-29 09:33:39.625000,-58.75,92.75
93685,2018-06-29 09:33:39.656250,-69.77,92.75
93686,2018-06-29 09:33:39.687500,-82.1,92.75
93687,2018-06-29 09:33:39.718750,-84.72,92.75
93688,2018-06-29 09:33:39.750000,-68.58,92.75
93689,2018-06-29 09:33:39.781250,-38.01,92.75
93690,2018-06-29 09:33:39.812500,-6.48,92.75
93691,2018-06-29 09:33:39.843750,16.96,92.75
93692,2018-06-29 09:33:39.875000,32.03,92.75
93693,2018-06-29 09:33:39.906250,41.32,92.75
93694,2018-06-29 09:33:39.937500,46.31,92.75
93695,2018-06-29 09:33:39.968750,48.27,92.75
93696,2018-06-29 09:33:40.000000,48.68,92.75
93697,2018-06-29 09:33:40.031250,48.31,92.75
93698,2018-06-29 09:33:40.062500,47.45,92.75
93699,2018-06-29 09:33:40.093750,46.83,92.75
93700,2018-06-29 09:33:40.125000,46.61,92.75
93701,2018-06-29 09:33:40.156250,44.81,92.75
93702,2018-06-29 09:33:40.187500,39.44,92.75
93703,2018-06-29 09:33:40.218750,31.84,92.75
93704,2018-06-29 09:33:40.250000,24.44,92.75
93705,2018-06-29 09:33:40.281250,16.85,92.75
93706,2018-06-29 09:33:40.312500,7.99,92.75
93707,2018-06-29 09:33:40.343750,-0.7,92.75
93708,2018-06-29 09:33:40.375000,-7.64,92.75
93709,2018-06-29 09:33:40.406250,-13.92,92.75
93710,2018-06-29 09:33:40.437500,-21.41,92.75
93711,2018-06-29 09:33:40.468750,-30.14,92.75
93712,2018-06-29 09:33:40.500000,-38.9,92.75
93713,2018-06-29 09:33:40.531250,-47.15,92.02
93714,2018-06-29 09:33:40.562500,-56.43,92.02
93715,2018-06-29 09:33:40.593750,-69.59,92.02
93716,2018-06-29 09:33:40.625000,-85.72,92.02
93717,2018-06-29 09:33:40.656250,-95.73,92.02
93718,2018-06-29 09:33:40.687500,-87.63,92.02
93719,2018-06-29 09:33:40.718750,-59.27,92.02
93720,2018-06-29 09:33:40.750000,-22.35,92.02
93721,2018-06-29 09:33:40.781250,8.93,92.02
93722,2018-06-29 09:33:40.812500,29.78,92.02
93723,2018-06-29 09:33:40.843750,43.3,92.02
93724,2018-06-29 09:33:40.875000,52.09,92.02
93725,2018-06-29 09:33:40.906250,56.43,92.02
93726,2018-06-29 09:33:40.937500,57.44,92.02
93727,2018-06-29 09:33:40.968750,57.26,92.02
93728,2018-06-29 09:33:41.000000,56.86,92.02
93729,2018-06-29 09:33:41.031250,56.45,92.02
93730,2018-06-29 09:33:41.062500,56.39,92.02
93731,2018-06-29 09:33:41.093750,55.72,92.02
93732,2018-06-29 09:33:41.125000,52.29,92.02
93733,2018-06-29 09:33:41.156250,45.86,92.02
93734,2018-06-29 09:33:41.187500,38.54,92.02
93735,2018-06-29 09:33:41.218750,31.57,92.02
93736,2018-06-29 09:33:41.250000,24.45,92.02
93737,2018-06-29 09:33:41.281250,16.9,92.02
93738,2018-06-29 09:33:41.312500,9.06,92.02
93739,2018-06-29 09:33:41.343750,0.98,92.02
93740,2018-06-29 09:33:41.375000,-6.65,92.02
93741,2018-06-29 09:33:41.406250,-12.96,92.02
93742,2018-06-29 09:33:41.437500,-18.95,92.02
93743,2018-06-29 09:33:41.468750,-26.95,92.02
93744,2018-06-29 09:33:41.500000,-37.46,92.02
93745,2018-06-29 09:33:41.531250,-48.03,91.28
93746,2018-06-29 09:33:41.562500,-56.53,91.28
93747,2018-06-29 09:33:41.593750,-64.67,91.28
93748,2018-06-29 09:33:41.625000,-76.72,91.28
93749,2018-06-29 09:33:41.656250,-92.91,91.28
93750,2018-06-29 09:33:41.687500,-104.39,91.28
93751,2018-06-29 09:33:41.718750,-97.73,91.28
93752,2018-06-29 09:33:41.750000,-68.58,91.28
93753,2018-06-29 09:33:41.781250,-28.05,91.28
93754,2018-06-29 09:33:41.812500,8.08,91.28
93755,2018-06-29 09:33:41.843750,32.87,91.28
93756,2018-06-29 09:33:41.875000,47.98,91.28
93757,2018-06-29 09:33:41.906250,55.86,91.28
93758,2018-06-29 09:33:41.937500,58.22,91.28
93759,2018-06-29 09:33:41.968750,57.73,91.28
93760,2018-06-29 09:33:42.000000,56.53,91.28
93761,2018-06-29 09:33:42.031250,55.08,91.28
93762,2018-06-29 09:33:42.062500,54.06,91.28
93763,2018-06-29 09:33:42.093750,54.53,91.28
93764,2018-06-29 09:33:42.125000,55.24,91.28
93765,2018-06-29 09:33:42.156250,52.98,91.28
93766,2018-06-29 09:33:42.187500,46.6,91.28
93767,2018-06-29 09:33:42.218750,38.47,91.28
93768,2018-06-29 09:33:42.250000,31.01,91.28
93769,2018-06-29 09:33:42.281250,23.67,91.28
93770,2018-06-29 09:33:42.312500,14.91,91.28
93771,2018-06-29 09:33:42.343750,5.49,91.28
93772,2018-06-29 09:33:42.375000,-2.65,91.28
93773,2018-06-29 09:33:42.406250,-9.66,91.28
93774,2018-06-29 09:33:42.437500,-17.85,91.28
93775,2018-06-29 09:33:42.468750,-27.8,91.28
93776,2018-06-29 09:33:42.500000,-37.36,91.28
93777,2018-06-29 09:33:42.531250,-45.06,90.55
93778,2018-06-29 09:33:42.562500,-52.54,90.55
93779,2018-06-29 09:33:42.593750,-62.63,90.55
93780,2018-06-29 09:33:42.625000,-75.62,90.55
93781,2018-06-29 09:33:42.656250,-85.63,90.55
93782,2018-06-29 09:33:42.687500,-81.4,90.55
93783,2018-06-29 09:33:42.718750,-56.65,90.55
93784,2018-06-29 09:33:42.750000,-19.63,90.55
93785,2018-06-29 09:33:42.781250,13.99,90.55
93786,2018-06-29 09:33:42.812500,35.84,90.55
93787,2018-06-29 09:33:42.843750,46.71,90.55
93788,2018-06-29 09:33:42.875000,49.22,90.55
93789,2018-06-29 09:33:42.906250,46.3,90.55
93790,2018-06-29 09:33:42.937500,42.87,90.55
93791,2018-06-29 09:33:42.968750,42.59,90.55
93792,2018-06-29 09:33:43.000000,44.56,90.55
93793,2018-06-29 09:33:43.031250,46.06,90.55
93794,2018-06-29 09:33:43.062500,46.24,90.55
93795,2018-06-29 09:33:43.093750,45.48,90.55
93796,2018-06-29 09:33:43.125000,42.86,90.55
93797,2018-06-29 09:33:43.156250,37.02,90.55
93798,2018-06-29 09:33:43.187500,28.73,90.55
93799,2018-06-29 09:33:43.218750,20.12,90.55
93800,2018-06-29 09:33:43.250000,11.71,90.55
93801,2018-06-29 09:33:43.281250,2.05,90.55
93802,2018-06-29 09:33:43.312500,-8.71,90.55
93803,2018-06-29 09:33:43.343750,-18.15,90.55
93804,2018-06-29 09:33:43.375000,-25.71,90.55
93805,2018-06-29 09:33:43.406250,-34.04,90.55
93806,2018-06-29 09:33:43.437500,-44.71,90.55
93807,2018-06-29 09:33:43.468750,-55.59,90.55
93808,2018-06-29 09:33:43.500000,-64.44,90.55
93809,2018-06-29 09:33:43.531250,-72.85,89.82
93810,2018-06-29 09:33:43.562500,-84.76,89.82
93811,2018-06-29 09:33:43.593750,-100.93,89.82
93812,2018-06-29 09:33:43.625000,-113.02,89.82
93813,2018-06-29 09:33:43.656250,-106.69,89.82
93814,2018-06-29 09:33:43.687500,-75.9,89.82
93815,2018-06-29 09:33:43.718750,-31.75,89.82
93816,2018-06-29 09:33:43.750000,8.4,89.82
93817,2018-06-29 09:33:43.781250,36.29,89.82
93818,2018-06-29 09:33:43.812500,53.72,89.82
93819,2018-06-29 09:33:43.843750,64.27,89.82
93820,2018-06-29 09:33:43.875000,69.55,89.82
93821,2018-06-29 09:33:43.906250,70.85,89.82
93822,2018-06-29 09:33:43.937500,70.12,89.82
93823,2018-06-29 09:33:43.968750,68.67,89.82
93824,2018-06-29 09:33:44.000000,66.71,89.82
93825,2018-06-29 09:33:44.031250,64.89,89.82
93826,2018-06-29 09:33:44.062500,63.9,89.82
93827,2018-06-29 09:33:44.093750,61.96,89.82
93828,2018-06-29 09:33:44.125000,56.51,89.82
93829,2018-06-29 09:33:44.156250,47.97,89.82
93830,2018-06-29 09:33:44.187500,38.6,89.82
93831,2018-06-29 09:33:44.218750,29.59,89.82
93832,2018-06-29 09:33:44.250000,21.3,89.82
93833,2018-06-29 09:33:44.281250,13.85,89.82
93834,2018-06-29 09:33:44.312500,6.39,89.82
93835,2018-06-29 09:33:44.343750,-1.68,89.82
93836,2018-06-29 09:33:44.375000,-9.37,89.82
93837,2018-06-29 09:33:44.406250,-15.69,89.82
93838,2018-06-29 09:33:44.437500,-21.76,89.82
93839,2018-06-29 09:33:44.468750,-29.9,89.82
93840,2018-06-29 09:33:44.500000,-40.58,89.82
93841,2018-06-29 09:33:44.531250,-51.35,89.08
93842,2018-06-29 09:33:44.562500,-59.8,89.08
93843,2018-06-29 09:33:44.593750,-67.43,89.08
93844,2018-06-29 09:33:44.625000,-78.71,89.08
93845,2018-06-29 09:33:44.656250,-94.68,89.08
93846,2018-06-29 09:33:44.687500,-106.62,89.08
93847,2018-06-29 09:33:44.718750,-99.76,89.08
93848,2018-06-29 09:33:44.750000,-68.27,89.08
93849,2018-06-29 09:33:44.781250,-24.07,89.08
93850,2018-06-29 09:33:44.812500,14.28,89.08
93851,2018-06-29 09:33:44.843750,38.2,89.08
93852,2018-06-29 09:33:44.875000,50.27,89.08
93853,2018-06-29 09:33:44.906250,55.12,89.08
93854,2018-06-29 09:33:44.937500,55.44,89.08
93855,2018-06-29 09:33:44.968750,53.75,89.08
93856,2018-06-29 09:33:45.000000,52.76,89.08
93857,2018-06-29 09:33:45.031250,53.44,89.08
93858,2018-06-29 09:33:45.062500,54.61,89.08
93859,2018-06-29 09:33:45.093750,55.21,89.08
93860,2018-06-29 09:33:45.125000,54.9,89.08
93861,2018-06-29 09:33:45.156250,52.0,89.08
93862,2018-06-29 09:33:45.187500,44.17,89.08
93863,2018-06-29 09:33:45.218750,32.87,89.08
93864,2018-06-29 09:33:45.250000,23.07,89.08
93865,2018-06-29 09:33:45.281250,16.53,89.08
93866,2018-06-29 09:33:45.312500,9.8,89.08
93867,2018-06-29 09:33:45.343750,-0.02,89.08
93868,2018-06-29 09:33:45.375000,-11.02,89.08
93869,2018-06-29 09:33:45.406250,-19.89,89.08
93870,2018-06-29 09:33:45.437500,-26.93,89.08
93871,2018-06-29 09:33:45.468750,-35.42,89.08
93872,2018-06-29 09:33:45.500000,-46.8,89.08
93873,2018-06-29 09:33:45.531250,-58.65,88.38
93874,2018-06-29 09:33:45.562500,-68.57,88.38
93875,2018-06-29 09:33:45.593750,-77.97,88.38
93876,2018-06-29 09:33:45.625000,-90.36,88.38
93877,2018-06-29 09:33:45.656250,-106.78,88.38
93878,2018-06-29 09:33:45.687500,-120.34,88.38
93879,2018-06-29 09:33:45.718750,-116.19,88.38
93880,2018-06-29 09:33:45.750000,-84.88,88.38
93881,2018-06-29 09:33:45.781250,-36.18,88.38
93882,2018-06-29 09:33:45.812500,9.19,88.38
93883,2018-06-29 09:33:45.843750,40.25,88.38
93884,2018-06-29 09:33:45.875000,59.52,88.38
93885,2018-06-29 09:33:45.906250,71.59,88.38
93886,2018-06-29 09:33:45.937500,77.83,88.38
93887,2018-06-29 09:33:45.968750,79.22,88.38
93888,2018-06-29 09:33:46.000000,77.59,88.38
93889,2018-06-29 09:33:46.031250,74.72,88.38
93890,2018-06-29 09:33:46.062500,71.95,88.38
93891,2018-06-29 09:33:46.093750,70.0,88.38
93892,2018-06-29 09:33:46.125000,68.48,88.38
93893,2018-06-29 09:33:46.156250,65.7,88.38
93894,2018-06-29 09:33:46.187500,59.96,88.38
93895,2018-06-29 09:33:46.218750,51.55,88.38
93896,2018-06-29 09:33:46.250000,42.34,88.38
93897,2018-06-29 09:33:46.281250,33.48,88.38
93898,2018-06-29 09:33:46.312500,25.03,88.38
93899,2018-06-29 09:33:46.343750,17.12,88.38
93900,2018-06-29 09:33:46.375000,9.66,88.38
93901,2018-06-29 09:33:46.406250,2.15,88.38
93902,2018-06-29 09:33:46.437500,-4.84,88.38
93903,2018-06-29 09:33:46.468750,-10.0,88.38
93904,2018-06-29 09:33:46.500000,-14.47,88.38
93905,2018-06-29 09:33:46.531250,-21.95,87.65
93906,2018-06-29 09:33:46.562500,-33.15,87.65
93907,2018-06-29 09:33:46.593750,-42.91,87.65
93908,2018-06-29 09:33:46.625000,-47.51,87.65
93909,2018-06-29 09:33:46.656250,-51.18,87.65
93910,2018-06-29 09:33:46.687500,-60.67,87.65
93911,2018-06-29 09:33:46.718750,-74.71,87.65
93912,2018-06-29 09:33:46.750000,-82.27,87.65
93913,2018-06-29 09:33:46.781250,-71.22,87.65
93914,2018-06-29 09:33:46.812500,-38.67,87.65
93915,2018-06-29 09:33:46.843750,6.73,87.65
93916,2018-06-29 09:33:46.875000,54.78,87.65
93917,2018-06-29 09:33:46.906250,103.46,87.65
93918,2018-06-29 09:33:46.937500,149.65,87.65
93919,2018-06-29 09:33:46.968750,174.29,87.65
93920,2018-06-29 09:33:47.000000,155.54,87.65
93921,2018-06-29 09:33:47.031250,102.29,87.65
93922,2018-06-29 09:33:47.062500,56.15,87.65
93923,2018-06-29 09:33:47.093750,46.38,87.65
93924,2018-06-29 09:33:47.125000,58.5,87.65
93925,2018-06-29 09:33:47.156250,63.23,87.65
93926,2018-06-29 09:33:47.187500,56.78,87.65
93927,2018-06-29 09:33:47.218750,51.29,87.65
93928,2018-06-29 09:33:47.250000,46.88,87.65
93929,2018-06-29 09:33:47.281250,37.12,87.65
93930,2018-06-29 09:33:47.312500,16.86,87.65
93931,2018-06-29 09:33:47.343750,-24.56,87.65
93932,2018-06-29 09:33:47.375000,-87.46,87.65
93933,2018-06-29 09:33:47.406250,-141.85,87.65
93934,2018-06-29 09:33:47.437500,-159.06,87.65
93935,2018-06-29 09:33:47.468750,-147.17,87.65
93936,2018-06-29 09:33:47.500000,-125.19,87.65
93937,2018-06-29 09:33:47.531250,-94.81,86.95
93938,2018-06-29 09:33:47.562500,-53.9,86.95
93939,2018-06-29 09:33:47.593750,-15.99,86.95
93940,2018-06-29 09:33:47.625000,10.5,86.95
93941,2018-06-29 09:33:47.656250,33.6,86.95
93942,2018-06-29 09:33:47.687500,57.87,86.95
93943,2018-06-29 09:33:47.718750,67.52,86.95
93944,2018-06-29 09:33:47.750000,40.53,86.95
93945,2018-06-29 09:33:47.781250,-19.29,86.95
93946,2018-06-29 09:33:47.812500,-92.2,86.95
93947,2018-06-29 09:33:47.843750,-157.81,86.95
93948,2018-06-29 09:33:47.875000,-210.37,86.95
93949,2018-06-29 09:33:47.906250,-254.18,86.95
93950,2018-06-29 09:33:47.937500,-307.12,86.95
93951,2018-06-29 09:33:47.968750,-370.73,86.95
93952,2018-06-29 09:33:48.000000,-349.11,86.95
93953,2018-06-29 09:33:48.031250,-218.6,86.95
93954,2018-06-29 09:33:48.062500,-76.4,86.95
93955,2018-06-29 09:33:48.093750,23.38,86.95
93956,2018-06-29 09:33:48.125000,98.63,86.95
93957,2018-06-29 09:33:48.156250,152.19,86.95
93958,2018-06-29 09:33:48.187500,174.1,86.95
93959,2018-06-29 09:33:48.218750,194.86,86.95
93960,2018-06-29 09:33:48.250000,241.72,86.95
93961,2018-06-29 09:33:48.281250,300.37,86.95
93962,2018-06-29 09:33:48.312500,326.66,86.95
93963,2018-06-29 09:33:48.343750,305.21,86.95
93964,2018-06-29 09:33:48.375000,258.94,86.95
93965,2018-06-29 09:33:48.406250,216.35,86.95
93966,2018-06-29 09:33:48.437500,171.45,86.95
93967,2018-06-29 09:33:48.468750,83.12,86.95
93968,2018-06-29 09:33:48.500000,-69.87,86.95
93969,2018-06-29 09:33:48.531250,-249.88,86.2
93970,2018-06-29 09:33:48.562500,-390.46,86.2
93971,2018-06-29 09:33:48.593750,-409.0,86.2
93972,2018-06-29 09:33:48.625000,-305.41,86.2
93973,2018-06-29 09:33:48.656250,-165.85,86.2
93974,2018-06-29 09:33:48.687500,-58.19,86.2
93975,2018-06-29 09:33:48.718750,2.91,86.2
93976,2018-06-29 09:33:48.750000,19.28,86.2
93977,2018-06-29 09:33:48.781250,16.62,86.2
93978,2018-06-29 09:33:48.812500,14.97,86.2
93979,2018-06-29 09:33:48.843750,20.07,86.2
93980,2018-06-29 09:33:48.875000,28.23,86.2
93981,2018-06-29 09:33:48.906250,35.13,86.2
93982,2018-06-29 09:33:48.937500,40.47,86.2
93983,2018-06-29 09:33:48.968750,44.19,86.2
93984,2018-06-29 09:33:49.000000,43.38,86.2
93985,2018-06-29 09:33:49.031250,33.93,86.2
93986,2018-06-29 09:33:49.062500,20.75,86.2
93987,2018-06-29 09:33:49.093750,15.93,86.2
93988,2018-06-29 09:33:49.125000,24.12,86.2
93989,2018-06-29 09:33:49.156250,37.45,86.2
93990,2018-06-29 09:33:49.187500,46.72,86.2
93991,2018-06-29 09:33:49.218750,51.31,86.2
93992,2018-06-29 09:33:49.250000,54.46,86.2
93993,2018-06-29 09:33:49.281250,55.69,86.2
93994,2018-06-29 09:33:49.312500,52.15,86.2
93995,2018-06-29 09:33:49.343750,43.75,86.2
93996,2018-06-29 09:33:49.375000,33.22,86.2
93997,2018-06-29 09:33:49.406250,23.37,86.2
93998,2018-06-29 09:33:49.437500,16.02,86.2
93999,2018-06-29 09:33:49.468750,11.83,86.2
94000,2018-06-29 09:33:49.500000,9.32,86.2
94001,2018-06-29 09:33:49.531250,6.3,85.43
94002,2018-06-29 09:33:49.562500,2.05,85.43
94003,2018-06-29 09:33:49.593750,-3.02,85.43
94004,2018-06-29 09:33:49.625000,-8.62,85.43
94005,2018-06-29 09:33:49.656250,-14.82,85.43
94006,2018-06-29 09:33:49.687500,-22.49,85.43
94007,2018-06-29 09:33:49.718750,-32.69,85.43
94008,2018-06-29 09:33:49.750000,-44.48,85.43
94009,2018-06-29 09:33:49.781250,-54.81,85.43
94010,2018-06-29 09:33:49.812500,-62.24,85.43
94011,2018-06-29 09:33:49.843750,-69.4,85.43
94012,2018-06-29 09:33:49.875000,-80.94,85.43
94013,2018-06-29 09:33:49.906250,-96.34,85.43
94014,2018-06-29 09:33:49.937500,-104.21,85.43
94015,2018-06-29 09:33:49.968750,-90.04,85.43
94016,2018-06-29 09:33:50.000000,-52.98,85.43
94017,2018-06-29 09:33:50.031250,-8.35,85.43
94018,2018-06-29 09:33:50.062500,28.01,85.43
94019,2018-06-29 09:33:50.093750,51.41,85.43
94020,2018-06-29 09:33:50.125000,64.59,85.43
94021,2018-06-29 09:33:50.156250,70.35,85.43
94022,2018-06-29 09:33:50.187500,70.95,85.43
94023,2018-06-29 09:33:50.218750,69.9,85.43
94024,2018-06-29 09:33:50.250000,69.99,85.43
94025,2018-06-29 09:33:50.281250,70.8,85.43
94026,2018-06-29 09:33:50.312500,70.91,85.43
94027,2018-06-29 09:33:50.343750,70.57,85.43
94028,2018-06-29 09:33:50.375000,70.25,85.43
94029,2018-06-29 09:33:50.406250,68.9,85.43
94030,2018-06-29 09:33:50.437500,65.05,85.43
94031,2018-06-29 09:33:50.468750,58.66,85.43
94032,2018-06-29 09:33:50.500000,51.02,85.43
94033,2018-06-29 09:33:50.531250,43.16,84.63
94034,2018-06-29 09:33:50.562500,34.82,84.63
94035,2018-06-29 09:33:50.593750,25.57,84.63
94036,2018-06-29 09:33:50.625000,16.07,84.63
94037,2018-06-29 09:33:50.656250,7.55,84.63
94038,2018-06-29 09:33:50.687500,0.33,84.63
94039,2018-06-29 09:33:50.718750,-6.82,84.63
94040,2018-06-29 09:33:50.750000,-16.06,84.63
94041,2018-06-29 09:33:50.781250,-28.42,84.63
94042,2018-06-29 09:33:50.812500,-42.41,84.63
94043,2018-06-29 09:33:50.843750,-55.19,84.63
94044,2018-06-29 09:33:50.875000,-65.78,84.63
94045,2018-06-29 09:33:50.906250,-76.98,84.63
94046,2018-06-29 09:33:50.937500,-92.4,84.63
94047,2018-06-29 09:33:50.968750,-108.5,84.63
94048,2018-06-29 09:33:51.000000,-111.99,84.63
94049,2018-06-29 09:33:51.031250,-91.35,84.63
94050,2018-06-29 09:33:51.062500,-50.97,84.63
94051,2018-06-29 09:33:51.093750,-7.62,84.63
94052,2018-06-29 09:33:51.125000,25.85,84.63
94053,2018-06-29 09:33:51.156250,47.7,84.63
94054,2018-06-29 09:33:51.187500,61.26,84.63
94055,2018-06-29 09:33:51.218750,69.24,84.63
94056,2018-06-29 09:33:51.250000,73.29,84.63
94057,2018-06-29 09:33:51.281250,74.27,84.63
94058,2018-06-29 09:33:51.312500,72.72,84.63
94059,2018-06-29 09:33:51.343750,70.28,84.63
94060,2018-06-29 09:33:51.375000,69.06,84.63
94061,2018-06-29 09:33:51.406250,69.1,84.63
94062,2018-06-29 09:33:51.437500,68.16,84.63
94063,2018-06-29 09:33:51.468750,64.27,84.63
94064,2018-06-29 09:33:51.500000,57.61,84.63
94065,2018-06-29 09:33:51.531250,49.62,83.82
94066,2018-06-29 09:33:51.562500,41.43,83.82
94067,2018-06-29 09:33:51.593750,33.23,83.82
94068,2018-06-29 09:33:51.625000,25.09,83.82
94069,2018-06-29 09:33:51.656250,17.72,83.82
94070,2018-06-29 09:33:51.687500,11.37,83.82
94071,2018-06-29 09:33:51.718750,4.87,83.82
94072,2018-06-29 09:33:51.750000,-2.93,83.82
94073,2018-06-29 09:33:51.781250,-11.45,83.82
94074,2018-06-29 09:33:51.812500,-19.79,83.82
94075,2018-06-29 09:33:51.843750,-29.2,83.82
94076,2018-06-29 09:33:51.875000,-41.23,83.82
94077,2018-06-29 09:33:51.906250,-54.09,83.82
94078,2018-06-29 09:33:51.937500,-64.4,83.82
94079,2018-06-29 09:33:51.968750,-71.91,83.82
94080,2018-06-29 09:33:52.000000,-80.46,83.82
94081,2018-06-29 09:33:52.031250,-93.63,83.82
94082,2018-06-29 09:33:52.062500,-107.66,83.82
94083,2018-06-29 09:33:52.093750,-109.44,83.82
94084,2018-06-29 09:33:52.125000,-87.62,83.82
94085,2018-06-29 09:33:52.156250,-47.16,83.82
94086,2018-06-29 09:33:52.187500,-5.83,83.82
94087,2018-06-29 09:33:52.218750,23.51,83.82
94088,2018-06-29 09:33:52.250000,40.61,83.82
94089,2018-06-29 09:33:52.281250,50.04,83.82
94090,2018-06-29 09:33:52.312500,54.57,83.82
94091,2018-06-29 09:33:52.343750,56.2,83.82
94092,2018-06-29 09:33:52.375000,56.57,83.82
94093,2018-06-29 09:33:52.406250,55.82,83.82
94094,2018-06-29 09:33:52.437500,53.99,83.82
94095,2018-06-29 09:33:52.468750,52.37,83.82
94096,2018-06-29 09:33:52.500000,51.69,83.82
94097,2018-06-29 09:33:52.531250,50.89,83.02
94098,2018-06-29 09:33:52.562500,48.24,83.02
94099,2018-06-29 09:33:52.593750,42.53,83.02
94100,2018-06-29 09:33:52.625000,34.38,83.02
94101,2018-06-29 09:33:52.656250,26.61,83.02
94102,2018-06-29 09:33:52.687500,20.56,83.02
94103,2018-06-29 09:33:52.718750,14.36,83.02
94104,2018-06-29 09:33:52.750000,6.73,83.02
94105,2018-06-29 09:33:52.781250,-0.62,83.02
94106,2018-06-29 09:33:52.812500,-6.17,83.02
94107,2018-06-29 09:33:52.843750,-11.18,83.02
94108,2018-06-29 09:33:52.875000,-17.72,83.02
94109,2018-06-29 09:33:52.906250,-26.26,83.02
94110,2018-06-29 09:33:52.937500,-35.5,83.02
94111,2018-06-29 09:33:52.968750,-43.44,83.02
94112,2018-06-29 09:33:53.000000,-49.32,83.02
94113,2018-06-29 09:33:53.031250,-55.12,83.02
94114,2018-06-29 09:33:53.062500,-64.28,83.02
94115,2018-06-29 09:33:53.093750,-75.58,83.02
94116,2018-06-29 09:33:53.125000,-78.87,83.02
94117,2018-06-29 09:33:53.156250,-63.5,83.02
94118,2018-06-29 09:33:53.187500,-31.66,83.02
94119,2018-06-29 09:33:53.218750,2.35,83.02
94120,2018-06-29 09:33:53.250000,26.52,83.02
94121,2018-06-29 09:33:53.281250,38.8,83.02
94122,2018-06-29 09:33:53.312500,42.01,83.02
94123,2018-06-29 09:33:53.343750,39.26,83.02
94124,2018-06-29 09:33:53.375000,34.79,83.02
94125,2018-06-29 09:33:53.406250,32.78,83.02
94126,2018-06-29 09:33:53.437500,33.76,83.02
94127,2018-06-29 09:33:53.468750,35.2,83.02
94128,2018-06-29 09:33:53.500000,35.62,83.02
94129,2018-06-29 09:33:53.531250,35.24,82.22
94130,2018-06-29 09:33:53.562500,33.54,82.22
94131,2018-06-29 09:33:53.593750,29.74,82.22
94132,2018-06-29 09:33:53.625000,24.27,82.22
94133,2018-06-29 09:33:53.656250,17.66,82.22
94134,2018-06-29 09:33:53.687500,9.26,82.22
94135,2018-06-29 09:33:53.718750,-0.82,82.22
94136,2018-06-29 09:33:53.750000,-10.49,82.22
94137,2018-06-29 09:33:53.781250,-18.38,82.22
94138,2018-06-29 09:33:53.812500,-25.9,82.22
94139,2018-06-29 09:33:53.843750,-34.7,82.22
94140,2018-06-29 09:33:53.875000,-43.96,82.22
94141,2018-06-29 09:33:53.906250,-51.92,82.22
94142,2018-06-29 09:33:53.937500,-58.88,82.22
94143,2018-06-29 09:33:53.968750,-67.75,82.22
94144,2018-06-29 09:33:54.000000,-81.16,82.22
94145,2018-06-29 09:33:54.031250,-95.39,82.22
94146,2018-06-29 09:33:54.062500,-98.23,82.22
94147,2018-06-29 09:33:54.093750,-79.61,82.22
94148,2018-06-29 09:33:54.125000,-44.48,82.22
94149,2018-06-29 09:33:54.156250,-8.79,82.22
94150,2018-06-29 09:33:54.187500,16.82,82.22
94151,2018-06-29 09:33:54.218750,32.72,82.22
94152,2018-06-29 09:33:54.250000,42.62,82.22
94153,2018-06-29 09:33:54.281250,48.19,82.22
94154,2018-06-29 09:33:54.312500,50.26,82.22
94155,2018-06-29 09:33:54.343750,50.04,82.22
94156,2018-06-29 09:33:54.375000,48.88,82.22
94157,2018-06-29 09:33:54.406250,47.91,82.22
94158,2018-06-29 09:33:54.437500,47.39,82.22
94159,2018-06-29 09:33:54.468750,46.41,82.22
94160,2018-06-29 09:33:54.500000,43.77,82.22
94161,2018-06-29 09:33:54.531250,38.85,81.43
94162,2018-06-29 09:33:54.562500,31.91,81.43
94163,2018-06-29 09:33:54.593750,23.79,81.43
94164,2018-06-29 09:33:54.625000,15.22,81.43
94165,2018-06-29 09:33:54.656250,6.69,81.43
94166,2018-06-29 09:33:54.687500,-0.96,81.43
94167,2018-06-29 09:33:54.718750,-7.32,81.43
94168,2018-06-29 09:33:54.750000,-13.67,81.43
94169,2018-06-29 09:33:54.781250,-21.43,81.43
94170,2018-06-29 09:33:54.812500,-29.91,81.43
94171,2018-06-29 09:33:54.843750,-37.76,81.43
94172,2018-06-29 09:33:54.875000,-45.81,81.43
94173,2018-06-29 09:33:54.906250,-56.33,81.43
94174,2018-06-29 09:33:54.937500,-69.7,81.43
94175,2018-06-29 09:33:54.968750,-80.72,81.43
94176,2018-06-29 09:33:55.000000,-79.17,81.43
94177,2018-06-29 09:33:55.031250,-58.73,81.43
94178,2018-06-29 09:33:55.062500,-25.86,81.43
94179,2018-06-29 09:33:55.093750,5.44,81.43
94180,2018-06-29 09:33:55.125000,26.78,81.43
94181,2018-06-29 09:33:55.156250,38.9,81.43
94182,2018-06-29 09:33:55.187500,44.84,81.43
94183,2018-06-29 09:33:55.218750,45.83,81.43
94184,2018-06-29 09:33:55.250000,43.6,81.43
94185,2018-06-29 09:33:55.281250,41.46,81.43
94186,2018-06-29 09:33:55.312500,40.83,81.43
94187,2018-06-29 09:33:55.343750,40.32,81.43
94188,2018-06-29 09:33:55.375000,39.41,81.43
94189,2018-06-29 09:33:55.406250,38.82,81.43
94190,2018-06-29 09:33:55.437500,36.79,81.43
94191,2018-06-29 09:33:55.468750,29.95,81.43
94192,2018-06-29 09:33:55.500000,18.28,81.43
94193,2018-06-29 09:33:55.531250,5.45,80.7
94194,2018-06-29 09:33:55.562500,-5.99,80.7
94195,2018-06-29 09:33:55.593750,-17.33,80.7
94196,2018-06-29 09:33:55.625000,-29.91,80.7
94197,2018-06-29 09:33:55.656250,-41.66,80.7
94198,2018-06-29 09:33:55.687500,-49.92,80.7
94199,2018-06-29 09:33:55.718750,-56.24,80.7
94200,2018-06-29 09:33:55.750000,-65.25,80.7
94201,2018-06-29 09:33:55.781250,-79.01,80.7
94202,2018-06-29 09:33:55.812500,-91.85,80.7
94203,2018-06-29 09:33:55.843750,-91.94,80.7
94204,2018-06-29 09:33:55.875000,-71.99,80.7
94205,2018-06-29 09:33:55.906250,-38.47,80.7
94206,2018-06-29 09:33:55.937500,-5.59,80.7
94207,2018-06-29 09:33:55.968750,18.28,80.7
94208,2018-06-29 09:33:56.000000,34.08,80.7
94209,2018-06-29 09:33:56.031250,44.86,80.7
94210,2018-06-29 09:33:56.062500,50.97,80.7
94211,2018-06-29 09:33:56.093750,52.29,80.7
94212,2018-06-29 09:33:56.125000,50.87,80.7
94213,2018-06-29 09:33:56.156250,49.4,80.7
94214,2018-06-29 09:33:56.187500,48.34,80.7
94215,2018-06-29 09:33:56.218750,46.63,80.7
94216,2018-06-29 09:33:56.250000,44.2,80.7
94217,2018-06-29 09:33:56.281250,41.36,80.7
94218,2018-06-29 09:33:56.312500,36.94,80.7
94219,2018-06-29 09:33:56.343750,29.56,80.7
94220,2018-06-29 09:33:56.375000,19.87,80.7
94221,2018-06-29 09:33:56.406250,10.19,80.7
94222,2018-06-29 09:33:56.437500,1.93,80.7
94223,2018-06-29 09:33:56.468750,-5.69,80.7
94224,2018-06-29 09:33:56.500000,-14.53,80.7
94225,2018-06-29 09:33:56.531250,-25.11,79.95
94226,2018-06-29 09:33:56.562500,-35.87,79.95
94227,2018-06-29 09:33:56.593750,-45.28,79.95
94228,2018-06-29 09:33:56.625000,-54.5,79.95
94229,2018-06-29 09:33:56.656250,-66.95,79.95
94230,2018-06-29 09:33:56.687500,-83.57,79.95
94231,2018-06-29 09:33:56.718750,-97.42,79.95
94232,2018-06-29 09:33:56.750000,-96.1,79.95
94233,2018-06-29 09:33:56.781250,-74.04,79.95
94234,2018-06-29 09:33:56.812500,-39.79,79.95
94235,2018-06-29 09:33:56.843750,-6.97,79.95
94236,2018-06-29 09:33:56.875000,18.31,79.95
94237,2018-06-29 09:33:56.906250,37.45,79.95
94238,2018-06-29 09:33:56.937500,51.84,79.95
94239,2018-06-29 09:33:56.968750,60.96,79.95
94240,2018-06-29 09:33:57.000000,64.81,79.95
94241,2018-06-29 09:33:57.031250,64.82,79.95
94242,2018-06-29 09:33:57.062500,62.91,79.95
94243,2018-06-29 09:33:57.093750,60.57,79.95
94244,2018-06-29 09:33:57.125000,58.59,79.95
94245,2018-06-29 09:33:57.156250,56.87,79.95
94246,2018-06-29 09:33:57.187500,54.07,79.95
94247,2018-06-29 09:33:57.218750,48.98,79.95
94248,2018-06-29 09:33:57.250000,42.38,79.95
94249,2018-06-29 09:33:57.281250,36.17,79.95
94250,2018-06-29 09:33:57.312500,30.5,79.95
94251,2018-06-29 09:33:57.343750,23.8,79.95
94252,2018-06-29 09:33:57.375000,15.1,79.95
94253,2018-06-29 09:33:57.406250,5.23,79.95
94254,2018-06-29 09:33:57.437500,-3.98,79.95
94255,2018-06-29 09:33:57.468750,-11.45,79.95
94256,2018-06-29 09:33:57.500000,-18.56,79.95
94257,2018-06-29 09:33:57.531250,-27.81,79.25
94258,2018-06-29 09:33:57.562500,-38.81,79.25
94259,2018-06-29 09:33:57.593750,-48.57,79.25
94260,2018-06-29 09:33:57.625000,-56.37,79.25
94261,2018-06-29 09:33:57.656250,-65.53,79.25
94262,2018-06-29 09:33:57.687500,-79.07,79.25
94263,2018-06-29 09:33:57.718750,-93.93,79.25
94264,2018-06-29 09:33:57.750000,-99.48,79.25
94265,2018-06-29 09:33:57.781250,-85.78,79.25
94266,2018-06-29 09:33:57.812500,-55.07,79.25
94267,2018-06-29 09:33:57.843750,-20.85,79.25
94268,2018-06-29 09:33:57.875000,5.59,79.25
94269,2018-06-29 09:33:57.906250,22.98,79.25
94270,2018-06-29 09:33:57.937500,34.86,79.25
94271,2018-06-29 09:33:57.968750,42.93,79.25
94272,2018-06-29 09:33:58.000000,47.27,79.25
94273,2018-06-29 09:33:58.031250,48.73,79.25
94274,2018-06-29 09:33:58.062500,48.86,79.25
94275,2018-06-29 09:33:58.093750,48.65,79.25
94276,2018-06-29 09:33:58.125000,48.81,79.25
94277,2018-06-29 09:33:58.156250,49.36,79.25
94278,2018-06-29 09:33:58.187500,48.8,79.25
94279,2018-06-29 09:33:58.218750,45.32,79.25
94280,2018-06-29 09:33:58.250000,38.84,79.25
94281,2018-06-29 09:33:58.281250,30.9,79.25
94282,2018-06-29 09:33:58.312500,23.2,79.25
94283,2018-06-29 09:33:58.343750,16.2,79.25
94284,2018-06-29 09:33:58.375000,9.17,79.25
94285,2018-06-29 09:33:58.406250,2.3,79.25
94286,2018-06-29 09:33:58.437500,-3.66,79.25
94287,2018-06-29 09:33:58.468750,-9.97,79.25
94288,2018-06-29 09:33:58.500000,-18.51,79.25
94289,2018-06-29 09:33:58.531250,-28.46,78.65
94290,2018-06-29 09:33:58.562500,-37.42,78.65
94291,2018-06-29 09:33:58.593750,-44.96,78.65
94292,2018-06-29 09:33:58.625000,-53.36,78.65
94293,2018-06-29 09:33:58.656250,-65.45,78.65
94294,2018-06-29 09:33:58.687500,-78.91,78.65
94295,2018-06-29 09:33:58.718750,-83.12,78.65
94296,2018-06-29 09:33:58.750000,-68.23,78.65
94297,2018-06-29 09:33:58.781250,-37.43,78.65
94298,2018-06-29 09:33:58.812500,-4.17,78.65
94299,2018-06-29 09:33:58.843750,21.14,78.65
94300,2018-06-29 09:33:58.875000,36.7,78.65
94301,2018-06-29 09:33:58.906250,45.08,78.65
94302,2018-06-29 09:33:58.937500,48.67,78.65
94303,2018-06-29 09:33:58.968750,48.77,78.65
94304,2018-06-29 09:33:59.000000,46.87,78.65
94305,2018-06-29 09:33:59.031250,44.94,78.65
94306,2018-06-29 09:33:59.062500,43.82,78.65
94307,2018-06-29 09:33:59.093750,43.09,78.65
94308,2018-06-29 09:33:59.125000,42.54,78.65
94309,2018-06-29 09:33:59.156250,41.51,78.65
94310,2018-06-29 09:33:59.187500,38.1,78.65
94311,2018-06-29 09:33:59.218750,31.53,78.65
94312,2018-06-29 09:33:59.250000,23.64,78.65
94313,2018-06-29 09:33:59.281250,16.95,78.65
94314,2018-06-29 09:33:59.312500,12.13,78.65
94315,2018-06-29 09:33:59.343750,7.77,78.65
94316,2018-06-29 09:33:59.375000,2.18,78.65
94317,2018-06-29 09:33:59.406250,-4.21,78.65
94318,2018-06-29 09:33:59.437500,-9.83,78.65
94319,2018-06-29 09:33:59.468750,-14.85,78.65
94320,2018-06-29 09:33:59.500000,-21.31,78.65
94321,2018-06-29 09:33:59.531250,-29.91,78.05
94322,2018-06-29 09:33:59.562500,-38.88,78.05
94323,2018-06-29 09:33:59.593750,-46.16,78.05
94324,2018-06-29 09:33:59.625000,-52.29,78.05
94325,2018-06-29 09:33:59.656250,-60.37,78.05
94326,2018-06-29 09:33:59.687500,-72.84,78.05
94327,2018-06-29 09:33:59.718750,-86.25,78.05
94328,2018-06-29 09:33:59.750000,-89.68,78.05
94329,2018-06-29 09:33:59.781250,-73.67,78.05
94330,2018-06-29 09:33:59.812500,-42.21,78.05
94331,2018-06-29 09:33:59.843750,-9.71,78.05
94332,2018-06-29 09:33:59.875000,13.71,78.05
94333,2018-06-29 09:33:59.906250,28.09,78.05
94334,2018-06-29 09:33:59.937500,36.76,78.05
94335,2018-06-29 09:33:59.968750,41.24,78.05
94336,2018-06-29 09:34:00.000000,42.52,78.05
94337,2018-06-29 09:34:00.031250,42.35,78.05
94338,2018-06-29 09:34:00.062500,41.95,78.05
94339,2018-06-29 09:34:00.093750,41.29,78.05
94340,2018-06-29 09:34:00.125000,40.99,78.05
94341,2018-06-29 09:34:00.156250,42.07,78.05
94342,2018-06-29 09:34:00.187500,43.18,78.05
94343,2018-06-29 09:34:00.218750,41.23,78.05
94344,2018-06-29 09:34:00.250000,35.44,78.05
94345,2018-06-29 09:34:00.281250,28.05,78.05
94346,2018-06-29 09:34:00.312500,21.26,78.05
94347,2018-06-29 09:34:00.343750,15.51,78.05
94348,2018-06-29 09:34:00.375000,10.48,78.05
94349,2018-06-29 09:34:00.406250,5.67,78.05
94350,2018-06-29 09:34:00.437500,0.39,78.05
94351,2018-06-29 09:34:00.468750,-5.46,78.05
94352,2018-06-29 09:34:00.500000,-10.91,78.05
94353,2018-06-29 09:34:00.531250,-15.79,77.43
94354,2018-06-29 09:34:00.562500,-21.96,77.43
94355,2018-06-29 09:34:00.593750,-30.63,77.43
94356,2018-06-29 09:34:00.625000,-40.09,77.43
94357,2018-06-29 09:34:00.656250,-48.01,77.43
94358,2018-06-29 09:34:00.687500,-54.8,77.43
94359,2018-06-29 09:34:00.718750,-63.3,77.43
94360,2018-06-29 09:34:00.750000,-75.14,77.43
94361,2018-06-29 09:34:00.781250,-86.46,77.43
94362,2018-06-29 09:34:00.812500,-87.3,77.43
94363,2018-06-29 09:34:00.843750,-69.54,77.43
94364,2018-06-29 09:34:00.875000,-37.18,77.43
94365,2018-06-29 09:34:00.906250,-4.15,77.43
94366,2018-06-29 09:34:00.937500,18.81,77.43
94367,2018-06-29 09:34:00.968750,31.19,77.43
94368,2018-06-29 09:34:01.000000,37.2,77.43
94369,2018-06-29 09:34:01.031250,39.5,77.43
94370,2018-06-29 09:34:01.062500,39.39,77.43
94371,2018-06-29 09:34:01.093750,38.6,77.43
94372,2018-06-29 09:34:01.125000,38.3,77.43
94373,2018-06-29 09:34:01.156250,38.28,77.43
94374,2018-06-29 09:34:01.187500,38.29,77.43
94375,2018-06-29 09:34:01.218750,38.44,77.43
94376,2018-06-29 09:34:01.250000,37.8,77.43
94377,2018-06-29 09:34:01.281250,34.92,77.43
94378,2018-06-29 09:34:01.312500,29.72,77.43
94379,2018-06-29 09:34:01.343750,23.54,77.43
94380,2018-06-29 09:34:01.375000,17.04,77.43
94381,2018-06-29 09:34:01.406250,9.95,77.43
94382,2018-06-29 09:34:01.437500,2.71,77.43
94383,2018-06-29 09:34:01.468750,-4.1,77.43
94384,2018-06-29 09:34:01.500000,-11.3,77.43
94385,2018-06-29 09:34:01.531250,-20.03,76.8
94386,2018-06-29 09:34:01.562500,-29.57,76.8
94387,2018-06-29 09:34:01.593750,-38.2,76.8
94388,2018-06-29 09:34:01.625000,-45.81,76.8
94389,2018-06-29 09:34:01.656250,-54.53,76.8
94390,2018-06-29 09:34:01.687500,-66.45,76.8
94391,2018-06-29 09:34:01.718750,-78.09,76.8
94392,2018-06-29 09:34:01.750000,-78.85,76.8
94393,2018-06-29 09:34:01.781250,-60.84,76.8
94394,2018-06-29 09:34:01.812500,-29.53,76.8
94395,2018-06-29 09:34:01.843750,1.01,76.8
94396,2018-06-29 09:34:01.875000,22.05,76.8
94397,2018-06-29 09:34:01.906250,34.19,76.8
94398,2018-06-29 09:34:01.937500,40.3,76.8
94399,2018-06-29 09:34:01.968750,41.7,76.8
94400,2018-06-29 09:34:02.000000,40.58,76.8
94401,2018-06-29 09:34:02.031250,39.51,76.8
94402,2018-06-29 09:34:02.062500,38.82,76.8
94403,2018-06-29 09:34:02.093750,38.1,76.8
94404,2018-06-29 09:34:02.125000,38.48,76.8
94405,2018-06-29 09:34:02.156250,39.86,76.8
94406,2018-06-29 09:34:02.187500,39.37,76.8
94407,2018-06-29 09:34:02.218750,35.3,76.8
94408,2018-06-29 09:34:02.250000,29.2,76.8
94409,2018-06-29 09:34:02.281250,22.58,76.8
94410,2018-06-29 09:34:02.312500,15.05,76.8
94411,2018-06-29 09:34:02.343750,6.68,76.8
94412,2018-06-29 09:34:02.375000,-1.18,76.8
94413,2018-06-29 09:34:02.406250,-7.91,76.8
94414,2018-06-29 09:34:02.437500,-14.7,76.8
94415,2018-06-29 09:34:02.468750,-22.68,76.8
94416,2018-06-29 09:34:02.500000,-31.06,76.8
94417,2018-06-29 09:34:02.531250,-38.26,76.15
94418,2018-06-29 09:34:02.562500,-44.05,76.15
94419,2018-06-29 09:34:02.593750,-50.72,76.15
94420,2018-06-29 09:34:02.625000,-61.28,76.15
94421,2018-06-29 09:34:02.656250,-74.15,76.15
94422,2018-06-29 09:34:02.687500,-80.04,76.15
94423,2018-06-29 09:34:02.718750,-68.63,76.15
94424,2018-06-29 09:34:02.750000,-40.07,76.15
94425,2018-06-29 09:34:02.781250,-6.05,76.15
94426,2018-06-29 09:34:02.812500,21.06,76.15
94427,2018-06-29 09:34:02.843750,36.79,76.15
94428,2018-06-29 09:34:02.875000,43.14,76.15
94429,2018-06-29 09:34:02.906250,43.44,76.15
94430,2018-06-29 09:34:02.937500,40.4,76.15
94431,2018-06-29 09:34:02.968750,37.02,76.15
94432,2018-06-29 09:34:03.000000,36.2,76.15
94433,2018-06-29 09:34:03.031250,38.07,76.15
94434,2018-06-29 09:34:03.062500,40.35,76.15
94435,2018-06-29 09:34:03.093750,41.57,76.15
94436,2018-06-29 09:34:03.125000,41.05,76.15
94437,2018-06-29 09:34:03.156250,37.28,76.15
94438,2018-06-29 09:34:03.187500,29.4,76.15
94439,2018-06-29 09:34:03.218750,18.89,76.15
94440,2018-06-29 09:34:03.250000,8.11,76.15
94441,2018-06-29 09:34:03.281250,-1.77,76.15
94442,2018-06-29 09:34:03.312500,-10.93,76.15
94443,2018-06-29 09:34:03.343750,-20.51,76.15
94444,2018-06-29 09:34:03.375000,-31.35,76.15
94445,2018-06-29 09:34:03.406250,-42.57,76.15
94446,2018-06-29 09:34:03.437500,-52.16,76.15
94447,2018-06-29 09:34:03.468750,-59.73,76.15
94448,2018-06-29 09:34:03.500000,-68.27,76.15
94449,2018-06-29 09:34:03.531250,-81.66,75.53
94450,2018-06-29 09:34:03.562500,-98.12,75.53
94451,2018-06-29 09:34:03.593750,-106.5,75.53
94452,2018-06-29 09:34:03.625000,-94.25,75.53
94453,2018-06-29 09:34:03.656250,-61.66,75.53
94454,2018-06-29 09:34:03.687500,-22.8,75.53
94455,2018-06-29 09:34:03.718750,8.9,75.53
94456,2018-06-29 09:34:03.750000,30.28,75.53
94457,2018-06-29 09:34:03.781250,44.17,75.53
94458,2018-06-29 09:34:03.812500,52.82,75.53
94459,2018-06-29 09:34:03.843750,57.25,75.53
94460,2018-06-29 09:34:03.875000,58.85,75.53
94461,2018-06-29 09:34:03.906250,59.08,75.53
94462,2018-06-29 09:34:03.937500,58.63,75.53
94463,2018-06-29 09:34:03.968750,58.07,75.53
94464,2018-06-29 09:34:04.000000,58.06,75.53
94465,2018-06-29 09:34:04.031250,57.44,75.53
94466,2018-06-29 09:34:04.062500,53.59,75.53
94467,2018-06-29 09:34:04.093750,46.21,75.53
94468,2018-06-29 09:34:04.125000,37.43,75.53
94469,2018-06-29 09:34:04.156250,28.2,75.53
94470,2018-06-29 09:34:04.187500,18.09,75.53
94471,2018-06-29 09:34:04.218750,8.2,75.53
94472,2018-06-29 09:34:04.250000,0.23,75.53
94473,2018-06-29 09:34:04.281250,-6.86,75.53
94474,2018-06-29 09:34:04.312500,-16.01,75.53
94475,2018-06-29 09:34:04.343750,-27.82,75.53
94476,2018-06-29 09:34:04.375000,-39.79,75.53
94477,2018-06-29 09:34:04.406250,-50.1,75.53
94478,2018-06-29 09:34:04.437500,-60.45,75.53
94479,2018-06-29 09:34:04.468750,-74.21,75.53
94480,2018-06-29 09:34:04.500000,-91.56,75.53
94481,2018-06-29 09:34:04.531250,-104.48,74.92
94482,2018-06-29 09:34:04.562500,-99.43,74.92
94483,2018-06-29 09:34:04.593750,-70.65,74.92
94484,2018-06-29 09:34:04.625000,-29.03,74.92
94485,2018-06-29 09:34:04.656250,8.19,74.92
94486,2018-06-29 09:34:04.687500,33.14,74.92
94487,2018-06-29 09:34:04.718750,47.94,74.92
94488,2018-06-29 09:34:04.750000,55.81,74.92
94489,2018-06-29 09:34:04.781250,58.14,74.92
94490,2018-06-29 09:34:04.812500,56.89,74.92
94491,2018-06-29 09:34:04.843750,54.66,74.92
94492,2018-06-29 09:34:04.875000,53.14,74.92
94493,2018-06-29 09:34:04.906250,52.65,74.92
94494,2018-06-29 09:34:04.937500,52.31,74.92
94495,2018-06-29 09:34:04.968750,50.41,74.92
94496,2018-06-29 09:34:05.000000,45.73,74.92
94497,2018-06-29 09:34:05.031250,38.77,74.92
94498,2018-06-29 09:34:05.062500,31.22,74.92
94499,2018-06-29 09:34:05.093750,23.86,74.92
94500,2018-06-29 09:34:05.125000,15.77,74.92
94501,2018-06-29 09:34:05.156250,5.84,74.92
94502,2018-06-29 09:34:05.187500,-5.03,74.92
94503,2018-06-29 09:34:05.218750,-14.76,74.92
94504,2018-06-29 09:34:05.250000,-23.25,74.92
94505,2018-06-29 09:34:05.281250,-32.27,74.92
94506,2018-06-29 09:34:05.312500,-42.06,74.92
94507,2018-06-29 09:34:05.343750,-51.24,74.92
94508,2018-06-29 09:34:05.375000,-60.09,74.92
94509,2018-06-29 09:34:05.406250,-71.6,74.92
94510,2018-06-29 09:34:05.437500,-88.16,74.92
94511,2018-06-29 09:34:05.468750,-105.16,74.92
94512,2018-06-29 09:34:05.500000,-108.37,74.92
94513,2018-06-29 09:34:05.531250,-85.59,74.25
94514,2018-06-29 09:34:05.562500,-42.47,74.25
94515,2018-06-29 09:34:05.593750,2.2,74.25
94516,2018-06-29 09:34:05.625000,35.44,74.25
94517,2018-06-29 09:34:05.656250,56.3,74.25
94518,2018-06-29 09:34:05.687500,68.16,74.25
94519,2018-06-29 09:34:05.718750,73.76,74.25
94520,2018-06-29 09:34:05.750000,75.2,74.25
94521,2018-06-29 09:34:05.781250,73.96,74.25
94522,2018-06-29 09:34:05.812500,71.55,74.25
94523,2018-06-29 09:34:05.843750,69.72,74.25
94524,2018-06-29 09:34:05.875000,69.57,74.25
94525,2018-06-29 09:34:05.906250,70.41,74.25
94526,2018-06-29 09:34:05.937500,69.87,74.25
94527,2018-06-29 09:34:05.968750,65.67,74.25
94528,2018-06-29 09:34:06.000000,57.62,74.25
94529,2018-06-29 09:34:06.031250,47.55,74.25
94530,2018-06-29 09:34:06.062500,37.24,74.25
94531,2018-06-29 09:34:06.093750,26.32,74.25
94532,2018-06-29 09:34:06.125000,13.36,74.25
94533,2018-06-29 09:34:06.156250,-0.6,74.25
94534,2018-06-29 09:34:06.187500,-12.09,74.25
94535,2018-06-29 09:34:06.218750,-20.47,74.25
94536,2018-06-29 09:34:06.250000,-29.41,74.25
94537,2018-06-29 09:34:06.281250,-41.39,74.25
94538,2018-06-29 09:34:06.312500,-54.38,74.25
94539,2018-06-29 09:34:06.343750,-65.77,74.25
94540,2018-06-29 09:34:06.375000,-76.62,74.25
94541,2018-06-29 09:34:06.406250,-90.68,74.25
94542,2018-06-29 09:34:06.437500,-109.19,74.25
94543,2018-06-29 09:34:06.468750,-124.46,74.25
94544,2018-06-29 09:34:06.500000,-121.01,74.25
94545,2018-06-29 09:34:06.531250,-90.27,73.6
94546,2018-06-29 09:34:06.562500,-42.52,73.6
94547,2018-06-29 09:34:06.593750,2.87,73.6
94548,2018-06-29 09:34:06.625000,35.68,73.6
94549,2018-06-29 09:34:06.656250,57.72,73.6
94550,2018-06-29 09:34:06.687500,73.08,73.6
94551,2018-06-29 09:34:06.718750,82.86,73.6
94552,2018-06-29 09:34:06.750000,87.05,73.6
94553,2018-06-29 09:34:06.781250,86.58,73.6
94554,2018-06-29 09:34:06.812500,83.43,73.6
94555,2018-06-29 09:34:06.843750,79.79,73.6
94556,2018-06-29 09:34:06.875000,77.1,73.6
94557,2018-06-29 09:34:06.906250,75.06,73.6
94558,2018-06-29 09:34:06.937500,71.77,73.6
94559,2018-06-29 09:34:06.968750,65.42,73.6
94560,2018-06-29 09:34:07.000000,56.21,73.6
94561,2018-06-29 09:34:07.031250,45.82,73.6
94562,2018-06-29 09:34:07.062500,35.51,73.6
94563,2018-06-29 09:34:07.093750,25.91,73.6
94564,2018-06-29 09:34:07.125000,17.66,73.6
94565,2018-06-29 09:34:07.156250,10.54,73.6
94566,2018-06-29 09:34:07.187500,3.14,73.6
94567,2018-06-29 09:34:07.218750,-5.53,73.6
94568,2018-06-29 09:34:07.250000,-14.83,73.6
94569,2018-06-29 09:34:07.281250,-24.34,73.6
94570,2018-06-29 09:34:07.312500,-35.07,73.6
94571,2018-06-29 09:34:07.343750,-47.5,73.6
94572,2018-06-29 09:34:07.375000,-59.71,73.6
94573,2018-06-29 09:34:07.406250,-69.77,73.6
94574,2018-06-29 09:34:07.437500,-78.93,73.6
94575,2018-06-29 09:34:07.468750,-90.95,73.6
94576,2018-06-29 09:34:07.500000,-107.6,73.6
94577,2018-06-29 09:34:07.531250,-122.53,72.88
94578,2018-06-29 09:34:07.562500,-120.93,72.88
94579,2018-06-29 09:34:07.593750,-92.86,72.88
94580,2018-06-29 09:34:07.625000,-46.76,72.88
94581,2018-06-29 09:34:07.656250,-2.13,72.88
94582,2018-06-29 09:34:07.687500,29.37,72.88
94583,2018-06-29 09:34:07.718750,48.81,72.88
94584,2018-06-29 09:34:07.750000,60.76,72.88
94585,2018-06-29 09:34:07.781250,67.7,72.88
94586,2018-06-29 09:34:07.812500,70.7,72.88
94587,2018-06-29 09:34:07.843750,70.55,72.88
94588,2018-06-29 09:34:07.875000,68.38,72.88
94589,2018-06-29 09:34:07.906250,66.08,72.88
94590,2018-06-29 09:34:07.937500,65.56,72.88
94591,2018-06-29 09:34:07.968750,66.99,72.88
94592,2018-06-29 09:34:08.000000,68.03,72.88
94593,2018-06-29 09:34:08.031250,65.42,72.88
94594,2018-06-29 09:34:08.062500,58.33,72.88
94595,2018-06-29 09:34:08.093750,48.96,72.88
94596,2018-06-29 09:34:08.125000,39.47,72.88
94597,2018-06-29 09:34:08.156250,30.04,72.88
94598,2018-06-29 09:34:08.187500,20.11,72.88
94599,2018-06-29 09:34:08.218750,10.0,72.88
94600,2018-06-29 09:34:08.250000,0.78,72.88
94601,2018-06-29 09:34:08.281250,-6.55,72.88
94602,2018-06-29 09:34:08.312500,-12.04,72.88
94603,2018-06-29 09:34:08.343750,-17.35,72.88
94604,2018-06-29 09:34:08.375000,-24.44,72.88
94605,2018-06-29 09:34:08.406250,-33.67,72.88
94606,2018-06-29 09:34:08.437500,-43.27,72.88
94607,2018-06-29 09:34:08.468750,-51.18,72.88
94608,2018-06-29 09:34:08.500000,-57.82,72.88
94609,2018-06-29 09:34:08.531250,-66.62,72.18
94610,2018-06-29 09:34:08.562500,-80.31,72.18
94611,2018-06-29 09:34:08.593750,-94.23,72.18
94612,2018-06-29 09:34:08.625000,-95.39,72.18
94613,2018-06-29 09:34:08.656250,-73.93,72.18
94614,2018-06-29 09:34:08.687500,-36.18,72.18
94615,2018-06-29 09:34:08.718750,0.25,72.18
94616,2018-06-29 09:34:08.750000,24.23,72.18
94617,2018-06-29 09:34:08.781250,37.39,72.18
94618,2018-06-29 09:34:08.812500,45.14,72.18
94619,2018-06-29 09:34:08.843750,49.55,72.18
94620,2018-06-29 09:34:08.875000,50.71,72.18
94621,2018-06-29 09:34:08.906250,49.54,72.18
94622,2018-06-29 09:34:08.937500,47.43,72.18
94623,2018-06-29 09:34:08.968750,45.35,72.18
94624,2018-06-29 09:34:09.000000,44.25,72.18
94625,2018-06-29 09:34:09.031250,44.71,72.18
94626,2018-06-29 09:34:09.062500,44.83,72.18
94627,2018-06-29 09:34:09.093750,41.71,72.18
94628,2018-06-29 09:34:09.125000,35.43,72.18
94629,2018-06-29 09:34:09.156250,29.11,72.18
94630,2018-06-29 09:34:09.187500,24.62,72.18
94631,2018-06-29 09:34:09.218750,21.2,72.18
94632,2018-06-29 09:34:09.250000,17.72,72.18
94633,2018-06-29 09:34:09.281250,13.69,72.18
94634,2018-06-29 09:34:09.312500,8.31,72.18
94635,2018-06-29 09:34:09.343750,1.31,72.18
94636,2018-06-29 09:34:09.375000,-6.16,72.18
94637,2018-06-29 09:34:09.406250,-13.06,72.18
94638,2018-06-29 09:34:09.437500,-20.25,72.18
94639,2018-06-29 09:34:09.468750,-29.2,72.18
94640,2018-06-29 09:34:09.500000,-39.48,72.18
94641,2018-06-29 09:34:09.531250,-49.0,71.47
94642,2018-06-29 09:34:09.562500,-56.81,71.47
94643,2018-06-29 09:34:09.593750,-64.76,71.47
94644,2018-06-29 09:34:09.625000,-75.92,71.47
94645,2018-06-29 09:34:09.656250,-90.02,71.47
94646,2018-06-29 09:34:09.687500,-99.17,71.47
94647,2018-06-29 09:34:09.718750,-91.49,71.47
94648,2018-06-29 09:34:09.750000,-63.64,71.47
94649,2018-06-29 09:34:09.781250,-26.75,71.47
94650,2018-06-29 09:34:09.812500,4.5,71.47
94651,2018-06-29 09:34:09.843750,24.33,71.47
94652,2018-06-29 09:34:09.875000,34.99,71.47
94653,2018-06-29 09:34:09.906250,39.66,71.47
94654,2018-06-29 09:34:09.937500,40.64,71.47
94655,2018-06-29 09:34:09.968750,40.27,71.47
94656,2018-06-29 09:34:10.000000,39.93,71.47
94657,2018-06-29 09:34:10.031250,39.74,71.47
94658,2018-06-29 09:34:10.062500,40.1,71.47
94659,2018-06-29 09:34:10.093750,41.64,71.47
94660,2018-06-29 09:34:10.125000,43.43,71.47
94661,2018-06-29 09:34:10.156250,43.12,71.47
94662,2018-06-29 09:34:10.187500,39.27,71.47
94663,2018-06-29 09:34:10.218750,32.72,71.47
94664,2018-06-29 09:34:10.250000,25.75,71.47
94665,2018-06-29 09:34:10.281250,19.32,71.47
94666,2018-06-29 09:34:10.312500,12.13,71.47
94667,2018-06-29 09:34:10.343750,3.87,71.47
94668,2018-06-29 09:34:10.375000,-3.47,71.47
94669,2018-06-29 09:34:10.406250,-9.31,71.47
94670,2018-06-29 09:34:10.437500,-15.9,71.47
94671,2018-06-29 09:34:10.468750,-24.07,71.47
94672,2018-06-29 09:34:10.500000,-31.8,71.47
94673,2018-06-29 09:34:10.531250,-38.7,70.73
94674,2018-06-29 09:34:10.562500,-47.01,70.73
94675,2018-06-29 09:34:10.593750,-58.1,70.73
94676,2018-06-29 09:34:10.625000,-69.29,70.73
94677,2018-06-29 09:34:10.656250,-72.87,70.73
94678,2018-06-29 09:34:10.687500,-61.08,70.73
94679,2018-06-29 09:34:10.718750,-35.61,70.73
94680,2018-06-29 09:34:10.750000,-7.68,70.73
94681,2018-06-29 09:34:10.781250,13.51,70.73
94682,2018-06-29 09:34:10.812500,26.65,70.73
94683,2018-06-29 09:34:10.843750,33.23,70.73
94684,2018-06-29 09:34:10.875000,34.01,70.73
94685,2018-06-29 09:34:10.906250,31.32,70.73
94686,2018-06-29 09:34:10.937500,29.28,70.73
94687,2018-06-29 09:34:10.968750,30.1,70.73
94688,2018-06-29 09:34:11.000000,32.54,70.73
94689,2018-06-29 09:34:11.031250,34.21,70.73
94690,2018-06-29 09:34:11.062500,34.1,70.73
94691,2018-06-29 09:34:11.093750,32.36,70.73
94692,2018-06-29 09:34:11.125000,28.91,70.73
94693,2018-06-29 09:34:11.156250,23.57,70.73
94694,2018-06-29 09:34:11.187500,17.2,70.73
94695,2018-06-29 09:34:11.218750,10.98,70.73
94696,2018-06-29 09:34:11.250000,4.75,70.73
94697,2018-06-29 09:34:11.281250,-2.15,70.73
94698,2018-06-29 09:34:11.312500,-9.65,70.73
94699,2018-06-29 09:34:11.343750,-17.87,70.73
94700,2018-06-29 09:34:11.375000,-27.08,70.73
94701,2018-06-29 09:34:11.406250,-36.05,70.73
94702,2018-06-29 09:34:11.437500,-43.3,70.73
94703,2018-06-29 09:34:11.468750,-49.26,70.73
94704,2018-06-29 09:34:11.500000,-56.19,70.73
94705,2018-06-29 09:34:11.531250,-66.04,70.02
94706,2018-06-29 09:34:11.562500,-76.44,70.02
94707,2018-06-29 09:34:11.593750,-78.51,70.02
94708,2018-06-29 09:34:11.625000,-64.04,70.02
94709,2018-06-29 09:34:11.656250,-35.94,70.02
94710,2018-06-29 09:34:11.687500,-6.24,70.02
94711,2018-06-29 09:34:11.718750,15.57,70.02
94712,2018-06-29 09:34:11.750000,28.25,70.02
94713,2018-06-29 09:34:11.781250,34.88,70.02
94714,2018-06-29 09:34:11.812500,37.85,70.02
94715,2018-06-29 09:34:11.843750,37.87,70.02
94716,2018-06-29 09:34:11.875000,35.54,70.02
94717,2018-06-29 09:34:11.906250,32.62,70.02
94718,2018-06-29 09:34:11.937500,30.92,70.02
94719,2018-06-29 09:34:11.968750,30.67,70.02
94720,2018-06-29 09:34:12.000000,30.48,70.02
94721,2018-06-29 09:34:12.031250,28.63,70.02
94722,2018-06-29 09:34:12.062500,24.78,70.02
94723,2018-06-29 09:34:12.093750,20.41,70.02
94724,2018-06-29 09:34:12.125000,17.26,70.02
94725,2018-06-29 09:34:12.156250,14.69,70.02
94726,2018-06-29 09:34:12.187500,10.12,70.02
94727,2018-06-29 09:34:12.218750,3.26,70.02
94728,2018-06-29 09:34:12.250000,-3.57,70.02
94729,2018-06-29 09:34:12.281250,-9.68,70.02
94730,2018-06-29 09:34:12.312500,-16.52,70.02
94731,2018-06-29 09:34:12.343750,-23.97,70.02
94732,2018-06-29 09:34:12.375000,-31.04,70.02
94733,2018-06-29 09:34:12.406250,-39.08,70.02
94734,2018-06-29 09:34:12.437500,-50.22,70.02
94735,2018-06-29 09:34:12.468750,-63.74,70.02
94736,2018-06-29 09:34:12.500000,-74.24,70.02
94737,2018-06-29 09:34:12.531250,-72.94,69.23
94738,2018-06-29 09:34:12.562500,-54.62,69.23
94739,2018-06-29 09:34:12.593750,-24.8,69.23
94740,2018-06-29 09:34:12.625000,4.19,69.23
94741,2018-06-29 09:34:12.656250,24.23,69.23
94742,2018-06-29 09:34:12.687500,34.79,69.23
94743,2018-06-29 09:34:12.718750,37.8,69.23
94744,2018-06-29 09:34:12.750000,35.09,69.23
94745,2018-06-29 09:34:12.781250,29.86,69.23
94746,2018-06-29 09:34:12.812500,26.23,69.23
94747,2018-06-29 09:34:12.843750,25.5,69.23
94748,2018-06-29 09:34:12.875000,25.52,69.23
94749,2018-06-29 09:34:12.906250,24.79,69.23
94750,2018-06-29 09:34:12.937500,23.91,69.23
94751,2018-06-29 09:34:12.968750,22.53,69.23
94752,2018-06-29 09:34:13.000000,18.5,69.23
94753,2018-06-29 09:34:13.031250,11.59,69.23
94754,2018-06-29 09:34:13.062500,4.3,69.23
94755,2018-06-29 09:34:13.093750,-1.72,69.23
94756,2018-06-29 09:34:13.125000,-7.79,69.23
94757,2018-06-29 09:34:13.156250,-15.74,69.23
94758,2018-06-29 09:34:13.187500,-25.32,69.23
94759,2018-06-29 09:34:13.218750,-34.39,69.23
94760,2018-06-29 09:34:13.250000,-41.87,69.23
94761,2018-06-29 09:34:13.281250,-49.59,69.23
94762,2018-06-29 09:34:13.312500,-60.82,69.23
94763,2018-06-29 09:34:13.343750,-74.52,69.23
94764,2018-06-29 09:34:13.375000,-81.62,69.23
94765,2018-06-29 09:34:13.406250,-71.82,69.23
94766,2018-06-29 09:34:13.437500,-45.59,69.23
94767,2018-06-29 09:34:13.468750,-14.7,69.23
94768,2018-06-29 09:34:13.500000,9.63,69.23
94769,2018-06-29 09:34:13.531250,24.71,68.62
94770,2018-06-29 09:34:13.562500,33.46,68.62
94771,2018-06-29 09:34:13.593750,38.77,68.62
94772,2018-06-29 09:34:13.625000,41.72,68.62
94773,2018-06-29 09:34:13.656250,42.38,68.62
94774,2018-06-29 09:34:13.687500,41.24,68.62
94775,2018-06-29 09:34:13.718750,39.32,68.62
94776,2018-06-29 09:34:13.750000,37.72,68.62
94777,2018-06-29 09:34:13.781250,36.68,68.62
94778,2018-06-29 09:34:13.812500,34.97,68.62
94779,2018-06-29 09:34:13.843750,31.26,68.62
94780,2018-06-29 09:34:13.875000,25.47,68.62
94781,2018-06-29 09:34:13.906250,18.23,68.62
94782,2018-06-29 09:34:13.937500,10.38,68.62
94783,2018-06-29 09:34:13.968750,3.09,68.62
94784,2018-06-29 09:34:14.000000,-3.66,68.62
94785,2018-06-29 09:34:14.031250,-11.35,68.62
94786,2018-06-29 09:34:14.062500,-20.66,68.62
94787,2018-06-29 09:34:14.093750,-30.06,68.62
94788,2018-06-29 09:34:14.125000,-37.92,68.62
94789,2018-06-29 09:34:14.156250,-44.72,68.62
94790,2018-06-29 09:34:14.187500,-52.7,68.62
94791,2018-06-29 09:34:14.218750,-63.71,68.62
94792,2018-06-29 09:34:14.250000,-75.69,68.62
94793,2018-06-29 09:34:14.281250,-80.07,68.62
94794,2018-06-29 09:34:14.312500,-67.28,68.62
94795,2018-06-29 09:34:14.343750,-37.82,68.62
94796,2018-06-29 09:34:14.375000,-3.6,68.62
94797,2018-06-29 09:34:14.406250,23.84,68.62
94798,2018-06-29 09:34:14.437500,41.45,68.62
94799,2018-06-29 09:34:14.468750,50.96,68.62
94800,2018-06-29 09:34:14.500000,54.11,68.62
94801,2018-06-29 09:34:14.531250,52.75,67.93
94802,2018-06-29 09:34:14.562500,49.31,67.93
94803,2018-06-29 09:34:14.593750,45.57,67.93
94804,2018-06-29 09:34:14.625000,42.26,67.93
94805,2018-06-29 09:34:14.656250,39.78,67.93
94806,2018-06-29 09:34:14.687500,38.38,67.93
94807,2018-06-29 09:34:14.718750,37.42,67.93
94808,2018-06-29 09:34:14.750000,35.11,67.93
94809,2018-06-29 09:34:14.781250,30.02,67.93
94810,2018-06-29 09:34:14.812500,23.18,67.93
94811,2018-06-29 09:34:14.843750,16.63,67.93
94812,2018-06-29 09:34:14.875000,10.21,67.93
94813,2018-06-29 09:34:14.906250,2.35,67.93
94814,2018-06-29 09:34:14.937500,-6.27,67.93
94815,2018-06-29 09:34:14.968750,-13.27,67.93
94816,2018-06-29 09:34:15.000000,-18.76,67.93
94817,2018-06-29 09:34:15.031250,-25.5,67.93
94818,2018-06-29 09:34:15.062500,-34.65,67.93
94819,2018-06-29 09:34:15.093750,-44.05,67.93
94820,2018-06-29 09:34:15.125000,-52.01,67.93
94821,2018-06-29 09:34:15.156250,-60.41,67.93
94822,2018-06-29 09:34:15.187500,-72.74,67.93
94823,2018-06-29 09:34:15.218750,-88.5,67.93
94824,2018-06-29 09:34:15.250000,-98.91,67.93
94825,2018-06-29 09:34:15.281250,-91.9,67.93
94826,2018-06-29 09:34:15.312500,-65.01,67.93
94827,2018-06-29 09:34:15.343750,-29.47,67.93
94828,2018-06-29 09:34:15.375000,1.76,67.93
94829,2018-06-29 09:34:15.406250,24.43,67.93
94830,2018-06-29 09:34:15.437500,40.15,67.93
94831,2018-06-29 09:34:15.468750,50.94,67.93
94832,2018-06-29 09:34:15.500000,58.23,67.93
94833,2018-06-29 09:34:15.531250,62.65,67.35
94834,2018-06-29 09:34:15.562500,63.76,67.35
94835,2018-06-29 09:34:15.593750,62.01,67.35
94836,2018-06-29 09:34:15.625000,59.93,67.35
94837,2018-06-29 09:34:15.656250,59.48,67.35
94838,2018-06-29 09:34:15.687500,59.54,67.35
94839,2018-06-29 09:34:15.718750,57.36,67.35
94840,2018-06-29 09:34:15.750000,52.13,67.35
94841,2018-06-29 09:34:15.781250,45.04,67.35
94842,2018-06-29 09:34:15.812500,37.42,67.35
94843,2018-06-29 09:34:15.843750,30.12,67.35
94844,2018-06-29 09:34:15.875000,23.22,67.35
94845,2018-06-29 09:34:15.906250,16.09,67.35
94846,2018-06-29 09:34:15.937500,8.78,67.35
94847,2018-06-29 09:34:15.968750,1.98,67.35
94848,2018-06-29 09:34:16.000000,-4.86,67.35
94849,2018-06-29 09:34:16.031250,-12.7,67.35
94850,2018-06-29 09:34:16.062500,-20.88,67.35
94851,2018-06-29 09:34:16.093750,-28.66,67.35
94852,2018-06-29 09:34:16.125000,-36.74,67.35
94853,2018-06-29 09:34:16.156250,-44.18,67.35
94854,2018-06-29 09:34:16.187500,-47.54,67.35
94855,2018-06-29 09:34:16.218750,-45.71,67.35
94856,2018-06-29 09:34:16.250000,-42.15,67.35
94857,2018-06-29 09:34:16.281250,-41.38,67.35
94858,2018-06-29 09:34:16.312500,-45.98,67.35
94859,2018-06-29 09:34:16.343750,-53.54,67.35
94860,2018-06-29 09:34:16.375000,-54.89,67.35
94861,2018-06-29 09:34:16.406250,-41.41,67.35
94862,2018-06-29 09:34:16.437500,-16.34,67.35
94863,2018-06-29 09:34:16.468750,7.35,67.35
94864,2018-06-29 09:34:16.500000,20.95,67.35
94865,2018-06-29 09:34:16.531250,26.29,66.78
94866,2018-06-29 09:34:16.562500,28.84,66.78
94867,2018-06-29 09:34:16.593750,30.55,66.78
94868,2018-06-29 09:34:16.625000,30.63,66.78
94869,2018-06-29 09:34:16.656250,29.3,66.78
94870,2018-06-29 09:34:16.687500,27.95,66.78
94871,2018-06-29 09:34:16.718750,27.45,66.78
94872,2018-06-29 09:34:16.750000,27.88,66.78
94873,2018-06-29 09:34:16.781250,28.87,66.78
94874,2018-06-29 09:34:16.812500,29.41,66.78
94875,2018-06-29 09:34:16.843750,28.04,66.78
94876,2018-06-29 09:34:16.875000,23.89,66.78
94877,2018-06-29 09:34:16.906250,17.38,66.78
94878,2018-06-29 09:34:16.937500,10.14,66.78
94879,2018-06-29 09:34:16.968750,3.55,66.78
94880,2018-06-29 09:34:17.000000,-2.86,66.78
94881,2018-06-29 09:34:17.031250,-10.67,66.78
94882,2018-06-29 09:34:17.062500,-20.09,66.78
94883,2018-06-29 09:34:17.093750,-29.47,66.78
94884,2018-06-29 09:34:17.125000,-37.73,66.78
94885,2018-06-29 09:34:17.156250,-46.27,66.78
94886,2018-06-29 09:34:17.187500,-58.06,66.78
94887,2018-06-29 09:34:17.218750,-73.76,66.78
94888,2018-06-29 09:34:17.250000,-87.08,66.78
94889,2018-06-29 09:34:17.281250,-86.53,66.78
94890,2018-06-29 09:34:17.312500,-66.04,66.78
94891,2018-06-29 09:34:17.343750,-32.81,66.78
94892,2018-06-29 09:34:17.375000,-0.54,66.78
94893,2018-06-29 09:34:17.406250,22.71,66.78
94894,2018-06-29 09:34:17.437500,37.33,66.78
94895,2018-06-29 09:34:17.468750,46.3,66.78
94896,2018-06-29 09:34:17.500000,50.98,66.78
94897,2018-06-29 09:34:17.531250,52.05,66.28
94898,2018-06-29 09:34:17.562500,51.05,66.28
94899,2018-06-29 09:34:17.593750,49.58,66.28
94900,2018-06-29 09:34:17.625000,47.94,66.28
94901,2018-06-29 09:34:17.656250,46.12,66.28
94902,2018-06-29 09:34:17.687500,44.34,66.28
94903,2018-06-29 09:34:17.718750,41.37,66.28
94904,2018-06-29 09:34:17.750000,34.87,66.28
94905,2018-06-29 09:34:17.781250,24.42,66.28
94906,2018-06-29 09:34:17.812500,12.68,66.28
94907,2018-06-29 09:34:17.843750,1.73,66.28
94908,2018-06-29 09:34:17.875000,-9.73,66.28
94909,2018-06-29 09:34:17.906250,-23.68,66.28
94910,2018-06-29 09:34:17.937500,-38.28,66.28
94911,2018-06-29 09:34:17.968750,-49.5,66.28
94912,2018-06-29 09:34:18.000000,-56.62,66.28
94913,2018-06-29 09:34:18.031250,-63.08,66.28
94914,2018-06-29 09:34:18.062500,-72.67,66.28
94915,2018-06-29 09:34:18.093750,-84.6,66.28
94916,2018-06-29 09:34:18.125000,-90.25,66.28
94917,2018-06-29 09:34:18.156250,-78.07,66.28
94918,2018-06-29 09:34:18.187500,-46.53,66.28
94919,2018-06-29 09:34:18.218750,-8.0,66.28
94920,2018-06-29 09:34:18.250000,23.79,66.28
94921,2018-06-29 09:34:18.281250,44.65,66.28
94922,2018-06-29 09:34:18.312500,56.84,66.28
94923,2018-06-29 09:34:18.343750,62.59,66.28
94924,2018-06-29 09:34:18.375000,63.86,66.28
94925,2018-06-29 09:34:18.406250,62.97,66.28
94926,2018-06-29 09:34:18.437500,60.57,66.28
94927,2018-06-29 09:34:18.468750,56.21,66.28
94928,2018-06-29 09:34:18.500000,51.48,66.28
94929,2018-06-29 09:34:18.531250,48.69,65.7
94930,2018-06-29 09:34:18.562500,46.71,65.7
94931,2018-06-29 09:34:18.593750,41.56,65.7
94932,2018-06-29 09:34:18.625000,31.75,65.7
94933,2018-06-29 09:34:18.656250,19.88,65.7
94934,2018-06-29 09:34:18.687500,8.3,65.7
94935,2018-06-29 09:34:18.718750,-3.87,65.7
94936,2018-06-29 09:34:18.750000,-17.75,65.7
94937,2018-06-29 09:34:18.781250,-31.44,65.7
94938,2018-06-29 09:34:18.812500,-42.6,65.7
94939,2018-06-29 09:34:18.843750,-52.6,65.7
94940,2018-06-29 09:34:18.875000,-65.4,65.7
94941,2018-06-29 09:34:18.906250,-81.8,65.7
94942,2018-06-29 09:34:18.937500,-93.99,65.7
94943,2018-06-29 09:34:18.968750,-89.14,65.7
94944,2018-06-29 09:34:19.000000,-63.06,65.7
94945,2018-06-29 09:34:19.031250,-26.66,65.7
94946,2018-06-29 09:34:19.062500,5.09,65.7
94947,2018-06-29 09:34:19.093750,26.71,65.7
94948,2018-06-29 09:34:19.125000,40.84,65.7
94949,2018-06-29 09:34:19.156250,49.77,65.7
94950,2018-06-29 09:34:19.187500,53.5,65.7
94951,2018-06-29 09:34:19.218750,53.22,65.7
94952,2018-06-29 09:34:19.250000,51.85,65.7
94953,2018-06-29 09:34:19.281250,50.82,65.7
94954,2018-06-29 09:34:19.312500,49.51,65.7
94955,2018-06-29 09:34:19.343750,47.94,65.7
94956,2018-06-29 09:34:19.375000,46.67,65.7
94957,2018-06-29 09:34:19.406250,44.09,65.7
94958,2018-06-29 09:34:19.437500,37.43,65.7
94959,2018-06-29 09:34:19.468750,26.91,65.7
94960,2018-06-29 09:34:19.500000,15.96,65.7
94961,2018-06-29 09:34:19.531250,6.88,65.5
94962,2018-06-29 09:34:19.562500,-1.68,65.5
94963,2018-06-29 09:34:19.593750,-12.23,65.5
94964,2018-06-29 09:34:19.625000,-24.59,65.5
94965,2018-06-29 09:34:19.656250,-36.1,65.5
94966,2018-06-29 09:34:19.687500,-45.26,65.5
94967,2018-06-29 09:34:19.718750,-54.35,65.5
94968,2018-06-29 09:34:19.750000,-67.12,65.5
94969,2018-06-29 09:34:19.781250,-83.3,65.5
94970,2018-06-29 09:34:19.812500,-93.96,65.5
94971,2018-06-29 09:34:19.843750,-86.09,65.5
94972,2018-06-29 09:34:19.875000,-56.55,65.5
94973,2018-06-29 09:34:19.906250,-17.74,65.5
94974,2018-06-29 09:34:19.937500,14.86,65.5
94975,2018-06-29 09:34:19.968750,36.38,65.5
94976,2018-06-29 09:34:20.000000,50.03,65.5
94977,2018-06-29 09:34:20.031250,57.96,65.5
94978,2018-06-29 09:34:20.062500,60.38,65.5
94979,2018-06-29 09:34:20.093750,59.09,65.5
94980,2018-06-29 09:34:20.125000,57.09,65.5
94981,2018-06-29 09:34:20.156250,55.53,65.5
94982,2018-06-29 09:34:20.187500,53.88,65.5
94983,2018-06-29 09:34:20.218750,52.4,65.5
94984,2018-06-29 09:34:20.250000,51.86,65.5
94985,2018-06-29 09:34:20.281250,51.04,65.5
94986,2018-06-29 09:34:20.312500,47.27,65.5
94987,2018-06-29 09:34:20.343750,40.08,65.5
94988,2018-06-29 09:34:20.375000,31.79,65.5
94989,2018-06-29 09:34:20.406250,24.36,65.5
94990,2018-06-29 09:34:20.437500,17.55,65.5
94991,2018-06-29 09:34:20.468750,10.4,65.5
94992,2018-06-29 09:34:20.500000,2.94,65.5
94993,2018-06-29 09:34:20.531250,-4.02,65.28
94994,2018-06-29 09:34:20.562500,-10.29,65.28
94995,2018-06-29 09:34:20.593750,-17.2,65.28
94996,2018-06-29 09:34:20.625000,-26.99,65.28
94997,2018-06-29 09:34:20.656250,-40.42,65.28
94998,2018-06-29 09:34:20.687500,-54.94,65.28
94999,2018-06-29 09:34:20.718750,-66.65,65.28
95000,2018-06-29 09:34:20.750000,-74.94,65.28
95001,2018-06-29 09:34:20.781250,-83.86,65.28
95002,2018-06-29 09:34:20.812500,-97.32,65.28
95003,2018-06-29 09:34:20.843750,-110.86,65.28
95004,2018-06-29 09:34:20.875000,-110.25,65.28
95005,2018-06-29 09:34:20.906250,-85.06,65.28
95006,2018-06-29 09:34:20.937500,-42.52,65.28
95007,2018-06-29 09:34:20.968750,-0.72,65.28
95008,2018-06-29 09:34:21.000000,29.7,65.28
95009,2018-06-29 09:34:21.031250,49.44,65.28
95010,2018-06-29 09:34:21.062500,61.56,65.28
95011,2018-06-29 09:34:21.093750,67.5,65.28
95012,2018-06-29 09:34:21.125000,69.02,65.28
95013,2018-06-29 09:34:21.156250,68.04,65.28
95014,2018-06-29 09:34:21.187500,65.76,65.28
95015,2018-06-29 09:34:21.218750,63.35,65.28
95016,2018-06-29 09:34:21.250000,62.1,65.28
95017,2018-06-29 09:34:21.281250,61.67,65.28
95018,2018-06-29 09:34:21.312500,60.02,65.28
95019,2018-06-29 09:34:21.343750,55.72,65.28
95020,2018-06-29 09:34:21.375000,49.25,65.28
95021,2018-06-29 09:34:21.406250,41.68,65.28
95022,2018-06-29 09:34:21.437500,33.59,65.28
95023,2018-06-29 09:34:21.468750,25.33,65.28
95024,2018-06-29 09:34:21.500000,17.41,65.28
95025,2018-06-29 09:34:21.531250,10.34,65.1
95026,2018-06-29 09:34:21.562500,3.9,65.1
95027,2018-06-29 09:34:21.593750,-2.86,65.1
95028,2018-06-29 09:34:21.625000,-10.03,65.1
95029,2018-06-29 09:34:21.656250,-16.88,65.1
95030,2018-06-29 09:34:21.687500,-24.28,65.1
95031,2018-06-29 09:34:21.718750,-33.9,65.1
95032,2018-06-29 09:34:21.750000,-44.66,65.1
95033,2018-06-29 09:34:21.781250,-53.92,65.1
95034,2018-06-29 09:34:21.812500,-61.47,65.1
95035,2018-06-29 09:34:21.843750,-70.05,65.1
95036,2018-06-29 09:34:21.875000,-82.59,65.1
95037,2018-06-29 09:34:21.906250,-97.85,65.1
95038,2018-06-29 09:34:21.937500,-106.54,65.1
95039,2018-06-29 09:34:21.968750,-95.89,65.1
95040,2018-06-29 09:34:22.000000,-63.67,65.1
95041,2018-06-29 09:34:22.031250,-23.11,65.1
95042,2018-06-29 09:34:22.062500,10.1,65.1
95043,2018-06-29 09:34:22.093750,31.06,65.1
95044,2018-06-29 09:34:22.125000,43.54,65.1
95045,2018-06-29 09:34:22.156250,51.01,65.1
95046,2018-06-29 09:34:22.187500,54.28,65.1
95047,2018-06-29 09:34:22.218750,54.61,65.1
95048,2018-06-29 09:34:22.250000,54.27,65.1
95049,2018-06-29 09:34:22.281250,54.12,65.1
95050,2018-06-29 09:34:22.312500,53.76,65.1
95051,2018-06-29 09:34:22.343750,53.67,65.1
95052,2018-06-29 09:34:22.375000,53.96,65.1
95053,2018-06-29 09:34:22.406250,52.32,65.1
95054,2018-06-29 09:34:22.437500,46.76,65.1
95055,2018-06-29 09:34:22.468750,38.9,65.1
95056,2018-06-29 09:34:22.500000,31.8,65.1
95057,2018-06-29 09:34:22.531250,25.82,64.9
95058,2018-06-29 09:34:22.562500,19.19,64.9
95059,2018-06-29 09:34:22.593750,11.74,64.9
95060,2018-06-29 09:34:22.625000,4.89,64.9
95061,2018-06-29 09:34:22.656250,-1.11,64.9
95062,2018-06-29 09:34:22.687500,-7.26,64.9
95063,2018-06-29 09:34:22.718750,-13.83,64.9
95064,2018-06-29 09:34:22.750000,-20.87,64.9
95065,2018-06-29 09:34:22.781250,-29.52,64.9
95066,2018-06-29 09:34:22.812500,-40.35,64.9
95067,2018-06-29 09:34:22.843750,-51.28,64.9
95068,2018-06-29 09:34:22.875000,-59.69,64.9
95069,2018-06-29 09:34:22.906250,-66.11,64.9
95070,2018-06-29 09:34:22.937500,-74.33,64.9
95071,2018-06-29 09:34:22.968750,-87.01,64.9
95072,2018-06-29 09:34:23.000000,-99.41,64.9
95073,2018-06-29 09:34:23.031250,-98.97,64.9
95074,2018-06-29 09:34:23.062500,-76.54,64.9
95075,2018-06-29 09:34:23.093750,-38.34,64.9
95076,2018-06-29 09:34:23.125000,-1.02,64.9
95077,2018-06-29 09:34:23.156250,24.65,64.9
95078,2018-06-29 09:34:23.187500,39.27,64.9
95079,2018-06-29 09:34:23.218750,46.79,64.9
95080,2018-06-29 09:34:23.250000,49.16,64.9
95081,2018-06-29 09:34:23.281250,48.48,64.9
95082,2018-06-29 09:34:23.312500,47.37,64.9
95083,2018-06-29 09:34:23.343750,46.74,64.9
95084,2018-06-29 09:34:23.375000,46.26,64.9
95085,2018-06-29 09:34:23.406250,46.29,64.9
95086,2018-06-29 09:34:23.437500,47.37,64.9
95087,2018-06-29 09:34:23.468750,48.17,64.9
95088,2018-06-29 09:34:23.500000,45.95,64.9
95089,2018-06-29 09:34:23.531250,39.66,64.68
95090,2018-06-29 09:34:23.562500,31.44,64.68
95091,2018-06-29 09:34:23.593750,23.93,64.68
95092,2018-06-29 09:34:23.625000,16.98,64.68
95093,2018-06-29 09:34:23.656250,8.73,64.68
95094,2018-06-29 09:34:23.687500,-0.86,64.68
95095,2018-06-29 09:34:23.718750,-9.56,64.68
95096,2018-06-29 09:34:23.750000,-16.31,64.68
95097,2018-06-29 09:34:23.781250,-23.12,64.68
95098,2018-06-29 09:34:23.812500,-31.92,64.68
95099,2018-06-29 09:34:23.843750,-41.64,64.68
95100,2018-06-29 09:34:23.875000,-49.88,64.68
95101,2018-06-29 09:34:23.906250,-56.42,64.68
95102,2018-06-29 09:34:23.937500,-63.78,64.68
95103,2018-06-29 09:34:23.968750,-74.71,64.68
95104,2018-06-29 09:34:24.000000,-87.59,64.68
95105,2018-06-29 09:34:24.031250,-92.59,64.68
95106,2018-06-29 09:34:24.062500,-78.34,64.68
95107,2018-06-29 09:34:24.093750,-45.8,64.68
95108,2018-06-29 09:34:24.125000,-9.42,64.68
95109,2018-06-29 09:34:24.156250,18.09,64.68
95110,2018-06-29 09:34:24.187500,34.92,64.68
95111,2018-06-29 09:34:24.218750,43.91,64.68
95112,2018-06-29 09:34:24.250000,46.64,64.68
95113,2018-06-29 09:34:24.281250,45.36,64.68
95114,2018-06-29 09:34:24.312500,43.81,64.68
95115,2018-06-29 09:34:24.343750,44.23,64.68
95116,2018-06-29 09:34:24.375000,45.75,64.68
95117,2018-06-29 09:34:24.406250,46.7,64.68
95118,2018-06-29 09:34:24.437500,46.48,64.68
95119,2018-06-29 09:34:24.468750,44.84,64.68
95120,2018-06-29 09:34:24.500000,41.13,64.68
95121,2018-06-29 09:34:24.531250,35.32,64.48
95122,2018-06-29 09:34:24.562500,28.16,64.48
95123,2018-06-29 09:34:24.593750,20.04,64.48
95124,2018-06-29 09:34:24.625000,11.09,64.48
95125,2018-06-29 09:34:24.656250,2.05,64.48
95126,2018-06-29 09:34:24.687500,-6.51,64.48
95127,2018-06-29 09:34:24.718750,-15.16,64.48
95128,2018-06-29 09:34:24.750000,-24.24,64.48
95129,2018-06-29 09:34:24.781250,-32.74,64.48
95130,2018-06-29 09:34:24.812500,-39.89,64.48
95131,2018-06-29 09:34:24.843750,-46.9,64.48
95132,2018-06-29 09:34:24.875000,-56.43,64.48
95133,2018-06-29 09:34:24.906250,-69.85,64.48
95134,2018-06-29 09:34:24.937500,-82.04,64.48
95135,2018-06-29 09:34:24.968750,-81.02,64.48
95136,2018-06-29 09:34:25.000000,-59.21,64.48
95137,2018-06-29 09:34:25.031250,-23.91,64.48
95138,2018-06-29 09:34:25.062500,9.32,64.48
95139,2018-06-29 09:34:25.093750,31.51,64.48
95140,2018-06-29 09:34:25.125000,43.36,64.48
95141,2018-06-29 09:34:25.156250,48.23,64.48
95142,2018-06-29 09:34:25.187500,48.32,64.48
95143,2018-06-29 09:34:25.218750,46.06,64.48
95144,2018-06-29 09:34:25.250000,43.93,64.48
95145,2018-06-29 09:34:25.281250,42.41,64.48
95146,2018-06-29 09:34:25.312500,40.89,64.48
95147,2018-06-29 09:34:25.343750,39.93,64.48
95148,2018-06-29 09:34:25.375000,40.01,64.48
95149,2018-06-29 09:34:25.406250,39.22,64.48
95150,2018-06-29 09:34:25.437500,35.17,64.48
95151,2018-06-29 09:34:25.468750,28.64,64.48
95152,2018-06-29 09:34:25.500000,22.32,64.48
95153,2018-06-29 09:34:25.531250,16.58,64.28
95154,2018-06-29 09:34:25.562500,9.2,64.28
95155,2018-06-29 09:34:25.593750,-0.38,64.28
95156,2018-06-29 09:34:25.625000,-9.18,64.28
95157,2018-06-29 09:34:25.656250,-15.45,64.28
95158,2018-06-29 09:34:25.687500,-21.95,64.28
95159,2018-06-29 09:34:25.718750,-31.59,64.28
95160,2018-06-29 09:34:25.750000,-42.63,64.28
95161,2018-06-29 09:34:25.781250,-51.83,64.28
95162,2018-06-29 09:34:25.812500,-59.38,64.28
95163,2018-06-29 09:34:25.843750,-68.51,64.28
95164,2018-06-29 09:34:25.875000,-81.69,64.28
95165,2018-06-29 09:34:25.906250,-95.95,64.28
95166,2018-06-29 09:34:25.937500,-100.29,64.28
95167,2018-06-29 09:34:25.968750,-83.77,64.28
95168,2018-06-29 09:34:26.000000,-49.44,64.28
95169,2018-06-29 09:34:26.031250,-12.87,64.28
95170,2018-06-29 09:34:26.062500,14.14,64.28
95171,2018-06-29 09:34:26.093750,31.5,64.28
95172,2018-06-29 09:34:26.125000,43.53,64.28
95173,2018-06-29 09:34:26.156250,51.65,64.28
95174,2018-06-29 09:34:26.187500,56.01,64.28
95175,2018-06-29 09:34:26.218750,58.06,64.28
95176,2018-06-29 09:34:26.250000,59.32,64.28
95177,2018-06-29 09:34:26.281250,59.71,64.28
95178,2018-06-29 09:34:26.312500,59.1,64.28
95179,2018-06-29 09:34:26.343750,58.13,64.28
95180,2018-06-29 09:34:26.375000,56.4,64.28
95181,2018-06-29 09:34:26.406250,52.45,64.28
95182,2018-06-29 09:34:26.437500,46.13,64.28
95183,2018-06-29 09:34:26.468750,38.84,64.28
95184,2018-06-29 09:34:26.500000,31.82,64.28
95185,2018-06-29 09:34:26.531250,25.22,64.08
95186,2018-06-29 09:34:26.562500,18.7,64.08
95187,2018-06-29 09:34:26.593750,11.68,64.08
95188,2018-06-29 09:34:26.625000,3.89,64.08
95189,2018-06-29 09:34:26.656250,-4.02,64.08
95190,2018-06-29 09:34:26.687500,-11.08,64.08
95191,2018-06-29 09:34:26.718750,-17.74,64.08
95192,2018-06-29 09:34:26.750000,-25.67,64.08
95193,2018-06-29 09:34:26.781250,-35.33,64.08
95194,2018-06-29 09:34:26.812500,-45.05,64.08
95195,2018-06-29 09:34:26.843750,-53.6,64.08
95196,2018-06-29 09:34:26.875000,-61.9,64.08
95197,2018-06-29 09:34:26.906250,-72.14,64.08
95198,2018-06-29 09:34:26.937500,-85.29,64.08
95199,2018-06-29 09:34:26.968750,-96.73,64.08
95200,2018-06-29 09:34:27.000000,-95.12,64.08
95201,2018-06-29 09:34:27.031250,-72.69,64.08
95202,2018-06-29 09:34:27.062500,-36.3,64.08
95203,2018-06-29 09:34:27.093750,-1.58,64.08
95204,2018-06-29 09:34:27.125000,22.34,64.08
95205,2018-06-29 09:34:27.156250,36.66,64.08
95206,2018-06-29 09:34:27.187500,45.48,64.08
95207,2018-06-29 09:34:27.218750,50.61,64.08
95208,2018-06-29 09:34:27.250000,52.77,64.08
95209,2018-06-29 09:34:27.281250,53.33,64.08
95210,2018-06-29 09:34:27.312500,53.3,64.08
95211,2018-06-29 09:34:27.343750,52.46,64.08
95212,2018-06-29 09:34:27.375000,51.3,64.08
95213,2018-06-29 09:34:27.406250,50.83,64.08
95214,2018-06-29 09:34:27.437500,49.41,64.08
95215,2018-06-29 09:34:27.468750,44.29,64.08
95216,2018-06-29 09:34:27.500000,36.26,64.08
95217,2018-06-29 09:34:27.531250,28.75,63.88
95218,2018-06-29 09:34:27.562500,22.52,63.88
95219,2018-06-29 09:34:27.593750,15.52,63.88
95220,2018-06-29 09:34:27.625000,7.34,63.88
95221,2018-06-29 09:34:27.656250,0.08,63.88
95222,2018-06-29 09:34:27.687500,-5.41,63.88
95223,2018-06-29 09:34:27.718750,-11.41,63.88
95224,2018-06-29 09:34:27.750000,-20.3,63.88
95225,2018-06-29 09:34:27.781250,-31.24,63.88
95226,2018-06-29 09:34:27.812500,-41.7,63.88
95227,2018-06-29 09:34:27.843750,-50.82,63.88
95228,2018-06-29 09:34:27.875000,-60.55,63.88
95229,2018-06-29 09:34:27.906250,-73.31,63.88
95230,2018-06-29 09:34:27.937500,-86.94,63.88
95231,2018-06-29 09:34:27.968750,-91.58,63.88
95232,2018-06-29 09:34:28.000000,-76.7,63.88
95233,2018-06-29 09:34:28.031250,-44.25,63.88
95234,2018-06-29 09:34:28.062500,-9.18,63.88
95235,2018-06-29 09:34:28.093750,16.25,63.88
95236,2018-06-29 09:34:28.125000,32.03,63.88
95237,2018-06-29 09:34:28.156250,42.99,63.88
95238,2018-06-29 09:34:28.187500,50.24,63.88
95239,2018-06-29 09:34:28.218750,53.49,63.88
95240,2018-06-29 09:34:28.250000,54.76,63.88
95241,2018-06-29 09:34:28.281250,55.38,63.88
95242,2018-06-29 09:34:28.312500,54.5,63.88
95243,2018-06-29 09:34:28.343750,52.32,63.88
95244,2018-06-29 09:34:28.375000,50.49,63.88
95245,2018-06-29 09:34:28.406250,48.9,63.88
95246,2018-06-29 09:34:28.437500,45.71,63.88
95247,2018-06-29 09:34:28.468750,40.28,63.88
95248,2018-06-29 09:34:28.500000,33.73,63.88
95249,2018-06-29 09:34:28.531250,27.4,63.67
95250,2018-06-29 09:34:28.562500,21.28,63.67
95251,2018-06-29 09:34:28.593750,13.75,63.67
95252,2018-06-29 09:34:28.625000,4.22,63.67
95253,2018-06-29 09:34:28.656250,-4.84,63.67
95254,2018-06-29 09:34:28.687500,-11.16,63.67
95255,2018-06-29 09:34:28.718750,-16.61,63.67
95256,2018-06-29 09:34:28.750000,-24.75,63.67
95257,2018-06-29 09:34:28.781250,-35.61,63.67
95258,2018-06-29 09:34:28.812500,-46.22,63.67
95259,2018-06-29 09:34:28.843750,-55.15,63.67
95260,2018-06-29 09:34:28.875000,-63.75,63.67
95261,2018-06-29 09:34:28.906250,-74.21,63.67
95262,2018-06-29 09:34:28.937500,-86.41,63.67
95263,2018-06-29 09:34:28.968750,-93.84,63.67
95264,2018-06-29 09:34:29.000000,-85.67,63.67
95265,2018-06-29 09:34:29.031250,-58.8,63.67
95266,2018-06-29 09:34:29.062500,-24.07,63.67
95267,2018-06-29 09:34:29.093750,4.77,63.67
95268,2018-06-29 09:34:29.125000,23.46,63.67
95269,2018-06-29 09:34:29.156250,35.41,63.67
95270,2018-06-29 09:34:29.187500,43.7,63.67
95271,2018-06-29 09:34:29.218750,48.83,63.67
95272,2018-06-29 09:34:29.250000,50.79,63.67
95273,2018-06-29 09:34:29.281250,50.42,63.67
95274,2018-06-29 09:34:29.312500,49.05,63.67
95275,2018-06-29 09:34:29.343750,47.35,63.67
95276,2018-06-29 09:34:29.375000,45.72,63.67
95277,2018-06-29 09:34:29.406250,44.38,63.67
95278,2018-06-29 09:34:29.437500,42.56,63.67
95279,2018-06-29 09:34:29.468750,38.75,63.67
95280,2018-06-29 09:34:29.500000,32.92,63.67
95281,2018-06-29 09:34:29.531250,27.01,63.48
95282,2018-06-29 09:34:29.562500,22.09,63.48
95283,2018-06-29 09:34:29.593750,17.24,63.48
95284,2018-06-29 09:34:29.625000,11.28,63.48
95285,2018-06-29 09:34:29.656250,4.09,63.48
95286,2018-06-29 09:34:29.687500,-3.11,63.48
95287,2018-06-29 09:34:29.718750,-8.86,63.48
95288,2018-06-29 09:34:29.750000,-13.84,63.48
95289,2018-06-29 09:34:29.781250,-20.7,63.48
95290,2018-06-29 09:34:29.812500,-29.81,63.48
95291,2018-06-29 09:34:29.843750,-38.3,63.48
95292,2018-06-29 09:34:29.875000,-44.4,63.48
95293,2018-06-29 09:34:29.906250,-50.04,63.48
95294,2018-06-29 09:34:29.937500,-58.46,63.48
95295,2018-06-29 09:34:29.968750,-69.84,63.48
95296,2018-06-29 09:34:30.000000,-77.92,63.48
95297,2018-06-29 09:34:30.031250,-72.43,63.48
95298,2018-06-29 09:34:30.062500,-49.49,63.48
95299,2018-06-29 09:34:30.093750,-18.11,63.48
95300,2018-06-29 09:34:30.125000,8.31,63.48
95301,2018-06-29 09:34:30.156250,24.31,63.48
95302,2018-06-29 09:34:30.187500,32.57,63.48
95303,2018-06-29 09:34:30.218750,36.34,63.48
95304,2018-06-29 09:34:30.250000,36.98,63.48
95305,2018-06-29 09:34:30.281250,36.04,63.48
95306,2018-06-29 09:34:30.312500,35.26,63.48
95307,2018-06-29 09:34:30.343750,34.96,63.48
95308,2018-06-29 09:34:30.375000,34.81,63.48
95309,2018-06-29 09:34:30.406250,35.16,63.48
95310,2018-06-29 09:34:30.437500,35.81,63.48
95311,2018-06-29 09:34:30.468750,35.04,63.48
95312,2018-06-29 09:34:30.500000,31.34,63.48
95313,2018-06-29 09:34:30.531250,25.41,63.37
95314,2018-06-29 09:34:30.562500,18.46,63.37
95315,2018-06-29 09:34:30.593750,10.6,63.37
95316,2018-06-29 09:34:30.625000,2.21,63.37
95317,2018-06-29 09:34:30.656250,-5.36,63.37
95318,2018-06-29 09:34:30.687500,-11.88,63.37
95319,2018-06-29 09:34:30.718750,-18.7,63.37
95320,2018-06-29 09:34:30.750000,-26.18,63.37
95321,2018-06-29 09:34:30.781250,-33.42,63.37
95322,2018-06-29 09:34:30.812500,-40.33,63.37
95323,2018-06-29 09:34:30.843750,-48.53,63.37
95324,2018-06-29 09:34:30.875000,-60.13,63.37
95325,2018-06-29 09:34:30.906250,-73.26,63.37
95326,2018-06-29 09:34:30.937500,-78.84,63.37
95327,2018-06-29 09:34:30.968750,-67.27,63.37
95328,2018-06-29 09:34:31.000000,-40.5,63.37
95329,2018-06-29 09:34:31.031250,-11.2,63.37
95330,2018-06-29 09:34:31.062500,10.63,63.37
95331,2018-06-29 09:34:31.093750,24.3,63.37
95332,2018-06-29 09:34:31.125000,33.06,63.37
95333,2018-06-29 09:34:31.156250,38.64,63.37
95334,2018-06-29 09:34:31.187500,41.78,63.37
95335,2018-06-29 09:34:31.218750,43.37,63.37
95336,2018-06-29 09:34:31.250000,43.87,63.37
95337,2018-06-29 09:34:31.281250,43.29,63.37
95338,2018-06-29 09:34:31.312500,42.26,63.37
95339,2018-06-29 09:34:31.343750,41.86,63.37
95340,2018-06-29 09:34:31.375000,41.5,63.37
95341,2018-06-29 09:34:31.406250,38.72,63.37
95342,2018-06-29 09:34:31.437500,32.3,63.37
95343,2018-06-29 09:34:31.468750,24.27,63.37
95344,2018-06-29 09:34:31.500000,17.67,63.37
95345,2018-06-29 09:34:31.531250,12.71,63.25
95346,2018-06-29 09:34:31.562500,7.21,63.25
95347,2018-06-29 09:34:31.593750,0.28,63.25
95348,2018-06-29 09:34:31.625000,-6.64,63.25
95349,2018-06-29 09:34:31.656250,-12.84,63.25
95350,2018-06-29 09:34:31.687500,-19.96,63.25
95351,2018-06-29 09:34:31.718750,-29.21,63.25
95352,2018-06-29 09:34:31.750000,-39.26,63.25
95353,2018-06-29 09:34:31.781250,-48.29,63.25
95354,2018-06-29 09:34:31.812500,-56.85,63.25
95355,2018-06-29 09:34:31.843750,-67.65,63.25
95356,2018-06-29 09:34:31.875000,-81.97,63.25
95357,2018-06-29 09:34:31.906250,-94.78,63.25
95358,2018-06-29 09:34:31.937500,-95.04,63.25
95359,2018-06-29 09:34:31.968750,-75.87,63.25
95360,2018-06-29 09:34:32.000000,-43.64,63.25
95361,2018-06-29 09:34:32.031250,-11.97,63.25
95362,2018-06-29 09:34:32.062500,11.31,63.25
95363,2018-06-29 09:34:32.093750,26.61,63.25
95364,2018-06-29 09:34:32.125000,36.67,63.25
95365,2018-06-29 09:34:32.156250,43.05,63.25
95366,2018-06-29 09:34:32.187500,46.58,63.25
95367,2018-06-29 09:34:32.218750,47.92,63.25
95368,2018-06-29 09:34:32.250000,47.72,63.25
95369,2018-06-29 09:34:32.281250,46.78,63.25
95370,2018-06-29 09:34:32.312500,45.77,63.25
95371,2018-06-29 09:34:32.343750,44.86,63.25
95372,2018-06-29 09:34:32.375000,43.27,63.25
95373,2018-06-29 09:34:32.406250,39.42,63.25
95374,2018-06-29 09:34:32.437500,33.08,63.25
95375,2018-06-29 09:34:32.468750,26.45,63.25
95376,2018-06-29 09:34:32.500000,21.1,63.25
95377,2018-06-29 09:34:32.531250,15.59,63.13
95378,2018-06-29 09:34:32.562500,8.27,63.13
95379,2018-06-29 09:34:32.593750,0.09,63.13
95380,2018-06-29 09:34:32.625000,-7.3,63.13
95381,2018-06-29 09:34:32.656250,-13.69,63.13
95382,2018-06-29 09:34:32.687500,-19.96,63.13
95383,2018-06-29 09:34:32.718750,-26.75,63.13
95384,2018-06-29 09:34:32.750000,-33.74,63.13
95385,2018-06-29 09:34:32.781250,-39.97,63.13
95386,2018-06-29 09:34:32.812500,-45.96,63.13
95387,2018-06-29 09:34:32.843750,-54.42,63.13
95388,2018-06-29 09:34:32.875000,-67.09,63.13
95389,2018-06-29 09:34:32.906250,-79.59,63.13
95390,2018-06-29 09:34:32.937500,-81.48,63.13
95391,2018-06-29 09:34:32.968750,-65.67,63.13
95392,2018-06-29 09:34:33.000000,-37.61,63.13
95393,2018-06-29 09:34:33.031250,-10.58,63.13
95394,2018-06-29 09:34:33.062500,7.27,63.13
95395,2018-06-29 09:34:33.093750,16.99,63.13
95396,2018-06-29 09:34:33.125000,22.12,63.13
95397,2018-06-29 09:34:33.156250,24.2,63.13
95398,2018-06-29 09:34:33.187500,23.85,63.13
95399,2018-06-29 09:34:33.218750,22.07,63.13
95400,2018-06-29 09:34:33.250000,20.39,63.13
95401,2018-06-29 09:34:33.281250,21.05,63.13
95402,2018-06-29 09:34:33.312500,26.03,63.13
95403,2018-06-29 09:34:33.343750,34.34,63.13
95404,2018-06-29 09:34:33.375000,41.67,63.13
95405,2018-06-29 09:34:33.406250,44.43,63.13
95406,2018-06-29 09:34:33.437500,43.09,63.13
95407,2018-06-29 09:34:33.468750,40.54,63.13
95408,2018-06-29 09:34:33.500000,37.93,63.13
95409,2018-06-29 09:34:33.531250,33.82,63.02
95410,2018-06-29 09:34:33.562500,27.47,63.02
95411,2018-06-29 09:34:33.593750,20.39,63.02
95412,2018-06-29 09:34:33.625000,13.56,63.02
95413,2018-06-29 09:34:33.656250,5.47,63.02
95414,2018-06-29 09:34:33.687500,-5.15,63.02
95415,2018-06-29 09:34:33.718750,-16.92,63.02
95416,2018-06-29 09:34:33.750000,-27.67,63.02
95417,2018-06-29 09:34:33.781250,-37.52,63.02
95418,2018-06-29 09:34:33.812500,-48.87,63.02
95419,2018-06-29 09:34:33.843750,-63.51,63.02
95420,2018-06-29 09:34:33.875000,-77.5,63.02
95421,2018-06-29 09:34:33.906250,-80.38,63.02
95422,2018-06-29 09:34:33.937500,-64.77,63.02
95423,2018-06-29 09:34:33.968750,-36.01,63.02
95424,2018-06-29 09:34:34.000000,-7.08,63.02
95425,2018-06-29 09:34:34.031250,14.09,63.02
95426,2018-06-29 09:34:34.062500,27.65,63.02
95427,2018-06-29 09:34:34.093750,36.4,63.02
95428,2018-06-29 09:34:34.125000,42.14,63.02
95429,2018-06-29 09:34:34.156250,45.49,63.02
95430,2018-06-29 09:34:34.187500,46.6,63.02
95431,2018-06-29 09:34:34.218750,45.78,63.02
95432,2018-06-29 09:34:34.250000,43.84,63.02
95433,2018-06-29 09:34:34.281250,42.02,63.02
95434,2018-06-29 09:34:34.312500,41.18,63.02
95435,2018-06-29 09:34:34.343750,40.49,63.02
95436,2018-06-29 09:34:34.375000,37.74,63.02
95437,2018-06-29 09:34:34.406250,32.25,63.02
95438,2018-06-29 09:34:34.437500,25.85,63.02
95439,2018-06-29 09:34:34.468750,20.09,63.02
95440,2018-06-29 09:34:34.500000,13.85,63.02
95441,2018-06-29 09:34:34.531250,5.79,62.68
95442,2018-06-29 09:34:34.562500,-2.88,62.68
95443,2018-06-29 09:34:34.593750,-10.04,62.68
