,Time,ppg,hr
9600,2018-06-29 08:49:52.000000,29.67,45.85
9601,2018-06-29 08:49:52.031250,32.3,45.85
9602,2018-06-29 08:49:52.062500,34.85,45.85
9603,2018-06-29 08:49:52.093750,36.93,45.85
9604,2018-06-29 08:49:52.125000,38.23,45.85
9605,2018-06-29 08:49:52.156250,38.42,45.85
9606,2018-06-29 08:49:52.187500,37.0,45.85
9607,2018-06-29 08:49:52.218750,34.48,45.85
9608,2018-06-29 08:49:52.250000,32.29,45.85
9609,2018-06-29 08:49:52.281250,30.91,45.85
9610,2018-06-29 08:49:52.312500,29.33,45.85
9611,2018-06-29 08:49:52.343750,26.81,45.85
9612,2018-06-29 08:49:52.375000,24.09,45.85
9613,2018-06-29 08:49:52.406250,22.1,45.85
9614,2018-06-29 08:49:52.437500,20.47,45.85
9615,2018-06-29 08:49:52.468750,18.36,45.85
9616,2018-06-29 08:49:52.500000,15.9,45.85
9617,2018-06-29 08:49:52.531250,13.9,45.6
9618,2018-06-29 08:49:52.562500,12.21,45.6
9619,2018-06-29 08:49:52.593750,9.84,45.6
9620,2018-06-29 08:49:52.625000,6.4,45.6
9621,2018-06-29 08:49:52.656250,2.74,45.6
9622,2018-06-29 08:49:52.687500,0.07,45.6
9623,2018-06-29 08:49:52.718750,-1.66,45.6
9624,2018-06-29 08:49:52.750000,-4.05,45.6
9625,2018-06-29 08:49:52.781250,-7.88,45.6
9626,2018-06-29 08:49:52.812500,-11.86,45.6
9627,2018-06-29 08:49:52.843750,-15.13,45.6
9628,2018-06-29 08:49:52.875000,-18.95,45.6
9629,2018-06-29 08:49:52.906250,-24.51,45.6
9630,2018-06-29 08:49:52.937500,-30.74,45.6
9631,2018-06-29 08:49:52.968750,-35.94,45.6
9632,2018-06-29 08:49:53.000000,-40.64,45.6
9633,2018-06-29 08:49:53.031250,-47.53,45.6
9634,2018-06-29 08:49:53.062500,-57.98,45.6
9635,2018-06-29 08:49:53.093750,-68.2,45.6
9636,2018-06-29 08:49:53.125000,-70.51,45.6
9637,2018-06-29 08:49:53.156250,-60.48,45.6
9638,2018-06-29 08:49:53.187500,-42.3,45.6
9639,2018-06-29 08:49:53.218750,-24.57,45.6
9640,2018-06-29 08:49:53.250000,-11.85,45.6
9641,2018-06-29 08:49:53.281250,-2.54,45.6
9642,2018-06-29 08:49:53.312500,6.16,45.6
9643,2018-06-29 08:49:53.343750,14.63,45.6
9644,2018-06-29 08:49:53.375000,21.46,45.6
9645,2018-06-29 08:49:53.406250,25.75,45.6
9646,2018-06-29 08:49:53.437500,27.93,45.6
9647,2018-06-29 08:49:53.468750,29.65,45.6
9648,2018-06-29 08:49:53.500000,32.57,45.6
9649,2018-06-29 08:49:53.531250,36.25,45.33
9650,2018-06-29 08:49:53.562500,38.1,45.33
9651,2018-06-29 08:49:53.593750,36.74,45.33
9652,2018-06-29 08:49:53.625000,33.82,45.33
9653,2018-06-29 08:49:53.656250,31.08,45.33
9654,2018-06-29 08:49:53.687500,28.65,45.33
9655,2018-06-29 08:49:53.718750,26.72,45.33
9656,2018-06-29 08:49:53.750000,25.57,45.33
9657,2018-06-29 08:49:53.781250,24.2,45.33
9658,2018-06-29 08:49:53.812500,21.71,45.33
9659,2018-06-29 08:49:53.843750,18.81,45.33
9660,2018-06-29 08:49:53.875000,16.34,45.33
9661,2018-06-29 08:49:53.906250,14.17,45.33
9662,2018-06-29 08:49:53.937500,11.95,45.33
9663,2018-06-29 08:49:53.968750,9.65,45.33
9664,2018-06-29 08:49:54.000000,7.25,45.33
9665,2018-06-29 08:49:54.031250,4.67,45.33
9666,2018-06-29 08:49:54.062500,1.74,45.33
9667,2018-06-29 08:49:54.093750,-1.67,45.33
9668,2018-06-29 08:49:54.125000,-5.19,45.33
9669,2018-06-29 08:49:54.156250,-7.97,45.33
9670,2018-06-29 08:49:54.187500,-10.11,45.33
9671,2018-06-29 08:49:54.218750,-13.06,45.33
9672,2018-06-29 08:49:54.250000,-17.67,45.33
9673,2018-06-29 08:49:54.281250,-23.04,45.33
9674,2018-06-29 08:49:54.312500,-28.06,45.33
9675,2018-06-29 08:49:54.343750,-32.72,45.33
9676,2018-06-29 08:49:54.375000,-37.96,45.33
9677,2018-06-29 08:49:54.406250,-45.54,45.33
9678,2018-06-29 08:49:54.437500,-55.38,45.33
9679,2018-06-29 08:49:54.468750,-61.99,45.33
9680,2018-06-29 08:49:54.500000,-58.09,45.33
9681,2018-06-29 08:49:54.531250,-43.57,45.12
9682,2018-06-29 08:49:54.562500,-25.72,45.12
9683,2018-06-29 08:49:54.593750,-10.81,45.12
9684,2018-06-29 08:49:54.625000,0.0,45.12
9685,2018-06-29 08:49:54.656250,7.85,45.12
9686,2018-06-29 08:49:54.687500,13.6,45.12
9687,2018-06-29 08:49:54.718750,17.49,45.12
9688,2018-06-29 08:49:54.750000,19.86,45.12
9689,2018-06-29 08:49:54.781250,21.7,45.12
9690,2018-06-29 08:49:54.812500,23.89,45.12
9691,2018-06-29 08:49:54.843750,26.47,45.12
9692,2018-06-29 08:49:54.875000,28.89,45.12
9693,2018-06-29 08:49:54.906250,30.35,45.12
9694,2018-06-29 08:49:54.937500,30.16,45.12
9695,2018-06-29 08:49:54.968750,28.57,45.12
9696,2018-06-29 08:49:55.000000,26.16,45.12
9697,2018-06-29 08:49:55.031250,23.3,45.12
9698,2018-06-29 08:49:55.062500,20.58,45.12
9699,2018-06-29 08:49:55.093750,18.53,45.12
9700,2018-06-29 08:49:55.125000,16.87,45.12
9701,2018-06-29 08:49:55.156250,15.03,45.12
9702,2018-06-29 08:49:55.187500,12.95,45.12
9703,2018-06-29 08:49:55.218750,11.11,45.12
9704,2018-06-29 08:49:55.250000,9.6,45.12
9705,2018-06-29 08:49:55.281250,7.72,45.12
9706,2018-06-29 08:49:55.312500,4.54,45.12
9707,2018-06-29 08:49:55.343750,-0.03,45.12
9708,2018-06-29 08:49:55.375000,-4.92,45.12
9709,2018-06-29 08:49:55.406250,-8.89,45.12
9710,2018-06-29 08:49:55.437500,-12.36,45.12
9711,2018-06-29 08:49:55.468750,-16.98,45.12
9712,2018-06-29 08:49:55.500000,-22.99,45.12
9713,2018-06-29 08:49:55.531250,-29.04,44.92
9714,2018-06-29 08:49:55.562500,-34.44,44.92
9715,2018-06-29 08:49:55.593750,-40.09,44.92
9716,2018-06-29 08:49:55.625000,-47.75,44.92
9717,2018-06-29 08:49:55.656250,-58.13,44.92
9718,2018-06-29 08:49:55.687500,-67.5,44.92
9719,2018-06-29 08:49:55.718750,-68.26,44.92
9720,2018-06-29 08:49:55.750000,-56.74,44.92
9721,2018-06-29 08:49:55.781250,-38.11,44.92
9722,2018-06-29 08:49:55.812500,-20.63,44.92
9723,2018-06-29 08:49:55.843750,-7.8,44.92
9724,2018-06-29 08:49:55.875000,1.84,44.92
9725,2018-06-29 08:49:55.906250,10.09,44.92
9726,2018-06-29 08:49:55.937500,16.95,44.92
9727,2018-06-29 08:49:55.968750,21.78,44.92
9728,2018-06-29 08:49:56.000000,24.9,44.92
9729,2018-06-29 08:49:56.031250,27.22,44.92
9730,2018-06-29 08:49:56.062500,29.18,44.92
9731,2018-06-29 08:49:56.093750,31.05,44.92
9732,2018-06-29 08:49:56.125000,32.79,44.92
9733,2018-06-29 08:49:56.156250,33.52,44.92
9734,2018-06-29 08:49:56.187500,32.68,44.92
9735,2018-06-29 08:49:56.218750,30.93,44.92
9736,2018-06-29 08:49:56.250000,29.11,44.92
9737,2018-06-29 08:49:56.281250,27.5,44.92
9738,2018-06-29 08:49:56.312500,26.32,44.92
9739,2018-06-29 08:49:56.343750,25.36,44.92
9740,2018-06-29 08:49:56.375000,23.71,44.92
9741,2018-06-29 08:49:56.406250,21.18,44.92
9742,2018-06-29 08:49:56.437500,18.9,44.92
9743,2018-06-29 08:49:56.468750,17.48,44.92
9744,2018-06-29 08:49:56.500000,16.09,44.92
9745,2018-06-29 08:49:56.531250,13.97,44.62
9746,2018-06-29 08:49:56.562500,11.13,44.62
9747,2018-06-29 08:49:56.593750,7.92,44.62
9748,2018-06-29 08:49:56.625000,5.25,44.62
9749,2018-06-29 08:49:56.656250,3.5,44.62
9750,2018-06-29 08:49:56.687500,1.2,44.62
9751,2018-06-29 08:49:56.718750,-2.71,44.62
9752,2018-06-29 08:49:56.750000,-7.07,44.62
9753,2018-06-29 08:49:56.781250,-10.91,44.62
9754,2018-06-29 08:49:56.812500,-15.29,44.62
9755,2018-06-29 08:49:56.843750,-21.09,44.62
9756,2018-06-29 08:49:56.875000,-27.45,44.62
9757,2018-06-29 08:49:56.906250,-33.07,44.62
9758,2018-06-29 08:49:56.937500,-38.07,44.62
9759,2018-06-29 08:49:56.968750,-44.65,44.62
9760,2018-06-29 08:49:57.000000,-54.83,44.62
9761,2018-06-29 08:49:57.031250,-66.13,44.62
9762,2018-06-29 08:49:57.062500,-71.19,44.62
9763,2018-06-29 08:49:57.093750,-64.48,44.62
9764,2018-06-29 08:49:57.125000,-48.27,44.62
9765,2018-06-29 08:49:57.156250,-30.23,44.62
9766,2018-06-29 08:49:57.187500,-16.06,44.62
9767,2018-06-29 08:49:57.218750,-5.98,44.62
9768,2018-06-29 08:49:57.250000,2.48,44.62
9769,2018-06-29 08:49:57.281250,10.28,44.62
9770,2018-06-29 08:49:57.312500,16.47,44.62
9771,2018-06-29 08:49:57.343750,20.78,44.62
9772,2018-06-29 08:49:57.375000,24.27,44.62
9773,2018-06-29 08:49:57.406250,27.48,44.62
9774,2018-06-29 08:49:57.437500,30.12,44.62
9775,2018-06-29 08:49:57.468750,32.48,44.62
9776,2018-06-29 08:49:57.500000,34.66,44.62
9777,2018-06-29 08:49:57.531250,35.23,44.38
9778,2018-06-29 08:49:57.562500,33.21,44.38
9779,2018-06-29 08:49:57.593750,30.2,44.38
9780,2018-06-29 08:49:57.625000,28.19,44.38
9781,2018-06-29 08:49:57.656250,27.0,44.38
9782,2018-06-29 08:49:57.687500,25.81,44.38
9783,2018-06-29 08:49:57.718750,24.89,44.38
9784,2018-06-29 08:49:57.750000,24.26,44.38
9785,2018-06-29 08:49:57.781250,23.01,44.38
9786,2018-06-29 08:49:57.812500,20.83,44.38
9787,2018-06-29 08:49:57.843750,18.21,44.38
9788,2018-06-29 08:49:57.875000,15.28,44.38
9789,2018-06-29 08:49:57.906250,11.89,44.38
9790,2018-06-29 08:49:57.937500,8.5,44.38
9791,2018-06-29 08:49:57.968750,5.79,44.38
9792,2018-06-29 08:49:58.000000,3.57,44.38
9793,2018-06-29 08:49:58.031250,0.91,44.38
9794,2018-06-29 08:49:58.062500,-2.71,44.38
9795,2018-06-29 08:49:58.093750,-6.93,44.38
9796,2018-06-29 08:49:58.125000,-10.9,44.38
9797,2018-06-29 08:49:58.156250,-14.72,44.38
9798,2018-06-29 08:49:58.187500,-19.55,44.38
9799,2018-06-29 08:49:58.218750,-25.43,44.38
9800,2018-06-29 08:49:58.250000,-30.62,44.38
9801,2018-06-29 08:49:58.281250,-34.92,44.38
9802,2018-06-29 08:49:58.312500,-40.8,44.38
9803,2018-06-29 08:49:58.343750,-50.21,44.38
9804,2018-06-29 08:49:58.375000,-61.71,44.38
9805,2018-06-29 08:49:58.406250,-70.19,44.38
9806,2018-06-29 08:49:58.437500,-69.19,44.38
9807,2018-06-29 08:49:58.468750,-56.4,44.38
9808,2018-06-29 08:49:58.500000,-37.28,44.38
9809,2018-06-29 08:49:58.531250,-20.15,44.17
9810,2018-06-29 08:49:58.562500,-8.22,44.17
9811,2018-06-29 08:49:58.593750,1.06,44.17
9812,2018-06-29 08:49:58.625000,9.72,44.17
9813,2018-06-29 08:49:58.656250,16.26,44.17
9814,2018-06-29 08:49:58.687500,19.55,44.17
9815,2018-06-29 08:49:58.718750,21.82,44.17
9816,2018-06-29 08:49:58.750000,25.26,44.17
9817,2018-06-29 08:49:58.781250,29.11,44.17
9818,2018-06-29 08:49:58.812500,32.18,44.17
9819,2018-06-29 08:49:58.843750,34.57,44.17
9820,2018-06-29 08:49:58.875000,35.72,44.17
9821,2018-06-29 08:49:58.906250,34.3,44.17
9822,2018-06-29 08:49:58.937500,30.64,44.17
9823,2018-06-29 08:49:58.968750,26.9,44.17
9824,2018-06-29 08:49:59.000000,24.43,44.17
9825,2018-06-29 08:49:59.031250,22.4,44.17
9826,2018-06-29 08:49:59.062500,19.4,44.17
9827,2018-06-29 08:49:59.093750,15.5,44.17
9828,2018-06-29 08:49:59.125000,11.74,44.17
9829,2018-06-29 08:49:59.156250,8.12,44.17
9830,2018-06-29 08:49:59.187500,3.78,44.17
9831,2018-06-29 08:49:59.218750,-1.38,44.17
9832,2018-06-29 08:49:59.250000,-6.58,44.17
9833,2018-06-29 08:49:59.281250,-11.62,44.17
9834,2018-06-29 08:49:59.312500,-17.29,44.17
9835,2018-06-29 08:49:59.343750,-24.08,44.17
9836,2018-06-29 08:49:59.375000,-31.23,44.17
9837,2018-06-29 08:49:59.406250,-38.08,44.17
9838,2018-06-29 08:49:59.437500,-45.67,44.17
9839,2018-06-29 08:49:59.468750,-55.49,44.17
9840,2018-06-29 08:49:59.500000,-67.3,44.17
9841,2018-06-29 08:49:59.531250,-78.73,44.0
9842,2018-06-29 08:49:59.562500,-85.36,44.0
9843,2018-06-29 08:49:59.593750,-83.47,44.0
9844,2018-06-29 08:49:59.625000,-74.48,44.0
9845,2018-06-29 08:49:59.656250,-63.35,44.0
9846,2018-06-29 08:49:59.687500,-52.24,44.0
9847,2018-06-29 08:49:59.718750,-40.3,44.0
9848,2018-06-29 08:49:59.750000,-28.43,44.0
9849,2018-06-29 08:49:59.781250,-18.64,44.0
9850,2018-06-29 08:49:59.812500,-10.15,44.0
9851,2018-06-29 08:49:59.843750,-0.17,44.0
9852,2018-06-29 08:49:59.875000,12.49,44.0
9853,2018-06-29 08:49:59.906250,26.41,44.0
9854,2018-06-29 08:49:59.937500,39.54,44.0
9855,2018-06-29 08:49:59.968750,50.93,44.0
9856,2018-06-29 08:50:00.000000,59.89,44.0
9857,2018-06-29 08:50:00.031250,65.28,44.0
9858,2018-06-29 08:50:00.062500,67.07,44.0
9859,2018-06-29 08:50:00.093750,67.02,44.0
9860,2018-06-29 08:50:00.125000,66.48,44.0
9861,2018-06-29 08:50:00.156250,65.14,44.0
9862,2018-06-29 08:50:00.187500,62.55,44.0
9863,2018-06-29 08:50:00.218750,58.98,44.0
9864,2018-06-29 08:50:00.250000,54.93,44.0
9865,2018-06-29 08:50:00.281250,50.35,44.0
9866,2018-06-29 08:50:00.312500,44.78,44.0
9867,2018-06-29 08:50:00.343750,38.0,44.0
9868,2018-06-29 08:50:00.375000,30.69,44.0
9869,2018-06-29 08:50:00.406250,23.67,44.0
9870,2018-06-29 08:50:00.437500,16.57,44.0
9871,2018-06-29 08:50:00.468750,8.24,44.0
9872,2018-06-29 08:50:00.500000,-1.25,44.0
9873,2018-06-29 08:50:00.531250,-10.32,43.87
9874,2018-06-29 08:50:00.562500,-18.0,43.87
9875,2018-06-29 08:50:00.593750,-25.92,43.87
9876,2018-06-29 08:50:00.625000,-36.85,43.87
9877,2018-06-29 08:50:00.656250,-51.24,43.87
9878,2018-06-29 08:50:00.687500,-64.59,43.87
9879,2018-06-29 08:50:00.718750,-69.05,43.87
9880,2018-06-29 08:50:00.750000,-60.47,43.87
9881,2018-06-29 08:50:00.781250,-43.1,43.87
9882,2018-06-29 08:50:00.812500,-24.84,43.87
9883,2018-06-29 08:50:00.843750,-9.65,43.87
9884,2018-06-29 08:50:00.875000,3.1,43.87
9885,2018-06-29 08:50:00.906250,14.05,43.87
9886,2018-06-29 08:50:00.937500,22.32,43.87
9887,2018-06-29 08:50:00.968750,27.33,43.87
9888,2018-06-29 08:50:01.000000,30.3,43.87
9889,2018-06-29 08:50:01.031250,32.95,43.87
9890,2018-06-29 08:50:01.062500,35.77,43.87
9891,2018-06-29 08:50:01.093750,38.5,43.87
9892,2018-06-29 08:50:01.125000,41.09,43.87
9893,2018-06-29 08:50:01.156250,42.84,43.87
9894,2018-06-29 08:50:01.187500,42.34,43.87
9895,2018-06-29 08:50:01.218750,39.85,43.87
9896,2018-06-29 08:50:01.250000,37.08,43.87
9897,2018-06-29 08:50:01.281250,34.51,43.87
9898,2018-06-29 08:50:01.312500,31.55,43.87
9899,2018-06-29 08:50:01.343750,28.73,43.87
9900,2018-06-29 08:50:01.375000,26.7,43.87
9901,2018-06-29 08:50:01.406250,24.75,43.87
9902,2018-06-29 08:50:01.437500,22.42,43.87
9903,2018-06-29 08:50:01.468750,20.14,43.87
9904,2018-06-29 08:50:01.500000,17.36,43.87
9905,2018-06-29 08:50:01.531250,13.11,43.77
9906,2018-06-29 08:50:01.562500,7.85,43.77
9907,2018-06-29 08:50:01.593750,2.65,43.77
9908,2018-06-29 08:50:01.625000,-2.03,43.77
9909,2018-06-29 08:50:01.656250,-5.99,43.77
9910,2018-06-29 08:50:01.687500,-9.85,43.77
9911,2018-06-29 08:50:01.718750,-15.46,43.77
9912,2018-06-29 08:50:01.750000,-23.21,43.77
9913,2018-06-29 08:50:01.781250,-30.65,43.77
9914,2018-06-29 08:50:01.812500,-36.59,43.77
9915,2018-06-29 08:50:01.843750,-43.79,43.77
9916,2018-06-29 08:50:01.875000,-55.07,43.77
9917,2018-06-29 08:50:01.906250,-68.35,43.77
9918,2018-06-29 08:50:01.937500,-76.7,43.77
9919,2018-06-29 08:50:01.968750,-73.43,43.77
9920,2018-06-29 08:50:02.000000,-58.42,43.77
9921,2018-06-29 08:50:02.031250,-38.39,43.77
9922,2018-06-29 08:50:02.062500,-20.3,43.77
9923,2018-06-29 08:50:02.093750,-6.14,43.77
9924,2018-06-29 08:50:02.125000,5.31,43.77
9925,2018-06-29 08:50:02.156250,14.67,43.77
9926,2018-06-29 08:50:02.187500,21.48,43.77
9927,2018-06-29 08:50:02.218750,26.15,43.77
9928,2018-06-29 08:50:02.250000,30.08,43.77
9929,2018-06-29 08:50:02.281250,33.66,43.77
9930,2018-06-29 08:50:02.312500,36.57,43.77
9931,2018-06-29 08:50:02.343750,39.34,43.77
9932,2018-06-29 08:50:02.375000,41.9,43.77
9933,2018-06-29 08:50:02.406250,42.29,43.77
9934,2018-06-29 08:50:02.437500,39.4,43.77
9935,2018-06-29 08:50:02.468750,35.08,43.77
9936,2018-06-29 08:50:02.500000,31.76,43.77
9937,2018-06-29 08:50:02.531250,29.72,43.7
9938,2018-06-29 08:50:02.562500,27.69,43.7
9939,2018-06-29 08:50:02.593750,24.9,43.7
9940,2018-06-29 08:50:02.625000,22.05,43.7
9941,2018-06-29 08:50:02.656250,19.66,43.7
9942,2018-06-29 08:50:02.687500,16.46,43.7
9943,2018-06-29 08:50:02.718750,11.38,43.7
9944,2018-06-29 08:50:02.750000,5.47,43.7
9945,2018-06-29 08:50:02.781250,0.18,43.7
9946,2018-06-29 08:50:02.812500,-4.75,43.7
9947,2018-06-29 08:50:02.843750,-10.56,43.7
9948,2018-06-29 08:50:02.875000,-17.82,43.7
9949,2018-06-29 08:50:02.906250,-25.77,43.7
9950,2018-06-29 08:50:02.937500,-33.33,43.7
9951,2018-06-29 08:50:02.968750,-40.67,43.7
9952,2018-06-29 08:50:03.000000,-49.44,43.7
9953,2018-06-29 08:50:03.031250,-60.98,43.7
9954,2018-06-29 08:50:03.062500,-73.27,43.7
9955,2018-06-29 08:50:03.093750,-79.22,43.7
9956,2018-06-29 08:50:03.125000,-71.98,43.7
9957,2018-06-29 08:50:03.156250,-53.5,43.7
9958,2018-06-29 08:50:03.187500,-32.93,43.7
9959,2018-06-29 08:50:03.218750,-16.28,43.7
9960,2018-06-29 08:50:03.250000,-2.78,43.7
9961,2018-06-29 08:50:03.281250,9.28,43.7
9962,2018-06-29 08:50:03.312500,18.96,43.7
9963,2018-06-29 08:50:03.343750,25.29,43.7
9964,2018-06-29 08:50:03.375000,29.39,43.7
9965,2018-06-29 08:50:03.406250,32.89,43.7
9966,2018-06-29 08:50:03.437500,35.99,43.7
9967,2018-06-29 08:50:03.468750,38.5,43.7
9968,2018-06-29 08:50:03.500000,40.95,43.7
9969,2018-06-29 08:50:03.531250,43.11,43.68
9970,2018-06-29 08:50:03.562500,43.14,43.68
9971,2018-06-29 08:50:03.593750,40.74,43.68
9972,2018-06-29 08:50:03.625000,38.14,43.68
9973,2018-06-29 08:50:03.656250,36.78,43.68
9974,2018-06-29 08:50:03.687500,35.65,43.68
9975,2018-06-29 08:50:03.718750,33.81,43.68
9976,2018-06-29 08:50:03.750000,31.57,43.68
9977,2018-06-29 08:50:03.781250,29.13,43.68
9978,2018-06-29 08:50:03.812500,26.17,43.68
9979,2018-06-29 08:50:03.843750,22.42,43.68
9980,2018-06-29 08:50:03.875000,18.1,43.68
9981,2018-06-29 08:50:03.906250,13.96,43.68
9982,2018-06-29 08:50:03.937500,10.54,43.68
9983,2018-06-29 08:50:03.968750,7.22,43.68
9984,2018-06-29 08:50:04.000000,3.02,43.68
9985,2018-06-29 08:50:04.031250,-2.35,43.68
9986,2018-06-29 08:50:04.062500,-8.4,43.68
9987,2018-06-29 08:50:04.093750,-14.18,43.68
9988,2018-06-29 08:50:04.125000,-19.0,43.68
9989,2018-06-29 08:50:04.156250,-23.47,43.68
9990,2018-06-29 08:50:04.187500,-28.71,43.68
9991,2018-06-29 08:50:04.218750,-34.76,43.68
9992,2018-06-29 08:50:04.250000,-41.33,43.68
9993,2018-06-29 08:50:04.281250,-50.31,43.68
9994,2018-06-29 08:50:04.312500,-64.72,43.68
9995,2018-06-29 08:50:04.343750,-83.63,43.68
9996,2018-06-29 08:50:04.375000,-99.39,43.68
9997,2018-06-29 08:50:04.406250,-101.86,43.68
9998,2018-06-29 08:50:04.437500,-86.89,43.68
9999,2018-06-29 08:50:04.468750,-60.53,43.68
10000,2018-06-29 08:50:04.500000,-34.04,43.68
10001,2018-06-29 08:50:04.531250,-14.71,43.72
10002,2018-06-29 08:50:04.562500,-1.97,43.72
10003,2018-06-29 08:50:04.593750,8.38,43.72
10004,2018-06-29 08:50:04.625000,18.28,43.72
10005,2018-06-29 08:50:04.656250,26.65,43.72
10006,2018-06-29 08:50:04.687500,32.67,43.72
10007,2018-06-29 08:50:04.718750,37.08,43.72
10008,2018-06-29 08:50:04.750000,40.74,43.72
10009,2018-06-29 08:50:04.781250,44.0,43.72
10010,2018-06-29 08:50:04.812500,46.75,43.72
10011,2018-06-29 08:50:04.843750,48.23,43.72
10012,2018-06-29 08:50:04.875000,47.93,43.72
10013,2018-06-29 08:50:04.906250,46.32,43.72
10014,2018-06-29 08:50:04.937500,44.02,43.72
10015,2018-06-29 08:50:04.968750,41.47,43.72
10016,2018-06-29 08:50:05.000000,39.3,43.72
10017,2018-06-29 08:50:05.031250,37.51,43.72
10018,2018-06-29 08:50:05.062500,35.67,43.72
10019,2018-06-29 08:50:05.093750,34.13,43.72
10020,2018-06-29 08:50:05.125000,33.57,43.72
10021,2018-06-29 08:50:05.156250,33.54,43.72
10022,2018-06-29 08:50:05.187500,32.3,43.72
10023,2018-06-29 08:50:05.218750,28.6,43.72
10024,2018-06-29 08:50:05.250000,22.67,43.72
10025,2018-06-29 08:50:05.281250,15.93,43.72
10026,2018-06-29 08:50:05.312500,9.7,43.72
10027,2018-06-29 08:50:05.343750,4.19,43.72
10028,2018-06-29 08:50:05.375000,-1.29,43.72
10029,2018-06-29 08:50:05.406250,-7.22,43.72
10030,2018-06-29 08:50:05.437500,-12.95,43.72
10031,2018-06-29 08:50:05.468750,-17.35,43.72
10032,2018-06-29 08:50:05.500000,-20.47,43.72
10033,2018-06-29 08:50:05.531250,-23.77,43.75
10034,2018-06-29 08:50:05.562500,-28.34,43.75
10035,2018-06-29 08:50:05.593750,-33.45,43.75
10036,2018-06-29 08:50:05.625000,-37.85,43.75
10037,2018-06-29 08:50:05.656250,-41.79,43.75
10038,2018-06-29 08:50:05.687500,-47.3,43.75
10039,2018-06-29 08:50:05.718750,-56.07,43.75
10040,2018-06-29 08:50:05.750000,-66.2,43.75
10041,2018-06-29 08:50:05.781250,-70.82,43.75
10042,2018-06-29 08:50:05.812500,-63.28,43.75
10043,2018-06-29 08:50:05.843750,-45.12,43.75
10044,2018-06-29 08:50:05.875000,-24.85,43.75
10045,2018-06-29 08:50:05.906250,-8.6,43.75
10046,2018-06-29 08:50:05.937500,3.77,43.75
10047,2018-06-29 08:50:05.968750,13.91,43.75
10048,2018-06-29 08:50:06.000000,21.54,43.75
10049,2018-06-29 08:50:06.031250,26.18,43.75
10050,2018-06-29 08:50:06.062500,28.81,43.75
10051,2018-06-29 08:50:06.093750,30.82,43.75
10052,2018-06-29 08:50:06.125000,32.53,43.75
10053,2018-06-29 08:50:06.156250,34.03,43.75
10054,2018-06-29 08:50:06.187500,35.89,43.75
10055,2018-06-29 08:50:06.218750,37.96,43.75
10056,2018-06-29 08:50:06.250000,38.55,43.75
10057,2018-06-29 08:50:06.281250,36.34,43.75
10058,2018-06-29 08:50:06.312500,32.46,43.75
10059,2018-06-29 08:50:06.343750,29.06,43.75
10060,2018-06-29 08:50:06.375000,26.47,43.75
10061,2018-06-29 08:50:06.406250,23.33,43.75
10062,2018-06-29 08:50:06.437500,19.62,43.75
10063,2018-06-29 08:50:06.468750,17.09,43.75
10064,2018-06-29 08:50:06.500000,16.0,43.75
10065,2018-06-29 08:50:06.531250,14.41,43.8
10066,2018-06-29 08:50:06.562500,11.3,43.8
10067,2018-06-29 08:50:06.593750,7.64,43.8
10068,2018-06-29 08:50:06.625000,4.53,43.8
10069,2018-06-29 08:50:06.656250,1.83,43.8
10070,2018-06-29 08:50:06.687500,-1.32,43.8
10071,2018-06-29 08:50:06.718750,-5.21,43.8
10072,2018-06-29 08:50:06.750000,-9.26,43.8
10073,2018-06-29 08:50:06.781250,-13.35,43.8
10074,2018-06-29 08:50:06.812500,-18.38,43.8
10075,2018-06-29 08:50:06.843750,-24.67,43.8
10076,2018-06-29 08:50:06.875000,-31.1,43.8
10077,2018-06-29 08:50:06.906250,-36.61,43.8
10078,2018-06-29 08:50:06.937500,-41.57,43.8
10079,2018-06-29 08:50:06.968750,-47.68,43.8
10080,2018-06-29 08:50:07.000000,-56.59,43.8
10081,2018-06-29 08:50:07.031250,-66.96,43.8
10082,2018-06-29 08:50:07.062500,-72.52,43.8
10083,2018-06-29 08:50:07.093750,-66.54,43.8
10084,2018-06-29 08:50:07.125000,-49.82,43.8
10085,2018-06-29 08:50:07.156250,-30.42,43.8
10086,2018-06-29 08:50:07.187500,-15.0,43.8
10087,2018-06-29 08:50:07.218750,-3.72,43.8
10088,2018-06-29 08:50:07.250000,5.81,43.8
10089,2018-06-29 08:50:07.281250,13.96,43.8
10090,2018-06-29 08:50:07.312500,19.78,43.8
10091,2018-06-29 08:50:07.343750,23.34,43.8
10092,2018-06-29 08:50:07.375000,25.57,43.8
10093,2018-06-29 08:50:07.406250,27.36,43.8
10094,2018-06-29 08:50:07.437500,29.59,43.8
10095,2018-06-29 08:50:07.468750,32.66,43.8
10096,2018-06-29 08:50:07.500000,35.2,43.8
10097,2018-06-29 08:50:07.531250,35.16,43.85
10098,2018-06-29 08:50:07.562500,32.54,43.85
10099,2018-06-29 08:50:07.593750,29.32,43.85
10100,2018-06-29 08:50:07.625000,27.14,43.85
10101,2018-06-29 08:50:07.656250,25.87,43.85
10102,2018-06-29 08:50:07.687500,24.27,43.85
10103,2018-06-29 08:50:07.718750,21.72,43.85
10104,2018-06-29 08:50:07.750000,19.21,43.85
10105,2018-06-29 08:50:07.781250,17.8,43.85
10106,2018-06-29 08:50:07.812500,16.55,43.85
10107,2018-06-29 08:50:07.843750,13.93,43.85
10108,2018-06-29 08:50:07.875000,10.4,43.85
10109,2018-06-29 08:50:07.906250,7.14,43.85
10110,2018-06-29 08:50:07.937500,4.15,43.85
10111,2018-06-29 08:50:07.968750,1.36,43.85
10112,2018-06-29 08:50:08.000000,-1.25,43.85
10113,2018-06-29 08:50:08.031250,-4.62,43.85
10114,2018-06-29 08:50:08.062500,-8.88,43.85
10115,2018-06-29 08:50:08.093750,-12.53,43.85
10116,2018-06-29 08:50:08.125000,-15.59,43.85
10117,2018-06-29 08:50:08.156250,-20.12,43.85
10118,2018-06-29 08:50:08.187500,-26.21,43.85
10119,2018-06-29 08:50:08.218750,-31.66,43.85
10120,2018-06-29 08:50:08.250000,-35.99,43.85
10121,2018-06-29 08:50:08.281250,-41.23,43.85
10122,2018-06-29 08:50:08.312500,-49.6,43.85
10123,2018-06-29 08:50:08.343750,-60.83,43.85
10124,2018-06-29 08:50:08.375000,-70.01,43.85
10125,2018-06-29 08:50:08.406250,-69.43,43.85
10126,2018-06-29 08:50:08.437500,-56.44,43.85
10127,2018-06-29 08:50:08.468750,-37.08,43.85
10128,2018-06-29 08:50:08.500000,-19.35,43.85
10129,2018-06-29 08:50:08.531250,-6.35,43.9
10130,2018-06-29 08:50:08.562500,3.02,43.9
10131,2018-06-29 08:50:08.593750,10.34,43.9
10132,2018-06-29 08:50:08.625000,16.11,43.9
10133,2018-06-29 08:50:08.656250,20.4,43.9
10134,2018-06-29 08:50:08.687500,23.39,43.9
10135,2018-06-29 08:50:08.718750,25.23,43.9
10136,2018-06-29 08:50:08.750000,26.69,43.9
10137,2018-06-29 08:50:08.781250,29.02,43.9
10138,2018-06-29 08:50:08.812500,32.02,43.9
10139,2018-06-29 08:50:08.843750,33.65,43.9
10140,2018-06-29 08:50:08.875000,32.88,43.9
10141,2018-06-29 08:50:08.906250,30.58,43.9
10142,2018-06-29 08:50:08.937500,27.94,43.9
10143,2018-06-29 08:50:08.968750,25.98,43.9
10144,2018-06-29 08:50:09.000000,24.65,43.9
10145,2018-06-29 08:50:09.031250,22.72,43.9
10146,2018-06-29 08:50:09.062500,20.01,43.9
10147,2018-06-29 08:50:09.093750,18.01,43.9
10148,2018-06-29 08:50:09.125000,16.86,43.9
10149,2018-06-29 08:50:09.156250,15.12,43.9
10150,2018-06-29 08:50:09.187500,12.45,43.9
10151,2018-06-29 08:50:09.218750,9.67,43.9
10152,2018-06-29 08:50:09.250000,6.86,43.9
10153,2018-06-29 08:50:09.281250,3.57,43.9
10154,2018-06-29 08:50:09.312500,-0.27,43.9
10155,2018-06-29 08:50:09.343750,-4.51,43.9
10156,2018-06-29 08:50:09.375000,-9.01,43.9
10157,2018-06-29 08:50:09.406250,-13.51,43.9
10158,2018-06-29 08:50:09.437500,-18.0,43.9
10159,2018-06-29 08:50:09.468750,-22.83,43.9
10160,2018-06-29 08:50:09.500000,-28.32,43.9
10161,2018-06-29 08:50:09.531250,-34.37,44.0
10162,2018-06-29 08:50:09.562500,-40.48,44.0
10163,2018-06-29 08:50:09.593750,-46.63,44.0
10164,2018-06-29 08:50:09.625000,-52.99,44.0
10165,2018-06-29 08:50:09.656250,-58.95,44.0
10166,2018-06-29 08:50:09.687500,-63.16,44.0
10167,2018-06-29 08:50:09.718750,-63.53,44.0
10168,2018-06-29 08:50:09.750000,-58.72,44.0
10169,2018-06-29 08:50:09.781250,-52.39,44.0
10170,2018-06-29 08:50:09.812500,-51.87,44.0
10171,2018-06-29 08:50:09.843750,-58.98,44.0
10172,2018-06-29 08:50:09.875000,-67.6,44.0
10173,2018-06-29 08:50:09.906250,-72.18,44.0
10174,2018-06-29 08:50:09.937500,-71.72,44.0
10175,2018-06-29 08:50:09.968750,-67.25,44.0
10176,2018-06-29 08:50:10.000000,-62.42,44.0
10177,2018-06-29 08:50:10.031250,-61.68,44.0
10178,2018-06-29 08:50:10.062500,-63.15,44.0
10179,2018-06-29 08:50:10.093750,-58.87,44.0
10180,2018-06-29 08:50:10.125000,-44.16,44.0
10181,2018-06-29 08:50:10.156250,-22.73,44.0
10182,2018-06-29 08:50:10.187500,-4.59,44.0
10183,2018-06-29 08:50:10.218750,1.01,44.0
10184,2018-06-29 08:50:10.250000,-4.57,44.0
10185,2018-06-29 08:50:10.281250,-8.53,44.0
10186,2018-06-29 08:50:10.312500,0.48,44.0
10187,2018-06-29 08:50:10.343750,24.01,44.0
10188,2018-06-29 08:50:10.375000,60.78,44.0
10189,2018-06-29 08:50:10.406250,112.1,44.0
10190,2018-06-29 08:50:10.437500,173.98,44.0
10191,2018-06-29 08:50:10.468750,230.89,44.0
10192,2018-06-29 08:50:10.500000,265.36,44.0
10193,2018-06-29 08:50:10.531250,271.32,44.15
10194,2018-06-29 08:50:10.562500,253.16,44.15
10195,2018-06-29 08:50:10.593750,218.12,44.15
10196,2018-06-29 08:50:10.625000,176.02,44.15
10197,2018-06-29 08:50:10.656250,138.37,44.15
10198,2018-06-29 08:50:10.687500,109.27,44.15
10199,2018-06-29 08:50:10.718750,82.69,44.15
10200,2018-06-29 08:50:10.750000,52.37,44.15
10201,2018-06-29 08:50:10.781250,18.86,44.15
10202,2018-06-29 08:50:10.812500,-14.33,44.15
10203,2018-06-29 08:50:10.843750,-45.23,44.15
10204,2018-06-29 08:50:10.875000,-71.6,44.15
10205,2018-06-29 08:50:10.906250,-88.77,44.15
10206,2018-06-29 08:50:10.937500,-93.77,44.15
10207,2018-06-29 08:50:10.968750,-90.5,44.15
10208,2018-06-29 08:50:11.000000,-85.94,44.15
10209,2018-06-29 08:50:11.031250,-82.32,44.15
10210,2018-06-29 08:50:11.062500,-77.62,44.15
10211,2018-06-29 08:50:11.093750,-69.21,44.15
10212,2018-06-29 08:50:11.125000,-51.74,44.15
10213,2018-06-29 08:50:11.156250,-19.55,44.15
10214,2018-06-29 08:50:11.187500,23.31,44.15
10215,2018-06-29 08:50:11.218750,63.79,44.15
10216,2018-06-29 08:50:11.250000,93.96,44.15
10217,2018-06-29 08:50:11.281250,117.32,44.15
10218,2018-06-29 08:50:11.312500,139.6,44.15
10219,2018-06-29 08:50:11.343750,156.88,44.15
10220,2018-06-29 08:50:11.375000,153.97,44.15
10221,2018-06-29 08:50:11.406250,116.96,44.15
10222,2018-06-29 08:50:11.437500,50.18,44.15
10223,2018-06-29 08:50:11.468750,-22.4,44.15
10224,2018-06-29 08:50:11.500000,-74.11,44.15
10225,2018-06-29 08:50:11.531250,-92.6,44.32
10226,2018-06-29 08:50:11.562500,-84.17,44.32
10227,2018-06-29 08:50:11.593750,-65.49,44.32
10228,2018-06-29 08:50:11.625000,-49.5,44.32
10229,2018-06-29 08:50:11.656250,-37.39,44.32
10230,2018-06-29 08:50:11.687500,-23.57,44.32
10231,2018-06-29 08:50:11.718750,-4.94,44.32
10232,2018-06-29 08:50:11.750000,16.57,44.32
10233,2018-06-29 08:50:11.781250,37.14,44.32
10234,2018-06-29 08:50:11.812500,53.24,44.32
10235,2018-06-29 08:50:11.843750,62.55,44.32
10236,2018-06-29 08:50:11.875000,65.16,44.32
10237,2018-06-29 08:50:11.906250,63.42,44.32
10238,2018-06-29 08:50:11.937500,58.15,44.32
10239,2018-06-29 08:50:11.968750,46.77,44.32
10240,2018-06-29 08:50:12.000000,27.14,44.32
10241,2018-06-29 08:50:12.031250,0.98,44.32
10242,2018-06-29 08:50:12.062500,-27.72,44.32
10243,2018-06-29 08:50:12.093750,-54.61,44.32
10244,2018-06-29 08:50:12.125000,-75.89,44.32
10245,2018-06-29 08:50:12.156250,-89.81,44.32
10246,2018-06-29 08:50:12.187500,-97.28,44.32
10247,2018-06-29 08:50:12.218750,-100.09,44.32
10248,2018-06-29 08:50:12.250000,-100.03,44.32
10249,2018-06-29 08:50:12.281250,-99.29,44.32
10250,2018-06-29 08:50:12.312500,-99.53,44.32
10251,2018-06-29 08:50:12.343750,-100.29,44.32
10252,2018-06-29 08:50:12.375000,-99.57,44.32
10253,2018-06-29 08:50:12.406250,-96.6,44.32
10254,2018-06-29 08:50:12.437500,-92.75,44.32
10255,2018-06-29 08:50:12.468750,-88.96,44.32
10256,2018-06-29 08:50:12.500000,-84.32,44.32
10257,2018-06-29 08:50:12.531250,-78.29,44.47
10258,2018-06-29 08:50:12.562500,-72.11,44.47
10259,2018-06-29 08:50:12.593750,-66.87,44.47
10260,2018-06-29 08:50:12.625000,-61.4,44.47
10261,2018-06-29 08:50:12.656250,-51.36,44.47
10262,2018-06-29 08:50:12.687500,-31.31,44.47
10263,2018-06-29 08:50:12.718750,-0.27,44.47
10264,2018-06-29 08:50:12.750000,35.79,44.47
10265,2018-06-29 08:50:12.781250,68.89,44.47
10266,2018-06-29 08:50:12.812500,94.33,44.47
10267,2018-06-29 08:50:12.843750,110.49,44.47
10268,2018-06-29 08:50:12.875000,117.21,44.47
10269,2018-06-29 08:50:12.906250,115.83,44.47
10270,2018-06-29 08:50:12.937500,109.49,44.47
10271,2018-06-29 08:50:12.968750,101.73,44.47
10272,2018-06-29 08:50:13.000000,93.69,44.47
10273,2018-06-29 08:50:13.031250,84.26,44.47
10274,2018-06-29 08:50:13.062500,73.59,44.47
10275,2018-06-29 08:50:13.093750,63.26,44.47
10276,2018-06-29 08:50:13.125000,53.01,44.47
10277,2018-06-29 08:50:13.156250,40.97,44.47
10278,2018-06-29 08:50:13.187500,26.92,44.47
10279,2018-06-29 08:50:13.218750,12.63,44.47
10280,2018-06-29 08:50:13.250000,-0.57,44.47
10281,2018-06-29 08:50:13.281250,-13.08,44.47
10282,2018-06-29 08:50:13.312500,-25.54,44.47
10283,2018-06-29 08:50:13.343750,-36.59,44.47
10284,2018-06-29 08:50:13.375000,-44.04,44.47
10285,2018-06-29 08:50:13.406250,-48.46,44.47
10286,2018-06-29 08:50:13.437500,-53.04,44.47
10287,2018-06-29 08:50:13.468750,-59.52,44.47
10288,2018-06-29 08:50:13.500000,-66.62,44.47
10289,2018-06-29 08:50:13.531250,-72.83,44.63
10290,2018-06-29 08:50:13.562500,-78.81,44.63
10291,2018-06-29 08:50:13.593750,-86.17,44.63
10292,2018-06-29 08:50:13.625000,-95.89,44.63
10293,2018-06-29 08:50:13.656250,-107.41,44.63
10294,2018-06-29 08:50:13.687500,-116.42,44.63
10295,2018-06-29 08:50:13.718750,-115.3,44.63
10296,2018-06-29 08:50:13.750000,-100.55,44.63
10297,2018-06-29 08:50:13.781250,-77.7,44.63
10298,2018-06-29 08:50:13.812500,-55.18,44.63
10299,2018-06-29 08:50:13.843750,-36.25,44.63
10300,2018-06-29 08:50:13.875000,-20.07,44.63
10301,2018-06-29 08:50:13.906250,-6.49,44.63
10302,2018-06-29 08:50:13.937500,4.06,44.63
10303,2018-06-29 08:50:13.968750,12.41,44.63
10304,2018-06-29 08:50:14.000000,19.32,44.63
10305,2018-06-29 08:50:14.031250,24.49,44.63
10306,2018-06-29 08:50:14.062500,28.05,44.63
10307,2018-06-29 08:50:14.093750,30.95,44.63
10308,2018-06-29 08:50:14.125000,33.29,44.63
10309,2018-06-29 08:50:14.156250,33.75,44.63
10310,2018-06-29 08:50:14.187500,31.11,44.63
10311,2018-06-29 08:50:14.218750,26.09,44.63
10312,2018-06-29 08:50:14.250000,21.08,44.63
10313,2018-06-29 08:50:14.281250,17.47,44.63
10314,2018-06-29 08:50:14.312500,14.59,44.63
10315,2018-06-29 08:50:14.343750,11.79,44.63
10316,2018-06-29 08:50:14.375000,9.97,44.63
10317,2018-06-29 08:50:14.406250,9.97,44.63
10318,2018-06-29 08:50:14.437500,10.53,44.63
10319,2018-06-29 08:50:14.468750,9.72,44.63
10320,2018-06-29 08:50:14.500000,7.89,44.63
10321,2018-06-29 08:50:14.531250,6.79,44.8
10322,2018-06-29 08:50:14.562500,6.62,44.8
10323,2018-06-29 08:50:14.593750,6.15,44.8
10324,2018-06-29 08:50:14.625000,4.54,44.8
10325,2018-06-29 08:50:14.656250,1.76,44.8
10326,2018-06-29 08:50:14.687500,-1.46,44.8
10327,2018-06-29 08:50:14.718750,-4.5,44.8
10328,2018-06-29 08:50:14.750000,-8.37,44.8
10329,2018-06-29 08:50:14.781250,-14.43,44.8
10330,2018-06-29 08:50:14.812500,-21.78,44.8
10331,2018-06-29 08:50:14.843750,-28.71,44.8
10332,2018-06-29 08:50:14.875000,-35.12,44.8
10333,2018-06-29 08:50:14.906250,-42.57,44.8
10334,2018-06-29 08:50:14.937500,-52.91,44.8
10335,2018-06-29 08:50:14.968750,-65.09,44.8
10336,2018-06-29 08:50:15.000000,-72.15,44.8
10337,2018-06-29 08:50:15.031250,-66.28,44.8
10338,2018-06-29 08:50:15.062500,-48.78,44.8
10339,2018-06-29 08:50:15.093750,-29.34,44.8
10340,2018-06-29 08:50:15.125000,-15.01,44.8
10341,2018-06-29 08:50:15.156250,-5.14,44.8
10342,2018-06-29 08:50:15.187500,2.79,44.8
10343,2018-06-29 08:50:15.218750,8.48,44.8
10344,2018-06-29 08:50:15.250000,10.56,44.8
10345,2018-06-29 08:50:15.281250,9.3,44.8
10346,2018-06-29 08:50:15.312500,5.76,44.8
10347,2018-06-29 08:50:15.343750,0.21,44.8
10348,2018-06-29 08:50:15.375000,-6.67,44.8
10349,2018-06-29 08:50:15.406250,-12.88,44.8
10350,2018-06-29 08:50:15.437500,-17.63,44.8
10351,2018-06-29 08:50:15.468750,-22.75,44.8
10352,2018-06-29 08:50:15.500000,-29.64,44.8
10353,2018-06-29 08:50:15.531250,-36.66,45.12
10354,2018-06-29 08:50:15.562500,-41.46,45.12
10355,2018-06-29 08:50:15.593750,-44.24,45.12
10356,2018-06-29 08:50:15.625000,-46.83,45.12
10357,2018-06-29 08:50:15.656250,-49.86,45.12
10358,2018-06-29 08:50:15.687500,-52.01,45.12
10359,2018-06-29 08:50:15.718750,-52.73,45.12
10360,2018-06-29 08:50:15.750000,-54.1,45.12
10361,2018-06-29 08:50:15.781250,-58.63,45.12
10362,2018-06-29 08:50:15.812500,-65.47,45.12
10363,2018-06-29 08:50:15.843750,-71.43,45.12
10364,2018-06-29 08:50:15.875000,-76.11,45.12
10365,2018-06-29 08:50:15.906250,-82.43,45.12
10366,2018-06-29 08:50:15.937500,-91.75,45.12
10367,2018-06-29 08:50:15.968750,-100.8,45.12
10368,2018-06-29 08:50:16.000000,-102.62,45.12
10369,2018-06-29 08:50:16.031250,-90.71,45.12
10370,2018-06-29 08:50:16.062500,-66.29,45.12
10371,2018-06-29 08:50:16.093750,-38.75,45.12
10372,2018-06-29 08:50:16.125000,-13.65,45.12
10373,2018-06-29 08:50:16.156250,12.78,45.12
10374,2018-06-29 08:50:16.187500,42.44,45.12
10375,2018-06-29 08:50:16.218750,69.33,45.12
10376,2018-06-29 08:50:16.250000,90.03,45.12
10377,2018-06-29 08:50:16.281250,110.48,45.12
10378,2018-06-29 08:50:16.312500,136.12,45.12
10379,2018-06-29 08:50:16.343750,159.2,45.12
10380,2018-06-29 08:50:16.375000,162.72,45.12
10381,2018-06-29 08:50:16.406250,139.06,45.12
10382,2018-06-29 08:50:16.437500,97.4,45.12
10383,2018-06-29 08:50:16.468750,50.67,45.12
10384,2018-06-29 08:50:16.500000,6.72,45.12
10385,2018-06-29 08:50:16.531250,-26.51,45.43
10386,2018-06-29 08:50:16.562500,-41.63,45.43
10387,2018-06-29 08:50:16.593750,-39.47,45.43
10388,2018-06-29 08:50:16.625000,-26.55,45.43
10389,2018-06-29 08:50:16.656250,-7.16,45.43
10390,2018-06-29 08:50:16.687500,16.06,45.43
10391,2018-06-29 08:50:16.718750,38.43,45.43
10392,2018-06-29 08:50:16.750000,55.28,45.43
10393,2018-06-29 08:50:16.781250,65.07,45.43
10394,2018-06-29 08:50:16.812500,68.26,45.43
10395,2018-06-29 08:50:16.843750,64.88,45.43
10396,2018-06-29 08:50:16.875000,55.91,45.43
10397,2018-06-29 08:50:16.906250,44.41,45.43
10398,2018-06-29 08:50:16.937500,32.47,45.43
10399,2018-06-29 08:50:16.968750,19.06,45.43
10400,2018-06-29 08:50:17.000000,2.64,45.43
10401,2018-06-29 08:50:17.031250,-15.12,45.43
10402,2018-06-29 08:50:17.062500,-27.77,45.43
10403,2018-06-29 08:50:17.093750,-27.6,45.43
10404,2018-06-29 08:50:17.125000,-13.84,45.43
10405,2018-06-29 08:50:17.156250,5.87,45.43
10406,2018-06-29 08:50:17.187500,24.46,45.43
10407,2018-06-29 08:50:17.218750,40.84,45.43
10408,2018-06-29 08:50:17.250000,54.69,45.43
10409,2018-06-29 08:50:17.281250,63.64,45.43
10410,2018-06-29 08:50:17.312500,67.3,45.43
10411,2018-06-29 08:50:17.343750,67.86,45.43
10412,2018-06-29 08:50:17.375000,67.0,45.43
10413,2018-06-29 08:50:17.406250,65.89,45.43
10414,2018-06-29 08:50:17.437500,65.87,45.43
10415,2018-06-29 08:50:17.468750,66.41,45.43
10416,2018-06-29 08:50:17.500000,65.04,45.43
10417,2018-06-29 08:50:17.531250,60.54,45.75
10418,2018-06-29 08:50:17.562500,54.36,45.75
10419,2018-06-29 08:50:17.593750,48.56,45.75
10420,2018-06-29 08:50:17.625000,43.85,45.75
10421,2018-06-29 08:50:17.656250,39.84,45.75
10422,2018-06-29 08:50:17.687500,36.26,45.75
10423,2018-06-29 08:50:17.718750,32.99,45.75
10424,2018-06-29 08:50:17.750000,30.54,45.75
10425,2018-06-29 08:50:17.781250,30.46,45.75
10426,2018-06-29 08:50:17.812500,32.91,45.75
10427,2018-06-29 08:50:17.843750,34.41,45.75
10428,2018-06-29 08:50:17.875000,32.18,45.75
10429,2018-06-29 08:50:17.906250,28.99,45.75
10430,2018-06-29 08:50:17.937500,29.07,45.75
10431,2018-06-29 08:50:17.968750,32.25,45.75
10432,2018-06-29 08:50:18.000000,35.43,45.75
10433,2018-06-29 08:50:18.031250,36.06,45.75
10434,2018-06-29 08:50:18.062500,35.02,45.75
10435,2018-06-29 08:50:18.093750,38.94,45.75
10436,2018-06-29 08:50:18.125000,52.92,45.75
10437,2018-06-29 08:50:18.156250,67.19,45.75
10438,2018-06-29 08:50:18.187500,60.76,45.75
10439,2018-06-29 08:50:18.218750,21.95,45.75
10440,2018-06-29 08:50:18.250000,-41.91,45.75
10441,2018-06-29 08:50:18.281250,-112.59,45.75
10442,2018-06-29 08:50:18.312500,-170.78,45.75
10443,2018-06-29 08:50:18.343750,-201.5,45.75
10444,2018-06-29 08:50:18.375000,-198.37,45.75
10445,2018-06-29 08:50:18.406250,-167.32,45.75
10446,2018-06-29 08:50:18.437500,-124.33,45.75
10447,2018-06-29 08:50:18.468750,-83.5,45.75
10448,2018-06-29 08:50:18.500000,-48.0,45.75
10449,2018-06-29 08:50:18.531250,-18.77,46.08
10450,2018-06-29 08:50:18.562500,-4.44,46.08
10451,2018-06-29 08:50:18.593750,-10.68,46.08
10452,2018-06-29 08:50:18.625000,-27.35,46.08
10453,2018-06-29 08:50:18.656250,-38.45,46.08
10454,2018-06-29 08:50:18.687500,-37.99,46.08
10455,2018-06-29 08:50:18.718750,-28.95,46.08
10456,2018-06-29 08:50:18.750000,-15.59,46.08
10457,2018-06-29 08:50:18.781250,-2.91,46.08
10458,2018-06-29 08:50:18.812500,2.94,46.08
10459,2018-06-29 08:50:18.843750,-0.78,46.08
10460,2018-06-29 08:50:18.875000,-10.18,46.08
10461,2018-06-29 08:50:18.906250,-18.59,46.08
10462,2018-06-29 08:50:18.937500,-23.07,46.08
10463,2018-06-29 08:50:18.968750,-24.84,46.08
10464,2018-06-29 08:50:19.000000,-25.3,46.08
10465,2018-06-29 08:50:19.031250,-25.69,46.08
10466,2018-06-29 08:50:19.062500,-27.92,46.08
10467,2018-06-29 08:50:19.093750,-31.79,46.08
10468,2018-06-29 08:50:19.125000,-33.92,46.08
10469,2018-06-29 08:50:19.156250,-32.13,46.08
10470,2018-06-29 08:50:19.187500,-28.76,46.08
10471,2018-06-29 08:50:19.218750,-28.5,46.08
10472,2018-06-29 08:50:19.250000,-34.68,46.08
10473,2018-06-29 08:50:19.281250,-45.63,46.08
10474,2018-06-29 08:50:19.312500,-53.31,46.08
10475,2018-06-29 08:50:19.343750,-48.89,46.08
10476,2018-06-29 08:50:19.375000,-31.45,46.08
10477,2018-06-29 08:50:19.406250,-8.38,46.08
10478,2018-06-29 08:50:19.437500,12.52,46.08
10479,2018-06-29 08:50:19.468750,28.44,46.08
10480,2018-06-29 08:50:19.500000,40.52,46.08
10481,2018-06-29 08:50:19.531250,50.66,46.45
10482,2018-06-29 08:50:19.562500,58.81,46.45
10483,2018-06-29 08:50:19.593750,63.7,46.45
10484,2018-06-29 08:50:19.625000,66.31,46.45
10485,2018-06-29 08:50:19.656250,69.76,46.45
10486,2018-06-29 08:50:19.687500,75.2,46.45
10487,2018-06-29 08:50:19.718750,80.97,46.45
10488,2018-06-29 08:50:19.750000,85.26,46.45
10489,2018-06-29 08:50:19.781250,86.84,46.45
10490,2018-06-29 08:50:19.812500,84.68,46.45
10491,2018-06-29 08:50:19.843750,79.1,46.45
10492,2018-06-29 08:50:19.875000,71.95,46.45
10493,2018-06-29 08:50:19.906250,64.26,46.45
10494,2018-06-29 08:50:19.937500,55.79,46.45
10495,2018-06-29 08:50:19.968750,47.04,46.45
10496,2018-06-29 08:50:20.000000,38.89,46.45
10497,2018-06-29 08:50:20.031250,30.76,46.45
10498,2018-06-29 08:50:20.062500,21.6,46.45
10499,2018-06-29 08:50:20.093750,12.18,46.45
10500,2018-06-29 08:50:20.125000,3.83,46.45
10501,2018-06-29 08:50:20.156250,-4.07,46.45
10502,2018-06-29 08:50:20.187500,-12.91,46.45
10503,2018-06-29 08:50:20.218750,-21.92,46.45
10504,2018-06-29 08:50:20.250000,-29.34,46.45
10505,2018-06-29 08:50:20.281250,-35.78,46.45
10506,2018-06-29 08:50:20.312500,-44.23,46.45
10507,2018-06-29 08:50:20.343750,-56.59,46.45
10508,2018-06-29 08:50:20.375000,-69.81,46.45
10509,2018-06-29 08:50:20.406250,-75.79,46.45
10510,2018-06-29 08:50:20.437500,-67.87,46.45
10511,2018-06-29 08:50:20.468750,-47.93,46.45
10512,2018-06-29 08:50:20.500000,-24.41,46.45
10513,2018-06-29 08:50:20.531250,-3.94,46.77
10514,2018-06-29 08:50:20.562500,11.81,46.77
10515,2018-06-29 08:50:20.593750,22.91,46.77
10516,2018-06-29 08:50:20.625000,29.52,46.77
10517,2018-06-29 08:50:20.656250,33.08,46.77
10518,2018-06-29 08:50:20.687500,35.73,46.77
10519,2018-06-29 08:50:20.718750,38.24,46.77
10520,2018-06-29 08:50:20.750000,40.69,46.77
10521,2018-06-29 08:50:20.781250,43.49,46.77
10522,2018-06-29 08:50:20.812500,45.95,46.77
10523,2018-06-29 08:50:20.843750,46.11,46.77
10524,2018-06-29 08:50:20.875000,43.43,46.77
10525,2018-06-29 08:50:20.906250,39.43,46.77
10526,2018-06-29 08:50:20.937500,35.46,46.77
10527,2018-06-29 08:50:20.968750,31.52,46.77
10528,2018-06-29 08:50:21.000000,26.99,46.77
10529,2018-06-29 08:50:21.031250,21.76,46.77
10530,2018-06-29 08:50:21.062500,16.55,46.77
10531,2018-06-29 08:50:21.093750,12.09,46.77
10532,2018-06-29 08:50:21.125000,7.83,46.77
10533,2018-06-29 08:50:21.156250,2.4,46.77
10534,2018-06-29 08:50:21.187500,-4.91,46.77
10535,2018-06-29 08:50:21.218750,-13.14,46.77
10536,2018-06-29 08:50:21.250000,-20.99,46.77
10537,2018-06-29 08:50:21.281250,-29.11,46.77
10538,2018-06-29 08:50:21.312500,-39.94,46.77
10539,2018-06-29 08:50:21.343750,-54.57,46.77
10540,2018-06-29 08:50:21.375000,-68.74,46.77
10541,2018-06-29 08:50:21.406250,-73.63,46.77
10542,2018-06-29 08:50:21.437500,-63.93,46.77
10543,2018-06-29 08:50:21.468750,-43.69,46.77
10544,2018-06-29 08:50:21.500000,-21.27,46.77
10545,2018-06-29 08:50:21.531250,-1.82,47.07
10546,2018-06-29 08:50:21.562500,12.93,47.07
10547,2018-06-29 08:50:21.593750,22.58,47.07
10548,2018-06-29 08:50:21.625000,28.2,47.07
10549,2018-06-29 08:50:21.656250,31.48,47.07
10550,2018-06-29 08:50:21.687500,33.56,47.07
10551,2018-06-29 08:50:21.718750,35.64,47.07
10552,2018-06-29 08:50:21.750000,38.75,47.07
10553,2018-06-29 08:50:21.781250,42.24,47.07
10554,2018-06-29 08:50:21.812500,44.73,47.07
10555,2018-06-29 08:50:21.843750,45.7,47.07
10556,2018-06-29 08:50:21.875000,44.68,47.07
10557,2018-06-29 08:50:21.906250,40.89,47.07
10558,2018-06-29 08:50:21.937500,35.35,47.07
10559,2018-06-29 08:50:21.968750,30.16,47.07
10560,2018-06-29 08:50:22.000000,25.62,47.07
10561,2018-06-29 08:50:22.031250,20.55,47.07
10562,2018-06-29 08:50:22.062500,14.67,47.07
10563,2018-06-29 08:50:22.093750,8.92,47.07
10564,2018-06-29 08:50:22.125000,3.99,47.07
10565,2018-06-29 08:50:22.156250,-1.13,47.07
10566,2018-06-29 08:50:22.187500,-8.45,47.07
10567,2018-06-29 08:50:22.218750,-18.01,47.07
10568,2018-06-29 08:50:22.250000,-27.3,47.07
10569,2018-06-29 08:50:22.281250,-35.11,47.07
10570,2018-06-29 08:50:22.312500,-43.29,47.07
10571,2018-06-29 08:50:22.343750,-54.37,47.07
10572,2018-06-29 08:50:22.375000,-67.97,47.07
10573,2018-06-29 08:50:22.406250,-78.09,47.07
10574,2018-06-29 08:50:22.437500,-76.01,47.07
10575,2018-06-29 08:50:22.468750,-59.4,47.07
10576,2018-06-29 08:50:22.500000,-35.69,47.07
10577,2018-06-29 08:50:22.531250,-13.9,47.4
10578,2018-06-29 08:50:22.562500,2.77,47.4
10579,2018-06-29 08:50:22.593750,15.21,47.4
10580,2018-06-29 08:50:22.625000,23.96,47.4
10581,2018-06-29 08:50:22.656250,28.93,47.4
10582,2018-06-29 08:50:22.687500,31.39,47.4
10583,2018-06-29 08:50:22.718750,33.56,47.4
10584,2018-06-29 08:50:22.750000,36.2,47.4
10585,2018-06-29 08:50:22.781250,38.75,47.4
10586,2018-06-29 08:50:22.812500,41.27,47.4
10587,2018-06-29 08:50:22.843750,43.42,47.4
10588,2018-06-29 08:50:22.875000,43.64,47.4
10589,2018-06-29 08:50:22.906250,41.02,47.4
10590,2018-06-29 08:50:22.937500,36.39,47.4
10591,2018-06-29 08:50:22.968750,31.33,47.4
10592,2018-06-29 08:50:23.000000,26.63,47.4
10593,2018-06-29 08:50:23.031250,21.96,47.4
10594,2018-06-29 08:50:23.062500,16.41,47.4
10595,2018-06-29 08:50:23.093750,10.06,47.4
10596,2018-06-29 08:50:23.125000,4.33,47.4
10597,2018-06-29 08:50:23.156250,0.16,47.4
10598,2018-06-29 08:50:23.187500,-3.79,47.4
10599,2018-06-29 08:50:23.218750,-9.5,47.4
10600,2018-06-29 08:50:23.250000,-16.71,47.4
10601,2018-06-29 08:50:23.281250,-23.6,47.4
10602,2018-06-29 08:50:23.312500,-30.13,47.4
10603,2018-06-29 08:50:23.343750,-38.2,47.4
10604,2018-06-29 08:50:23.375000,-49.12,47.4
10605,2018-06-29 08:50:23.406250,-61.58,47.4
10606,2018-06-29 08:50:23.437500,-70.3,47.4
10607,2018-06-29 08:50:23.468750,-68.02,47.4
10608,2018-06-29 08:50:23.500000,-52.57,47.4
10609,2018-06-29 08:50:23.531250,-30.25,47.75
10610,2018-06-29 08:50:23.562500,-9.54,47.75
10611,2018-06-29 08:50:23.593750,6.14,47.75
10612,2018-06-29 08:50:23.625000,17.24,47.75
10613,2018-06-29 08:50:23.656250,23.84,47.75
10614,2018-06-29 08:50:23.687500,26.08,47.75
10615,2018-06-29 08:50:23.718750,26.33,47.75
10616,2018-06-29 08:50:23.750000,27.65,47.75
10617,2018-06-29 08:50:23.781250,30.42,47.75
10618,2018-06-29 08:50:23.812500,32.97,47.75
10619,2018-06-29 08:50:23.843750,34.6,47.75
10620,2018-06-29 08:50:23.875000,35.38,47.75
10621,2018-06-29 08:50:23.906250,34.56,47.75
10622,2018-06-29 08:50:23.937500,31.66,47.75
10623,2018-06-29 08:50:23.968750,27.84,47.75
10624,2018-06-29 08:50:24.000000,24.13,47.75
10625,2018-06-29 08:50:24.031250,20.1,47.75
10626,2018-06-29 08:50:24.062500,15.43,47.75
10627,2018-06-29 08:50:24.093750,10.84,47.75
10628,2018-06-29 08:50:24.125000,6.87,47.75
10629,2018-06-29 08:50:24.156250,3.2,47.75
10630,2018-06-29 08:50:24.187500,-1.0,47.75
10631,2018-06-29 08:50:24.218750,-6.62,47.75
10632,2018-06-29 08:50:24.250000,-13.66,47.75
10633,2018-06-29 08:50:24.281250,-20.99,47.75
10634,2018-06-29 08:50:24.312500,-27.87,47.75
10635,2018-06-29 08:50:24.343750,-34.67,47.75
10636,2018-06-29 08:50:24.375000,-42.68,47.75
10637,2018-06-29 08:50:24.406250,-53.36,47.75
10638,2018-06-29 08:50:24.437500,-64.76,47.75
10639,2018-06-29 08:50:24.468750,-69.1,47.75
10640,2018-06-29 08:50:24.500000,-59.85,47.75
10641,2018-06-29 08:50:24.531250,-40.36,48.1
10642,2018-06-29 08:50:24.562500,-19.87,48.1
10643,2018-06-29 08:50:24.593750,-3.55,48.1
10644,2018-06-29 08:50:24.625000,8.53,48.1
10645,2018-06-29 08:50:24.656250,16.84,48.1
10646,2018-06-29 08:50:24.687500,21.4,48.1
10647,2018-06-29 08:50:24.718750,23.47,48.1
10648,2018-06-29 08:50:24.750000,24.96,48.1
10649,2018-06-29 08:50:24.781250,26.88,48.1
10650,2018-06-29 08:50:24.812500,29.06,48.1
10651,2018-06-29 08:50:24.843750,30.9,48.1
10652,2018-06-29 08:50:24.875000,32.21,48.1
10653,2018-06-29 08:50:24.906250,32.78,48.1
10654,2018-06-29 08:50:24.937500,31.48,48.1
10655,2018-06-29 08:50:24.968750,27.5,48.1
10656,2018-06-29 08:50:25.000000,22.21,48.1
10657,2018-06-29 08:50:25.031250,17.79,48.1
10658,2018-06-29 08:50:25.062500,14.49,48.1
10659,2018-06-29 08:50:25.093750,10.78,48.1
10660,2018-06-29 08:50:25.125000,5.98,48.1
10661,2018-06-29 08:50:25.156250,1.22,48.1
10662,2018-06-29 08:50:25.187500,-2.75,48.1
10663,2018-06-29 08:50:25.218750,-7.14,48.1
10664,2018-06-29 08:50:25.250000,-13.16,48.1
10665,2018-06-29 08:50:25.281250,-19.88,48.1
10666,2018-06-29 08:50:25.312500,-25.84,48.1
10667,2018-06-29 08:50:25.343750,-31.59,48.1
10668,2018-06-29 08:50:25.375000,-39.0,48.1
10669,2018-06-29 08:50:25.406250,-49.03,48.1
10670,2018-06-29 08:50:25.437500,-59.9,48.1
10671,2018-06-29 08:50:25.468750,-66.08,48.1
10672,2018-06-29 08:50:25.500000,-61.46,48.1
10673,2018-06-29 08:50:25.531250,-45.77,48.43
10674,2018-06-29 08:50:25.562500,-25.76,48.43
10675,2018-06-29 08:50:25.593750,-8.3,48.43
10676,2018-06-29 08:50:25.625000,5.07,48.43
10677,2018-06-29 08:50:25.656250,15.45,48.43
10678,2018-06-29 08:50:25.687500,22.58,48.43
10679,2018-06-29 08:50:25.718750,25.83,48.43
10680,2018-06-29 08:50:25.750000,26.53,48.43
10681,2018-06-29 08:50:25.781250,27.24,48.43
10682,2018-06-29 08:50:25.812500,29.19,48.43
10683,2018-06-29 08:50:25.843750,31.73,48.43
10684,2018-06-29 08:50:25.875000,34.04,48.43
10685,2018-06-29 08:50:25.906250,35.67,48.43
10686,2018-06-29 08:50:25.937500,35.32,48.43
10687,2018-06-29 08:50:25.968750,31.86,48.43
10688,2018-06-29 08:50:26.000000,26.64,48.43
10689,2018-06-29 08:50:26.031250,22.11,48.43
10690,2018-06-29 08:50:26.062500,18.79,48.43
10691,2018-06-29 08:50:26.093750,15.62,48.43
10692,2018-06-29 08:50:26.125000,11.85,48.43
10693,2018-06-29 08:50:26.156250,7.25,48.43
10694,2018-06-29 08:50:26.187500,2.15,48.43
10695,2018-06-29 08:50:26.218750,-2.74,48.43
10696,2018-06-29 08:50:26.250000,-7.36,48.43
10697,2018-06-29 08:50:26.281250,-12.6,48.43
10698,2018-06-29 08:50:26.312500,-18.84,48.43
10699,2018-06-29 08:50:26.343750,-25.2,48.43
10700,2018-06-29 08:50:26.375000,-30.84,48.43
10701,2018-06-29 08:50:26.406250,-36.91,48.43
10702,2018-06-29 08:50:26.437500,-45.85,48.43
10703,2018-06-29 08:50:26.468750,-57.5,48.43
10704,2018-06-29 08:50:26.500000,-66.54,48.43
10705,2018-06-29 08:50:26.531250,-65.62,48.77
10706,2018-06-29 08:50:26.562500,-52.19,48.77
10707,2018-06-29 08:50:26.593750,-31.41,48.77
10708,2018-06-29 08:50:26.625000,-11.29,48.77
10709,2018-06-29 08:50:26.656250,3.79,48.77
10710,2018-06-29 08:50:26.687500,13.84,48.77
10711,2018-06-29 08:50:26.718750,19.58,48.77
10712,2018-06-29 08:50:26.750000,21.42,48.77
10713,2018-06-29 08:50:26.781250,21.32,48.77
10714,2018-06-29 08:50:26.812500,22.48,48.77
10715,2018-06-29 08:50:26.843750,25.77,48.77
10716,2018-06-29 08:50:26.875000,29.33,48.77
10717,2018-06-29 08:50:26.906250,31.56,48.77
10718,2018-06-29 08:50:26.937500,32.32,48.77
10719,2018-06-29 08:50:26.968750,31.65,48.77
10720,2018-06-29 08:50:27.000000,29.45,48.77
10721,2018-06-29 08:50:27.031250,26.0,48.77
10722,2018-06-29 08:50:27.062500,21.9,48.77
10723,2018-06-29 08:50:27.093750,17.43,48.77
10724,2018-06-29 08:50:27.125000,12.35,48.77
10725,2018-06-29 08:50:27.156250,6.7,48.77
10726,2018-06-29 08:50:27.187500,1.61,48.77
10727,2018-06-29 08:50:27.218750,-1.92,48.77
10728,2018-06-29 08:50:27.250000,-5.01,48.77
10729,2018-06-29 08:50:27.281250,-9.82,48.77
10730,2018-06-29 08:50:27.312500,-16.14,48.77
10731,2018-06-29 08:50:27.343750,-21.99,48.77
10732,2018-06-29 08:50:27.375000,-27.39,48.77
10733,2018-06-29 08:50:27.406250,-34.28,48.77
10734,2018-06-29 08:50:27.437500,-43.36,48.77
10735,2018-06-29 08:50:27.468750,-53.33,48.77
10736,2018-06-29 08:50:27.500000,-60.53,48.77
10737,2018-06-29 08:50:27.531250,-59.01,49.08
10738,2018-06-29 08:50:27.562500,-45.75,49.08
10739,2018-06-29 08:50:27.593750,-25.53,49.08
10740,2018-06-29 08:50:27.625000,-6.63,49.08
10741,2018-06-29 08:50:27.656250,6.79,49.08
10742,2018-06-29 08:50:27.687500,15.2,49.08
10743,2018-06-29 08:50:27.718750,19.83,49.08
10744,2018-06-29 08:50:27.750000,21.23,49.08
10745,2018-06-29 08:50:27.781250,20.98,49.08
10746,2018-06-29 08:50:27.812500,21.54,49.08
10747,2018-06-29 08:50:27.843750,23.69,49.08
10748,2018-06-29 08:50:27.875000,26.41,49.08
10749,2018-06-29 08:50:27.906250,28.96,49.08
10750,2018-06-29 08:50:27.937500,30.57,49.08
10751,2018-06-29 08:50:27.968750,29.44,49.08
10752,2018-06-29 08:50:28.000000,25.07,49.08
10753,2018-06-29 08:50:28.031250,19.85,49.08
10754,2018-06-29 08:50:28.062500,15.95,49.08
10755,2018-06-29 08:50:28.093750,12.88,49.08
10756,2018-06-29 08:50:28.125000,9.18,49.08
10757,2018-06-29 08:50:28.156250,4.74,49.08
10758,2018-06-29 08:50:28.187500,0.86,49.08
10759,2018-06-29 08:50:28.218750,-1.99,49.08
10760,2018-06-29 08:50:28.250000,-5.33,49.08
10761,2018-06-29 08:50:28.281250,-10.74,49.08
10762,2018-06-29 08:50:28.312500,-17.83,49.08
10763,2018-06-29 08:50:28.343750,-25.02,49.08
10764,2018-06-29 08:50:28.375000,-31.65,49.08
10765,2018-06-29 08:50:28.406250,-38.89,49.08
10766,2018-06-29 08:50:28.437500,-48.46,49.08
10767,2018-06-29 08:50:28.468750,-58.37,49.08
10768,2018-06-29 08:50:28.500000,-61.22,49.08
10769,2018-06-29 08:50:28.531250,-51.48,49.38
10770,2018-06-29 08:50:28.562500,-32.79,49.38
10771,2018-06-29 08:50:28.593750,-13.54,49.38
10772,2018-06-29 08:50:28.625000,1.94,49.38
10773,2018-06-29 08:50:28.656250,13.41,49.38
10774,2018-06-29 08:50:28.687500,20.36,49.38
10775,2018-06-29 08:50:28.718750,22.75,49.38
10776,2018-06-29 08:50:28.750000,23.12,49.38
10777,2018-06-29 08:50:28.781250,24.21,49.38
10778,2018-06-29 08:50:28.812500,26.36,49.38
10779,2018-06-29 08:50:28.843750,28.86,49.38
10780,2018-06-29 08:50:28.875000,31.3,49.38
10781,2018-06-29 08:50:28.906250,32.84,49.38
10782,2018-06-29 08:50:28.937500,32.24,49.38
10783,2018-06-29 08:50:28.968750,29.46,49.38
10784,2018-06-29 08:50:29.000000,25.38,49.38
10785,2018-06-29 08:50:29.031250,20.45,49.38
10786,2018-06-29 08:50:29.062500,14.96,49.38
10787,2018-06-29 08:50:29.093750,9.72,49.38
10788,2018-06-29 08:50:29.125000,5.5,49.38
10789,2018-06-29 08:50:29.156250,1.68,49.38
10790,2018-06-29 08:50:29.187500,-3.17,49.38
10791,2018-06-29 08:50:29.218750,-9.18,49.38
10792,2018-06-29 08:50:29.250000,-14.95,49.38
10793,2018-06-29 08:50:29.281250,-20.32,49.38
10794,2018-06-29 08:50:29.312500,-27.22,49.38
10795,2018-06-29 08:50:29.343750,-37.1,49.38
10796,2018-06-29 08:50:29.375000,-48.44,49.38
10797,2018-06-29 08:50:29.406250,-55.83,49.38
10798,2018-06-29 08:50:29.437500,-52.58,49.38
10799,2018-06-29 08:50:29.468750,-37.43,49.38
10800,2018-06-29 08:50:29.500000,-17.61,49.38
10801,2018-06-29 08:50:29.531250,-1.23,49.67
10802,2018-06-29 08:50:29.562500,10.08,49.67
10803,2018-06-29 08:50:29.593750,17.9,49.67
10804,2018-06-29 08:50:29.625000,22.06,49.67
10805,2018-06-29 08:50:29.656250,22.65,49.67
10806,2018-06-29 08:50:29.687500,22.23,49.67
10807,2018-06-29 08:50:29.718750,23.24,49.67
10808,2018-06-29 08:50:29.750000,25.73,49.67
10809,2018-06-29 08:50:29.781250,28.35,49.67
10810,2018-06-29 08:50:29.812500,29.83,49.67
10811,2018-06-29 08:50:29.843750,29.5,49.67
10812,2018-06-29 08:50:29.875000,27.17,49.67
10813,2018-06-29 08:50:29.906250,23.18,49.67
10814,2018-06-29 08:50:29.937500,18.35,49.67
10815,2018-06-29 08:50:29.968750,13.34,49.67
10816,2018-06-29 08:50:30.000000,8.42,49.67
10817,2018-06-29 08:50:30.031250,4.18,49.67
10818,2018-06-29 08:50:30.062500,0.65,49.67
10819,2018-06-29 08:50:30.093750,-3.65,49.67
10820,2018-06-29 08:50:30.125000,-9.75,49.67
10821,2018-06-29 08:50:30.156250,-16.4,49.67
10822,2018-06-29 08:50:30.187500,-22.22,49.67
10823,2018-06-29 08:50:30.218750,-28.07,49.67
10824,2018-06-29 08:50:30.250000,-35.9,49.67
10825,2018-06-29 08:50:30.281250,-46.74,49.67
10826,2018-06-29 08:50:30.312500,-57.91,49.67
10827,2018-06-29 08:50:30.343750,-61.87,49.67
10828,2018-06-29 08:50:30.375000,-52.67,49.67
10829,2018-06-29 08:50:30.406250,-33.38,49.67
10830,2018-06-29 08:50:30.437500,-12.66,49.67
10831,2018-06-29 08:50:30.468750,3.87,49.67
10832,2018-06-29 08:50:30.500000,15.08,49.67
10833,2018-06-29 08:50:30.531250,21.26,49.95
10834,2018-06-29 08:50:30.562500,23.37,49.95
10835,2018-06-29 08:50:30.593750,23.94,49.95
10836,2018-06-29 08:50:30.625000,25.69,49.95
10837,2018-06-29 08:50:30.656250,28.93,49.95
10838,2018-06-29 08:50:30.687500,32.19,49.95
10839,2018-06-29 08:50:30.718750,34.78,49.95
10840,2018-06-29 08:50:30.750000,36.57,49.95
10841,2018-06-29 08:50:30.781250,36.51,49.95
10842,2018-06-29 08:50:30.812500,33.95,49.95
10843,2018-06-29 08:50:30.843750,30.13,49.95
10844,2018-06-29 08:50:30.875000,26.74,49.95
10845,2018-06-29 08:50:30.906250,24.16,49.95
10846,2018-06-29 08:50:30.937500,21.67,49.95
10847,2018-06-29 08:50:30.968750,18.92,49.95
10848,2018-06-29 08:50:31.000000,16.29,49.95
10849,2018-06-29 08:50:31.031250,13.69,49.95
10850,2018-06-29 08:50:31.062500,10.12,49.95
10851,2018-06-29 08:50:31.093750,5.13,49.95
10852,2018-06-29 08:50:31.125000,-0.41,49.95
10853,2018-06-29 08:50:31.156250,-4.99,49.95
10854,2018-06-29 08:50:31.187500,-8.12,49.95
10855,2018-06-29 08:50:31.218750,-11.75,49.95
10856,2018-06-29 08:50:31.250000,-18.0,49.95
10857,2018-06-29 08:50:31.281250,-25.44,49.95
10858,2018-06-29 08:50:31.312500,-30.87,49.95
10859,2018-06-29 08:50:31.343750,-34.83,49.95
10860,2018-06-29 08:50:31.375000,-41.09,49.95
10861,2018-06-29 08:50:31.406250,-51.52,49.95
10862,2018-06-29 08:50:31.437500,-63.72,49.95
10863,2018-06-29 08:50:31.468750,-71.58,49.95
10864,2018-06-29 08:50:31.500000,-68.28,49.95
10865,2018-06-29 08:50:31.531250,-52.34,50.25
10866,2018-06-29 08:50:31.562500,-30.02,50.25
10867,2018-06-29 08:50:31.593750,-9.42,50.25
10868,2018-06-29 08:50:31.625000,5.53,50.25
10869,2018-06-29 08:50:31.656250,14.83,50.25
10870,2018-06-29 08:50:31.687500,19.62,50.25
10871,2018-06-29 08:50:31.718750,21.74,50.25
10872,2018-06-29 08:50:31.750000,23.61,50.25
10873,2018-06-29 08:50:31.781250,26.67,50.25
10874,2018-06-29 08:50:31.812500,30.08,50.25
10875,2018-06-29 08:50:31.843750,32.43,50.25
10876,2018-06-29 08:50:31.875000,33.83,50.25
10877,2018-06-29 08:50:31.906250,34.84,50.25
10878,2018-06-29 08:50:31.937500,34.73,50.25
10879,2018-06-29 08:50:31.968750,32.58,50.25
10880,2018-06-29 08:50:32.000000,29.15,50.25
10881,2018-06-29 08:50:32.031250,25.99,50.25
10882,2018-06-29 08:50:32.062500,23.45,50.25
10883,2018-06-29 08:50:32.093750,20.66,50.25
10884,2018-06-29 08:50:32.125000,17.49,50.25
10885,2018-06-29 08:50:32.156250,14.99,50.25
10886,2018-06-29 08:50:32.187500,13.19,50.25
10887,2018-06-29 08:50:32.218750,10.45,50.25
10888,2018-06-29 08:50:32.250000,6.23,50.25
10889,2018-06-29 08:50:32.281250,2.01,50.25
10890,2018-06-29 08:50:32.312500,-1.76,50.25
10891,2018-06-29 08:50:32.343750,-6.43,50.25
10892,2018-06-29 08:50:32.375000,-11.9,50.25
10893,2018-06-29 08:50:32.406250,-16.67,50.25
10894,2018-06-29 08:50:32.437500,-20.74,50.25
10895,2018-06-29 08:50:32.468750,-25.32,50.25
10896,2018-06-29 08:50:32.500000,-31.3,50.25
10897,2018-06-29 08:50:32.531250,-39.38,50.53
10898,2018-06-29 08:50:32.562500,-47.5,50.53
10899,2018-06-29 08:50:32.593750,-49.13,50.53
10900,2018-06-29 08:50:32.625000,-39.25,50.53
10901,2018-06-29 08:50:32.656250,-21.06,50.53
10902,2018-06-29 08:50:32.687500,-2.9,50.53
10903,2018-06-29 08:50:32.718750,9.83,50.53
10904,2018-06-29 08:50:32.750000,16.43,50.53
10905,2018-06-29 08:50:32.781250,17.57,50.53
10906,2018-06-29 08:50:32.812500,14.85,50.53
10907,2018-06-29 08:50:32.843750,12.03,50.53
10908,2018-06-29 08:50:32.875000,12.33,50.53
10909,2018-06-29 08:50:32.906250,15.43,50.53
10910,2018-06-29 08:50:32.937500,19.06,50.53
10911,2018-06-29 08:50:32.968750,22.01,50.53
10912,2018-06-29 08:50:33.000000,23.78,50.53
10913,2018-06-29 08:50:33.031250,23.27,50.53
10914,2018-06-29 08:50:33.062500,20.09,50.53
10915,2018-06-29 08:50:33.093750,15.78,50.53
10916,2018-06-29 08:50:33.125000,12.09,50.53
10917,2018-06-29 08:50:33.156250,8.84,50.53
10918,2018-06-29 08:50:33.187500,4.87,50.53
10919,2018-06-29 08:50:33.218750,0.16,50.53
10920,2018-06-29 08:50:33.250000,-4.16,50.53
10921,2018-06-29 08:50:33.281250,-7.74,50.53
10922,2018-06-29 08:50:33.312500,-11.91,50.53
10923,2018-06-29 08:50:33.343750,-17.59,50.53
10924,2018-06-29 08:50:33.375000,-23.51,50.53
10925,2018-06-29 08:50:33.406250,-28.45,50.53
10926,2018-06-29 08:50:33.437500,-33.54,50.53
10927,2018-06-29 08:50:33.468750,-40.9,50.53
10928,2018-06-29 08:50:33.500000,-51.12,50.53
10929,2018-06-29 08:50:33.531250,-61.28,50.8
10930,2018-06-29 08:50:33.562500,-64.57,50.8
10931,2018-06-29 08:50:33.593750,-55.5,50.8
10932,2018-06-29 08:50:33.625000,-36.63,50.8
10933,2018-06-29 08:50:33.656250,-16.56,50.8
10934,2018-06-29 08:50:33.687500,-1.2,50.8
10935,2018-06-29 08:50:33.718750,9.29,50.8
10936,2018-06-29 08:50:33.750000,16.32,50.8
10937,2018-06-29 08:50:33.781250,20.22,50.8
10938,2018-06-29 08:50:33.812500,21.76,50.8
10939,2018-06-29 08:50:33.843750,22.69,50.8
10940,2018-06-29 08:50:33.875000,24.29,50.8
10941,2018-06-29 08:50:33.906250,26.74,50.8
10942,2018-06-29 08:50:33.937500,29.75,50.8
10943,2018-06-29 08:50:33.968750,32.48,50.8
10944,2018-06-29 08:50:34.000000,33.46,50.8
10945,2018-06-29 08:50:34.031250,31.71,50.8
10946,2018-06-29 08:50:34.062500,27.97,50.8
10947,2018-06-29 08:50:34.093750,23.93,50.8
10948,2018-06-29 08:50:34.125000,20.54,50.8
10949,2018-06-29 08:50:34.156250,17.27,50.8
10950,2018-06-29 08:50:34.187500,13.11,50.8
10951,2018-06-29 08:50:34.218750,8.31,50.8
10952,2018-06-29 08:50:34.250000,4.08,50.8
10953,2018-06-29 08:50:34.281250,0.21,50.8
10954,2018-06-29 08:50:34.312500,-5.16,50.8
10955,2018-06-29 08:50:34.343750,-12.64,50.8
10956,2018-06-29 08:50:34.375000,-20.59,50.8
10957,2018-06-29 08:50:34.406250,-27.7,50.8
10958,2018-06-29 08:50:34.437500,-34.83,50.8
10959,2018-06-29 08:50:34.468750,-43.97,50.8
10960,2018-06-29 08:50:34.500000,-55.88,50.8
10961,2018-06-29 08:50:34.531250,-67.17,51.07
10962,2018-06-29 08:50:34.562500,-70.26,51.07
10963,2018-06-29 08:50:34.593750,-59.93,51.07
10964,2018-06-29 08:50:34.625000,-39.78,51.07
10965,2018-06-29 08:50:34.656250,-18.75,51.07
10966,2018-06-29 08:50:34.687500,-2.35,51.07
10967,2018-06-29 08:50:34.718750,9.67,51.07
10968,2018-06-29 08:50:34.750000,18.69,51.07
10969,2018-06-29 08:50:34.781250,24.68,51.07
10970,2018-06-29 08:50:34.812500,27.97,51.07
10971,2018-06-29 08:50:34.843750,30.06,51.07
10972,2018-06-29 08:50:34.875000,32.02,51.07
10973,2018-06-29 08:50:34.906250,33.76,51.07
10974,2018-06-29 08:50:34.937500,35.27,51.07
10975,2018-06-29 08:50:34.968750,36.91,51.07
10976,2018-06-29 08:50:35.000000,38.02,51.07
10977,2018-06-29 08:50:35.031250,36.91,51.07
10978,2018-06-29 08:50:35.062500,32.94,51.07
10979,2018-06-29 08:50:35.093750,27.53,51.07
10980,2018-06-29 08:50:35.125000,22.43,51.07
10981,2018-06-29 08:50:35.156250,17.71,51.07
10982,2018-06-29 08:50:35.187500,12.48,51.07
10983,2018-06-29 08:50:35.218750,6.93,51.07
10984,2018-06-29 08:50:35.250000,1.9,51.07
10985,2018-06-29 08:50:35.281250,-3.01,51.07
10986,2018-06-29 08:50:35.312500,-8.9,51.07
10987,2018-06-29 08:50:35.343750,-15.68,51.07
10988,2018-06-29 08:50:35.375000,-22.48,51.07
10989,2018-06-29 08:50:35.406250,-29.71,51.07
10990,2018-06-29 08:50:35.437500,-39.13,51.07
10991,2018-06-29 08:50:35.468750,-51.26,51.07
10992,2018-06-29 08:50:35.500000,-62.52,51.07
10993,2018-06-29 08:50:35.531250,-65.76,51.35
10994,2018-06-29 08:50:35.562500,-56.15,51.35
10995,2018-06-29 08:50:35.593750,-36.7,51.35
10996,2018-06-29 08:50:35.625000,-15.62,51.35
10997,2018-06-29 08:50:35.656250,1.48,51.35
10998,2018-06-29 08:50:35.687500,13.68,51.35
10999,2018-06-29 08:50:35.718750,21.56,51.35
11000,2018-06-29 08:50:35.750000,25.72,51.35
11001,2018-06-29 08:50:35.781250,27.93,51.35
11002,2018-06-29 08:50:35.812500,30.49,51.35
11003,2018-06-29 08:50:35.843750,33.87,51.35
11004,2018-06-29 08:50:35.875000,36.58,51.35
11005,2018-06-29 08:50:35.906250,37.74,51.35
11006,2018-06-29 08:50:35.937500,38.03,51.35
11007,2018-06-29 08:50:35.968750,37.89,51.35
11008,2018-06-29 08:50:36.000000,36.15,51.35
11009,2018-06-29 08:50:36.031250,31.46,51.35
11010,2018-06-29 08:50:36.062500,24.62,51.35
11011,2018-06-29 08:50:36.093750,17.9,51.35
11012,2018-06-29 08:50:36.125000,12.32,51.35
11013,2018-06-29 08:50:36.156250,6.91,51.35
11014,2018-06-29 08:50:36.187500,0.67,51.35
11015,2018-06-29 08:50:36.218750,-5.93,51.35
11016,2018-06-29 08:50:36.250000,-12.13,51.35
11017,2018-06-29 08:50:36.281250,-18.45,51.35
11018,2018-06-29 08:50:36.312500,-26.17,51.35
11019,2018-06-29 08:50:36.343750,-36.44,51.35
11020,2018-06-29 08:50:36.375000,-48.73,51.35
11021,2018-06-29 08:50:36.406250,-58.16,51.35
11022,2018-06-29 08:50:36.437500,-57.15,51.35
11023,2018-06-29 08:50:36.468750,-43.33,51.35
11024,2018-06-29 08:50:36.500000,-22.96,51.35
11025,2018-06-29 08:50:36.531250,-3.73,51.63
11026,2018-06-29 08:50:36.562500,11.17,51.63
11027,2018-06-29 08:50:36.593750,21.05,51.63
11028,2018-06-29 08:50:36.625000,25.53,51.63
11029,2018-06-29 08:50:36.656250,26.15,51.63
11030,2018-06-29 08:50:36.687500,26.47,51.63
11031,2018-06-29 08:50:36.718750,28.87,51.63
11032,2018-06-29 08:50:36.750000,32.99,51.63
11033,2018-06-29 08:50:36.781250,37.35,51.63
11034,2018-06-29 08:50:36.812500,40.54,51.63
11035,2018-06-29 08:50:36.843750,41.22,51.63
11036,2018-06-29 08:50:36.875000,38.72,51.63
11037,2018-06-29 08:50:36.906250,34.28,51.63
11038,2018-06-29 08:50:36.937500,30.1,51.63
11039,2018-06-29 08:50:36.968750,27.06,51.63
11040,2018-06-29 08:50:37.000000,24.42,51.63
11041,2018-06-29 08:50:37.031250,21.5,51.63
11042,2018-06-29 08:50:37.062500,18.35,51.63
11043,2018-06-29 08:50:37.093750,15.1,51.63
11044,2018-06-29 08:50:37.125000,11.41,51.63
11045,2018-06-29 08:50:37.156250,7.01,51.63
11046,2018-06-29 08:50:37.187500,2.06,51.63
11047,2018-06-29 08:50:37.218750,-3.27,51.63
11048,2018-06-29 08:50:37.250000,-9.0,51.63
11049,2018-06-29 08:50:37.281250,-15.04,51.63
11050,2018-06-29 08:50:37.312500,-21.12,51.63
11051,2018-06-29 08:50:37.343750,-27.05,51.63
11052,2018-06-29 08:50:37.375000,-32.67,51.63
11053,2018-06-29 08:50:37.406250,-38.54,51.63
11054,2018-06-29 08:50:37.437500,-46.75,51.63
11055,2018-06-29 08:50:37.468750,-58.63,51.63
11056,2018-06-29 08:50:37.500000,-70.42,51.63
11057,2018-06-29 08:50:37.531250,-73.52,51.92
11058,2018-06-29 08:50:37.562500,-62.4,51.92
11059,2018-06-29 08:50:37.593750,-41.0,51.92
11060,2018-06-29 08:50:37.625000,-18.93,51.92
11061,2018-06-29 08:50:37.656250,-2.21,51.92
11062,2018-06-29 08:50:37.687500,9.49,51.92
11063,2018-06-29 08:50:37.718750,17.8,51.92
11064,2018-06-29 08:50:37.750000,22.37,51.92
11065,2018-06-29 08:50:37.781250,23.84,51.92
11066,2018-06-29 08:50:37.812500,25.51,51.92
11067,2018-06-29 08:50:37.843750,29.14,51.92
11068,2018-06-29 08:50:37.875000,32.78,51.92
11069,2018-06-29 08:50:37.906250,35.04,51.92
11070,2018-06-29 08:50:37.937500,36.63,51.92
11071,2018-06-29 08:50:37.968750,37.26,51.92
11072,2018-06-29 08:50:38.000000,35.66,51.92
11073,2018-06-29 08:50:38.031250,31.99,51.92
11074,2018-06-29 08:50:38.062500,27.54,51.92
11075,2018-06-29 08:50:38.093750,23.48,51.92
11076,2018-06-29 08:50:38.125000,20.25,51.92
11077,2018-06-29 08:50:38.156250,16.88,51.92
11078,2018-06-29 08:50:38.187500,12.48,51.92
11079,2018-06-29 08:50:38.218750,8.46,51.92
11080,2018-06-29 08:50:38.250000,6.4,51.92
11081,2018-06-29 08:50:38.281250,4.22,51.92
11082,2018-06-29 08:50:38.312500,-1.34,51.92
11083,2018-06-29 08:50:38.343750,-9.28,51.92
11084,2018-06-29 08:50:38.375000,-15.98,51.92
11085,2018-06-29 08:50:38.406250,-21.13,51.92
11086,2018-06-29 08:50:38.437500,-27.96,51.92
11087,2018-06-29 08:50:38.468750,-37.97,51.92
11088,2018-06-29 08:50:38.500000,-48.42,51.92
11089,2018-06-29 08:50:38.531250,-53.84,52.2
11090,2018-06-29 08:50:38.562500,-49.44,52.2
11091,2018-06-29 08:50:38.593750,-35.41,52.2
11092,2018-06-29 08:50:38.625000,-17.51,52.2
11093,2018-06-29 08:50:38.656250,-1.89,52.2
11094,2018-06-29 08:50:38.687500,8.98,52.2
11095,2018-06-29 08:50:38.718750,14.93,52.2
11096,2018-06-29 08:50:38.750000,16.48,52.2
11097,2018-06-29 08:50:38.781250,15.56,52.2
11098,2018-06-29 08:50:38.812500,15.21,52.2
11099,2018-06-29 08:50:38.843750,17.3,52.2
11100,2018-06-29 08:50:38.875000,21.33,52.2
11101,2018-06-29 08:50:38.906250,25.07,52.2
11102,2018-06-29 08:50:38.937500,26.61,52.2
11103,2018-06-29 08:50:38.968750,25.67,52.2
11104,2018-06-29 08:50:39.000000,22.93,52.2
11105,2018-06-29 08:50:39.031250,18.69,52.2
11106,2018-06-29 08:50:39.062500,13.22,52.2
11107,2018-06-29 08:50:39.093750,7.66,52.2
11108,2018-06-29 08:50:39.125000,2.67,52.2
11109,2018-06-29 08:50:39.156250,-2.48,52.2
11110,2018-06-29 08:50:39.187500,-8.13,52.2
11111,2018-06-29 08:50:39.218750,-13.75,52.2
11112,2018-06-29 08:50:39.250000,-19.93,52.2
11113,2018-06-29 08:50:39.281250,-27.73,52.2
11114,2018-06-29 08:50:39.312500,-35.9,52.2
11115,2018-06-29 08:50:39.343750,-42.89,52.2
11116,2018-06-29 08:50:39.375000,-50.33,52.2
11117,2018-06-29 08:50:39.406250,-60.86,52.2
11118,2018-06-29 08:50:39.437500,-72.44,52.2
11119,2018-06-29 08:50:39.468750,-77.01,52.2
11120,2018-06-29 08:50:39.500000,-66.54,52.2
11121,2018-06-29 08:50:39.531250,-41.94,52.48
11122,2018-06-29 08:50:39.562500,-13.69,52.48
11123,2018-06-29 08:50:39.593750,8.16,52.48
11124,2018-06-29 08:50:39.625000,21.74,52.48
11125,2018-06-29 08:50:39.656250,29.72,52.48
11126,2018-06-29 08:50:39.687500,33.54,52.48
11127,2018-06-29 08:50:39.718750,34.48,52.48
11128,2018-06-29 08:50:39.750000,35.52,52.48
11129,2018-06-29 08:50:39.781250,38.32,52.48
11130,2018-06-29 08:50:39.812500,41.56,52.48
11131,2018-06-29 08:50:39.843750,43.85,52.48
11132,2018-06-29 08:50:39.875000,44.96,52.48
11133,2018-06-29 08:50:39.906250,44.34,52.48
11134,2018-06-29 08:50:39.937500,41.81,52.48
11135,2018-06-29 08:50:39.968750,38.56,52.48
11136,2018-06-29 08:50:40.000000,34.83,52.48
11137,2018-06-29 08:50:40.031250,29.81,52.48
11138,2018-06-29 08:50:40.062500,24.32,52.48
11139,2018-06-29 08:50:40.093750,20.03,52.48
11140,2018-06-29 08:50:40.125000,16.1,52.48
11141,2018-06-29 08:50:40.156250,10.76,52.48
11142,2018-06-29 08:50:40.187500,4.82,52.48
11143,2018-06-29 08:50:40.218750,0.0,52.48
11144,2018-06-29 08:50:40.250000,-4.73,52.48
11145,2018-06-29 08:50:40.281250,-11.32,52.48
11146,2018-06-29 08:50:40.312500,-19.0,52.48
11147,2018-06-29 08:50:40.343750,-26.0,52.48
11148,2018-06-29 08:50:40.375000,-32.5,52.48
11149,2018-06-29 08:50:40.406250,-40.04,52.48
11150,2018-06-29 08:50:40.437500,-49.96,52.48
11151,2018-06-29 08:50:40.468750,-62.23,52.48
11152,2018-06-29 08:50:40.500000,-72.61,52.48
11153,2018-06-29 08:50:40.531250,-73.28,52.77
11154,2018-06-29 08:50:40.562500,-60.63,52.77
11155,2018-06-29 08:50:40.593750,-39.97,52.77
11156,2018-06-29 08:50:40.625000,-19.45,52.77
11157,2018-06-29 08:50:40.656250,-2.62,52.77
11158,2018-06-29 08:50:40.687500,10.76,52.77
11159,2018-06-29 08:50:40.718750,20.85,52.77
11160,2018-06-29 08:50:40.750000,27.48,52.77
11161,2018-06-29 08:50:40.781250,31.22,52.77
11162,2018-06-29 08:50:40.812500,33.55,52.77
11163,2018-06-29 08:50:40.843750,36.22,52.77
11164,2018-06-29 08:50:40.875000,39.68,52.77
11165,2018-06-29 08:50:40.906250,42.54,52.77
11166,2018-06-29 08:50:40.937500,43.72,52.77
11167,2018-06-29 08:50:40.968750,43.37,52.77
11168,2018-06-29 08:50:41.000000,41.52,52.77
11169,2018-06-29 08:50:41.031250,37.95,52.77
11170,2018-06-29 08:50:41.062500,33.76,52.77
11171,2018-06-29 08:50:41.093750,30.99,52.77
11172,2018-06-29 08:50:41.125000,30.18,52.77
11173,2018-06-29 08:50:41.156250,29.43,52.77
11174,2018-06-29 08:50:41.187500,26.9,52.77
11175,2018-06-29 08:50:41.218750,23.38,52.77
11176,2018-06-29 08:50:41.250000,20.69,52.77
11177,2018-06-29 08:50:41.281250,18.77,52.77
11178,2018-06-29 08:50:41.312500,16.41,52.77
11179,2018-06-29 08:50:41.343750,13.34,52.77
11180,2018-06-29 08:50:41.375000,9.99,52.77
11181,2018-06-29 08:50:41.406250,6.55,52.77
11182,2018-06-29 08:50:41.437500,2.84,52.77
11183,2018-06-29 08:50:41.468750,-1.32,52.77
11184,2018-06-29 08:50:41.500000,-5.6,52.77
11185,2018-06-29 08:50:41.531250,-9.52,53.03
11186,2018-06-29 08:50:41.562500,-13.49,53.03
11187,2018-06-29 08:50:41.593750,-18.27,53.03
11188,2018-06-29 08:50:41.625000,-23.95,53.03
11189,2018-06-29 08:50:41.656250,-29.99,53.03
11190,2018-06-29 08:50:41.687500,-35.75,53.03
11191,2018-06-29 08:50:41.718750,-41.26,53.03
11192,2018-06-29 08:50:41.750000,-48.16,53.03
11193,2018-06-29 08:50:41.781250,-58.26,53.03
11194,2018-06-29 08:50:41.812500,-69.45,53.03
11195,2018-06-29 08:50:41.843750,-74.59,53.03
11196,2018-06-29 08:50:41.875000,-67.52,53.03
11197,2018-06-29 08:50:41.906250,-49.6,53.03
11198,2018-06-29 08:50:41.937500,-28.35,53.03
11199,2018-06-29 08:50:41.968750,-10.07,53.03
11200,2018-06-29 08:50:42.000000,3.84,53.03
11201,2018-06-29 08:50:42.031250,14.18,53.03
11202,2018-06-29 08:50:42.062500,21.2,53.03
11203,2018-06-29 08:50:42.093750,25.41,53.03
11204,2018-06-29 08:50:42.125000,28.35,53.03
11205,2018-06-29 08:50:42.156250,31.1,53.03
11206,2018-06-29 08:50:42.187500,33.33,53.03
11207,2018-06-29 08:50:42.218750,35.0,53.03
11208,2018-06-29 08:50:42.250000,36.92,53.03
11209,2018-06-29 08:50:42.281250,38.32,53.03
11210,2018-06-29 08:50:42.312500,37.19,53.03
11211,2018-06-29 08:50:42.343750,33.67,53.03
11212,2018-06-29 08:50:42.375000,30.3,53.03
11213,2018-06-29 08:50:42.406250,28.32,53.03
11214,2018-06-29 08:50:42.437500,26.44,53.03
11215,2018-06-29 08:50:42.468750,23.71,53.03
11216,2018-06-29 08:50:42.500000,20.92,53.03
11217,2018-06-29 08:50:42.531250,18.75,53.28
11218,2018-06-29 08:50:42.562500,16.76,53.28
11219,2018-06-29 08:50:42.593750,14.64,53.28
11220,2018-06-29 08:50:42.625000,12.28,53.28
11221,2018-06-29 08:50:42.656250,8.98,53.28
11222,2018-06-29 08:50:42.687500,4.52,53.28
11223,2018-06-29 08:50:42.718750,-0.05,53.28
11224,2018-06-29 08:50:42.750000,-3.74,53.28
11225,2018-06-29 08:50:42.781250,-7.03,53.28
11226,2018-06-29 08:50:42.812500,-11.2,53.28
11227,2018-06-29 08:50:42.843750,-16.41,53.28
11228,2018-06-29 08:50:42.875000,-21.55,53.28
11229,2018-06-29 08:50:42.906250,-26.56,53.28
11230,2018-06-29 08:50:42.937500,-33.13,53.28
11231,2018-06-29 08:50:42.968750,-41.88,53.28
11232,2018-06-29 08:50:43.000000,-50.66,53.28
11233,2018-06-29 08:50:43.031250,-55.41,53.28
11234,2018-06-29 08:50:43.062500,-52.18,53.28
11235,2018-06-29 08:50:43.093750,-40.19,53.28
11236,2018-06-29 08:50:43.125000,-23.72,53.28
11237,2018-06-29 08:50:43.156250,-8.72,53.28
11238,2018-06-29 08:50:43.187500,2.4,53.28
11239,2018-06-29 08:50:43.218750,10.16,53.28
11240,2018-06-29 08:50:43.250000,14.56,53.28
11241,2018-06-29 08:50:43.281250,15.6,53.28
11242,2018-06-29 08:50:43.312500,15.79,53.28
11243,2018-06-29 08:50:43.343750,18.12,53.28
11244,2018-06-29 08:50:43.375000,22.21,53.28
11245,2018-06-29 08:50:43.406250,25.45,53.28
11246,2018-06-29 08:50:43.437500,26.67,53.28
11247,2018-06-29 08:50:43.468750,26.53,53.28
11248,2018-06-29 08:50:43.500000,25.6,53.28
11249,2018-06-29 08:50:43.531250,24.04,53.55
11250,2018-06-29 08:50:43.562500,22.12,53.55
11251,2018-06-29 08:50:43.593750,20.04,53.55
11252,2018-06-29 08:50:43.625000,17.93,53.55
11253,2018-06-29 08:50:43.656250,15.79,53.55
11254,2018-06-29 08:50:43.687500,13.43,53.55
11255,2018-06-29 08:50:43.718750,11.13,53.55
11256,2018-06-29 08:50:43.750000,9.51,53.55
11257,2018-06-29 08:50:43.781250,8.19,53.55
11258,2018-06-29 08:50:43.812500,5.7,53.55
11259,2018-06-29 08:50:43.843750,1.46,53.55
11260,2018-06-29 08:50:43.875000,-3.1,53.55
11261,2018-06-29 08:50:43.906250,-6.67,53.55
11262,2018-06-29 08:50:43.937500,-9.85,53.55
11263,2018-06-29 08:50:43.968750,-14.1,53.55
11264,2018-06-29 08:50:44.000000,-19.39,53.55
11265,2018-06-29 08:50:44.031250,-24.5,53.55
11266,2018-06-29 08:50:44.062500,-29.33,53.55
11267,2018-06-29 08:50:44.093750,-35.32,53.55
11268,2018-06-29 08:50:44.125000,-43.49,53.55
11269,2018-06-29 08:50:44.156250,-53.19,53.55
11270,2018-06-29 08:50:44.187500,-60.56,53.55
11271,2018-06-29 08:50:44.218750,-59.15,53.55
11272,2018-06-29 08:50:44.250000,-46.7,53.55
11273,2018-06-29 08:50:44.281250,-29.52,53.55
11274,2018-06-29 08:50:44.312500,-15.28,53.55
11275,2018-06-29 08:50:44.343750,-5.06,53.55
11276,2018-06-29 08:50:44.375000,3.48,53.55
11277,2018-06-29 08:50:44.406250,10.45,53.55
11278,2018-06-29 08:50:44.437500,14.84,53.55
11279,2018-06-29 08:50:44.468750,17.29,53.55
11280,2018-06-29 08:50:44.500000,19.3,53.55
11281,2018-06-29 08:50:44.531250,21.62,53.77
11282,2018-06-29 08:50:44.562500,24.24,53.77
11283,2018-06-29 08:50:44.593750,26.88,53.77
11284,2018-06-29 08:50:44.625000,28.91,53.77
11285,2018-06-29 08:50:44.656250,29.59,53.77
11286,2018-06-29 08:50:44.687500,28.39,53.77
11287,2018-06-29 08:50:44.718750,25.67,53.77
11288,2018-06-29 08:50:44.750000,22.97,53.77
11289,2018-06-29 08:50:44.781250,21.26,53.77
11290,2018-06-29 08:50:44.812500,19.63,53.77
11291,2018-06-29 08:50:44.843750,17.31,53.77
11292,2018-06-29 08:50:44.875000,15.46,53.77
11293,2018-06-29 08:50:44.906250,14.87,53.77
11294,2018-06-29 08:50:44.937500,14.1,53.77
11295,2018-06-29 08:50:44.968750,12.02,53.77
11296,2018-06-29 08:50:45.000000,9.72,53.77
11297,2018-06-29 08:50:45.031250,8.21,53.77
11298,2018-06-29 08:50:45.062500,6.56,53.77
11299,2018-06-29 08:50:45.093750,4.08,53.77
11300,2018-06-29 08:50:45.125000,1.44,53.77
11301,2018-06-29 08:50:45.156250,-1.01,53.77
11302,2018-06-29 08:50:45.187500,-3.48,53.77
11303,2018-06-29 08:50:45.218750,-5.43,53.77
11304,2018-06-29 08:50:45.250000,-6.96,53.77
11305,2018-06-29 08:50:45.281250,-9.48,53.77
11306,2018-06-29 08:50:45.312500,-13.43,53.77
11307,2018-06-29 08:50:45.343750,-17.66,53.77
11308,2018-06-29 08:50:45.375000,-22.0,53.77
11309,2018-06-29 08:50:45.406250,-26.91,53.77
11310,2018-06-29 08:50:45.437500,-31.49,53.77
11311,2018-06-29 08:50:45.468750,-35.04,53.77
11312,2018-06-29 08:50:45.500000,-39.23,53.77
11313,2018-06-29 08:50:45.531250,-46.6,53.93
11314,2018-06-29 08:50:45.562500,-56.35,53.93
11315,2018-06-29 08:50:45.593750,-62.3,53.93
11316,2018-06-29 08:50:45.625000,-57.87,53.93
11317,2018-06-29 08:50:45.656250,-43.86,53.93
11318,2018-06-29 08:50:45.687500,-27.48,53.93
11319,2018-06-29 08:50:45.718750,-13.98,53.93
11320,2018-06-29 08:50:45.750000,-3.98,53.93
11321,2018-06-29 08:50:45.781250,3.39,53.93
11322,2018-06-29 08:50:45.812500,9.08,53.93
11323,2018-06-29 08:50:45.843750,13.77,53.93
11324,2018-06-29 08:50:45.875000,17.37,53.93
11325,2018-06-29 08:50:45.906250,19.88,53.93
11326,2018-06-29 08:50:45.937500,21.86,53.93
11327,2018-06-29 08:50:45.968750,23.51,53.93
11328,2018-06-29 08:50:46.000000,25.25,53.93
11329,2018-06-29 08:50:46.031250,27.52,53.93
11330,2018-06-29 08:50:46.062500,29.09,53.93
11331,2018-06-29 08:50:46.093750,28.06,53.93
11332,2018-06-29 08:50:46.125000,24.99,53.93
11333,2018-06-29 08:50:46.156250,22.43,53.93
11334,2018-06-29 08:50:46.187500,21.33,53.93
11335,2018-06-29 08:50:46.218750,20.51,53.93
11336,2018-06-29 08:50:46.250000,19.23,53.93
11337,2018-06-29 08:50:46.281250,17.97,53.93
11338,2018-06-29 08:50:46.312500,16.92,53.93
11339,2018-06-29 08:50:46.343750,15.67,53.93
11340,2018-06-29 08:50:46.375000,13.85,53.93
11341,2018-06-29 08:50:46.406250,11.37,53.93
11342,2018-06-29 08:50:46.437500,8.84,53.93
11343,2018-06-29 08:50:46.468750,7.11,53.93
11344,2018-06-29 08:50:46.500000,5.95,53.93
11345,2018-06-29 08:50:46.531250,4.59,54.07
11346,2018-06-29 08:50:46.562500,3.1,54.07
11347,2018-06-29 08:50:46.593750,1.37,54.07
11348,2018-06-29 08:50:46.625000,-1.66,54.07
11349,2018-06-29 08:50:46.656250,-5.96,54.07
11350,2018-06-29 08:50:46.687500,-9.75,54.07
11351,2018-06-29 08:50:46.718750,-11.84,54.07
11352,2018-06-29 08:50:46.750000,-13.11,54.07
11353,2018-06-29 08:50:46.781250,-15.58,54.07
11354,2018-06-29 08:50:46.812500,-19.98,54.07
11355,2018-06-29 08:50:46.843750,-24.79,54.07
11356,2018-06-29 08:50:46.875000,-28.34,54.07
11357,2018-06-29 08:50:46.906250,-31.69,54.07
11358,2018-06-29 08:50:46.937500,-37.75,54.07
11359,2018-06-29 08:50:46.968750,-47.35,54.07
11360,2018-06-29 08:50:47.000000,-56.05,54.07
11361,2018-06-29 08:50:47.031250,-56.51,54.07
11362,2018-06-29 08:50:47.062500,-46.05,54.07
11363,2018-06-29 08:50:47.093750,-30.27,54.07
11364,2018-06-29 08:50:47.125000,-16.39,54.07
11365,2018-06-29 08:50:47.156250,-6.28,54.07
11366,2018-06-29 08:50:47.187500,1.71,54.07
11367,2018-06-29 08:50:47.218750,7.85,54.07
11368,2018-06-29 08:50:47.250000,11.48,54.07
11369,2018-06-29 08:50:47.281250,13.43,54.07
11370,2018-06-29 08:50:47.312500,15.18,54.07
11371,2018-06-29 08:50:47.343750,17.28,54.07
11372,2018-06-29 08:50:47.375000,19.83,54.07
11373,2018-06-29 08:50:47.406250,22.67,54.07
11374,2018-06-29 08:50:47.437500,24.72,54.07
11375,2018-06-29 08:50:47.468750,25.05,54.07
11376,2018-06-29 08:50:47.500000,24.04,54.07
11377,2018-06-29 08:50:47.531250,22.41,54.18
11378,2018-06-29 08:50:47.562500,20.62,54.18
11379,2018-06-29 08:50:47.593750,19.19,54.18
11380,2018-06-29 08:50:47.625000,18.09,54.18
11381,2018-06-29 08:50:47.656250,16.63,54.18
11382,2018-06-29 08:50:47.687500,14.75,54.18
11383,2018-06-29 08:50:47.718750,13.43,54.18
11384,2018-06-29 08:50:47.750000,13.04,54.18
11385,2018-06-29 08:50:47.781250,12.27,54.18
11386,2018-06-29 08:50:47.812500,9.7,54.18
11387,2018-06-29 08:50:47.843750,6.03,54.18
11388,2018-06-29 08:50:47.875000,3.13,54.18
11389,2018-06-29 08:50:47.906250,1.05,54.18
11390,2018-06-29 08:50:47.937500,-1.6,54.18
11391,2018-06-29 08:50:47.968750,-4.85,54.18
11392,2018-06-29 08:50:48.000000,-7.7,54.18
11393,2018-06-29 08:50:48.031250,-10.29,54.18
11394,2018-06-29 08:50:48.062500,-13.74,54.18
11395,2018-06-29 08:50:48.093750,-18.45,54.18
11396,2018-06-29 08:50:48.125000,-23.66,54.18
11397,2018-06-29 08:50:48.156250,-28.47,54.18
11398,2018-06-29 08:50:48.187500,-33.0,54.18
11399,2018-06-29 08:50:48.218750,-38.63,54.18
11400,2018-06-29 08:50:48.250000,-46.38,54.18
11401,2018-06-29 08:50:48.281250,-54.69,54.18
11402,2018-06-29 08:50:48.312500,-58.38,54.18
11403,2018-06-29 08:50:48.343750,-52.3,54.18
11404,2018-06-29 08:50:48.375000,-37.33,54.18
11405,2018-06-29 08:50:48.406250,-20.58,54.18
11406,2018-06-29 08:50:48.437500,-8.12,54.18
11407,2018-06-29 08:50:48.468750,-0.2,54.18
11408,2018-06-29 08:50:48.500000,5.82,54.18
11409,2018-06-29 08:50:48.531250,11.08,54.25
11410,2018-06-29 08:50:48.562500,15.16,54.25
11411,2018-06-29 08:50:48.593750,18.01,54.25
11412,2018-06-29 08:50:48.625000,20.21,54.25
11413,2018-06-29 08:50:48.656250,22.02,54.25
11414,2018-06-29 08:50:48.687500,23.64,54.25
11415,2018-06-29 08:50:48.718750,25.65,54.25
11416,2018-06-29 08:50:48.750000,28.02,54.25
11417,2018-06-29 08:50:48.781250,29.19,54.25
11418,2018-06-29 08:50:48.812500,27.63,54.25
11419,2018-06-29 08:50:48.843750,24.37,54.25
11420,2018-06-29 08:50:48.875000,22.08,54.25
11421,2018-06-29 08:50:48.906250,21.59,54.25
11422,2018-06-29 08:50:48.937500,21.1,54.25
11423,2018-06-29 08:50:48.968750,19.26,54.25
11424,2018-06-29 08:50:49.000000,17.1,54.25
11425,2018-06-29 08:50:49.031250,16.03,54.25
11426,2018-06-29 08:50:49.062500,15.4,54.25
11427,2018-06-29 08:50:49.093750,13.74,54.25
11428,2018-06-29 08:50:49.125000,11.12,54.25
11429,2018-06-29 08:50:49.156250,8.51,54.25
11430,2018-06-29 08:50:49.187500,6.19,54.25
11431,2018-06-29 08:50:49.218750,3.92,54.25
11432,2018-06-29 08:50:49.250000,1.26,54.25
11433,2018-06-29 08:50:49.281250,-2.22,54.25
11434,2018-06-29 08:50:49.312500,-6.16,54.25
11435,2018-06-29 08:50:49.343750,-9.71,54.25
11436,2018-06-29 08:50:49.375000,-13.26,54.25
11437,2018-06-29 08:50:49.406250,-18.03,54.25
11438,2018-06-29 08:50:49.437500,-23.65,54.25
11439,2018-06-29 08:50:49.468750,-28.63,54.25
11440,2018-06-29 08:50:49.500000,-33.19,54.25
11441,2018-06-29 08:50:49.531250,-39.84,54.28
11442,2018-06-29 08:50:49.562500,-50.27,54.28
11443,2018-06-29 08:50:49.593750,-61.35,54.28
11444,2018-06-29 08:50:49.625000,-65.52,54.28
11445,2018-06-29 08:50:49.656250,-57.66,54.28
11446,2018-06-29 08:50:49.687500,-41.28,54.28
11447,2018-06-29 08:50:49.718750,-24.67,54.28
11448,2018-06-29 08:50:49.750000,-12.3,54.28
11449,2018-06-29 08:50:49.781250,-3.33,54.28
11450,2018-06-29 08:50:49.812500,3.93,54.28
11451,2018-06-29 08:50:49.843750,9.89,54.28
11452,2018-06-29 08:50:49.875000,14.81,54.28
11453,2018-06-29 08:50:49.906250,18.99,54.28
11454,2018-06-29 08:50:49.937500,22.44,54.28
11455,2018-06-29 08:50:49.968750,25.38,54.28
11456,2018-06-29 08:50:50.000000,28.54,54.28
11457,2018-06-29 08:50:50.031250,31.91,54.28
11458,2018-06-29 08:50:50.062500,34.02,54.28
11459,2018-06-29 08:50:50.093750,33.47,54.28
11460,2018-06-29 08:50:50.125000,31.01,54.28
11461,2018-06-29 08:50:50.156250,28.99,54.28
11462,2018-06-29 08:50:50.187500,28.33,54.28
11463,2018-06-29 08:50:50.218750,27.56,54.28
11464,2018-06-29 08:50:50.250000,25.33,54.28
11465,2018-06-29 08:50:50.281250,22.64,54.28
11466,2018-06-29 08:50:50.312500,21.16,54.28
11467,2018-06-29 08:50:50.343750,20.67,54.28
11468,2018-06-29 08:50:50.375000,19.85,54.28
11469,2018-06-29 08:50:50.406250,17.98,54.28
11470,2018-06-29 08:50:50.437500,14.85,54.28
11471,2018-06-29 08:50:50.468750,10.93,54.28
11472,2018-06-29 08:50:50.500000,7.82,54.28
11473,2018-06-29 08:50:50.531250,5.95,54.3
11474,2018-06-29 08:50:50.562500,3.33,54.3
11475,2018-06-29 08:50:50.593750,-1.18,54.3
11476,2018-06-29 08:50:50.625000,-5.86,54.3
11477,2018-06-29 08:50:50.656250,-9.33,54.3
11478,2018-06-29 08:50:50.687500,-12.82,54.3
11479,2018-06-29 08:50:50.718750,-17.86,54.3
11480,2018-06-29 08:50:50.750000,-24.18,54.3
11481,2018-06-29 08:50:50.781250,-30.55,54.3
11482,2018-06-29 08:50:50.812500,-36.57,54.3
11483,2018-06-29 08:50:50.843750,-43.46,54.3
11484,2018-06-29 08:50:50.875000,-53.16,54.3
11485,2018-06-29 08:50:50.906250,-64.75,54.3
11486,2018-06-29 08:50:50.937500,-71.87,54.3
11487,2018-06-29 08:50:50.968750,-67.45,54.3
11488,2018-06-29 08:50:51.000000,-51.64,54.3
11489,2018-06-29 08:50:51.031250,-31.89,54.3
11490,2018-06-29 08:50:51.062500,-15.15,54.3
11491,2018-06-29 08:50:51.093750,-3.19,54.3
11492,2018-06-29 08:50:51.125000,5.69,54.3
11493,2018-06-29 08:50:51.156250,12.95,54.3
11494,2018-06-29 08:50:51.187500,18.4,54.3
11495,2018-06-29 08:50:51.218750,21.94,54.3
11496,2018-06-29 08:50:51.250000,25.02,54.3
11497,2018-06-29 08:50:51.281250,28.79,54.3
11498,2018-06-29 08:50:51.312500,32.46,54.3
11499,2018-06-29 08:50:51.343750,35.23,54.3
11500,2018-06-29 08:50:51.375000,37.43,54.3
11501,2018-06-29 08:50:51.406250,38.64,54.3
11502,2018-06-29 08:50:51.437500,37.57,54.3
11503,2018-06-29 08:50:51.468750,34.6,54.3
11504,2018-06-29 08:50:51.500000,31.78,54.3
11505,2018-06-29 08:50:51.531250,29.85,54.3
11506,2018-06-29 08:50:51.562500,27.74,54.3
11507,2018-06-29 08:50:51.593750,25.06,54.3
11508,2018-06-29 08:50:51.625000,22.79,54.3
11509,2018-06-29 08:50:51.656250,20.92,54.3
11510,2018-06-29 08:50:51.687500,18.08,54.3
11511,2018-06-29 08:50:51.718750,14.28,54.3
11512,2018-06-29 08:50:51.750000,10.91,54.3
11513,2018-06-29 08:50:51.781250,7.66,54.3
11514,2018-06-29 08:50:51.812500,3.33,54.3
11515,2018-06-29 08:50:51.843750,-1.18,54.3
11516,2018-06-29 08:50:51.875000,-4.79,54.3
11517,2018-06-29 08:50:51.906250,-8.87,54.3
11518,2018-06-29 08:50:51.937500,-14.54,54.3
11519,2018-06-29 08:50:51.968750,-20.53,54.3
11520,2018-06-29 08:50:52.000000,-25.86,54.3
11521,2018-06-29 08:50:52.031250,-31.69,54.3
11522,2018-06-29 08:50:52.062500,-39.58,54.3
11523,2018-06-29 08:50:52.093750,-49.78,54.3
11524,2018-06-29 08:50:52.125000,-59.59,54.3
11525,2018-06-29 08:50:52.156250,-62.94,54.3
11526,2018-06-29 08:50:52.187500,-55.18,54.3
11527,2018-06-29 08:50:52.218750,-38.39,54.3
11528,2018-06-29 08:50:52.250000,-19.49,54.3
11529,2018-06-29 08:50:52.281250,-3.85,54.3
11530,2018-06-29 08:50:52.312500,7.1,54.3
11531,2018-06-29 08:50:52.343750,14.17,54.3
11532,2018-06-29 08:50:52.375000,18.79,54.3
11533,2018-06-29 08:50:52.406250,21.89,54.3
11534,2018-06-29 08:50:52.437500,24.01,54.3
11535,2018-06-29 08:50:52.468750,26.53,54.3
11536,2018-06-29 08:50:52.500000,30.72,54.3
11537,2018-06-29 08:50:52.531250,35.7,54.3
11538,2018-06-29 08:50:52.562500,39.35,54.3
11539,2018-06-29 08:50:52.593750,40.59,54.3
11540,2018-06-29 08:50:52.625000,39.46,54.3
11541,2018-06-29 08:50:52.656250,36.65,54.3
11542,2018-06-29 08:50:52.687500,33.76,54.3
11543,2018-06-29 08:50:52.718750,31.89,54.3
11544,2018-06-29 08:50:52.750000,30.27,54.3
11545,2018-06-29 08:50:52.781250,27.89,54.3
11546,2018-06-29 08:50:52.812500,25.38,54.3
11547,2018-06-29 08:50:52.843750,23.75,54.3
11548,2018-06-29 08:50:52.875000,22.48,54.3
11549,2018-06-29 08:50:52.906250,20.48,54.3
11550,2018-06-29 08:50:52.937500,17.55,54.3
11551,2018-06-29 08:50:52.968750,14.15,54.3
11552,2018-06-29 08:50:53.000000,10.55,54.3
11553,2018-06-29 08:50:53.031250,6.97,54.3
11554,2018-06-29 08:50:53.062500,3.58,54.3
11555,2018-06-29 08:50:53.093750,0.09,54.3
11556,2018-06-29 08:50:53.125000,-3.93,54.3
11557,2018-06-29 08:50:53.156250,-8.16,54.3
11558,2018-06-29 08:50:53.187500,-11.99,54.3
11559,2018-06-29 08:50:53.218750,-15.89,54.3
11560,2018-06-29 08:50:53.250000,-21.18,54.3
11561,2018-06-29 08:50:53.281250,-28.31,54.3
11562,2018-06-29 08:50:53.312500,-36.09,54.3
11563,2018-06-29 08:50:53.343750,-43.32,54.3
11564,2018-06-29 08:50:53.375000,-50.81,54.3
11565,2018-06-29 08:50:53.406250,-60.76,54.3
11566,2018-06-29 08:50:53.437500,-73.66,54.3
11567,2018-06-29 08:50:53.468750,-85.05,54.3
11568,2018-06-29 08:50:53.500000,-86.95,54.3
11569,2018-06-29 08:50:53.531250,-75.36,54.32
11570,2018-06-29 08:50:53.562500,-55.27,54.32
11571,2018-06-29 08:50:53.593750,-35.36,54.32
11572,2018-06-29 08:50:53.625000,-19.27,54.32
11573,2018-06-29 08:50:53.656250,-5.57,54.32
11574,2018-06-29 08:50:53.687500,6.75,54.32
11575,2018-06-29 08:50:53.718750,16.76,54.32
11576,2018-06-29 08:50:53.750000,24.21,54.32
11577,2018-06-29 08:50:53.781250,29.86,54.32
11578,2018-06-29 08:50:53.812500,34.05,54.32
11579,2018-06-29 08:50:53.843750,37.28,54.32
11580,2018-06-29 08:50:53.875000,40.94,54.32
11581,2018-06-29 08:50:53.906250,45.39,54.32
11582,2018-06-29 08:50:53.937500,48.48,54.32
11583,2018-06-29 08:50:53.968750,48.14,54.32
11584,2018-06-29 08:50:54.000000,45.18,54.32
11585,2018-06-29 08:50:54.031250,42.01,54.32
11586,2018-06-29 08:50:54.062500,39.57,54.32
11587,2018-06-29 08:50:54.093750,37.07,54.32
11588,2018-06-29 08:50:54.125000,34.8,54.32
11589,2018-06-29 08:50:54.156250,33.97,54.32
11590,2018-06-29 08:50:54.187500,33.63,54.32
11591,2018-06-29 08:50:54.218750,31.51,54.32
11592,2018-06-29 08:50:54.250000,27.97,54.32
11593,2018-06-29 08:50:54.281250,25.09,54.32
11594,2018-06-29 08:50:54.312500,22.77,54.32
11595,2018-06-29 08:50:54.343750,19.94,54.32
11596,2018-06-29 08:50:54.375000,16.76,54.32
11597,2018-06-29 08:50:54.406250,13.47,54.32
11598,2018-06-29 08:50:54.437500,9.67,54.32
11599,2018-06-29 08:50:54.468750,5.66,54.32
11600,2018-06-29 08:50:54.500000,1.82,54.32
11601,2018-06-29 08:50:54.531250,-2.43,54.32
11602,2018-06-29 08:50:54.562500,-7.18,54.32
11603,2018-06-29 08:50:54.593750,-11.56,54.32
11604,2018-06-29 08:50:54.625000,-15.91,54.32
11605,2018-06-29 08:50:54.656250,-21.8,54.32
11606,2018-06-29 08:50:54.687500,-29.44,54.32
11607,2018-06-29 08:50:54.718750,-36.96,54.32
11608,2018-06-29 08:50:54.750000,-43.22,54.32
11609,2018-06-29 08:50:54.781250,-49.83,54.32
11610,2018-06-29 08:50:54.812500,-59.72,54.32
11611,2018-06-29 08:50:54.843750,-73.67,54.32
11612,2018-06-29 08:50:54.875000,-86.94,54.32
11613,2018-06-29 08:50:54.906250,-90.2,54.32
11614,2018-06-29 08:50:54.937500,-77.99,54.32
11615,2018-06-29 08:50:54.968750,-55.47,54.32
11616,2018-06-29 08:50:55.000000,-32.98,54.32
11617,2018-06-29 08:50:55.031250,-15.67,54.32
11618,2018-06-29 08:50:55.062500,-2.32,54.32
11619,2018-06-29 08:50:55.093750,9.03,54.32
11620,2018-06-29 08:50:55.125000,18.77,54.32
11621,2018-06-29 08:50:55.156250,26.34,54.32
11622,2018-06-29 08:50:55.187500,31.47,54.32
11623,2018-06-29 08:50:55.218750,35.29,54.32
11624,2018-06-29 08:50:55.250000,39.53,54.32
11625,2018-06-29 08:50:55.281250,44.36,54.32
11626,2018-06-29 08:50:55.312500,48.17,54.32
11627,2018-06-29 08:50:55.343750,49.67,54.32
11628,2018-06-29 08:50:55.375000,48.62,54.32
11629,2018-06-29 08:50:55.406250,45.62,54.32
11630,2018-06-29 08:50:55.437500,42.17,54.32
11631,2018-06-29 08:50:55.468750,39.8,54.32
11632,2018-06-29 08:50:55.500000,38.24,54.32
11633,2018-06-29 08:50:55.531250,36.17,54.3
11634,2018-06-29 08:50:55.562500,33.45,54.3
11635,2018-06-29 08:50:55.593750,31.04,54.3
11636,2018-06-29 08:50:55.625000,29.21,54.3
11637,2018-06-29 08:50:55.656250,27.17,54.3
11638,2018-06-29 08:50:55.687500,24.08,54.3
11639,2018-06-29 08:50:55.718750,19.97,54.3
11640,2018-06-29 08:50:55.750000,15.81,54.3
11641,2018-06-29 08:50:55.781250,12.44,54.3
11642,2018-06-29 08:50:55.812500,9.51,54.3
11643,2018-06-29 08:50:55.843750,6.21,54.3
11644,2018-06-29 08:50:55.875000,2.27,54.3
11645,2018-06-29 08:50:55.906250,-2.3,54.3
11646,2018-06-29 08:50:55.937500,-7.43,54.3
11647,2018-06-29 08:50:55.968750,-12.49,54.3
11648,2018-06-29 08:50:56.000000,-17.23,54.3
11649,2018-06-29 08:50:56.031250,-22.77,54.3
11650,2018-06-29 08:50:56.062500,-29.92,54.3
11651,2018-06-29 08:50:56.093750,-37.64,54.3
11652,2018-06-29 08:50:56.125000,-44.59,54.3
11653,2018-06-29 08:50:56.156250,-51.73,54.3
11654,2018-06-29 08:50:56.187500,-61.74,54.3
11655,2018-06-29 08:50:56.218750,-74.81,54.3
11656,2018-06-29 08:50:56.250000,-85.19,54.3
11657,2018-06-29 08:50:56.281250,-84.78,54.3
11658,2018-06-29 08:50:56.312500,-71.14,54.3
11659,2018-06-29 08:50:56.343750,-49.7,54.3
11660,2018-06-29 08:50:56.375000,-28.22,54.3
11661,2018-06-29 08:50:56.406250,-10.88,54.3
11662,2018-06-29 08:50:56.437500,2.48,54.3
11663,2018-06-29 08:50:56.468750,13.2,54.3
11664,2018-06-29 08:50:56.500000,21.26,54.3
11665,2018-06-29 08:50:56.531250,26.63,54.3
11666,2018-06-29 08:50:56.562500,30.84,54.3
11667,2018-06-29 08:50:56.593750,35.1,54.3
11668,2018-06-29 08:50:56.625000,39.05,54.3
11669,2018-06-29 08:50:56.656250,42.36,54.3
11670,2018-06-29 08:50:56.687500,44.94,54.3
11671,2018-06-29 08:50:56.718750,45.99,54.3
11672,2018-06-29 08:50:56.750000,45.1,54.3
11673,2018-06-29 08:50:56.781250,42.79,54.3
11674,2018-06-29 08:50:56.812500,39.47,54.3
11675,2018-06-29 08:50:56.843750,35.65,54.3
11676,2018-06-29 08:50:56.875000,32.32,54.3
11677,2018-06-29 08:50:56.906250,29.56,54.3
11678,2018-06-29 08:50:56.937500,26.61,54.3
11679,2018-06-29 08:50:56.968750,23.72,54.3
11680,2018-06-29 08:50:57.000000,21.37,54.3
11681,2018-06-29 08:50:57.031250,18.61,54.3
11682,2018-06-29 08:50:57.062500,14.87,54.3
11683,2018-06-29 08:50:57.093750,10.9,54.3
11684,2018-06-29 08:50:57.125000,6.63,54.3
11685,2018-06-29 08:50:57.156250,1.5,54.3
11686,2018-06-29 08:50:57.187500,-3.73,54.3
11687,2018-06-29 08:50:57.218750,-8.13,54.3
11688,2018-06-29 08:50:57.250000,-12.48,54.3
11689,2018-06-29 08:50:57.281250,-18.23,54.3
11690,2018-06-29 08:50:57.312500,-25.48,54.3
11691,2018-06-29 08:50:57.343750,-33.04,54.3
11692,2018-06-29 08:50:57.375000,-40.37,54.3
11693,2018-06-29 08:50:57.406250,-48.56,54.3
11694,2018-06-29 08:50:57.437500,-59.33,54.3
11695,2018-06-29 08:50:57.468750,-72.39,54.3
11696,2018-06-29 08:50:57.500000,-82.83,54.3
11697,2018-06-29 08:50:57.531250,-83.06,54.33
11698,2018-06-29 08:50:57.562500,-70.25,54.33
11699,2018-06-29 08:50:57.593750,-49.99,54.33
11700,2018-06-29 08:50:57.625000,-30.32,54.33
11701,2018-06-29 08:50:57.656250,-15.48,54.33
11702,2018-06-29 08:50:57.687500,-5.8,54.33
11703,2018-06-29 08:50:57.718750,0.39,54.33
11704,2018-06-29 08:50:57.750000,4.7,54.33
11705,2018-06-29 08:50:57.781250,6.45,54.33
11706,2018-06-29 08:50:57.812500,3.96,54.33
11707,2018-06-29 08:50:57.843750,-2.42,54.33
11708,2018-06-29 08:50:57.875000,-9.44,54.33
11709,2018-06-29 08:50:57.906250,-12.82,54.33
11710,2018-06-29 08:50:57.937500,-11.56,54.33
11711,2018-06-29 08:50:57.968750,-10.64,54.33
11712,2018-06-29 08:50:58.000000,-15.27,54.33
11713,2018-06-29 08:50:58.031250,-22.48,54.33
11714,2018-06-29 08:50:58.062500,-24.35,54.33
11715,2018-06-29 08:50:58.093750,-18.69,54.33
11716,2018-06-29 08:50:58.125000,-10.21,54.33
11717,2018-06-29 08:50:58.156250,-4.12,54.33
11718,2018-06-29 08:50:58.187500,-3.76,54.33
11719,2018-06-29 08:50:58.218750,-9.75,54.33
11720,2018-06-29 08:50:58.250000,-18.03,54.33
11721,2018-06-29 08:50:58.281250,-22.8,54.33
11722,2018-06-29 08:50:58.312500,-22.36,54.33
11723,2018-06-29 08:50:58.343750,-19.17,54.33
11724,2018-06-29 08:50:58.375000,-15.71,54.33
11725,2018-06-29 08:50:58.406250,-11.8,54.33
11726,2018-06-29 08:50:58.437500,-5.51,54.33
11727,2018-06-29 08:50:58.468750,3.45,54.33
11728,2018-06-29 08:50:58.500000,12.84,54.33
11729,2018-06-29 08:50:58.531250,21.02,54.4
11730,2018-06-29 08:50:58.562500,28.18,54.4
11731,2018-06-29 08:50:58.593750,34.1,54.4
11732,2018-06-29 08:50:58.625000,38.34,54.4
11733,2018-06-29 08:50:58.656250,41.8,54.4
11734,2018-06-29 08:50:58.687500,45.0,54.4
11735,2018-06-29 08:50:58.718750,46.52,54.4
11736,2018-06-29 08:50:58.750000,45.5,54.4
11737,2018-06-29 08:50:58.781250,43.21,54.4
11738,2018-06-29 08:50:58.812500,40.43,54.4
11739,2018-06-29 08:50:58.843750,35.61,54.4
11740,2018-06-29 08:50:58.875000,26.77,54.4
11741,2018-06-29 08:50:58.906250,13.64,54.4
11742,2018-06-29 08:50:58.937500,0.27,54.4
11743,2018-06-29 08:50:58.968750,-4.59,54.4
11744,2018-06-29 08:50:59.000000,5.49,54.4
11745,2018-06-29 08:50:59.031250,26.6,54.4
11746,2018-06-29 08:50:59.062500,48.37,54.4
11747,2018-06-29 08:50:59.093750,63.96,54.4
11748,2018-06-29 08:50:59.125000,72.05,54.4
11749,2018-06-29 08:50:59.156250,72.53,54.4
11750,2018-06-29 08:50:59.187500,66.25,54.4
11751,2018-06-29 08:50:59.218750,56.92,54.4
11752,2018-06-29 08:50:59.250000,49.15,54.4
11753,2018-06-29 08:50:59.281250,44.78,54.4
11754,2018-06-29 08:50:59.312500,42.46,54.4
11755,2018-06-29 08:50:59.343750,40.11,54.4
11756,2018-06-29 08:50:59.375000,37.06,54.4
11757,2018-06-29 08:50:59.406250,33.54,54.4
11758,2018-06-29 08:50:59.437500,28.81,54.4
11759,2018-06-29 08:50:59.468750,22.03,54.4
11760,2018-06-29 08:50:59.500000,14.85,54.4
11761,2018-06-29 08:50:59.531250,10.04,54.52
11762,2018-06-29 08:50:59.562500,8.25,54.52
11763,2018-06-29 08:50:59.593750,9.06,54.52
11764,2018-06-29 08:50:59.625000,12.53,54.52
11765,2018-06-29 08:50:59.656250,17.06,54.52
11766,2018-06-29 08:50:59.687500,19.7,54.52
11767,2018-06-29 08:50:59.718750,20.14,54.52
11768,2018-06-29 08:50:59.750000,20.36,54.52
11769,2018-06-29 08:50:59.781250,21.13,54.52
11770,2018-06-29 08:50:59.812500,22.29,54.52
11771,2018-06-29 08:50:59.843750,24.28,54.52
11772,2018-06-29 08:50:59.875000,27.13,54.52
11773,2018-06-29 08:50:59.906250,29.82,54.52
11774,2018-06-29 08:50:59.937500,31.24,54.52
11775,2018-06-29 08:50:59.968750,30.7,54.52
11776,2018-06-29 08:51:00.000000,27.8,54.52
11777,2018-06-29 08:51:00.031250,22.47,54.52
11778,2018-06-29 08:51:00.062500,14.9,54.52
11779,2018-06-29 08:51:00.093750,5.69,54.52
11780,2018-06-29 08:51:00.125000,-4.76,54.52
11781,2018-06-29 08:51:00.156250,-16.63,54.52
11782,2018-06-29 08:51:00.187500,-29.05,54.52
11783,2018-06-29 08:51:00.218750,-39.44,54.52
11784,2018-06-29 08:51:00.250000,-46.82,54.52
11785,2018-06-29 08:51:00.281250,-53.98,54.52
11786,2018-06-29 08:51:00.312500,-64.12,54.52
11787,2018-06-29 08:51:00.343750,-76.23,54.52
11788,2018-06-29 08:51:00.375000,-84.08,54.52
11789,2018-06-29 08:51:00.406250,-80.64,54.52
11790,2018-06-29 08:51:00.437500,-65.5,54.52
11791,2018-06-29 08:51:00.468750,-46.35,54.52
11792,2018-06-29 08:51:00.500000,-31.06,54.52
11793,2018-06-29 08:51:00.531250,-21.28,54.67
11794,2018-06-29 08:51:00.562500,-14.76,54.67
11795,2018-06-29 08:51:00.593750,-9.7,54.67
11796,2018-06-29 08:51:00.625000,-5.14,54.67
11797,2018-06-29 08:51:00.656250,-0.53,54.67
11798,2018-06-29 08:51:00.687500,3.83,54.67
11799,2018-06-29 08:51:00.718750,7.4,54.67
11800,2018-06-29 08:51:00.750000,10.86,54.67
11801,2018-06-29 08:51:00.781250,15.16,54.67
11802,2018-06-29 08:51:00.812500,19.34,54.67
11803,2018-06-29 08:51:00.843750,21.23,54.67
11804,2018-06-29 08:51:00.875000,20.39,54.67
11805,2018-06-29 08:51:00.906250,18.3,54.67
11806,2018-06-29 08:51:00.937500,16.4,54.67
11807,2018-06-29 08:51:00.968750,15.06,54.67
11808,2018-06-29 08:51:01.000000,13.93,54.67
11809,2018-06-29 08:51:01.031250,12.53,54.67
11810,2018-06-29 08:51:01.062500,10.89,54.67
11811,2018-06-29 08:51:01.093750,9.08,54.67
11812,2018-06-29 08:51:01.125000,6.54,54.67
11813,2018-06-29 08:51:01.156250,3.07,54.67
11814,2018-06-29 08:51:01.187500,-0.41,54.67
11815,2018-06-29 08:51:01.218750,-3.24,54.67
11816,2018-06-29 08:51:01.250000,-6.12,54.67
11817,2018-06-29 08:51:01.281250,-9.47,54.67
11818,2018-06-29 08:51:01.312500,-12.62,54.67
11819,2018-06-29 08:51:01.343750,-15.26,54.67
11820,2018-06-29 08:51:01.375000,-18.22,54.67
11821,2018-06-29 08:51:01.406250,-22.12,54.67
11822,2018-06-29 08:51:01.437500,-26.44,54.67
11823,2018-06-29 08:51:01.468750,-30.34,54.67
11824,2018-06-29 08:51:01.500000,-34.05,54.67
11825,2018-06-29 08:51:01.531250,-39.27,54.83
11826,2018-06-29 08:51:01.562500,-47.46,54.83
11827,2018-06-29 08:51:01.593750,-56.07,54.83
11828,2018-06-29 08:51:01.625000,-58.45,54.83
11829,2018-06-29 08:51:01.656250,-50.31,54.83
11830,2018-06-29 08:51:01.687500,-34.9,54.83
11831,2018-06-29 08:51:01.718750,-19.13,54.83
11832,2018-06-29 08:51:01.750000,-6.66,54.83
11833,2018-06-29 08:51:01.781250,2.65,54.83
11834,2018-06-29 08:51:01.812500,9.24,54.83
11835,2018-06-29 08:51:01.843750,13.13,54.83
11836,2018-06-29 08:51:01.875000,15.26,54.83
11837,2018-06-29 08:51:01.906250,17.05,54.83
11838,2018-06-29 08:51:01.937500,19.21,54.83
11839,2018-06-29 08:51:01.968750,21.86,54.83
11840,2018-06-29 08:51:02.000000,24.88,54.83
11841,2018-06-29 08:51:02.031250,27.43,54.83
11842,2018-06-29 08:51:02.062500,28.24,54.83
11843,2018-06-29 08:51:02.093750,26.8,54.83
11844,2018-06-29 08:51:02.125000,23.86,54.83
11845,2018-06-29 08:51:02.156250,20.89,54.83
11846,2018-06-29 08:51:02.187500,19.06,54.83
11847,2018-06-29 08:51:02.218750,18.05,54.83
11848,2018-06-29 08:51:02.250000,16.72,54.83
11849,2018-06-29 08:51:02.281250,14.84,54.83
11850,2018-06-29 08:51:02.312500,13.15,54.83
11851,2018-06-29 08:51:02.343750,11.84,54.83
11852,2018-06-29 08:51:02.375000,10.53,54.83
11853,2018-06-29 08:51:02.406250,9.12,54.83
11854,2018-06-29 08:51:02.437500,7.43,54.83
11855,2018-06-29 08:51:02.468750,5.05,54.83
11856,2018-06-29 08:51:02.500000,2.19,54.83
11857,2018-06-29 08:51:02.531250,-0.55,55.0
11858,2018-06-29 08:51:02.562500,-3.28,55.0
11859,2018-06-29 08:51:02.593750,-6.1,55.0
11860,2018-06-29 08:51:02.625000,-8.45,55.0
11861,2018-06-29 08:51:02.656250,-10.38,55.0
11862,2018-06-29 08:51:02.687500,-12.77,55.0
11863,2018-06-29 08:51:02.718750,-15.95,55.0
11864,2018-06-29 08:51:02.750000,-19.88,55.0
11865,2018-06-29 08:51:02.781250,-24.58,55.0
11866,2018-06-29 08:51:02.812500,-29.53,55.0
11867,2018-06-29 08:51:02.843750,-33.9,55.0
11868,2018-06-29 08:51:02.875000,-38.49,55.0
11869,2018-06-29 08:51:02.906250,-45.65,55.0
11870,2018-06-29 08:51:02.937500,-56.01,55.0
11871,2018-06-29 08:51:02.968750,-65.35,55.0
11872,2018-06-29 08:51:03.000000,-66.39,55.0
11873,2018-06-29 08:51:03.031250,-55.89,55.0
11874,2018-06-29 08:51:03.062500,-38.51,55.0
11875,2018-06-29 08:51:03.093750,-21.85,55.0
11876,2018-06-29 08:51:03.125000,-9.67,55.0
11877,2018-06-29 08:51:03.156250,-1.51,55.0
11878,2018-06-29 08:51:03.187500,4.47,55.0
11879,2018-06-29 08:51:03.218750,9.64,55.0
11880,2018-06-29 08:51:03.250000,14.36,55.0
11881,2018-06-29 08:51:03.281250,18.26,55.0
11882,2018-06-29 08:51:03.312500,21.17,55.0
11883,2018-06-29 08:51:03.343750,23.29,55.0
11884,2018-06-29 08:51:03.375000,24.95,55.0
11885,2018-06-29 08:51:03.406250,26.53,55.0
11886,2018-06-29 08:51:03.437500,27.84,55.0
11887,2018-06-29 08:51:03.468750,27.97,55.0
11888,2018-06-29 08:51:03.500000,26.46,55.0
11889,2018-06-29 08:51:03.531250,24.02,55.17
11890,2018-06-29 08:51:03.562500,21.63,55.17
11891,2018-06-29 08:51:03.593750,19.57,55.17
11892,2018-06-29 08:51:03.625000,17.46,55.17
11893,2018-06-29 08:51:03.656250,15.27,55.17
11894,2018-06-29 08:51:03.687500,13.58,55.17
11895,2018-06-29 08:51:03.718750,12.26,55.17
11896,2018-06-29 08:51:03.750000,10.42,55.17
11897,2018-06-29 08:51:03.781250,8.12,55.17
11898,2018-06-29 08:51:03.812500,6.17,55.17
11899,2018-06-29 08:51:03.843750,4.35,55.17
11900,2018-06-29 08:51:03.875000,2.07,55.17
11901,2018-06-29 08:51:03.906250,-0.16,55.17
11902,2018-06-29 08:51:03.937500,-1.65,55.17
11903,2018-06-29 08:51:03.968750,-2.97,55.17
11904,2018-06-29 08:51:04.000000,-5.27,55.17
11905,2018-06-29 08:51:04.031250,-8.29,55.17
11906,2018-06-29 08:51:04.062500,-10.45,55.17
11907,2018-06-29 08:51:04.093750,-11.49,55.17
11908,2018-06-29 08:51:04.125000,-13.23,55.17
11909,2018-06-29 08:51:04.156250,-16.8,55.17
11910,2018-06-29 08:51:04.187500,-21.12,55.17
11911,2018-06-29 08:51:04.218750,-24.61,55.17
11912,2018-06-29 08:51:04.250000,-27.45,55.17
11913,2018-06-29 08:51:04.281250,-32.04,55.17
11914,2018-06-29 08:51:04.312500,-40.78,55.17
11915,2018-06-29 08:51:04.343750,-51.77,55.17
11916,2018-06-29 08:51:04.375000,-57.78,55.17
11917,2018-06-29 08:51:04.406250,-52.59,55.17
11918,2018-06-29 08:51:04.437500,-38.02,55.17
11919,2018-06-29 08:51:04.468750,-21.71,55.17
11920,2018-06-29 08:51:04.500000,-9.13,55.17
11921,2018-06-29 08:51:04.531250,-0.71,55.3
11922,2018-06-29 08:51:04.562500,5.29,55.3
11923,2018-06-29 08:51:04.593750,10.24,55.3
11924,2018-06-29 08:51:04.625000,14.61,55.3
11925,2018-06-29 08:51:04.656250,18.34,55.3
11926,2018-06-29 08:51:04.687500,21.24,55.3
11927,2018-06-29 08:51:04.718750,23.47,55.3
11928,2018-06-29 08:51:04.750000,25.48,55.3
11929,2018-06-29 08:51:04.781250,27.29,55.3
11930,2018-06-29 08:51:04.812500,28.2,55.3
11931,2018-06-29 08:51:04.843750,27.6,55.3
11932,2018-06-29 08:51:04.875000,25.71,55.3
11933,2018-06-29 08:51:04.906250,23.31,55.3
11934,2018-06-29 08:51:04.937500,21.17,55.3
11935,2018-06-29 08:51:04.968750,19.51,55.3
11936,2018-06-29 08:51:05.000000,18.04,55.3
11937,2018-06-29 08:51:05.031250,16.61,55.3
11938,2018-06-29 08:51:05.062500,15.31,55.3
11939,2018-06-29 08:51:05.093750,13.92,55.3
11940,2018-06-29 08:51:05.125000,12.12,55.3
11941,2018-06-29 08:51:05.156250,10.15,55.3
11942,2018-06-29 08:51:05.187500,8.55,55.3
11943,2018-06-29 08:51:05.218750,7.45,55.3
11944,2018-06-29 08:51:05.250000,6.28,55.3
11945,2018-06-29 08:51:05.281250,4.06,55.3
11946,2018-06-29 08:51:05.312500,0.43,55.3
11947,2018-06-29 08:51:05.343750,-3.86,55.3
11948,2018-06-29 08:51:05.375000,-7.91,55.3
11949,2018-06-29 08:51:05.406250,-11.78,55.3
11950,2018-06-29 08:51:05.437500,-16.03,55.3
11951,2018-06-29 08:51:05.468750,-20.61,55.3
11952,2018-06-29 08:51:05.500000,-25.15,55.3
11953,2018-06-29 08:51:05.531250,-29.81,55.43
11954,2018-06-29 08:51:05.562500,-35.59,55.43
11955,2018-06-29 08:51:05.593750,-43.65,55.43
11956,2018-06-29 08:51:05.625000,-53.1,55.43
11957,2018-06-29 08:51:05.656250,-59.34,55.43
11958,2018-06-29 08:51:05.687500,-57.05,55.43
11959,2018-06-29 08:51:05.718750,-45.35,55.43
11960,2018-06-29 08:51:05.750000,-29.14,55.43
11961,2018-06-29 08:51:05.781250,-14.64,55.43
11962,2018-06-29 08:51:05.812500,-4.69,55.43
11963,2018-06-29 08:51:05.843750,1.72,55.43
11964,2018-06-29 08:51:05.875000,6.48,55.43
11965,2018-06-29 08:51:05.906250,10.26,55.43
11966,2018-06-29 08:51:05.937500,13.31,55.43
11967,2018-06-29 08:51:05.968750,16.23,55.43
11968,2018-06-29 08:51:06.000000,19.44,55.43
11969,2018-06-29 08:51:06.031250,22.9,55.43
11970,2018-06-29 08:51:06.062500,26.11,55.43
11971,2018-06-29 08:51:06.093750,28.33,55.43
11972,2018-06-29 08:51:06.125000,28.97,55.43
11973,2018-06-29 08:51:06.156250,27.9,55.43
11974,2018-06-29 08:51:06.187500,25.61,55.43
11975,2018-06-29 08:51:06.218750,23.23,55.43
11976,2018-06-29 08:51:06.250000,21.84,55.43
11977,2018-06-29 08:51:06.281250,21.15,55.43
11978,2018-06-29 08:51:06.312500,20.17,55.43
11979,2018-06-29 08:51:06.343750,19.11,55.43
11980,2018-06-29 08:51:06.375000,18.57,55.43
11981,2018-06-29 08:51:06.406250,17.35,55.43
11982,2018-06-29 08:51:06.437500,14.23,55.43
11983,2018-06-29 08:51:06.468750,10.59,55.43
11984,2018-06-29 08:51:06.500000,8.36,55.43
11985,2018-06-29 08:51:06.531250,6.79,55.57
11986,2018-06-29 08:51:06.562500,3.82,55.57
11987,2018-06-29 08:51:06.593750,-0.75,55.57
11988,2018-06-29 08:51:06.625000,-5.45,55.57
11989,2018-06-29 08:51:06.656250,-9.27,55.57
11990,2018-06-29 08:51:06.687500,-12.72,55.57
11991,2018-06-29 08:51:06.718750,-16.89,55.57
11992,2018-06-29 08:51:06.750000,-22.12,55.57
11993,2018-06-29 08:51:06.781250,-27.97,55.57
11994,2018-06-29 08:51:06.812500,-34.16,55.57
11995,2018-06-29 08:51:06.843750,-41.25,55.57
11996,2018-06-29 08:51:06.875000,-50.46,55.57
11997,2018-06-29 08:51:06.906250,-61.13,55.57
11998,2018-06-29 08:51:06.937500,-67.94,55.57
11999,2018-06-29 08:51:06.968750,-64.31,55.57
12000,2018-06-29 08:51:07.000000,-50.11,55.57
12001,2018-06-29 08:51:07.031250,-32.49,55.57
12002,2018-06-29 08:51:07.062500,-17.79,55.57
12003,2018-06-29 08:51:07.093750,-6.52,55.57
12004,2018-06-29 08:51:07.125000,3.15,55.57
12005,2018-06-29 08:51:07.156250,11.68,55.57
12006,2018-06-29 08:51:07.187500,18.59,55.57
12007,2018-06-29 08:51:07.218750,23.57,55.57
12008,2018-06-29 08:51:07.250000,27.18,55.57
12009,2018-06-29 08:51:07.281250,30.65,55.57
12010,2018-06-29 08:51:07.312500,34.2,55.57
12011,2018-06-29 08:51:07.343750,36.71,55.57
12012,2018-06-29 08:51:07.375000,37.84,55.57
12013,2018-06-29 08:51:07.406250,38.11,55.57
12014,2018-06-29 08:51:07.437500,37.38,55.57
12015,2018-06-29 08:51:07.468750,35.52,55.57
12016,2018-06-29 08:51:07.500000,33.28,55.57
12017,2018-06-29 08:51:07.531250,31.2,55.72
12018,2018-06-29 08:51:07.562500,29.43,55.72
12019,2018-06-29 08:51:07.593750,28.05,55.72
12020,2018-06-29 08:51:07.625000,26.69,55.72
12021,2018-06-29 08:51:07.656250,24.9,55.72
12022,2018-06-29 08:51:07.687500,22.71,55.72
12023,2018-06-29 08:51:07.718750,20.49,55.72
12024,2018-06-29 08:51:07.750000,18.66,55.72
12025,2018-06-29 08:51:07.781250,17.19,55.72
12026,2018-06-29 08:51:07.812500,15.37,55.72
12027,2018-06-29 08:51:07.843750,12.91,55.72
12028,2018-06-29 08:51:07.875000,10.53,55.72
12029,2018-06-29 08:51:07.906250,8.76,55.72
12030,2018-06-29 08:51:07.937500,7.06,55.72
12031,2018-06-29 08:51:07.968750,4.83,55.72
12032,2018-06-29 08:51:08.000000,1.92,55.72
12033,2018-06-29 08:51:08.031250,-1.72,55.72
12034,2018-06-29 08:51:08.062500,-5.86,55.72
12035,2018-06-29 08:51:08.093750,-9.8,55.72
12036,2018-06-29 08:51:08.125000,-13.24,55.72
12037,2018-06-29 08:51:08.156250,-17.21,55.72
12038,2018-06-29 08:51:08.187500,-22.77,55.72
12039,2018-06-29 08:51:08.218750,-28.83,55.72
12040,2018-06-29 08:51:08.250000,-33.69,55.72
12041,2018-06-29 08:51:08.281250,-38.26,55.72
12042,2018-06-29 08:51:08.312500,-45.76,55.72
12043,2018-06-29 08:51:08.343750,-57.24,55.72
12044,2018-06-29 08:51:08.375000,-68.07,55.72
12045,2018-06-29 08:51:08.406250,-70.47,55.72
12046,2018-06-29 08:51:08.437500,-60.93,55.72
12047,2018-06-29 08:51:08.468750,-44.13,55.72
12048,2018-06-29 08:51:08.500000,-27.55,55.72
12049,2018-06-29 08:51:08.531250,-14.48,55.78
12050,2018-06-29 08:51:08.562500,-3.97,55.78
12051,2018-06-29 08:51:08.593750,5.45,55.78
12052,2018-06-29 08:51:08.625000,13.69,55.78
12053,2018-06-29 08:51:08.656250,19.84,55.78
12054,2018-06-29 08:51:08.687500,23.68,55.78
12055,2018-06-29 08:51:08.718750,26.13,55.78
12056,2018-06-29 08:51:08.750000,28.21,55.78
12057,2018-06-29 08:51:08.781250,30.52,55.78
12058,2018-06-29 08:51:08.812500,33.11,55.78
12059,2018-06-29 08:51:08.843750,35.04,55.78
12060,2018-06-29 08:51:08.875000,34.91,55.78
12061,2018-06-29 08:51:08.906250,32.73,55.78
12062,2018-06-29 08:51:08.937500,29.98,55.78
12063,2018-06-29 08:51:08.968750,27.94,55.78
12064,2018-06-29 08:51:09.000000,26.6,55.78
12065,2018-06-29 08:51:09.031250,25.33,55.78
12066,2018-06-29 08:51:09.062500,24.0,55.78
12067,2018-06-29 08:51:09.093750,22.89,55.78
12068,2018-06-29 08:51:09.125000,21.84,55.78
12069,2018-06-29 08:51:09.156250,20.33,55.78
12070,2018-06-29 08:51:09.187500,17.93,55.78
12071,2018-06-29 08:51:09.218750,14.73,55.78
12072,2018-06-29 08:51:09.250000,11.67,55.78
12073,2018-06-29 08:51:09.281250,9.72,55.78
12074,2018-06-29 08:51:09.312500,8.12,55.78
12075,2018-06-29 08:51:09.343750,5.21,55.78
12076,2018-06-29 08:51:09.375000,0.96,55.78
12077,2018-06-29 08:51:09.406250,-3.22,55.78
12078,2018-06-29 08:51:09.437500,-6.66,55.78
12079,2018-06-29 08:51:09.468750,-10.11,55.78
12080,2018-06-29 08:51:09.500000,-14.64,55.78
12081,2018-06-29 08:51:09.531250,-20.53,55.77
12082,2018-06-29 08:51:09.562500,-26.97,55.77
12083,2018-06-29 08:51:09.593750,-32.76,55.77
12084,2018-06-29 08:51:09.625000,-38.06,55.77
12085,2018-06-29 08:51:09.656250,-45.08,55.77
12086,2018-06-29 08:51:09.687500,-54.44,55.77
12087,2018-06-29 08:51:09.718750,-60.72,55.77
12088,2018-06-29 08:51:09.750000,-56.84,55.77
12089,2018-06-29 08:51:09.781250,-43.04,55.77
12090,2018-06-29 08:51:09.812500,-26.57,55.77
12091,2018-06-29 08:51:09.843750,-12.96,55.77
12092,2018-06-29 08:51:09.875000,-2.46,55.77
12093,2018-06-29 08:51:09.906250,6.16,55.77
12094,2018-06-29 08:51:09.937500,12.84,55.77
12095,2018-06-29 08:51:09.968750,17.27,55.77
12096,2018-06-29 08:51:10.000000,20.1,55.77
12097,2018-06-29 08:51:10.031250,22.43,55.77
12098,2018-06-29 08:51:10.062500,24.84,55.77
12099,2018-06-29 08:51:10.093750,27.5,55.77
12100,2018-06-29 08:51:10.125000,30.28,55.77
12101,2018-06-29 08:51:10.156250,32.23,55.77
12102,2018-06-29 08:51:10.187500,32.19,55.77
12103,2018-06-29 08:51:10.218750,30.43,55.77
12104,2018-06-29 08:51:10.250000,28.51,55.77
12105,2018-06-29 08:51:10.281250,27.17,55.77
12106,2018-06-29 08:51:10.312500,25.74,55.77
12107,2018-06-29 08:51:10.343750,23.62,55.77
12108,2018-06-29 08:51:10.375000,21.21,55.77
12109,2018-06-29 08:51:10.406250,18.98,55.77
12110,2018-06-29 08:51:10.437500,17.01,55.77
12111,2018-06-29 08:51:10.468750,15.35,55.77
12112,2018-06-29 08:51:10.500000,13.79,55.77
12113,2018-06-29 08:51:10.531250,11.63,55.67
12114,2018-06-29 08:51:10.562500,8.76,55.67
12115,2018-06-29 08:51:10.593750,5.83,55.67
12116,2018-06-29 08:51:10.625000,3.05,55.67
12117,2018-06-29 08:51:10.656250,0.14,55.67
12118,2018-06-29 08:51:10.687500,-2.9,55.67
12119,2018-06-29 08:51:10.718750,-6.15,55.67
12120,2018-06-29 08:51:10.750000,-9.78,55.67
12121,2018-06-29 08:51:10.781250,-13.56,55.67
12122,2018-06-29 08:51:10.812500,-17.61,55.67
12123,2018-06-29 08:51:10.843750,-22.88,55.67
12124,2018-06-29 08:51:10.875000,-29.53,55.67
12125,2018-06-29 08:51:10.906250,-36.4,55.67
12126,2018-06-29 08:51:10.937500,-43.15,55.67
12127,2018-06-29 08:51:10.968750,-51.19,55.67
12128,2018-06-29 08:51:11.000000,-61.31,55.67
12129,2018-06-29 08:51:11.031250,-70.16,55.67
12130,2018-06-29 08:51:11.062500,-71.01,55.67
12131,2018-06-29 08:51:11.093750,-60.66,55.67
12132,2018-06-29 08:51:11.125000,-43.77,55.67
12133,2018-06-29 08:51:11.156250,-27.38,55.67
12134,2018-06-29 08:51:11.187500,-14.02,55.67
12135,2018-06-29 08:51:11.218750,-2.65,55.67
12136,2018-06-29 08:51:11.250000,7.07,55.67
12137,2018-06-29 08:51:11.281250,14.69,55.67
12138,2018-06-29 08:51:11.312500,20.57,55.67
12139,2018-06-29 08:51:11.343750,25.28,55.67
12140,2018-06-29 08:51:11.375000,28.89,55.67
12141,2018-06-29 08:51:11.406250,31.9,55.67
12142,2018-06-29 08:51:11.437500,35.15,55.67
12143,2018-06-29 08:51:11.468750,38.17,55.67
12144,2018-06-29 08:51:11.500000,39.47,55.67
12145,2018-06-29 08:51:11.531250,38.73,55.53
12146,2018-06-29 08:51:11.562500,36.82,55.53
12147,2018-06-29 08:51:11.593750,34.54,55.53
12148,2018-06-29 08:51:11.625000,32.37,55.53
12149,2018-06-29 08:51:11.656250,30.45,55.53
12150,2018-06-29 08:51:11.687500,28.31,55.53
12151,2018-06-29 08:51:11.718750,26.0,55.53
12152,2018-06-29 08:51:11.750000,24.73,55.53
12153,2018-06-29 08:51:11.781250,24.47,55.53
12154,2018-06-29 08:51:11.812500,23.05,55.53
12155,2018-06-29 08:51:11.843750,19.79,55.53
12156,2018-06-29 08:51:11.875000,16.83,55.53
12157,2018-06-29 08:51:11.906250,15.13,55.53
12158,2018-06-29 08:51:11.937500,13.01,55.53
12159,2018-06-29 08:51:11.968750,9.72,55.53
12160,2018-06-29 08:51:12.000000,6.5,55.53
12161,2018-06-29 08:51:12.031250,3.79,55.53
12162,2018-06-29 08:51:12.062500,0.55,55.53
12163,2018-06-29 08:51:12.093750,-3.6,55.53
12164,2018-06-29 08:51:12.125000,-7.86,55.53
12165,2018-06-29 08:51:12.156250,-11.73,55.53
12166,2018-06-29 08:51:12.187500,-15.64,55.53
12167,2018-06-29 08:51:12.218750,-19.86,55.53
12168,2018-06-29 08:51:12.250000,-24.5,55.53
12169,2018-06-29 08:51:12.281250,-29.98,55.53
12170,2018-06-29 08:51:12.312500,-36.42,55.53
12171,2018-06-29 08:51:12.343750,-43.45,55.53
12172,2018-06-29 08:51:12.375000,-51.65,55.53
12173,2018-06-29 08:51:12.406250,-61.95,55.53
12174,2018-06-29 08:51:12.437500,-71.26,55.53
12175,2018-06-29 08:51:12.468750,-72.21,55.53
12176,2018-06-29 08:51:12.500000,-61.21,55.53
12177,2018-06-29 08:51:12.531250,-43.51,55.4
12178,2018-06-29 08:51:12.562500,-27.0,55.4
12179,2018-06-29 08:51:12.593750,-14.35,55.4
12180,2018-06-29 08:51:12.625000,-3.68,55.4
12181,2018-06-29 08:51:12.656250,6.33,55.4
12182,2018-06-29 08:51:12.687500,14.9,55.4
12183,2018-06-29 08:51:12.718750,21.04,55.4
12184,2018-06-29 08:51:12.750000,25.07,55.4
12185,2018-06-29 08:51:12.781250,28.05,55.4
12186,2018-06-29 08:51:12.812500,30.76,55.4
12187,2018-06-29 08:51:12.843750,33.68,55.4
12188,2018-06-29 08:51:12.875000,36.76,55.4
12189,2018-06-29 08:51:12.906250,38.73,55.4
12190,2018-06-29 08:51:12.937500,38.13,55.4
12191,2018-06-29 08:51:12.968750,35.64,55.4
12192,2018-06-29 08:51:13.000000,33.49,55.4
12193,2018-06-29 08:51:13.031250,32.1,55.4
12194,2018-06-29 08:51:13.062500,30.08,55.4
12195,2018-06-29 08:51:13.093750,27.38,55.4
12196,2018-06-29 08:51:13.125000,25.42,55.4
12197,2018-06-29 08:51:13.156250,24.41,55.4
12198,2018-06-29 08:51:13.187500,23.29,55.4
12199,2018-06-29 08:51:13.218750,21.45,55.4
12200,2018-06-29 08:51:13.250000,19.1,55.4
12201,2018-06-29 08:51:13.281250,16.65,55.4
12202,2018-06-29 08:51:13.312500,14.28,55.4
12203,2018-06-29 08:51:13.343750,11.71,55.4
12204,2018-06-29 08:51:13.375000,8.71,55.4
12205,2018-06-29 08:51:13.406250,5.15,55.4
12206,2018-06-29 08:51:13.437500,1.14,55.4
12207,2018-06-29 08:51:13.468750,-2.65,55.4
12208,2018-06-29 08:51:13.500000,-5.69,55.4
12209,2018-06-29 08:51:13.531250,-8.82,55.25
12210,2018-06-29 08:51:13.562500,-13.27,55.25
12211,2018-06-29 08:51:13.593750,-18.94,55.25
12212,2018-06-29 08:51:13.625000,-24.79,55.25
12213,2018-06-29 08:51:13.656250,-30.13,55.25
12214,2018-06-29 08:51:13.687500,-35.51,55.25
12215,2018-06-29 08:51:13.718750,-42.74,55.25
12216,2018-06-29 08:51:13.750000,-52.81,55.25
12217,2018-06-29 08:51:13.781250,-62.49,55.25
12218,2018-06-29 08:51:13.812500,-64.73,55.25
12219,2018-06-29 08:51:13.843750,-55.28,55.25
12220,2018-06-29 08:51:13.875000,-37.82,55.25
12221,2018-06-29 08:51:13.906250,-20.56,55.25
12222,2018-06-29 08:51:13.937500,-8.28,55.25
12223,2018-06-29 08:51:13.968750,0.19,55.25
12224,2018-06-29 08:51:14.000000,7.25,55.25
12225,2018-06-29 08:51:14.031250,12.9,55.25
12226,2018-06-29 08:51:14.062500,16.69,55.25
12227,2018-06-29 08:51:14.093750,19.75,55.25
12228,2018-06-29 08:51:14.125000,23.1,55.25
12229,2018-06-29 08:51:14.156250,26.27,55.25
12230,2018-06-29 08:51:14.187500,28.72,55.25
12231,2018-06-29 08:51:14.218750,30.73,55.25
12232,2018-06-29 08:51:14.250000,32.02,55.25
12233,2018-06-29 08:51:14.281250,31.12,55.25
12234,2018-06-29 08:51:14.312500,27.71,55.25
12235,2018-06-29 08:51:14.343750,23.88,55.25
12236,2018-06-29 08:51:14.375000,21.43,55.25
12237,2018-06-29 08:51:14.406250,19.69,55.25
12238,2018-06-29 08:51:14.437500,17.29,55.25
12239,2018-06-29 08:51:14.468750,14.23,55.25
12240,2018-06-29 08:51:14.500000,11.4,55.25
12241,2018-06-29 08:51:14.531250,9.42,55.1
12242,2018-06-29 08:51:14.562500,7.78,55.1
12243,2018-06-29 08:51:14.593750,5.02,55.1
12244,2018-06-29 08:51:14.625000,0.81,55.1
12245,2018-06-29 08:51:14.656250,-3.38,55.1
12246,2018-06-29 08:51:14.687500,-6.57,55.1
12247,2018-06-29 08:51:14.718750,-9.39,55.1
12248,2018-06-29 08:51:14.750000,-12.34,55.1
12249,2018-06-29 08:51:14.781250,-14.65,55.1
12250,2018-06-29 08:51:14.812500,-15.97,55.1
12251,2018-06-29 08:51:14.843750,-17.71,55.1
12252,2018-06-29 08:51:14.875000,-21.24,55.1
12253,2018-06-29 08:51:14.906250,-26.01,55.1
12254,2018-06-29 08:51:14.937500,-31.06,55.1
12255,2018-06-29 08:51:14.968750,-36.74,55.1
12256,2018-06-29 08:51:15.000000,-43.74,55.1
12257,2018-06-29 08:51:15.031250,-52.22,55.1
12258,2018-06-29 08:51:15.062500,-60.0,55.1
12259,2018-06-29 08:51:15.093750,-61.35,55.1
12260,2018-06-29 08:51:15.125000,-51.79,55.1
12261,2018-06-29 08:51:15.156250,-34.69,55.1
12262,2018-06-29 08:51:15.187500,-18.01,55.1
12263,2018-06-29 08:51:15.218750,-5.44,55.1
12264,2018-06-29 08:51:15.250000,4.96,55.1
12265,2018-06-29 08:51:15.281250,14.78,55.1
12266,2018-06-29 08:51:15.312500,22.96,55.1
12267,2018-06-29 08:51:15.343750,28.7,55.1
12268,2018-06-29 08:51:15.375000,32.88,55.1
12269,2018-06-29 08:51:15.406250,36.08,55.1
12270,2018-06-29 08:51:15.437500,38.33,55.1
12271,2018-06-29 08:51:15.468750,40.44,55.1
12272,2018-06-29 08:51:15.500000,42.85,55.1
12273,2018-06-29 08:51:15.531250,44.02,54.8
12274,2018-06-29 08:51:15.562500,42.38,54.8
12275,2018-06-29 08:51:15.593750,38.62,54.8
12276,2018-06-29 08:51:15.625000,35.03,54.8
12277,2018-06-29 08:51:15.656250,32.88,54.8
12278,2018-06-29 08:51:15.687500,31.43,54.8
12279,2018-06-29 08:51:15.718750,29.54,54.8
