,Time,ppg,hr
96000,2018-06-29 09:34:52.000000,-11.93,61.0
96001,2018-06-29 09:34:52.031250,-16.88,61.0
96002,2018-06-29 09:34:52.062500,-24.37,61.0
96003,2018-06-29 09:34:52.093750,-35.02,61.0
96004,2018-06-29 09:34:52.125000,-45.43,61.0
96005,2018-06-29 09:34:52.156250,-53.11,61.0
96006,2018-06-29 09:34:52.187500,-59.81,61.0
96007,2018-06-29 09:34:52.218750,-69.48,61.0
96008,2018-06-29 09:34:52.250000,-83.23,61.0
96009,2018-06-29 09:34:52.281250,-93.89,61.0
96010,2018-06-29 09:34:52.312500,-87.84,61.0
96011,2018-06-29 09:34:52.343750,-58.68,61.0
96012,2018-06-29 09:34:52.375000,-17.06,61.0
96013,2018-06-29 09:34:52.406250,19.54,61.0
96014,2018-06-29 09:34:52.437500,43.09,61.0
96015,2018-06-29 09:34:52.468750,55.73,61.0
96016,2018-06-29 09:34:52.500000,60.98,61.0
96017,2018-06-29 09:34:52.531250,60.88,61.07
96018,2018-06-29 09:34:52.562500,57.95,61.07
96019,2018-06-29 09:34:52.593750,54.56,61.07
96020,2018-06-29 09:34:52.625000,51.6,61.07
96021,2018-06-29 09:34:52.656250,49.54,61.07
96022,2018-06-29 09:34:52.687500,49.2,61.07
96023,2018-06-29 09:34:52.718750,49.48,61.07
96024,2018-06-29 09:34:52.750000,47.02,61.07
96025,2018-06-29 09:34:52.781250,40.39,61.07
96026,2018-06-29 09:34:52.812500,32.26,61.07
96027,2018-06-29 09:34:52.843750,25.39,61.07
96028,2018-06-29 09:34:52.875000,18.71,61.07
96029,2018-06-29 09:34:52.906250,10.14,61.07
96030,2018-06-29 09:34:52.937500,0.59,61.07
96031,2018-06-29 09:34:52.968750,-7.8,61.07
96032,2018-06-29 09:34:53.000000,-15.15,61.07
96033,2018-06-29 09:34:53.031250,-22.97,61.07
96034,2018-06-29 09:34:53.062500,-31.33,61.07
96035,2018-06-29 09:34:53.093750,-38.99,61.07
96036,2018-06-29 09:34:53.125000,-45.67,61.07
96037,2018-06-29 09:34:53.156250,-53.56,61.07
96038,2018-06-29 09:34:53.187500,-65.66,61.07
96039,2018-06-29 09:34:53.218750,-79.98,61.07
96040,2018-06-29 09:34:53.250000,-86.0,61.07
96041,2018-06-29 09:34:53.281250,-72.28,61.07
96042,2018-06-29 09:34:53.312500,-39.6,61.07
96043,2018-06-29 09:34:53.343750,-2.04,61.07
96044,2018-06-29 09:34:53.375000,26.38,61.07
96045,2018-06-29 09:34:53.406250,41.82,61.07
96046,2018-06-29 09:34:53.437500,46.9,61.07
96047,2018-06-29 09:34:53.468750,44.47,61.07
96048,2018-06-29 09:34:53.500000,38.0,61.07
96049,2018-06-29 09:34:53.531250,32.12,61.13
96050,2018-06-29 09:34:53.562500,28.98,61.13
96051,2018-06-29 09:34:53.593750,27.27,61.13
96052,2018-06-29 09:34:53.625000,26.1,61.13
96053,2018-06-29 09:34:53.656250,26.13,61.13
96054,2018-06-29 09:34:53.687500,26.55,61.13
96055,2018-06-29 09:34:53.718750,24.22,61.13
96056,2018-06-29 09:34:53.750000,17.41,61.13
96057,2018-06-29 09:34:53.781250,8.5,61.13
96058,2018-06-29 09:34:53.812500,1.2,61.13
96059,2018-06-29 09:34:53.843750,-3.78,61.13
96060,2018-06-29 09:34:53.875000,-8.17,61.13
96061,2018-06-29 09:34:53.906250,-12.86,61.13
96062,2018-06-29 09:34:53.937500,-17.47,61.13
96063,2018-06-29 09:34:53.968750,-22.22,61.13
96064,2018-06-29 09:34:54.000000,-28.63,61.13
96065,2018-06-29 09:34:54.031250,-38.6,61.13
96066,2018-06-29 09:34:54.062500,-51.54,61.13
96067,2018-06-29 09:34:54.093750,-60.57,61.13
96068,2018-06-29 09:34:54.125000,-55.06,61.13
96069,2018-06-29 09:34:54.156250,-31.72,61.13
96070,2018-06-29 09:34:54.187500,-0.15,61.13
96071,2018-06-29 09:34:54.218750,26.13,61.13
96072,2018-06-29 09:34:54.250000,40.56,61.13
96073,2018-06-29 09:34:54.281250,43.72,61.13
96074,2018-06-29 09:34:54.312500,38.19,61.13
96075,2018-06-29 09:34:54.343750,27.76,61.13
96076,2018-06-29 09:34:54.375000,18.04,61.13
96077,2018-06-29 09:34:54.406250,13.56,61.13
96078,2018-06-29 09:34:54.437500,14.14,61.13
96079,2018-06-29 09:34:54.468750,16.08,61.13
96080,2018-06-29 09:34:54.500000,16.3,61.13
96081,2018-06-29 09:34:54.531250,13.67,61.2
96082,2018-06-29 09:34:54.562500,8.05,61.2
96083,2018-06-29 09:34:54.593750,-0.03,61.2
96084,2018-06-29 09:34:54.625000,-9.35,61.2
96085,2018-06-29 09:34:54.656250,-19.15,61.2
96086,2018-06-29 09:34:54.687500,-28.97,61.2
96087,2018-06-29 09:34:54.718750,-37.67,61.2
96088,2018-06-29 09:34:54.750000,-44.78,61.2
96089,2018-06-29 09:34:54.781250,-52.07,61.2
96090,2018-06-29 09:34:54.812500,-62.42,61.2
96091,2018-06-29 09:34:54.843750,-75.25,61.2
96092,2018-06-29 09:34:54.875000,-82.43,61.2
96093,2018-06-29 09:34:54.906250,-72.29,61.2
96094,2018-06-29 09:34:54.937500,-42.58,61.2
96095,2018-06-29 09:34:54.968750,-5.56,61.2
96096,2018-06-29 09:34:55.000000,24.23,61.2
96097,2018-06-29 09:34:55.031250,41.96,61.2
96098,2018-06-29 09:34:55.062500,50.11,61.2
96099,2018-06-29 09:34:55.093750,51.38,61.2
96100,2018-06-29 09:34:55.125000,47.81,61.2
96101,2018-06-29 09:34:55.156250,42.37,61.2
96102,2018-06-29 09:34:55.187500,37.62,61.2
96103,2018-06-29 09:34:55.218750,34.43,61.2
96104,2018-06-29 09:34:55.250000,32.67,61.2
96105,2018-06-29 09:34:55.281250,31.57,61.2
96106,2018-06-29 09:34:55.312500,29.54,61.2
96107,2018-06-29 09:34:55.343750,24.91,61.2
96108,2018-06-29 09:34:55.375000,17.04,61.2
96109,2018-06-29 09:34:55.406250,5.99,61.2
96110,2018-06-29 09:34:55.437500,-7.2,61.2
96111,2018-06-29 09:34:55.468750,-20.08,61.2
96112,2018-06-29 09:34:55.500000,-30.82,61.2
96113,2018-06-29 09:34:55.531250,-40.46,61.27
96114,2018-06-29 09:34:55.562500,-51.67,61.27
96115,2018-06-29 09:34:55.593750,-65.92,61.27
96116,2018-06-29 09:34:55.625000,-80.03,61.27
96117,2018-06-29 09:34:55.656250,-84.42,61.27
96118,2018-06-29 09:34:55.687500,-69.49,61.27
96119,2018-06-29 09:34:55.718750,-37.15,61.27
96120,2018-06-29 09:34:55.750000,-0.89,61.27
96121,2018-06-29 09:34:55.781250,26.77,61.27
96122,2018-06-29 09:34:55.812500,41.92,61.27
96123,2018-06-29 09:34:55.843750,46.13,61.27
96124,2018-06-29 09:34:55.875000,42.66,61.27
96125,2018-06-29 09:34:55.906250,36.23,61.27
96126,2018-06-29 09:34:55.937500,31.49,61.27
96127,2018-06-29 09:34:55.968750,29.83,61.27
96128,2018-06-29 09:34:56.000000,29.23,61.27
96129,2018-06-29 09:34:56.031250,27.79,61.27
96130,2018-06-29 09:34:56.062500,25.63,61.27
96131,2018-06-29 09:34:56.093750,22.41,61.27
96132,2018-06-29 09:34:56.125000,15.95,61.27
96133,2018-06-29 09:34:56.156250,4.99,61.27
96134,2018-06-29 09:34:56.187500,-8.29,61.27
96135,2018-06-29 09:34:56.218750,-20.6,61.27
96136,2018-06-29 09:34:56.250000,-31.56,61.27
96137,2018-06-29 09:34:56.281250,-43.54,61.27
96138,2018-06-29 09:34:56.312500,-58.27,61.27
96139,2018-06-29 09:34:56.343750,-72.73,61.27
96140,2018-06-29 09:34:56.375000,-77.22,61.27
96141,2018-06-29 09:34:56.406250,-62.04,61.27
96142,2018-06-29 09:34:56.437500,-29.13,61.27
96143,2018-06-29 09:34:56.468750,7.45,61.27
96144,2018-06-29 09:34:56.500000,34.92,61.27
96145,2018-06-29 09:34:56.531250,49.92,61.28
96146,2018-06-29 09:34:56.562500,53.91,61.28
96147,2018-06-29 09:34:56.593750,49.27,61.28
96148,2018-06-29 09:34:56.625000,40.56,61.28
96149,2018-06-29 09:34:56.656250,33.14,61.28
96150,2018-06-29 09:34:56.687500,28.87,61.28
96151,2018-06-29 09:34:56.718750,25.65,61.28
96152,2018-06-29 09:34:56.750000,21.6,61.28
96153,2018-06-29 09:34:56.781250,17.23,61.28
96154,2018-06-29 09:34:56.812500,12.62,61.28
96155,2018-06-29 09:34:56.843750,5.26,61.28
96156,2018-06-29 09:34:56.875000,-7.19,61.28
96157,2018-06-29 09:34:56.906250,-23.04,61.28
96158,2018-06-29 09:34:56.937500,-37.86,61.28
96159,2018-06-29 09:34:56.968750,-49.55,61.28
96160,2018-06-29 09:34:57.000000,-60.08,61.28
96161,2018-06-29 09:34:57.031250,-73.03,61.28
96162,2018-06-29 09:34:57.062500,-89.33,61.28
96163,2018-06-29 09:34:57.093750,-102.81,61.28
96164,2018-06-29 09:34:57.125000,-100.49,61.28
96165,2018-06-29 09:34:57.156250,-73.76,61.28
96166,2018-06-29 09:34:57.187500,-30.14,61.28
96167,2018-06-29 09:34:57.218750,12.62,61.28
96168,2018-06-29 09:34:57.250000,43.07,61.28
96169,2018-06-29 09:34:57.281250,60.8,61.28
96170,2018-06-29 09:34:57.312500,69.09,61.28
96171,2018-06-29 09:34:57.343750,70.5,61.28
96172,2018-06-29 09:34:57.375000,67.58,61.28
96173,2018-06-29 09:34:57.406250,62.87,61.28
96174,2018-06-29 09:34:57.437500,57.93,61.28
96175,2018-06-29 09:34:57.468750,53.55,61.28
96176,2018-06-29 09:34:57.500000,50.49,61.28
96177,2018-06-29 09:34:57.531250,48.49,61.28
96178,2018-06-29 09:34:57.562500,44.77,61.28
96179,2018-06-29 09:34:57.593750,36.24,61.28
96180,2018-06-29 09:34:57.625000,23.61,61.28
96181,2018-06-29 09:34:57.656250,11.0,61.28
96182,2018-06-29 09:34:57.687500,-0.03,61.28
96183,2018-06-29 09:34:57.718750,-12.21,61.28
96184,2018-06-29 09:34:57.750000,-26.73,61.28
96185,2018-06-29 09:34:57.781250,-40.28,61.28
96186,2018-06-29 09:34:57.812500,-50.42,61.28
96187,2018-06-29 09:34:57.843750,-60.0,61.28
96188,2018-06-29 09:34:57.875000,-74.03,61.28
96189,2018-06-29 09:34:57.906250,-92.41,61.28
96190,2018-06-29 09:34:57.937500,-104.92,61.28
96191,2018-06-29 09:34:57.968750,-96.54,61.28
96192,2018-06-29 09:34:58.000000,-63.32,61.28
96193,2018-06-29 09:34:58.031250,-18.94,61.28
96194,2018-06-29 09:34:58.062500,19.51,61.28
96195,2018-06-29 09:34:58.093750,46.37,61.28
96196,2018-06-29 09:34:58.125000,64.61,61.28
96197,2018-06-29 09:34:58.156250,76.32,61.28
96198,2018-06-29 09:34:58.187500,81.64,61.28
96199,2018-06-29 09:34:58.218750,81.8,61.28
96200,2018-06-29 09:34:58.250000,79.19,61.28
96201,2018-06-29 09:34:58.281250,75.52,61.28
96202,2018-06-29 09:34:58.312500,71.59,61.28
96203,2018-06-29 09:34:58.343750,68.34,61.28
96204,2018-06-29 09:34:58.375000,66.12,61.28
96205,2018-06-29 09:34:58.406250,63.0,61.28
96206,2018-06-29 09:34:58.437500,56.57,61.28
96207,2018-06-29 09:34:58.468750,47.67,61.28
96208,2018-06-29 09:34:58.500000,39.55,61.28
96209,2018-06-29 09:34:58.531250,33.4,61.28
96210,2018-06-29 09:34:58.562500,27.55,61.28
96211,2018-06-29 09:34:58.593750,21.07,61.28
96212,2018-06-29 09:34:58.625000,15.18,61.28
96213,2018-06-29 09:34:58.656250,10.76,61.28
96214,2018-06-29 09:34:58.687500,6.94,61.28
96215,2018-06-29 09:34:58.718750,2.5,61.28
96216,2018-06-29 09:34:58.750000,-2.36,61.28
96217,2018-06-29 09:34:58.781250,-6.91,61.28
96218,2018-06-29 09:34:58.812500,-11.67,61.28
96219,2018-06-29 09:34:58.843750,-18.0,61.28
96220,2018-06-29 09:34:58.875000,-25.7,61.28
96221,2018-06-29 09:34:58.906250,-32.86,61.28
96222,2018-06-29 09:34:58.937500,-38.87,61.28
96223,2018-06-29 09:34:58.968750,-45.74,61.28
96224,2018-06-29 09:34:59.000000,-55.14,61.28
96225,2018-06-29 09:34:59.031250,-65.44,61.28
96226,2018-06-29 09:34:59.062500,-73.74,61.28
96227,2018-06-29 09:34:59.093750,-80.24,61.28
96228,2018-06-29 09:34:59.125000,-89.13,61.28
96229,2018-06-29 09:34:59.156250,-103.93,61.28
96230,2018-06-29 09:34:59.187500,-119.55,61.28
96231,2018-06-29 09:34:59.218750,-120.51,61.28
96232,2018-06-29 09:34:59.250000,-95.01,61.28
96233,2018-06-29 09:34:59.281250,-50.28,61.28
96234,2018-06-29 09:34:59.312500,-5.65,61.28
96235,2018-06-29 09:34:59.343750,26.97,61.28
96236,2018-06-29 09:34:59.375000,48.05,61.28
96237,2018-06-29 09:34:59.406250,61.0,61.28
96238,2018-06-29 09:34:59.437500,67.91,61.28
96239,2018-06-29 09:34:59.468750,71.26,61.28
96240,2018-06-29 09:34:59.500000,73.3,61.28
96241,2018-06-29 09:34:59.531250,74.19,61.25
96242,2018-06-29 09:34:59.562500,73.38,61.25
96243,2018-06-29 09:34:59.593750,71.57,61.25
96244,2018-06-29 09:34:59.625000,69.59,61.25
96245,2018-06-29 09:34:59.656250,66.53,61.25
96246,2018-06-29 09:34:59.687500,60.67,61.25
96247,2018-06-29 09:34:59.718750,51.96,61.25
96248,2018-06-29 09:34:59.750000,42.78,61.25
96249,2018-06-29 09:34:59.781250,35.36,61.25
96250,2018-06-29 09:34:59.812500,29.69,61.25
96251,2018-06-29 09:34:59.843750,24.41,61.25
96252,2018-06-29 09:34:59.875000,19.18,61.25
96253,2018-06-29 09:34:59.906250,14.93,61.25
96254,2018-06-29 09:34:59.937500,11.73,61.25
96255,2018-06-29 09:34:59.968750,7.87,61.25
96256,2018-06-29 09:35:00.000000,1.6,61.25
96257,2018-06-29 09:35:00.031250,-6.65,61.25
96258,2018-06-29 09:35:00.062500,-14.65,61.25
96259,2018-06-29 09:35:00.093750,-21.23,61.25
96260,2018-06-29 09:35:00.125000,-28.11,61.25
96261,2018-06-29 09:35:00.156250,-37.27,61.25
96262,2018-06-29 09:35:00.187500,-47.82,61.25
96263,2018-06-29 09:35:00.218750,-57.38,61.25
96264,2018-06-29 09:35:00.250000,-65.89,61.25
96265,2018-06-29 09:35:00.281250,-76.08,61.25
96266,2018-06-29 09:35:00.312500,-89.28,61.25
96267,2018-06-29 09:35:00.343750,-99.97,61.25
96268,2018-06-29 09:35:00.375000,-96.6,61.25
96269,2018-06-29 09:35:00.406250,-72.37,61.25
96270,2018-06-29 09:35:00.437500,-34.41,61.25
96271,2018-06-29 09:35:00.468750,1.67,61.25
96272,2018-06-29 09:35:00.500000,25.72,61.25
96273,2018-06-29 09:35:00.531250,38.24,61.22
96274,2018-06-29 09:35:00.562500,43.75,61.22
96275,2018-06-29 09:35:00.593750,44.81,61.22
96276,2018-06-29 09:35:00.625000,43.29,61.22
96277,2018-06-29 09:35:00.656250,42.06,61.22
96278,2018-06-29 09:35:00.687500,42.61,61.22
96279,2018-06-29 09:35:00.718750,43.82,61.22
96280,2018-06-29 09:35:00.750000,44.82,61.22
96281,2018-06-29 09:35:00.781250,45.97,61.22
96282,2018-06-29 09:35:00.812500,46.53,61.22
96283,2018-06-29 09:35:00.843750,44.46,61.22
96284,2018-06-29 09:35:00.875000,39.08,61.22
96285,2018-06-29 09:35:00.906250,32.01,61.22
96286,2018-06-29 09:35:00.937500,25.03,61.22
96287,2018-06-29 09:35:00.968750,18.41,61.22
96288,2018-06-29 09:35:01.000000,11.3,61.22
96289,2018-06-29 09:35:01.031250,3.07,61.22
96290,2018-06-29 09:35:01.062500,-5.78,61.22
96291,2018-06-29 09:35:01.093750,-13.59,61.22
96292,2018-06-29 09:35:01.125000,-19.52,61.22
96293,2018-06-29 09:35:01.156250,-24.54,61.22
96294,2018-06-29 09:35:01.187500,-29.9,61.22
96295,2018-06-29 09:35:01.218750,-34.95,61.22
96296,2018-06-29 09:35:01.250000,-38.34,61.22
96297,2018-06-29 09:35:01.281250,-40.72,61.22
96298,2018-06-29 09:35:01.312500,-45.05,61.22
96299,2018-06-29 09:35:01.343750,-54.43,61.22
96300,2018-06-29 09:35:01.375000,-67.09,61.22
96301,2018-06-29 09:35:01.406250,-72.81,61.22
96302,2018-06-29 09:35:01.437500,-61.07,61.22
96303,2018-06-29 09:35:01.468750,-34.1,61.22
96304,2018-06-29 09:35:01.500000,-5.19,61.22
96305,2018-06-29 09:35:01.531250,15.96,61.28
96306,2018-06-29 09:35:01.562500,28.97,61.28
96307,2018-06-29 09:35:01.593750,36.31,61.28
96308,2018-06-29 09:35:01.625000,38.84,61.28
96309,2018-06-29 09:35:01.656250,37.98,61.28
96310,2018-06-29 09:35:01.687500,36.46,61.28
96311,2018-06-29 09:35:01.718750,35.8,61.28
96312,2018-06-29 09:35:01.750000,35.51,61.28
96313,2018-06-29 09:35:01.781250,35.44,61.28
96314,2018-06-29 09:35:01.812500,35.93,61.28
96315,2018-06-29 09:35:01.843750,35.92,61.28
96316,2018-06-29 09:35:01.875000,33.61,61.28
96317,2018-06-29 09:35:01.906250,29.03,61.28
96318,2018-06-29 09:35:01.937500,23.72,61.28
96319,2018-06-29 09:35:01.968750,18.78,61.28
96320,2018-06-29 09:35:02.000000,13.81,61.28
96321,2018-06-29 09:35:02.031250,7.82,61.28
96322,2018-06-29 09:35:02.062500,0.69,61.28
96323,2018-06-29 09:35:02.093750,-5.9,61.28
96324,2018-06-29 09:35:02.125000,-10.65,61.28
96325,2018-06-29 09:35:02.156250,-14.9,61.28
96326,2018-06-29 09:35:02.187500,-21.32,61.28
96327,2018-06-29 09:35:02.218750,-30.15,61.28
96328,2018-06-29 09:35:02.250000,-38.69,61.28
96329,2018-06-29 09:35:02.281250,-45.21,61.28
96330,2018-06-29 09:35:02.312500,-52.07,61.28
96331,2018-06-29 09:35:02.343750,-62.88,61.28
96332,2018-06-29 09:35:02.375000,-75.73,61.28
96333,2018-06-29 09:35:02.406250,-80.92,61.28
96334,2018-06-29 09:35:02.437500,-69.55,61.28
96335,2018-06-29 09:35:02.468750,-43.82,61.28
96336,2018-06-29 09:35:02.500000,-15.23,61.28
96337,2018-06-29 09:35:02.531250,6.39,61.35
96338,2018-06-29 09:35:02.562500,19.02,61.35
96339,2018-06-29 09:35:02.593750,25.43,61.35
96340,2018-06-29 09:35:02.625000,28.66,61.35
96341,2018-06-29 09:35:02.656250,30.12,61.35
96342,2018-06-29 09:35:02.687500,30.59,61.35
96343,2018-06-29 09:35:02.718750,31.45,61.35
96344,2018-06-29 09:35:02.750000,33.62,61.35
96345,2018-06-29 09:35:02.781250,36.62,61.35
96346,2018-06-29 09:35:02.812500,39.75,61.35
96347,2018-06-29 09:35:02.843750,42.01,61.35
96348,2018-06-29 09:35:02.875000,40.86,61.35
96349,2018-06-29 09:35:02.906250,34.31,61.35
96350,2018-06-29 09:35:02.937500,24.21,61.35
96351,2018-06-29 09:35:02.968750,14.53,61.35
96352,2018-06-29 09:35:03.000000,6.86,61.35
96353,2018-06-29 09:35:03.031250,0.0,61.35
96354,2018-06-29 09:35:03.062500,-6.41,61.35
96355,2018-06-29 09:35:03.093750,-10.84,61.35
96356,2018-06-29 09:35:03.125000,-12.81,61.35
96357,2018-06-29 09:35:03.156250,-14.47,61.35
96358,2018-06-29 09:35:03.187500,-18.33,61.35
96359,2018-06-29 09:35:03.218750,-24.44,61.35
96360,2018-06-29 09:35:03.250000,-30.87,61.35
96361,2018-06-29 09:35:03.281250,-36.61,61.35
96362,2018-06-29 09:35:03.312500,-42.96,61.35
96363,2018-06-29 09:35:03.343750,-52.03,61.35
96364,2018-06-29 09:35:03.375000,-63.03,61.35
96365,2018-06-29 09:35:03.406250,-69.16,61.35
96366,2018-06-29 09:35:03.437500,-61.24,61.35
96367,2018-06-29 09:35:03.468750,-37.87,61.35
96368,2018-06-29 09:35:03.500000,-9.09,61.35
96369,2018-06-29 09:35:03.531250,13.39,61.37
96370,2018-06-29 09:35:03.562500,26.04,61.37
96371,2018-06-29 09:35:03.593750,32.2,61.37
96372,2018-06-29 09:35:03.625000,35.4,61.37
96373,2018-06-29 09:35:03.656250,36.81,61.37
96374,2018-06-29 09:35:03.687500,37.25,61.37
96375,2018-06-29 09:35:03.718750,38.22,61.37
96376,2018-06-29 09:35:03.750000,39.86,61.37
96377,2018-06-29 09:35:03.781250,40.19,61.37
96378,2018-06-29 09:35:03.812500,37.95,61.37
96379,2018-06-29 09:35:03.843750,33.92,61.37
96380,2018-06-29 09:35:03.875000,28.9,61.37
96381,2018-06-29 09:35:03.906250,22.5,61.37
96382,2018-06-29 09:35:03.937500,14.57,61.37
96383,2018-06-29 09:35:03.968750,6.18,61.37
96384,2018-06-29 09:35:04.000000,-1.73,61.37
96385,2018-06-29 09:35:04.031250,-9.65,61.37
96386,2018-06-29 09:35:04.062500,-18.37,61.37
96387,2018-06-29 09:35:04.093750,-27.14,61.37
96388,2018-06-29 09:35:04.125000,-34.25,61.37
96389,2018-06-29 09:35:04.156250,-39.05,61.37
96390,2018-06-29 09:35:04.187500,-42.84,61.37
96391,2018-06-29 09:35:04.218750,-48.44,61.37
96392,2018-06-29 09:35:04.250000,-57.49,61.37
96393,2018-06-29 09:35:04.281250,-65.61,61.37
96394,2018-06-29 09:35:04.312500,-62.78,61.37
96395,2018-06-29 09:35:04.343750,-43.95,61.37
96396,2018-06-29 09:35:04.375000,-16.47,61.37
96397,2018-06-29 09:35:04.406250,7.66,61.37
96398,2018-06-29 09:35:04.437500,23.36,61.37
96399,2018-06-29 09:35:04.468750,32.64,61.37
96400,2018-06-29 09:35:04.500000,38.18,61.37
96401,2018-06-29 09:35:04.531250,41.42,61.48
96402,2018-06-29 09:35:04.562500,43.06,61.48
96403,2018-06-29 09:35:04.593750,43.25,61.48
96404,2018-06-29 09:35:04.625000,41.84,61.48
96405,2018-06-29 09:35:04.656250,38.78,61.48
96406,2018-06-29 09:35:04.687500,34.62,61.48
96407,2018-06-29 09:35:04.718750,30.74,61.48
96408,2018-06-29 09:35:04.750000,27.48,61.48
96409,2018-06-29 09:35:04.781250,22.9,61.48
96410,2018-06-29 09:35:04.812500,15.34,61.48
96411,2018-06-29 09:35:04.843750,6.12,61.48
96412,2018-06-29 09:35:04.875000,-2.05,61.48
96413,2018-06-29 09:35:04.906250,-8.35,61.48
96414,2018-06-29 09:35:04.937500,-14.65,61.48
96415,2018-06-29 09:35:04.968750,-22.69,61.48
96416,2018-06-29 09:35:05.000000,-31.32,61.48
96417,2018-06-29 09:35:05.031250,-38.4,61.48
96418,2018-06-29 09:35:05.062500,-44.25,61.48
96419,2018-06-29 09:35:05.093750,-51.3,61.48
96420,2018-06-29 09:35:05.125000,-61.32,61.48
96421,2018-06-29 09:35:05.156250,-72.08,61.48
96422,2018-06-29 09:35:05.187500,-75.4,61.48
96423,2018-06-29 09:35:05.218750,-62.81,61.48
96424,2018-06-29 09:35:05.250000,-35.93,61.48
96425,2018-06-29 09:35:05.281250,-6.66,61.48
96426,2018-06-29 09:35:05.312500,14.54,61.48
96427,2018-06-29 09:35:05.343750,26.07,61.48
96428,2018-06-29 09:35:05.375000,31.87,61.48
96429,2018-06-29 09:35:05.406250,35.43,61.48
96430,2018-06-29 09:35:05.437500,37.37,61.48
96431,2018-06-29 09:35:05.468750,37.16,61.48
96432,2018-06-29 09:35:05.500000,35.22,61.48
96433,2018-06-29 09:35:05.531250,32.72,61.58
96434,2018-06-29 09:35:05.562500,30.68,61.58
96435,2018-06-29 09:35:05.593750,29.34,61.58
96436,2018-06-29 09:35:05.625000,27.75,61.58
96437,2018-06-29 09:35:05.656250,24.27,61.58
96438,2018-06-29 09:35:05.687500,18.8,61.58
96439,2018-06-29 09:35:05.718750,12.41,61.58
96440,2018-06-29 09:35:05.750000,5.35,61.58
96441,2018-06-29 09:35:05.781250,-2.45,61.58
96442,2018-06-29 09:35:05.812500,-10.02,61.58
96443,2018-06-29 09:35:05.843750,-16.8,61.58
96444,2018-06-29 09:35:05.875000,-23.53,61.58
96445,2018-06-29 09:35:05.906250,-30.38,61.58
96446,2018-06-29 09:35:05.937500,-36.21,61.58
96447,2018-06-29 09:35:05.968750,-41.04,61.58
96448,2018-06-29 09:35:06.000000,-47.43,61.58
96449,2018-06-29 09:35:06.031250,-58.21,61.58
96450,2018-06-29 09:35:06.062500,-73.2,61.58
96451,2018-06-29 09:35:06.093750,-86.73,61.58
96452,2018-06-29 09:35:06.125000,-88.35,61.58
96453,2018-06-29 09:35:06.156250,-71.34,61.58
96454,2018-06-29 09:35:06.187500,-41.61,61.58
96455,2018-06-29 09:35:06.218750,-12.57,61.58
96456,2018-06-29 09:35:06.250000,7.8,61.58
96457,2018-06-29 09:35:06.281250,19.78,61.58
96458,2018-06-29 09:35:06.312500,26.33,61.58
96459,2018-06-29 09:35:06.343750,29.85,61.58
96460,2018-06-29 09:35:06.375000,32.01,61.58
96461,2018-06-29 09:35:06.406250,33.89,61.58
96462,2018-06-29 09:35:06.437500,36.21,61.58
96463,2018-06-29 09:35:06.468750,38.86,61.58
96464,2018-06-29 09:35:06.500000,40.78,61.58
96465,2018-06-29 09:35:06.531250,41.27,61.67
96466,2018-06-29 09:35:06.562500,40.06,61.67
96467,2018-06-29 09:35:06.593750,36.19,61.67
96468,2018-06-29 09:35:06.625000,28.67,61.67
96469,2018-06-29 09:35:06.656250,18.13,61.67
96470,2018-06-29 09:35:06.687500,6.72,61.67
96471,2018-06-29 09:35:06.718750,-3.63,61.67
96472,2018-06-29 09:35:06.750000,-12.13,61.67
96473,2018-06-29 09:35:06.781250,-18.85,61.67
96474,2018-06-29 09:35:06.812500,-24.24,61.67
96475,2018-06-29 09:35:06.843750,-28.84,61.67
96476,2018-06-29 09:35:06.875000,-33.52,61.67
96477,2018-06-29 09:35:06.906250,-39.69,61.67
96478,2018-06-29 09:35:06.937500,-48.71,61.67
96479,2018-06-29 09:35:06.968750,-59.23,61.67
96480,2018-06-29 09:35:07.000000,-64.0,61.67
96481,2018-06-29 09:35:07.031250,-52.92,61.67
96482,2018-06-29 09:35:07.062500,-23.84,61.67
96483,2018-06-29 09:35:07.093750,11.99,61.67
96484,2018-06-29 09:35:07.125000,40.45,61.67
96485,2018-06-29 09:35:07.156250,57.27,61.67
96486,2018-06-29 09:35:07.187500,66.27,61.67
96487,2018-06-29 09:35:07.218750,70.61,61.67
96488,2018-06-29 09:35:07.250000,71.3,61.67
96489,2018-06-29 09:35:07.281250,69.99,61.67
96490,2018-06-29 09:35:07.312500,67.63,61.67
96491,2018-06-29 09:35:07.343750,63.6,61.67
96492,2018-06-29 09:35:07.375000,58.5,61.67
96493,2018-06-29 09:35:07.406250,54.69,61.67
96494,2018-06-29 09:35:07.437500,52.52,61.67
96495,2018-06-29 09:35:07.468750,48.84,61.67
96496,2018-06-29 09:35:07.500000,40.47,61.67
96497,2018-06-29 09:35:07.531250,27.39,61.68
96498,2018-06-29 09:35:07.562500,12.34,61.68
96499,2018-06-29 09:35:07.593750,-1.89,61.68
96500,2018-06-29 09:35:07.625000,-15.07,61.68
96501,2018-06-29 09:35:07.656250,-28.82,61.68
96502,2018-06-29 09:35:07.687500,-43.67,61.68
96503,2018-06-29 09:35:07.718750,-57.17,61.68
96504,2018-06-29 09:35:07.750000,-65.94,61.68
96505,2018-06-29 09:35:07.781250,-69.78,61.68
96506,2018-06-29 09:35:07.812500,-73.25,61.68
96507,2018-06-29 09:35:07.843750,-81.85,61.68
96508,2018-06-29 09:35:07.875000,-94.34,61.68
96509,2018-06-29 09:35:07.906250,-99.02,61.68
96510,2018-06-29 09:35:07.937500,-83.12,61.68
96511,2018-06-29 09:35:07.968750,-48.2,61.68
96512,2018-06-29 09:35:08.000000,-9.97,61.68
96513,2018-06-29 09:35:08.031250,18.56,61.68
96514,2018-06-29 09:35:08.062500,36.87,61.68
96515,2018-06-29 09:35:08.093750,49.83,61.68
96516,2018-06-29 09:35:08.125000,59.05,61.68
96517,2018-06-29 09:35:08.156250,63.17,61.68
96518,2018-06-29 09:35:08.187500,62.01,61.68
96519,2018-06-29 09:35:08.218750,58.36,61.68
96520,2018-06-29 09:35:08.250000,55.04,61.68
96521,2018-06-29 09:35:08.281250,52.54,61.68
96522,2018-06-29 09:35:08.312500,50.77,61.68
96523,2018-06-29 09:35:08.343750,50.35,61.68
96524,2018-06-29 09:35:08.375000,49.81,61.68
96525,2018-06-29 09:35:08.406250,45.84,61.68
96526,2018-06-29 09:35:08.437500,39.26,61.68
96527,2018-06-29 09:35:08.468750,35.13,61.68
96528,2018-06-29 09:35:08.500000,33.37,61.68
96529,2018-06-29 09:35:08.531250,26.54,62.2
96530,2018-06-29 09:35:08.562500,12.29,62.2
96531,2018-06-29 09:35:08.593750,-0.04,62.2
96532,2018-06-29 09:35:08.625000,-3.0,62.2
96533,2018-06-29 09:35:08.656250,-2.48,62.2
96534,2018-06-29 09:35:08.687500,-10.2,62.2
96535,2018-06-29 09:35:08.718750,-31.5,62.2
96536,2018-06-29 09:35:08.750000,-59.03,62.2
96537,2018-06-29 09:35:08.781250,-74.04,62.2
96538,2018-06-29 09:35:08.812500,-68.0,62.2
96539,2018-06-29 09:35:08.843750,-62.17,62.2
96540,2018-06-29 09:35:08.875000,-78.45,62.2
96541,2018-06-29 09:35:08.906250,-101.24,62.2
96542,2018-06-29 09:35:08.937500,-94.74,62.2
96543,2018-06-29 09:35:08.968750,-44.09,62.2
96544,2018-06-29 09:35:09.000000,36.69,62.2
96545,2018-06-29 09:35:09.031250,120.82,62.2
96546,2018-06-29 09:35:09.062500,186.75,62.2
96547,2018-06-29 09:35:09.093750,227.27,62.2
96548,2018-06-29 09:35:09.125000,239.74,62.2
96549,2018-06-29 09:35:09.156250,219.14,62.2
96550,2018-06-29 09:35:09.187500,168.56,62.2
96551,2018-06-29 09:35:09.218750,100.82,62.2
96552,2018-06-29 09:35:09.250000,29.18,62.2
96553,2018-06-29 09:35:09.281250,-32.44,62.2
96554,2018-06-29 09:35:09.312500,-71.19,62.2
96555,2018-06-29 09:35:09.343750,-86.74,62.2
96556,2018-06-29 09:35:09.375000,-90.44,62.2
96557,2018-06-29 09:35:09.406250,-90.47,62.2
96558,2018-06-29 09:35:09.437500,-88.23,62.2
96559,2018-06-29 09:35:09.468750,-87.6,62.2
96560,2018-06-29 09:35:09.500000,-98.08,62.2
96561,2018-06-29 09:35:09.531250,-126.26,62.68
96562,2018-06-29 09:35:09.562500,-168.47,62.68
96563,2018-06-29 09:35:09.593750,-211.05,62.68
96564,2018-06-29 09:35:09.625000,-237.53,62.68
96565,2018-06-29 09:35:09.656250,-245.94,62.68
96566,2018-06-29 09:35:09.687500,-248.67,62.68
96567,2018-06-29 09:35:09.718750,-240.54,62.68
96568,2018-06-29 09:35:09.750000,-191.52,62.68
96569,2018-06-29 09:35:09.781250,-92.41,62.68
96570,2018-06-29 09:35:09.812500,20.77,62.68
96571,2018-06-29 09:35:09.843750,103.42,62.68
96572,2018-06-29 09:35:09.875000,136.67,62.68
96573,2018-06-29 09:35:09.906250,123.65,62.68
96574,2018-06-29 09:35:09.937500,81.11,62.68
96575,2018-06-29 09:35:09.968750,35.75,62.68
96576,2018-06-29 09:35:10.000000,10.13,62.68
96577,2018-06-29 09:35:10.031250,7.51,62.68
96578,2018-06-29 09:35:10.062500,15.67,62.68
96579,2018-06-29 09:35:10.093750,24.04,62.68
96580,2018-06-29 09:35:10.125000,31.1,62.68
96581,2018-06-29 09:35:10.156250,37.22,62.68
96582,2018-06-29 09:35:10.187500,39.64,62.68
96583,2018-06-29 09:35:10.218750,36.49,62.68
96584,2018-06-29 09:35:10.250000,30.12,62.68
96585,2018-06-29 09:35:10.281250,25.39,62.68
96586,2018-06-29 09:35:10.312500,26.66,62.68
96587,2018-06-29 09:35:10.343750,34.46,62.68
96588,2018-06-29 09:35:10.375000,42.76,62.68
96589,2018-06-29 09:35:10.406250,41.29,62.68
96590,2018-06-29 09:35:10.437500,21.78,62.68
96591,2018-06-29 09:35:10.468750,-15.31,62.68
96592,2018-06-29 09:35:10.500000,-56.14,62.68
96593,2018-06-29 09:35:10.531250,-78.06,63.13
96594,2018-06-29 09:35:10.562500,-67.38,63.13
96595,2018-06-29 09:35:10.593750,-33.71,63.13
96596,2018-06-29 09:35:10.625000,-0.69,63.13
96597,2018-06-29 09:35:10.656250,17.45,63.13
96598,2018-06-29 09:35:10.687500,25.97,63.13
96599,2018-06-29 09:35:10.718750,37.61,63.13
96600,2018-06-29 09:35:10.750000,55.51,63.13
96601,2018-06-29 09:35:10.781250,71.8,63.13
96602,2018-06-29 09:35:10.812500,79.16,63.13
96603,2018-06-29 09:35:10.843750,76.52,63.13
96604,2018-06-29 09:35:10.875000,66.38,63.13
96605,2018-06-29 09:35:10.906250,53.87,63.13
96606,2018-06-29 09:35:10.937500,45.7,63.13
96607,2018-06-29 09:35:10.968750,44.07,63.13
96608,2018-06-29 09:35:11.000000,44.27,63.13
96609,2018-06-29 09:35:11.031250,41.07,63.13
96610,2018-06-29 09:35:11.062500,33.87,63.13
96611,2018-06-29 09:35:11.093750,24.67,63.13
96612,2018-06-29 09:35:11.125000,14.05,63.13
96613,2018-06-29 09:35:11.156250,1.2,63.13
96614,2018-06-29 09:35:11.187500,-12.51,63.13
96615,2018-06-29 09:35:11.218750,-23.55,63.13
96616,2018-06-29 09:35:11.250000,-31.24,63.13
96617,2018-06-29 09:35:11.281250,-39.63,63.13
96618,2018-06-29 09:35:11.312500,-53.1,63.13
96619,2018-06-29 09:35:11.343750,-69.46,63.13
96620,2018-06-29 09:35:11.375000,-78.7,63.13
96621,2018-06-29 09:35:11.406250,-69.76,63.13
96622,2018-06-29 09:35:11.437500,-41.53,63.13
96623,2018-06-29 09:35:11.468750,-4.91,63.13
96624,2018-06-29 09:35:11.500000,26.69,63.13
96625,2018-06-29 09:35:11.531250,46.55,63.65
96626,2018-06-29 09:35:11.562500,56.3,63.65
96627,2018-06-29 09:35:11.593750,60.62,63.65
96628,2018-06-29 09:35:11.625000,64.74,63.65
96629,2018-06-29 09:35:11.656250,68.01,63.65
96630,2018-06-29 09:35:11.687500,69.82,63.65
96631,2018-06-29 09:35:11.718750,74.91,63.65
96632,2018-06-29 09:35:11.750000,91.01,63.65
96633,2018-06-29 09:35:11.781250,117.94,63.65
96634,2018-06-29 09:35:11.812500,144.67,63.65
96635,2018-06-29 09:35:11.843750,166.95,63.65
96636,2018-06-29 09:35:11.875000,189.15,63.65
96637,2018-06-29 09:35:11.906250,222.23,63.65
96638,2018-06-29 09:35:11.937500,256.36,63.65
96639,2018-06-29 09:35:11.968750,267.64,63.65
96640,2018-06-29 09:35:12.000000,245.26,63.65
96641,2018-06-29 09:35:12.031250,210.53,63.65
96642,2018-06-29 09:35:12.062500,192.66,63.65
96643,2018-06-29 09:35:12.093750,187.87,63.65
96644,2018-06-29 09:35:12.125000,180.07,63.65
96645,2018-06-29 09:35:12.156250,109.72,63.65
96646,2018-06-29 09:35:12.187500,-32.72,63.65
96647,2018-06-29 09:35:12.218750,-144.73,63.65
96648,2018-06-29 09:35:12.250000,-178.64,63.65
96649,2018-06-29 09:35:12.281250,-156.01,63.65
96650,2018-06-29 09:35:12.312500,-101.34,63.65
96651,2018-06-29 09:35:12.343750,-37.5,63.65
96652,2018-06-29 09:35:12.375000,-2.39,63.65
96653,2018-06-29 09:35:12.406250,-7.31,63.65
96654,2018-06-29 09:35:12.437500,-36.24,63.65
96655,2018-06-29 09:35:12.468750,-68.1,63.65
96656,2018-06-29 09:35:12.500000,-107.19,63.65
96657,2018-06-29 09:35:12.531250,-159.66,64.13
96658,2018-06-29 09:35:12.562500,-208.74,64.13
96659,2018-06-29 09:35:12.593750,-232.41,64.13
96660,2018-06-29 09:35:12.625000,-223.89,64.13
96661,2018-06-29 09:35:12.656250,-197.83,64.13
96662,2018-06-29 09:35:12.687500,-169.81,64.13
96663,2018-06-29 09:35:12.718750,-148.97,64.13
96664,2018-06-29 09:35:12.750000,-134.78,64.13
96665,2018-06-29 09:35:12.781250,-124.31,64.13
96666,2018-06-29 09:35:12.812500,-114.04,64.13
96667,2018-06-29 09:35:12.843750,-102.11,64.13
96668,2018-06-29 09:35:12.875000,-90.67,64.13
96669,2018-06-29 09:35:12.906250,-84.32,64.13
96670,2018-06-29 09:35:12.937500,-83.81,64.13
96671,2018-06-29 09:35:12.968750,-78.99,64.13
96672,2018-06-29 09:35:13.000000,-58.19,64.13
96673,2018-06-29 09:35:13.031250,-22.66,64.13
96674,2018-06-29 09:35:13.062500,14.18,64.13
96675,2018-06-29 09:35:13.093750,40.76,64.13
96676,2018-06-29 09:35:13.125000,54.81,64.13
96677,2018-06-29 09:35:13.156250,59.81,64.13
96678,2018-06-29 09:35:13.187500,59.16,64.13
96679,2018-06-29 09:35:13.218750,54.97,64.13
96680,2018-06-29 09:35:13.250000,49.63,64.13
96681,2018-06-29 09:35:13.281250,45.54,64.13
96682,2018-06-29 09:35:13.312500,42.74,64.13
96683,2018-06-29 09:35:13.343750,39.48,64.13
96684,2018-06-29 09:35:13.375000,35.36,64.13
96685,2018-06-29 09:35:13.406250,30.43,64.13
96686,2018-06-29 09:35:13.437500,22.83,64.13
96687,2018-06-29 09:35:13.468750,10.71,64.13
96688,2018-06-29 09:35:13.500000,-4.33,64.13
96689,2018-06-29 09:35:13.531250,-18.3,64.63
96690,2018-06-29 09:35:13.562500,-29.04,64.63
96691,2018-06-29 09:35:13.593750,-38.27,64.63
96692,2018-06-29 09:35:13.625000,-50.09,64.63
96693,2018-06-29 09:35:13.656250,-66.67,64.63
96694,2018-06-29 09:35:13.687500,-82.64,64.63
96695,2018-06-29 09:35:13.718750,-85.26,64.63
96696,2018-06-29 09:35:13.750000,-65.78,64.63
96697,2018-06-29 09:35:13.781250,-30.66,64.63
96698,2018-06-29 09:35:13.812500,4.36,64.63
96699,2018-06-29 09:35:13.843750,29.83,64.63
96700,2018-06-29 09:35:13.875000,46.49,64.63
96701,2018-06-29 09:35:13.906250,57.13,64.63
96702,2018-06-29 09:35:13.937500,61.95,64.63
96703,2018-06-29 09:35:13.968750,61.09,64.63
96704,2018-06-29 09:35:14.000000,56.5,64.63
96705,2018-06-29 09:35:14.031250,50.38,64.63
96706,2018-06-29 09:35:14.062500,43.53,64.63
96707,2018-06-29 09:35:14.093750,36.16,64.63
96708,2018-06-29 09:35:14.125000,29.21,64.63
96709,2018-06-29 09:35:14.156250,22.6,64.63
96710,2018-06-29 09:35:14.187500,13.74,64.63
96711,2018-06-29 09:35:14.218750,0.15,64.63
96712,2018-06-29 09:35:14.250000,-16.92,64.63
96713,2018-06-29 09:35:14.281250,-33.41,64.63
96714,2018-06-29 09:35:14.312500,-46.91,64.63
96715,2018-06-29 09:35:14.343750,-58.87,64.63
96716,2018-06-29 09:35:14.375000,-72.75,64.63
96717,2018-06-29 09:35:14.406250,-90.18,64.63
96718,2018-06-29 09:35:14.437500,-105.52,64.63
96719,2018-06-29 09:35:14.468750,-104.29,64.63
96720,2018-06-29 09:35:14.500000,-75.05,64.63
96721,2018-06-29 09:35:14.531250,-24.32,65.07
96722,2018-06-29 09:35:14.562500,27.33,65.07
96723,2018-06-29 09:35:14.593750,63.93,65.07
96724,2018-06-29 09:35:14.625000,82.8,65.07
96725,2018-06-29 09:35:14.656250,88.79,65.07
96726,2018-06-29 09:35:14.687500,88.05,65.07
96727,2018-06-29 09:35:14.718750,85.51,65.07
96728,2018-06-29 09:35:14.750000,82.31,65.07
96729,2018-06-29 09:35:14.781250,76.33,65.07
96730,2018-06-29 09:35:14.812500,67.47,65.07
96731,2018-06-29 09:35:14.843750,59.4,65.07
96732,2018-06-29 09:35:14.875000,54.04,65.07
96733,2018-06-29 09:35:14.906250,48.44,65.07
96734,2018-06-29 09:35:14.937500,39.0,65.07
96735,2018-06-29 09:35:14.968750,25.7,65.07
96736,2018-06-29 09:35:15.000000,10.94,65.07
96737,2018-06-29 09:35:15.031250,-3.82,65.07
96738,2018-06-29 09:35:15.062500,-18.96,65.07
96739,2018-06-29 09:35:15.093750,-34.44,65.07
96740,2018-06-29 09:35:15.125000,-47.84,65.07
96741,2018-06-29 09:35:15.156250,-56.98,65.07
96742,2018-06-29 09:35:15.187500,-64.01,65.07
96743,2018-06-29 09:35:15.218750,-74.02,65.07
96744,2018-06-29 09:35:15.250000,-87.18,65.07
96745,2018-06-29 09:35:15.281250,-93.81,65.07
96746,2018-06-29 09:35:15.312500,-81.88,65.07
96747,2018-06-29 09:35:15.343750,-50.98,65.07
96748,2018-06-29 09:35:15.375000,-13.89,65.07
96749,2018-06-29 09:35:15.406250,16.9,65.07
96750,2018-06-29 09:35:15.437500,38.31,65.07
96751,2018-06-29 09:35:15.468750,52.31,65.07
96752,2018-06-29 09:35:15.500000,59.79,65.07
96753,2018-06-29 09:35:15.531250,61.33,65.48
96754,2018-06-29 09:35:15.562500,59.35,65.48
96755,2018-06-29 09:35:15.593750,56.59,65.48
96756,2018-06-29 09:35:15.625000,54.18,65.48
96757,2018-06-29 09:35:15.656250,52.61,65.48
96758,2018-06-29 09:35:15.687500,52.13,65.48
96759,2018-06-29 09:35:15.718750,50.9,65.48
96760,2018-06-29 09:35:15.750000,46.35,65.48
96761,2018-06-29 09:35:15.781250,38.85,65.48
96762,2018-06-29 09:35:15.812500,30.5,65.48
96763,2018-06-29 09:35:15.843750,21.42,65.48
96764,2018-06-29 09:35:15.875000,10.83,65.48
96765,2018-06-29 09:35:15.906250,0.06,65.48
96766,2018-06-29 09:35:15.937500,-9.03,65.48
96767,2018-06-29 09:35:15.968750,-17.32,65.48
96768,2018-06-29 09:35:16.000000,-26.85,65.48
96769,2018-06-29 09:35:16.031250,-37.25,65.48
96770,2018-06-29 09:35:16.062500,-46.58,65.48
96771,2018-06-29 09:35:16.093750,-54.79,65.48
96772,2018-06-29 09:35:16.125000,-64.65,65.48
96773,2018-06-29 09:35:16.156250,-78.9,65.48
96774,2018-06-29 09:35:16.187500,-94.82,65.48
96775,2018-06-29 09:35:16.218750,-100.49,65.48
96776,2018-06-29 09:35:16.250000,-83.85,65.48
96777,2018-06-29 09:35:16.281250,-48.37,65.48
96778,2018-06-29 09:35:16.312500,-11.17,65.48
96779,2018-06-29 09:35:16.343750,15.54,65.48
96780,2018-06-29 09:35:16.375000,32.26,65.48
96781,2018-06-29 09:35:16.406250,42.54,65.48
96782,2018-06-29 09:35:16.437500,46.9,65.48
96783,2018-06-29 09:35:16.468750,46.86,65.48
96784,2018-06-29 09:35:16.500000,46.16,65.48
96785,2018-06-29 09:35:16.531250,46.12,65.93
96786,2018-06-29 09:35:16.562500,45.04,65.93
96787,2018-06-29 09:35:16.593750,43.05,65.93
96788,2018-06-29 09:35:16.625000,42.27,65.93
96789,2018-06-29 09:35:16.656250,41.63,65.93
96790,2018-06-29 09:35:16.687500,37.03,65.93
96791,2018-06-29 09:35:16.718750,27.25,65.93
96792,2018-06-29 09:35:16.750000,15.93,65.93
96793,2018-06-29 09:35:16.781250,6.79,65.93
96794,2018-06-29 09:35:16.812500,-0.61,65.93
96795,2018-06-29 09:35:16.843750,-9.5,65.93
96796,2018-06-29 09:35:16.875000,-20.81,65.93
96797,2018-06-29 09:35:16.906250,-31.39,65.93
96798,2018-06-29 09:35:16.937500,-38.45,65.93
96799,2018-06-29 09:35:16.968750,-43.92,65.93
96800,2018-06-29 09:35:17.000000,-52.6,65.93
96801,2018-06-29 09:35:17.031250,-66.24,65.93
96802,2018-06-29 09:35:17.062500,-79.16,65.93
96803,2018-06-29 09:35:17.093750,-79.95,65.93
96804,2018-06-29 09:35:17.125000,-61.0,65.93
96805,2018-06-29 09:35:17.156250,-27.92,65.93
96806,2018-06-29 09:35:17.187500,4.57,65.93
96807,2018-06-29 09:35:17.218750,26.83,65.93
96808,2018-06-29 09:35:17.250000,39.51,65.93
96809,2018-06-29 09:35:17.281250,45.67,65.93
96810,2018-06-29 09:35:17.312500,45.86,65.93
96811,2018-06-29 09:35:17.343750,42.16,65.93
96812,2018-06-29 09:35:17.375000,39.1,65.93
96813,2018-06-29 09:35:17.406250,38.67,65.93
96814,2018-06-29 09:35:17.437500,38.95,65.93
96815,2018-06-29 09:35:17.468750,38.52,65.93
96816,2018-06-29 09:35:17.500000,37.49,65.93
96817,2018-06-29 09:35:17.531250,34.31,66.33
96818,2018-06-29 09:35:17.562500,26.83,66.33
96819,2018-06-29 09:35:17.593750,16.38,66.33
96820,2018-06-29 09:35:17.625000,6.53,66.33
96821,2018-06-29 09:35:17.656250,-2.2,66.33
96822,2018-06-29 09:35:17.687500,-12.2,66.33
96823,2018-06-29 09:35:17.718750,-23.53,66.33
96824,2018-06-29 09:35:17.750000,-33.35,66.33
96825,2018-06-29 09:35:17.781250,-40.72,66.33
96826,2018-06-29 09:35:17.812500,-48.47,66.33
96827,2018-06-29 09:35:17.843750,-60.07,66.33
96828,2018-06-29 09:35:17.875000,-75.07,66.33
96829,2018-06-29 09:35:17.906250,-85.79,66.33
96830,2018-06-29 09:35:17.937500,-80.84,66.33
96831,2018-06-29 09:35:17.968750,-56.63,66.33
96832,2018-06-29 09:35:18.000000,-22.96,66.33
96833,2018-06-29 09:35:18.031250,6.57,66.33
96834,2018-06-29 09:35:18.062500,26.08,66.33
96835,2018-06-29 09:35:18.093750,37.34,66.33
96836,2018-06-29 09:35:18.125000,43.53,66.33
96837,2018-06-29 09:35:18.156250,45.96,66.33
96838,2018-06-29 09:35:18.187500,44.97,66.33
96839,2018-06-29 09:35:18.218750,41.7,66.33
96840,2018-06-29 09:35:18.250000,38.16,66.33
96841,2018-06-29 09:35:18.281250,35.69,66.33
96842,2018-06-29 09:35:18.312500,33.78,66.33
96843,2018-06-29 09:35:18.343750,30.62,66.33
96844,2018-06-29 09:35:18.375000,24.83,66.33
96845,2018-06-29 09:35:18.406250,16.64,66.33
96846,2018-06-29 09:35:18.437500,7.16,66.33
96847,2018-06-29 09:35:18.468750,-2.89,66.33
96848,2018-06-29 09:35:18.500000,-13.02,66.33
96849,2018-06-29 09:35:18.531250,-22.47,66.72
96850,2018-06-29 09:35:18.562500,-30.87,66.72
96851,2018-06-29 09:35:18.593750,-39.44,66.72
96852,2018-06-29 09:35:18.625000,-50.41,66.72
96853,2018-06-29 09:35:18.656250,-64.05,66.72
96854,2018-06-29 09:35:18.687500,-74.82,66.72
96855,2018-06-29 09:35:18.718750,-72.58,66.72
96856,2018-06-29 09:35:18.750000,-52.23,66.72
96857,2018-06-29 09:35:18.781250,-21.31,66.72
96858,2018-06-29 09:35:18.812500,6.85,66.72
96859,2018-06-29 09:35:18.843750,26.19,66.72
96860,2018-06-29 09:35:18.875000,38.64,66.72
96861,2018-06-29 09:35:18.906250,45.97,66.72
96862,2018-06-29 09:35:18.937500,47.46,66.72
96863,2018-06-29 09:35:18.968750,44.31,66.72
96864,2018-06-29 09:35:19.000000,40.88,66.72
96865,2018-06-29 09:35:19.031250,40.32,66.72
96866,2018-06-29 09:35:19.062500,41.49,66.72
96867,2018-06-29 09:35:19.093750,41.93,66.72
96868,2018-06-29 09:35:19.125000,40.88,66.72
96869,2018-06-29 09:35:19.156250,38.01,66.72
96870,2018-06-29 09:35:19.187500,32.18,66.72
96871,2018-06-29 09:35:19.218750,23.45,66.72
96872,2018-06-29 09:35:19.250000,13.75,66.72
96873,2018-06-29 09:35:19.281250,4.81,66.72
96874,2018-06-29 09:35:19.312500,-3.12,66.72
96875,2018-06-29 09:35:19.343750,-10.99,66.72
96876,2018-06-29 09:35:19.375000,-19.9,66.72
96877,2018-06-29 09:35:19.406250,-29.5,66.72
96878,2018-06-29 09:35:19.437500,-37.94,66.72
96879,2018-06-29 09:35:19.468750,-44.53,66.72
96880,2018-06-29 09:35:19.500000,-51.27,66.72
96881,2018-06-29 09:35:19.531250,-61.03,67.02
96882,2018-06-29 09:35:19.562500,-73.97,67.02
96883,2018-06-29 09:35:19.593750,-83.55,67.02
96884,2018-06-29 09:35:19.625000,-78.29,67.02
96885,2018-06-29 09:35:19.656250,-53.83,67.02
96886,2018-06-29 09:35:19.687500,-20.65,67.02
96887,2018-06-29 09:35:19.718750,6.94,67.02
96888,2018-06-29 09:35:19.750000,24.65,67.02
96889,2018-06-29 09:35:19.781250,35.72,67.02
96890,2018-06-29 09:35:19.812500,41.65,67.02
96891,2018-06-29 09:35:19.843750,42.64,67.02
96892,2018-06-29 09:35:19.875000,41.62,67.02
96893,2018-06-29 09:35:19.906250,41.51,67.02
96894,2018-06-29 09:35:19.937500,41.66,67.02
96895,2018-06-29 09:35:19.968750,40.61,67.02
96896,2018-06-29 09:35:20.000000,39.13,67.02
96897,2018-06-29 09:35:20.031250,37.82,67.02
96898,2018-06-29 09:35:20.062500,35.06,67.02
96899,2018-06-29 09:35:20.093750,29.39,67.02
96900,2018-06-29 09:35:20.125000,21.24,67.02
96901,2018-06-29 09:35:20.156250,12.14,67.02
96902,2018-06-29 09:35:20.187500,3.73,67.02
96903,2018-06-29 09:35:20.218750,-3.34,67.02
96904,2018-06-29 09:35:20.250000,-10.35,67.02
96905,2018-06-29 09:35:20.281250,-18.6,67.02
96906,2018-06-29 09:35:20.312500,-27.36,67.02
96907,2018-06-29 09:35:20.343750,-35.05,67.02
96908,2018-06-29 09:35:20.375000,-41.7,67.02
96909,2018-06-29 09:35:20.406250,-49.83,67.02
96910,2018-06-29 09:35:20.437500,-62.35,67.02
96911,2018-06-29 09:35:20.468750,-76.9,67.02
96912,2018-06-29 09:35:20.500000,-82.63,67.02
96913,2018-06-29 09:35:20.531250,-69.38,67.3
96914,2018-06-29 09:35:20.562500,-40.42,67.3
96915,2018-06-29 09:35:20.593750,-9.3,67.3
96916,2018-06-29 09:35:20.625000,14.32,67.3
96917,2018-06-29 09:35:20.656250,29.58,67.3
96918,2018-06-29 09:35:20.687500,38.49,67.3
96919,2018-06-29 09:35:20.718750,42.7,67.3
96920,2018-06-29 09:35:20.750000,43.86,67.3
96921,2018-06-29 09:35:20.781250,43.21,67.3
96922,2018-06-29 09:35:20.812500,41.51,67.3
96923,2018-06-29 09:35:20.843750,39.93,67.3
96924,2018-06-29 09:35:20.875000,39.67,67.3
96925,2018-06-29 09:35:20.906250,40.52,67.3
96926,2018-06-29 09:35:20.937500,40.43,67.3
96927,2018-06-29 09:35:20.968750,37.56,67.3
96928,2018-06-29 09:35:21.000000,31.75,67.3
96929,2018-06-29 09:35:21.031250,24.15,67.3
96930,2018-06-29 09:35:21.062500,15.88,67.3
96931,2018-06-29 09:35:21.093750,7.71,67.3
96932,2018-06-29 09:35:21.125000,0.22,67.3
96933,2018-06-29 09:35:21.156250,-6.67,67.3
96934,2018-06-29 09:35:21.187500,-13.81,67.3
96935,2018-06-29 09:35:21.218750,-21.91,67.3
96936,2018-06-29 09:35:21.250000,-30.24,67.3
96937,2018-06-29 09:35:21.281250,-37.37,67.3
96938,2018-06-29 09:35:21.312500,-43.69,67.3
96939,2018-06-29 09:35:21.343750,-51.81,67.3
96940,2018-06-29 09:35:21.375000,-63.98,67.3
96941,2018-06-29 09:35:21.406250,-77.41,67.3
96942,2018-06-29 09:35:21.437500,-82.35,67.3
96943,2018-06-29 09:35:21.468750,-69.21,67.3
96944,2018-06-29 09:35:21.500000,-39.96,67.3
96945,2018-06-29 09:35:21.531250,-8.15,67.37
96946,2018-06-29 09:35:21.562500,15.09,67.37
96947,2018-06-29 09:35:21.593750,29.09,67.37
96948,2018-06-29 09:35:21.625000,37.51,67.37
96949,2018-06-29 09:35:21.656250,41.65,67.37
96950,2018-06-29 09:35:21.687500,42.05,67.37
96951,2018-06-29 09:35:21.718750,40.84,67.37
96952,2018-06-29 09:35:21.750000,39.96,67.37
96953,2018-06-29 09:35:21.781250,39.76,67.37
96954,2018-06-29 09:35:21.812500,40.21,67.37
96955,2018-06-29 09:35:21.843750,41.06,67.37
96956,2018-06-29 09:35:21.875000,40.81,67.37
96957,2018-06-29 09:35:21.906250,37.81,67.37
96958,2018-06-29 09:35:21.937500,32.22,67.37
96959,2018-06-29 09:35:21.968750,25.61,67.37
96960,2018-06-29 09:35:22.000000,18.65,67.37
96961,2018-06-29 09:35:22.031250,11.2,67.37
96962,2018-06-29 09:35:22.062500,3.56,67.37
96963,2018-06-29 09:35:22.093750,-3.9,67.37
96964,2018-06-29 09:35:22.125000,-11.53,67.37
96965,2018-06-29 09:35:22.156250,-19.42,67.37
96966,2018-06-29 09:35:22.187500,-27.02,67.37
96967,2018-06-29 09:35:22.218750,-34.36,67.37
96968,2018-06-29 09:35:22.250000,-42.33,67.37
96969,2018-06-29 09:35:22.281250,-51.99,67.37
96970,2018-06-29 09:35:22.312500,-64.53,67.37
96971,2018-06-29 09:35:22.343750,-77.51,67.37
96972,2018-06-29 09:35:22.375000,-80.98,67.37
96973,2018-06-29 09:35:22.406250,-65.57,67.37
96974,2018-06-29 09:35:22.437500,-35.13,67.37
96975,2018-06-29 09:35:22.468750,-3.8,67.37
96976,2018-06-29 09:35:22.500000,18.66,67.37
96977,2018-06-29 09:35:22.531250,31.43,67.45
96978,2018-06-29 09:35:22.562500,36.5,67.45
96979,2018-06-29 09:35:22.593750,35.65,67.45
96980,2018-06-29 09:35:22.625000,32.12,67.45
96981,2018-06-29 09:35:22.656250,29.61,67.45
96982,2018-06-29 09:35:22.687500,29.2,67.45
96983,2018-06-29 09:35:22.718750,29.51,67.45
96984,2018-06-29 09:35:22.750000,29.62,67.45
96985,2018-06-29 09:35:22.781250,29.96,67.45
96986,2018-06-29 09:35:22.812500,29.69,67.45
96987,2018-06-29 09:35:22.843750,25.79,67.45
96988,2018-06-29 09:35:22.875000,17.26,67.45
96989,2018-06-29 09:35:22.906250,7.97,67.45
96990,2018-06-29 09:35:22.937500,1.32,67.45
96991,2018-06-29 09:35:22.968750,-4.95,67.45
96992,2018-06-29 09:35:23.000000,-14.4,67.45
96993,2018-06-29 09:35:23.031250,-25.53,67.45
96994,2018-06-29 09:35:23.062500,-34.75,67.45
96995,2018-06-29 09:35:23.093750,-42.05,67.45
96996,2018-06-29 09:35:23.125000,-50.47,67.45
96997,2018-06-29 09:35:23.156250,-62.64,67.45
96998,2018-06-29 09:35:23.187500,-77.36,67.45
96999,2018-06-29 09:35:23.218750,-86.28,67.45
97000,2018-06-29 09:35:23.250000,-78.13,67.45
97001,2018-06-29 09:35:23.281250,-51.23,67.45
97002,2018-06-29 09:35:23.312500,-17.4,67.45
97003,2018-06-29 09:35:23.343750,10.24,67.45
97004,2018-06-29 09:35:23.375000,27.69,67.45
97005,2018-06-29 09:35:23.406250,37.31,67.45
97006,2018-06-29 09:35:23.437500,41.48,67.45
97007,2018-06-29 09:35:23.468750,41.7,67.45
97008,2018-06-29 09:35:23.500000,40.18,67.45
97009,2018-06-29 09:35:23.531250,39.13,67.55
97010,2018-06-29 09:35:23.562500,38.81,67.55
97011,2018-06-29 09:35:23.593750,38.61,67.55
97012,2018-06-29 09:35:23.625000,39.11,67.55
97013,2018-06-29 09:35:23.656250,39.99,67.55
97014,2018-06-29 09:35:23.687500,38.03,67.55
97015,2018-06-29 09:35:23.718750,30.8,67.55
97016,2018-06-29 09:35:23.750000,20.43,67.55
97017,2018-06-29 09:35:23.781250,10.94,67.55
97018,2018-06-29 09:35:23.812500,3.28,67.55
97019,2018-06-29 09:35:23.843750,-5.08,67.55
97020,2018-06-29 09:35:23.875000,-15.99,67.55
97021,2018-06-29 09:35:23.906250,-27.97,67.55
97022,2018-06-29 09:35:23.937500,-38.47,67.55
97023,2018-06-29 09:35:23.968750,-47.3,67.55
97024,2018-06-29 09:35:24.000000,-56.79,67.55
97025,2018-06-29 09:35:24.031250,-69.74,67.55
97026,2018-06-29 09:35:24.062500,-84.61,67.55
97027,2018-06-29 09:35:24.093750,-91.49,67.55
97028,2018-06-29 09:35:24.125000,-78.57,67.55
97029,2018-06-29 09:35:24.156250,-46.48,67.55
97030,2018-06-29 09:35:24.187500,-9.7,67.55
97031,2018-06-29 09:35:24.218750,18.65,67.55
97032,2018-06-29 09:35:24.250000,36.37,67.55
97033,2018-06-29 09:35:24.281250,46.37,67.55
97034,2018-06-29 09:35:24.312500,50.23,67.55
97035,2018-06-29 09:35:24.343750,49.57,67.55
97036,2018-06-29 09:35:24.375000,47.7,67.55
97037,2018-06-29 09:35:24.406250,47.15,67.55
97038,2018-06-29 09:35:24.437500,47.6,67.55
97039,2018-06-29 09:35:24.468750,47.92,67.55
97040,2018-06-29 09:35:24.500000,47.94,67.55
97041,2018-06-29 09:35:24.531250,47.26,67.67
97042,2018-06-29 09:35:24.562500,44.04,67.67
97043,2018-06-29 09:35:24.593750,36.77,67.67
97044,2018-06-29 09:35:24.625000,26.75,67.67
97045,2018-06-29 09:35:24.656250,17.13,67.67
97046,2018-06-29 09:35:24.687500,9.1,67.67
97047,2018-06-29 09:35:24.718750,0.55,67.67
97048,2018-06-29 09:35:24.750000,-10.73,67.67
97049,2018-06-29 09:35:24.781250,-23.54,67.67
97050,2018-06-29 09:35:24.812500,-35.13,67.67
97051,2018-06-29 09:35:24.843750,-45.17,67.67
97052,2018-06-29 09:35:24.875000,-56.29,67.67
97053,2018-06-29 09:35:24.906250,-70.6,67.67
97054,2018-06-29 09:35:24.937500,-86.39,67.67
97055,2018-06-29 09:35:24.968750,-95.73,67.67
97056,2018-06-29 09:35:25.000000,-87.37,67.67
97057,2018-06-29 09:35:25.031250,-58.04,67.67
97058,2018-06-29 09:35:25.062500,-18.82,67.67
97059,2018-06-29 09:35:25.093750,15.1,67.67
97060,2018-06-29 09:35:25.125000,37.17,67.67
97061,2018-06-29 09:35:25.156250,48.83,67.67
97062,2018-06-29 09:35:25.187500,52.72,67.67
97063,2018-06-29 09:35:25.218750,51.36,67.67
97064,2018-06-29 09:35:25.250000,48.5,67.67
97065,2018-06-29 09:35:25.281250,47.25,67.67
97066,2018-06-29 09:35:25.312500,47.26,67.67
97067,2018-06-29 09:35:25.343750,46.54,67.67
97068,2018-06-29 09:35:25.375000,45.25,67.67
97069,2018-06-29 09:35:25.406250,44.21,67.67
97070,2018-06-29 09:35:25.437500,41.2,67.67
97071,2018-06-29 09:35:25.468750,33.23,67.67
97072,2018-06-29 09:35:25.500000,21.61,67.67
97073,2018-06-29 09:35:25.531250,10.84,67.78
97074,2018-06-29 09:35:25.562500,2.61,67.78
97075,2018-06-29 09:35:25.593750,-5.73,67.78
97076,2018-06-29 09:35:25.625000,-16.24,67.78
97077,2018-06-29 09:35:25.656250,-26.86,67.78
97078,2018-06-29 09:35:25.687500,-34.96,67.78
97079,2018-06-29 09:35:25.718750,-41.65,67.78
97080,2018-06-29 09:35:25.750000,-51.09,67.78
97081,2018-06-29 09:35:25.781250,-65.87,67.78
97082,2018-06-29 09:35:25.812500,-81.35,67.78
97083,2018-06-29 09:35:25.843750,-84.91,67.78
97084,2018-06-29 09:35:25.875000,-66.6,67.78
97085,2018-06-29 09:35:25.906250,-31.16,67.78
97086,2018-06-29 09:35:25.937500,6.01,67.78
97087,2018-06-29 09:35:25.968750,33.71,67.78
97088,2018-06-29 09:35:26.000000,49.63,67.78
97089,2018-06-29 09:35:26.031250,54.76,67.78
97090,2018-06-29 09:35:26.062500,51.36,67.78
97091,2018-06-29 09:35:26.093750,44.9,67.78
97092,2018-06-29 09:35:26.125000,40.97,67.78
97093,2018-06-29 09:35:26.156250,40.25,67.78
97094,2018-06-29 09:35:26.187500,40.24,67.78
97095,2018-06-29 09:35:26.218750,40.1,67.78
97096,2018-06-29 09:35:26.250000,40.16,67.78
97097,2018-06-29 09:35:26.281250,38.27,67.78
97098,2018-06-29 09:35:26.312500,31.45,67.78
97099,2018-06-29 09:35:26.343750,20.5,67.78
97100,2018-06-29 09:35:26.375000,9.06,67.78
97101,2018-06-29 09:35:26.406250,-1.38,67.78
97102,2018-06-29 09:35:26.437500,-12.76,67.78
97103,2018-06-29 09:35:26.468750,-26.4,67.78
97104,2018-06-29 09:35:26.500000,-40.25,67.78
97105,2018-06-29 09:35:26.531250,-51.59,67.92
97106,2018-06-29 09:35:26.562500,-61.08,67.92
97107,2018-06-29 09:35:26.593750,-72.91,67.92
97108,2018-06-29 09:35:26.625000,-90.09,67.92
97109,2018-06-29 09:35:26.656250,-108.0,67.92
97110,2018-06-29 09:35:26.687500,-112.84,67.92
97111,2018-06-29 09:35:26.718750,-92.88,67.92
97112,2018-06-29 09:35:26.750000,-52.66,67.92
97113,2018-06-29 09:35:26.781250,-9.68,67.92
97114,2018-06-29 09:35:26.812500,23.04,67.92
97115,2018-06-29 09:35:26.843750,44.2,67.92
97116,2018-06-29 09:35:26.875000,57.18,67.92
97117,2018-06-29 09:35:26.906250,64.07,67.92
97118,2018-06-29 09:35:26.937500,66.26,67.92
97119,2018-06-29 09:35:26.968750,65.74,67.92
97120,2018-06-29 09:35:27.000000,64.27,67.92
97121,2018-06-29 09:35:27.031250,62.64,67.92
97122,2018-06-29 09:35:27.062500,61.74,67.92
97123,2018-06-29 09:35:27.093750,62.09,67.92
97124,2018-06-29 09:35:27.125000,61.2,67.92
97125,2018-06-29 09:35:27.156250,54.61,67.92
97126,2018-06-29 09:35:27.187500,41.65,67.92
97127,2018-06-29 09:35:27.218750,26.98,67.92
97128,2018-06-29 09:35:27.250000,14.72,67.92
97129,2018-06-29 09:35:27.281250,3.75,67.92
97130,2018-06-29 09:35:27.312500,-9.14,67.92
97131,2018-06-29 09:35:27.343750,-23.69,67.92
97132,2018-06-29 09:35:27.375000,-36.72,67.92
97133,2018-06-29 09:35:27.406250,-47.16,67.92
97134,2018-06-29 09:35:27.437500,-58.41,67.92
97135,2018-06-29 09:35:27.468750,-75.14,67.92
97136,2018-06-29 09:35:27.500000,-95.4,67.92
97137,2018-06-29 09:35:27.531250,-105.92,68.05
97138,2018-06-29 09:35:27.562500,-91.67,68.05
97139,2018-06-29 09:35:27.593750,-52.96,68.05
97140,2018-06-29 09:35:27.625000,-6.79,68.05
97141,2018-06-29 09:35:27.656250,30.27,68.05
97142,2018-06-29 09:35:27.687500,53.67,68.05
97143,2018-06-29 09:35:27.718750,66.17,68.05
97144,2018-06-29 09:35:27.750000,70.61,68.05
97145,2018-06-29 09:35:27.781250,69.52,68.05
97146,2018-06-29 09:35:27.812500,66.23,68.05
97147,2018-06-29 09:35:27.843750,63.11,68.05
97148,2018-06-29 09:35:27.875000,60.2,68.05
97149,2018-06-29 09:35:27.906250,57.4,68.05
97150,2018-06-29 09:35:27.937500,55.58,68.05
97151,2018-06-29 09:35:27.968750,53.26,68.05
97152,2018-06-29 09:35:28.000000,46.34,68.05
97153,2018-06-29 09:35:28.031250,34.07,68.05
97154,2018-06-29 09:35:28.062500,20.72,68.05
97155,2018-06-29 09:35:28.093750,9.11,68.05
97156,2018-06-29 09:35:28.125000,-2.39,68.05
97157,2018-06-29 09:35:28.156250,-15.32,68.05
97158,2018-06-29 09:35:28.187500,-28.03,68.05
97159,2018-06-29 09:35:28.218750,-38.48,68.05
97160,2018-06-29 09:35:28.250000,-47.68,68.05
97161,2018-06-29 09:35:28.281250,-59.28,68.05
97162,2018-06-29 09:35:28.312500,-75.69,68.05
97163,2018-06-29 09:35:28.343750,-92.46,68.05
97164,2018-06-29 09:35:28.375000,-96.59,68.05
97165,2018-06-29 09:35:28.406250,-76.78,68.05
97166,2018-06-29 09:35:28.437500,-37.11,68.05
97167,2018-06-29 09:35:28.468750,5.09,68.05
97168,2018-06-29 09:35:28.500000,35.8,68.05
97169,2018-06-29 09:35:28.531250,52.51,68.2
97170,2018-06-29 09:35:28.562500,57.91,68.2
97171,2018-06-29 09:35:28.593750,54.73,68.2
97172,2018-06-29 09:35:28.625000,47.75,68.2
97173,2018-06-29 09:35:28.656250,43.32,68.2
97174,2018-06-29 09:35:28.687500,43.51,68.2
97175,2018-06-29 09:35:28.718750,44.9,68.2
97176,2018-06-29 09:35:28.750000,45.01,68.2
97177,2018-06-29 09:35:28.781250,44.35,68.2
97178,2018-06-29 09:35:28.812500,41.35,68.2
97179,2018-06-29 09:35:28.843750,32.2,68.2
97180,2018-06-29 09:35:28.875000,17.59,68.2
97181,2018-06-29 09:35:28.906250,3.08,68.2
97182,2018-06-29 09:35:28.937500,-8.79,68.2
97183,2018-06-29 09:35:28.968750,-20.9,68.2
97184,2018-06-29 09:35:29.000000,-35.29,68.2
97185,2018-06-29 09:35:29.031250,-49.37,68.2
97186,2018-06-29 09:35:29.062500,-60.26,68.2
97187,2018-06-29 09:35:29.093750,-69.58,68.2
97188,2018-06-29 09:35:29.125000,-82.3,68.2
97189,2018-06-29 09:35:29.156250,-101.51,68.2
97190,2018-06-29 09:35:29.187500,-121.04,68.2
97191,2018-06-29 09:35:29.218750,-124.17,68.2
97192,2018-06-29 09:35:29.250000,-98.1,68.2
97193,2018-06-29 09:35:29.281250,-49.94,68.2
97194,2018-06-29 09:35:29.312500,-0.62,68.2
97195,2018-06-29 09:35:29.343750,35.52,68.2
97196,2018-06-29 09:35:29.375000,58.25,68.2
97197,2018-06-29 09:35:29.406250,72.81,68.2
97198,2018-06-29 09:35:29.437500,81.75,68.2
97199,2018-06-29 09:35:29.468750,85.35,68.2
97200,2018-06-29 09:35:29.500000,84.71,68.2
97201,2018-06-29 09:35:29.531250,82.02,68.37
97202,2018-06-29 09:35:29.562500,79.44,68.37
97203,2018-06-29 09:35:29.593750,78.17,68.37
97204,2018-06-29 09:35:29.625000,77.44,68.37
97205,2018-06-29 09:35:29.656250,74.14,68.37
97206,2018-06-29 09:35:29.687500,66.33,68.37
97207,2018-06-29 09:35:29.718750,55.46,68.37
97208,2018-06-29 09:35:29.750000,43.68,68.37
97209,2018-06-29 09:35:29.781250,31.49,68.37
97210,2018-06-29 09:35:29.812500,19.12,68.37
97211,2018-06-29 09:35:29.843750,7.61,68.37
97212,2018-06-29 09:35:29.875000,-3.08,68.37
97213,2018-06-29 09:35:29.906250,-15.0,68.37
97214,2018-06-29 09:35:29.937500,-29.51,68.37
97215,2018-06-29 09:35:29.968750,-44.84,68.37
97216,2018-06-29 09:35:30.000000,-58.15,68.37
97217,2018-06-29 09:35:30.031250,-69.59,68.37
97218,2018-06-29 09:35:30.062500,-82.89,68.37
97219,2018-06-29 09:35:30.093750,-100.89,68.37
97220,2018-06-29 09:35:30.125000,-117.95,68.37
97221,2018-06-29 09:35:30.156250,-118.48,68.37
97222,2018-06-29 09:35:30.187500,-90.89,68.37
97223,2018-06-29 09:35:30.218750,-43.1,68.37
97224,2018-06-29 09:35:30.250000,3.86,68.37
97225,2018-06-29 09:35:30.281250,36.74,68.37
97226,2018-06-29 09:35:30.312500,56.4,68.37
97227,2018-06-29 09:35:30.343750,67.79,68.37
97228,2018-06-29 09:35:30.375000,73.28,68.37
97229,2018-06-29 09:35:30.406250,74.18,68.37
97230,2018-06-29 09:35:30.437500,72.12,68.37
97231,2018-06-29 09:35:30.468750,68.45,68.37
97232,2018-06-29 09:35:30.500000,64.79,68.37
97233,2018-06-29 09:35:30.531250,62.72,68.5
97234,2018-06-29 09:35:30.562500,61.55,68.5
97235,2018-06-29 09:35:30.593750,58.42,68.5
97236,2018-06-29 09:35:30.625000,51.48,68.5
97237,2018-06-29 09:35:30.656250,41.26,68.5
97238,2018-06-29 09:35:30.687500,29.11,68.5
97239,2018-06-29 09:35:30.718750,16.32,68.5
97240,2018-06-29 09:35:30.750000,4.35,68.5
97241,2018-06-29 09:35:30.781250,-5.49,68.5
97242,2018-06-29 09:35:30.812500,-13.56,68.5
97243,2018-06-29 09:35:30.843750,-21.96,68.5
97244,2018-06-29 09:35:30.875000,-31.75,68.5
97245,2018-06-29 09:35:30.906250,-41.68,68.5
97246,2018-06-29 09:35:30.937500,-50.7,68.5
97247,2018-06-29 09:35:30.968750,-60.37,68.5
97248,2018-06-29 09:35:31.000000,-72.9,68.5
97249,2018-06-29 09:35:31.031250,-88.69,68.5
97250,2018-06-29 09:35:31.062500,-102.35,68.5
97251,2018-06-29 09:35:31.093750,-100.5,68.5
97252,2018-06-29 09:35:31.125000,-73.22,68.5
97253,2018-06-29 09:35:31.156250,-28.91,68.5
97254,2018-06-29 09:35:31.187500,12.32,68.5
97255,2018-06-29 09:35:31.218750,39.29,68.5
97256,2018-06-29 09:35:31.250000,54.24,68.5
97257,2018-06-29 09:35:31.281250,61.26,68.5
97258,2018-06-29 09:35:31.312500,61.66,68.5
97259,2018-06-29 09:35:31.343750,57.84,68.5
97260,2018-06-29 09:35:31.375000,53.91,68.5
97261,2018-06-29 09:35:31.406250,52.29,68.5
97262,2018-06-29 09:35:31.437500,52.69,68.5
97263,2018-06-29 09:35:31.468750,54.01,68.5
97264,2018-06-29 09:35:31.500000,54.68,68.5
97265,2018-06-29 09:35:31.531250,52.11,68.63
97266,2018-06-29 09:35:31.562500,44.47,68.63
97267,2018-06-29 09:35:31.593750,33.69,68.63
97268,2018-06-29 09:35:31.625000,23.67,68.63
97269,2018-06-29 09:35:31.656250,15.23,68.63
97270,2018-06-29 09:35:31.687500,5.96,68.63
97271,2018-06-29 09:35:31.718750,-4.8,68.63
97272,2018-06-29 09:35:31.750000,-14.48,68.63
97273,2018-06-29 09:35:31.781250,-22.1,68.63
97274,2018-06-29 09:35:31.812500,-30.4,68.63
97275,2018-06-29 09:35:31.843750,-41.53,68.63
97276,2018-06-29 09:35:31.875000,-53.62,68.63
97277,2018-06-29 09:35:31.906250,-63.94,68.63
97278,2018-06-29 09:35:31.937500,-73.47,68.63
97279,2018-06-29 09:35:31.968750,-86.29,68.63
97280,2018-06-29 09:35:32.000000,-103.19,68.63
97281,2018-06-29 09:35:32.031250,-114.97,68.63
97282,2018-06-29 09:35:32.062500,-106.53,68.63
97283,2018-06-29 09:35:32.093750,-73.38,68.63
97284,2018-06-29 09:35:32.125000,-28.69,68.63
97285,2018-06-29 09:35:32.156250,10.3,68.63
97286,2018-06-29 09:35:32.187500,37.11,68.63
97287,2018-06-29 09:35:32.218750,54.54,68.63
97288,2018-06-29 09:35:32.250000,65.91,68.63
97289,2018-06-29 09:35:32.281250,71.89,68.63
97290,2018-06-29 09:35:32.312500,73.04,68.63
97291,2018-06-29 09:35:32.343750,71.29,68.63
97292,2018-06-29 09:35:32.375000,68.46,68.63
97293,2018-06-29 09:35:32.406250,65.31,68.63
97294,2018-06-29 09:35:32.437500,63.0,68.63
97295,2018-06-29 09:35:32.468750,61.93,68.63
97296,2018-06-29 09:35:32.500000,59.44,68.63
97297,2018-06-29 09:35:32.531250,52.73,68.77
97298,2018-06-29 09:35:32.562500,43.15,68.77
97299,2018-06-29 09:35:32.593750,34.1,68.77
97300,2018-06-29 09:35:32.625000,26.37,68.77
97301,2018-06-29 09:35:32.656250,18.26,68.77
97302,2018-06-29 09:35:32.687500,8.63,68.77
97303,2018-06-29 09:35:32.718750,-1.74,68.77
97304,2018-06-29 09:35:32.750000,-10.9,68.77
97305,2018-06-29 09:35:32.781250,-18.24,68.77
97306,2018-06-29 09:35:32.812500,-26.03,68.77
97307,2018-06-29 09:35:32.843750,-36.43,68.77
97308,2018-06-29 09:35:32.875000,-47.88,68.77
97309,2018-06-29 09:35:32.906250,-57.34,68.77
97310,2018-06-29 09:35:32.937500,-64.87,68.77
97311,2018-06-29 09:35:32.968750,-73.88,68.77
97312,2018-06-29 09:35:33.000000,-86.71,68.77
97313,2018-06-29 09:35:33.031250,-99.41,68.77
97314,2018-06-29 09:35:33.062500,-100.39,68.77
97315,2018-06-29 09:35:33.093750,-80.27,68.77
97316,2018-06-29 09:35:33.125000,-43.95,68.77
97317,2018-06-29 09:35:33.156250,-7.08,68.77
97318,2018-06-29 09:35:33.187500,19.13,68.77
97319,2018-06-29 09:35:33.218750,34.04,68.77
97320,2018-06-29 09:35:33.250000,41.07,68.77
97321,2018-06-29 09:35:33.281250,42.36,68.77
97322,2018-06-29 09:35:33.312500,39.72,68.77
97323,2018-06-29 09:35:33.343750,36.55,68.77
97324,2018-06-29 09:35:33.375000,35.69,68.77
97325,2018-06-29 09:35:33.406250,36.57,68.77
97326,2018-06-29 09:35:33.437500,37.18,68.77
97327,2018-06-29 09:35:33.468750,37.18,68.77
97328,2018-06-29 09:35:33.500000,36.15,68.77
97329,2018-06-29 09:35:33.531250,32.03,68.88
97330,2018-06-29 09:35:33.562500,24.24,68.88
97331,2018-06-29 09:35:33.593750,14.92,68.88
97332,2018-06-29 09:35:33.625000,5.93,68.88
97333,2018-06-29 09:35:33.656250,-2.72,68.88
97334,2018-06-29 09:35:33.687500,-11.49,68.88
97335,2018-06-29 09:35:33.718750,-20.42,68.88
97336,2018-06-29 09:35:33.750000,-29.57,68.88
97337,2018-06-29 09:35:33.781250,-38.88,68.88
97338,2018-06-29 09:35:33.812500,-47.76,68.88
97339,2018-06-29 09:35:33.843750,-55.96,68.88
97340,2018-06-29 09:35:33.875000,-64.81,68.88
97341,2018-06-29 09:35:33.906250,-76.86,68.88
97342,2018-06-29 09:35:33.937500,-91.88,68.88
97343,2018-06-29 09:35:33.968750,-101.56,68.88
97344,2018-06-29 09:35:34.000000,-93.16,68.88
97345,2018-06-29 09:35:34.031250,-63.64,68.88
97346,2018-06-29 09:35:34.062500,-25.36,68.88
97347,2018-06-29 09:35:34.093750,6.92,68.88
97348,2018-06-29 09:35:34.125000,28.6,68.88
97349,2018-06-29 09:35:34.156250,42.57,68.88
97350,2018-06-29 09:35:34.187500,51.65,68.88
97351,2018-06-29 09:35:34.218750,56.89,68.88
97352,2018-06-29 09:35:34.250000,58.48,68.88
97353,2018-06-29 09:35:34.281250,56.83,68.88
97354,2018-06-29 09:35:34.312500,53.7,68.88
97355,2018-06-29 09:35:34.343750,51.24,68.88
97356,2018-06-29 09:35:34.375000,49.85,68.88
97357,2018-06-29 09:35:34.406250,48.14,68.88
97358,2018-06-29 09:35:34.437500,44.5,68.88
97359,2018-06-29 09:35:34.468750,38.33,68.88
97360,2018-06-29 09:35:34.500000,30.1,68.88
97361,2018-06-29 09:35:34.531250,20.75,68.98
97362,2018-06-29 09:35:34.562500,11.43,68.98
97363,2018-06-29 09:35:34.593750,3.09,68.98
97364,2018-06-29 09:35:34.625000,-4.95,68.98
97365,2018-06-29 09:35:34.656250,-14.21,68.98
97366,2018-06-29 09:35:34.687500,-24.52,68.98
97367,2018-06-29 09:35:34.718750,-34.27,68.98
97368,2018-06-29 09:35:34.750000,-43.18,68.98
97369,2018-06-29 09:35:34.781250,-53.06,68.98
97370,2018-06-29 09:35:34.812500,-66.09,68.98
97371,2018-06-29 09:35:34.843750,-81.8,68.98
97372,2018-06-29 09:35:34.875000,-93.28,68.98
97373,2018-06-29 09:35:34.906250,-88.66,68.98
97374,2018-06-29 09:35:34.937500,-62.49,68.98
97375,2018-06-29 09:35:34.968750,-24.14,68.98
97376,2018-06-29 09:35:35.000000,10.28,68.98
97377,2018-06-29 09:35:35.031250,32.82,68.98
97378,2018-06-29 09:35:35.062500,45.82,68.98
97379,2018-06-29 09:35:35.093750,53.16,68.98
97380,2018-06-29 09:35:35.125000,55.93,68.98
97381,2018-06-29 09:35:35.156250,54.99,68.98
97382,2018-06-29 09:35:35.187500,52.27,68.98
97383,2018-06-29 09:35:35.218750,49.06,68.98
97384,2018-06-29 09:35:35.250000,45.94,68.98
97385,2018-06-29 09:35:35.281250,43.91,68.98
97386,2018-06-29 09:35:35.312500,43.25,68.98
97387,2018-06-29 09:35:35.343750,41.89,68.98
97388,2018-06-29 09:35:35.375000,37.11,68.98
97389,2018-06-29 09:35:35.406250,28.39,68.98
97390,2018-06-29 09:35:35.437500,17.89,68.98
97391,2018-06-29 09:35:35.468750,8.24,68.98
97392,2018-06-29 09:35:35.500000,0.41,68.98
97393,2018-06-29 09:35:35.531250,-7.18,69.08
97394,2018-06-29 09:35:35.562500,-16.63,69.08
97395,2018-06-29 09:35:35.593750,-27.03,69.08
97396,2018-06-29 09:35:35.625000,-35.59,69.08
97397,2018-06-29 09:35:35.656250,-42.31,69.08
97398,2018-06-29 09:35:35.687500,-50.72,69.08
97399,2018-06-29 09:35:35.718750,-63.48,69.08
97400,2018-06-29 09:35:35.750000,-78.66,69.08
97401,2018-06-29 09:35:35.781250,-87.6,69.08
97402,2018-06-29 09:35:35.812500,-79.2,69.08
97403,2018-06-29 09:35:35.843750,-51.86,69.08
97404,2018-06-29 09:35:35.875000,-17.96,69.08
97405,2018-06-29 09:35:35.906250,9.0,69.08
97406,2018-06-29 09:35:35.937500,25.42,69.08
97407,2018-06-29 09:35:35.968750,33.7,69.08
97408,2018-06-29 09:35:36.000000,35.48,69.08
97409,2018-06-29 09:35:36.031250,32.42,69.08
97410,2018-06-29 09:35:36.062500,28.07,69.08
97411,2018-06-29 09:35:36.093750,25.56,69.08
97412,2018-06-29 09:35:36.125000,25.35,69.08
97413,2018-06-29 09:35:36.156250,26.03,69.08
97414,2018-06-29 09:35:36.187500,25.89,69.08
97415,2018-06-29 09:35:36.218750,22.92,69.08
97416,2018-06-29 09:35:36.250000,15.62,69.08
97417,2018-06-29 09:35:36.281250,5.51,69.08
97418,2018-06-29 09:35:36.312500,-4.08,69.08
97419,2018-06-29 09:35:36.343750,-12.32,69.08
97420,2018-06-29 09:35:36.375000,-21.46,69.08
97421,2018-06-29 09:35:36.406250,-32.42,69.08
97422,2018-06-29 09:35:36.437500,-43.13,69.08
97423,2018-06-29 09:35:36.468750,-51.87,69.08
97424,2018-06-29 09:35:36.500000,-60.16,69.08
97425,2018-06-29 09:35:36.531250,-71.62,69.18
97426,2018-06-29 09:35:36.562500,-86.81,69.18
97427,2018-06-29 09:35:36.593750,-97.83,69.18
97428,2018-06-29 09:35:36.625000,-91.91,69.18
97429,2018-06-29 09:35:36.656250,-64.68,69.18
97430,2018-06-29 09:35:36.687500,-25.74,69.18
97431,2018-06-29 09:35:36.718750,12.44,69.18
97432,2018-06-29 09:35:36.750000,45.07,69.18
97433,2018-06-29 09:35:36.781250,71.58,69.18
97434,2018-06-29 09:35:36.812500,89.27,69.18
97435,2018-06-29 09:35:36.843750,95.82,69.18
97436,2018-06-29 09:35:36.875000,94.66,69.18
97437,2018-06-29 09:35:36.906250,92.46,69.18
97438,2018-06-29 09:35:36.937500,91.74,69.18
97439,2018-06-29 09:35:36.968750,90.57,69.18
97440,2018-06-29 09:35:37.000000,89.02,69.18
97441,2018-06-29 09:35:37.031250,90.22,69.18
97442,2018-06-29 09:35:37.062500,95.52,69.18
97443,2018-06-29 09:35:37.093750,102.54,69.18
97444,2018-06-29 09:35:37.125000,108.46,69.18
97445,2018-06-29 09:35:37.156250,112.35,69.18
97446,2018-06-29 09:35:37.187500,114.05,69.18
97447,2018-06-29 09:35:37.218750,112.06,69.18
97448,2018-06-29 09:35:37.250000,103.93,69.18
97449,2018-06-29 09:35:37.281250,87.99,69.18
97450,2018-06-29 09:35:37.312500,61.86,69.18
97451,2018-06-29 09:35:37.343750,20.47,69.18
97452,2018-06-29 09:35:37.375000,-40.37,69.18
97453,2018-06-29 09:35:37.406250,-114.62,69.18
97454,2018-06-29 09:35:37.437500,-181.12,69.18
97455,2018-06-29 09:35:37.468750,-213.81,69.18
97456,2018-06-29 09:35:37.500000,-198.5,69.18
97457,2018-06-29 09:35:37.531250,-142.94,69.38
97458,2018-06-29 09:35:37.562500,-75.9,69.38
97459,2018-06-29 09:35:37.593750,-29.13,69.38
97460,2018-06-29 09:35:37.625000,-11.34,69.38
97461,2018-06-29 09:35:37.656250,-7.53,69.38
97462,2018-06-29 09:35:37.687500,-4.53,69.38
97463,2018-06-29 09:35:37.718750,-0.56,69.38
97464,2018-06-29 09:35:37.750000,6.28,69.38
97465,2018-06-29 09:35:37.781250,19.43,69.38
97466,2018-06-29 09:35:37.812500,36.08,69.38
97467,2018-06-29 09:35:37.843750,48.75,69.38
97468,2018-06-29 09:35:37.875000,52.55,69.38
97469,2018-06-29 09:35:37.906250,48.7,69.38
97470,2018-06-29 09:35:37.937500,42.23,69.38
97471,2018-06-29 09:35:37.968750,35.82,69.38
97472,2018-06-29 09:35:38.000000,27.51,69.38
97473,2018-06-29 09:35:38.031250,15.38,69.38
97474,2018-06-29 09:35:38.062500,0.74,69.38
97475,2018-06-29 09:35:38.093750,-14.47,69.38
97476,2018-06-29 09:35:38.125000,-29.72,69.38
97477,2018-06-29 09:35:38.156250,-44.83,69.38
97478,2018-06-29 09:35:38.187500,-60.3,69.38
97479,2018-06-29 09:35:38.218750,-76.69,69.38
97480,2018-06-29 09:35:38.250000,-89.11,69.38
97481,2018-06-29 09:35:38.281250,-87.25,69.38
97482,2018-06-29 09:35:38.312500,-67.34,69.38
97483,2018-06-29 09:35:38.343750,-38.67,69.38
97484,2018-06-29 09:35:38.375000,-12.72,69.38
97485,2018-06-29 09:35:38.406250,7.19,69.38
97486,2018-06-29 09:35:38.437500,21.74,69.38
97487,2018-06-29 09:35:38.468750,29.99,69.38
97488,2018-06-29 09:35:38.500000,32.37,69.38
97489,2018-06-29 09:35:38.531250,32.3,69.57
97490,2018-06-29 09:35:38.562500,32.13,69.57
97491,2018-06-29 09:35:38.593750,31.68,69.57
97492,2018-06-29 09:35:38.625000,30.39,69.57
97493,2018-06-29 09:35:38.656250,27.53,69.57
97494,2018-06-29 09:35:38.687500,21.4,69.57
97495,2018-06-29 09:35:38.718750,10.83,69.57
97496,2018-06-29 09:35:38.750000,-3.52,69.57
97497,2018-06-29 09:35:38.781250,-20.11,69.57
97498,2018-06-29 09:35:38.812500,-37.27,69.57
97499,2018-06-29 09:35:38.843750,-53.24,69.57
97500,2018-06-29 09:35:38.875000,-67.4,69.57
97501,2018-06-29 09:35:38.906250,-81.02,69.57
97502,2018-06-29 09:35:38.937500,-96.88,69.57
97503,2018-06-29 09:35:38.968750,-117.86,69.57
97504,2018-06-29 09:35:39.000000,-142.48,69.57
97505,2018-06-29 09:35:39.031250,-159.19,69.57
97506,2018-06-29 09:35:39.062500,-151.3,69.57
97507,2018-06-29 09:35:39.093750,-113.02,69.57
97508,2018-06-29 09:35:39.125000,-56.52,69.57
97509,2018-06-29 09:35:39.156250,1.39,69.57
97510,2018-06-29 09:35:39.187500,53.88,69.57
97511,2018-06-29 09:35:39.218750,99.73,69.57
97512,2018-06-29 09:35:39.250000,132.59,69.57
97513,2018-06-29 09:35:39.281250,145.0,69.57
97514,2018-06-29 09:35:39.312500,139.5,69.57
97515,2018-06-29 09:35:39.343750,126.28,69.57
97516,2018-06-29 09:35:39.375000,111.79,69.57
97517,2018-06-29 09:35:39.406250,97.11,69.57
97518,2018-06-29 09:35:39.437500,82.36,69.57
97519,2018-06-29 09:35:39.468750,65.96,69.57
97520,2018-06-29 09:35:39.500000,45.25,69.57
97521,2018-06-29 09:35:39.531250,21.34,69.78
97522,2018-06-29 09:35:39.562500,-4.66,69.78
97523,2018-06-29 09:35:39.593750,-40.26,69.78
97524,2018-06-29 09:35:39.625000,-94.88,69.78
97525,2018-06-29 09:35:39.656250,-161.41,69.78
97526,2018-06-29 09:35:39.687500,-215.24,69.78
97527,2018-06-29 09:35:39.718750,-238.68,69.78
97528,2018-06-29 09:35:39.750000,-233.43,69.78
97529,2018-06-29 09:35:39.781250,-202.91,69.78
97530,2018-06-29 09:35:39.812500,-140.92,69.78
97531,2018-06-29 09:35:39.843750,-48.43,69.78
97532,2018-06-29 09:35:39.875000,58.37,69.78
97533,2018-06-29 09:35:39.906250,165.11,69.78
97534,2018-06-29 09:35:39.937500,265.63,69.78
97535,2018-06-29 09:35:39.968750,347.62,69.78
97536,2018-06-29 09:35:40.000000,388.25,69.78
97537,2018-06-29 09:35:40.031250,369.25,69.78
97538,2018-06-29 09:35:40.062500,291.09,69.78
97539,2018-06-29 09:35:40.093750,172.82,69.78
97540,2018-06-29 09:35:40.125000,43.56,69.78
97541,2018-06-29 09:35:40.156250,-68.44,69.78
97542,2018-06-29 09:35:40.187500,-146.71,69.78
97543,2018-06-29 09:35:40.218750,-191.53,69.78
97544,2018-06-29 09:35:40.250000,-213.54,69.78
97545,2018-06-29 09:35:40.281250,-223.08,69.78
97546,2018-06-29 09:35:40.312500,-224.91,69.78
97547,2018-06-29 09:35:40.343750,-218.69,69.78
97548,2018-06-29 09:35:40.375000,-204.55,69.78
97549,2018-06-29 09:35:40.406250,-185.19,69.78
97550,2018-06-29 09:35:40.437500,-162.64,69.78
97551,2018-06-29 09:35:40.468750,-137.68,69.78
97552,2018-06-29 09:35:40.500000,-113.52,69.78
97553,2018-06-29 09:35:40.531250,-95.75,70.02
97554,2018-06-29 09:35:40.562500,-87.81,70.02
97555,2018-06-29 09:35:40.593750,-87.47,70.02
97556,2018-06-29 09:35:40.625000,-85.13,70.02
97557,2018-06-29 09:35:40.656250,-68.45,70.02
97558,2018-06-29 09:35:40.687500,-34.89,70.02
97559,2018-06-29 09:35:40.718750,5.16,70.02
97560,2018-06-29 09:35:40.750000,41.0,70.02
97561,2018-06-29 09:35:40.781250,68.75,70.02
97562,2018-06-29 09:35:40.812500,86.23,70.02
97563,2018-06-29 09:35:40.843750,91.92,70.02
97564,2018-06-29 09:35:40.875000,89.04,70.02
97565,2018-06-29 09:35:40.906250,83.48,70.02
97566,2018-06-29 09:35:40.937500,78.6,70.02
97567,2018-06-29 09:35:40.968750,74.78,70.02
97568,2018-06-29 09:35:41.000000,70.94,70.02
97569,2018-06-29 09:35:41.031250,65.32,70.02
97570,2018-06-29 09:35:41.062500,57.01,70.02
97571,2018-06-29 09:35:41.093750,46.75,70.02
97572,2018-06-29 09:35:41.125000,35.86,70.02
97573,2018-06-29 09:35:41.156250,25.73,70.02
97574,2018-06-29 09:35:41.187500,18.29,70.02
97575,2018-06-29 09:35:41.218750,14.69,70.02
97576,2018-06-29 09:35:41.250000,13.21,70.02
97577,2018-06-29 09:35:41.281250,10.66,70.02
97578,2018-06-29 09:35:41.312500,3.18,70.02
97579,2018-06-29 09:35:41.343750,-12.72,70.02
97580,2018-06-29 09:35:41.375000,-33.1,70.02
97581,2018-06-29 09:35:41.406250,-43.87,70.02
97582,2018-06-29 09:35:41.437500,-35.16,70.02
97583,2018-06-29 09:35:41.468750,-13.12,70.02
97584,2018-06-29 09:35:41.500000,10.36,70.02
97585,2018-06-29 09:35:41.531250,31.49,70.28
97586,2018-06-29 09:35:41.562500,50.83,70.28
97587,2018-06-29 09:35:41.593750,64.9,70.28
97588,2018-06-29 09:35:41.625000,69.73,70.28
97589,2018-06-29 09:35:41.656250,67.69,70.28
97590,2018-06-29 09:35:41.687500,64.02,70.28
97591,2018-06-29 09:35:41.718750,59.66,70.28
97592,2018-06-29 09:35:41.750000,53.58,70.28
97593,2018-06-29 09:35:41.781250,48.35,70.28
97594,2018-06-29 09:35:41.812500,46.14,70.28
97595,2018-06-29 09:35:41.843750,43.44,70.28
97596,2018-06-29 09:35:41.875000,36.2,70.28
97597,2018-06-29 09:35:41.906250,24.99,70.28
97598,2018-06-29 09:35:41.937500,11.99,70.28
97599,2018-06-29 09:35:41.968750,-2.06,70.28
97600,2018-06-29 09:35:42.000000,-16.38,70.28
97601,2018-06-29 09:35:42.031250,-31.02,70.28
97602,2018-06-29 09:35:42.062500,-49.28,70.28
97603,2018-06-29 09:35:42.093750,-74.6,70.28
97604,2018-06-29 09:35:42.125000,-101.78,70.28
97605,2018-06-29 09:35:42.156250,-115.55,70.28
97606,2018-06-29 09:35:42.187500,-104.94,70.28
97607,2018-06-29 09:35:42.218750,-75.59,70.28
97608,2018-06-29 09:35:42.250000,-41.6,70.28
97609,2018-06-29 09:35:42.281250,-10.39,70.28
97610,2018-06-29 09:35:42.312500,17.44,70.28
97611,2018-06-29 09:35:42.343750,40.75,70.28
97612,2018-06-29 09:35:42.375000,57.85,70.28
97613,2018-06-29 09:35:42.406250,69.63,70.28
97614,2018-06-29 09:35:42.437500,78.11,70.28
97615,2018-06-29 09:35:42.468750,83.34,70.28
97616,2018-06-29 09:35:42.500000,82.85,70.28
97617,2018-06-29 09:35:42.531250,73.88,70.47
97618,2018-06-29 09:35:42.562500,57.11,70.47
97619,2018-06-29 09:35:42.593750,37.12,70.47
97620,2018-06-29 09:35:42.625000,17.61,70.47
97621,2018-06-29 09:35:42.656250,-0.47,70.47
97622,2018-06-29 09:35:42.687500,-15.16,70.47
97623,2018-06-29 09:35:42.718750,-23.08,70.47
97624,2018-06-29 09:35:42.750000,-24.7,70.47
97625,2018-06-29 09:35:42.781250,-24.85,70.47
97626,2018-06-29 09:35:42.812500,-28.06,70.47
97627,2018-06-29 09:35:42.843750,-37.01,70.47
97628,2018-06-29 09:35:42.875000,-51.31,70.47
97629,2018-06-29 09:35:42.906250,-63.16,70.47
97630,2018-06-29 09:35:42.937500,-60.55,70.47
97631,2018-06-29 09:35:42.968750,-40.21,70.47
97632,2018-06-29 09:35:43.000000,-11.4,70.47
97633,2018-06-29 09:35:43.031250,15.13,70.47
97634,2018-06-29 09:35:43.062500,35.4,70.47
97635,2018-06-29 09:35:43.093750,49.96,70.47
97636,2018-06-29 09:35:43.125000,59.88,70.47
97637,2018-06-29 09:35:43.156250,65.79,70.47
97638,2018-06-29 09:35:43.187500,68.29,70.47
97639,2018-06-29 09:35:43.218750,68.74,70.47
97640,2018-06-29 09:35:43.250000,68.74,70.47
97641,2018-06-29 09:35:43.281250,68.47,70.47
97642,2018-06-29 09:35:43.312500,66.86,70.47
97643,2018-06-29 09:35:43.343750,63.35,70.47
97644,2018-06-29 09:35:43.375000,58.04,70.47
97645,2018-06-29 09:35:43.406250,50.58,70.47
97646,2018-06-29 09:35:43.437500,40.91,70.47
97647,2018-06-29 09:35:43.468750,30.57,70.47
97648,2018-06-29 09:35:43.500000,21.52,70.47
97649,2018-06-29 09:35:43.531250,14.26,70.67
97650,2018-06-29 09:35:43.562500,6.29,70.67
97651,2018-06-29 09:35:43.593750,-8.39,70.67
97652,2018-06-29 09:35:43.625000,-33.78,70.67
97653,2018-06-29 09:35:43.656250,-63.64,70.67
97654,2018-06-29 09:35:43.687500,-82.67,70.67
97655,2018-06-29 09:35:43.718750,-78.33,70.67
97656,2018-06-29 09:35:43.750000,-50.16,70.67
97657,2018-06-29 09:35:43.781250,-9.67,70.67
97658,2018-06-29 09:35:43.812500,27.36,70.67
97659,2018-06-29 09:35:43.843750,51.07,70.67
97660,2018-06-29 09:35:43.875000,61.29,70.67
97661,2018-06-29 09:35:43.906250,61.65,70.67
97662,2018-06-29 09:35:43.937500,54.4,70.67
97663,2018-06-29 09:35:43.968750,42.63,70.67
97664,2018-06-29 09:35:44.000000,31.58,70.67
97665,2018-06-29 09:35:44.031250,25.26,70.67
97666,2018-06-29 09:35:44.062500,23.93,70.67
97667,2018-06-29 09:35:44.093750,24.83,70.67
97668,2018-06-29 09:35:44.125000,23.78,70.67
97669,2018-06-29 09:35:44.156250,18.1,70.67
97670,2018-06-29 09:35:44.187500,8.2,70.67
97671,2018-06-29 09:35:44.218750,-4.83,70.67
97672,2018-06-29 09:35:44.250000,-20.32,70.67
97673,2018-06-29 09:35:44.281250,-36.09,70.67
97674,2018-06-29 09:35:44.312500,-48.77,70.67
97675,2018-06-29 09:35:44.343750,-56.48,70.67
97676,2018-06-29 09:35:44.375000,-60.11,70.67
97677,2018-06-29 09:35:44.406250,-62.78,70.67
97678,2018-06-29 09:35:44.437500,-67.26,70.67
97679,2018-06-29 09:35:44.468750,-70.38,70.67
97680,2018-06-29 09:35:44.500000,-62.46,70.67
97681,2018-06-29 09:35:44.531250,-37.32,70.9
97682,2018-06-29 09:35:44.562500,0.05,70.9
97683,2018-06-29 09:35:44.593750,38.58,70.9
97684,2018-06-29 09:35:44.625000,70.35,70.9
97685,2018-06-29 09:35:44.656250,93.6,70.9
97686,2018-06-29 09:35:44.687500,110.23,70.9
97687,2018-06-29 09:35:44.718750,120.96,70.9
97688,2018-06-29 09:35:44.750000,122.58,70.9
97689,2018-06-29 09:35:44.781250,112.64,70.9
97690,2018-06-29 09:35:44.812500,93.61,70.9
97691,2018-06-29 09:35:44.843750,69.32,70.9
97692,2018-06-29 09:35:44.875000,42.53,70.9
97693,2018-06-29 09:35:44.906250,16.85,70.9
97694,2018-06-29 09:35:44.937500,-4.98,70.9
97695,2018-06-29 09:35:44.968750,-23.55,70.9
97696,2018-06-29 09:35:45.000000,-40.76,70.9
97697,2018-06-29 09:35:45.031250,-57.58,70.9
97698,2018-06-29 09:35:45.062500,-73.17,70.9
97699,2018-06-29 09:35:45.093750,-84.56,70.9
97700,2018-06-29 09:35:45.125000,-89.14,70.9
97701,2018-06-29 09:35:45.156250,-88.16,70.9
97702,2018-06-29 09:35:45.187500,-85.58,70.9
97703,2018-06-29 09:35:45.218750,-83.33,70.9
97704,2018-06-29 09:35:45.250000,-77.35,70.9
97705,2018-06-29 09:35:45.281250,-61.29,70.9
97706,2018-06-29 09:35:45.312500,-35.99,70.9
97707,2018-06-29 09:35:45.343750,-10.03,70.9
97708,2018-06-29 09:35:45.375000,9.72,70.9
97709,2018-06-29 09:35:45.406250,21.74,70.9
97710,2018-06-29 09:35:45.437500,25.98,70.9
97711,2018-06-29 09:35:45.468750,23.45,70.9
97712,2018-06-29 09:35:45.500000,16.6,70.9
97713,2018-06-29 09:35:45.531250,5.17,71.17
97714,2018-06-29 09:35:45.562500,-14.55,71.17
97715,2018-06-29 09:35:45.593750,-42.72,71.17
97716,2018-06-29 09:35:45.625000,-71.54,71.17
97717,2018-06-29 09:35:45.656250,-92.59,71.17
97718,2018-06-29 09:35:45.687500,-106.42,71.17
97719,2018-06-29 09:35:45.718750,-120.01,71.17
97720,2018-06-29 09:35:45.750000,-137.76,71.17
97721,2018-06-29 09:35:45.781250,-158.62,71.17
97722,2018-06-29 09:35:45.812500,-178.4,71.17
97723,2018-06-29 09:35:45.843750,-191.07,71.17
97724,2018-06-29 09:35:45.875000,-190.16,71.17
97725,2018-06-29 09:35:45.906250,-172.72,71.17
97726,2018-06-29 09:35:45.937500,-139.53,71.17
97727,2018-06-29 09:35:45.968750,-89.99,71.17
97728,2018-06-29 09:35:46.000000,-22.32,71.17
97729,2018-06-29 09:35:46.031250,58.17,71.17
97730,2018-06-29 09:35:46.062500,137.06,71.17
97731,2018-06-29 09:35:46.093750,200.84,71.17
97732,2018-06-29 09:35:46.125000,244.54,71.17
97733,2018-06-29 09:35:46.156250,269.99,71.17
97734,2018-06-29 09:35:46.187500,281.99,71.17
97735,2018-06-29 09:35:46.218750,284.23,71.17
97736,2018-06-29 09:35:46.250000,275.83,71.17
97737,2018-06-29 09:35:46.281250,254.99,71.17
97738,2018-06-29 09:35:46.312500,225.48,71.17
97739,2018-06-29 09:35:46.343750,193.15,71.17
97740,2018-06-29 09:35:46.375000,157.79,71.17
97741,2018-06-29 09:35:46.406250,113.81,71.17
97742,2018-06-29 09:35:46.437500,55.28,71.17
97743,2018-06-29 09:35:46.468750,-20.09,71.17
97744,2018-06-29 09:35:46.500000,-104.56,71.17
97745,2018-06-29 09:35:46.531250,-181.07,71.47
97746,2018-06-29 09:35:46.562500,-236.27,71.47
97747,2018-06-29 09:35:46.593750,-268.11,71.47
97748,2018-06-29 09:35:46.625000,-280.56,71.47
97749,2018-06-29 09:35:46.656250,-281.77,71.47
97750,2018-06-29 09:35:46.687500,-282.92,71.47
97751,2018-06-29 09:35:46.718750,-281.91,71.47
97752,2018-06-29 09:35:46.750000,-253.64,71.47
97753,2018-06-29 09:35:46.781250,-175.47,71.47
97754,2018-06-29 09:35:46.812500,-58.34,71.47
97755,2018-06-29 09:35:46.843750,63.14,71.47
97756,2018-06-29 09:35:46.875000,163.0,71.47
97757,2018-06-29 09:35:46.906250,232.82,71.47
97758,2018-06-29 09:35:46.937500,273.78,71.47
97759,2018-06-29 09:35:46.968750,296.03,71.47
97760,2018-06-29 09:35:47.000000,314.25,71.47
97761,2018-06-29 09:35:47.031250,332.75,71.47
97762,2018-06-29 09:35:47.062500,341.37,71.47
97763,2018-06-29 09:35:47.093750,328.08,71.47
97764,2018-06-29 09:35:47.125000,287.83,71.47
97765,2018-06-29 09:35:47.156250,220.36,71.47
97766,2018-06-29 09:35:47.187500,131.11,71.47
97767,2018-06-29 09:35:47.218750,34.23,71.47
97768,2018-06-29 09:35:47.250000,-53.21,71.47
97769,2018-06-29 09:35:47.281250,-118.79,71.47
97770,2018-06-29 09:35:47.312500,-156.81,71.47
97771,2018-06-29 09:35:47.343750,-170.64,71.47
97772,2018-06-29 09:35:47.375000,-172.0,71.47
97773,2018-06-29 09:35:47.406250,-170.04,71.47
97774,2018-06-29 09:35:47.437500,-163.0,71.47
97775,2018-06-29 09:35:47.468750,-145.46,71.47
97776,2018-06-29 09:35:47.500000,-118.87,71.47
97777,2018-06-29 09:35:47.531250,-90.13,71.73
97778,2018-06-29 09:35:47.562500,-64.41,71.73
97779,2018-06-29 09:35:47.593750,-43.65,71.73
97780,2018-06-29 09:35:47.625000,-29.5,71.73
97781,2018-06-29 09:35:47.656250,-22.51,71.73
97782,2018-06-29 09:35:47.687500,-19.93,71.73
97783,2018-06-29 09:35:47.718750,-18.38,71.73
97784,2018-06-29 09:35:47.750000,-17.24,71.73
97785,2018-06-29 09:35:47.781250,-17.44,71.73
97786,2018-06-29 09:35:47.812500,-18.66,71.73
97787,2018-06-29 09:35:47.843750,-19.99,71.73
97788,2018-06-29 09:35:47.875000,-22.25,71.73
97789,2018-06-29 09:35:47.906250,-27.01,71.73
97790,2018-06-29 09:35:47.937500,-33.7,71.73
97791,2018-06-29 09:35:47.968750,-40.35,71.73
97792,2018-06-29 09:35:48.000000,-47.4,71.73
97793,2018-06-29 09:35:48.031250,-57.64,71.73
97794,2018-06-29 09:35:48.062500,-71.89,71.73
97795,2018-06-29 09:35:48.093750,-86.69,71.73
97796,2018-06-29 09:35:48.125000,-96.49,71.73
97797,2018-06-29 09:35:48.156250,-97.73,71.73
97798,2018-06-29 09:35:48.187500,-92.79,71.73
97799,2018-06-29 09:35:48.218750,-88.36,71.73
97800,2018-06-29 09:35:48.250000,-89.25,71.73
97801,2018-06-29 09:35:48.281250,-96.67,71.73
97802,2018-06-29 09:35:48.312500,-110.7,71.73
97803,2018-06-29 09:35:48.343750,-126.29,71.73
97804,2018-06-29 09:35:48.375000,-127.56,71.73
97805,2018-06-29 09:35:48.406250,-93.33,71.73
97806,2018-06-29 09:35:48.437500,-14.55,71.73
97807,2018-06-29 09:35:48.468750,89.67,71.73
97808,2018-06-29 09:35:48.500000,180.86,71.73
97809,2018-06-29 09:35:48.531250,235.47,71.98
97810,2018-06-29 09:35:48.562500,260.48,71.98
97811,2018-06-29 09:35:48.593750,270.16,71.98
97812,2018-06-29 09:35:48.625000,267.95,71.98
97813,2018-06-29 09:35:48.656250,255.02,71.98
97814,2018-06-29 09:35:48.687500,233.28,71.98
97815,2018-06-29 09:35:48.718750,198.73,71.98
97816,2018-06-29 09:35:48.750000,146.86,71.98
97817,2018-06-29 09:35:48.781250,77.45,71.98
97818,2018-06-29 09:35:48.812500,-7.94,71.98
97819,2018-06-29 09:35:48.843750,-96.53,71.98
97820,2018-06-29 09:35:48.875000,-159.61,71.98
97821,2018-06-29 09:35:48.906250,-178.12,71.98
97822,2018-06-29 09:35:48.937500,-160.48,71.98
97823,2018-06-29 09:35:48.968750,-125.3,71.98
97824,2018-06-29 09:35:49.000000,-89.45,71.98
97825,2018-06-29 09:35:49.031250,-67.7,71.98
97826,2018-06-29 09:35:49.062500,-57.1,71.98
97827,2018-06-29 09:35:49.093750,-44.48,71.98
97828,2018-06-29 09:35:49.125000,-34.38,71.98
97829,2018-06-29 09:35:49.156250,-30.97,71.98
97830,2018-06-29 09:35:49.187500,-13.64,71.98
97831,2018-06-29 09:35:49.218750,26.61,71.98
97832,2018-06-29 09:35:49.250000,62.97,71.98
97833,2018-06-29 09:35:49.281250,73.47,71.98
97834,2018-06-29 09:35:49.312500,63.04,71.98
97835,2018-06-29 09:35:49.343750,39.83,71.98
97836,2018-06-29 09:35:49.375000,9.46,71.98
97837,2018-06-29 09:35:49.406250,-15.47,71.98
97838,2018-06-29 09:35:49.437500,-23.86,71.98
97839,2018-06-29 09:35:49.468750,-17.31,71.98
97840,2018-06-29 09:35:49.500000,-3.91,71.98
97841,2018-06-29 09:35:49.531250,12.64,72.22
97842,2018-06-29 09:35:49.562500,34.52,72.22
97843,2018-06-29 09:35:49.593750,64.77,72.22
97844,2018-06-29 09:35:49.625000,101.47,72.22
97845,2018-06-29 09:35:49.656250,134.95,72.22
97846,2018-06-29 09:35:49.687500,150.95,72.22
97847,2018-06-29 09:35:49.718750,140.04,72.22
97848,2018-06-29 09:35:49.750000,104.9,72.22
97849,2018-06-29 09:35:49.781250,57.02,72.22
97850,2018-06-29 09:35:49.812500,6.92,72.22
97851,2018-06-29 09:35:49.843750,-38.46,72.22
97852,2018-06-29 09:35:49.875000,-69.97,72.22
97853,2018-06-29 09:35:49.906250,-80.62,72.22
97854,2018-06-29 09:35:49.937500,-76.22,72.22
97855,2018-06-29 09:35:49.968750,-68.17,72.22
97856,2018-06-29 09:35:50.000000,-58.85,72.22
97857,2018-06-29 09:35:50.031250,-53.0,72.22
97858,2018-06-29 09:35:50.062500,-62.55,72.22
97859,2018-06-29 09:35:50.093750,-79.68,72.22
97860,2018-06-29 09:35:50.125000,-80.04,72.22
97861,2018-06-29 09:35:50.156250,-64.14,72.22
97862,2018-06-29 09:35:50.187500,-55.09,72.22
97863,2018-06-29 09:35:50.218750,-57.4,72.22
97864,2018-06-29 09:35:50.250000,-58.62,72.22
97865,2018-06-29 09:35:50.281250,-58.59,72.22
97866,2018-06-29 09:35:50.312500,-64.18,72.22
97867,2018-06-29 09:35:50.343750,-69.24,72.22
97868,2018-06-29 09:35:50.375000,-59.99,72.22
97869,2018-06-29 09:35:50.406250,-34.62,72.22
97870,2018-06-29 09:35:50.437500,-6.49,72.22
97871,2018-06-29 09:35:50.468750,13.81,72.22
97872,2018-06-29 09:35:50.500000,26.93,72.22
97873,2018-06-29 09:35:50.531250,34.64,72.5
97874,2018-06-29 09:35:50.562500,33.96,72.5
97875,2018-06-29 09:35:50.593750,25.86,72.5
97876,2018-06-29 09:35:50.625000,18.27,72.5
97877,2018-06-29 09:35:50.656250,15.88,72.5
97878,2018-06-29 09:35:50.687500,14.67,72.5
97879,2018-06-29 09:35:50.718750,10.83,72.5
97880,2018-06-29 09:35:50.750000,7.36,72.5
97881,2018-06-29 09:35:50.781250,7.63,72.5
97882,2018-06-29 09:35:50.812500,8.64,72.5
97883,2018-06-29 09:35:50.843750,5.34,72.5
97884,2018-06-29 09:35:50.875000,-2.16,72.5
97885,2018-06-29 09:35:50.906250,-9.87,72.5
97886,2018-06-29 09:35:50.937500,-15.14,72.5
97887,2018-06-29 09:35:50.968750,-18.99,72.5
97888,2018-06-29 09:35:51.000000,-24.67,72.5
97889,2018-06-29 09:35:51.031250,-34.04,72.5
97890,2018-06-29 09:35:51.062500,-43.39,72.5
97891,2018-06-29 09:35:51.093750,-43.93,72.5
97892,2018-06-29 09:35:51.125000,-30.43,72.5
97893,2018-06-29 09:35:51.156250,-8.26,72.5
97894,2018-06-29 09:35:51.187500,12.34,72.5
97895,2018-06-29 09:35:51.218750,26.87,72.5
97896,2018-06-29 09:35:51.250000,36.68,72.5
97897,2018-06-29 09:35:51.281250,42.18,72.5
97898,2018-06-29 09:35:51.312500,43.17,72.5
97899,2018-06-29 09:35:51.343750,42.66,72.5
97900,2018-06-29 09:35:51.375000,44.5,72.5
97901,2018-06-29 09:35:51.406250,49.54,72.5
97902,2018-06-29 09:35:51.437500,56.94,72.5
97903,2018-06-29 09:35:51.468750,66.21,72.5
97904,2018-06-29 09:35:51.500000,77.23,72.5
97905,2018-06-29 09:35:51.531250,90.27,72.78
97906,2018-06-29 09:35:51.562500,104.82,72.78
97907,2018-06-29 09:35:51.593750,117.29,72.78
97908,2018-06-29 09:35:51.625000,124.0,72.78
97909,2018-06-29 09:35:51.656250,126.29,72.78
97910,2018-06-29 09:35:51.687500,127.08,72.78
97911,2018-06-29 09:35:51.718750,123.19,72.78
97912,2018-06-29 09:35:51.750000,107.65,72.78
97913,2018-06-29 09:35:51.781250,79.99,72.78
97914,2018-06-29 09:35:51.812500,48.54,72.78
97915,2018-06-29 09:35:51.843750,21.42,72.78
97916,2018-06-29 09:35:51.875000,-0.59,72.78
97917,2018-06-29 09:35:51.906250,-19.33,72.78
97918,2018-06-29 09:35:51.937500,-32.27,72.78
97919,2018-06-29 09:35:51.968750,-39.48,72.78
97920,2018-06-29 09:35:52.000000,-53.08,72.78
97921,2018-06-29 09:35:52.031250,-92.23,72.78
97922,2018-06-29 09:35:52.062500,-168.91,72.78
97923,2018-06-29 09:35:52.093750,-268.67,72.78
97924,2018-06-29 09:35:52.125000,-339.26,72.78
97925,2018-06-29 09:35:52.156250,-333.45,72.78
97926,2018-06-29 09:35:52.187500,-273.29,72.78
97927,2018-06-29 09:35:52.218750,-222.39,72.78
97928,2018-06-29 09:35:52.250000,-201.98,72.78
97929,2018-06-29 09:35:52.281250,-191.08,72.78
97930,2018-06-29 09:35:52.312500,-181.91,72.78
97931,2018-06-29 09:35:52.343750,-176.05,72.78
97932,2018-06-29 09:35:52.375000,-160.03,72.78
97933,2018-06-29 09:35:52.406250,-128.37,72.78
97934,2018-06-29 09:35:52.437500,-99.78,72.78
97935,2018-06-29 09:35:52.468750,-91.1,72.78
97936,2018-06-29 09:35:52.500000,-97.21,72.78
97937,2018-06-29 09:35:52.531250,-96.87,73.02
97938,2018-06-29 09:35:52.562500,-69.17,73.02
97939,2018-06-29 09:35:52.593750,-11.92,73.02
97940,2018-06-29 09:35:52.625000,52.43,73.02
97941,2018-06-29 09:35:52.656250,98.66,73.02
97942,2018-06-29 09:35:52.687500,120.82,73.02
97943,2018-06-29 09:35:52.718750,124.43,73.02
97944,2018-06-29 09:35:52.750000,112.31,73.02
97945,2018-06-29 09:35:52.781250,90.55,73.02
97946,2018-06-29 09:35:52.812500,71.87,73.02
97947,2018-06-29 09:35:52.843750,62.1,73.02
97948,2018-06-29 09:35:52.875000,54.67,73.02
97949,2018-06-29 09:35:52.906250,44.01,73.02
97950,2018-06-29 09:35:52.937500,34.65,73.02
97951,2018-06-29 09:35:52.968750,31.64,73.02
97952,2018-06-29 09:35:53.000000,30.42,73.02
97953,2018-06-29 09:35:53.031250,23.0,73.02
97954,2018-06-29 09:35:53.062500,9.42,73.02
97955,2018-06-29 09:35:53.093750,-3.15,73.02
97956,2018-06-29 09:35:53.125000,-10.32,73.02
97957,2018-06-29 09:35:53.156250,-14.9,73.02
97958,2018-06-29 09:35:53.187500,-21.91,73.02
97959,2018-06-29 09:35:53.218750,-32.24,73.02
97960,2018-06-29 09:35:53.250000,-38.49,73.02
97961,2018-06-29 09:35:53.281250,-27.76,73.02
97962,2018-06-29 09:35:53.312500,3.96,73.02
97963,2018-06-29 09:35:53.343750,42.86,73.02
97964,2018-06-29 09:35:53.375000,71.35,73.02
97965,2018-06-29 09:35:53.406250,85.11,73.02
97966,2018-06-29 09:35:53.437500,88.59,73.02
97967,2018-06-29 09:35:53.468750,84.49,73.02
97968,2018-06-29 09:35:53.500000,75.6,73.02
97969,2018-06-29 09:35:53.531250,67.24,73.25
97970,2018-06-29 09:35:53.562500,61.14,73.25
97971,2018-06-29 09:35:53.593750,52.94,73.25
97972,2018-06-29 09:35:53.625000,39.81,73.25
97973,2018-06-29 09:35:53.656250,25.76,73.25
97974,2018-06-29 09:35:53.687500,15.88,73.25
97975,2018-06-29 09:35:53.718750,8.97,73.25
97976,2018-06-29 09:35:53.750000,-0.35,73.25
97977,2018-06-29 09:35:53.781250,-13.52,73.25
97978,2018-06-29 09:35:53.812500,-26.17,73.25
97979,2018-06-29 09:35:53.843750,-34.58,73.25
97980,2018-06-29 09:35:53.875000,-40.84,73.25
97981,2018-06-29 09:35:53.906250,-50.28,73.25
97982,2018-06-29 09:35:53.937500,-65.54,73.25
97983,2018-06-29 09:35:53.968750,-81.23,73.25
97984,2018-06-29 09:35:54.000000,-81.88,73.25
97985,2018-06-29 09:35:54.031250,-54.13,73.25
97986,2018-06-29 09:35:54.062500,-5.16,73.25
97987,2018-06-29 09:35:54.093750,41.73,73.25
97988,2018-06-29 09:35:54.125000,71.28,73.25
97989,2018-06-29 09:35:54.156250,84.18,73.25
97990,2018-06-29 09:35:54.187500,84.78,73.25
97991,2018-06-29 09:35:54.218750,76.6,73.25
97992,2018-06-29 09:35:54.250000,65.79,73.25
97993,2018-06-29 09:35:54.281250,56.69,73.25
97994,2018-06-29 09:35:54.312500,47.77,73.25
97995,2018-06-29 09:35:54.343750,37.53,73.25
97996,2018-06-29 09:35:54.375000,28.43,73.25
97997,2018-06-29 09:35:54.406250,20.94,73.25
97998,2018-06-29 09:35:54.437500,10.74,73.25
97999,2018-06-29 09:35:54.468750,-3.52,73.25
98000,2018-06-29 09:35:54.500000,-16.42,73.25
98001,2018-06-29 09:35:54.531250,-23.55,73.48
98002,2018-06-29 09:35:54.562500,-28.58,73.48
98003,2018-06-29 09:35:54.593750,-39.86,73.48
98004,2018-06-29 09:35:54.625000,-59.53,73.48
98005,2018-06-29 09:35:54.656250,-73.41,73.48
98006,2018-06-29 09:35:54.687500,-58.6,73.48
98007,2018-06-29 09:35:54.718750,-11.48,73.48
98008,2018-06-29 09:35:54.750000,42.16,73.48
98009,2018-06-29 09:35:54.781250,75.93,73.48
98010,2018-06-29 09:35:54.812500,87.76,73.48
98011,2018-06-29 09:35:54.843750,88.26,73.48
98012,2018-06-29 09:35:54.875000,82.92,73.48
98013,2018-06-29 09:35:54.906250,75.02,73.48
98014,2018-06-29 09:35:54.937500,70.11,73.48
98015,2018-06-29 09:35:54.968750,69.24,73.48
98016,2018-06-29 09:35:55.000000,66.85,73.48
98017,2018-06-29 09:35:55.031250,60.06,73.48
98018,2018-06-29 09:35:55.062500,53.68,73.48
98019,2018-06-29 09:35:55.093750,51.42,73.48
98020,2018-06-29 09:35:55.125000,48.45,73.48
98021,2018-06-29 09:35:55.156250,38.06,73.48
98022,2018-06-29 09:35:55.187500,21.28,73.48
98023,2018-06-29 09:35:55.218750,4.93,73.48
98024,2018-06-29 09:35:55.250000,-7.55,73.48
98025,2018-06-29 09:35:55.281250,-19.73,73.48
98026,2018-06-29 09:35:55.312500,-36.99,73.48
98027,2018-06-29 09:35:55.343750,-60.22,73.48
98028,2018-06-29 09:35:55.375000,-81.6,73.48
98029,2018-06-29 09:35:55.406250,-83.91,73.48
98030,2018-06-29 09:35:55.437500,-54.32,73.48
98031,2018-06-29 09:35:55.468750,-3.62,73.48
98032,2018-06-29 09:35:55.500000,41.71,73.48
98033,2018-06-29 09:35:55.531250,67.12,73.7
98034,2018-06-29 09:35:55.562500,74.4,73.7
98035,2018-06-29 09:35:55.593750,66.32,73.7
98036,2018-06-29 09:35:55.625000,46.45,73.7
98037,2018-06-29 09:35:55.656250,25.48,73.7
98038,2018-06-29 09:35:55.687500,11.97,73.7
98039,2018-06-29 09:35:55.718750,3.9,73.7
98040,2018-06-29 09:35:55.750000,-3.21,73.7
98041,2018-06-29 09:35:55.781250,-7.72,73.7
98042,2018-06-29 09:35:55.812500,-8.09,73.7
98043,2018-06-29 09:35:55.843750,-10.69,73.7
98044,2018-06-29 09:35:55.875000,-23.15,73.7
98045,2018-06-29 09:35:55.906250,-42.91,73.7
98046,2018-06-29 09:35:55.937500,-61.11,73.7
98047,2018-06-29 09:35:55.968750,-76.05,73.7
98048,2018-06-29 09:35:56.000000,-95.0,73.7
98049,2018-06-29 09:35:56.031250,-122.81,73.7
98050,2018-06-29 09:35:56.062500,-150.38,73.7
98051,2018-06-29 09:35:56.093750,-153.69,73.7
98052,2018-06-29 09:35:56.125000,-114.29,73.7
98053,2018-06-29 09:35:56.156250,-44.77,73.7
98054,2018-06-29 09:35:56.187500,20.67,73.7
98055,2018-06-29 09:35:56.218750,62.0,73.7
98056,2018-06-29 09:35:56.250000,81.86,73.7
98057,2018-06-29 09:35:56.281250,85.47,73.7
98058,2018-06-29 09:35:56.312500,75.22,73.7
98059,2018-06-29 09:35:56.343750,59.94,73.7
98060,2018-06-29 09:35:56.375000,49.79,73.7
98061,2018-06-29 09:35:56.406250,44.2,73.7
98062,2018-06-29 09:35:56.437500,36.22,73.7
98063,2018-06-29 09:35:56.468750,25.14,73.7
98064,2018-06-29 09:35:56.500000,16.29,73.7
98065,2018-06-29 09:35:56.531250,9.51,73.97
98066,2018-06-29 09:35:56.562500,-3.62,73.97
98067,2018-06-29 09:35:56.593750,-27.67,73.97
98068,2018-06-29 09:35:56.625000,-54.71,73.97
98069,2018-06-29 09:35:56.656250,-74.47,73.97
98070,2018-06-29 09:35:56.687500,-87.78,73.97
98071,2018-06-29 09:35:56.718750,-103.25,73.97
98072,2018-06-29 09:35:56.750000,-125.68,73.97
98073,2018-06-29 09:35:56.781250,-148.14,73.97
98074,2018-06-29 09:35:56.812500,-148.58,73.97
98075,2018-06-29 09:35:56.843750,-106.17,73.97
98076,2018-06-29 09:35:56.875000,-31.26,73.97
98077,2018-06-29 09:35:56.906250,39.48,73.97
98078,2018-06-29 09:35:56.937500,83.06,73.97
98079,2018-06-29 09:35:56.968750,103.52,73.97
98080,2018-06-29 09:35:57.000000,108.39,73.97
98081,2018-06-29 09:35:57.031250,98.89,73.97
98082,2018-06-29 09:35:57.062500,80.39,73.97
98083,2018-06-29 09:35:57.093750,61.69,73.97
98084,2018-06-29 09:35:57.125000,45.31,73.97
98085,2018-06-29 09:35:57.156250,28.88,73.97
98086,2018-06-29 09:35:57.187500,14.13,73.97
98087,2018-06-29 09:35:57.218750,6.74,73.97
98088,2018-06-29 09:35:57.250000,6.58,73.97
98089,2018-06-29 09:35:57.281250,4.46,73.97
98090,2018-06-29 09:35:57.312500,-7.52,73.97
98091,2018-06-29 09:35:57.343750,-25.86,73.97
98092,2018-06-29 09:35:57.375000,-40.71,73.97
98093,2018-06-29 09:35:57.406250,-49.26,73.97
98094,2018-06-29 09:35:57.437500,-58.84,73.97
98095,2018-06-29 09:35:57.468750,-76.77,73.97
98096,2018-06-29 09:35:57.500000,-99.51,73.97
98097,2018-06-29 09:35:57.531250,-109.71,74.25
98098,2018-06-29 09:35:57.562500,-88.01,74.25
98099,2018-06-29 09:35:57.593750,-35.0,74.25
98100,2018-06-29 09:35:57.625000,25.09,74.25
98101,2018-06-29 09:35:57.656250,69.33,74.25
98102,2018-06-29 09:35:57.687500,95.42,74.25
98103,2018-06-29 09:35:57.718750,113.19,74.25
98104,2018-06-29 09:35:57.750000,129.58,74.25
98105,2018-06-29 09:35:57.781250,144.9,74.25
98106,2018-06-29 09:35:57.812500,155.02,74.25
98107,2018-06-29 09:35:57.843750,156.18,74.25
98108,2018-06-29 09:35:57.875000,149.59,74.25
98109,2018-06-29 09:35:57.906250,139.19,74.25
98110,2018-06-29 09:35:57.937500,125.99,74.25
98111,2018-06-29 09:35:57.968750,108.71,74.25
98112,2018-06-29 09:35:58.000000,88.44,74.25
98113,2018-06-29 09:35:58.031250,68.2,74.25
98114,2018-06-29 09:35:58.062500,47.68,74.25
98115,2018-06-29 09:35:58.093750,23.44,74.25
98116,2018-06-29 09:35:58.125000,-2.97,74.25
98117,2018-06-29 09:35:58.156250,-22.82,74.25
98118,2018-06-29 09:35:58.187500,-31.83,74.25
98119,2018-06-29 09:35:58.218750,-38.95,74.25
98120,2018-06-29 09:35:58.250000,-57.17,74.25
98121,2018-06-29 09:35:58.281250,-85.73,74.25
98122,2018-06-29 09:35:58.312500,-103.09,74.25
98123,2018-06-29 09:35:58.343750,-82.97,74.25
98124,2018-06-29 09:35:58.375000,-25.12,74.25
98125,2018-06-29 09:35:58.406250,36.9,74.25
98126,2018-06-29 09:35:58.437500,67.88,74.25
98127,2018-06-29 09:35:58.468750,61.37,74.25
98128,2018-06-29 09:35:58.500000,30.85,74.25
98129,2018-06-29 09:35:58.531250,-14.09,74.57
98130,2018-06-29 09:35:58.562500,-65.83,74.57
98131,2018-06-29 09:35:58.593750,-98.88,74.57
98132,2018-06-29 09:35:58.625000,-77.1,74.57
98133,2018-06-29 09:35:58.656250,3.76,74.57
98134,2018-06-29 09:35:58.687500,99.62,74.57
98135,2018-06-29 09:35:58.718750,165.49,74.57
98136,2018-06-29 09:35:58.750000,194.28,74.57
98137,2018-06-29 09:35:58.781250,188.05,74.57
98138,2018-06-29 09:35:58.812500,135.47,74.57
98139,2018-06-29 09:35:58.843750,48.9,74.57
98140,2018-06-29 09:35:58.875000,-25.6,74.57
98141,2018-06-29 09:35:58.906250,-66.23,74.57
98142,2018-06-29 09:35:58.937500,-96.31,74.57
98143,2018-06-29 09:35:58.968750,-129.87,74.57
98144,2018-06-29 09:35:59.000000,-149.7,74.57
98145,2018-06-29 09:35:59.031250,-144.66,74.57
98146,2018-06-29 09:35:59.062500,-116.34,74.57
98147,2018-06-29 09:35:59.093750,-58.14,74.57
98148,2018-06-29 09:35:59.125000,26.22,74.57
98149,2018-06-29 09:35:59.156250,104.74,74.57
98150,2018-06-29 09:35:59.187500,151.58,74.57
98151,2018-06-29 09:35:59.218750,172.44,74.57
98152,2018-06-29 09:35:59.250000,180.0,74.57
98153,2018-06-29 09:35:59.281250,173.67,74.57
98154,2018-06-29 09:35:59.312500,150.46,74.57
98155,2018-06-29 09:35:59.343750,113.75,74.57
98156,2018-06-29 09:35:59.375000,68.85,74.57
98157,2018-06-29 09:35:59.406250,20.74,74.57
98158,2018-06-29 09:35:59.437500,-22.78,74.57
98159,2018-06-29 09:35:59.468750,-54.49,74.57
98160,2018-06-29 09:35:59.500000,-75.43,74.57
98161,2018-06-29 09:35:59.531250,-91.76,74.92
98162,2018-06-29 09:35:59.562500,-104.68,74.92
98163,2018-06-29 09:35:59.593750,-111.54,74.92
98164,2018-06-29 09:35:59.625000,-113.04,74.92
98165,2018-06-29 09:35:59.656250,-112.4,74.92
98166,2018-06-29 09:35:59.687500,-110.63,74.92
98167,2018-06-29 09:35:59.718750,-106.76,74.92
98168,2018-06-29 09:35:59.750000,-100.22,74.92
98169,2018-06-29 09:35:59.781250,-93.17,74.92
98170,2018-06-29 09:35:59.812500,-89.38,74.92
98171,2018-06-29 09:35:59.843750,-86.28,74.92
98172,2018-06-29 09:35:59.875000,-71.85,74.92
98173,2018-06-29 09:35:59.906250,-38.26,74.92
98174,2018-06-29 09:35:59.937500,5.39,74.92
98175,2018-06-29 09:35:59.968750,41.35,74.92
98176,2018-06-29 09:36:00.000000,58.9,74.92
98177,2018-06-29 09:36:00.031250,57.2,74.92
98178,2018-06-29 09:36:00.062500,39.98,74.92
98179,2018-06-29 09:36:00.093750,15.28,74.92
98180,2018-06-29 09:36:00.125000,-5.75,74.92
98181,2018-06-29 09:36:00.156250,-17.27,74.92
98182,2018-06-29 09:36:00.187500,-22.46,74.92
98183,2018-06-29 09:36:00.218750,-26.43,74.92
98184,2018-06-29 09:36:00.250000,-30.31,74.92
98185,2018-06-29 09:36:00.281250,-33.3,74.92
98186,2018-06-29 09:36:00.312500,-35.74,74.92
98187,2018-06-29 09:36:00.343750,-38.75,74.92
98188,2018-06-29 09:36:00.375000,-42.56,74.92
98189,2018-06-29 09:36:00.406250,-45.93,74.92
98190,2018-06-29 09:36:00.437500,-47.77,74.92
98191,2018-06-29 09:36:00.468750,-49.0,74.92
98192,2018-06-29 09:36:00.500000,-51.06,74.92
98193,2018-06-29 09:36:00.531250,-53.62,75.27
98194,2018-06-29 09:36:00.562500,-54.03,75.27
98195,2018-06-29 09:36:00.593750,-46.9,75.27
98196,2018-06-29 09:36:00.625000,-27.05,75.27
98197,2018-06-29 09:36:00.656250,3.45,75.27
98198,2018-06-29 09:36:00.687500,34.4,75.27
98199,2018-06-29 09:36:00.718750,56.25,75.27
98200,2018-06-29 09:36:00.750000,65.09,75.27
98201,2018-06-29 09:36:00.781250,60.77,75.27
98202,2018-06-29 09:36:00.812500,46.9,75.27
98203,2018-06-29 09:36:00.843750,31.21,75.27
98204,2018-06-29 09:36:00.875000,19.82,75.27
98205,2018-06-29 09:36:00.906250,12.39,75.27
98206,2018-06-29 09:36:00.937500,5.51,75.27
98207,2018-06-29 09:36:00.968750,-2.3,75.27
98208,2018-06-29 09:36:01.000000,-9.94,75.27
98209,2018-06-29 09:36:01.031250,-16.01,75.27
98210,2018-06-29 09:36:01.062500,-20.56,75.27
98211,2018-06-29 09:36:01.093750,-25.05,75.27
98212,2018-06-29 09:36:01.125000,-30.29,75.27
98213,2018-06-29 09:36:01.156250,-34.97,75.27
98214,2018-06-29 09:36:01.187500,-36.97,75.27
98215,2018-06-29 09:36:01.218750,-35.68,75.27
98216,2018-06-29 09:36:01.250000,-33.09,75.27
98217,2018-06-29 09:36:01.281250,-32.54,75.27
98218,2018-06-29 09:36:01.312500,-34.25,75.27
98219,2018-06-29 09:36:01.343750,-32.21,75.27
98220,2018-06-29 09:36:01.375000,-19.5,75.27
98221,2018-06-29 09:36:01.406250,2.16,75.27
98222,2018-06-29 09:36:01.437500,22.94,75.27
98223,2018-06-29 09:36:01.468750,34.86,75.27
98224,2018-06-29 09:36:01.500000,36.58,75.27
98225,2018-06-29 09:36:01.531250,30.09,75.52
98226,2018-06-29 09:36:01.562500,18.56,75.52
98227,2018-06-29 09:36:01.593750,6.64,75.52
98228,2018-06-29 09:36:01.625000,-1.88,75.52
98229,2018-06-29 09:36:01.656250,-6.74,75.52
98230,2018-06-29 09:36:01.687500,-9.83,75.52
98231,2018-06-29 09:36:01.718750,-12.4,75.52
98232,2018-06-29 09:36:01.750000,-14.88,75.52
98233,2018-06-29 09:36:01.781250,-17.59,75.52
98234,2018-06-29 09:36:01.812500,-20.26,75.52
98235,2018-06-29 09:36:01.843750,-22.02,75.52
98236,2018-06-29 09:36:01.875000,-22.49,75.52
98237,2018-06-29 09:36:01.906250,-22.31,75.52
98238,2018-06-29 09:36:01.937500,-22.07,75.52
98239,2018-06-29 09:36:01.968750,-21.42,75.52
98240,2018-06-29 09:36:02.000000,-20.38,75.52
98241,2018-06-29 09:36:02.031250,-20.55,75.52
98242,2018-06-29 09:36:02.062500,-22.31,75.52
98243,2018-06-29 09:36:02.093750,-21.66,75.52
98244,2018-06-29 09:36:02.125000,-12.6,75.52
98245,2018-06-29 09:36:02.156250,6.01,75.52
98246,2018-06-29 09:36:02.187500,27.7,75.52
98247,2018-06-29 09:36:02.218750,43.2,75.52
98248,2018-06-29 09:36:02.250000,46.92,75.52
98249,2018-06-29 09:36:02.281250,39.6,75.52
98250,2018-06-29 09:36:02.312500,26.55,75.52
98251,2018-06-29 09:36:02.343750,13.9,75.52
98252,2018-06-29 09:36:02.375000,5.08,75.52
98253,2018-06-29 09:36:02.406250,-0.21,75.52
98254,2018-06-29 09:36:02.437500,-4.03,75.52
98255,2018-06-29 09:36:02.468750,-7.44,75.52
98256,2018-06-29 09:36:02.500000,-10.05,75.52
98257,2018-06-29 09:36:02.531250,-11.59,75.8
98258,2018-06-29 09:36:02.562500,-12.44,75.8
98259,2018-06-29 09:36:02.593750,-13.14,75.8
98260,2018-06-29 09:36:02.625000,-13.92,75.8
98261,2018-06-29 09:36:02.656250,-14.73,75.8
98262,2018-06-29 09:36:02.687500,-15.32,75.8
98263,2018-06-29 09:36:02.718750,-15.45,75.8
98264,2018-06-29 09:36:02.750000,-14.92,75.8
98265,2018-06-29 09:36:02.781250,-14.48,75.8
98266,2018-06-29 09:36:02.812500,-15.38,75.8
98267,2018-06-29 09:36:02.843750,-16.24,75.8
98268,2018-06-29 09:36:02.875000,-12.62,75.8
98269,2018-06-29 09:36:02.906250,-1.84,75.8
98270,2018-06-29 09:36:02.937500,13.2,75.8
98271,2018-06-29 09:36:02.968750,26.09,75.8
98272,2018-06-29 09:36:03.000000,31.48,75.8
98273,2018-06-29 09:36:03.031250,28.24,75.8
98274,2018-06-29 09:36:03.062500,19.52,75.8
98275,2018-06-29 09:36:03.093750,10.17,75.8
98276,2018-06-29 09:36:03.125000,3.36,75.8
98277,2018-06-29 09:36:03.156250,-0.54,75.8
98278,2018-06-29 09:36:03.187500,-2.78,75.8
98279,2018-06-29 09:36:03.218750,-4.46,75.8
98280,2018-06-29 09:36:03.250000,-6.08,75.8
98281,2018-06-29 09:36:03.281250,-7.85,75.8
98282,2018-06-29 09:36:03.312500,-9.62,75.8
98283,2018-06-29 09:36:03.343750,-10.99,75.8
98284,2018-06-29 09:36:03.375000,-11.86,75.8
98285,2018-06-29 09:36:03.406250,-12.23,75.8
98286,2018-06-29 09:36:03.437500,-11.92,75.8
98287,2018-06-29 09:36:03.468750,-10.91,75.8
98288,2018-06-29 09:36:03.500000,-9.8,75.8
98289,2018-06-29 09:36:03.531250,-9.54,76.1
98290,2018-06-29 09:36:03.562500,-10.99,76.1
98291,2018-06-29 09:36:03.593750,-14.55,76.1
98292,2018-06-29 09:36:03.625000,-18.74,76.1
98293,2018-06-29 09:36:03.656250,-18.83,76.1
98294,2018-06-29 09:36:03.687500,-9.32,76.1
98295,2018-06-29 09:36:03.718750,10.42,76.1
98296,2018-06-29 09:36:03.750000,33.45,76.1
98297,2018-06-29 09:36:03.781250,49.78,76.1
98298,2018-06-29 09:36:03.812500,53.18,76.1
98299,2018-06-29 09:36:03.843750,44.38,76.1
98300,2018-06-29 09:36:03.875000,29.5,76.1
98301,2018-06-29 09:36:03.906250,15.37,76.1
98302,2018-06-29 09:36:03.937500,5.16,76.1
98303,2018-06-29 09:36:03.968750,-1.48,76.1
98304,2018-06-29 09:36:04.000000,-5.38,76.1
98305,2018-06-29 09:36:04.031250,-6.95,76.1
98306,2018-06-29 09:36:04.062500,-7.0,76.1
98307,2018-06-29 09:36:04.093750,-6.72,76.1
98308,2018-06-29 09:36:04.125000,-6.86,76.1
98309,2018-06-29 09:36:04.156250,-7.36,76.1
98310,2018-06-29 09:36:04.187500,-7.8,76.1
98311,2018-06-29 09:36:04.218750,-8.03,76.1
98312,2018-06-29 09:36:04.250000,-8.01,76.1
98313,2018-06-29 09:36:04.281250,-7.73,76.1
98314,2018-06-29 09:36:04.312500,-7.27,76.1
98315,2018-06-29 09:36:04.343750,-6.71,76.1
98316,2018-06-29 09:36:04.375000,-6.6,76.1
98317,2018-06-29 09:36:04.406250,-8.0,76.1
98318,2018-06-29 09:36:04.437500,-9.72,76.1
98319,2018-06-29 09:36:04.468750,-7.11,76.1
98320,2018-06-29 09:36:04.500000,3.12,76.1
98321,2018-06-29 09:36:04.531250,17.51,76.3
98322,2018-06-29 09:36:04.562500,28.36,76.3
98323,2018-06-29 09:36:04.593750,30.68,76.3
98324,2018-06-29 09:36:04.625000,24.94,76.3
98325,2018-06-29 09:36:04.656250,15.29,76.3
98326,2018-06-29 09:36:04.687500,6.7,76.3
98327,2018-06-29 09:36:04.718750,1.98,76.3
98328,2018-06-29 09:36:04.750000,0.32,76.3
98329,2018-06-29 09:36:04.781250,-0.76,76.3
98330,2018-06-29 09:36:04.812500,-2.52,76.3
98331,2018-06-29 09:36:04.843750,-4.48,76.3
98332,2018-06-29 09:36:04.875000,-6.2,76.3
98333,2018-06-29 09:36:04.906250,-8.48,76.3
98334,2018-06-29 09:36:04.937500,-12.01,76.3
98335,2018-06-29 09:36:04.968750,-15.88,76.3
98336,2018-06-29 09:36:05.000000,-19.4,76.3
98337,2018-06-29 09:36:05.031250,-23.26,76.3
98338,2018-06-29 09:36:05.062500,-27.76,76.3
98339,2018-06-29 09:36:05.093750,-31.55,76.3
98340,2018-06-29 09:36:05.125000,-34.09,76.3
98341,2018-06-29 09:36:05.156250,-37.31,76.3
98342,2018-06-29 09:36:05.187500,-42.25,76.3
98343,2018-06-29 09:36:05.218750,-45.24,76.3
98344,2018-06-29 09:36:05.250000,-40.39,76.3
98345,2018-06-29 09:36:05.281250,-28.87,76.3
98346,2018-06-29 09:36:05.312500,-22.96,76.3
98347,2018-06-29 09:36:05.343750,-34.11,76.3
98348,2018-06-29 09:36:05.375000,-57.66,76.3
98349,2018-06-29 09:36:05.406250,-79.1,76.3
98350,2018-06-29 09:36:05.437500,-95.94,76.3
98351,2018-06-29 09:36:05.468750,-119.18,76.3
98352,2018-06-29 09:36:05.500000,-150.21,76.3
98353,2018-06-29 09:36:05.531250,-172.43,76.53
98354,2018-06-29 09:36:05.562500,-173.13,76.53
98355,2018-06-29 09:36:05.593750,-165.17,76.53
98356,2018-06-29 09:36:05.625000,-173.7,76.53
98357,2018-06-29 09:36:05.656250,-199.52,76.53
98358,2018-06-29 09:36:05.687500,-204.59,76.53
98359,2018-06-29 09:36:05.718750,-145.49,76.53
98360,2018-06-29 09:36:05.750000,-25.76,76.53
98361,2018-06-29 09:36:05.781250,85.96,76.53
98362,2018-06-29 09:36:05.812500,119.86,76.53
98363,2018-06-29 09:36:05.843750,94.43,76.53
98364,2018-06-29 09:36:05.875000,93.88,76.53
98365,2018-06-29 09:36:05.906250,153.44,76.53
98366,2018-06-29 09:36:05.937500,231.96,76.53
98367,2018-06-29 09:36:05.968750,289.33,76.53
98368,2018-06-29 09:36:06.000000,317.88,76.53
98369,2018-06-29 09:36:06.031250,305.68,76.53
98370,2018-06-29 09:36:06.062500,240.7,76.53
98371,2018-06-29 09:36:06.093750,146.88,76.53
98372,2018-06-29 09:36:06.125000,68.02,76.53
98373,2018-06-29 09:36:06.156250,17.52,76.53
98374,2018-06-29 09:36:06.187500,-21.14,76.53
98375,2018-06-29 09:36:06.218750,-52.23,76.53
98376,2018-06-29 09:36:06.250000,-63.28,76.53
98377,2018-06-29 09:36:06.281250,-55.6,76.53
98378,2018-06-29 09:36:06.312500,-44.83,76.53
98379,2018-06-29 09:36:06.343750,-37.53,76.53
98380,2018-06-29 09:36:06.375000,-27.42,76.53
98381,2018-06-29 09:36:06.406250,-10.06,76.53
98382,2018-06-29 09:36:06.437500,8.88,76.53
98383,2018-06-29 09:36:06.468750,18.91,76.53
98384,2018-06-29 09:36:06.500000,16.84,76.53
98385,2018-06-29 09:36:06.531250,11.75,76.77
98386,2018-06-29 09:36:06.562500,13.37,76.77
98387,2018-06-29 09:36:06.593750,22.76,76.77
98388,2018-06-29 09:36:06.625000,37.32,76.77
98389,2018-06-29 09:36:06.656250,52.48,76.77
98390,2018-06-29 09:36:06.687500,61.92,76.77
98391,2018-06-29 09:36:06.718750,67.97,76.77
98392,2018-06-29 09:36:06.750000,81.11,76.77
98393,2018-06-29 09:36:06.781250,102.57,76.77
98394,2018-06-29 09:36:06.812500,125.34,76.77
98395,2018-06-29 09:36:06.843750,149.62,76.77
98396,2018-06-29 09:36:06.875000,175.87,76.77
98397,2018-06-29 09:36:06.906250,191.24,76.77
98398,2018-06-29 09:36:06.937500,181.63,76.77
98399,2018-06-29 09:36:06.968750,143.56,76.77
98400,2018-06-29 09:36:07.000000,84.07,76.77
98401,2018-06-29 09:36:07.031250,19.39,76.77
98402,2018-06-29 09:36:07.062500,-38.55,76.77
98403,2018-06-29 09:36:07.093750,-90.44,76.77
98404,2018-06-29 09:36:07.125000,-133.29,76.77
98405,2018-06-29 09:36:07.156250,-158.09,76.77
98406,2018-06-29 09:36:07.187500,-171.85,76.77
98407,2018-06-29 09:36:07.218750,-188.82,76.77
98408,2018-06-29 09:36:07.250000,-200.33,76.77
98409,2018-06-29 09:36:07.281250,-183.78,76.77
98410,2018-06-29 09:36:07.312500,-133.14,76.77
98411,2018-06-29 09:36:07.343750,-63.31,76.77
98412,2018-06-29 09:36:07.375000,5.56,76.77
98413,2018-06-29 09:36:07.406250,60.64,76.77
98414,2018-06-29 09:36:07.437500,93.21,76.77
98415,2018-06-29 09:36:07.468750,93.73,76.77
98416,2018-06-29 09:36:07.500000,62.93,76.77
98417,2018-06-29 09:36:07.531250,20.1,77.07
98418,2018-06-29 09:36:07.562500,-13.69,77.07
98419,2018-06-29 09:36:07.593750,-32.98,77.07
98420,2018-06-29 09:36:07.625000,-40.77,77.07
98421,2018-06-29 09:36:07.656250,-36.69,77.07
98422,2018-06-29 09:36:07.687500,-22.94,77.07
98423,2018-06-29 09:36:07.718750,-9.93,77.07
98424,2018-06-29 09:36:07.750000,-6.08,77.07
98425,2018-06-29 09:36:07.781250,-8.03,77.07
98426,2018-06-29 09:36:07.812500,-7.24,77.07
98427,2018-06-29 09:36:07.843750,-2.21,77.07
98428,2018-06-29 09:36:07.875000,1.95,77.07
98429,2018-06-29 09:36:07.906250,2.83,77.07
98430,2018-06-29 09:36:07.937500,2.8,77.07
98431,2018-06-29 09:36:07.968750,2.78,77.07
98432,2018-06-29 09:36:08.000000,0.36,77.07
98433,2018-06-29 09:36:08.031250,-5.25,77.07
98434,2018-06-29 09:36:08.062500,-11.64,77.07
98435,2018-06-29 09:36:08.093750,-16.81,77.07
98436,2018-06-29 09:36:08.125000,-20.47,77.07
98437,2018-06-29 09:36:08.156250,-22.35,77.07
98438,2018-06-29 09:36:08.187500,-22.76,77.07
98439,2018-06-29 09:36:08.218750,-23.22,77.07
98440,2018-06-29 09:36:08.250000,-24.29,77.07
98441,2018-06-29 09:36:08.281250,-24.27,77.07
98442,2018-06-29 09:36:08.312500,-21.59,77.07
98443,2018-06-29 09:36:08.343750,-17.49,77.07
98444,2018-06-29 09:36:08.375000,-14.92,77.07
98445,2018-06-29 09:36:08.406250,-14.24,77.07
98446,2018-06-29 09:36:08.437500,-12.74,77.07
98447,2018-06-29 09:36:08.468750,-9.37,77.07
98448,2018-06-29 09:36:08.500000,-5.77,77.07
98449,2018-06-29 09:36:08.531250,-1.92,76.87
98450,2018-06-29 09:36:08.562500,3.41,76.87
98451,2018-06-29 09:36:08.593750,9.63,76.87
98452,2018-06-29 09:36:08.625000,15.88,76.87
98453,2018-06-29 09:36:08.656250,22.6,76.87
98454,2018-06-29 09:36:08.687500,30.87,76.87
98455,2018-06-29 09:36:08.718750,42.02,76.87
98456,2018-06-29 09:36:08.750000,55.21,76.87
98457,2018-06-29 09:36:08.781250,64.92,76.87
98458,2018-06-29 09:36:08.812500,64.51,76.87
98459,2018-06-29 09:36:08.843750,53.26,76.87
98460,2018-06-29 09:36:08.875000,37.52,76.87
98461,2018-06-29 09:36:08.906250,24.38,76.87
98462,2018-06-29 09:36:08.937500,15.67,76.87
98463,2018-06-29 09:36:08.968750,9.99,76.87
98464,2018-06-29 09:36:09.000000,7.3,76.87
98465,2018-06-29 09:36:09.031250,6.28,76.87
98466,2018-06-29 09:36:09.062500,2.62,76.87
98467,2018-06-29 09:36:09.093750,-4.44,76.87
98468,2018-06-29 09:36:09.125000,-10.36,76.87
98469,2018-06-29 09:36:09.156250,-12.67,76.87
98470,2018-06-29 09:36:09.187500,-14.15,76.87
98471,2018-06-29 09:36:09.218750,-18.43,76.87
98472,2018-06-29 09:36:09.250000,-26.0,76.87
98473,2018-06-29 09:36:09.281250,-31.25,76.87
98474,2018-06-29 09:36:09.312500,-21.53,76.87
98475,2018-06-29 09:36:09.343750,12.12,76.87
98476,2018-06-29 09:36:09.375000,62.2,76.87
98477,2018-06-29 09:36:09.406250,110.19,76.87
98478,2018-06-29 09:36:09.437500,143.53,76.87
98479,2018-06-29 09:36:09.468750,159.15,76.87
98480,2018-06-29 09:36:09.500000,156.66,76.87
98481,2018-06-29 09:36:09.531250,139.34,76.72
98482,2018-06-29 09:36:09.562500,116.27,76.72
98483,2018-06-29 09:36:09.593750,94.57,76.72
98484,2018-06-29 09:36:09.625000,74.75,76.72
98485,2018-06-29 09:36:09.656250,57.38,76.72
98486,2018-06-29 09:36:09.687500,45.87,76.72
98487,2018-06-29 09:36:09.718750,40.57,76.72
98488,2018-06-29 09:36:09.750000,37.78,76.72
98489,2018-06-29 09:36:09.781250,35.15,76.72
98490,2018-06-29 09:36:09.812500,32.74,76.72
98491,2018-06-29 09:36:09.843750,29.52,76.72
98492,2018-06-29 09:36:09.875000,23.34,76.72
98493,2018-06-29 09:36:09.906250,15.1,76.72
98494,2018-06-29 09:36:09.937500,8.71,76.72
98495,2018-06-29 09:36:09.968750,4.63,76.72
98496,2018-06-29 09:36:10.000000,-1.85,76.72
98497,2018-06-29 09:36:10.031250,-14.33,76.72
98498,2018-06-29 09:36:10.062500,-31.23,76.72
98499,2018-06-29 09:36:10.093750,-47.47,76.72
98500,2018-06-29 09:36:10.125000,-57.39,76.72
98501,2018-06-29 09:36:10.156250,-60.18,76.72
98502,2018-06-29 09:36:10.187500,-64.62,76.72
98503,2018-06-29 09:36:10.218750,-81.54,76.72
98504,2018-06-29 09:36:10.250000,-110.4,76.72
98505,2018-06-29 09:36:10.281250,-139.28,76.72
98506,2018-06-29 09:36:10.312500,-157.6,76.72
98507,2018-06-29 09:36:10.343750,-160.87,76.72
98508,2018-06-29 09:36:10.375000,-145.88,76.72
98509,2018-06-29 09:36:10.406250,-114.86,76.72
98510,2018-06-29 09:36:10.437500,-82.19,76.72
98511,2018-06-29 09:36:10.468750,-63.43,76.72
98512,2018-06-29 09:36:10.500000,-57.96,76.72
98513,2018-06-29 09:36:10.531250,-54.78,76.65
98514,2018-06-29 09:36:10.562500,-49.75,76.65
98515,2018-06-29 09:36:10.593750,-45.11,76.65
98516,2018-06-29 09:36:10.625000,-39.37,76.65
98517,2018-06-29 09:36:10.656250,-28.05,76.65
98518,2018-06-29 09:36:10.687500,-9.08,76.65
98519,2018-06-29 09:36:10.718750,15.84,76.65
98520,2018-06-29 09:36:10.750000,40.58,76.65
98521,2018-06-29 09:36:10.781250,57.74,76.65
98522,2018-06-29 09:36:10.812500,66.94,76.65
98523,2018-06-29 09:36:10.843750,73.75,76.65
98524,2018-06-29 09:36:10.875000,78.68,76.65
98525,2018-06-29 09:36:10.906250,75.56,76.65
98526,2018-06-29 09:36:10.937500,62.46,76.65
98527,2018-06-29 09:36:10.968750,45.04,76.65
98528,2018-06-29 09:36:11.000000,28.23,76.65
98529,2018-06-29 09:36:11.031250,12.52,76.65
98530,2018-06-29 09:36:11.062500,-1.39,76.65
98531,2018-06-29 09:36:11.093750,-12.09,76.65
98532,2018-06-29 09:36:11.125000,-20.36,76.65
98533,2018-06-29 09:36:11.156250,-27.33,76.65
98534,2018-06-29 09:36:11.187500,-32.46,76.65
98535,2018-06-29 09:36:11.218750,-37.14,76.65
98536,2018-06-29 09:36:11.250000,-44.56,76.65
98537,2018-06-29 09:36:11.281250,-52.2,76.65
98538,2018-06-29 09:36:11.312500,-49.38,76.65
98539,2018-06-29 09:36:11.343750,-30.37,76.65
98540,2018-06-29 09:36:11.375000,-7.39,76.65
98541,2018-06-29 09:36:11.406250,2.39,76.65
98542,2018-06-29 09:36:11.437500,-0.49,76.65
98543,2018-06-29 09:36:11.468750,-3.87,76.65
98544,2018-06-29 09:36:11.500000,-5.0,76.65
98545,2018-06-29 09:36:11.531250,-8.57,76.55
98546,2018-06-29 09:36:11.562500,-14.01,76.55
98547,2018-06-29 09:36:11.593750,-19.53,76.55
98548,2018-06-29 09:36:11.625000,-28.69,76.55
98549,2018-06-29 09:36:11.656250,-42.83,76.55
98550,2018-06-29 09:36:11.687500,-56.23,76.55
98551,2018-06-29 09:36:11.718750,-64.78,76.55
98552,2018-06-29 09:36:11.750000,-71.44,76.55
98553,2018-06-29 09:36:11.781250,-78.82,76.55
98554,2018-06-29 09:36:11.812500,-83.24,76.55
98555,2018-06-29 09:36:11.843750,-82.51,76.55
98556,2018-06-29 09:36:11.875000,-83.13,76.55
98557,2018-06-29 09:36:11.906250,-92.46,76.55
98558,2018-06-29 09:36:11.937500,-107.39,76.55
98559,2018-06-29 09:36:11.968750,-119.24,76.55
98560,2018-06-29 09:36:12.000000,-127.97,76.55
98561,2018-06-29 09:36:12.031250,-143.46,76.55
98562,2018-06-29 09:36:12.062500,-167.26,76.55
98563,2018-06-29 09:36:12.093750,-177.59,76.55
98564,2018-06-29 09:36:12.125000,-144.82,76.55
98565,2018-06-29 09:36:12.156250,-64.13,76.55
98566,2018-06-29 09:36:12.187500,38.27,76.55
98567,2018-06-29 09:36:12.218750,127.95,76.55
98568,2018-06-29 09:36:12.250000,184.76,76.55
98569,2018-06-29 09:36:12.281250,207.48,76.55
98570,2018-06-29 09:36:12.312500,201.94,76.55
98571,2018-06-29 09:36:12.343750,173.11,76.55
98572,2018-06-29 09:36:12.375000,134.65,76.55
98573,2018-06-29 09:36:12.406250,116.74,76.55
98574,2018-06-29 09:36:12.437500,132.89,76.55
98575,2018-06-29 09:36:12.468750,154.59,76.55
98576,2018-06-29 09:36:12.500000,145.29,76.55
98577,2018-06-29 09:36:12.531250,108.65,76.5
98578,2018-06-29 09:36:12.562500,74.2,76.5
98579,2018-06-29 09:36:12.593750,53.52,76.5
98580,2018-06-29 09:36:12.625000,45.71,76.5
98581,2018-06-29 09:36:12.656250,37.14,76.5
98582,2018-06-29 09:36:12.687500,6.18,76.5
98583,2018-06-29 09:36:12.718750,-50.73,76.5
98584,2018-06-29 09:36:12.750000,-78.19,76.5
98585,2018-06-29 09:36:12.781250,-25.34,76.5
98586,2018-06-29 09:36:12.812500,86.88,76.5
98587,2018-06-29 09:36:12.843750,206.94,76.5
98588,2018-06-29 09:36:12.875000,293.86,76.5
98589,2018-06-29 09:36:12.906250,328.0,76.5
98590,2018-06-29 09:36:12.937500,282.55,76.5
98591,2018-06-29 09:36:12.968750,182.72,76.5
98592,2018-06-29 09:36:13.000000,65.62,76.5
98593,2018-06-29 09:36:13.031250,-52.85,76.5
98594,2018-06-29 09:36:13.062500,-163.67,76.5
98595,2018-06-29 09:36:13.093750,-231.18,76.5
98596,2018-06-29 09:36:13.125000,-162.67,76.5
98597,2018-06-29 09:36:13.156250,-49.29,76.5
98598,2018-06-29 09:36:13.187500,20.06,76.5
98599,2018-06-29 09:36:13.218750,35.14,76.5
98600,2018-06-29 09:36:13.250000,-18.35,76.5
98601,2018-06-29 09:36:13.281250,-129.97,76.5
98602,2018-06-29 09:36:13.312500,-220.75,76.5
98603,2018-06-29 09:36:13.343750,-235.46,76.5
98604,2018-06-29 09:36:13.375000,-204.87,76.5
98605,2018-06-29 09:36:13.406250,-179.06,76.5
98606,2018-06-29 09:36:13.437500,-179.23,76.5
98607,2018-06-29 09:36:13.468750,-177.23,76.5
98608,2018-06-29 09:36:13.500000,-161.75,76.5
98609,2018-06-29 09:36:13.531250,-147.31,76.43
98610,2018-06-29 09:36:13.562500,-172.38,76.43
98611,2018-06-29 09:36:13.593750,-239.73,76.43
98612,2018-06-29 09:36:13.625000,-304.13,76.43
98613,2018-06-29 09:36:13.656250,-329.23,76.43
98614,2018-06-29 09:36:13.687500,-320.8,76.43
98615,2018-06-29 09:36:13.718750,-298.77,76.43
98616,2018-06-29 09:36:13.750000,-259.34,76.43
98617,2018-06-29 09:36:13.781250,-203.42,76.43
98618,2018-06-29 09:36:13.812500,-142.81,76.43
98619,2018-06-29 09:36:13.843750,-85.55,76.43
98620,2018-06-29 09:36:13.875000,-35.84,76.43
98621,2018-06-29 09:36:13.906250,-8.52,76.43
98622,2018-06-29 09:36:13.937500,-20.45,76.43
98623,2018-06-29 09:36:13.968750,-65.83,76.43
98624,2018-06-29 09:36:14.000000,-115.14,76.43
98625,2018-06-29 09:36:14.031250,-138.8,76.43
98626,2018-06-29 09:36:14.062500,-126.69,76.43
98627,2018-06-29 09:36:14.093750,-85.65,76.43
98628,2018-06-29 09:36:14.125000,-26.92,76.43
98629,2018-06-29 09:36:14.156250,39.48,76.43
98630,2018-06-29 09:36:14.187500,101.72,76.43
98631,2018-06-29 09:36:14.218750,146.89,76.43
98632,2018-06-29 09:36:14.250000,169.88,76.43
98633,2018-06-29 09:36:14.281250,179.81,76.43
98634,2018-06-29 09:36:14.312500,191.71,76.43
98635,2018-06-29 09:36:14.343750,211.63,76.43
98636,2018-06-29 09:36:14.375000,234.43,76.43
98637,2018-06-29 09:36:14.406250,255.9,76.43
98638,2018-06-29 09:36:14.437500,280.15,76.43
98639,2018-06-29 09:36:14.468750,313.68,76.43
98640,2018-06-29 09:36:14.500000,359.43,76.43
98641,2018-06-29 09:36:14.531250,407.25,76.42
98642,2018-06-29 09:36:14.562500,427.22,76.42
98643,2018-06-29 09:36:14.593750,397.39,76.42
98644,2018-06-29 09:36:14.625000,336.62,76.42
98645,2018-06-29 09:36:14.656250,280.11,76.42
98646,2018-06-29 09:36:14.687500,235.09,76.42
98647,2018-06-29 09:36:14.718750,190.67,76.42
98648,2018-06-29 09:36:14.750000,146.93,76.42
98649,2018-06-29 09:36:14.781250,106.93,76.42
