,Time,ppg,hr
102400,2018-06-29 09:38:12.000000,20.41,95.45
102401,2018-06-29 09:38:12.031250,12.35,95.45
102402,2018-06-29 09:38:12.062500,4.03,95.45
102403,2018-06-29 09:38:12.093750,-4.56,95.45
102404,2018-06-29 09:38:12.125000,-13.66,95.45
102405,2018-06-29 09:38:12.156250,-22.48,95.45
102406,2018-06-29 09:38:12.187500,-31.1,95.45
102407,2018-06-29 09:38:12.218750,-42.08,95.45
102408,2018-06-29 09:38:12.250000,-57.35,95.45
102409,2018-06-29 09:38:12.281250,-72.69,95.45
102410,2018-06-29 09:38:12.312500,-77.44,95.45
102411,2018-06-29 09:38:12.343750,-63.94,95.45
102412,2018-06-29 09:38:12.375000,-36.76,95.45
102413,2018-06-29 09:38:12.406250,-8.61,95.45
102414,2018-06-29 09:38:12.437500,11.7,95.45
102415,2018-06-29 09:38:12.468750,23.78,95.45
102416,2018-06-29 09:38:12.500000,30.68,95.45
102417,2018-06-29 09:38:12.531250,33.66,95.5
102418,2018-06-29 09:38:12.562500,33.08,95.5
102419,2018-06-29 09:38:12.593750,30.79,95.5
102420,2018-06-29 09:38:12.625000,29.07,95.5
102421,2018-06-29 09:38:12.656250,28.28,95.5
102422,2018-06-29 09:38:12.687500,27.6,95.5
102423,2018-06-29 09:38:12.718750,26.83,95.5
102424,2018-06-29 09:38:12.750000,25.38,95.5
102425,2018-06-29 09:38:12.781250,21.34,95.5
102426,2018-06-29 09:38:12.812500,13.89,95.5
102427,2018-06-29 09:38:12.843750,5.01,95.5
102428,2018-06-29 09:38:12.875000,-2.41,95.5
102429,2018-06-29 09:38:12.906250,-8.05,95.5
102430,2018-06-29 09:38:12.937500,-14.13,95.5
102431,2018-06-29 09:38:12.968750,-21.64,95.5
102432,2018-06-29 09:38:13.000000,-29.07,95.5
102433,2018-06-29 09:38:13.031250,-35.28,95.5
102434,2018-06-29 09:38:13.062500,-41.74,95.5
102435,2018-06-29 09:38:13.093750,-50.85,95.5
102436,2018-06-29 09:38:13.125000,-63.16,95.5
102437,2018-06-29 09:38:13.156250,-75.02,95.5
102438,2018-06-29 09:38:13.187500,-77.58,95.5
102439,2018-06-29 09:38:13.218750,-63.29,95.5
102440,2018-06-29 09:38:13.250000,-35.23,95.5
102441,2018-06-29 09:38:13.281250,-5.47,95.5
102442,2018-06-29 09:38:13.312500,16.74,95.5
102443,2018-06-29 09:38:13.343750,30.46,95.5
102444,2018-06-29 09:38:13.375000,37.68,95.5
102445,2018-06-29 09:38:13.406250,39.31,95.5
102446,2018-06-29 09:38:13.437500,36.91,95.5
102447,2018-06-29 09:38:13.468750,33.34,95.5
102448,2018-06-29 09:38:13.500000,30.68,95.5
102449,2018-06-29 09:38:13.531250,28.89,95.55
102450,2018-06-29 09:38:13.562500,27.66,95.55
102451,2018-06-29 09:38:13.593750,27.1,95.55
102452,2018-06-29 09:38:13.625000,26.35,95.55
102453,2018-06-29 09:38:13.656250,23.62,95.55
102454,2018-06-29 09:38:13.687500,18.24,95.55
102455,2018-06-29 09:38:13.718750,11.51,95.55
102456,2018-06-29 09:38:13.750000,4.96,95.55
102457,2018-06-29 09:38:13.781250,-1.78,95.55
102458,2018-06-29 09:38:13.812500,-10.58,95.55
102459,2018-06-29 09:38:13.843750,-21.69,95.55
102460,2018-06-29 09:38:13.875000,-31.98,95.55
102461,2018-06-29 09:38:13.906250,-38.63,95.55
102462,2018-06-29 09:38:13.937500,-43.56,95.55
102463,2018-06-29 09:38:13.968750,-51.35,95.55
102464,2018-06-29 09:38:14.000000,-63.1,95.55
102465,2018-06-29 09:38:14.031250,-73.97,95.55
102466,2018-06-29 09:38:14.062500,-75.99,95.55
102467,2018-06-29 09:38:14.093750,-64.01,95.55
102468,2018-06-29 09:38:14.125000,-40.83,95.55
102469,2018-06-29 09:38:14.156250,-15.53,95.55
102470,2018-06-29 09:38:14.187500,4.12,95.55
102471,2018-06-29 09:38:14.218750,16.36,95.55
102472,2018-06-29 09:38:14.250000,23.12,95.55
102473,2018-06-29 09:38:14.281250,28.71,95.55
102474,2018-06-29 09:38:14.312500,40.88,95.55
102475,2018-06-29 09:38:14.343750,64.08,95.55
102476,2018-06-29 09:38:14.375000,89.72,95.55
102477,2018-06-29 09:38:14.406250,101.75,95.55
102478,2018-06-29 09:38:14.437500,94.84,95.55
102479,2018-06-29 09:38:14.468750,79.22,95.55
102480,2018-06-29 09:38:14.500000,65.97,95.55
102481,2018-06-29 09:38:14.531250,56.81,95.7
102482,2018-06-29 09:38:14.562500,48.93,95.7
102483,2018-06-29 09:38:14.593750,40.55,95.7
102484,2018-06-29 09:38:14.625000,29.16,95.7
102485,2018-06-29 09:38:14.656250,11.82,95.7
102486,2018-06-29 09:38:14.687500,-10.45,95.7
102487,2018-06-29 09:38:14.718750,-33.73,95.7
102488,2018-06-29 09:38:14.750000,-55.6,95.7
102489,2018-06-29 09:38:14.781250,-72.64,95.7
102490,2018-06-29 09:38:14.812500,-79.58,95.7
102491,2018-06-29 09:38:14.843750,-77.88,95.7
102492,2018-06-29 09:38:14.875000,-78.2,95.7
102493,2018-06-29 09:38:14.906250,-88.28,95.7
102494,2018-06-29 09:38:14.937500,-103.44,95.7
102495,2018-06-29 09:38:14.968750,-110.05,95.7
102496,2018-06-29 09:38:15.000000,-97.26,95.7
102497,2018-06-29 09:38:15.031250,-67.17,95.7
102498,2018-06-29 09:38:15.062500,-32.52,95.7
102499,2018-06-29 09:38:15.093750,-3.66,95.7
102500,2018-06-29 09:38:15.125000,16.8,95.7
102501,2018-06-29 09:38:15.156250,29.25,95.7
102502,2018-06-29 09:38:15.187500,34.88,95.7
102503,2018-06-29 09:38:15.218750,36.49,95.7
102504,2018-06-29 09:38:15.250000,36.3,95.7
102505,2018-06-29 09:38:15.281250,34.11,95.7
102506,2018-06-29 09:38:15.312500,30.17,95.7
102507,2018-06-29 09:38:15.343750,26.88,95.7
102508,2018-06-29 09:38:15.375000,24.74,95.7
102509,2018-06-29 09:38:15.406250,20.43,95.7
102510,2018-06-29 09:38:15.437500,12.78,95.7
102511,2018-06-29 09:38:15.468750,5.7,95.7
102512,2018-06-29 09:38:15.500000,2.15,95.7
102513,2018-06-29 09:38:15.531250,0.91,95.88
102514,2018-06-29 09:38:15.562500,0.5,95.88
102515,2018-06-29 09:38:15.593750,1.11,95.88
102516,2018-06-29 09:38:15.625000,2.67,95.88
102517,2018-06-29 09:38:15.656250,3.72,95.88
102518,2018-06-29 09:38:15.687500,2.79,95.88
102519,2018-06-29 09:38:15.718750,-0.75,95.88
102520,2018-06-29 09:38:15.750000,-6.45,95.88
102521,2018-06-29 09:38:15.781250,-13.81,95.88
102522,2018-06-29 09:38:15.812500,-23.87,95.88
102523,2018-06-29 09:38:15.843750,-38.46,95.88
102524,2018-06-29 09:38:15.875000,-56.06,95.88
102525,2018-06-29 09:38:15.906250,-68.3,95.88
102526,2018-06-29 09:38:15.937500,-64.02,95.88
102527,2018-06-29 09:38:15.968750,-40.82,95.88
102528,2018-06-29 09:38:16.000000,-9.38,95.88
102529,2018-06-29 09:38:16.031250,16.74,95.88
102530,2018-06-29 09:38:16.062500,32.1,95.88
102531,2018-06-29 09:38:16.093750,37.86,95.88
102532,2018-06-29 09:38:16.125000,36.24,95.88
102533,2018-06-29 09:38:16.156250,30.47,95.88
102534,2018-06-29 09:38:16.187500,24.67,95.88
102535,2018-06-29 09:38:16.218750,20.7,95.88
102536,2018-06-29 09:38:16.250000,17.85,95.88
102537,2018-06-29 09:38:16.281250,15.5,95.88
102538,2018-06-29 09:38:16.312500,14.1,95.88
102539,2018-06-29 09:38:16.343750,13.75,95.88
102540,2018-06-29 09:38:16.375000,13.71,95.88
102541,2018-06-29 09:38:16.406250,13.37,95.88
102542,2018-06-29 09:38:16.437500,12.61,95.88
102543,2018-06-29 09:38:16.468750,11.5,95.88
102544,2018-06-29 09:38:16.500000,9.9,95.88
102545,2018-06-29 09:38:16.531250,6.83,96.15
102546,2018-06-29 09:38:16.562500,-0.26,96.15
102547,2018-06-29 09:38:16.593750,-12.91,96.15
102548,2018-06-29 09:38:16.625000,-28.38,96.15
102549,2018-06-29 09:38:16.656250,-41.75,96.15
102550,2018-06-29 09:38:16.687500,-51.36,96.15
102551,2018-06-29 09:38:16.718750,-59.35,96.15
102552,2018-06-29 09:38:16.750000,-67.86,96.15
102553,2018-06-29 09:38:16.781250,-75.75,96.15
102554,2018-06-29 09:38:16.812500,-76.66,96.15
102555,2018-06-29 09:38:16.843750,-63.24,96.15
102556,2018-06-29 09:38:16.875000,-36.48,96.15
102557,2018-06-29 09:38:16.906250,-6.82,96.15
102558,2018-06-29 09:38:16.937500,16.2,96.15
102559,2018-06-29 09:38:16.968750,30.92,96.15
102560,2018-06-29 09:38:17.000000,39.41,96.15
102561,2018-06-29 09:38:17.031250,42.66,96.15
102562,2018-06-29 09:38:17.062500,42.22,96.15
102563,2018-06-29 09:38:17.093750,41.04,96.15
102564,2018-06-29 09:38:17.125000,40.86,96.15
102565,2018-06-29 09:38:17.156250,41.29,96.15
102566,2018-06-29 09:38:17.187500,41.99,96.15
102567,2018-06-29 09:38:17.218750,42.57,96.15
102568,2018-06-29 09:38:17.250000,41.22,96.15
102569,2018-06-29 09:38:17.281250,36.07,96.15
102570,2018-06-29 09:38:17.312500,27.61,96.15
102571,2018-06-29 09:38:17.343750,18.4,96.15
102572,2018-06-29 09:38:17.375000,9.97,96.15
102573,2018-06-29 09:38:17.406250,1.35,96.15
102574,2018-06-29 09:38:17.437500,-8.25,96.15
102575,2018-06-29 09:38:17.468750,-16.72,96.15
102576,2018-06-29 09:38:17.500000,-22.01,96.15
102577,2018-06-29 09:38:17.531250,-26.18,96.37
102578,2018-06-29 09:38:17.562500,-34.0,96.37
102579,2018-06-29 09:38:17.593750,-47.34,96.37
102580,2018-06-29 09:38:17.625000,-60.88,96.37
102581,2018-06-29 09:38:17.656250,-63.97,96.37
102582,2018-06-29 09:38:17.687500,-49.52,96.37
102583,2018-06-29 09:38:17.718750,-22.17,96.37
102584,2018-06-29 09:38:17.750000,5.28,96.37
102585,2018-06-29 09:38:17.781250,24.01,96.37
102586,2018-06-29 09:38:17.812500,34.46,96.37
102587,2018-06-29 09:38:17.843750,39.78,96.37
102588,2018-06-29 09:38:17.875000,40.74,96.37
102589,2018-06-29 09:38:17.906250,38.55,96.37
102590,2018-06-29 09:38:17.937500,36.66,96.37
102591,2018-06-29 09:38:17.968750,36.58,96.37
102592,2018-06-29 09:38:18.000000,37.02,96.37
102593,2018-06-29 09:38:18.031250,37.38,96.37
102594,2018-06-29 09:38:18.062500,37.14,96.37
102595,2018-06-29 09:38:18.093750,33.56,96.37
102596,2018-06-29 09:38:18.125000,24.52,96.37
102597,2018-06-29 09:38:18.156250,12.72,96.37
102598,2018-06-29 09:38:18.187500,3.0,96.37
102599,2018-06-29 09:38:18.218750,-3.6,96.37
102600,2018-06-29 09:38:18.250000,-10.1,96.37
102601,2018-06-29 09:38:18.281250,-18.38,96.37
102602,2018-06-29 09:38:18.312500,-26.99,96.37
102603,2018-06-29 09:38:18.343750,-34.47,96.37
102604,2018-06-29 09:38:18.375000,-42.03,96.37
102605,2018-06-29 09:38:18.406250,-52.92,96.37
102606,2018-06-29 09:38:18.437500,-68.32,96.37
102607,2018-06-29 09:38:18.468750,-81.42,96.37
102608,2018-06-29 09:38:18.500000,-79.2,96.37
102609,2018-06-29 09:38:18.531250,-55.84,96.53
102610,2018-06-29 09:38:18.562500,-20.84,96.53
102611,2018-06-29 09:38:18.593750,11.19,96.53
102612,2018-06-29 09:38:18.625000,33.64,96.53
102613,2018-06-29 09:38:18.656250,47.83,96.53
102614,2018-06-29 09:38:18.687500,55.91,96.53
102615,2018-06-29 09:38:18.718750,58.82,96.53
102616,2018-06-29 09:38:18.750000,58.63,96.53
102617,2018-06-29 09:38:18.781250,58.27,96.53
102618,2018-06-29 09:38:18.812500,58.66,96.53
102619,2018-06-29 09:38:18.843750,58.69,96.53
102620,2018-06-29 09:38:18.875000,57.96,96.53
102621,2018-06-29 09:38:18.906250,56.65,96.53
102622,2018-06-29 09:38:18.937500,53.37,96.53
102623,2018-06-29 09:38:18.968750,46.25,96.53
102624,2018-06-29 09:38:19.000000,36.26,96.53
102625,2018-06-29 09:38:19.031250,26.65,96.53
102626,2018-06-29 09:38:19.062500,18.58,96.53
102627,2018-06-29 09:38:19.093750,9.78,96.53
102628,2018-06-29 09:38:19.125000,-1.73,96.53
102629,2018-06-29 09:38:19.156250,-14.3,96.53
102630,2018-06-29 09:38:19.187500,-24.73,96.53
102631,2018-06-29 09:38:19.218750,-32.63,96.53
102632,2018-06-29 09:38:19.250000,-41.39,96.53
102633,2018-06-29 09:38:19.281250,-54.81,96.53
102634,2018-06-29 09:38:19.312500,-70.93,96.53
102635,2018-06-29 09:38:19.343750,-78.88,96.53
102636,2018-06-29 09:38:19.375000,-67.17,96.53
102637,2018-06-29 09:38:19.406250,-37.29,96.53
102638,2018-06-29 09:38:19.437500,-3.55,96.53
102639,2018-06-29 09:38:19.468750,22.21,96.53
102640,2018-06-29 09:38:19.500000,39.02,96.53
102641,2018-06-29 09:38:19.531250,49.87,96.63
102642,2018-06-29 09:38:19.562500,55.07,96.63
102643,2018-06-29 09:38:19.593750,54.97,96.63
102644,2018-06-29 09:38:19.625000,52.94,96.63
102645,2018-06-29 09:38:19.656250,52.77,96.63
102646,2018-06-29 09:38:19.687500,55.87,96.63
102647,2018-06-29 09:38:19.718750,61.17,96.63
102648,2018-06-29 09:38:19.750000,65.04,96.63
102649,2018-06-29 09:38:19.781250,62.85,96.63
102650,2018-06-29 09:38:19.812500,52.87,96.63
102651,2018-06-29 09:38:19.843750,37.26,96.63
102652,2018-06-29 09:38:19.875000,19.31,96.63
102653,2018-06-29 09:38:19.906250,1.41,96.63
102654,2018-06-29 09:38:19.937500,-14.67,96.63
102655,2018-06-29 09:38:19.968750,-28.0,96.63
102656,2018-06-29 09:38:20.000000,-39.51,96.63
102657,2018-06-29 09:38:20.031250,-51.68,96.63
102658,2018-06-29 09:38:20.062500,-66.29,96.63
102659,2018-06-29 09:38:20.093750,-81.71,96.63
102660,2018-06-29 09:38:20.125000,-90.95,96.63
102661,2018-06-29 09:38:20.156250,-83.51,96.63
102662,2018-06-29 09:38:20.187500,-53.17,96.63
102663,2018-06-29 09:38:20.218750,-5.03,96.63
102664,2018-06-29 09:38:20.250000,47.49,96.63
102665,2018-06-29 09:38:20.281250,91.97,96.63
102666,2018-06-29 09:38:20.312500,119.98,96.63
102667,2018-06-29 09:38:20.343750,124.54,96.63
102668,2018-06-29 09:38:20.375000,105.76,96.63
102669,2018-06-29 09:38:20.406250,77.66,96.63
102670,2018-06-29 09:38:20.437500,57.95,96.63
102671,2018-06-29 09:38:20.468750,51.97,96.63
102672,2018-06-29 09:38:20.500000,54.37,96.63
102673,2018-06-29 09:38:20.531250,59.64,96.8
102674,2018-06-29 09:38:20.562500,62.74,96.8
102675,2018-06-29 09:38:20.593750,57.27,96.8
102676,2018-06-29 09:38:20.625000,39.66,96.8
102677,2018-06-29 09:38:20.656250,10.73,96.8
102678,2018-06-29 09:38:20.687500,-26.61,96.8
102679,2018-06-29 09:38:20.718750,-67.73,96.8
102680,2018-06-29 09:38:20.750000,-106.05,96.8
102681,2018-06-29 09:38:20.781250,-135.73,96.8
102682,2018-06-29 09:38:20.812500,-154.9,96.8
102683,2018-06-29 09:38:20.843750,-165.86,96.8
102684,2018-06-29 09:38:20.875000,-172.26,96.8
102685,2018-06-29 09:38:20.906250,-173.69,96.8
102686,2018-06-29 09:38:20.937500,-162.92,96.8
102687,2018-06-29 09:38:20.968750,-134.04,96.8
102688,2018-06-29 09:38:21.000000,-92.95,96.8
102689,2018-06-29 09:38:21.031250,-52.73,96.8
102690,2018-06-29 09:38:21.062500,-20.1,96.8
102691,2018-06-29 09:38:21.093750,6.22,96.8
102692,2018-06-29 09:38:21.125000,27.21,96.8
102693,2018-06-29 09:38:21.156250,41.59,96.8
102694,2018-06-29 09:38:21.187500,49.13,96.8
102695,2018-06-29 09:38:21.218750,51.27,96.8
102696,2018-06-29 09:38:21.250000,50.6,96.8
102697,2018-06-29 09:38:21.281250,49.92,96.8
102698,2018-06-29 09:38:21.312500,49.51,96.8
102699,2018-06-29 09:38:21.343750,46.78,96.8
102700,2018-06-29 09:38:21.375000,39.58,96.8
102701,2018-06-29 09:38:21.406250,27.78,96.8
102702,2018-06-29 09:38:21.437500,12.17,96.8
102703,2018-06-29 09:38:21.468750,-6.16,96.8
102704,2018-06-29 09:38:21.500000,-25.48,96.8
102705,2018-06-29 09:38:21.531250,-43.62,96.68
102706,2018-06-29 09:38:21.562500,-58.49,96.68
102707,2018-06-29 09:38:21.593750,-68.92,96.68
102708,2018-06-29 09:38:21.625000,-75.69,96.68
102709,2018-06-29 09:38:21.656250,-81.71,96.68
102710,2018-06-29 09:38:21.687500,-88.09,96.68
102711,2018-06-29 09:38:21.718750,-88.62,96.68
102712,2018-06-29 09:38:21.750000,-73.28,96.68
102713,2018-06-29 09:38:21.781250,-41.63,96.68
102714,2018-06-29 09:38:21.812500,-6.34,96.68
102715,2018-06-29 09:38:21.843750,21.56,96.68
102716,2018-06-29 09:38:21.875000,42.66,96.68
102717,2018-06-29 09:38:21.906250,60.69,96.68
102718,2018-06-29 09:38:21.937500,74.15,96.68
102719,2018-06-29 09:38:21.968750,80.21,96.68
102720,2018-06-29 09:38:22.000000,79.67,96.68
102721,2018-06-29 09:38:22.031250,75.3,96.68
102722,2018-06-29 09:38:22.062500,69.12,96.68
102723,2018-06-29 09:38:22.093750,62.7,96.68
102724,2018-06-29 09:38:22.125000,58.21,96.68
102725,2018-06-29 09:38:22.156250,56.49,96.68
102726,2018-06-29 09:38:22.187500,54.5,96.68
102727,2018-06-29 09:38:22.218750,48.0,96.68
102728,2018-06-29 09:38:22.250000,36.99,96.68
102729,2018-06-29 09:38:22.281250,24.93,96.68
102730,2018-06-29 09:38:22.312500,14.03,96.68
102731,2018-06-29 09:38:22.343750,3.9,96.68
102732,2018-06-29 09:38:22.375000,-5.92,96.68
102733,2018-06-29 09:38:22.406250,-14.47,96.68
102734,2018-06-29 09:38:22.437500,-20.9,96.68
102735,2018-06-29 09:38:22.468750,-26.42,96.68
102736,2018-06-29 09:38:22.500000,-33.64,96.68
102737,2018-06-29 09:38:22.531250,-44.8,96.58
102738,2018-06-29 09:38:22.562500,-58.77,96.58
102739,2018-06-29 09:38:22.593750,-67.68,96.58
102740,2018-06-29 09:38:22.625000,-60.55,96.58
102741,2018-06-29 09:38:22.656250,-35.47,96.58
102742,2018-06-29 09:38:22.687500,-3.62,96.58
102743,2018-06-29 09:38:22.718750,23.3,96.58
102744,2018-06-29 09:38:22.750000,42.72,96.58
102745,2018-06-29 09:38:22.781250,56.31,96.58
102746,2018-06-29 09:38:22.812500,63.74,96.58
102747,2018-06-29 09:38:22.843750,64.4,96.58
102748,2018-06-29 09:38:22.875000,59.91,96.58
102749,2018-06-29 09:38:22.906250,52.82,96.58
102750,2018-06-29 09:38:22.937500,45.35,96.58
102751,2018-06-29 09:38:22.968750,39.38,96.58
102752,2018-06-29 09:38:23.000000,36.09,96.58
102753,2018-06-29 09:38:23.031250,34.55,96.58
102754,2018-06-29 09:38:23.062500,32.0,96.58
102755,2018-06-29 09:38:23.093750,26.66,96.58
102756,2018-06-29 09:38:23.125000,19.81,96.58
102757,2018-06-29 09:38:23.156250,14.28,96.58
102758,2018-06-29 09:38:23.187500,11.06,96.58
102759,2018-06-29 09:38:23.218750,8.66,96.58
102760,2018-06-29 09:38:23.250000,5.2,96.58
102761,2018-06-29 09:38:23.281250,0.12,96.58
102762,2018-06-29 09:38:23.312500,-5.28,96.58
102763,2018-06-29 09:38:23.343750,-9.28,96.58
102764,2018-06-29 09:38:23.375000,-11.83,96.58
102765,2018-06-29 09:38:23.406250,-14.79,96.58
102766,2018-06-29 09:38:23.437500,-19.08,96.58
102767,2018-06-29 09:38:23.468750,-23.64,96.58
102768,2018-06-29 09:38:23.500000,-27.83,96.58
102769,2018-06-29 09:38:23.531250,-32.99,96.52
102770,2018-06-29 09:38:23.562500,-41.18,96.52
102771,2018-06-29 09:38:23.593750,-52.58,96.52
102772,2018-06-29 09:38:23.625000,-62.31,96.52
102773,2018-06-29 09:38:23.656250,-60.06,96.52
102774,2018-06-29 09:38:23.687500,-39.93,96.52
102775,2018-06-29 09:38:23.718750,-9.8,96.52
102776,2018-06-29 09:38:23.750000,16.25,96.52
102777,2018-06-29 09:38:23.781250,31.97,96.52
102778,2018-06-29 09:38:23.812500,39.06,96.52
102779,2018-06-29 09:38:23.843750,39.09,96.52
102780,2018-06-29 09:38:23.875000,33.31,96.52
102781,2018-06-29 09:38:23.906250,25.75,96.52
102782,2018-06-29 09:38:23.937500,20.13,96.52
102783,2018-06-29 09:38:23.968750,16.06,96.52
102784,2018-06-29 09:38:24.000000,11.56,96.52
102785,2018-06-29 09:38:24.031250,8.06,96.52
102786,2018-06-29 09:38:24.062500,8.46,96.52
102787,2018-06-29 09:38:24.093750,11.59,96.52
102788,2018-06-29 09:38:24.125000,12.51,96.52
102789,2018-06-29 09:38:24.156250,8.84,96.52
102790,2018-06-29 09:38:24.187500,2.99,96.52
102791,2018-06-29 09:38:24.218750,-2.85,96.52
102792,2018-06-29 09:38:24.250000,-10.07,96.52
102793,2018-06-29 09:38:24.281250,-20.13,96.52
102794,2018-06-29 09:38:24.312500,-30.99,96.52
102795,2018-06-29 09:38:24.343750,-39.85,96.52
102796,2018-06-29 09:38:24.375000,-46.83,96.52
102797,2018-06-29 09:38:24.406250,-53.74,96.52
102798,2018-06-29 09:38:24.437500,-61.73,96.52
102799,2018-06-29 09:38:24.468750,-69.11,96.52
102800,2018-06-29 09:38:24.500000,-69.33,96.52
102801,2018-06-29 09:38:24.531250,-55.15,96.1
102802,2018-06-29 09:38:24.562500,-28.3,96.1
102803,2018-06-29 09:38:24.593750,0.39,96.1
102804,2018-06-29 09:38:24.625000,22.11,96.1
102805,2018-06-29 09:38:24.656250,35.52,96.1
102806,2018-06-29 09:38:24.687500,42.49,96.1
102807,2018-06-29 09:38:24.718750,44.23,96.1
102808,2018-06-29 09:38:24.750000,42.18,96.1
102809,2018-06-29 09:38:24.781250,38.79,96.1
102810,2018-06-29 09:38:24.812500,35.71,96.1
102811,2018-06-29 09:38:24.843750,32.65,96.1
102812,2018-06-29 09:38:24.875000,29.56,96.1
102813,2018-06-29 09:38:24.906250,28.23,96.1
102814,2018-06-29 09:38:24.937500,28.86,96.1
102815,2018-06-29 09:38:24.968750,28.4,96.1
102816,2018-06-29 09:38:25.000000,23.98,96.1
102817,2018-06-29 09:38:25.031250,16.48,96.1
102818,2018-06-29 09:38:25.062500,8.76,96.1
102819,2018-06-29 09:38:25.093750,2.06,96.1
102820,2018-06-29 09:38:25.125000,-4.78,96.1
102821,2018-06-29 09:38:25.156250,-13.27,96.1
102822,2018-06-29 09:38:25.187500,-23.01,96.1
102823,2018-06-29 09:38:25.218750,-31.95,96.1
102824,2018-06-29 09:38:25.250000,-39.39,96.1
102825,2018-06-29 09:38:25.281250,-47.94,96.1
102826,2018-06-29 09:38:25.312500,-60.63,96.1
102827,2018-06-29 09:38:25.343750,-76.51,96.1
102828,2018-06-29 09:38:25.375000,-88.44,96.1
102829,2018-06-29 09:38:25.406250,-85.89,96.1
102830,2018-06-29 09:38:25.437500,-64.63,96.1
102831,2018-06-29 09:38:25.468750,-33.08,96.1
102832,2018-06-29 09:38:25.500000,-4.62,96.1
102833,2018-06-29 09:38:25.531250,14.36,95.68
102834,2018-06-29 09:38:25.562500,25.32,95.68
102835,2018-06-29 09:38:25.593750,30.6,95.68
102836,2018-06-29 09:38:25.625000,30.87,95.68
102837,2018-06-29 09:38:25.656250,27.47,95.68
102838,2018-06-29 09:38:25.687500,22.98,95.68
102839,2018-06-29 09:38:25.718750,19.07,95.68
102840,2018-06-29 09:38:25.750000,16.38,95.68
102841,2018-06-29 09:38:25.781250,15.85,95.68
102842,2018-06-29 09:38:25.812500,17.88,95.68
102843,2018-06-29 09:38:25.843750,20.38,95.68
102844,2018-06-29 09:38:25.875000,20.0,95.68
102845,2018-06-29 09:38:25.906250,15.73,95.68
102846,2018-06-29 09:38:25.937500,10.13,95.68
102847,2018-06-29 09:38:25.968750,5.82,95.68
102848,2018-06-29 09:38:26.000000,1.38,95.68
102849,2018-06-29 09:38:26.031250,-6.83,95.68
102850,2018-06-29 09:38:26.062500,-18.98,95.68
102851,2018-06-29 09:38:26.093750,-31.06,95.68
102852,2018-06-29 09:38:26.125000,-40.62,95.68
102853,2018-06-29 09:38:26.156250,-49.92,95.68
102854,2018-06-29 09:38:26.187500,-62.28,95.68
102855,2018-06-29 09:38:26.218750,-77.71,95.68
102856,2018-06-29 09:38:26.250000,-90.11,95.68
102857,2018-06-29 09:38:26.281250,-88.82,95.68
102858,2018-06-29 09:38:26.312500,-68.28,95.68
102859,2018-06-29 09:38:26.343750,-36.14,95.68
102860,2018-06-29 09:38:26.375000,-6.04,95.68
102861,2018-06-29 09:38:26.406250,15.76,95.68
102862,2018-06-29 09:38:26.437500,31.16,95.68
102863,2018-06-29 09:38:26.468750,42.33,95.68
102864,2018-06-29 09:38:26.500000,49.36,95.68
102865,2018-06-29 09:38:26.531250,52.71,95.23
102866,2018-06-29 09:38:26.562500,53.51,95.23
102867,2018-06-29 09:38:26.593750,53.03,95.23
102868,2018-06-29 09:38:26.625000,52.89,95.23
102869,2018-06-29 09:38:26.656250,54.5,95.23
102870,2018-06-29 09:38:26.687500,56.94,95.23
102871,2018-06-29 09:38:26.718750,57.11,95.23
102872,2018-06-29 09:38:26.750000,53.11,95.23
102873,2018-06-29 09:38:26.781250,46.15,95.23
102874,2018-06-29 09:38:26.812500,38.21,95.23
102875,2018-06-29 09:38:26.843750,29.52,95.23
102876,2018-06-29 09:38:26.875000,19.9,95.23
102877,2018-06-29 09:38:26.906250,10.4,95.23
102878,2018-06-29 09:38:26.937500,1.61,95.23
102879,2018-06-29 09:38:26.968750,-7.44,95.23
102880,2018-06-29 09:38:27.000000,-17.35,95.23
102881,2018-06-29 09:38:27.031250,-26.91,95.23
102882,2018-06-29 09:38:27.062500,-35.32,95.23
102883,2018-06-29 09:38:27.093750,-43.94,95.23
102884,2018-06-29 09:38:27.125000,-55.22,95.23
102885,2018-06-29 09:38:27.156250,-70.13,95.23
102886,2018-06-29 09:38:27.187500,-84.43,95.23
102887,2018-06-29 09:38:27.218750,-88.03,95.23
102888,2018-06-29 09:38:27.250000,-73.01,95.23
102889,2018-06-29 09:38:27.281250,-43.58,95.23
102890,2018-06-29 09:38:27.312500,-12.7,95.23
102891,2018-06-29 09:38:27.343750,10.9,95.23
102892,2018-06-29 09:38:27.375000,27.35,95.23
102893,2018-06-29 09:38:27.406250,39.04,95.23
102894,2018-06-29 09:38:27.437500,46.42,95.23
102895,2018-06-29 09:38:27.468750,49.93,95.23
102896,2018-06-29 09:38:27.500000,51.12,95.23
102897,2018-06-29 09:38:27.531250,51.16,94.8
102898,2018-06-29 09:38:27.562500,50.58,94.8
102899,2018-06-29 09:38:27.593750,50.07,94.8
102900,2018-06-29 09:38:27.625000,49.58,94.8
102901,2018-06-29 09:38:27.656250,47.43,94.8
102902,2018-06-29 09:38:27.687500,42.44,94.8
102903,2018-06-29 09:38:27.718750,35.67,94.8
102904,2018-06-29 09:38:27.750000,28.51,94.8
102905,2018-06-29 09:38:27.781250,20.8,94.8
102906,2018-06-29 09:38:27.812500,12.66,94.8
102907,2018-06-29 09:38:27.843750,5.27,94.8
102908,2018-06-29 09:38:27.875000,-1.28,94.8
102909,2018-06-29 09:38:27.906250,-8.49,94.8
102910,2018-06-29 09:38:27.937500,-16.75,94.8
102911,2018-06-29 09:38:27.968750,-24.56,94.8
102912,2018-06-29 09:38:28.000000,-31.32,94.8
102913,2018-06-29 09:38:28.031250,-38.54,94.8
102914,2018-06-29 09:38:28.062500,-47.72,94.8
102915,2018-06-29 09:38:28.093750,-58.8,94.8
102916,2018-06-29 09:38:28.125000,-68.25,94.8
102917,2018-06-29 09:38:28.156250,-67.42,94.8
102918,2018-06-29 09:38:28.187500,-48.25,94.8
102919,2018-06-29 09:38:28.218750,-13.48,94.8
102920,2018-06-29 09:38:28.250000,24.59,94.8
102921,2018-06-29 09:38:28.281250,56.28,94.8
102922,2018-06-29 09:38:28.312500,80.54,94.8
102923,2018-06-29 09:38:28.343750,100.27,94.8
102924,2018-06-29 09:38:28.375000,117.65,94.8
102925,2018-06-29 09:38:28.406250,132.6,94.8
102926,2018-06-29 09:38:28.437500,142.05,94.8
102927,2018-06-29 09:38:28.468750,143.79,94.8
102928,2018-06-29 09:38:28.500000,142.59,94.8
102929,2018-06-29 09:38:28.531250,146.67,94.3
102930,2018-06-29 09:38:28.562500,151.93,94.3
102931,2018-06-29 09:38:28.593750,136.61,94.3
102932,2018-06-29 09:38:28.625000,82.6,94.3
102933,2018-06-29 09:38:28.656250,-1.29,94.3
102934,2018-06-29 09:38:28.687500,-80.83,94.3
102935,2018-06-29 09:38:28.718750,-121.63,94.3
102936,2018-06-29 09:38:28.750000,-117.48,94.3
102937,2018-06-29 09:38:28.781250,-90.83,94.3
102938,2018-06-29 09:38:28.812500,-62.57,94.3
102939,2018-06-29 09:38:28.843750,-35.63,94.3
102940,2018-06-29 09:38:28.875000,-11.34,94.3
102941,2018-06-29 09:38:28.906250,1.43,94.3
102942,2018-06-29 09:38:28.937500,-0.28,94.3
102943,2018-06-29 09:38:28.968750,-8.63,94.3
102944,2018-06-29 09:38:29.000000,-12.83,94.3
102945,2018-06-29 09:38:29.031250,-3.0,94.3
102946,2018-06-29 09:38:29.062500,26.4,94.3
102947,2018-06-29 09:38:29.093750,69.94,94.3
102948,2018-06-29 09:38:29.125000,109.93,94.3
102949,2018-06-29 09:38:29.156250,127.65,94.3
102950,2018-06-29 09:38:29.187500,118.35,94.3
102951,2018-06-29 09:38:29.218750,90.7,94.3
102952,2018-06-29 09:38:29.250000,55.8,94.3
102953,2018-06-29 09:38:29.281250,23.09,94.3
102954,2018-06-29 09:38:29.312500,-0.61,94.3
102955,2018-06-29 09:38:29.343750,-16.72,94.3
102956,2018-06-29 09:38:29.375000,-33.82,94.3
102957,2018-06-29 09:38:29.406250,-58.47,94.3
102958,2018-06-29 09:38:29.437500,-90.45,94.3
102959,2018-06-29 09:38:29.468750,-124.13,94.3
102960,2018-06-29 09:38:29.500000,-153.21,94.3
102961,2018-06-29 09:38:29.531250,-175.7,94.08
102962,2018-06-29 09:38:29.562500,-190.86,94.08
102963,2018-06-29 09:38:29.593750,-196.14,94.08
102964,2018-06-29 09:38:29.625000,-192.82,94.08
102965,2018-06-29 09:38:29.656250,-188.3,94.08
102966,2018-06-29 09:38:29.687500,-189.13,94.08
102967,2018-06-29 09:38:29.718750,-196.62,94.08
102968,2018-06-29 09:38:29.750000,-207.04,94.08
102969,2018-06-29 09:38:29.781250,-210.67,94.08
102970,2018-06-29 09:38:29.812500,-196.37,94.08
102971,2018-06-29 09:38:29.843750,-163.29,94.08
102972,2018-06-29 09:38:29.875000,-123.07,94.08
102973,2018-06-29 09:38:29.906250,-87.55,94.08
102974,2018-06-29 09:38:29.937500,-60.14,94.08
102975,2018-06-29 09:38:29.968750,-39.24,94.08
102976,2018-06-29 09:38:30.000000,-22.61,94.08
102977,2018-06-29 09:38:30.031250,-7.33,94.08
102978,2018-06-29 09:38:30.062500,8.33,94.08
102979,2018-06-29 09:38:30.093750,22.45,94.08
102980,2018-06-29 09:38:30.125000,32.06,94.08
102981,2018-06-29 09:38:30.156250,37.26,94.08
102982,2018-06-29 09:38:30.187500,40.07,94.08
102983,2018-06-29 09:38:30.218750,40.55,94.08
102984,2018-06-29 09:38:30.250000,37.44,94.08
102985,2018-06-29 09:38:30.281250,33.75,94.08
102986,2018-06-29 09:38:30.312500,39.32,94.08
102987,2018-06-29 09:38:30.343750,61.76,94.08
102988,2018-06-29 09:38:30.375000,94.43,94.08
102989,2018-06-29 09:38:30.406250,120.39,94.08
102990,2018-06-29 09:38:30.437500,128.63,94.08
102991,2018-06-29 09:38:30.468750,120.0,94.08
102992,2018-06-29 09:38:30.500000,99.61,94.08
102993,2018-06-29 09:38:30.531250,71.58,93.03
102994,2018-06-29 09:38:30.562500,40.13,93.03
102995,2018-06-29 09:38:30.593750,10.33,93.03
102996,2018-06-29 09:38:30.625000,-13.59,93.03
102997,2018-06-29 09:38:30.656250,-30.4,93.03
102998,2018-06-29 09:38:30.687500,-41.98,93.03
102999,2018-06-29 09:38:30.718750,-51.27,93.03
103000,2018-06-29 09:38:30.750000,-57.95,93.03
103001,2018-06-29 09:38:30.781250,-55.27,93.03
103002,2018-06-29 09:38:30.812500,-35.38,93.03
103003,2018-06-29 09:38:30.843750,0.55,93.03
103004,2018-06-29 09:38:30.875000,42.6,93.03
103005,2018-06-29 09:38:30.906250,82.29,93.03
103006,2018-06-29 09:38:30.937500,116.73,93.03
103007,2018-06-29 09:38:30.968750,144.34,93.03
103008,2018-06-29 09:38:31.000000,163.31,93.03
103009,2018-06-29 09:38:31.031250,174.48,93.03
103010,2018-06-29 09:38:31.062500,180.44,93.03
103011,2018-06-29 09:38:31.093750,181.43,93.03
103012,2018-06-29 09:38:31.125000,175.54,93.03
103013,2018-06-29 09:38:31.156250,162.99,93.03
103014,2018-06-29 09:38:31.187500,147.15,93.03
103015,2018-06-29 09:38:31.218750,131.6,93.03
103016,2018-06-29 09:38:31.250000,116.97,93.03
103017,2018-06-29 09:38:31.281250,100.04,93.03
103018,2018-06-29 09:38:31.312500,76.06,93.03
103019,2018-06-29 09:38:31.343750,44.0,93.03
103020,2018-06-29 09:38:31.375000,7.4,93.03
103021,2018-06-29 09:38:31.406250,-28.81,93.03
103022,2018-06-29 09:38:31.437500,-58.91,93.03
103023,2018-06-29 09:38:31.468750,-77.29,93.03
103024,2018-06-29 09:38:31.500000,-83.19,93.03
103025,2018-06-29 09:38:31.531250,-80.91,92.0
103026,2018-06-29 09:38:31.562500,-74.62,92.0
103027,2018-06-29 09:38:31.593750,-68.01,92.0
103028,2018-06-29 09:38:31.625000,-66.42,92.0
103029,2018-06-29 09:38:31.656250,-72.34,92.0
103030,2018-06-29 09:38:31.687500,-82.15,92.0
103031,2018-06-29 09:38:31.718750,-91.98,92.0
103032,2018-06-29 09:38:31.750000,-102.81,92.0
103033,2018-06-29 09:38:31.781250,-115.47,92.0
103034,2018-06-29 09:38:31.812500,-122.38,92.0
103035,2018-06-29 09:38:31.843750,-111.21,92.0
103036,2018-06-29 09:38:31.875000,-80.01,92.0
103037,2018-06-29 09:38:31.906250,-41.86,92.0
103038,2018-06-29 09:38:31.937500,-10.45,92.0
103039,2018-06-29 09:38:31.968750,11.17,92.0
103040,2018-06-29 09:38:32.000000,25.53,92.0
103041,2018-06-29 09:38:32.031250,33.77,92.0
103042,2018-06-29 09:38:32.062500,37.11,92.0
103043,2018-06-29 09:38:32.093750,38.24,92.0
103044,2018-06-29 09:38:32.125000,38.7,92.0
103045,2018-06-29 09:38:32.156250,38.36,92.0
103046,2018-06-29 09:38:32.187500,37.82,92.0
103047,2018-06-29 09:38:32.218750,38.74,92.0
103048,2018-06-29 09:38:32.250000,40.83,92.0
103049,2018-06-29 09:38:32.281250,40.82,92.0
103050,2018-06-29 09:38:32.312500,35.8,92.0
103051,2018-06-29 09:38:32.343750,26.54,92.0
103052,2018-06-29 09:38:32.375000,16.72,92.0
103053,2018-06-29 09:38:32.406250,8.76,92.0
103054,2018-06-29 09:38:32.437500,1.88,92.0
103055,2018-06-29 09:38:32.468750,-4.99,92.0
103056,2018-06-29 09:38:32.500000,-10.67,92.0
103057,2018-06-29 09:38:32.531250,-14.24,90.98
103058,2018-06-29 09:38:32.562500,-18.03,90.98
103059,2018-06-29 09:38:32.593750,-24.74,90.98
103060,2018-06-29 09:38:32.625000,-32.97,90.98
103061,2018-06-29 09:38:32.656250,-39.18,90.98
103062,2018-06-29 09:38:32.687500,-43.64,90.98
103063,2018-06-29 09:38:32.718750,-50.21,90.98
103064,2018-06-29 09:38:32.750000,-61.26,90.98
103065,2018-06-29 09:38:32.781250,-74.97,90.98
103066,2018-06-29 09:38:32.812500,-84.13,90.98
103067,2018-06-29 09:38:32.843750,-78.68,90.98
103068,2018-06-29 09:38:32.875000,-56.48,90.98
103069,2018-06-29 09:38:32.906250,-28.17,90.98
103070,2018-06-29 09:38:32.937500,-5.54,90.98
103071,2018-06-29 09:38:32.968750,9.7,90.98
103072,2018-06-29 09:38:33.000000,21.07,90.98
103073,2018-06-29 09:38:33.031250,29.38,90.98
103074,2018-06-29 09:38:33.062500,33.99,90.98
103075,2018-06-29 09:38:33.093750,36.11,90.98
103076,2018-06-29 09:38:33.125000,37.51,90.98
103077,2018-06-29 09:38:33.156250,38.45,90.98
103078,2018-06-29 09:38:33.187500,38.68,90.98
103079,2018-06-29 09:38:33.218750,38.56,90.98
103080,2018-06-29 09:38:33.250000,37.99,90.98
103081,2018-06-29 09:38:33.281250,35.4,90.98
103082,2018-06-29 09:38:33.312500,29.16,90.98
103083,2018-06-29 09:38:33.343750,20.17,90.98
103084,2018-06-29 09:38:33.375000,11.68,90.98
103085,2018-06-29 09:38:33.406250,5.54,90.98
103086,2018-06-29 09:38:33.437500,0.12,90.98
103087,2018-06-29 09:38:33.468750,-7.19,90.98
103088,2018-06-29 09:38:33.500000,-16.34,90.98
103089,2018-06-29 09:38:33.531250,-25.04,90.32
103090,2018-06-29 09:38:33.562500,-31.57,90.32
103091,2018-06-29 09:38:33.593750,-37.15,90.32
103092,2018-06-29 09:38:33.625000,-44.93,90.32
103093,2018-06-29 09:38:33.656250,-57.03,90.32
103094,2018-06-29 09:38:33.687500,-70.44,90.32
103095,2018-06-29 09:38:33.718750,-74.96,90.32
103096,2018-06-29 09:38:33.750000,-61.24,90.32
103097,2018-06-29 09:38:33.781250,-32.66,90.32
103098,2018-06-29 09:38:33.812500,-2.53,90.32
103099,2018-06-29 09:38:33.843750,20.37,90.32
103100,2018-06-29 09:38:33.875000,36.29,90.32
103101,2018-06-29 09:38:33.906250,47.56,90.32
103102,2018-06-29 09:38:33.937500,54.46,90.32
103103,2018-06-29 09:38:33.968750,56.76,90.32
103104,2018-06-29 09:38:34.000000,55.1,90.32
103105,2018-06-29 09:38:34.031250,51.46,90.32
103106,2018-06-29 09:38:34.062500,48.42,90.32
103107,2018-06-29 09:38:34.093750,47.17,90.32
103108,2018-06-29 09:38:34.125000,46.43,90.32
103109,2018-06-29 09:38:34.156250,43.77,90.32
103110,2018-06-29 09:38:34.187500,37.82,90.32
103111,2018-06-29 09:38:34.218750,29.47,90.32
103112,2018-06-29 09:38:34.250000,20.53,90.32
103113,2018-06-29 09:38:34.281250,11.71,90.32
103114,2018-06-29 09:38:34.312500,2.74,90.32
103115,2018-06-29 09:38:34.343750,-5.68,90.32
103116,2018-06-29 09:38:34.375000,-12.4,90.32
103117,2018-06-29 09:38:34.406250,-17.82,90.32
103118,2018-06-29 09:38:34.437500,-23.65,90.32
103119,2018-06-29 09:38:34.468750,-31.17,90.32
103120,2018-06-29 09:38:34.500000,-40.23,90.32
103121,2018-06-29 09:38:34.531250,-49.96,89.63
103122,2018-06-29 09:38:34.562500,-61.23,89.63
103123,2018-06-29 09:38:34.593750,-75.97,89.63
103124,2018-06-29 09:38:34.625000,-91.01,89.63
103125,2018-06-29 09:38:34.656250,-95.33,89.63
103126,2018-06-29 09:38:34.687500,-79.79,89.63
103127,2018-06-29 09:38:34.718750,-48.26,89.63
103128,2018-06-29 09:38:34.750000,-14.18,89.63
103129,2018-06-29 09:38:34.781250,12.36,89.63
103130,2018-06-29 09:38:34.812500,30.29,89.63
103131,2018-06-29 09:38:34.843750,42.67,89.63
103132,2018-06-29 09:38:34.875000,51.03,89.63
103133,2018-06-29 09:38:34.906250,55.17,89.63
103134,2018-06-29 09:38:34.937500,55.73,89.63
103135,2018-06-29 09:38:34.968750,55.03,89.63
103136,2018-06-29 09:38:35.000000,54.75,89.63
103137,2018-06-29 09:38:35.031250,54.28,89.63
103138,2018-06-29 09:38:35.062500,52.66,89.63
103139,2018-06-29 09:38:35.093750,49.89,89.63
103140,2018-06-29 09:38:35.125000,45.46,89.63
103141,2018-06-29 09:38:35.156250,39.08,89.63
103142,2018-06-29 09:38:35.187500,32.67,89.63
103143,2018-06-29 09:38:35.218750,28.51,89.63
103144,2018-06-29 09:38:35.250000,25.28,89.63
103145,2018-06-29 09:38:35.281250,19.36,89.63
103146,2018-06-29 09:38:35.312500,9.99,89.63
103147,2018-06-29 09:38:35.343750,-0.53,89.63
103148,2018-06-29 09:38:35.375000,-11.03,89.63
103149,2018-06-29 09:38:35.406250,-22.74,89.63
103150,2018-06-29 09:38:35.437500,-36.21,89.63
103151,2018-06-29 09:38:35.468750,-49.44,89.63
103152,2018-06-29 09:38:35.500000,-60.43,89.63
103153,2018-06-29 09:38:35.531250,-70.37,89.08
103154,2018-06-29 09:38:35.562500,-82.82,89.08
103155,2018-06-29 09:38:35.593750,-98.49,89.08
103156,2018-06-29 09:38:35.625000,-109.58,89.08
103157,2018-06-29 09:38:35.656250,-103.0,89.08
103158,2018-06-29 09:38:35.687500,-73.37,89.08
103159,2018-06-29 09:38:35.718750,-30.49,89.08
103160,2018-06-29 09:38:35.750000,10.14,89.08
103161,2018-06-29 09:38:35.781250,40.56,89.08
103162,2018-06-29 09:38:35.812500,60.43,89.08
103163,2018-06-29 09:38:35.843750,70.29,89.08
103164,2018-06-29 09:38:35.875000,70.52,89.08
103165,2018-06-29 09:38:35.906250,63.84,89.08
103166,2018-06-29 09:38:35.937500,54.8,89.08
103167,2018-06-29 09:38:35.968750,46.75,89.08
103168,2018-06-29 09:38:36.000000,40.5,89.08
103169,2018-06-29 09:38:36.031250,35.75,89.08
103170,2018-06-29 09:38:36.062500,32.15,89.08
103171,2018-06-29 09:38:36.093750,28.44,89.08
103172,2018-06-29 09:38:36.125000,22.75,89.08
103173,2018-06-29 09:38:36.156250,15.03,89.08
103174,2018-06-29 09:38:36.187500,7.11,89.08
103175,2018-06-29 09:38:36.218750,0.33,89.08
103176,2018-06-29 09:38:36.250000,-5.64,89.08
103177,2018-06-29 09:38:36.281250,-12.43,89.08
103178,2018-06-29 09:38:36.312500,-21.44,89.08
103179,2018-06-29 09:38:36.343750,-31.71,89.08
103180,2018-06-29 09:38:36.375000,-39.97,89.08
103181,2018-06-29 09:38:36.406250,-44.03,89.08
103182,2018-06-29 09:38:36.437500,-45.26,89.08
103183,2018-06-29 09:38:36.468750,-47.23,89.08
103184,2018-06-29 09:38:36.500000,-51.85,89.08
103185,2018-06-29 09:38:36.531250,-54.8,88.48
103186,2018-06-29 09:38:36.562500,-46.63,88.48
103187,2018-06-29 09:38:36.593750,-23.08,88.48
103188,2018-06-29 09:38:36.625000,7.82,88.48
103189,2018-06-29 09:38:36.656250,34.03,88.48
103190,2018-06-29 09:38:36.687500,50.68,88.48
103191,2018-06-29 09:38:36.718750,59.08,88.48
103192,2018-06-29 09:38:36.750000,60.57,88.48
103193,2018-06-29 09:38:36.781250,56.86,88.48
103194,2018-06-29 09:38:36.812500,51.72,88.48
103195,2018-06-29 09:38:36.843750,48.39,88.48
103196,2018-06-29 09:38:36.875000,46.99,88.48
103197,2018-06-29 09:38:36.906250,45.67,88.48
103198,2018-06-29 09:38:36.937500,43.04,88.48
103199,2018-06-29 09:38:36.968750,38.46,88.48
103200,2018-06-29 09:38:37.000000,31.11,88.48
103201,2018-06-29 09:38:37.031250,20.52,88.48
103202,2018-06-29 09:38:37.062500,8.45,88.48
103203,2018-06-29 09:38:37.093750,-1.82,88.48
103204,2018-06-29 09:38:37.125000,-9.01,88.48
103205,2018-06-29 09:38:37.156250,-15.11,88.48
103206,2018-06-29 09:38:37.187500,-22.6,88.48
103207,2018-06-29 09:38:37.218750,-31.39,88.48
103208,2018-06-29 09:38:37.250000,-39.59,88.48
103209,2018-06-29 09:38:37.281250,-46.74,88.48
103210,2018-06-29 09:38:37.312500,-54.48,88.48
103211,2018-06-29 09:38:37.343750,-65.26,88.48
103212,2018-06-29 09:38:37.375000,-79.49,88.48
103213,2018-06-29 09:38:37.406250,-90.55,88.48
103214,2018-06-29 09:38:37.437500,-86.04,88.48
103215,2018-06-29 09:38:37.468750,-61.16,88.48
103216,2018-06-29 09:38:37.500000,-26.45,88.48
103217,2018-06-29 09:38:37.531250,3.55,87.9
103218,2018-06-29 09:38:37.562500,23.27,87.9
103219,2018-06-29 09:38:37.593750,34.47,87.9
103220,2018-06-29 09:38:37.625000,39.32,87.9
103221,2018-06-29 09:38:37.656250,39.16,87.9
103222,2018-06-29 09:38:37.687500,36.1,87.9
103223,2018-06-29 09:38:37.718750,32.68,87.9
103224,2018-06-29 09:38:37.750000,30.17,87.9
103225,2018-06-29 09:38:37.781250,28.08,87.9
103226,2018-06-29 09:38:37.812500,25.92,87.9
103227,2018-06-29 09:38:37.843750,23.55,87.9
103228,2018-06-29 09:38:37.875000,19.75,87.9
103229,2018-06-29 09:38:37.906250,13.25,87.9
103230,2018-06-29 09:38:37.937500,5.61,87.9
103231,2018-06-29 09:38:37.968750,0.43,87.9
103232,2018-06-29 09:38:38.000000,-1.77,87.9
103233,2018-06-29 09:38:38.031250,-4.11,87.9
103234,2018-06-29 09:38:38.062500,-8.29,87.9
103235,2018-06-29 09:38:38.093750,-12.54,87.9
103236,2018-06-29 09:38:38.125000,-14.88,87.9
103237,2018-06-29 09:38:38.156250,-15.95,87.9
103238,2018-06-29 09:38:38.187500,-19.3,87.9
103239,2018-06-29 09:38:38.218750,-29.09,87.9
103240,2018-06-29 09:38:38.250000,-45.33,87.9
103241,2018-06-29 09:38:38.281250,-59.32,87.9
103242,2018-06-29 09:38:38.312500,-58.3,87.9
103243,2018-06-29 09:38:38.343750,-38.45,87.9
103244,2018-06-29 09:38:38.375000,-9.73,87.9
103245,2018-06-29 09:38:38.406250,15.89,87.9
103246,2018-06-29 09:38:38.437500,35.26,87.9
103247,2018-06-29 09:38:38.468750,50.64,87.9
103248,2018-06-29 09:38:38.500000,62.76,87.9
103249,2018-06-29 09:38:38.531250,71.08,87.38
103250,2018-06-29 09:38:38.562500,75.64,87.38
103251,2018-06-29 09:38:38.593750,77.12,87.38
103252,2018-06-29 09:38:38.625000,76.96,87.38
103253,2018-06-29 09:38:38.656250,76.77,87.38
103254,2018-06-29 09:38:38.687500,76.7,87.38
103255,2018-06-29 09:38:38.718750,74.78,87.38
103256,2018-06-29 09:38:38.750000,68.45,87.38
103257,2018-06-29 09:38:38.781250,57.07,87.38
103258,2018-06-29 09:38:38.812500,42.52,87.38
103259,2018-06-29 09:38:38.843750,26.72,87.38
103260,2018-06-29 09:38:38.875000,10.51,87.38
103261,2018-06-29 09:38:38.906250,-4.57,87.38
103262,2018-06-29 09:38:38.937500,-16.44,87.38
103263,2018-06-29 09:38:38.968750,-25.54,87.38
103264,2018-06-29 09:38:39.000000,-34.17,87.38
103265,2018-06-29 09:38:39.031250,-42.81,87.38
103266,2018-06-29 09:38:39.062500,-50.31,87.38
103267,2018-06-29 09:38:39.093750,-57.16,87.38
103268,2018-06-29 09:38:39.125000,-65.75,87.38
103269,2018-06-29 09:38:39.156250,-78.35,87.38
103270,2018-06-29 09:38:39.187500,-93.93,87.38
103271,2018-06-29 09:38:39.218750,-103.96,87.38
103272,2018-06-29 09:38:39.250000,-95.72,87.38
103273,2018-06-29 09:38:39.281250,-67.01,87.38
103274,2018-06-29 09:38:39.312500,-31.19,87.38
103275,2018-06-29 09:38:39.343750,-2.05,87.38
103276,2018-06-29 09:38:39.375000,18.12,87.38
103277,2018-06-29 09:38:39.406250,32.41,87.38
103278,2018-06-29 09:38:39.437500,41.67,87.38
103279,2018-06-29 09:38:39.468750,46.18,87.38
103280,2018-06-29 09:38:39.500000,47.61,87.38
103281,2018-06-29 09:38:39.531250,47.5,86.8
103282,2018-06-29 09:38:39.562500,46.71,86.8
103283,2018-06-29 09:38:39.593750,46.02,86.8
103284,2018-06-29 09:38:39.625000,45.22,86.8
103285,2018-06-29 09:38:39.656250,42.13,86.8
103286,2018-06-29 09:38:39.687500,34.42,86.8
103287,2018-06-29 09:38:39.718750,23.2,86.8
103288,2018-06-29 09:38:39.750000,12.18,86.8
103289,2018-06-29 09:38:39.781250,3.33,86.8
103290,2018-06-29 09:38:39.812500,-4.35,86.8
103291,2018-06-29 09:38:39.843750,-11.78,86.8
103292,2018-06-29 09:38:39.875000,-18.06,86.8
103293,2018-06-29 09:38:39.906250,-22.36,86.8
103294,2018-06-29 09:38:39.937500,-26.05,86.8
103295,2018-06-29 09:38:39.968750,-31.73,86.8
103296,2018-06-29 09:38:40.000000,-39.81,86.8
103297,2018-06-29 09:38:40.031250,-48.32,86.8
103298,2018-06-29 09:38:40.062500,-56.36,86.8
103299,2018-06-29 09:38:40.093750,-65.55,86.8
103300,2018-06-29 09:38:40.125000,-77.6,86.8
103301,2018-06-29 09:38:40.156250,-90.49,86.8
103302,2018-06-29 09:38:40.187500,-95.61,86.8
103303,2018-06-29 09:38:40.218750,-82.71,86.8
103304,2018-06-29 09:38:40.250000,-51.78,86.8
103305,2018-06-29 09:38:40.281250,-15.65,86.8
103306,2018-06-29 09:38:40.312500,13.26,86.8
103307,2018-06-29 09:38:40.343750,33.04,86.8
103308,2018-06-29 09:38:40.375000,47.41,86.8
103309,2018-06-29 09:38:40.406250,57.62,86.8
103310,2018-06-29 09:38:40.437500,62.98,86.8
103311,2018-06-29 09:38:40.468750,64.63,86.8
103312,2018-06-29 09:38:40.500000,64.89,86.8
103313,2018-06-29 09:38:40.531250,64.39,86.18
103314,2018-06-29 09:38:40.562500,63.04,86.18
103315,2018-06-29 09:38:40.593750,61.8,86.18
103316,2018-06-29 09:38:40.625000,60.74,86.18
103317,2018-06-29 09:38:40.656250,57.58,86.18
103318,2018-06-29 09:38:40.687500,50.73,86.18
103319,2018-06-29 09:38:40.718750,41.88,86.18
103320,2018-06-29 09:38:40.750000,34.02,86.18
103321,2018-06-29 09:38:40.781250,28.06,86.18
103322,2018-06-29 09:38:40.812500,22.38,86.18
103323,2018-06-29 09:38:40.843750,15.67,86.18
103324,2018-06-29 09:38:40.875000,8.89,86.18
103325,2018-06-29 09:38:40.906250,2.82,86.18
103326,2018-06-29 09:38:40.937500,-4.44,86.18
103327,2018-06-29 09:38:40.968750,-14.44,86.18
103328,2018-06-29 09:38:41.000000,-25.49,86.18
103329,2018-06-29 09:38:41.031250,-34.65,86.18
103330,2018-06-29 09:38:41.062500,-41.74,86.18
103331,2018-06-29 09:38:41.093750,-49.27,86.18
103332,2018-06-29 09:38:41.125000,-59.89,86.18
103333,2018-06-29 09:38:41.156250,-72.6,86.18
103334,2018-06-29 09:38:41.187500,-79.47,86.18
103335,2018-06-29 09:38:41.218750,-70.32,86.18
103336,2018-06-29 09:38:41.250000,-44.42,86.18
103337,2018-06-29 09:38:41.281250,-13.23,86.18
103338,2018-06-29 09:38:41.312500,11.38,86.18
103339,2018-06-29 09:38:41.343750,26.56,86.18
103340,2018-06-29 09:38:41.375000,34.6,86.18
103341,2018-06-29 09:38:41.406250,36.69,86.18
103342,2018-06-29 09:38:41.437500,34.32,86.18
103343,2018-06-29 09:38:41.468750,31.56,86.18
103344,2018-06-29 09:38:41.500000,31.59,86.18
103345,2018-06-29 09:38:41.531250,33.29,85.25
103346,2018-06-29 09:38:41.562500,34.14,85.25
103347,2018-06-29 09:38:41.593750,33.6,85.25
103348,2018-06-29 09:38:41.625000,31.97,85.25
103349,2018-06-29 09:38:41.656250,28.73,85.25
103350,2018-06-29 09:38:41.687500,23.52,85.25
103351,2018-06-29 09:38:41.718750,16.88,85.25
103352,2018-06-29 09:38:41.750000,9.75,85.25
103353,2018-06-29 09:38:41.781250,2.9,85.25
103354,2018-06-29 09:38:41.812500,-3.8,85.25
103355,2018-06-29 09:38:41.843750,-11.5,85.25
103356,2018-06-29 09:38:41.875000,-20.68,85.25
103357,2018-06-29 09:38:41.906250,-29.71,85.25
103358,2018-06-29 09:38:41.937500,-37.03,85.25
103359,2018-06-29 09:38:41.968750,-43.63,85.25
103360,2018-06-29 09:38:42.000000,-52.16,85.25
103361,2018-06-29 09:38:42.031250,-64.03,85.25
103362,2018-06-29 09:38:42.062500,-76.05,85.25
103363,2018-06-29 09:38:42.093750,-78.97,85.25
103364,2018-06-29 09:38:42.125000,-64.75,85.25
103365,2018-06-29 09:38:42.156250,-36.99,85.25
103366,2018-06-29 09:38:42.187500,-8.57,85.25
103367,2018-06-29 09:38:42.218750,11.98,85.25
103368,2018-06-29 09:38:42.250000,25.81,85.25
103369,2018-06-29 09:38:42.281250,36.96,85.25
103370,2018-06-29 09:38:42.312500,45.93,85.25
103371,2018-06-29 09:38:42.343750,50.52,85.25
103372,2018-06-29 09:38:42.375000,49.82,85.25
103373,2018-06-29 09:38:42.406250,45.65,85.25
103374,2018-06-29 09:38:42.437500,40.1,85.25
103375,2018-06-29 09:38:42.468750,33.79,85.25
103376,2018-06-29 09:38:42.500000,27.3,85.25
103377,2018-06-29 09:38:42.531250,21.09,84.3
103378,2018-06-29 09:38:42.562500,14.18,84.3
103379,2018-06-29 09:38:42.593750,5.89,84.3
103380,2018-06-29 09:38:42.625000,-3.49,84.3
103381,2018-06-29 09:38:42.656250,-15.42,84.3
103382,2018-06-29 09:38:42.687500,-32.51,84.3
103383,2018-06-29 09:38:42.718750,-53.09,84.3
103384,2018-06-29 09:38:42.750000,-69.44,84.3
103385,2018-06-29 09:38:42.781250,-73.01,84.3
103386,2018-06-29 09:38:42.812500,-60.65,84.3
103387,2018-06-29 09:38:42.843750,-36.69,84.3
103388,2018-06-29 09:38:42.875000,-10.31,84.3
103389,2018-06-29 09:38:42.906250,9.47,84.3
103390,2018-06-29 09:38:42.937500,19.26,84.3
103391,2018-06-29 09:38:42.968750,24.3,84.3
103392,2018-06-29 09:38:43.000000,32.8,84.3
103393,2018-06-29 09:38:43.031250,45.36,84.3
103394,2018-06-29 09:38:43.062500,54.34,84.3
103395,2018-06-29 09:38:43.093750,54.32,84.3
103396,2018-06-29 09:38:43.125000,47.4,84.3
103397,2018-06-29 09:38:43.156250,37.94,84.3
103398,2018-06-29 09:38:43.187500,28.43,84.3
103399,2018-06-29 09:38:43.218750,19.7,84.3
103400,2018-06-29 09:38:43.250000,11.57,84.3
103401,2018-06-29 09:38:43.281250,4.41,84.3
103402,2018-06-29 09:38:43.312500,0.25,84.3
103403,2018-06-29 09:38:43.343750,0.45,84.3
103404,2018-06-29 09:38:43.375000,3.33,84.3
103405,2018-06-29 09:38:43.406250,5.86,84.3
103406,2018-06-29 09:38:43.437500,6.8,84.3
103407,2018-06-29 09:38:43.468750,6.42,84.3
103408,2018-06-29 09:38:43.500000,4.66,84.3
103409,2018-06-29 09:38:43.531250,1.41,83.27
103410,2018-06-29 09:38:43.562500,-2.44,83.27
103411,2018-06-29 09:38:43.593750,-5.98,83.27
103412,2018-06-29 09:38:43.625000,-9.45,83.27
103413,2018-06-29 09:38:43.656250,-13.79,83.27
103414,2018-06-29 09:38:43.687500,-19.98,83.27
103415,2018-06-29 09:38:43.718750,-27.9,83.27
103416,2018-06-29 09:38:43.750000,-35.94,83.27
103417,2018-06-29 09:38:43.781250,-43.47,83.27
103418,2018-06-29 09:38:43.812500,-52.79,83.27
103419,2018-06-29 09:38:43.843750,-65.84,83.27
103420,2018-06-29 09:38:43.875000,-78.59,83.27
103421,2018-06-29 09:38:43.906250,-81.06,83.27
103422,2018-06-29 09:38:43.937500,-65.96,83.27
103423,2018-06-29 09:38:43.968750,-37.9,83.27
103424,2018-06-29 09:38:44.000000,-9.73,83.27
103425,2018-06-29 09:38:44.031250,10.45,83.27
103426,2018-06-29 09:38:44.062500,23.72,83.27
103427,2018-06-29 09:38:44.093750,33.64,83.27
103428,2018-06-29 09:38:44.125000,41.44,83.27
103429,2018-06-29 09:38:44.156250,47.04,83.27
103430,2018-06-29 09:38:44.187500,50.49,83.27
103431,2018-06-29 09:38:44.218750,52.4,83.27
103432,2018-06-29 09:38:44.250000,53.67,83.27
103433,2018-06-29 09:38:44.281250,54.49,83.27
103434,2018-06-29 09:38:44.312500,54.13,83.27
103435,2018-06-29 09:38:44.343750,51.62,83.27
103436,2018-06-29 09:38:44.375000,46.52,83.27
103437,2018-06-29 09:38:44.406250,39.44,83.27
103438,2018-06-29 09:38:44.437500,31.57,83.27
103439,2018-06-29 09:38:44.468750,23.13,83.27
103440,2018-06-29 09:38:44.500000,13.1,83.27
103441,2018-06-29 09:38:44.531250,1.14,82.8
103442,2018-06-29 09:38:44.562500,-11.51,82.8
103443,2018-06-29 09:38:44.593750,-23.79,82.8
103444,2018-06-29 09:38:44.625000,-35.37,82.8
103445,2018-06-29 09:38:44.656250,-45.1,82.8
103446,2018-06-29 09:38:44.687500,-51.54,82.8
103447,2018-06-29 09:38:44.718750,-55.18,82.8
103448,2018-06-29 09:38:44.750000,-58.44,82.8
103449,2018-06-29 09:38:44.781250,-63.31,82.8
103450,2018-06-29 09:38:44.812500,-67.44,82.8
103451,2018-06-29 09:38:44.843750,-62.84,82.8
103452,2018-06-29 09:38:44.875000,-43.26,82.8
103453,2018-06-29 09:38:44.906250,-13.76,82.8
103454,2018-06-29 09:38:44.937500,12.74,82.8
103455,2018-06-29 09:38:44.968750,28.79,82.8
103456,2018-06-29 09:38:45.000000,36.3,82.8
103457,2018-06-29 09:38:45.031250,38.66,82.8
103458,2018-06-29 09:38:45.062500,36.02,82.8
103459,2018-06-29 09:38:45.093750,28.47,82.8
103460,2018-06-29 09:38:45.125000,18.75,82.8
103461,2018-06-29 09:38:45.156250,9.59,82.8
103462,2018-06-29 09:38:45.187500,0.85,82.8
103463,2018-06-29 09:38:45.218750,-9.21,82.8
103464,2018-06-29 09:38:45.250000,-20.47,82.8
103465,2018-06-29 09:38:45.281250,-31.09,82.8
103466,2018-06-29 09:38:45.312500,-40.68,82.8
103467,2018-06-29 09:38:45.343750,-50.47,82.8
103468,2018-06-29 09:38:45.375000,-60.65,82.8
103469,2018-06-29 09:38:45.406250,-69.95,82.8
103470,2018-06-29 09:38:45.437500,-77.73,82.8
103471,2018-06-29 09:38:45.468750,-85.3,82.8
103472,2018-06-29 09:38:45.500000,-96.81,82.8
103473,2018-06-29 09:38:45.531250,-116.39,82.43
103474,2018-06-29 09:38:45.562500,-138.65,82.43
103475,2018-06-29 09:38:45.593750,-146.24,82.43
103476,2018-06-29 09:38:45.625000,-127.43,82.43
103477,2018-06-29 09:38:45.656250,-92.7,82.43
103478,2018-06-29 09:38:45.687500,-66.28,82.43
103479,2018-06-29 09:38:45.718750,-60.84,82.43
103480,2018-06-29 09:38:45.750000,-65.63,82.43
103481,2018-06-29 09:38:45.781250,-58.88,82.43
103482,2018-06-29 09:38:45.812500,-29.04,82.43
103483,2018-06-29 09:38:45.843750,20.05,82.43
103484,2018-06-29 09:38:45.875000,78.63,82.43
103485,2018-06-29 09:38:45.906250,134.93,82.43
103486,2018-06-29 09:38:45.937500,174.61,82.43
103487,2018-06-29 09:38:45.968750,189.34,82.43
103488,2018-06-29 09:38:46.000000,184.6,82.43
103489,2018-06-29 09:38:46.031250,173.72,82.43
103490,2018-06-29 09:38:46.062500,166.91,82.43
103491,2018-06-29 09:38:46.093750,166.48,82.43
103492,2018-06-29 09:38:46.125000,168.74,82.43
103493,2018-06-29 09:38:46.156250,168.59,82.43
103494,2018-06-29 09:38:46.187500,163.81,82.43
103495,2018-06-29 09:38:46.218750,156.86,82.43
103496,2018-06-29 09:38:46.250000,153.92,82.43
103497,2018-06-29 09:38:46.281250,159.45,82.43
103498,2018-06-29 09:38:46.312500,172.0,82.43
103499,2018-06-29 09:38:46.343750,187.22,82.43
103500,2018-06-29 09:38:46.375000,203.37,82.43
103501,2018-06-29 09:38:46.406250,218.87,82.43
103502,2018-06-29 09:38:46.437500,228.67,82.43
103503,2018-06-29 09:38:46.468750,228.78,82.43
103504,2018-06-29 09:38:46.500000,217.93,82.43
103505,2018-06-29 09:38:46.531250,191.09,82.07
103506,2018-06-29 09:38:46.562500,141.96,82.07
103507,2018-06-29 09:38:46.593750,75.99,82.07
103508,2018-06-29 09:38:46.625000,10.1,82.07
103509,2018-06-29 09:38:46.656250,-44.97,82.07
103510,2018-06-29 09:38:46.687500,-91.85,82.07
103511,2018-06-29 09:38:46.718750,-137.54,82.07
103512,2018-06-29 09:38:46.750000,-188.69,82.07
103513,2018-06-29 09:38:46.781250,-246.2,82.07
103514,2018-06-29 09:38:46.812500,-294.25,82.07
103515,2018-06-29 09:38:46.843750,-311.95,82.07
103516,2018-06-29 09:38:46.875000,-298.89,82.07
103517,2018-06-29 09:38:46.906250,-266.23,82.07
103518,2018-06-29 09:38:46.937500,-213.7,82.07
103519,2018-06-29 09:38:46.968750,-143.29,82.07
103520,2018-06-29 09:38:47.000000,-75.05,82.07
103521,2018-06-29 09:38:47.031250,-25.57,82.07
103522,2018-06-29 09:38:47.062500,7.74,82.07
103523,2018-06-29 09:38:47.093750,30.39,82.07
103524,2018-06-29 09:38:47.125000,42.78,82.07
103525,2018-06-29 09:38:47.156250,49.03,82.07
103526,2018-06-29 09:38:47.187500,56.57,82.07
103527,2018-06-29 09:38:47.218750,67.44,82.07
103528,2018-06-29 09:38:47.250000,76.74,82.07
103529,2018-06-29 09:38:47.281250,79.5,82.07
103530,2018-06-29 09:38:47.312500,76.3,82.07
103531,2018-06-29 09:38:47.343750,69.78,82.07
103532,2018-06-29 09:38:47.375000,58.04,82.07
103533,2018-06-29 09:38:47.406250,37.57,82.07
103534,2018-06-29 09:38:47.437500,11.16,82.07
103535,2018-06-29 09:38:47.468750,-11.77,82.07
103536,2018-06-29 09:38:47.500000,-20.85,82.07
103537,2018-06-29 09:38:47.531250,-13.59,81.63
103538,2018-06-29 09:38:47.562500,-0.13,81.63
103539,2018-06-29 09:38:47.593750,7.81,81.63
103540,2018-06-29 09:38:47.625000,9.87,81.63
103541,2018-06-29 09:38:47.656250,10.33,81.63
103542,2018-06-29 09:38:47.687500,5.76,81.63
103543,2018-06-29 09:38:47.718750,-8.47,81.63
103544,2018-06-29 09:38:47.750000,-26.26,81.63
103545,2018-06-29 09:38:47.781250,-37.55,81.63
103546,2018-06-29 09:38:47.812500,-42.67,81.63
103547,2018-06-29 09:38:47.843750,-49.89,81.63
103548,2018-06-29 09:38:47.875000,-61.11,81.63
103549,2018-06-29 09:38:47.906250,-69.64,81.63
103550,2018-06-29 09:38:47.937500,-71.77,81.63
103551,2018-06-29 09:38:47.968750,-70.88,81.63
103552,2018-06-29 09:38:48.000000,-70.04,81.63
103553,2018-06-29 09:38:48.031250,-68.12,81.63
103554,2018-06-29 09:38:48.062500,-64.66,81.63
103555,2018-06-29 09:38:48.093750,-63.1,81.63
103556,2018-06-29 09:38:48.125000,-65.84,81.63
103557,2018-06-29 09:38:48.156250,-70.12,81.63
103558,2018-06-29 09:38:48.187500,-70.5,81.63
103559,2018-06-29 09:38:48.218750,-63.03,81.63
103560,2018-06-29 09:38:48.250000,-48.37,81.63
103561,2018-06-29 09:38:48.281250,-33.05,81.63
103562,2018-06-29 09:38:48.312500,-24.69,81.63
103563,2018-06-29 09:38:48.343750,-25.32,81.63
103564,2018-06-29 09:38:48.375000,-31.15,81.63
103565,2018-06-29 09:38:48.406250,-37.95,81.63
103566,2018-06-29 09:38:48.437500,-42.99,81.63
103567,2018-06-29 09:38:48.468750,-44.28,81.63
103568,2018-06-29 09:38:48.500000,-41.04,81.63
103569,2018-06-29 09:38:48.531250,-35.3,81.18
103570,2018-06-29 09:38:48.562500,-30.75,81.18
103571,2018-06-29 09:38:48.593750,-29.08,81.18
103572,2018-06-29 09:38:48.625000,-29.87,81.18
103573,2018-06-29 09:38:48.656250,-33.63,81.18
103574,2018-06-29 09:38:48.687500,-41.17,81.18
103575,2018-06-29 09:38:48.718750,-49.45,81.18
103576,2018-06-29 09:38:48.750000,-53.33,81.18
103577,2018-06-29 09:38:48.781250,-51.65,81.18
103578,2018-06-29 09:38:48.812500,-48.05,81.18
103579,2018-06-29 09:38:48.843750,-46.03,81.18
103580,2018-06-29 09:38:48.875000,-46.11,81.18
103581,2018-06-29 09:38:48.906250,-47.03,81.18
103582,2018-06-29 09:38:48.937500,-47.93,81.18
103583,2018-06-29 09:38:48.968750,-49.68,81.18
103584,2018-06-29 09:38:49.000000,-53.07,81.18
103585,2018-06-29 09:38:49.031250,-55.7,81.18
103586,2018-06-29 09:38:49.062500,-53.6,81.18
103587,2018-06-29 09:38:49.093750,-46.32,81.18
103588,2018-06-29 09:38:49.125000,-38.32,81.18
103589,2018-06-29 09:38:49.156250,-33.46,81.18
103590,2018-06-29 09:38:49.187500,-29.87,81.18
103591,2018-06-29 09:38:49.218750,-21.32,81.18
103592,2018-06-29 09:38:49.250000,-3.13,81.18
103593,2018-06-29 09:38:49.281250,24.01,81.18
103594,2018-06-29 09:38:49.312500,54.14,81.18
103595,2018-06-29 09:38:49.343750,79.11,81.18
103596,2018-06-29 09:38:49.375000,92.62,81.18
103597,2018-06-29 09:38:49.406250,92.97,81.18
103598,2018-06-29 09:38:49.437500,83.06,81.18
103599,2018-06-29 09:38:49.468750,67.49,81.18
103600,2018-06-29 09:38:49.500000,49.39,81.18
103601,2018-06-29 09:38:49.531250,30.0,80.67
103602,2018-06-29 09:38:49.562500,11.26,80.67
103603,2018-06-29 09:38:49.593750,-3.21,80.67
103604,2018-06-29 09:38:49.625000,-11.67,80.67
103605,2018-06-29 09:38:49.656250,-16.92,80.67
103606,2018-06-29 09:38:49.687500,-23.38,80.67
103607,2018-06-29 09:38:49.718750,-32.76,80.67
103608,2018-06-29 09:38:49.750000,-41.54,80.67
103609,2018-06-29 09:38:49.781250,-41.08,80.67
103610,2018-06-29 09:38:49.812500,-24.68,80.67
103611,2018-06-29 09:38:49.843750,3.44,80.67
103612,2018-06-29 09:38:49.875000,31.61,80.67
103613,2018-06-29 09:38:49.906250,52.3,80.67
103614,2018-06-29 09:38:49.937500,63.57,80.67
103615,2018-06-29 09:38:49.968750,63.61,80.67
103616,2018-06-29 09:38:50.000000,53.07,80.67
103617,2018-06-29 09:38:50.031250,38.55,80.67
103618,2018-06-29 09:38:50.062500,26.38,80.67
103619,2018-06-29 09:38:50.093750,16.19,80.67
103620,2018-06-29 09:38:50.125000,5.72,80.67
103621,2018-06-29 09:38:50.156250,-3.4,80.67
103622,2018-06-29 09:38:50.187500,-10.21,80.67
103623,2018-06-29 09:38:50.218750,-20.34,80.67
103624,2018-06-29 09:38:50.250000,-38.41,80.67
103625,2018-06-29 09:38:50.281250,-57.83,80.67
103626,2018-06-29 09:38:50.312500,-68.71,80.67
103627,2018-06-29 09:38:50.343750,-74.36,80.67
103628,2018-06-29 09:38:50.375000,-89.02,80.67
103629,2018-06-29 09:38:50.406250,-118.34,80.67
103630,2018-06-29 09:38:50.437500,-151.49,80.67
103631,2018-06-29 09:38:50.468750,-174.31,80.67
103632,2018-06-29 09:38:50.500000,-187.77,80.67
103633,2018-06-29 09:38:50.531250,-214.74,80.15
103634,2018-06-29 09:38:50.562500,-278.89,80.15
103635,2018-06-29 09:38:50.593750,-360.88,80.15
103636,2018-06-29 09:38:50.625000,-395.38,80.15
103637,2018-06-29 09:38:50.656250,-340.54,80.15
103638,2018-06-29 09:38:50.687500,-227.22,80.15
103639,2018-06-29 09:38:50.718750,-113.52,80.15
103640,2018-06-29 09:38:50.750000,-22.49,80.15
103641,2018-06-29 09:38:50.781250,55.78,80.15
103642,2018-06-29 09:38:50.812500,133.43,80.15
103643,2018-06-29 09:38:50.843750,206.81,80.15
103644,2018-06-29 09:38:50.875000,251.37,80.15
103645,2018-06-29 09:38:50.906250,241.48,80.15
103646,2018-06-29 09:38:50.937500,180.13,80.15
103647,2018-06-29 09:38:50.968750,102.42,80.15
103648,2018-06-29 09:38:51.000000,53.78,80.15
103649,2018-06-29 09:38:51.031250,56.52,80.15
103650,2018-06-29 09:38:51.062500,87.31,80.15
103651,2018-06-29 09:38:51.093750,102.36,80.15
103652,2018-06-29 09:38:51.125000,86.76,80.15
103653,2018-06-29 09:38:51.156250,58.64,80.15
103654,2018-06-29 09:38:51.187500,35.89,80.15
103655,2018-06-29 09:38:51.218750,22.24,80.15
103656,2018-06-29 09:38:51.250000,15.69,80.15
103657,2018-06-29 09:38:51.281250,12.3,80.15
103658,2018-06-29 09:38:51.312500,6.57,80.15
103659,2018-06-29 09:38:51.343750,-5.7,80.15
103660,2018-06-29 09:38:51.375000,-24.9,80.15
103661,2018-06-29 09:38:51.406250,-48.01,80.15
103662,2018-06-29 09:38:51.437500,-73.11,80.15
103663,2018-06-29 09:38:51.468750,-102.42,80.15
103664,2018-06-29 09:38:51.500000,-133.35,80.15
103665,2018-06-29 09:38:51.531250,-149.27,79.63
103666,2018-06-29 09:38:51.562500,-133.52,79.63
103667,2018-06-29 09:38:51.593750,-92.05,79.63
103668,2018-06-29 09:38:51.625000,-45.49,79.63
103669,2018-06-29 09:38:51.656250,-5.86,79.63
103670,2018-06-29 09:38:51.687500,21.21,79.63
103671,2018-06-29 09:38:51.718750,29.47,79.63
103672,2018-06-29 09:38:51.750000,26.69,79.63
103673,2018-06-29 09:38:51.781250,34.39,79.63
103674,2018-06-29 09:38:51.812500,62.77,79.63
103675,2018-06-29 09:38:51.843750,107.84,79.63
103676,2018-06-29 09:38:51.875000,166.72,79.63
103677,2018-06-29 09:38:51.906250,229.92,79.63
103678,2018-06-29 09:38:51.937500,273.28,79.63
103679,2018-06-29 09:38:51.968750,280.14,79.63
103680,2018-06-29 09:38:52.000000,258.86,79.63
103681,2018-06-29 09:38:52.031250,228.84,79.63
103682,2018-06-29 09:38:52.062500,201.72,79.63
103683,2018-06-29 09:38:52.093750,180.18,79.63
103684,2018-06-29 09:38:52.125000,164.96,79.63
103685,2018-06-29 09:38:52.156250,154.76,79.63
103686,2018-06-29 09:38:52.187500,139.36,79.63
103687,2018-06-29 09:38:52.218750,104.93,79.63
103688,2018-06-29 09:38:52.250000,51.94,79.63
103689,2018-06-29 09:38:52.281250,-3.36,79.63
103690,2018-06-29 09:38:52.312500,-48.15,79.63
103691,2018-06-29 09:38:52.343750,-78.33,79.63
103692,2018-06-29 09:38:52.375000,-89.02,79.63
103693,2018-06-29 09:38:52.406250,-79.25,79.63
103694,2018-06-29 09:38:52.437500,-61.75,79.63
103695,2018-06-29 09:38:52.468750,-50.94,79.63
103696,2018-06-29 09:38:52.500000,-45.56,79.63
103697,2018-06-29 09:38:52.531250,-36.38,79.13
103698,2018-06-29 09:38:52.562500,-23.69,79.13
103699,2018-06-29 09:38:52.593750,-15.21,79.13
103700,2018-06-29 09:38:52.625000,-12.23,79.13
103701,2018-06-29 09:38:52.656250,-9.61,79.13
103702,2018-06-29 09:38:52.687500,-4.37,79.13
103703,2018-06-29 09:38:52.718750,3.87,79.13
103704,2018-06-29 09:38:52.750000,15.83,79.13
103705,2018-06-29 09:38:52.781250,29.6,79.13
103706,2018-06-29 09:38:52.812500,39.74,79.13
103707,2018-06-29 09:38:52.843750,42.31,79.13
103708,2018-06-29 09:38:52.875000,38.48,79.13
103709,2018-06-29 09:38:52.906250,30.89,79.13
103710,2018-06-29 09:38:52.937500,20.2,79.13
103711,2018-06-29 09:38:52.968750,6.62,79.13
103712,2018-06-29 09:38:53.000000,-7.24,79.13
103713,2018-06-29 09:38:53.031250,-18.57,79.13
103714,2018-06-29 09:38:53.062500,-28.62,79.13
103715,2018-06-29 09:38:53.093750,-42.13,79.13
103716,2018-06-29 09:38:53.125000,-62.08,79.13
103717,2018-06-29 09:38:53.156250,-83.79,79.13
103718,2018-06-29 09:38:53.187500,-94.73,79.13
103719,2018-06-29 09:38:53.218750,-83.97,79.13
103720,2018-06-29 09:38:53.250000,-53.86,79.13
103721,2018-06-29 09:38:53.281250,-17.81,79.13
103722,2018-06-29 09:38:53.312500,13.65,79.13
103723,2018-06-29 09:38:53.343750,38.52,79.13
103724,2018-06-29 09:38:53.375000,57.15,79.13
103725,2018-06-29 09:38:53.406250,68.38,79.13
103726,2018-06-29 09:38:53.437500,72.33,79.13
103727,2018-06-29 09:38:53.468750,71.43,79.13
103728,2018-06-29 09:38:53.500000,67.88,79.13
103729,2018-06-29 09:38:53.531250,63.02,78.75
103730,2018-06-29 09:38:53.562500,58.65,78.75
103731,2018-06-29 09:38:53.593750,55.88,78.75
103732,2018-06-29 09:38:53.625000,52.42,78.75
103733,2018-06-29 09:38:53.656250,44.17,78.75
103734,2018-06-29 09:38:53.687500,31.34,78.75
103735,2018-06-29 09:38:53.718750,19.73,78.75
103736,2018-06-29 09:38:53.750000,13.89,78.75
103737,2018-06-29 09:38:53.781250,11.83,78.75
103738,2018-06-29 09:38:53.812500,8.6,78.75
103739,2018-06-29 09:38:53.843750,2.98,78.75
103740,2018-06-29 09:38:53.875000,-2.83,78.75
103741,2018-06-29 09:38:53.906250,-7.81,78.75
103742,2018-06-29 09:38:53.937500,-14.08,78.75
103743,2018-06-29 09:38:53.968750,-24.64,78.75
103744,2018-06-29 09:38:54.000000,-39.22,78.75
103745,2018-06-29 09:38:54.031250,-49.34,78.75
103746,2018-06-29 09:38:54.062500,-41.51,78.75
103747,2018-06-29 09:38:54.093750,-11.22,78.75
103748,2018-06-29 09:38:54.125000,30.93,78.75
103749,2018-06-29 09:38:54.156250,72.37,78.75
103750,2018-06-29 09:38:54.187500,109.6,78.75
103751,2018-06-29 09:38:54.218750,141.35,78.75
103752,2018-06-29 09:38:54.250000,161.08,78.75
103753,2018-06-29 09:38:54.281250,163.61,78.75
103754,2018-06-29 09:38:54.312500,152.71,78.75
103755,2018-06-29 09:38:54.343750,137.14,78.75
103756,2018-06-29 09:38:54.375000,122.07,78.75
103757,2018-06-29 09:38:54.406250,105.94,78.75
103758,2018-06-29 09:38:54.437500,84.0,78.75
103759,2018-06-29 09:38:54.468750,55.88,78.75
103760,2018-06-29 09:38:54.500000,30.15,78.75
103761,2018-06-29 09:38:54.531250,16.65,78.52
103762,2018-06-29 09:38:54.562500,14.99,78.52
103763,2018-06-29 09:38:54.593750,16.78,78.52
103764,2018-06-29 09:38:54.625000,18.83,78.52
103765,2018-06-29 09:38:54.656250,27.67,78.52
103766,2018-06-29 09:38:54.687500,50.09,78.52
103767,2018-06-29 09:38:54.718750,83.21,78.52
103768,2018-06-29 09:38:54.750000,114.74,78.52
103769,2018-06-29 09:38:54.781250,131.63,78.52
103770,2018-06-29 09:38:54.812500,130.36,78.52
103771,2018-06-29 09:38:54.843750,121.69,78.52
103772,2018-06-29 09:38:54.875000,120.81,78.52
103773,2018-06-29 09:38:54.906250,127.15,78.52
103774,2018-06-29 09:38:54.937500,120.28,78.52
103775,2018-06-29 09:38:54.968750,83.51,78.52
103776,2018-06-29 09:38:55.000000,26.91,78.52
103777,2018-06-29 09:38:55.031250,-20.55,78.52
103778,2018-06-29 09:38:55.062500,-39.61,78.52
103779,2018-06-29 09:38:55.093750,-34.04,78.52
103780,2018-06-29 09:38:55.125000,-18.73,78.52
103781,2018-06-29 09:38:55.156250,-4.27,78.52
103782,2018-06-29 09:38:55.187500,4.52,78.52
103783,2018-06-29 09:38:55.218750,3.9,78.52
103784,2018-06-29 09:38:55.250000,-7.92,78.52
103785,2018-06-29 09:38:55.281250,-29.48,78.52
103786,2018-06-29 09:38:55.312500,-57.7,78.52
103787,2018-06-29 09:38:55.343750,-89.78,78.52
103788,2018-06-29 09:38:55.375000,-120.43,78.52
103789,2018-06-29 09:38:55.406250,-139.56,78.52
103790,2018-06-29 09:38:55.437500,-140.12,78.52
103791,2018-06-29 09:38:55.468750,-127.16,78.52
103792,2018-06-29 09:38:55.500000,-108.63,78.52
103793,2018-06-29 09:38:55.531250,-84.67,78.3
103794,2018-06-29 09:38:55.562500,-61.08,78.3
103795,2018-06-29 09:38:55.593750,-51.74,78.3
103796,2018-06-29 09:38:55.625000,-53.02,78.3
103797,2018-06-29 09:38:55.656250,-51.08,78.3
103798,2018-06-29 09:38:55.687500,-56.09,78.3
103799,2018-06-29 09:38:55.718750,-88.32,78.3
103800,2018-06-29 09:38:55.750000,-141.65,78.3
103801,2018-06-29 09:38:55.781250,-196.73,78.3
103802,2018-06-29 09:38:55.812500,-248.69,78.3
103803,2018-06-29 09:38:55.843750,-298.73,78.3
103804,2018-06-29 09:38:55.875000,-342.2,78.3
103805,2018-06-29 09:38:55.906250,-368.89,78.3
103806,2018-06-29 09:38:55.937500,-360.05,78.3
103807,2018-06-29 09:38:55.968750,-301.43,78.3
103808,2018-06-29 09:38:56.000000,-209.65,78.3
103809,2018-06-29 09:38:56.031250,-124.41,78.3
103810,2018-06-29 09:38:56.062500,-68.92,78.3
103811,2018-06-29 09:38:56.093750,-37.62,78.3
103812,2018-06-29 09:38:56.125000,-18.25,78.3
103813,2018-06-29 09:38:56.156250,-4.55,78.3
103814,2018-06-29 09:38:56.187500,8.0,78.3
103815,2018-06-29 09:38:56.218750,22.05,78.3
103816,2018-06-29 09:38:56.250000,34.77,78.3
103817,2018-06-29 09:38:56.281250,43.12,78.3
103818,2018-06-29 09:38:56.312500,50.36,78.3
103819,2018-06-29 09:38:56.343750,59.64,78.3
103820,2018-06-29 09:38:56.375000,65.71,78.3
103821,2018-06-29 09:38:56.406250,61.8,78.3
103822,2018-06-29 09:38:56.437500,50.12,78.3
103823,2018-06-29 09:38:56.468750,37.55,78.3
103824,2018-06-29 09:38:56.500000,26.21,78.3
103825,2018-06-29 09:38:56.531250,13.8,78.08
103826,2018-06-29 09:38:56.562500,-0.95,78.08
103827,2018-06-29 09:38:56.593750,-16.21,78.08
103828,2018-06-29 09:38:56.625000,-29.84,78.08
103829,2018-06-29 09:38:56.656250,-43.05,78.08
103830,2018-06-29 09:38:56.687500,-60.18,78.08
103831,2018-06-29 09:38:56.718750,-84.2,78.08
103832,2018-06-29 09:38:56.750000,-109.48,78.08
103833,2018-06-29 09:38:56.781250,-120.05,78.08
103834,2018-06-29 09:38:56.812500,-102.16,78.08
103835,2018-06-29 09:38:56.843750,-60.44,78.08
103836,2018-06-29 09:38:56.875000,-14.08,78.08
103837,2018-06-29 09:38:56.906250,23.27,78.08
103838,2018-06-29 09:38:56.937500,51.37,78.08
103839,2018-06-29 09:38:56.968750,73.7,78.08
103840,2018-06-29 09:38:57.000000,89.99,78.08
103841,2018-06-29 09:38:57.031250,99.02,78.08
103842,2018-06-29 09:38:57.062500,102.1,78.08
103843,2018-06-29 09:38:57.093750,101.82,78.08
103844,2018-06-29 09:38:57.125000,99.59,78.08
103845,2018-06-29 09:38:57.156250,95.42,78.08
103846,2018-06-29 09:38:57.187500,89.37,78.08
103847,2018-06-29 09:38:57.218750,82.35,78.08
103848,2018-06-29 09:38:57.250000,73.94,78.08
103849,2018-06-29 09:38:57.281250,61.52,78.08
103850,2018-06-29 09:38:57.312500,44.93,78.08
103851,2018-06-29 09:38:57.343750,30.11,78.08
103852,2018-06-29 09:38:57.375000,23.09,78.08
103853,2018-06-29 09:38:57.406250,21.38,78.08
103854,2018-06-29 09:38:57.437500,17.06,78.08
103855,2018-06-29 09:38:57.468750,6.72,78.08
103856,2018-06-29 09:38:57.500000,-7.37,78.08
103857,2018-06-29 09:38:57.531250,-23.44,77.87
103858,2018-06-29 09:38:57.562500,-42.32,77.87
103859,2018-06-29 09:38:57.593750,-65.37,77.87
103860,2018-06-29 09:38:57.625000,-91.94,77.87
103861,2018-06-29 09:38:57.656250,-114.13,77.87
103862,2018-06-29 09:38:57.687500,-115.8,77.87
103863,2018-06-29 09:38:57.718750,-87.26,77.87
103864,2018-06-29 09:38:57.750000,-39.05,77.87
103865,2018-06-29 09:38:57.781250,7.71,77.87
103866,2018-06-29 09:38:57.812500,41.82,77.87
103867,2018-06-29 09:38:57.843750,65.65,77.87
103868,2018-06-29 09:38:57.875000,83.89,77.87
103869,2018-06-29 09:38:57.906250,97.56,77.87
103870,2018-06-29 09:38:57.937500,106.75,77.87
103871,2018-06-29 09:38:57.968750,112.02,77.87
103872,2018-06-29 09:38:58.000000,113.2,77.87
103873,2018-06-29 09:38:58.031250,110.33,77.87
103874,2018-06-29 09:38:58.062500,104.86,77.87
103875,2018-06-29 09:38:58.093750,97.68,77.87
103876,2018-06-29 09:38:58.125000,87.96,77.87
103877,2018-06-29 09:38:58.156250,75.04,77.87
103878,2018-06-29 09:38:58.187500,58.95,77.87
103879,2018-06-29 09:38:58.218750,40.36,77.87
103880,2018-06-29 09:38:58.250000,20.98,77.87
103881,2018-06-29 09:38:58.281250,2.96,77.87
103882,2018-06-29 09:38:58.312500,-13.03,77.87
103883,2018-06-29 09:38:58.343750,-27.73,77.87
103884,2018-06-29 09:38:58.375000,-41.77,77.87
103885,2018-06-29 09:38:58.406250,-54.44,77.87
103886,2018-06-29 09:38:58.437500,-63.85,77.87
103887,2018-06-29 09:38:58.468750,-69.52,77.87
103888,2018-06-29 09:38:58.500000,-74.51,77.87
103889,2018-06-29 09:38:58.531250,-83.73,77.6
103890,2018-06-29 09:38:58.562500,-96.82,77.6
103891,2018-06-29 09:38:58.593750,-102.01,77.6
103892,2018-06-29 09:38:58.625000,-83.68,77.6
103893,2018-06-29 09:38:58.656250,-39.79,77.6
103894,2018-06-29 09:38:58.687500,13.98,77.6
103895,2018-06-29 09:38:58.718750,59.52,77.6
103896,2018-06-29 09:38:58.750000,90.35,77.6
103897,2018-06-29 09:38:58.781250,109.99,77.6
103898,2018-06-29 09:38:58.812500,122.1,77.6
103899,2018-06-29 09:38:58.843750,126.32,77.6
103900,2018-06-29 09:38:58.875000,123.06,77.6
103901,2018-06-29 09:38:58.906250,116.69,77.6
103902,2018-06-29 09:38:58.937500,110.86,77.6
103903,2018-06-29 09:38:58.968750,105.44,77.6
103904,2018-06-29 09:38:59.000000,99.41,77.6
103905,2018-06-29 09:38:59.031250,92.26,77.6
103906,2018-06-29 09:38:59.062500,82.85,77.6
103907,2018-06-29 09:38:59.093750,70.41,77.6
103908,2018-06-29 09:38:59.125000,55.47,77.6
103909,2018-06-29 09:38:59.156250,38.95,77.6
103910,2018-06-29 09:38:59.187500,21.62,77.6
103911,2018-06-29 09:38:59.218750,4.77,77.6
103912,2018-06-29 09:38:59.250000,-10.55,77.6
103913,2018-06-29 09:38:59.281250,-24.57,77.6
103914,2018-06-29 09:38:59.312500,-37.55,77.6
103915,2018-06-29 09:38:59.343750,-48.47,77.6
103916,2018-06-29 09:38:59.375000,-56.59,77.6
103917,2018-06-29 09:38:59.406250,-63.83,77.6
103918,2018-06-29 09:38:59.437500,-74.1,77.6
103919,2018-06-29 09:38:59.468750,-89.32,77.6
103920,2018-06-29 09:38:59.500000,-103.19,77.6
103921,2018-06-29 09:38:59.531250,-100.85,77.5
103922,2018-06-29 09:38:59.562500,-72.57,77.5
103923,2018-06-29 09:38:59.593750,-26.93,77.5
103924,2018-06-29 09:38:59.625000,17.03,77.5
103925,2018-06-29 09:38:59.656250,48.57,77.5
103926,2018-06-29 09:38:59.687500,68.67,77.5
103927,2018-06-29 09:38:59.718750,80.0,77.5
103928,2018-06-29 09:38:59.750000,82.99,77.5
103929,2018-06-29 09:38:59.781250,79.61,77.5
103930,2018-06-29 09:38:59.812500,73.76,77.5
103931,2018-06-29 09:38:59.843750,68.16,77.5
103932,2018-06-29 09:38:59.875000,63.41,77.5
103933,2018-06-29 09:38:59.906250,59.71,77.5
103934,2018-06-29 09:38:59.937500,57.06,77.5
103935,2018-06-29 09:38:59.968750,54.09,77.5
103936,2018-06-29 09:39:00.000000,48.35,77.5
103937,2018-06-29 09:39:00.031250,39.0,77.5
103938,2018-06-29 09:39:00.062500,27.89,77.5
103939,2018-06-29 09:39:00.093750,17.49,77.5
103940,2018-06-29 09:39:00.125000,8.33,77.5
103941,2018-06-29 09:39:00.156250,-1.45,77.5
103942,2018-06-29 09:39:00.187500,-13.83,77.5
103943,2018-06-29 09:39:00.218750,-27.93,77.5
103944,2018-06-29 09:39:00.250000,-40.69,77.5
103945,2018-06-29 09:39:00.281250,-51.17,77.5
103946,2018-06-29 09:39:00.312500,-62.04,77.5
103947,2018-06-29 09:39:00.343750,-76.39,77.5
103948,2018-06-29 09:39:00.375000,-93.7,77.5
103949,2018-06-29 09:39:00.406250,-106.29,77.5
103950,2018-06-29 09:39:00.437500,-101.12,77.5
103951,2018-06-29 09:39:00.468750,-72.16,77.5
103952,2018-06-29 09:39:00.500000,-30.04,77.5
103953,2018-06-29 09:39:00.531250,7.17,77.52
103954,2018-06-29 09:39:00.562500,30.73,77.52
103955,2018-06-29 09:39:00.593750,43.18,77.52
103956,2018-06-29 09:39:00.625000,49.03,77.52
103957,2018-06-29 09:39:00.656250,50.39,77.52
103958,2018-06-29 09:39:00.687500,49.01,77.52
103959,2018-06-29 09:39:00.718750,47.03,77.52
103960,2018-06-29 09:39:00.750000,45.35,77.52
103961,2018-06-29 09:39:00.781250,43.85,77.52
103962,2018-06-29 09:39:00.812500,42.53,77.52
103963,2018-06-29 09:39:00.843750,40.38,77.52
103964,2018-06-29 09:39:00.875000,35.26,77.52
103965,2018-06-29 09:39:00.906250,26.94,77.52
103966,2018-06-29 09:39:00.937500,18.0,77.52
103967,2018-06-29 09:39:00.968750,9.61,77.52
103968,2018-06-29 09:39:01.000000,0.0,77.52
103969,2018-06-29 09:39:01.031250,-11.61,77.52
103970,2018-06-29 09:39:01.062500,-23.05,77.52
103971,2018-06-29 09:39:01.093750,-32.44,77.52
103972,2018-06-29 09:39:01.125000,-41.42,77.52
103973,2018-06-29 09:39:01.156250,-53.89,77.52
103974,2018-06-29 09:39:01.187500,-70.07,77.52
103975,2018-06-29 09:39:01.218750,-80.96,77.52
103976,2018-06-29 09:39:01.250000,-74.18,77.52
103977,2018-06-29 09:39:01.281250,-48.0,77.52
103978,2018-06-29 09:39:01.312500,-14.81,77.52
103979,2018-06-29 09:39:01.343750,11.4,77.52
103980,2018-06-29 09:39:01.375000,26.01,77.52
103981,2018-06-29 09:39:01.406250,31.84,77.52
103982,2018-06-29 09:39:01.437500,32.46,77.52
103983,2018-06-29 09:39:01.468750,30.15,77.52
103984,2018-06-29 09:39:01.500000,27.09,77.52
103985,2018-06-29 09:39:01.531250,24.95,77.58
103986,2018-06-29 09:39:01.562500,23.81,77.58
103987,2018-06-29 09:39:01.593750,23.39,77.58
103988,2018-06-29 09:39:01.625000,23.65,77.58
103989,2018-06-29 09:39:01.656250,22.86,77.58
103990,2018-06-29 09:39:01.687500,18.17,77.58
103991,2018-06-29 09:39:01.718750,9.64,77.58
103992,2018-06-29 09:39:01.750000,0.5,77.58
103993,2018-06-29 09:39:01.781250,-7.03,77.58
103994,2018-06-29 09:39:01.812500,-12.99,77.58
103995,2018-06-29 09:39:01.843750,-16.97,77.58
103996,2018-06-29 09:39:01.875000,-17.56,77.58
103997,2018-06-29 09:39:01.906250,-15.87,77.58
103998,2018-06-29 09:39:01.937500,-17.31,77.58
103999,2018-06-29 09:39:01.968750,-27.25,77.58
104000,2018-06-29 09:39:02.000000,-42.52,77.58
104001,2018-06-29 09:39:02.031250,-49.66,77.58
104002,2018-06-29 09:39:02.062500,-37.12,77.58
104003,2018-06-29 09:39:02.093750,-8.62,77.58
104004,2018-06-29 09:39:02.125000,20.57,77.58
104005,2018-06-29 09:39:02.156250,39.46,77.58
104006,2018-06-29 09:39:02.187500,47.57,77.58
104007,2018-06-29 09:39:02.218750,47.7,77.58
104008,2018-06-29 09:39:02.250000,41.38,77.58
104009,2018-06-29 09:39:02.281250,30.43,77.58
104010,2018-06-29 09:39:02.312500,16.96,77.58
104011,2018-06-29 09:39:02.343750,1.23,77.58
104012,2018-06-29 09:39:02.375000,-16.17,77.58
104013,2018-06-29 09:39:02.406250,-30.93,77.58
104014,2018-06-29 09:39:02.437500,-37.69,77.58
104015,2018-06-29 09:39:02.468750,-35.74,77.58
104016,2018-06-29 09:39:02.500000,-28.36,77.58
104017,2018-06-29 09:39:02.531250,-17.29,77.65
104018,2018-06-29 09:39:02.562500,-1.8,77.65
104019,2018-06-29 09:39:02.593750,16.79,77.65
104020,2018-06-29 09:39:02.625000,33.52,77.65
104021,2018-06-29 09:39:02.656250,43.68,77.65
104022,2018-06-29 09:39:02.687500,45.99,77.65
104023,2018-06-29 09:39:02.718750,40.89,77.65
104024,2018-06-29 09:39:02.750000,28.69,77.65
104025,2018-06-29 09:39:02.781250,10.28,77.65
104026,2018-06-29 09:39:02.812500,-11.13,77.65
104027,2018-06-29 09:39:02.843750,-27.33,77.65
104028,2018-06-29 09:39:02.875000,-27.67,77.65
104029,2018-06-29 09:39:02.906250,-10.01,77.65
104030,2018-06-29 09:39:02.937500,13.64,77.65
104031,2018-06-29 09:39:02.968750,29.56,77.65
104032,2018-06-29 09:39:03.000000,35.56,77.65
104033,2018-06-29 09:39:03.031250,36.06,77.65
104034,2018-06-29 09:39:03.062500,32.23,77.65
104035,2018-06-29 09:39:03.093750,23.52,77.65
104036,2018-06-29 09:39:03.125000,12.6,77.65
104037,2018-06-29 09:39:03.156250,2.87,77.65
104038,2018-06-29 09:39:03.187500,-5.57,77.65
104039,2018-06-29 09:39:03.218750,-13.58,77.65
104040,2018-06-29 09:39:03.250000,-19.51,77.65
104041,2018-06-29 09:39:03.281250,-21.6,77.65
104042,2018-06-29 09:39:03.312500,-21.77,77.65
104043,2018-06-29 09:39:03.343750,-23.31,77.65
104044,2018-06-29 09:39:03.375000,-26.29,77.65
104045,2018-06-29 09:39:03.406250,-28.94,77.65
104046,2018-06-29 09:39:03.437500,-31.83,77.65
104047,2018-06-29 09:39:03.468750,-36.29,77.65
104048,2018-06-29 09:39:03.500000,-41.16,77.65
104049,2018-06-29 09:39:03.531250,-44.3,77.72
104050,2018-06-29 09:39:03.562500,-46.21,77.72
104051,2018-06-29 09:39:03.593750,-49.54,77.72
104052,2018-06-29 09:39:03.625000,-55.83,77.72
104053,2018-06-29 09:39:03.656250,-62.35,77.72
104054,2018-06-29 09:39:03.687500,-61.03,77.72
104055,2018-06-29 09:39:03.718750,-45.35,77.72
104056,2018-06-29 09:39:03.750000,-20.32,77.72
104057,2018-06-29 09:39:03.781250,1.25,77.72
104058,2018-06-29 09:39:03.812500,13.2,77.72
104059,2018-06-29 09:39:03.843750,19.2,77.72
104060,2018-06-29 09:39:03.875000,22.67,77.72
104061,2018-06-29 09:39:03.906250,23.3,77.72
104062,2018-06-29 09:39:03.937500,22.58,77.72
104063,2018-06-29 09:39:03.968750,23.86,77.72
104064,2018-06-29 09:39:04.000000,27.16,77.72
104065,2018-06-29 09:39:04.031250,29.67,77.72
104066,2018-06-29 09:39:04.062500,30.74,77.72
104067,2018-06-29 09:39:04.093750,31.58,77.72
104068,2018-06-29 09:39:04.125000,30.77,77.72
104069,2018-06-29 09:39:04.156250,25.07,77.72
104070,2018-06-29 09:39:04.187500,14.48,77.72
104071,2018-06-29 09:39:04.218750,3.24,77.72
104072,2018-06-29 09:39:04.250000,-5.48,77.72
104073,2018-06-29 09:39:04.281250,-13.1,77.72
104074,2018-06-29 09:39:04.312500,-22.42,77.72
104075,2018-06-29 09:39:04.343750,-32.68,77.72
104076,2018-06-29 09:39:04.375000,-40.59,77.72
104077,2018-06-29 09:39:04.406250,-45.32,77.72
104078,2018-06-29 09:39:04.437500,-49.87,77.72
104079,2018-06-29 09:39:04.468750,-57.65,77.72
104080,2018-06-29 09:39:04.500000,-67.61,77.72
104081,2018-06-29 09:39:04.531250,-71.39,77.72
104082,2018-06-29 09:39:04.562500,-59.73,77.72
104083,2018-06-29 09:39:04.593750,-34.53,77.72
104084,2018-06-29 09:39:04.625000,-8.05,77.72
104085,2018-06-29 09:39:04.656250,10.43,77.72
104086,2018-06-29 09:39:04.687500,21.18,77.72
104087,2018-06-29 09:39:04.718750,28.03,77.72
104088,2018-06-29 09:39:04.750000,32.51,77.72
104089,2018-06-29 09:39:04.781250,34.21,77.72
104090,2018-06-29 09:39:04.812500,33.34,77.72
104091,2018-06-29 09:39:04.843750,31.47,77.72
104092,2018-06-29 09:39:04.875000,29.58,77.72
104093,2018-06-29 09:39:04.906250,27.66,77.72
104094,2018-06-29 09:39:04.937500,25.91,77.72
104095,2018-06-29 09:39:04.968750,23.96,77.72
104096,2018-06-29 09:39:05.000000,19.76,77.72
104097,2018-06-29 09:39:05.031250,11.84,77.72
104098,2018-06-29 09:39:05.062500,1.79,77.72
104099,2018-06-29 09:39:05.093750,-7.64,77.72
104100,2018-06-29 09:39:05.125000,-15.33,77.72
104101,2018-06-29 09:39:05.156250,-22.59,77.72
104102,2018-06-29 09:39:05.187500,-31.09,77.72
104103,2018-06-29 09:39:05.218750,-40.4,77.72
104104,2018-06-29 09:39:05.250000,-48.38,77.72
104105,2018-06-29 09:39:05.281250,-54.36,77.72
104106,2018-06-29 09:39:05.312500,-61.01,77.72
104107,2018-06-29 09:39:05.343750,-71.47,77.72
104108,2018-06-29 09:39:05.375000,-84.1,77.72
104109,2018-06-29 09:39:05.406250,-90.39,77.72
104110,2018-06-29 09:39:05.437500,-80.97,77.72
104111,2018-06-29 09:39:05.468750,-56.31,77.72
104112,2018-06-29 09:39:05.500000,-27.55,77.72
104113,2018-06-29 09:39:05.531250,-5.0,77.67
104114,2018-06-29 09:39:05.562500,10.18,77.67
104115,2018-06-29 09:39:05.593750,21.79,77.67
104116,2018-06-29 09:39:05.625000,31.83,77.67
104117,2018-06-29 09:39:05.656250,39.78,77.67
104118,2018-06-29 09:39:05.687500,44.68,77.67
104119,2018-06-29 09:39:05.718750,46.65,77.67
104120,2018-06-29 09:39:05.750000,47.32,77.67
104121,2018-06-29 09:39:05.781250,48.99,77.67
104122,2018-06-29 09:39:05.812500,52.18,77.67
104123,2018-06-29 09:39:05.843750,54.71,77.67
104124,2018-06-29 09:39:05.875000,53.85,77.67
104125,2018-06-29 09:39:05.906250,49.47,77.67
104126,2018-06-29 09:39:05.937500,43.99,77.67
104127,2018-06-29 09:39:05.968750,38.96,77.67
104128,2018-06-29 09:39:06.000000,33.25,77.67
104129,2018-06-29 09:39:06.031250,25.58,77.67
104130,2018-06-29 09:39:06.062500,16.53,77.67
104131,2018-06-29 09:39:06.093750,7.2,77.67
104132,2018-06-29 09:39:06.125000,-2.39,77.67
104133,2018-06-29 09:39:06.156250,-12.73,77.67
104134,2018-06-29 09:39:06.187500,-23.68,77.67
104135,2018-06-29 09:39:06.218750,-34.02,77.67
104136,2018-06-29 09:39:06.250000,-42.79,77.67
104137,2018-06-29 09:39:06.281250,-51.32,77.67
104138,2018-06-29 09:39:06.312500,-62.28,77.67
104139,2018-06-29 09:39:06.343750,-73.97,77.67
104140,2018-06-29 09:39:06.375000,-77.6,77.67
104141,2018-06-29 09:39:06.406250,-65.04,77.67
104142,2018-06-29 09:39:06.437500,-39.09,77.67
104143,2018-06-29 09:39:06.468750,-10.77,77.67
104144,2018-06-29 09:39:06.500000,12.02,77.67
104145,2018-06-29 09:39:06.531250,28.28,77.48
104146,2018-06-29 09:39:06.562500,39.24,77.48
104147,2018-06-29 09:39:06.593750,45.18,77.48
104148,2018-06-29 09:39:06.625000,46.3,77.48
104149,2018-06-29 09:39:06.656250,43.85,77.48
104150,2018-06-29 09:39:06.687500,40.08,77.48
104151,2018-06-29 09:39:06.718750,37.17,77.48
104152,2018-06-29 09:39:06.750000,36.06,77.48
104153,2018-06-29 09:39:06.781250,36.19,77.48
104154,2018-06-29 09:39:06.812500,35.88,77.48
104155,2018-06-29 09:39:06.843750,33.53,77.48
104156,2018-06-29 09:39:06.875000,28.99,77.48
104157,2018-06-29 09:39:06.906250,23.15,77.48
104158,2018-06-29 09:39:06.937500,16.83,77.48
104159,2018-06-29 09:39:06.968750,10.35,77.48
104160,2018-06-29 09:39:07.000000,3.88,77.48
104161,2018-06-29 09:39:07.031250,-3.06,77.48
104162,2018-06-29 09:39:07.062500,-11.43,77.48
104163,2018-06-29 09:39:07.093750,-20.95,77.48
104164,2018-06-29 09:39:07.125000,-30.12,77.48
104165,2018-06-29 09:39:07.156250,-38.14,77.48
104166,2018-06-29 09:39:07.187500,-45.8,77.48
104167,2018-06-29 09:39:07.218750,-54.72,77.48
104168,2018-06-29 09:39:07.250000,-64.92,77.48
104169,2018-06-29 09:39:07.281250,-71.29,77.48
104170,2018-06-29 09:39:07.312500,-65.02,77.48
104171,2018-06-29 09:39:07.343750,-43.72,77.48
104172,2018-06-29 09:39:07.375000,-16.02,77.48
104173,2018-06-29 09:39:07.406250,7.74,77.48
104174,2018-06-29 09:39:07.437500,24.67,77.48
104175,2018-06-29 09:39:07.468750,36.58,77.48
104176,2018-06-29 09:39:07.500000,45.25,77.48
104177,2018-06-29 09:39:07.531250,52.46,77.2
104178,2018-06-29 09:39:07.562500,59.41,77.2
104179,2018-06-29 09:39:07.593750,65.28,77.2
104180,2018-06-29 09:39:07.625000,69.22,77.2
104181,2018-06-29 09:39:07.656250,72.71,77.2
104182,2018-06-29 09:39:07.687500,77.92,77.2
104183,2018-06-29 09:39:07.718750,84.46,77.2
104184,2018-06-29 09:39:07.750000,90.19,77.2
104185,2018-06-29 09:39:07.781250,93.95,77.2
104186,2018-06-29 09:39:07.812500,95.48,77.2
104187,2018-06-29 09:39:07.843750,93.82,77.2
104188,2018-06-29 09:39:07.875000,88.17,77.2
104189,2018-06-29 09:39:07.906250,80.2,77.2
104190,2018-06-29 09:39:07.937500,73.18,77.2
104191,2018-06-29 09:39:07.968750,68.39,77.2
104192,2018-06-29 09:39:08.000000,64.55,77.2
104193,2018-06-29 09:39:08.031250,61.39,77.2
104194,2018-06-29 09:39:08.062500,61.59,77.2
104195,2018-06-29 09:39:08.093750,67.19,77.2
104196,2018-06-29 09:39:08.125000,74.7,77.2
104197,2018-06-29 09:39:08.156250,76.81,77.2
104198,2018-06-29 09:39:08.187500,70.62,77.2
104199,2018-06-29 09:39:08.218750,62.83,77.2
104200,2018-06-29 09:39:08.250000,61.28,77.2
104201,2018-06-29 09:39:08.281250,61.31,77.2
104202,2018-06-29 09:39:08.312500,48.8,77.2
104203,2018-06-29 09:39:08.343750,17.06,77.2
104204,2018-06-29 09:39:08.375000,-23.86,77.2
104205,2018-06-29 09:39:08.406250,-54.17,77.2
104206,2018-06-29 09:39:08.437500,-62.52,77.2
104207,2018-06-29 09:39:08.468750,-56.34,77.2
104208,2018-06-29 09:39:08.500000,-49.78,77.2
104209,2018-06-29 09:39:08.531250,-48.18,77.02
104210,2018-06-29 09:39:08.562500,-52.84,77.02
104211,2018-06-29 09:39:08.593750,-66.17,77.02
104212,2018-06-29 09:39:08.625000,-81.98,77.02
104213,2018-06-29 09:39:08.656250,-89.53,77.02
104214,2018-06-29 09:39:08.687500,-92.27,77.02
104215,2018-06-29 09:39:08.718750,-104.32,77.02
104216,2018-06-29 09:39:08.750000,-128.7,77.02
104217,2018-06-29 09:39:08.781250,-152.77,77.02
104218,2018-06-29 09:39:08.812500,-163.34,77.02
104219,2018-06-29 09:39:08.843750,-159.03,77.02
104220,2018-06-29 09:39:08.875000,-150.72,77.02
104221,2018-06-29 09:39:08.906250,-150.54,77.02
104222,2018-06-29 09:39:08.937500,-160.66,77.02
104223,2018-06-29 09:39:08.968750,-173.61,77.02
104224,2018-06-29 09:39:09.000000,-178.68,77.02
104225,2018-06-29 09:39:09.031250,-166.26,77.02
104226,2018-06-29 09:39:09.062500,-136.76,77.02
104227,2018-06-29 09:39:09.093750,-104.46,77.02
104228,2018-06-29 09:39:09.125000,-83.69,77.02
104229,2018-06-29 09:39:09.156250,-75.16,77.02
104230,2018-06-29 09:39:09.187500,-70.39,77.02
104231,2018-06-29 09:39:09.218750,-59.21,77.02
104232,2018-06-29 09:39:09.250000,-34.56,77.02
104233,2018-06-29 09:39:09.281250,-0.07,77.02
104234,2018-06-29 09:39:09.312500,31.48,77.02
104235,2018-06-29 09:39:09.343750,52.73,77.02
104236,2018-06-29 09:39:09.375000,67.15,77.02
104237,2018-06-29 09:39:09.406250,79.44,77.02
104238,2018-06-29 09:39:09.437500,89.52,77.02
104239,2018-06-29 09:39:09.468750,96.01,77.02
104240,2018-06-29 09:39:09.500000,99.19,77.02
104241,2018-06-29 09:39:09.531250,100.75,76.8
104242,2018-06-29 09:39:09.562500,102.08,76.8
104243,2018-06-29 09:39:09.593750,102.9,76.8
104244,2018-06-29 09:39:09.625000,102.09,76.8
104245,2018-06-29 09:39:09.656250,99.59,76.8
104246,2018-06-29 09:39:09.687500,96.32,76.8
104247,2018-06-29 09:39:09.718750,92.6,76.8
104248,2018-06-29 09:39:09.750000,88.09,76.8
104249,2018-06-29 09:39:09.781250,82.63,76.8
104250,2018-06-29 09:39:09.812500,76.13,76.8
104251,2018-06-29 09:39:09.843750,68.95,76.8
104252,2018-06-29 09:39:09.875000,61.42,76.8
104253,2018-06-29 09:39:09.906250,51.96,76.8
104254,2018-06-29 09:39:09.937500,38.63,76.8
104255,2018-06-29 09:39:09.968750,23.07,76.8
104256,2018-06-29 09:39:10.000000,8.87,76.8
104257,2018-06-29 09:39:10.031250,-4.29,76.8
104258,2018-06-29 09:39:10.062500,-20.56,76.8
104259,2018-06-29 09:39:10.093750,-42.51,76.8
104260,2018-06-29 09:39:10.125000,-65.81,76.8
104261,2018-06-29 09:39:10.156250,-77.52,76.8
104262,2018-06-29 09:39:10.187500,-65.94,76.8
104263,2018-06-29 09:39:10.218750,-35.82,76.8
104264,2018-06-29 09:39:10.250000,-5.13,76.8
104265,2018-06-29 09:39:10.281250,14.66,76.8
104266,2018-06-29 09:39:10.312500,25.37,76.8
104267,2018-06-29 09:39:10.343750,32.23,76.8
104268,2018-06-29 09:39:10.375000,38.14,76.8
104269,2018-06-29 09:39:10.406250,43.89,76.8
104270,2018-06-29 09:39:10.437500,47.24,76.8
104271,2018-06-29 09:39:10.468750,45.87,76.8
104272,2018-06-29 09:39:10.500000,42.49,76.8
104273,2018-06-29 09:39:10.531250,41.45,76.55
104274,2018-06-29 09:39:10.562500,41.23,76.55
104275,2018-06-29 09:39:10.593750,35.24,76.55
104276,2018-06-29 09:39:10.625000,18.97,76.55
104277,2018-06-29 09:39:10.656250,-6.09,76.55
104278,2018-06-29 09:39:10.687500,-32.68,76.55
104279,2018-06-29 09:39:10.718750,-51.3,76.55
104280,2018-06-29 09:39:10.750000,-60.34,76.55
104281,2018-06-29 09:39:10.781250,-71.33,76.55
104282,2018-06-29 09:39:10.812500,-94.69,76.55
104283,2018-06-29 09:39:10.843750,-121.92,76.55
104284,2018-06-29 09:39:10.875000,-131.77,76.55
104285,2018-06-29 09:39:10.906250,-114.49,76.55
104286,2018-06-29 09:39:10.937500,-83.38,76.55
104287,2018-06-29 09:39:10.968750,-63.91,76.55
104288,2018-06-29 09:39:11.000000,-75.99,76.55
104289,2018-06-29 09:39:11.031250,-119.53,76.55
104290,2018-06-29 09:39:11.062500,-168.81,76.55
104291,2018-06-29 09:39:11.093750,-190.04,76.55
104292,2018-06-29 09:39:11.125000,-172.97,76.55
104293,2018-06-29 09:39:11.156250,-135.53,76.55
104294,2018-06-29 09:39:11.187500,-96.17,76.55
104295,2018-06-29 09:39:11.218750,-58.59,76.55
104296,2018-06-29 09:39:11.250000,-24.49,76.55
104297,2018-06-29 09:39:11.281250,-2.68,76.55
104298,2018-06-29 09:39:11.312500,-0.52,76.55
104299,2018-06-29 09:39:11.343750,-13.3,76.55
104300,2018-06-29 09:39:11.375000,-27.46,76.55
104301,2018-06-29 09:39:11.406250,-34.26,76.55
104302,2018-06-29 09:39:11.437500,-35.14,76.55
104303,2018-06-29 09:39:11.468750,-34.67,76.55
104304,2018-06-29 09:39:11.500000,-37.18,76.55
104305,2018-06-29 09:39:11.531250,-47.82,76.45
104306,2018-06-29 09:39:11.562500,-67.96,76.45
104307,2018-06-29 09:39:11.593750,-91.53,76.45
104308,2018-06-29 09:39:11.625000,-110.49,76.45
104309,2018-06-29 09:39:11.656250,-121.35,76.45
104310,2018-06-29 09:39:11.687500,-126.82,76.45
104311,2018-06-29 09:39:11.718750,-130.18,76.45
104312,2018-06-29 09:39:11.750000,-128.3,76.45
104313,2018-06-29 09:39:11.781250,-116.09,76.45
104314,2018-06-29 09:39:11.812500,-95.91,76.45
104315,2018-06-29 09:39:11.843750,-74.44,76.45
104316,2018-06-29 09:39:11.875000,-56.07,76.45
104317,2018-06-29 09:39:11.906250,-45.64,76.45
104318,2018-06-29 09:39:11.937500,-47.9,76.45
104319,2018-06-29 09:39:11.968750,-56.37,76.45
104320,2018-06-29 09:39:12.000000,-52.59,76.45
104321,2018-06-29 09:39:12.031250,-23.12,76.45
104322,2018-06-29 09:39:12.062500,29.27,76.45
104323,2018-06-29 09:39:12.093750,92.34,76.45
104324,2018-06-29 09:39:12.125000,153.87,76.45
104325,2018-06-29 09:39:12.156250,205.26,76.45
104326,2018-06-29 09:39:12.187500,243.81,76.45
104327,2018-06-29 09:39:12.218750,271.63,76.45
104328,2018-06-29 09:39:12.250000,289.53,76.45
104329,2018-06-29 09:39:12.281250,295.0,76.45
104330,2018-06-29 09:39:12.312500,287.24,76.45
104331,2018-06-29 09:39:12.343750,270.02,76.45
104332,2018-06-29 09:39:12.375000,248.58,76.45
104333,2018-06-29 09:39:12.406250,225.75,76.45
104334,2018-06-29 09:39:12.437500,201.58,76.45
104335,2018-06-29 09:39:12.468750,176.08,76.45
104336,2018-06-29 09:39:12.500000,149.36,76.45
104337,2018-06-29 09:39:12.531250,120.5,76.3
104338,2018-06-29 09:39:12.562500,89.85,76.3
104339,2018-06-29 09:39:12.593750,61.35,76.3
104340,2018-06-29 09:39:12.625000,38.57,76.3
104341,2018-06-29 09:39:12.656250,19.91,76.3
104342,2018-06-29 09:39:12.687500,1.76,76.3
104343,2018-06-29 09:39:12.718750,-15.07,76.3
104344,2018-06-29 09:39:12.750000,-27.67,76.3
104345,2018-06-29 09:39:12.781250,-36.03,76.3
104346,2018-06-29 09:39:12.812500,-42.33,76.3
104347,2018-06-29 09:39:12.843750,-49.0,76.3
104348,2018-06-29 09:39:12.875000,-56.95,76.3
104349,2018-06-29 09:39:12.906250,-59.52,76.3
104350,2018-06-29 09:39:12.937500,-44.12,76.3
104351,2018-06-29 09:39:12.968750,-8.4,76.3
104352,2018-06-29 09:39:13.000000,33.98,76.3
104353,2018-06-29 09:39:13.031250,69.79,76.3
104354,2018-06-29 09:39:13.062500,97.34,76.3
104355,2018-06-29 09:39:13.093750,117.8,76.3
104356,2018-06-29 09:39:13.125000,127.83,76.3
104357,2018-06-29 09:39:13.156250,125.49,76.3
104358,2018-06-29 09:39:13.187500,114.28,76.3
104359,2018-06-29 09:39:13.218750,97.94,76.3
104360,2018-06-29 09:39:13.250000,77.41,76.3
104361,2018-06-29 09:39:13.281250,53.13,76.3
104362,2018-06-29 09:39:13.312500,25.67,76.3
104363,2018-06-29 09:39:13.343750,-6.19,76.3
104364,2018-06-29 09:39:13.375000,-42.86,76.3
104365,2018-06-29 09:39:13.406250,-80.63,76.3
104366,2018-06-29 09:39:13.437500,-115.48,76.3
104367,2018-06-29 09:39:13.468750,-147.12,76.3
104368,2018-06-29 09:39:13.500000,-174.69,76.3
104369,2018-06-29 09:39:13.531250,-193.58,76.15
104370,2018-06-29 09:39:13.562500,-201.73,76.15
104371,2018-06-29 09:39:13.593750,-203.79,76.15
104372,2018-06-29 09:39:13.625000,-204.51,76.15
104373,2018-06-29 09:39:13.656250,-203.0,76.15
104374,2018-06-29 09:39:13.687500,-195.48,76.15
104375,2018-06-29 09:39:13.718750,-180.48,76.15
104376,2018-06-29 09:39:13.750000,-161.7,76.15
104377,2018-06-29 09:39:13.781250,-147.51,76.15
104378,2018-06-29 09:39:13.812500,-143.11,76.15
104379,2018-06-29 09:39:13.843750,-139.94,76.15
104380,2018-06-29 09:39:13.875000,-120.35,76.15
104381,2018-06-29 09:39:13.906250,-78.48,76.15
104382,2018-06-29 09:39:13.937500,-28.67,76.15
104383,2018-06-29 09:39:13.968750,11.89,76.15
104384,2018-06-29 09:39:14.000000,39.52,76.15
104385,2018-06-29 09:39:14.031250,58.62,76.15
104386,2018-06-29 09:39:14.062500,72.2,76.15
104387,2018-06-29 09:39:14.093750,83.49,76.15
104388,2018-06-29 09:39:14.125000,97.63,76.15
104389,2018-06-29 09:39:14.156250,116.82,76.15
104390,2018-06-29 09:39:14.187500,137.85,76.15
104391,2018-06-29 09:39:14.218750,156.5,76.15
104392,2018-06-29 09:39:14.250000,171.84,76.15
104393,2018-06-29 09:39:14.281250,184.54,76.15
104394,2018-06-29 09:39:14.312500,194.24,76.15
104395,2018-06-29 09:39:14.343750,200.76,76.15
104396,2018-06-29 09:39:14.375000,205.27,76.15
104397,2018-06-29 09:39:14.406250,207.61,76.15
104398,2018-06-29 09:39:14.437500,206.57,76.15
104399,2018-06-29 09:39:14.468750,202.33,76.15
104400,2018-06-29 09:39:14.500000,195.2,76.15
104401,2018-06-29 09:39:14.531250,184.43,75.93
104402,2018-06-29 09:39:14.562500,170.63,75.93
104403,2018-06-29 09:39:14.593750,155.15,75.93
104404,2018-06-29 09:39:14.625000,135.78,75.93
104405,2018-06-29 09:39:14.656250,108.01,75.93
104406,2018-06-29 09:39:14.687500,71.56,75.93
104407,2018-06-29 09:39:14.718750,32.91,75.93
104408,2018-06-29 09:39:14.750000,3.22,75.93
104409,2018-06-29 09:39:14.781250,-8.23,75.93
104410,2018-06-29 09:39:14.812500,-3.77,75.93
104411,2018-06-29 09:39:14.843750,0.85,75.93
104412,2018-06-29 09:39:14.875000,-10.47,75.93
104413,2018-06-29 09:39:14.906250,-41.13,75.93
104414,2018-06-29 09:39:14.937500,-83.19,75.93
104415,2018-06-29 09:39:14.968750,-125.7,75.93
104416,2018-06-29 09:39:15.000000,-158.82,75.93
104417,2018-06-29 09:39:15.031250,-175.84,75.93
104418,2018-06-29 09:39:15.062500,-175.12,75.93
104419,2018-06-29 09:39:15.093750,-159.61,75.93
104420,2018-06-29 09:39:15.125000,-133.32,75.93
104421,2018-06-29 09:39:15.156250,-100.34,75.93
104422,2018-06-29 09:39:15.187500,-66.2,75.93
104423,2018-06-29 09:39:15.218750,-35.49,75.93
104424,2018-06-29 09:39:15.250000,-9.12,75.93
104425,2018-06-29 09:39:15.281250,14.09,75.93
104426,2018-06-29 09:39:15.312500,34.78,75.93
104427,2018-06-29 09:39:15.343750,54.34,75.93
104428,2018-06-29 09:39:15.375000,74.16,75.93
104429,2018-06-29 09:39:15.406250,91.88,75.93
104430,2018-06-29 09:39:15.437500,103.54,75.93
104431,2018-06-29 09:39:15.468750,108.62,75.93
104432,2018-06-29 09:39:15.500000,107.52,75.93
104433,2018-06-29 09:39:15.531250,99.03,75.73
104434,2018-06-29 09:39:15.562500,84.04,75.73
104435,2018-06-29 09:39:15.593750,64.3,75.73
104436,2018-06-29 09:39:15.625000,36.0,75.73
104437,2018-06-29 09:39:15.656250,-3.52,75.73
104438,2018-06-29 09:39:15.687500,-46.77,75.73
104439,2018-06-29 09:39:15.718750,-86.59,75.73
104440,2018-06-29 09:39:15.750000,-126.97,75.73
104441,2018-06-29 09:39:15.781250,-170.67,75.73
104442,2018-06-29 09:39:15.812500,-209.65,75.73
104443,2018-06-29 09:39:15.843750,-239.69,75.73
104444,2018-06-29 09:39:15.875000,-270.58,75.73
104445,2018-06-29 09:39:15.906250,-313.74,75.73
104446,2018-06-29 09:39:15.937500,-370.54,75.73
104447,2018-06-29 09:39:15.968750,-435.72,75.73
104448,2018-06-29 09:39:16.000000,-503.56,75.73
104449,2018-06-29 09:39:16.031250,-566.55,75.73
104450,2018-06-29 09:39:16.062500,-606.41,75.73
104451,2018-06-29 09:39:16.093750,-598.41,75.73
104452,2018-06-29 09:39:16.125000,-537.9,75.73
104453,2018-06-29 09:39:16.156250,-449.08,75.73
104454,2018-06-29 09:39:16.187500,-355.38,75.73
104455,2018-06-29 09:39:16.218750,-261.13,75.73
104456,2018-06-29 09:39:16.250000,-169.11,75.73
104457,2018-06-29 09:39:16.281250,-89.29,75.73
104458,2018-06-29 09:39:16.312500,-22.96,75.73
104459,2018-06-29 09:39:16.343750,40.68,75.73
104460,2018-06-29 09:39:16.375000,106.95,75.73
104461,2018-06-29 09:39:16.406250,163.59,75.73
104462,2018-06-29 09:39:16.437500,191.86,75.73
104463,2018-06-29 09:39:16.468750,190.94,75.73
104464,2018-06-29 09:39:16.500000,185.2,75.73
104465,2018-06-29 09:39:16.531250,200.96,75.37
104466,2018-06-29 09:39:16.562500,243.18,75.37
104467,2018-06-29 09:39:16.593750,300.19,75.37
104468,2018-06-29 09:39:16.625000,358.49,75.37
104469,2018-06-29 09:39:16.656250,406.57,75.37
104470,2018-06-29 09:39:16.687500,436.83,75.37
104471,2018-06-29 09:39:16.718750,451.51,75.37
104472,2018-06-29 09:39:16.750000,457.39,75.37
104473,2018-06-29 09:39:16.781250,452.27,75.37
104474,2018-06-29 09:39:16.812500,428.28,75.37
104475,2018-06-29 09:39:16.843750,389.67,75.37
104476,2018-06-29 09:39:16.875000,354.56,75.37
104477,2018-06-29 09:39:16.906250,333.2,75.37
104478,2018-06-29 09:39:16.937500,312.91,75.37
104479,2018-06-29 09:39:16.968750,270.79,75.37
104480,2018-06-29 09:39:17.000000,197.55,75.37
104481,2018-06-29 09:39:17.031250,104.19,75.37
104482,2018-06-29 09:39:17.062500,6.42,75.37
104483,2018-06-29 09:39:17.093750,-92.31,75.37
104484,2018-06-29 09:39:17.125000,-197.66,75.37
104485,2018-06-29 09:39:17.156250,-297.12,75.37
104486,2018-06-29 09:39:17.187500,-352.8,75.37
104487,2018-06-29 09:39:17.218750,-346.37,75.37
104488,2018-06-29 09:39:17.250000,-314.41,75.37
104489,2018-06-29 09:39:17.281250,-310.52,75.37
104490,2018-06-29 09:39:17.312500,-348.17,75.37
104491,2018-06-29 09:39:17.343750,-399.36,75.37
104492,2018-06-29 09:39:17.375000,-429.24,75.37
104493,2018-06-29 09:39:17.406250,-420.06,75.37
104494,2018-06-29 09:39:17.437500,-377.76,75.37
104495,2018-06-29 09:39:17.468750,-322.05,75.37
104496,2018-06-29 09:39:17.500000,-269.17,75.37
104497,2018-06-29 09:39:17.531250,-222.28,74.97
104498,2018-06-29 09:39:17.562500,-171.27,74.97
104499,2018-06-29 09:39:17.593750,-103.1,74.97
104500,2018-06-29 09:39:17.625000,-19.57,74.97
104501,2018-06-29 09:39:17.656250,59.48,74.97
104502,2018-06-29 09:39:17.687500,114.49,74.97
104503,2018-06-29 09:39:17.718750,140.78,74.97
104504,2018-06-29 09:39:17.750000,146.53,74.97
104505,2018-06-29 09:39:17.781250,142.91,74.97
104506,2018-06-29 09:39:17.812500,130.45,74.97
104507,2018-06-29 09:39:17.843750,97.65,74.97
104508,2018-06-29 09:39:17.875000,42.2,74.97
104509,2018-06-29 09:39:17.906250,-15.85,74.97
104510,2018-06-29 09:39:17.937500,-51.69,74.97
104511,2018-06-29 09:39:17.968750,-53.91,74.97
104512,2018-06-29 09:39:18.000000,-22.38,74.97
104513,2018-06-29 09:39:18.031250,33.83,74.97
104514,2018-06-29 09:39:18.062500,92.33,74.97
104515,2018-06-29 09:39:18.093750,125.13,74.97
104516,2018-06-29 09:39:18.125000,115.38,74.97
104517,2018-06-29 09:39:18.156250,68.93,74.97
104518,2018-06-29 09:39:18.187500,9.7,74.97
104519,2018-06-29 09:39:18.218750,-36.94,74.97
104520,2018-06-29 09:39:18.250000,-55.79,74.97
104521,2018-06-29 09:39:18.281250,-43.88,74.97
104522,2018-06-29 09:39:18.312500,-8.76,74.97
104523,2018-06-29 09:39:18.343750,38.53,74.97
104524,2018-06-29 09:39:18.375000,90.95,74.97
104525,2018-06-29 09:39:18.406250,143.62,74.97
104526,2018-06-29 09:39:18.437500,189.82,74.97
104527,2018-06-29 09:39:18.468750,224.44,74.97
104528,2018-06-29 09:39:18.500000,246.75,74.97
104529,2018-06-29 09:39:18.531250,255.68,74.63
104530,2018-06-29 09:39:18.562500,248.31,74.63
104531,2018-06-29 09:39:18.593750,223.78,74.63
104532,2018-06-29 09:39:18.625000,185.45,74.63
104533,2018-06-29 09:39:18.656250,139.36,74.63
104534,2018-06-29 09:39:18.687500,93.58,74.63
104535,2018-06-29 09:39:18.718750,56.9,74.63
104536,2018-06-29 09:39:18.750000,33.41,74.63
104537,2018-06-29 09:39:18.781250,18.88,74.63
104538,2018-06-29 09:39:18.812500,6.61,74.63
104539,2018-06-29 09:39:18.843750,-4.9,74.63
104540,2018-06-29 09:39:18.875000,-13.55,74.63
104541,2018-06-29 09:39:18.906250,-20.3,74.63
104542,2018-06-29 09:39:18.937500,-29.68,74.63
104543,2018-06-29 09:39:18.968750,-43.09,74.63
104544,2018-06-29 09:39:19.000000,-51.52,74.63
104545,2018-06-29 09:39:19.031250,-38.71,74.63
104546,2018-06-29 09:39:19.062500,1.63,74.63
104547,2018-06-29 09:39:19.093750,55.47,74.63
104548,2018-06-29 09:39:19.125000,101.79,74.63
104549,2018-06-29 09:39:19.156250,131.43,74.63
104550,2018-06-29 09:39:19.187500,146.63,74.63
104551,2018-06-29 09:39:19.218750,150.33,74.63
104552,2018-06-29 09:39:19.250000,143.5,74.63
104553,2018-06-29 09:39:19.281250,127.82,74.63
104554,2018-06-29 09:39:19.312500,106.16,74.63
104555,2018-06-29 09:39:19.343750,82.19,74.63
104556,2018-06-29 09:39:19.375000,60.92,74.63
104557,2018-06-29 09:39:19.406250,46.75,74.63
104558,2018-06-29 09:39:19.437500,40.22,74.63
104559,2018-06-29 09:39:19.468750,37.82,74.63
104560,2018-06-29 09:39:19.500000,35.32,74.63
104561,2018-06-29 09:39:19.531250,31.85,74.33
104562,2018-06-29 09:39:19.562500,31.25,74.33
104563,2018-06-29 09:39:19.593750,37.87,74.33
104564,2018-06-29 09:39:19.625000,50.62,74.33
104565,2018-06-29 09:39:19.656250,62.59,74.33
104566,2018-06-29 09:39:19.687500,67.47,74.33
104567,2018-06-29 09:39:19.718750,66.09,74.33
104568,2018-06-29 09:39:19.750000,66.28,74.33
104569,2018-06-29 09:39:19.781250,75.44,74.33
104570,2018-06-29 09:39:19.812500,93.43,74.33
104571,2018-06-29 09:39:19.843750,109.75,74.33
104572,2018-06-29 09:39:19.875000,107.48,74.33
104573,2018-06-29 09:39:19.906250,77.0,74.33
104574,2018-06-29 09:39:19.937500,23.6,74.33
104575,2018-06-29 09:39:19.968750,-43.78,74.33
104576,2018-06-29 09:39:20.000000,-115.12,74.33
104577,2018-06-29 09:39:20.031250,-165.23,74.33
104578,2018-06-29 09:39:20.062500,-167.7,74.33
104579,2018-06-29 09:39:20.093750,-129.12,74.33
104580,2018-06-29 09:39:20.125000,-79.61,74.33
104581,2018-06-29 09:39:20.156250,-35.43,74.33
104582,2018-06-29 09:39:20.187500,0.89,74.33
104583,2018-06-29 09:39:20.218750,21.43,74.33
104584,2018-06-29 09:39:20.250000,21.27,74.33
104585,2018-06-29 09:39:20.281250,10.88,74.33
104586,2018-06-29 09:39:20.312500,3.57,74.33
104587,2018-06-29 09:39:20.343750,1.67,74.33
104588,2018-06-29 09:39:20.375000,1.62,74.33
104589,2018-06-29 09:39:20.406250,3.0,74.33
104590,2018-06-29 09:39:20.437500,6.21,74.33
104591,2018-06-29 09:39:20.468750,6.24,74.33
104592,2018-06-29 09:39:20.500000,-3.8,74.33
104593,2018-06-29 09:39:20.531250,-24.94,74.07
104594,2018-06-29 09:39:20.562500,-52.68,74.07
104595,2018-06-29 09:39:20.593750,-79.64,74.07
104596,2018-06-29 09:39:20.625000,-95.39,74.07
104597,2018-06-29 09:39:20.656250,-92.68,74.07
104598,2018-06-29 09:39:20.687500,-77.68,74.07
104599,2018-06-29 09:39:20.718750,-65.89,74.07
104600,2018-06-29 09:39:20.750000,-67.22,74.07
104601,2018-06-29 09:39:20.781250,-81.37,74.07
104602,2018-06-29 09:39:20.812500,-101.3,74.07
104603,2018-06-29 09:39:20.843750,-113.59,74.07
104604,2018-06-29 09:39:20.875000,-105.04,74.07
104605,2018-06-29 09:39:20.906250,-76.52,74.07
104606,2018-06-29 09:39:20.937500,-43.06,74.07
104607,2018-06-29 09:39:20.968750,-16.33,74.07
104608,2018-06-29 09:39:21.000000,5.42,74.07
104609,2018-06-29 09:39:21.031250,28.14,74.07
104610,2018-06-29 09:39:21.062500,51.59,74.07
104611,2018-06-29 09:39:21.093750,72.58,74.07
104612,2018-06-29 09:39:21.125000,92.33,74.07
104613,2018-06-29 09:39:21.156250,114.9,74.07
104614,2018-06-29 09:39:21.187500,140.83,74.07
104615,2018-06-29 09:39:21.218750,163.76,74.07
104616,2018-06-29 09:39:21.250000,171.11,74.07
104617,2018-06-29 09:39:21.281250,153.57,74.07
104618,2018-06-29 09:39:21.312500,115.75,74.07
104619,2018-06-29 09:39:21.343750,72.71,74.07
104620,2018-06-29 09:39:21.375000,35.98,74.07
104621,2018-06-29 09:39:21.406250,9.19,74.07
104622,2018-06-29 09:39:21.437500,-7.56,74.07
104623,2018-06-29 09:39:21.468750,-17.16,74.07
104624,2018-06-29 09:39:21.500000,-24.87,74.07
104625,2018-06-29 09:39:21.531250,-33.82,73.75
104626,2018-06-29 09:39:21.562500,-42.91,73.75
104627,2018-06-29 09:39:21.593750,-50.36,73.75
104628,2018-06-29 09:39:21.625000,-57.23,73.75
104629,2018-06-29 09:39:21.656250,-66.8,73.75
104630,2018-06-29 09:39:21.687500,-81.06,73.75
104631,2018-06-29 09:39:21.718750,-96.58,73.75
104632,2018-06-29 09:39:21.750000,-103.44,73.75
104633,2018-06-29 09:39:21.781250,-92.79,73.75
104634,2018-06-29 09:39:21.812500,-66.88,73.75
104635,2018-06-29 09:39:21.843750,-37.59,73.75
104636,2018-06-29 09:39:21.875000,-14.18,73.75
104637,2018-06-29 09:39:21.906250,2.27,73.75
104638,2018-06-29 09:39:21.937500,13.64,73.75
104639,2018-06-29 09:39:21.968750,20.23,73.75
104640,2018-06-29 09:39:22.000000,22.73,73.75
104641,2018-06-29 09:39:22.031250,23.26,73.75
104642,2018-06-29 09:39:22.062500,22.67,73.75
104643,2018-06-29 09:39:22.093750,20.06,73.75
104644,2018-06-29 09:39:22.125000,16.27,73.75
104645,2018-06-29 09:39:22.156250,14.33,73.75
104646,2018-06-29 09:39:22.187500,14.41,73.75
104647,2018-06-29 09:39:22.218750,12.82,73.75
104648,2018-06-29 09:39:22.250000,7.76,73.75
104649,2018-06-29 09:39:22.281250,1.64,73.75
104650,2018-06-29 09:39:22.312500,-3.26,73.75
104651,2018-06-29 09:39:22.343750,-8.23,73.75
104652,2018-06-29 09:39:22.375000,-15.79,73.75
104653,2018-06-29 09:39:22.406250,-25.56,73.75
104654,2018-06-29 09:39:22.437500,-34.21,73.75
104655,2018-06-29 09:39:22.468750,-39.64,73.75
104656,2018-06-29 09:39:22.500000,-43.74,73.75
104657,2018-06-29 09:39:22.531250,-50.41,73.42
104658,2018-06-29 09:39:22.562500,-60.89,73.42
104659,2018-06-29 09:39:22.593750,-69.93,73.42
104660,2018-06-29 09:39:22.625000,-68.0,73.42
104661,2018-06-29 09:39:22.656250,-51.2,73.42
104662,2018-06-29 09:39:22.687500,-26.61,73.42
104663,2018-06-29 09:39:22.718750,-4.54,73.42
104664,2018-06-29 09:39:22.750000,10.95,73.42
104665,2018-06-29 09:39:22.781250,20.6,73.42
104666,2018-06-29 09:39:22.812500,25.18,73.42
104667,2018-06-29 09:39:22.843750,25.91,73.42
104668,2018-06-29 09:39:22.875000,25.41,73.42
104669,2018-06-29 09:39:22.906250,25.25,73.42
104670,2018-06-29 09:39:22.937500,24.76,73.42
104671,2018-06-29 09:39:22.968750,23.01,73.42
104672,2018-06-29 09:39:23.000000,20.74,73.42
104673,2018-06-29 09:39:23.031250,18.56,73.42
104674,2018-06-29 09:39:23.062500,14.89,73.42
104675,2018-06-29 09:39:23.093750,8.1,73.42
104676,2018-06-29 09:39:23.125000,-0.28,73.42
104677,2018-06-29 09:39:23.156250,-7.35,73.42
104678,2018-06-29 09:39:23.187500,-12.98,73.42
104679,2018-06-29 09:39:23.218750,-19.96,73.42
104680,2018-06-29 09:39:23.250000,-29.54,73.42
104681,2018-06-29 09:39:23.281250,-39.42,73.42
104682,2018-06-29 09:39:23.312500,-46.8,73.42
104683,2018-06-29 09:39:23.343750,-52.12,73.42
104684,2018-06-29 09:39:23.375000,-58.69,73.42
104685,2018-06-29 09:39:23.406250,-68.24,73.42
104686,2018-06-29 09:39:23.437500,-76.31,73.42
104687,2018-06-29 09:39:23.468750,-73.64,73.42
104688,2018-06-29 09:39:23.500000,-55.93,73.42
104689,2018-06-29 09:39:23.531250,-30.41,73.32
104690,2018-06-29 09:39:23.562500,-8.32,73.32
104691,2018-06-29 09:39:23.593750,6.55,73.32
104692,2018-06-29 09:39:23.625000,17.47,73.32
104693,2018-06-29 09:39:23.656250,26.53,73.32
104694,2018-06-29 09:39:23.687500,31.91,73.32
104695,2018-06-29 09:39:23.718750,32.26,73.32
104696,2018-06-29 09:39:23.750000,29.3,73.32
104697,2018-06-29 09:39:23.781250,25.75,73.32
104698,2018-06-29 09:39:23.812500,22.71,73.32
104699,2018-06-29 09:39:23.843750,20.33,73.32
104700,2018-06-29 09:39:23.875000,19.21,73.32
104701,2018-06-29 09:39:23.906250,19.48,73.32
104702,2018-06-29 09:39:23.937500,19.67,73.32
104703,2018-06-29 09:39:23.968750,17.79,73.32
104704,2018-06-29 09:39:24.000000,13.41,73.32
104705,2018-06-29 09:39:24.031250,7.47,73.32
104706,2018-06-29 09:39:24.062500,0.67,73.32
104707,2018-06-29 09:39:24.093750,-7.18,73.32
104708,2018-06-29 09:39:24.125000,-15.87,73.32
104709,2018-06-29 09:39:24.156250,-24.45,73.32
104710,2018-06-29 09:39:24.187500,-31.68,73.32
104711,2018-06-29 09:39:24.218750,-37.21,73.32
104712,2018-06-29 09:39:24.250000,-42.73,73.32
104713,2018-06-29 09:39:24.281250,-51.1,73.32
104714,2018-06-29 09:39:24.312500,-63.06,73.32
104715,2018-06-29 09:39:24.343750,-73.43,73.32
104716,2018-06-29 09:39:24.375000,-72.31,73.32
104717,2018-06-29 09:39:24.406250,-54.85,73.32
104718,2018-06-29 09:39:24.437500,-28.07,73.32
104719,2018-06-29 09:39:24.468750,-3.22,73.32
104720,2018-06-29 09:39:24.500000,15.29,73.32
104721,2018-06-29 09:39:24.531250,29.51,73.53
104722,2018-06-29 09:39:24.562500,41.23,73.53
104723,2018-06-29 09:39:24.593750,50.39,73.53
104724,2018-06-29 09:39:24.625000,56.56,73.53
104725,2018-06-29 09:39:24.656250,59.34,73.53
104726,2018-06-29 09:39:24.687500,59.26,73.53
104727,2018-06-29 09:39:24.718750,59.1,73.53
104728,2018-06-29 09:39:24.750000,62.52,73.53
104729,2018-06-29 09:39:24.781250,69.91,73.53
104730,2018-06-29 09:39:24.812500,76.8,73.53
104731,2018-06-29 09:39:24.843750,78.34,73.53
104732,2018-06-29 09:39:24.875000,76.15,73.53
104733,2018-06-29 09:39:24.906250,79.96,73.53
104734,2018-06-29 09:39:24.937500,97.62,73.53
104735,2018-06-29 09:39:24.968750,122.13,73.53
104736,2018-06-29 09:39:25.000000,135.81,73.53
104737,2018-06-29 09:39:25.031250,129.74,73.53
104738,2018-06-29 09:39:25.062500,111.5,73.53
104739,2018-06-29 09:39:25.093750,90.47,73.53
104740,2018-06-29 09:39:25.125000,64.77,73.53
104741,2018-06-29 09:39:25.156250,26.83,73.53
104742,2018-06-29 09:39:25.187500,-23.91,73.53
104743,2018-06-29 09:39:25.218750,-77.92,73.53
104744,2018-06-29 09:39:25.250000,-124.71,73.53
104745,2018-06-29 09:39:25.281250,-161.51,73.53
104746,2018-06-29 09:39:25.312500,-191.18,73.53
104747,2018-06-29 09:39:25.343750,-215.2,73.53
104748,2018-06-29 09:39:25.375000,-228.42,73.53
104749,2018-06-29 09:39:25.406250,-217.61,73.53
104750,2018-06-29 09:39:25.437500,-174.58,73.53
104751,2018-06-29 09:39:25.468750,-114.15,73.53
104752,2018-06-29 09:39:25.500000,-64.55,73.53
104753,2018-06-29 09:39:25.531250,-37.99,73.77
104754,2018-06-29 09:39:25.562500,-26.2,73.77
104755,2018-06-29 09:39:25.593750,-22.18,73.77
104756,2018-06-29 09:39:25.625000,-27.93,73.77
104757,2018-06-29 09:39:25.656250,-43.0,73.77
104758,2018-06-29 09:39:25.687500,-59.47,73.77
104759,2018-06-29 09:39:25.718750,-70.11,73.77
104760,2018-06-29 09:39:25.750000,-76.84,73.77
104761,2018-06-29 09:39:25.781250,-87.26,73.77
104762,2018-06-29 09:39:25.812500,-102.17,73.77
104763,2018-06-29 09:39:25.843750,-111.84,73.77
104764,2018-06-29 09:39:25.875000,-108.77,73.77
104765,2018-06-29 09:39:25.906250,-96.82,73.77
104766,2018-06-29 09:39:25.937500,-81.43,73.77
104767,2018-06-29 09:39:25.968750,-57.88,73.77
104768,2018-06-29 09:39:26.000000,-15.25,73.77
104769,2018-06-29 09:39:26.031250,54.24,73.77
104770,2018-06-29 09:39:26.062500,142.58,73.77
104771,2018-06-29 09:39:26.093750,211.38,73.77
104772,2018-06-29 09:39:26.125000,216.91,73.77
104773,2018-06-29 09:39:26.156250,169.19,73.77
104774,2018-06-29 09:39:26.187500,124.67,73.77
104775,2018-06-29 09:39:26.218750,108.96,73.77
104776,2018-06-29 09:39:26.250000,106.93,73.77
104777,2018-06-29 09:39:26.281250,123.57,73.77
104778,2018-06-29 09:39:26.312500,171.41,73.77
104779,2018-06-29 09:39:26.343750,212.79,73.77
104780,2018-06-29 09:39:26.375000,194.23,73.77
104781,2018-06-29 09:39:26.406250,115.8,73.77
104782,2018-06-29 09:39:26.437500,11.33,73.77
104783,2018-06-29 09:39:26.468750,-102.28,73.77
104784,2018-06-29 09:39:26.500000,-213.24,73.77
104785,2018-06-29 09:39:26.531250,-291.73,74.03
104786,2018-06-29 09:39:26.562500,-312.52,74.03
104787,2018-06-29 09:39:26.593750,-276.07,74.03
104788,2018-06-29 09:39:26.625000,-193.24,74.03
104789,2018-06-29 09:39:26.656250,-73.38,74.03
104790,2018-06-29 09:39:26.687500,62.4,74.03
104791,2018-06-29 09:39:26.718750,181.37,74.03
104792,2018-06-29 09:39:26.750000,260.73,74.03
104793,2018-06-29 09:39:26.781250,289.5,74.03
104794,2018-06-29 09:39:26.812500,259.5,74.03
104795,2018-06-29 09:39:26.843750,183.09,74.03
104796,2018-06-29 09:39:26.875000,102.5,74.03
104797,2018-06-29 09:39:26.906250,49.99,74.03
104798,2018-06-29 09:39:26.937500,17.94,74.03
104799,2018-06-29 09:39:26.968750,-9.99,74.03
104800,2018-06-29 09:39:27.000000,-29.13,74.03
104801,2018-06-29 09:39:27.031250,-35.82,74.03
104802,2018-06-29 09:39:27.062500,-45.06,74.03
104803,2018-06-29 09:39:27.093750,-68.37,74.03
104804,2018-06-29 09:39:27.125000,-98.07,74.03
104805,2018-06-29 09:39:27.156250,-118.45,74.03
104806,2018-06-29 09:39:27.187500,-117.07,74.03
104807,2018-06-29 09:39:27.218750,-90.21,74.03
104808,2018-06-29 09:39:27.250000,-46.81,74.03
104809,2018-06-29 09:39:27.281250,-2.35,74.03
104810,2018-06-29 09:39:27.312500,32.24,74.03
104811,2018-06-29 09:39:27.343750,52.89,74.03
104812,2018-06-29 09:39:27.375000,61.23,74.03
104813,2018-06-29 09:39:27.406250,64.16,74.03
104814,2018-06-29 09:39:27.437500,68.73,74.03
104815,2018-06-29 09:39:27.468750,77.35,74.03
104816,2018-06-29 09:39:27.500000,91.77,74.03
104817,2018-06-29 09:39:27.531250,116.73,74.32
104818,2018-06-29 09:39:27.562500,154.38,74.32
104819,2018-06-29 09:39:27.593750,203.12,74.32
104820,2018-06-29 09:39:27.625000,260.47,74.32
104821,2018-06-29 09:39:27.656250,312.57,74.32
104822,2018-06-29 09:39:27.687500,331.0,74.32
104823,2018-06-29 09:39:27.718750,300.4,74.32
104824,2018-06-29 09:39:27.750000,237.13,74.32
104825,2018-06-29 09:39:27.781250,167.37,74.32
104826,2018-06-29 09:39:27.812500,105.27,74.32
104827,2018-06-29 09:39:27.843750,55.05,74.32
104828,2018-06-29 09:39:27.875000,13.06,74.32
104829,2018-06-29 09:39:27.906250,-30.2,74.32
104830,2018-06-29 09:39:27.937500,-77.47,74.32
104831,2018-06-29 09:39:27.968750,-123.73,74.32
104832,2018-06-29 09:39:28.000000,-168.01,74.32
104833,2018-06-29 09:39:28.031250,-210.91,74.32
104834,2018-06-29 09:39:28.062500,-242.79,74.32
104835,2018-06-29 09:39:28.093750,-250.05,74.32
104836,2018-06-29 09:39:28.125000,-233.68,74.32
104837,2018-06-29 09:39:28.156250,-215.28,74.32
104838,2018-06-29 09:39:28.187500,-222.86,74.32
104839,2018-06-29 09:39:28.218750,-254.62,74.32
104840,2018-06-29 09:39:28.250000,-259.35,74.32
104841,2018-06-29 09:39:28.281250,-184.58,74.32
104842,2018-06-29 09:39:28.312500,-41.34,74.32
104843,2018-06-29 09:39:28.343750,104.43,74.32
104844,2018-06-29 09:39:28.375000,193.0,74.32
104845,2018-06-29 09:39:28.406250,204.67,74.32
104846,2018-06-29 09:39:28.437500,151.12,74.32
104847,2018-06-29 09:39:28.468750,61.02,74.32
104848,2018-06-29 09:39:28.500000,-17.14,74.32
104849,2018-06-29 09:39:28.531250,-27.57,74.58
104850,2018-06-29 09:39:28.562500,40.45,74.58
104851,2018-06-29 09:39:28.593750,133.84,74.58
104852,2018-06-29 09:39:28.625000,191.55,74.58
104853,2018-06-29 09:39:28.656250,188.3,74.58
104854,2018-06-29 09:39:28.687500,124.94,74.58
104855,2018-06-29 09:39:28.718750,23.02,74.58
104856,2018-06-29 09:39:28.750000,-72.56,74.58
104857,2018-06-29 09:39:28.781250,-126.08,74.58
104858,2018-06-29 09:39:28.812500,-145.17,74.58
104859,2018-06-29 09:39:28.843750,-160.92,74.58
104860,2018-06-29 09:39:28.875000,-183.56,74.58
104861,2018-06-29 09:39:28.906250,-202.28,74.58
104862,2018-06-29 09:39:28.937500,-217.41,74.58
104863,2018-06-29 09:39:28.968750,-240.01,74.58
104864,2018-06-29 09:39:29.000000,-271.75,74.58
104865,2018-06-29 09:39:29.031250,-313.18,74.58
104866,2018-06-29 09:39:29.062500,-365.56,74.58
104867,2018-06-29 09:39:29.093750,-403.97,74.58
104868,2018-06-29 09:39:29.125000,-386.95,74.58
104869,2018-06-29 09:39:29.156250,-307.39,74.58
104870,2018-06-29 09:39:29.187500,-200.71,74.58
104871,2018-06-29 09:39:29.218750,-99.85,74.58
104872,2018-06-29 09:39:29.250000,-10.79,74.58
104873,2018-06-29 09:39:29.281250,68.26,74.58
104874,2018-06-29 09:39:29.312500,123.26,74.58
104875,2018-06-29 09:39:29.343750,130.96,74.58
104876,2018-06-29 09:39:29.375000,81.77,74.58
104877,2018-06-29 09:39:29.406250,-19.17,74.58
104878,2018-06-29 09:39:29.437500,-157.44,74.58
104879,2018-06-29 09:39:29.468750,-293.5,74.58
104880,2018-06-29 09:39:29.500000,-371.65,74.58
104881,2018-06-29 09:39:29.531250,-369.11,74.82
104882,2018-06-29 09:39:29.562500,-312.88,74.82
104883,2018-06-29 09:39:29.593750,-243.22,74.82
104884,2018-06-29 09:39:29.625000,-185.01,74.82
104885,2018-06-29 09:39:29.656250,-146.96,74.82
104886,2018-06-29 09:39:29.687500,-127.22,74.82
104887,2018-06-29 09:39:29.718750,-118.71,74.82
104888,2018-06-29 09:39:29.750000,-112.76,74.82
104889,2018-06-29 09:39:29.781250,-102.25,74.82
104890,2018-06-29 09:39:29.812500,-86.74,74.82
104891,2018-06-29 09:39:29.843750,-69.97,74.82
104892,2018-06-29 09:39:29.875000,-52.13,74.82
104893,2018-06-29 09:39:29.906250,-28.98,74.82
104894,2018-06-29 09:39:29.937500,1.53,74.82
104895,2018-06-29 09:39:29.968750,36.37,74.82
104896,2018-06-29 09:39:30.000000,71.95,74.82
104897,2018-06-29 09:39:30.031250,107.83,74.82
104898,2018-06-29 09:39:30.062500,146.28,74.82
104899,2018-06-29 09:39:30.093750,190.88,74.82
104900,2018-06-29 09:39:30.125000,238.63,74.82
104901,2018-06-29 09:39:30.156250,270.59,74.82
104902,2018-06-29 09:39:30.187500,265.55,74.82
104903,2018-06-29 09:39:30.218750,226.76,74.82
104904,2018-06-29 09:39:30.250000,177.92,74.82
104905,2018-06-29 09:39:30.281250,133.83,74.82
104906,2018-06-29 09:39:30.312500,92.33,74.82
104907,2018-06-29 09:39:30.343750,49.0,74.82
104908,2018-06-29 09:39:30.375000,4.98,74.82
104909,2018-06-29 09:39:30.406250,-30.85,74.82
104910,2018-06-29 09:39:30.437500,-40.97,74.82
104911,2018-06-29 09:39:30.468750,-14.54,74.82
104912,2018-06-29 09:39:30.500000,35.4,74.82
104913,2018-06-29 09:39:30.531250,83.26,75.07
104914,2018-06-29 09:39:30.562500,117.11,75.07
104915,2018-06-29 09:39:30.593750,141.32,75.07
104916,2018-06-29 09:39:30.625000,159.8,75.07
104917,2018-06-29 09:39:30.656250,169.85,75.07
104918,2018-06-29 09:39:30.687500,169.65,75.07
104919,2018-06-29 09:39:30.718750,162.11,75.07
104920,2018-06-29 09:39:30.750000,151.78,75.07
104921,2018-06-29 09:39:30.781250,142.19,75.07
104922,2018-06-29 09:39:30.812500,134.92,75.07
104923,2018-06-29 09:39:30.843750,128.5,75.07
104924,2018-06-29 09:39:30.875000,118.82,75.07
104925,2018-06-29 09:39:30.906250,103.08,75.07
104926,2018-06-29 09:39:30.937500,83.14,75.07
104927,2018-06-29 09:39:30.968750,63.85,75.07
104928,2018-06-29 09:39:31.000000,48.04,75.07
104929,2018-06-29 09:39:31.031250,34.32,75.07
104930,2018-06-29 09:39:31.062500,20.22,75.07
104931,2018-06-29 09:39:31.093750,5.44,75.07
104932,2018-06-29 09:39:31.125000,-8.99,75.07
104933,2018-06-29 09:39:31.156250,-24.17,75.07
104934,2018-06-29 09:39:31.187500,-43.64,75.07
104935,2018-06-29 09:39:31.218750,-69.84,75.07
104936,2018-06-29 09:39:31.250000,-98.59,75.07
104937,2018-06-29 09:39:31.281250,-116.85,75.07
104938,2018-06-29 09:39:31.312500,-110.7,75.07
104939,2018-06-29 09:39:31.343750,-78.77,75.07
104940,2018-06-29 09:39:31.375000,-33.51,75.07
104941,2018-06-29 09:39:31.406250,11.82,75.07
104942,2018-06-29 09:39:31.437500,51.83,75.07
104943,2018-06-29 09:39:31.468750,84.28,75.07
104944,2018-06-29 09:39:31.500000,106.01,75.07
104945,2018-06-29 09:39:31.531250,116.7,75.22
104946,2018-06-29 09:39:31.562500,121.36,75.22
104947,2018-06-29 09:39:31.593750,125.25,75.22
104948,2018-06-29 09:39:31.625000,129.67,75.22
104949,2018-06-29 09:39:31.656250,136.0,75.22
104950,2018-06-29 09:39:31.687500,148.32,75.22
104951,2018-06-29 09:39:31.718750,167.81,75.22
104952,2018-06-29 09:39:31.750000,188.0,75.22
104953,2018-06-29 09:39:31.781250,197.7,75.22
104954,2018-06-29 09:39:31.812500,187.1,75.22
104955,2018-06-29 09:39:31.843750,155.95,75.22
104956,2018-06-29 09:39:31.875000,118.35,75.22
104957,2018-06-29 09:39:31.906250,90.22,75.22
104958,2018-06-29 09:39:31.937500,73.0,75.22
104959,2018-06-29 09:39:31.968750,59.16,75.22
104960,2018-06-29 09:39:32.000000,46.45,75.22
104961,2018-06-29 09:39:32.031250,35.69,75.22
104962,2018-06-29 09:39:32.062500,22.96,75.22
104963,2018-06-29 09:39:32.093750,4.74,75.22
104964,2018-06-29 09:39:32.125000,-15.18,75.22
104965,2018-06-29 09:39:32.156250,-28.09,75.22
104966,2018-06-29 09:39:32.187500,-28.79,75.22
104967,2018-06-29 09:39:32.218750,-20.14,75.22
104968,2018-06-29 09:39:32.250000,-8.48,75.22
104969,2018-06-29 09:39:32.281250,2.29,75.22
104970,2018-06-29 09:39:32.312500,9.66,75.22
104971,2018-06-29 09:39:32.343750,12.96,75.22
104972,2018-06-29 09:39:32.375000,17.32,75.22
104973,2018-06-29 09:39:32.406250,28.88,75.22
104974,2018-06-29 09:39:32.437500,45.49,75.22
104975,2018-06-29 09:39:32.468750,58.6,75.22
104976,2018-06-29 09:39:32.500000,62.05,75.22
104977,2018-06-29 09:39:32.531250,55.0,75.37
104978,2018-06-29 09:39:32.562500,39.74,75.37
104979,2018-06-29 09:39:32.593750,19.95,75.37
104980,2018-06-29 09:39:32.625000,-0.25,75.37
104981,2018-06-29 09:39:32.656250,-17.53,75.37
104982,2018-06-29 09:39:32.687500,-30.91,75.37
104983,2018-06-29 09:39:32.718750,-41.41,75.37
104984,2018-06-29 09:39:32.750000,-49.92,75.37
104985,2018-06-29 09:39:32.781250,-58.01,75.37
104986,2018-06-29 09:39:32.812500,-69.77,75.37
104987,2018-06-29 09:39:32.843750,-87.22,75.37
104988,2018-06-29 09:39:32.875000,-105.67,75.37
104989,2018-06-29 09:39:32.906250,-118.84,75.37
104990,2018-06-29 09:39:32.937500,-126.57,75.37
104991,2018-06-29 09:39:32.968750,-132.99,75.37
104992,2018-06-29 09:39:33.000000,-139.43,75.37
