,Time,ppg,hr
112000,2018-06-29 09:43:12.000000,-181.93,74.75
112001,2018-06-29 09:43:12.031250,-128.41,74.75
112002,2018-06-29 09:43:12.062500,-82.64,74.75
112003,2018-06-29 09:43:12.093750,-58.56,74.75
112004,2018-06-29 09:43:12.125000,-58.82,74.75
112005,2018-06-29 09:43:12.156250,-71.31,74.75
112006,2018-06-29 09:43:12.187500,-78.65,74.75
112007,2018-06-29 09:43:12.218750,-71.35,74.75
112008,2018-06-29 09:43:12.250000,-51.61,74.75
112009,2018-06-29 09:43:12.281250,-29.19,74.75
112010,2018-06-29 09:43:12.312500,-12.78,74.75
112011,2018-06-29 09:43:12.343750,-4.49,74.75
112012,2018-06-29 09:43:12.375000,-2.25,74.75
112013,2018-06-29 09:43:12.406250,-3.13,74.75
112014,2018-06-29 09:43:12.437500,-3.36,74.75
112015,2018-06-29 09:43:12.468750,0.09,74.75
112016,2018-06-29 09:43:12.500000,6.21,74.75
112017,2018-06-29 09:43:12.531250,10.45,74.87
112018,2018-06-29 09:43:12.562500,9.06,74.87
112019,2018-06-29 09:43:12.593750,2.52,74.87
112020,2018-06-29 09:43:12.625000,-4.84,74.87
112021,2018-06-29 09:43:12.656250,-9.39,74.87
112022,2018-06-29 09:43:12.687500,-12.42,74.87
112023,2018-06-29 09:43:12.718750,-17.37,74.87
112024,2018-06-29 09:43:12.750000,-24.61,74.87
112025,2018-06-29 09:43:12.781250,-32.6,74.87
112026,2018-06-29 09:43:12.812500,-42.11,74.87
112027,2018-06-29 09:43:12.843750,-55.87,74.87
112028,2018-06-29 09:43:12.875000,-73.75,74.87
112029,2018-06-29 09:43:12.906250,-87.74,74.87
112030,2018-06-29 09:43:12.937500,-85.73,74.87
112031,2018-06-29 09:43:12.968750,-63.82,74.87
112032,2018-06-29 09:43:13.000000,-31.82,74.87
112033,2018-06-29 09:43:13.031250,-2.23,74.87
112034,2018-06-29 09:43:13.062500,20.24,74.87
112035,2018-06-29 09:43:13.093750,35.99,74.87
112036,2018-06-29 09:43:13.125000,45.52,74.87
112037,2018-06-29 09:43:13.156250,50.18,74.87
112038,2018-06-29 09:43:13.187500,52.07,74.87
112039,2018-06-29 09:43:13.218750,52.38,74.87
112040,2018-06-29 09:43:13.250000,51.68,74.87
112041,2018-06-29 09:43:13.281250,51.15,74.87
112042,2018-06-29 09:43:13.312500,51.69,74.87
112043,2018-06-29 09:43:13.343750,52.83,74.87
112044,2018-06-29 09:43:13.375000,52.86,74.87
112045,2018-06-29 09:43:13.406250,49.78,74.87
112046,2018-06-29 09:43:13.437500,43.07,74.87
112047,2018-06-29 09:43:13.468750,35.0,74.87
112048,2018-06-29 09:43:13.500000,28.26,74.87
112049,2018-06-29 09:43:13.531250,22.58,75.07
112050,2018-06-29 09:43:13.562500,15.81,75.07
112051,2018-06-29 09:43:13.593750,7.94,75.07
112052,2018-06-29 09:43:13.625000,0.83,75.07
112053,2018-06-29 09:43:13.656250,-5.41,75.07
112054,2018-06-29 09:43:13.687500,-12.8,75.07
112055,2018-06-29 09:43:13.718750,-22.6,75.07
112056,2018-06-29 09:43:13.750000,-33.82,75.07
112057,2018-06-29 09:43:13.781250,-44.3,75.07
112058,2018-06-29 09:43:13.812500,-53.12,75.07
112059,2018-06-29 09:43:13.843750,-62.0,75.07
112060,2018-06-29 09:43:13.875000,-74.45,75.07
112061,2018-06-29 09:43:13.906250,-90.27,75.07
112062,2018-06-29 09:43:13.937500,-101.19,75.07
112063,2018-06-29 09:43:13.968750,-96.11,75.07
112064,2018-06-29 09:43:14.000000,-73.38,75.07
112065,2018-06-29 09:43:14.031250,-43.31,75.07
112066,2018-06-29 09:43:14.062500,-16.88,75.07
112067,2018-06-29 09:43:14.093750,3.11,75.07
112068,2018-06-29 09:43:14.125000,18.46,75.07
112069,2018-06-29 09:43:14.156250,29.82,75.07
112070,2018-06-29 09:43:14.187500,37.1,75.07
112071,2018-06-29 09:43:14.218750,41.69,75.07
112072,2018-06-29 09:43:14.250000,45.56,75.07
112073,2018-06-29 09:43:14.281250,49.39,75.07
112074,2018-06-29 09:43:14.312500,52.84,75.07
112075,2018-06-29 09:43:14.343750,55.76,75.07
112076,2018-06-29 09:43:14.375000,57.46,75.07
112077,2018-06-29 09:43:14.406250,56.25,75.07
112078,2018-06-29 09:43:14.437500,51.22,75.07
112079,2018-06-29 09:43:14.468750,43.6,75.07
112080,2018-06-29 09:43:14.500000,35.45,75.07
112081,2018-06-29 09:43:14.531250,27.78,75.27
112082,2018-06-29 09:43:14.562500,20.96,75.27
112083,2018-06-29 09:43:14.593750,15.05,75.27
112084,2018-06-29 09:43:14.625000,9.22,75.27
112085,2018-06-29 09:43:14.656250,1.54,75.27
112086,2018-06-29 09:43:14.687500,-8.96,75.27
112087,2018-06-29 09:43:14.718750,-20.85,75.27
112088,2018-06-29 09:43:14.750000,-32.1,75.27
112089,2018-06-29 09:43:14.781250,-42.93,75.27
112090,2018-06-29 09:43:14.812500,-55.75,75.27
112091,2018-06-29 09:43:14.843750,-71.7,75.27
112092,2018-06-29 09:43:14.875000,-86.08,75.27
112093,2018-06-29 09:43:14.906250,-88.05,75.27
112094,2018-06-29 09:43:14.937500,-69.71,75.27
112095,2018-06-29 09:43:14.968750,-36.54,75.27
112096,2018-06-29 09:43:15.000000,-3.16,75.27
112097,2018-06-29 09:43:15.031250,20.75,75.27
112098,2018-06-29 09:43:15.062500,35.02,75.27
112099,2018-06-29 09:43:15.093750,42.15,75.27
112100,2018-06-29 09:43:15.125000,43.35,75.27
112101,2018-06-29 09:43:15.156250,40.76,75.27
112102,2018-06-29 09:43:15.187500,38.69,75.27
112103,2018-06-29 09:43:15.218750,40.05,75.27
112104,2018-06-29 09:43:15.250000,43.36,75.27
112105,2018-06-29 09:43:15.281250,45.71,75.27
112106,2018-06-29 09:43:15.312500,47.64,75.27
112107,2018-06-29 09:43:15.343750,50.79,75.27
112108,2018-06-29 09:43:15.375000,53.01,75.27
112109,2018-06-29 09:43:15.406250,50.78,75.27
112110,2018-06-29 09:43:15.437500,45.13,75.27
112111,2018-06-29 09:43:15.468750,40.05,75.27
112112,2018-06-29 09:43:15.500000,35.66,75.27
112113,2018-06-29 09:43:15.531250,27.35,75.43
112114,2018-06-29 09:43:15.562500,13.23,75.43
112115,2018-06-29 09:43:15.593750,-0.82,75.43
112116,2018-06-29 09:43:15.625000,-7.93,75.43
112117,2018-06-29 09:43:15.656250,-11.17,75.43
112118,2018-06-29 09:43:15.687500,-20.16,75.43
112119,2018-06-29 09:43:15.718750,-35.47,75.43
112120,2018-06-29 09:43:15.750000,-47.31,75.43
112121,2018-06-29 09:43:15.781250,-51.37,75.43
112122,2018-06-29 09:43:15.812500,-52.57,75.43
112123,2018-06-29 09:43:15.843750,-51.31,75.43
112124,2018-06-29 09:43:15.875000,-39.86,75.43
112125,2018-06-29 09:43:15.906250,-11.19,75.43
112126,2018-06-29 09:43:15.937500,33.86,75.43
112127,2018-06-29 09:43:15.968750,73.93,75.43
112128,2018-06-29 09:43:16.000000,69.66,75.43
112129,2018-06-29 09:43:16.031250,13.36,75.43
112130,2018-06-29 09:43:16.062500,-37.54,75.43
112131,2018-06-29 09:43:16.093750,-24.4,75.43
112132,2018-06-29 09:43:16.125000,36.03,75.43
112133,2018-06-29 09:43:16.156250,85.45,75.43
112134,2018-06-29 09:43:16.187500,99.35,75.43
112135,2018-06-29 09:43:16.218750,85.53,75.43
112136,2018-06-29 09:43:16.250000,50.93,75.43
112137,2018-06-29 09:43:16.281250,8.07,75.43
112138,2018-06-29 09:43:16.312500,-21.4,75.43
112139,2018-06-29 09:43:16.343750,-32.31,75.43
112140,2018-06-29 09:43:16.375000,-39.18,75.43
112141,2018-06-29 09:43:16.406250,-49.26,75.43
112142,2018-06-29 09:43:16.437500,-54.07,75.43
112143,2018-06-29 09:43:16.468750,-46.88,75.43
112144,2018-06-29 09:43:16.500000,-31.82,75.43
112145,2018-06-29 09:43:16.531250,-15.71,75.58
112146,2018-06-29 09:43:16.562500,-1.63,75.58
112147,2018-06-29 09:43:16.593750,8.08,75.58
112148,2018-06-29 09:43:16.625000,8.67,75.58
112149,2018-06-29 09:43:16.656250,-4.35,75.58
112150,2018-06-29 09:43:16.687500,-28.36,75.58
112151,2018-06-29 09:43:16.718750,-49.2,75.58
112152,2018-06-29 09:43:16.750000,-49.99,75.58
112153,2018-06-29 09:43:16.781250,-27.99,75.58
112154,2018-06-29 09:43:16.812500,3.0,75.58
112155,2018-06-29 09:43:16.843750,28.27,75.58
112156,2018-06-29 09:43:16.875000,44.17,75.58
112157,2018-06-29 09:43:16.906250,54.88,75.58
112158,2018-06-29 09:43:16.937500,64.4,75.58
112159,2018-06-29 09:43:16.968750,72.92,75.58
112160,2018-06-29 09:43:17.000000,79.06,75.58
112161,2018-06-29 09:43:17.031250,83.9,75.58
112162,2018-06-29 09:43:17.062500,89.52,75.58
112163,2018-06-29 09:43:17.093750,93.45,75.58
112164,2018-06-29 09:43:17.125000,91.1,75.58
112165,2018-06-29 09:43:17.156250,83.97,75.58
112166,2018-06-29 09:43:17.187500,78.61,75.58
112167,2018-06-29 09:43:17.218750,76.47,75.58
112168,2018-06-29 09:43:17.250000,71.55,75.58
112169,2018-06-29 09:43:17.281250,58.93,75.58
112170,2018-06-29 09:43:17.312500,39.49,75.58
112171,2018-06-29 09:43:17.343750,16.44,75.58
112172,2018-06-29 09:43:17.375000,-8.53,75.58
112173,2018-06-29 09:43:17.406250,-33.94,75.58
112174,2018-06-29 09:43:17.437500,-57.22,75.58
112175,2018-06-29 09:43:17.468750,-76.84,75.58
112176,2018-06-29 09:43:17.500000,-93.71,75.58
112177,2018-06-29 09:43:17.531250,-108.79,75.72
112178,2018-06-29 09:43:17.562500,-121.15,75.72
112179,2018-06-29 09:43:17.593750,-129.57,75.72
112180,2018-06-29 09:43:17.625000,-131.73,75.72
112181,2018-06-29 09:43:17.656250,-119.58,75.72
112182,2018-06-29 09:43:17.687500,-83.0,75.72
112183,2018-06-29 09:43:17.718750,-23.47,75.72
112184,2018-06-29 09:43:17.750000,41.42,75.72
112185,2018-06-29 09:43:17.781250,92.34,75.72
112186,2018-06-29 09:43:17.812500,122.77,75.72
112187,2018-06-29 09:43:17.843750,136.99,75.72
112188,2018-06-29 09:43:17.875000,140.12,75.72
112189,2018-06-29 09:43:17.906250,134.68,75.72
112190,2018-06-29 09:43:17.937500,123.37,75.72
112191,2018-06-29 09:43:17.968750,110.24,75.72
112192,2018-06-29 09:43:18.000000,99.07,75.72
112193,2018-06-29 09:43:18.031250,91.54,75.72
112194,2018-06-29 09:43:18.062500,86.92,75.72
112195,2018-06-29 09:43:18.093750,82.88,75.72
112196,2018-06-29 09:43:18.125000,78.71,75.72
112197,2018-06-29 09:43:18.156250,77.45,75.72
112198,2018-06-29 09:43:18.187500,81.61,75.72
112199,2018-06-29 09:43:18.218750,87.56,75.72
112200,2018-06-29 09:43:18.250000,89.11,75.72
112201,2018-06-29 09:43:18.281250,87.33,75.72
112202,2018-06-29 09:43:18.312500,90.04,75.72
112203,2018-06-29 09:43:18.343750,98.69,75.72
112204,2018-06-29 09:43:18.375000,102.64,75.72
112205,2018-06-29 09:43:18.406250,90.14,75.72
112206,2018-06-29 09:43:18.437500,62.41,75.72
112207,2018-06-29 09:43:18.468750,33.35,75.72
112208,2018-06-29 09:43:18.500000,15.46,75.72
112209,2018-06-29 09:43:18.531250,4.68,75.9
112210,2018-06-29 09:43:18.562500,-16.67,75.9
112211,2018-06-29 09:43:18.593750,-57.44,75.9
112212,2018-06-29 09:43:18.625000,-106.89,75.9
112213,2018-06-29 09:43:18.656250,-155.12,75.9
112214,2018-06-29 09:43:18.687500,-211.86,75.9
112215,2018-06-29 09:43:18.718750,-286.0,75.9
112216,2018-06-29 09:43:18.750000,-353.59,75.9
112217,2018-06-29 09:43:18.781250,-376.1,75.9
112218,2018-06-29 09:43:18.812500,-344.69,75.9
112219,2018-06-29 09:43:18.843750,-281.7,75.9
112220,2018-06-29 09:43:18.875000,-210.81,75.9
112221,2018-06-29 09:43:18.906250,-150.19,75.9
112222,2018-06-29 09:43:18.937500,-115.29,75.9
112223,2018-06-29 09:43:18.968750,-105.16,75.9
112224,2018-06-29 09:43:19.000000,-103.33,75.9
112225,2018-06-29 09:43:19.031250,-101.35,75.9
112226,2018-06-29 09:43:19.062500,-104.51,75.9
112227,2018-06-29 09:43:19.093750,-115.67,75.9
112228,2018-06-29 09:43:19.125000,-127.86,75.9
112229,2018-06-29 09:43:19.156250,-133.45,75.9
112230,2018-06-29 09:43:19.187500,-131.97,75.9
112231,2018-06-29 09:43:19.218750,-127.67,75.9
112232,2018-06-29 09:43:19.250000,-122.38,75.9
112233,2018-06-29 09:43:19.281250,-109.55,75.9
112234,2018-06-29 09:43:19.312500,-77.91,75.9
112235,2018-06-29 09:43:19.343750,-27.25,75.9
112236,2018-06-29 09:43:19.375000,24.01,75.9
112237,2018-06-29 09:43:19.406250,56.08,75.9
112238,2018-06-29 09:43:19.437500,67.61,75.9
112239,2018-06-29 09:43:19.468750,70.02,75.9
112240,2018-06-29 09:43:19.500000,69.35,75.9
112241,2018-06-29 09:43:19.531250,64.23,76.23
112242,2018-06-29 09:43:19.562500,56.79,76.23
112243,2018-06-29 09:43:19.593750,53.9,76.23
112244,2018-06-29 09:43:19.625000,58.84,76.23
112245,2018-06-29 09:43:19.656250,68.06,76.23
112246,2018-06-29 09:43:19.687500,76.28,76.23
112247,2018-06-29 09:43:19.718750,81.58,76.23
112248,2018-06-29 09:43:19.750000,83.79,76.23
112249,2018-06-29 09:43:19.781250,80.96,76.23
112250,2018-06-29 09:43:19.812500,71.11,76.23
112251,2018-06-29 09:43:19.843750,55.97,76.23
112252,2018-06-29 09:43:19.875000,39.05,76.23
112253,2018-06-29 09:43:19.906250,21.44,76.23
112254,2018-06-29 09:43:19.937500,1.72,76.23
112255,2018-06-29 09:43:19.968750,-21.1,76.23
112256,2018-06-29 09:43:20.000000,-45.78,76.23
112257,2018-06-29 09:43:20.031250,-66.02,76.23
112258,2018-06-29 09:43:20.062500,-70.11,76.23
112259,2018-06-29 09:43:20.093750,-50.02,76.23
112260,2018-06-29 09:43:20.125000,-12.38,76.23
112261,2018-06-29 09:43:20.156250,26.73,76.23
112262,2018-06-29 09:43:20.187500,57.94,76.23
112263,2018-06-29 09:43:20.218750,83.19,76.23
112264,2018-06-29 09:43:20.250000,105.98,76.23
112265,2018-06-29 09:43:20.281250,125.3,76.23
112266,2018-06-29 09:43:20.312500,138.51,76.23
112267,2018-06-29 09:43:20.343750,144.86,76.23
112268,2018-06-29 09:43:20.375000,145.89,76.23
112269,2018-06-29 09:43:20.406250,144.01,76.23
112270,2018-06-29 09:43:20.437500,140.84,76.23
112271,2018-06-29 09:43:20.468750,136.11,76.23
112272,2018-06-29 09:43:20.500000,128.0,76.23
112273,2018-06-29 09:43:20.531250,115.11,76.53
112274,2018-06-29 09:43:20.562500,97.76,76.53
112275,2018-06-29 09:43:20.593750,77.48,76.53
112276,2018-06-29 09:43:20.625000,54.92,76.53
112277,2018-06-29 09:43:20.656250,29.38,76.53
112278,2018-06-29 09:43:20.687500,1.37,76.53
112279,2018-06-29 09:43:20.718750,-26.04,76.53
112280,2018-06-29 09:43:20.750000,-50.42,76.53
112281,2018-06-29 09:43:20.781250,-73.18,76.53
112282,2018-06-29 09:43:20.812500,-96.43,76.53
112283,2018-06-29 09:43:20.843750,-115.72,76.53
112284,2018-06-29 09:43:20.875000,-118.28,76.53
112285,2018-06-29 09:43:20.906250,-94.33,76.53
112286,2018-06-29 09:43:20.937500,-50.54,76.53
112287,2018-06-29 09:43:20.968750,-4.9,76.53
112288,2018-06-29 09:43:21.000000,31.77,76.53
112289,2018-06-29 09:43:21.031250,60.65,76.53
112290,2018-06-29 09:43:21.062500,84.39,76.53
112291,2018-06-29 09:43:21.093750,101.93,76.53
112292,2018-06-29 09:43:21.125000,112.19,76.53
112293,2018-06-29 09:43:21.156250,115.64,76.53
112294,2018-06-29 09:43:21.187500,113.3,76.53
112295,2018-06-29 09:43:21.218750,107.32,76.53
112296,2018-06-29 09:43:21.250000,101.13,76.53
112297,2018-06-29 09:43:21.281250,96.22,76.53
112298,2018-06-29 09:43:21.312500,90.13,76.53
112299,2018-06-29 09:43:21.343750,79.01,76.53
112300,2018-06-29 09:43:21.375000,62.7,76.53
112301,2018-06-29 09:43:21.406250,45.34,76.53
112302,2018-06-29 09:43:21.437500,30.81,76.53
112303,2018-06-29 09:43:21.468750,19.49,76.53
112304,2018-06-29 09:43:21.500000,9.21,76.53
112305,2018-06-29 09:43:21.531250,-2.23,76.85
112306,2018-06-29 09:43:21.562500,-15.13,76.85
112307,2018-06-29 09:43:21.593750,-28.22,76.85
112308,2018-06-29 09:43:21.625000,-41.52,76.85
112309,2018-06-29 09:43:21.656250,-55.65,76.85
112310,2018-06-29 09:43:21.687500,-68.08,76.85
112311,2018-06-29 09:43:21.718750,-75.2,76.85
112312,2018-06-29 09:43:21.750000,-78.54,76.85
112313,2018-06-29 09:43:21.781250,-82.66,76.85
112314,2018-06-29 09:43:21.812500,-88.44,76.85
112315,2018-06-29 09:43:21.843750,-93.54,76.85
112316,2018-06-29 09:43:21.875000,-97.38,76.85
112317,2018-06-29 09:43:21.906250,-102.23,76.85
112318,2018-06-29 09:43:21.937500,-111.12,76.85
112319,2018-06-29 09:43:21.968750,-123.91,76.85
112320,2018-06-29 09:43:22.000000,-132.14,76.85
112321,2018-06-29 09:43:22.031250,-122.02,76.85
112322,2018-06-29 09:43:22.062500,-89.24,76.85
112323,2018-06-29 09:43:22.093750,-45.8,76.85
112324,2018-06-29 09:43:22.125000,-6.97,76.85
112325,2018-06-29 09:43:22.156250,22.56,76.85
112326,2018-06-29 09:43:22.187500,46.1,76.85
112327,2018-06-29 09:43:22.218750,66.15,76.85
112328,2018-06-29 09:43:22.250000,82.2,76.85
112329,2018-06-29 09:43:22.281250,92.84,76.85
112330,2018-06-29 09:43:22.312500,97.72,76.85
112331,2018-06-29 09:43:22.343750,98.02,76.85
112332,2018-06-29 09:43:22.375000,96.1,76.85
112333,2018-06-29 09:43:22.406250,94.25,76.85
112334,2018-06-29 09:43:22.437500,92.76,76.85
112335,2018-06-29 09:43:22.468750,89.17,76.85
112336,2018-06-29 09:43:22.500000,80.47,76.85
112337,2018-06-29 09:43:22.531250,66.65,77.07
112338,2018-06-29 09:43:22.562500,50.52,77.07
112339,2018-06-29 09:43:22.593750,33.85,77.07
112340,2018-06-29 09:43:22.625000,16.07,77.07
112341,2018-06-29 09:43:22.656250,-2.34,77.07
112342,2018-06-29 09:43:22.687500,-18.78,77.07
112343,2018-06-29 09:43:22.718750,-31.93,77.07
112344,2018-06-29 09:43:22.750000,-42.57,77.07
112345,2018-06-29 09:43:22.781250,-50.97,77.07
112346,2018-06-29 09:43:22.812500,-56.68,77.07
112347,2018-06-29 09:43:22.843750,-60.56,77.07
112348,2018-06-29 09:43:22.875000,-65.35,77.07
112349,2018-06-29 09:43:22.906250,-73.52,77.07
112350,2018-06-29 09:43:22.937500,-83.53,77.07
112351,2018-06-29 09:43:22.968750,-87.51,77.07
112352,2018-06-29 09:43:23.000000,-76.5,77.07
112353,2018-06-29 09:43:23.031250,-50.5,77.07
112354,2018-06-29 09:43:23.062500,-19.87,77.07
112355,2018-06-29 09:43:23.093750,4.79,77.07
112356,2018-06-29 09:43:23.125000,20.82,77.07
112357,2018-06-29 09:43:23.156250,31.27,77.07
112358,2018-06-29 09:43:23.187500,38.8,77.07
112359,2018-06-29 09:43:23.218750,43.74,77.07
112360,2018-06-29 09:43:23.250000,45.89,77.07
112361,2018-06-29 09:43:23.281250,46.07,77.07
112362,2018-06-29 09:43:23.312500,45.96,77.07
112363,2018-06-29 09:43:23.343750,46.89,77.07
112364,2018-06-29 09:43:23.375000,48.94,77.07
112365,2018-06-29 09:43:23.406250,50.59,77.07
112366,2018-06-29 09:43:23.437500,49.21,77.07
112367,2018-06-29 09:43:23.468750,43.86,77.07
112368,2018-06-29 09:43:23.500000,37.12,77.07
112369,2018-06-29 09:43:23.531250,32.19,77.27
112370,2018-06-29 09:43:23.562500,29.12,77.27
112371,2018-06-29 09:43:23.593750,25.55,77.27
112372,2018-06-29 09:43:23.625000,20.58,77.27
112373,2018-06-29 09:43:23.656250,14.95,77.27
112374,2018-06-29 09:43:23.687500,8.21,77.27
112375,2018-06-29 09:43:23.718750,-1.92,77.27
112376,2018-06-29 09:43:23.750000,-16.55,77.27
112377,2018-06-29 09:43:23.781250,-33.43,77.27
112378,2018-06-29 09:43:23.812500,-48.58,77.27
112379,2018-06-29 09:43:23.843750,-59.92,77.27
112380,2018-06-29 09:43:23.875000,-68.68,77.27
112381,2018-06-29 09:43:23.906250,-77.66,77.27
112382,2018-06-29 09:43:23.937500,-86.82,77.27
112383,2018-06-29 09:43:23.968750,-90.89,77.27
112384,2018-06-29 09:43:24.000000,-83.56,77.27
112385,2018-06-29 09:43:24.031250,-65.38,77.27
112386,2018-06-29 09:43:24.062500,-44.19,77.27
112387,2018-06-29 09:43:24.093750,-26.82,77.27
112388,2018-06-29 09:43:24.125000,-13.79,77.27
112389,2018-06-29 09:43:24.156250,-2.34,77.27
112390,2018-06-29 09:43:24.187500,9.14,77.27
112391,2018-06-29 09:43:24.218750,20.13,77.27
112392,2018-06-29 09:43:24.250000,28.85,77.27
112393,2018-06-29 09:43:24.281250,33.79,77.27
112394,2018-06-29 09:43:24.312500,35.37,77.27
112395,2018-06-29 09:43:24.343750,35.57,77.27
112396,2018-06-29 09:43:24.375000,35.55,77.27
112397,2018-06-29 09:43:24.406250,34.64,77.27
112398,2018-06-29 09:43:24.437500,31.55,77.27
112399,2018-06-29 09:43:24.468750,25.92,77.27
112400,2018-06-29 09:43:24.500000,18.99,77.27
112401,2018-06-29 09:43:24.531250,12.72,77.53
112402,2018-06-29 09:43:24.562500,7.88,77.53
112403,2018-06-29 09:43:24.593750,3.54,77.53
112404,2018-06-29 09:43:24.625000,-0.7,77.53
112405,2018-06-29 09:43:24.656250,-4.04,77.53
112406,2018-06-29 09:43:24.687500,-6.85,77.53
112407,2018-06-29 09:43:24.718750,-11.16,77.53
112408,2018-06-29 09:43:24.750000,-17.73,77.53
112409,2018-06-29 09:43:24.781250,-25.29,77.53
112410,2018-06-29 09:43:24.812500,-32.59,77.53
112411,2018-06-29 09:43:24.843750,-39.43,77.53
112412,2018-06-29 09:43:24.875000,-46.18,77.53
112413,2018-06-29 09:43:24.906250,-52.34,77.53
112414,2018-06-29 09:43:24.937500,-54.24,77.53
112415,2018-06-29 09:43:24.968750,-46.84,77.53
112416,2018-06-29 09:43:25.000000,-30.72,77.53
112417,2018-06-29 09:43:25.031250,-13.34,77.53
112418,2018-06-29 09:43:25.062500,-1.0,77.53
112419,2018-06-29 09:43:25.093750,6.73,77.53
112420,2018-06-29 09:43:25.125000,12.95,77.53
112421,2018-06-29 09:43:25.156250,18.58,77.53
112422,2018-06-29 09:43:25.187500,22.68,77.53
112423,2018-06-29 09:43:25.218750,24.46,77.53
112424,2018-06-29 09:43:25.250000,24.03,77.53
112425,2018-06-29 09:43:25.281250,22.61,77.53
112426,2018-06-29 09:43:25.312500,22.26,77.53
112427,2018-06-29 09:43:25.343750,23.99,77.53
112428,2018-06-29 09:43:25.375000,26.57,77.53
112429,2018-06-29 09:43:25.406250,27.42,77.53
112430,2018-06-29 09:43:25.437500,24.93,77.53
112431,2018-06-29 09:43:25.468750,19.62,77.53
112432,2018-06-29 09:43:25.500000,12.98,77.53
112433,2018-06-29 09:43:25.531250,5.38,77.78
112434,2018-06-29 09:43:25.562500,-3.75,77.78
112435,2018-06-29 09:43:25.593750,-14.06,77.78
112436,2018-06-29 09:43:25.625000,-24.42,77.78
112437,2018-06-29 09:43:25.656250,-33.76,77.78
112438,2018-06-29 09:43:25.687500,-41.05,77.78
112439,2018-06-29 09:43:25.718750,-45.16,77.78
112440,2018-06-29 09:43:25.750000,-46.16,77.78
112441,2018-06-29 09:43:25.781250,-46.06,77.78
112442,2018-06-29 09:43:25.812500,-47.26,77.78
112443,2018-06-29 09:43:25.843750,-49.88,77.78
112444,2018-06-29 09:43:25.875000,-49.93,77.78
112445,2018-06-29 09:43:25.906250,-42.02,77.78
112446,2018-06-29 09:43:25.937500,-26.19,77.78
112447,2018-06-29 09:43:25.968750,-9.55,77.78
112448,2018-06-29 09:43:26.000000,1.82,77.78
112449,2018-06-29 09:43:26.031250,8.92,77.78
112450,2018-06-29 09:43:26.062500,15.07,77.78
112451,2018-06-29 09:43:26.093750,20.5,77.78
112452,2018-06-29 09:43:26.125000,24.15,77.78
112453,2018-06-29 09:43:26.156250,26.14,77.78
112454,2018-06-29 09:43:26.187500,26.51,77.78
112455,2018-06-29 09:43:26.218750,25.29,77.78
112456,2018-06-29 09:43:26.250000,23.84,77.78
112457,2018-06-29 09:43:26.281250,23.39,77.78
112458,2018-06-29 09:43:26.312500,23.27,77.78
112459,2018-06-29 09:43:26.343750,21.66,77.78
112460,2018-06-29 09:43:26.375000,17.83,77.78
112461,2018-06-29 09:43:26.406250,12.68,77.78
112462,2018-06-29 09:43:26.437500,7.94,77.78
112463,2018-06-29 09:43:26.468750,4.2,77.78
112464,2018-06-29 09:43:26.500000,0.65,77.78
112465,2018-06-29 09:43:26.531250,-2.95,78.03
112466,2018-06-29 09:43:26.562500,-5.95,78.03
112467,2018-06-29 09:43:26.593750,-8.44,78.03
112468,2018-06-29 09:43:26.625000,-11.36,78.03
112469,2018-06-29 09:43:26.656250,-14.62,78.03
112470,2018-06-29 09:43:26.687500,-17.11,78.03
112471,2018-06-29 09:43:26.718750,-19.22,78.03
112472,2018-06-29 09:43:26.750000,-22.79,78.03
112473,2018-06-29 09:43:26.781250,-28.63,78.03
112474,2018-06-29 09:43:26.812500,-34.59,78.03
112475,2018-06-29 09:43:26.843750,-35.75,78.03
112476,2018-06-29 09:43:26.875000,-27.51,78.03
112477,2018-06-29 09:43:26.906250,-11.12,78.03
112478,2018-06-29 09:43:26.937500,5.82,78.03
112479,2018-06-29 09:43:26.968750,16.89,78.03
112480,2018-06-29 09:43:27.000000,21.97,78.03
112481,2018-06-29 09:43:27.031250,23.71,78.03
112482,2018-06-29 09:43:27.062500,23.13,78.03
112483,2018-06-29 09:43:27.093750,21.05,78.03
112484,2018-06-29 09:43:27.125000,19.4,78.03
112485,2018-06-29 09:43:27.156250,19.02,78.03
112486,2018-06-29 09:43:27.187500,19.41,78.03
112487,2018-06-29 09:43:27.218750,21.09,78.03
112488,2018-06-29 09:43:27.250000,24.8,78.03
112489,2018-06-29 09:43:27.281250,28.86,78.03
112490,2018-06-29 09:43:27.312500,30.14,78.03
112491,2018-06-29 09:43:27.343750,27.72,78.03
112492,2018-06-29 09:43:27.375000,23.28,78.03
112493,2018-06-29 09:43:27.406250,18.49,78.03
112494,2018-06-29 09:43:27.437500,13.06,78.03
112495,2018-06-29 09:43:27.468750,5.7,78.03
112496,2018-06-29 09:43:27.500000,-3.59,78.03
112497,2018-06-29 09:43:27.531250,-13.79,78.32
112498,2018-06-29 09:43:27.562500,-25.04,78.32
112499,2018-06-29 09:43:27.593750,-37.63,78.32
112500,2018-06-29 09:43:27.625000,-49.55,78.32
112501,2018-06-29 09:43:27.656250,-58.03,78.32
112502,2018-06-29 09:43:27.687500,-63.05,78.32
112503,2018-06-29 09:43:27.718750,-67.26,78.32
112504,2018-06-29 09:43:27.750000,-72.6,78.32
112505,2018-06-29 09:43:27.781250,-77.82,78.32
112506,2018-06-29 09:43:27.812500,-77.73,78.32
112507,2018-06-29 09:43:27.843750,-67.09,78.32
112508,2018-06-29 09:43:27.875000,-47.62,78.32
112509,2018-06-29 09:43:27.906250,-27.52,78.32
112510,2018-06-29 09:43:27.937500,-12.37,78.32
112511,2018-06-29 09:43:27.968750,-1.2,78.32
112512,2018-06-29 09:43:28.000000,7.99,78.32
112513,2018-06-29 09:43:28.031250,14.97,78.32
112514,2018-06-29 09:43:28.062500,19.61,78.32
112515,2018-06-29 09:43:28.093750,23.08,78.32
112516,2018-06-29 09:43:28.125000,26.34,78.32
112517,2018-06-29 09:43:28.156250,29.3,78.32
112518,2018-06-29 09:43:28.187500,31.86,78.32
112519,2018-06-29 09:43:28.218750,34.06,78.32
112520,2018-06-29 09:43:28.250000,34.67,78.32
112521,2018-06-29 09:43:28.281250,32.05,78.32
112522,2018-06-29 09:43:28.312500,27.13,78.32
112523,2018-06-29 09:43:28.343750,23.1,78.32
112524,2018-06-29 09:43:28.375000,21.03,78.32
112525,2018-06-29 09:43:28.406250,18.72,78.32
112526,2018-06-29 09:43:28.437500,14.18,78.32
112527,2018-06-29 09:43:28.468750,7.91,78.32
112528,2018-06-29 09:43:28.500000,1.02,78.32
112529,2018-06-29 09:43:28.531250,-6.83,78.58
112530,2018-06-29 09:43:28.562500,-16.37,78.58
112531,2018-06-29 09:43:28.593750,-26.88,78.58
112532,2018-06-29 09:43:28.625000,-36.77,78.58
112533,2018-06-29 09:43:28.656250,-45.66,78.58
112534,2018-06-29 09:43:28.687500,-54.61,78.58
112535,2018-06-29 09:43:28.718750,-64.2,78.58
112536,2018-06-29 09:43:28.750000,-72.25,78.58
112537,2018-06-29 09:43:28.781250,-73.15,78.58
112538,2018-06-29 09:43:28.812500,-62.16,78.58
112539,2018-06-29 09:43:28.843750,-41.74,78.58
112540,2018-06-29 09:43:28.875000,-20.13,78.58
112541,2018-06-29 09:43:28.906250,-2.9,78.58
112542,2018-06-29 09:43:28.937500,9.89,78.58
112543,2018-06-29 09:43:28.968750,19.1,78.58
112544,2018-06-29 09:43:29.000000,24.2,78.58
112545,2018-06-29 09:43:29.031250,25.77,78.58
112546,2018-06-29 09:43:29.062500,26.09,78.58
112547,2018-06-29 09:43:29.093750,26.78,78.58
112548,2018-06-29 09:43:29.125000,27.73,78.58
112549,2018-06-29 09:43:29.156250,28.72,78.58
112550,2018-06-29 09:43:29.187500,30.21,78.58
112551,2018-06-29 09:43:29.218750,31.67,78.58
112552,2018-06-29 09:43:29.250000,31.53,78.58
112553,2018-06-29 09:43:29.281250,29.26,78.58
112554,2018-06-29 09:43:29.312500,25.46,78.58
112555,2018-06-29 09:43:29.343750,20.29,78.58
112556,2018-06-29 09:43:29.375000,13.23,78.58
112557,2018-06-29 09:43:29.406250,5.01,78.58
112558,2018-06-29 09:43:29.437500,-2.06,78.58
112559,2018-06-29 09:43:29.468750,-6.89,78.58
112560,2018-06-29 09:43:29.500000,-11.17,78.58
112561,2018-06-29 09:43:29.531250,-16.93,78.8
112562,2018-06-29 09:43:29.562500,-23.61,78.8
112563,2018-06-29 09:43:29.593750,-29.68,78.8
112564,2018-06-29 09:43:29.625000,-35.26,78.8
112565,2018-06-29 09:43:29.656250,-42.24,78.8
112566,2018-06-29 09:43:29.687500,-51.35,78.8
112567,2018-06-29 09:43:29.718750,-58.42,78.8
112568,2018-06-29 09:43:29.750000,-55.79,78.8
112569,2018-06-29 09:43:29.781250,-40.23,78.8
112570,2018-06-29 09:43:29.812500,-17.94,78.8
112571,2018-06-29 09:43:29.843750,1.21,78.8
112572,2018-06-29 09:43:29.875000,13.12,78.8
112573,2018-06-29 09:43:29.906250,19.91,78.8
112574,2018-06-29 09:43:29.937500,23.71,78.8
112575,2018-06-29 09:43:29.968750,24.38,78.8
112576,2018-06-29 09:43:30.000000,22.41,78.8
112577,2018-06-29 09:43:30.031250,20.01,78.8
112578,2018-06-29 09:43:30.062500,18.6,78.8
112579,2018-06-29 09:43:30.093750,17.73,78.8
112580,2018-06-29 09:43:30.125000,16.24,78.8
112581,2018-06-29 09:43:30.156250,13.03,78.8
112582,2018-06-29 09:43:30.187500,7.29,78.8
112583,2018-06-29 09:43:30.218750,-0.89,78.8
112584,2018-06-29 09:43:30.250000,-10.65,78.8
112585,2018-06-29 09:43:30.281250,-21.04,78.8
112586,2018-06-29 09:43:30.312500,-30.0,78.8
112587,2018-06-29 09:43:30.343750,-35.29,78.8
112588,2018-06-29 09:43:30.375000,-37.65,78.8
112589,2018-06-29 09:43:30.406250,-40.03,78.8
112590,2018-06-29 09:43:30.437500,-43.32,78.8
112591,2018-06-29 09:43:30.468750,-46.17,78.8
112592,2018-06-29 09:43:30.500000,-48.44,78.8
112593,2018-06-29 09:43:30.531250,-51.86,79.18
112594,2018-06-29 09:43:30.562500,-58.5,79.18
112595,2018-06-29 09:43:30.593750,-69.56,79.18
112596,2018-06-29 09:43:30.625000,-81.46,79.18
112597,2018-06-29 09:43:30.656250,-84.38,79.18
112598,2018-06-29 09:43:30.687500,-70.45,79.18
112599,2018-06-29 09:43:30.718750,-43.43,79.18
112600,2018-06-29 09:43:30.750000,-14.64,79.18
112601,2018-06-29 09:43:30.781250,9.05,79.18
112602,2018-06-29 09:43:30.812500,28.12,79.18
112603,2018-06-29 09:43:30.843750,44.26,79.18
112604,2018-06-29 09:43:30.875000,56.9,79.18
112605,2018-06-29 09:43:30.906250,65.46,79.18
112606,2018-06-29 09:43:30.937500,70.47,79.18
112607,2018-06-29 09:43:30.968750,72.82,79.18
112608,2018-06-29 09:43:31.000000,73.65,79.18
112609,2018-06-29 09:43:31.031250,74.44,79.18
112610,2018-06-29 09:43:31.062500,75.65,79.18
112611,2018-06-29 09:43:31.093750,75.57,79.18
112612,2018-06-29 09:43:31.125000,71.55,79.18
112613,2018-06-29 09:43:31.156250,62.39,79.18
112614,2018-06-29 09:43:31.187500,49.89,79.18
112615,2018-06-29 09:43:31.218750,37.42,79.18
112616,2018-06-29 09:43:31.250000,26.56,79.18
112617,2018-06-29 09:43:31.281250,16.32,79.18
112618,2018-06-29 09:43:31.312500,5.55,79.18
112619,2018-06-29 09:43:31.343750,-4.89,79.18
112620,2018-06-29 09:43:31.375000,-13.96,79.18
112621,2018-06-29 09:43:31.406250,-22.81,79.18
112622,2018-06-29 09:43:31.437500,-33.85,79.18
112623,2018-06-29 09:43:31.468750,-47.97,79.18
112624,2018-06-29 09:43:31.500000,-61.76,79.18
112625,2018-06-29 09:43:31.531250,-67.17,79.57
112626,2018-06-29 09:43:31.562500,-56.99,79.57
112627,2018-06-29 09:43:31.593750,-33.04,79.57
112628,2018-06-29 09:43:31.625000,-5.51,79.57
112629,2018-06-29 09:43:31.656250,16.58,79.57
112630,2018-06-29 09:43:31.687500,30.45,79.57
112631,2018-06-29 09:43:31.718750,36.71,79.57
112632,2018-06-29 09:43:31.750000,36.91,79.57
112633,2018-06-29 09:43:31.781250,34.39,79.57
112634,2018-06-29 09:43:31.812500,33.22,79.57
112635,2018-06-29 09:43:31.843750,34.81,79.57
112636,2018-06-29 09:43:31.875000,37.72,79.57
112637,2018-06-29 09:43:31.906250,40.46,79.57
112638,2018-06-29 09:43:31.937500,42.37,79.57
112639,2018-06-29 09:43:31.968750,41.85,79.57
112640,2018-06-29 09:43:32.000000,37.26,79.57
112641,2018-06-29 09:43:32.031250,30.07,79.57
112642,2018-06-29 09:43:32.062500,23.28,79.57
112643,2018-06-29 09:43:32.093750,17.42,79.57
112644,2018-06-29 09:43:32.125000,10.49,79.57
112645,2018-06-29 09:43:32.156250,1.42,79.57
112646,2018-06-29 09:43:32.187500,-8.66,79.57
112647,2018-06-29 09:43:32.218750,-18.63,79.57
112648,2018-06-29 09:43:32.250000,-29.3,79.57
112649,2018-06-29 09:43:32.281250,-42.76,79.57
112650,2018-06-29 09:43:32.312500,-58.93,79.57
112651,2018-06-29 09:43:32.343750,-71.31,79.57
112652,2018-06-29 09:43:32.375000,-68.59,79.57
112653,2018-06-29 09:43:32.406250,-45.57,79.57
112654,2018-06-29 09:43:32.437500,-10.83,79.57
112655,2018-06-29 09:43:32.468750,20.62,79.57
112656,2018-06-29 09:43:32.500000,40.82,79.57
112657,2018-06-29 09:43:32.531250,50.75,79.72
112658,2018-06-29 09:43:32.562500,53.42,79.72
112659,2018-06-29 09:43:32.593750,51.17,79.72
112660,2018-06-29 09:43:32.625000,46.5,79.72
112661,2018-06-29 09:43:32.656250,40.98,79.72
112662,2018-06-29 09:43:32.687500,34.94,79.72
112663,2018-06-29 09:43:32.718750,29.69,79.72
112664,2018-06-29 09:43:32.750000,27.01,79.72
112665,2018-06-29 09:43:32.781250,25.48,79.72
112666,2018-06-29 09:43:32.812500,21.37,79.72
112667,2018-06-29 09:43:32.843750,14.13,79.72
112668,2018-06-29 09:43:32.875000,6.91,79.72
112669,2018-06-29 09:43:32.906250,1.73,79.72
112670,2018-06-29 09:43:32.937500,-2.86,79.72
112671,2018-06-29 09:43:32.968750,-9.37,79.72
112672,2018-06-29 09:43:33.000000,-17.69,79.72
112673,2018-06-29 09:43:33.031250,-25.14,79.72
112674,2018-06-29 09:43:33.062500,-32.15,79.72
112675,2018-06-29 09:43:33.093750,-44.45,79.72
112676,2018-06-29 09:43:33.125000,-63.89,79.72
112677,2018-06-29 09:43:33.156250,-79.17,79.72
112678,2018-06-29 09:43:33.187500,-74.79,79.72
112679,2018-06-29 09:43:33.218750,-48.76,79.72
112680,2018-06-29 09:43:33.250000,-13.72,79.72
112681,2018-06-29 09:43:33.281250,18.66,79.72
112682,2018-06-29 09:43:33.312500,46.23,79.72
112683,2018-06-29 09:43:33.343750,70.08,79.72
112684,2018-06-29 09:43:33.375000,89.93,79.72
112685,2018-06-29 09:43:33.406250,106.93,79.72
112686,2018-06-29 09:43:33.437500,125.72,79.72
112687,2018-06-29 09:43:33.468750,154.31,79.72
112688,2018-06-29 09:43:33.500000,200.43,79.72
112689,2018-06-29 09:43:33.531250,254.68,79.9
112690,2018-06-29 09:43:33.562500,283.08,79.9
112691,2018-06-29 09:43:33.593750,259.49,79.9
112692,2018-06-29 09:43:33.625000,194.68,79.9
112693,2018-06-29 09:43:33.656250,112.94,79.9
112694,2018-06-29 09:43:33.687500,28.89,79.9
112695,2018-06-29 09:43:33.718750,-33.14,79.9
112696,2018-06-29 09:43:33.750000,-42.7,79.9
112697,2018-06-29 09:43:33.781250,-9.64,79.9
112698,2018-06-29 09:43:33.812500,17.25,79.9
112699,2018-06-29 09:43:33.843750,8.96,79.9
112700,2018-06-29 09:43:33.875000,-24.8,79.9
112701,2018-06-29 09:43:33.906250,-70.52,79.9
112702,2018-06-29 09:43:33.937500,-124.35,79.9
112703,2018-06-29 09:43:33.968750,-175.55,79.9
112704,2018-06-29 09:43:34.000000,-208.79,79.9
112705,2018-06-29 09:43:34.031250,-221.66,79.9
112706,2018-06-29 09:43:34.062500,-220.67,79.9
112707,2018-06-29 09:43:34.093750,-205.23,79.9
112708,2018-06-29 09:43:34.125000,-170.09,79.9
112709,2018-06-29 09:43:34.156250,-120.08,79.9
112710,2018-06-29 09:43:34.187500,-70.14,79.9
112711,2018-06-29 09:43:34.218750,-30.29,79.9
112712,2018-06-29 09:43:34.250000,1.32,79.9
112713,2018-06-29 09:43:34.281250,29.44,79.9
112714,2018-06-29 09:43:34.312500,53.73,79.9
112715,2018-06-29 09:43:34.343750,72.13,79.9
112716,2018-06-29 09:43:34.375000,85.87,79.9
112717,2018-06-29 09:43:34.406250,97.61,79.9
112718,2018-06-29 09:43:34.437500,107.79,79.9
112719,2018-06-29 09:43:34.468750,113.89,79.9
112720,2018-06-29 09:43:34.500000,112.17,79.9
112721,2018-06-29 09:43:34.531250,100.53,80.07
112722,2018-06-29 09:43:34.562500,79.45,80.07
112723,2018-06-29 09:43:34.593750,51.4,80.07
112724,2018-06-29 09:43:34.625000,21.5,80.07
112725,2018-06-29 09:43:34.656250,-3.74,80.07
112726,2018-06-29 09:43:34.687500,-22.57,80.07
112727,2018-06-29 09:43:34.718750,-40.32,80.07
112728,2018-06-29 09:43:34.750000,-62.4,80.07
112729,2018-06-29 09:43:34.781250,-87.52,80.07
112730,2018-06-29 09:43:34.812500,-110.7,80.07
112731,2018-06-29 09:43:34.843750,-129.53,80.07
112732,2018-06-29 09:43:34.875000,-144.69,80.07
112733,2018-06-29 09:43:34.906250,-152.94,80.07
112734,2018-06-29 09:43:34.937500,-143.62,80.07
112735,2018-06-29 09:43:34.968750,-108.77,80.07
112736,2018-06-29 09:43:35.000000,-54.44,80.07
112737,2018-06-29 09:43:35.031250,3.55,80.07
112738,2018-06-29 09:43:35.062500,51.93,80.07
112739,2018-06-29 09:43:35.093750,85.31,80.07
112740,2018-06-29 09:43:35.125000,104.71,80.07
112741,2018-06-29 09:43:35.156250,114.74,80.07
112742,2018-06-29 09:43:35.187500,119.79,80.07
112743,2018-06-29 09:43:35.218750,122.17,80.07
112744,2018-06-29 09:43:35.250000,122.42,80.07
112745,2018-06-29 09:43:35.281250,119.72,80.07
112746,2018-06-29 09:43:35.312500,113.54,80.07
112747,2018-06-29 09:43:35.343750,105.01,80.07
112748,2018-06-29 09:43:35.375000,95.62,80.07
112749,2018-06-29 09:43:35.406250,86.28,80.07
112750,2018-06-29 09:43:35.437500,75.36,80.07
112751,2018-06-29 09:43:35.468750,56.43,80.07
112752,2018-06-29 09:43:35.500000,25.71,80.07
112753,2018-06-29 09:43:35.531250,-8.42,79.92
112754,2018-06-29 09:43:35.562500,-32.67,79.92
112755,2018-06-29 09:43:35.593750,-43.98,79.92
112756,2018-06-29 09:43:35.625000,-49.91,79.92
112757,2018-06-29 09:43:35.656250,-57.8,79.92
112758,2018-06-29 09:43:35.687500,-68.94,79.92
112759,2018-06-29 09:43:35.718750,-80.05,79.92
112760,2018-06-29 09:43:35.750000,-88.37,79.92
112761,2018-06-29 09:43:35.781250,-93.49,79.92
112762,2018-06-29 09:43:35.812500,-94.41,79.92
112763,2018-06-29 09:43:35.843750,-90.27,79.92
112764,2018-06-29 09:43:35.875000,-82.81,79.92
112765,2018-06-29 09:43:35.906250,-71.31,79.92
112766,2018-06-29 09:43:35.937500,-50.0,79.92
112767,2018-06-29 09:43:35.968750,-17.93,79.92
112768,2018-06-29 09:43:36.000000,15.21,79.92
112769,2018-06-29 09:43:36.031250,39.94,79.92
112770,2018-06-29 09:43:36.062500,56.0,79.92
112771,2018-06-29 09:43:36.093750,66.57,79.92
112772,2018-06-29 09:43:36.125000,71.24,79.92
112773,2018-06-29 09:43:36.156250,68.6,79.92
112774,2018-06-29 09:43:36.187500,60.54,79.92
112775,2018-06-29 09:43:36.218750,51.08,79.92
112776,2018-06-29 09:43:36.250000,42.58,79.92
112777,2018-06-29 09:43:36.281250,34.74,79.92
112778,2018-06-29 09:43:36.312500,26.64,79.92
112779,2018-06-29 09:43:36.343750,17.51,79.92
112780,2018-06-29 09:43:36.375000,6.8,79.92
112781,2018-06-29 09:43:36.406250,-4.8,79.92
112782,2018-06-29 09:43:36.437500,-14.48,79.92
112783,2018-06-29 09:43:36.468750,-20.38,79.92
112784,2018-06-29 09:43:36.500000,-23.76,79.92
112785,2018-06-29 09:43:36.531250,-26.57,79.8
112786,2018-06-29 09:43:36.562500,-28.89,79.8
112787,2018-06-29 09:43:36.593750,-30.49,79.8
112788,2018-06-29 09:43:36.625000,-32.71,79.8
112789,2018-06-29 09:43:36.656250,-36.23,79.8
112790,2018-06-29 09:43:36.687500,-39.06,79.8
112791,2018-06-29 09:43:36.718750,-38.98,79.8
112792,2018-06-29 09:43:36.750000,-36.68,79.8
112793,2018-06-29 09:43:36.781250,-35.57,79.8
112794,2018-06-29 09:43:36.812500,-38.09,79.8
112795,2018-06-29 09:43:36.843750,-41.62,79.8
112796,2018-06-29 09:43:36.875000,-39.35,79.8
112797,2018-06-29 09:43:36.906250,-27.16,79.8
112798,2018-06-29 09:43:36.937500,-9.06,79.8
112799,2018-06-29 09:43:36.968750,6.09,79.8
112800,2018-06-29 09:43:37.000000,11.51,79.8
112801,2018-06-29 09:43:37.031250,5.64,79.8
112802,2018-06-29 09:43:37.062500,-9.52,79.8
112803,2018-06-29 09:43:37.093750,-31.11,79.8
112804,2018-06-29 09:43:37.125000,-54.86,79.8
112805,2018-06-29 09:43:37.156250,-74.22,79.8
112806,2018-06-29 09:43:37.187500,-85.2,79.8
112807,2018-06-29 09:43:37.218750,-90.38,79.8
112808,2018-06-29 09:43:37.250000,-93.18,79.8
112809,2018-06-29 09:43:37.281250,-93.46,79.8
112810,2018-06-29 09:43:37.312500,-93.64,79.8
112811,2018-06-29 09:43:37.343750,-101.9,79.8
112812,2018-06-29 09:43:37.375000,-122.57,79.8
112813,2018-06-29 09:43:37.406250,-145.08,79.8
112814,2018-06-29 09:43:37.437500,-146.33,79.8
112815,2018-06-29 09:43:37.468750,-108.0,79.8
112816,2018-06-29 09:43:37.500000,-34.72,79.8
112817,2018-06-29 09:43:37.531250,45.53,79.67
112818,2018-06-29 09:43:37.562500,103.61,79.67
112819,2018-06-29 09:43:37.593750,130.66,79.67
112820,2018-06-29 09:43:37.625000,133.89,79.67
112821,2018-06-29 09:43:37.656250,122.58,79.67
112822,2018-06-29 09:43:37.687500,107.63,79.67
112823,2018-06-29 09:43:37.718750,97.61,79.67
112824,2018-06-29 09:43:37.750000,84.64,79.67
112825,2018-06-29 09:43:37.781250,52.47,79.67
112826,2018-06-29 09:43:37.812500,3.56,79.67
112827,2018-06-29 09:43:37.843750,-41.49,79.67
112828,2018-06-29 09:43:37.875000,-67.6,79.67
112829,2018-06-29 09:43:37.906250,-68.98,79.67
112830,2018-06-29 09:43:37.937500,-38.96,79.67
112831,2018-06-29 09:43:37.968750,26.94,79.67
112832,2018-06-29 09:43:38.000000,115.72,79.67
112833,2018-06-29 09:43:38.031250,194.34,79.67
112834,2018-06-29 09:43:38.062500,230.47,79.67
112835,2018-06-29 09:43:38.093750,214.37,79.67
112836,2018-06-29 09:43:38.125000,157.6,79.67
112837,2018-06-29 09:43:38.156250,79.86,79.67
112838,2018-06-29 09:43:38.187500,3.56,79.67
112839,2018-06-29 09:43:38.218750,-51.53,79.67
112840,2018-06-29 09:43:38.250000,-78.37,79.67
112841,2018-06-29 09:43:38.281250,-81.44,79.67
112842,2018-06-29 09:43:38.312500,-66.82,79.67
112843,2018-06-29 09:43:38.343750,-41.15,79.67
112844,2018-06-29 09:43:38.375000,-15.15,79.67
112845,2018-06-29 09:43:38.406250,1.43,79.67
112846,2018-06-29 09:43:38.437500,7.4,79.67
112847,2018-06-29 09:43:38.468750,7.58,79.67
112848,2018-06-29 09:43:38.500000,4.84,79.67
112849,2018-06-29 09:43:38.531250,-0.94,79.57
112850,2018-06-29 09:43:38.562500,-8.71,79.57
112851,2018-06-29 09:43:38.593750,-16.14,79.57
112852,2018-06-29 09:43:38.625000,-22.85,79.57
112853,2018-06-29 09:43:38.656250,-30.52,79.57
112854,2018-06-29 09:43:38.687500,-40.55,79.57
112855,2018-06-29 09:43:38.718750,-53.65,79.57
112856,2018-06-29 09:43:38.750000,-67.04,79.57
112857,2018-06-29 09:43:38.781250,-71.66,79.57
112858,2018-06-29 09:43:38.812500,-60.19,79.57
112859,2018-06-29 09:43:38.843750,-37.43,79.57
112860,2018-06-29 09:43:38.875000,-15.23,79.57
112861,2018-06-29 09:43:38.906250,0.64,79.57
112862,2018-06-29 09:43:38.937500,11.56,79.57
112863,2018-06-29 09:43:38.968750,18.76,79.57
112864,2018-06-29 09:43:39.000000,23.18,79.57
112865,2018-06-29 09:43:39.031250,30.02,79.57
112866,2018-06-29 09:43:39.062500,45.19,79.57
112867,2018-06-29 09:43:39.093750,66.8,79.57
112868,2018-06-29 09:43:39.125000,85.1,79.57
112869,2018-06-29 09:43:39.156250,90.07,79.57
112870,2018-06-29 09:43:39.187500,77.93,79.57
112871,2018-06-29 09:43:39.218750,54.68,79.57
112872,2018-06-29 09:43:39.250000,28.95,79.57
112873,2018-06-29 09:43:39.281250,-0.91,79.57
112874,2018-06-29 09:43:39.312500,-43.87,79.57
112875,2018-06-29 09:43:39.343750,-97.9,79.57
112876,2018-06-29 09:43:39.375000,-147.88,79.57
112877,2018-06-29 09:43:39.406250,-183.15,79.57
112878,2018-06-29 09:43:39.437500,-204.9,79.57
112879,2018-06-29 09:43:39.468750,-217.37,79.57
112880,2018-06-29 09:43:39.500000,-222.42,79.57
112881,2018-06-29 09:43:39.531250,-220.12,79.47
112882,2018-06-29 09:43:39.562500,-207.37,79.47
112883,2018-06-29 09:43:39.593750,-178.96,79.47
112884,2018-06-29 09:43:39.625000,-134.19,79.47
112885,2018-06-29 09:43:39.656250,-80.61,79.47
112886,2018-06-29 09:43:39.687500,-27.06,79.47
112887,2018-06-29 09:43:39.718750,28.14,79.47
112888,2018-06-29 09:43:39.750000,94.46,79.47
112889,2018-06-29 09:43:39.781250,168.06,79.47
112890,2018-06-29 09:43:39.812500,223.7,79.47
112891,2018-06-29 09:43:39.843750,237.86,79.47
112892,2018-06-29 09:43:39.875000,216.69,79.47
112893,2018-06-29 09:43:39.906250,199.15,79.47
112894,2018-06-29 09:43:39.937500,226.29,79.47
112895,2018-06-29 09:43:39.968750,295.68,79.47
112896,2018-06-29 09:43:40.000000,360.27,79.47
112897,2018-06-29 09:43:40.031250,380.36,79.47
112898,2018-06-29 09:43:40.062500,349.97,79.47
112899,2018-06-29 09:43:40.093750,274.86,79.47
112900,2018-06-29 09:43:40.125000,164.27,79.47
112901,2018-06-29 09:43:40.156250,35.25,79.47
112902,2018-06-29 09:43:40.187500,-106.95,79.47
112903,2018-06-29 09:43:40.218750,-265.62,79.47
112904,2018-06-29 09:43:40.250000,-414.63,79.47
112905,2018-06-29 09:43:40.281250,-503.33,79.47
112906,2018-06-29 09:43:40.312500,-504.57,79.47
112907,2018-06-29 09:43:40.343750,-433.44,79.47
112908,2018-06-29 09:43:40.375000,-333.04,79.47
112909,2018-06-29 09:43:40.406250,-254.14,79.47
112910,2018-06-29 09:43:40.437500,-223.05,79.47
112911,2018-06-29 09:43:40.468750,-226.62,79.47
112912,2018-06-29 09:43:40.500000,-241.77,79.47
112913,2018-06-29 09:43:40.531250,-258.33,79.48
112914,2018-06-29 09:43:40.562500,-264.44,79.48
112915,2018-06-29 09:43:40.593750,-244.11,79.48
112916,2018-06-29 09:43:40.625000,-198.03,79.48
112917,2018-06-29 09:43:40.656250,-139.65,79.48
112918,2018-06-29 09:43:40.687500,-73.31,79.48
112919,2018-06-29 09:43:40.718750,2.11,79.48
112920,2018-06-29 09:43:40.750000,78.37,79.48
112921,2018-06-29 09:43:40.781250,142.44,79.48
112922,2018-06-29 09:43:40.812500,186.18,79.48
112923,2018-06-29 09:43:40.843750,206.11,79.48
112924,2018-06-29 09:43:40.875000,202.34,79.48
112925,2018-06-29 09:43:40.906250,180.97,79.48
112926,2018-06-29 09:43:40.937500,152.6,79.48
112927,2018-06-29 09:43:40.968750,126.27,79.48
112928,2018-06-29 09:43:41.000000,104.98,79.48
112929,2018-06-29 09:43:41.031250,86.64,79.48
112930,2018-06-29 09:43:41.062500,68.3,79.48
112931,2018-06-29 09:43:41.093750,48.88,79.48
112932,2018-06-29 09:43:41.125000,29.08,79.48
112933,2018-06-29 09:43:41.156250,10.73,79.48
112934,2018-06-29 09:43:41.187500,-5.03,79.48
112935,2018-06-29 09:43:41.218750,-19.12,79.48
112936,2018-06-29 09:43:41.250000,-34.07,79.48
112937,2018-06-29 09:43:41.281250,-51.34,79.48
112938,2018-06-29 09:43:41.312500,-66.96,79.48
112939,2018-06-29 09:43:41.343750,-71.05,79.48
112940,2018-06-29 09:43:41.375000,-57.08,79.48
112941,2018-06-29 09:43:41.406250,-30.81,79.48
112942,2018-06-29 09:43:41.437500,-4.74,79.48
112943,2018-06-29 09:43:41.468750,13.13,79.48
112944,2018-06-29 09:43:41.500000,22.02,79.48
112945,2018-06-29 09:43:41.531250,24.85,79.48
112946,2018-06-29 09:43:41.562500,25.59,79.48
112947,2018-06-29 09:43:41.593750,29.24,79.48
112948,2018-06-29 09:43:41.625000,40.04,79.48
112949,2018-06-29 09:43:41.656250,56.81,79.48
112950,2018-06-29 09:43:41.687500,73.87,79.48
112951,2018-06-29 09:43:41.718750,88.36,79.48
112952,2018-06-29 09:43:41.750000,100.28,79.48
112953,2018-06-29 09:43:41.781250,106.34,79.48
112954,2018-06-29 09:43:41.812500,102.84,79.48
112955,2018-06-29 09:43:41.843750,91.6,79.48
112956,2018-06-29 09:43:41.875000,76.81,79.48
112957,2018-06-29 09:43:41.906250,60.6,79.48
112958,2018-06-29 09:43:41.937500,43.39,79.48
112959,2018-06-29 09:43:41.968750,24.78,79.48
112960,2018-06-29 09:43:42.000000,2.96,79.48
112961,2018-06-29 09:43:42.031250,-22.72,79.48
112962,2018-06-29 09:43:42.062500,-45.87,79.48
112963,2018-06-29 09:43:42.093750,-51.56,79.48
112964,2018-06-29 09:43:42.125000,-28.07,79.48
112965,2018-06-29 09:43:42.156250,18.1,79.48
112966,2018-06-29 09:43:42.187500,65.66,79.48
112967,2018-06-29 09:43:42.218750,99.19,79.48
112968,2018-06-29 09:43:42.250000,119.36,79.48
112969,2018-06-29 09:43:42.281250,132.11,79.48
112970,2018-06-29 09:43:42.312500,138.47,79.48
112971,2018-06-29 09:43:42.343750,137.43,79.48
112972,2018-06-29 09:43:42.375000,130.78,79.48
112973,2018-06-29 09:43:42.406250,121.29,79.48
112974,2018-06-29 09:43:42.437500,109.88,79.48
112975,2018-06-29 09:43:42.468750,96.26,79.48
112976,2018-06-29 09:43:42.500000,79.33,79.48
112977,2018-06-29 09:43:42.531250,58.18,79.48
112978,2018-06-29 09:43:42.562500,33.75,79.48
112979,2018-06-29 09:43:42.593750,8.54,79.48
112980,2018-06-29 09:43:42.625000,-15.5,79.48
112981,2018-06-29 09:43:42.656250,-37.61,79.48
112982,2018-06-29 09:43:42.687500,-56.78,79.48
112983,2018-06-29 09:43:42.718750,-70.47,79.48
112984,2018-06-29 09:43:42.750000,-75.73,79.48
112985,2018-06-29 09:43:42.781250,-74.23,79.48
112986,2018-06-29 09:43:42.812500,-74.83,79.48
112987,2018-06-29 09:43:42.843750,-85.09,79.48
112988,2018-06-29 09:43:42.875000,-98.99,79.48
112989,2018-06-29 09:43:42.906250,-99.97,79.48
112990,2018-06-29 09:43:42.937500,-78.8,79.48
112991,2018-06-29 09:43:42.968750,-42.98,79.48
112992,2018-06-29 09:43:43.000000,-6.71,79.48
112993,2018-06-29 09:43:43.031250,22.35,79.48
112994,2018-06-29 09:43:43.062500,46.51,79.48
112995,2018-06-29 09:43:43.093750,72.62,79.48
112996,2018-06-29 09:43:43.125000,102.26,79.48
112997,2018-06-29 09:43:43.156250,126.47,79.48
112998,2018-06-29 09:43:43.187500,133.16,79.48
112999,2018-06-29 09:43:43.218750,120.23,79.48
113000,2018-06-29 09:43:43.250000,97.61,79.48
113001,2018-06-29 09:43:43.281250,77.11,79.48
113002,2018-06-29 09:43:43.312500,62.06,79.48
113003,2018-06-29 09:43:43.343750,47.21,79.48
113004,2018-06-29 09:43:43.375000,27.72,79.48
113005,2018-06-29 09:43:43.406250,5.45,79.48
113006,2018-06-29 09:43:43.437500,-13.85,79.48
113007,2018-06-29 09:43:43.468750,-26.26,79.48
113008,2018-06-29 09:43:43.500000,-32.69,79.48
113009,2018-06-29 09:43:43.531250,-38.6,79.5
113010,2018-06-29 09:43:43.562500,-50.16,79.5
113011,2018-06-29 09:43:43.593750,-68.99,79.5
113012,2018-06-29 09:43:43.625000,-91.57,79.5
113013,2018-06-29 09:43:43.656250,-112.52,79.5
113014,2018-06-29 09:43:43.687500,-124.42,79.5
113015,2018-06-29 09:43:43.718750,-118.14,79.5
113016,2018-06-29 09:43:43.750000,-91.4,79.5
113017,2018-06-29 09:43:43.781250,-54.96,79.5
113018,2018-06-29 09:43:43.812500,-22.84,79.5
113019,2018-06-29 09:43:43.843750,1.15,79.5
113020,2018-06-29 09:43:43.875000,22.57,79.5
113021,2018-06-29 09:43:43.906250,45.87,79.5
113022,2018-06-29 09:43:43.937500,69.28,79.5
113023,2018-06-29 09:43:43.968750,88.58,79.5
113024,2018-06-29 09:43:44.000000,102.44,79.5
113025,2018-06-29 09:43:44.031250,112.52,79.5
113026,2018-06-29 09:43:44.062500,119.19,79.5
113027,2018-06-29 09:43:44.093750,122.21,79.5
113028,2018-06-29 09:43:44.125000,122.25,79.5
113029,2018-06-29 09:43:44.156250,120.65,79.5
113030,2018-06-29 09:43:44.187500,119.51,79.5
113031,2018-06-29 09:43:44.218750,121.55,79.5
113032,2018-06-29 09:43:44.250000,123.77,79.5
113033,2018-06-29 09:43:44.281250,114.97,79.5
113034,2018-06-29 09:43:44.312500,89.75,79.5
113035,2018-06-29 09:43:44.343750,57.52,79.5
113036,2018-06-29 09:43:44.375000,32.89,79.5
113037,2018-06-29 09:43:44.406250,18.18,79.5
113038,2018-06-29 09:43:44.437500,7.73,79.5
113039,2018-06-29 09:43:44.468750,0.9,79.5
113040,2018-06-29 09:43:44.500000,2.29,79.5
113041,2018-06-29 09:43:44.531250,7.75,79.45
113042,2018-06-29 09:43:44.562500,2.27,79.45
113043,2018-06-29 09:43:44.593750,-15.53,79.45
113044,2018-06-29 09:43:44.625000,-33.83,79.45
113045,2018-06-29 09:43:44.656250,-34.93,79.45
113046,2018-06-29 09:43:44.687500,-19.86,79.45
113047,2018-06-29 09:43:44.718750,-1.47,79.45
113048,2018-06-29 09:43:44.750000,4.56,79.45
113049,2018-06-29 09:43:44.781250,-1.68,79.45
113050,2018-06-29 09:43:44.812500,9.89,79.45
113051,2018-06-29 09:43:44.843750,70.26,79.45
113052,2018-06-29 09:43:44.875000,176.94,79.45
113053,2018-06-29 09:43:44.906250,279.07,79.45
113054,2018-06-29 09:43:44.937500,346.7,79.45
113055,2018-06-29 09:43:44.968750,368.95,79.45
113056,2018-06-29 09:43:45.000000,295.39,79.45
113057,2018-06-29 09:43:45.031250,182.89,79.45
113058,2018-06-29 09:43:45.062500,56.82,79.45
113059,2018-06-29 09:43:45.093750,-52.11,79.45
113060,2018-06-29 09:43:45.125000,-133.49,79.45
113061,2018-06-29 09:43:45.156250,-177.86,79.45
113062,2018-06-29 09:43:45.187500,-186.77,79.45
113063,2018-06-29 09:43:45.218750,-157.87,79.45
113064,2018-06-29 09:43:45.250000,-104.65,79.45
113065,2018-06-29 09:43:45.281250,-47.53,79.45
113066,2018-06-29 09:43:45.312500,-10.76,79.45
113067,2018-06-29 09:43:45.343750,-13.24,79.45
113068,2018-06-29 09:43:45.375000,-53.09,79.45
113069,2018-06-29 09:43:45.406250,-107.83,79.45
113070,2018-06-29 09:43:45.437500,-146.63,79.45
113071,2018-06-29 09:43:45.468750,-160.69,79.45
113072,2018-06-29 09:43:45.500000,-154.43,79.45
113073,2018-06-29 09:43:45.531250,-140.86,79.38
113074,2018-06-29 09:43:45.562500,-129.69,79.38
113075,2018-06-29 09:43:45.593750,-122.95,79.38
113076,2018-06-29 09:43:45.625000,-118.31,79.38
113077,2018-06-29 09:43:45.656250,-112.11,79.38
113078,2018-06-29 09:43:45.687500,-102.76,79.38
113079,2018-06-29 09:43:45.718750,-91.0,79.38
113080,2018-06-29 09:43:45.750000,-80.71,79.38
113081,2018-06-29 09:43:45.781250,-73.54,79.38
113082,2018-06-29 09:43:45.812500,-68.69,79.38
113083,2018-06-29 09:43:45.843750,-65.68,79.38
113084,2018-06-29 09:43:45.875000,-64.83,79.38
113085,2018-06-29 09:43:45.906250,-65.12,79.38
113086,2018-06-29 09:43:45.937500,-64.58,79.38
113087,2018-06-29 09:43:45.968750,-62.81,79.38
113088,2018-06-29 09:43:46.000000,-60.73,79.38
113089,2018-06-29 09:43:46.031250,-59.02,79.38
113090,2018-06-29 09:43:46.062500,-58.25,79.38
113091,2018-06-29 09:43:46.093750,-59.71,79.38
113092,2018-06-29 09:43:46.125000,-63.07,79.38
113093,2018-06-29 09:43:46.156250,-63.07,79.38
113094,2018-06-29 09:43:46.187500,-53.98,79.38
113095,2018-06-29 09:43:46.218750,-37.58,79.38
113096,2018-06-29 09:43:46.250000,-21.71,79.38
113097,2018-06-29 09:43:46.281250,-10.86,79.38
113098,2018-06-29 09:43:46.312500,-3.75,79.38
113099,2018-06-29 09:43:46.343750,1.72,79.38
113100,2018-06-29 09:43:46.375000,5.76,79.38
113101,2018-06-29 09:43:46.406250,7.55,79.38
113102,2018-06-29 09:43:46.437500,6.5,79.38
113103,2018-06-29 09:43:46.468750,3.9,79.38
113104,2018-06-29 09:43:46.500000,1.7,79.38
113105,2018-06-29 09:43:46.531250,0.08,79.37
113106,2018-06-29 09:43:46.562500,-2.33,79.37
113107,2018-06-29 09:43:46.593750,-6.3,79.37
113108,2018-06-29 09:43:46.625000,-11.52,79.37
113109,2018-06-29 09:43:46.656250,-17.1,79.37
113110,2018-06-29 09:43:46.687500,-22.6,79.37
113111,2018-06-29 09:43:46.718750,-28.17,79.37
113112,2018-06-29 09:43:46.750000,-32.61,79.37
113113,2018-06-29 09:43:46.781250,-32.99,79.37
113114,2018-06-29 09:43:46.812500,-28.5,79.37
113115,2018-06-29 09:43:46.843750,-22.34,79.37
113116,2018-06-29 09:43:46.875000,-18.73,79.37
113117,2018-06-29 09:43:46.906250,-19.04,79.37
113118,2018-06-29 09:43:46.937500,-20.27,79.37
113119,2018-06-29 09:43:46.968750,-17.35,79.37
113120,2018-06-29 09:43:47.000000,-9.02,79.37
113121,2018-06-29 09:43:47.031250,0.57,79.37
113122,2018-06-29 09:43:47.062500,7.59,79.37
113123,2018-06-29 09:43:47.093750,12.52,79.37
113124,2018-06-29 09:43:47.125000,17.6,79.37
113125,2018-06-29 09:43:47.156250,23.1,79.37
113126,2018-06-29 09:43:47.187500,27.39,79.37
113127,2018-06-29 09:43:47.218750,29.38,79.37
113128,2018-06-29 09:43:47.250000,29.25,79.37
113129,2018-06-29 09:43:47.281250,27.1,79.37
113130,2018-06-29 09:43:47.312500,22.84,79.37
113131,2018-06-29 09:43:47.343750,17.5,79.37
113132,2018-06-29 09:43:47.375000,12.34,79.37
113133,2018-06-29 09:43:47.406250,6.98,79.37
113134,2018-06-29 09:43:47.437500,0.88,79.37
113135,2018-06-29 09:43:47.468750,-5.08,79.37
113136,2018-06-29 09:43:47.500000,-9.96,79.37
113137,2018-06-29 09:43:47.531250,-13.91,79.33
113138,2018-06-29 09:43:47.562500,-17.11,79.33
113139,2018-06-29 09:43:47.593750,-19.34,79.33
113140,2018-06-29 09:43:47.625000,-20.1,79.33
113141,2018-06-29 09:43:47.656250,-18.45,79.33
113142,2018-06-29 09:43:47.687500,-14.65,79.33
113143,2018-06-29 09:43:47.718750,-11.77,79.33
113144,2018-06-29 09:43:47.750000,-13.31,79.33
113145,2018-06-29 09:43:47.781250,-18.43,79.33
113146,2018-06-29 09:43:47.812500,-21.39,79.33
113147,2018-06-29 09:43:47.843750,-17.37,79.33
113148,2018-06-29 09:43:47.875000,-7.81,79.33
113149,2018-06-29 09:43:47.906250,2.2,79.33
113150,2018-06-29 09:43:47.937500,10.53,79.33
113151,2018-06-29 09:43:47.968750,18.51,79.33
113152,2018-06-29 09:43:48.000000,26.92,79.33
113153,2018-06-29 09:43:48.031250,35.94,79.33
113154,2018-06-29 09:43:48.062500,46.79,79.33
113155,2018-06-29 09:43:48.093750,59.73,79.33
113156,2018-06-29 09:43:48.125000,72.63,79.33
113157,2018-06-29 09:43:48.156250,83.89,79.33
113158,2018-06-29 09:43:48.187500,94.79,79.33
113159,2018-06-29 09:43:48.218750,107.41,79.33
113160,2018-06-29 09:43:48.250000,119.93,79.33
113161,2018-06-29 09:43:48.281250,124.03,79.33
113162,2018-06-29 09:43:48.312500,109.68,79.33
113163,2018-06-29 09:43:48.343750,74.92,79.33
113164,2018-06-29 09:43:48.375000,30.62,79.33
113165,2018-06-29 09:43:48.406250,-7.43,79.33
113166,2018-06-29 09:43:48.437500,-30.49,79.33
113167,2018-06-29 09:43:48.468750,-39.43,79.33
113168,2018-06-29 09:43:48.500000,-41.14,79.33
113169,2018-06-29 09:43:48.531250,-45.93,79.32
113170,2018-06-29 09:43:48.562500,-61.45,79.32
113171,2018-06-29 09:43:48.593750,-85.55,79.32
113172,2018-06-29 09:43:48.625000,-110.28,79.32
113173,2018-06-29 09:43:48.656250,-134.57,79.32
113174,2018-06-29 09:43:48.687500,-164.76,79.32
113175,2018-06-29 09:43:48.718750,-201.75,79.32
113176,2018-06-29 09:43:48.750000,-233.27,79.32
113177,2018-06-29 09:43:48.781250,-241.05,79.32
113178,2018-06-29 09:43:48.812500,-216.48,79.32
113179,2018-06-29 09:43:48.843750,-168.3,79.32
113180,2018-06-29 09:43:48.875000,-113.99,79.32
113181,2018-06-29 09:43:48.906250,-64.92,79.32
113182,2018-06-29 09:43:48.937500,-22.99,79.32
113183,2018-06-29 09:43:48.968750,12.14,79.32
113184,2018-06-29 09:43:49.000000,39.82,79.32
113185,2018-06-29 09:43:49.031250,59.22,79.32
113186,2018-06-29 09:43:49.062500,69.66,79.32
113187,2018-06-29 09:43:49.093750,72.15,79.32
113188,2018-06-29 09:43:49.125000,70.62,79.32
113189,2018-06-29 09:43:49.156250,69.1,79.32
113190,2018-06-29 09:43:49.187500,68.37,79.32
113191,2018-06-29 09:43:49.218750,66.72,79.32
113192,2018-06-29 09:43:49.250000,63.28,79.32
113193,2018-06-29 09:43:49.281250,60.02,79.32
113194,2018-06-29 09:43:49.312500,59.14,79.32
113195,2018-06-29 09:43:49.343750,59.99,79.32
113196,2018-06-29 09:43:49.375000,61.34,79.32
113197,2018-06-29 09:43:49.406250,62.92,79.32
113198,2018-06-29 09:43:49.437500,62.88,79.32
113199,2018-06-29 09:43:49.468750,59.17,79.32
113200,2018-06-29 09:43:49.500000,51.8,79.32
113201,2018-06-29 09:43:49.531250,39.95,79.3
113202,2018-06-29 09:43:49.562500,22.31,79.3
113203,2018-06-29 09:43:49.593750,2.08,79.3
113204,2018-06-29 09:43:49.625000,-16.13,79.3
113205,2018-06-29 09:43:49.656250,-34.31,79.3
113206,2018-06-29 09:43:49.687500,-57.22,79.3
113207,2018-06-29 09:43:49.718750,-81.91,79.3
113208,2018-06-29 09:43:49.750000,-96.01,79.3
113209,2018-06-29 09:43:49.781250,-88.65,79.3
113210,2018-06-29 09:43:49.812500,-61.99,79.3
113211,2018-06-29 09:43:49.843750,-28.67,79.3
113212,2018-06-29 09:43:49.875000,2.34,79.3
113213,2018-06-29 09:43:49.906250,30.3,79.3
113214,2018-06-29 09:43:49.937500,55.11,79.3
113215,2018-06-29 09:43:49.968750,73.67,79.3
113216,2018-06-29 09:43:50.000000,84.32,79.3
113217,2018-06-29 09:43:50.031250,87.74,79.3
113218,2018-06-29 09:43:50.062500,85.23,79.3
113219,2018-06-29 09:43:50.093750,79.39,79.3
113220,2018-06-29 09:43:50.125000,74.26,79.3
113221,2018-06-29 09:43:50.156250,71.62,79.3
113222,2018-06-29 09:43:50.187500,68.89,79.3
113223,2018-06-29 09:43:50.218750,62.46,79.3
113224,2018-06-29 09:43:50.250000,51.9,79.3
113225,2018-06-29 09:43:50.281250,39.66,79.3
113226,2018-06-29 09:43:50.312500,27.76,79.3
113227,2018-06-29 09:43:50.343750,15.81,79.3
113228,2018-06-29 09:43:50.375000,2.95,79.3
113229,2018-06-29 09:43:50.406250,-9.88,79.3
113230,2018-06-29 09:43:50.437500,-20.94,79.3
113231,2018-06-29 09:43:50.468750,-30.38,79.3
113232,2018-06-29 09:43:50.500000,-41.01,79.3
113233,2018-06-29 09:43:50.531250,-54.91,79.08
113234,2018-06-29 09:43:50.562500,-67.54,79.08
113235,2018-06-29 09:43:50.593750,-68.3,79.08
113236,2018-06-29 09:43:50.625000,-50.98,79.08
113237,2018-06-29 09:43:50.656250,-21.58,79.08
113238,2018-06-29 09:43:50.687500,7.43,79.08
113239,2018-06-29 09:43:50.718750,28.5,79.08
113240,2018-06-29 09:43:50.750000,41.58,79.08
113241,2018-06-29 09:43:50.781250,48.16,79.08
113242,2018-06-29 09:43:50.812500,47.95,79.08
113243,2018-06-29 09:43:50.843750,42.07,79.08
113244,2018-06-29 09:43:50.875000,35.25,79.08
113245,2018-06-29 09:43:50.906250,31.83,79.08
113246,2018-06-29 09:43:50.937500,31.97,79.08
113247,2018-06-29 09:43:50.968750,33.68,79.08
113248,2018-06-29 09:43:51.000000,35.13,79.08
113249,2018-06-29 09:43:51.031250,33.8,79.08
113250,2018-06-29 09:43:51.062500,27.39,79.08
113251,2018-06-29 09:43:51.093750,17.4,79.08
113252,2018-06-29 09:43:51.125000,7.69,79.08
113253,2018-06-29 09:43:51.156250,-1.28,79.08
113254,2018-06-29 09:43:51.187500,-11.95,79.08
113255,2018-06-29 09:43:51.218750,-24.03,79.08
113256,2018-06-29 09:43:51.250000,-34.6,79.08
113257,2018-06-29 09:43:51.281250,-43.82,79.08
113258,2018-06-29 09:43:51.312500,-55.57,79.08
113259,2018-06-29 09:43:51.343750,-71.13,79.08
113260,2018-06-29 09:43:51.375000,-84.53,79.08
113261,2018-06-29 09:43:51.406250,-85.18,79.08
113262,2018-06-29 09:43:51.437500,-66.84,79.08
113263,2018-06-29 09:43:51.468750,-34.65,79.08
113264,2018-06-29 09:43:51.500000,-1.1,79.08
113265,2018-06-29 09:43:51.531250,25.24,78.83
113266,2018-06-29 09:43:51.562500,43.84,78.83
113267,2018-06-29 09:43:51.593750,57.03,78.83
113268,2018-06-29 09:43:51.625000,65.08,78.83
113269,2018-06-29 09:43:51.656250,67.41,78.83
113270,2018-06-29 09:43:51.687500,64.51,78.83
113271,2018-06-29 09:43:51.718750,57.82,78.83
113272,2018-06-29 09:43:51.750000,49.23,78.83
113273,2018-06-29 09:43:51.781250,41.49,78.83
113274,2018-06-29 09:43:51.812500,36.71,78.83
113275,2018-06-29 09:43:51.843750,33.49,78.83
113276,2018-06-29 09:43:51.875000,28.38,78.83
113277,2018-06-29 09:43:51.906250,20.65,78.83
113278,2018-06-29 09:43:51.937500,12.23,78.83
113279,2018-06-29 09:43:51.968750,3.51,78.83
113280,2018-06-29 09:43:52.000000,-7.3,78.83
113281,2018-06-29 09:43:52.031250,-20.05,78.83
113282,2018-06-29 09:43:52.062500,-31.28,78.83
113283,2018-06-29 09:43:52.093750,-38.96,78.83
113284,2018-06-29 09:43:52.125000,-45.55,78.83
113285,2018-06-29 09:43:52.156250,-55.26,78.83
113286,2018-06-29 09:43:52.187500,-67.98,78.83
113287,2018-06-29 09:43:52.218750,-75.88,78.83
113288,2018-06-29 09:43:52.250000,-68.25,78.83
113289,2018-06-29 09:43:52.281250,-43.03,78.83
113290,2018-06-29 09:43:52.312500,-10.56,78.83
113291,2018-06-29 09:43:52.343750,17.04,78.83
113292,2018-06-29 09:43:52.375000,36.37,78.83
113293,2018-06-29 09:43:52.406250,49.84,78.83
113294,2018-06-29 09:43:52.437500,58.41,78.83
113295,2018-06-29 09:43:52.468750,60.74,78.83
113296,2018-06-29 09:43:52.500000,56.71,78.83
113297,2018-06-29 09:43:52.531250,48.33,78.62
113298,2018-06-29 09:43:52.562500,38.57,78.62
113299,2018-06-29 09:43:52.593750,30.14,78.62
113300,2018-06-29 09:43:52.625000,24.55,78.62
113301,2018-06-29 09:43:52.656250,21.35,78.62
113302,2018-06-29 09:43:52.687500,19.01,78.62
113303,2018-06-29 09:43:52.718750,16.1,78.62
113304,2018-06-29 09:43:52.750000,11.82,78.62
113305,2018-06-29 09:43:52.781250,6.63,78.62
113306,2018-06-29 09:43:52.812500,2.15,78.62
113307,2018-06-29 09:43:52.843750,-1.32,78.62
113308,2018-06-29 09:43:52.875000,-5.64,78.62
113309,2018-06-29 09:43:52.906250,-12.0,78.62
113310,2018-06-29 09:43:52.937500,-19.08,78.62
113311,2018-06-29 09:43:52.968750,-24.92,78.62
113312,2018-06-29 09:43:53.000000,-29.3,78.62
113313,2018-06-29 09:43:53.031250,-34.06,78.62
113314,2018-06-29 09:43:53.062500,-42.07,78.62
113315,2018-06-29 09:43:53.093750,-54.23,78.62
113316,2018-06-29 09:43:53.125000,-64.86,78.62
113317,2018-06-29 09:43:53.156250,-63.61,78.62
113318,2018-06-29 09:43:53.187500,-46.84,78.62
113319,2018-06-29 09:43:53.218750,-23.18,78.62
113320,2018-06-29 09:43:53.250000,-3.31,78.62
113321,2018-06-29 09:43:53.281250,10.55,78.62
113322,2018-06-29 09:43:53.312500,21.35,78.62
113323,2018-06-29 09:43:53.343750,29.89,78.62
113324,2018-06-29 09:43:53.375000,35.41,78.62
113325,2018-06-29 09:43:53.406250,38.25,78.62
113326,2018-06-29 09:43:53.437500,39.61,78.62
113327,2018-06-29 09:43:53.468750,39.89,78.62
113328,2018-06-29 09:43:53.500000,38.79,78.62
113329,2018-06-29 09:43:53.531250,36.71,78.37
113330,2018-06-29 09:43:53.562500,34.49,78.37
113331,2018-06-29 09:43:53.593750,31.11,78.37
113332,2018-06-29 09:43:53.625000,24.23,78.37
113333,2018-06-29 09:43:53.656250,14.2,78.37
113334,2018-06-29 09:43:53.687500,3.96,78.37
113335,2018-06-29 09:43:53.718750,-5.35,78.37
113336,2018-06-29 09:43:53.750000,-15.08,78.37
113337,2018-06-29 09:43:53.781250,-25.3,78.37
113338,2018-06-29 09:43:53.812500,-34.05,78.37
113339,2018-06-29 09:43:53.843750,-40.41,78.37
113340,2018-06-29 09:43:53.875000,-45.76,78.37
113341,2018-06-29 09:43:53.906250,-52.51,78.37
113342,2018-06-29 09:43:53.937500,-62.33,78.37
113343,2018-06-29 09:43:53.968750,-73.4,78.37
113344,2018-06-29 09:43:54.000000,-78.48,78.37
113345,2018-06-29 09:43:54.031250,-69.77,78.37
113346,2018-06-29 09:43:54.062500,-47.87,78.37
113347,2018-06-29 09:43:54.093750,-22.48,78.37
113348,2018-06-29 09:43:54.125000,-2.71,78.37
113349,2018-06-29 09:43:54.156250,8.96,78.37
113350,2018-06-29 09:43:54.187500,13.34,78.37
113351,2018-06-29 09:43:54.218750,11.3,78.37
113352,2018-06-29 09:43:54.250000,4.79,78.37
113353,2018-06-29 09:43:54.281250,-3.62,78.37
113354,2018-06-29 09:43:54.312500,-12.55,78.37
113355,2018-06-29 09:43:54.343750,-22.17,78.37
113356,2018-06-29 09:43:54.375000,-33.65,78.37
113357,2018-06-29 09:43:54.406250,-48.43,78.37
113358,2018-06-29 09:43:54.437500,-68.02,78.37
113359,2018-06-29 09:43:54.468750,-95.53,78.37
113360,2018-06-29 09:43:54.500000,-132.75,78.37
113361,2018-06-29 09:43:54.531250,-166.04,78.23
113362,2018-06-29 09:43:54.562500,-169.11,78.23
113363,2018-06-29 09:43:54.593750,-132.7,78.23
113364,2018-06-29 09:43:54.625000,-73.83,78.23
113365,2018-06-29 09:43:54.656250,-13.89,78.23
113366,2018-06-29 09:43:54.687500,33.02,78.23
113367,2018-06-29 09:43:54.718750,64.92,78.23
113368,2018-06-29 09:43:54.750000,100.35,78.23
113369,2018-06-29 09:43:54.781250,155.48,78.23
113370,2018-06-29 09:43:54.812500,211.66,78.23
113371,2018-06-29 09:43:54.843750,238.04,78.23
113372,2018-06-29 09:43:54.875000,236.52,78.23
113373,2018-06-29 09:43:54.906250,234.58,78.23
113374,2018-06-29 09:43:54.937500,247.93,78.23
113375,2018-06-29 09:43:54.968750,263.96,78.23
113376,2018-06-29 09:43:55.000000,251.31,78.23
113377,2018-06-29 09:43:55.031250,189.21,78.23
113378,2018-06-29 09:43:55.062500,94.5,78.23
113379,2018-06-29 09:43:55.093750,9.68,78.23
113380,2018-06-29 09:43:55.125000,-38.47,78.23
113381,2018-06-29 09:43:55.156250,-56.59,78.23
113382,2018-06-29 09:43:55.187500,-64.38,78.23
113383,2018-06-29 09:43:55.218750,-73.47,78.23
113384,2018-06-29 09:43:55.250000,-85.01,78.23
113385,2018-06-29 09:43:55.281250,-94.33,78.23
113386,2018-06-29 09:43:55.312500,-95.91,78.23
113387,2018-06-29 09:43:55.343750,-89.04,78.23
113388,2018-06-29 09:43:55.375000,-79.52,78.23
113389,2018-06-29 09:43:55.406250,-73.39,78.23
113390,2018-06-29 09:43:55.437500,-71.03,78.23
113391,2018-06-29 09:43:55.468750,-68.88,78.23
113392,2018-06-29 09:43:55.500000,-65.32,78.23
113393,2018-06-29 09:43:55.531250,-62.55,78.07
113394,2018-06-29 09:43:55.562500,-63.21,78.07
113395,2018-06-29 09:43:55.593750,-67.79,78.07
113396,2018-06-29 09:43:55.625000,-75.18,78.07
113397,2018-06-29 09:43:55.656250,-82.17,78.07
113398,2018-06-29 09:43:55.687500,-82.25,78.07
113399,2018-06-29 09:43:55.718750,-70.51,78.07
113400,2018-06-29 09:43:55.750000,-50.85,78.07
113401,2018-06-29 09:43:55.781250,-33.02,78.07
113402,2018-06-29 09:43:55.812500,-21.83,78.07
113403,2018-06-29 09:43:55.843750,-14.74,78.07
113404,2018-06-29 09:43:55.875000,-7.98,78.07
113405,2018-06-29 09:43:55.906250,-0.33,78.07
113406,2018-06-29 09:43:55.937500,7.82,78.07
113407,2018-06-29 09:43:55.968750,16.15,78.07
113408,2018-06-29 09:43:56.000000,24.89,78.07
113409,2018-06-29 09:43:56.031250,33.87,78.07
113410,2018-06-29 09:43:56.062500,42.09,78.07
113411,2018-06-29 09:43:56.093750,49.05,78.07
113412,2018-06-29 09:43:56.125000,53.79,78.07
113413,2018-06-29 09:43:56.156250,53.82,78.07
113414,2018-06-29 09:43:56.187500,48.09,78.07
113415,2018-06-29 09:43:56.218750,39.43,78.07
113416,2018-06-29 09:43:56.250000,30.85,78.07
113417,2018-06-29 09:43:56.281250,22.64,78.07
113418,2018-06-29 09:43:56.312500,14.69,78.07
113419,2018-06-29 09:43:56.343750,7.85,78.07
113420,2018-06-29 09:43:56.375000,1.63,78.07
113421,2018-06-29 09:43:56.406250,-6.16,78.07
113422,2018-06-29 09:43:56.437500,-16.17,78.07
113423,2018-06-29 09:43:56.468750,-26.56,78.07
113424,2018-06-29 09:43:56.500000,-36.5,78.07
113425,2018-06-29 09:43:56.531250,-48.57,77.83
113426,2018-06-29 09:43:56.562500,-65.18,77.83
113427,2018-06-29 09:43:56.593750,-82.66,77.83
113428,2018-06-29 09:43:56.625000,-90.0,77.83
113429,2018-06-29 09:43:56.656250,-77.6,77.83
113430,2018-06-29 09:43:56.687500,-48.36,77.83
113431,2018-06-29 09:43:56.718750,-15.79,77.83
113432,2018-06-29 09:43:56.750000,9.82,77.83
113433,2018-06-29 09:43:56.781250,28.08,77.83
113434,2018-06-29 09:43:56.812500,42.04,77.83
113435,2018-06-29 09:43:56.843750,52.25,77.83
113436,2018-06-29 09:43:56.875000,58.14,77.83
113437,2018-06-29 09:43:56.906250,60.26,77.83
113438,2018-06-29 09:43:56.937500,60.14,77.83
113439,2018-06-29 09:43:56.968750,59.4,77.83
113440,2018-06-29 09:43:57.000000,59.13,77.83
113441,2018-06-29 09:43:57.031250,59.65,77.83
113442,2018-06-29 09:43:57.062500,59.73,77.83
113443,2018-06-29 09:43:57.093750,57.03,77.83
113444,2018-06-29 09:43:57.125000,50.81,77.83
113445,2018-06-29 09:43:57.156250,43.32,77.83
113446,2018-06-29 09:43:57.187500,37.06,77.83
113447,2018-06-29 09:43:57.218750,31.6,77.83
113448,2018-06-29 09:43:57.250000,24.66,77.83
113449,2018-06-29 09:43:57.281250,15.62,77.83
113450,2018-06-29 09:43:57.312500,6.19,77.83
113451,2018-06-29 09:43:57.343750,-2.29,77.83
113452,2018-06-29 09:43:57.375000,-10.83,77.83
113453,2018-06-29 09:43:57.406250,-21.02,77.83
113454,2018-06-29 09:43:57.437500,-32.32,77.83
113455,2018-06-29 09:43:57.468750,-42.66,77.83
113456,2018-06-29 09:43:57.500000,-51.41,77.83
113457,2018-06-29 09:43:57.531250,-60.5,77.68
113458,2018-06-29 09:43:57.562500,-72.16,77.68
113459,2018-06-29 09:43:57.593750,-84.96,77.68
113460,2018-06-29 09:43:57.625000,-90.83,77.68
113461,2018-06-29 09:43:57.656250,-79.68,77.68
113462,2018-06-29 09:43:57.687500,-50.83,77.68
113463,2018-06-29 09:43:57.718750,-16.61,77.68
113464,2018-06-29 09:43:57.750000,9.82,77.68
113465,2018-06-29 09:43:57.781250,25.89,77.68
113466,2018-06-29 09:43:57.812500,36.21,77.68
113467,2018-06-29 09:43:57.843750,44.01,77.68
113468,2018-06-29 09:43:57.875000,49.25,77.68
113469,2018-06-29 09:43:57.906250,51.37,77.68
113470,2018-06-29 09:43:57.937500,51.58,77.68
113471,2018-06-29 09:43:57.968750,52.22,77.68
113472,2018-06-29 09:43:58.000000,54.52,77.68
113473,2018-06-29 09:43:58.031250,57.47,77.68
113474,2018-06-29 09:43:58.062500,59.12,77.68
113475,2018-06-29 09:43:58.093750,57.7,77.68
113476,2018-06-29 09:43:58.125000,52.5,77.68
113477,2018-06-29 09:43:58.156250,45.03,77.68
113478,2018-06-29 09:43:58.187500,38.04,77.68
113479,2018-06-29 09:43:58.218750,32.64,77.68
113480,2018-06-29 09:43:58.250000,27.04,77.68
113481,2018-06-29 09:43:58.281250,19.06,77.68
113482,2018-06-29 09:43:58.312500,9.35,77.68
113483,2018-06-29 09:43:58.343750,0.36,77.68
113484,2018-06-29 09:43:58.375000,-7.32,77.68
113485,2018-06-29 09:43:58.406250,-15.64,77.68
113486,2018-06-29 09:43:58.437500,-25.16,77.68
113487,2018-06-29 09:43:58.468750,-33.46,77.68
113488,2018-06-29 09:43:58.500000,-38.97,77.68
113489,2018-06-29 09:43:58.531250,-43.71,77.5
113490,2018-06-29 09:43:58.562500,-51.14,77.5
113491,2018-06-29 09:43:58.593750,-62.29,77.5
113492,2018-06-29 09:43:58.625000,-72.86,77.5
113493,2018-06-29 09:43:58.656250,-72.92,77.5
113494,2018-06-29 09:43:58.687500,-54.74,77.5
113495,2018-06-29 09:43:58.718750,-23.32,77.5
113496,2018-06-29 09:43:58.750000,7.52,77.5
113497,2018-06-29 09:43:58.781250,29.14,77.5
113498,2018-06-29 09:43:58.812500,41.88,77.5
113499,2018-06-29 09:43:58.843750,47.81,77.5
113500,2018-06-29 09:43:58.875000,47.17,77.5
113501,2018-06-29 09:43:58.906250,40.78,77.5
113502,2018-06-29 09:43:58.937500,31.04,77.5
113503,2018-06-29 09:43:58.968750,20.6,77.5
113504,2018-06-29 09:43:59.000000,11.81,77.5
113505,2018-06-29 09:43:59.031250,6.76,77.5
113506,2018-06-29 09:43:59.062500,5.89,77.5
113507,2018-06-29 09:43:59.093750,6.8,77.5
113508,2018-06-29 09:43:59.125000,6.85,77.5
113509,2018-06-29 09:43:59.156250,6.32,77.5
113510,2018-06-29 09:43:59.187500,6.93,77.5
113511,2018-06-29 09:43:59.218750,8.47,77.5
113512,2018-06-29 09:43:59.250000,9.33,77.5
113513,2018-06-29 09:43:59.281250,8.55,77.5
113514,2018-06-29 09:43:59.312500,6.27,77.5
113515,2018-06-29 09:43:59.343750,1.96,77.5
113516,2018-06-29 09:43:59.375000,-5.97,77.5
113517,2018-06-29 09:43:59.406250,-17.94,77.5
113518,2018-06-29 09:43:59.437500,-31.69,77.5
113519,2018-06-29 09:43:59.468750,-44.17,77.5
113520,2018-06-29 09:43:59.500000,-54.49,77.5
113521,2018-06-29 09:43:59.531250,-64.13,77.33
113522,2018-06-29 09:43:59.562500,-73.98,77.33
113523,2018-06-29 09:43:59.593750,-80.06,77.33
113524,2018-06-29 09:43:59.625000,-73.44,77.33
113525,2018-06-29 09:43:59.656250,-49.55,77.33
113526,2018-06-29 09:43:59.687500,-16.18,77.33
113527,2018-06-29 09:43:59.718750,13.08,77.33
113528,2018-06-29 09:43:59.750000,31.15,77.33
113529,2018-06-29 09:43:59.781250,38.96,77.33
113530,2018-06-29 09:43:59.812500,39.35,77.33
113531,2018-06-29 09:43:59.843750,34.55,77.33
113532,2018-06-29 09:43:59.875000,27.6,77.33
113533,2018-06-29 09:43:59.906250,21.97,77.33
113534,2018-06-29 09:43:59.937500,19.48,77.33
113535,2018-06-29 09:43:59.968750,19.86,77.33
113536,2018-06-29 09:44:00.000000,21.77,77.33
113537,2018-06-29 09:44:00.031250,23.31,77.33
113538,2018-06-29 09:44:00.062500,22.93,77.33
113539,2018-06-29 09:44:00.093750,20.36,77.33
113540,2018-06-29 09:44:00.125000,15.78,77.33
113541,2018-06-29 09:44:00.156250,8.77,77.33
113542,2018-06-29 09:44:00.187500,0.47,77.33
113543,2018-06-29 09:44:00.218750,-5.87,77.33
113544,2018-06-29 09:44:00.250000,-9.47,77.33
113545,2018-06-29 09:44:00.281250,-14.05,77.33
113546,2018-06-29 09:44:00.312500,-22.36,77.33
113547,2018-06-29 09:44:00.343750,-31.4,77.33
113548,2018-06-29 09:44:00.375000,-37.71,77.33
113549,2018-06-29 09:44:00.406250,-45.78,77.33
113550,2018-06-29 09:44:00.437500,-63.84,77.33
113551,2018-06-29 09:44:00.468750,-90.24,77.33
113552,2018-06-29 09:44:00.500000,-108.62,77.33
113553,2018-06-29 09:44:00.531250,-98.45,77.28
113554,2018-06-29 09:44:00.562500,-50.93,77.28
113555,2018-06-29 09:44:00.593750,17.44,77.28
113556,2018-06-29 09:44:00.625000,72.18,77.28
113557,2018-06-29 09:44:00.656250,94.84,77.28
113558,2018-06-29 09:44:00.687500,100.14,77.28
113559,2018-06-29 09:44:00.718750,107.89,77.28
113560,2018-06-29 09:44:00.750000,115.16,77.28
113561,2018-06-29 09:44:00.781250,109.28,77.28
113562,2018-06-29 09:44:00.812500,89.83,77.28
113563,2018-06-29 09:44:00.843750,65.03,77.28
113564,2018-06-29 09:44:00.875000,38.88,77.28
113565,2018-06-29 09:44:00.906250,10.32,77.28
113566,2018-06-29 09:44:00.937500,-19.49,77.28
113567,2018-06-29 09:44:00.968750,-46.56,77.28
113568,2018-06-29 09:44:01.000000,-69.97,77.28
113569,2018-06-29 09:44:01.031250,-90.72,77.28
113570,2018-06-29 09:44:01.062500,-107.43,77.28
113571,2018-06-29 09:44:01.093750,-119.72,77.28
113572,2018-06-29 09:44:01.125000,-131.11,77.28
113573,2018-06-29 09:44:01.156250,-139.47,77.28
113574,2018-06-29 09:44:01.187500,-132.03,77.28
113575,2018-06-29 09:44:01.218750,-101.08,77.28
113576,2018-06-29 09:44:01.250000,-58.92,77.28
113577,2018-06-29 09:44:01.281250,-24.94,77.28
113578,2018-06-29 09:44:01.312500,-5.19,77.28
113579,2018-06-29 09:44:01.343750,5.76,77.28
113580,2018-06-29 09:44:01.375000,14.54,77.28
113581,2018-06-29 09:44:01.406250,28.36,77.28
113582,2018-06-29 09:44:01.437500,52.1,77.28
113583,2018-06-29 09:44:01.468750,80.64,77.28
113584,2018-06-29 09:44:01.500000,102.5,77.28
113585,2018-06-29 09:44:01.531250,112.63,77.3
113586,2018-06-29 09:44:01.562500,116.17,77.3
113587,2018-06-29 09:44:01.593750,119.49,77.3
113588,2018-06-29 09:44:01.625000,123.1,77.3
113589,2018-06-29 09:44:01.656250,126.54,77.3
113590,2018-06-29 09:44:01.687500,133.38,77.3
113591,2018-06-29 09:44:01.718750,143.58,77.3
113592,2018-06-29 09:44:01.750000,149.12,77.3
113593,2018-06-29 09:44:01.781250,143.48,77.3
113594,2018-06-29 09:44:01.812500,126.57,77.3
113595,2018-06-29 09:44:01.843750,98.97,77.3
113596,2018-06-29 09:44:01.875000,61.76,77.3
113597,2018-06-29 09:44:01.906250,20.24,77.3
113598,2018-06-29 09:44:01.937500,-20.13,77.3
113599,2018-06-29 09:44:01.968750,-57.18,77.3
113600,2018-06-29 09:44:02.000000,-88.29,77.3
113601,2018-06-29 09:44:02.031250,-109.95,77.3
113602,2018-06-29 09:44:02.062500,-121.44,77.3
113603,2018-06-29 09:44:02.093750,-126.29,77.3
113604,2018-06-29 09:44:02.125000,-130.88,77.3
113605,2018-06-29 09:44:02.156250,-136.92,77.3
113606,2018-06-29 09:44:02.187500,-134.47,77.3
113607,2018-06-29 09:44:02.218750,-113.67,77.3
113608,2018-06-29 09:44:02.250000,-81.2,77.3
113609,2018-06-29 09:44:02.281250,-50.17,77.3
113610,2018-06-29 09:44:02.312500,-21.18,77.3
113611,2018-06-29 09:44:02.343750,11.04,77.3
113612,2018-06-29 09:44:02.375000,41.71,77.3
113613,2018-06-29 09:44:02.406250,61.45,77.3
113614,2018-06-29 09:44:02.437500,68.58,77.3
113615,2018-06-29 09:44:02.468750,64.7,77.3
113616,2018-06-29 09:44:02.500000,47.27,77.3
113617,2018-06-29 09:44:02.531250,17.38,77.28
113618,2018-06-29 09:44:02.562500,-12.9,77.28
113619,2018-06-29 09:44:02.593750,-30.99,77.28
113620,2018-06-29 09:44:02.625000,-37.13,77.28
113621,2018-06-29 09:44:02.656250,-39.27,77.28
113622,2018-06-29 09:44:02.687500,-41.7,77.28
113623,2018-06-29 09:44:02.718750,-44.55,77.28
113624,2018-06-29 09:44:02.750000,-48.54,77.28
113625,2018-06-29 09:44:02.781250,-54.21,77.28
113626,2018-06-29 09:44:02.812500,-59.5,77.28
113627,2018-06-29 09:44:02.843750,-62.84,77.28
113628,2018-06-29 09:44:02.875000,-66.85,77.28
113629,2018-06-29 09:44:02.906250,-75.25,77.28
113630,2018-06-29 09:44:02.937500,-84.55,77.28
113631,2018-06-29 09:44:02.968750,-83.58,77.28
113632,2018-06-29 09:44:03.000000,-65.77,77.28
113633,2018-06-29 09:44:03.031250,-37.93,77.28
113634,2018-06-29 09:44:03.062500,-11.51,77.28
113635,2018-06-29 09:44:03.093750,9.6,77.28
113636,2018-06-29 09:44:03.125000,27.19,77.28
113637,2018-06-29 09:44:03.156250,41.49,77.28
113638,2018-06-29 09:44:03.187500,51.29,77.28
113639,2018-06-29 09:44:03.218750,57.11,77.28
113640,2018-06-29 09:44:03.250000,59.95,77.28
113641,2018-06-29 09:44:03.281250,60.58,77.28
113642,2018-06-29 09:44:03.312500,60.8,77.28
113643,2018-06-29 09:44:03.343750,62.66,77.28
113644,2018-06-29 09:44:03.375000,65.87,77.28
113645,2018-06-29 09:44:03.406250,68.21,77.28
113646,2018-06-29 09:44:03.437500,68.07,77.28
113647,2018-06-29 09:44:03.468750,64.49,77.28
113648,2018-06-29 09:44:03.500000,56.06,77.28
113649,2018-06-29 09:44:03.531250,42.17,77.37
113650,2018-06-29 09:44:03.562500,24.85,77.37
113651,2018-06-29 09:44:03.593750,7.85,77.37
113652,2018-06-29 09:44:03.625000,-5.6,77.37
113653,2018-06-29 09:44:03.656250,-14.13,77.37
113654,2018-06-29 09:44:03.687500,-18.77,77.37
113655,2018-06-29 09:44:03.718750,-21.52,77.37
113656,2018-06-29 09:44:03.750000,-23.62,77.37
113657,2018-06-29 09:44:03.781250,-26.03,77.37
113658,2018-06-29 09:44:03.812500,-30.78,77.37
113659,2018-06-29 09:44:03.843750,-38.56,77.37
113660,2018-06-29 09:44:03.875000,-46.69,77.37
113661,2018-06-29 09:44:03.906250,-53.12,77.37
113662,2018-06-29 09:44:03.937500,-59.92,77.37
113663,2018-06-29 09:44:03.968750,-70.03,77.37
113664,2018-06-29 09:44:04.000000,-83.38,77.37
113665,2018-06-29 09:44:04.031250,-94.9,77.37
113666,2018-06-29 09:44:04.062500,-95.31,77.37
113667,2018-06-29 09:44:04.093750,-79.16,77.37
113668,2018-06-29 09:44:04.125000,-53.03,77.37
113669,2018-06-29 09:44:04.156250,-28.1,77.37
113670,2018-06-29 09:44:04.187500,-6.27,77.37
113671,2018-06-29 09:44:04.218750,17.45,77.37
113672,2018-06-29 09:44:04.250000,42.91,77.37
113673,2018-06-29 09:44:04.281250,65.33,77.37
113674,2018-06-29 09:44:04.312500,81.93,77.37
113675,2018-06-29 09:44:04.343750,90.54,77.37
113676,2018-06-29 09:44:04.375000,88.43,77.37
113677,2018-06-29 09:44:04.406250,78.42,77.37
113678,2018-06-29 09:44:04.437500,68.83,77.37
113679,2018-06-29 09:44:04.468750,64.46,77.37
113680,2018-06-29 09:44:04.500000,62.78,77.37
113681,2018-06-29 09:44:04.531250,58.1,77.58
113682,2018-06-29 09:44:04.562500,45.63,77.58
113683,2018-06-29 09:44:04.593750,25.04,77.58
113684,2018-06-29 09:44:04.625000,2.29,77.58
113685,2018-06-29 09:44:04.656250,-14.77,77.58
113686,2018-06-29 09:44:04.687500,-22.14,77.58
113687,2018-06-29 09:44:04.718750,-20.17,77.58
113688,2018-06-29 09:44:04.750000,-11.4,77.58
113689,2018-06-29 09:44:04.781250,-0.54,77.58
113690,2018-06-29 09:44:04.812500,6.63,77.58
113691,2018-06-29 09:44:04.843750,7.33,77.58
113692,2018-06-29 09:44:04.875000,2.72,77.58
113693,2018-06-29 09:44:04.906250,-4.99,77.58
113694,2018-06-29 09:44:04.937500,-14.26,77.58
113695,2018-06-29 09:44:04.968750,-22.82,77.58
113696,2018-06-29 09:44:05.000000,-28.71,77.58
113697,2018-06-29 09:44:05.031250,-34.4,77.58
113698,2018-06-29 09:44:05.062500,-44.29,77.58
113699,2018-06-29 09:44:05.093750,-56.46,77.58
113700,2018-06-29 09:44:05.125000,-60.91,77.58
113701,2018-06-29 09:44:05.156250,-50.86,77.58
113702,2018-06-29 09:44:05.187500,-31.21,77.58
113703,2018-06-29 09:44:05.218750,-10.73,77.58
113704,2018-06-29 09:44:05.250000,7.87,77.58
113705,2018-06-29 09:44:05.281250,24.98,77.58
113706,2018-06-29 09:44:05.312500,38.2,77.58
113707,2018-06-29 09:44:05.343750,45.32,77.58
113708,2018-06-29 09:44:05.375000,48.17,77.58
113709,2018-06-29 09:44:05.406250,49.46,77.58
113710,2018-06-29 09:44:05.437500,50.29,77.58
113711,2018-06-29 09:44:05.468750,51.76,77.58
113712,2018-06-29 09:44:05.500000,55.89,77.58
113713,2018-06-29 09:44:05.531250,62.4,77.73
113714,2018-06-29 09:44:05.562500,67.28,77.73
113715,2018-06-29 09:44:05.593750,66.78,77.73
113716,2018-06-29 09:44:05.625000,60.88,77.73
113717,2018-06-29 09:44:05.656250,51.61,77.73
113718,2018-06-29 09:44:05.687500,40.14,77.73
113719,2018-06-29 09:44:05.718750,26.99,77.73
113720,2018-06-29 09:44:05.750000,13.04,77.73
113721,2018-06-29 09:44:05.781250,-0.57,77.73
113722,2018-06-29 09:44:05.812500,-12.97,77.73
113723,2018-06-29 09:44:05.843750,-22.96,77.73
113724,2018-06-29 09:44:05.875000,-29.25,77.73
113725,2018-06-29 09:44:05.906250,-32.85,77.73
113726,2018-06-29 09:44:05.937500,-36.99,77.73
113727,2018-06-29 09:44:05.968750,-43.36,77.73
113728,2018-06-29 09:44:06.000000,-50.74,77.73
113729,2018-06-29 09:44:06.031250,-58.31,77.73
113730,2018-06-29 09:44:06.062500,-67.64,77.73
113731,2018-06-29 09:44:06.093750,-80.86,77.73
113732,2018-06-29 09:44:06.125000,-97.48,77.73
113733,2018-06-29 09:44:06.156250,-111.34,77.73
113734,2018-06-29 09:44:06.187500,-112.4,77.73
113735,2018-06-29 09:44:06.218750,-96.04,77.73
113736,2018-06-29 09:44:06.250000,-69.07,77.73
113737,2018-06-29 09:44:06.281250,-42.62,77.73
113738,2018-06-29 09:44:06.312500,-21.62,77.73
113739,2018-06-29 09:44:06.343750,-4.67,77.73
113740,2018-06-29 09:44:06.375000,9.43,77.73
113741,2018-06-29 09:44:06.406250,20.81,77.73
113742,2018-06-29 09:44:06.437500,31.25,77.73
113743,2018-06-29 09:44:06.468750,42.37,77.73
113744,2018-06-29 09:44:06.500000,52.86,77.73
113745,2018-06-29 09:44:06.531250,61.0,78.0
113746,2018-06-29 09:44:06.562500,67.06,78.0
113747,2018-06-29 09:44:06.593750,70.55,78.0
113748,2018-06-29 09:44:06.625000,68.7,78.0
113749,2018-06-29 09:44:06.656250,60.71,78.0
113750,2018-06-29 09:44:06.687500,50.04,78.0
113751,2018-06-29 09:44:06.718750,40.47,78.0
113752,2018-06-29 09:44:06.750000,32.19,78.0
113753,2018-06-29 09:44:06.781250,23.4,78.0
113754,2018-06-29 09:44:06.812500,13.94,78.0
113755,2018-06-29 09:44:06.843750,5.32,78.0
113756,2018-06-29 09:44:06.875000,-1.94,78.0
113757,2018-06-29 09:44:06.906250,-9.49,78.0
113758,2018-06-29 09:44:06.937500,-18.74,78.0
113759,2018-06-29 09:44:06.968750,-28.39,78.0
113760,2018-06-29 09:44:07.000000,-36.1,78.0
113761,2018-06-29 09:44:07.031250,-41.41,78.0
113762,2018-06-29 09:44:07.062500,-46.07,78.0
113763,2018-06-29 09:44:07.093750,-51.81,78.0
113764,2018-06-29 09:44:07.125000,-57.14,78.0
113765,2018-06-29 09:44:07.156250,-55.45,78.0
113766,2018-06-29 09:44:07.187500,-40.57,78.0
113767,2018-06-29 09:44:07.218750,-16.04,78.0
113768,2018-06-29 09:44:07.250000,6.92,78.0
113769,2018-06-29 09:44:07.281250,20.75,78.0
113770,2018-06-29 09:44:07.312500,26.36,78.0
113771,2018-06-29 09:44:07.343750,27.59,78.0
113772,2018-06-29 09:44:07.375000,26.69,78.0
113773,2018-06-29 09:44:07.406250,25.2,78.0
113774,2018-06-29 09:44:07.437500,25.06,78.0
113775,2018-06-29 09:44:07.468750,27.53,78.0
113776,2018-06-29 09:44:07.500000,31.43,78.0
113777,2018-06-29 09:44:07.531250,35.03,78.15
113778,2018-06-29 09:44:07.562500,38.06,78.15
113779,2018-06-29 09:44:07.593750,39.53,78.15
113780,2018-06-29 09:44:07.625000,37.17,78.15
113781,2018-06-29 09:44:07.656250,31.62,78.15
113782,2018-06-29 09:44:07.687500,26.22,78.15
113783,2018-06-29 09:44:07.718750,21.38,78.15
113784,2018-06-29 09:44:07.750000,13.97,78.15
113785,2018-06-29 09:44:07.781250,3.8,78.15
113786,2018-06-29 09:44:07.812500,-5.12,78.15
113787,2018-06-29 09:44:07.843750,-9.9,78.15
113788,2018-06-29 09:44:07.875000,-12.22,78.15
113789,2018-06-29 09:44:07.906250,-15.82,78.15
113790,2018-06-29 09:44:07.937500,-20.55,78.15
113791,2018-06-29 09:44:07.968750,-19.61,78.15
113792,2018-06-29 09:44:08.000000,-6.54,78.15
113793,2018-06-29 09:44:08.031250,14.21,78.15
113794,2018-06-29 09:44:08.062500,29.08,78.15
113795,2018-06-29 09:44:08.093750,29.19,78.15
113796,2018-06-29 09:44:08.125000,17.01,78.15
113797,2018-06-29 09:44:08.156250,0.67,78.15
113798,2018-06-29 09:44:08.187500,-14.31,78.15
113799,2018-06-29 09:44:08.218750,-27.51,78.15
113800,2018-06-29 09:44:08.250000,-37.94,78.15
113801,2018-06-29 09:44:08.281250,-39.42,78.15
113802,2018-06-29 09:44:08.312500,-28.76,78.15
113803,2018-06-29 09:44:08.343750,-15.67,78.15
113804,2018-06-29 09:44:08.375000,-10.05,78.15
113805,2018-06-29 09:44:08.406250,-9.05,78.15
113806,2018-06-29 09:44:08.437500,-9.43,78.15
113807,2018-06-29 09:44:08.468750,-17.0,78.15
113808,2018-06-29 09:44:08.500000,-32.31,78.15
113809,2018-06-29 09:44:08.531250,-46.41,78.23
113810,2018-06-29 09:44:08.562500,-56.06,78.23
113811,2018-06-29 09:44:08.593750,-64.33,78.23
113812,2018-06-29 09:44:08.625000,-69.69,78.23
113813,2018-06-29 09:44:08.656250,-69.66,78.23
113814,2018-06-29 09:44:08.687500,-68.12,78.23
113815,2018-06-29 09:44:08.718750,-70.68,78.23
113816,2018-06-29 09:44:08.750000,-74.9,78.23
113817,2018-06-29 09:44:08.781250,-70.25,78.23
113818,2018-06-29 09:44:08.812500,-50.75,78.23
113819,2018-06-29 09:44:08.843750,-24.23,78.23
113820,2018-06-29 09:44:08.875000,-3.12,78.23
113821,2018-06-29 09:44:08.906250,8.78,78.23
113822,2018-06-29 09:44:08.937500,14.22,78.23
113823,2018-06-29 09:44:08.968750,15.46,78.23
113824,2018-06-29 09:44:09.000000,13.88,78.23
113825,2018-06-29 09:44:09.031250,11.84,78.23
113826,2018-06-29 09:44:09.062500,11.29,78.23
113827,2018-06-29 09:44:09.093750,12.82,78.23
113828,2018-06-29 09:44:09.125000,15.94,78.23
113829,2018-06-29 09:44:09.156250,19.59,78.23
113830,2018-06-29 09:44:09.187500,21.74,78.23
113831,2018-06-29 09:44:09.218750,19.81,78.23
113832,2018-06-29 09:44:09.250000,12.67,78.23
113833,2018-06-29 09:44:09.281250,1.71,78.23
113834,2018-06-29 09:44:09.312500,-10.3,78.23
113835,2018-06-29 09:44:09.343750,-20.98,78.23
113836,2018-06-29 09:44:09.375000,-29.53,78.23
113837,2018-06-29 09:44:09.406250,-37.3,78.23
113838,2018-06-29 09:44:09.437500,-46.89,78.23
113839,2018-06-29 09:44:09.468750,-59.68,78.23
113840,2018-06-29 09:44:09.500000,-72.97,78.23
113841,2018-06-29 09:44:09.531250,-78.7,78.35
113842,2018-06-29 09:44:09.562500,-68.91,78.35
113843,2018-06-29 09:44:09.593750,-44.64,78.35
113844,2018-06-29 09:44:09.625000,-15.65,78.35
113845,2018-06-29 09:44:09.656250,9.31,78.35
113846,2018-06-29 09:44:09.687500,28.56,78.35
113847,2018-06-29 09:44:09.718750,43.89,78.35
113848,2018-06-29 09:44:09.750000,55.93,78.35
113849,2018-06-29 09:44:09.781250,63.72,78.35
113850,2018-06-29 09:44:09.812500,66.39,78.35
113851,2018-06-29 09:44:09.843750,64.6,78.35
113852,2018-06-29 09:44:09.875000,61.37,78.35
113853,2018-06-29 09:44:09.906250,60.29,78.35
113854,2018-06-29 09:44:09.937500,61.5,78.35
113855,2018-06-29 09:44:09.968750,61.15,78.35
113856,2018-06-29 09:44:10.000000,56.34,78.35
113857,2018-06-29 09:44:10.031250,48.19,78.35
113858,2018-06-29 09:44:10.062500,39.3,78.35
113859,2018-06-29 09:44:10.093750,30.71,78.35
113860,2018-06-29 09:44:10.125000,21.58,78.35
113861,2018-06-29 09:44:10.156250,10.96,78.35
113862,2018-06-29 09:44:10.187500,-0.27,78.35
113863,2018-06-29 09:44:10.218750,-9.94,78.35
113864,2018-06-29 09:44:10.250000,-17.67,78.35
113865,2018-06-29 09:44:10.281250,-26.42,78.35
113866,2018-06-29 09:44:10.312500,-39.51,78.35
113867,2018-06-29 09:44:10.343750,-54.02,78.35
113868,2018-06-29 09:44:10.375000,-59.44,78.35
113869,2018-06-29 09:44:10.406250,-48.18,78.35
113870,2018-06-29 09:44:10.437500,-25.29,78.35
113871,2018-06-29 09:44:10.468750,-1.98,78.35
113872,2018-06-29 09:44:10.500000,16.98,78.35
113873,2018-06-29 09:44:10.531250,32.99,78.48
113874,2018-06-29 09:44:10.562500,45.94,78.48
113875,2018-06-29 09:44:10.593750,54.11,78.48
113876,2018-06-29 09:44:10.625000,57.71,78.48
113877,2018-06-29 09:44:10.656250,58.32,78.48
113878,2018-06-29 09:44:10.687500,56.95,78.48
113879,2018-06-29 09:44:10.718750,54.95,78.48
113880,2018-06-29 09:44:10.750000,54.26,78.48
113881,2018-06-29 09:44:10.781250,54.97,78.48
113882,2018-06-29 09:44:10.812500,54.51,78.48
113883,2018-06-29 09:44:10.843750,50.5,78.48
113884,2018-06-29 09:44:10.875000,43.92,78.48
113885,2018-06-29 09:44:10.906250,37.71,78.48
113886,2018-06-29 09:44:10.937500,33.19,78.48
113887,2018-06-29 09:44:10.968750,29.41,78.48
113888,2018-06-29 09:44:11.000000,24.99,78.48
113889,2018-06-29 09:44:11.031250,19.69,78.48
113890,2018-06-29 09:44:11.062500,13.71,78.48
113891,2018-06-29 09:44:11.093750,6.34,78.48
113892,2018-06-29 09:44:11.125000,-3.17,78.48
113893,2018-06-29 09:44:11.156250,-13.86,78.48
113894,2018-06-29 09:44:11.187500,-23.89,78.48
113895,2018-06-29 09:44:11.218750,-33.91,78.48
113896,2018-06-29 09:44:11.250000,-46.53,78.48
113897,2018-06-29 09:44:11.281250,-61.94,78.48
113898,2018-06-29 09:44:11.312500,-74.16,78.48
113899,2018-06-29 09:44:11.343750,-72.72,78.48
113900,2018-06-29 09:44:11.375000,-52.34,78.48
113901,2018-06-29 09:44:11.406250,-20.03,78.48
113902,2018-06-29 09:44:11.437500,11.28,78.48
113903,2018-06-29 09:44:11.468750,34.74,78.48
113904,2018-06-29 09:44:11.500000,51.15,78.48
113905,2018-06-29 09:44:11.531250,62.14,78.57
113906,2018-06-29 09:44:11.562500,67.19,78.57
113907,2018-06-29 09:44:11.593750,65.62,78.57
113908,2018-06-29 09:44:11.625000,58.87,78.57
113909,2018-06-29 09:44:11.656250,49.98,78.57
113910,2018-06-29 09:44:11.687500,41.38,78.57
113911,2018-06-29 09:44:11.718750,34.35,78.57
113912,2018-06-29 09:44:11.750000,30.28,78.57
113913,2018-06-29 09:44:11.781250,29.79,78.57
113914,2018-06-29 09:44:11.812500,30.73,78.57
113915,2018-06-29 09:44:11.843750,30.13,78.57
113916,2018-06-29 09:44:11.875000,27.48,78.57
113917,2018-06-29 09:44:11.906250,23.47,78.57
113918,2018-06-29 09:44:11.937500,17.72,78.57
113919,2018-06-29 09:44:11.968750,10.13,78.57
113920,2018-06-29 09:44:12.000000,1.85,78.57
113921,2018-06-29 09:44:12.031250,-5.97,78.57
113922,2018-06-29 09:44:12.062500,-12.59,78.57
113923,2018-06-29 09:44:12.093750,-17.38,78.57
113924,2018-06-29 09:44:12.125000,-21.02,78.57
113925,2018-06-29 09:44:12.156250,-25.93,78.57
113926,2018-06-29 09:44:12.187500,-32.89,78.57
113927,2018-06-29 09:44:12.218750,-39.76,78.57
113928,2018-06-29 09:44:12.250000,-44.71,78.57
113929,2018-06-29 09:44:12.281250,-48.81,78.57
113930,2018-06-29 09:44:12.312500,-54.98,78.57
113931,2018-06-29 09:44:12.343750,-64.87,78.57
113932,2018-06-29 09:44:12.375000,-74.45,78.57
113933,2018-06-29 09:44:12.406250,-74.06,78.57
113934,2018-06-29 09:44:12.437500,-57.96,78.57
113935,2018-06-29 09:44:12.468750,-32.54,78.57
113936,2018-06-29 09:44:12.500000,-9.29,78.57
113937,2018-06-29 09:44:12.531250,7.39,78.52
113938,2018-06-29 09:44:12.562500,20.26,78.52
113939,2018-06-29 09:44:12.593750,31.48,78.52
113940,2018-06-29 09:44:12.625000,40.27,78.52
113941,2018-06-29 09:44:12.656250,45.96,78.52
113942,2018-06-29 09:44:12.687500,48.59,78.52
113943,2018-06-29 09:44:12.718750,47.98,78.52
113944,2018-06-29 09:44:12.750000,44.85,78.52
113945,2018-06-29 09:44:12.781250,41.51,78.52
113946,2018-06-29 09:44:12.812500,39.65,78.52
113947,2018-06-29 09:44:12.843750,38.21,78.52
113948,2018-06-29 09:44:12.875000,34.72,78.52
113949,2018-06-29 09:44:12.906250,28.93,78.52
113950,2018-06-29 09:44:12.937500,23.27,78.52
113951,2018-06-29 09:44:12.968750,19.57,78.52
113952,2018-06-29 09:44:13.000000,16.89,78.52
113953,2018-06-29 09:44:13.031250,14.03,78.52
113954,2018-06-29 09:44:13.062500,11.4,78.52
113955,2018-06-29 09:44:13.093750,8.87,78.52
113956,2018-06-29 09:44:13.125000,4.98,78.52
113957,2018-06-29 09:44:13.156250,-0.72,78.52
113958,2018-06-29 09:44:13.187500,-6.95,78.52
113959,2018-06-29 09:44:13.218750,-12.54,78.52
113960,2018-06-29 09:44:13.250000,-17.46,78.52
113961,2018-06-29 09:44:13.281250,-22.41,78.52
113962,2018-06-29 09:44:13.312500,-27.93,78.52
113963,2018-06-29 09:44:13.343750,-33.63,78.52
113964,2018-06-29 09:44:13.375000,-38.34,78.52
113965,2018-06-29 09:44:13.406250,-42.43,78.52
113966,2018-06-29 09:44:13.437500,-48.63,78.52
113967,2018-06-29 09:44:13.468750,-58.28,78.52
113968,2018-06-29 09:44:13.500000,-65.94,78.52
113969,2018-06-29 09:44:13.531250,-62.47,78.43
113970,2018-06-29 09:44:13.562500,-45.31,78.43
113971,2018-06-29 09:44:13.593750,-21.86,78.43
113972,2018-06-29 09:44:13.625000,-1.14,78.43
113973,2018-06-29 09:44:13.656250,13.62,78.43
113974,2018-06-29 09:44:13.687500,23.67,78.43
113975,2018-06-29 09:44:13.718750,31.11,78.43
113976,2018-06-29 09:44:13.750000,37.65,78.43
113977,2018-06-29 09:44:13.781250,43.68,78.43
113978,2018-06-29 09:44:13.812500,48.39,78.43
113979,2018-06-29 09:44:13.843750,51.85,78.43
113980,2018-06-29 09:44:13.875000,55.37,78.43
113981,2018-06-29 09:44:13.906250,59.04,78.43
113982,2018-06-29 09:44:13.937500,60.74,78.43
113983,2018-06-29 09:44:13.968750,57.8,78.43
113984,2018-06-29 09:44:14.000000,49.15,78.43
113985,2018-06-29 09:44:14.031250,36.67,78.43
113986,2018-06-29 09:44:14.062500,24.04,78.43
113987,2018-06-29 09:44:14.093750,13.11,78.43
113988,2018-06-29 09:44:14.125000,2.89,78.43
113989,2018-06-29 09:44:14.156250,-7.7,78.43
113990,2018-06-29 09:44:14.187500,-18.01,78.43
113991,2018-06-29 09:44:14.218750,-25.79,78.43
113992,2018-06-29 09:44:14.250000,-29.31,78.43
113993,2018-06-29 09:44:14.281250,-29.53,78.43
113994,2018-06-29 09:44:14.312500,-28.99,78.43
113995,2018-06-29 09:44:14.343750,-28.96,78.43
113996,2018-06-29 09:44:14.375000,-30.11,78.43
113997,2018-06-29 09:44:14.406250,-33.93,78.43
113998,2018-06-29 09:44:14.437500,-40.91,78.43
113999,2018-06-29 09:44:14.468750,-49.4,78.43
114000,2018-06-29 09:44:14.500000,-57.38,78.43
114001,2018-06-29 09:44:14.531250,-64.42,78.28
114002,2018-06-29 09:44:14.562500,-71.7,78.28
114003,2018-06-29 09:44:14.593750,-78.08,78.28
114004,2018-06-29 09:44:14.625000,-77.66,78.28
114005,2018-06-29 09:44:14.656250,-65.7,78.28
114006,2018-06-29 09:44:14.687500,-46.36,78.28
114007,2018-06-29 09:44:14.718750,-28.04,78.28
114008,2018-06-29 09:44:14.750000,-13.73,78.28
114009,2018-06-29 09:44:14.781250,-1.98,78.28
114010,2018-06-29 09:44:14.812500,7.55,78.28
114011,2018-06-29 09:44:14.843750,14.32,78.28
114012,2018-06-29 09:44:14.875000,18.93,78.28
114013,2018-06-29 09:44:14.906250,21.64,78.28
114014,2018-06-29 09:44:14.937500,22.23,78.28
114015,2018-06-29 09:44:14.968750,22.1,78.28
114016,2018-06-29 09:44:15.000000,23.03,78.28
114017,2018-06-29 09:44:15.031250,24.46,78.28
114018,2018-06-29 09:44:15.062500,23.84,78.28
114019,2018-06-29 09:44:15.093750,19.66,78.28
114020,2018-06-29 09:44:15.125000,13.11,78.28
114021,2018-06-29 09:44:15.156250,6.7,78.28
114022,2018-06-29 09:44:15.187500,1.44,78.28
114023,2018-06-29 09:44:15.218750,-4.02,78.28
114024,2018-06-29 09:44:15.250000,-10.77,78.28
114025,2018-06-29 09:44:15.281250,-18.27,78.28
114026,2018-06-29 09:44:15.312500,-25.86,78.28
114027,2018-06-29 09:44:15.343750,-33.24,78.28
114028,2018-06-29 09:44:15.375000,-39.6,78.28
114029,2018-06-29 09:44:15.406250,-44.4,78.28
114030,2018-06-29 09:44:15.437500,-47.62,78.28
114031,2018-06-29 09:44:15.468750,-49.15,78.28
114032,2018-06-29 09:44:15.500000,-49.05,78.28
114033,2018-06-29 09:44:15.531250,-47.7,78.17
114034,2018-06-29 09:44:15.562500,-45.23,78.17
114035,2018-06-29 09:44:15.593750,-42.52,78.17
114036,2018-06-29 09:44:15.625000,-41.79,78.17
114037,2018-06-29 09:44:15.656250,-44.21,78.17
114038,2018-06-29 09:44:15.687500,-45.83,78.17
114039,2018-06-29 09:44:15.718750,-38.85,78.17
114040,2018-06-29 09:44:15.750000,-19.71,78.17
114041,2018-06-29 09:44:15.781250,5.01,78.17
114042,2018-06-29 09:44:15.812500,25.54,78.17
114043,2018-06-29 09:44:15.843750,38.9,78.17
114044,2018-06-29 09:44:15.875000,48.13,78.17
114045,2018-06-29 09:44:15.906250,55.31,78.17
114046,2018-06-29 09:44:15.937500,59.08,78.17
114047,2018-06-29 09:44:15.968750,57.68,78.17
114048,2018-06-29 09:44:16.000000,51.89,78.17
114049,2018-06-29 09:44:16.031250,44.53,78.17
114050,2018-06-29 09:44:16.062500,37.54,78.17
114051,2018-06-29 09:44:16.093750,31.65,78.17
114052,2018-06-29 09:44:16.125000,27.48,78.17
114053,2018-06-29 09:44:16.156250,24.56,78.17
114054,2018-06-29 09:44:16.187500,20.87,78.17
114055,2018-06-29 09:44:16.218750,15.86,78.17
114056,2018-06-29 09:44:16.250000,11.14,78.17
114057,2018-06-29 09:44:16.281250,7.7,78.17
114058,2018-06-29 09:44:16.312500,5.18,78.17
114059,2018-06-29 09:44:16.343750,3.48,78.17
114060,2018-06-29 09:44:16.375000,2.4,78.17
114061,2018-06-29 09:44:16.406250,1.16,78.17
114062,2018-06-29 09:44:16.437500,-1.02,78.17
114063,2018-06-29 09:44:16.468750,-4.49,78.17
114064,2018-06-29 09:44:16.500000,-9.17,78.17
114065,2018-06-29 09:44:16.531250,-14.07,78.07
114066,2018-06-29 09:44:16.562500,-18.04,78.07
114067,2018-06-29 09:44:16.593750,-21.8,78.07
114068,2018-06-29 09:44:16.625000,-27.61,78.07
114069,2018-06-29 09:44:16.656250,-36.31,78.07
114070,2018-06-29 09:44:16.687500,-45.21,78.07
114071,2018-06-29 09:44:16.718750,-48.5,78.07
114072,2018-06-29 09:44:16.750000,-41.19,78.07
114073,2018-06-29 09:44:16.781250,-24.58,78.07
114074,2018-06-29 09:44:16.812500,-6.2,78.07
114075,2018-06-29 09:44:16.843750,7.46,78.07
114076,2018-06-29 09:44:16.875000,15.7,78.07
114077,2018-06-29 09:44:16.906250,20.74,78.07
114078,2018-06-29 09:44:16.937500,23.56,78.07
114079,2018-06-29 09:44:16.968750,24.23,78.07
114080,2018-06-29 09:44:17.000000,23.53,78.07
114081,2018-06-29 09:44:17.031250,22.95,78.07
114082,2018-06-29 09:44:17.062500,23.28,78.07
114083,2018-06-29 09:44:17.093750,24.04,78.07
114084,2018-06-29 09:44:17.125000,24.39,78.07
114085,2018-06-29 09:44:17.156250,24.11,78.07
114086,2018-06-29 09:44:17.187500,23.02,78.07
114087,2018-06-29 09:44:17.218750,20.32,78.07
114088,2018-06-29 09:44:17.250000,15.28,78.07
114089,2018-06-29 09:44:17.281250,8.36,78.07
114090,2018-06-29 09:44:17.312500,1.06,78.07
114091,2018-06-29 09:44:17.343750,-5.16,78.07
114092,2018-06-29 09:44:17.375000,-10.03,78.07
114093,2018-06-29 09:44:17.406250,-14.74,78.07
114094,2018-06-29 09:44:17.437500,-20.06,78.07
114095,2018-06-29 09:44:17.468750,-25.24,78.07
114096,2018-06-29 09:44:17.500000,-30.31,78.07
114097,2018-06-29 09:44:17.531250,-37.29,77.93
114098,2018-06-29 09:44:17.562500,-47.11,77.93
114099,2018-06-29 09:44:17.593750,-56.84,77.93
114100,2018-06-29 09:44:17.625000,-60.44,77.93
114101,2018-06-29 09:44:17.656250,-53.42,77.93
114102,2018-06-29 09:44:17.687500,-37.75,77.93
114103,2018-06-29 09:44:17.718750,-20.93,77.93
114104,2018-06-29 09:44:17.750000,-8.53,77.93
114105,2018-06-29 09:44:17.781250,-0.54,77.93
114106,2018-06-29 09:44:17.812500,4.78,77.93
114107,2018-06-29 09:44:17.843750,7.94,77.93
114108,2018-06-29 09:44:17.875000,10.09,77.93
114109,2018-06-29 09:44:17.906250,13.49,77.93
114110,2018-06-29 09:44:17.937500,18.32,77.93
114111,2018-06-29 09:44:17.968750,22.42,77.93
114112,2018-06-29 09:44:18.000000,24.46,77.93
114113,2018-06-29 09:44:18.031250,24.83,77.93
114114,2018-06-29 09:44:18.062500,24.22,77.93
114115,2018-06-29 09:44:18.093750,23.0,77.93
114116,2018-06-29 09:44:18.125000,21.46,77.93
114117,2018-06-29 09:44:18.156250,19.33,77.93
114118,2018-06-29 09:44:18.187500,15.95,77.93
114119,2018-06-29 09:44:18.218750,11.4,77.93
114120,2018-06-29 09:44:18.250000,6.64,77.93
114121,2018-06-29 09:44:18.281250,2.37,77.93
114122,2018-06-29 09:44:18.312500,-2.43,77.93
114123,2018-06-29 09:44:18.343750,-10.38,77.93
114124,2018-06-29 09:44:18.375000,-22.21,77.93
114125,2018-06-29 09:44:18.406250,-32.3,77.93
114126,2018-06-29 09:44:18.437500,-31.28,77.93
114127,2018-06-29 09:44:18.468750,-16.14,77.93
114128,2018-06-29 09:44:18.500000,5.8,77.93
114129,2018-06-29 09:44:18.531250,24.95,77.77
114130,2018-06-29 09:44:18.562500,37.47,77.77
114131,2018-06-29 09:44:18.593750,44.42,77.77
114132,2018-06-29 09:44:18.625000,47.01,77.77
114133,2018-06-29 09:44:18.656250,45.64,77.77
114134,2018-06-29 09:44:18.687500,41.6,77.77
114135,2018-06-29 09:44:18.718750,37.71,77.77
114136,2018-06-29 09:44:18.750000,36.05,77.77
114137,2018-06-29 09:44:18.781250,36.1,77.77
114138,2018-06-29 09:44:18.812500,35.5,77.77
114139,2018-06-29 09:44:18.843750,32.58,77.77
114140,2018-06-29 09:44:18.875000,26.88,77.77
114141,2018-06-29 09:44:18.906250,18.8,77.77
114142,2018-06-29 09:44:18.937500,9.32,77.77
114143,2018-06-29 09:44:18.968750,-1.16,77.77
114144,2018-06-29 09:44:19.000000,-13.33,77.77
114145,2018-06-29 09:44:19.031250,-27.15,77.77
114146,2018-06-29 09:44:19.062500,-41.14,77.77
114147,2018-06-29 09:44:19.093750,-54.25,77.77
114148,2018-06-29 09:44:19.125000,-67.13,77.77
114149,2018-06-29 09:44:19.156250,-79.26,77.77
114150,2018-06-29 09:44:19.187500,-84.79,77.77
114151,2018-06-29 09:44:19.218750,-75.31,77.77
114152,2018-06-29 09:44:19.250000,-49.72,77.77
114153,2018-06-29 09:44:19.281250,-17.66,77.77
114154,2018-06-29 09:44:19.312500,9.74,77.77
114155,2018-06-29 09:44:19.343750,29.04,77.77
114156,2018-06-29 09:44:19.375000,42.34,77.77
114157,2018-06-29 09:44:19.406250,50.85,77.77
114158,2018-06-29 09:44:19.437500,54.05,77.77
114159,2018-06-29 09:44:19.468750,52.26,77.77
114160,2018-06-29 09:44:19.500000,47.32,77.77
114161,2018-06-29 09:44:19.531250,41.49,77.3
114162,2018-06-29 09:44:19.562500,36.2,77.3
114163,2018-06-29 09:44:19.593750,31.71,77.3
114164,2018-06-29 09:44:19.625000,27.43,77.3
114165,2018-06-29 09:44:19.656250,22.52,77.3
114166,2018-06-29 09:44:19.687500,15.99,77.3
114167,2018-06-29 09:44:19.718750,7.22,77.3
114168,2018-06-29 09:44:19.750000,-3.11,77.3
114169,2018-06-29 09:44:19.781250,-13.14,77.3
114170,2018-06-29 09:44:19.812500,-21.48,77.3
114171,2018-06-29 09:44:19.843750,-29.05,77.3
114172,2018-06-29 09:44:19.875000,-39.07,77.3
114173,2018-06-29 09:44:19.906250,-53.27,77.3
114174,2018-06-29 09:44:19.937500,-66.43,77.3
114175,2018-06-29 09:44:19.968750,-68.19,77.3
114176,2018-06-29 09:44:20.000000,-54.05,77.3
114177,2018-06-29 09:44:20.031250,-31.42,77.3
114178,2018-06-29 09:44:20.062500,-11.75,77.3
114179,2018-06-29 09:44:20.093750,0.06,77.3
114180,2018-06-29 09:44:20.125000,5.54,77.3
114181,2018-06-29 09:44:20.156250,6.48,77.3
114182,2018-06-29 09:44:20.187500,3.44,77.3
114183,2018-06-29 09:44:20.218750,-1.83,77.3
114184,2018-06-29 09:44:20.250000,-6.41,77.3
114185,2018-06-29 09:44:20.281250,-8.33,77.3
114186,2018-06-29 09:44:20.312500,-8.1,77.3
114187,2018-06-29 09:44:20.343750,-8.26,77.3
114188,2018-06-29 09:44:20.375000,-10.91,77.3
114189,2018-06-29 09:44:20.406250,-14.72,77.3
114190,2018-06-29 09:44:20.437500,-15.97,77.3
114191,2018-06-29 09:44:20.468750,-13.66,77.3
114192,2018-06-29 09:44:20.500000,-10.36,77.3
114193,2018-06-29 09:44:20.531250,-8.64,76.87
114194,2018-06-29 09:44:20.562500,-9.96,76.87
114195,2018-06-29 09:44:20.593750,-15.72,76.87
114196,2018-06-29 09:44:20.625000,-25.56,76.87
114197,2018-06-29 09:44:20.656250,-37.42,76.87
114198,2018-06-29 09:44:20.687500,-51.24,76.87
114199,2018-06-29 09:44:20.718750,-69.27,76.87
114200,2018-06-29 09:44:20.750000,-89.09,76.87
114201,2018-06-29 09:44:20.781250,-98.8,76.87
114202,2018-06-29 09:44:20.812500,-86.16,76.87
114203,2018-06-29 09:44:20.843750,-53.54,76.87
114204,2018-06-29 09:44:20.875000,-16.25,76.87
114205,2018-06-29 09:44:20.906250,14.25,76.87
114206,2018-06-29 09:44:20.937500,38.42,76.87
114207,2018-06-29 09:44:20.968750,60.34,76.87
114208,2018-06-29 09:44:21.000000,79.72,76.87
114209,2018-06-29 09:44:21.031250,92.99,76.87
114210,2018-06-29 09:44:21.062500,98.32,76.87
114211,2018-06-29 09:44:21.093750,97.65,76.87
114212,2018-06-29 09:44:21.125000,94.17,76.87
114213,2018-06-29 09:44:21.156250,90.24,76.87
114214,2018-06-29 09:44:21.187500,87.42,76.87
114215,2018-06-29 09:44:21.218750,85.56,76.87
114216,2018-06-29 09:44:21.250000,82.25,76.87
114217,2018-06-29 09:44:21.281250,75.52,76.87
114218,2018-06-29 09:44:21.312500,66.6,76.87
114219,2018-06-29 09:44:21.343750,58.55,76.87
114220,2018-06-29 09:44:21.375000,53.09,76.87
114221,2018-06-29 09:44:21.406250,48.97,76.87
114222,2018-06-29 09:44:21.437500,43.42,76.87
114223,2018-06-29 09:44:21.468750,35.49,76.87
114224,2018-06-29 09:44:21.500000,26.88,76.87
114225,2018-06-29 09:44:21.531250,19.2,76.42
114226,2018-06-29 09:44:21.562500,11.27,76.42
114227,2018-06-29 09:44:21.593750,0.31,76.42
114228,2018-06-29 09:44:21.625000,-14.67,76.42
114229,2018-06-29 09:44:21.656250,-31.39,76.42
114230,2018-06-29 09:44:21.687500,-46.58,76.42
114231,2018-06-29 09:44:21.718750,-59.7,76.42
114232,2018-06-29 09:44:21.750000,-73.71,76.42
114233,2018-06-29 09:44:21.781250,-90.83,76.42
114234,2018-06-29 09:44:21.812500,-105.94,76.42
114235,2018-06-29 09:44:21.843750,-106.82,76.42
114236,2018-06-29 09:44:21.875000,-86.39,76.42
114237,2018-06-29 09:44:21.906250,-52.49,76.42
114238,2018-06-29 09:44:21.937500,-19.77,76.42
114239,2018-06-29 09:44:21.968750,5.05,76.42
114240,2018-06-29 09:44:22.000000,24.62,76.42
114241,2018-06-29 09:44:22.031250,41.35,76.42
114242,2018-06-29 09:44:22.062500,53.1,76.42
114243,2018-06-29 09:44:22.093750,57.25,76.42
114244,2018-06-29 09:44:22.125000,55.0,76.42
114245,2018-06-29 09:44:22.156250,50.17,76.42
114246,2018-06-29 09:44:22.187500,45.61,76.42
114247,2018-06-29 09:44:22.218750,42.56,76.42
114248,2018-06-29 09:44:22.250000,41.54,76.42
114249,2018-06-29 09:44:22.281250,41.31,76.42
114250,2018-06-29 09:44:22.312500,38.97,76.42
114251,2018-06-29 09:44:22.343750,33.24,76.42
114252,2018-06-29 09:44:22.375000,25.75,76.42
114253,2018-06-29 09:44:22.406250,18.22,76.42
114254,2018-06-29 09:44:22.437500,10.48,76.42
114255,2018-06-29 09:44:22.468750,1.43,76.42
114256,2018-06-29 09:44:22.500000,-9.47,76.42
114257,2018-06-29 09:44:22.531250,-21.03,76.1
114258,2018-06-29 09:44:22.562500,-30.7,76.1
114259,2018-06-29 09:44:22.593750,-37.84,76.1
114260,2018-06-29 09:44:22.625000,-45.2,76.1
114261,2018-06-29 09:44:22.656250,-55.52,76.1
114262,2018-06-29 09:44:22.687500,-67.85,76.1
114263,2018-06-29 09:44:22.718750,-75.89,76.1
114264,2018-06-29 09:44:22.750000,-70.32,76.1
114265,2018-06-29 09:44:22.781250,-47.7,76.1
114266,2018-06-29 09:44:22.812500,-16.57,76.1
114267,2018-06-29 09:44:22.843750,10.73,76.1
114268,2018-06-29 09:44:22.875000,30.1,76.1
114269,2018-06-29 09:44:22.906250,44.19,76.1
114270,2018-06-29 09:44:22.937500,53.95,76.1
114271,2018-06-29 09:44:22.968750,58.05,76.1
114272,2018-06-29 09:44:23.000000,57.43,76.1
114273,2018-06-29 09:44:23.031250,55.28,76.1
114274,2018-06-29 09:44:23.062500,53.34,76.1
114275,2018-06-29 09:44:23.093750,51.63,76.1
114276,2018-06-29 09:44:23.125000,50.08,76.1
114277,2018-06-29 09:44:23.156250,47.78,76.1
114278,2018-06-29 09:44:23.187500,42.83,76.1
114279,2018-06-29 09:44:23.218750,34.74,76.1
114280,2018-06-29 09:44:23.250000,25.46,76.1
114281,2018-06-29 09:44:23.281250,17.09,76.1
114282,2018-06-29 09:44:23.312500,10.07,76.1
114283,2018-06-29 09:44:23.343750,3.54,76.1
114284,2018-06-29 09:44:23.375000,-3.38,76.1
114285,2018-06-29 09:44:23.406250,-10.81,76.1
114286,2018-06-29 09:44:23.437500,-18.5,76.1
114287,2018-06-29 09:44:23.468750,-26.68,76.1
114288,2018-06-29 09:44:23.500000,-35.28,76.1
114289,2018-06-29 09:44:23.531250,-43.25,75.7
114290,2018-06-29 09:44:23.562500,-50.55,75.7
114291,2018-06-29 09:44:23.593750,-59.89,75.7
114292,2018-06-29 09:44:23.625000,-72.26,75.7
114293,2018-06-29 09:44:23.656250,-81.71,75.7
114294,2018-06-29 09:44:23.687500,-79.26,75.7
114295,2018-06-29 09:44:23.718750,-62.89,75.7
114296,2018-06-29 09:44:23.750000,-39.63,75.7
114297,2018-06-29 09:44:23.781250,-17.6,75.7
114298,2018-06-29 09:44:23.812500,0.54,75.7
114299,2018-06-29 09:44:23.843750,16.28,75.7
114300,2018-06-29 09:44:23.875000,30.57,75.7
114301,2018-06-29 09:44:23.906250,42.03,75.7
114302,2018-06-29 09:44:23.937500,48.47,75.7
114303,2018-06-29 09:44:23.968750,49.7,75.7
114304,2018-06-29 09:44:24.000000,47.9,75.7
114305,2018-06-29 09:44:24.031250,45.61,75.7
114306,2018-06-29 09:44:24.062500,44.08,75.7
114307,2018-06-29 09:44:24.093750,43.19,75.7
114308,2018-06-29 09:44:24.125000,41.7,75.7
114309,2018-06-29 09:44:24.156250,37.96,75.7
114310,2018-06-29 09:44:24.187500,32.03,75.7
114311,2018-06-29 09:44:24.218750,26.2,75.7
114312,2018-06-29 09:44:24.250000,22.28,75.7
114313,2018-06-29 09:44:24.281250,19.54,75.7
114314,2018-06-29 09:44:24.312500,16.19,75.7
114315,2018-06-29 09:44:24.343750,11.16,75.7
114316,2018-06-29 09:44:24.375000,4.59,75.7
114317,2018-06-29 09:44:24.406250,-2.47,75.7
114318,2018-06-29 09:44:24.437500,-9.79,75.7
114319,2018-06-29 09:44:24.468750,-18.57,75.7
114320,2018-06-29 09:44:24.500000,-28.84,75.7
114321,2018-06-29 09:44:24.531250,-38.12,75.3
114322,2018-06-29 09:44:24.562500,-44.51,75.3
114323,2018-06-29 09:44:24.593750,-49.14,75.3
114324,2018-06-29 09:44:24.625000,-54.5,75.3
114325,2018-06-29 09:44:24.656250,-61.66,75.3
114326,2018-06-29 09:44:24.687500,-67.43,75.3
114327,2018-06-29 09:44:24.718750,-63.97,75.3
114328,2018-06-29 09:44:24.750000,-46.09,75.3
114329,2018-06-29 09:44:24.781250,-19.64,75.3
114330,2018-06-29 09:44:24.812500,3.32,75.3
114331,2018-06-29 09:44:24.843750,16.73,75.3
114332,2018-06-29 09:44:24.875000,22.97,75.3
114333,2018-06-29 09:44:24.906250,25.62,75.3
114334,2018-06-29 09:44:24.937500,25.82,75.3
114335,2018-06-29 09:44:24.968750,24.5,75.3
114336,2018-06-29 09:44:25.000000,23.55,75.3
114337,2018-06-29 09:44:25.031250,24.35,75.3
114338,2018-06-29 09:44:25.062500,26.88,75.3
114339,2018-06-29 09:44:25.093750,30.65,75.3
114340,2018-06-29 09:44:25.125000,34.36,75.3
114341,2018-06-29 09:44:25.156250,35.65,75.3
114342,2018-06-29 09:44:25.187500,33.22,75.3
114343,2018-06-29 09:44:25.218750,28.59,75.3
114344,2018-06-29 09:44:25.250000,24.06,75.3
114345,2018-06-29 09:44:25.281250,20.64,75.3
114346,2018-06-29 09:44:25.312500,18.44,75.3
114347,2018-06-29 09:44:25.343750,17.02,75.3
114348,2018-06-29 09:44:25.375000,15.23,75.3
114349,2018-06-29 09:44:25.406250,12.16,75.3
114350,2018-06-29 09:44:25.437500,7.78,75.3
114351,2018-06-29 09:44:25.468750,2.64,75.3
114352,2018-06-29 09:44:25.500000,-2.12,75.3
114353,2018-06-29 09:44:25.531250,-4.81,74.9
114354,2018-06-29 09:44:25.562500,-5.05,74.9
114355,2018-06-29 09:44:25.593750,-4.31,74.9
114356,2018-06-29 09:44:25.625000,-2.51,74.9
114357,2018-06-29 09:44:25.656250,2.19,74.9
114358,2018-06-29 09:44:25.687500,8.65,74.9
114359,2018-06-29 09:44:25.718750,11.82,74.9
114360,2018-06-29 09:44:25.750000,8.27,74.9
114361,2018-06-29 09:44:25.781250,-0.91,74.9
114362,2018-06-29 09:44:25.812500,-11.43,74.9
114363,2018-06-29 09:44:25.843750,-17.26,74.9
114364,2018-06-29 09:44:25.875000,-15.17,74.9
114365,2018-06-29 09:44:25.906250,-9.35,74.9
114366,2018-06-29 09:44:25.937500,-5.79,74.9
114367,2018-06-29 09:44:25.968750,-2.99,74.9
114368,2018-06-29 09:44:26.000000,3.81,74.9
114369,2018-06-29 09:44:26.031250,11.93,74.9
114370,2018-06-29 09:44:26.062500,13.85,74.9
114371,2018-06-29 09:44:26.093750,8.29,74.9
114372,2018-06-29 09:44:26.125000,1.17,74.9
114373,2018-06-29 09:44:26.156250,-2.89,74.9
114374,2018-06-29 09:44:26.187500,-3.77,74.9
114375,2018-06-29 09:44:26.218750,-3.89,74.9
114376,2018-06-29 09:44:26.250000,-7.27,74.9
114377,2018-06-29 09:44:26.281250,-17.6,74.9
114378,2018-06-29 09:44:26.312500,-33.77,74.9
114379,2018-06-29 09:44:26.343750,-50.21,74.9
114380,2018-06-29 09:44:26.375000,-62.19,74.9
114381,2018-06-29 09:44:26.406250,-67.64,74.9
114382,2018-06-29 09:44:26.437500,-66.59,74.9
114383,2018-06-29 09:44:26.468750,-63.54,74.9
114384,2018-06-29 09:44:26.500000,-68.25,74.9
114385,2018-06-29 09:44:26.531250,-86.33,74.62
114386,2018-06-29 09:44:26.562500,-107.47,74.62
114387,2018-06-29 09:44:26.593750,-109.59,74.62
114388,2018-06-29 09:44:26.625000,-78.33,74.62
114389,2018-06-29 09:44:26.656250,-20.59,74.62
114390,2018-06-29 09:44:26.687500,41.52,74.62
114391,2018-06-29 09:44:26.718750,86.57,74.62
114392,2018-06-29 09:44:26.750000,103.68,74.62
114393,2018-06-29 09:44:26.781250,94.17,74.62
114394,2018-06-29 09:44:26.812500,69.49,74.62
114395,2018-06-29 09:44:26.843750,44.67,74.62
114396,2018-06-29 09:44:26.875000,28.59,74.62
114397,2018-06-29 09:44:26.906250,20.04,74.62
114398,2018-06-29 09:44:26.937500,14.34,74.62
114399,2018-06-29 09:44:26.968750,10.76,74.62
114400,2018-06-29 09:44:27.000000,10.33,74.62
114401,2018-06-29 09:44:27.031250,10.67,74.62
114402,2018-06-29 09:44:27.062500,9.06,74.62
114403,2018-06-29 09:44:27.093750,7.84,74.62
114404,2018-06-29 09:44:27.125000,11.01,74.62
114405,2018-06-29 09:44:27.156250,17.98,74.62
114406,2018-06-29 09:44:27.187500,25.39,74.62
114407,2018-06-29 09:44:27.218750,33.26,74.62
114408,2018-06-29 09:44:27.250000,42.54,74.62
114409,2018-06-29 09:44:27.281250,49.91,74.62
114410,2018-06-29 09:44:27.312500,50.22,74.62
114411,2018-06-29 09:44:27.343750,43.7,74.62
114412,2018-06-29 09:44:27.375000,33.0,74.62
114413,2018-06-29 09:44:27.406250,18.17,74.62
114414,2018-06-29 09:44:27.437500,1.44,74.62
114415,2018-06-29 09:44:27.468750,-12.01,74.62
114416,2018-06-29 09:44:27.500000,-23.07,74.62
114417,2018-06-29 09:44:27.531250,-37.31,74.35
114418,2018-06-29 09:44:27.562500,-54.64,74.35
114419,2018-06-29 09:44:27.593750,-70.74,74.35
114420,2018-06-29 09:44:27.625000,-85.14,74.35
114421,2018-06-29 09:44:27.656250,-99.56,74.35
114422,2018-06-29 09:44:27.687500,-113.26,74.35
114423,2018-06-29 09:44:27.718750,-122.05,74.35
114424,2018-06-29 09:44:27.750000,-119.94,74.35
114425,2018-06-29 09:44:27.781250,-105.67,74.35
114426,2018-06-29 09:44:27.812500,-84.43,74.35
114427,2018-06-29 09:44:27.843750,-61.88,74.35
114428,2018-06-29 09:44:27.875000,-38.88,74.35
114429,2018-06-29 09:44:27.906250,-14.76,74.35
114430,2018-06-29 09:44:27.937500,8.35,74.35
114431,2018-06-29 09:44:27.968750,27.34,74.35
114432,2018-06-29 09:44:28.000000,41.87,74.35
114433,2018-06-29 09:44:28.031250,52.98,74.35
114434,2018-06-29 09:44:28.062500,60.53,74.35
114435,2018-06-29 09:44:28.093750,64.22,74.35
114436,2018-06-29 09:44:28.125000,65.48,74.35
114437,2018-06-29 09:44:28.156250,65.12,74.35
114438,2018-06-29 09:44:28.187500,61.87,74.35
114439,2018-06-29 09:44:28.218750,55.39,74.35
114440,2018-06-29 09:44:28.250000,48.05,74.35
114441,2018-06-29 09:44:28.281250,42.13,74.35
114442,2018-06-29 09:44:28.312500,36.96,74.35
114443,2018-06-29 09:44:28.343750,29.71,74.35
114444,2018-06-29 09:44:28.375000,17.93,74.35
114445,2018-06-29 09:44:28.406250,1.31,74.35
114446,2018-06-29 09:44:28.437500,-18.83,74.35
114447,2018-06-29 09:44:28.468750,-41.22,74.35
114448,2018-06-29 09:44:28.500000,-65.15,74.35
114449,2018-06-29 09:44:28.531250,-89.12,74.12
114450,2018-06-29 09:44:28.562500,-109.15,74.12
114451,2018-06-29 09:44:28.593750,-118.84,74.12
114452,2018-06-29 09:44:28.625000,-113.93,74.12
114453,2018-06-29 09:44:28.656250,-98.2,74.12
114454,2018-06-29 09:44:28.687500,-80.85,74.12
114455,2018-06-29 09:44:28.718750,-67.11,74.12
114456,2018-06-29 09:44:28.750000,-56.03,74.12
114457,2018-06-29 09:44:28.781250,-46.3,74.12
114458,2018-06-29 09:44:28.812500,-37.83,74.12
114459,2018-06-29 09:44:28.843750,-29.68,74.12
114460,2018-06-29 09:44:28.875000,-21.34,74.12
114461,2018-06-29 09:44:28.906250,-13.42,74.12
114462,2018-06-29 09:44:28.937500,-5.46,74.12
114463,2018-06-29 09:44:28.968750,4.19,74.12
114464,2018-06-29 09:44:29.000000,14.87,74.12
114465,2018-06-29 09:44:29.031250,22.91,74.12
114466,2018-06-29 09:44:29.062500,25.28,74.12
114467,2018-06-29 09:44:29.093750,23.38,74.12
114468,2018-06-29 09:44:29.125000,21.23,74.12
114469,2018-06-29 09:44:29.156250,20.16,74.12
114470,2018-06-29 09:44:29.187500,16.92,74.12
114471,2018-06-29 09:44:29.218750,7.74,74.12
114472,2018-06-29 09:44:29.250000,-6.48,74.12
114473,2018-06-29 09:44:29.281250,-21.14,74.12
114474,2018-06-29 09:44:29.312500,-33.03,74.12
114475,2018-06-29 09:44:29.343750,-43.25,74.12
114476,2018-06-29 09:44:29.375000,-54.78,74.12
114477,2018-06-29 09:44:29.406250,-67.4,74.12
114478,2018-06-29 09:44:29.437500,-74.12,74.12
114479,2018-06-29 09:44:29.468750,-65.47,74.12
114480,2018-06-29 09:44:29.500000,-40.28,74.12
114481,2018-06-29 09:44:29.531250,-7.79,73.93
114482,2018-06-29 09:44:29.562500,22.2,73.93
114483,2018-06-29 09:44:29.593750,45.88,73.93
114484,2018-06-29 09:44:29.625000,62.2,73.93
114485,2018-06-29 09:44:29.656250,69.98,73.93
114486,2018-06-29 09:44:29.687500,70.31,73.93
114487,2018-06-29 09:44:29.718750,67.74,73.93
114488,2018-06-29 09:44:29.750000,66.46,73.93
114489,2018-06-29 09:44:29.781250,66.74,73.93
114490,2018-06-29 09:44:29.812500,66.67,73.93
114491,2018-06-29 09:44:29.843750,65.53,73.93
114492,2018-06-29 09:44:29.875000,63.59,73.93
114493,2018-06-29 09:44:29.906250,59.87,73.93
114494,2018-06-29 09:44:29.937500,53.1,73.93
114495,2018-06-29 09:44:29.968750,44.26,73.93
114496,2018-06-29 09:44:30.000000,36.3,73.93
114497,2018-06-29 09:44:30.031250,30.95,73.93
114498,2018-06-29 09:44:30.062500,26.92,73.93
114499,2018-06-29 09:44:30.093750,21.74,73.93
114500,2018-06-29 09:44:30.125000,14.31,73.93
114501,2018-06-29 09:44:30.156250,5.39,73.93
114502,2018-06-29 09:44:30.187500,-3.95,73.93
114503,2018-06-29 09:44:30.218750,-13.92,73.93
114504,2018-06-29 09:44:30.250000,-26.16,73.93
114505,2018-06-29 09:44:30.281250,-41.44,73.93
114506,2018-06-29 09:44:30.312500,-55.49,73.93
114507,2018-06-29 09:44:30.343750,-58.61,73.93
114508,2018-06-29 09:44:30.375000,-43.43,73.93
114509,2018-06-29 09:44:30.406250,-14.14,73.93
114510,2018-06-29 09:44:30.437500,16.35,73.93
114511,2018-06-29 09:44:30.468750,39.01,73.93
114512,2018-06-29 09:44:30.500000,53.69,73.93
114513,2018-06-29 09:44:30.531250,62.28,73.6
114514,2018-06-29 09:44:30.562500,64.87,73.6
114515,2018-06-29 09:44:30.593750,63.21,73.6
114516,2018-06-29 09:44:30.625000,60.88,73.6
114517,2018-06-29 09:44:30.656250,58.83,73.6
114518,2018-06-29 09:44:30.687500,55.43,73.6
114519,2018-06-29 09:44:30.718750,50.32,73.6
114520,2018-06-29 09:44:30.750000,43.9,73.6
114521,2018-06-29 09:44:30.781250,34.98,73.6
114522,2018-06-29 09:44:30.812500,22.54,73.6
114523,2018-06-29 09:44:30.843750,8.8,73.6
114524,2018-06-29 09:44:30.875000,-2.11,73.6
114525,2018-06-29 09:44:30.906250,-8.96,73.6
114526,2018-06-29 09:44:30.937500,-14.81,73.6
114527,2018-06-29 09:44:30.968750,-22.58,73.6
114528,2018-06-29 09:44:31.000000,-31.23,73.6
114529,2018-06-29 09:44:31.031250,-38.25,73.6
114530,2018-06-29 09:44:31.062500,-43.92,73.6
114531,2018-06-29 09:44:31.093750,-51.26,73.6
114532,2018-06-29 09:44:31.125000,-62.39,73.6
114533,2018-06-29 09:44:31.156250,-73.67,73.6
114534,2018-06-29 09:44:31.187500,-74.82,73.6
114535,2018-06-29 09:44:31.218750,-57.72,73.6
114536,2018-06-29 09:44:31.250000,-26.08,73.6
114537,2018-06-29 09:44:31.281250,7.85,73.6
114538,2018-06-29 09:44:31.312500,34.96,73.6
114539,2018-06-29 09:44:31.343750,53.73,73.6
114540,2018-06-29 09:44:31.375000,65.99,73.6
114541,2018-06-29 09:44:31.406250,72.95,73.6
114542,2018-06-29 09:44:31.437500,75.98,73.6
114543,2018-06-29 09:44:31.468750,77.67,73.6
114544,2018-06-29 09:44:31.500000,79.66,73.6
114545,2018-06-29 09:44:31.531250,80.42,73.28
114546,2018-06-29 09:44:31.562500,76.93,73.28
114547,2018-06-29 09:44:31.593750,67.1,73.28
114548,2018-06-29 09:44:31.625000,50.37,73.28
114549,2018-06-29 09:44:31.656250,28.01,73.28
114550,2018-06-29 09:44:31.687500,3.98,73.28
114551,2018-06-29 09:44:31.718750,-17.22,73.28
114552,2018-06-29 09:44:31.750000,-34.58,73.28
114553,2018-06-29 09:44:31.781250,-50.11,73.28
114554,2018-06-29 09:44:31.812500,-64.13,73.28
114555,2018-06-29 09:44:31.843750,-74.31,73.28
114556,2018-06-29 09:44:31.875000,-80.91,73.28
114557,2018-06-29 09:44:31.906250,-89.4,73.28
114558,2018-06-29 09:44:31.937500,-104.21,73.28
114559,2018-06-29 09:44:31.968750,-119.65,73.28
114560,2018-06-29 09:44:32.000000,-121.83,73.28
114561,2018-06-29 09:44:32.031250,-104.52,73.28
114562,2018-06-29 09:44:32.062500,-78.03,73.28
114563,2018-06-29 09:44:32.093750,-56.2,73.28
114564,2018-06-29 09:44:32.125000,-41.56,73.28
114565,2018-06-29 09:44:32.156250,-32.44,73.28
114566,2018-06-29 09:44:32.187500,-35.31,73.28
114567,2018-06-29 09:44:32.218750,-57.58,73.28
114568,2018-06-29 09:44:32.250000,-93.78,73.28
114569,2018-06-29 09:44:32.281250,-122.8,73.28
114570,2018-06-29 09:44:32.312500,-118.65,73.28
114571,2018-06-29 09:44:32.343750,-76.03,73.28
114572,2018-06-29 09:44:32.375000,-24.05,73.28
114573,2018-06-29 09:44:32.406250,8.42,73.28
114574,2018-06-29 09:44:32.437500,32.06,73.28
114575,2018-06-29 09:44:32.468750,71.74,73.28
114576,2018-06-29 09:44:32.500000,121.07,73.28
114577,2018-06-29 09:44:32.531250,156.83,73.23
114578,2018-06-29 09:44:32.562500,174.53,73.23
114579,2018-06-29 09:44:32.593750,180.19,73.23
114580,2018-06-29 09:44:32.625000,172.22,73.23
114581,2018-06-29 09:44:32.656250,151.26,73.23
114582,2018-06-29 09:44:32.687500,125.21,73.23
114583,2018-06-29 09:44:32.718750,94.08,73.23
114584,2018-06-29 09:44:32.750000,49.54,73.23
114585,2018-06-29 09:44:32.781250,-5.57,73.23
114586,2018-06-29 09:44:32.812500,-53.75,73.23
114587,2018-06-29 09:44:32.843750,-79.62,73.23
114588,2018-06-29 09:44:32.875000,-80.67,73.23
114589,2018-06-29 09:44:32.906250,-63.71,73.23
114590,2018-06-29 09:44:32.937500,-37.49,73.23
114591,2018-06-29 09:44:32.968750,-7.51,73.23
114592,2018-06-29 09:44:33.000000,22.88,73.23
114593,2018-06-29 09:44:33.031250,48.55,73.23
114594,2018-06-29 09:44:33.062500,66.15,73.23
114595,2018-06-29 09:44:33.093750,79.1,73.23
114596,2018-06-29 09:44:33.125000,92.62,73.23
114597,2018-06-29 09:44:33.156250,106.29,73.23
