,Time,ppg,hr
118400,2018-06-29 09:46:32.000000,-458.79,68.58
118401,2018-06-29 09:46:32.031250,-482.58,68.58
118402,2018-06-29 09:46:32.062500,-419.96,68.58
118403,2018-06-29 09:46:32.093750,-315.32,68.58
118404,2018-06-29 09:46:32.125000,-224.92,68.58
118405,2018-06-29 09:46:32.156250,-165.48,68.58
118406,2018-06-29 09:46:32.187500,-138.4,68.58
118407,2018-06-29 09:46:32.218750,-148.27,68.58
118408,2018-06-29 09:46:32.250000,-176.4,68.58
118409,2018-06-29 09:46:32.281250,-183.61,68.58
118410,2018-06-29 09:46:32.312500,-152.58,68.58
118411,2018-06-29 09:46:32.343750,-100.79,68.58
118412,2018-06-29 09:46:32.375000,-49.99,68.58
118413,2018-06-29 09:46:32.406250,-6.56,68.58
118414,2018-06-29 09:46:32.437500,30.32,68.58
118415,2018-06-29 09:46:32.468750,59.52,68.58
118416,2018-06-29 09:46:32.500000,78.4,68.58
118417,2018-06-29 09:46:32.531250,85.29,68.72
118418,2018-06-29 09:46:32.562500,81.49,68.72
118419,2018-06-29 09:46:32.593750,70.88,68.72
118420,2018-06-29 09:46:32.625000,56.49,68.72
118421,2018-06-29 09:46:32.656250,41.46,68.72
118422,2018-06-29 09:46:32.687500,29.84,68.72
118423,2018-06-29 09:46:32.718750,21.64,68.72
118424,2018-06-29 09:46:32.750000,12.95,68.72
118425,2018-06-29 09:46:32.781250,1.49,68.72
118426,2018-06-29 09:46:32.812500,-12.34,68.72
118427,2018-06-29 09:46:32.843750,-27.9,68.72
118428,2018-06-29 09:46:32.875000,-45.3,68.72
118429,2018-06-29 09:46:32.906250,-63.42,68.72
118430,2018-06-29 09:46:32.937500,-74.81,68.72
118431,2018-06-29 09:46:32.968750,-66.49,68.72
118432,2018-06-29 09:46:33.000000,-33.52,68.72
118433,2018-06-29 09:46:33.031250,11.95,68.72
118434,2018-06-29 09:46:33.062500,52.12,68.72
118435,2018-06-29 09:46:33.093750,79.95,68.72
118436,2018-06-29 09:46:33.125000,98.61,68.72
118437,2018-06-29 09:46:33.156250,110.26,68.72
118438,2018-06-29 09:46:33.187500,113.59,68.72
118439,2018-06-29 09:46:33.218750,110.35,68.72
118440,2018-06-29 09:46:33.250000,106.27,68.72
118441,2018-06-29 09:46:33.281250,104.28,68.72
118442,2018-06-29 09:46:33.312500,102.79,68.72
118443,2018-06-29 09:46:33.343750,100.09,68.72
118444,2018-06-29 09:46:33.375000,94.86,68.72
118445,2018-06-29 09:46:33.406250,84.89,68.72
118446,2018-06-29 09:46:33.437500,69.85,68.72
118447,2018-06-29 09:46:33.468750,52.39,68.72
118448,2018-06-29 09:46:33.500000,33.2,68.72
118449,2018-06-29 09:46:33.531250,8.13,68.87
118450,2018-06-29 09:46:33.562500,-25.31,68.87
118451,2018-06-29 09:46:33.593750,-58.23,68.87
118452,2018-06-29 09:46:33.625000,-72.99,68.87
118453,2018-06-29 09:46:33.656250,-60.14,68.87
118454,2018-06-29 09:46:33.687500,-28.11,68.87
118455,2018-06-29 09:46:33.718750,8.76,68.87
118456,2018-06-29 09:46:33.750000,41.86,68.87
118457,2018-06-29 09:46:33.781250,67.15,68.87
118458,2018-06-29 09:46:33.812500,83.18,68.87
118459,2018-06-29 09:46:33.843750,92.13,68.87
118460,2018-06-29 09:46:33.875000,97.17,68.87
118461,2018-06-29 09:46:33.906250,97.29,68.87
118462,2018-06-29 09:46:33.937500,91.6,68.87
118463,2018-06-29 09:46:33.968750,84.34,68.87
118464,2018-06-29 09:46:34.000000,81.76,68.87
118465,2018-06-29 09:46:34.031250,81.26,68.87
118466,2018-06-29 09:46:34.062500,74.13,68.87
118467,2018-06-29 09:46:34.093750,59.11,68.87
118468,2018-06-29 09:46:34.125000,46.54,68.87
118469,2018-06-29 09:46:34.156250,44.91,68.87
118470,2018-06-29 09:46:34.187500,44.06,68.87
118471,2018-06-29 09:46:34.218750,31.86,68.87
118472,2018-06-29 09:46:34.250000,14.3,68.87
118473,2018-06-29 09:46:34.281250,21.6,68.87
118474,2018-06-29 09:46:34.312500,64.76,68.87
118475,2018-06-29 09:46:34.343750,120.67,68.87
118476,2018-06-29 09:46:34.375000,171.84,68.87
118477,2018-06-29 09:46:34.406250,230.44,68.87
118478,2018-06-29 09:46:34.437500,315.16,68.87
118479,2018-06-29 09:46:34.468750,397.83,68.87
118480,2018-06-29 09:46:34.500000,444.6,68.87
118481,2018-06-29 09:46:34.531250,460.93,69.02
118482,2018-06-29 09:46:34.562500,490.71,69.02
118483,2018-06-29 09:46:34.593750,542.0,69.02
118484,2018-06-29 09:46:34.625000,579.09,69.02
118485,2018-06-29 09:46:34.656250,555.9,69.02
118486,2018-06-29 09:46:34.687500,311.83,69.02
118487,2018-06-29 09:46:34.718750,-45.11,69.02
118488,2018-06-29 09:46:34.750000,-251.98,69.02
118489,2018-06-29 09:46:34.781250,-330.47,69.02
118490,2018-06-29 09:46:34.812500,-363.51,69.02
118491,2018-06-29 09:46:34.843750,-369.58,69.02
118492,2018-06-29 09:46:34.875000,-355.72,69.02
118493,2018-06-29 09:46:34.906250,-339.63,69.02
118494,2018-06-29 09:46:34.937500,-312.61,69.02
118495,2018-06-29 09:46:34.968750,-270.5,69.02
118496,2018-06-29 09:46:35.000000,-221.33,69.02
118497,2018-06-29 09:46:35.031250,-189.64,69.02
118498,2018-06-29 09:46:35.062500,-183.12,69.02
118499,2018-06-29 09:46:35.093750,-188.7,69.02
118500,2018-06-29 09:46:35.125000,-184.84,69.02
118501,2018-06-29 09:46:35.156250,-164.33,69.02
118502,2018-06-29 09:46:35.187500,-138.24,69.02
118503,2018-06-29 09:46:35.218750,-106.66,69.02
118504,2018-06-29 09:46:35.250000,-63.64,69.02
118505,2018-06-29 09:46:35.281250,-11.38,69.02
118506,2018-06-29 09:46:35.312500,28.97,69.02
118507,2018-06-29 09:46:35.343750,43.48,69.02
118508,2018-06-29 09:46:35.375000,42.44,69.02
118509,2018-06-29 09:46:35.406250,43.26,69.02
118510,2018-06-29 09:46:35.437500,51.84,69.02
118511,2018-06-29 09:46:35.468750,62.34,69.02
118512,2018-06-29 09:46:35.500000,65.3,69.02
118513,2018-06-29 09:46:35.531250,50.9,69.17
118514,2018-06-29 09:46:35.562500,19.78,69.17
118515,2018-06-29 09:46:35.593750,-20.75,69.17
118516,2018-06-29 09:46:35.625000,-70.89,69.17
118517,2018-06-29 09:46:35.656250,-129.5,69.17
118518,2018-06-29 09:46:35.687500,-180.1,69.17
118519,2018-06-29 09:46:35.718750,-206.58,69.17
118520,2018-06-29 09:46:35.750000,-210.67,69.17
118521,2018-06-29 09:46:35.781250,-201.68,69.17
118522,2018-06-29 09:46:35.812500,-186.01,69.17
118523,2018-06-29 09:46:35.843750,-170.93,69.17
118524,2018-06-29 09:46:35.875000,-162.8,69.17
118525,2018-06-29 09:46:35.906250,-160.09,69.17
118526,2018-06-29 09:46:35.937500,-157.1,69.17
118527,2018-06-29 09:46:35.968750,-152.12,69.17
118528,2018-06-29 09:46:36.000000,-146.93,69.17
118529,2018-06-29 09:46:36.031250,-142.33,69.17
118530,2018-06-29 09:46:36.062500,-138.43,69.17
118531,2018-06-29 09:46:36.093750,-134.5,69.17
118532,2018-06-29 09:46:36.125000,-126.56,69.17
118533,2018-06-29 09:46:36.156250,-108.89,69.17
118534,2018-06-29 09:46:36.187500,-79.77,69.17
118535,2018-06-29 09:46:36.218750,-44.56,69.17
118536,2018-06-29 09:46:36.250000,-11.85,69.17
118537,2018-06-29 09:46:36.281250,13.54,69.17
118538,2018-06-29 09:46:36.312500,33.14,69.17
118539,2018-06-29 09:46:36.343750,50.39,69.17
118540,2018-06-29 09:46:36.375000,66.13,69.17
118541,2018-06-29 09:46:36.406250,80.16,69.17
118542,2018-06-29 09:46:36.437500,93.53,69.17
118543,2018-06-29 09:46:36.468750,106.76,69.17
118544,2018-06-29 09:46:36.500000,118.69,69.17
118545,2018-06-29 09:46:36.531250,128.09,69.32
118546,2018-06-29 09:46:36.562500,133.81,69.32
118547,2018-06-29 09:46:36.593750,133.27,69.32
118548,2018-06-29 09:46:36.625000,125.07,69.32
118549,2018-06-29 09:46:36.656250,112.52,69.32
118550,2018-06-29 09:46:36.687500,100.1,69.32
118551,2018-06-29 09:46:36.718750,87.88,69.32
118552,2018-06-29 09:46:36.750000,73.23,69.32
118553,2018-06-29 09:46:36.781250,56.05,69.32
118554,2018-06-29 09:46:36.812500,38.33,69.32
118555,2018-06-29 09:46:36.843750,20.7,69.32
118556,2018-06-29 09:46:36.875000,1.54,69.32
118557,2018-06-29 09:46:36.906250,-20.81,69.32
118558,2018-06-29 09:46:36.937500,-44.4,69.32
118559,2018-06-29 09:46:36.968750,-61.03,69.32
118560,2018-06-29 09:46:37.000000,-60.81,69.32
118561,2018-06-29 09:46:37.031250,-42.31,69.32
118562,2018-06-29 09:46:37.062500,-15.02,69.32
118563,2018-06-29 09:46:37.093750,10.77,69.32
118564,2018-06-29 09:46:37.125000,32.26,69.32
118565,2018-06-29 09:46:37.156250,49.73,69.32
118566,2018-06-29 09:46:37.187500,60.92,69.32
118567,2018-06-29 09:46:37.218750,64.5,69.32
118568,2018-06-29 09:46:37.250000,63.47,69.32
118569,2018-06-29 09:46:37.281250,61.39,69.32
118570,2018-06-29 09:46:37.312500,59.15,69.32
118571,2018-06-29 09:46:37.343750,56.93,69.32
118572,2018-06-29 09:46:37.375000,55.39,69.32
118573,2018-06-29 09:46:37.406250,53.89,69.32
118574,2018-06-29 09:46:37.437500,50.01,69.32
118575,2018-06-29 09:46:37.468750,41.69,69.32
118576,2018-06-29 09:46:37.500000,29.73,69.32
118577,2018-06-29 09:46:37.531250,17.56,69.47
118578,2018-06-29 09:46:37.562500,7.44,69.47
118579,2018-06-29 09:46:37.593750,-1.99,69.47
118580,2018-06-29 09:46:37.625000,-12.82,69.47
118581,2018-06-29 09:46:37.656250,-24.18,69.47
118582,2018-06-29 09:46:37.687500,-33.74,69.47
118583,2018-06-29 09:46:37.718750,-41.32,69.47
118584,2018-06-29 09:46:37.750000,-49.25,69.47
118585,2018-06-29 09:46:37.781250,-59.64,69.47
118586,2018-06-29 09:46:37.812500,-71.62,69.47
118587,2018-06-29 09:46:37.843750,-78.73,69.47
118588,2018-06-29 09:46:37.875000,-71.78,69.47
118589,2018-06-29 09:46:37.906250,-48.65,69.47
118590,2018-06-29 09:46:37.937500,-18.38,69.47
118591,2018-06-29 09:46:37.968750,8.36,69.47
118592,2018-06-29 09:46:38.000000,29.03,69.47
118593,2018-06-29 09:46:38.031250,45.85,69.47
118594,2018-06-29 09:46:38.062500,58.46,69.47
118595,2018-06-29 09:46:38.093750,64.69,69.47
118596,2018-06-29 09:46:38.125000,65.13,69.47
118597,2018-06-29 09:46:38.156250,62.8,69.47
118598,2018-06-29 09:46:38.187500,59.72,69.47
118599,2018-06-29 09:46:38.218750,56.41,69.47
118600,2018-06-29 09:46:38.250000,53.2,69.47
118601,2018-06-29 09:46:38.281250,49.81,69.47
118602,2018-06-29 09:46:38.312500,44.82,69.47
118603,2018-06-29 09:46:38.343750,37.32,69.47
118604,2018-06-29 09:46:38.375000,28.74,69.47
118605,2018-06-29 09:46:38.406250,20.8,69.47
118606,2018-06-29 09:46:38.437500,12.26,69.47
118607,2018-06-29 09:46:38.468750,0.81,69.47
118608,2018-06-29 09:46:38.500000,-12.54,69.47
118609,2018-06-29 09:46:38.531250,-24.64,69.62
118610,2018-06-29 09:46:38.562500,-34.28,69.62
118611,2018-06-29 09:46:38.593750,-41.98,69.62
118612,2018-06-29 09:46:38.625000,-48.27,69.62
118613,2018-06-29 09:46:38.656250,-53.99,69.62
118614,2018-06-29 09:46:38.687500,-60.07,69.62
118615,2018-06-29 09:46:38.718750,-67.77,69.62
118616,2018-06-29 09:46:38.750000,-79.03,69.62
118617,2018-06-29 09:46:38.781250,-92.36,69.62
118618,2018-06-29 09:46:38.812500,-97.64,69.62
118619,2018-06-29 09:46:38.843750,-83.46,69.62
118620,2018-06-29 09:46:38.875000,-51.39,69.62
118621,2018-06-29 09:46:38.906250,-15.34,69.62
118622,2018-06-29 09:46:38.937500,13.8,69.62
118623,2018-06-29 09:46:38.968750,35.24,69.62
118624,2018-06-29 09:46:39.000000,50.72,69.62
118625,2018-06-29 09:46:39.031250,59.37,69.62
118626,2018-06-29 09:46:39.062500,61.55,69.62
118627,2018-06-29 09:46:39.093750,60.26,69.62
118628,2018-06-29 09:46:39.125000,57.59,69.62
118629,2018-06-29 09:46:39.156250,53.67,69.62
118630,2018-06-29 09:46:39.187500,49.42,69.62
118631,2018-06-29 09:46:39.218750,46.47,69.62
118632,2018-06-29 09:46:39.250000,43.62,69.62
118633,2018-06-29 09:46:39.281250,36.76,69.62
118634,2018-06-29 09:46:39.312500,23.4,69.62
118635,2018-06-29 09:46:39.343750,5.28,69.62
118636,2018-06-29 09:46:39.375000,-13.39,69.62
118637,2018-06-29 09:46:39.406250,-29.41,69.62
118638,2018-06-29 09:46:39.437500,-41.84,69.62
118639,2018-06-29 09:46:39.468750,-51.13,69.62
118640,2018-06-29 09:46:39.500000,-56.35,69.62
118641,2018-06-29 09:46:39.531250,-53.74,69.82
118642,2018-06-29 09:46:39.562500,-41.04,69.82
118643,2018-06-29 09:46:39.593750,-23.81,69.82
118644,2018-06-29 09:46:39.625000,-14.6,69.82
118645,2018-06-29 09:46:39.656250,-23.07,69.82
118646,2018-06-29 09:46:39.687500,-46.62,69.82
118647,2018-06-29 09:46:39.718750,-71.0,69.82
118648,2018-06-29 09:46:39.750000,-80.47,69.82
118649,2018-06-29 09:46:39.781250,-68.29,69.82
118650,2018-06-29 09:46:39.812500,-38.05,69.82
118651,2018-06-29 09:46:39.843750,2.68,69.82
118652,2018-06-29 09:46:39.875000,47.01,69.82
118653,2018-06-29 09:46:39.906250,87.93,69.82
118654,2018-06-29 09:46:39.937500,118.16,69.82
118655,2018-06-29 09:46:39.968750,133.25,69.82
118656,2018-06-29 09:46:40.000000,132.21,69.82
118657,2018-06-29 09:46:40.031250,116.03,69.82
118658,2018-06-29 09:46:40.062500,87.72,69.82
118659,2018-06-29 09:46:40.093750,53.4,69.82
118660,2018-06-29 09:46:40.125000,21.1,69.82
118661,2018-06-29 09:46:40.156250,-1.92,69.82
118662,2018-06-29 09:46:40.187500,-15.11,69.82
118663,2018-06-29 09:46:40.218750,-27.75,69.82
118664,2018-06-29 09:46:40.250000,-50.28,69.82
118665,2018-06-29 09:46:40.281250,-82.56,69.82
118666,2018-06-29 09:46:40.312500,-117.63,69.82
118667,2018-06-29 09:46:40.343750,-153.92,69.82
118668,2018-06-29 09:46:40.375000,-194.82,69.82
118669,2018-06-29 09:46:40.406250,-235.21,69.82
118670,2018-06-29 09:46:40.437500,-258.45,69.82
118671,2018-06-29 09:46:40.468750,-250.76,69.82
118672,2018-06-29 09:46:40.500000,-212.36,69.82
118673,2018-06-29 09:46:40.531250,-153.96,70.02
118674,2018-06-29 09:46:40.562500,-88.68,70.02
118675,2018-06-29 09:46:40.593750,-27.76,70.02
118676,2018-06-29 09:46:40.625000,23.81,70.02
118677,2018-06-29 09:46:40.656250,69.45,70.02
118678,2018-06-29 09:46:40.687500,115.49,70.02
118679,2018-06-29 09:46:40.718750,160.49,70.02
118680,2018-06-29 09:46:40.750000,192.97,70.02
118681,2018-06-29 09:46:40.781250,205.34,70.02
118682,2018-06-29 09:46:40.812500,204.71,70.02
118683,2018-06-29 09:46:40.843750,201.88,70.02
118684,2018-06-29 09:46:40.875000,198.6,70.02
118685,2018-06-29 09:46:40.906250,192.97,70.02
118686,2018-06-29 09:46:40.937500,187.65,70.02
118687,2018-06-29 09:46:40.968750,185.12,70.02
118688,2018-06-29 09:46:41.000000,182.47,70.02
118689,2018-06-29 09:46:41.031250,177.48,70.02
118690,2018-06-29 09:46:41.062500,175.06,70.02
118691,2018-06-29 09:46:41.093750,183.01,70.02
118692,2018-06-29 09:46:41.125000,203.84,70.02
118693,2018-06-29 09:46:41.156250,231.37,70.02
118694,2018-06-29 09:46:41.187500,247.67,70.02
118695,2018-06-29 09:46:41.218750,230.33,70.02
118696,2018-06-29 09:46:41.250000,177.06,70.02
118697,2018-06-29 09:46:41.281250,112.34,70.02
118698,2018-06-29 09:46:41.312500,54.57,70.02
118699,2018-06-29 09:46:41.343750,-4.13,70.02
118700,2018-06-29 09:46:41.375000,-71.65,70.02
118701,2018-06-29 09:46:41.406250,-136.3,70.02
118702,2018-06-29 09:46:41.437500,-185.45,70.02
118703,2018-06-29 09:46:41.468750,-218.4,70.02
118704,2018-06-29 09:46:41.500000,-234.9,70.02
118705,2018-06-29 09:46:41.531250,-232.54,70.17
118706,2018-06-29 09:46:41.562500,-215.49,70.17
118707,2018-06-29 09:46:41.593750,-191.06,70.17
118708,2018-06-29 09:46:41.625000,-161.75,70.17
118709,2018-06-29 09:46:41.656250,-129.22,70.17
118710,2018-06-29 09:46:41.687500,-98.73,70.17
118711,2018-06-29 09:46:41.718750,-74.28,70.17
118712,2018-06-29 09:46:41.750000,-54.67,70.17
118713,2018-06-29 09:46:41.781250,-37.84,70.17
118714,2018-06-29 09:46:41.812500,-24.31,70.17
118715,2018-06-29 09:46:41.843750,-15.51,70.17
118716,2018-06-29 09:46:41.875000,-11.14,70.17
118717,2018-06-29 09:46:41.906250,-9.29,70.17
118718,2018-06-29 09:46:41.937500,-7.79,70.17
118719,2018-06-29 09:46:41.968750,-5.53,70.17
118720,2018-06-29 09:46:42.000000,-3.49,70.17
118721,2018-06-29 09:46:42.031250,-3.55,70.17
118722,2018-06-29 09:46:42.062500,-6.38,70.17
118723,2018-06-29 09:46:42.093750,-10.7,70.17
118724,2018-06-29 09:46:42.125000,-14.92,70.17
118725,2018-06-29 09:46:42.156250,-18.64,70.17
118726,2018-06-29 09:46:42.187500,-22.88,70.17
118727,2018-06-29 09:46:42.218750,-28.28,70.17
118728,2018-06-29 09:46:42.250000,-33.55,70.17
118729,2018-06-29 09:46:42.281250,-37.23,70.17
118730,2018-06-29 09:46:42.312500,-40.74,70.17
118731,2018-06-29 09:46:42.343750,-46.46,70.17
118732,2018-06-29 09:46:42.375000,-52.21,70.17
118733,2018-06-29 09:46:42.406250,-51.38,70.17
118734,2018-06-29 09:46:42.437500,-40.68,70.17
118735,2018-06-29 09:46:42.468750,-24.36,70.17
118736,2018-06-29 09:46:42.500000,-9.3,70.17
118737,2018-06-29 09:46:42.531250,1.53,70.32
118738,2018-06-29 09:46:42.562500,8.94,70.32
118739,2018-06-29 09:46:42.593750,13.82,70.32
118740,2018-06-29 09:46:42.625000,15.95,70.32
118741,2018-06-29 09:46:42.656250,15.54,70.32
118742,2018-06-29 09:46:42.687500,14.0,70.32
118743,2018-06-29 09:46:42.718750,12.65,70.32
118744,2018-06-29 09:46:42.750000,11.73,70.32
118745,2018-06-29 09:46:42.781250,10.75,70.32
118746,2018-06-29 09:46:42.812500,8.91,70.32
118747,2018-06-29 09:46:42.843750,5.37,70.32
118748,2018-06-29 09:46:42.875000,0.13,70.32
118749,2018-06-29 09:46:42.906250,-5.9,70.32
118750,2018-06-29 09:46:42.937500,-12.28,70.32
118751,2018-06-29 09:46:42.968750,-19.18,70.32
118752,2018-06-29 09:46:43.000000,-26.45,70.32
118753,2018-06-29 09:46:43.031250,-33.79,70.32
118754,2018-06-29 09:46:43.062500,-41.36,70.32
118755,2018-06-29 09:46:43.093750,-49.77,70.32
118756,2018-06-29 09:46:43.125000,-60.55,70.32
118757,2018-06-29 09:46:43.156250,-74.08,70.32
118758,2018-06-29 09:46:43.187500,-84.6,70.32
118759,2018-06-29 09:46:43.218750,-82.59,70.32
118760,2018-06-29 09:46:43.250000,-66.09,70.32
118761,2018-06-29 09:46:43.281250,-44.36,70.32
118762,2018-06-29 09:46:43.312500,-26.36,70.32
118763,2018-06-29 09:46:43.343750,-12.67,70.32
118764,2018-06-29 09:46:43.375000,-1.14,70.32
118765,2018-06-29 09:46:43.406250,6.48,70.32
118766,2018-06-29 09:46:43.437500,7.99,70.32
118767,2018-06-29 09:46:43.468750,5.81,70.32
118768,2018-06-29 09:46:43.500000,4.99,70.32
118769,2018-06-29 09:46:43.531250,8.05,70.45
118770,2018-06-29 09:46:43.562500,13.6,70.45
118771,2018-06-29 09:46:43.593750,18.64,70.45
118772,2018-06-29 09:46:43.625000,20.84,70.45
118773,2018-06-29 09:46:43.656250,18.94,70.45
118774,2018-06-29 09:46:43.687500,12.39,70.45
118775,2018-06-29 09:46:43.718750,1.71,70.45
118776,2018-06-29 09:46:43.750000,-11.13,70.45
118777,2018-06-29 09:46:43.781250,-24.19,70.45
118778,2018-06-29 09:46:43.812500,-36.96,70.45
118779,2018-06-29 09:46:43.843750,-50.25,70.45
118780,2018-06-29 09:46:43.875000,-65.47,70.45
118781,2018-06-29 09:46:43.906250,-81.3,70.45
118782,2018-06-29 09:46:43.937500,-90.59,70.45
118783,2018-06-29 09:46:43.968750,-84.62,70.45
118784,2018-06-29 09:46:44.000000,-62.84,70.45
118785,2018-06-29 09:46:44.031250,-33.42,70.45
118786,2018-06-29 09:46:44.062500,-3.89,70.45
118787,2018-06-29 09:46:44.093750,23.03,70.45
118788,2018-06-29 09:46:44.125000,45.25,70.45
118789,2018-06-29 09:46:44.156250,59.32,70.45
118790,2018-06-29 09:46:44.187500,63.46,70.45
118791,2018-06-29 09:46:44.218750,59.31,70.45
118792,2018-06-29 09:46:44.250000,50.03,70.45
118793,2018-06-29 09:46:44.281250,38.29,70.45
118794,2018-06-29 09:46:44.312500,26.27,70.45
118795,2018-06-29 09:46:44.343750,16.52,70.45
118796,2018-06-29 09:46:44.375000,10.8,70.45
118797,2018-06-29 09:46:44.406250,7.08,70.45
118798,2018-06-29 09:46:44.437500,1.34,70.45
118799,2018-06-29 09:46:44.468750,-7.21,70.45
118800,2018-06-29 09:46:44.500000,-15.45,70.45
118801,2018-06-29 09:46:44.531250,-21.64,70.63
118802,2018-06-29 09:46:44.562500,-28.32,70.63
118803,2018-06-29 09:46:44.593750,-39.39,70.63
118804,2018-06-29 09:46:44.625000,-55.55,70.63
118805,2018-06-29 09:46:44.656250,-71.05,70.63
118806,2018-06-29 09:46:44.687500,-75.34,70.63
118807,2018-06-29 09:46:44.718750,-61.98,70.63
118808,2018-06-29 09:46:44.750000,-35.89,70.63
118809,2018-06-29 09:46:44.781250,-8.0,70.63
118810,2018-06-29 09:46:44.812500,15.5,70.63
118811,2018-06-29 09:46:44.843750,35.16,70.63
118812,2018-06-29 09:46:44.875000,52.04,70.63
118813,2018-06-29 09:46:44.906250,64.51,70.63
118814,2018-06-29 09:46:44.937500,70.61,70.63
118815,2018-06-29 09:46:44.968750,71.25,70.63
118816,2018-06-29 09:46:45.000000,69.59,70.63
118817,2018-06-29 09:46:45.031250,67.08,70.63
118818,2018-06-29 09:46:45.062500,62.01,70.63
118819,2018-06-29 09:46:45.093750,53.19,70.63
118820,2018-06-29 09:46:45.125000,42.24,70.63
118821,2018-06-29 09:46:45.156250,30.85,70.63
118822,2018-06-29 09:46:45.187500,18.71,70.63
118823,2018-06-29 09:46:45.218750,5.64,70.63
118824,2018-06-29 09:46:45.250000,-7.09,70.63
118825,2018-06-29 09:46:45.281250,-18.36,70.63
118826,2018-06-29 09:46:45.312500,-28.77,70.63
118827,2018-06-29 09:46:45.343750,-40.26,70.63
118828,2018-06-29 09:46:45.375000,-54.71,70.63
118829,2018-06-29 09:46:45.406250,-71.63,70.63
118830,2018-06-29 09:46:45.437500,-84.92,70.63
118831,2018-06-29 09:46:45.468750,-84.29,70.63
118832,2018-06-29 09:46:45.500000,-64.81,70.63
118833,2018-06-29 09:46:45.531250,-33.61,70.88
118834,2018-06-29 09:46:45.562500,-2.36,70.88
118835,2018-06-29 09:46:45.593750,24.51,70.88
118836,2018-06-29 09:46:45.625000,48.59,70.88
118837,2018-06-29 09:46:45.656250,69.0,70.88
118838,2018-06-29 09:46:45.687500,81.82,70.88
118839,2018-06-29 09:46:45.718750,86.03,70.88
118840,2018-06-29 09:46:45.750000,85.06,70.88
118841,2018-06-29 09:46:45.781250,82.78,70.88
118842,2018-06-29 09:46:45.812500,80.99,70.88
118843,2018-06-29 09:46:45.843750,80.12,70.88
118844,2018-06-29 09:46:45.875000,79.68,70.88
118845,2018-06-29 09:46:45.906250,77.64,70.88
118846,2018-06-29 09:46:45.937500,71.42,70.88
118847,2018-06-29 09:46:45.968750,60.67,70.88
118848,2018-06-29 09:46:46.000000,47.31,70.88
118849,2018-06-29 09:46:46.031250,31.73,70.88
118850,2018-06-29 09:46:46.062500,12.05,70.88
118851,2018-06-29 09:46:46.093750,-11.22,70.88
118852,2018-06-29 09:46:46.125000,-33.97,70.88
118853,2018-06-29 09:46:46.156250,-53.72,70.88
118854,2018-06-29 09:46:46.187500,-72.53,70.88
118855,2018-06-29 09:46:46.218750,-90.79,70.88
118856,2018-06-29 09:46:46.250000,-99.31,70.88
118857,2018-06-29 09:46:46.281250,-84.54,70.88
118858,2018-06-29 09:46:46.312500,-46.06,70.88
118859,2018-06-29 09:46:46.343750,-1.07,70.88
118860,2018-06-29 09:46:46.375000,34.18,70.88
118861,2018-06-29 09:46:46.406250,58.71,70.88
118862,2018-06-29 09:46:46.437500,77.73,70.88
118863,2018-06-29 09:46:46.468750,91.9,70.88
118864,2018-06-29 09:46:46.500000,101.22,70.88
118865,2018-06-29 09:46:46.531250,109.51,71.02
118866,2018-06-29 09:46:46.562500,119.98,71.02
118867,2018-06-29 09:46:46.593750,131.48,71.02
118868,2018-06-29 09:46:46.625000,140.77,71.02
118869,2018-06-29 09:46:46.656250,145.1,71.02
118870,2018-06-29 09:46:46.687500,142.39,71.02
118871,2018-06-29 09:46:46.718750,131.61,71.02
118872,2018-06-29 09:46:46.750000,114.86,71.02
118873,2018-06-29 09:46:46.781250,97.32,71.02
118874,2018-06-29 09:46:46.812500,82.64,71.02
118875,2018-06-29 09:46:46.843750,69.31,71.02
118876,2018-06-29 09:46:46.875000,53.96,71.02
118877,2018-06-29 09:46:46.906250,36.4,71.02
118878,2018-06-29 09:46:46.937500,19.37,71.02
118879,2018-06-29 09:46:46.968750,5.17,71.02
118880,2018-06-29 09:46:47.000000,-4.87,71.02
118881,2018-06-29 09:46:47.031250,-10.31,71.02
118882,2018-06-29 09:46:47.062500,-13.25,71.02
118883,2018-06-29 09:46:47.093750,-16.79,71.02
118884,2018-06-29 09:46:47.125000,-20.74,71.02
118885,2018-06-29 09:46:47.156250,-23.17,71.02
118886,2018-06-29 09:46:47.187500,-26.77,71.02
118887,2018-06-29 09:46:47.218750,-40.5,71.02
118888,2018-06-29 09:46:47.250000,-73.23,71.02
118889,2018-06-29 09:46:47.281250,-123.17,71.02
118890,2018-06-29 09:46:47.312500,-172.63,71.02
118891,2018-06-29 09:46:47.343750,-200.79,71.02
118892,2018-06-29 09:46:47.375000,-204.14,71.02
118893,2018-06-29 09:46:47.406250,-195.43,71.02
118894,2018-06-29 09:46:47.437500,-184.76,71.02
118895,2018-06-29 09:46:47.468750,-171.7,71.02
118896,2018-06-29 09:46:47.500000,-153.52,71.02
118897,2018-06-29 09:46:47.531250,-131.29,71.22
118898,2018-06-29 09:46:47.562500,-109.12,71.22
118899,2018-06-29 09:46:47.593750,-90.83,71.22
118900,2018-06-29 09:46:47.625000,-76.74,71.22
118901,2018-06-29 09:46:47.656250,-64.39,71.22
118902,2018-06-29 09:46:47.687500,-52.37,71.22
118903,2018-06-29 09:46:47.718750,-41.23,71.22
118904,2018-06-29 09:46:47.750000,-31.91,71.22
118905,2018-06-29 09:46:47.781250,-25.48,71.22
118906,2018-06-29 09:46:47.812500,-22.87,71.22
118907,2018-06-29 09:46:47.843750,-22.95,71.22
118908,2018-06-29 09:46:47.875000,-22.98,71.22
118909,2018-06-29 09:46:47.906250,-22.24,71.22
118910,2018-06-29 09:46:47.937500,-22.51,71.22
118911,2018-06-29 09:46:47.968750,-23.68,71.22
118912,2018-06-29 09:46:48.000000,-22.82,71.22
118913,2018-06-29 09:46:48.031250,-19.73,71.22
118914,2018-06-29 09:46:48.062500,-17.75,71.22
118915,2018-06-29 09:46:48.093750,-17.25,71.22
118916,2018-06-29 09:46:48.125000,-14.62,71.22
118917,2018-06-29 09:46:48.156250,-9.16,71.22
118918,2018-06-29 09:46:48.187500,-5.27,71.22
118919,2018-06-29 09:46:48.218750,-6.4,71.22
118920,2018-06-29 09:46:48.250000,-8.65,71.22
118921,2018-06-29 09:46:48.281250,-1.21,71.22
118922,2018-06-29 09:46:48.312500,24.65,71.22
118923,2018-06-29 09:46:48.343750,65.62,71.22
118924,2018-06-29 09:46:48.375000,109.65,71.22
118925,2018-06-29 09:46:48.406250,148.43,71.22
118926,2018-06-29 09:46:48.437500,180.39,71.22
118927,2018-06-29 09:46:48.468750,203.05,71.22
118928,2018-06-29 09:46:48.500000,211.98,71.22
118929,2018-06-29 09:46:48.531250,208.12,71.47
118930,2018-06-29 09:46:48.562500,200.2,71.47
118931,2018-06-29 09:46:48.593750,193.33,71.47
118932,2018-06-29 09:46:48.625000,174.46,71.47
118933,2018-06-29 09:46:48.656250,120.64,71.47
118934,2018-06-29 09:46:48.687500,28.2,71.47
118935,2018-06-29 09:46:48.718750,-79.69,71.47
118936,2018-06-29 09:46:48.750000,-173.9,71.47
118937,2018-06-29 09:46:48.781250,-233.77,71.47
118938,2018-06-29 09:46:48.812500,-251.14,71.47
118939,2018-06-29 09:46:48.843750,-236.81,71.47
118940,2018-06-29 09:46:48.875000,-214.34,71.47
118941,2018-06-29 09:46:48.906250,-197.78,71.47
118942,2018-06-29 09:46:48.937500,-184.48,71.47
118943,2018-06-29 09:46:48.968750,-168.03,71.47
118944,2018-06-29 09:46:49.000000,-148.95,71.47
118945,2018-06-29 09:46:49.031250,-132.94,71.47
118946,2018-06-29 09:46:49.062500,-123.48,71.47
118947,2018-06-29 09:46:49.093750,-118.33,71.47
118948,2018-06-29 09:46:49.125000,-110.98,71.47
118949,2018-06-29 09:46:49.156250,-94.09,71.47
118950,2018-06-29 09:46:49.187500,-66.18,71.47
118951,2018-06-29 09:46:49.218750,-35.78,71.47
118952,2018-06-29 09:46:49.250000,-12.36,71.47
118953,2018-06-29 09:46:49.281250,6.34,71.47
118954,2018-06-29 09:46:49.312500,29.65,71.47
118955,2018-06-29 09:46:49.343750,59.53,71.47
118956,2018-06-29 09:46:49.375000,88.51,71.47
118957,2018-06-29 09:46:49.406250,110.73,71.47
118958,2018-06-29 09:46:49.437500,128.4,71.47
118959,2018-06-29 09:46:49.468750,145.84,71.47
118960,2018-06-29 09:46:49.500000,161.79,71.47
118961,2018-06-29 09:46:49.531250,170.9,71.72
118962,2018-06-29 09:46:49.562500,171.13,71.72
118963,2018-06-29 09:46:49.593750,166.76,71.72
118964,2018-06-29 09:46:49.625000,163.76,71.72
118965,2018-06-29 09:46:49.656250,165.4,71.72
118966,2018-06-29 09:46:49.687500,172.6,71.72
118967,2018-06-29 09:46:49.718750,184.73,71.72
118968,2018-06-29 09:46:49.750000,199.48,71.72
118969,2018-06-29 09:46:49.781250,212.11,71.72
118970,2018-06-29 09:46:49.812500,212.49,71.72
118971,2018-06-29 09:46:49.843750,186.85,71.72
118972,2018-06-29 09:46:49.875000,131.95,71.72
118973,2018-06-29 09:46:49.906250,64.49,71.72
118974,2018-06-29 09:46:49.937500,8.41,71.72
118975,2018-06-29 09:46:49.968750,-23.26,71.72
118976,2018-06-29 09:46:50.000000,-32.27,71.72
118977,2018-06-29 09:46:50.031250,-28.6,71.72
118978,2018-06-29 09:46:50.062500,-21.95,71.72
118979,2018-06-29 09:46:50.093750,-15.55,71.72
118980,2018-06-29 09:46:50.125000,-9.47,71.72
118981,2018-06-29 09:46:50.156250,-7.99,71.72
118982,2018-06-29 09:46:50.187500,-17.49,71.72
118983,2018-06-29 09:46:50.218750,-38.13,71.72
118984,2018-06-29 09:46:50.250000,-62.13,71.72
118985,2018-06-29 09:46:50.281250,-78.84,71.72
118986,2018-06-29 09:46:50.312500,-80.64,71.72
118987,2018-06-29 09:46:50.343750,-68.06,71.72
118988,2018-06-29 09:46:50.375000,-49.46,71.72
118989,2018-06-29 09:46:50.406250,-33.78,71.72
118990,2018-06-29 09:46:50.437500,-24.7,71.72
118991,2018-06-29 09:46:50.468750,-21.37,71.72
118992,2018-06-29 09:46:50.500000,-20.76,71.72
118993,2018-06-29 09:46:50.531250,-19.68,71.88
118994,2018-06-29 09:46:50.562500,-17.06,71.88
118995,2018-06-29 09:46:50.593750,-14.13,71.88
118996,2018-06-29 09:46:50.625000,-10.96,71.88
118997,2018-06-29 09:46:50.656250,-4.9,71.88
118998,2018-06-29 09:46:50.687500,4.98,71.88
118999,2018-06-29 09:46:50.718750,12.75,71.88
119000,2018-06-29 09:46:50.750000,13.62,71.88
119001,2018-06-29 09:46:50.781250,16.58,71.88
119002,2018-06-29 09:46:50.812500,37.33,71.88
119003,2018-06-29 09:46:50.843750,76.03,71.88
119004,2018-06-29 09:46:50.875000,117.12,71.88
119005,2018-06-29 09:46:50.906250,153.68,71.88
119006,2018-06-29 09:46:50.937500,194.09,71.88
119007,2018-06-29 09:46:50.968750,242.82,71.88
119008,2018-06-29 09:46:51.000000,293.36,71.88
119009,2018-06-29 09:46:51.031250,341.17,71.88
119010,2018-06-29 09:46:51.062500,384.93,71.88
119011,2018-06-29 09:46:51.093750,421.34,71.88
119012,2018-06-29 09:46:51.125000,448.48,71.88
119013,2018-06-29 09:46:51.156250,452.68,71.88
119014,2018-06-29 09:46:51.187500,398.47,71.88
119015,2018-06-29 09:46:51.218750,269.94,71.88
119016,2018-06-29 09:46:51.250000,107.79,71.88
119017,2018-06-29 09:46:51.281250,-33.4,71.88
119018,2018-06-29 09:46:51.312500,-139.08,71.88
119019,2018-06-29 09:46:51.343750,-217.64,71.88
119020,2018-06-29 09:46:51.375000,-269.69,71.88
119021,2018-06-29 09:46:51.406250,-298.83,71.88
119022,2018-06-29 09:46:51.437500,-317.75,71.88
119023,2018-06-29 09:46:51.468750,-328.28,71.88
119024,2018-06-29 09:46:51.500000,-317.6,71.88
119025,2018-06-29 09:46:51.531250,-281.27,72.03
119026,2018-06-29 09:46:51.562500,-232.44,72.03
119027,2018-06-29 09:46:51.593750,-188.56,72.03
119028,2018-06-29 09:46:51.625000,-159.82,72.03
119029,2018-06-29 09:46:51.656250,-147.82,72.03
119030,2018-06-29 09:46:51.687500,-146.38,72.03
119031,2018-06-29 09:46:51.718750,-145.15,72.03
119032,2018-06-29 09:46:51.750000,-135.58,72.03
119033,2018-06-29 09:46:51.781250,-118.38,72.03
119034,2018-06-29 09:46:51.812500,-107.32,72.03
119035,2018-06-29 09:46:51.843750,-117.77,72.03
119036,2018-06-29 09:46:51.875000,-145.58,72.03
119037,2018-06-29 09:46:51.906250,-169.0,72.03
119038,2018-06-29 09:46:51.937500,-174.98,72.03
119039,2018-06-29 09:46:51.968750,-173.13,72.03
119040,2018-06-29 09:46:52.000000,-185.36,72.03
119041,2018-06-29 09:46:52.031250,-226.83,72.03
119042,2018-06-29 09:46:52.062500,-289.8,72.03
119043,2018-06-29 09:46:52.093750,-344.86,72.03
119044,2018-06-29 09:46:52.125000,-363.07,72.03
119045,2018-06-29 09:46:52.156250,-332.64,72.03
119046,2018-06-29 09:46:52.187500,-258.85,72.03
119047,2018-06-29 09:46:52.218750,-163.18,72.03
119048,2018-06-29 09:46:52.250000,-79.12,72.03
119049,2018-06-29 09:46:52.281250,-34.27,72.03
119050,2018-06-29 09:46:52.312500,-34.05,72.03
119051,2018-06-29 09:46:52.343750,-64.05,72.03
119052,2018-06-29 09:46:52.375000,-104.49,72.03
119053,2018-06-29 09:46:52.406250,-139.96,72.03
119054,2018-06-29 09:46:52.437500,-158.25,72.03
119055,2018-06-29 09:46:52.468750,-150.27,72.03
119056,2018-06-29 09:46:52.500000,-117.43,72.03
119057,2018-06-29 09:46:52.531250,-72.15,72.17
119058,2018-06-29 09:46:52.562500,-25.4,72.17
119059,2018-06-29 09:46:52.593750,21.01,72.17
119060,2018-06-29 09:46:52.625000,65.68,72.17
119061,2018-06-29 09:46:52.656250,103.3,72.17
119062,2018-06-29 09:46:52.687500,133.16,72.17
119063,2018-06-29 09:46:52.718750,160.73,72.17
119064,2018-06-29 09:46:52.750000,185.42,72.17
119065,2018-06-29 09:46:52.781250,200.33,72.17
119066,2018-06-29 09:46:52.812500,206.52,72.17
119067,2018-06-29 09:46:52.843750,213.02,72.17
119068,2018-06-29 09:46:52.875000,221.35,72.17
119069,2018-06-29 09:46:52.906250,220.62,72.17
119070,2018-06-29 09:46:52.937500,207.36,72.17
119071,2018-06-29 09:46:52.968750,191.08,72.17
119072,2018-06-29 09:46:53.000000,181.22,72.17
119073,2018-06-29 09:46:53.031250,169.02,72.17
119074,2018-06-29 09:46:53.062500,139.25,72.17
119075,2018-06-29 09:46:53.093750,98.86,72.17
119076,2018-06-29 09:46:53.125000,77.41,72.17
119077,2018-06-29 09:46:53.156250,94.83,72.17
119078,2018-06-29 09:46:53.187500,123.66,72.17
119079,2018-06-29 09:46:53.218750,126.27,72.17
119080,2018-06-29 09:46:53.250000,110.37,72.17
119081,2018-06-29 09:46:53.281250,130.43,72.17
119082,2018-06-29 09:46:53.312500,209.87,72.17
119083,2018-06-29 09:46:53.343750,306.41,72.17
119084,2018-06-29 09:46:53.375000,358.87,72.17
119085,2018-06-29 09:46:53.406250,280.76,72.17
119086,2018-06-29 09:46:53.437500,117.92,72.17
119087,2018-06-29 09:46:53.468750,-12.38,72.17
119088,2018-06-29 09:46:53.500000,-108.43,72.17
119089,2018-06-29 09:46:53.531250,-184.79,72.3
119090,2018-06-29 09:46:53.562500,-232.64,72.3
119091,2018-06-29 09:46:53.593750,-258.77,72.3
119092,2018-06-29 09:46:53.625000,-278.11,72.3
119093,2018-06-29 09:46:53.656250,-279.9,72.3
119094,2018-06-29 09:46:53.687500,-248.51,72.3
119095,2018-06-29 09:46:53.718750,-183.68,72.3
119096,2018-06-29 09:46:53.750000,-107.05,72.3
119097,2018-06-29 09:46:53.781250,-38.46,72.3
119098,2018-06-29 09:46:53.812500,12.22,72.3
119099,2018-06-29 09:46:53.843750,43.34,72.3
119100,2018-06-29 09:46:53.875000,56.29,72.3
119101,2018-06-29 09:46:53.906250,49.97,72.3
119102,2018-06-29 09:46:53.937500,26.75,72.3
119103,2018-06-29 09:46:53.968750,-4.01,72.3
119104,2018-06-29 09:46:54.000000,-23.13,72.3
119105,2018-06-29 09:46:54.031250,-19.31,72.3
119106,2018-06-29 09:46:54.062500,0.63,72.3
119107,2018-06-29 09:46:54.093750,23.92,72.3
119108,2018-06-29 09:46:54.125000,47.0,72.3
119109,2018-06-29 09:46:54.156250,70.87,72.3
119110,2018-06-29 09:46:54.187500,91.16,72.3
119111,2018-06-29 09:46:54.218750,102.54,72.3
119112,2018-06-29 09:46:54.250000,104.64,72.3
119113,2018-06-29 09:46:54.281250,100.48,72.3
119114,2018-06-29 09:46:54.312500,92.26,72.3
119115,2018-06-29 09:46:54.343750,81.84,72.3
119116,2018-06-29 09:46:54.375000,71.21,72.3
119117,2018-06-29 09:46:54.406250,61.05,72.3
119118,2018-06-29 09:46:54.437500,50.37,72.3
119119,2018-06-29 09:46:54.468750,37.81,72.3
119120,2018-06-29 09:46:54.500000,22.76,72.3
119121,2018-06-29 09:46:54.531250,6.34,72.42
119122,2018-06-29 09:46:54.562500,-9.06,72.42
119123,2018-06-29 09:46:54.593750,-22.04,72.42
119124,2018-06-29 09:46:54.625000,-32.78,72.42
119125,2018-06-29 09:46:54.656250,-41.95,72.42
119126,2018-06-29 09:46:54.687500,-50.45,72.42
119127,2018-06-29 09:46:54.718750,-60.34,72.42
119128,2018-06-29 09:46:54.750000,-72.93,72.42
119129,2018-06-29 09:46:54.781250,-84.55,72.42
119130,2018-06-29 09:46:54.812500,-85.98,72.42
119131,2018-06-29 09:46:54.843750,-70.91,72.42
119132,2018-06-29 09:46:54.875000,-43.74,72.42
119133,2018-06-29 09:46:54.906250,-14.71,72.42
119134,2018-06-29 09:46:54.937500,10.18,72.42
119135,2018-06-29 09:46:54.968750,29.83,72.42
119136,2018-06-29 09:46:55.000000,43.21,72.42
119137,2018-06-29 09:46:55.031250,49.61,72.42
119138,2018-06-29 09:46:55.062500,50.32,72.42
119139,2018-06-29 09:46:55.093750,47.25,72.42
119140,2018-06-29 09:46:55.125000,41.7,72.42
119141,2018-06-29 09:46:55.156250,35.04,72.42
119142,2018-06-29 09:46:55.187500,28.53,72.42
119143,2018-06-29 09:46:55.218750,22.65,72.42
119144,2018-06-29 09:46:55.250000,16.63,72.42
119145,2018-06-29 09:46:55.281250,9.41,72.42
119146,2018-06-29 09:46:55.312500,1.89,72.42
119147,2018-06-29 09:46:55.343750,-4.0,72.42
119148,2018-06-29 09:46:55.375000,-9.2,72.42
119149,2018-06-29 09:46:55.406250,-17.13,72.42
119150,2018-06-29 09:46:55.437500,-27.92,72.42
119151,2018-06-29 09:46:55.468750,-36.98,72.42
119152,2018-06-29 09:46:55.500000,-41.17,72.42
119153,2018-06-29 09:46:55.531250,-42.71,72.45
119154,2018-06-29 09:46:55.562500,-45.75,72.45
119155,2018-06-29 09:46:55.593750,-50.68,72.45
119156,2018-06-29 09:46:55.625000,-51.07,72.45
119157,2018-06-29 09:46:55.656250,-37.04,72.45
119158,2018-06-29 09:46:55.687500,-5.2,72.45
119159,2018-06-29 09:46:55.718750,36.48,72.45
119160,2018-06-29 09:46:55.750000,76.63,72.45
119161,2018-06-29 09:46:55.781250,108.79,72.45
119162,2018-06-29 09:46:55.812500,130.42,72.45
119163,2018-06-29 09:46:55.843750,139.99,72.45
119164,2018-06-29 09:46:55.875000,138.4,72.45
119165,2018-06-29 09:46:55.906250,130.14,72.45
119166,2018-06-29 09:46:55.937500,120.11,72.45
119167,2018-06-29 09:46:55.968750,109.11,72.45
119168,2018-06-29 09:46:56.000000,93.71,72.45
119169,2018-06-29 09:46:56.031250,72.13,72.45
119170,2018-06-29 09:46:56.062500,46.26,72.45
119171,2018-06-29 09:46:56.093750,17.76,72.45
119172,2018-06-29 09:46:56.125000,-12.11,72.45
119173,2018-06-29 09:46:56.156250,-38.93,72.45
119174,2018-06-29 09:46:56.187500,-58.4,72.45
119175,2018-06-29 09:46:56.218750,-72.75,72.45
119176,2018-06-29 09:46:56.250000,-88.72,72.45
119177,2018-06-29 09:46:56.281250,-108.72,72.45
119178,2018-06-29 09:46:56.312500,-127.91,72.45
119179,2018-06-29 09:46:56.343750,-141.04,72.45
119180,2018-06-29 09:46:56.375000,-149.88,72.45
119181,2018-06-29 09:46:56.406250,-160.88,72.45
119182,2018-06-29 09:46:56.437500,-176.2,72.45
119183,2018-06-29 09:46:56.468750,-186.94,72.45
119184,2018-06-29 09:46:56.500000,-176.96,72.45
119185,2018-06-29 09:46:56.531250,-139.29,72.48
119186,2018-06-29 09:46:56.562500,-86.27,72.48
119187,2018-06-29 09:46:56.593750,-37.1,72.48
119188,2018-06-29 09:46:56.625000,-0.35,72.48
119189,2018-06-29 09:46:56.656250,24.7,72.48
119190,2018-06-29 09:46:56.687500,38.58,72.48
119191,2018-06-29 09:46:56.718750,42.69,72.48
119192,2018-06-29 09:46:56.750000,42.59,72.48
119193,2018-06-29 09:46:56.781250,43.07,72.48
119194,2018-06-29 09:46:56.812500,43.52,72.48
119195,2018-06-29 09:46:56.843750,41.6,72.48
119196,2018-06-29 09:46:56.875000,37.67,72.48
119197,2018-06-29 09:46:56.906250,32.65,72.48
119198,2018-06-29 09:46:56.937500,25.31,72.48
119199,2018-06-29 09:46:56.968750,15.17,72.48
119200,2018-06-29 09:46:57.000000,4.52,72.48
119201,2018-06-29 09:46:57.031250,-4.94,72.48
119202,2018-06-29 09:46:57.062500,-14.98,72.48
119203,2018-06-29 09:46:57.093750,-27.19,72.48
119204,2018-06-29 09:46:57.125000,-39.74,72.48
119205,2018-06-29 09:46:57.156250,-50.72,72.48
119206,2018-06-29 09:46:57.187500,-61.79,72.48
119207,2018-06-29 09:46:57.218750,-75.35,72.48
119208,2018-06-29 09:46:57.250000,-89.84,72.48
119209,2018-06-29 09:46:57.281250,-99.12,72.48
119210,2018-06-29 09:46:57.312500,-96.31,72.48
119211,2018-06-29 09:46:57.343750,-80.41,72.48
119212,2018-06-29 09:46:57.375000,-58.98,72.48
119213,2018-06-29 09:46:57.406250,-40.65,72.48
119214,2018-06-29 09:46:57.437500,-26.37,72.48
119215,2018-06-29 09:46:57.468750,-12.26,72.48
119216,2018-06-29 09:46:57.500000,3.35,72.48
119217,2018-06-29 09:46:57.531250,19.41,72.52
119218,2018-06-29 09:46:57.562500,34.74,72.52
119219,2018-06-29 09:46:57.593750,47.31,72.52
119220,2018-06-29 09:46:57.625000,54.25,72.52
119221,2018-06-29 09:46:57.656250,54.76,72.52
119222,2018-06-29 09:46:57.687500,51.04,72.52
119223,2018-06-29 09:46:57.718750,45.32,72.52
119224,2018-06-29 09:46:57.750000,37.23,72.52
119225,2018-06-29 09:46:57.781250,25.18,72.52
119226,2018-06-29 09:46:57.812500,9.62,72.52
119227,2018-06-29 09:46:57.843750,-6.77,72.52
119228,2018-06-29 09:46:57.875000,-21.16,72.52
119229,2018-06-29 09:46:57.906250,-32.56,72.52
119230,2018-06-29 09:46:57.937500,-42.55,72.52
119231,2018-06-29 09:46:57.968750,-53.53,72.52
119232,2018-06-29 09:46:58.000000,-65.17,72.52
119233,2018-06-29 09:46:58.031250,-72.38,72.52
119234,2018-06-29 09:46:58.062500,-68.41,72.52
119235,2018-06-29 09:46:58.093750,-51.99,72.52
119236,2018-06-29 09:46:58.125000,-29.52,72.52
119237,2018-06-29 09:46:58.156250,-7.58,72.52
119238,2018-06-29 09:46:58.187500,12.86,72.52
119239,2018-06-29 09:46:58.218750,31.6,72.52
119240,2018-06-29 09:46:58.250000,44.9,72.52
119241,2018-06-29 09:46:58.281250,50.15,72.52
119242,2018-06-29 09:46:58.312500,49.52,72.52
119243,2018-06-29 09:46:58.343750,45.67,72.52
119244,2018-06-29 09:46:58.375000,39.67,72.52
119245,2018-06-29 09:46:58.406250,33.87,72.52
119246,2018-06-29 09:46:58.437500,30.77,72.52
119247,2018-06-29 09:46:58.468750,28.85,72.52
119248,2018-06-29 09:46:58.500000,24.2,72.52
119249,2018-06-29 09:46:58.531250,15.95,72.6
119250,2018-06-29 09:46:58.562500,7.29,72.6
119251,2018-06-29 09:46:58.593750,0.97,72.6
119252,2018-06-29 09:46:58.625000,-4.48,72.6
119253,2018-06-29 09:46:58.656250,-12.82,72.6
119254,2018-06-29 09:46:58.687500,-24.89,72.6
119255,2018-06-29 09:46:58.718750,-35.93,72.6
119256,2018-06-29 09:46:58.750000,-38.18,72.6
119257,2018-06-29 09:46:58.781250,-26.36,72.6
119258,2018-06-29 09:46:58.812500,-1.89,72.6
119259,2018-06-29 09:46:58.843750,27.89,72.6
119260,2018-06-29 09:46:58.875000,53.53,72.6
119261,2018-06-29 09:46:58.906250,67.94,72.6
119262,2018-06-29 09:46:58.937500,71.05,72.6
119263,2018-06-29 09:46:58.968750,71.4,72.6
119264,2018-06-29 09:46:59.000000,79.1,72.6
119265,2018-06-29 09:46:59.031250,94.44,72.6
119266,2018-06-29 09:46:59.062500,102.48,72.6
119267,2018-06-29 09:46:59.093750,84.35,72.6
119268,2018-06-29 09:46:59.125000,41.86,72.6
119269,2018-06-29 09:46:59.156250,1.21,72.6
119270,2018-06-29 09:46:59.187500,-19.92,72.6
119271,2018-06-29 09:46:59.218750,-30.43,72.6
119272,2018-06-29 09:46:59.250000,-40.18,72.6
119273,2018-06-29 09:46:59.281250,-44.83,72.6
119274,2018-06-29 09:46:59.312500,-43.28,72.6
119275,2018-06-29 09:46:59.343750,-43.07,72.6
119276,2018-06-29 09:46:59.375000,-46.82,72.6
119277,2018-06-29 09:46:59.406250,-50.35,72.6
119278,2018-06-29 09:46:59.437500,-48.75,72.6
119279,2018-06-29 09:46:59.468750,-38.28,72.6
119280,2018-06-29 09:46:59.500000,-19.38,72.6
119281,2018-06-29 09:46:59.531250,3.63,72.68
119282,2018-06-29 09:46:59.562500,26.97,72.68
119283,2018-06-29 09:46:59.593750,47.24,72.68
119284,2018-06-29 09:46:59.625000,60.61,72.68
119285,2018-06-29 09:46:59.656250,65.68,72.68
119286,2018-06-29 09:46:59.687500,64.58,72.68
119287,2018-06-29 09:46:59.718750,59.98,72.68
119288,2018-06-29 09:46:59.750000,53.13,72.68
119289,2018-06-29 09:46:59.781250,45.56,72.68
119290,2018-06-29 09:46:59.812500,39.58,72.68
119291,2018-06-29 09:46:59.843750,34.99,72.68
119292,2018-06-29 09:46:59.875000,27.96,72.68
119293,2018-06-29 09:46:59.906250,15.88,72.68
119294,2018-06-29 09:46:59.937500,1.12,72.68
119295,2018-06-29 09:46:59.968750,-13.82,72.68
119296,2018-06-29 09:47:00.000000,-31.03,72.68
119297,2018-06-29 09:47:00.031250,-53.56,72.68
119298,2018-06-29 09:47:00.062500,-78.08,72.68
119299,2018-06-29 09:47:00.093750,-93.38,72.68
119300,2018-06-29 09:47:00.125000,-88.35,72.68
119301,2018-06-29 09:47:00.156250,-63.61,72.68
119302,2018-06-29 09:47:00.187500,-31.57,72.68
119303,2018-06-29 09:47:00.218750,-3.19,72.68
119304,2018-06-29 09:47:00.250000,20.04,72.68
119305,2018-06-29 09:47:00.281250,39.92,72.68
119306,2018-06-29 09:47:00.312500,54.08,72.68
119307,2018-06-29 09:47:00.343750,58.31,72.68
119308,2018-06-29 09:47:00.375000,53.18,72.68
119309,2018-06-29 09:47:00.406250,44.67,72.68
119310,2018-06-29 09:47:00.437500,38.04,72.68
119311,2018-06-29 09:47:00.468750,33.73,72.68
119312,2018-06-29 09:47:00.500000,29.81,72.68
119313,2018-06-29 09:47:00.531250,25.18,72.8
119314,2018-06-29 09:47:00.562500,18.94,72.8
119315,2018-06-29 09:47:00.593750,9.95,72.8
119316,2018-06-29 09:47:00.625000,-2.17,72.8
119317,2018-06-29 09:47:00.656250,-16.76,72.8
119318,2018-06-29 09:47:00.687500,-32.29,72.8
119319,2018-06-29 09:47:00.718750,-47.12,72.8
119320,2018-06-29 09:47:00.750000,-61.55,72.8
119321,2018-06-29 09:47:00.781250,-78.75,72.8
119322,2018-06-29 09:47:00.812500,-100.96,72.8
119323,2018-06-29 09:47:00.843750,-123.09,72.8
119324,2018-06-29 09:47:00.875000,-132.31,72.8
119325,2018-06-29 09:47:00.906250,-119.17,72.8
119326,2018-06-29 09:47:00.937500,-88.89,72.8
119327,2018-06-29 09:47:00.968750,-55.98,72.8
119328,2018-06-29 09:47:01.000000,-28.7,72.8
119329,2018-06-29 09:47:01.031250,-5.59,72.8
119330,2018-06-29 09:47:01.062500,15.16,72.8
119331,2018-06-29 09:47:01.093750,30.25,72.8
119332,2018-06-29 09:47:01.125000,36.21,72.8
119333,2018-06-29 09:47:01.156250,35.12,72.8
119334,2018-06-29 09:47:01.187500,33.67,72.8
119335,2018-06-29 09:47:01.218750,37.08,72.8
119336,2018-06-29 09:47:01.250000,45.27,72.8
119337,2018-06-29 09:47:01.281250,54.54,72.8
119338,2018-06-29 09:47:01.312500,60.69,72.8
119339,2018-06-29 09:47:01.343750,60.62,72.8
119340,2018-06-29 09:47:01.375000,53.9,72.8
119341,2018-06-29 09:47:01.406250,44.28,72.8
119342,2018-06-29 09:47:01.437500,36.87,72.8
119343,2018-06-29 09:47:01.468750,32.63,72.8
119344,2018-06-29 09:47:01.500000,28.45,72.8
119345,2018-06-29 09:47:01.531250,22.67,72.93
119346,2018-06-29 09:47:01.562500,17.19,72.93
119347,2018-06-29 09:47:01.593750,13.52,72.93
119348,2018-06-29 09:47:01.625000,9.97,72.93
119349,2018-06-29 09:47:01.656250,3.41,72.93
119350,2018-06-29 09:47:01.687500,-6.88,72.93
119351,2018-06-29 09:47:01.718750,-18.2,72.93
119352,2018-06-29 09:47:01.750000,-28.04,72.93
119353,2018-06-29 09:47:01.781250,-37.5,72.93
119354,2018-06-29 09:47:01.812500,-48.93,72.93
119355,2018-06-29 09:47:01.843750,-61.38,72.93
119356,2018-06-29 09:47:01.875000,-72.07,72.93
119357,2018-06-29 09:47:01.906250,-81.49,72.93
119358,2018-06-29 09:47:01.937500,-93.48,72.93
119359,2018-06-29 09:47:01.968750,-110.76,72.93
119360,2018-06-29 09:47:02.000000,-130.67,72.93
119361,2018-06-29 09:47:02.031250,-142.23,72.93
119362,2018-06-29 09:47:02.062500,-130.89,72.93
119363,2018-06-29 09:47:02.093750,-93.66,72.93
119364,2018-06-29 09:47:02.125000,-44.7,72.93
119365,2018-06-29 09:47:02.156250,0.56,72.93
119366,2018-06-29 09:47:02.187500,39.25,72.93
119367,2018-06-29 09:47:02.218750,74.41,72.93
119368,2018-06-29 09:47:02.250000,104.71,72.93
119369,2018-06-29 09:47:02.281250,125.87,72.93
119370,2018-06-29 09:47:02.312500,135.98,72.93
119371,2018-06-29 09:47:02.343750,136.08,72.93
119372,2018-06-29 09:47:02.375000,128.83,72.93
119373,2018-06-29 09:47:02.406250,118.11,72.93
119374,2018-06-29 09:47:02.437500,107.64,72.93
119375,2018-06-29 09:47:02.468750,97.8,72.93
119376,2018-06-29 09:47:02.500000,86.51,72.93
119377,2018-06-29 09:47:02.531250,74.03,73.03
119378,2018-06-29 09:47:02.562500,63.09,73.03
119379,2018-06-29 09:47:02.593750,54.39,73.03
119380,2018-06-29 09:47:02.625000,45.76,73.03
119381,2018-06-29 09:47:02.656250,35.61,73.03
119382,2018-06-29 09:47:02.687500,24.78,73.03
119383,2018-06-29 09:47:02.718750,15.39,73.03
119384,2018-06-29 09:47:02.750000,8.1,73.03
119385,2018-06-29 09:47:02.781250,0.98,73.03
119386,2018-06-29 09:47:02.812500,-7.62,73.03
119387,2018-06-29 09:47:02.843750,-17.01,73.03
119388,2018-06-29 09:47:02.875000,-26.61,73.03
119389,2018-06-29 09:47:02.906250,-37.57,73.03
119390,2018-06-29 09:47:02.937500,-50.43,73.03
119391,2018-06-29 09:47:02.968750,-63.74,73.03
119392,2018-06-29 09:47:03.000000,-75.94,73.03
119393,2018-06-29 09:47:03.031250,-87.74,73.03
119394,2018-06-29 09:47:03.062500,-101.88,73.03
119395,2018-06-29 09:47:03.093750,-120.59,73.03
119396,2018-06-29 09:47:03.125000,-140.58,73.03
119397,2018-06-29 09:47:03.156250,-149.77,73.03
119398,2018-06-29 09:47:03.187500,-135.88,73.03
119399,2018-06-29 09:47:03.218750,-101.41,73.03
119400,2018-06-29 09:47:03.250000,-62.36,73.03
119401,2018-06-29 09:47:03.281250,-29.97,73.03
119402,2018-06-29 09:47:03.312500,-2.42,73.03
119403,2018-06-29 09:47:03.343750,24.84,73.03
119404,2018-06-29 09:47:03.375000,50.05,73.03
119405,2018-06-29 09:47:03.406250,68.31,73.03
119406,2018-06-29 09:47:03.437500,77.93,73.03
119407,2018-06-29 09:47:03.468750,81.72,73.03
119408,2018-06-29 09:47:03.500000,83.52,73.03
119409,2018-06-29 09:47:03.531250,85.06,73.12
119410,2018-06-29 09:47:03.562500,86.11,73.12
119411,2018-06-29 09:47:03.593750,85.63,73.12
119412,2018-06-29 09:47:03.625000,82.17,73.12
119413,2018-06-29 09:47:03.656250,75.31,73.12
119414,2018-06-29 09:47:03.687500,66.21,73.12
119415,2018-06-29 09:47:03.718750,56.25,73.12
119416,2018-06-29 09:47:03.750000,45.42,73.12
119417,2018-06-29 09:47:03.781250,33.43,73.12
119418,2018-06-29 09:47:03.812500,21.05,73.12
119419,2018-06-29 09:47:03.843750,9.13,73.12
119420,2018-06-29 09:47:03.875000,-2.93,73.12
119421,2018-06-29 09:47:03.906250,-16.19,73.12
119422,2018-06-29 09:47:03.937500,-30.18,73.12
119423,2018-06-29 09:47:03.968750,-44.01,73.12
119424,2018-06-29 09:47:04.000000,-58.0,73.12
119425,2018-06-29 09:47:04.031250,-72.23,73.12
119426,2018-06-29 09:47:04.062500,-85.91,73.12
119427,2018-06-29 09:47:04.093750,-99.0,73.12
119428,2018-06-29 09:47:04.125000,-111.75,73.12
119429,2018-06-29 09:47:04.156250,-123.7,73.12
119430,2018-06-29 09:47:04.187500,-134.14,73.12
119431,2018-06-29 09:47:04.218750,-138.86,73.12
119432,2018-06-29 09:47:04.250000,-128.78,73.12
119433,2018-06-29 09:47:04.281250,-98.9,73.12
119434,2018-06-29 09:47:04.312500,-56.16,73.12
119435,2018-06-29 09:47:04.343750,-12.17,73.12
119436,2018-06-29 09:47:04.375000,26.91,73.12
119437,2018-06-29 09:47:04.406250,59.82,73.12
119438,2018-06-29 09:47:04.437500,85.29,73.12
119439,2018-06-29 09:47:04.468750,101.61,73.12
119440,2018-06-29 09:47:04.500000,108.28,73.12
119441,2018-06-29 09:47:04.531250,106.93,73.13
119442,2018-06-29 09:47:04.562500,101.13,73.13
119443,2018-06-29 09:47:04.593750,94.81,73.13
119444,2018-06-29 09:47:04.625000,90.63,73.13
119445,2018-06-29 09:47:04.656250,89.22,73.13
119446,2018-06-29 09:47:04.687500,88.98,73.13
119447,2018-06-29 09:47:04.718750,87.03,73.13
119448,2018-06-29 09:47:04.750000,81.74,73.13
119449,2018-06-29 09:47:04.781250,74.07,73.13
119450,2018-06-29 09:47:04.812500,66.11,73.13
119451,2018-06-29 09:47:04.843750,58.56,73.13
119452,2018-06-29 09:47:04.875000,50.64,73.13
119453,2018-06-29 09:47:04.906250,42.15,73.13
119454,2018-06-29 09:47:04.937500,34.13,73.13
119455,2018-06-29 09:47:04.968750,26.59,73.13
119456,2018-06-29 09:47:05.000000,17.86,73.13
119457,2018-06-29 09:47:05.031250,7.14,73.13
119458,2018-06-29 09:47:05.062500,-4.48,73.13
119459,2018-06-29 09:47:05.093750,-16.17,73.13
119460,2018-06-29 09:47:05.125000,-28.31,73.13
119461,2018-06-29 09:47:05.156250,-41.28,73.13
119462,2018-06-29 09:47:05.187500,-54.58,73.13
119463,2018-06-29 09:47:05.218750,-66.69,73.13
119464,2018-06-29 09:47:05.250000,-76.37,73.13
119465,2018-06-29 09:47:05.281250,-84.77,73.13
119466,2018-06-29 09:47:05.312500,-95.69,73.13
119467,2018-06-29 09:47:05.343750,-111.57,73.13
119468,2018-06-29 09:47:05.375000,-127.44,73.13
119469,2018-06-29 09:47:05.406250,-130.5,73.13
119470,2018-06-29 09:47:05.437500,-111.5,73.13
119471,2018-06-29 09:47:05.468750,-76.19,73.13
119472,2018-06-29 09:47:05.500000,-38.76,73.13
119473,2018-06-29 09:47:05.531250,-6.65,73.13
119474,2018-06-29 09:47:05.562500,21.27,73.13
119475,2018-06-29 09:47:05.593750,46.34,73.13
119476,2018-06-29 09:47:05.625000,66.97,73.13
119477,2018-06-29 09:47:05.656250,80.77,73.13
119478,2018-06-29 09:47:05.687500,86.79,73.13
119479,2018-06-29 09:47:05.718750,86.91,73.13
119480,2018-06-29 09:47:05.750000,84.69,73.13
119481,2018-06-29 09:47:05.781250,82.7,73.13
119482,2018-06-29 09:47:05.812500,80.79,73.13
119483,2018-06-29 09:47:05.843750,76.29,73.13
119484,2018-06-29 09:47:05.875000,66.56,73.13
119485,2018-06-29 09:47:05.906250,52.53,73.13
119486,2018-06-29 09:47:05.937500,38.11,73.13
119487,2018-06-29 09:47:05.968750,25.61,73.13
119488,2018-06-29 09:47:06.000000,14.31,73.13
119489,2018-06-29 09:47:06.031250,3.06,73.13
119490,2018-06-29 09:47:06.062500,-7.76,73.13
119491,2018-06-29 09:47:06.093750,-17.09,73.13
119492,2018-06-29 09:47:06.125000,-25.3,73.13
119493,2018-06-29 09:47:06.156250,-34.05,73.13
119494,2018-06-29 09:47:06.187500,-43.52,73.13
119495,2018-06-29 09:47:06.218750,-51.93,73.13
119496,2018-06-29 09:47:06.250000,-59.23,73.13
119497,2018-06-29 09:47:06.281250,-67.91,73.13
119498,2018-06-29 09:47:06.312500,-78.71,73.13
119499,2018-06-29 09:47:06.343750,-89.22,73.13
119500,2018-06-29 09:47:06.375000,-97.38,73.13
119501,2018-06-29 09:47:06.406250,-103.92,73.13
119502,2018-06-29 09:47:06.437500,-112.0,73.13
119503,2018-06-29 09:47:06.468750,-123.87,73.13
119504,2018-06-29 09:47:06.500000,-134.05,73.13
119505,2018-06-29 09:47:06.531250,-129.21,73.12
119506,2018-06-29 09:47:06.562500,-101.71,73.12
119507,2018-06-29 09:47:06.593750,-59.6,73.12
119508,2018-06-29 09:47:06.625000,-17.31,73.12
119509,2018-06-29 09:47:06.656250,17.57,73.12
119510,2018-06-29 09:47:06.687500,45.51,73.12
119511,2018-06-29 09:47:06.718750,69.15,73.12
119512,2018-06-29 09:47:06.750000,89.38,73.12
119513,2018-06-29 09:47:06.781250,104.96,73.12
119514,2018-06-29 09:47:06.812500,115.23,73.12
119515,2018-06-29 09:47:06.843750,121.41,73.12
119516,2018-06-29 09:47:06.875000,125.18,73.12
119517,2018-06-29 09:47:06.906250,128.24,73.12
119518,2018-06-29 09:47:06.937500,131.54,73.12
119519,2018-06-29 09:47:06.968750,133.35,73.12
119520,2018-06-29 09:47:07.000000,130.65,73.12
119521,2018-06-29 09:47:07.031250,122.66,73.12
119522,2018-06-29 09:47:07.062500,110.07,73.12
119523,2018-06-29 09:47:07.093750,92.54,73.12
119524,2018-06-29 09:47:07.125000,70.26,73.12
119525,2018-06-29 09:47:07.156250,46.39,73.12
119526,2018-06-29 09:47:07.187500,24.87,73.12
119527,2018-06-29 09:47:07.218750,7.25,73.12
119528,2018-06-29 09:47:07.250000,-6.87,73.12
119529,2018-06-29 09:47:07.281250,-17.98,73.12
119530,2018-06-29 09:47:07.312500,-26.53,73.12
119531,2018-06-29 09:47:07.343750,-34.17,73.12
119532,2018-06-29 09:47:07.375000,-44.25,73.12
119533,2018-06-29 09:47:07.406250,-59.33,73.12
119534,2018-06-29 09:47:07.437500,-77.79,73.12
119535,2018-06-29 09:47:07.468750,-95.06,73.12
119536,2018-06-29 09:47:07.500000,-109.26,73.12
119537,2018-06-29 09:47:07.531250,-123.36,73.1
119538,2018-06-29 09:47:07.562500,-139.86,73.1
119539,2018-06-29 09:47:07.593750,-153.06,73.1
119540,2018-06-29 09:47:07.625000,-149.76,73.1
119541,2018-06-29 09:47:07.656250,-121.95,73.1
119542,2018-06-29 09:47:07.687500,-76.88,73.1
119543,2018-06-29 09:47:07.718750,-29.75,73.1
119544,2018-06-29 09:47:07.750000,10.21,73.1
119545,2018-06-29 09:47:07.781250,41.87,73.1
119546,2018-06-29 09:47:07.812500,66.43,73.1
119547,2018-06-29 09:47:07.843750,84.85,73.1
119548,2018-06-29 09:47:07.875000,97.32,73.1
119549,2018-06-29 09:47:07.906250,102.74,73.1
119550,2018-06-29 09:47:07.937500,101.25,73.1
119551,2018-06-29 09:47:07.968750,96.25,73.1
119552,2018-06-29 09:47:08.000000,91.41,73.1
119553,2018-06-29 09:47:08.031250,87.01,73.1
119554,2018-06-29 09:47:08.062500,80.44,73.1
119555,2018-06-29 09:47:08.093750,69.75,73.1
119556,2018-06-29 09:47:08.125000,55.07,73.1
119557,2018-06-29 09:47:08.156250,37.13,73.1
119558,2018-06-29 09:47:08.187500,16.32,73.1
119559,2018-06-29 09:47:08.218750,-6.12,73.1
119560,2018-06-29 09:47:08.250000,-27.59,73.1
119561,2018-06-29 09:47:08.281250,-45.8,73.1
119562,2018-06-29 09:47:08.312500,-59.8,73.1
119563,2018-06-29 09:47:08.343750,-70.09,73.1
119564,2018-06-29 09:47:08.375000,-78.4,73.1
119565,2018-06-29 09:47:08.406250,-86.52,73.1
119566,2018-06-29 09:47:08.437500,-95.34,73.1
119567,2018-06-29 09:47:08.468750,-106.33,73.1
119568,2018-06-29 09:47:08.500000,-121.47,73.1
119569,2018-06-29 09:47:08.531250,-137.27,73.08
119570,2018-06-29 09:47:08.562500,-141.0,73.08
119571,2018-06-29 09:47:08.593750,-120.67,73.08
119572,2018-06-29 09:47:08.625000,-78.76,73.08
119573,2018-06-29 09:47:08.656250,-30.47,73.08
119574,2018-06-29 09:47:08.687500,10.8,73.08
119575,2018-06-29 09:47:08.718750,41.23,73.08
119576,2018-06-29 09:47:08.750000,62.14,73.08
119577,2018-06-29 09:47:08.781250,74.57,73.08
119578,2018-06-29 09:47:08.812500,79.45,73.08
119579,2018-06-29 09:47:08.843750,79.4,73.08
119580,2018-06-29 09:47:08.875000,77.83,73.08
119581,2018-06-29 09:47:08.906250,76.93,73.08
119582,2018-06-29 09:47:08.937500,76.78,73.08
119583,2018-06-29 09:47:08.968750,75.85,73.08
119584,2018-06-29 09:47:09.000000,71.75,73.08
119585,2018-06-29 09:47:09.031250,63.4,73.08
119586,2018-06-29 09:47:09.062500,52.9,73.08
119587,2018-06-29 09:47:09.093750,43.66,73.08
119588,2018-06-29 09:47:09.125000,35.94,73.08
119589,2018-06-29 09:47:09.156250,26.6,73.08
119590,2018-06-29 09:47:09.187500,13.44,73.08
119591,2018-06-29 09:47:09.218750,-2.13,73.08
119592,2018-06-29 09:47:09.250000,-17.62,73.08
119593,2018-06-29 09:47:09.281250,-33.44,73.08
119594,2018-06-29 09:47:09.312500,-52.52,73.08
119595,2018-06-29 09:47:09.343750,-74.64,73.08
119596,2018-06-29 09:47:09.375000,-91.07,73.08
119597,2018-06-29 09:47:09.406250,-89.11,73.08
119598,2018-06-29 09:47:09.437500,-65.68,73.08
119599,2018-06-29 09:47:09.468750,-32.09,73.08
119600,2018-06-29 09:47:09.500000,-1.99,73.08
119601,2018-06-29 09:47:09.531250,20.02,72.92
119602,2018-06-29 09:47:09.562500,35.64,72.92
119603,2018-06-29 09:47:09.593750,45.85,72.92
119604,2018-06-29 09:47:09.625000,50.35,72.92
119605,2018-06-29 09:47:09.656250,49.38,72.92
119606,2018-06-29 09:47:09.687500,43.98,72.92
119607,2018-06-29 09:47:09.718750,36.52,72.92
119608,2018-06-29 09:47:09.750000,31.35,72.92
119609,2018-06-29 09:47:09.781250,32.29,72.92
119610,2018-06-29 09:47:09.812500,38.09,72.92
119611,2018-06-29 09:47:09.843750,42.64,72.92
119612,2018-06-29 09:47:09.875000,41.64,72.92
119613,2018-06-29 09:47:09.906250,36.41,72.92
119614,2018-06-29 09:47:09.937500,29.79,72.92
119615,2018-06-29 09:47:09.968750,22.01,72.92
119616,2018-06-29 09:47:10.000000,12.5,72.92
119617,2018-06-29 09:47:10.031250,2.24,72.92
119618,2018-06-29 09:47:10.062500,-7.49,72.92
119619,2018-06-29 09:47:10.093750,-17.22,72.92
119620,2018-06-29 09:47:10.125000,-29.57,72.92
119621,2018-06-29 09:47:10.156250,-46.52,72.92
119622,2018-06-29 09:47:10.187500,-65.3,72.92
119623,2018-06-29 09:47:10.218750,-76.89,72.92
119624,2018-06-29 09:47:10.250000,-71.36,72.92
119625,2018-06-29 09:47:10.281250,-46.88,72.92
119626,2018-06-29 09:47:10.312500,-12.81,72.92
119627,2018-06-29 09:47:10.343750,18.8,72.92
119628,2018-06-29 09:47:10.375000,42.71,72.92
119629,2018-06-29 09:47:10.406250,59.25,72.92
119630,2018-06-29 09:47:10.437500,68.32,72.92
119631,2018-06-29 09:47:10.468750,69.42,72.92
119632,2018-06-29 09:47:10.500000,64.78,72.92
119633,2018-06-29 09:47:10.531250,58.52,72.73
119634,2018-06-29 09:47:10.562500,54.2,72.73
119635,2018-06-29 09:47:10.593750,54.1,72.73
119636,2018-06-29 09:47:10.625000,58.13,72.73
119637,2018-06-29 09:47:10.656250,62.57,72.73
119638,2018-06-29 09:47:10.687500,62.15,72.73
119639,2018-06-29 09:47:10.718750,54.51,72.73
119640,2018-06-29 09:47:10.750000,41.59,72.73
119641,2018-06-29 09:47:10.781250,27.39,72.73
119642,2018-06-29 09:47:10.812500,15.48,72.73
119643,2018-06-29 09:47:10.843750,8.15,72.73
119644,2018-06-29 09:47:10.875000,5.45,72.73
119645,2018-06-29 09:47:10.906250,5.0,72.73
119646,2018-06-29 09:47:10.937500,3.55,72.73
119647,2018-06-29 09:47:10.968750,-1.0,72.73
119648,2018-06-29 09:47:11.000000,-8.93,72.73
119649,2018-06-29 09:47:11.031250,-20.4,72.73
119650,2018-06-29 09:47:11.062500,-36.59,72.73
119651,2018-06-29 09:47:11.093750,-57.36,72.73
119652,2018-06-29 09:47:11.125000,-79.21,72.73
119653,2018-06-29 09:47:11.156250,-98.26,72.73
119654,2018-06-29 09:47:11.187500,-114.56,72.73
119655,2018-06-29 09:47:11.218750,-130.92,72.73
119656,2018-06-29 09:47:11.250000,-147.53,72.73
119657,2018-06-29 09:47:11.281250,-157.25,72.73
119658,2018-06-29 09:47:11.312500,-148.56,72.73
119659,2018-06-29 09:47:11.343750,-117.21,72.73
119660,2018-06-29 09:47:11.375000,-72.93,72.73
119661,2018-06-29 09:47:11.406250,-30.26,72.73
119662,2018-06-29 09:47:11.437500,3.73,72.73
119663,2018-06-29 09:47:11.468750,29.29,72.73
119664,2018-06-29 09:47:11.500000,47.53,72.73
119665,2018-06-29 09:47:11.531250,59.2,72.52
119666,2018-06-29 09:47:11.562500,65.59,72.52
119667,2018-06-29 09:47:11.593750,67.69,72.52
119668,2018-06-29 09:47:11.625000,66.52,72.52
119669,2018-06-29 09:47:11.656250,63.91,72.52
119670,2018-06-29 09:47:11.687500,61.91,72.52
119671,2018-06-29 09:47:11.718750,60.73,72.52
119672,2018-06-29 09:47:11.750000,58.58,72.52
119673,2018-06-29 09:47:11.781250,53.58,72.52
119674,2018-06-29 09:47:11.812500,45.77,72.52
119675,2018-06-29 09:47:11.843750,37.02,72.52
119676,2018-06-29 09:47:11.875000,28.97,72.52
119677,2018-06-29 09:47:11.906250,21.49,72.52
119678,2018-06-29 09:47:11.937500,13.69,72.52
119679,2018-06-29 09:47:11.968750,5.75,72.52
119680,2018-06-29 09:47:12.000000,-1.0,72.52
119681,2018-06-29 09:47:12.031250,-6.32,72.52
119682,2018-06-29 09:47:12.062500,-11.73,72.52
119683,2018-06-29 09:47:12.093750,-18.75,72.52
119684,2018-06-29 09:47:12.125000,-27.32,72.52
119685,2018-06-29 09:47:12.156250,-36.48,72.52
119686,2018-06-29 09:47:12.187500,-46.15,72.52
119687,2018-06-29 09:47:12.218750,-57.81,72.52
119688,2018-06-29 09:47:12.250000,-72.65,72.52
119689,2018-06-29 09:47:12.281250,-86.99,72.52
119690,2018-06-29 09:47:12.312500,-90.69,72.52
119691,2018-06-29 09:47:12.343750,-75.61,72.52
119692,2018-06-29 09:47:12.375000,-46.32,72.52
119693,2018-06-29 09:47:12.406250,-16.03,72.52
119694,2018-06-29 09:47:12.437500,7.19,72.52
119695,2018-06-29 09:47:12.468750,23.85,72.52
119696,2018-06-29 09:47:12.500000,35.94,72.52
119697,2018-06-29 09:47:12.531250,43.57,72.28
119698,2018-06-29 09:47:12.562500,47.72,72.28
119699,2018-06-29 09:47:12.593750,50.69,72.28
119700,2018-06-29 09:47:12.625000,53.35,72.28
119701,2018-06-29 09:47:12.656250,54.71,72.28
119702,2018-06-29 09:47:12.687500,54.36,72.28
119703,2018-06-29 09:47:12.718750,53.27,72.28
119704,2018-06-29 09:47:12.750000,51.5,72.28
119705,2018-06-29 09:47:12.781250,47.35,72.28
119706,2018-06-29 09:47:12.812500,40.2,72.28
119707,2018-06-29 09:47:12.843750,32.09,72.28
119708,2018-06-29 09:47:12.875000,25.31,72.28
119709,2018-06-29 09:47:12.906250,19.28,72.28
119710,2018-06-29 09:47:12.937500,12.16,72.28
119711,2018-06-29 09:47:12.968750,4.19,72.28
119712,2018-06-29 09:47:13.000000,-2.81,72.28
119713,2018-06-29 09:47:13.031250,-8.89,72.28
119714,2018-06-29 09:47:13.062500,-16.51,72.28
119715,2018-06-29 09:47:13.093750,-26.78,72.28
119716,2018-06-29 09:47:13.125000,-37.78,72.28
119717,2018-06-29 09:47:13.156250,-47.75,72.28
119718,2018-06-29 09:47:13.187500,-57.79,72.28
119719,2018-06-29 09:47:13.218750,-70.56,72.28
119720,2018-06-29 09:47:13.250000,-86.31,72.28
119721,2018-06-29 09:47:13.281250,-99.29,72.28
119722,2018-06-29 09:47:13.312500,-99.03,72.28
119723,2018-06-29 09:47:13.343750,-79.75,72.28
119724,2018-06-29 09:47:13.375000,-47.48,72.28
119725,2018-06-29 09:47:13.406250,-14.3,72.28
119726,2018-06-29 09:47:13.437500,12.54,72.28
119727,2018-06-29 09:47:13.468750,32.78,72.28
119728,2018-06-29 09:47:13.500000,48.15,72.28
119729,2018-06-29 09:47:13.531250,58.99,72.03
119730,2018-06-29 09:47:13.562500,64.38,72.03
119731,2018-06-29 09:47:13.593750,63.84,72.03
119732,2018-06-29 09:47:13.625000,59.21,72.03
119733,2018-06-29 09:47:13.656250,54.12,72.03
119734,2018-06-29 09:47:13.687500,51.37,72.03
119735,2018-06-29 09:47:13.718750,50.69,72.03
119736,2018-06-29 09:47:13.750000,49.22,72.03
119737,2018-06-29 09:47:13.781250,44.77,72.03
119738,2018-06-29 09:47:13.812500,37.91,72.03
119739,2018-06-29 09:47:13.843750,30.9,72.03
119740,2018-06-29 09:47:13.875000,24.96,72.03
119741,2018-06-29 09:47:13.906250,19.52,72.03
119742,2018-06-29 09:47:13.937500,13.63,72.03
119743,2018-06-29 09:47:13.968750,6.83,72.03
119744,2018-06-29 09:47:14.000000,-1.18,72.03
119745,2018-06-29 09:47:14.031250,-10.36,72.03
119746,2018-06-29 09:47:14.062500,-20.01,72.03
119747,2018-06-29 09:47:14.093750,-29.4,72.03
119748,2018-06-29 09:47:14.125000,-39.01,72.03
119749,2018-06-29 09:47:14.156250,-49.68,72.03
119750,2018-06-29 09:47:14.187500,-60.67,72.03
119751,2018-06-29 09:47:14.218750,-69.54,72.03
119752,2018-06-29 09:47:14.250000,-75.37,72.03
119753,2018-06-29 09:47:14.281250,-80.75,72.03
119754,2018-06-29 09:47:14.312500,-89.11,72.03
119755,2018-06-29 09:47:14.343750,-99.34,72.03
119756,2018-06-29 09:47:14.375000,-102.69,72.03
119757,2018-06-29 09:47:14.406250,-89.4,72.03
119758,2018-06-29 09:47:14.437500,-60.47,72.03
119759,2018-06-29 09:47:14.468750,-28.39,72.03
119760,2018-06-29 09:47:14.500000,-4.03,72.03
119761,2018-06-29 09:47:14.531250,11.95,71.8
119762,2018-06-29 09:47:14.562500,23.74,71.8
119763,2018-06-29 09:47:14.593750,33.51,71.8
119764,2018-06-29 09:47:14.625000,41.32,71.8
119765,2018-06-29 09:47:14.656250,47.03,71.8
119766,2018-06-29 09:47:14.687500,50.55,71.8
119767,2018-06-29 09:47:14.718750,52.33,71.8
119768,2018-06-29 09:47:14.750000,54.69,71.8
119769,2018-06-29 09:47:14.781250,59.87,71.8
119770,2018-06-29 09:47:14.812500,66.63,71.8
119771,2018-06-29 09:47:14.843750,71.32,71.8
119772,2018-06-29 09:47:14.875000,71.82,71.8
119773,2018-06-29 09:47:14.906250,67.64,71.8
119774,2018-06-29 09:47:14.937500,58.69,71.8
119775,2018-06-29 09:47:14.968750,46.3,71.8
119776,2018-06-29 09:47:15.000000,33.34,71.8
119777,2018-06-29 09:47:15.031250,21.69,71.8
119778,2018-06-29 09:47:15.062500,10.82,71.8
119779,2018-06-29 09:47:15.093750,-0.85,71.8
119780,2018-06-29 09:47:15.125000,-13.17,71.8
119781,2018-06-29 09:47:15.156250,-24.46,71.8
119782,2018-06-29 09:47:15.187500,-34.74,71.8
119783,2018-06-29 09:47:15.218750,-46.97,71.8
119784,2018-06-29 09:47:15.250000,-63.49,71.8
119785,2018-06-29 09:47:15.281250,-81.16,71.8
119786,2018-06-29 09:47:15.312500,-90.49,71.8
119787,2018-06-29 09:47:15.343750,-82.26,71.8
119788,2018-06-29 09:47:15.375000,-57.43,71.8
119789,2018-06-29 09:47:15.406250,-28.31,71.8
119790,2018-06-29 09:47:15.437500,-6.94,71.8
119791,2018-06-29 09:47:15.468750,4.61,71.8
119792,2018-06-29 09:47:15.500000,11.13,71.8
119793,2018-06-29 09:47:15.531250,16.99,71.57
119794,2018-06-29 09:47:15.562500,23.81,71.57
119795,2018-06-29 09:47:15.593750,31.55,71.57
119796,2018-06-29 09:47:15.625000,40.1,71.57
119797,2018-06-29 09:47:15.656250,50.01,71.57
119798,2018-06-29 09:47:15.687500,60.69,71.57
119799,2018-06-29 09:47:15.718750,69.41,71.57
119800,2018-06-29 09:47:15.750000,73.05,71.57
119801,2018-06-29 09:47:15.781250,69.92,71.57
119802,2018-06-29 09:47:15.812500,60.18,71.57
119803,2018-06-29 09:47:15.843750,45.99,71.57
119804,2018-06-29 09:47:15.875000,30.26,71.57
119805,2018-06-29 09:47:15.906250,14.42,71.57
119806,2018-06-29 09:47:15.937500,-0.94,71.57
119807,2018-06-29 09:47:15.968750,-14.34,71.57
119808,2018-06-29 09:47:16.000000,-24.44,71.57
119809,2018-06-29 09:47:16.031250,-32.04,71.57
119810,2018-06-29 09:47:16.062500,-39.18,71.57
119811,2018-06-29 09:47:16.093750,-46.23,71.57
119812,2018-06-29 09:47:16.125000,-52.14,71.57
119813,2018-06-29 09:47:16.156250,-57.54,71.57
119814,2018-06-29 09:47:16.187500,-65.2,71.57
119815,2018-06-29 09:47:16.218750,-76.54,71.57
119816,2018-06-29 09:47:16.250000,-88.1,71.57
119817,2018-06-29 09:47:16.281250,-91.4,71.57
119818,2018-06-29 09:47:16.312500,-79.44,71.57
119819,2018-06-29 09:47:16.343750,-55.49,71.57
119820,2018-06-29 09:47:16.375000,-30.7,71.57
119821,2018-06-29 09:47:16.406250,-11.92,71.57
119822,2018-06-29 09:47:16.437500,3.15,71.57
119823,2018-06-29 09:47:16.468750,18.38,71.57
119824,2018-06-29 09:47:16.500000,33.14,71.57
119825,2018-06-29 09:47:16.531250,44.92,71.35
119826,2018-06-29 09:47:16.562500,53.23,71.35
119827,2018-06-29 09:47:16.593750,58.47,71.35
119828,2018-06-29 09:47:16.625000,60.41,71.35
119829,2018-06-29 09:47:16.656250,59.85,71.35
119830,2018-06-29 09:47:16.687500,58.81,71.35
119831,2018-06-29 09:47:16.718750,57.02,71.35
119832,2018-06-29 09:47:16.750000,51.66,71.35
119833,2018-06-29 09:47:16.781250,42.04,71.35
119834,2018-06-29 09:47:16.812500,31.39,71.35
119835,2018-06-29 09:47:16.843750,22.4,71.35
119836,2018-06-29 09:47:16.875000,14.21,71.35
119837,2018-06-29 09:47:16.906250,4.97,71.35
119838,2018-06-29 09:47:16.937500,-4.53,71.35
119839,2018-06-29 09:47:16.968750,-11.71,71.35
119840,2018-06-29 09:47:17.000000,-16.21,71.35
119841,2018-06-29 09:47:17.031250,-21.05,71.35
119842,2018-06-29 09:47:17.062500,-28.85,71.35
119843,2018-06-29 09:47:17.093750,-38.59,71.35
119844,2018-06-29 09:47:17.125000,-47.92,71.35
119845,2018-06-29 09:47:17.156250,-57.39,71.35
119846,2018-06-29 09:47:17.187500,-70.01,71.35
119847,2018-06-29 09:47:17.218750,-86.86,71.35
119848,2018-06-29 09:47:17.250000,-102.29,71.35
119849,2018-06-29 09:47:17.281250,-104.45,71.35
119850,2018-06-29 09:47:17.312500,-85.49,71.35
119851,2018-06-29 09:47:17.343750,-51.31,71.35
119852,2018-06-29 09:47:17.375000,-16.22,71.35
119853,2018-06-29 09:47:17.406250,11.75,71.35
119854,2018-06-29 09:47:17.437500,33.71,71.35
119855,2018-06-29 09:47:17.468750,51.38,71.35
119856,2018-06-29 09:47:17.500000,63.66,71.35
119857,2018-06-29 09:47:17.531250,69.76,71.05
119858,2018-06-29 09:47:17.562500,70.41,71.05
119859,2018-06-29 09:47:17.593750,67.18,71.05
119860,2018-06-29 09:47:17.625000,62.37,71.05
119861,2018-06-29 09:47:17.656250,58.07,71.05
119862,2018-06-29 09:47:17.687500,55.06,71.05
119863,2018-06-29 09:47:17.718750,52.55,71.05
119864,2018-06-29 09:47:17.750000,48.79,71.05
119865,2018-06-29 09:47:17.781250,42.84,71.05
119866,2018-06-29 09:47:17.812500,35.36,71.05
119867,2018-06-29 09:47:17.843750,27.2,71.05
119868,2018-06-29 09:47:17.875000,17.87,71.05
119869,2018-06-29 09:47:17.906250,7.27,71.05
119870,2018-06-29 09:47:17.937500,-2.94,71.05
119871,2018-06-29 09:47:17.968750,-10.76,71.05
119872,2018-06-29 09:47:18.000000,-15.94,71.05
119873,2018-06-29 09:47:18.031250,-19.78,71.05
119874,2018-06-29 09:47:18.062500,-23.05,71.05
119875,2018-06-29 09:47:18.093750,-25.8,71.05
119876,2018-06-29 09:47:18.125000,-29.51,71.05
119877,2018-06-29 09:47:18.156250,-36.8,71.05
119878,2018-06-29 09:47:18.187500,-47.47,71.05
119879,2018-06-29 09:47:18.218750,-58.34,71.05
119880,2018-06-29 09:47:18.250000,-67.82,71.05
119881,2018-06-29 09:47:18.281250,-77.99,71.05
119882,2018-06-29 09:47:18.312500,-91.42,71.05
119883,2018-06-29 09:47:18.343750,-106.78,71.05
119884,2018-06-29 09:47:18.375000,-115.92,71.05
119885,2018-06-29 09:47:18.406250,-108.04,71.05
119886,2018-06-29 09:47:18.437500,-80.68,71.05
119887,2018-06-29 09:47:18.468750,-43.81,71.05
119888,2018-06-29 09:47:18.500000,-9.31,71.05
119889,2018-06-29 09:47:18.531250,18.96,70.97
119890,2018-06-29 09:47:18.562500,42.46,70.97
119891,2018-06-29 09:47:18.593750,61.41,70.97
119892,2018-06-29 09:47:18.625000,74.34,70.97
119893,2018-06-29 09:47:18.656250,80.88,70.97
119894,2018-06-29 09:47:18.687500,82.28,70.97
119895,2018-06-29 09:47:18.718750,79.99,70.97
119896,2018-06-29 09:47:18.750000,76.08,70.97
119897,2018-06-29 09:47:18.781250,73.53,70.97
119898,2018-06-29 09:47:18.812500,72.62,70.97
119899,2018-06-29 09:47:18.843750,69.82,70.97
119900,2018-06-29 09:47:18.875000,63.37,70.97
119901,2018-06-29 09:47:18.906250,56.02,70.97
119902,2018-06-29 09:47:18.937500,50.06,70.97
119903,2018-06-29 09:47:18.968750,44.43,70.97
119904,2018-06-29 09:47:19.000000,37.92,70.97
119905,2018-06-29 09:47:19.031250,30.98,70.97
119906,2018-06-29 09:47:19.062500,24.19,70.97
119907,2018-06-29 09:47:19.093750,17.6,70.97
119908,2018-06-29 09:47:19.125000,10.69,70.97
119909,2018-06-29 09:47:19.156250,2.53,70.97
119910,2018-06-29 09:47:19.187500,-6.64,70.97
119911,2018-06-29 09:47:19.218750,-14.69,70.97
119912,2018-06-29 09:47:19.250000,-21.0,70.97
119913,2018-06-29 09:47:19.281250,-27.63,70.97
119914,2018-06-29 09:47:19.312500,-35.06,70.97
119915,2018-06-29 09:47:19.343750,-40.84,70.97
119916,2018-06-29 09:47:19.375000,-44.52,70.97
119917,2018-06-29 09:47:19.406250,-49.59,70.97
119918,2018-06-29 09:47:19.437500,-59.21,70.97
119919,2018-06-29 09:47:19.468750,-72.49,70.97
119920,2018-06-29 09:47:19.500000,-82.08,70.97
119921,2018-06-29 09:47:19.531250,-76.93,70.88
119922,2018-06-29 09:47:19.562500,-53.67,70.88
119923,2018-06-29 09:47:19.593750,-22.6,70.88
119924,2018-06-29 09:47:19.625000,3.49,70.88
119925,2018-06-29 09:47:19.656250,21.66,70.88
119926,2018-06-29 09:47:19.687500,36.01,70.88
119927,2018-06-29 09:47:19.718750,48.81,70.88
119928,2018-06-29 09:47:19.750000,58.79,70.88
119929,2018-06-29 09:47:19.781250,64.12,70.88
119930,2018-06-29 09:47:19.812500,64.89,70.88
119931,2018-06-29 09:47:19.843750,63.02,70.88
119932,2018-06-29 09:47:19.875000,60.69,70.88
119933,2018-06-29 09:47:19.906250,59.11,70.88
119934,2018-06-29 09:47:19.937500,58.17,70.88
119935,2018-06-29 09:47:19.968750,56.63,70.88
119936,2018-06-29 09:47:20.000000,53.33,70.88
119937,2018-06-29 09:47:20.031250,48.42,70.88
119938,2018-06-29 09:47:20.062500,42.9,70.88
119939,2018-06-29 09:47:20.093750,37.58,70.88
119940,2018-06-29 09:47:20.125000,32.27,70.88
119941,2018-06-29 09:47:20.156250,25.69,70.88
119942,2018-06-29 09:47:20.187500,16.11,70.88
119943,2018-06-29 09:47:20.218750,3.32,70.88
119944,2018-06-29 09:47:20.250000,-10.6,70.88
119945,2018-06-29 09:47:20.281250,-23.09,70.88
119946,2018-06-29 09:47:20.312500,-33.6,70.88
119947,2018-06-29 09:47:20.343750,-43.29,70.88
119948,2018-06-29 09:47:20.375000,-52.53,70.88
119949,2018-06-29 09:47:20.406250,-60.37,70.88
119950,2018-06-29 09:47:20.437500,-66.29,70.88
119951,2018-06-29 09:47:20.468750,-71.35,70.88
119952,2018-06-29 09:47:20.500000,-77.45,70.88
119953,2018-06-29 09:47:20.531250,-84.15,70.82
119954,2018-06-29 09:47:20.562500,-85.5,70.82
119955,2018-06-29 09:47:20.593750,-73.67,70.82
119956,2018-06-29 09:47:20.625000,-48.56,70.82
119957,2018-06-29 09:47:20.656250,-19.04,70.82
119958,2018-06-29 09:47:20.687500,6.56,70.82
119959,2018-06-29 09:47:20.718750,26.18,70.82
119960,2018-06-29 09:47:20.750000,40.51,70.82
119961,2018-06-29 09:47:20.781250,49.4,70.82
119962,2018-06-29 09:47:20.812500,53.18,70.82
119963,2018-06-29 09:47:20.843750,53.72,70.82
119964,2018-06-29 09:47:20.875000,52.69,70.82
119965,2018-06-29 09:47:20.906250,50.82,70.82
119966,2018-06-29 09:47:20.937500,48.99,70.82
119967,2018-06-29 09:47:20.968750,48.45,70.82
119968,2018-06-29 09:47:21.000000,49.14,70.82
119969,2018-06-29 09:47:21.031250,49.31,70.82
119970,2018-06-29 09:47:21.062500,46.88,70.82
119971,2018-06-29 09:47:21.093750,40.7,70.82
119972,2018-06-29 09:47:21.125000,31.02,70.82
119973,2018-06-29 09:47:21.156250,19.13,70.82
119974,2018-06-29 09:47:21.187500,6.22,70.82
119975,2018-06-29 09:47:21.218750,-7.15,70.82
119976,2018-06-29 09:47:21.250000,-20.07,70.82
119977,2018-06-29 09:47:21.281250,-30.46,70.82
119978,2018-06-29 09:47:21.312500,-37.43,70.82
119979,2018-06-29 09:47:21.343750,-42.32,70.82
119980,2018-06-29 09:47:21.375000,-46.69,70.82
119981,2018-06-29 09:47:21.406250,-50.77,70.82
119982,2018-06-29 09:47:21.437500,-54.42,70.82
119983,2018-06-29 09:47:21.468750,-57.54,70.82
119984,2018-06-29 09:47:21.500000,-60.43,70.82
119985,2018-06-29 09:47:21.531250,-65.0,70.75
119986,2018-06-29 09:47:21.562500,-72.54,70.75
119987,2018-06-29 09:47:21.593750,-78.76,70.75
119988,2018-06-29 09:47:21.625000,-74.67,70.75
119989,2018-06-29 09:47:21.656250,-55.93,70.75
119990,2018-06-29 09:47:21.687500,-28.97,70.75
119991,2018-06-29 09:47:21.718750,-4.08,70.75
119992,2018-06-29 09:47:21.750000,14.74,70.75
119993,2018-06-29 09:47:21.781250,29.46,70.75
119994,2018-06-29 09:47:21.812500,41.63,70.75
119995,2018-06-29 09:47:21.843750,50.6,70.75
119996,2018-06-29 09:47:21.875000,55.27,70.75
119997,2018-06-29 09:47:21.906250,55.03,70.75
119998,2018-06-29 09:47:21.937500,50.76,70.75
119999,2018-06-29 09:47:21.968750,45.27,70.75
120000,2018-06-29 09:47:22.000000,41.17,70.75
120001,2018-06-29 09:47:22.031250,38.59,70.75
120002,2018-06-29 09:47:22.062500,35.49,70.75
120003,2018-06-29 09:47:22.093750,30.37,70.75
120004,2018-06-29 09:47:22.125000,24.68,70.75
120005,2018-06-29 09:47:22.156250,20.93,70.75
120006,2018-06-29 09:47:22.187500,18.54,70.75
120007,2018-06-29 09:47:22.218750,15.22,70.75
120008,2018-06-29 09:47:22.250000,10.97,70.75
120009,2018-06-29 09:47:22.281250,7.1,70.75
120010,2018-06-29 09:47:22.312500,2.73,70.75
120011,2018-06-29 09:47:22.343750,-3.78,70.75
120012,2018-06-29 09:47:22.375000,-11.68,70.75
120013,2018-06-29 09:47:22.406250,-19.3,70.75
120014,2018-06-29 09:47:22.437500,-27.1,70.75
120015,2018-06-29 09:47:22.468750,-36.53,70.75
120016,2018-06-29 09:47:22.500000,-45.97,70.75
120017,2018-06-29 09:47:22.531250,-52.12,70.8
120018,2018-06-29 09:47:22.562500,-55.66,70.8
120019,2018-06-29 09:47:22.593750,-62.14,70.8
120020,2018-06-29 09:47:22.625000,-75.09,70.8
120021,2018-06-29 09:47:22.656250,-90.96,70.8
120022,2018-06-29 09:47:22.687500,-101.79,70.8
120023,2018-06-29 09:47:22.718750,-101.63,70.8
120024,2018-06-29 09:47:22.750000,-91.12,70.8
120025,2018-06-29 09:47:22.781250,-74.71,70.8
120026,2018-06-29 09:47:22.812500,-55.75,70.8
120027,2018-06-29 09:47:22.843750,-38.4,70.8
120028,2018-06-29 09:47:22.875000,-30.67,70.8
120029,2018-06-29 09:47:22.906250,-35.07,70.8
120030,2018-06-29 09:47:22.937500,-41.04,70.8
120031,2018-06-29 09:47:22.968750,-39.6,70.8
120032,2018-06-29 09:47:23.000000,-38.31,70.8
120033,2018-06-29 09:47:23.031250,-52.87,70.8
120034,2018-06-29 09:47:23.062500,-83.77,70.8
120035,2018-06-29 09:47:23.093750,-106.97,70.8
120036,2018-06-29 09:47:23.125000,-83.23,70.8
120037,2018-06-29 09:47:23.156250,-0.35,70.8
120038,2018-06-29 09:47:23.187500,93.06,70.8
120039,2018-06-29 09:47:23.218750,132.19,70.8
120040,2018-06-29 09:47:23.250000,112.73,70.8
120041,2018-06-29 09:47:23.281250,92.31,70.8
120042,2018-06-29 09:47:23.312500,108.4,70.8
120043,2018-06-29 09:47:23.343750,150.1,70.8
120044,2018-06-29 09:47:23.375000,189.15,70.8
120045,2018-06-29 09:47:23.406250,217.52,70.8
120046,2018-06-29 09:47:23.437500,239.01,70.8
120047,2018-06-29 09:47:23.468750,252.45,70.8
120048,2018-06-29 09:47:23.500000,257.75,70.8
120049,2018-06-29 09:47:23.531250,251.47,70.92
120050,2018-06-29 09:47:23.562500,228.16,70.92
120051,2018-06-29 09:47:23.593750,145.65,70.92
120052,2018-06-29 09:47:23.625000,7.03,70.92
120053,2018-06-29 09:47:23.656250,-104.55,70.92
120054,2018-06-29 09:47:23.687500,-181.92,70.92
120055,2018-06-29 09:47:23.718750,-242.97,70.92
120056,2018-06-29 09:47:23.750000,-280.56,70.92
120057,2018-06-29 09:47:23.781250,-285.21,70.92
120058,2018-06-29 09:47:23.812500,-268.12,70.92
120059,2018-06-29 09:47:23.843750,-237.69,70.92
120060,2018-06-29 09:47:23.875000,-193.72,70.92
120061,2018-06-29 09:47:23.906250,-130.26,70.92
120062,2018-06-29 09:47:23.937500,-55.08,70.92
120063,2018-06-29 09:47:23.968750,15.04,70.92
120064,2018-06-29 09:47:24.000000,66.9,70.92
120065,2018-06-29 09:47:24.031250,93.83,70.92
120066,2018-06-29 09:47:24.062500,98.31,70.92
120067,2018-06-29 09:47:24.093750,85.93,70.92
120068,2018-06-29 09:47:24.125000,68.04,70.92
120069,2018-06-29 09:47:24.156250,52.57,70.92
120070,2018-06-29 09:47:24.187500,41.44,70.92
120071,2018-06-29 09:47:24.218750,31.53,70.92
120072,2018-06-29 09:47:24.250000,21.29,70.92
120073,2018-06-29 09:47:24.281250,12.1,70.92
120074,2018-06-29 09:47:24.312500,4.6,70.92
120075,2018-06-29 09:47:24.343750,-0.73,70.92
120076,2018-06-29 09:47:24.375000,-5.77,70.92
120077,2018-06-29 09:47:24.406250,-12.98,70.92
120078,2018-06-29 09:47:24.437500,-22.82,70.92
120079,2018-06-29 09:47:24.468750,-33.04,70.92
120080,2018-06-29 09:47:24.500000,-41.61,70.92
120081,2018-06-29 09:47:24.531250,-49.68,71.07
120082,2018-06-29 09:47:24.562500,-60.42,71.07
120083,2018-06-29 09:47:24.593750,-74.48,71.07
120084,2018-06-29 09:47:24.625000,-86.04,71.07
120085,2018-06-29 09:47:24.656250,-84.84,71.07
120086,2018-06-29 09:47:24.687500,-66.04,71.07
120087,2018-06-29 09:47:24.718750,-36.85,71.07
120088,2018-06-29 09:47:24.750000,-8.69,71.07
120089,2018-06-29 09:47:24.781250,13.86,71.07
120090,2018-06-29 09:47:24.812500,32.39,71.07
120091,2018-06-29 09:47:24.843750,48.26,71.07
120092,2018-06-29 09:47:24.875000,61.27,71.07
120093,2018-06-29 09:47:24.906250,70.91,71.07
120094,2018-06-29 09:47:24.937500,76.36,71.07
120095,2018-06-29 09:47:24.968750,77.87,71.07
120096,2018-06-29 09:47:25.000000,77.45,71.07
120097,2018-06-29 09:47:25.031250,76.5,71.07
120098,2018-06-29 09:47:25.062500,73.82,71.07
120099,2018-06-29 09:47:25.093750,68.21,71.07
120100,2018-06-29 09:47:25.125000,61.22,71.07
120101,2018-06-29 09:47:25.156250,55.02,71.07
120102,2018-06-29 09:47:25.187500,49.3,71.07
120103,2018-06-29 09:47:25.218750,41.76,71.07
120104,2018-06-29 09:47:25.250000,30.81,71.07
120105,2018-06-29 09:47:25.281250,17.23,71.07
120106,2018-06-29 09:47:25.312500,3.41,71.07
120107,2018-06-29 09:47:25.343750,-9.28,71.07
120108,2018-06-29 09:47:25.375000,-22.01,71.07
120109,2018-06-29 09:47:25.406250,-35.96,71.07
120110,2018-06-29 09:47:25.437500,-49.98,71.07
120111,2018-06-29 09:47:25.468750,-61.91,71.07
120112,2018-06-29 09:47:25.500000,-70.98,71.07
120113,2018-06-29 09:47:25.531250,-79.03,71.23
120114,2018-06-29 09:47:25.562500,-88.3,71.23
120115,2018-06-29 09:47:25.593750,-95.5,71.23
120116,2018-06-29 09:47:25.625000,-91.54,71.23
120117,2018-06-29 09:47:25.656250,-72.86,71.23
120118,2018-06-29 09:47:25.687500,-47.28,71.23
120119,2018-06-29 09:47:25.718750,-23.53,71.23
120120,2018-06-29 09:47:25.750000,-1.95,71.23
120121,2018-06-29 09:47:25.781250,20.77,71.23
120122,2018-06-29 09:47:25.812500,43.97,71.23
120123,2018-06-29 09:47:25.843750,63.47,71.23
120124,2018-06-29 09:47:25.875000,76.04,71.23
120125,2018-06-29 09:47:25.906250,81.26,71.23
120126,2018-06-29 09:47:25.937500,80.61,71.23
120127,2018-06-29 09:47:25.968750,77.26,71.23
120128,2018-06-29 09:47:26.000000,75.54,71.23
120129,2018-06-29 09:47:26.031250,77.46,71.23
120130,2018-06-29 09:47:26.062500,79.78,71.23
120131,2018-06-29 09:47:26.093750,78.57,71.23
120132,2018-06-29 09:47:26.125000,74.67,71.23
120133,2018-06-29 09:47:26.156250,71.37,71.23
120134,2018-06-29 09:47:26.187500,68.21,71.23
120135,2018-06-29 09:47:26.218750,61.44,71.23
120136,2018-06-29 09:47:26.250000,49.5,71.23
120137,2018-06-29 09:47:26.281250,34.39,71.23
120138,2018-06-29 09:47:26.312500,18.81,71.23
120139,2018-06-29 09:47:26.343750,3.82,71.23
120140,2018-06-29 09:47:26.375000,-11.06,71.23
120141,2018-06-29 09:47:26.406250,-25.72,71.23
120142,2018-06-29 09:47:26.437500,-38.6,71.23
120143,2018-06-29 09:47:26.468750,-49.51,71.23
120144,2018-06-29 09:47:26.500000,-61.59,71.23
120145,2018-06-29 09:47:26.531250,-78.16,71.35
120146,2018-06-29 09:47:26.562500,-97.53,71.35
120147,2018-06-29 09:47:26.593750,-111.01,71.35
120148,2018-06-29 09:47:26.625000,-107.87,71.35
120149,2018-06-29 09:47:26.656250,-86.01,71.35
120150,2018-06-29 09:47:26.687500,-54.83,71.35
120151,2018-06-29 09:47:26.718750,-25.17,71.35
120152,2018-06-29 09:47:26.750000,-0.42,71.35
120153,2018-06-29 09:47:26.781250,20.13,71.35
120154,2018-06-29 09:47:26.812500,35.4,71.35
120155,2018-06-29 09:47:26.843750,43.64,71.35
120156,2018-06-29 09:47:26.875000,45.79,71.35
120157,2018-06-29 09:47:26.906250,44.84,71.35
120158,2018-06-29 09:47:26.937500,42.8,71.35
120159,2018-06-29 09:47:26.968750,40.16,71.35
120160,2018-06-29 09:47:27.000000,36.62,71.35
120161,2018-06-29 09:47:27.031250,31.54,71.35
120162,2018-06-29 09:47:27.062500,24.17,71.35
120163,2018-06-29 09:47:27.093750,13.74,71.35
120164,2018-06-29 09:47:27.125000,0.33,71.35
120165,2018-06-29 09:47:27.156250,-13.3,71.35
120166,2018-06-29 09:47:27.187500,-23.74,71.35
120167,2018-06-29 09:47:27.218750,-31.4,71.35
120168,2018-06-29 09:47:27.250000,-39.46,71.35
120169,2018-06-29 09:47:27.281250,-48.24,71.35
120170,2018-06-29 09:47:27.312500,-55.98,71.35
120171,2018-06-29 09:47:27.343750,-63.17,71.35
120172,2018-06-29 09:47:27.375000,-71.9,71.35
120173,2018-06-29 09:47:27.406250,-82.82,71.35
120174,2018-06-29 09:47:27.437500,-93.54,71.35
120175,2018-06-29 09:47:27.468750,-97.15,71.35
120176,2018-06-29 09:47:27.500000,-85.75,71.35
120177,2018-06-29 09:47:27.531250,-59.47,71.38
120178,2018-06-29 09:47:27.562500,-28.06,71.38
120179,2018-06-29 09:47:27.593750,-0.76,71.38
120180,2018-06-29 09:47:27.625000,20.29,71.38
120181,2018-06-29 09:47:27.656250,36.3,71.38
120182,2018-06-29 09:47:27.687500,47.59,71.38
120183,2018-06-29 09:47:27.718750,54.23,71.38
120184,2018-06-29 09:47:27.750000,57.02,71.38
120185,2018-06-29 09:47:27.781250,56.93,71.38
120186,2018-06-29 09:47:27.812500,54.65,71.38
120187,2018-06-29 09:47:27.843750,51.13,71.38
120188,2018-06-29 09:47:27.875000,47.71,71.38
120189,2018-06-29 09:47:27.906250,44.9,71.38
120190,2018-06-29 09:47:27.937500,41.29,71.38
120191,2018-06-29 09:47:27.968750,35.07,71.38
120192,2018-06-29 09:47:28.000000,26.3,71.38
120193,2018-06-29 09:47:28.031250,17.03,71.38
120194,2018-06-29 09:47:28.062500,8.95,71.38
120195,2018-06-29 09:47:28.093750,1.5,71.38
120196,2018-06-29 09:47:28.125000,-6.8,71.38
120197,2018-06-29 09:47:28.156250,-16.12,71.38
120198,2018-06-29 09:47:28.187500,-25.53,71.38
120199,2018-06-29 09:47:28.218750,-34.56,71.38
120200,2018-06-29 09:47:28.250000,-43.97,71.38
120201,2018-06-29 09:47:28.281250,-54.83,71.38
120202,2018-06-29 09:47:28.312500,-66.62,71.38
120203,2018-06-29 09:47:28.343750,-74.1,71.38
120204,2018-06-29 09:47:28.375000,-69.36,71.38
120205,2018-06-29 09:47:28.406250,-50.61,71.38
120206,2018-06-29 09:47:28.437500,-25.67,71.38
120207,2018-06-29 09:47:28.468750,-3.26,71.38
120208,2018-06-29 09:47:28.500000,14.93,71.38
120209,2018-06-29 09:47:28.531250,30.65,71.42
120210,2018-06-29 09:47:28.562500,43.27,71.42
120211,2018-06-29 09:47:28.593750,50.94,71.42
120212,2018-06-29 09:47:28.625000,53.75,71.42
120213,2018-06-29 09:47:28.656250,53.25,71.42
120214,2018-06-29 09:47:28.687500,50.95,71.42
120215,2018-06-29 09:47:28.718750,48.07,71.42
120216,2018-06-29 09:47:28.750000,45.63,71.42
120217,2018-06-29 09:47:28.781250,43.82,71.42
120218,2018-06-29 09:47:28.812500,41.4,71.42
120219,2018-06-29 09:47:28.843750,36.72,71.42
120220,2018-06-29 09:47:28.875000,29.98,71.42
120221,2018-06-29 09:47:28.906250,22.91,71.42
120222,2018-06-29 09:47:28.937500,16.24,71.42
120223,2018-06-29 09:47:28.968750,9.12,71.42
120224,2018-06-29 09:47:29.000000,1.14,71.42
120225,2018-06-29 09:47:29.031250,-6.36,71.42
120226,2018-06-29 09:47:29.062500,-12.42,71.42
120227,2018-06-29 09:47:29.093750,-18.18,71.42
120228,2018-06-29 09:47:29.125000,-25.0,71.42
120229,2018-06-29 09:47:29.156250,-32.66,71.42
120230,2018-06-29 09:47:29.187500,-40.47,71.42
120231,2018-06-29 09:47:29.218750,-48.95,71.42
120232,2018-06-29 09:47:29.250000,-59.75,71.42
120233,2018-06-29 09:47:29.281250,-73.15,71.42
120234,2018-06-29 09:47:29.312500,-83.84,71.42
120235,2018-06-29 09:47:29.343750,-81.99,71.42
120236,2018-06-29 09:47:29.375000,-63.51,71.42
120237,2018-06-29 09:47:29.406250,-36.04,71.42
120238,2018-06-29 09:47:29.437500,-10.05,71.42
120239,2018-06-29 09:47:29.468750,11.03,71.42
120240,2018-06-29 09:47:29.500000,28.72,71.42
120241,2018-06-29 09:47:29.531250,43.35,71.43
120242,2018-06-29 09:47:29.562500,53.56,71.43
120243,2018-06-29 09:47:29.593750,59.02,71.43
120244,2018-06-29 09:47:29.625000,61.12,71.43
120245,2018-06-29 09:47:29.656250,61.54,71.43
120246,2018-06-29 09:47:29.687500,61.02,71.43
120247,2018-06-29 09:47:29.718750,59.99,71.43
120248,2018-06-29 09:47:29.750000,58.59,71.43
120249,2018-06-29 09:47:29.781250,55.74,71.43
120250,2018-06-29 09:47:29.812500,50.43,71.43
120251,2018-06-29 09:47:29.843750,43.99,71.43
120252,2018-06-29 09:47:29.875000,38.91,71.43
120253,2018-06-29 09:47:29.906250,35.41,71.43
120254,2018-06-29 09:47:29.937500,30.9,71.43
120255,2018-06-29 09:47:29.968750,23.4,71.43
120256,2018-06-29 09:47:30.000000,14.36,71.43
120257,2018-06-29 09:47:30.031250,6.88,71.43
120258,2018-06-29 09:47:30.062500,1.78,71.43
120259,2018-06-29 09:47:30.093750,-2.86,71.43
120260,2018-06-29 09:47:30.125000,-9.24,71.43
120261,2018-06-29 09:47:30.156250,-17.85,71.43
120262,2018-06-29 09:47:30.187500,-26.93,71.43
120263,2018-06-29 09:47:30.218750,-33.94,71.43
120264,2018-06-29 09:47:30.250000,-38.71,71.43
120265,2018-06-29 09:47:30.281250,-43.23,71.43
120266,2018-06-29 09:47:30.312500,-48.07,71.43
120267,2018-06-29 09:47:30.343750,-51.64,71.43
120268,2018-06-29 09:47:30.375000,-54.13,71.43
120269,2018-06-29 09:47:30.406250,-58.85,71.43
120270,2018-06-29 09:47:30.437500,-68.35,71.43
120271,2018-06-29 09:47:30.468750,-80.2,71.43
120272,2018-06-29 09:47:30.500000,-85.77,71.43
120273,2018-06-29 09:47:30.531250,-75.44,71.67
120274,2018-06-29 09:47:30.562500,-48.4,71.67
120275,2018-06-29 09:47:30.593750,-15.53,71.67
120276,2018-06-29 09:47:30.625000,11.67,71.67
120277,2018-06-29 09:47:30.656250,31.06,71.67
120278,2018-06-29 09:47:30.687500,46.25,71.67
120279,2018-06-29 09:47:30.718750,58.87,71.67
120280,2018-06-29 09:47:30.750000,67.49,71.67
120281,2018-06-29 09:47:30.781250,70.7,71.67
120282,2018-06-29 09:47:30.812500,68.75,71.67
120283,2018-06-29 09:47:30.843750,63.23,71.67
120284,2018-06-29 09:47:30.875000,56.65,71.67
120285,2018-06-29 09:47:30.906250,51.15,71.67
120286,2018-06-29 09:47:30.937500,46.71,71.67
120287,2018-06-29 09:47:30.968750,41.38,71.67
120288,2018-06-29 09:47:31.000000,34.67,71.67
120289,2018-06-29 09:47:31.031250,28.46,71.67
120290,2018-06-29 09:47:31.062500,23.93,71.67
120291,2018-06-29 09:47:31.093750,19.94,71.67
120292,2018-06-29 09:47:31.125000,14.92,71.67
120293,2018-06-29 09:47:31.156250,8.85,71.67
120294,2018-06-29 09:47:31.187500,3.06,71.67
120295,2018-06-29 09:47:31.218750,-1.13,71.67
120296,2018-06-29 09:47:31.250000,-3.34,71.67
120297,2018-06-29 09:47:31.281250,-4.24,71.67
120298,2018-06-29 09:47:31.312500,-5.61,71.67
120299,2018-06-29 09:47:31.343750,-10.1,71.67
120300,2018-06-29 09:47:31.375000,-18.89,71.67
120301,2018-06-29 09:47:31.406250,-29.65,71.67
120302,2018-06-29 09:47:31.437500,-39.38,71.67
120303,2018-06-29 09:47:31.468750,-48.72,71.67
120304,2018-06-29 09:47:31.500000,-60.08,71.67
120305,2018-06-29 09:47:31.531250,-73.29,71.58
120306,2018-06-29 09:47:31.562500,-84.15,71.58
120307,2018-06-29 09:47:31.593750,-85.35,71.58
120308,2018-06-29 09:47:31.625000,-71.6,71.58
120309,2018-06-29 09:47:31.656250,-46.74,71.58
120310,2018-06-29 09:47:31.687500,-21.38,71.58
120311,2018-06-29 09:47:31.718750,-1.96,71.58
120312,2018-06-29 09:47:31.750000,13.0,71.58
120313,2018-06-29 09:47:31.781250,26.01,71.58
120314,2018-06-29 09:47:31.812500,36.32,71.58
120315,2018-06-29 09:47:31.843750,42.7,71.58
120316,2018-06-29 09:47:31.875000,45.62,71.58
120317,2018-06-29 09:47:31.906250,45.86,71.58
120318,2018-06-29 09:47:31.937500,43.66,71.58
120319,2018-06-29 09:47:31.968750,40.14,71.58
120320,2018-06-29 09:47:32.000000,37.13,71.58
120321,2018-06-29 09:47:32.031250,34.53,71.58
120322,2018-06-29 09:47:32.062500,30.41,71.58
120323,2018-06-29 09:47:32.093750,24.64,71.58
120324,2018-06-29 09:47:32.125000,19.33,71.58
120325,2018-06-29 09:47:32.156250,15.62,71.58
120326,2018-06-29 09:47:32.187500,12.13,71.58
120327,2018-06-29 09:47:32.218750,6.95,71.58
120328,2018-06-29 09:47:32.250000,0.29,71.58
120329,2018-06-29 09:47:32.281250,-6.09,71.58
120330,2018-06-29 09:47:32.312500,-12.19,71.58
120331,2018-06-29 09:47:32.343750,-19.63,71.58
120332,2018-06-29 09:47:32.375000,-28.26,71.58
120333,2018-06-29 09:47:32.406250,-36.25,71.58
120334,2018-06-29 09:47:32.437500,-43.16,71.58
120335,2018-06-29 09:47:32.468750,-50.53,71.58
120336,2018-06-29 09:47:32.500000,-60.15,71.58
120337,2018-06-29 09:47:32.531250,-71.23,71.62
120338,2018-06-29 09:47:32.562500,-77.4,71.62
120339,2018-06-29 09:47:32.593750,-70.64,71.62
120340,2018-06-29 09:47:32.625000,-51.08,71.62
120341,2018-06-29 09:47:32.656250,-28.13,71.62
120342,2018-06-29 09:47:32.687500,-9.94,71.62
120343,2018-06-29 09:47:32.718750,2.99,71.62
120344,2018-06-29 09:47:32.750000,13.46,71.62
120345,2018-06-29 09:47:32.781250,22.58,71.62
120346,2018-06-29 09:47:32.812500,29.98,71.62
120347,2018-06-29 09:47:32.843750,35.2,71.62
120348,2018-06-29 09:47:32.875000,37.88,71.62
120349,2018-06-29 09:47:32.906250,37.97,71.62
120350,2018-06-29 09:47:32.937500,36.39,71.62
120351,2018-06-29 09:47:32.968750,34.73,71.62
120352,2018-06-29 09:47:33.000000,33.25,71.62
120353,2018-06-29 09:47:33.031250,30.3,71.62
120354,2018-06-29 09:47:33.062500,24.59,71.62
120355,2018-06-29 09:47:33.093750,17.54,71.62
120356,2018-06-29 09:47:33.125000,11.46,71.62
120357,2018-06-29 09:47:33.156250,6.32,71.62
120358,2018-06-29 09:47:33.187500,0.49,71.62
120359,2018-06-29 09:47:33.218750,-6.01,71.62
120360,2018-06-29 09:47:33.250000,-12.15,71.62
120361,2018-06-29 09:47:33.281250,-18.39,71.62
120362,2018-06-29 09:47:33.312500,-26.26,71.62
120363,2018-06-29 09:47:33.343750,-35.4,71.62
120364,2018-06-29 09:47:33.375000,-43.36,71.62
120365,2018-06-29 09:47:33.406250,-47.99,71.62
120366,2018-06-29 09:47:33.437500,-48.66,71.62
120367,2018-06-29 09:47:33.468750,-44.91,71.62
120368,2018-06-29 09:47:33.500000,-35.63,71.62
120369,2018-06-29 09:47:33.531250,-20.06,71.6
120370,2018-06-29 09:47:33.562500,3.34,71.6
120371,2018-06-29 09:47:33.593750,36.53,71.6
120372,2018-06-29 09:47:33.625000,75.9,71.6
120373,2018-06-29 09:47:33.656250,111.68,71.6
120374,2018-06-29 09:47:33.687500,136.76,71.6
120375,2018-06-29 09:47:33.718750,149.48,71.6
120376,2018-06-29 09:47:33.750000,148.47,71.6
120377,2018-06-29 09:47:33.781250,134.61,71.6
120378,2018-06-29 09:47:33.812500,115.57,71.6
120379,2018-06-29 09:47:33.843750,97.17,71.6
120380,2018-06-29 09:47:33.875000,76.27,71.6
120381,2018-06-29 09:47:33.906250,50.09,71.6
120382,2018-06-29 09:47:33.937500,24.44,71.6
120383,2018-06-29 09:47:33.968750,5.99,71.6
120384,2018-06-29 09:47:34.000000,-6.06,71.6
120385,2018-06-29 09:47:34.031250,-15.62,71.6
120386,2018-06-29 09:47:34.062500,-24.83,71.6
120387,2018-06-29 09:47:34.093750,-35.99,71.6
120388,2018-06-29 09:47:34.125000,-52.17,71.6
120389,2018-06-29 09:47:34.156250,-72.97,71.6
120390,2018-06-29 09:47:34.187500,-93.72,71.6
120391,2018-06-29 09:47:34.218750,-110.83,71.6
120392,2018-06-29 09:47:34.250000,-126.05,71.6
120393,2018-06-29 09:47:34.281250,-142.57,71.6
120394,2018-06-29 09:47:34.312500,-158.51,71.6
120395,2018-06-29 09:47:34.343750,-168.47,71.6
120396,2018-06-29 09:47:34.375000,-170.17,71.6
120397,2018-06-29 09:47:34.406250,-164.14,71.6
120398,2018-06-29 09:47:34.437500,-150.38,71.6
120399,2018-06-29 09:47:34.468750,-130.76,71.6
120400,2018-06-29 09:47:34.500000,-110.96,71.6
120401,2018-06-29 09:47:34.531250,-96.38,71.48
120402,2018-06-29 09:47:34.562500,-88.55,71.48
120403,2018-06-29 09:47:34.593750,-84.86,71.48
120404,2018-06-29 09:47:34.625000,-78.13,71.48
120405,2018-06-29 09:47:34.656250,-60.21,71.48
120406,2018-06-29 09:47:34.687500,-31.05,71.48
120407,2018-06-29 09:47:34.718750,0.75,71.48
120408,2018-06-29 09:47:34.750000,28.07,71.48
120409,2018-06-29 09:47:34.781250,50.05,71.48
120410,2018-06-29 09:47:34.812500,67.66,71.48
120411,2018-06-29 09:47:34.843750,80.56,71.48
120412,2018-06-29 09:47:34.875000,88.3,71.48
120413,2018-06-29 09:47:34.906250,91.81,71.48
120414,2018-06-29 09:47:34.937500,93.68,71.48
120415,2018-06-29 09:47:34.968750,96.04,71.48
120416,2018-06-29 09:47:35.000000,98.72,71.48
120417,2018-06-29 09:47:35.031250,100.72,71.48
120418,2018-06-29 09:47:35.062500,101.63,71.48
120419,2018-06-29 09:47:35.093750,100.02,71.48
120420,2018-06-29 09:47:35.125000,93.88,71.48
120421,2018-06-29 09:47:35.156250,83.24,71.48
120422,2018-06-29 09:47:35.187500,71.04,71.48
120423,2018-06-29 09:47:35.218750,60.5,71.48
120424,2018-06-29 09:47:35.250000,52.41,71.48
120425,2018-06-29 09:47:35.281250,45.72,71.48
120426,2018-06-29 09:47:35.312500,38.98,71.48
120427,2018-06-29 09:47:35.343750,30.39,71.48
120428,2018-06-29 09:47:35.375000,19.08,71.48
120429,2018-06-29 09:47:35.406250,7.07,71.48
120430,2018-06-29 09:47:35.437500,-2.99,71.48
120431,2018-06-29 09:47:35.468750,-12.69,71.48
120432,2018-06-29 09:47:35.500000,-25.12,71.48
120433,2018-06-29 09:47:35.531250,-37.82,71.42
120434,2018-06-29 09:47:35.562500,-45.82,71.42
120435,2018-06-29 09:47:35.593750,-49.8,71.42
120436,2018-06-29 09:47:35.625000,-54.29,71.42
120437,2018-06-29 09:47:35.656250,-61.13,71.42
120438,2018-06-29 09:47:35.687500,-67.51,71.42
120439,2018-06-29 09:47:35.718750,-65.79,71.42
120440,2018-06-29 09:47:35.750000,-49.44,71.42
120441,2018-06-29 09:47:35.781250,-24.84,71.42
120442,2018-06-29 09:47:35.812500,-7.26,71.42
120443,2018-06-29 09:47:35.843750,-2.26,71.42
120444,2018-06-29 09:47:35.875000,-0.93,71.42
120445,2018-06-29 09:47:35.906250,5.74,71.42
120446,2018-06-29 09:47:35.937500,16.29,71.42
120447,2018-06-29 09:47:35.968750,23.36,71.42
120448,2018-06-29 09:47:36.000000,23.9,71.42
120449,2018-06-29 09:47:36.031250,22.27,71.42
120450,2018-06-29 09:47:36.062500,23.94,71.42
120451,2018-06-29 09:47:36.093750,29.6,71.42
120452,2018-06-29 09:47:36.125000,36.77,71.42
120453,2018-06-29 09:47:36.156250,43.73,71.42
120454,2018-06-29 09:47:36.187500,49.81,71.42
120455,2018-06-29 09:47:36.218750,55.08,71.42
120456,2018-06-29 09:47:36.250000,60.53,71.42
120457,2018-06-29 09:47:36.281250,66.34,71.42
120458,2018-06-29 09:47:36.312500,69.84,71.42
120459,2018-06-29 09:47:36.343750,67.53,71.42
120460,2018-06-29 09:47:36.375000,58.72,71.42
120461,2018-06-29 09:47:36.406250,45.3,71.42
120462,2018-06-29 09:47:36.437500,29.55,71.42
120463,2018-06-29 09:47:36.468750,13.9,71.42
120464,2018-06-29 09:47:36.500000,0.09,71.42
120465,2018-06-29 09:47:36.531250,-13.13,71.33
120466,2018-06-29 09:47:36.562500,-28.4,71.33
120467,2018-06-29 09:47:36.593750,-44.2,71.33
120468,2018-06-29 09:47:36.625000,-54.82,71.33
120469,2018-06-29 09:47:36.656250,-58.21,71.33
120470,2018-06-29 09:47:36.687500,-59.45,71.33
120471,2018-06-29 09:47:36.718750,-63.92,71.33
120472,2018-06-29 09:47:36.750000,-69.05,71.33
120473,2018-06-29 09:47:36.781250,-64.57,71.33
120474,2018-06-29 09:47:36.812500,-42.82,71.33
120475,2018-06-29 09:47:36.843750,-9.86,71.33
120476,2018-06-29 09:47:36.875000,19.21,71.33
120477,2018-06-29 09:47:36.906250,36.58,71.33
120478,2018-06-29 09:47:36.937500,45.81,71.33
120479,2018-06-29 09:47:36.968750,50.14,71.33
120480,2018-06-29 09:47:37.000000,48.7,71.33
120481,2018-06-29 09:47:37.031250,43.55,71.33
120482,2018-06-29 09:47:37.062500,39.42,71.33
120483,2018-06-29 09:47:37.093750,36.31,71.33
120484,2018-06-29 09:47:37.125000,30.85,71.33
120485,2018-06-29 09:47:37.156250,23.17,71.33
120486,2018-06-29 09:47:37.187500,16.1,71.33
120487,2018-06-29 09:47:37.218750,10.35,71.33
120488,2018-06-29 09:47:37.250000,3.98,71.33
120489,2018-06-29 09:47:37.281250,-4.1,71.33
120490,2018-06-29 09:47:37.312500,-11.81,71.33
120491,2018-06-29 09:47:37.343750,-15.25,71.33
120492,2018-06-29 09:47:37.375000,-12.98,71.33
120493,2018-06-29 09:47:37.406250,-7.99,71.33
120494,2018-06-29 09:47:37.437500,-4.3,71.33
120495,2018-06-29 09:47:37.468750,-2.7,71.33
120496,2018-06-29 09:47:37.500000,-2.17,71.33
120497,2018-06-29 09:47:37.531250,-3.65,71.12
120498,2018-06-29 09:47:37.562500,-9.83,71.12
120499,2018-06-29 09:47:37.593750,-21.58,71.12
120500,2018-06-29 09:47:37.625000,-37.86,71.12
120501,2018-06-29 09:47:37.656250,-59.23,71.12
120502,2018-06-29 09:47:37.687500,-88.02,71.12
120503,2018-06-29 09:47:37.718750,-124.35,71.12
120504,2018-06-29 09:47:37.750000,-160.57,71.12
120505,2018-06-29 09:47:37.781250,-178.6,71.12
120506,2018-06-29 09:47:37.812500,-160.93,71.12
120507,2018-06-29 09:47:37.843750,-112.32,71.12
120508,2018-06-29 09:47:37.875000,-60.16,71.12
120509,2018-06-29 09:47:37.906250,-26.69,71.12
120510,2018-06-29 09:47:37.937500,-12.34,71.12
120511,2018-06-29 09:47:37.968750,-9.74,71.12
120512,2018-06-29 09:47:38.000000,-16.48,71.12
120513,2018-06-29 09:47:38.031250,-30.32,71.12
120514,2018-06-29 09:47:38.062500,-47.72,71.12
120515,2018-06-29 09:47:38.093750,-68.02,71.12
120516,2018-06-29 09:47:38.125000,-90.46,71.12
120517,2018-06-29 09:47:38.156250,-109.43,71.12
120518,2018-06-29 09:47:38.187500,-119.08,71.12
120519,2018-06-29 09:47:38.218750,-122.92,71.12
120520,2018-06-29 09:47:38.250000,-134.77,71.12
120521,2018-06-29 09:47:38.281250,-163.49,71.12
120522,2018-06-29 09:47:38.312500,-197.52,71.12
120523,2018-06-29 09:47:38.343750,-216.7,71.12
120524,2018-06-29 09:47:38.375000,-216.7,71.12
120525,2018-06-29 09:47:38.406250,-206.92,71.12
120526,2018-06-29 09:47:38.437500,-190.89,71.12
120527,2018-06-29 09:47:38.468750,-167.21,71.12
120528,2018-06-29 09:47:38.500000,-142.06,71.12
120529,2018-06-29 09:47:38.531250,-122.45,70.92
120530,2018-06-29 09:47:38.562500,-102.76,70.92
120531,2018-06-29 09:47:38.593750,-71.69,70.92
120532,2018-06-29 09:47:38.625000,-28.62,70.92
120533,2018-06-29 09:47:38.656250,16.37,70.92
120534,2018-06-29 09:47:38.687500,54.44,70.92
120535,2018-06-29 09:47:38.718750,82.76,70.92
120536,2018-06-29 09:47:38.750000,105.31,70.92
120537,2018-06-29 09:47:38.781250,132.05,70.92
120538,2018-06-29 09:47:38.812500,165.98,70.92
120539,2018-06-29 09:47:38.843750,195.46,70.92
120540,2018-06-29 09:47:38.875000,214.28,70.92
120541,2018-06-29 09:47:38.906250,235.81,70.92
120542,2018-06-29 09:47:38.937500,267.18,70.92
120543,2018-06-29 09:47:38.968750,289.79,70.92
120544,2018-06-29 09:47:39.000000,286.24,70.92
120545,2018-06-29 09:47:39.031250,265.9,70.92
120546,2018-06-29 09:47:39.062500,246.69,70.92
120547,2018-06-29 09:47:39.093750,231.46,70.92
120548,2018-06-29 09:47:39.125000,215.54,70.92
120549,2018-06-29 09:47:39.156250,201.51,70.92
120550,2018-06-29 09:47:39.187500,194.85,70.92
120551,2018-06-29 09:47:39.218750,195.71,70.92
120552,2018-06-29 09:47:39.250000,202.75,70.92
120553,2018-06-29 09:47:39.281250,217.06,70.92
120554,2018-06-29 09:47:39.312500,234.57,70.92
120555,2018-06-29 09:47:39.343750,241.43,70.92
120556,2018-06-29 09:47:39.375000,226.91,70.92
120557,2018-06-29 09:47:39.406250,194.11,70.92
120558,2018-06-29 09:47:39.437500,151.48,70.92
120559,2018-06-29 09:47:39.468750,100.11,70.92
120560,2018-06-29 09:47:39.500000,35.81,70.92
120561,2018-06-29 09:47:39.531250,-41.6,70.72
120562,2018-06-29 09:47:39.562500,-127.43,70.72
120563,2018-06-29 09:47:39.593750,-218.76,70.72
120564,2018-06-29 09:47:39.625000,-312.3,70.72
120565,2018-06-29 09:47:39.656250,-392.39,70.72
120566,2018-06-29 09:47:39.687500,-438.09,70.72
120567,2018-06-29 09:47:39.718750,-449.77,70.72
120568,2018-06-29 09:47:39.750000,-450.63,70.72
120569,2018-06-29 09:47:39.781250,-454.63,70.72
120570,2018-06-29 09:47:39.812500,-447.82,70.72
120571,2018-06-29 09:47:39.843750,-408.09,70.72
120572,2018-06-29 09:47:39.875000,-333.49,70.72
120573,2018-06-29 09:47:39.906250,-242.79,70.72
120574,2018-06-29 09:47:39.937500,-153.99,70.72
120575,2018-06-29 09:47:39.968750,-74.01,70.72
120576,2018-06-29 09:47:40.000000,-7.21,70.72
120577,2018-06-29 09:47:40.031250,42.96,70.72
120578,2018-06-29 09:47:40.062500,80.29,70.72
120579,2018-06-29 09:47:40.093750,110.02,70.72
120580,2018-06-29 09:47:40.125000,130.27,70.72
120581,2018-06-29 09:47:40.156250,137.45,70.72
120582,2018-06-29 09:47:40.187500,135.7,70.72
120583,2018-06-29 09:47:40.218750,132.95,70.72
120584,2018-06-29 09:47:40.250000,129.99,70.72
120585,2018-06-29 09:47:40.281250,122.18,70.72
120586,2018-06-29 09:47:40.312500,110.85,70.72
120587,2018-06-29 09:47:40.343750,103.84,70.72
120588,2018-06-29 09:47:40.375000,104.6,70.72
120589,2018-06-29 09:47:40.406250,109.33,70.72
120590,2018-06-29 09:47:40.437500,114.47,70.72
120591,2018-06-29 09:47:40.468750,119.86,70.72
120592,2018-06-29 09:47:40.500000,125.95,70.72
120593,2018-06-29 09:47:40.531250,131.99,70.52
120594,2018-06-29 09:47:40.562500,136.99,70.52
120595,2018-06-29 09:47:40.593750,141.53,70.52
120596,2018-06-29 09:47:40.625000,146.99,70.52
120597,2018-06-29 09:47:40.656250,152.55,70.52
120598,2018-06-29 09:47:40.687500,153.5,70.52
120599,2018-06-29 09:47:40.718750,142.98,70.52
120600,2018-06-29 09:47:40.750000,116.9,70.52
120601,2018-06-29 09:47:40.781250,81.45,70.52
120602,2018-06-29 09:47:40.812500,53.84,70.52
120603,2018-06-29 09:47:40.843750,47.48,70.52
120604,2018-06-29 09:47:40.875000,58.69,70.52
120605,2018-06-29 09:47:40.906250,74.44,70.52
120606,2018-06-29 09:47:40.937500,87.92,70.52
120607,2018-06-29 09:47:40.968750,98.82,70.52
120608,2018-06-29 09:47:41.000000,104.6,70.52
120609,2018-06-29 09:47:41.031250,99.9,70.52
120610,2018-06-29 09:47:41.062500,83.7,70.52
120611,2018-06-29 09:47:41.093750,61.64,70.52
120612,2018-06-29 09:47:41.125000,40.24,70.52
120613,2018-06-29 09:47:41.156250,21.39,70.52
120614,2018-06-29 09:47:41.187500,4.41,70.52
120615,2018-06-29 09:47:41.218750,-9.67,70.52
120616,2018-06-29 09:47:41.250000,-20.21,70.52
120617,2018-06-29 09:47:41.281250,-30.51,70.52
120618,2018-06-29 09:47:41.312500,-44.56,70.52
120619,2018-06-29 09:47:41.343750,-61.45,70.52
120620,2018-06-29 09:47:41.375000,-74.9,70.52
120621,2018-06-29 09:47:41.406250,-77.12,70.52
120622,2018-06-29 09:47:41.437500,-65.66,70.52
120623,2018-06-29 09:47:41.468750,-50.15,70.52
120624,2018-06-29 09:47:41.500000,-46.64,70.52
120625,2018-06-29 09:47:41.531250,-59.29,70.38
120626,2018-06-29 09:47:41.562500,-75.33,70.38
120627,2018-06-29 09:47:41.593750,-82.77,70.38
120628,2018-06-29 09:47:41.625000,-86.18,70.38
120629,2018-06-29 09:47:41.656250,-102.39,70.38
120630,2018-06-29 09:47:41.687500,-136.67,70.38
120631,2018-06-29 09:47:41.718750,-160.69,70.38
120632,2018-06-29 09:47:41.750000,-136.6,70.38
120633,2018-06-29 09:47:41.781250,-72.15,70.38
120634,2018-06-29 09:47:41.812500,-19.16,70.38
120635,2018-06-29 09:47:41.843750,-9.59,70.38
120636,2018-06-29 09:47:41.875000,-29.75,70.38
120637,2018-06-29 09:47:41.906250,-54.69,70.38
120638,2018-06-29 09:47:41.937500,-69.42,70.38
120639,2018-06-29 09:47:41.968750,-64.59,70.38
120640,2018-06-29 09:47:42.000000,-42.38,70.38
120641,2018-06-29 09:47:42.031250,-19.9,70.38
120642,2018-06-29 09:47:42.062500,-8.55,70.38
120643,2018-06-29 09:47:42.093750,-1.56,70.38
120644,2018-06-29 09:47:42.125000,9.33,70.38
120645,2018-06-29 09:47:42.156250,20.05,70.38
120646,2018-06-29 09:47:42.187500,25.03,70.38
120647,2018-06-29 09:47:42.218750,28.11,70.38
120648,2018-06-29 09:47:42.250000,35.99,70.38
120649,2018-06-29 09:47:42.281250,48.43,70.38
120650,2018-06-29 09:47:42.312500,59.12,70.38
120651,2018-06-29 09:47:42.343750,62.85,70.38
120652,2018-06-29 09:47:42.375000,59.32,70.38
120653,2018-06-29 09:47:42.406250,51.27,70.38
120654,2018-06-29 09:47:42.437500,42.52,70.38
120655,2018-06-29 09:47:42.468750,35.74,70.38
120656,2018-06-29 09:47:42.500000,29.46,70.38
120657,2018-06-29 09:47:42.531250,20.25,70.3
120658,2018-06-29 09:47:42.562500,8.65,70.3
120659,2018-06-29 09:47:42.593750,-1.37,70.3
120660,2018-06-29 09:47:42.625000,-8.46,70.3
120661,2018-06-29 09:47:42.656250,-14.56,70.3
120662,2018-06-29 09:47:42.687500,-19.91,70.3
120663,2018-06-29 09:47:42.718750,-21.83,70.3
120664,2018-06-29 09:47:42.750000,-20.39,70.3
120665,2018-06-29 09:47:42.781250,-21.5,70.3
120666,2018-06-29 09:47:42.812500,-32.27,70.3
120667,2018-06-29 09:47:42.843750,-54.36,70.3
120668,2018-06-29 09:47:42.875000,-81.04,70.3
120669,2018-06-29 09:47:42.906250,-99.5,70.3
120670,2018-06-29 09:47:42.937500,-99.78,70.3
120671,2018-06-29 09:47:42.968750,-83.54,70.3
120672,2018-06-29 09:47:43.000000,-59.2,70.3
120673,2018-06-29 09:47:43.031250,-30.4,70.3
120674,2018-06-29 09:47:43.062500,3.35,70.3
120675,2018-06-29 09:47:43.093750,38.36,70.3
120676,2018-06-29 09:47:43.125000,67.76,70.3
120677,2018-06-29 09:47:43.156250,87.41,70.3
120678,2018-06-29 09:47:43.187500,96.63,70.3
120679,2018-06-29 09:47:43.218750,96.7,70.3
120680,2018-06-29 09:47:43.250000,90.67,70.3
120681,2018-06-29 09:47:43.281250,82.41,70.3
120682,2018-06-29 09:47:43.312500,74.73,70.3
120683,2018-06-29 09:47:43.343750,67.7,70.3
120684,2018-06-29 09:47:43.375000,59.77,70.3
120685,2018-06-29 09:47:43.406250,51.85,70.3
120686,2018-06-29 09:47:43.437500,46.85,70.3
120687,2018-06-29 09:47:43.468750,44.85,70.3
120688,2018-06-29 09:47:43.500000,43.37,70.3
120689,2018-06-29 09:47:43.531250,41.96,70.25
120690,2018-06-29 09:47:43.562500,41.92,70.25
120691,2018-06-29 09:47:43.593750,43.48,70.25
120692,2018-06-29 09:47:43.625000,45.31,70.25
120693,2018-06-29 09:47:43.656250,45.36,70.25
120694,2018-06-29 09:47:43.687500,41.24,70.25
120695,2018-06-29 09:47:43.718750,31.75,70.25
120696,2018-06-29 09:47:43.750000,18.83,70.25
120697,2018-06-29 09:47:43.781250,6.42,70.25
120698,2018-06-29 09:47:43.812500,-2.54,70.25
120699,2018-06-29 09:47:43.843750,-9.21,70.25
120700,2018-06-29 09:47:43.875000,-17.72,70.25
120701,2018-06-29 09:47:43.906250,-28.25,70.25
120702,2018-06-29 09:47:43.937500,-32.86,70.25
120703,2018-06-29 09:47:43.968750,-24.44,70.25
120704,2018-06-29 09:47:44.000000,-6.49,70.25
120705,2018-06-29 09:47:44.031250,12.51,70.25
120706,2018-06-29 09:47:44.062500,27.41,70.25
120707,2018-06-29 09:47:44.093750,34.92,70.25
120708,2018-06-29 09:47:44.125000,34.5,70.25
120709,2018-06-29 09:47:44.156250,31.11,70.25
120710,2018-06-29 09:47:44.187500,29.54,70.25
120711,2018-06-29 09:47:44.218750,29.83,70.25
120712,2018-06-29 09:47:44.250000,31.57,70.25
120713,2018-06-29 09:47:44.281250,34.82,70.25
120714,2018-06-29 09:47:44.312500,37.16,70.25
120715,2018-06-29 09:47:44.343750,36.58,70.25
120716,2018-06-29 09:47:44.375000,34.35,70.25
120717,2018-06-29 09:47:44.406250,31.67,70.25
120718,2018-06-29 09:47:44.437500,27.01,70.25
120719,2018-06-29 09:47:44.468750,19.23,70.25
120720,2018-06-29 09:47:44.500000,10.13,70.25
120721,2018-06-29 09:47:44.531250,1.14,70.12
120722,2018-06-29 09:47:44.562500,-9.21,70.12
120723,2018-06-29 09:47:44.593750,-22.58,70.12
120724,2018-06-29 09:47:44.625000,-38.01,70.12
120725,2018-06-29 09:47:44.656250,-53.14,70.12
120726,2018-06-29 09:47:44.687500,-66.78,70.12
120727,2018-06-29 09:47:44.718750,-79.34,70.12
120728,2018-06-29 09:47:44.750000,-93.01,70.12
120729,2018-06-29 09:47:44.781250,-109.56,70.12
120730,2018-06-29 09:47:44.812500,-124.68,70.12
120731,2018-06-29 09:47:44.843750,-127.98,70.12
120732,2018-06-29 09:47:44.875000,-113.57,70.12
120733,2018-06-29 09:47:44.906250,-87.6,70.12
120734,2018-06-29 09:47:44.937500,-60.77,70.12
120735,2018-06-29 09:47:44.968750,-38.22,70.12
120736,2018-06-29 09:47:45.000000,-19.82,70.12
120737,2018-06-29 09:47:45.031250,-4.75,70.12
120738,2018-06-29 09:47:45.062500,6.3,70.12
120739,2018-06-29 09:47:45.093750,11.83,70.12
120740,2018-06-29 09:47:45.125000,11.84,70.12
120741,2018-06-29 09:47:45.156250,8.37,70.12
120742,2018-06-29 09:47:45.187500,3.56,70.12
120743,2018-06-29 09:47:45.218750,-1.53,70.12
120744,2018-06-29 09:47:45.250000,-6.48,70.12
120745,2018-06-29 09:47:45.281250,-12.36,70.12
120746,2018-06-29 09:47:45.312500,-21.49,70.12
120747,2018-06-29 09:47:45.343750,-34.74,70.12
120748,2018-06-29 09:47:45.375000,-49.44,70.12
120749,2018-06-29 09:47:45.406250,-60.79,70.12
120750,2018-06-29 09:47:45.437500,-66.24,70.12
120751,2018-06-29 09:47:45.468750,-66.78,70.12
120752,2018-06-29 09:47:45.500000,-63.5,70.12
120753,2018-06-29 09:47:45.531250,-56.52,69.95
120754,2018-06-29 09:47:45.562500,-47.59,69.95
120755,2018-06-29 09:47:45.593750,-40.43,69.95
120756,2018-06-29 09:47:45.625000,-38.57,69.95
120757,2018-06-29 09:47:45.656250,-42.4,69.95
120758,2018-06-29 09:47:45.687500,-45.59,69.95
120759,2018-06-29 09:47:45.718750,-37.42,69.95
120760,2018-06-29 09:47:45.750000,-14.75,69.95
120761,2018-06-29 09:47:45.781250,13.33,69.95
120762,2018-06-29 09:47:45.812500,36.7,69.95
120763,2018-06-29 09:47:45.843750,54.0,69.95
120764,2018-06-29 09:47:45.875000,68.2,69.95
120765,2018-06-29 09:47:45.906250,79.29,69.95
120766,2018-06-29 09:47:45.937500,85.08,69.95
120767,2018-06-29 09:47:45.968750,85.88,69.95
120768,2018-06-29 09:47:46.000000,84.67,69.95
120769,2018-06-29 09:47:46.031250,83.22,69.95
120770,2018-06-29 09:47:46.062500,81.01,69.95
120771,2018-06-29 09:47:46.093750,77.78,69.95
120772,2018-06-29 09:47:46.125000,73.22,69.95
120773,2018-06-29 09:47:46.156250,65.06,69.95
120774,2018-06-29 09:47:46.187500,51.26,69.95
120775,2018-06-29 09:47:46.218750,33.97,69.95
120776,2018-06-29 09:47:46.250000,18.04,69.95
120777,2018-06-29 09:47:46.281250,5.56,69.95
120778,2018-06-29 09:47:46.312500,-5.92,69.95
120779,2018-06-29 09:47:46.343750,-19.34,69.95
120780,2018-06-29 09:47:46.375000,-33.73,69.95
120781,2018-06-29 09:47:46.406250,-45.86,69.95
120782,2018-06-29 09:47:46.437500,-55.73,69.95
120783,2018-06-29 09:47:46.468750,-66.85,69.95
120784,2018-06-29 09:47:46.500000,-81.26,69.95
120785,2018-06-29 09:47:46.531250,-95.09,69.85
120786,2018-06-29 09:47:46.562500,-98.66,69.85
120787,2018-06-29 09:47:46.593750,-83.8,69.85
120788,2018-06-29 09:47:46.625000,-53.42,69.85
120789,2018-06-29 09:47:46.656250,-19.93,69.85
120790,2018-06-29 09:47:46.687500,7.38,69.85
120791,2018-06-29 09:47:46.718750,28.18,69.85
120792,2018-06-29 09:47:46.750000,45.23,69.85
120793,2018-06-29 09:47:46.781250,59.19,69.85
120794,2018-06-29 09:47:46.812500,69.42,69.85
120795,2018-06-29 09:47:46.843750,75.54,69.85
120796,2018-06-29 09:47:46.875000,77.65,69.85
120797,2018-06-29 09:47:46.906250,76.51,69.85
120798,2018-06-29 09:47:46.937500,73.68,69.85
120799,2018-06-29 09:47:46.968750,70.5,69.85
120800,2018-06-29 09:47:47.000000,66.02,69.85
120801,2018-06-29 09:47:47.031250,57.08,69.85
120802,2018-06-29 09:47:47.062500,42.41,69.85
120803,2018-06-29 09:47:47.093750,25.44,69.85
120804,2018-06-29 09:47:47.125000,10.53,69.85
120805,2018-06-29 09:47:47.156250,-2.19,69.85
120806,2018-06-29 09:47:47.187500,-15.59,69.85
120807,2018-06-29 09:47:47.218750,-30.36,69.85
120808,2018-06-29 09:47:47.250000,-43.97,69.85
120809,2018-06-29 09:47:47.281250,-54.68,69.85
120810,2018-06-29 09:47:47.312500,-64.26,69.85
120811,2018-06-29 09:47:47.343750,-75.56,69.85
120812,2018-06-29 09:47:47.375000,-86.98,69.85
120813,2018-06-29 09:47:47.406250,-90.65,69.85
120814,2018-06-29 09:47:47.437500,-79.43,69.85
120815,2018-06-29 09:47:47.468750,-55.61,69.85
120816,2018-06-29 09:47:47.500000,-28.99,69.85
120817,2018-06-29 09:47:47.531250,-6.99,69.7
120818,2018-06-29 09:47:47.562500,9.58,69.7
120819,2018-06-29 09:47:47.593750,22.26,69.7
120820,2018-06-29 09:47:47.625000,30.53,69.7
120821,2018-06-29 09:47:47.656250,33.44,69.7
120822,2018-06-29 09:47:47.687500,33.03,69.7
120823,2018-06-29 09:47:47.718750,33.14,69.7
120824,2018-06-29 09:47:47.750000,35.41,69.7
120825,2018-06-29 09:47:47.781250,39.25,69.7
120826,2018-06-29 09:47:47.812500,43.5,69.7
120827,2018-06-29 09:47:47.843750,46.19,69.7
120828,2018-06-29 09:47:47.875000,45.8,69.7
120829,2018-06-29 09:47:47.906250,43.64,69.7
120830,2018-06-29 09:47:47.937500,41.92,69.7
120831,2018-06-29 09:47:47.968750,40.57,69.7
120832,2018-06-29 09:47:48.000000,37.81,69.7
120833,2018-06-29 09:47:48.031250,32.45,69.7
120834,2018-06-29 09:47:48.062500,24.28,69.7
120835,2018-06-29 09:47:48.093750,14.18,69.7
120836,2018-06-29 09:47:48.125000,3.5,69.7
120837,2018-06-29 09:47:48.156250,-7.14,69.7
120838,2018-06-29 09:47:48.187500,-18.57,69.7
120839,2018-06-29 09:47:48.218750,-32.04,69.7
120840,2018-06-29 09:47:48.250000,-48.17,69.7
120841,2018-06-29 09:47:48.281250,-67.24,69.7
120842,2018-06-29 09:47:48.312500,-88.3,69.7
120843,2018-06-29 09:47:48.343750,-105.29,69.7
120844,2018-06-29 09:47:48.375000,-108.03,69.7
120845,2018-06-29 09:47:48.406250,-92.3,69.7
120846,2018-06-29 09:47:48.437500,-65.55,69.7
120847,2018-06-29 09:47:48.468750,-38.39,69.7
120848,2018-06-29 09:47:48.500000,-14.88,69.7
120849,2018-06-29 09:47:48.531250,6.1,69.47
120850,2018-06-29 09:47:48.562500,24.82,69.47
120851,2018-06-29 09:47:48.593750,39.36,69.47
120852,2018-06-29 09:47:48.625000,48.12,69.47
120853,2018-06-29 09:47:48.656250,51.96,69.47
120854,2018-06-29 09:47:48.687500,53.52,69.47
120855,2018-06-29 09:47:48.718750,55.17,69.47
120856,2018-06-29 09:47:48.750000,57.86,69.47
120857,2018-06-29 09:47:48.781250,60.47,69.47
120858,2018-06-29 09:47:48.812500,60.45,69.47
120859,2018-06-29 09:47:48.843750,56.61,69.47
120860,2018-06-29 09:47:48.875000,50.42,69.47
120861,2018-06-29 09:47:48.906250,43.71,69.47
120862,2018-06-29 09:47:48.937500,37.18,69.47
120863,2018-06-29 09:47:48.968750,31.42,69.47
120864,2018-06-29 09:47:49.000000,27.13,69.47
120865,2018-06-29 09:47:49.031250,23.71,69.47
120866,2018-06-29 09:47:49.062500,19.43,69.47
120867,2018-06-29 09:47:49.093750,13.44,69.47
120868,2018-06-29 09:47:49.125000,6.63,69.47
120869,2018-06-29 09:47:49.156250,0.17,69.47
120870,2018-06-29 09:47:49.187500,-6.56,69.47
120871,2018-06-29 09:47:49.218750,-14.86,69.47
120872,2018-06-29 09:47:49.250000,-24.02,69.47
120873,2018-06-29 09:47:49.281250,-31.84,69.47
120874,2018-06-29 09:47:49.312500,-37.96,69.47
120875,2018-06-29 09:47:49.343750,-44.58,69.47
120876,2018-06-29 09:47:49.375000,-53.77,69.47
120877,2018-06-29 09:47:49.406250,-64.59,69.47
120878,2018-06-29 09:47:49.437500,-71.39,69.47
120879,2018-06-29 09:47:49.468750,-67.28,69.47
120880,2018-06-29 09:47:49.500000,-52.05,69.47
120881,2018-06-29 09:47:49.531250,-32.84,69.12
120882,2018-06-29 09:47:49.562500,-15.79,69.12
120883,2018-06-29 09:47:49.593750,-1.49,69.12
120884,2018-06-29 09:47:49.625000,11.2,69.12
120885,2018-06-29 09:47:49.656250,22.25,69.12
120886,2018-06-29 09:47:49.687500,30.91,69.12
120887,2018-06-29 09:47:49.718750,36.51,69.12
120888,2018-06-29 09:47:49.750000,39.24,69.12
120889,2018-06-29 09:47:49.781250,40.13,69.12
120890,2018-06-29 09:47:49.812500,39.71,69.12
120891,2018-06-29 09:47:49.843750,37.84,69.12
120892,2018-06-29 09:47:49.875000,34.76,69.12
120893,2018-06-29 09:47:49.906250,31.06,69.12
120894,2018-06-29 09:47:49.937500,26.8,69.12
120895,2018-06-29 09:47:49.968750,21.77,69.12
120896,2018-06-29 09:47:50.000000,16.26,69.12
120897,2018-06-29 09:47:50.031250,10.35,69.12
120898,2018-06-29 09:47:50.062500,3.33,69.12
120899,2018-06-29 09:47:50.093750,-5.04,69.12
120900,2018-06-29 09:47:50.125000,-13.35,69.12
120901,2018-06-29 09:47:50.156250,-20.26,69.12
120902,2018-06-29 09:47:50.187500,-25.69,69.12
120903,2018-06-29 09:47:50.218750,-29.66,69.12
120904,2018-06-29 09:47:50.250000,-32.62,69.12
120905,2018-06-29 09:47:50.281250,-36.7,69.12
120906,2018-06-29 09:47:50.312500,-43.89,69.12
120907,2018-06-29 09:47:50.343750,-52.85,69.12
120908,2018-06-29 09:47:50.375000,-57.69,69.12
120909,2018-06-29 09:47:50.406250,-52.31,69.12
120910,2018-06-29 09:47:50.437500,-37.09,69.12
120911,2018-06-29 09:47:50.468750,-18.82,69.12
120912,2018-06-29 09:47:50.500000,-3.18,69.12
120913,2018-06-29 09:47:50.531250,9.45,68.83
120914,2018-06-29 09:47:50.562500,20.46,68.83
120915,2018-06-29 09:47:50.593750,29.33,68.83
120916,2018-06-29 09:47:50.625000,34.07,68.83
120917,2018-06-29 09:47:50.656250,33.77,68.83
120918,2018-06-29 09:47:50.687500,29.64,68.83
120919,2018-06-29 09:47:50.718750,23.62,68.83
120920,2018-06-29 09:47:50.750000,17.37,68.83
120921,2018-06-29 09:47:50.781250,12.44,68.83
120922,2018-06-29 09:47:50.812500,9.39,68.83
120923,2018-06-29 09:47:50.843750,7.07,68.83
120924,2018-06-29 09:47:50.875000,4.39,68.83
120925,2018-06-29 09:47:50.906250,1.49,68.83
120926,2018-06-29 09:47:50.937500,-1.56,68.83
120927,2018-06-29 09:47:50.968750,-4.94,68.83
120928,2018-06-29 09:47:51.000000,-8.24,68.83
120929,2018-06-29 09:47:51.031250,-11.15,68.83
120930,2018-06-29 09:47:51.062500,-14.41,68.83
120931,2018-06-29 09:47:51.093750,-18.35,68.83
120932,2018-06-29 09:47:51.125000,-21.63,68.83
120933,2018-06-29 09:47:51.156250,-23.61,68.83
120934,2018-06-29 09:47:51.187500,-26.1,68.83
120935,2018-06-29 09:47:51.218750,-31.54,68.83
120936,2018-06-29 09:47:51.250000,-39.85,68.83
120937,2018-06-29 09:47:51.281250,-47.44,68.83
120938,2018-06-29 09:47:51.312500,-48.4,68.83
120939,2018-06-29 09:47:51.343750,-38.47,68.83
120940,2018-06-29 09:47:51.375000,-20.4,68.83
120941,2018-06-29 09:47:51.406250,-2.14,68.83
120942,2018-06-29 09:47:51.437500,10.88,68.83
120943,2018-06-29 09:47:51.468750,19.31,68.83
120944,2018-06-29 09:47:51.500000,25.56,68.83
120945,2018-06-29 09:47:51.531250,29.71,68.58
120946,2018-06-29 09:47:51.562500,31.1,68.58
120947,2018-06-29 09:47:51.593750,30.99,68.58
120948,2018-06-29 09:47:51.625000,31.36,68.58
120949,2018-06-29 09:47:51.656250,32.59,68.58
120950,2018-06-29 09:47:51.687500,34.03,68.58
120951,2018-06-29 09:47:51.718750,35.26,68.58
120952,2018-06-29 09:47:51.750000,35.53,68.58
120953,2018-06-29 09:47:51.781250,34.02,68.58
120954,2018-06-29 09:47:51.812500,31.14,68.58
120955,2018-06-29 09:47:51.843750,27.74,68.58
120956,2018-06-29 09:47:51.875000,23.69,68.58
120957,2018-06-29 09:47:51.906250,18.25,68.58
120958,2018-06-29 09:47:51.937500,11.48,68.58
120959,2018-06-29 09:47:51.968750,4.27,68.58
120960,2018-06-29 09:47:52.000000,-2.58,68.58
120961,2018-06-29 09:47:52.031250,-8.68,68.58
120962,2018-06-29 09:47:52.062500,-13.51,68.58
120963,2018-06-29 09:47:52.093750,-16.79,68.58
120964,2018-06-29 09:47:52.125000,-19.93,68.58
120965,2018-06-29 09:47:52.156250,-25.61,68.58
120966,2018-06-29 09:47:52.187500,-34.97,68.58
120967,2018-06-29 09:47:52.218750,-45.02,68.58
120968,2018-06-29 09:47:52.250000,-49.54,68.58
120969,2018-06-29 09:47:52.281250,-44.29,68.58
120970,2018-06-29 09:47:52.312500,-31.46,68.58
120971,2018-06-29 09:47:52.343750,-17.23,68.58
120972,2018-06-29 09:47:52.375000,-5.82,68.58
120973,2018-06-29 09:47:52.406250,2.62,68.58
120974,2018-06-29 09:47:52.437500,9.73,68.58
120975,2018-06-29 09:47:52.468750,16.38,68.58
120976,2018-06-29 09:47:52.500000,21.68,68.58
120977,2018-06-29 09:47:52.531250,24.08,68.35
120978,2018-06-29 09:47:52.562500,23.7,68.35
120979,2018-06-29 09:47:52.593750,22.13,68.35
120980,2018-06-29 09:47:52.625000,20.36,68.35
120981,2018-06-29 09:47:52.656250,18.21,68.35
120982,2018-06-29 09:47:52.687500,15.17,68.35
120983,2018-06-29 09:47:52.718750,11.58,68.35
120984,2018-06-29 09:47:52.750000,8.89,68.35
120985,2018-06-29 09:47:52.781250,8.4,68.35
120986,2018-06-29 09:47:52.812500,9.17,68.35
120987,2018-06-29 09:47:52.843750,8.46,68.35
