,Time,ppg,hr
121600,2018-06-29 09:48:12.000000,12.81,66.65
121601,2018-06-29 09:48:12.031250,24.43,66.65
121602,2018-06-29 09:48:12.062500,32.48,66.65
121603,2018-06-29 09:48:12.093750,37.14,66.65
121604,2018-06-29 09:48:12.125000,39.71,66.65
121605,2018-06-29 09:48:12.156250,41.27,66.65
121606,2018-06-29 09:48:12.187500,42.95,66.65
121607,2018-06-29 09:48:12.218750,45.83,66.65
121608,2018-06-29 09:48:12.250000,49.26,66.65
121609,2018-06-29 09:48:12.281250,51.36,66.65
121610,2018-06-29 09:48:12.312500,51.54,66.65
121611,2018-06-29 09:48:12.343750,50.67,66.65
121612,2018-06-29 09:48:12.375000,49.26,66.65
121613,2018-06-29 09:48:12.406250,46.66,66.65
121614,2018-06-29 09:48:12.437500,41.51,66.65
121615,2018-06-29 09:48:12.468750,33.36,66.65
121616,2018-06-29 09:48:12.500000,22.74,66.65
121617,2018-06-29 09:48:12.531250,9.34,66.9
121618,2018-06-29 09:48:12.562500,-7.0,66.9
121619,2018-06-29 09:48:12.593750,-23.71,66.9
121620,2018-06-29 09:48:12.625000,-37.59,66.9
121621,2018-06-29 09:48:12.656250,-48.99,66.9
121622,2018-06-29 09:48:12.687500,-61.29,66.9
121623,2018-06-29 09:48:12.718750,-75.87,66.9
121624,2018-06-29 09:48:12.750000,-87.56,66.9
121625,2018-06-29 09:48:12.781250,-86.11,66.9
121626,2018-06-29 09:48:12.812500,-66.52,66.9
121627,2018-06-29 09:48:12.843750,-36.56,66.9
121628,2018-06-29 09:48:12.875000,-9.32,66.9
121629,2018-06-29 09:48:12.906250,9.28,66.9
121630,2018-06-29 09:48:12.937500,21.82,66.9
121631,2018-06-29 09:48:12.968750,31.43,66.9
121632,2018-06-29 09:48:13.000000,38.15,66.9
121633,2018-06-29 09:48:13.031250,41.98,66.9
121634,2018-06-29 09:48:13.062500,44.96,66.9
121635,2018-06-29 09:48:13.093750,48.46,66.9
121636,2018-06-29 09:48:13.125000,52.07,66.9
121637,2018-06-29 09:48:13.156250,56.18,66.9
121638,2018-06-29 09:48:13.187500,61.58,66.9
121639,2018-06-29 09:48:13.218750,66.17,66.9
121640,2018-06-29 09:48:13.250000,66.61,66.9
121641,2018-06-29 09:48:13.281250,62.8,66.9
121642,2018-06-29 09:48:13.312500,57.29,66.9
121643,2018-06-29 09:48:13.343750,51.35,66.9
121644,2018-06-29 09:48:13.375000,44.08,66.9
121645,2018-06-29 09:48:13.406250,34.92,66.9
121646,2018-06-29 09:48:13.437500,25.25,66.9
121647,2018-06-29 09:48:13.468750,17.1,66.9
121648,2018-06-29 09:48:13.500000,10.13,66.9
121649,2018-06-29 09:48:13.531250,1.72,67.25
121650,2018-06-29 09:48:13.562500,-9.34,67.25
121651,2018-06-29 09:48:13.593750,-21.19,67.25
121652,2018-06-29 09:48:13.625000,-31.88,67.25
121653,2018-06-29 09:48:13.656250,-42.49,67.25
121654,2018-06-29 09:48:13.687500,-56.26,67.25
121655,2018-06-29 09:48:13.718750,-74.25,67.25
121656,2018-06-29 09:48:13.750000,-90.3,67.25
121657,2018-06-29 09:48:13.781250,-92.3,67.25
121658,2018-06-29 09:48:13.812500,-73.38,67.25
121659,2018-06-29 09:48:13.843750,-40.88,67.25
121660,2018-06-29 09:48:13.875000,-9.03,67.25
121661,2018-06-29 09:48:13.906250,14.65,67.25
121662,2018-06-29 09:48:13.937500,31.55,67.25
121663,2018-06-29 09:48:13.968750,43.73,67.25
121664,2018-06-29 09:48:14.000000,50.57,67.25
121665,2018-06-29 09:48:14.031250,52.77,67.25
121666,2018-06-29 09:48:14.062500,53.77,67.25
121667,2018-06-29 09:48:14.093750,55.66,67.25
121668,2018-06-29 09:48:14.125000,57.45,67.25
121669,2018-06-29 09:48:14.156250,58.31,67.25
121670,2018-06-29 09:48:14.187500,58.37,67.25
121671,2018-06-29 09:48:14.218750,56.37,67.25
121672,2018-06-29 09:48:14.250000,50.81,67.25
121673,2018-06-29 09:48:14.281250,42.96,67.25
121674,2018-06-29 09:48:14.312500,35.46,67.25
121675,2018-06-29 09:48:14.343750,29.09,67.25
121676,2018-06-29 09:48:14.375000,22.78,67.25
121677,2018-06-29 09:48:14.406250,15.81,67.25
121678,2018-06-29 09:48:14.437500,8.26,67.25
121679,2018-06-29 09:48:14.468750,0.93,67.25
121680,2018-06-29 09:48:14.500000,-5.08,67.25
121681,2018-06-29 09:48:14.531250,-9.3,67.57
121682,2018-06-29 09:48:14.562500,-12.75,67.57
121683,2018-06-29 09:48:14.593750,-16.85,67.57
121684,2018-06-29 09:48:14.625000,-21.9,67.57
121685,2018-06-29 09:48:14.656250,-27.03,67.57
121686,2018-06-29 09:48:14.687500,-32.25,67.57
121687,2018-06-29 09:48:14.718750,-39.85,67.57
121688,2018-06-29 09:48:14.750000,-52.25,67.57
121689,2018-06-29 09:48:14.781250,-67.42,67.57
121690,2018-06-29 09:48:14.812500,-76.49,67.57
121691,2018-06-29 09:48:14.843750,-69.41,67.57
121692,2018-06-29 09:48:14.875000,-45.32,67.57
121693,2018-06-29 09:48:14.906250,-14.5,67.57
121694,2018-06-29 09:48:14.937500,12.32,67.57
121695,2018-06-29 09:48:14.968750,32.34,67.57
121696,2018-06-29 09:48:15.000000,46.46,67.57
121697,2018-06-29 09:48:15.031250,54.21,67.57
121698,2018-06-29 09:48:15.062500,56.25,67.57
121699,2018-06-29 09:48:15.093750,56.21,67.57
121700,2018-06-29 09:48:15.125000,56.84,67.57
121701,2018-06-29 09:48:15.156250,57.74,67.57
121702,2018-06-29 09:48:15.187500,58.17,67.57
121703,2018-06-29 09:48:15.218750,58.75,67.57
121704,2018-06-29 09:48:15.250000,59.02,67.57
121705,2018-06-29 09:48:15.281250,56.47,67.57
121706,2018-06-29 09:48:15.312500,49.95,67.57
121707,2018-06-29 09:48:15.343750,41.75,67.57
121708,2018-06-29 09:48:15.375000,34.6,67.57
121709,2018-06-29 09:48:15.406250,28.84,67.57
121710,2018-06-29 09:48:15.437500,23.07,67.57
121711,2018-06-29 09:48:15.468750,16.6,67.57
121712,2018-06-29 09:48:15.500000,10.38,67.57
121713,2018-06-29 09:48:15.531250,5.46,67.87
121714,2018-06-29 09:48:15.562500,0.71,67.87
121715,2018-06-29 09:48:15.593750,-6.1,67.87
121716,2018-06-29 09:48:15.625000,-14.5,67.87
121717,2018-06-29 09:48:15.656250,-21.97,67.87
121718,2018-06-29 09:48:15.687500,-28.18,67.87
121719,2018-06-29 09:48:15.718750,-35.82,67.87
121720,2018-06-29 09:48:15.750000,-47.29,67.87
121721,2018-06-29 09:48:15.781250,-61.68,67.87
121722,2018-06-29 09:48:15.812500,-72.74,67.87
121723,2018-06-29 09:48:15.843750,-70.71,67.87
121724,2018-06-29 09:48:15.875000,-51.48,67.87
121725,2018-06-29 09:48:15.906250,-22.84,67.87
121726,2018-06-29 09:48:15.937500,3.08,67.87
121727,2018-06-29 09:48:15.968750,20.87,67.87
121728,2018-06-29 09:48:16.000000,32.6,67.87
121729,2018-06-29 09:48:16.031250,40.8,67.87
121730,2018-06-29 09:48:16.062500,45.59,67.87
121731,2018-06-29 09:48:16.093750,47.29,67.87
121732,2018-06-29 09:48:16.125000,47.84,67.87
121733,2018-06-29 09:48:16.156250,48.7,67.87
121734,2018-06-29 09:48:16.187500,49.42,67.87
121735,2018-06-29 09:48:16.218750,49.61,67.87
121736,2018-06-29 09:48:16.250000,49.35,67.87
121737,2018-06-29 09:48:16.281250,47.48,67.87
121738,2018-06-29 09:48:16.312500,42.61,67.87
121739,2018-06-29 09:48:16.343750,35.84,67.87
121740,2018-06-29 09:48:16.375000,29.69,67.87
121741,2018-06-29 09:48:16.406250,25.22,67.87
121742,2018-06-29 09:48:16.437500,22.13,67.87
121743,2018-06-29 09:48:16.468750,19.79,67.87
121744,2018-06-29 09:48:16.500000,16.62,67.87
121745,2018-06-29 09:48:16.531250,11.06,68.13
121746,2018-06-29 09:48:16.562500,3.13,68.13
121747,2018-06-29 09:48:16.593750,-5.95,68.13
121748,2018-06-29 09:48:16.625000,-15.64,68.13
121749,2018-06-29 09:48:16.656250,-25.9,68.13
121750,2018-06-29 09:48:16.687500,-35.99,68.13
121751,2018-06-29 09:48:16.718750,-44.9,68.13
121752,2018-06-29 09:48:16.750000,-52.72,68.13
121753,2018-06-29 09:48:16.781250,-60.93,68.13
121754,2018-06-29 09:48:16.812500,-71.43,68.13
121755,2018-06-29 09:48:16.843750,-83.25,68.13
121756,2018-06-29 09:48:16.875000,-89.52,68.13
121757,2018-06-29 09:48:16.906250,-81.43,68.13
121758,2018-06-29 09:48:16.937500,-58.24,68.13
121759,2018-06-29 09:48:16.968750,-29.52,68.13
121760,2018-06-29 09:48:17.000000,-5.7,68.13
121761,2018-06-29 09:48:17.031250,9.29,68.13
121762,2018-06-29 09:48:17.062500,17.16,68.13
121763,2018-06-29 09:48:17.093750,21.6,68.13
121764,2018-06-29 09:48:17.125000,25.57,68.13
121765,2018-06-29 09:48:17.156250,29.51,68.13
121766,2018-06-29 09:48:17.187500,32.68,68.13
121767,2018-06-29 09:48:17.218750,35.01,68.13
121768,2018-06-29 09:48:17.250000,36.66,68.13
121769,2018-06-29 09:48:17.281250,37.41,68.13
121770,2018-06-29 09:48:17.312500,37.01,68.13
121771,2018-06-29 09:48:17.343750,34.81,68.13
121772,2018-06-29 09:48:17.375000,30.26,68.13
121773,2018-06-29 09:48:17.406250,24.56,68.13
121774,2018-06-29 09:48:17.437500,20.17,68.13
121775,2018-06-29 09:48:17.468750,17.69,68.13
121776,2018-06-29 09:48:17.500000,15.17,68.13
121777,2018-06-29 09:48:17.531250,11.14,68.47
121778,2018-06-29 09:48:17.562500,6.0,68.47
121779,2018-06-29 09:48:17.593750,0.75,68.47
121780,2018-06-29 09:48:17.625000,-4.18,68.47
121781,2018-06-29 09:48:17.656250,-8.86,68.47
121782,2018-06-29 09:48:17.687500,-13.75,68.47
121783,2018-06-29 09:48:17.718750,-19.7,68.47
121784,2018-06-29 09:48:17.750000,-26.71,68.47
121785,2018-06-29 09:48:17.781250,-33.45,68.47
121786,2018-06-29 09:48:17.812500,-39.2,68.47
121787,2018-06-29 09:48:17.843750,-45.76,68.47
121788,2018-06-29 09:48:17.875000,-54.39,68.47
121789,2018-06-29 09:48:17.906250,-60.47,68.47
121790,2018-06-29 09:48:17.937500,-55.77,68.47
121791,2018-06-29 09:48:17.968750,-38.0,68.47
121792,2018-06-29 09:48:18.000000,-14.53,68.47
121793,2018-06-29 09:48:18.031250,5.16,68.47
121794,2018-06-29 09:48:18.062500,17.76,68.47
121795,2018-06-29 09:48:18.093750,25.52,68.47
121796,2018-06-29 09:48:18.125000,30.86,68.47
121797,2018-06-29 09:48:18.156250,34.35,68.47
121798,2018-06-29 09:48:18.187500,36.13,68.47
121799,2018-06-29 09:48:18.218750,36.76,68.47
121800,2018-06-29 09:48:18.250000,36.43,68.47
121801,2018-06-29 09:48:18.281250,35.48,68.47
121802,2018-06-29 09:48:18.312500,34.88,68.47
121803,2018-06-29 09:48:18.343750,34.64,68.47
121804,2018-06-29 09:48:18.375000,32.69,68.47
121805,2018-06-29 09:48:18.406250,27.28,68.47
121806,2018-06-29 09:48:18.437500,19.48,68.47
121807,2018-06-29 09:48:18.468750,11.91,68.47
121808,2018-06-29 09:48:18.500000,6.12,68.47
121809,2018-06-29 09:48:18.531250,2.15,68.7
121810,2018-06-29 09:48:18.562500,-0.43,68.7
121811,2018-06-29 09:48:18.593750,-2.08,68.7
121812,2018-06-29 09:48:18.625000,-3.3,68.7
121813,2018-06-29 09:48:18.656250,-4.72,68.7
121814,2018-06-29 09:48:18.687500,-6.99,68.7
121815,2018-06-29 09:48:18.718750,-10.3,68.7
121816,2018-06-29 09:48:18.750000,-14.47,68.7
121817,2018-06-29 09:48:18.781250,-19.33,68.7
121818,2018-06-29 09:48:18.812500,-24.78,68.7
121819,2018-06-29 09:48:18.843750,-30.12,68.7
121820,2018-06-29 09:48:18.875000,-34.54,68.7
121821,2018-06-29 09:48:18.906250,-38.9,68.7
121822,2018-06-29 09:48:18.937500,-45.41,68.7
121823,2018-06-29 09:48:18.968750,-53.48,68.7
121824,2018-06-29 09:48:19.000000,-56.91,68.7
121825,2018-06-29 09:48:19.031250,-49.02,68.7
121826,2018-06-29 09:48:19.062500,-30.99,68.7
121827,2018-06-29 09:48:19.093750,-11.34,68.7
121828,2018-06-29 09:48:19.125000,3.23,68.7
121829,2018-06-29 09:48:19.156250,12.11,68.7
121830,2018-06-29 09:48:19.187500,17.24,68.7
121831,2018-06-29 09:48:19.218750,19.97,68.7
121832,2018-06-29 09:48:19.250000,21.03,68.7
121833,2018-06-29 09:48:19.281250,20.4,68.7
121834,2018-06-29 09:48:19.312500,17.95,68.7
121835,2018-06-29 09:48:19.343750,14.79,68.7
121836,2018-06-29 09:48:19.375000,12.89,68.7
121837,2018-06-29 09:48:19.406250,13.1,68.7
121838,2018-06-29 09:48:19.437500,14.26,68.7
121839,2018-06-29 09:48:19.468750,14.2,68.7
121840,2018-06-29 09:48:19.500000,12.07,68.7
121841,2018-06-29 09:48:19.531250,9.2,69.13
121842,2018-06-29 09:48:19.562500,6.9,69.13
121843,2018-06-29 09:48:19.593750,4.37,69.13
121844,2018-06-29 09:48:19.625000,0.36,69.13
121845,2018-06-29 09:48:19.656250,-4.67,69.13
121846,2018-06-29 09:48:19.687500,-9.38,69.13
121847,2018-06-29 09:48:19.718750,-13.64,69.13
121848,2018-06-29 09:48:19.750000,-17.96,69.13
121849,2018-06-29 09:48:19.781250,-21.48,69.13
121850,2018-06-29 09:48:19.812500,-22.64,69.13
121851,2018-06-29 09:48:19.843750,-21.55,69.13
121852,2018-06-29 09:48:19.875000,-20.65,69.13
121853,2018-06-29 09:48:19.906250,-23.37,69.13
121854,2018-06-29 09:48:19.937500,-30.95,69.13
121855,2018-06-29 09:48:19.968750,-38.34,69.13
121856,2018-06-29 09:48:20.000000,-36.35,69.13
121857,2018-06-29 09:48:20.031250,-22.12,69.13
121858,2018-06-29 09:48:20.062500,-3.19,69.13
121859,2018-06-29 09:48:20.093750,12.46,69.13
121860,2018-06-29 09:48:20.125000,23.54,69.13
121861,2018-06-29 09:48:20.156250,30.74,69.13
121862,2018-06-29 09:48:20.187500,32.99,69.13
121863,2018-06-29 09:48:20.218750,31.01,69.13
121864,2018-06-29 09:48:20.250000,28.6,69.13
121865,2018-06-29 09:48:20.281250,28.39,69.13
121866,2018-06-29 09:48:20.312500,29.74,69.13
121867,2018-06-29 09:48:20.343750,31.13,69.13
121868,2018-06-29 09:48:20.375000,31.96,69.13
121869,2018-06-29 09:48:20.406250,31.36,69.13
121870,2018-06-29 09:48:20.437500,27.57,69.13
121871,2018-06-29 09:48:20.468750,19.72,69.13
121872,2018-06-29 09:48:20.500000,9.59,69.13
121873,2018-06-29 09:48:20.531250,0.29,69.53
121874,2018-06-29 09:48:20.562500,-6.74,69.53
121875,2018-06-29 09:48:20.593750,-12.93,69.53
121876,2018-06-29 09:48:20.625000,-20.0,69.53
121877,2018-06-29 09:48:20.656250,-27.8,69.53
121878,2018-06-29 09:48:20.687500,-34.99,69.53
121879,2018-06-29 09:48:20.718750,-41.0,69.53
121880,2018-06-29 09:48:20.750000,-46.57,69.53
121881,2018-06-29 09:48:20.781250,-53.05,69.53
121882,2018-06-29 09:48:20.812500,-60.7,69.53
121883,2018-06-29 09:48:20.843750,-66.08,69.53
121884,2018-06-29 09:48:20.875000,-62.86,69.53
121885,2018-06-29 09:48:20.906250,-48.79,69.53
121886,2018-06-29 09:48:20.937500,-29.57,69.53
121887,2018-06-29 09:48:20.968750,-13.11,69.53
121888,2018-06-29 09:48:21.000000,-2.08,69.53
121889,2018-06-29 09:48:21.031250,5.49,69.53
121890,2018-06-29 09:48:21.062500,11.73,69.53
121891,2018-06-29 09:48:21.093750,16.98,69.53
121892,2018-06-29 09:48:21.125000,20.54,69.53
121893,2018-06-29 09:48:21.156250,22.18,69.53
121894,2018-06-29 09:48:21.187500,23.0,69.53
121895,2018-06-29 09:48:21.218750,24.26,69.53
121896,2018-06-29 09:48:21.250000,25.29,69.53
121897,2018-06-29 09:48:21.281250,24.44,69.53
121898,2018-06-29 09:48:21.312500,21.17,69.53
121899,2018-06-29 09:48:21.343750,15.83,69.53
121900,2018-06-29 09:48:21.375000,8.85,69.53
121901,2018-06-29 09:48:21.406250,1.17,69.53
121902,2018-06-29 09:48:21.437500,-6.28,69.53
121903,2018-06-29 09:48:21.468750,-13.49,69.53
121904,2018-06-29 09:48:21.500000,-20.52,69.53
121905,2018-06-29 09:48:21.531250,-26.48,69.55
121906,2018-06-29 09:48:21.562500,-31.81,69.55
121907,2018-06-29 09:48:21.593750,-39.24,69.55
121908,2018-06-29 09:48:21.625000,-49.79,69.55
121909,2018-06-29 09:48:21.656250,-58.25,69.55
121910,2018-06-29 09:48:21.687500,-56.89,69.55
121911,2018-06-29 09:48:21.718750,-44.7,69.55
121912,2018-06-29 09:48:21.750000,-28.63,69.55
121913,2018-06-29 09:48:21.781250,-14.78,69.55
121914,2018-06-29 09:48:21.812500,-2.87,69.55
121915,2018-06-29 09:48:21.843750,9.45,69.55
121916,2018-06-29 09:48:21.875000,21.76,69.55
121917,2018-06-29 09:48:21.906250,31.41,69.55
121918,2018-06-29 09:48:21.937500,36.13,69.55
121919,2018-06-29 09:48:21.968750,36.26,69.55
121920,2018-06-29 09:48:22.000000,34.31,69.55
121921,2018-06-29 09:48:22.031250,32.46,69.55
121922,2018-06-29 09:48:22.062500,31.04,69.55
121923,2018-06-29 09:48:22.093750,29.13,69.55
121924,2018-06-29 09:48:22.125000,25.88,69.55
121925,2018-06-29 09:48:22.156250,20.35,69.55
121926,2018-06-29 09:48:22.187500,11.64,69.55
121927,2018-06-29 09:48:22.218750,0.05,69.55
121928,2018-06-29 09:48:22.250000,-11.99,69.55
121929,2018-06-29 09:48:22.281250,-22.46,69.55
121930,2018-06-29 09:48:22.312500,-32.55,69.55
121931,2018-06-29 09:48:22.343750,-44.69,69.55
121932,2018-06-29 09:48:22.375000,-58.53,69.55
121933,2018-06-29 09:48:22.406250,-68.79,69.55
121934,2018-06-29 09:48:22.437500,-67.63,69.55
121935,2018-06-29 09:48:22.468750,-51.78,69.55
121936,2018-06-29 09:48:22.500000,-27.12,69.55
121937,2018-06-29 09:48:22.531250,-3.27,69.45
121938,2018-06-29 09:48:22.562500,15.14,69.45
121939,2018-06-29 09:48:22.593750,28.52,69.45
121940,2018-06-29 09:48:22.625000,36.45,69.45
121941,2018-06-29 09:48:22.656250,37.23,69.45
121942,2018-06-29 09:48:22.687500,31.88,69.45
121943,2018-06-29 09:48:22.718750,25.06,69.45
121944,2018-06-29 09:48:22.750000,21.49,69.45
121945,2018-06-29 09:48:22.781250,22.79,69.45
121946,2018-06-29 09:48:22.812500,27.03,69.45
121947,2018-06-29 09:48:22.843750,30.82,69.45
121948,2018-06-29 09:48:22.875000,31.86,69.45
121949,2018-06-29 09:48:22.906250,29.58,69.45
121950,2018-06-29 09:48:22.937500,24.08,69.45
121951,2018-06-29 09:48:22.968750,15.89,69.45
121952,2018-06-29 09:48:23.000000,6.07,69.45
121953,2018-06-29 09:48:23.031250,-4.35,69.45
121954,2018-06-29 09:48:23.062500,-15.1,69.45
121955,2018-06-29 09:48:23.093750,-27.17,69.45
121956,2018-06-29 09:48:23.125000,-42.01,69.45
121957,2018-06-29 09:48:23.156250,-58.94,69.45
121958,2018-06-29 09:48:23.187500,-72.26,69.45
121959,2018-06-29 09:48:23.218750,-73.62,69.45
121960,2018-06-29 09:48:23.250000,-59.99,69.45
121961,2018-06-29 09:48:23.281250,-37.35,69.45
121962,2018-06-29 09:48:23.312500,-14.42,69.45
121963,2018-06-29 09:48:23.343750,5.23,69.45
121964,2018-06-29 09:48:23.375000,22.52,69.45
121965,2018-06-29 09:48:23.406250,37.56,69.45
121966,2018-06-29 09:48:23.437500,48.04,69.45
121967,2018-06-29 09:48:23.468750,52.57,69.45
121968,2018-06-29 09:48:23.500000,53.29,69.45
121969,2018-06-29 09:48:23.531250,53.29,69.23
121970,2018-06-29 09:48:23.562500,53.09,69.23
121971,2018-06-29 09:48:23.593750,51.92,69.23
121972,2018-06-29 09:48:23.625000,50.04,69.23
121973,2018-06-29 09:48:23.656250,46.88,69.23
121974,2018-06-29 09:48:23.687500,40.17,69.23
121975,2018-06-29 09:48:23.718750,30.08,69.23
121976,2018-06-29 09:48:23.750000,20.5,69.23
121977,2018-06-29 09:48:23.781250,14.06,69.23
121978,2018-06-29 09:48:23.812500,9.03,69.23
121979,2018-06-29 09:48:23.843750,2.47,69.23
121980,2018-06-29 09:48:23.875000,-6.49,69.23
121981,2018-06-29 09:48:23.906250,-16.63,69.23
121982,2018-06-29 09:48:23.937500,-26.13,69.23
121983,2018-06-29 09:48:23.968750,-34.84,69.23
121984,2018-06-29 09:48:24.000000,-45.16,69.23
121985,2018-06-29 09:48:24.031250,-59.32,69.23
121986,2018-06-29 09:48:24.062500,-75.24,69.23
121987,2018-06-29 09:48:24.093750,-84.76,69.23
121988,2018-06-29 09:48:24.125000,-78.8,69.23
121989,2018-06-29 09:48:24.156250,-56.88,69.23
121990,2018-06-29 09:48:24.187500,-28.49,69.23
121991,2018-06-29 09:48:24.218750,-2.67,69.23
121992,2018-06-29 09:48:24.250000,19.29,69.23
121993,2018-06-29 09:48:24.281250,38.31,69.23
121994,2018-06-29 09:48:24.312500,52.33,69.23
121995,2018-06-29 09:48:24.343750,59.59,69.23
121996,2018-06-29 09:48:24.375000,61.83,69.23
121997,2018-06-29 09:48:24.406250,62.19,69.23
121998,2018-06-29 09:48:24.437500,62.42,69.23
121999,2018-06-29 09:48:24.468750,63.3,69.23
122000,2018-06-29 09:48:24.500000,64.92,69.23
122001,2018-06-29 09:48:24.531250,66.2,69.0
122002,2018-06-29 09:48:24.562500,65.04,69.0
122003,2018-06-29 09:48:24.593750,60.45,69.0
122004,2018-06-29 09:48:24.625000,53.76,69.0
122005,2018-06-29 09:48:24.656250,46.94,69.0
122006,2018-06-29 09:48:24.687500,40.45,69.0
122007,2018-06-29 09:48:24.718750,33.71,69.0
122008,2018-06-29 09:48:24.750000,27.13,69.0
122009,2018-06-29 09:48:24.781250,22.18,69.0
122010,2018-06-29 09:48:24.812500,18.89,69.0
122011,2018-06-29 09:48:24.843750,15.68,69.0
122012,2018-06-29 09:48:24.875000,11.43,69.0
122013,2018-06-29 09:48:24.906250,6.45,69.0
122014,2018-06-29 09:48:24.937500,1.32,69.0
122015,2018-06-29 09:48:24.968750,-3.28,69.0
122016,2018-06-29 09:48:25.000000,-6.62,69.0
122017,2018-06-29 09:48:25.031250,-8.77,69.0
122018,2018-06-29 09:48:25.062500,-10.55,69.0
122019,2018-06-29 09:48:25.093750,-12.84,69.0
122020,2018-06-29 09:48:25.125000,-16.4,69.0
122021,2018-06-29 09:48:25.156250,-21.56,69.0
122022,2018-06-29 09:48:25.187500,-27.62,69.0
122023,2018-06-29 09:48:25.218750,-33.98,69.0
122024,2018-06-29 09:48:25.250000,-41.52,69.0
122025,2018-06-29 09:48:25.281250,-50.9,69.0
122026,2018-06-29 09:48:25.312500,-60.42,69.0
122027,2018-06-29 09:48:25.343750,-68.08,69.0
122028,2018-06-29 09:48:25.375000,-74.85,69.0
122029,2018-06-29 09:48:25.406250,-83.68,69.0
122030,2018-06-29 09:48:25.437500,-95.08,69.0
122031,2018-06-29 09:48:25.468750,-103.44,69.0
122032,2018-06-29 09:48:25.500000,-99.34,69.0
122033,2018-06-29 09:48:25.531250,-79.1,68.73
122034,2018-06-29 09:48:25.562500,-50.46,68.73
122035,2018-06-29 09:48:25.593750,-24.34,68.73
122036,2018-06-29 09:48:25.625000,-3.76,68.73
122037,2018-06-29 09:48:25.656250,14.37,68.73
122038,2018-06-29 09:48:25.687500,31.11,68.73
122039,2018-06-29 09:48:25.718750,44.5,68.73
122040,2018-06-29 09:48:25.750000,53.49,68.73
122041,2018-06-29 09:48:25.781250,58.79,68.73
122042,2018-06-29 09:48:25.812500,61.12,68.73
122043,2018-06-29 09:48:25.843750,61.21,68.73
122044,2018-06-29 09:48:25.875000,60.51,68.73
122045,2018-06-29 09:48:25.906250,60.27,68.73
122046,2018-06-29 09:48:25.937500,59.82,68.73
122047,2018-06-29 09:48:25.968750,57.62,68.73
122048,2018-06-29 09:48:26.000000,53.25,68.73
122049,2018-06-29 09:48:26.031250,47.8,68.73
122050,2018-06-29 09:48:26.062500,42.55,68.73
122051,2018-06-29 09:48:26.093750,37.51,68.73
122052,2018-06-29 09:48:26.125000,32.2,68.73
122053,2018-06-29 09:48:26.156250,26.99,68.73
122054,2018-06-29 09:48:26.187500,22.4,68.73
122055,2018-06-29 09:48:26.218750,17.56,68.73
122056,2018-06-29 09:48:26.250000,11.46,68.73
122057,2018-06-29 09:48:26.281250,4.96,68.73
122058,2018-06-29 09:48:26.312500,-0.92,68.73
122059,2018-06-29 09:48:26.343750,-7.01,68.73
122060,2018-06-29 09:48:26.375000,-14.03,68.73
122061,2018-06-29 09:48:26.406250,-21.13,68.73
122062,2018-06-29 09:48:26.437500,-27.42,68.73
122063,2018-06-29 09:48:26.468750,-33.5,68.73
122064,2018-06-29 09:48:26.500000,-40.64,68.73
122065,2018-06-29 09:48:26.531250,-49.44,68.45
122066,2018-06-29 09:48:26.562500,-58.9,68.45
122067,2018-06-29 09:48:26.593750,-67.19,68.45
122068,2018-06-29 09:48:26.625000,-74.51,68.45
122069,2018-06-29 09:48:26.656250,-84.37,68.45
122070,2018-06-29 09:48:26.687500,-98.17,68.45
122071,2018-06-29 09:48:26.718750,-108.63,68.45
122072,2018-06-29 09:48:26.750000,-104.29,68.45
122073,2018-06-29 09:48:26.781250,-83.14,68.45
122074,2018-06-29 09:48:26.812500,-55.48,68.45
122075,2018-06-29 09:48:26.843750,-31.15,68.45
122076,2018-06-29 09:48:26.875000,-10.07,68.45
122077,2018-06-29 09:48:26.906250,12.91,68.45
122078,2018-06-29 09:48:26.937500,39.18,68.45
122079,2018-06-29 09:48:26.968750,64.82,68.45
122080,2018-06-29 09:48:27.000000,84.37,68.45
122081,2018-06-29 09:48:27.031250,95.02,68.45
122082,2018-06-29 09:48:27.062500,100.37,68.45
122083,2018-06-29 09:48:27.093750,108.4,68.45
122084,2018-06-29 09:48:27.125000,120.63,68.45
122085,2018-06-29 09:48:27.156250,126.92,68.45
122086,2018-06-29 09:48:27.187500,117.79,68.45
122087,2018-06-29 09:48:27.218750,94.11,68.45
122088,2018-06-29 09:48:27.250000,59.95,68.45
122089,2018-06-29 09:48:27.281250,18.5,68.45
122090,2018-06-29 09:48:27.312500,-23.29,68.45
122091,2018-06-29 09:48:27.343750,-55.66,68.45
122092,2018-06-29 09:48:27.375000,-70.05,68.45
122093,2018-06-29 09:48:27.406250,-60.8,68.45
122094,2018-06-29 09:48:27.437500,-30.78,68.45
122095,2018-06-29 09:48:27.468750,7.34,68.45
122096,2018-06-29 09:48:27.500000,42.03,68.45
122097,2018-06-29 09:48:27.531250,67.87,68.22
122098,2018-06-29 09:48:27.562500,80.52,68.22
122099,2018-06-29 09:48:27.593750,78.42,68.22
122100,2018-06-29 09:48:27.625000,66.41,68.22
122101,2018-06-29 09:48:27.656250,48.97,68.22
122102,2018-06-29 09:48:27.687500,26.14,68.22
122103,2018-06-29 09:48:27.718750,-0.5,68.22
122104,2018-06-29 09:48:27.750000,-26.23,68.22
122105,2018-06-29 09:48:27.781250,-47.43,68.22
122106,2018-06-29 09:48:27.812500,-61.55,68.22
122107,2018-06-29 09:48:27.843750,-67.41,68.22
122108,2018-06-29 09:48:27.875000,-67.43,68.22
122109,2018-06-29 09:48:27.906250,-63.8,68.22
122110,2018-06-29 09:48:27.937500,-54.01,68.22
122111,2018-06-29 09:48:27.968750,-36.11,68.22
122112,2018-06-29 09:48:28.000000,-13.89,68.22
122113,2018-06-29 09:48:28.031250,7.18,68.22
122114,2018-06-29 09:48:28.062500,24.23,68.22
122115,2018-06-29 09:48:28.093750,37.06,68.22
122116,2018-06-29 09:48:28.125000,47.98,68.22
122117,2018-06-29 09:48:28.156250,60.58,68.22
122118,2018-06-29 09:48:28.187500,75.8,68.22
122119,2018-06-29 09:48:28.218750,90.39,68.22
122120,2018-06-29 09:48:28.250000,99.95,68.22
122121,2018-06-29 09:48:28.281250,100.86,68.22
122122,2018-06-29 09:48:28.312500,90.28,68.22
122123,2018-06-29 09:48:28.343750,68.33,68.22
122124,2018-06-29 09:48:28.375000,40.89,68.22
122125,2018-06-29 09:48:28.406250,14.3,68.22
122126,2018-06-29 09:48:28.437500,-11.41,68.22
122127,2018-06-29 09:48:28.468750,-36.43,68.22
122128,2018-06-29 09:48:28.500000,-53.75,68.22
122129,2018-06-29 09:48:28.531250,-56.9,67.95
122130,2018-06-29 09:48:28.562500,-48.94,67.95
122131,2018-06-29 09:48:28.593750,-37.64,67.95
122132,2018-06-29 09:48:28.625000,-27.48,67.95
122133,2018-06-29 09:48:28.656250,-19.09,67.95
122134,2018-06-29 09:48:28.687500,-11.36,67.95
122135,2018-06-29 09:48:28.718750,-3.58,67.95
122136,2018-06-29 09:48:28.750000,3.48,67.95
122137,2018-06-29 09:48:28.781250,7.85,67.95
122138,2018-06-29 09:48:28.812500,6.83,67.95
122139,2018-06-29 09:48:28.843750,0.53,67.95
122140,2018-06-29 09:48:28.875000,-4.48,67.95
122141,2018-06-29 09:48:28.906250,-0.98,67.95
122142,2018-06-29 09:48:28.937500,9.49,67.95
122143,2018-06-29 09:48:28.968750,19.19,67.95
122144,2018-06-29 09:48:29.000000,24.31,67.95
122145,2018-06-29 09:48:29.031250,26.7,67.95
122146,2018-06-29 09:48:29.062500,28.28,67.95
122147,2018-06-29 09:48:29.093750,28.88,67.95
122148,2018-06-29 09:48:29.125000,28.03,67.95
122149,2018-06-29 09:48:29.156250,26.33,67.95
122150,2018-06-29 09:48:29.187500,25.4,67.95
122151,2018-06-29 09:48:29.218750,25.78,67.95
122152,2018-06-29 09:48:29.250000,25.32,67.95
122153,2018-06-29 09:48:29.281250,21.74,67.95
122154,2018-06-29 09:48:29.312500,15.79,67.95
122155,2018-06-29 09:48:29.343750,9.44,67.95
122156,2018-06-29 09:48:29.375000,2.34,67.95
122157,2018-06-29 09:48:29.406250,-8.8,67.95
122158,2018-06-29 09:48:29.437500,-27.26,67.95
122159,2018-06-29 09:48:29.468750,-51.11,67.95
122160,2018-06-29 09:48:29.500000,-72.18,67.95
122161,2018-06-29 09:48:29.531250,-83.89,67.7
122162,2018-06-29 09:48:29.562500,-88.0,67.7
122163,2018-06-29 09:48:29.593750,-89.82,67.7
122164,2018-06-29 09:48:29.625000,-90.49,67.7
122165,2018-06-29 09:48:29.656250,-88.73,67.7
122166,2018-06-29 09:48:29.687500,-85.46,67.7
122167,2018-06-29 09:48:29.718750,-82.03,67.7
122168,2018-06-29 09:48:29.750000,-77.52,67.7
122169,2018-06-29 09:48:29.781250,-71.45,67.7
122170,2018-06-29 09:48:29.812500,-65.91,67.7
122171,2018-06-29 09:48:29.843750,-61.76,67.7
122172,2018-06-29 09:48:29.875000,-56.63,67.7
122173,2018-06-29 09:48:29.906250,-49.04,67.7
122174,2018-06-29 09:48:29.937500,-40.96,67.7
122175,2018-06-29 09:48:29.968750,-35.4,67.7
122176,2018-06-29 09:48:30.000000,-33.89,67.7
122177,2018-06-29 09:48:30.031250,-35.88,67.7
122178,2018-06-29 09:48:30.062500,-36.86,67.7
122179,2018-06-29 09:48:30.093750,-29.74,67.7
122180,2018-06-29 09:48:30.125000,-12.63,67.7
122181,2018-06-29 09:48:30.156250,7.59,67.7
122182,2018-06-29 09:48:30.187500,23.3,67.7
122183,2018-06-29 09:48:30.218750,32.87,67.7
122184,2018-06-29 09:48:30.250000,36.69,67.7
122185,2018-06-29 09:48:30.281250,33.75,67.7
122186,2018-06-29 09:48:30.312500,25.85,67.7
122187,2018-06-29 09:48:30.343750,18.14,67.7
122188,2018-06-29 09:48:30.375000,13.13,67.7
122189,2018-06-29 09:48:30.406250,9.51,67.7
122190,2018-06-29 09:48:30.437500,6.98,67.7
122191,2018-06-29 09:48:30.468750,6.74,67.7
122192,2018-06-29 09:48:30.500000,7.51,67.7
122193,2018-06-29 09:48:30.531250,5.89,67.23
122194,2018-06-29 09:48:30.562500,1.02,67.23
122195,2018-06-29 09:48:30.593750,-4.3,67.23
122196,2018-06-29 09:48:30.625000,-7.5,67.23
122197,2018-06-29 09:48:30.656250,-8.05,67.23
122198,2018-06-29 09:48:30.687500,-6.51,67.23
122199,2018-06-29 09:48:30.718750,-4.3,67.23
122200,2018-06-29 09:48:30.750000,-3.63,67.23
122201,2018-06-29 09:48:30.781250,-5.58,67.23
122202,2018-06-29 09:48:30.812500,-9.08,67.23
122203,2018-06-29 09:48:30.843750,-12.97,67.23
122204,2018-06-29 09:48:30.875000,-17.96,67.23
122205,2018-06-29 09:48:30.906250,-24.77,67.23
122206,2018-06-29 09:48:30.937500,-31.9,67.23
122207,2018-06-29 09:48:30.968750,-37.03,67.23
122208,2018-06-29 09:48:31.000000,-40.13,67.23
122209,2018-06-29 09:48:31.031250,-44.27,67.23
122210,2018-06-29 09:48:31.062500,-52.11,67.23
122211,2018-06-29 09:48:31.093750,-61.82,67.23
122212,2018-06-29 09:48:31.125000,-65.46,67.23
122213,2018-06-29 09:48:31.156250,-54.96,67.23
122214,2018-06-29 09:48:31.187500,-31.58,67.23
122215,2018-06-29 09:48:31.218750,-5.78,67.23
122216,2018-06-29 09:48:31.250000,13.85,67.23
122217,2018-06-29 09:48:31.281250,27.11,67.23
122218,2018-06-29 09:48:31.312500,37.24,67.23
122219,2018-06-29 09:48:31.343750,45.32,67.23
122220,2018-06-29 09:48:31.375000,50.69,67.23
122221,2018-06-29 09:48:31.406250,53.13,67.23
122222,2018-06-29 09:48:31.437500,53.3,67.23
122223,2018-06-29 09:48:31.468750,52.4,67.23
122224,2018-06-29 09:48:31.500000,52.41,67.23
122225,2018-06-29 09:48:31.531250,54.84,66.8
122226,2018-06-29 09:48:31.562500,58.81,66.8
122227,2018-06-29 09:48:31.593750,61.33,66.8
122228,2018-06-29 09:48:31.625000,60.27,66.8
122229,2018-06-29 09:48:31.656250,56.23,66.8
122230,2018-06-29 09:48:31.687500,50.7,66.8
122231,2018-06-29 09:48:31.718750,43.93,66.8
122232,2018-06-29 09:48:31.750000,34.95,66.8
122233,2018-06-29 09:48:31.781250,23.26,66.8
122234,2018-06-29 09:48:31.812500,10.29,66.8
122235,2018-06-29 09:48:31.843750,-1.72,66.8
122236,2018-06-29 09:48:31.875000,-12.56,66.8
122237,2018-06-29 09:48:31.906250,-24.19,66.8
122238,2018-06-29 09:48:31.937500,-37.44,66.8
122239,2018-06-29 09:48:31.968750,-50.61,66.8
122240,2018-06-29 09:48:32.000000,-62.1,66.8
122241,2018-06-29 09:48:32.031250,-72.52,66.8
122242,2018-06-29 09:48:32.062500,-83.32,66.8
122243,2018-06-29 09:48:32.093750,-94.23,66.8
122244,2018-06-29 09:48:32.125000,-100.25,66.8
122245,2018-06-29 09:48:32.156250,-93.58,66.8
122246,2018-06-29 09:48:32.187500,-72.42,66.8
122247,2018-06-29 09:48:32.218750,-45.47,66.8
122248,2018-06-29 09:48:32.250000,-22.79,66.8
122249,2018-06-29 09:48:32.281250,-5.81,66.8
122250,2018-06-29 09:48:32.312500,9.03,66.8
122251,2018-06-29 09:48:32.343750,21.68,66.8
122252,2018-06-29 09:48:32.375000,29.23,66.8
122253,2018-06-29 09:48:32.406250,31.18,66.8
122254,2018-06-29 09:48:32.437500,29.39,66.8
122255,2018-06-29 09:48:32.468750,25.08,66.8
122256,2018-06-29 09:48:32.500000,19.4,66.8
122257,2018-06-29 09:48:32.531250,14.34,66.32
122258,2018-06-29 09:48:32.562500,10.24,66.32
122259,2018-06-29 09:48:32.593750,4.95,66.32
122260,2018-06-29 09:48:32.625000,-2.66,66.32
122261,2018-06-29 09:48:32.656250,-10.43,66.32
122262,2018-06-29 09:48:32.687500,-15.57,66.32
122263,2018-06-29 09:48:32.718750,-17.78,66.32
122264,2018-06-29 09:48:32.750000,-18.37,66.32
122265,2018-06-29 09:48:32.781250,-17.86,66.32
122266,2018-06-29 09:48:32.812500,-16.45,66.32
122267,2018-06-29 09:48:32.843750,-15.88,66.32
122268,2018-06-29 09:48:32.875000,-18.65,66.32
122269,2018-06-29 09:48:32.906250,-24.59,66.32
122270,2018-06-29 09:48:32.937500,-30.93,66.32
122271,2018-06-29 09:48:32.968750,-36.05,66.32
122272,2018-06-29 09:48:33.000000,-41.87,66.32
122273,2018-06-29 09:48:33.031250,-51.49,66.32
122274,2018-06-29 09:48:33.062500,-62.36,66.32
122275,2018-06-29 09:48:33.093750,-62.8,66.32
122276,2018-06-29 09:48:33.125000,-41.92,66.32
122277,2018-06-29 09:48:33.156250,-4.76,66.32
122278,2018-06-29 09:48:33.187500,31.67,66.32
122279,2018-06-29 09:48:33.218750,57.2,66.32
122280,2018-06-29 09:48:33.250000,73.36,66.32
122281,2018-06-29 09:48:33.281250,83.45,66.32
122282,2018-06-29 09:48:33.312500,88.4,66.32
122283,2018-06-29 09:48:33.343750,89.57,66.32
122284,2018-06-29 09:48:33.375000,88.23,66.32
122285,2018-06-29 09:48:33.406250,84.69,66.32
122286,2018-06-29 09:48:33.437500,80.25,66.32
122287,2018-06-29 09:48:33.468750,77.7,66.32
122288,2018-06-29 09:48:33.500000,78.52,66.32
122289,2018-06-29 09:48:33.531250,79.98,65.88
122290,2018-06-29 09:48:33.562500,76.9,65.88
122291,2018-06-29 09:48:33.593750,66.53,65.88
122292,2018-06-29 09:48:33.625000,50.48,65.88
122293,2018-06-29 09:48:33.656250,32.22,65.88
122294,2018-06-29 09:48:33.687500,14.67,65.88
122295,2018-06-29 09:48:33.718750,-0.32,65.88
122296,2018-06-29 09:48:33.750000,-12.55,65.88
122297,2018-06-29 09:48:33.781250,-23.7,65.88
122298,2018-06-29 09:48:33.812500,-35.66,65.88
122299,2018-06-29 09:48:33.843750,-49.29,65.88
122300,2018-06-29 09:48:33.875000,-64.07,65.88
122301,2018-06-29 09:48:33.906250,-76.66,65.88
122302,2018-06-29 09:48:33.937500,-82.97,65.88
122303,2018-06-29 09:48:33.968750,-84.06,65.88
122304,2018-06-29 09:48:34.000000,-86.8,65.88
122305,2018-06-29 09:48:34.031250,-96.95,65.88
122306,2018-06-29 09:48:34.062500,-112.8,65.88
122307,2018-06-29 09:48:34.093750,-123.84,65.88
122308,2018-06-29 09:48:34.125000,-117.03,65.88
122309,2018-06-29 09:48:34.156250,-89.73,65.88
122310,2018-06-29 09:48:34.187500,-52.92,65.88
122311,2018-06-29 09:48:34.218750,-18.44,65.88
122312,2018-06-29 09:48:34.250000,10.24,65.88
122313,2018-06-29 09:48:34.281250,33.72,65.88
122314,2018-06-29 09:48:34.312500,51.56,65.88
122315,2018-06-29 09:48:34.343750,63.11,65.88
122316,2018-06-29 09:48:34.375000,68.7,65.88
122317,2018-06-29 09:48:34.406250,69.56,65.88
122318,2018-06-29 09:48:34.437500,67.14,65.88
122319,2018-06-29 09:48:34.468750,62.43,65.88
122320,2018-06-29 09:48:34.500000,56.83,65.88
122321,2018-06-29 09:48:34.531250,51.81,66.12
122322,2018-06-29 09:48:34.562500,46.74,66.12
122323,2018-06-29 09:48:34.593750,39.62,66.12
122324,2018-06-29 09:48:34.625000,30.61,66.12
122325,2018-06-29 09:48:34.656250,22.27,66.12
122326,2018-06-29 09:48:34.687500,15.35,66.12
122327,2018-06-29 09:48:34.718750,7.08,66.12
122328,2018-06-29 09:48:34.750000,-3.81,66.12
122329,2018-06-29 09:48:34.781250,-13.82,66.12
122330,2018-06-29 09:48:34.812500,-19.51,66.12
122331,2018-06-29 09:48:34.843750,-22.63,66.12
122332,2018-06-29 09:48:34.875000,-27.05,66.12
122333,2018-06-29 09:48:34.906250,-33.53,66.12
122334,2018-06-29 09:48:34.937500,-39.83,66.12
122335,2018-06-29 09:48:34.968750,-44.33,66.12
122336,2018-06-29 09:48:35.000000,-48.09,66.12
122337,2018-06-29 09:48:35.031250,-53.98,66.12
122338,2018-06-29 09:48:35.062500,-61.51,66.12
122339,2018-06-29 09:48:35.093750,-62.33,66.12
122340,2018-06-29 09:48:35.125000,-46.39,66.12
122341,2018-06-29 09:48:35.156250,-14.54,66.12
122342,2018-06-29 09:48:35.187500,21.44,66.12
122343,2018-06-29 09:48:35.218750,52.18,66.12
122344,2018-06-29 09:48:35.250000,76.47,66.12
122345,2018-06-29 09:48:35.281250,94.84,66.12
122346,2018-06-29 09:48:35.312500,107.22,66.12
122347,2018-06-29 09:48:35.343750,116.03,66.12
122348,2018-06-29 09:48:35.375000,124.24,66.12
122349,2018-06-29 09:48:35.406250,131.77,66.12
122350,2018-06-29 09:48:35.437500,136.95,66.12
122351,2018-06-29 09:48:35.468750,139.3,66.12
122352,2018-06-29 09:48:35.500000,139.95,66.12
122353,2018-06-29 09:48:35.531250,141.57,66.3
122354,2018-06-29 09:48:35.562500,143.34,66.3
122355,2018-06-29 09:48:35.593750,133.85,66.3
122356,2018-06-29 09:48:35.625000,98.11,66.3
122357,2018-06-29 09:48:35.656250,35.5,66.3
122358,2018-06-29 09:48:35.687500,-40.33,66.3
122359,2018-06-29 09:48:35.718750,-118.61,66.3
122360,2018-06-29 09:48:35.750000,-195.53,66.3
122361,2018-06-29 09:48:35.781250,-262.84,66.3
122362,2018-06-29 09:48:35.812500,-307.11,66.3
122363,2018-06-29 09:48:35.843750,-321.78,66.3
122364,2018-06-29 09:48:35.875000,-313.29,66.3
122365,2018-06-29 09:48:35.906250,-294.48,66.3
122366,2018-06-29 09:48:35.937500,-275.51,66.3
122367,2018-06-29 09:48:35.968750,-261.54,66.3
122368,2018-06-29 09:48:36.000000,-254.98,66.3
122369,2018-06-29 09:48:36.031250,-257.71,66.3
122370,2018-06-29 09:48:36.062500,-273.55,66.3
122371,2018-06-29 09:48:36.093750,-303.31,66.3
122372,2018-06-29 09:48:36.125000,-330.26,66.3
122373,2018-06-29 09:48:36.156250,-324.75,66.3
122374,2018-06-29 09:48:36.187500,-274.72,66.3
122375,2018-06-29 09:48:36.218750,-194.98,66.3
122376,2018-06-29 09:48:36.250000,-101.11,66.3
122377,2018-06-29 09:48:36.281250,4.04,66.3
122378,2018-06-29 09:48:36.312500,112.76,66.3
122379,2018-06-29 09:48:36.343750,204.86,66.3
122380,2018-06-29 09:48:36.375000,264.44,66.3
122381,2018-06-29 09:48:36.406250,289.77,66.3
122382,2018-06-29 09:48:36.437500,288.39,66.3
122383,2018-06-29 09:48:36.468750,274.85,66.3
122384,2018-06-29 09:48:36.500000,265.44,66.3
122385,2018-06-29 09:48:36.531250,261.5,66.48
122386,2018-06-29 09:48:36.562500,248.55,66.48
122387,2018-06-29 09:48:36.593750,221.29,66.48
122388,2018-06-29 09:48:36.625000,190.53,66.48
122389,2018-06-29 09:48:36.656250,159.57,66.48
122390,2018-06-29 09:48:36.687500,118.44,66.48
122391,2018-06-29 09:48:36.718750,66.8,66.48
122392,2018-06-29 09:48:36.750000,15.69,66.48
122393,2018-06-29 09:48:36.781250,-27.91,66.48
122394,2018-06-29 09:48:36.812500,-56.83,66.48
122395,2018-06-29 09:48:36.843750,-59.51,66.48
122396,2018-06-29 09:48:36.875000,-37.97,66.48
122397,2018-06-29 09:48:36.906250,-11.75,66.48
122398,2018-06-29 09:48:36.937500,6.92,66.48
122399,2018-06-29 09:48:36.968750,22.31,66.48
122400,2018-06-29 09:48:37.000000,40.21,66.48
122401,2018-06-29 09:48:37.031250,62.79,66.48
122402,2018-06-29 09:48:37.062500,94.81,66.48
122403,2018-06-29 09:48:37.093750,138.22,66.48
122404,2018-06-29 09:48:37.125000,182.96,66.48
122405,2018-06-29 09:48:37.156250,214.29,66.48
122406,2018-06-29 09:48:37.187500,228.09,66.48
122407,2018-06-29 09:48:37.218750,231.18,66.48
122408,2018-06-29 09:48:37.250000,228.9,66.48
122409,2018-06-29 09:48:37.281250,219.9,66.48
122410,2018-06-29 09:48:37.312500,203.53,66.48
122411,2018-06-29 09:48:37.343750,182.35,66.48
122412,2018-06-29 09:48:37.375000,156.23,66.48
122413,2018-06-29 09:48:37.406250,122.96,66.48
122414,2018-06-29 09:48:37.437500,82.94,66.48
122415,2018-06-29 09:48:37.468750,33.0,66.48
122416,2018-06-29 09:48:37.500000,-32.86,66.48
122417,2018-06-29 09:48:37.531250,-104.91,66.72
122418,2018-06-29 09:48:37.562500,-159.39,66.72
122419,2018-06-29 09:48:37.593750,-187.7,66.72
122420,2018-06-29 09:48:37.625000,-203.1,66.72
122421,2018-06-29 09:48:37.656250,-217.65,66.72
122422,2018-06-29 09:48:37.687500,-233.82,66.72
122423,2018-06-29 09:48:37.718750,-253.25,66.72
122424,2018-06-29 09:48:37.750000,-275.64,66.72
122425,2018-06-29 09:48:37.781250,-294.68,66.72
122426,2018-06-29 09:48:37.812500,-304.23,66.72
122427,2018-06-29 09:48:37.843750,-299.5,66.72
122428,2018-06-29 09:48:37.875000,-271.82,66.72
122429,2018-06-29 09:48:37.906250,-215.21,66.72
122430,2018-06-29 09:48:37.937500,-139.25,66.72
122431,2018-06-29 09:48:37.968750,-63.81,66.72
122432,2018-06-29 09:48:38.000000,-1.03,66.72
122433,2018-06-29 09:48:38.031250,47.72,66.72
122434,2018-06-29 09:48:38.062500,82.47,66.72
122435,2018-06-29 09:48:38.093750,102.53,66.72
122436,2018-06-29 09:48:38.125000,109.54,66.72
122437,2018-06-29 09:48:38.156250,107.72,66.72
122438,2018-06-29 09:48:38.187500,102.09,66.72
122439,2018-06-29 09:48:38.218750,98.28,66.72
122440,2018-06-29 09:48:38.250000,101.79,66.72
122441,2018-06-29 09:48:38.281250,114.35,66.72
122442,2018-06-29 09:48:38.312500,131.84,66.72
122443,2018-06-29 09:48:38.343750,148.42,66.72
122444,2018-06-29 09:48:38.375000,161.98,66.72
122445,2018-06-29 09:48:38.406250,173.61,66.72
122446,2018-06-29 09:48:38.437500,183.36,66.72
122447,2018-06-29 09:48:38.468750,189.3,66.72
122448,2018-06-29 09:48:38.500000,190.48,66.72
122449,2018-06-29 09:48:38.531250,187.89,66.9
122450,2018-06-29 09:48:38.562500,181.27,66.9
122451,2018-06-29 09:48:38.593750,168.44,66.9
122452,2018-06-29 09:48:38.625000,147.96,66.9
122453,2018-06-29 09:48:38.656250,118.4,66.9
122454,2018-06-29 09:48:38.687500,77.93,66.9
122455,2018-06-29 09:48:38.718750,30.71,66.9
122456,2018-06-29 09:48:38.750000,-10.32,66.9
122457,2018-06-29 09:48:38.781250,-32.65,66.9
122458,2018-06-29 09:48:38.812500,-34.49,66.9
122459,2018-06-29 09:48:38.843750,-25.61,66.9
122460,2018-06-29 09:48:38.875000,-19.38,66.9
122461,2018-06-29 09:48:38.906250,-21.74,66.9
122462,2018-06-29 09:48:38.937500,-27.99,66.9
122463,2018-06-29 09:48:38.968750,-32.96,66.9
122464,2018-06-29 09:48:39.000000,-39.65,66.9
122465,2018-06-29 09:48:39.031250,-52.21,66.9
122466,2018-06-29 09:48:39.062500,-66.1,66.9
122467,2018-06-29 09:48:39.093750,-73.29,66.9
122468,2018-06-29 09:48:39.125000,-73.65,66.9
122469,2018-06-29 09:48:39.156250,-74.27,66.9
122470,2018-06-29 09:48:39.187500,-79.36,66.9
122471,2018-06-29 09:48:39.218750,-83.36,66.9
122472,2018-06-29 09:48:39.250000,-70.52,66.9
122473,2018-06-29 09:48:39.281250,-27.47,66.9
122474,2018-06-29 09:48:39.312500,33.25,66.9
122475,2018-06-29 09:48:39.343750,73.94,66.9
122476,2018-06-29 09:48:39.375000,70.23,66.9
122477,2018-06-29 09:48:39.406250,35.09,66.9
122478,2018-06-29 09:48:39.437500,-4.1,66.9
122479,2018-06-29 09:48:39.468750,-32.92,66.9
122480,2018-06-29 09:48:39.500000,-50.03,66.9
122481,2018-06-29 09:48:39.531250,-63.02,67.05
122482,2018-06-29 09:48:39.562500,-84.73,67.05
122483,2018-06-29 09:48:39.593750,-113.48,67.05
122484,2018-06-29 09:48:39.625000,-125.75,67.05
122485,2018-06-29 09:48:39.656250,-108.2,67.05
122486,2018-06-29 09:48:39.687500,-80.79,67.05
122487,2018-06-29 09:48:39.718750,-67.45,67.05
122488,2018-06-29 09:48:39.750000,-64.05,67.05
122489,2018-06-29 09:48:39.781250,-53.77,67.05
122490,2018-06-29 09:48:39.812500,-34.64,67.05
122491,2018-06-29 09:48:39.843750,-16.19,67.05
122492,2018-06-29 09:48:39.875000,-2.81,67.05
122493,2018-06-29 09:48:39.906250,9.21,67.05
122494,2018-06-29 09:48:39.937500,23.27,67.05
122495,2018-06-29 09:48:39.968750,37.74,67.05
122496,2018-06-29 09:48:40.000000,50.18,67.05
122497,2018-06-29 09:48:40.031250,60.72,67.05
122498,2018-06-29 09:48:40.062500,68.22,67.05
122499,2018-06-29 09:48:40.093750,69.21,67.05
122500,2018-06-29 09:48:40.125000,64.03,67.05
122501,2018-06-29 09:48:40.156250,57.96,67.05
122502,2018-06-29 09:48:40.187500,53.94,67.05
122503,2018-06-29 09:48:40.218750,48.53,67.05
122504,2018-06-29 09:48:40.250000,34.93,67.05
122505,2018-06-29 09:48:40.281250,9.11,67.05
122506,2018-06-29 09:48:40.312500,-25.3,67.05
122507,2018-06-29 09:48:40.343750,-57.84,67.05
122508,2018-06-29 09:48:40.375000,-79.95,67.05
122509,2018-06-29 09:48:40.406250,-93.09,67.05
122510,2018-06-29 09:48:40.437500,-107.02,67.05
122511,2018-06-29 09:48:40.468750,-128.15,67.05
122512,2018-06-29 09:48:40.500000,-149.82,67.05
122513,2018-06-29 09:48:40.531250,-157.44,67.2
122514,2018-06-29 09:48:40.562500,-143.66,67.2
122515,2018-06-29 09:48:40.593750,-113.65,67.2
122516,2018-06-29 09:48:40.625000,-76.6,67.2
122517,2018-06-29 09:48:40.656250,-38.18,67.2
122518,2018-06-29 09:48:40.687500,-0.54,67.2
122519,2018-06-29 09:48:40.718750,36.01,67.2
122520,2018-06-29 09:48:40.750000,69.53,67.2
122521,2018-06-29 09:48:40.781250,94.24,67.2
122522,2018-06-29 09:48:40.812500,105.38,67.2
122523,2018-06-29 09:48:40.843750,105.09,67.2
122524,2018-06-29 09:48:40.875000,99.68,67.2
122525,2018-06-29 09:48:40.906250,93.4,67.2
122526,2018-06-29 09:48:40.937500,87.58,67.2
122527,2018-06-29 09:48:40.968750,81.9,67.2
122528,2018-06-29 09:48:41.000000,74.58,67.2
122529,2018-06-29 09:48:41.031250,63.94,67.2
122530,2018-06-29 09:48:41.062500,50.82,67.2
122531,2018-06-29 09:48:41.093750,38.25,67.2
122532,2018-06-29 09:48:41.125000,27.88,67.2
122533,2018-06-29 09:48:41.156250,18.79,67.2
122534,2018-06-29 09:48:41.187500,10.0,67.2
122535,2018-06-29 09:48:41.218750,1.95,67.2
122536,2018-06-29 09:48:41.250000,-5.22,67.2
122537,2018-06-29 09:48:41.281250,-12.77,67.2
122538,2018-06-29 09:48:41.312500,-22.36,67.2
122539,2018-06-29 09:48:41.343750,-33.96,67.2
122540,2018-06-29 09:48:41.375000,-41.9,67.2
122541,2018-06-29 09:48:41.406250,-35.33,67.2
122542,2018-06-29 09:48:41.437500,-9.88,67.2
122543,2018-06-29 09:48:41.468750,24.11,67.2
122544,2018-06-29 09:48:41.500000,53.0,67.2
122545,2018-06-29 09:48:41.531250,74.15,67.27
122546,2018-06-29 09:48:41.562500,92.29,67.27
122547,2018-06-29 09:48:41.593750,109.23,67.27
122548,2018-06-29 09:48:41.625000,123.41,67.27
122549,2018-06-29 09:48:41.656250,133.06,67.27
122550,2018-06-29 09:48:41.687500,135.6,67.27
122551,2018-06-29 09:48:41.718750,129.97,67.27
122552,2018-06-29 09:48:41.750000,119.89,67.27
122553,2018-06-29 09:48:41.781250,110.53,67.27
122554,2018-06-29 09:48:41.812500,103.3,67.27
122555,2018-06-29 09:48:41.843750,96.96,67.27
122556,2018-06-29 09:48:41.875000,92.13,67.27
122557,2018-06-29 09:48:41.906250,90.87,67.27
122558,2018-06-29 09:48:41.937500,93.02,67.27
122559,2018-06-29 09:48:41.968750,96.19,67.27
122560,2018-06-29 09:48:42.000000,99.06,67.27
122561,2018-06-29 09:48:42.031250,103.28,67.27
122562,2018-06-29 09:48:42.062500,111.27,67.27
122563,2018-06-29 09:48:42.093750,122.66,67.27
122564,2018-06-29 09:48:42.125000,133.61,67.27
122565,2018-06-29 09:48:42.156250,140.97,67.27
122566,2018-06-29 09:48:42.187500,145.55,67.27
122567,2018-06-29 09:48:42.218750,147.19,67.27
122568,2018-06-29 09:48:42.250000,138.79,67.27
122569,2018-06-29 09:48:42.281250,109.73,67.27
122570,2018-06-29 09:48:42.312500,55.35,67.27
122571,2018-06-29 09:48:42.343750,-15.13,67.27
122572,2018-06-29 09:48:42.375000,-78.78,67.27
122573,2018-06-29 09:48:42.406250,-114.07,67.27
122574,2018-06-29 09:48:42.437500,-121.95,67.27
122575,2018-06-29 09:48:42.468750,-121.42,67.27
122576,2018-06-29 09:48:42.500000,-122.0,67.27
122577,2018-06-29 09:48:42.531250,-117.61,67.35
122578,2018-06-29 09:48:42.562500,-105.57,67.35
122579,2018-06-29 09:48:42.593750,-91.47,67.35
122580,2018-06-29 09:48:42.625000,-77.63,67.35
122581,2018-06-29 09:48:42.656250,-63.68,67.35
122582,2018-06-29 09:48:42.687500,-54.07,67.35
122583,2018-06-29 09:48:42.718750,-52.18,67.35
122584,2018-06-29 09:48:42.750000,-53.52,67.35
122585,2018-06-29 09:48:42.781250,-52.24,67.35
122586,2018-06-29 09:48:42.812500,-48.93,67.35
122587,2018-06-29 09:48:42.843750,-47.44,67.35
122588,2018-06-29 09:48:42.875000,-47.5,67.35
122589,2018-06-29 09:48:42.906250,-46.29,67.35
122590,2018-06-29 09:48:42.937500,-44.84,67.35
122591,2018-06-29 09:48:42.968750,-46.85,67.35
122592,2018-06-29 09:48:43.000000,-52.32,67.35
122593,2018-06-29 09:48:43.031250,-57.8,67.35
122594,2018-06-29 09:48:43.062500,-61.62,67.35
122595,2018-06-29 09:48:43.093750,-64.84,67.35
122596,2018-06-29 09:48:43.125000,-68.23,67.35
122597,2018-06-29 09:48:43.156250,-71.35,67.35
122598,2018-06-29 09:48:43.187500,-73.75,67.35
122599,2018-06-29 09:48:43.218750,-76.45,67.35
122600,2018-06-29 09:48:43.250000,-82.05,67.35
122601,2018-06-29 09:48:43.281250,-91.92,67.35
122602,2018-06-29 09:48:43.312500,-102.55,67.35
122603,2018-06-29 09:48:43.343750,-104.94,67.35
122604,2018-06-29 09:48:43.375000,-90.82,67.35
122605,2018-06-29 09:48:43.406250,-62.97,67.35
122606,2018-06-29 09:48:43.437500,-34.65,67.35
122607,2018-06-29 09:48:43.468750,-15.26,67.35
122608,2018-06-29 09:48:43.500000,-2.7,67.35
122609,2018-06-29 09:48:43.531250,7.72,67.45
122610,2018-06-29 09:48:43.562500,15.69,67.45
122611,2018-06-29 09:48:43.593750,19.63,67.45
122612,2018-06-29 09:48:43.625000,21.1,67.45
122613,2018-06-29 09:48:43.656250,22.72,67.45
122614,2018-06-29 09:48:43.687500,24.96,67.45
122615,2018-06-29 09:48:43.718750,26.78,67.45
122616,2018-06-29 09:48:43.750000,28.4,67.45
122617,2018-06-29 09:48:43.781250,30.03,67.45
122618,2018-06-29 09:48:43.812500,29.04,67.45
122619,2018-06-29 09:48:43.843750,22.94,67.45
122620,2018-06-29 09:48:43.875000,13.98,67.45
122621,2018-06-29 09:48:43.906250,5.16,67.45
122622,2018-06-29 09:48:43.937500,-5.41,67.45
122623,2018-06-29 09:48:43.968750,-20.13,67.45
122624,2018-06-29 09:48:44.000000,-35.43,67.45
122625,2018-06-29 09:48:44.031250,-45.47,67.45
122626,2018-06-29 09:48:44.062500,-48.63,67.45
122627,2018-06-29 09:48:44.093750,-48.0,67.45
122628,2018-06-29 09:48:44.125000,-48.36,67.45
122629,2018-06-29 09:48:44.156250,-52.57,67.45
122630,2018-06-29 09:48:44.187500,-58.5,67.45
122631,2018-06-29 09:48:44.218750,-61.28,67.45
122632,2018-06-29 09:48:44.250000,-59.77,67.45
122633,2018-06-29 09:48:44.281250,-58.6,67.45
122634,2018-06-29 09:48:44.312500,-62.11,67.45
122635,2018-06-29 09:48:44.343750,-65.52,67.45
122636,2018-06-29 09:48:44.375000,-56.75,67.45
122637,2018-06-29 09:48:44.406250,-32.16,67.45
122638,2018-06-29 09:48:44.437500,-4.04,67.45
122639,2018-06-29 09:48:44.468750,14.46,67.45
122640,2018-06-29 09:48:44.500000,22.68,67.45
122641,2018-06-29 09:48:44.531250,25.14,67.57
122642,2018-06-29 09:48:44.562500,22.98,67.57
122643,2018-06-29 09:48:44.593750,17.58,67.57
122644,2018-06-29 09:48:44.625000,12.93,67.57
122645,2018-06-29 09:48:44.656250,10.45,67.57
122646,2018-06-29 09:48:44.687500,7.66,67.57
122647,2018-06-29 09:48:44.718750,3.14,67.57
122648,2018-06-29 09:48:44.750000,-1.49,67.57
122649,2018-06-29 09:48:44.781250,-5.42,67.57
122650,2018-06-29 09:48:44.812500,-10.47,67.57
122651,2018-06-29 09:48:44.843750,-17.76,67.57
122652,2018-06-29 09:48:44.875000,-25.04,67.57
122653,2018-06-29 09:48:44.906250,-29.15,67.57
122654,2018-06-29 09:48:44.937500,-29.76,67.57
122655,2018-06-29 09:48:44.968750,-30.2,67.57
122656,2018-06-29 09:48:45.000000,-33.63,67.57
122657,2018-06-29 09:48:45.031250,-39.23,67.57
122658,2018-06-29 09:48:45.062500,-43.83,67.57
122659,2018-06-29 09:48:45.093750,-46.82,67.57
122660,2018-06-29 09:48:45.125000,-50.26,67.57
122661,2018-06-29 09:48:45.156250,-55.79,67.57
122662,2018-06-29 09:48:45.187500,-62.3,67.57
122663,2018-06-29 09:48:45.218750,-62.7,67.57
122664,2018-06-29 09:48:45.250000,-47.71,67.57
122665,2018-06-29 09:48:45.281250,-18.93,67.57
122666,2018-06-29 09:48:45.312500,8.96,67.57
122667,2018-06-29 09:48:45.343750,24.58,67.57
122668,2018-06-29 09:48:45.375000,29.38,67.57
122669,2018-06-29 09:48:45.406250,28.02,67.57
122670,2018-06-29 09:48:45.437500,22.29,67.57
122671,2018-06-29 09:48:45.468750,16.85,67.57
122672,2018-06-29 09:48:45.500000,20.16,67.57
122673,2018-06-29 09:48:45.531250,36.37,67.7
122674,2018-06-29 09:48:45.562500,60.54,67.7
122675,2018-06-29 09:48:45.593750,80.71,67.7
122676,2018-06-29 09:48:45.625000,86.02,67.7
122677,2018-06-29 09:48:45.656250,75.89,67.7
122678,2018-06-29 09:48:45.687500,57.31,67.7
122679,2018-06-29 09:48:45.718750,35.52,67.7
122680,2018-06-29 09:48:45.750000,13.54,67.7
122681,2018-06-29 09:48:45.781250,-5.01,67.7
122682,2018-06-29 09:48:45.812500,-19.38,67.7
122683,2018-06-29 09:48:45.843750,-31.37,67.7
122684,2018-06-29 09:48:45.875000,-39.28,67.7
122685,2018-06-29 09:48:45.906250,-40.59,67.7
122686,2018-06-29 09:48:45.937500,-38.23,67.7
122687,2018-06-29 09:48:45.968750,-37.28,67.7
122688,2018-06-29 09:48:46.000000,-38.99,67.7
122689,2018-06-29 09:48:46.031250,-39.6,67.7
122690,2018-06-29 09:48:46.062500,-33.22,67.7
122691,2018-06-29 09:48:46.093750,-18.11,67.7
122692,2018-06-29 09:48:46.125000,0.26,67.7
122693,2018-06-29 09:48:46.156250,14.41,67.7
122694,2018-06-29 09:48:46.187500,18.07,67.7
122695,2018-06-29 09:48:46.218750,5.6,67.7
122696,2018-06-29 09:48:46.250000,-20.43,67.7
122697,2018-06-29 09:48:46.281250,-44.51,67.7
122698,2018-06-29 09:48:46.312500,-53.97,67.7
122699,2018-06-29 09:48:46.343750,-52.71,67.7
122700,2018-06-29 09:48:46.375000,-50.32,67.7
122701,2018-06-29 09:48:46.406250,-48.79,67.7
122702,2018-06-29 09:48:46.437500,-46.16,67.7
122703,2018-06-29 09:48:46.468750,-42.6,67.7
122704,2018-06-29 09:48:46.500000,-38.59,67.7
122705,2018-06-29 09:48:46.531250,-33.4,67.92
122706,2018-06-29 09:48:46.562500,-27.78,67.92
122707,2018-06-29 09:48:46.593750,-23.89,67.92
122708,2018-06-29 09:48:46.625000,-22.36,67.92
122709,2018-06-29 09:48:46.656250,-22.33,67.92
122710,2018-06-29 09:48:46.687500,-23.46,67.92
122711,2018-06-29 09:48:46.718750,-25.98,67.92
122712,2018-06-29 09:48:46.750000,-29.3,67.92
122713,2018-06-29 09:48:46.781250,-32.86,67.92
122714,2018-06-29 09:48:46.812500,-37.53,67.92
122715,2018-06-29 09:48:46.843750,-44.69,67.92
122716,2018-06-29 09:48:46.875000,-52.77,67.92
122717,2018-06-29 09:48:46.906250,-54.95,67.92
122718,2018-06-29 09:48:46.937500,-44.71,67.92
122719,2018-06-29 09:48:46.968750,-24.29,67.92
122720,2018-06-29 09:48:47.000000,-2.63,67.92
122721,2018-06-29 09:48:47.031250,15.57,67.92
122722,2018-06-29 09:48:47.062500,33.41,67.92
122723,2018-06-29 09:48:47.093750,53.9,67.92
122724,2018-06-29 09:48:47.125000,75.19,67.92
122725,2018-06-29 09:48:47.156250,93.36,67.92
122726,2018-06-29 09:48:47.187500,105.84,67.92
122727,2018-06-29 09:48:47.218750,114.33,67.92
122728,2018-06-29 09:48:47.250000,124.1,67.92
122729,2018-06-29 09:48:47.281250,136.07,67.92
122730,2018-06-29 09:48:47.312500,142.84,67.92
122731,2018-06-29 09:48:47.343750,138.8,67.92
122732,2018-06-29 09:48:47.375000,129.08,67.92
122733,2018-06-29 09:48:47.406250,123.48,67.92
122734,2018-06-29 09:48:47.437500,126.79,67.92
122735,2018-06-29 09:48:47.468750,135.25,67.92
122736,2018-06-29 09:48:47.500000,137.58,67.92
122737,2018-06-29 09:48:47.531250,122.7,68.07
122738,2018-06-29 09:48:47.562500,89.95,68.07
122739,2018-06-29 09:48:47.593750,49.44,68.07
122740,2018-06-29 09:48:47.625000,12.23,68.07
122741,2018-06-29 09:48:47.656250,-16.45,68.07
122742,2018-06-29 09:48:47.687500,-36.26,68.07
122743,2018-06-29 09:48:47.718750,-48.8,68.07
122744,2018-06-29 09:48:47.750000,-56.1,68.07
122745,2018-06-29 09:48:47.781250,-60.76,68.07
122746,2018-06-29 09:48:47.812500,-66.24,68.07
122747,2018-06-29 09:48:47.843750,-73.87,68.07
122748,2018-06-29 09:48:47.875000,-78.66,68.07
122749,2018-06-29 09:48:47.906250,-73.33,68.07
122750,2018-06-29 09:48:47.937500,-58.63,68.07
122751,2018-06-29 09:48:47.968750,-43.78,68.07
122752,2018-06-29 09:48:48.000000,-35.18,68.07
122753,2018-06-29 09:48:48.031250,-31.94,68.07
122754,2018-06-29 09:48:48.062500,-32.74,68.07
122755,2018-06-29 09:48:48.093750,-38.66,68.07
122756,2018-06-29 09:48:48.125000,-47.96,68.07
122757,2018-06-29 09:48:48.156250,-55.85,68.07
122758,2018-06-29 09:48:48.187500,-59.95,68.07
122759,2018-06-29 09:48:48.218750,-60.79,68.07
122760,2018-06-29 09:48:48.250000,-57.81,68.07
122761,2018-06-29 09:48:48.281250,-50.65,68.07
122762,2018-06-29 09:48:48.312500,-42.16,68.07
122763,2018-06-29 09:48:48.343750,-35.75,68.07
122764,2018-06-29 09:48:48.375000,-31.93,68.07
122765,2018-06-29 09:48:48.406250,-29.12,68.07
122766,2018-06-29 09:48:48.437500,-26.33,68.07
122767,2018-06-29 09:48:48.468750,-24.8,68.07
122768,2018-06-29 09:48:48.500000,-27.17,68.07
122769,2018-06-29 09:48:48.531250,-34.16,68.25
122770,2018-06-29 09:48:48.562500,-43.11,68.25
122771,2018-06-29 09:48:48.593750,-51.2,68.25
122772,2018-06-29 09:48:48.625000,-58.61,68.25
122773,2018-06-29 09:48:48.656250,-67.82,68.25
122774,2018-06-29 09:48:48.687500,-79.2,68.25
122775,2018-06-29 09:48:48.718750,-85.66,68.25
122776,2018-06-29 09:48:48.750000,-76.62,68.25
122777,2018-06-29 09:48:48.781250,-50.59,68.25
122778,2018-06-29 09:48:48.812500,-17.68,68.25
122779,2018-06-29 09:48:48.843750,12.8,68.25
122780,2018-06-29 09:48:48.875000,38.25,68.25
122781,2018-06-29 09:48:48.906250,57.68,68.25
122782,2018-06-29 09:48:48.937500,70.89,68.25
122783,2018-06-29 09:48:48.968750,80.68,68.25
122784,2018-06-29 09:48:49.000000,88.58,68.25
122785,2018-06-29 09:48:49.031250,92.31,68.25
122786,2018-06-29 09:48:49.062500,90.32,68.25
122787,2018-06-29 09:48:49.093750,84.05,68.25
122788,2018-06-29 09:48:49.125000,75.66,68.25
122789,2018-06-29 09:48:49.156250,67.35,68.25
122790,2018-06-29 09:48:49.187500,60.55,68.25
122791,2018-06-29 09:48:49.218750,54.08,68.25
122792,2018-06-29 09:48:49.250000,46.01,68.25
122793,2018-06-29 09:48:49.281250,37.23,68.25
122794,2018-06-29 09:48:49.312500,29.55,68.25
122795,2018-06-29 09:48:49.343750,21.76,68.25
122796,2018-06-29 09:48:49.375000,11.36,68.25
122797,2018-06-29 09:48:49.406250,-1.89,68.25
122798,2018-06-29 09:48:49.437500,-16.12,68.25
122799,2018-06-29 09:48:49.468750,-29.75,68.25
122800,2018-06-29 09:48:49.500000,-43.1,68.25
122801,2018-06-29 09:48:49.531250,-58.9,68.53
122802,2018-06-29 09:48:49.562500,-78.8,68.53
122803,2018-06-29 09:48:49.593750,-96.89,68.53
122804,2018-06-29 09:48:49.625000,-100.55,68.53
122805,2018-06-29 09:48:49.656250,-83.41,68.53
122806,2018-06-29 09:48:49.687500,-54.42,68.53
122807,2018-06-29 09:48:49.718750,-27.93,68.53
122808,2018-06-29 09:48:49.750000,-8.62,68.53
122809,2018-06-29 09:48:49.781250,7.45,68.53
122810,2018-06-29 09:48:49.812500,22.4,68.53
122811,2018-06-29 09:48:49.843750,34.41,68.53
122812,2018-06-29 09:48:49.875000,42.02,68.53
122813,2018-06-29 09:48:49.906250,45.54,68.53
122814,2018-06-29 09:48:49.937500,45.95,68.53
122815,2018-06-29 09:48:49.968750,45.28,68.53
122816,2018-06-29 09:48:50.000000,46.52,68.53
122817,2018-06-29 09:48:50.031250,51.1,68.53
122818,2018-06-29 09:48:50.062500,56.59,68.53
122819,2018-06-29 09:48:50.093750,58.68,68.53
122820,2018-06-29 09:48:50.125000,56.11,68.53
122821,2018-06-29 09:48:50.156250,52.19,68.53
122822,2018-06-29 09:48:50.187500,50.18,68.53
122823,2018-06-29 09:48:50.218750,49.07,68.53
122824,2018-06-29 09:48:50.250000,45.8,68.53
122825,2018-06-29 09:48:50.281250,40.76,68.53
122826,2018-06-29 09:48:50.312500,37.64,68.53
122827,2018-06-29 09:48:50.343750,38.13,68.53
122828,2018-06-29 09:48:50.375000,39.82,68.53
122829,2018-06-29 09:48:50.406250,39.47,68.53
122830,2018-06-29 09:48:50.437500,36.46,68.53
122831,2018-06-29 09:48:50.468750,35.57,68.53
122832,2018-06-29 09:48:50.500000,45.45,68.53
122833,2018-06-29 09:48:50.531250,70.23,68.75
122834,2018-06-29 09:48:50.562500,102.59,68.75
122835,2018-06-29 09:48:50.593750,129.04,68.75
122836,2018-06-29 09:48:50.625000,141.29,68.75
122837,2018-06-29 09:48:50.656250,141.97,68.75
122838,2018-06-29 09:48:50.687500,141.38,68.75
122839,2018-06-29 09:48:50.718750,147.39,68.75
122840,2018-06-29 09:48:50.750000,158.22,68.75
122841,2018-06-29 09:48:50.781250,165.11,68.75
122842,2018-06-29 09:48:50.812500,160.34,68.75
122843,2018-06-29 09:48:50.843750,144.75,68.75
122844,2018-06-29 09:48:50.875000,130.11,68.75
122845,2018-06-29 09:48:50.906250,128.06,68.75
122846,2018-06-29 09:48:50.937500,132.96,68.75
122847,2018-06-29 09:48:50.968750,126.09,68.75
122848,2018-06-29 09:48:51.000000,99.72,68.75
122849,2018-06-29 09:48:51.031250,62.85,68.75
122850,2018-06-29 09:48:51.062500,23.78,68.75
122851,2018-06-29 09:48:51.093750,-16.92,68.75
122852,2018-06-29 09:48:51.125000,-58.56,68.75
122853,2018-06-29 09:48:51.156250,-100.47,68.75
122854,2018-06-29 09:48:51.187500,-148.6,68.75
122855,2018-06-29 09:48:51.218750,-212.63,68.75
122856,2018-06-29 09:48:51.250000,-294.23,68.75
122857,2018-06-29 09:48:51.281250,-374.25,68.75
122858,2018-06-29 09:48:51.312500,-419.23,68.75
122859,2018-06-29 09:48:51.343750,-414.4,68.75
122860,2018-06-29 09:48:51.375000,-377.84,68.75
122861,2018-06-29 09:48:51.406250,-332.0,68.75
122862,2018-06-29 09:48:51.437500,-282.78,68.75
122863,2018-06-29 09:48:51.468750,-232.06,68.75
122864,2018-06-29 09:48:51.500000,-184.97,68.75
122865,2018-06-29 09:48:51.531250,-141.26,68.93
122866,2018-06-29 09:48:51.562500,-97.98,68.93
122867,2018-06-29 09:48:51.593750,-58.27,68.93
122868,2018-06-29 09:48:51.625000,-27.67,68.93
122869,2018-06-29 09:48:51.656250,-6.07,68.93
122870,2018-06-29 09:48:51.687500,11.6,68.93
122871,2018-06-29 09:48:51.718750,27.78,68.93
122872,2018-06-29 09:48:51.750000,39.05,68.93
122873,2018-06-29 09:48:51.781250,42.23,68.93
122874,2018-06-29 09:48:51.812500,40.04,68.93
122875,2018-06-29 09:48:51.843750,37.11,68.93
122876,2018-06-29 09:48:51.875000,33.22,68.93
122877,2018-06-29 09:48:51.906250,25.35,68.93
122878,2018-06-29 09:48:51.937500,13.72,68.93
122879,2018-06-29 09:48:51.968750,1.25,68.93
122880,2018-06-29 09:48:52.000000,-9.55,68.93
122881,2018-06-29 09:48:52.031250,-15.17,68.93
122882,2018-06-29 09:48:52.062500,-12.35,68.93
122883,2018-06-29 09:48:52.093750,-3.56,68.93
122884,2018-06-29 09:48:52.125000,5.41,68.93
122885,2018-06-29 09:48:52.156250,13.66,68.93
122886,2018-06-29 09:48:52.187500,24.84,68.93
122887,2018-06-29 09:48:52.218750,40.05,68.93
122888,2018-06-29 09:48:52.250000,56.65,68.93
122889,2018-06-29 09:48:52.281250,70.29,68.93
122890,2018-06-29 09:48:52.312500,75.8,68.93
122891,2018-06-29 09:48:52.343750,69.9,68.93
122892,2018-06-29 09:48:52.375000,55.48,68.93
122893,2018-06-29 09:48:52.406250,39.98,68.93
122894,2018-06-29 09:48:52.437500,28.92,68.93
122895,2018-06-29 09:48:52.468750,23.75,68.93
122896,2018-06-29 09:48:52.500000,23.44,68.93
122897,2018-06-29 09:48:52.531250,24.75,69.12
122898,2018-06-29 09:48:52.562500,23.38,69.12
122899,2018-06-29 09:48:52.593750,17.74,69.12
122900,2018-06-29 09:48:52.625000,10.05,69.12
122901,2018-06-29 09:48:52.656250,1.4,69.12
122902,2018-06-29 09:48:52.687500,-10.26,69.12
122903,2018-06-29 09:48:52.718750,-25.98,69.12
122904,2018-06-29 09:48:52.750000,-42.73,69.12
122905,2018-06-29 09:48:52.781250,-56.68,69.12
122906,2018-06-29 09:48:52.812500,-67.99,69.12
122907,2018-06-29 09:48:52.843750,-80.22,69.12
122908,2018-06-29 09:48:52.875000,-95.68,69.12
122909,2018-06-29 09:48:52.906250,-109.87,69.12
122910,2018-06-29 09:48:52.937500,-110.41,69.12
122911,2018-06-29 09:48:52.968750,-87.07,69.12
122912,2018-06-29 09:48:53.000000,-45.47,69.12
122913,2018-06-29 09:48:53.031250,-3.53,69.12
122914,2018-06-29 09:48:53.062500,27.3,69.12
122915,2018-06-29 09:48:53.093750,48.56,69.12
122916,2018-06-29 09:48:53.125000,63.28,69.12
122917,2018-06-29 09:48:53.156250,70.39,69.12
122918,2018-06-29 09:48:53.187500,70.62,69.12
122919,2018-06-29 09:48:53.218750,68.17,69.12
122920,2018-06-29 09:48:53.250000,65.7,69.12
122921,2018-06-29 09:48:53.281250,62.89,69.12
122922,2018-06-29 09:48:53.312500,58.29,69.12
122923,2018-06-29 09:48:53.343750,50.71,69.12
122924,2018-06-29 09:48:53.375000,41.11,69.12
122925,2018-06-29 09:48:53.406250,32.62,69.12
122926,2018-06-29 09:48:53.437500,25.57,69.12
122927,2018-06-29 09:48:53.468750,14.98,69.12
122928,2018-06-29 09:48:53.500000,-2.75,69.12
122929,2018-06-29 09:48:53.531250,-23.12,69.2
122930,2018-06-29 09:48:53.562500,-38.64,69.2
122931,2018-06-29 09:48:53.593750,-50.05,69.2
122932,2018-06-29 09:48:53.625000,-67.76,69.2
122933,2018-06-29 09:48:53.656250,-97.25,69.2
122934,2018-06-29 09:48:53.687500,-124.91,69.2
122935,2018-06-29 09:48:53.718750,-129.19,69.2
122936,2018-06-29 09:48:53.750000,-111.65,69.2
122937,2018-06-29 09:48:53.781250,-106.84,69.2
122938,2018-06-29 09:48:53.812500,-148.14,69.2
122939,2018-06-29 09:48:53.843750,-222.82,69.2
122940,2018-06-29 09:48:53.875000,-270.5,69.2
122941,2018-06-29 09:48:53.906250,-238.32,69.2
122942,2018-06-29 09:48:53.937500,-139.12,69.2
122943,2018-06-29 09:48:53.968750,-36.8,69.2
122944,2018-06-29 09:48:54.000000,26.75,69.2
122945,2018-06-29 09:48:54.031250,62.11,69.2
122946,2018-06-29 09:48:54.062500,93.84,69.2
122947,2018-06-29 09:48:54.093750,129.67,69.2
122948,2018-06-29 09:48:54.125000,165.61,69.2
122949,2018-06-29 09:48:54.156250,187.19,69.2
122950,2018-06-29 09:48:54.187500,171.43,69.2
122951,2018-06-29 09:48:54.218750,115.04,69.2
122952,2018-06-29 09:48:54.250000,48.81,69.2
122953,2018-06-29 09:48:54.281250,3.29,69.2
122954,2018-06-29 09:48:54.312500,-25.92,69.2
122955,2018-06-29 09:48:54.343750,-61.11,69.2
122956,2018-06-29 09:48:54.375000,-106.87,69.2
122957,2018-06-29 09:48:54.406250,-151.53,69.2
122958,2018-06-29 09:48:54.437500,-187.98,69.2
122959,2018-06-29 09:48:54.468750,-211.53,69.2
122960,2018-06-29 09:48:54.500000,-210.2,69.2
122961,2018-06-29 09:48:54.531250,-176.83,69.35
122962,2018-06-29 09:48:54.562500,-123.35,69.35
122963,2018-06-29 09:48:54.593750,-69.01,69.35
122964,2018-06-29 09:48:54.625000,-21.37,69.35
122965,2018-06-29 09:48:54.656250,21.44,69.35
122966,2018-06-29 09:48:54.687500,57.89,69.35
122967,2018-06-29 09:48:54.718750,83.46,69.35
122968,2018-06-29 09:48:54.750000,99.11,69.35
122969,2018-06-29 09:48:54.781250,109.82,69.35
122970,2018-06-29 09:48:54.812500,117.72,69.35
122971,2018-06-29 09:48:54.843750,122.72,69.35
122972,2018-06-29 09:48:54.875000,126.31,69.35
122973,2018-06-29 09:48:54.906250,128.59,69.35
122974,2018-06-29 09:48:54.937500,125.26,69.35
122975,2018-06-29 09:48:54.968750,112.75,69.35
122976,2018-06-29 09:48:55.000000,93.83,69.35
122977,2018-06-29 09:48:55.031250,73.92,69.35
122978,2018-06-29 09:48:55.062500,54.6,69.35
122979,2018-06-29 09:48:55.093750,34.93,69.35
122980,2018-06-29 09:48:55.125000,16.2,69.35
122981,2018-06-29 09:48:55.156250,-0.04,69.35
122982,2018-06-29 09:48:55.187500,-16.47,69.35
122983,2018-06-29 09:48:55.218750,-38.05,69.35
122984,2018-06-29 09:48:55.250000,-63.75,69.35
122985,2018-06-29 09:48:55.281250,-80.63,69.35
122986,2018-06-29 09:48:55.312500,-71.45,69.35
122987,2018-06-29 09:48:55.343750,-33.16,69.35
122988,2018-06-29 09:48:55.375000,17.15,69.35
122989,2018-06-29 09:48:55.406250,60.5,69.35
122990,2018-06-29 09:48:55.437500,92.56,69.35
122991,2018-06-29 09:48:55.468750,117.39,69.35
122992,2018-06-29 09:48:55.500000,135.52,69.35
122993,2018-06-29 09:48:55.531250,145.14,69.53
122994,2018-06-29 09:48:55.562500,147.66,69.53
122995,2018-06-29 09:48:55.593750,146.48,69.53
122996,2018-06-29 09:48:55.625000,143.99,69.53
122997,2018-06-29 09:48:55.656250,141.96,69.53
122998,2018-06-29 09:48:55.687500,141.15,69.53
122999,2018-06-29 09:48:55.718750,139.8,69.53
123000,2018-06-29 09:48:55.750000,134.94,69.53
123001,2018-06-29 09:48:55.781250,125.71,69.53
123002,2018-06-29 09:48:55.812500,113.93,69.53
123003,2018-06-29 09:48:55.843750,101.84,69.53
123004,2018-06-29 09:48:55.875000,90.25,69.53
123005,2018-06-29 09:48:55.906250,78.74,69.53
123006,2018-06-29 09:48:55.937500,66.7,69.53
123007,2018-06-29 09:48:55.968750,53.8,69.53
123008,2018-06-29 09:48:56.000000,40.32,69.53
123009,2018-06-29 09:48:56.031250,26.94,69.53
123010,2018-06-29 09:48:56.062500,14.29,69.53
123011,2018-06-29 09:48:56.093750,2.21,69.53
123012,2018-06-29 09:48:56.125000,-10.63,69.53
123013,2018-06-29 09:48:56.156250,-25.32,69.53
123014,2018-06-29 09:48:56.187500,-40.51,69.53
123015,2018-06-29 09:48:56.218750,-53.24,69.53
123016,2018-06-29 09:48:56.250000,-63.26,69.53
123017,2018-06-29 09:48:56.281250,-75.22,69.53
123018,2018-06-29 09:48:56.312500,-93.53,69.53
123019,2018-06-29 09:48:56.343750,-113.61,69.53
123020,2018-06-29 09:48:56.375000,-119.66,69.53
123021,2018-06-29 09:48:56.406250,-98.61,69.53
123022,2018-06-29 09:48:56.437500,-56.61,69.53
123023,2018-06-29 09:48:56.468750,-13.63,69.53
123024,2018-06-29 09:48:56.500000,18.24,69.53
123025,2018-06-29 09:48:56.531250,40.57,69.72
123026,2018-06-29 09:48:56.562500,56.59,69.72
123027,2018-06-29 09:48:56.593750,66.05,69.72
123028,2018-06-29 09:48:56.625000,70.21,69.72
123029,2018-06-29 09:48:56.656250,72.68,69.72
123030,2018-06-29 09:48:56.687500,75.15,69.72
123031,2018-06-29 09:48:56.718750,76.67,69.72
123032,2018-06-29 09:48:56.750000,76.93,69.72
123033,2018-06-29 09:48:56.781250,76.74,69.72
123034,2018-06-29 09:48:56.812500,75.2,69.72
123035,2018-06-29 09:48:56.843750,69.98,69.72
123036,2018-06-29 09:48:56.875000,61.26,69.72
123037,2018-06-29 09:48:56.906250,52.0,69.72
123038,2018-06-29 09:48:56.937500,43.66,69.72
123039,2018-06-29 09:48:56.968750,34.98,69.72
123040,2018-06-29 09:48:57.000000,25.16,69.72
123041,2018-06-29 09:48:57.031250,15.23,69.72
123042,2018-06-29 09:48:57.062500,5.95,69.72
123043,2018-06-29 09:48:57.093750,-3.8,69.72
123044,2018-06-29 09:48:57.125000,-14.98,69.72
123045,2018-06-29 09:48:57.156250,-27.27,69.72
123046,2018-06-29 09:48:57.187500,-40.87,69.72
123047,2018-06-29 09:48:57.218750,-56.33,69.72
123048,2018-06-29 09:48:57.250000,-72.07,69.72
123049,2018-06-29 09:48:57.281250,-85.88,69.72
123050,2018-06-29 09:48:57.312500,-98.54,69.72
123051,2018-06-29 09:48:57.343750,-113.44,69.72
123052,2018-06-29 09:48:57.375000,-132.61,69.72
123053,2018-06-29 09:48:57.406250,-152.04,69.72
123054,2018-06-29 09:48:57.437500,-159.55,69.72
123055,2018-06-29 09:48:57.468750,-142.65,69.72
123056,2018-06-29 09:48:57.500000,-102.18,69.72
123057,2018-06-29 09:48:57.531250,-53.23,69.88
123058,2018-06-29 09:48:57.562500,-9.93,69.88
123059,2018-06-29 09:48:57.593750,24.46,69.88
123060,2018-06-29 09:48:57.625000,52.03,69.88
123061,2018-06-29 09:48:57.656250,72.82,69.88
123062,2018-06-29 09:48:57.687500,86.52,69.88
123063,2018-06-29 09:48:57.718750,95.23,69.88
123064,2018-06-29 09:48:57.750000,101.03,69.88
123065,2018-06-29 09:48:57.781250,104.08,69.88
123066,2018-06-29 09:48:57.812500,104.86,69.88
123067,2018-06-29 09:48:57.843750,104.7,69.88
123068,2018-06-29 09:48:57.875000,102.92,69.88
123069,2018-06-29 09:48:57.906250,97.27,69.88
123070,2018-06-29 09:48:57.937500,86.86,69.88
123071,2018-06-29 09:48:57.968750,72.86,69.88
123072,2018-06-29 09:48:58.000000,57.26,69.88
123073,2018-06-29 09:48:58.031250,41.33,69.88
123074,2018-06-29 09:48:58.062500,24.73,69.88
123075,2018-06-29 09:48:58.093750,7.44,69.88
123076,2018-06-29 09:48:58.125000,-8.56,69.88
123077,2018-06-29 09:48:58.156250,-22.42,69.88
123078,2018-06-29 09:48:58.187500,-35.96,69.88
123079,2018-06-29 09:48:58.218750,-48.88,69.88
123080,2018-06-29 09:48:58.250000,-57.74,69.88
123081,2018-06-29 09:48:58.281250,-61.89,69.88
123082,2018-06-29 09:48:58.312500,-65.05,69.88
123083,2018-06-29 09:48:58.343750,-69.96,69.88
123084,2018-06-29 09:48:58.375000,-75.05,69.88
123085,2018-06-29 09:48:58.406250,-74.64,69.88
123086,2018-06-29 09:48:58.437500,-60.82,69.88
123087,2018-06-29 09:48:58.468750,-30.21,69.88
123088,2018-06-29 09:48:58.500000,11.03,69.88
123089,2018-06-29 09:48:58.531250,52.27,70.03
123090,2018-06-29 09:48:58.562500,85.12,70.03
123091,2018-06-29 09:48:58.593750,102.54,70.03
123092,2018-06-29 09:48:58.625000,100.39,70.03
123093,2018-06-29 09:48:58.656250,85.59,70.03
123094,2018-06-29 09:48:58.687500,74.44,70.03
123095,2018-06-29 09:48:58.718750,76.68,70.03
123096,2018-06-29 09:48:58.750000,85.31,70.03
123097,2018-06-29 09:48:58.781250,85.77,70.03
123098,2018-06-29 09:48:58.812500,72.82,70.03
123099,2018-06-29 09:48:58.843750,53.38,70.03
123100,2018-06-29 09:48:58.875000,34.54,70.03
123101,2018-06-29 09:48:58.906250,17.23,70.03
123102,2018-06-29 09:48:58.937500,1.56,70.03
123103,2018-06-29 09:48:58.968750,-11.74,70.03
123104,2018-06-29 09:48:59.000000,-25.29,70.03
123105,2018-06-29 09:48:59.031250,-40.95,70.03
123106,2018-06-29 09:48:59.062500,-53.41,70.03
123107,2018-06-29 09:48:59.093750,-55.58,70.03
123108,2018-06-29 09:48:59.125000,-47.3,70.03
123109,2018-06-29 09:48:59.156250,-35.5,70.03
123110,2018-06-29 09:48:59.187500,-27.15,70.03
123111,2018-06-29 09:48:59.218750,-23.97,70.03
123112,2018-06-29 09:48:59.250000,-24.58,70.03
123113,2018-06-29 09:48:59.281250,-31.44,70.03
123114,2018-06-29 09:48:59.312500,-50.13,70.03
123115,2018-06-29 09:48:59.343750,-78.49,70.03
123116,2018-06-29 09:48:59.375000,-101.75,70.03
123117,2018-06-29 09:48:59.406250,-105.92,70.03
123118,2018-06-29 09:48:59.437500,-92.74,70.03
123119,2018-06-29 09:48:59.468750,-73.96,70.03
123120,2018-06-29 09:48:59.500000,-55.45,70.03
123121,2018-06-29 09:48:59.531250,-37.26,70.17
123122,2018-06-29 09:48:59.562500,-22.36,70.17
123123,2018-06-29 09:48:59.593750,-11.46,70.17
123124,2018-06-29 09:48:59.625000,3.27,70.17
123125,2018-06-29 09:48:59.656250,27.13,70.17
123126,2018-06-29 09:48:59.687500,54.05,70.17
123127,2018-06-29 09:48:59.718750,79.24,70.17
123128,2018-06-29 09:48:59.750000,107.65,70.17
123129,2018-06-29 09:48:59.781250,143.42,70.17
123130,2018-06-29 09:48:59.812500,184.43,70.17
123131,2018-06-29 09:48:59.843750,225.68,70.17
123132,2018-06-29 09:48:59.875000,256.13,70.17
123133,2018-06-29 09:48:59.906250,263.21,70.17
123134,2018-06-29 09:48:59.937500,251.16,70.17
123135,2018-06-29 09:48:59.968750,236.59,70.17
123136,2018-06-29 09:49:00.000000,221.63,70.17
123137,2018-06-29 09:49:00.031250,195.0,70.17
123138,2018-06-29 09:49:00.062500,157.19,70.17
123139,2018-06-29 09:49:00.093750,120.53,70.17
123140,2018-06-29 09:49:00.125000,87.86,70.17
123141,2018-06-29 09:49:00.156250,49.54,70.17
123142,2018-06-29 09:49:00.187500,1.44,70.17
123143,2018-06-29 09:49:00.218750,-44.04,70.17
123144,2018-06-29 09:49:00.250000,-68.3,70.17
123145,2018-06-29 09:49:00.281250,-68.54,70.17
123146,2018-06-29 09:49:00.312500,-60.65,70.17
123147,2018-06-29 09:49:00.343750,-57.17,70.17
123148,2018-06-29 09:49:00.375000,-56.68,70.17
123149,2018-06-29 09:49:00.406250,-56.2,70.17
123150,2018-06-29 09:49:00.437500,-56.64,70.17
123151,2018-06-29 09:49:00.468750,-56.02,70.17
123152,2018-06-29 09:49:00.500000,-52.69,70.17
123153,2018-06-29 09:49:00.531250,-51.65,70.28
123154,2018-06-29 09:49:00.562500,-58.3,70.28
123155,2018-06-29 09:49:00.593750,-73.27,70.28
123156,2018-06-29 09:49:00.625000,-95.26,70.28
123157,2018-06-29 09:49:00.656250,-122.21,70.28
123158,2018-06-29 09:49:00.687500,-149.94,70.28
123159,2018-06-29 09:49:00.718750,-174.37,70.28
123160,2018-06-29 09:49:00.750000,-193.35,70.28
123161,2018-06-29 09:49:00.781250,-206.78,70.28
123162,2018-06-29 09:49:00.812500,-217.38,70.28
123163,2018-06-29 09:49:00.843750,-227.08,70.28
123164,2018-06-29 09:49:00.875000,-232.55,70.28
123165,2018-06-29 09:49:00.906250,-230.17,70.28
123166,2018-06-29 09:49:00.937500,-223.25,70.28
123167,2018-06-29 09:49:00.968750,-218.23,70.28
123168,2018-06-29 09:49:01.000000,-215.76,70.28
123169,2018-06-29 09:49:01.031250,-206.97,70.28
123170,2018-06-29 09:49:01.062500,-180.32,70.28
123171,2018-06-29 09:49:01.093750,-136.49,70.28
123172,2018-06-29 09:49:01.125000,-93.51,70.28
123173,2018-06-29 09:49:01.156250,-69.3,70.28
123174,2018-06-29 09:49:01.187500,-62.95,70.28
123175,2018-06-29 09:49:01.218750,-59.94,70.28
123176,2018-06-29 09:49:01.250000,-50.24,70.28
123177,2018-06-29 09:49:01.281250,-36.42,70.28
123178,2018-06-29 09:49:01.312500,-27.24,70.28
123179,2018-06-29 09:49:01.343750,-28.06,70.28
123180,2018-06-29 09:49:01.375000,-36.98,70.28
123181,2018-06-29 09:49:01.406250,-47.13,70.28
123182,2018-06-29 09:49:01.437500,-51.29,70.28
123183,2018-06-29 09:49:01.468750,-45.69,70.28
123184,2018-06-29 09:49:01.500000,-32.49,70.28
123185,2018-06-29 09:49:01.531250,-17.84,70.52
123186,2018-06-29 09:49:01.562500,-6.5,70.52
123187,2018-06-29 09:49:01.593750,0.43,70.52
123188,2018-06-29 09:49:01.625000,4.73,70.52
123189,2018-06-29 09:49:01.656250,11.01,70.52
123190,2018-06-29 09:49:01.687500,25.32,70.52
123191,2018-06-29 09:49:01.718750,49.4,70.52
123192,2018-06-29 09:49:01.750000,78.1,70.52
123193,2018-06-29 09:49:01.781250,103.82,70.52
123194,2018-06-29 09:49:01.812500,120.62,70.52
123195,2018-06-29 09:49:01.843750,125.99,70.52
123196,2018-06-29 09:49:01.875000,121.83,70.52
123197,2018-06-29 09:49:01.906250,111.14,70.52
123198,2018-06-29 09:49:01.937500,93.06,70.52
123199,2018-06-29 09:49:01.968750,66.7,70.52
123200,2018-06-29 09:49:02.000000,38.53,70.52
123201,2018-06-29 09:49:02.031250,18.28,70.52
123202,2018-06-29 09:49:02.062500,8.97,70.52
123203,2018-06-29 09:49:02.093750,6.6,70.52
123204,2018-06-29 09:49:02.125000,7.1,70.52
123205,2018-06-29 09:49:02.156250,8.69,70.52
123206,2018-06-29 09:49:02.187500,10.34,70.52
123207,2018-06-29 09:49:02.218750,12.13,70.52
123208,2018-06-29 09:49:02.250000,15.09,70.52
123209,2018-06-29 09:49:02.281250,19.04,70.52
123210,2018-06-29 09:49:02.312500,22.72,70.52
123211,2018-06-29 09:49:02.343750,25.63,70.52
123212,2018-06-29 09:49:02.375000,28.06,70.52
123213,2018-06-29 09:49:02.406250,29.43,70.52
123214,2018-06-29 09:49:02.437500,29.06,70.52
123215,2018-06-29 09:49:02.468750,27.57,70.52
123216,2018-06-29 09:49:02.500000,26.03,70.52
123217,2018-06-29 09:49:02.531250,24.84,70.77
123218,2018-06-29 09:49:02.562500,23.6,70.77
123219,2018-06-29 09:49:02.593750,21.8,70.77
123220,2018-06-29 09:49:02.625000,19.38,70.77
123221,2018-06-29 09:49:02.656250,16.15,70.77
123222,2018-06-29 09:49:02.687500,11.59,70.77
123223,2018-06-29 09:49:02.718750,5.8,70.77
123224,2018-06-29 09:49:02.750000,-0.31,70.77
123225,2018-06-29 09:49:02.781250,-6.94,70.77
123226,2018-06-29 09:49:02.812500,-15.99,70.77
123227,2018-06-29 09:49:02.843750,-27.56,70.77
123228,2018-06-29 09:49:02.875000,-38.67,70.77
123229,2018-06-29 09:49:02.906250,-47.16,70.77
123230,2018-06-29 09:49:02.937500,-54.81,70.77
123231,2018-06-29 09:49:02.968750,-65.38,70.77
123232,2018-06-29 09:49:03.000000,-80.26,70.77
123233,2018-06-29 09:49:03.031250,-93.17,70.77
123234,2018-06-29 09:49:03.062500,-91.37,70.77
123235,2018-06-29 09:49:03.093750,-68.68,70.77
123236,2018-06-29 09:49:03.125000,-34.22,70.77
123237,2018-06-29 09:49:03.156250,-2.06,70.77
123238,2018-06-29 09:49:03.187500,21.93,70.77
123239,2018-06-29 09:49:03.218750,38.97,70.77
123240,2018-06-29 09:49:03.250000,50.79,70.77
123241,2018-06-29 09:49:03.281250,58.33,70.77
123242,2018-06-29 09:49:03.312500,62.68,70.77
123243,2018-06-29 09:49:03.343750,64.87,70.77
123244,2018-06-29 09:49:03.375000,65.86,70.77
123245,2018-06-29 09:49:03.406250,66.54,70.77
123246,2018-06-29 09:49:03.437500,67.53,70.77
123247,2018-06-29 09:49:03.468750,68.5,70.77
123248,2018-06-29 09:49:03.500000,67.65,70.77
123249,2018-06-29 09:49:03.531250,63.33,70.98
123250,2018-06-29 09:49:03.562500,56.07,70.98
123251,2018-06-29 09:49:03.593750,48.39,70.98
123252,2018-06-29 09:49:03.625000,42.59,70.98
123253,2018-06-29 09:49:03.656250,39.08,70.98
123254,2018-06-29 09:49:03.687500,36.12,70.98
123255,2018-06-29 09:49:03.718750,31.82,70.98
123256,2018-06-29 09:49:03.750000,26.0,70.98
123257,2018-06-29 09:49:03.781250,19.54,70.98
123258,2018-06-29 09:49:03.812500,12.61,70.98
123259,2018-06-29 09:49:03.843750,4.21,70.98
123260,2018-06-29 09:49:03.875000,-6.07,70.98
123261,2018-06-29 09:49:03.906250,-17.01,70.98
123262,2018-06-29 09:49:03.937500,-26.65,70.98
123263,2018-06-29 09:49:03.968750,-34.62,70.98
123264,2018-06-29 09:49:04.000000,-42.91,70.98
123265,2018-06-29 09:49:04.031250,-54.46,70.98
123266,2018-06-29 09:49:04.062500,-68.41,70.98
123267,2018-06-29 09:49:04.093750,-75.98,70.98
123268,2018-06-29 09:49:04.125000,-66.27,70.98
123269,2018-06-29 09:49:04.156250,-39.45,70.98
123270,2018-06-29 09:49:04.187500,-8.59,70.98
123271,2018-06-29 09:49:04.218750,13.79,70.98
123272,2018-06-29 09:49:04.250000,26.23,70.98
123273,2018-06-29 09:49:04.281250,33.34,70.98
123274,2018-06-29 09:49:04.312500,37.53,70.98
123275,2018-06-29 09:49:04.343750,39.03,70.98
123276,2018-06-29 09:49:04.375000,38.82,70.98
123277,2018-06-29 09:49:04.406250,38.1,70.98
123278,2018-06-29 09:49:04.437500,37.03,70.98
123279,2018-06-29 09:49:04.468750,36.2,70.98
123280,2018-06-29 09:49:04.500000,36.46,70.98
123281,2018-06-29 09:49:04.531250,37.63,71.37
123282,2018-06-29 09:49:04.562500,38.18,71.37
123283,2018-06-29 09:49:04.593750,36.59,71.37
123284,2018-06-29 09:49:04.625000,32.94,71.37
123285,2018-06-29 09:49:04.656250,28.72,71.37
123286,2018-06-29 09:49:04.687500,24.46,71.37
123287,2018-06-29 09:49:04.718750,18.96,71.37
123288,2018-06-29 09:49:04.750000,11.75,71.37
123289,2018-06-29 09:49:04.781250,4.84,71.37
123290,2018-06-29 09:49:04.812500,0.16,71.37
123291,2018-06-29 09:49:04.843750,-3.28,71.37
123292,2018-06-29 09:49:04.875000,-8.6,71.37
123293,2018-06-29 09:49:04.906250,-17.01,71.37
123294,2018-06-29 09:49:04.937500,-26.41,71.37
123295,2018-06-29 09:49:04.968750,-34.59,71.37
123296,2018-06-29 09:49:05.000000,-41.86,71.37
123297,2018-06-29 09:49:05.031250,-50.62,71.37
123298,2018-06-29 09:49:05.062500,-62.12,71.37
123299,2018-06-29 09:49:05.093750,-71.7,71.37
123300,2018-06-29 09:49:05.125000,-69.24,71.37
123301,2018-06-29 09:49:05.156250,-49.79,71.37
123302,2018-06-29 09:49:05.187500,-21.31,71.37
123303,2018-06-29 09:49:05.218750,3.63,71.37
123304,2018-06-29 09:49:05.250000,20.22,71.37
123305,2018-06-29 09:49:05.281250,31.01,71.37
123306,2018-06-29 09:49:05.312500,38.36,71.37
123307,2018-06-29 09:49:05.343750,42.51,71.37
123308,2018-06-29 09:49:05.375000,44.09,71.37
123309,2018-06-29 09:49:05.406250,44.44,71.37
123310,2018-06-29 09:49:05.437500,44.49,71.37
123311,2018-06-29 09:49:05.468750,44.81,71.37
123312,2018-06-29 09:49:05.500000,45.86,71.37
123313,2018-06-29 09:49:05.531250,46.9,71.77
123314,2018-06-29 09:49:05.562500,45.49,71.77
123315,2018-06-29 09:49:05.593750,40.05,71.77
123316,2018-06-29 09:49:05.625000,31.95,71.77
123317,2018-06-29 09:49:05.656250,23.9,71.77
123318,2018-06-29 09:49:05.687500,17.14,71.77
123319,2018-06-29 09:49:05.718750,11.0,71.77
123320,2018-06-29 09:49:05.750000,4.42,71.77
123321,2018-06-29 09:49:05.781250,-2.93,71.77
123322,2018-06-29 09:49:05.812500,-10.46,71.77
123323,2018-06-29 09:49:05.843750,-17.81,71.77
123324,2018-06-29 09:49:05.875000,-25.08,71.77
123325,2018-06-29 09:49:05.906250,-32.13,71.77
123326,2018-06-29 09:49:05.937500,-39.21,71.77
123327,2018-06-29 09:49:05.968750,-47.88,71.77
123328,2018-06-29 09:49:06.000000,-59.52,71.77
123329,2018-06-29 09:49:06.031250,-72.88,71.77
123330,2018-06-29 09:49:06.062500,-83.36,71.77
123331,2018-06-29 09:49:06.093750,-83.78,71.77
123332,2018-06-29 09:49:06.125000,-68.36,71.77
123333,2018-06-29 09:49:06.156250,-39.49,71.77
123334,2018-06-29 09:49:06.187500,-7.94,71.77
123335,2018-06-29 09:49:06.218750,16.71,71.77
123336,2018-06-29 09:49:06.250000,32.24,71.77
123337,2018-06-29 09:49:06.281250,39.6,71.77
123338,2018-06-29 09:49:06.312500,40.73,71.77
123339,2018-06-29 09:49:06.343750,41.3,71.77
123340,2018-06-29 09:49:06.375000,46.21,71.77
123341,2018-06-29 09:49:06.406250,52.37,71.77
123342,2018-06-29 09:49:06.437500,53.69,71.77
123343,2018-06-29 09:49:06.468750,51.6,71.77
123344,2018-06-29 09:49:06.500000,52.62,71.77
123345,2018-06-29 09:49:06.531250,58.4,72.13
123346,2018-06-29 09:49:06.562500,64.56,72.13
123347,2018-06-29 09:49:06.593750,67.15,72.13
123348,2018-06-29 09:49:06.625000,65.2,72.13
123349,2018-06-29 09:49:06.656250,59.29,72.13
123350,2018-06-29 09:49:06.687500,51.03,72.13
123351,2018-06-29 09:49:06.718750,43.22,72.13
123352,2018-06-29 09:49:06.750000,37.3,72.13
123353,2018-06-29 09:49:06.781250,31.24,72.13
123354,2018-06-29 09:49:06.812500,21.74,72.13
123355,2018-06-29 09:49:06.843750,7.98,72.13
123356,2018-06-29 09:49:06.875000,-7.77,72.13
123357,2018-06-29 09:49:06.906250,-22.22,72.13
123358,2018-06-29 09:49:06.937500,-33.67,72.13
123359,2018-06-29 09:49:06.968750,-42.55,72.13
123360,2018-06-29 09:49:07.000000,-50.91,72.13
123361,2018-06-29 09:49:07.031250,-60.14,72.13
123362,2018-06-29 09:49:07.062500,-67.62,72.13
123363,2018-06-29 09:49:07.093750,-67.52,72.13
123364,2018-06-29 09:49:07.125000,-56.91,72.13
123365,2018-06-29 09:49:07.156250,-40.11,72.13
123366,2018-06-29 09:49:07.187500,-24.62,72.13
123367,2018-06-29 09:49:07.218750,-14.69,72.13
123368,2018-06-29 09:49:07.250000,-10.67,72.13
123369,2018-06-29 09:49:07.281250,-11.19,72.13
123370,2018-06-29 09:49:07.312500,-13.35,72.13
123371,2018-06-29 09:49:07.343750,-13.38,72.13
123372,2018-06-29 09:49:07.375000,-10.12,72.13
123373,2018-06-29 09:49:07.406250,-5.98,72.13
123374,2018-06-29 09:49:07.437500,-3.63,72.13
123375,2018-06-29 09:49:07.468750,-3.4,72.13
123376,2018-06-29 09:49:07.500000,-4.86,72.13
123377,2018-06-29 09:49:07.531250,-8.46,72.48
123378,2018-06-29 09:49:07.562500,-14.02,72.48
123379,2018-06-29 09:49:07.593750,-19.27,72.48
123380,2018-06-29 09:49:07.625000,-22.53,72.48
123381,2018-06-29 09:49:07.656250,-25.79,72.48
123382,2018-06-29 09:49:07.687500,-32.31,72.48
123383,2018-06-29 09:49:07.718750,-41.61,72.48
123384,2018-06-29 09:49:07.750000,-50.38,72.48
123385,2018-06-29 09:49:07.781250,-57.54,72.48
123386,2018-06-29 09:49:07.812500,-65.61,72.48
123387,2018-06-29 09:49:07.843750,-76.77,72.48
123388,2018-06-29 09:49:07.875000,-87.7,72.48
123389,2018-06-29 09:49:07.906250,-89.92,72.48
123390,2018-06-29 09:49:07.937500,-77.55,72.48
123391,2018-06-29 09:49:07.968750,-53.88,72.48
123392,2018-06-29 09:49:08.000000,-28.04,72.48
123393,2018-06-29 09:49:08.031250,-6.26,72.48
123394,2018-06-29 09:49:08.062500,10.93,72.48
123395,2018-06-29 09:49:08.093750,24.97,72.48
123396,2018-06-29 09:49:08.125000,36.16,72.48
123397,2018-06-29 09:49:08.156250,43.93,72.48
123398,2018-06-29 09:49:08.187500,48.25,72.48
123399,2018-06-29 09:49:08.218750,49.73,72.48
123400,2018-06-29 09:49:08.250000,50.03,72.48
123401,2018-06-29 09:49:08.281250,50.55,72.48
123402,2018-06-29 09:49:08.312500,50.55,72.48
123403,2018-06-29 09:49:08.343750,47.71,72.48
123404,2018-06-29 09:49:08.375000,40.59,72.48
123405,2018-06-29 09:49:08.406250,30.38,72.48
123406,2018-06-29 09:49:08.437500,19.74,72.48
123407,2018-06-29 09:49:08.468750,9.88,72.48
123408,2018-06-29 09:49:08.500000,-0.54,72.48
123409,2018-06-29 09:49:08.531250,-12.11,72.78
123410,2018-06-29 09:49:08.562500,-22.64,72.78
123411,2018-06-29 09:49:08.593750,-31.09,72.78
123412,2018-06-29 09:49:08.625000,-40.32,72.78
123413,2018-06-29 09:49:08.656250,-53.74,72.78
123414,2018-06-29 09:49:08.687500,-69.66,72.78
123415,2018-06-29 09:49:08.718750,-78.62,72.78
123416,2018-06-29 09:49:08.750000,-70.01,72.78
123417,2018-06-29 09:49:08.781250,-43.69,72.78
123418,2018-06-29 09:49:08.812500,-11.61,72.78
123419,2018-06-29 09:49:08.843750,15.21,72.78
123420,2018-06-29 09:49:08.875000,35.69,72.78
123421,2018-06-29 09:49:08.906250,52.84,72.78
123422,2018-06-29 09:49:08.937500,66.31,72.78
123423,2018-06-29 09:49:08.968750,73.88,72.78
123424,2018-06-29 09:49:09.000000,75.41,72.78
123425,2018-06-29 09:49:09.031250,72.42,72.78
123426,2018-06-29 09:49:09.062500,66.3,72.78
123427,2018-06-29 09:49:09.093750,58.97,72.78
123428,2018-06-29 09:49:09.125000,52.99,72.78
123429,2018-06-29 09:49:09.156250,49.11,72.78
123430,2018-06-29 09:49:09.187500,45.74,72.78
123431,2018-06-29 09:49:09.218750,41.81,72.78
123432,2018-06-29 09:49:09.250000,38.81,72.78
123433,2018-06-29 09:49:09.281250,38.49,72.78
123434,2018-06-29 09:49:09.312500,39.55,72.78
123435,2018-06-29 09:49:09.343750,38.89,72.78
123436,2018-06-29 09:49:09.375000,35.62,72.78
123437,2018-06-29 09:49:09.406250,31.31,72.78
123438,2018-06-29 09:49:09.437500,26.9,72.78
123439,2018-06-29 09:49:09.468750,21.8,72.78
123440,2018-06-29 09:49:09.500000,15.34,72.78
123441,2018-06-29 09:49:09.531250,7.54,73.08
123442,2018-06-29 09:49:09.562500,-0.78,73.08
123443,2018-06-29 09:49:09.593750,-8.77,73.08
123444,2018-06-29 09:49:09.625000,-17.11,73.08
123445,2018-06-29 09:49:09.656250,-27.47,73.08
123446,2018-06-29 09:49:09.687500,-39.13,73.08
123447,2018-06-29 09:49:09.718750,-49.09,73.08
123448,2018-06-29 09:49:09.750000,-56.52,73.08
123449,2018-06-29 09:49:09.781250,-64.1,73.08
123450,2018-06-29 09:49:09.812500,-73.59,73.08
123451,2018-06-29 09:49:09.843750,-83.51,73.08
123452,2018-06-29 09:49:09.875000,-91.85,73.08
123453,2018-06-29 09:49:09.906250,-99.05,73.08
123454,2018-06-29 09:49:09.937500,-107.45,73.08
123455,2018-06-29 09:49:09.968750,-117.15,73.08
123456,2018-06-29 09:49:10.000000,-121.59,73.08
123457,2018-06-29 09:49:10.031250,-110.11,73.08
123458,2018-06-29 09:49:10.062500,-79.02,73.08
123459,2018-06-29 09:49:10.093750,-38.28,73.08
123460,2018-06-29 09:49:10.125000,-2.58,73.08
123461,2018-06-29 09:49:10.156250,21.56,73.08
123462,2018-06-29 09:49:10.187500,36.55,73.08
123463,2018-06-29 09:49:10.218750,46.32,73.08
123464,2018-06-29 09:49:10.250000,52.81,73.08
123465,2018-06-29 09:49:10.281250,57.08,73.08
123466,2018-06-29 09:49:10.312500,60.23,73.08
123467,2018-06-29 09:49:10.343750,63.19,73.08
123468,2018-06-29 09:49:10.375000,66.28,73.08
123469,2018-06-29 09:49:10.406250,69.16,73.08
123470,2018-06-29 09:49:10.437500,70.81,73.08
123471,2018-06-29 09:49:10.468750,69.68,73.08
123472,2018-06-29 09:49:10.500000,64.43,73.08
123473,2018-06-29 09:49:10.531250,55.45,73.37
123474,2018-06-29 09:49:10.562500,45.21,73.37
123475,2018-06-29 09:49:10.593750,35.88,73.37
123476,2018-06-29 09:49:10.625000,27.54,73.37
123477,2018-06-29 09:49:10.656250,19.69,73.37
123478,2018-06-29 09:49:10.687500,12.9,73.37
123479,2018-06-29 09:49:10.718750,7.36,73.37
123480,2018-06-29 09:49:10.750000,1.26,73.37
123481,2018-06-29 09:49:10.781250,-6.75,73.37
123482,2018-06-29 09:49:10.812500,-14.67,73.37
123483,2018-06-29 09:49:10.843750,-20.11,73.37
123484,2018-06-29 09:49:10.875000,-24.5,73.37
123485,2018-06-29 09:49:10.906250,-31.07,73.37
123486,2018-06-29 09:49:10.937500,-40.06,73.37
123487,2018-06-29 09:49:10.968750,-49.19,73.37
123488,2018-06-29 09:49:11.000000,-58.17,73.37
123489,2018-06-29 09:49:11.031250,-69.17,73.37
123490,2018-06-29 09:49:11.062500,-82.88,73.37
123491,2018-06-29 09:49:11.093750,-94.75,73.37
123492,2018-06-29 09:49:11.125000,-95.81,73.37
123493,2018-06-29 09:49:11.156250,-79.76,73.37
123494,2018-06-29 09:49:11.187500,-50.43,73.37
123495,2018-06-29 09:49:11.218750,-18.9,73.37
123496,2018-06-29 09:49:11.250000,6.47,73.37
123497,2018-06-29 09:49:11.281250,24.19,73.37
123498,2018-06-29 09:49:11.312500,36.19,73.37
123499,2018-06-29 09:49:11.343750,43.81,73.37
123500,2018-06-29 09:49:11.375000,47.23,73.37
123501,2018-06-29 09:49:11.406250,47.32,73.37
123502,2018-06-29 09:49:11.437500,46.07,73.37
123503,2018-06-29 09:49:11.468750,44.51,73.37
123504,2018-06-29 09:49:11.500000,42.57,73.37
123505,2018-06-29 09:49:11.531250,41.23,73.68
123506,2018-06-29 09:49:11.562500,41.19,73.68
123507,2018-06-29 09:49:11.593750,39.72,73.68
123508,2018-06-29 09:49:11.625000,33.49,73.68
123509,2018-06-29 09:49:11.656250,23.51,73.68
123510,2018-06-29 09:49:11.687500,13.68,73.68
123511,2018-06-29 09:49:11.718750,5.49,73.68
123512,2018-06-29 09:49:11.750000,-3.01,73.68
123513,2018-06-29 09:49:11.781250,-13.27,73.68
123514,2018-06-29 09:49:11.812500,-23.89,73.68
123515,2018-06-29 09:49:11.843750,-32.87,73.68
123516,2018-06-29 09:49:11.875000,-41.07,73.68
123517,2018-06-29 09:49:11.906250,-51.66,73.68
123518,2018-06-29 09:49:11.937500,-65.74,73.68
123519,2018-06-29 09:49:11.968750,-78.92,73.68
123520,2018-06-29 09:49:12.000000,-82.7,73.68
123521,2018-06-29 09:49:12.031250,-71.08,73.68
123522,2018-06-29 09:49:12.062500,-46.92,73.68
123523,2018-06-29 09:49:12.093750,-20.29,73.68
123524,2018-06-29 09:49:12.125000,0.35,73.68
123525,2018-06-29 09:49:12.156250,13.54,73.68
123526,2018-06-29 09:49:12.187500,21.52,73.68
123527,2018-06-29 09:49:12.218750,25.51,73.68
123528,2018-06-29 09:49:12.250000,26.27,73.68
123529,2018-06-29 09:49:12.281250,26.03,73.68
123530,2018-06-29 09:49:12.312500,26.67,73.68
123531,2018-06-29 09:49:12.343750,28.63,73.68
123532,2018-06-29 09:49:12.375000,33.46,73.68
123533,2018-06-29 09:49:12.406250,43.33,73.68
123534,2018-06-29 09:49:12.437500,56.06,73.68
123535,2018-06-29 09:49:12.468750,66.28,73.68
123536,2018-06-29 09:49:12.500000,73.73,73.68
123537,2018-06-29 09:49:12.531250,84.56,74.02
123538,2018-06-29 09:49:12.562500,99.82,74.02
123539,2018-06-29 09:49:12.593750,107.41,74.02
123540,2018-06-29 09:49:12.625000,91.04,74.02
123541,2018-06-29 09:49:12.656250,46.08,74.02
123542,2018-06-29 09:49:12.687500,-15.95,74.02
123543,2018-06-29 09:49:12.718750,-76.84,74.02
123544,2018-06-29 09:49:12.750000,-122.85,74.02
123545,2018-06-29 09:49:12.781250,-148.59,74.02
123546,2018-06-29 09:49:12.812500,-155.07,74.02
123547,2018-06-29 09:49:12.843750,-144.38,74.02
123548,2018-06-29 09:49:12.875000,-117.91,74.02
123549,2018-06-29 09:49:12.906250,-80.49,74.02
123550,2018-06-29 09:49:12.937500,-40.94,74.02
123551,2018-06-29 09:49:12.968750,-5.18,74.02
123552,2018-06-29 09:49:13.000000,25.83,74.02
123553,2018-06-29 09:49:13.031250,49.78,74.02
123554,2018-06-29 09:49:13.062500,61.34,74.02
123555,2018-06-29 09:49:13.093750,58.81,74.02
123556,2018-06-29 09:49:13.125000,46.78,74.02
123557,2018-06-29 09:49:13.156250,31.99,74.02
123558,2018-06-29 09:49:13.187500,20.09,74.02
123559,2018-06-29 09:49:13.218750,14.6,74.02
123560,2018-06-29 09:49:13.250000,15.46,74.02
123561,2018-06-29 09:49:13.281250,18.76,74.02
123562,2018-06-29 09:49:13.312500,19.95,74.02
123563,2018-06-29 09:49:13.343750,17.39,74.02
123564,2018-06-29 09:49:13.375000,12.43,74.02
123565,2018-06-29 09:49:13.406250,6.36,74.02
123566,2018-06-29 09:49:13.437500,-0.86,74.02
123567,2018-06-29 09:49:13.468750,-7.96,74.02
123568,2018-06-29 09:49:13.500000,-11.91,74.02
123569,2018-06-29 09:49:13.531250,-12.42,74.2
123570,2018-06-29 09:49:13.562500,-12.73,74.2
123571,2018-06-29 09:49:13.593750,-15.18,74.2
123572,2018-06-29 09:49:13.625000,-20.18,74.2
123573,2018-06-29 09:49:13.656250,-29.05,74.2
123574,2018-06-29 09:49:13.687500,-42.96,74.2
123575,2018-06-29 09:49:13.718750,-57.58,74.2
123576,2018-06-29 09:49:13.750000,-62.72,74.2
123577,2018-06-29 09:49:13.781250,-51.26,74.2
123578,2018-06-29 09:49:13.812500,-27.09,74.2
123579,2018-06-29 09:49:13.843750,-0.25,74.2
123580,2018-06-29 09:49:13.875000,23.39,74.2
123581,2018-06-29 09:49:13.906250,43.03,74.2
123582,2018-06-29 09:49:13.937500,57.62,74.2
123583,2018-06-29 09:49:13.968750,65.53,74.2
123584,2018-06-29 09:49:14.000000,67.8,74.2
123585,2018-06-29 09:49:14.031250,67.35,74.2
123586,2018-06-29 09:49:14.062500,65.9,74.2
123587,2018-06-29 09:49:14.093750,63.83,74.2
123588,2018-06-29 09:49:14.125000,61.7,74.2
123589,2018-06-29 09:49:14.156250,60.21,74.2
123590,2018-06-29 09:49:14.187500,58.94,74.2
123591,2018-06-29 09:49:14.218750,55.99,74.2
123592,2018-06-29 09:49:14.250000,50.3,74.2
123593,2018-06-29 09:49:14.281250,43.41,74.2
123594,2018-06-29 09:49:14.312500,37.55,74.2
123595,2018-06-29 09:49:14.343750,32.43,74.2
123596,2018-06-29 09:49:14.375000,26.14,74.2
123597,2018-06-29 09:49:14.406250,18.54,74.2
123598,2018-06-29 09:49:14.437500,11.46,74.2
123599,2018-06-29 09:49:14.468750,6.24,74.2
123600,2018-06-29 09:49:14.500000,2.48,74.2
123601,2018-06-29 09:49:14.531250,-1.73,74.45
123602,2018-06-29 09:49:14.562500,-8.93,74.45
123603,2018-06-29 09:49:14.593750,-20.38,74.45
123604,2018-06-29 09:49:14.625000,-35.51,74.45
123605,2018-06-29 09:49:14.656250,-53.83,74.45
123606,2018-06-29 09:49:14.687500,-74.99,74.45
123607,2018-06-29 09:49:14.718750,-95.91,74.45
123608,2018-06-29 09:49:14.750000,-108.95,74.45
123609,2018-06-29 09:49:14.781250,-105.72,74.45
123610,2018-06-29 09:49:14.812500,-85.32,74.45
123611,2018-06-29 09:49:14.843750,-56.82,74.45
123612,2018-06-29 09:49:14.875000,-29.79,74.45
123613,2018-06-29 09:49:14.906250,-6.16,74.45
123614,2018-06-29 09:49:14.937500,15.52,74.45
123615,2018-06-29 09:49:14.968750,33.54,74.45
123616,2018-06-29 09:49:15.000000,45.04,74.45
123617,2018-06-29 09:49:15.031250,50.15,74.45
123618,2018-06-29 09:49:15.062500,51.35,74.45
123619,2018-06-29 09:49:15.093750,50.6,74.45
123620,2018-06-29 09:49:15.125000,48.71,74.45
123621,2018-06-29 09:49:15.156250,46.66,74.45
123622,2018-06-29 09:49:15.187500,44.84,74.45
123623,2018-06-29 09:49:15.218750,41.86,74.45
123624,2018-06-29 09:49:15.250000,35.85,74.45
123625,2018-06-29 09:49:15.281250,27.01,74.45
123626,2018-06-29 09:49:15.312500,17.71,74.45
123627,2018-06-29 09:49:15.343750,10.05,74.45
123628,2018-06-29 09:49:15.375000,3.65,74.45
123629,2018-06-29 09:49:15.406250,-3.18,74.45
123630,2018-06-29 09:49:15.437500,-10.6,74.45
123631,2018-06-29 09:49:15.468750,-17.03,74.45
123632,2018-06-29 09:49:15.500000,-22.59,74.45
123633,2018-06-29 09:49:15.531250,-29.75,74.72
123634,2018-06-29 09:49:15.562500,-40.3,74.72
123635,2018-06-29 09:49:15.593750,-52.55,74.72
123636,2018-06-29 09:49:15.625000,-60.92,74.72
123637,2018-06-29 09:49:15.656250,-59.01,74.72
123638,2018-06-29 09:49:15.687500,-45.02,74.72
123639,2018-06-29 09:49:15.718750,-23.64,74.72
123640,2018-06-29 09:49:15.750000,-1.54,74.72
123641,2018-06-29 09:49:15.781250,17.77,74.72
123642,2018-06-29 09:49:15.812500,33.9,74.72
123643,2018-06-29 09:49:15.843750,46.37,74.72
123644,2018-06-29 09:49:15.875000,53.52,74.72
123645,2018-06-29 09:49:15.906250,54.96,74.72
123646,2018-06-29 09:49:15.937500,52.52,74.72
123647,2018-06-29 09:49:15.968750,47.96,74.72
123648,2018-06-29 09:49:16.000000,42.17,74.72
123649,2018-06-29 09:49:16.031250,36.28,74.72
123650,2018-06-29 09:49:16.062500,30.85,74.72
123651,2018-06-29 09:49:16.093750,24.98,74.72
123652,2018-06-29 09:49:16.125000,17.83,74.72
123653,2018-06-29 09:49:16.156250,11.22,74.72
123654,2018-06-29 09:49:16.187500,8.2,74.72
123655,2018-06-29 09:49:16.218750,9.21,74.72
123656,2018-06-29 09:49:16.250000,10.5,74.72
123657,2018-06-29 09:49:16.281250,8.08,74.72
123658,2018-06-29 09:49:16.312500,1.83,74.72
123659,2018-06-29 09:49:16.343750,-6.27,74.72
123660,2018-06-29 09:49:16.375000,-15.84,74.72
123661,2018-06-29 09:49:16.406250,-27.99,74.72
123662,2018-06-29 09:49:16.437500,-43.01,74.72
123663,2018-06-29 09:49:16.468750,-58.53,74.72
123664,2018-06-29 09:49:16.500000,-68.68,74.72
123665,2018-06-29 09:49:16.531250,-66.64,74.98
123666,2018-06-29 09:49:16.562500,-51.63,74.98
123667,2018-06-29 09:49:16.593750,-30.95,74.98
123668,2018-06-29 09:49:16.625000,-12.1,74.98
123669,2018-06-29 09:49:16.656250,3.4,74.98
123670,2018-06-29 09:49:16.687500,16.83,74.98
123671,2018-06-29 09:49:16.718750,27.43,74.98
123672,2018-06-29 09:49:16.750000,33.1,74.98
123673,2018-06-29 09:49:16.781250,33.34,74.98
123674,2018-06-29 09:49:16.812500,30.56,74.98
123675,2018-06-29 09:49:16.843750,28.52,74.98
123676,2018-06-29 09:49:16.875000,29.33,74.98
123677,2018-06-29 09:49:16.906250,32.1,74.98
123678,2018-06-29 09:49:16.937500,34.83,74.98
123679,2018-06-29 09:49:16.968750,36.42,74.98
123680,2018-06-29 09:49:17.000000,36.82,74.98
123681,2018-06-29 09:49:17.031250,36.33,74.98
123682,2018-06-29 09:49:17.062500,35.25,74.98
123683,2018-06-29 09:49:17.093750,33.14,74.98
123684,2018-06-29 09:49:17.125000,28.81,74.98
123685,2018-06-29 09:49:17.156250,21.75,74.98
123686,2018-06-29 09:49:17.187500,13.56,74.98
123687,2018-06-29 09:49:17.218750,6.69,74.98
123688,2018-06-29 09:49:17.250000,1.98,74.98
123689,2018-06-29 09:49:17.281250,-1.27,74.98
123690,2018-06-29 09:49:17.312500,-3.77,74.98
123691,2018-06-29 09:49:17.343750,-6.37,74.98
123692,2018-06-29 09:49:17.375000,-10.33,74.98
123693,2018-06-29 09:49:17.406250,-15.82,74.98
123694,2018-06-29 09:49:17.437500,-21.88,74.98
123695,2018-06-29 09:49:17.468750,-28.51,74.98
123696,2018-06-29 09:49:17.500000,-36.24,74.98
123697,2018-06-29 09:49:17.531250,-44.28,75.28
123698,2018-06-29 09:49:17.562500,-51.02,75.28
123699,2018-06-29 09:49:17.593750,-55.91,75.28
123700,2018-06-29 09:49:17.625000,-60.19,75.28
123701,2018-06-29 09:49:17.656250,-66.11,75.28
123702,2018-06-29 09:49:17.687500,-74.43,75.28
123703,2018-06-29 09:49:17.718750,-80.29,75.28
123704,2018-06-29 09:49:17.750000,-75.54,75.28
123705,2018-06-29 09:49:17.781250,-58.26,75.28
123706,2018-06-29 09:49:17.812500,-36.2,75.28
123707,2018-06-29 09:49:17.843750,-17.6,75.28
123708,2018-06-29 09:49:17.875000,-3.72,75.28
123709,2018-06-29 09:49:17.906250,7.88,75.28
123710,2018-06-29 09:49:17.937500,18.02,75.28
123711,2018-06-29 09:49:17.968750,25.81,75.28
123712,2018-06-29 09:49:18.000000,30.34,75.28
123713,2018-06-29 09:49:18.031250,31.35,75.28
123714,2018-06-29 09:49:18.062500,29.6,75.28
123715,2018-06-29 09:49:18.093750,27.31,75.28
123716,2018-06-29 09:49:18.125000,27.02,75.28
123717,2018-06-29 09:49:18.156250,29.24,75.28
123718,2018-06-29 09:49:18.187500,32.16,75.28
123719,2018-06-29 09:49:18.218750,33.43,75.28
123720,2018-06-29 09:49:18.250000,32.11,75.28
123721,2018-06-29 09:49:18.281250,29.3,75.28
123722,2018-06-29 09:49:18.312500,26.86,75.28
123723,2018-06-29 09:49:18.343750,25.29,75.28
123724,2018-06-29 09:49:18.375000,23.65,75.28
123725,2018-06-29 09:49:18.406250,21.05,75.28
123726,2018-06-29 09:49:18.437500,17.14,75.28
123727,2018-06-29 09:49:18.468750,11.6,75.28
123728,2018-06-29 09:49:18.500000,4.82,75.28
123729,2018-06-29 09:49:18.531250,-2.1,75.45
123730,2018-06-29 09:49:18.562500,-8.57,75.45
123731,2018-06-29 09:49:18.593750,-14.91,75.45
123732,2018-06-29 09:49:18.625000,-21.02,75.45
123733,2018-06-29 09:49:18.656250,-26.39,75.45
123734,2018-06-29 09:49:18.687500,-31.77,75.45
123735,2018-06-29 09:49:18.718750,-39.28,75.45
123736,2018-06-29 09:49:18.750000,-49.84,75.45
123737,2018-06-29 09:49:18.781250,-59.91,75.45
123738,2018-06-29 09:49:18.812500,-61.94,75.45
123739,2018-06-29 09:49:18.843750,-51.99,75.45
123740,2018-06-29 09:49:18.875000,-35.45,75.45
123741,2018-06-29 09:49:18.906250,-20.82,75.45
123742,2018-06-29 09:49:18.937500,-10.31,75.45
123743,2018-06-29 09:49:18.968750,-1.3,75.45
123744,2018-06-29 09:49:19.000000,7.23,75.45
123745,2018-06-29 09:49:19.031250,14.42,75.45
123746,2018-06-29 09:49:19.062500,19.54,75.45
123747,2018-06-29 09:49:19.093750,22.34,75.45
123748,2018-06-29 09:49:19.125000,23.49,75.45
123749,2018-06-29 09:49:19.156250,24.63,75.45
123750,2018-06-29 09:49:19.187500,26.76,75.45
123751,2018-06-29 09:49:19.218750,29.21,75.45
123752,2018-06-29 09:49:19.250000,30.27,75.45
123753,2018-06-29 09:49:19.281250,28.85,75.45
123754,2018-06-29 09:49:19.312500,25.79,75.45
123755,2018-06-29 09:49:19.343750,22.9,75.45
123756,2018-06-29 09:49:19.375000,20.64,75.45
123757,2018-06-29 09:49:19.406250,18.2,75.45
123758,2018-06-29 09:49:19.437500,15.08,75.45
123759,2018-06-29 09:49:19.468750,11.09,75.45
123760,2018-06-29 09:49:19.500000,5.54,75.45
123761,2018-06-29 09:49:19.531250,-1.77,75.47
123762,2018-06-29 09:49:19.562500,-9.86,75.47
123763,2018-06-29 09:49:19.593750,-16.91,75.47
123764,2018-06-29 09:49:19.625000,-20.72,75.47
123765,2018-06-29 09:49:19.656250,-20.94,75.47
123766,2018-06-29 09:49:19.687500,-20.68,75.47
123767,2018-06-29 09:49:19.718750,-23.1,75.47
123768,2018-06-29 09:49:19.750000,-27.28,75.47
123769,2018-06-29 09:49:19.781250,-31.04,75.47
123770,2018-06-29 09:49:19.812500,-35.38,75.47
123771,2018-06-29 09:49:19.843750,-42.5,75.47
123772,2018-06-29 09:49:19.875000,-51.67,75.47
123773,2018-06-29 09:49:19.906250,-58.38,75.47
123774,2018-06-29 09:49:19.937500,-56.24,75.47
123775,2018-06-29 09:49:19.968750,-42.71,75.47
123776,2018-06-29 09:49:20.000000,-22.58,75.47
123777,2018-06-29 09:49:20.031250,-3.58,75.47
123778,2018-06-29 09:49:20.062500,10.08,75.47
123779,2018-06-29 09:49:20.093750,19.05,75.47
123780,2018-06-29 09:49:20.125000,26.01,75.47
123781,2018-06-29 09:49:20.156250,32.18,75.47
123782,2018-06-29 09:49:20.187500,36.0,75.47
123783,2018-06-29 09:49:20.218750,36.5,75.47
123784,2018-06-29 09:49:20.250000,35.88,75.47
123785,2018-06-29 09:49:20.281250,36.4,75.47
123786,2018-06-29 09:49:20.312500,37.38,75.47
123787,2018-06-29 09:49:20.343750,36.58,75.47
123788,2018-06-29 09:49:20.375000,33.2,75.47
123789,2018-06-29 09:49:20.406250,28.45,75.47
123790,2018-06-29 09:49:20.437500,23.61,75.47
123791,2018-06-29 09:49:20.468750,17.68,75.47
123792,2018-06-29 09:49:20.500000,7.97,75.47
123793,2018-06-29 09:49:20.531250,-5.84,75.45
123794,2018-06-29 09:49:20.562500,-19.39,75.45
123795,2018-06-29 09:49:20.593750,-27.06,75.45
123796,2018-06-29 09:49:20.625000,-29.73,75.45
123797,2018-06-29 09:49:20.656250,-35.55,75.45
123798,2018-06-29 09:49:20.687500,-48.17,75.45
123799,2018-06-29 09:49:20.718750,-59.03,75.45
123800,2018-06-29 09:49:20.750000,-57.98,75.45
123801,2018-06-29 09:49:20.781250,-45.92,75.45
123802,2018-06-29 09:49:20.812500,-32.61,75.45
123803,2018-06-29 09:49:20.843750,-26.5,75.45
123804,2018-06-29 09:49:20.875000,-25.89,75.45
123805,2018-06-29 09:49:20.906250,-18.25,75.45
123806,2018-06-29 09:49:20.937500,5.79,75.45
123807,2018-06-29 09:49:20.968750,41.55,75.45
123808,2018-06-29 09:49:21.000000,81.1,75.45
123809,2018-06-29 09:49:21.031250,121.18,75.45
123810,2018-06-29 09:49:21.062500,148.2,75.45
123811,2018-06-29 09:49:21.093750,139.33,75.45
123812,2018-06-29 09:49:21.125000,92.84,75.45
123813,2018-06-29 09:49:21.156250,32.71,75.45
123814,2018-06-29 09:49:21.187500,-21.17,75.45
123815,2018-06-29 09:49:21.218750,-61.7,75.45
123816,2018-06-29 09:49:21.250000,-81.3,75.45
123817,2018-06-29 09:49:21.281250,-78.22,75.45
123818,2018-06-29 09:49:21.312500,-66.28,75.45
123819,2018-06-29 09:49:21.343750,-58.56,75.45
123820,2018-06-29 09:49:21.375000,-52.23,75.45
123821,2018-06-29 09:49:21.406250,-37.54,75.45
123822,2018-06-29 09:49:21.437500,-9.26,75.45
123823,2018-06-29 09:49:21.468750,33.28,75.45
123824,2018-06-29 09:49:21.500000,85.31,75.45
123825,2018-06-29 09:49:21.531250,133.12,75.88
123826,2018-06-29 09:49:21.562500,160.19,75.88
123827,2018-06-29 09:49:21.593750,156.19,75.88
123828,2018-06-29 09:49:21.625000,119.65,75.88
123829,2018-06-29 09:49:21.656250,58.56,75.88
123830,2018-06-29 09:49:21.687500,-10.45,75.88
123831,2018-06-29 09:49:21.718750,-71.26,75.88
123832,2018-06-29 09:49:21.750000,-116.85,75.88
123833,2018-06-29 09:49:21.781250,-146.29,75.88
123834,2018-06-29 09:49:21.812500,-159.37,75.88
123835,2018-06-29 09:49:21.843750,-159.33,75.88
123836,2018-06-29 09:49:21.875000,-154.47,75.88
123837,2018-06-29 09:49:21.906250,-152.06,75.88
123838,2018-06-29 09:49:21.937500,-152.51,75.88
123839,2018-06-29 09:49:21.968750,-149.22,75.88
123840,2018-06-29 09:49:22.000000,-134.56,75.88
123841,2018-06-29 09:49:22.031250,-107.52,75.88
123842,2018-06-29 09:49:22.062500,-75.04,75.88
123843,2018-06-29 09:49:22.093750,-45.5,75.88
123844,2018-06-29 09:49:22.125000,-22.41,75.88
123845,2018-06-29 09:49:22.156250,-5.5,75.88
123846,2018-06-29 09:49:22.187500,5.39,75.88
123847,2018-06-29 09:49:22.218750,11.3,75.88
123848,2018-06-29 09:49:22.250000,15.98,75.88
123849,2018-06-29 09:49:22.281250,22.55,75.88
123850,2018-06-29 09:49:22.312500,29.73,75.88
123851,2018-06-29 09:49:22.343750,34.59,75.88
123852,2018-06-29 09:49:22.375000,36.21,75.88
123853,2018-06-29 09:49:22.406250,35.12,75.88
123854,2018-06-29 09:49:22.437500,31.83,75.88
123855,2018-06-29 09:49:22.468750,27.06,75.88
123856,2018-06-29 09:49:22.500000,21.34,75.88
123857,2018-06-29 09:49:22.531250,14.56,76.28
123858,2018-06-29 09:49:22.562500,6.98,76.28
123859,2018-06-29 09:49:22.593750,-0.7,76.28
123860,2018-06-29 09:49:22.625000,-8.93,76.28
123861,2018-06-29 09:49:22.656250,-18.2,76.28
123862,2018-06-29 09:49:22.687500,-27.41,76.28
123863,2018-06-29 09:49:22.718750,-35.27,76.28
123864,2018-06-29 09:49:22.750000,-42.61,76.28
123865,2018-06-29 09:49:22.781250,-52.12,76.28
123866,2018-06-29 09:49:22.812500,-66.04,76.28
123867,2018-06-29 09:49:22.843750,-81.61,76.28
123868,2018-06-29 09:49:22.875000,-88.26,76.28
123869,2018-06-29 09:49:22.906250,-75.67,76.28
123870,2018-06-29 09:49:22.937500,-46.18,76.28
123871,2018-06-29 09:49:22.968750,-13.37,76.28
123872,2018-06-29 09:49:23.000000,12.29,76.28
123873,2018-06-29 09:49:23.031250,30.42,76.28
123874,2018-06-29 09:49:23.062500,44.4,76.28
123875,2018-06-29 09:49:23.093750,54.81,76.28
123876,2018-06-29 09:49:23.125000,60.95,76.28
123877,2018-06-29 09:49:23.156250,64.15,76.28
123878,2018-06-29 09:49:23.187500,66.23,76.28
123879,2018-06-29 09:49:23.218750,67.41,76.28
123880,2018-06-29 09:49:23.250000,67.91,76.28
123881,2018-06-29 09:49:23.281250,68.17,76.28
123882,2018-06-29 09:49:23.312500,66.62,76.28
123883,2018-06-29 09:49:23.343750,61.04,76.28
123884,2018-06-29 09:49:23.375000,52.2,76.28
123885,2018-06-29 09:49:23.406250,42.91,76.28
123886,2018-06-29 09:49:23.437500,34.6,76.28
123887,2018-06-29 09:49:23.468750,26.99,76.28
123888,2018-06-29 09:49:23.500000,19.65,76.28
123889,2018-06-29 09:49:23.531250,11.49,76.7
123890,2018-06-29 09:49:23.562500,0.81,76.7
123891,2018-06-29 09:49:23.593750,-11.82,76.7
123892,2018-06-29 09:49:23.625000,-23.4,76.7
123893,2018-06-29 09:49:23.656250,-32.94,76.7
123894,2018-06-29 09:49:23.687500,-43.32,76.7
123895,2018-06-29 09:49:23.718750,-57.26,76.7
123896,2018-06-29 09:49:23.750000,-72.77,76.7
123897,2018-06-29 09:49:23.781250,-81.85,76.7
123898,2018-06-29 09:49:23.812500,-74.67,76.7
123899,2018-06-29 09:49:23.843750,-49.44,76.7
123900,2018-06-29 09:49:23.875000,-16.38,76.7
123901,2018-06-29 09:49:23.906250,11.99,76.7
123902,2018-06-29 09:49:23.937500,31.33,76.7
123903,2018-06-29 09:49:23.968750,44.21,76.7
123904,2018-06-29 09:49:24.000000,53.13,76.7
123905,2018-06-29 09:49:24.031250,58.21,76.7
123906,2018-06-29 09:49:24.062500,59.46,76.7
123907,2018-06-29 09:49:24.093750,58.24,76.7
123908,2018-06-29 09:49:24.125000,56.13,76.7
123909,2018-06-29 09:49:24.156250,53.98,76.7
123910,2018-06-29 09:49:24.187500,52.38,76.7
123911,2018-06-29 09:49:24.218750,51.35,76.7
123912,2018-06-29 09:49:24.250000,48.72,76.7
123913,2018-06-29 09:49:24.281250,42.07,76.7
123914,2018-06-29 09:49:24.312500,32.4,76.7
123915,2018-06-29 09:49:24.343750,23.66,76.7
123916,2018-06-29 09:49:24.375000,17.93,76.7
123917,2018-06-29 09:49:24.406250,13.07,76.7
123918,2018-06-29 09:49:24.437500,6.31,76.7
123919,2018-06-29 09:49:24.468750,-2.42,76.7
123920,2018-06-29 09:49:24.500000,-11.46,76.7
123921,2018-06-29 09:49:24.531250,-19.9,77.12
123922,2018-06-29 09:49:24.562500,-28.96,77.12
123923,2018-06-29 09:49:24.593750,-41.52,77.12
123924,2018-06-29 09:49:24.625000,-57.51,77.12
123925,2018-06-29 09:49:24.656250,-68.81,77.12
123926,2018-06-29 09:49:24.687500,-63.69,77.12
123927,2018-06-29 09:49:24.718750,-39.93,77.12
123928,2018-06-29 09:49:24.750000,-8.49,77.12
123929,2018-06-29 09:49:24.781250,18.45,77.12
123930,2018-06-29 09:49:24.812500,37.45,77.12
123931,2018-06-29 09:49:24.843750,50.31,77.12
123932,2018-06-29 09:49:24.875000,57.62,77.12
123933,2018-06-29 09:49:24.906250,59.71,77.12
123934,2018-06-29 09:49:24.937500,59.55,77.12
123935,2018-06-29 09:49:24.968750,60.68,77.12
123936,2018-06-29 09:49:25.000000,64.08,77.12
123937,2018-06-29 09:49:25.031250,67.88,77.12
123938,2018-06-29 09:49:25.062500,69.34,77.12
123939,2018-06-29 09:49:25.093750,66.63,77.12
123940,2018-06-29 09:49:25.125000,59.21,77.12
123941,2018-06-29 09:49:25.156250,47.92,77.12
123942,2018-06-29 09:49:25.187500,35.07,77.12
123943,2018-06-29 09:49:25.218750,23.62,77.12
123944,2018-06-29 09:49:25.250000,14.73,77.12
123945,2018-06-29 09:49:25.281250,7.19,77.12
123946,2018-06-29 09:49:25.312500,-1.0,77.12
123947,2018-06-29 09:49:25.343750,-10.72,77.12
123948,2018-06-29 09:49:25.375000,-20.9,77.12
123949,2018-06-29 09:49:25.406250,-30.22,77.12
123950,2018-06-29 09:49:25.437500,-39.52,77.12
123951,2018-06-29 09:49:25.468750,-50.94,77.12
123952,2018-06-29 09:49:25.500000,-65.44,77.12
123953,2018-06-29 09:49:25.531250,-79.94,77.63
123954,2018-06-29 09:49:25.562500,-86.14,77.63
123955,2018-06-29 09:49:25.593750,-75.15,77.63
123956,2018-06-29 09:49:25.625000,-48.03,77.63
123957,2018-06-29 09:49:25.656250,-17.25,77.63
123958,2018-06-29 09:49:25.687500,5.97,77.63
123959,2018-06-29 09:49:25.718750,20.66,77.63
123960,2018-06-29 09:49:25.750000,30.4,77.63
123961,2018-06-29 09:49:25.781250,36.2,77.63
123962,2018-06-29 09:49:25.812500,38.22,77.63
123963,2018-06-29 09:49:25.843750,38.82,77.63
123964,2018-06-29 09:49:25.875000,40.0,77.63
123965,2018-06-29 09:49:25.906250,41.03,77.63
123966,2018-06-29 09:49:25.937500,41.25,77.63
123967,2018-06-29 09:49:25.968750,41.32,77.63
123968,2018-06-29 09:49:26.000000,39.81,77.63
123969,2018-06-29 09:49:26.031250,33.82,77.63
123970,2018-06-29 09:49:26.062500,24.38,77.63
123971,2018-06-29 09:49:26.093750,15.85,77.63
123972,2018-06-29 09:49:26.125000,9.41,77.63
123973,2018-06-29 09:49:26.156250,2.15,77.63
123974,2018-06-29 09:49:26.187500,-7.76,77.63
123975,2018-06-29 09:49:26.218750,-18.41,77.63
123976,2018-06-29 09:49:26.250000,-27.15,77.63
123977,2018-06-29 09:49:26.281250,-34.59,77.63
123978,2018-06-29 09:49:26.312500,-44.57,77.63
123979,2018-06-29 09:49:26.343750,-58.29,77.63
123980,2018-06-29 09:49:26.375000,-68.52,77.63
123981,2018-06-29 09:49:26.406250,-64.22,77.63
123982,2018-06-29 09:49:26.437500,-42.93,77.63
123983,2018-06-29 09:49:26.468750,-14.3,77.63
123984,2018-06-29 09:49:26.500000,10.32,77.63
123985,2018-06-29 09:49:26.531250,26.85,78.12
123986,2018-06-29 09:49:26.562500,36.2,78.12
123987,2018-06-29 09:49:26.593750,39.22,78.12
123988,2018-06-29 09:49:26.625000,36.95,78.12
123989,2018-06-29 09:49:26.656250,32.54,78.12
123990,2018-06-29 09:49:26.687500,29.6,78.12
123991,2018-06-29 09:49:26.718750,28.82,78.12
123992,2018-06-29 09:49:26.750000,28.47,78.12
123993,2018-06-29 09:49:26.781250,27.73,78.12
123994,2018-06-29 09:49:26.812500,26.16,78.12
123995,2018-06-29 09:49:26.843750,21.73,78.12
123996,2018-06-29 09:49:26.875000,13.64,78.12
123997,2018-06-29 09:49:26.906250,4.71,78.12
123998,2018-06-29 09:49:26.937500,-3.06,78.12
123999,2018-06-29 09:49:26.968750,-11.59,78.12
124000,2018-06-29 09:49:27.000000,-22.19,78.12
124001,2018-06-29 09:49:27.031250,-32.69,78.12
124002,2018-06-29 09:49:27.062500,-41.26,78.12
124003,2018-06-29 09:49:27.093750,-49.37,78.12
124004,2018-06-29 09:49:27.125000,-59.93,78.12
124005,2018-06-29 09:49:27.156250,-73.13,78.12
124006,2018-06-29 09:49:27.187500,-81.77,78.12
124007,2018-06-29 09:49:27.218750,-74.72,78.12
124008,2018-06-29 09:49:27.250000,-49.62,78.12
124009,2018-06-29 09:49:27.281250,-17.87,78.12
124010,2018-06-29 09:49:27.312500,8.32,78.12
124011,2018-06-29 09:49:27.343750,26.77,78.12
124012,2018-06-29 09:49:27.375000,39.86,78.12
124013,2018-06-29 09:49:27.406250,47.27,78.12
124014,2018-06-29 09:49:27.437500,49.35,78.12
124015,2018-06-29 09:49:27.468750,49.73,78.12
124016,2018-06-29 09:49:27.500000,50.53,78.12
124017,2018-06-29 09:49:27.531250,49.86,78.6
124018,2018-06-29 09:49:27.562500,46.17,78.6
124019,2018-06-29 09:49:27.593750,41.19,78.6
124020,2018-06-29 09:49:27.625000,36.22,78.6
124021,2018-06-29 09:49:27.656250,29.28,78.6
124022,2018-06-29 09:49:27.687500,18.36,78.6
124023,2018-06-29 09:49:27.718750,5.4,78.6
124024,2018-06-29 09:49:27.750000,-5.92,78.6
124025,2018-06-29 09:49:27.781250,-15.11,78.6
124026,2018-06-29 09:49:27.812500,-24.63,78.6
124027,2018-06-29 09:49:27.843750,-36.38,78.6
124028,2018-06-29 09:49:27.875000,-50.17,78.6
124029,2018-06-29 09:49:27.906250,-64.74,78.6
124030,2018-06-29 09:49:27.937500,-79.58,78.6
124031,2018-06-29 09:49:27.968750,-96.06,78.6
124032,2018-06-29 09:49:28.000000,-115.68,78.6
124033,2018-06-29 09:49:28.031250,-134.98,78.6
124034,2018-06-29 09:49:28.062500,-143.03,78.6
124035,2018-06-29 09:49:28.093750,-128.2,78.6
124036,2018-06-29 09:49:28.125000,-90.75,78.6
124037,2018-06-29 09:49:28.156250,-46.16,78.6
124038,2018-06-29 09:49:28.187500,-12.31,78.6
124039,2018-06-29 09:49:28.218750,6.28,78.6
124040,2018-06-29 09:49:28.250000,18.08,78.6
124041,2018-06-29 09:49:28.281250,29.73,78.6
124042,2018-06-29 09:49:28.312500,36.21,78.6
124043,2018-06-29 09:49:28.343750,27.51,78.6
124044,2018-06-29 09:49:28.375000,-0.78,78.6
124045,2018-06-29 09:49:28.406250,-43.07,78.6
124046,2018-06-29 09:49:28.437500,-80.07,78.6
124047,2018-06-29 09:49:28.468750,-84.75,78.6
124048,2018-06-29 09:49:28.500000,-45.37,78.6
124049,2018-06-29 09:49:28.531250,25.74,79.13
124050,2018-06-29 09:49:28.562500,112.82,79.13
124051,2018-06-29 09:49:28.593750,203.95,79.13
124052,2018-06-29 09:49:28.625000,275.41,79.13
124053,2018-06-29 09:49:28.656250,301.85,79.13
124054,2018-06-29 09:49:28.687500,286.05,79.13
124055,2018-06-29 09:49:28.718750,252.72,79.13
124056,2018-06-29 09:49:28.750000,217.96,79.13
124057,2018-06-29 09:49:28.781250,184.44,79.13
124058,2018-06-29 09:49:28.812500,154.06,79.13
124059,2018-06-29 09:49:28.843750,127.8,79.13
124060,2018-06-29 09:49:28.875000,101.19,79.13
124061,2018-06-29 09:49:28.906250,70.18,79.13
124062,2018-06-29 09:49:28.937500,37.9,79.13
124063,2018-06-29 09:49:28.968750,10.53,79.13
124064,2018-06-29 09:49:29.000000,-11.38,79.13
124065,2018-06-29 09:49:29.031250,-32.33,79.13
124066,2018-06-29 09:49:29.062500,-53.63,79.13
124067,2018-06-29 09:49:29.093750,-72.52,79.13
124068,2018-06-29 09:49:29.125000,-88.34,79.13
124069,2018-06-29 09:49:29.156250,-103.21,79.13
124070,2018-06-29 09:49:29.187500,-116.78,79.13
124071,2018-06-29 09:49:29.218750,-126.94,79.13
124072,2018-06-29 09:49:29.250000,-133.7,79.13
124073,2018-06-29 09:49:29.281250,-137.58,79.13
124074,2018-06-29 09:49:29.312500,-137.08,79.13
124075,2018-06-29 09:49:29.343750,-130.39,79.13
124076,2018-06-29 09:49:29.375000,-115.37,79.13
124077,2018-06-29 09:49:29.406250,-90.38,79.13
124078,2018-06-29 09:49:29.437500,-58.54,79.13
124079,2018-06-29 09:49:29.468750,-26.91,79.13
124080,2018-06-29 09:49:29.500000,-0.77,79.13
124081,2018-06-29 09:49:29.531250,16.6,79.63
124082,2018-06-29 09:49:29.562500,23.35,79.63
124083,2018-06-29 09:49:29.593750,22.94,79.63
124084,2018-06-29 09:49:29.625000,22.07,79.63
124085,2018-06-29 09:49:29.656250,23.28,79.63
124086,2018-06-29 09:49:29.687500,25.19,79.63
124087,2018-06-29 09:49:29.718750,26.91,79.63
124088,2018-06-29 09:49:29.750000,27.96,79.63
124089,2018-06-29 09:49:29.781250,26.81,79.63
124090,2018-06-29 09:49:29.812500,22.06,79.63
124091,2018-06-29 09:49:29.843750,15.55,79.63
124092,2018-06-29 09:49:29.875000,12.9,79.63
124093,2018-06-29 09:49:29.906250,18.24,79.63
124094,2018-06-29 09:49:29.937500,28.8,79.63
124095,2018-06-29 09:49:29.968750,38.4,79.63
124096,2018-06-29 09:49:30.000000,45.11,79.63
124097,2018-06-29 09:49:30.031250,52.04,79.63
124098,2018-06-29 09:49:30.062500,61.37,79.63
124099,2018-06-29 09:49:30.093750,70.32,79.63
124100,2018-06-29 09:49:30.125000,73.38,79.63
124101,2018-06-29 09:49:30.156250,67.78,79.63
124102,2018-06-29 09:49:30.187500,55.92,79.63
124103,2018-06-29 09:49:30.218750,41.54,79.63
124104,2018-06-29 09:49:30.250000,24.42,79.63
124105,2018-06-29 09:49:30.281250,2.01,79.63
124106,2018-06-29 09:49:30.312500,-24.09,79.63
124107,2018-06-29 09:49:30.343750,-47.84,79.63
124108,2018-06-29 09:49:30.375000,-66.0,79.63
124109,2018-06-29 09:49:30.406250,-80.71,79.63
124110,2018-06-29 09:49:30.437500,-93.74,79.63
124111,2018-06-29 09:49:30.468750,-100.92,79.63
124112,2018-06-29 09:49:30.500000,-95.39,79.63
124113,2018-06-29 09:49:30.531250,-76.25,80.17
124114,2018-06-29 09:49:30.562500,-50.59,80.17
124115,2018-06-29 09:49:30.593750,-25.82,80.17
124116,2018-06-29 09:49:30.625000,-3.65,80.17
124117,2018-06-29 09:49:30.656250,17.19,80.17
124118,2018-06-29 09:49:30.687500,35.63,80.17
124119,2018-06-29 09:49:30.718750,47.87,80.17
124120,2018-06-29 09:49:30.750000,51.47,80.17
124121,2018-06-29 09:49:30.781250,47.71,80.17
124122,2018-06-29 09:49:30.812500,38.87,80.17
124123,2018-06-29 09:49:30.843750,27.05,80.17
124124,2018-06-29 09:49:30.875000,16.99,80.17
124125,2018-06-29 09:49:30.906250,13.71,80.17
124126,2018-06-29 09:49:30.937500,16.51,80.17
124127,2018-06-29 09:49:30.968750,20.36,80.17
124128,2018-06-29 09:49:31.000000,23.01,80.17
124129,2018-06-29 09:49:31.031250,25.01,80.17
124130,2018-06-29 09:49:31.062500,24.57,80.17
124131,2018-06-29 09:49:31.093750,19.83,80.17
124132,2018-06-29 09:49:31.125000,13.79,80.17
124133,2018-06-29 09:49:31.156250,9.88,80.17
124134,2018-06-29 09:49:31.187500,5.7,80.17
124135,2018-06-29 09:49:31.218750,-2.04,80.17
124136,2018-06-29 09:49:31.250000,-12.0,80.17
124137,2018-06-29 09:49:31.281250,-22.97,80.17
124138,2018-06-29 09:49:31.312500,-36.54,80.17
124139,2018-06-29 09:49:31.343750,-53.46,80.17
124140,2018-06-29 09:49:31.375000,-72.63,80.17
124141,2018-06-29 09:49:31.406250,-89.84,80.17
124142,2018-06-29 09:49:31.437500,-95.56,80.17
124143,2018-06-29 09:49:31.468750,-84.52,80.17
124144,2018-06-29 09:49:31.500000,-66.22,80.17
124145,2018-06-29 09:49:31.531250,-53.64,80.7
124146,2018-06-29 09:49:31.562500,-46.81,80.7
124147,2018-06-29 09:49:31.593750,-38.76,80.7
124148,2018-06-29 09:49:31.625000,-29.33,80.7
124149,2018-06-29 09:49:31.656250,-22.76,80.7
124150,2018-06-29 09:49:31.687500,-20.45,80.7
124151,2018-06-29 09:49:31.718750,-22.27,80.7
124152,2018-06-29 09:49:31.750000,-27.26,80.7
124153,2018-06-29 09:49:31.781250,-31.47,80.7
124154,2018-06-29 09:49:31.812500,-31.31,80.7
124155,2018-06-29 09:49:31.843750,-28.28,80.7
124156,2018-06-29 09:49:31.875000,-25.5,80.7
124157,2018-06-29 09:49:31.906250,-22.2,80.7
124158,2018-06-29 09:49:31.937500,-16.69,80.7
124159,2018-06-29 09:49:31.968750,-11.13,80.7
124160,2018-06-29 09:49:32.000000,-9.46,80.7
124161,2018-06-29 09:49:32.031250,-12.36,80.7
124162,2018-06-29 09:49:32.062500,-17.17,80.7
124163,2018-06-29 09:49:32.093750,-20.83,80.7
124164,2018-06-29 09:49:32.125000,-22.21,80.7
124165,2018-06-29 09:49:32.156250,-22.23,80.7
124166,2018-06-29 09:49:32.187500,-22.21,80.7
124167,2018-06-29 09:49:32.218750,-22.69,80.7
124168,2018-06-29 09:49:32.250000,-24.38,80.7
124169,2018-06-29 09:49:32.281250,-29.28,80.7
124170,2018-06-29 09:49:32.312500,-39.23,80.7
124171,2018-06-29 09:49:32.343750,-51.67,80.7
124172,2018-06-29 09:49:32.375000,-57.73,80.7
124173,2018-06-29 09:49:32.406250,-48.97,80.7
124174,2018-06-29 09:49:32.437500,-27.16,80.7
124175,2018-06-29 09:49:32.468750,-3.02,80.7
124176,2018-06-29 09:49:32.500000,15.47,80.7
124177,2018-06-29 09:49:32.531250,28.21,81.3
124178,2018-06-29 09:49:32.562500,37.26,81.3
124179,2018-06-29 09:49:32.593750,42.62,81.3
124180,2018-06-29 09:49:32.625000,44.29,81.3
124181,2018-06-29 09:49:32.656250,43.49,81.3
124182,2018-06-29 09:49:32.687500,41.4,81.3
124183,2018-06-29 09:49:32.718750,38.98,81.3
124184,2018-06-29 09:49:32.750000,37.55,81.3
124185,2018-06-29 09:49:32.781250,38.15,81.3
124186,2018-06-29 09:49:32.812500,39.56,81.3
124187,2018-06-29 09:49:32.843750,38.77,81.3
124188,2018-06-29 09:49:32.875000,34.44,81.3
124189,2018-06-29 09:49:32.906250,28.56,81.3
124190,2018-06-29 09:49:32.937500,22.93,81.3
124191,2018-06-29 09:49:32.968750,16.36,81.3
124192,2018-06-29 09:49:33.000000,7.96,81.3
124193,2018-06-29 09:49:33.031250,0.56,81.3
124194,2018-06-29 09:49:33.062500,-2.51,81.3
124195,2018-06-29 09:49:33.093750,-2.1,81.3
