,Time,ppg,hr
124800,2018-06-29 09:49:52.000000,-60.87,80.25
124801,2018-06-29 09:49:52.031250,-48.51,80.25
124802,2018-06-29 09:49:52.062500,-32.48,80.25
124803,2018-06-29 09:49:52.093750,-19.75,80.25
124804,2018-06-29 09:49:52.125000,-12.15,80.25
124805,2018-06-29 09:49:52.156250,-7.82,80.25
124806,2018-06-29 09:49:52.187500,-5.04,80.25
124807,2018-06-29 09:49:52.218750,-3.11,80.25
124808,2018-06-29 09:49:52.250000,-1.06,80.25
124809,2018-06-29 09:49:52.281250,2.47,80.25
124810,2018-06-29 09:49:52.312500,7.79,80.25
124811,2018-06-29 09:49:52.343750,14.78,80.25
124812,2018-06-29 09:49:52.375000,24.07,80.25
124813,2018-06-29 09:49:52.406250,33.71,80.25
124814,2018-06-29 09:49:52.437500,36.84,80.25
124815,2018-06-29 09:49:52.468750,28.74,80.25
124816,2018-06-29 09:49:52.500000,13.54,80.25
124817,2018-06-29 09:49:52.531250,-1.2,80.22
124818,2018-06-29 09:49:52.562500,-13.43,80.22
124819,2018-06-29 09:49:52.593750,-26.61,80.22
124820,2018-06-29 09:49:52.625000,-44.56,80.22
124821,2018-06-29 09:49:52.656250,-68.96,80.22
124822,2018-06-29 09:49:52.687500,-96.86,80.22
124823,2018-06-29 09:49:52.718750,-118.4,80.22
124824,2018-06-29 09:49:52.750000,-122.65,80.22
124825,2018-06-29 09:49:52.781250,-108.54,80.22
124826,2018-06-29 09:49:52.812500,-84.1,80.22
124827,2018-06-29 09:49:52.843750,-55.49,80.22
124828,2018-06-29 09:49:52.875000,-23.61,80.22
124829,2018-06-29 09:49:52.906250,9.61,80.22
124830,2018-06-29 09:49:52.937500,39.51,80.22
124831,2018-06-29 09:49:52.968750,63.36,80.22
124832,2018-06-29 09:49:53.000000,81.89,80.22
124833,2018-06-29 09:49:53.031250,95.92,80.22
124834,2018-06-29 09:49:53.062500,105.38,80.22
124835,2018-06-29 09:49:53.093750,111.77,80.22
124836,2018-06-29 09:49:53.125000,117.52,80.22
124837,2018-06-29 09:49:53.156250,122.15,80.22
124838,2018-06-29 09:49:53.187500,122.86,80.22
124839,2018-06-29 09:49:53.218750,118.46,80.22
124840,2018-06-29 09:49:53.250000,109.87,80.22
124841,2018-06-29 09:49:53.281250,98.1,80.22
124842,2018-06-29 09:49:53.312500,84.84,80.22
124843,2018-06-29 09:49:53.343750,72.87,80.22
124844,2018-06-29 09:49:53.375000,63.89,80.22
124845,2018-06-29 09:49:53.406250,56.78,80.22
124846,2018-06-29 09:49:53.437500,49.09,80.22
124847,2018-06-29 09:49:53.468750,39.46,80.22
124848,2018-06-29 09:49:53.500000,27.31,80.22
124849,2018-06-29 09:49:53.531250,12.63,80.3
124850,2018-06-29 09:49:53.562500,-2.25,80.3
124851,2018-06-29 09:49:53.593750,-13.98,80.3
124852,2018-06-29 09:49:53.625000,-22.47,80.3
124853,2018-06-29 09:49:53.656250,-29.96,80.3
124854,2018-06-29 09:49:53.687500,-35.27,80.3
124855,2018-06-29 09:49:53.718750,-33.34,80.3
124856,2018-06-29 09:49:53.750000,-20.97,80.3
124857,2018-06-29 09:49:53.781250,-1.51,80.3
124858,2018-06-29 09:49:53.812500,17.16,80.3
124859,2018-06-29 09:49:53.843750,30.47,80.3
124860,2018-06-29 09:49:53.875000,41.2,80.3
124861,2018-06-29 09:49:53.906250,53.11,80.3
124862,2018-06-29 09:49:53.937500,63.68,80.3
124863,2018-06-29 09:49:53.968750,68.01,80.3
124864,2018-06-29 09:49:54.000000,66.73,80.3
124865,2018-06-29 09:49:54.031250,64.9,80.3
124866,2018-06-29 09:49:54.062500,64.05,80.3
124867,2018-06-29 09:49:54.093750,59.07,80.3
124868,2018-06-29 09:49:54.125000,45.61,80.3
124869,2018-06-29 09:49:54.156250,26.5,80.3
124870,2018-06-29 09:49:54.187500,5.83,80.3
124871,2018-06-29 09:49:54.218750,-19.85,80.3
124872,2018-06-29 09:49:54.250000,-55.15,80.3
124873,2018-06-29 09:49:54.281250,-95.51,80.3
124874,2018-06-29 09:49:54.312500,-135.06,80.3
124875,2018-06-29 09:49:54.343750,-173.37,80.3
124876,2018-06-29 09:49:54.375000,-207.64,80.3
124877,2018-06-29 09:49:54.406250,-240.15,80.3
124878,2018-06-29 09:49:54.437500,-281.72,80.3
124879,2018-06-29 09:49:54.468750,-315.42,80.3
124880,2018-06-29 09:49:54.500000,-291.41,80.3
124881,2018-06-29 09:49:54.531250,-198.37,80.23
124882,2018-06-29 09:49:54.562500,-93.27,80.23
124883,2018-06-29 09:49:54.593750,-28.7,80.23
124884,2018-06-29 09:49:54.625000,-2.68,80.23
124885,2018-06-29 09:49:54.656250,6.11,80.23
124886,2018-06-29 09:49:54.687500,6.46,80.23
124887,2018-06-29 09:49:54.718750,5.48,80.23
124888,2018-06-29 09:49:54.750000,13.36,80.23
124889,2018-06-29 09:49:54.781250,28.67,80.23
124890,2018-06-29 09:49:54.812500,37.84,80.23
124891,2018-06-29 09:49:54.843750,35.74,80.23
124892,2018-06-29 09:49:54.875000,30.11,80.23
124893,2018-06-29 09:49:54.906250,22.36,80.23
124894,2018-06-29 09:49:54.937500,5.97,80.23
124895,2018-06-29 09:49:54.968750,-15.68,80.23
124896,2018-06-29 09:49:55.000000,-32.21,80.23
124897,2018-06-29 09:49:55.031250,-43.81,80.23
124898,2018-06-29 09:49:55.062500,-56.95,80.23
124899,2018-06-29 09:49:55.093750,-70.71,80.23
124900,2018-06-29 09:49:55.125000,-81.18,80.23
124901,2018-06-29 09:49:55.156250,-90.02,80.23
124902,2018-06-29 09:49:55.187500,-99.92,80.23
124903,2018-06-29 09:49:55.218750,-107.77,80.23
124904,2018-06-29 09:49:55.250000,-105.79,80.23
124905,2018-06-29 09:49:55.281250,-88.9,80.23
124906,2018-06-29 09:49:55.312500,-59.59,80.23
124907,2018-06-29 09:49:55.343750,-25.1,80.23
124908,2018-06-29 09:49:55.375000,8.68,80.23
124909,2018-06-29 09:49:55.406250,39.24,80.23
124910,2018-06-29 09:49:55.437500,65.26,80.23
124911,2018-06-29 09:49:55.468750,84.93,80.23
124912,2018-06-29 09:49:55.500000,97.05,80.23
124913,2018-06-29 09:49:55.531250,102.69,80.17
124914,2018-06-29 09:49:55.562500,104.26,80.17
124915,2018-06-29 09:49:55.593750,103.5,80.17
124916,2018-06-29 09:49:55.625000,101.87,80.17
124917,2018-06-29 09:49:55.656250,99.68,80.17
124918,2018-06-29 09:49:55.687500,93.23,80.17
124919,2018-06-29 09:49:55.718750,77.69,80.17
124920,2018-06-29 09:49:55.750000,53.07,80.17
124921,2018-06-29 09:49:55.781250,24.35,80.17
124922,2018-06-29 09:49:55.812500,-1.95,80.17
124923,2018-06-29 09:49:55.843750,-20.28,80.17
124924,2018-06-29 09:49:55.875000,-29.33,80.17
124925,2018-06-29 09:49:55.906250,-32.49,80.17
124926,2018-06-29 09:49:55.937500,-33.27,80.17
124927,2018-06-29 09:49:55.968750,-31.81,80.17
124928,2018-06-29 09:49:56.000000,-24.26,80.17
124929,2018-06-29 09:49:56.031250,-5.04,80.17
124930,2018-06-29 09:49:56.062500,25.62,80.17
124931,2018-06-29 09:49:56.093750,58.75,80.17
124932,2018-06-29 09:49:56.125000,85.45,80.17
124933,2018-06-29 09:49:56.156250,103.51,80.17
124934,2018-06-29 09:49:56.187500,112.06,80.17
124935,2018-06-29 09:49:56.218750,108.06,80.17
124936,2018-06-29 09:49:56.250000,92.86,80.17
124937,2018-06-29 09:49:56.281250,73.71,80.17
124938,2018-06-29 09:49:56.312500,54.04,80.17
124939,2018-06-29 09:49:56.343750,29.15,80.17
124940,2018-06-29 09:49:56.375000,-5.54,80.17
124941,2018-06-29 09:49:56.406250,-45.1,80.17
124942,2018-06-29 09:49:56.437500,-76.26,80.17
124943,2018-06-29 09:49:56.468750,-87.48,80.17
124944,2018-06-29 09:49:56.500000,-77.66,80.17
124945,2018-06-29 09:49:56.531250,-55.96,80.12
124946,2018-06-29 09:49:56.562500,-34.66,80.12
124947,2018-06-29 09:49:56.593750,-22.54,80.12
124948,2018-06-29 09:49:56.625000,-20.41,80.12
124949,2018-06-29 09:49:56.656250,-22.15,80.12
124950,2018-06-29 09:49:56.687500,-21.76,80.12
124951,2018-06-29 09:49:56.718750,-19.13,80.12
124952,2018-06-29 09:49:56.750000,-18.22,80.12
124953,2018-06-29 09:49:56.781250,-21.6,80.12
124954,2018-06-29 09:49:56.812500,-25.26,80.12
124955,2018-06-29 09:49:56.843750,-21.1,80.12
124956,2018-06-29 09:49:56.875000,-6.43,80.12
124957,2018-06-29 09:49:56.906250,12.22,80.12
124958,2018-06-29 09:49:56.937500,27.53,80.12
124959,2018-06-29 09:49:56.968750,38.48,80.12
124960,2018-06-29 09:49:57.000000,46.94,80.12
124961,2018-06-29 09:49:57.031250,52.72,80.12
124962,2018-06-29 09:49:57.062500,54.7,80.12
124963,2018-06-29 09:49:57.093750,53.28,80.12
124964,2018-06-29 09:49:57.125000,49.72,80.12
124965,2018-06-29 09:49:57.156250,45.15,80.12
124966,2018-06-29 09:49:57.187500,40.77,80.12
124967,2018-06-29 09:49:57.218750,37.16,80.12
124968,2018-06-29 09:49:57.250000,33.29,80.12
124969,2018-06-29 09:49:57.281250,27.98,80.12
124970,2018-06-29 09:49:57.312500,21.18,80.12
124971,2018-06-29 09:49:57.343750,13.47,80.12
124972,2018-06-29 09:49:57.375000,5.45,80.12
124973,2018-06-29 09:49:57.406250,-1.99,80.12
124974,2018-06-29 09:49:57.437500,-7.98,80.12
124975,2018-06-29 09:49:57.468750,-12.26,80.12
124976,2018-06-29 09:49:57.500000,-15.21,80.12
124977,2018-06-29 09:49:57.531250,-17.28,80.1
124978,2018-06-29 09:49:57.562500,-18.08,80.1
124979,2018-06-29 09:49:57.593750,-15.28,80.1
124980,2018-06-29 09:49:57.625000,-5.27,80.1
124981,2018-06-29 09:49:57.656250,12.28,80.1
124982,2018-06-29 09:49:57.687500,32.61,80.1
124983,2018-06-29 09:49:57.718750,50.58,80.1
124984,2018-06-29 09:49:57.750000,64.91,80.1
124985,2018-06-29 09:49:57.781250,75.21,80.1
124986,2018-06-29 09:49:57.812500,79.11,80.1
124987,2018-06-29 09:49:57.843750,75.09,80.1
124988,2018-06-29 09:49:57.875000,65.27,80.1
124989,2018-06-29 09:49:57.906250,54.5,80.1
124990,2018-06-29 09:49:57.937500,46.66,80.1
124991,2018-06-29 09:49:57.968750,40.03,80.1
124992,2018-06-29 09:49:58.000000,27.55,80.1
124993,2018-06-29 09:49:58.031250,4.1,80.1
124994,2018-06-29 09:49:58.062500,-27.74,80.1
124995,2018-06-29 09:49:58.093750,-59.39,80.1
124996,2018-06-29 09:49:58.125000,-81.26,80.1
124997,2018-06-29 09:49:58.156250,-87.76,80.1
124998,2018-06-29 09:49:58.187500,-80.89,80.1
124999,2018-06-29 09:49:58.218750,-67.29,80.1
125000,2018-06-29 09:49:58.250000,-52.02,80.1
125001,2018-06-29 09:49:58.281250,-36.98,80.1
125002,2018-06-29 09:49:58.312500,-23.16,80.1
125003,2018-06-29 09:49:58.343750,-10.24,80.1
125004,2018-06-29 09:49:58.375000,7.38,80.1
125005,2018-06-29 09:49:58.406250,39.69,80.1
125006,2018-06-29 09:49:58.437500,90.0,80.1
125007,2018-06-29 09:49:58.468750,147.01,80.1
125008,2018-06-29 09:49:58.500000,195.3,80.1
125009,2018-06-29 09:49:58.531250,230.5,80.03
125010,2018-06-29 09:49:58.562500,257.7,80.03
125011,2018-06-29 09:49:58.593750,281.57,80.03
125012,2018-06-29 09:49:58.625000,299.11,80.03
125013,2018-06-29 09:49:58.656250,296.84,80.03
125014,2018-06-29 09:49:58.687500,262.46,80.03
125015,2018-06-29 09:49:58.718750,204.27,80.03
125016,2018-06-29 09:49:58.750000,145.74,80.03
125017,2018-06-29 09:49:58.781250,98.48,80.03
125018,2018-06-29 09:49:58.812500,56.49,80.03
125019,2018-06-29 09:49:58.843750,14.25,80.03
125020,2018-06-29 09:49:58.875000,-27.26,80.03
125021,2018-06-29 09:49:58.906250,-70.48,80.03
125022,2018-06-29 09:49:58.937500,-123.2,80.03
125023,2018-06-29 09:49:58.968750,-190.63,80.03
125024,2018-06-29 09:49:59.000000,-266.85,80.03
125025,2018-06-29 09:49:59.031250,-330.16,80.03
125026,2018-06-29 09:49:59.062500,-356.59,80.03
125027,2018-06-29 09:49:59.093750,-343.93,80.03
125028,2018-06-29 09:49:59.125000,-310.77,80.03
125029,2018-06-29 09:49:59.156250,-270.67,80.03
125030,2018-06-29 09:49:59.187500,-221.37,80.03
125031,2018-06-29 09:49:59.218750,-159.62,80.03
125032,2018-06-29 09:49:59.250000,-93.67,80.03
125033,2018-06-29 09:49:59.281250,-36.59,80.03
125034,2018-06-29 09:49:59.312500,8.99,80.03
125035,2018-06-29 09:49:59.343750,52.3,80.03
125036,2018-06-29 09:49:59.375000,96.24,80.03
125037,2018-06-29 09:49:59.406250,128.72,80.03
125038,2018-06-29 09:49:59.437500,140.38,80.03
125039,2018-06-29 09:49:59.468750,139.88,80.03
125040,2018-06-29 09:49:59.500000,141.8,80.03
125041,2018-06-29 09:49:59.531250,149.39,80.0
125042,2018-06-29 09:49:59.562500,158.72,80.0
125043,2018-06-29 09:49:59.593750,168.61,80.0
125044,2018-06-29 09:49:59.625000,174.76,80.0
125045,2018-06-29 09:49:59.656250,166.62,80.0
125046,2018-06-29 09:49:59.687500,142.54,80.0
125047,2018-06-29 09:49:59.718750,116.03,80.0
125048,2018-06-29 09:49:59.750000,95.15,80.0
125049,2018-06-29 09:49:59.781250,70.05,80.0
125050,2018-06-29 09:49:59.812500,29.79,80.0
125051,2018-06-29 09:49:59.843750,-22.6,80.0
125052,2018-06-29 09:49:59.875000,-76.64,80.0
125053,2018-06-29 09:49:59.906250,-123.02,80.0
125054,2018-06-29 09:49:59.937500,-156.82,80.0
125055,2018-06-29 09:49:59.968750,-181.48,80.0
125056,2018-06-29 09:50:00.000000,-204.75,80.0
125057,2018-06-29 09:50:00.031250,-226.81,80.0
125058,2018-06-29 09:50:00.062500,-243.24,80.0
125059,2018-06-29 09:50:00.093750,-260.01,80.0
125060,2018-06-29 09:50:00.125000,-295.89,80.0
125061,2018-06-29 09:50:00.156250,-366.48,80.0
125062,2018-06-29 09:50:00.187500,-458.36,80.0
125063,2018-06-29 09:50:00.218750,-522.91,80.0
125064,2018-06-29 09:50:00.250000,-518.07,80.0
125065,2018-06-29 09:50:00.281250,-452.77,80.0
125066,2018-06-29 09:50:00.312500,-365.99,80.0
125067,2018-06-29 09:50:00.343750,-277.97,80.0
125068,2018-06-29 09:50:00.375000,-190.89,80.0
125069,2018-06-29 09:50:00.406250,-112.49,80.0
125070,2018-06-29 09:50:00.437500,-46.31,80.0
125071,2018-06-29 09:50:00.468750,22.78,80.0
125072,2018-06-29 09:50:00.500000,110.56,80.0
125073,2018-06-29 09:50:00.531250,204.83,79.93
125074,2018-06-29 09:50:00.562500,264.85,79.93
125075,2018-06-29 09:50:00.593750,257.4,79.93
125076,2018-06-29 09:50:00.625000,189.98,79.93
125077,2018-06-29 09:50:00.656250,97.5,79.93
125078,2018-06-29 09:50:00.687500,3.41,79.93
125079,2018-06-29 09:50:00.718750,-94.85,79.93
125080,2018-06-29 09:50:00.750000,-201.51,79.93
125081,2018-06-29 09:50:00.781250,-291.82,79.93
125082,2018-06-29 09:50:00.812500,-323.16,79.93
125083,2018-06-29 09:50:00.843750,-282.82,79.93
125084,2018-06-29 09:50:00.875000,-202.48,79.93
125085,2018-06-29 09:50:00.906250,-117.98,79.93
125086,2018-06-29 09:50:00.937500,-43.28,79.93
125087,2018-06-29 09:50:00.968750,16.53,79.93
125088,2018-06-29 09:50:01.000000,60.02,79.93
125089,2018-06-29 09:50:01.031250,97.08,79.93
125090,2018-06-29 09:50:01.062500,139.34,79.93
125091,2018-06-29 09:50:01.093750,185.76,79.93
125092,2018-06-29 09:50:01.125000,228.85,79.93
125093,2018-06-29 09:50:01.156250,264.58,79.93
125094,2018-06-29 09:50:01.187500,285.75,79.93
125095,2018-06-29 09:50:01.218750,281.17,79.93
125096,2018-06-29 09:50:01.250000,250.81,79.93
125097,2018-06-29 09:50:01.281250,210.22,79.93
125098,2018-06-29 09:50:01.312500,176.06,79.93
125099,2018-06-29 09:50:01.343750,155.85,79.93
125100,2018-06-29 09:50:01.375000,148.58,79.93
125101,2018-06-29 09:50:01.406250,146.58,79.93
125102,2018-06-29 09:50:01.437500,139.99,79.93
125103,2018-06-29 09:50:01.468750,125.31,79.93
125104,2018-06-29 09:50:01.500000,107.5,79.93
125105,2018-06-29 09:50:01.531250,91.91,79.92
125106,2018-06-29 09:50:01.562500,77.27,79.92
125107,2018-06-29 09:50:01.593750,59.76,79.92
125108,2018-06-29 09:50:01.625000,40.2,79.92
125109,2018-06-29 09:50:01.656250,22.98,79.92
125110,2018-06-29 09:50:01.687500,9.99,79.92
125111,2018-06-29 09:50:01.718750,-0.32,79.92
125112,2018-06-29 09:50:01.750000,-10.77,79.92
125113,2018-06-29 09:50:01.781250,-24.44,79.92
125114,2018-06-29 09:50:01.812500,-41.92,79.92
125115,2018-06-29 09:50:01.843750,-55.22,79.92
125116,2018-06-29 09:50:01.875000,-52.7,79.92
125117,2018-06-29 09:50:01.906250,-33.68,79.92
125118,2018-06-29 09:50:01.937500,-10.41,79.92
125119,2018-06-29 09:50:01.968750,7.12,79.92
125120,2018-06-29 09:50:02.000000,19.24,79.92
125121,2018-06-29 09:50:02.031250,29.02,79.92
125122,2018-06-29 09:50:02.062500,36.66,79.92
125123,2018-06-29 09:50:02.093750,42.34,79.92
125124,2018-06-29 09:50:02.125000,47.01,79.92
125125,2018-06-29 09:50:02.156250,50.29,79.92
125126,2018-06-29 09:50:02.187500,50.67,79.92
125127,2018-06-29 09:50:02.218750,48.7,79.92
125128,2018-06-29 09:50:02.250000,46.37,79.92
125129,2018-06-29 09:50:02.281250,40.51,79.92
125130,2018-06-29 09:50:02.312500,19.53,79.92
125131,2018-06-29 09:50:02.343750,-26.37,79.92
125132,2018-06-29 09:50:02.375000,-92.34,79.92
125133,2018-06-29 09:50:02.406250,-162.95,79.92
125134,2018-06-29 09:50:02.437500,-223.96,79.92
125135,2018-06-29 09:50:02.468750,-261.6,79.92
125136,2018-06-29 09:50:02.500000,-261.85,79.92
125137,2018-06-29 09:50:02.531250,-226.56,79.85
125138,2018-06-29 09:50:02.562500,-179.95,79.85
125139,2018-06-29 09:50:02.593750,-147.24,79.85
125140,2018-06-29 09:50:02.625000,-137.5,79.85
125141,2018-06-29 09:50:02.656250,-146.79,79.85
125142,2018-06-29 09:50:02.687500,-162.8,79.85
125143,2018-06-29 09:50:02.718750,-169.9,79.85
125144,2018-06-29 09:50:02.750000,-158.3,79.85
125145,2018-06-29 09:50:02.781250,-124.09,79.85
125146,2018-06-29 09:50:02.812500,-65.06,79.85
125147,2018-06-29 09:50:02.843750,14.46,79.85
125148,2018-06-29 09:50:02.875000,101.45,79.85
125149,2018-06-29 09:50:02.906250,181.57,79.85
125150,2018-06-29 09:50:02.937500,245.36,79.85
125151,2018-06-29 09:50:02.968750,290.59,79.85
125152,2018-06-29 09:50:03.000000,321.49,79.85
125153,2018-06-29 09:50:03.031250,344.16,79.85
125154,2018-06-29 09:50:03.062500,363.91,79.85
125155,2018-06-29 09:50:03.093750,384.14,79.85
125156,2018-06-29 09:50:03.125000,402.67,79.85
125157,2018-06-29 09:50:03.156250,410.75,79.85
125158,2018-06-29 09:50:03.187500,399.33,79.85
125159,2018-06-29 09:50:03.218750,365.54,79.85
125160,2018-06-29 09:50:03.250000,313.0,79.85
125161,2018-06-29 09:50:03.281250,247.89,79.85
125162,2018-06-29 09:50:03.312500,175.61,79.85
125163,2018-06-29 09:50:03.343750,99.77,79.85
125164,2018-06-29 09:50:03.375000,22.96,79.85
125165,2018-06-29 09:50:03.406250,-50.79,79.85
125166,2018-06-29 09:50:03.437500,-112.35,79.85
125167,2018-06-29 09:50:03.468750,-151.32,79.85
125168,2018-06-29 09:50:03.500000,-166.66,79.85
125169,2018-06-29 09:50:03.531250,-169.72,79.77
125170,2018-06-29 09:50:03.562500,-168.03,79.77
125171,2018-06-29 09:50:03.593750,-152.42,79.77
125172,2018-06-29 09:50:03.625000,-113.43,79.77
125173,2018-06-29 09:50:03.656250,-61.69,79.77
125174,2018-06-29 09:50:03.687500,-15.75,79.77
125175,2018-06-29 09:50:03.718750,15.91,79.77
125176,2018-06-29 09:50:03.750000,28.39,79.77
125177,2018-06-29 09:50:03.781250,19.69,79.77
125178,2018-06-29 09:50:03.812500,2.86,79.77
125179,2018-06-29 09:50:03.843750,-7.61,79.77
125180,2018-06-29 09:50:03.875000,-17.46,79.77
125181,2018-06-29 09:50:03.906250,-38.02,79.77
125182,2018-06-29 09:50:03.937500,-65.38,79.77
125183,2018-06-29 09:50:03.968750,-90.17,79.77
125184,2018-06-29 09:50:04.000000,-109.3,79.77
125185,2018-06-29 09:50:04.031250,-120.36,79.77
125186,2018-06-29 09:50:04.062500,-120.31,79.77
125187,2018-06-29 09:50:04.093750,-114.11,79.77
125188,2018-06-29 09:50:04.125000,-115.1,79.77
125189,2018-06-29 09:50:04.156250,-131.53,79.77
125190,2018-06-29 09:50:04.187500,-156.68,79.77
125191,2018-06-29 09:50:04.218750,-179.66,79.77
125192,2018-06-29 09:50:04.250000,-199.97,79.77
125193,2018-06-29 09:50:04.281250,-218.84,79.77
125194,2018-06-29 09:50:04.312500,-229.12,79.77
125195,2018-06-29 09:50:04.343750,-230.86,79.77
125196,2018-06-29 09:50:04.375000,-241.51,79.77
125197,2018-06-29 09:50:04.406250,-275.01,79.77
125198,2018-06-29 09:50:04.437500,-314.86,79.77
125199,2018-06-29 09:50:04.468750,-320.55,79.77
125200,2018-06-29 09:50:04.500000,-266.47,79.77
125201,2018-06-29 09:50:04.531250,-170.44,79.47
125202,2018-06-29 09:50:04.562500,-73.84,79.47
125203,2018-06-29 09:50:04.593750,-2.33,79.47
125204,2018-06-29 09:50:04.625000,42.3,79.47
125205,2018-06-29 09:50:04.656250,66.65,79.47
125206,2018-06-29 09:50:04.687500,79.49,79.47
125207,2018-06-29 09:50:04.718750,90.55,79.47
125208,2018-06-29 09:50:04.750000,103.73,79.47
125209,2018-06-29 09:50:04.781250,113.73,79.47
125210,2018-06-29 09:50:04.812500,113.44,79.47
125211,2018-06-29 09:50:04.843750,103.26,79.47
125212,2018-06-29 09:50:04.875000,89.44,79.47
125213,2018-06-29 09:50:04.906250,74.72,79.47
125214,2018-06-29 09:50:04.937500,56.95,79.47
125215,2018-06-29 09:50:04.968750,36.51,79.47
125216,2018-06-29 09:50:05.000000,18.46,79.47
125217,2018-06-29 09:50:05.031250,6.2,79.47
125218,2018-06-29 09:50:05.062500,-1.85,79.47
125219,2018-06-29 09:50:05.093750,-8.11,79.47
125220,2018-06-29 09:50:05.125000,-13.78,79.47
125221,2018-06-29 09:50:05.156250,-22.09,79.47
125222,2018-06-29 09:50:05.187500,-37.03,79.47
125223,2018-06-29 09:50:05.218750,-55.91,79.47
125224,2018-06-29 09:50:05.250000,-68.21,79.47
125225,2018-06-29 09:50:05.281250,-64.44,79.47
125226,2018-06-29 09:50:05.312500,-44.1,79.47
125227,2018-06-29 09:50:05.343750,-14.98,79.47
125228,2018-06-29 09:50:05.375000,13.59,79.47
125229,2018-06-29 09:50:05.406250,36.55,79.47
125230,2018-06-29 09:50:05.437500,52.77,79.47
125231,2018-06-29 09:50:05.468750,62.18,79.47
125232,2018-06-29 09:50:05.500000,66.62,79.47
125233,2018-06-29 09:50:05.531250,71.16,79.12
125234,2018-06-29 09:50:05.562500,79.64,79.12
125235,2018-06-29 09:50:05.593750,90.53,79.12
125236,2018-06-29 09:50:05.625000,99.97,79.12
125237,2018-06-29 09:50:05.656250,105.71,79.12
125238,2018-06-29 09:50:05.687500,106.08,79.12
125239,2018-06-29 09:50:05.718750,99.64,79.12
125240,2018-06-29 09:50:05.750000,87.89,79.12
125241,2018-06-29 09:50:05.781250,73.47,79.12
125242,2018-06-29 09:50:05.812500,56.18,79.12
125243,2018-06-29 09:50:05.843750,35.38,79.12
125244,2018-06-29 09:50:05.875000,13.39,79.12
125245,2018-06-29 09:50:05.906250,-6.75,79.12
125246,2018-06-29 09:50:05.937500,-24.88,79.12
125247,2018-06-29 09:50:05.968750,-43.42,79.12
125248,2018-06-29 09:50:06.000000,-65.25,79.12
125249,2018-06-29 09:50:06.031250,-89.07,79.12
125250,2018-06-29 09:50:06.062500,-105.25,79.12
125251,2018-06-29 09:50:06.093750,-101.8,79.12
125252,2018-06-29 09:50:06.125000,-76.97,79.12
125253,2018-06-29 09:50:06.156250,-40.75,79.12
125254,2018-06-29 09:50:06.187500,-3.9,79.12
125255,2018-06-29 09:50:06.218750,29.36,79.12
125256,2018-06-29 09:50:06.250000,57.52,79.12
125257,2018-06-29 09:50:06.281250,78.54,79.12
125258,2018-06-29 09:50:06.312500,90.87,79.12
125259,2018-06-29 09:50:06.343750,95.28,79.12
125260,2018-06-29 09:50:06.375000,94.82,79.12
125261,2018-06-29 09:50:06.406250,93.23,79.12
125262,2018-06-29 09:50:06.437500,93.1,79.12
125263,2018-06-29 09:50:06.468750,94.95,79.12
125264,2018-06-29 09:50:06.500000,97.08,79.12
125265,2018-06-29 09:50:06.531250,96.44,78.8
125266,2018-06-29 09:50:06.562500,91.26,78.8
125267,2018-06-29 09:50:06.593750,82.36,78.8
125268,2018-06-29 09:50:06.625000,70.7,78.8
125269,2018-06-29 09:50:06.656250,55.63,78.8
125270,2018-06-29 09:50:06.687500,37.2,78.8
125271,2018-06-29 09:50:06.718750,17.28,78.8
125272,2018-06-29 09:50:06.750000,-2.82,78.8
125273,2018-06-29 09:50:06.781250,-24.15,78.8
125274,2018-06-29 09:50:06.812500,-48.29,78.8
125275,2018-06-29 09:50:06.843750,-74.66,78.8
125276,2018-06-29 09:50:06.875000,-97.46,78.8
125277,2018-06-29 09:50:06.906250,-107.73,78.8
125278,2018-06-29 09:50:06.937500,-102.29,78.8
125279,2018-06-29 09:50:06.968750,-86.85,78.8
125280,2018-06-29 09:50:07.000000,-67.47,78.8
125281,2018-06-29 09:50:07.031250,-44.87,78.8
125282,2018-06-29 09:50:07.062500,-18.8,78.8
125283,2018-06-29 09:50:07.093750,7.43,78.8
125284,2018-06-29 09:50:07.125000,29.2,78.8
125285,2018-06-29 09:50:07.156250,42.88,78.8
125286,2018-06-29 09:50:07.187500,47.18,78.8
125287,2018-06-29 09:50:07.218750,45.53,78.8
125288,2018-06-29 09:50:07.250000,44.89,78.8
125289,2018-06-29 09:50:07.281250,48.05,78.8
125290,2018-06-29 09:50:07.312500,50.42,78.8
125291,2018-06-29 09:50:07.343750,47.33,78.8
125292,2018-06-29 09:50:07.375000,40.07,78.8
125293,2018-06-29 09:50:07.406250,32.34,78.8
125294,2018-06-29 09:50:07.437500,25.31,78.8
125295,2018-06-29 09:50:07.468750,18.74,78.8
125296,2018-06-29 09:50:07.500000,13.63,78.8
125297,2018-06-29 09:50:07.531250,11.25,78.48
125298,2018-06-29 09:50:07.562500,10.78,78.48
125299,2018-06-29 09:50:07.593750,8.9,78.48
125300,2018-06-29 09:50:07.625000,2.53,78.48
125301,2018-06-29 09:50:07.656250,-5.88,78.48
125302,2018-06-29 09:50:07.687500,-7.62,78.48
125303,2018-06-29 09:50:07.718750,3.44,78.48
125304,2018-06-29 09:50:07.750000,23.21,78.48
125305,2018-06-29 09:50:07.781250,42.76,78.48
125306,2018-06-29 09:50:07.812500,57.24,78.48
125307,2018-06-29 09:50:07.843750,66.32,78.48
125308,2018-06-29 09:50:07.875000,70.78,78.48
125309,2018-06-29 09:50:07.906250,71.6,78.48
125310,2018-06-29 09:50:07.937500,69.85,78.48
125311,2018-06-29 09:50:07.968750,66.49,78.48
125312,2018-06-29 09:50:08.000000,62.06,78.48
125313,2018-06-29 09:50:08.031250,56.55,78.48
125314,2018-06-29 09:50:08.062500,51.46,78.48
125315,2018-06-29 09:50:08.093750,50.27,78.48
125316,2018-06-29 09:50:08.125000,53.05,78.48
125317,2018-06-29 09:50:08.156250,54.36,78.48
125318,2018-06-29 09:50:08.187500,50.39,78.48
125319,2018-06-29 09:50:08.218750,44.26,78.48
125320,2018-06-29 09:50:08.250000,40.69,78.48
125321,2018-06-29 09:50:08.281250,40.77,78.48
125322,2018-06-29 09:50:08.312500,43.42,78.48
125323,2018-06-29 09:50:08.343750,47.05,78.48
125324,2018-06-29 09:50:08.375000,48.58,78.48
125325,2018-06-29 09:50:08.406250,44.83,78.48
125326,2018-06-29 09:50:08.437500,37.83,78.48
125327,2018-06-29 09:50:08.468750,36.19,78.48
125328,2018-06-29 09:50:08.500000,47.54,78.48
125329,2018-06-29 09:50:08.531250,70.72,78.22
125330,2018-06-29 09:50:08.562500,97.11,78.22
125331,2018-06-29 09:50:08.593750,118.61,78.22
125332,2018-06-29 09:50:08.625000,132.49,78.22
125333,2018-06-29 09:50:08.656250,139.34,78.22
125334,2018-06-29 09:50:08.687500,138.74,78.22
125335,2018-06-29 09:50:08.718750,128.75,78.22
125336,2018-06-29 09:50:08.750000,109.72,78.22
125337,2018-06-29 09:50:08.781250,86.13,78.22
125338,2018-06-29 09:50:08.812500,64.25,78.22
125339,2018-06-29 09:50:08.843750,49.21,78.22
125340,2018-06-29 09:50:08.875000,42.42,78.22
125341,2018-06-29 09:50:08.906250,40.04,78.22
125342,2018-06-29 09:50:08.937500,35.65,78.22
125343,2018-06-29 09:50:08.968750,26.18,78.22
125344,2018-06-29 09:50:09.000000,13.56,78.22
125345,2018-06-29 09:50:09.031250,0.25,78.22
125346,2018-06-29 09:50:09.062500,-13.55,78.22
125347,2018-06-29 09:50:09.093750,-27.66,78.22
125348,2018-06-29 09:50:09.125000,-39.95,78.22
125349,2018-06-29 09:50:09.156250,-47.79,78.22
125350,2018-06-29 09:50:09.187500,-50.86,78.22
125351,2018-06-29 09:50:09.218750,-53.48,78.22
125352,2018-06-29 09:50:09.250000,-60.54,78.22
125353,2018-06-29 09:50:09.281250,-68.16,78.22
125354,2018-06-29 09:50:09.312500,-65.34,78.22
125355,2018-06-29 09:50:09.343750,-48.72,78.22
125356,2018-06-29 09:50:09.375000,-26.97,78.22
125357,2018-06-29 09:50:09.406250,-12.68,78.22
125358,2018-06-29 09:50:09.437500,-22.07,78.22
125359,2018-06-29 09:50:09.468750,-66.14,78.22
125360,2018-06-29 09:50:09.500000,-127.68,78.22
125361,2018-06-29 09:50:09.531250,-172.26,77.95
125362,2018-06-29 09:50:09.562500,-187.98,77.95
125363,2018-06-29 09:50:09.593750,-185.56,77.95
125364,2018-06-29 09:50:09.625000,-170.27,77.95
125365,2018-06-29 09:50:09.656250,-144.43,77.95
125366,2018-06-29 09:50:09.687500,-117.74,77.95
125367,2018-06-29 09:50:09.718750,-93.19,77.95
125368,2018-06-29 09:50:09.750000,-65.97,77.95
125369,2018-06-29 09:50:09.781250,-40.44,77.95
125370,2018-06-29 09:50:09.812500,-26.45,77.95
125371,2018-06-29 09:50:09.843750,-23.78,77.95
125372,2018-06-29 09:50:09.875000,-25.22,77.95
125373,2018-06-29 09:50:09.906250,-27.56,77.95
125374,2018-06-29 09:50:09.937500,-29.93,77.95
125375,2018-06-29 09:50:09.968750,-28.81,77.95
125376,2018-06-29 09:50:10.000000,-21.48,77.95
125377,2018-06-29 09:50:10.031250,-10.31,77.95
125378,2018-06-29 09:50:10.062500,-0.27,77.95
125379,2018-06-29 09:50:10.093750,4.67,77.95
125380,2018-06-29 09:50:10.125000,2.07,77.95
125381,2018-06-29 09:50:10.156250,-6.02,77.95
125382,2018-06-29 09:50:10.187500,-13.08,77.95
125383,2018-06-29 09:50:10.218750,-15.7,77.95
125384,2018-06-29 09:50:10.250000,-17.34,77.95
125385,2018-06-29 09:50:10.281250,-20.88,77.95
125386,2018-06-29 09:50:10.312500,-24.44,77.95
125387,2018-06-29 09:50:10.343750,-26.84,77.95
125388,2018-06-29 09:50:10.375000,-30.94,77.95
125389,2018-06-29 09:50:10.406250,-38.96,77.95
125390,2018-06-29 09:50:10.437500,-47.65,77.95
125391,2018-06-29 09:50:10.468750,-51.68,77.95
125392,2018-06-29 09:50:10.500000,-51.46,77.95
125393,2018-06-29 09:50:10.531250,-51.54,77.68
125394,2018-06-29 09:50:10.562500,-50.55,77.68
125395,2018-06-29 09:50:10.593750,-40.49,77.68
125396,2018-06-29 09:50:10.625000,-17.57,77.68
125397,2018-06-29 09:50:10.656250,13.89,77.68
125398,2018-06-29 09:50:10.687500,47.04,77.68
125399,2018-06-29 09:50:10.718750,75.16,77.68
125400,2018-06-29 09:50:10.750000,92.55,77.68
125401,2018-06-29 09:50:10.781250,98.23,77.68
125402,2018-06-29 09:50:10.812500,96.87,77.68
125403,2018-06-29 09:50:10.843750,93.53,77.68
125404,2018-06-29 09:50:10.875000,89.05,77.68
125405,2018-06-29 09:50:10.906250,81.68,77.68
125406,2018-06-29 09:50:10.937500,71.67,77.68
125407,2018-06-29 09:50:10.968750,61.95,77.68
125408,2018-06-29 09:50:11.000000,57.13,77.68
125409,2018-06-29 09:50:11.031250,60.71,77.68
125410,2018-06-29 09:50:11.062500,72.28,77.68
125411,2018-06-29 09:50:11.093750,90.79,77.68
125412,2018-06-29 09:50:11.125000,116.51,77.68
125413,2018-06-29 09:50:11.156250,143.81,77.68
125414,2018-06-29 09:50:11.187500,160.84,77.68
125415,2018-06-29 09:50:11.218750,162.66,77.68
125416,2018-06-29 09:50:11.250000,153.89,77.68
125417,2018-06-29 09:50:11.281250,137.57,77.68
125418,2018-06-29 09:50:11.312500,115.3,77.68
125419,2018-06-29 09:50:11.343750,94.05,77.68
125420,2018-06-29 09:50:11.375000,81.11,77.68
125421,2018-06-29 09:50:11.406250,76.68,77.68
125422,2018-06-29 09:50:11.437500,76.62,77.68
125423,2018-06-29 09:50:11.468750,76.95,77.68
125424,2018-06-29 09:50:11.500000,74.73,77.68
125425,2018-06-29 09:50:11.531250,68.15,77.37
125426,2018-06-29 09:50:11.562500,56.04,77.37
125427,2018-06-29 09:50:11.593750,38.05,77.37
125428,2018-06-29 09:50:11.625000,14.9,77.37
125429,2018-06-29 09:50:11.656250,-12.98,77.37
125430,2018-06-29 09:50:11.687500,-41.49,77.37
125431,2018-06-29 09:50:11.718750,-56.19,77.37
125432,2018-06-29 09:50:11.750000,-40.76,77.37
125433,2018-06-29 09:50:11.781250,5.92,77.37
125434,2018-06-29 09:50:11.812500,71.59,77.37
125435,2018-06-29 09:50:11.843750,141.35,77.37
125436,2018-06-29 09:50:11.875000,195.75,77.37
125437,2018-06-29 09:50:11.906250,215.89,77.37
125438,2018-06-29 09:50:11.937500,202.67,77.37
125439,2018-06-29 09:50:11.968750,175.21,77.37
125440,2018-06-29 09:50:12.000000,145.94,77.37
125441,2018-06-29 09:50:12.031250,115.42,77.37
125442,2018-06-29 09:50:12.062500,82.67,77.37
125443,2018-06-29 09:50:12.093750,47.05,77.37
125444,2018-06-29 09:50:12.125000,4.4,77.37
125445,2018-06-29 09:50:12.156250,-46.02,77.37
125446,2018-06-29 09:50:12.187500,-96.3,77.37
125447,2018-06-29 09:50:12.218750,-140.29,77.37
125448,2018-06-29 09:50:12.250000,-180.93,77.37
125449,2018-06-29 09:50:12.281250,-222.47,77.37
125450,2018-06-29 09:50:12.312500,-255.73,77.37
125451,2018-06-29 09:50:12.343750,-269.84,77.37
125452,2018-06-29 09:50:12.375000,-270.18,77.37
125453,2018-06-29 09:50:12.406250,-276.45,77.37
125454,2018-06-29 09:50:12.437500,-295.85,77.37
125455,2018-06-29 09:50:12.468750,-316.01,77.37
125456,2018-06-29 09:50:12.500000,-335.22,77.37
125457,2018-06-29 09:50:12.531250,-371.49,77.13
125458,2018-06-29 09:50:12.562500,-456.42,77.13
125459,2018-06-29 09:50:12.593750,-586.33,77.13
125460,2018-06-29 09:50:12.625000,-712.01,77.13
125461,2018-06-29 09:50:12.656250,-768.55,77.13
125462,2018-06-29 09:50:12.687500,-750.61,77.13
125463,2018-06-29 09:50:12.718750,-708.16,77.13
125464,2018-06-29 09:50:12.750000,-661.69,77.13
125465,2018-06-29 09:50:12.781250,-602.58,77.13
125466,2018-06-29 09:50:12.812500,-531.06,77.13
125467,2018-06-29 09:50:12.843750,-477.3,77.13
125468,2018-06-29 09:50:12.875000,-422.28,77.13
125469,2018-06-29 09:50:12.906250,-338.55,77.13
125470,2018-06-29 09:50:12.937500,-209.13,77.13
125471,2018-06-29 09:50:12.968750,66.4,77.13
125472,2018-06-29 09:50:13.000000,341.12,77.13
125473,2018-06-29 09:50:13.031250,478.0,77.13
125474,2018-06-29 09:50:13.062500,506.74,77.13
125475,2018-06-29 09:50:13.093750,479.04,77.13
125476,2018-06-29 09:50:13.125000,408.74,77.13
125477,2018-06-29 09:50:13.156250,333.9,77.13
125478,2018-06-29 09:50:13.187500,291.46,77.13
125479,2018-06-29 09:50:13.218750,282.51,77.13
125480,2018-06-29 09:50:13.250000,277.68,77.13
125481,2018-06-29 09:50:13.281250,263.0,77.13
125482,2018-06-29 09:50:13.312500,257.69,77.13
125483,2018-06-29 09:50:13.343750,260.69,77.13
125484,2018-06-29 09:50:13.375000,254.81,77.13
125485,2018-06-29 09:50:13.406250,227.81,77.13
125486,2018-06-29 09:50:13.437500,198.03,77.13
125487,2018-06-29 09:50:13.468750,181.78,77.13
125488,2018-06-29 09:50:13.500000,173.95,77.13
125489,2018-06-29 09:50:13.531250,161.98,76.95
125490,2018-06-29 09:50:13.562500,143.06,76.95
125491,2018-06-29 09:50:13.593750,129.57,76.95
125492,2018-06-29 09:50:13.625000,132.73,76.95
125493,2018-06-29 09:50:13.656250,154.63,76.95
125494,2018-06-29 09:50:13.687500,183.97,76.95
125495,2018-06-29 09:50:13.718750,206.47,76.95
125496,2018-06-29 09:50:13.750000,215.69,76.95
125497,2018-06-29 09:50:13.781250,213.02,76.95
125498,2018-06-29 09:50:13.812500,200.25,76.95
125499,2018-06-29 09:50:13.843750,177.88,76.95
125500,2018-06-29 09:50:13.875000,150.2,76.95
125501,2018-06-29 09:50:13.906250,125.01,76.95
125502,2018-06-29 09:50:13.937500,107.26,76.95
125503,2018-06-29 09:50:13.968750,94.62,76.95
125504,2018-06-29 09:50:14.000000,81.73,76.95
125505,2018-06-29 09:50:14.031250,66.49,76.95
125506,2018-06-29 09:50:14.062500,51.61,76.95
125507,2018-06-29 09:50:14.093750,42.12,76.95
125508,2018-06-29 09:50:14.125000,38.72,76.95
125509,2018-06-29 09:50:14.156250,30.58,76.95
125510,2018-06-29 09:50:14.187500,6.9,76.95
125511,2018-06-29 09:50:14.218750,-22.39,76.95
125512,2018-06-29 09:50:14.250000,-35.47,76.95
125513,2018-06-29 09:50:14.281250,-27.55,76.95
125514,2018-06-29 09:50:14.312500,-11.95,76.95
125515,2018-06-29 09:50:14.343750,0.0,76.95
125516,2018-06-29 09:50:14.375000,4.07,76.95
125517,2018-06-29 09:50:14.406250,-2.13,76.95
125518,2018-06-29 09:50:14.437500,-16.81,76.95
125519,2018-06-29 09:50:14.468750,-32.41,76.95
125520,2018-06-29 09:50:14.500000,-42.08,76.95
125521,2018-06-29 09:50:14.531250,-46.09,76.72
125522,2018-06-29 09:50:14.562500,-48.97,76.72
125523,2018-06-29 09:50:14.593750,-51.88,76.72
125524,2018-06-29 09:50:14.625000,-53.16,76.72
125525,2018-06-29 09:50:14.656250,-54.16,76.72
125526,2018-06-29 09:50:14.687500,-57.82,76.72
125527,2018-06-29 09:50:14.718750,-63.42,76.72
125528,2018-06-29 09:50:14.750000,-68.07,76.72
125529,2018-06-29 09:50:14.781250,-71.57,76.72
125530,2018-06-29 09:50:14.812500,-76.25,76.72
125531,2018-06-29 09:50:14.843750,-82.26,76.72
125532,2018-06-29 09:50:14.875000,-85.96,76.72
125533,2018-06-29 09:50:14.906250,-85.32,76.72
125534,2018-06-29 09:50:14.937500,-83.6,76.72
125535,2018-06-29 09:50:14.968750,-84.95,76.72
125536,2018-06-29 09:50:15.000000,-88.82,76.72
125537,2018-06-29 09:50:15.031250,-89.61,76.72
125538,2018-06-29 09:50:15.062500,-80.25,76.72
125539,2018-06-29 09:50:15.093750,-58.54,76.72
125540,2018-06-29 09:50:15.125000,-29.29,76.72
125541,2018-06-29 09:50:15.156250,2.53,76.72
125542,2018-06-29 09:50:15.187500,36.08,76.72
125543,2018-06-29 09:50:15.218750,69.87,76.72
125544,2018-06-29 09:50:15.250000,101.62,76.72
125545,2018-06-29 09:50:15.281250,134.44,76.72
125546,2018-06-29 09:50:15.312500,177.34,76.72
125547,2018-06-29 09:50:15.343750,237.8,76.72
125548,2018-06-29 09:50:15.375000,306.27,76.72
125549,2018-06-29 09:50:15.406250,348.63,76.72
125550,2018-06-29 09:50:15.437500,335.54,76.72
125551,2018-06-29 09:50:15.468750,280.42,76.72
125552,2018-06-29 09:50:15.500000,223.35,76.72
125553,2018-06-29 09:50:15.531250,183.64,76.5
125554,2018-06-29 09:50:15.562500,152.64,76.5
125555,2018-06-29 09:50:15.593750,120.63,76.5
125556,2018-06-29 09:50:15.625000,85.37,76.5
125557,2018-06-29 09:50:15.656250,43.22,76.5
125558,2018-06-29 09:50:15.687500,-10.22,76.5
125559,2018-06-29 09:50:15.718750,-74.32,76.5
125560,2018-06-29 09:50:15.750000,-148.64,76.5
125561,2018-06-29 09:50:15.781250,-234.64,76.5
125562,2018-06-29 09:50:15.812500,-317.02,76.5
125563,2018-06-29 09:50:15.843750,-362.91,76.5
125564,2018-06-29 09:50:15.875000,-360.64,76.5
125565,2018-06-29 09:50:15.906250,-334.52,76.5
125566,2018-06-29 09:50:15.937500,-307.39,76.5
125567,2018-06-29 09:50:15.968750,-281.3,76.5
125568,2018-06-29 09:50:16.000000,-259.09,76.5
125569,2018-06-29 09:50:16.031250,-246.05,76.5
125570,2018-06-29 09:50:16.062500,-227.46,76.5
125571,2018-06-29 09:50:16.093750,-176.73,76.5
125572,2018-06-29 09:50:16.125000,-87.28,76.5
125573,2018-06-29 09:50:16.156250,18.55,76.5
125574,2018-06-29 09:50:16.187500,111.01,76.5
125575,2018-06-29 09:50:16.218750,173.51,76.5
125576,2018-06-29 09:50:16.250000,204.16,76.5
125577,2018-06-29 09:50:16.281250,208.98,76.5
125578,2018-06-29 09:50:16.312500,197.69,76.5
125579,2018-06-29 09:50:16.343750,176.14,76.5
125580,2018-06-29 09:50:16.375000,140.2,76.5
125581,2018-06-29 09:50:16.406250,87.37,76.5
125582,2018-06-29 09:50:16.437500,33.12,76.5
125583,2018-06-29 09:50:16.468750,0.39,76.5
125584,2018-06-29 09:50:16.500000,-7.57,76.5
125585,2018-06-29 09:50:16.531250,-8.89,76.3
125586,2018-06-29 09:50:16.562500,-17.82,76.3
125587,2018-06-29 09:50:16.593750,-33.24,76.3
125588,2018-06-29 09:50:16.625000,-52.41,76.3
125589,2018-06-29 09:50:16.656250,-77.71,76.3
125590,2018-06-29 09:50:16.687500,-104.94,76.3
125591,2018-06-29 09:50:16.718750,-121.54,76.3
125592,2018-06-29 09:50:16.750000,-122.35,76.3
125593,2018-06-29 09:50:16.781250,-115.49,76.3
125594,2018-06-29 09:50:16.812500,-110.49,76.3
125595,2018-06-29 09:50:16.843750,-109.99,76.3
125596,2018-06-29 09:50:16.875000,-112.41,76.3
125597,2018-06-29 09:50:16.906250,-115.84,76.3
125598,2018-06-29 09:50:16.937500,-118.97,76.3
125599,2018-06-29 09:50:16.968750,-121.04,76.3
125600,2018-06-29 09:50:17.000000,-121.47,76.3
125601,2018-06-29 09:50:17.031250,-115.79,76.3
125602,2018-06-29 09:50:17.062500,-94.13,76.3
125603,2018-06-29 09:50:17.093750,-53.04,76.3
125604,2018-06-29 09:50:17.125000,-5.96,76.3
125605,2018-06-29 09:50:17.156250,28.45,76.3
125606,2018-06-29 09:50:17.187500,44.65,76.3
125607,2018-06-29 09:50:17.218750,48.54,76.3
125608,2018-06-29 09:50:17.250000,45.71,76.3
125609,2018-06-29 09:50:17.281250,39.51,76.3
125610,2018-06-29 09:50:17.312500,33.19,76.3
125611,2018-06-29 09:50:17.343750,28.48,76.3
125612,2018-06-29 09:50:17.375000,24.77,76.3
125613,2018-06-29 09:50:17.406250,21.79,76.3
125614,2018-06-29 09:50:17.437500,21.54,76.3
125615,2018-06-29 09:50:17.468750,25.55,76.3
125616,2018-06-29 09:50:17.500000,31.53,76.3
125617,2018-06-29 09:50:17.531250,35.27,76.08
125618,2018-06-29 09:50:17.562500,34.97,76.08
125619,2018-06-29 09:50:17.593750,31.64,76.08
125620,2018-06-29 09:50:17.625000,26.85,76.08
125621,2018-06-29 09:50:17.656250,21.43,76.08
125622,2018-06-29 09:50:17.687500,15.27,76.08
125623,2018-06-29 09:50:17.718750,8.26,76.08
125624,2018-06-29 09:50:17.750000,0.89,76.08
125625,2018-06-29 09:50:17.781250,-6.63,76.08
125626,2018-06-29 09:50:17.812500,-15.13,76.08
125627,2018-06-29 09:50:17.843750,-24.91,76.08
125628,2018-06-29 09:50:17.875000,-34.35,76.08
125629,2018-06-29 09:50:17.906250,-41.29,76.08
125630,2018-06-29 09:50:17.937500,-43.67,76.08
125631,2018-06-29 09:50:17.968750,-38.89,76.08
125632,2018-06-29 09:50:18.000000,-26.55,76.08
125633,2018-06-29 09:50:18.031250,-11.06,76.08
125634,2018-06-29 09:50:18.062500,1.86,76.08
125635,2018-06-29 09:50:18.093750,10.54,76.08
125636,2018-06-29 09:50:18.125000,17.01,76.08
125637,2018-06-29 09:50:18.156250,23.16,76.08
125638,2018-06-29 09:50:18.187500,28.8,76.08
125639,2018-06-29 09:50:18.218750,32.24,76.08
125640,2018-06-29 09:50:18.250000,32.32,76.08
125641,2018-06-29 09:50:18.281250,29.51,76.08
125642,2018-06-29 09:50:18.312500,25.34,76.08
125643,2018-06-29 09:50:18.343750,21.57,76.08
125644,2018-06-29 09:50:18.375000,19.26,76.08
125645,2018-06-29 09:50:18.406250,18.1,76.08
125646,2018-06-29 09:50:18.437500,17.65,76.08
125647,2018-06-29 09:50:18.468750,18.11,76.08
125648,2018-06-29 09:50:18.500000,18.87,76.08
125649,2018-06-29 09:50:18.531250,18.99,75.93
125650,2018-06-29 09:50:18.562500,18.85,75.93
125651,2018-06-29 09:50:18.593750,18.8,75.93
125652,2018-06-29 09:50:18.625000,18.2,75.93
125653,2018-06-29 09:50:18.656250,17.07,75.93
125654,2018-06-29 09:50:18.687500,16.14,75.93
125655,2018-06-29 09:50:18.718750,14.63,75.93
125656,2018-06-29 09:50:18.750000,11.04,75.93
125657,2018-06-29 09:50:18.781250,4.91,75.93
125658,2018-06-29 09:50:18.812500,-3.75,75.93
125659,2018-06-29 09:50:18.843750,-13.4,75.93
125660,2018-06-29 09:50:18.875000,-18.93,75.93
125661,2018-06-29 09:50:18.906250,-15.17,75.93
125662,2018-06-29 09:50:18.937500,-3.24,75.93
125663,2018-06-29 09:50:18.968750,11.22,75.93
125664,2018-06-29 09:50:19.000000,24.91,75.93
125665,2018-06-29 09:50:19.031250,37.67,75.93
125666,2018-06-29 09:50:19.062500,48.29,75.93
125667,2018-06-29 09:50:19.093750,54.23,75.93
125668,2018-06-29 09:50:19.125000,55.28,75.93
125669,2018-06-29 09:50:19.156250,54.62,75.93
125670,2018-06-29 09:50:19.187500,55.8,75.93
125671,2018-06-29 09:50:19.218750,60.27,75.93
125672,2018-06-29 09:50:19.250000,68.42,75.93
125673,2018-06-29 09:50:19.281250,80.79,75.93
125674,2018-06-29 09:50:19.312500,97.51,75.93
125675,2018-06-29 09:50:19.343750,117.35,75.93
125676,2018-06-29 09:50:19.375000,136.21,75.93
125677,2018-06-29 09:50:19.406250,147.54,75.93
125678,2018-06-29 09:50:19.437500,146.84,75.93
125679,2018-06-29 09:50:19.468750,136.46,75.93
125680,2018-06-29 09:50:19.500000,124.0,75.93
125681,2018-06-29 09:50:19.531250,115.33,75.75
125682,2018-06-29 09:50:19.562500,111.33,75.75
125683,2018-06-29 09:50:19.593750,110.26,75.75
125684,2018-06-29 09:50:19.625000,108.79,75.75
125685,2018-06-29 09:50:19.656250,101.01,75.75
125686,2018-06-29 09:50:19.687500,82.14,75.75
125687,2018-06-29 09:50:19.718750,51.85,75.75
125688,2018-06-29 09:50:19.750000,7.34,75.75
125689,2018-06-29 09:50:19.781250,-58.07,75.75
125690,2018-06-29 09:50:19.812500,-139.51,75.75
125691,2018-06-29 09:50:19.843750,-215.87,75.75
125692,2018-06-29 09:50:19.875000,-270.1,75.75
125693,2018-06-29 09:50:19.906250,-297.11,75.75
125694,2018-06-29 09:50:19.937500,-290.66,75.75
125695,2018-06-29 09:50:19.968750,-250.3,75.75
125696,2018-06-29 09:50:20.000000,-197.4,75.75
125697,2018-06-29 09:50:20.031250,-158.04,75.75
125698,2018-06-29 09:50:20.062500,-137.35,75.75
125699,2018-06-29 09:50:20.093750,-127.42,75.75
125700,2018-06-29 09:50:20.125000,-123.71,75.75
125701,2018-06-29 09:50:20.156250,-122.52,75.75
125702,2018-06-29 09:50:20.187500,-118.12,75.75
125703,2018-06-29 09:50:20.218750,-109.44,75.75
125704,2018-06-29 09:50:20.250000,-102.09,75.75
125705,2018-06-29 09:50:20.281250,-100.99,75.75
125706,2018-06-29 09:50:20.312500,-103.92,75.75
125707,2018-06-29 09:50:20.343750,-104.97,75.75
125708,2018-06-29 09:50:20.375000,-102.75,75.75
125709,2018-06-29 09:50:20.406250,-99.79,75.75
125710,2018-06-29 09:50:20.437500,-96.76,75.75
125711,2018-06-29 09:50:20.468750,-94.26,75.75
125712,2018-06-29 09:50:20.500000,-96.55,75.75
125713,2018-06-29 09:50:20.531250,-106.9,75.62
125714,2018-06-29 09:50:20.562500,-119.31,75.62
125715,2018-06-29 09:50:20.593750,-120.44,75.62
125716,2018-06-29 09:50:20.625000,-101.64,75.62
125717,2018-06-29 09:50:20.656250,-67.09,75.62
125718,2018-06-29 09:50:20.687500,-27.91,75.62
125719,2018-06-29 09:50:20.718750,7.79,75.62
125720,2018-06-29 09:50:20.750000,36.29,75.62
125721,2018-06-29 09:50:20.781250,56.22,75.62
125722,2018-06-29 09:50:20.812500,68.74,75.62
125723,2018-06-29 09:50:20.843750,76.22,75.62
125724,2018-06-29 09:50:20.875000,79.87,75.62
125725,2018-06-29 09:50:20.906250,80.83,75.62
125726,2018-06-29 09:50:20.937500,81.12,75.62
125727,2018-06-29 09:50:20.968750,81.23,75.62
125728,2018-06-29 09:50:21.000000,79.77,75.62
125729,2018-06-29 09:50:21.031250,76.21,75.62
125730,2018-06-29 09:50:21.062500,72.07,75.62
125731,2018-06-29 09:50:21.093750,69.22,75.62
125732,2018-06-29 09:50:21.125000,67.57,75.62
125733,2018-06-29 09:50:21.156250,65.34,75.62
125734,2018-06-29 09:50:21.187500,61.5,75.62
125735,2018-06-29 09:50:21.218750,57.86,75.62
125736,2018-06-29 09:50:21.250000,56.64,75.62
125737,2018-06-29 09:50:21.281250,56.26,75.62
125738,2018-06-29 09:50:21.312500,50.58,75.62
125739,2018-06-29 09:50:21.343750,35.64,75.62
125740,2018-06-29 09:50:21.375000,18.95,75.62
125741,2018-06-29 09:50:21.406250,16.06,75.62
125742,2018-06-29 09:50:21.437500,34.02,75.62
125743,2018-06-29 09:50:21.468750,63.58,75.62
125744,2018-06-29 09:50:21.500000,91.6,75.62
125745,2018-06-29 09:50:21.531250,113.04,75.45
125746,2018-06-29 09:50:21.562500,128.19,75.45
125747,2018-06-29 09:50:21.593750,137.12,75.45
125748,2018-06-29 09:50:21.625000,139.86,75.45
125749,2018-06-29 09:50:21.656250,136.99,75.45
125750,2018-06-29 09:50:21.687500,129.41,75.45
125751,2018-06-29 09:50:21.718750,119.36,75.45
125752,2018-06-29 09:50:21.750000,109.86,75.45
125753,2018-06-29 09:50:21.781250,101.92,75.45
125754,2018-06-29 09:50:21.812500,94.03,75.45
125755,2018-06-29 09:50:21.843750,83.85,75.45
125756,2018-06-29 09:50:21.875000,70.34,75.45
125757,2018-06-29 09:50:21.906250,54.98,75.45
125758,2018-06-29 09:50:21.937500,40.59,75.45
125759,2018-06-29 09:50:21.968750,27.37,75.45
125760,2018-06-29 09:50:22.000000,12.9,75.45
125761,2018-06-29 09:50:22.031250,-3.22,75.45
125762,2018-06-29 09:50:22.062500,-17.64,75.45
125763,2018-06-29 09:50:22.093750,-27.82,75.45
125764,2018-06-29 09:50:22.125000,-35.26,75.45
125765,2018-06-29 09:50:22.156250,-43.63,75.45
125766,2018-06-29 09:50:22.187500,-53.92,75.45
125767,2018-06-29 09:50:22.218750,-60.92,75.45
125768,2018-06-29 09:50:22.250000,-56.27,75.45
125769,2018-06-29 09:50:22.281250,-37.66,75.45
125770,2018-06-29 09:50:22.312500,-12.59,75.45
125771,2018-06-29 09:50:22.343750,9.74,75.45
125772,2018-06-29 09:50:22.375000,26.59,75.45
125773,2018-06-29 09:50:22.406250,39.54,75.45
125774,2018-06-29 09:50:22.437500,49.22,75.45
125775,2018-06-29 09:50:22.468750,54.92,75.45
125776,2018-06-29 09:50:22.500000,56.38,75.45
125777,2018-06-29 09:50:22.531250,54.36,75.3
125778,2018-06-29 09:50:22.562500,50.53,75.3
125779,2018-06-29 09:50:22.593750,47.05,75.3
125780,2018-06-29 09:50:22.625000,45.01,75.3
125781,2018-06-29 09:50:22.656250,43.55,75.3
125782,2018-06-29 09:50:22.687500,41.35,75.3
125783,2018-06-29 09:50:22.718750,37.7,75.3
125784,2018-06-29 09:50:22.750000,32.56,75.3
125785,2018-06-29 09:50:22.781250,26.93,75.3
125786,2018-06-29 09:50:22.812500,22.02,75.3
125787,2018-06-29 09:50:22.843750,16.63,75.3
125788,2018-06-29 09:50:22.875000,8.33,75.3
125789,2018-06-29 09:50:22.906250,-2.43,75.3
125790,2018-06-29 09:50:22.937500,-12.39,75.3
125791,2018-06-29 09:50:22.968750,-20.4,75.3
125792,2018-06-29 09:50:23.000000,-27.55,75.3
125793,2018-06-29 09:50:23.031250,-34.52,75.3
125794,2018-06-29 09:50:23.062500,-41.59,75.3
125795,2018-06-29 09:50:23.093750,-48.17,75.3
125796,2018-06-29 09:50:23.125000,-49.6,75.3
125797,2018-06-29 09:50:23.156250,-40.08,75.3
125798,2018-06-29 09:50:23.187500,-20.61,75.3
125799,2018-06-29 09:50:23.218750,0.62,75.3
125800,2018-06-29 09:50:23.250000,14.88,75.3
125801,2018-06-29 09:50:23.281250,14.98,75.3
125802,2018-06-29 09:50:23.312500,-4.4,75.3
125803,2018-06-29 09:50:23.343750,-41.41,75.3
125804,2018-06-29 09:50:23.375000,-83.51,75.3
125805,2018-06-29 09:50:23.406250,-116.04,75.3
125806,2018-06-29 09:50:23.437500,-131.21,75.3
125807,2018-06-29 09:50:23.468750,-125.37,75.3
125808,2018-06-29 09:50:23.500000,-97.34,75.3
125809,2018-06-29 09:50:23.531250,-56.29,75.18
125810,2018-06-29 09:50:23.562500,-20.78,75.18
125811,2018-06-29 09:50:23.593750,-1.2,75.18
125812,2018-06-29 09:50:23.625000,7.89,75.18
125813,2018-06-29 09:50:23.656250,14.33,75.18
125814,2018-06-29 09:50:23.687500,17.49,75.18
125815,2018-06-29 09:50:23.718750,13.84,75.18
125816,2018-06-29 09:50:23.750000,5.14,75.18
125817,2018-06-29 09:50:23.781250,-3.69,75.18
125818,2018-06-29 09:50:23.812500,-10.09,75.18
125819,2018-06-29 09:50:23.843750,-14.33,75.18
125820,2018-06-29 09:50:23.875000,-16.83,75.18
125821,2018-06-29 09:50:23.906250,-16.16,75.18
125822,2018-06-29 09:50:23.937500,-8.42,75.18
125823,2018-06-29 09:50:23.968750,10.86,75.18
125824,2018-06-29 09:50:24.000000,40.53,75.18
125825,2018-06-29 09:50:24.031250,71.42,75.18
125826,2018-06-29 09:50:24.062500,94.83,75.18
125827,2018-06-29 09:50:24.093750,109.29,75.18
125828,2018-06-29 09:50:24.125000,114.83,75.18
125829,2018-06-29 09:50:24.156250,108.27,75.18
125830,2018-06-29 09:50:24.187500,89.76,75.18
125831,2018-06-29 09:50:24.218750,65.16,75.18
125832,2018-06-29 09:50:24.250000,37.98,75.18
125833,2018-06-29 09:50:24.281250,7.14,75.18
125834,2018-06-29 09:50:24.312500,-26.92,75.18
125835,2018-06-29 09:50:24.343750,-60.14,75.18
125836,2018-06-29 09:50:24.375000,-87.52,75.18
125837,2018-06-29 09:50:24.406250,-104.84,75.18
125838,2018-06-29 09:50:24.437500,-112.31,75.18
125839,2018-06-29 09:50:24.468750,-116.54,75.18
125840,2018-06-29 09:50:24.500000,-123.83,75.18
125841,2018-06-29 09:50:24.531250,-132.64,75.08
125842,2018-06-29 09:50:24.562500,-136.38,75.08
125843,2018-06-29 09:50:24.593750,-130.92,75.08
125844,2018-06-29 09:50:24.625000,-116.74,75.08
125845,2018-06-29 09:50:24.656250,-95.81,75.08
125846,2018-06-29 09:50:24.687500,-70.07,75.08
125847,2018-06-29 09:50:24.718750,-42.37,75.08
125848,2018-06-29 09:50:24.750000,-16.17,75.08
125849,2018-06-29 09:50:24.781250,6.26,75.08
125850,2018-06-29 09:50:24.812500,24.25,75.08
125851,2018-06-29 09:50:24.843750,37.8,75.08
125852,2018-06-29 09:50:24.875000,46.69,75.08
125853,2018-06-29 09:50:24.906250,50.02,75.08
125854,2018-06-29 09:50:24.937500,47.55,75.08
125855,2018-06-29 09:50:24.968750,41.51,75.08
125856,2018-06-29 09:50:25.000000,34.74,75.08
125857,2018-06-29 09:50:25.031250,27.34,75.08
125858,2018-06-29 09:50:25.062500,18.36,75.08
125859,2018-06-29 09:50:25.093750,8.46,75.08
125860,2018-06-29 09:50:25.125000,-1.54,75.08
125861,2018-06-29 09:50:25.156250,-12.0,75.08
125862,2018-06-29 09:50:25.187500,-23.83,75.08
125863,2018-06-29 09:50:25.218750,-37.4,75.08
125864,2018-06-29 09:50:25.250000,-51.99,75.08
125865,2018-06-29 09:50:25.281250,-66.06,75.08
125866,2018-06-29 09:50:25.312500,-79.11,75.08
125867,2018-06-29 09:50:25.343750,-92.44,75.08
125868,2018-06-29 09:50:25.375000,-106.18,75.08
125869,2018-06-29 09:50:25.406250,-116.11,75.08
125870,2018-06-29 09:50:25.437500,-114.94,75.08
125871,2018-06-29 09:50:25.468750,-98.51,75.08
125872,2018-06-29 09:50:25.500000,-70.7,75.08
125873,2018-06-29 09:50:25.531250,-39.88,74.9
125874,2018-06-29 09:50:25.562500,-11.48,74.9
125875,2018-06-29 09:50:25.593750,13.69,74.9
125876,2018-06-29 09:50:25.625000,35.09,74.9
125877,2018-06-29 09:50:25.656250,50.27,74.9
125878,2018-06-29 09:50:25.687500,57.58,74.9
125879,2018-06-29 09:50:25.718750,58.03,74.9
125880,2018-06-29 09:50:25.750000,54.47,74.9
125881,2018-06-29 09:50:25.781250,49.44,74.9
125882,2018-06-29 09:50:25.812500,43.84,74.9
125883,2018-06-29 09:50:25.843750,37.65,74.9
125884,2018-06-29 09:50:25.875000,30.44,74.9
125885,2018-06-29 09:50:25.906250,21.71,74.9
125886,2018-06-29 09:50:25.937500,11.68,74.9
125887,2018-06-29 09:50:25.968750,1.41,74.9
125888,2018-06-29 09:50:26.000000,-7.81,74.9
125889,2018-06-29 09:50:26.031250,-15.54,74.9
125890,2018-06-29 09:50:26.062500,-22.94,74.9
125891,2018-06-29 09:50:26.093750,-32.21,74.9
125892,2018-06-29 09:50:26.125000,-44.79,74.9
125893,2018-06-29 09:50:26.156250,-59.79,74.9
125894,2018-06-29 09:50:26.187500,-71.63,74.9
125895,2018-06-29 09:50:26.218750,-70.35,74.9
125896,2018-06-29 09:50:26.250000,-50.25,74.9
125897,2018-06-29 09:50:26.281250,-17.31,74.9
125898,2018-06-29 09:50:26.312500,16.93,74.9
125899,2018-06-29 09:50:26.343750,45.89,74.9
125900,2018-06-29 09:50:26.375000,68.85,74.9
125901,2018-06-29 09:50:26.406250,85.83,74.9
125902,2018-06-29 09:50:26.437500,96.21,74.9
125903,2018-06-29 09:50:26.468750,100.74,74.9
125904,2018-06-29 09:50:26.500000,102.18,74.9
125905,2018-06-29 09:50:26.531250,103.28,74.75
125906,2018-06-29 09:50:26.562500,105.19,74.75
125907,2018-06-29 09:50:26.593750,108.59,74.75
125908,2018-06-29 09:50:26.625000,113.9,74.75
125909,2018-06-29 09:50:26.656250,119.47,74.75
125910,2018-06-29 09:50:26.687500,122.58,74.75
125911,2018-06-29 09:50:26.718750,122.59,74.75
125912,2018-06-29 09:50:26.750000,121.76,74.75
125913,2018-06-29 09:50:26.781250,122.9,74.75
125914,2018-06-29 09:50:26.812500,126.32,74.75
125915,2018-06-29 09:50:26.843750,128.85,74.75
125916,2018-06-29 09:50:26.875000,127.32,74.75
125917,2018-06-29 09:50:26.906250,122.42,74.75
125918,2018-06-29 09:50:26.937500,117.04,74.75
125919,2018-06-29 09:50:26.968750,110.44,74.75
125920,2018-06-29 09:50:27.000000,95.74,74.75
125921,2018-06-29 09:50:27.031250,63.83,74.75
125922,2018-06-29 09:50:27.062500,12.68,74.75
125923,2018-06-29 09:50:27.093750,-46.41,74.75
125924,2018-06-29 09:50:27.125000,-93.85,74.75
125925,2018-06-29 09:50:27.156250,-116.26,74.75
125926,2018-06-29 09:50:27.187500,-115.56,74.75
125927,2018-06-29 09:50:27.218750,-103.03,74.75
125928,2018-06-29 09:50:27.250000,-88.59,74.75
125929,2018-06-29 09:50:27.281250,-77.44,74.75
125930,2018-06-29 09:50:27.312500,-71.54,74.75
125931,2018-06-29 09:50:27.343750,-68.49,74.75
125932,2018-06-29 09:50:27.375000,-61.55,74.75
125933,2018-06-29 09:50:27.406250,-46.5,74.75
125934,2018-06-29 09:50:27.437500,-27.56,74.75
125935,2018-06-29 09:50:27.468750,-13.68,74.75
125936,2018-06-29 09:50:27.500000,-8.74,74.75
125937,2018-06-29 09:50:27.531250,-9.28,74.63
125938,2018-06-29 09:50:27.562500,-10.7,74.63
125939,2018-06-29 09:50:27.593750,-11.19,74.63
125940,2018-06-29 09:50:27.625000,-10.42,74.63
125941,2018-06-29 09:50:27.656250,-8.2,74.63
125942,2018-06-29 09:50:27.687500,-5.94,74.63
125943,2018-06-29 09:50:27.718750,-6.72,74.63
125944,2018-06-29 09:50:27.750000,-12.46,74.63
125945,2018-06-29 09:50:27.781250,-20.97,74.63
125946,2018-06-29 09:50:27.812500,-26.93,74.63
125947,2018-06-29 09:50:27.843750,-27.01,74.63
125948,2018-06-29 09:50:27.875000,-22.4,74.63
125949,2018-06-29 09:50:27.906250,-17.15,74.63
125950,2018-06-29 09:50:27.937500,-14.86,74.63
125951,2018-06-29 09:50:27.968750,-14.4,74.63
125952,2018-06-29 09:50:28.000000,-8.07,74.63
125953,2018-06-29 09:50:28.031250,10.73,74.63
125954,2018-06-29 09:50:28.062500,38.27,74.63
125955,2018-06-29 09:50:28.093750,64.43,74.63
125956,2018-06-29 09:50:28.125000,83.44,74.63
125957,2018-06-29 09:50:28.156250,95.91,74.63
125958,2018-06-29 09:50:28.187500,104.96,74.63
125959,2018-06-29 09:50:28.218750,113.83,74.63
125960,2018-06-29 09:50:28.250000,123.2,74.63
125961,2018-06-29 09:50:28.281250,130.16,74.63
125962,2018-06-29 09:50:28.312500,133.61,74.63
125963,2018-06-29 09:50:28.343750,137.13,74.63
125964,2018-06-29 09:50:28.375000,143.23,74.63
125965,2018-06-29 09:50:28.406250,148.63,74.63
125966,2018-06-29 09:50:28.437500,148.53,74.63
125967,2018-06-29 09:50:28.468750,141.58,74.63
125968,2018-06-29 09:50:28.500000,129.5,74.63
125969,2018-06-29 09:50:28.531250,115.0,74.45
125970,2018-06-29 09:50:28.562500,99.59,74.45
125971,2018-06-29 09:50:28.593750,80.45,74.45
125972,2018-06-29 09:50:28.625000,51.85,74.45
125973,2018-06-29 09:50:28.656250,12.14,74.45
125974,2018-06-29 09:50:28.687500,-34.0,74.45
125975,2018-06-29 09:50:28.718750,-82.44,74.45
125976,2018-06-29 09:50:28.750000,-135.26,74.45
125977,2018-06-29 09:50:28.781250,-195.26,74.45
125978,2018-06-29 09:50:28.812500,-254.85,74.45
125979,2018-06-29 09:50:28.843750,-296.74,74.45
125980,2018-06-29 09:50:28.875000,-311.44,74.45
125981,2018-06-29 09:50:28.906250,-308.69,74.45
125982,2018-06-29 09:50:28.937500,-302.12,74.45
125983,2018-06-29 09:50:28.968750,-288.86,74.45
125984,2018-06-29 09:50:29.000000,-257.37,74.45
125985,2018-06-29 09:50:29.031250,-207.98,74.45
125986,2018-06-29 09:50:29.062500,-148.72,74.45
125987,2018-06-29 09:50:29.093750,-77.59,74.45
125988,2018-06-29 09:50:29.125000,15.0,74.45
125989,2018-06-29 09:50:29.156250,129.26,74.45
125990,2018-06-29 09:50:29.187500,245.98,74.45
125991,2018-06-29 09:50:29.218750,330.92,74.45
125992,2018-06-29 09:50:29.250000,358.39,74.45
125993,2018-06-29 09:50:29.281250,332.03,74.45
125994,2018-06-29 09:50:29.312500,275.7,74.45
125995,2018-06-29 09:50:29.343750,215.41,74.45
125996,2018-06-29 09:50:29.375000,172.67,74.45
125997,2018-06-29 09:50:29.406250,153.74,74.45
125998,2018-06-29 09:50:29.437500,144.9,74.45
125999,2018-06-29 09:50:29.468750,127.28,74.45
126000,2018-06-29 09:50:29.500000,79.9,74.45
126001,2018-06-29 09:50:29.531250,-24.03,74.23
126002,2018-06-29 09:50:29.562500,-194.16,74.23
126003,2018-06-29 09:50:29.593750,-404.4,74.23
126004,2018-06-29 09:50:29.625000,-604.51,74.23
126005,2018-06-29 09:50:29.656250,-731.4,74.23
126006,2018-06-29 09:50:29.687500,-722.99,74.23
126007,2018-06-29 09:50:29.718750,-566.04,74.23
126008,2018-06-29 09:50:29.750000,-335.32,74.23
126009,2018-06-29 09:50:29.781250,-147.06,74.23
126010,2018-06-29 09:50:29.812500,-53.32,74.23
126011,2018-06-29 09:50:29.843750,-16.24,74.23
126012,2018-06-29 09:50:29.875000,0.09,74.23
126013,2018-06-29 09:50:29.906250,-16.72,74.23
126014,2018-06-29 09:50:29.937500,-63.07,74.23
126015,2018-06-29 09:50:29.968750,-92.75,74.23
126016,2018-06-29 09:50:30.000000,-76.54,74.23
126017,2018-06-29 09:50:30.031250,-23.01,74.23
126018,2018-06-29 09:50:30.062500,61.25,74.23
126019,2018-06-29 09:50:30.093750,174.02,74.23
126020,2018-06-29 09:50:30.125000,284.58,74.23
126021,2018-06-29 09:50:30.156250,344.95,74.23
126022,2018-06-29 09:50:30.187500,338.42,74.23
126023,2018-06-29 09:50:30.218750,291.89,74.23
126024,2018-06-29 09:50:30.250000,239.76,74.23
126025,2018-06-29 09:50:30.281250,201.32,74.23
126026,2018-06-29 09:50:30.312500,191.97,74.23
126027,2018-06-29 09:50:30.343750,220.88,74.23
126028,2018-06-29 09:50:30.375000,271.15,74.23
126029,2018-06-29 09:50:30.406250,307.17,74.23
126030,2018-06-29 09:50:30.437500,300.65,74.23
126031,2018-06-29 09:50:30.468750,231.83,74.23
126032,2018-06-29 09:50:30.500000,89.42,74.23
126033,2018-06-29 09:50:30.531250,-99.14,73.98
126034,2018-06-29 09:50:30.562500,-272.87,73.98
126035,2018-06-29 09:50:30.593750,-397.13,73.98
126036,2018-06-29 09:50:30.625000,-475.83,73.98
126037,2018-06-29 09:50:30.656250,-503.59,73.98
126038,2018-06-29 09:50:30.687500,-459.58,73.98
126039,2018-06-29 09:50:30.718750,-343.56,73.98
126040,2018-06-29 09:50:30.750000,-182.93,73.98
126041,2018-06-29 09:50:30.781250,-15.9,73.98
126042,2018-06-29 09:50:30.812500,121.08,73.98
126043,2018-06-29 09:50:30.843750,203.99,73.98
126044,2018-06-29 09:50:30.875000,222.36,73.98
126045,2018-06-29 09:50:30.906250,180.53,73.98
126046,2018-06-29 09:50:30.937500,105.54,73.98
126047,2018-06-29 09:50:30.968750,32.7,73.98
126048,2018-06-29 09:50:31.000000,-24.58,73.98
126049,2018-06-29 09:50:31.031250,-70.82,73.98
126050,2018-06-29 09:50:31.062500,-102.71,73.98
126051,2018-06-29 09:50:31.093750,-115.09,73.98
126052,2018-06-29 09:50:31.125000,-119.75,73.98
126053,2018-06-29 09:50:31.156250,-132.12,73.98
126054,2018-06-29 09:50:31.187500,-149.09,73.98
126055,2018-06-29 09:50:31.218750,-155.15,73.98
126056,2018-06-29 09:50:31.250000,-141.13,73.98
126057,2018-06-29 09:50:31.281250,-110.54,73.98
126058,2018-06-29 09:50:31.312500,-73.95,73.98
126059,2018-06-29 09:50:31.343750,-40.57,73.98
126060,2018-06-29 09:50:31.375000,-14.1,73.98
126061,2018-06-29 09:50:31.406250,5.1,73.98
126062,2018-06-29 09:50:31.437500,16.86,73.98
126063,2018-06-29 09:50:31.468750,21.67,73.98
126064,2018-06-29 09:50:31.500000,21.82,73.98
126065,2018-06-29 09:50:31.531250,19.39,73.72
126066,2018-06-29 09:50:31.562500,14.7,73.72
126067,2018-06-29 09:50:31.593750,7.51,73.72
126068,2018-06-29 09:50:31.625000,-1.03,73.72
126069,2018-06-29 09:50:31.656250,-9.66,73.72
126070,2018-06-29 09:50:31.687500,-18.83,73.72
126071,2018-06-29 09:50:31.718750,-29.35,73.72
126072,2018-06-29 09:50:31.750000,-40.14,73.72
126073,2018-06-29 09:50:31.781250,-49.65,73.72
126074,2018-06-29 09:50:31.812500,-58.28,73.72
126075,2018-06-29 09:50:31.843750,-67.05,73.72
126076,2018-06-29 09:50:31.875000,-75.37,73.72
126077,2018-06-29 09:50:31.906250,-82.37,73.72
126078,2018-06-29 09:50:31.937500,-87.18,73.72
126079,2018-06-29 09:50:31.968750,-84.36,73.72
126080,2018-06-29 09:50:32.000000,-64.03,73.72
126081,2018-06-29 09:50:32.031250,-22.71,73.72
126082,2018-06-29 09:50:32.062500,30.04,73.72
126083,2018-06-29 09:50:32.093750,81.01,73.72
126084,2018-06-29 09:50:32.125000,123.68,73.72
126085,2018-06-29 09:50:32.156250,156.74,73.72
126086,2018-06-29 09:50:32.187500,179.8,73.72
126087,2018-06-29 09:50:32.218750,193.63,73.72
126088,2018-06-29 09:50:32.250000,199.94,73.72
126089,2018-06-29 09:50:32.281250,200.27,73.72
126090,2018-06-29 09:50:32.312500,196.1,73.72
126091,2018-06-29 09:50:32.343750,189.24,73.72
126092,2018-06-29 09:50:32.375000,181.58,73.72
126093,2018-06-29 09:50:32.406250,172.88,73.72
126094,2018-06-29 09:50:32.437500,158.66,73.72
126095,2018-06-29 09:50:32.468750,134.17,73.72
126096,2018-06-29 09:50:32.500000,101.18,73.72
126097,2018-06-29 09:50:32.531250,65.99,73.35
126098,2018-06-29 09:50:32.562500,32.46,73.35
126099,2018-06-29 09:50:32.593750,1.69,73.35
126100,2018-06-29 09:50:32.625000,-24.88,73.35
126101,2018-06-29 09:50:32.656250,-46.45,73.35
126102,2018-06-29 09:50:32.687500,-64.19,73.35
126103,2018-06-29 09:50:32.718750,-77.15,73.35
126104,2018-06-29 09:50:32.750000,-79.9,73.35
126105,2018-06-29 09:50:32.781250,-68.47,73.35
126106,2018-06-29 09:50:32.812500,-46.46,73.35
126107,2018-06-29 09:50:32.843750,-22.67,73.35
126108,2018-06-29 09:50:32.875000,-4.25,73.35
126109,2018-06-29 09:50:32.906250,6.74,73.35
126110,2018-06-29 09:50:32.937500,12.44,73.35
126111,2018-06-29 09:50:32.968750,15.94,73.35
126112,2018-06-29 09:50:33.000000,19.14,73.35
126113,2018-06-29 09:50:33.031250,23.74,73.35
126114,2018-06-29 09:50:33.062500,31.61,73.35
126115,2018-06-29 09:50:33.093750,43.28,73.35
126116,2018-06-29 09:50:33.125000,57.86,73.35
126117,2018-06-29 09:50:33.156250,74.41,73.35
126118,2018-06-29 09:50:33.187500,90.9,73.35
126119,2018-06-29 09:50:33.218750,103.34,73.35
126120,2018-06-29 09:50:33.250000,108.93,73.35
126121,2018-06-29 09:50:33.281250,108.18,73.35
126122,2018-06-29 09:50:33.312500,104.12,73.35
126123,2018-06-29 09:50:33.343750,100.83,73.35
126124,2018-06-29 09:50:33.375000,101.73,73.35
126125,2018-06-29 09:50:33.406250,107.23,73.35
126126,2018-06-29 09:50:33.437500,113.13,73.35
126127,2018-06-29 09:50:33.468750,113.3,73.35
126128,2018-06-29 09:50:33.500000,103.89,73.35
126129,2018-06-29 09:50:33.531250,86.57,73.05
126130,2018-06-29 09:50:33.562500,68.71,73.05
126131,2018-06-29 09:50:33.593750,58.65,73.05
126132,2018-06-29 09:50:33.625000,58.44,73.05
126133,2018-06-29 09:50:33.656250,62.08,73.05
126134,2018-06-29 09:50:33.687500,64.02,73.05
126135,2018-06-29 09:50:33.718750,64.9,73.05
126136,2018-06-29 09:50:33.750000,66.79,73.05
126137,2018-06-29 09:50:33.781250,68.26,73.05
126138,2018-06-29 09:50:33.812500,68.34,73.05
126139,2018-06-29 09:50:33.843750,70.04,73.05
126140,2018-06-29 09:50:33.875000,74.74,73.05
126141,2018-06-29 09:50:33.906250,77.34,73.05
126142,2018-06-29 09:50:33.937500,70.16,73.05
126143,2018-06-29 09:50:33.968750,49.08,73.05
126144,2018-06-29 09:50:34.000000,13.83,73.05
126145,2018-06-29 09:50:34.031250,-33.01,73.05
126146,2018-06-29 09:50:34.062500,-84.16,73.05
126147,2018-06-29 09:50:34.093750,-128.14,73.05
126148,2018-06-29 09:50:34.125000,-154.67,73.05
126149,2018-06-29 09:50:34.156250,-157.66,73.05
126150,2018-06-29 09:50:34.187500,-134.12,73.05
126151,2018-06-29 09:50:34.218750,-86.6,73.05
126152,2018-06-29 09:50:34.250000,-28.62,73.05
126153,2018-06-29 09:50:34.281250,21.65,73.05
126154,2018-06-29 09:50:34.312500,57.1,73.05
126155,2018-06-29 09:50:34.343750,84.94,73.05
126156,2018-06-29 09:50:34.375000,113.24,73.05
126157,2018-06-29 09:50:34.406250,141.69,73.05
126158,2018-06-29 09:50:34.437500,166.28,73.05
126159,2018-06-29 09:50:34.468750,187.33,73.05
126160,2018-06-29 09:50:34.500000,210.1,73.05
126161,2018-06-29 09:50:34.531250,234.43,72.77
126162,2018-06-29 09:50:34.562500,246.5,72.77
126163,2018-06-29 09:50:34.593750,231.3,72.77
126164,2018-06-29 09:50:34.625000,192.28,72.77
126165,2018-06-29 09:50:34.656250,146.55,72.77
126166,2018-06-29 09:50:34.687500,105.26,72.77
126167,2018-06-29 09:50:34.718750,69.35,72.77
126168,2018-06-29 09:50:34.750000,37.17,72.77
126169,2018-06-29 09:50:34.781250,6.26,72.77
126170,2018-06-29 09:50:34.812500,-25.5,72.77
126171,2018-06-29 09:50:34.843750,-57.12,72.77
126172,2018-06-29 09:50:34.875000,-87.84,72.77
126173,2018-06-29 09:50:34.906250,-120.68,72.77
126174,2018-06-29 09:50:34.937500,-158.25,72.77
126175,2018-06-29 09:50:34.968750,-197.2,72.77
126176,2018-06-29 09:50:35.000000,-229.69,72.77
126177,2018-06-29 09:50:35.031250,-249.29,72.77
126178,2018-06-29 09:50:35.062500,-252.48,72.77
126179,2018-06-29 09:50:35.093750,-236.07,72.77
126180,2018-06-29 09:50:35.125000,-199.82,72.77
126181,2018-06-29 09:50:35.156250,-152.49,72.77
126182,2018-06-29 09:50:35.187500,-107.74,72.77
126183,2018-06-29 09:50:35.218750,-77.88,72.77
126184,2018-06-29 09:50:35.250000,-75.12,72.77
126185,2018-06-29 09:50:35.281250,-103.37,72.77
126186,2018-06-29 09:50:35.312500,-143.67,72.77
126187,2018-06-29 09:50:35.343750,-164.2,72.77
126188,2018-06-29 09:50:35.375000,-148.71,72.77
126189,2018-06-29 09:50:35.406250,-111.03,72.77
126190,2018-06-29 09:50:35.437500,-89.7,72.77
126191,2018-06-29 09:50:35.468750,-116.4,72.77
126192,2018-06-29 09:50:35.500000,-163.02,72.77
126193,2018-06-29 09:50:35.531250,-150.55,72.45
126194,2018-06-29 09:50:35.562500,-39.7,72.45
126195,2018-06-29 09:50:35.593750,123.12,72.45
126196,2018-06-29 09:50:35.625000,260.77,72.45
126197,2018-06-29 09:50:35.656250,325.81,72.45
126198,2018-06-29 09:50:35.687500,312.98,72.45
126199,2018-06-29 09:50:35.718750,249.55,72.45
126200,2018-06-29 09:50:35.750000,164.06,72.45
126201,2018-06-29 09:50:35.781250,59.94,72.45
126202,2018-06-29 09:50:35.812500,-56.12,72.45
126203,2018-06-29 09:50:35.843750,-150.19,72.45
126204,2018-06-29 09:50:35.875000,-205.16,72.45
126205,2018-06-29 09:50:35.906250,-249.5,72.45
126206,2018-06-29 09:50:35.937500,-308.53,72.45
126207,2018-06-29 09:50:35.968750,-370.01,72.45
126208,2018-06-29 09:50:36.000000,-418.32,72.45
126209,2018-06-29 09:50:36.031250,-453.14,72.45
126210,2018-06-29 09:50:36.062500,-463.28,72.45
126211,2018-06-29 09:50:36.093750,-429.17,72.45
126212,2018-06-29 09:50:36.125000,-354.62,72.45
126213,2018-06-29 09:50:36.156250,-264.83,72.45
126214,2018-06-29 09:50:36.187500,-176.21,72.45
126215,2018-06-29 09:50:36.218750,-83.63,72.45
126216,2018-06-29 09:50:36.250000,22.06,72.45
126217,2018-06-29 09:50:36.281250,128.66,72.45
126218,2018-06-29 09:50:36.312500,208.8,72.45
126219,2018-06-29 09:50:36.343750,254.04,72.45
126220,2018-06-29 09:50:36.375000,280.46,72.45
126221,2018-06-29 09:50:36.406250,296.36,72.45
126222,2018-06-29 09:50:36.437500,295.38,72.45
126223,2018-06-29 09:50:36.468750,275.57,72.45
126224,2018-06-29 09:50:36.500000,240.06,72.45
126225,2018-06-29 09:50:36.531250,190.11,72.15
126226,2018-06-29 09:50:36.562500,128.06,72.15
126227,2018-06-29 09:50:36.593750,58.3,72.15
126228,2018-06-29 09:50:36.625000,-10.25,72.15
126229,2018-06-29 09:50:36.656250,-62.49,72.15
126230,2018-06-29 09:50:36.687500,-92.92,72.15
126231,2018-06-29 09:50:36.718750,-111.29,72.15
126232,2018-06-29 09:50:36.750000,-120.93,72.15
126233,2018-06-29 09:50:36.781250,-116.31,72.15
126234,2018-06-29 09:50:36.812500,-102.04,72.15
126235,2018-06-29 09:50:36.843750,-88.95,72.15
126236,2018-06-29 09:50:36.875000,-79.01,72.15
126237,2018-06-29 09:50:36.906250,-67.23,72.15
126238,2018-06-29 09:50:36.937500,-50.68,72.15
126239,2018-06-29 09:50:36.968750,-31.26,72.15
126240,2018-06-29 09:50:37.000000,-13.52,72.15
126241,2018-06-29 09:50:37.031250,3.87,72.15
126242,2018-06-29 09:50:37.062500,27.52,72.15
126243,2018-06-29 09:50:37.093750,54.42,72.15
126244,2018-06-29 09:50:37.125000,72.79,72.15
126245,2018-06-29 09:50:37.156250,79.9,72.15
126246,2018-06-29 09:50:37.187500,81.59,72.15
126247,2018-06-29 09:50:37.218750,78.17,72.15
126248,2018-06-29 09:50:37.250000,67.2,72.15
126249,2018-06-29 09:50:37.281250,53.3,72.15
126250,2018-06-29 09:50:37.312500,43.2,72.15
126251,2018-06-29 09:50:37.343750,36.29,72.15
126252,2018-06-29 09:50:37.375000,26.66,72.15
126253,2018-06-29 09:50:37.406250,10.77,72.15
126254,2018-06-29 09:50:37.437500,-8.19,72.15
126255,2018-06-29 09:50:37.468750,-21.43,72.15
126256,2018-06-29 09:50:37.500000,-21.6,72.15
126257,2018-06-29 09:50:37.531250,-9.8,71.9
126258,2018-06-29 09:50:37.562500,6.31,71.9
126259,2018-06-29 09:50:37.593750,20.59,71.9
126260,2018-06-29 09:50:37.625000,31.4,71.9
126261,2018-06-29 09:50:37.656250,38.82,71.9
126262,2018-06-29 09:50:37.687500,42.64,71.9
126263,2018-06-29 09:50:37.718750,42.78,71.9
126264,2018-06-29 09:50:37.750000,39.38,71.9
126265,2018-06-29 09:50:37.781250,32.51,71.9
126266,2018-06-29 09:50:37.812500,22.39,71.9
126267,2018-06-29 09:50:37.843750,8.94,71.9
126268,2018-06-29 09:50:37.875000,-8.77,71.9
126269,2018-06-29 09:50:37.906250,-29.81,71.9
126270,2018-06-29 09:50:37.937500,-47.51,71.9
126271,2018-06-29 09:50:37.968750,-51.31,71.9
126272,2018-06-29 09:50:38.000000,-35.98,71.9
126273,2018-06-29 09:50:38.031250,-8.8,71.9
126274,2018-06-29 09:50:38.062500,15.42,71.9
126275,2018-06-29 09:50:38.093750,28.19,71.9
126276,2018-06-29 09:50:38.125000,32.26,71.9
126277,2018-06-29 09:50:38.156250,32.81,71.9
126278,2018-06-29 09:50:38.187500,30.69,71.9
126279,2018-06-29 09:50:38.218750,24.24,71.9
126280,2018-06-29 09:50:38.250000,12.8,71.9
126281,2018-06-29 09:50:38.281250,0.13,71.9
126282,2018-06-29 09:50:38.312500,-5.66,71.9
126283,2018-06-29 09:50:38.343750,-1.92,71.9
126284,2018-06-29 09:50:38.375000,2.8,71.9
126285,2018-06-29 09:50:38.406250,-0.82,71.9
126286,2018-06-29 09:50:38.437500,-12.44,71.9
126287,2018-06-29 09:50:38.468750,-26.81,71.9
126288,2018-06-29 09:50:38.500000,-40.8,71.9
126289,2018-06-29 09:50:38.531250,-52.92,71.65
126290,2018-06-29 09:50:38.562500,-62.54,71.65
126291,2018-06-29 09:50:38.593750,-70.6,71.65
126292,2018-06-29 09:50:38.625000,-77.94,71.65
126293,2018-06-29 09:50:38.656250,-84.98,71.65
126294,2018-06-29 09:50:38.687500,-92.99,71.65
126295,2018-06-29 09:50:38.718750,-102.21,71.65
126296,2018-06-29 09:50:38.750000,-110.01,71.65
126297,2018-06-29 09:50:38.781250,-114.27,71.65
126298,2018-06-29 09:50:38.812500,-115.82,71.65
126299,2018-06-29 09:50:38.843750,-115.18,71.65
126300,2018-06-29 09:50:38.875000,-110.4,71.65
126301,2018-06-29 09:50:38.906250,-99.19,71.65
126302,2018-06-29 09:50:38.937500,-82.12,71.65
126303,2018-06-29 09:50:38.968750,-64.76,71.65
126304,2018-06-29 09:50:39.000000,-53.52,71.65
126305,2018-06-29 09:50:39.031250,-43.53,71.65
126306,2018-06-29 09:50:39.062500,-19.27,71.65
126307,2018-06-29 09:50:39.093750,24.06,71.65
126308,2018-06-29 09:50:39.125000,69.97,71.65
126309,2018-06-29 09:50:39.156250,100.09,71.65
126310,2018-06-29 09:50:39.187500,112.73,71.65
126311,2018-06-29 09:50:39.218750,116.6,71.65
126312,2018-06-29 09:50:39.250000,116.64,71.65
126313,2018-06-29 09:50:39.281250,110.8,71.65
126314,2018-06-29 09:50:39.312500,95.7,71.65
126315,2018-06-29 09:50:39.343750,73.5,71.65
126316,2018-06-29 09:50:39.375000,53.02,71.65
126317,2018-06-29 09:50:39.406250,42.91,71.65
126318,2018-06-29 09:50:39.437500,44.81,71.65
126319,2018-06-29 09:50:39.468750,53.62,71.65
126320,2018-06-29 09:50:39.500000,60.89,71.65
126321,2018-06-29 09:50:39.531250,59.43,71.47
126322,2018-06-29 09:50:39.562500,49.08,71.47
126323,2018-06-29 09:50:39.593750,36.72,71.47
126324,2018-06-29 09:50:39.625000,29.58,71.47
126325,2018-06-29 09:50:39.656250,30.71,71.47
126326,2018-06-29 09:50:39.687500,36.84,71.47
126327,2018-06-29 09:50:39.718750,36.73,71.47
126328,2018-06-29 09:50:39.750000,20.37,71.47
126329,2018-06-29 09:50:39.781250,-6.29,71.47
126330,2018-06-29 09:50:39.812500,-25.57,71.47
126331,2018-06-29 09:50:39.843750,-26.74,71.47
126332,2018-06-29 09:50:39.875000,-13.91,71.47
126333,2018-06-29 09:50:39.906250,3.45,71.47
126334,2018-06-29 09:50:39.937500,20.01,71.47
126335,2018-06-29 09:50:39.968750,32.66,71.47
126336,2018-06-29 09:50:40.000000,31.2,71.47
126337,2018-06-29 09:50:40.031250,3.08,71.47
126338,2018-06-29 09:50:40.062500,-47.37,71.47
126339,2018-06-29 09:50:40.093750,-98.6,71.47
126340,2018-06-29 09:50:40.125000,-133.7,71.47
126341,2018-06-29 09:50:40.156250,-148.79,71.47
126342,2018-06-29 09:50:40.187500,-144.82,71.47
126343,2018-06-29 09:50:40.218750,-126.03,71.47
126344,2018-06-29 09:50:40.250000,-101.59,71.47
126345,2018-06-29 09:50:40.281250,-78.48,71.47
126346,2018-06-29 09:50:40.312500,-56.89,71.47
126347,2018-06-29 09:50:40.343750,-35.04,71.47
126348,2018-06-29 09:50:40.375000,-14.26,71.47
126349,2018-06-29 09:50:40.406250,0.68,71.47
126350,2018-06-29 09:50:40.437500,5.81,71.47
126351,2018-06-29 09:50:40.468750,2.28,71.47
126352,2018-06-29 09:50:40.500000,-5.02,71.47
126353,2018-06-29 09:50:40.531250,-13.42,71.38
126354,2018-06-29 09:50:40.562500,-24.56,71.38
126355,2018-06-29 09:50:40.593750,-40.28,71.38
126356,2018-06-29 09:50:40.625000,-58.76,71.38
126357,2018-06-29 09:50:40.656250,-73.82,71.38
126358,2018-06-29 09:50:40.687500,-77.95,71.38
126359,2018-06-29 09:50:40.718750,-67.64,71.38
126360,2018-06-29 09:50:40.750000,-46.21,71.38
126361,2018-06-29 09:50:40.781250,-20.18,71.38
126362,2018-06-29 09:50:40.812500,5.66,71.38
126363,2018-06-29 09:50:40.843750,28.64,71.38
126364,2018-06-29 09:50:40.875000,46.07,71.38
126365,2018-06-29 09:50:40.906250,55.8,71.38
126366,2018-06-29 09:50:40.937500,58.35,71.38
126367,2018-06-29 09:50:40.968750,56.84,71.38
126368,2018-06-29 09:50:41.000000,54.0,71.38
126369,2018-06-29 09:50:41.031250,51.95,71.38
126370,2018-06-29 09:50:41.062500,53.28,71.38
126371,2018-06-29 09:50:41.093750,58.53,71.38
126372,2018-06-29 09:50:41.125000,64.36,71.38
126373,2018-06-29 09:50:41.156250,67.54,71.38
126374,2018-06-29 09:50:41.187500,68.16,71.38
126375,2018-06-29 09:50:41.218750,66.35,71.38
126376,2018-06-29 09:50:41.250000,60.05,71.38
126377,2018-06-29 09:50:41.281250,48.12,71.38
126378,2018-06-29 09:50:41.312500,32.56,71.38
126379,2018-06-29 09:50:41.343750,16.11,71.38
126380,2018-06-29 09:50:41.375000,-0.67,71.38
126381,2018-06-29 09:50:41.406250,-18.94,71.38
126382,2018-06-29 09:50:41.437500,-38.41,71.38
126383,2018-06-29 09:50:41.468750,-54.52,71.38
126384,2018-06-29 09:50:41.500000,-59.8,71.38
126385,2018-06-29 09:50:41.531250,-50.62,71.37
126386,2018-06-29 09:50:41.562500,-30.94,71.37
126387,2018-06-29 09:50:41.593750,-7.88,71.37
126388,2018-06-29 09:50:41.625000,14.05,71.37
126389,2018-06-29 09:50:41.656250,32.53,71.37
126390,2018-06-29 09:50:41.687500,45.47,71.37
126391,2018-06-29 09:50:41.718750,52.03,71.37
126392,2018-06-29 09:50:41.750000,53.81,71.37
126393,2018-06-29 09:50:41.781250,53.18,71.37
126394,2018-06-29 09:50:41.812500,51.36,71.37
126395,2018-06-29 09:50:41.843750,48.71,71.37
126396,2018-06-29 09:50:41.875000,45.7,71.37
126397,2018-06-29 09:50:41.906250,42.27,71.37
126398,2018-06-29 09:50:41.937500,37.67,71.37
126399,2018-06-29 09:50:41.968750,31.36,71.37
126400,2018-06-29 09:50:42.000000,23.09,71.37
126401,2018-06-29 09:50:42.031250,12.29,71.37
126402,2018-06-29 09:50:42.062500,-0.69,71.37
126403,2018-06-29 09:50:42.093750,-13.8,71.37
126404,2018-06-29 09:50:42.125000,-25.17,71.37
126405,2018-06-29 09:50:42.156250,-35.28,71.37
126406,2018-06-29 09:50:42.187500,-47.26,71.37
126407,2018-06-29 09:50:42.218750,-63.44,71.37
126408,2018-06-29 09:50:42.250000,-79.05,71.37
126409,2018-06-29 09:50:42.281250,-83.81,71.37
126410,2018-06-29 09:50:42.312500,-72.19,71.37
126411,2018-06-29 09:50:42.343750,-50.54,71.37
126412,2018-06-29 09:50:42.375000,-28.41,71.37
126413,2018-06-29 09:50:42.406250,-8.43,71.37
126414,2018-06-29 09:50:42.437500,10.29,71.37
126415,2018-06-29 09:50:42.468750,22.29,71.37
126416,2018-06-29 09:50:42.500000,19.17,71.37
126417,2018-06-29 09:50:42.531250,2.4,71.32
126418,2018-06-29 09:50:42.562500,-18.43,71.32
126419,2018-06-29 09:50:42.593750,-38.74,71.32
126420,2018-06-29 09:50:42.625000,-71.13,71.32
126421,2018-06-29 09:50:42.656250,-123.77,71.32
126422,2018-06-29 09:50:42.687500,-176.24,71.32
126423,2018-06-29 09:50:42.718750,-181.13,71.32
126424,2018-06-29 09:50:42.750000,-100.16,71.32
126425,2018-06-29 09:50:42.781250,55.39,71.32
126426,2018-06-29 09:50:42.812500,226.1,71.32
126427,2018-06-29 09:50:42.843750,346.43,71.32
126428,2018-06-29 09:50:42.875000,405.76,71.32
126429,2018-06-29 09:50:42.906250,422.6,71.32
126430,2018-06-29 09:50:42.937500,409.62,71.32
126431,2018-06-29 09:50:42.968750,374.52,71.32
126432,2018-06-29 09:50:43.000000,338.73,71.32
126433,2018-06-29 09:50:43.031250,315.13,71.32
126434,2018-06-29 09:50:43.062500,286.57,71.32
126435,2018-06-29 09:50:43.093750,250.36,71.32
126436,2018-06-29 09:50:43.125000,157.78,71.32
126437,2018-06-29 09:50:43.156250,-4.41,71.32
126438,2018-06-29 09:50:43.187500,-154.29,71.32
126439,2018-06-29 09:50:43.218750,-265.24,71.32
126440,2018-06-29 09:50:43.250000,-341.65,71.32
126441,2018-06-29 09:50:43.281250,-370.93,71.32
126442,2018-06-29 09:50:43.312500,-359.38,71.32
126443,2018-06-29 09:50:43.343750,-332.95,71.32
126444,2018-06-29 09:50:43.375000,-303.45,71.32
126445,2018-06-29 09:50:43.406250,-268.68,71.32
126446,2018-06-29 09:50:43.437500,-219.86,71.32
126447,2018-06-29 09:50:43.468750,-163.44,71.32
126448,2018-06-29 09:50:43.500000,-106.24,71.32
126449,2018-06-29 09:50:43.531250,-47.42,71.27
126450,2018-06-29 09:50:43.562500,10.15,71.27
126451,2018-06-29 09:50:43.593750,52.21,71.27
126452,2018-06-29 09:50:43.625000,65.2,71.27
126453,2018-06-29 09:50:43.656250,57.99,71.27
126454,2018-06-29 09:50:43.687500,46.4,71.27
126455,2018-06-29 09:50:43.718750,36.39,71.27
126456,2018-06-29 09:50:43.750000,25.74,71.27
126457,2018-06-29 09:50:43.781250,14.47,71.27
126458,2018-06-29 09:50:43.812500,2.86,71.27
126459,2018-06-29 09:50:43.843750,-11.9,71.27
126460,2018-06-29 09:50:43.875000,-31.02,71.27
126461,2018-06-29 09:50:43.906250,-50.77,71.27
126462,2018-06-29 09:50:43.937500,-61.53,71.27
126463,2018-06-29 09:50:43.968750,-54.01,71.27
126464,2018-06-29 09:50:44.000000,-28.65,71.27
126465,2018-06-29 09:50:44.031250,4.54,71.27
126466,2018-06-29 09:50:44.062500,36.06,71.27
126467,2018-06-29 09:50:44.093750,63.11,71.27
126468,2018-06-29 09:50:44.125000,84.55,71.27
126469,2018-06-29 09:50:44.156250,96.99,71.27
126470,2018-06-29 09:50:44.187500,99.79,71.27
126471,2018-06-29 09:50:44.218750,98.58,71.27
126472,2018-06-29 09:50:44.250000,99.05,71.27
126473,2018-06-29 09:50:44.281250,100.0,71.27
126474,2018-06-29 09:50:44.312500,96.94,71.27
126475,2018-06-29 09:50:44.343750,88.93,71.27
126476,2018-06-29 09:50:44.375000,77.6,71.27
126477,2018-06-29 09:50:44.406250,63.82,71.27
126478,2018-06-29 09:50:44.437500,48.72,71.27
126479,2018-06-29 09:50:44.468750,34.43,71.27
126480,2018-06-29 09:50:44.500000,21.7,71.27
126481,2018-06-29 09:50:44.531250,9.5,71.25
126482,2018-06-29 09:50:44.562500,-3.35,71.25
126483,2018-06-29 09:50:44.593750,-18.75,71.25
126484,2018-06-29 09:50:44.625000,-38.46,71.25
126485,2018-06-29 09:50:44.656250,-63.29,71.25
126486,2018-06-29 09:50:44.687500,-95.28,71.25
126487,2018-06-29 09:50:44.718750,-137.07,71.25
126488,2018-06-29 09:50:44.750000,-183.73,71.25
126489,2018-06-29 09:50:44.781250,-221.94,71.25
126490,2018-06-29 09:50:44.812500,-238.8,71.25
126491,2018-06-29 09:50:44.843750,-226.6,71.25
126492,2018-06-29 09:50:44.875000,-186.67,71.25
126493,2018-06-29 09:50:44.906250,-134.15,71.25
126494,2018-06-29 09:50:44.937500,-87.33,71.25
126495,2018-06-29 09:50:44.968750,-49.31,71.25
126496,2018-06-29 09:50:45.000000,-9.27,71.25
126497,2018-06-29 09:50:45.031250,42.34,71.25
126498,2018-06-29 09:50:45.062500,111.97,71.25
126499,2018-06-29 09:50:45.093750,205.32,71.25
126500,2018-06-29 09:50:45.125000,310.89,71.25
126501,2018-06-29 09:50:45.156250,388.59,71.25
126502,2018-06-29 09:50:45.187500,400.89,71.25
126503,2018-06-29 09:50:45.218750,352.66,71.25
126504,2018-06-29 09:50:45.250000,281.01,71.25
126505,2018-06-29 09:50:45.281250,217.81,71.25
126506,2018-06-29 09:50:45.312500,178.06,71.25
126507,2018-06-29 09:50:45.343750,164.38,71.25
126508,2018-06-29 09:50:45.375000,169.3,71.25
126509,2018-06-29 09:50:45.406250,185.39,71.25
126510,2018-06-29 09:50:45.437500,204.96,71.25
126511,2018-06-29 09:50:45.468750,206.87,71.25
126512,2018-06-29 09:50:45.500000,169.81,71.25
126513,2018-06-29 09:50:45.531250,101.48,71.27
126514,2018-06-29 09:50:45.562500,34.36,71.27
126515,2018-06-29 09:50:45.593750,-6.18,71.27
126516,2018-06-29 09:50:45.625000,-21.66,71.27
126517,2018-06-29 09:50:45.656250,-34.07,71.27
126518,2018-06-29 09:50:45.687500,-62.12,71.27
126519,2018-06-29 09:50:45.718750,-108.36,71.27
126520,2018-06-29 09:50:45.750000,-168.6,71.27
126521,2018-06-29 09:50:45.781250,-235.8,71.27
126522,2018-06-29 09:50:45.812500,-294.78,71.27
126523,2018-06-29 09:50:45.843750,-333.23,71.27
126524,2018-06-29 09:50:45.875000,-352.69,71.27
126525,2018-06-29 09:50:45.906250,-355.67,71.27
126526,2018-06-29 09:50:45.937500,-336.8,71.27
126527,2018-06-29 09:50:45.968750,-296.97,71.27
126528,2018-06-29 09:50:46.000000,-250.15,71.27
126529,2018-06-29 09:50:46.031250,-208.58,71.27
126530,2018-06-29 09:50:46.062500,-172.1,71.27
126531,2018-06-29 09:50:46.093750,-137.34,71.27
126532,2018-06-29 09:50:46.125000,-106.73,71.27
126533,2018-06-29 09:50:46.156250,-83.34,71.27
126534,2018-06-29 09:50:46.187500,-64.07,71.27
126535,2018-06-29 09:50:46.218750,-44.25,71.27
126536,2018-06-29 09:50:46.250000,-25.0,71.27
126537,2018-06-29 09:50:46.281250,-11.99,71.27
126538,2018-06-29 09:50:46.312500,-7.48,71.27
126539,2018-06-29 09:50:46.343750,-4.95,71.27
126540,2018-06-29 09:50:46.375000,7.45,71.27
126541,2018-06-29 09:50:46.406250,36.44,71.27
126542,2018-06-29 09:50:46.437500,76.4,71.27
126543,2018-06-29 09:50:46.468750,114.02,71.27
126544,2018-06-29 09:50:46.500000,140.01,71.27
126545,2018-06-29 09:50:46.531250,154.27,71.35
126546,2018-06-29 09:50:46.562500,160.03,71.35
126547,2018-06-29 09:50:46.593750,158.32,71.35
126548,2018-06-29 09:50:46.625000,150.18,71.35
126549,2018-06-29 09:50:46.656250,139.63,71.35
126550,2018-06-29 09:50:46.687500,130.69,71.35
126551,2018-06-29 09:50:46.718750,123.46,71.35
126552,2018-06-29 09:50:46.750000,115.03,71.35
126553,2018-06-29 09:50:46.781250,103.53,71.35
126554,2018-06-29 09:50:46.812500,89.33,71.35
126555,2018-06-29 09:50:46.843750,72.69,71.35
126556,2018-06-29 09:50:46.875000,52.93,71.35
126557,2018-06-29 09:50:46.906250,30.83,71.35
126558,2018-06-29 09:50:46.937500,8.84,71.35
126559,2018-06-29 09:50:46.968750,-12.15,71.35
126560,2018-06-29 09:50:47.000000,-33.13,71.35
126561,2018-06-29 09:50:47.031250,-54.84,71.35
126562,2018-06-29 09:50:47.062500,-77.98,71.35
126563,2018-06-29 09:50:47.093750,-101.46,71.35
126564,2018-06-29 09:50:47.125000,-117.12,71.35
126565,2018-06-29 09:50:47.156250,-113.16,71.35
126566,2018-06-29 09:50:47.187500,-86.96,71.35
126567,2018-06-29 09:50:47.218750,-48.46,71.35
126568,2018-06-29 09:50:47.250000,-9.49,71.35
126569,2018-06-29 09:50:47.281250,23.72,71.35
126570,2018-06-29 09:50:47.312500,48.86,71.35
126571,2018-06-29 09:50:47.343750,65.25,71.35
126572,2018-06-29 09:50:47.375000,73.68,71.35
126573,2018-06-29 09:50:47.406250,75.39,71.35
126574,2018-06-29 09:50:47.437500,71.73,71.35
126575,2018-06-29 09:50:47.468750,65.18,71.35
126576,2018-06-29 09:50:47.500000,59.26,71.35
126577,2018-06-29 09:50:47.531250,56.16,71.4
126578,2018-06-29 09:50:47.562500,54.85,71.4
126579,2018-06-29 09:50:47.593750,51.84,71.4
126580,2018-06-29 09:50:47.625000,44.72,71.4
126581,2018-06-29 09:50:47.656250,33.98,71.4
126582,2018-06-29 09:50:47.687500,20.49,71.4
126583,2018-06-29 09:50:47.718750,3.64,71.4
126584,2018-06-29 09:50:47.750000,-15.89,71.4
126585,2018-06-29 09:50:47.781250,-34.2,71.4
126586,2018-06-29 09:50:47.812500,-48.54,71.4
126587,2018-06-29 09:50:47.843750,-61.03,71.4
126588,2018-06-29 09:50:47.875000,-74.36,71.4
126589,2018-06-29 09:50:47.906250,-84.41,71.4
126590,2018-06-29 09:50:47.937500,-81.5,71.4
126591,2018-06-29 09:50:47.968750,-60.95,71.4
126592,2018-06-29 09:50:48.000000,-28.99,71.4
126593,2018-06-29 09:50:48.031250,2.83,71.4
126594,2018-06-29 09:50:48.062500,26.43,71.4
126595,2018-06-29 09:50:48.093750,39.94,71.4
126596,2018-06-29 09:50:48.125000,45.64,71.4
126597,2018-06-29 09:50:48.156250,46.93,71.4
126598,2018-06-29 09:50:48.187500,45.14,71.4
126599,2018-06-29 09:50:48.218750,40.75,71.4
126600,2018-06-29 09:50:48.250000,36.06,71.4
126601,2018-06-29 09:50:48.281250,32.8,71.4
126602,2018-06-29 09:50:48.312500,29.39,71.4
126603,2018-06-29 09:50:48.343750,23.75,71.4
126604,2018-06-29 09:50:48.375000,17.33,71.4
126605,2018-06-29 09:50:48.406250,12.23,71.4
126606,2018-06-29 09:50:48.437500,7.01,71.4
126607,2018-06-29 09:50:48.468750,-1.06,71.4
126608,2018-06-29 09:50:48.500000,-11.06,71.4
126609,2018-06-29 09:50:48.531250,-18.08,71.45
126610,2018-06-29 09:50:48.562500,-18.23,71.45
126611,2018-06-29 09:50:48.593750,-12.14,71.45
126612,2018-06-29 09:50:48.625000,-4.28,71.45
126613,2018-06-29 09:50:48.656250,1.98,71.45
126614,2018-06-29 09:50:48.687500,9.64,71.45
126615,2018-06-29 09:50:48.718750,24.97,71.45
126616,2018-06-29 09:50:48.750000,45.42,71.45
126617,2018-06-29 09:50:48.781250,54.9,71.45
126618,2018-06-29 09:50:48.812500,41.26,71.45
126619,2018-06-29 09:50:48.843750,13.2,71.45
126620,2018-06-29 09:50:48.875000,-9.25,71.45
126621,2018-06-29 09:50:48.906250,-14.5,71.45
126622,2018-06-29 09:50:48.937500,-4.14,71.45
126623,2018-06-29 09:50:48.968750,13.32,71.45
126624,2018-06-29 09:50:49.000000,27.78,71.45
126625,2018-06-29 09:50:49.031250,33.07,71.45
126626,2018-06-29 09:50:49.062500,31.18,71.45
126627,2018-06-29 09:50:49.093750,28.16,71.45
126628,2018-06-29 09:50:49.125000,26.14,71.45
126629,2018-06-29 09:50:49.156250,20.39,71.45
126630,2018-06-29 09:50:49.187500,6.07,71.45
126631,2018-06-29 09:50:49.218750,-15.66,71.45
126632,2018-06-29 09:50:49.250000,-41.72,71.45
126633,2018-06-29 09:50:49.281250,-74.55,71.45
126634,2018-06-29 09:50:49.312500,-117.82,71.45
126635,2018-06-29 09:50:49.343750,-163.12,71.45
126636,2018-06-29 09:50:49.375000,-189.52,71.45
126637,2018-06-29 09:50:49.406250,-182.24,71.45
126638,2018-06-29 09:50:49.437500,-145.53,71.45
126639,2018-06-29 09:50:49.468750,-93.03,71.45
126640,2018-06-29 09:50:49.500000,-34.21,71.45
126641,2018-06-29 09:50:49.531250,26.58,71.53
126642,2018-06-29 09:50:49.562500,84.15,71.53
126643,2018-06-29 09:50:49.593750,130.95,71.53
126644,2018-06-29 09:50:49.625000,160.61,71.53
126645,2018-06-29 09:50:49.656250,172.21,71.53
126646,2018-06-29 09:50:49.687500,170.48,71.53
126647,2018-06-29 09:50:49.718750,160.83,71.53
126648,2018-06-29 09:50:49.750000,146.46,71.53
126649,2018-06-29 09:50:49.781250,128.43,71.53
126650,2018-06-29 09:50:49.812500,105.76,71.53
126651,2018-06-29 09:50:49.843750,76.5,71.53
126652,2018-06-29 09:50:49.875000,41.28,71.53
126653,2018-06-29 09:50:49.906250,4.56,71.53
126654,2018-06-29 09:50:49.937500,-28.01,71.53
126655,2018-06-29 09:50:49.968750,-52.26,71.53
126656,2018-06-29 09:50:50.000000,-66.53,71.53
126657,2018-06-29 09:50:50.031250,-72.14,71.53
126658,2018-06-29 09:50:50.062500,-72.49,71.53
126659,2018-06-29 09:50:50.093750,-71.26,71.53
126660,2018-06-29 09:50:50.125000,-71.14,71.53
126661,2018-06-29 09:50:50.156250,-73.93,71.53
126662,2018-06-29 09:50:50.187500,-80.54,71.53
126663,2018-06-29 09:50:50.218750,-88.9,71.53
126664,2018-06-29 09:50:50.250000,-92.37,71.53
126665,2018-06-29 09:50:50.281250,-84.93,71.53
126666,2018-06-29 09:50:50.312500,-67.81,71.53
126667,2018-06-29 09:50:50.343750,-47.59,71.53
126668,2018-06-29 09:50:50.375000,-28.65,71.53
126669,2018-06-29 09:50:50.406250,-11.59,71.53
126670,2018-06-29 09:50:50.437500,2.48,71.53
126671,2018-06-29 09:50:50.468750,11.48,71.53
126672,2018-06-29 09:50:50.500000,15.37,71.53
126673,2018-06-29 09:50:50.531250,16.17,71.6
126674,2018-06-29 09:50:50.562500,15.54,71.6
126675,2018-06-29 09:50:50.593750,15.08,71.6
126676,2018-06-29 09:50:50.625000,17.01,71.6
126677,2018-06-29 09:50:50.656250,21.69,71.6
126678,2018-06-29 09:50:50.687500,26.0,71.6
126679,2018-06-29 09:50:50.718750,26.31,71.6
126680,2018-06-29 09:50:50.750000,22.0,71.6
126681,2018-06-29 09:50:50.781250,14.99,71.6
126682,2018-06-29 09:50:50.812500,6.85,71.6
126683,2018-06-29 09:50:50.843750,-2.23,71.6
126684,2018-06-29 09:50:50.875000,-11.72,71.6
126685,2018-06-29 09:50:50.906250,-19.9,71.6
126686,2018-06-29 09:50:50.937500,-26.02,71.6
126687,2018-06-29 09:50:50.968750,-31.47,71.6
126688,2018-06-29 09:50:51.000000,-38.23,71.6
126689,2018-06-29 09:50:51.031250,-45.75,71.6
126690,2018-06-29 09:50:51.062500,-49.31,71.6
126691,2018-06-29 09:50:51.093750,-43.13,71.6
126692,2018-06-29 09:50:51.125000,-26.75,71.6
126693,2018-06-29 09:50:51.156250,-6.09,71.6
126694,2018-06-29 09:50:51.187500,13.04,71.6
126695,2018-06-29 09:50:51.218750,28.63,71.6
126696,2018-06-29 09:50:51.250000,40.03,71.6
126697,2018-06-29 09:50:51.281250,46.24,71.6
126698,2018-06-29 09:50:51.312500,47.6,71.6
126699,2018-06-29 09:50:51.343750,46.15,71.6
126700,2018-06-29 09:50:51.375000,43.86,71.6
126701,2018-06-29 09:50:51.406250,41.78,71.6
126702,2018-06-29 09:50:51.437500,40.47,71.6
126703,2018-06-29 09:50:51.468750,39.53,71.6
126704,2018-06-29 09:50:51.500000,37.42,71.6
126705,2018-06-29 09:50:51.531250,32.77,71.67
126706,2018-06-29 09:50:51.562500,25.79,71.67
126707,2018-06-29 09:50:51.593750,17.95,71.67
126708,2018-06-29 09:50:51.625000,10.85,71.67
126709,2018-06-29 09:50:51.656250,5.11,71.67
126710,2018-06-29 09:50:51.687500,-0.15,71.67
126711,2018-06-29 09:50:51.718750,-6.0,71.67
126712,2018-06-29 09:50:51.750000,-11.5,71.67
126713,2018-06-29 09:50:51.781250,-15.1,71.67
126714,2018-06-29 09:50:51.812500,-18.56,71.67
126715,2018-06-29 09:50:51.843750,-26.12,71.67
126716,2018-06-29 09:50:51.875000,-39.37,71.67
126717,2018-06-29 09:50:51.906250,-54.32,71.67
126718,2018-06-29 09:50:51.937500,-63.81,71.67
126719,2018-06-29 09:50:51.968750,-61.99,71.67
126720,2018-06-29 09:50:52.000000,-48.8,71.67
126721,2018-06-29 09:50:52.031250,-29.97,71.67
126722,2018-06-29 09:50:52.062500,-11.72,71.67
126723,2018-06-29 09:50:52.093750,3.41,71.67
126724,2018-06-29 09:50:52.125000,15.08,71.67
126725,2018-06-29 09:50:52.156250,22.66,71.67
126726,2018-06-29 09:50:52.187500,26.06,71.67
126727,2018-06-29 09:50:52.218750,26.51,71.67
126728,2018-06-29 09:50:52.250000,25.53,71.67
126729,2018-06-29 09:50:52.281250,24.05,71.67
126730,2018-06-29 09:50:52.312500,22.83,71.67
126731,2018-06-29 09:50:52.343750,22.38,71.67
126732,2018-06-29 09:50:52.375000,21.93,71.67
126733,2018-06-29 09:50:52.406250,20.09,71.67
126734,2018-06-29 09:50:52.437500,16.68,71.67
126735,2018-06-29 09:50:52.468750,12.74,71.67
126736,2018-06-29 09:50:52.500000,8.8,71.67
126737,2018-06-29 09:50:52.531250,4.42,71.75
126738,2018-06-29 09:50:52.562500,-0.55,71.75
126739,2018-06-29 09:50:52.593750,-5.77,71.75
126740,2018-06-29 09:50:52.625000,-10.79,71.75
126741,2018-06-29 09:50:52.656250,-15.34,71.75
126742,2018-06-29 09:50:52.687500,-19.7,71.75
126743,2018-06-29 09:50:52.718750,-24.3,71.75
126744,2018-06-29 09:50:52.750000,-29.03,71.75
126745,2018-06-29 09:50:52.781250,-33.49,71.75
126746,2018-06-29 09:50:52.812500,-38.18,71.75
126747,2018-06-29 09:50:52.843750,-44.5,71.75
126748,2018-06-29 09:50:52.875000,-52.83,71.75
126749,2018-06-29 09:50:52.906250,-60.19,71.75
126750,2018-06-29 09:50:52.937500,-60.57,71.75
126751,2018-06-29 09:50:52.968750,-50.27,71.75
126752,2018-06-29 09:50:53.000000,-32.61,71.75
126753,2018-06-29 09:50:53.031250,-14.86,71.75
126754,2018-06-29 09:50:53.062500,-1.19,71.75
126755,2018-06-29 09:50:53.093750,8.9,71.75
126756,2018-06-29 09:50:53.125000,16.5,71.75
126757,2018-06-29 09:50:53.156250,21.21,71.75
126758,2018-06-29 09:50:53.187500,22.79,71.75
126759,2018-06-29 09:50:53.218750,22.45,71.75
126760,2018-06-29 09:50:53.250000,21.59,71.75
126761,2018-06-29 09:50:53.281250,20.7,71.75
126762,2018-06-29 09:50:53.312500,19.88,71.75
126763,2018-06-29 09:50:53.343750,19.05,71.75
126764,2018-06-29 09:50:53.375000,17.83,71.75
126765,2018-06-29 09:50:53.406250,15.62,71.75
126766,2018-06-29 09:50:53.437500,12.06,71.75
126767,2018-06-29 09:50:53.468750,7.45,71.75
126768,2018-06-29 09:50:53.500000,2.44,71.75
126769,2018-06-29 09:50:53.531250,-2.71,71.83
126770,2018-06-29 09:50:53.562500,-8.44,71.83
126771,2018-06-29 09:50:53.593750,-14.74,71.83
126772,2018-06-29 09:50:53.625000,-20.38,71.83
126773,2018-06-29 09:50:53.656250,-24.14,71.83
126774,2018-06-29 09:50:53.687500,-26.78,71.83
126775,2018-06-29 09:50:53.718750,-30.46,71.83
126776,2018-06-29 09:50:53.750000,-36.53,71.83
126777,2018-06-29 09:50:53.781250,-43.28,71.83
126778,2018-06-29 09:50:53.812500,-45.51,71.83
126779,2018-06-29 09:50:53.843750,-38.32,71.83
126780,2018-06-29 09:50:53.875000,-22.3,71.83
126781,2018-06-29 09:50:53.906250,-3.37,71.83
126782,2018-06-29 09:50:53.937500,12.58,71.83
126783,2018-06-29 09:50:53.968750,23.61,71.83
126784,2018-06-29 09:50:54.000000,30.7,71.83
126785,2018-06-29 09:50:54.031250,34.48,71.83
126786,2018-06-29 09:50:54.062500,34.76,71.83
126787,2018-06-29 09:50:54.093750,32.93,71.83
126788,2018-06-29 09:50:54.125000,31.65,71.83
126789,2018-06-29 09:50:54.156250,31.7,71.83
126790,2018-06-29 09:50:54.187500,31.61,71.83
126791,2018-06-29 09:50:54.218750,30.4,71.83
126792,2018-06-29 09:50:54.250000,28.24,71.83
126793,2018-06-29 09:50:54.281250,25.18,71.83
126794,2018-06-29 09:50:54.312500,21.08,71.83
126795,2018-06-29 09:50:54.343750,16.14,71.83
126796,2018-06-29 09:50:54.375000,10.69,71.83
126797,2018-06-29 09:50:54.406250,4.99,71.83
126798,2018-06-29 09:50:54.437500,-0.53,71.83
126799,2018-06-29 09:50:54.468750,-5.61,71.83
126800,2018-06-29 09:50:54.500000,-10.86,71.83
126801,2018-06-29 09:50:54.531250,-16.97,72.05
126802,2018-06-29 09:50:54.562500,-23.21,72.05
126803,2018-06-29 09:50:54.593750,-27.83,72.05
126804,2018-06-29 09:50:54.625000,-31.15,72.05
126805,2018-06-29 09:50:54.656250,-35.77,72.05
126806,2018-06-29 09:50:54.687500,-42.92,72.05
126807,2018-06-29 09:50:54.718750,-49.53,72.05
126808,2018-06-29 09:50:54.750000,-50.38,72.05
126809,2018-06-29 09:50:54.781250,-42.09,72.05
126810,2018-06-29 09:50:54.812500,-26.21,72.05
126811,2018-06-29 09:50:54.843750,-8.02,72.05
126812,2018-06-29 09:50:54.875000,7.93,72.05
126813,2018-06-29 09:50:54.906250,19.89,72.05
126814,2018-06-29 09:50:54.937500,27.22,72.05
126815,2018-06-29 09:50:54.968750,29.42,72.05
126816,2018-06-29 09:50:55.000000,27.98,72.05
126817,2018-06-29 09:50:55.031250,25.74,72.05
126818,2018-06-29 09:50:55.062500,24.86,72.05
126819,2018-06-29 09:50:55.093750,25.58,72.05
126820,2018-06-29 09:50:55.125000,27.18,72.05
126821,2018-06-29 09:50:55.156250,28.17,72.05
126822,2018-06-29 09:50:55.187500,26.82,72.05
126823,2018-06-29 09:50:55.218750,24.4,72.05
126824,2018-06-29 09:50:55.250000,22.92,72.05
126825,2018-06-29 09:50:55.281250,21.81,72.05
126826,2018-06-29 09:50:55.312500,16.18,72.05
126827,2018-06-29 09:50:55.343750,6.47,72.05
126828,2018-06-29 09:50:55.375000,0.03,72.05
126829,2018-06-29 09:50:55.406250,3.11,72.05
126830,2018-06-29 09:50:55.437500,12.03,72.05
126831,2018-06-29 09:50:55.468750,14.17,72.05
126832,2018-06-29 09:50:55.500000,6.36,72.05
126833,2018-06-29 09:50:55.531250,-5.48,72.18
126834,2018-06-29 09:50:55.562500,-23.53,72.18
126835,2018-06-29 09:50:55.593750,-71.67,72.18
126836,2018-06-29 09:50:55.625000,-159.09,72.18
126837,2018-06-29 09:50:55.656250,-260.31,72.18
126838,2018-06-29 09:50:55.687500,-339.03,72.18
126839,2018-06-29 09:50:55.718750,-324.13,72.18
126840,2018-06-29 09:50:55.750000,-204.79,72.18
126841,2018-06-29 09:50:55.781250,-47.6,72.18
126842,2018-06-29 09:50:55.812500,86.79,72.18
126843,2018-06-29 09:50:55.843750,172.25,72.18
126844,2018-06-29 09:50:55.875000,203.34,72.18
126845,2018-06-29 09:50:55.906250,194.77,72.18
126846,2018-06-29 09:50:55.937500,168.95,72.18
126847,2018-06-29 09:50:55.968750,140.53,72.18
126848,2018-06-29 09:50:56.000000,119.01,72.18
126849,2018-06-29 09:50:56.031250,106.27,72.18
126850,2018-06-29 09:50:56.062500,101.09,72.18
126851,2018-06-29 09:50:56.093750,96.74,72.18
126852,2018-06-29 09:50:56.125000,86.17,72.18
126853,2018-06-29 09:50:56.156250,65.38,72.18
126854,2018-06-29 09:50:56.187500,35.58,72.18
126855,2018-06-29 09:50:56.218750,4.61,72.18
126856,2018-06-29 09:50:56.250000,-17.88,72.18
126857,2018-06-29 09:50:56.281250,-28.11,72.18
126858,2018-06-29 09:50:56.312500,-31.51,72.18
126859,2018-06-29 09:50:56.343750,-33.97,72.18
126860,2018-06-29 09:50:56.375000,-36.79,72.18
126861,2018-06-29 09:50:56.406250,-39.21,72.18
126862,2018-06-29 09:50:56.437500,-42.55,72.18
126863,2018-06-29 09:50:56.468750,-47.64,72.18
126864,2018-06-29 09:50:56.500000,-52.31,72.18
126865,2018-06-29 09:50:56.531250,-53.68,72.3
126866,2018-06-29 09:50:56.562500,-52.14,72.3
126867,2018-06-29 09:50:56.593750,-51.02,72.3
126868,2018-06-29 09:50:56.625000,-51.48,72.3
126869,2018-06-29 09:50:56.656250,-49.17,72.3
126870,2018-06-29 09:50:56.687500,-38.1,72.3
126871,2018-06-29 09:50:56.718750,-18.33,72.3
126872,2018-06-29 09:50:56.750000,3.49,72.3
126873,2018-06-29 09:50:56.781250,21.06,72.3
126874,2018-06-29 09:50:56.812500,33.56,72.3
126875,2018-06-29 09:50:56.843750,43.46,72.3
126876,2018-06-29 09:50:56.875000,51.82,72.3
126877,2018-06-29 09:50:56.906250,58.05,72.3
126878,2018-06-29 09:50:56.937500,62.42,72.3
126879,2018-06-29 09:50:56.968750,67.21,72.3
126880,2018-06-29 09:50:57.000000,75.36,72.3
126881,2018-06-29 09:50:57.031250,88.2,72.3
126882,2018-06-29 09:50:57.062500,104.13,72.3
126883,2018-06-29 09:50:57.093750,119.36,72.3
126884,2018-06-29 09:50:57.125000,130.11,72.3
126885,2018-06-29 09:50:57.156250,134.13,72.3
126886,2018-06-29 09:50:57.187500,131.7,72.3
126887,2018-06-29 09:50:57.218750,123.49,72.3
126888,2018-06-29 09:50:57.250000,106.12,72.3
126889,2018-06-29 09:50:57.281250,74.99,72.3
126890,2018-06-29 09:50:57.312500,34.86,72.3
126891,2018-06-29 09:50:57.343750,-0.15,72.3
126892,2018-06-29 09:50:57.375000,-21.13,72.3
126893,2018-06-29 09:50:57.406250,-31.01,72.3
126894,2018-06-29 09:50:57.437500,-33.77,72.3
126895,2018-06-29 09:50:57.468750,-29.23,72.3
126896,2018-06-29 09:50:57.500000,-20.46,72.3
126897,2018-06-29 09:50:57.531250,-13.73,72.4
126898,2018-06-29 09:50:57.562500,-9.32,72.4
126899,2018-06-29 09:50:57.593750,-3.05,72.4
126900,2018-06-29 09:50:57.625000,3.66,72.4
126901,2018-06-29 09:50:57.656250,2.87,72.4
126902,2018-06-29 09:50:57.687500,-12.24,72.4
126903,2018-06-29 09:50:57.718750,-44.17,72.4
126904,2018-06-29 09:50:57.750000,-89.98,72.4
126905,2018-06-29 09:50:57.781250,-139.47,72.4
126906,2018-06-29 09:50:57.812500,-180.74,72.4
126907,2018-06-29 09:50:57.843750,-209.04,72.4
126908,2018-06-29 09:50:57.875000,-222.59,72.4
126909,2018-06-29 09:50:57.906250,-213.9,72.4
126910,2018-06-29 09:50:57.937500,-178.6,72.4
126911,2018-06-29 09:50:57.968750,-127.01,72.4
126912,2018-06-29 09:50:58.000000,-74.58,72.4
126913,2018-06-29 09:50:58.031250,-28.68,72.4
126914,2018-06-29 09:50:58.062500,8.31,72.4
126915,2018-06-29 09:50:58.093750,33.49,72.4
126916,2018-06-29 09:50:58.125000,47.45,72.4
126917,2018-06-29 09:50:58.156250,55.1,72.4
126918,2018-06-29 09:50:58.187500,59.46,72.4
126919,2018-06-29 09:50:58.218750,60.0,72.4
126920,2018-06-29 09:50:58.250000,56.52,72.4
126921,2018-06-29 09:50:58.281250,49.94,72.4
126922,2018-06-29 09:50:58.312500,40.23,72.4
126923,2018-06-29 09:50:58.343750,27.71,72.4
126924,2018-06-29 09:50:58.375000,15.19,72.4
126925,2018-06-29 09:50:58.406250,5.62,72.4
126926,2018-06-29 09:50:58.437500,-1.23,72.4
126927,2018-06-29 09:50:58.468750,-7.61,72.4
126928,2018-06-29 09:50:58.500000,-15.14,72.4
126929,2018-06-29 09:50:58.531250,-23.39,72.57
126930,2018-06-29 09:50:58.562500,-29.84,72.57
126931,2018-06-29 09:50:58.593750,-32.63,72.57
126932,2018-06-29 09:50:58.625000,-34.08,72.57
126933,2018-06-29 09:50:58.656250,-38.91,72.57
126934,2018-06-29 09:50:58.687500,-49.94,72.57
126935,2018-06-29 09:50:58.718750,-69.43,72.57
126936,2018-06-29 09:50:58.750000,-102.66,72.57
126937,2018-06-29 09:50:58.781250,-150.48,72.57
126938,2018-06-29 09:50:58.812500,-198.02,72.57
126939,2018-06-29 09:50:58.843750,-223.35,72.57
126940,2018-06-29 09:50:58.875000,-219.53,72.57
126941,2018-06-29 09:50:58.906250,-196.33,72.57
126942,2018-06-29 09:50:58.937500,-164.33,72.57
126943,2018-06-29 09:50:58.968750,-130.89,72.57
126944,2018-06-29 09:50:59.000000,-102.04,72.57
126945,2018-06-29 09:50:59.031250,-75.4,72.57
126946,2018-06-29 09:50:59.062500,-42.87,72.57
126947,2018-06-29 09:50:59.093750,-5.88,72.57
126948,2018-06-29 09:50:59.125000,26.57,72.57
126949,2018-06-29 09:50:59.156250,51.49,72.57
126950,2018-06-29 09:50:59.187500,71.05,72.57
126951,2018-06-29 09:50:59.218750,84.55,72.57
126952,2018-06-29 09:50:59.250000,91.19,72.57
126953,2018-06-29 09:50:59.281250,93.81,72.57
126954,2018-06-29 09:50:59.312500,94.78,72.57
126955,2018-06-29 09:50:59.343750,93.32,72.57
126956,2018-06-29 09:50:59.375000,87.97,72.57
126957,2018-06-29 09:50:59.406250,79.55,72.57
126958,2018-06-29 09:50:59.437500,70.53,72.57
126959,2018-06-29 09:50:59.468750,61.83,72.57
126960,2018-06-29 09:50:59.500000,51.67,72.57
126961,2018-06-29 09:50:59.531250,39.29,72.72
126962,2018-06-29 09:50:59.562500,27.85,72.72
126963,2018-06-29 09:50:59.593750,19.77,72.72
126964,2018-06-29 09:50:59.625000,11.58,72.72
126965,2018-06-29 09:50:59.656250,-2.05,72.72
126966,2018-06-29 09:50:59.687500,-21.42,72.72
126967,2018-06-29 09:50:59.718750,-42.21,72.72
126968,2018-06-29 09:50:59.750000,-61.08,72.72
126969,2018-06-29 09:50:59.781250,-78.26,72.72
126970,2018-06-29 09:50:59.812500,-96.76,72.72
126971,2018-06-29 09:50:59.843750,-118.55,72.72
126972,2018-06-29 09:50:59.875000,-139.66,72.72
126973,2018-06-29 09:50:59.906250,-148.86,72.72
126974,2018-06-29 09:50:59.937500,-136.09,72.72
126975,2018-06-29 09:50:59.968750,-103.18,72.72
126976,2018-06-29 09:51:00.000000,-62.66,72.72
126977,2018-06-29 09:51:00.031250,-25.18,72.72
126978,2018-06-29 09:51:00.062500,6.79,72.72
126979,2018-06-29 09:51:00.093750,33.62,72.72
126980,2018-06-29 09:51:00.125000,54.71,72.72
126981,2018-06-29 09:51:00.156250,70.24,72.72
126982,2018-06-29 09:51:00.187500,81.44,72.72
126983,2018-06-29 09:51:00.218750,88.99,72.72
126984,2018-06-29 09:51:00.250000,94.07,72.72
126985,2018-06-29 09:51:00.281250,99.54,72.72
126986,2018-06-29 09:51:00.312500,106.77,72.72
126987,2018-06-29 09:51:00.343750,113.05,72.72
126988,2018-06-29 09:51:00.375000,114.66,72.72
126989,2018-06-29 09:51:00.406250,111.03,72.72
126990,2018-06-29 09:51:00.437500,105.1,72.72
126991,2018-06-29 09:51:00.468750,99.61,72.72
126992,2018-06-29 09:51:00.500000,94.09,72.72
126993,2018-06-29 09:51:00.531250,86.97,72.92
126994,2018-06-29 09:51:00.562500,78.86,72.92
126995,2018-06-29 09:51:00.593750,71.45,72.92
126996,2018-06-29 09:51:00.625000,65.09,72.92
126997,2018-06-29 09:51:00.656250,57.96,72.92
126998,2018-06-29 09:51:00.687500,47.58,72.92
126999,2018-06-29 09:51:00.718750,34.02,72.92
127000,2018-06-29 09:51:00.750000,20.62,72.92
127001,2018-06-29 09:51:00.781250,9.35,72.92
127002,2018-06-29 09:51:00.812500,-1.65,72.92
127003,2018-06-29 09:51:00.843750,-14.54,72.92
127004,2018-06-29 09:51:00.875000,-28.94,72.92
127005,2018-06-29 09:51:00.906250,-43.62,72.92
127006,2018-06-29 09:51:00.937500,-58.51,72.92
127007,2018-06-29 09:51:00.968750,-74.76,72.92
127008,2018-06-29 09:51:01.000000,-92.62,72.92
127009,2018-06-29 09:51:01.031250,-107.01,72.92
127010,2018-06-29 09:51:01.062500,-106.93,72.92
127011,2018-06-29 09:51:01.093750,-85.02,72.92
127012,2018-06-29 09:51:01.125000,-46.8,72.92
127013,2018-06-29 09:51:01.156250,-5.76,72.92
127014,2018-06-29 09:51:01.187500,28.7,72.92
127015,2018-06-29 09:51:01.218750,54.7,72.92
127016,2018-06-29 09:51:01.250000,73.05,72.92
127017,2018-06-29 09:51:01.281250,84.37,72.92
127018,2018-06-29 09:51:01.312500,89.71,72.92
127019,2018-06-29 09:51:01.343750,91.29,72.92
127020,2018-06-29 09:51:01.375000,91.68,72.92
127021,2018-06-29 09:51:01.406250,92.45,72.92
127022,2018-06-29 09:51:01.437500,93.84,72.92
127023,2018-06-29 09:51:01.468750,95.44,72.92
127024,2018-06-29 09:51:01.500000,95.81,72.92
127025,2018-06-29 09:51:01.531250,93.07,72.97
127026,2018-06-29 09:51:01.562500,86.87,72.97
127027,2018-06-29 09:51:01.593750,78.89,72.97
127028,2018-06-29 09:51:01.625000,70.32,72.97
127029,2018-06-29 09:51:01.656250,60.5,72.97
127030,2018-06-29 09:51:01.687500,49.3,72.97
127031,2018-06-29 09:51:01.718750,38.45,72.97
127032,2018-06-29 09:51:01.750000,29.36,72.97
127033,2018-06-29 09:51:01.781250,22.01,72.97
127034,2018-06-29 09:51:01.812500,15.61,72.97
127035,2018-06-29 09:51:01.843750,9.04,72.97
127036,2018-06-29 09:51:01.875000,1.44,72.97
127037,2018-06-29 09:51:01.906250,-6.72,72.97
127038,2018-06-29 09:51:01.937500,-14.65,72.97
127039,2018-06-29 09:51:01.968750,-23.31,72.97
127040,2018-06-29 09:51:02.000000,-34.14,72.97
127041,2018-06-29 09:51:02.031250,-45.78,72.97
127042,2018-06-29 09:51:02.062500,-55.25,72.97
127043,2018-06-29 09:51:02.093750,-62.74,72.97
127044,2018-06-29 09:51:02.125000,-72.13,72.97
127045,2018-06-29 09:51:02.156250,-85.18,72.97
127046,2018-06-29 09:51:02.187500,-96.39,72.97
127047,2018-06-29 09:51:02.218750,-94.96,72.97
127048,2018-06-29 09:51:02.250000,-74.09,72.97
127049,2018-06-29 09:51:02.281250,-38.84,72.97
127050,2018-06-29 09:51:02.312500,-1.84,72.97
127051,2018-06-29 09:51:02.343750,28.08,72.97
127052,2018-06-29 09:51:02.375000,49.8,72.97
127053,2018-06-29 09:51:02.406250,65.01,72.97
127054,2018-06-29 09:51:02.437500,73.75,72.97
127055,2018-06-29 09:51:02.468750,75.19,72.97
127056,2018-06-29 09:51:02.500000,69.23,72.97
127057,2018-06-29 09:51:02.531250,57.69,72.95
127058,2018-06-29 09:51:02.562500,44.83,72.95
127059,2018-06-29 09:51:02.593750,35.4,72.95
127060,2018-06-29 09:51:02.625000,30.45,72.95
127061,2018-06-29 09:51:02.656250,26.84,72.95
127062,2018-06-29 09:51:02.687500,22.46,72.95
127063,2018-06-29 09:51:02.718750,19.85,72.95
127064,2018-06-29 09:51:02.750000,23.0,72.95
127065,2018-06-29 09:51:02.781250,31.97,72.95
127066,2018-06-29 09:51:02.812500,41.89,72.95
127067,2018-06-29 09:51:02.843750,46.61,72.95
127068,2018-06-29 09:51:02.875000,45.98,72.95
127069,2018-06-29 09:51:02.906250,44.85,72.95
127070,2018-06-29 09:51:02.937500,40.7,72.95
127071,2018-06-29 09:51:02.968750,21.67,72.95
127072,2018-06-29 09:51:03.000000,-15.15,72.95
127073,2018-06-29 09:51:03.031250,-54.75,72.95
127074,2018-06-29 09:51:03.062500,-81.68,72.95
127075,2018-06-29 09:51:03.093750,-93.82,72.95
127076,2018-06-29 09:51:03.125000,-95.51,72.95
127077,2018-06-29 09:51:03.156250,-91.72,72.95
127078,2018-06-29 09:51:03.187500,-89.69,72.95
127079,2018-06-29 09:51:03.218750,-94.04,72.95
127080,2018-06-29 09:51:03.250000,-101.77,72.95
127081,2018-06-29 09:51:03.281250,-107.8,72.95
127082,2018-06-29 09:51:03.312500,-106.8,72.95
127083,2018-06-29 09:51:03.343750,-89.77,72.95
127084,2018-06-29 09:51:03.375000,-52.3,72.95
127085,2018-06-29 09:51:03.406250,-4.3,72.95
127086,2018-06-29 09:51:03.437500,38.14,72.95
127087,2018-06-29 09:51:03.468750,66.29,72.95
127088,2018-06-29 09:51:03.500000,79.91,72.95
127089,2018-06-29 09:51:03.531250,82.31,72.95
127090,2018-06-29 09:51:03.562500,78.05,72.95
127091,2018-06-29 09:51:03.593750,71.41,72.95
127092,2018-06-29 09:51:03.625000,65.11,72.95
127093,2018-06-29 09:51:03.656250,59.6,72.95
127094,2018-06-29 09:51:03.687500,54.5,72.95
127095,2018-06-29 09:51:03.718750,50.68,72.95
127096,2018-06-29 09:51:03.750000,49.23,72.95
127097,2018-06-29 09:51:03.781250,48.47,72.95
127098,2018-06-29 09:51:03.812500,45.42,72.95
127099,2018-06-29 09:51:03.843750,39.69,72.95
127100,2018-06-29 09:51:03.875000,32.63,72.95
127101,2018-06-29 09:51:03.906250,25.0,72.95
127102,2018-06-29 09:51:03.937500,17.23,72.95
127103,2018-06-29 09:51:03.968750,9.76,72.95
127104,2018-06-29 09:51:04.000000,2.41,72.95
127105,2018-06-29 09:51:04.031250,-4.46,72.95
127106,2018-06-29 09:51:04.062500,-9.38,72.95
127107,2018-06-29 09:51:04.093750,-12.45,72.95
127108,2018-06-29 09:51:04.125000,-15.82,72.95
127109,2018-06-29 09:51:04.156250,-21.02,72.95
127110,2018-06-29 09:51:04.187500,-27.5,72.95
127111,2018-06-29 09:51:04.218750,-33.98,72.95
127112,2018-06-29 09:51:04.250000,-39.88,72.95
127113,2018-06-29 09:51:04.281250,-46.08,72.95
127114,2018-06-29 09:51:04.312500,-54.85,72.95
127115,2018-06-29 09:51:04.343750,-66.27,72.95
127116,2018-06-29 09:51:04.375000,-73.53,72.95
127117,2018-06-29 09:51:04.406250,-66.54,72.95
127118,2018-06-29 09:51:04.437500,-42.87,72.95
127119,2018-06-29 09:51:04.468750,-11.8,72.95
127120,2018-06-29 09:51:04.500000,14.35,72.95
127121,2018-06-29 09:51:04.531250,30.31,72.97
127122,2018-06-29 09:51:04.562500,38.35,72.97
127123,2018-06-29 09:51:04.593750,42.22,72.97
127124,2018-06-29 09:51:04.625000,43.57,72.97
127125,2018-06-29 09:51:04.656250,43.46,72.97
127126,2018-06-29 09:51:04.687500,43.08,72.97
127127,2018-06-29 09:51:04.718750,42.48,72.97
127128,2018-06-29 09:51:04.750000,41.14,72.97
127129,2018-06-29 09:51:04.781250,39.72,72.97
127130,2018-06-29 09:51:04.812500,38.73,72.97
127131,2018-06-29 09:51:04.843750,36.9,72.97
127132,2018-06-29 09:51:04.875000,33.01,72.97
127133,2018-06-29 09:51:04.906250,27.98,72.97
127134,2018-06-29 09:51:04.937500,23.35,72.97
127135,2018-06-29 09:51:04.968750,19.25,72.97
127136,2018-06-29 09:51:05.000000,14.63,72.97
127137,2018-06-29 09:51:05.031250,9.12,72.97
127138,2018-06-29 09:51:05.062500,3.16,72.97
127139,2018-06-29 09:51:05.093750,-2.93,72.97
127140,2018-06-29 09:51:05.125000,-8.82,72.97
127141,2018-06-29 09:51:05.156250,-14.03,72.97
127142,2018-06-29 09:51:05.187500,-18.79,72.97
127143,2018-06-29 09:51:05.218750,-24.01,72.97
127144,2018-06-29 09:51:05.250000,-29.48,72.97
127145,2018-06-29 09:51:05.281250,-34.23,72.97
127146,2018-06-29 09:51:05.312500,-38.72,72.97
127147,2018-06-29 09:51:05.343750,-44.8,72.97
127148,2018-06-29 09:51:05.375000,-53.7,72.97
127149,2018-06-29 09:51:05.406250,-63.86,72.97
127150,2018-06-29 09:51:05.437500,-68.95,72.97
127151,2018-06-29 09:51:05.468750,-61.0,72.97
127152,2018-06-29 09:51:05.500000,-39.42,72.97
127153,2018-06-29 09:51:05.531250,-13.19,72.95
127154,2018-06-29 09:51:05.562500,8.53,72.95
127155,2018-06-29 09:51:05.593750,23.2,72.95
127156,2018-06-29 09:51:05.625000,31.97,72.95
127157,2018-06-29 09:51:05.656250,35.76,72.95
127158,2018-06-29 09:51:05.687500,35.73,72.95
127159,2018-06-29 09:51:05.718750,33.61,72.95
127160,2018-06-29 09:51:05.750000,30.76,72.95
127161,2018-06-29 09:51:05.781250,28.34,72.95
127162,2018-06-29 09:51:05.812500,27.24,72.95
127163,2018-06-29 09:51:05.843750,27.26,72.95
127164,2018-06-29 09:51:05.875000,27.46,72.95
127165,2018-06-29 09:51:05.906250,26.61,72.95
127166,2018-06-29 09:51:05.937500,23.59,72.95
127167,2018-06-29 09:51:05.968750,18.73,72.95
127168,2018-06-29 09:51:06.000000,13.95,72.95
127169,2018-06-29 09:51:06.031250,10.19,72.95
127170,2018-06-29 09:51:06.062500,6.05,72.95
127171,2018-06-29 09:51:06.093750,0.46,72.95
127172,2018-06-29 09:51:06.125000,-5.58,72.95
127173,2018-06-29 09:51:06.156250,-10.68,72.95
127174,2018-06-29 09:51:06.187500,-14.74,72.95
127175,2018-06-29 09:51:06.218750,-18.86,72.95
127176,2018-06-29 09:51:06.250000,-23.68,72.95
127177,2018-06-29 09:51:06.281250,-28.64,72.95
127178,2018-06-29 09:51:06.312500,-32.95,72.95
127179,2018-06-29 09:51:06.343750,-36.87,72.95
127180,2018-06-29 09:51:06.375000,-42.22,72.95
127181,2018-06-29 09:51:06.406250,-50.13,72.95
127182,2018-06-29 09:51:06.437500,-57.09,72.95
127183,2018-06-29 09:51:06.468750,-55.26,72.95
127184,2018-06-29 09:51:06.500000,-40.7,72.95
127185,2018-06-29 09:51:06.531250,-18.66,72.87
127186,2018-06-29 09:51:06.562500,1.94,72.87
127187,2018-06-29 09:51:06.593750,16.49,72.87
127188,2018-06-29 09:51:06.625000,25.24,72.87
127189,2018-06-29 09:51:06.656250,29.43,72.87
127190,2018-06-29 09:51:06.687500,29.73,72.87
127191,2018-06-29 09:51:06.718750,27.43,72.87
127192,2018-06-29 09:51:06.750000,24.78,72.87
127193,2018-06-29 09:51:06.781250,23.69,72.87
127194,2018-06-29 09:51:06.812500,24.01,72.87
127195,2018-06-29 09:51:06.843750,24.22,72.87
127196,2018-06-29 09:51:06.875000,23.12,72.87
127197,2018-06-29 09:51:06.906250,20.19,72.87
127198,2018-06-29 09:51:06.937500,15.57,72.87
127199,2018-06-29 09:51:06.968750,10.14,72.87
127200,2018-06-29 09:51:07.000000,4.87,72.87
127201,2018-06-29 09:51:07.031250,0.09,72.87
127202,2018-06-29 09:51:07.062500,-4.14,72.87
127203,2018-06-29 09:51:07.093750,-7.85,72.87
127204,2018-06-29 09:51:07.125000,-11.91,72.87
127205,2018-06-29 09:51:07.156250,-17.36,72.87
127206,2018-06-29 09:51:07.187500,-23.88,72.87
127207,2018-06-29 09:51:07.218750,-30.2,72.87
127208,2018-06-29 09:51:07.250000,-35.77,72.87
127209,2018-06-29 09:51:07.281250,-41.14,72.87
127210,2018-06-29 09:51:07.312500,-47.36,72.87
127211,2018-06-29 09:51:07.343750,-54.35,72.87
127212,2018-06-29 09:51:07.375000,-58.11,72.87
127213,2018-06-29 09:51:07.406250,-52.31,72.87
127214,2018-06-29 09:51:07.437500,-35.57,72.87
127215,2018-06-29 09:51:07.468750,-14.25,72.87
127216,2018-06-29 09:51:07.500000,4.01,72.87
127217,2018-06-29 09:51:07.531250,16.39,72.78
127218,2018-06-29 09:51:07.562500,24.13,72.78
127219,2018-06-29 09:51:07.593750,28.98,72.78
127220,2018-06-29 09:51:07.625000,31.62,72.78
127221,2018-06-29 09:51:07.656250,31.98,72.78
127222,2018-06-29 09:51:07.687500,30.69,72.78
127223,2018-06-29 09:51:07.718750,29.18,72.78
127224,2018-06-29 09:51:07.750000,28.2,72.78
127225,2018-06-29 09:51:07.781250,27.24,72.78
127226,2018-06-29 09:51:07.812500,25.63,72.78
127227,2018-06-29 09:51:07.843750,22.93,72.78
127228,2018-06-29 09:51:07.875000,19.14,72.78
127229,2018-06-29 09:51:07.906250,14.89,72.78
127230,2018-06-29 09:51:07.937500,10.85,72.78
127231,2018-06-29 09:51:07.968750,7.24,72.78
127232,2018-06-29 09:51:08.000000,4.23,72.78
127233,2018-06-29 09:51:08.031250,1.44,72.78
127234,2018-06-29 09:51:08.062500,-2.09,72.78
127235,2018-06-29 09:51:08.093750,-6.64,72.78
127236,2018-06-29 09:51:08.125000,-11.28,72.78
127237,2018-06-29 09:51:08.156250,-15.45,72.78
127238,2018-06-29 09:51:08.187500,-19.67,72.78
127239,2018-06-29 09:51:08.218750,-24.42,72.78
127240,2018-06-29 09:51:08.250000,-29.39,72.78
127241,2018-06-29 09:51:08.281250,-34.15,72.78
127242,2018-06-29 09:51:08.312500,-38.99,72.78
127243,2018-06-29 09:51:08.343750,-44.92,72.78
127244,2018-06-29 09:51:08.375000,-52.59,72.78
127245,2018-06-29 09:51:08.406250,-60.08,72.78
127246,2018-06-29 09:51:08.437500,-61.42,72.78
127247,2018-06-29 09:51:08.468750,-50.83,72.78
127248,2018-06-29 09:51:08.500000,-29.95,72.78
127249,2018-06-29 09:51:08.531250,-7.28,72.68
127250,2018-06-29 09:51:08.562500,10.34,72.68
127251,2018-06-29 09:51:08.593750,21.96,72.68
127252,2018-06-29 09:51:08.625000,29.04,72.68
127253,2018-06-29 09:51:08.656250,33.17,72.68
127254,2018-06-29 09:51:08.687500,35.55,72.68
127255,2018-06-29 09:51:08.718750,36.63,72.68
127256,2018-06-29 09:51:08.750000,36.51,72.68
127257,2018-06-29 09:51:08.781250,36.22,72.68
127258,2018-06-29 09:51:08.812500,36.84,72.68
127259,2018-06-29 09:51:08.843750,37.73,72.68
127260,2018-06-29 09:51:08.875000,36.88,72.68
127261,2018-06-29 09:51:08.906250,32.78,72.68
127262,2018-06-29 09:51:08.937500,26.06,72.68
127263,2018-06-29 09:51:08.968750,18.6,72.68
127264,2018-06-29 09:51:09.000000,11.59,72.68
127265,2018-06-29 09:51:09.031250,4.91,72.68
127266,2018-06-29 09:51:09.062500,-1.27,72.68
127267,2018-06-29 09:51:09.093750,-6.19,72.68
127268,2018-06-29 09:51:09.125000,-10.05,72.68
127269,2018-06-29 09:51:09.156250,-14.07,72.68
127270,2018-06-29 09:51:09.187500,-19.26,72.68
127271,2018-06-29 09:51:09.218750,-25.71,72.68
127272,2018-06-29 09:51:09.250000,-32.67,72.68
127273,2018-06-29 09:51:09.281250,-39.52,72.68
127274,2018-06-29 09:51:09.312500,-46.75,72.68
127275,2018-06-29 09:51:09.343750,-54.33,72.68
127276,2018-06-29 09:51:09.375000,-58.04,72.68
127277,2018-06-29 09:51:09.406250,-51.79,72.68
127278,2018-06-29 09:51:09.437500,-35.55,72.68
127279,2018-06-29 09:51:09.468750,-16.31,72.68
127280,2018-06-29 09:51:09.500000,-0.63,72.68
127281,2018-06-29 09:51:09.531250,10.21,72.6
127282,2018-06-29 09:51:09.562500,17.61,72.6
127283,2018-06-29 09:51:09.593750,22.22,72.6
127284,2018-06-29 09:51:09.625000,23.87,72.6
127285,2018-06-29 09:51:09.656250,23.24,72.6
127286,2018-06-29 09:51:09.687500,21.92,72.6
127287,2018-06-29 09:51:09.718750,20.84,72.6
127288,2018-06-29 09:51:09.750000,19.96,72.6
127289,2018-06-29 09:51:09.781250,19.37,72.6
127290,2018-06-29 09:51:09.812500,18.91,72.6
127291,2018-06-29 09:51:09.843750,17.64,72.6
127292,2018-06-29 09:51:09.875000,14.94,72.6
127293,2018-06-29 09:51:09.906250,11.91,72.6
127294,2018-06-29 09:51:09.937500,9.65,72.6
127295,2018-06-29 09:51:09.968750,7.87,72.6
127296,2018-06-29 09:51:10.000000,6.33,72.6
127297,2018-06-29 09:51:10.031250,6.01,72.6
127298,2018-06-29 09:51:10.062500,6.71,72.6
127299,2018-06-29 09:51:10.093750,5.87,72.6
127300,2018-06-29 09:51:10.125000,2.11,72.6
127301,2018-06-29 09:51:10.156250,-2.4,72.6
127302,2018-06-29 09:51:10.187500,-5.51,72.6
127303,2018-06-29 09:51:10.218750,-9.09,72.6
127304,2018-06-29 09:51:10.250000,-16.46,72.6
127305,2018-06-29 09:51:10.281250,-26.9,72.6
127306,2018-06-29 09:51:10.312500,-35.93,72.6
127307,2018-06-29 09:51:10.343750,-40.86,72.6
127308,2018-06-29 09:51:10.375000,-43.17,72.6
127309,2018-06-29 09:51:10.406250,-45.63,72.6
127310,2018-06-29 09:51:10.437500,-49.02,72.6
127311,2018-06-29 09:51:10.468750,-50.15,72.6
127312,2018-06-29 09:51:10.500000,-43.49,72.6
127313,2018-06-29 09:51:10.531250,-27.57,72.55
127314,2018-06-29 09:51:10.562500,-8.21,72.55
127315,2018-06-29 09:51:10.593750,7.39,72.55
127316,2018-06-29 09:51:10.625000,16.6,72.55
127317,2018-06-29 09:51:10.656250,20.9,72.55
127318,2018-06-29 09:51:10.687500,22.81,72.55
127319,2018-06-29 09:51:10.718750,23.71,72.55
127320,2018-06-29 09:51:10.750000,23.57,72.55
127321,2018-06-29 09:51:10.781250,22.52,72.55
127322,2018-06-29 09:51:10.812500,21.87,72.55
127323,2018-06-29 09:51:10.843750,22.97,72.55
127324,2018-06-29 09:51:10.875000,25.62,72.55
127325,2018-06-29 09:51:10.906250,28.04,72.55
127326,2018-06-29 09:51:10.937500,27.51,72.55
127327,2018-06-29 09:51:10.968750,22.9,72.55
127328,2018-06-29 09:51:11.000000,16.4,72.55
127329,2018-06-29 09:51:11.031250,10.97,72.55
127330,2018-06-29 09:51:11.062500,6.66,72.55
127331,2018-06-29 09:51:11.093750,2.01,72.55
127332,2018-06-29 09:51:11.125000,-2.83,72.55
127333,2018-06-29 09:51:11.156250,-6.81,72.55
127334,2018-06-29 09:51:11.187500,-10.29,72.55
127335,2018-06-29 09:51:11.218750,-13.91,72.55
127336,2018-06-29 09:51:11.250000,-17.08,72.55
127337,2018-06-29 09:51:11.281250,-19.28,72.55
127338,2018-06-29 09:51:11.312500,-21.11,72.55
127339,2018-06-29 09:51:11.343750,-23.63,72.55
127340,2018-06-29 09:51:11.375000,-27.9,72.55
127341,2018-06-29 09:51:11.406250,-33.12,72.55
127342,2018-06-29 09:51:11.437500,-34.51,72.55
127343,2018-06-29 09:51:11.468750,-26.95,72.55
127344,2018-06-29 09:51:11.500000,-11.53,72.55
127345,2018-06-29 09:51:11.531250,4.93,72.53
127346,2018-06-29 09:51:11.562500,16.81,72.53
127347,2018-06-29 09:51:11.593750,23.32,72.53
127348,2018-06-29 09:51:11.625000,25.82,72.53
127349,2018-06-29 09:51:11.656250,25.12,72.53
127350,2018-06-29 09:51:11.687500,22.39,72.53
127351,2018-06-29 09:51:11.718750,19.82,72.53
127352,2018-06-29 09:51:11.750000,18.71,72.53
127353,2018-06-29 09:51:11.781250,18.24,72.53
127354,2018-06-29 09:51:11.812500,17.42,72.53
127355,2018-06-29 09:51:11.843750,16.27,72.53
127356,2018-06-29 09:51:11.875000,14.61,72.53
127357,2018-06-29 09:51:11.906250,11.23,72.53
127358,2018-06-29 09:51:11.937500,5.77,72.53
127359,2018-06-29 09:51:11.968750,-0.38,72.53
127360,2018-06-29 09:51:12.000000,-5.88,72.53
127361,2018-06-29 09:51:12.031250,-11.1,72.53
127362,2018-06-29 09:51:12.062500,-16.38,72.53
127363,2018-06-29 09:51:12.093750,-20.36,72.53
127364,2018-06-29 09:51:12.125000,-22.05,72.53
127365,2018-06-29 09:51:12.156250,-23.2,72.53
127366,2018-06-29 09:51:12.187500,-26.76,72.53
127367,2018-06-29 09:51:12.218750,-33.72,72.53
127368,2018-06-29 09:51:12.250000,-41.73,72.53
127369,2018-06-29 09:51:12.281250,-45.03,72.53
127370,2018-06-29 09:51:12.312500,-38.27,72.53
127371,2018-06-29 09:51:12.343750,-22.78,72.53
127372,2018-06-29 09:51:12.375000,-6.1,72.53
127373,2018-06-29 09:51:12.406250,5.81,72.53
127374,2018-06-29 09:51:12.437500,13.02,72.53
127375,2018-06-29 09:51:12.468750,18.11,72.53
127376,2018-06-29 09:51:12.500000,22.13,72.53
127377,2018-06-29 09:51:12.531250,24.75,72.45
127378,2018-06-29 09:51:12.562500,25.74,72.45
127379,2018-06-29 09:51:12.593750,25.45,72.45
127380,2018-06-29 09:51:12.625000,24.01,72.45
127381,2018-06-29 09:51:12.656250,21.51,72.45
127382,2018-06-29 09:51:12.687500,18.43,72.45
127383,2018-06-29 09:51:12.718750,14.98,72.45
127384,2018-06-29 09:51:12.750000,10.93,72.45
127385,2018-06-29 09:51:12.781250,6.62,72.45
127386,2018-06-29 09:51:12.812500,2.8,72.45
127387,2018-06-29 09:51:12.843750,-0.54,72.45
