,Time,ppg,hr
12800,2018-06-29 08:51:32.000000,-30.37,50.52
12801,2018-06-29 08:51:32.031250,-35.69,50.52
12802,2018-06-29 08:51:32.062500,-43.53,50.52
12803,2018-06-29 08:51:32.093750,-52.62,50.52
12804,2018-06-29 08:51:32.125000,-56.78,50.52
12805,2018-06-29 08:51:32.156250,-50.3,50.52
12806,2018-06-29 08:51:32.187500,-35.23,50.52
12807,2018-06-29 08:51:32.218750,-19.07,50.52
12808,2018-06-29 08:51:32.250000,-6.58,50.52
12809,2018-06-29 08:51:32.281250,2.29,50.52
12810,2018-06-29 08:51:32.312500,8.3,50.52
12811,2018-06-29 08:51:32.343750,11.66,50.52
12812,2018-06-29 08:51:32.375000,13.51,50.52
12813,2018-06-29 08:51:32.406250,15.41,50.52
12814,2018-06-29 08:51:32.437500,17.79,50.52
12815,2018-06-29 08:51:32.468750,20.31,50.52
12816,2018-06-29 08:51:32.500000,23.29,50.52
12817,2018-06-29 08:51:32.531250,26.47,50.28
12818,2018-06-29 08:51:32.562500,27.99,50.28
12819,2018-06-29 08:51:32.593750,26.76,50.28
12820,2018-06-29 08:51:32.625000,24.17,50.28
12821,2018-06-29 08:51:32.656250,21.94,50.28
12822,2018-06-29 08:51:32.687500,20.15,50.28
12823,2018-06-29 08:51:32.718750,18.46,50.28
12824,2018-06-29 08:51:32.750000,17.13,50.28
12825,2018-06-29 08:51:32.781250,16.25,50.28
12826,2018-06-29 08:51:32.812500,15.03,50.28
12827,2018-06-29 08:51:32.843750,12.76,50.28
12828,2018-06-29 08:51:32.875000,9.93,50.28
12829,2018-06-29 08:51:32.906250,7.59,50.28
12830,2018-06-29 08:51:32.937500,5.75,50.28
12831,2018-06-29 08:51:32.968750,3.79,50.28
12832,2018-06-29 08:51:33.000000,1.52,50.28
12833,2018-06-29 08:51:33.031250,-1.51,50.28
12834,2018-06-29 08:51:33.062500,-5.87,50.28
12835,2018-06-29 08:51:33.093750,-10.5,50.28
12836,2018-06-29 08:51:33.125000,-14.0,50.28
12837,2018-06-29 08:51:33.156250,-17.47,50.28
12838,2018-06-29 08:51:33.187500,-22.64,50.28
12839,2018-06-29 08:51:33.218750,-28.5,50.28
12840,2018-06-29 08:51:33.250000,-33.24,50.28
12841,2018-06-29 08:51:33.281250,-37.66,50.28
12842,2018-06-29 08:51:33.312500,-44.11,50.28
12843,2018-06-29 08:51:33.343750,-53.23,50.28
12844,2018-06-29 08:51:33.375000,-61.58,50.28
12845,2018-06-29 08:51:33.406250,-62.55,50.28
12846,2018-06-29 08:51:33.437500,-52.41,50.28
12847,2018-06-29 08:51:33.468750,-35.4,50.28
12848,2018-06-29 08:51:33.500000,-19.38,50.28
12849,2018-06-29 08:51:33.531250,-7.87,50.07
12850,2018-06-29 08:51:33.562500,0.72,50.07
12851,2018-06-29 08:51:33.593750,8.17,50.07
12852,2018-06-29 08:51:33.625000,14.31,50.07
12853,2018-06-29 08:51:33.656250,18.42,50.07
12854,2018-06-29 08:51:33.687500,20.94,50.07
12855,2018-06-29 08:51:33.718750,23.17,50.07
12856,2018-06-29 08:51:33.750000,25.7,50.07
12857,2018-06-29 08:51:33.781250,28.08,50.07
12858,2018-06-29 08:51:33.812500,29.87,50.07
12859,2018-06-29 08:51:33.843750,30.86,50.07
12860,2018-06-29 08:51:33.875000,30.67,50.07
12861,2018-06-29 08:51:33.906250,29.21,50.07
12862,2018-06-29 08:51:33.937500,27.14,50.07
12863,2018-06-29 08:51:33.968750,25.29,50.07
12864,2018-06-29 08:51:34.000000,23.74,50.07
12865,2018-06-29 08:51:34.031250,21.99,50.07
12866,2018-06-29 08:51:34.062500,19.9,50.07
12867,2018-06-29 08:51:34.093750,17.79,50.07
12868,2018-06-29 08:51:34.125000,16.03,50.07
12869,2018-06-29 08:51:34.156250,14.85,50.07
12870,2018-06-29 08:51:34.187500,13.77,50.07
12871,2018-06-29 08:51:34.218750,11.92,50.07
12872,2018-06-29 08:51:34.250000,9.4,50.07
12873,2018-06-29 08:51:34.281250,7.23,50.07
12874,2018-06-29 08:51:34.312500,5.69,50.07
12875,2018-06-29 08:51:34.343750,4.09,50.07
12876,2018-06-29 08:51:34.375000,1.59,50.07
12877,2018-06-29 08:51:34.406250,-2.36,50.07
12878,2018-06-29 08:51:34.437500,-7.12,50.07
12879,2018-06-29 08:51:34.468750,-11.28,50.07
12880,2018-06-29 08:51:34.500000,-14.68,50.07
12881,2018-06-29 08:51:34.531250,-18.62,49.83
12882,2018-06-29 08:51:34.562500,-23.78,49.83
12883,2018-06-29 08:51:34.593750,-29.32,49.83
12884,2018-06-29 08:51:34.625000,-34.11,49.83
12885,2018-06-29 08:51:34.656250,-38.85,49.83
12886,2018-06-29 08:51:34.687500,-46.41,49.83
12887,2018-06-29 08:51:34.718750,-57.1,49.83
12888,2018-06-29 08:51:34.750000,-64.23,49.83
12889,2018-06-29 08:51:34.781250,-60.11,49.83
12890,2018-06-29 08:51:34.812500,-45.78,49.83
12891,2018-06-29 08:51:34.843750,-29.19,49.83
12892,2018-06-29 08:51:34.875000,-15.87,49.83
12893,2018-06-29 08:51:34.906250,-6.47,49.83
12894,2018-06-29 08:51:34.937500,0.48,49.83
12895,2018-06-29 08:51:34.968750,6.76,49.83
12896,2018-06-29 08:51:35.000000,12.49,49.83
12897,2018-06-29 08:51:35.031250,16.28,49.83
12898,2018-06-29 08:51:35.062500,18.54,49.83
12899,2018-06-29 08:51:35.093750,21.55,49.83
12900,2018-06-29 08:51:35.125000,25.87,49.83
12901,2018-06-29 08:51:35.156250,29.83,49.83
12902,2018-06-29 08:51:35.187500,31.57,49.83
12903,2018-06-29 08:51:35.218750,30.62,49.83
12904,2018-06-29 08:51:35.250000,28.33,49.83
12905,2018-06-29 08:51:35.281250,26.45,49.83
12906,2018-06-29 08:51:35.312500,25.24,49.83
12907,2018-06-29 08:51:35.343750,23.85,49.83
12908,2018-06-29 08:51:35.375000,21.76,49.83
12909,2018-06-29 08:51:35.406250,19.09,49.83
12910,2018-06-29 08:51:35.437500,16.6,49.83
12911,2018-06-29 08:51:35.468750,14.91,49.83
12912,2018-06-29 08:51:35.500000,13.43,49.83
12913,2018-06-29 08:51:35.531250,11.28,49.6
12914,2018-06-29 08:51:35.562500,8.52,49.6
12915,2018-06-29 08:51:35.593750,5.52,49.6
12916,2018-06-29 08:51:35.625000,2.01,49.6
12917,2018-06-29 08:51:35.656250,-1.94,49.6
12918,2018-06-29 08:51:35.687500,-5.14,49.6
12919,2018-06-29 08:51:35.718750,-7.05,49.6
12920,2018-06-29 08:51:35.750000,-9.15,49.6
12921,2018-06-29 08:51:35.781250,-13.29,49.6
12922,2018-06-29 08:51:35.812500,-19.21,49.6
12923,2018-06-29 08:51:35.843750,-25.05,49.6
12924,2018-06-29 08:51:35.875000,-30.04,49.6
12925,2018-06-29 08:51:35.906250,-36.08,49.6
12926,2018-06-29 08:51:35.937500,-45.27,49.6
12927,2018-06-29 08:51:35.968750,-55.62,49.6
12928,2018-06-29 08:51:36.000000,-60.54,49.6
12929,2018-06-29 08:51:36.031250,-54.92,49.6
12930,2018-06-29 08:51:36.062500,-40.55,49.6
12931,2018-06-29 08:51:36.093750,-23.94,49.6
12932,2018-06-29 08:51:36.125000,-10.14,49.6
12933,2018-06-29 08:51:36.156250,-0.45,49.6
12934,2018-06-29 08:51:36.187500,6.0,49.6
12935,2018-06-29 08:51:36.218750,10.64,49.6
12936,2018-06-29 08:51:36.250000,14.37,49.6
12937,2018-06-29 08:51:36.281250,17.41,49.6
12938,2018-06-29 08:51:36.312500,20.43,49.6
12939,2018-06-29 08:51:36.343750,24.12,49.6
12940,2018-06-29 08:51:36.375000,27.68,49.6
12941,2018-06-29 08:51:36.406250,29.88,49.6
12942,2018-06-29 08:51:36.437500,30.83,49.6
12943,2018-06-29 08:51:36.468750,30.71,49.6
12944,2018-06-29 08:51:36.500000,29.0,49.6
12945,2018-06-29 08:51:36.531250,26.4,49.37
12946,2018-06-29 08:51:36.562500,24.76,49.37
12947,2018-06-29 08:51:36.593750,24.18,49.37
12948,2018-06-29 08:51:36.625000,23.23,49.37
12949,2018-06-29 08:51:36.656250,21.75,49.37
12950,2018-06-29 08:51:36.687500,20.62,49.37
12951,2018-06-29 08:51:36.718750,19.71,49.37
12952,2018-06-29 08:51:36.750000,18.14,49.37
12953,2018-06-29 08:51:36.781250,15.94,49.37
12954,2018-06-29 08:51:36.812500,13.61,49.37
12955,2018-06-29 08:51:36.843750,11.19,49.37
12956,2018-06-29 08:51:36.875000,8.54,49.37
12957,2018-06-29 08:51:36.906250,5.51,49.37
12958,2018-06-29 08:51:36.937500,1.6,49.37
12959,2018-06-29 08:51:36.968750,-3.08,49.37
12960,2018-06-29 08:51:37.000000,-7.17,49.37
12961,2018-06-29 08:51:37.031250,-9.94,49.37
12962,2018-06-29 08:51:37.062500,-13.11,49.37
12963,2018-06-29 08:51:37.093750,-18.43,49.37
12964,2018-06-29 08:51:37.125000,-24.97,49.37
12965,2018-06-29 08:51:37.156250,-30.79,49.37
12966,2018-06-29 08:51:37.187500,-35.97,49.37
12967,2018-06-29 08:51:37.218750,-42.26,49.37
12968,2018-06-29 08:51:37.250000,-51.13,49.37
12969,2018-06-29 08:51:37.281250,-61.41,49.37
12970,2018-06-29 08:51:37.312500,-67.5,49.37
12971,2018-06-29 08:51:37.343750,-62.8,49.37
12972,2018-06-29 08:51:37.375000,-47.39,49.37
12973,2018-06-29 08:51:37.406250,-28.98,49.37
12974,2018-06-29 08:51:37.437500,-14.67,49.37
12975,2018-06-29 08:51:37.468750,-4.69,49.37
12976,2018-06-29 08:51:37.500000,4.37,49.37
12977,2018-06-29 08:51:37.531250,13.35,49.13
12978,2018-06-29 08:51:37.562500,20.04,49.13
12979,2018-06-29 08:51:37.593750,23.53,49.13
12980,2018-06-29 08:51:37.625000,25.87,49.13
12981,2018-06-29 08:51:37.656250,29.01,49.13
12982,2018-06-29 08:51:37.687500,32.58,49.13
12983,2018-06-29 08:51:37.718750,35.5,49.13
12984,2018-06-29 08:51:37.750000,37.38,49.13
12985,2018-06-29 08:51:37.781250,37.75,49.13
12986,2018-06-29 08:51:37.812500,36.33,49.13
12987,2018-06-29 08:51:37.843750,34.37,49.13
12988,2018-06-29 08:51:37.875000,33.12,49.13
12989,2018-06-29 08:51:37.906250,31.67,49.13
12990,2018-06-29 08:51:37.937500,29.15,49.13
12991,2018-06-29 08:51:37.968750,26.77,49.13
12992,2018-06-29 08:51:38.000000,25.67,49.13
12993,2018-06-29 08:51:38.031250,24.97,49.13
12994,2018-06-29 08:51:38.062500,23.31,49.13
12995,2018-06-29 08:51:38.093750,20.63,49.13
12996,2018-06-29 08:51:38.125000,17.89,49.13
12997,2018-06-29 08:51:38.156250,15.81,49.13
12998,2018-06-29 08:51:38.187500,14.12,49.13
12999,2018-06-29 08:51:38.218750,12.2,49.13
13000,2018-06-29 08:51:38.250000,9.71,49.13
13001,2018-06-29 08:51:38.281250,6.75,49.13
13002,2018-06-29 08:51:38.312500,3.98,49.13
13003,2018-06-29 08:51:38.343750,1.73,49.13
13004,2018-06-29 08:51:38.375000,-1.09,49.13
13005,2018-06-29 08:51:38.406250,-5.15,49.13
13006,2018-06-29 08:51:38.437500,-9.31,49.13
13007,2018-06-29 08:51:38.468750,-12.91,49.13
13008,2018-06-29 08:51:38.500000,-16.76,49.13
13009,2018-06-29 08:51:38.531250,-21.25,48.88
13010,2018-06-29 08:51:38.562500,-25.91,48.88
13011,2018-06-29 08:51:38.593750,-30.67,48.88
13012,2018-06-29 08:51:38.625000,-36.3,48.88
13013,2018-06-29 08:51:38.656250,-44.31,48.88
13014,2018-06-29 08:51:38.687500,-54.87,48.88
13015,2018-06-29 08:51:38.718750,-63.12,48.88
13016,2018-06-29 08:51:38.750000,-61.74,48.88
13017,2018-06-29 08:51:38.781250,-49.28,48.88
13018,2018-06-29 08:51:38.812500,-32.06,48.88
13019,2018-06-29 08:51:38.843750,-16.95,48.88
13020,2018-06-29 08:51:38.875000,-5.9,48.88
13021,2018-06-29 08:51:38.906250,2.48,48.88
13022,2018-06-29 08:51:38.937500,9.01,48.88
13023,2018-06-29 08:51:38.968750,13.38,48.88
13024,2018-06-29 08:51:39.000000,16.35,48.88
13025,2018-06-29 08:51:39.031250,19.55,48.88
13026,2018-06-29 08:51:39.062500,22.94,48.88
13027,2018-06-29 08:51:39.093750,25.6,48.88
13028,2018-06-29 08:51:39.125000,28.11,48.88
13029,2018-06-29 08:51:39.156250,30.77,48.88
13030,2018-06-29 08:51:39.187500,32.0,48.88
13031,2018-06-29 08:51:39.218750,30.86,48.88
13032,2018-06-29 08:51:39.250000,28.9,48.88
13033,2018-06-29 08:51:39.281250,27.77,48.88
13034,2018-06-29 08:51:39.312500,26.93,48.88
13035,2018-06-29 08:51:39.343750,25.0,48.88
13036,2018-06-29 08:51:39.375000,22.34,48.88
13037,2018-06-29 08:51:39.406250,20.06,48.88
13038,2018-06-29 08:51:39.437500,18.06,48.88
13039,2018-06-29 08:51:39.468750,16.17,48.88
13040,2018-06-29 08:51:39.500000,14.89,48.88
13041,2018-06-29 08:51:39.531250,13.46,48.63
13042,2018-06-29 08:51:39.562500,10.63,48.63
13043,2018-06-29 08:51:39.593750,7.24,48.63
13044,2018-06-29 08:51:39.625000,4.59,48.63
13045,2018-06-29 08:51:39.656250,1.61,48.63
13046,2018-06-29 08:51:39.687500,-2.82,48.63
13047,2018-06-29 08:51:39.718750,-7.28,48.63
13048,2018-06-29 08:51:39.750000,-10.37,48.63
13049,2018-06-29 08:51:39.781250,-13.51,48.63
13050,2018-06-29 08:51:39.812500,-18.59,48.63
13051,2018-06-29 08:51:39.843750,-24.7,48.63
13052,2018-06-29 08:51:39.875000,-29.61,48.63
13053,2018-06-29 08:51:39.906250,-33.61,48.63
13054,2018-06-29 08:51:39.937500,-39.61,48.63
13055,2018-06-29 08:51:39.968750,-49.37,48.63
13056,2018-06-29 08:51:40.000000,-60.06,48.63
13057,2018-06-29 08:51:40.031250,-64.93,48.63
13058,2018-06-29 08:51:40.062500,-59.17,48.63
13059,2018-06-29 08:51:40.093750,-44.97,48.63
13060,2018-06-29 08:51:40.125000,-29.0,48.63
13061,2018-06-29 08:51:40.156250,-15.54,48.63
13062,2018-06-29 08:51:40.187500,-4.64,48.63
13063,2018-06-29 08:51:40.218750,4.66,48.63
13064,2018-06-29 08:51:40.250000,12.45,48.63
13065,2018-06-29 08:51:40.281250,18.47,48.63
13066,2018-06-29 08:51:40.312500,22.73,48.63
13067,2018-06-29 08:51:40.343750,25.86,48.63
13068,2018-06-29 08:51:40.375000,28.92,48.63
13069,2018-06-29 08:51:40.406250,32.07,48.63
13070,2018-06-29 08:51:40.437500,34.5,48.63
13071,2018-06-29 08:51:40.468750,35.61,48.63
13072,2018-06-29 08:51:40.500000,35.31,48.63
13073,2018-06-29 08:51:40.531250,33.4,48.42
13074,2018-06-29 08:51:40.562500,30.49,48.42
13075,2018-06-29 08:51:40.593750,28.2,48.42
13076,2018-06-29 08:51:40.625000,27.14,48.42
13077,2018-06-29 08:51:40.656250,26.11,48.42
13078,2018-06-29 08:51:40.687500,24.19,48.42
13079,2018-06-29 08:51:40.718750,21.92,48.42
13080,2018-06-29 08:51:40.750000,20.16,48.42
13081,2018-06-29 08:51:40.781250,18.66,48.42
13082,2018-06-29 08:51:40.812500,16.7,48.42
13083,2018-06-29 08:51:40.843750,14.38,48.42
13084,2018-06-29 08:51:40.875000,12.32,48.42
13085,2018-06-29 08:51:40.906250,10.29,48.42
13086,2018-06-29 08:51:40.937500,8.08,48.42
13087,2018-06-29 08:51:40.968750,6.06,48.42
13088,2018-06-29 08:51:41.000000,4.03,48.42
13089,2018-06-29 08:51:41.031250,1.14,48.42
13090,2018-06-29 08:51:41.062500,-2.34,48.42
13091,2018-06-29 08:51:41.093750,-5.29,48.42
13092,2018-06-29 08:51:41.125000,-7.82,48.42
13093,2018-06-29 08:51:41.156250,-11.24,48.42
13094,2018-06-29 08:51:41.187500,-15.98,48.42
13095,2018-06-29 08:51:41.218750,-21.19,48.42
13096,2018-06-29 08:51:41.250000,-26.35,48.42
13097,2018-06-29 08:51:41.281250,-31.69,48.42
13098,2018-06-29 08:51:41.312500,-37.38,48.42
13099,2018-06-29 08:51:41.343750,-44.02,48.42
13100,2018-06-29 08:51:41.375000,-52.96,48.42
13101,2018-06-29 08:51:41.406250,-62.64,48.42
13102,2018-06-29 08:51:41.437500,-66.31,48.42
13103,2018-06-29 08:51:41.468750,-58.35,48.42
13104,2018-06-29 08:51:41.500000,-41.93,48.42
13105,2018-06-29 08:51:41.531250,-25.26,48.18
13106,2018-06-29 08:51:41.562500,-12.78,48.18
13107,2018-06-29 08:51:41.593750,-3.73,48.18
13108,2018-06-29 08:51:41.625000,3.96,48.18
13109,2018-06-29 08:51:41.656250,11.31,48.18
13110,2018-06-29 08:51:41.687500,17.74,48.18
13111,2018-06-29 08:51:41.718750,22.17,48.18
13112,2018-06-29 08:51:41.750000,24.97,48.18
13113,2018-06-29 08:51:41.781250,27.48,48.18
13114,2018-06-29 08:51:41.812500,29.93,48.18
13115,2018-06-29 08:51:41.843750,31.85,48.18
13116,2018-06-29 08:51:41.875000,33.1,48.18
13117,2018-06-29 08:51:41.906250,33.24,48.18
13118,2018-06-29 08:51:41.937500,31.76,48.18
13119,2018-06-29 08:51:41.968750,29.43,48.18
13120,2018-06-29 08:51:42.000000,27.55,48.18
13121,2018-06-29 08:51:42.031250,25.89,48.18
13122,2018-06-29 08:51:42.062500,23.64,48.18
13123,2018-06-29 08:51:42.093750,21.37,48.18
13124,2018-06-29 08:51:42.125000,19.85,48.18
13125,2018-06-29 08:51:42.156250,18.32,48.18
13126,2018-06-29 08:51:42.187500,16.16,48.18
13127,2018-06-29 08:51:42.218750,14.27,48.18
13128,2018-06-29 08:51:42.250000,12.96,48.18
13129,2018-06-29 08:51:42.281250,10.84,48.18
13130,2018-06-29 08:51:42.312500,7.78,48.18
13131,2018-06-29 08:51:42.343750,5.73,48.18
13132,2018-06-29 08:51:42.375000,5.07,48.18
13133,2018-06-29 08:51:42.406250,3.46,48.18
13134,2018-06-29 08:51:42.437500,-0.45,48.18
13135,2018-06-29 08:51:42.468750,-4.99,48.18
13136,2018-06-29 08:51:42.500000,-8.31,48.18
13137,2018-06-29 08:51:42.531250,-10.82,47.97
13138,2018-06-29 08:51:42.562500,-14.03,47.97
13139,2018-06-29 08:51:42.593750,-18.54,47.97
13140,2018-06-29 08:51:42.625000,-23.79,47.97
13141,2018-06-29 08:51:42.656250,-29.04,47.97
13142,2018-06-29 08:51:42.687500,-34.54,47.97
13143,2018-06-29 08:51:42.718750,-41.77,47.97
13144,2018-06-29 08:51:42.750000,-51.17,47.97
13145,2018-06-29 08:51:42.781250,-58.76,47.97
13146,2018-06-29 08:51:42.812500,-57.94,47.97
13147,2018-06-29 08:51:42.843750,-46.81,47.97
13148,2018-06-29 08:51:42.875000,-30.88,47.97
13149,2018-06-29 08:51:42.906250,-16.72,47.97
13150,2018-06-29 08:51:42.937500,-6.35,47.97
13151,2018-06-29 08:51:42.968750,1.3,47.97
13152,2018-06-29 08:51:43.000000,7.0,47.97
13153,2018-06-29 08:51:43.031250,10.86,47.97
13154,2018-06-29 08:51:43.062500,13.52,47.97
13155,2018-06-29 08:51:43.093750,16.12,47.97
13156,2018-06-29 08:51:43.125000,18.94,47.97
13157,2018-06-29 08:51:43.156250,21.48,47.97
13158,2018-06-29 08:51:43.187500,23.94,47.97
13159,2018-06-29 08:51:43.218750,26.34,47.97
13160,2018-06-29 08:51:43.250000,27.42,47.97
13161,2018-06-29 08:51:43.281250,26.3,47.97
13162,2018-06-29 08:51:43.312500,23.78,47.97
13163,2018-06-29 08:51:43.343750,21.22,47.97
13164,2018-06-29 08:51:43.375000,19.49,47.97
13165,2018-06-29 08:51:43.406250,18.45,47.97
13166,2018-06-29 08:51:43.437500,17.18,47.97
13167,2018-06-29 08:51:43.468750,15.54,47.97
13168,2018-06-29 08:51:43.500000,14.25,47.97
13169,2018-06-29 08:51:43.531250,13.12,47.73
13170,2018-06-29 08:51:43.562500,11.16,47.73
13171,2018-06-29 08:51:43.593750,8.37,47.73
13172,2018-06-29 08:51:43.625000,5.4,47.73
13173,2018-06-29 08:51:43.656250,2.26,47.73
13174,2018-06-29 08:51:43.687500,-1.2,47.73
13175,2018-06-29 08:51:43.718750,-4.77,47.73
13176,2018-06-29 08:51:43.750000,-8.01,47.73
13177,2018-06-29 08:51:43.781250,-10.82,47.73
13178,2018-06-29 08:51:43.812500,-13.82,47.73
13179,2018-06-29 08:51:43.843750,-17.46,47.73
13180,2018-06-29 08:51:43.875000,-21.5,47.73
13181,2018-06-29 08:51:43.906250,-25.9,47.73
13182,2018-06-29 08:51:43.937500,-30.66,47.73
13183,2018-06-29 08:51:43.968750,-34.95,47.73
13184,2018-06-29 08:51:44.000000,-38.69,47.73
13185,2018-06-29 08:51:44.031250,-44.04,47.73
13186,2018-06-29 08:51:44.062500,-52.5,47.73
13187,2018-06-29 08:51:44.093750,-60.76,47.73
13188,2018-06-29 08:51:44.125000,-61.95,47.73
13189,2018-06-29 08:51:44.156250,-52.68,47.73
13190,2018-06-29 08:51:44.187500,-37.08,47.73
13191,2018-06-29 08:51:44.218750,-21.84,47.73
13192,2018-06-29 08:51:44.250000,-9.8,47.73
13193,2018-06-29 08:51:44.281250,-0.47,47.73
13194,2018-06-29 08:51:44.312500,6.77,47.73
13195,2018-06-29 08:51:44.343750,12.46,47.73
13196,2018-06-29 08:51:44.375000,17.34,47.73
13197,2018-06-29 08:51:44.406250,21.44,47.73
13198,2018-06-29 08:51:44.437500,24.74,47.73
13199,2018-06-29 08:51:44.468750,28.18,47.73
13200,2018-06-29 08:51:44.500000,32.52,47.73
13201,2018-06-29 08:51:44.531250,36.92,47.53
13202,2018-06-29 08:51:44.562500,39.89,47.53
13203,2018-06-29 08:51:44.593750,40.69,47.53
13204,2018-06-29 08:51:44.625000,39.6,47.53
13205,2018-06-29 08:51:44.656250,37.78,47.53
13206,2018-06-29 08:51:44.687500,36.5,47.53
13207,2018-06-29 08:51:44.718750,35.4,47.53
13208,2018-06-29 08:51:44.750000,33.14,47.53
13209,2018-06-29 08:51:44.781250,30.15,47.53
13210,2018-06-29 08:51:44.812500,28.06,47.53
13211,2018-06-29 08:51:44.843750,26.15,47.53
13212,2018-06-29 08:51:44.875000,22.36,47.53
13213,2018-06-29 08:51:44.906250,17.02,47.53
13214,2018-06-29 08:51:44.937500,11.73,47.53
13215,2018-06-29 08:51:44.968750,6.58,47.53
13216,2018-06-29 08:51:45.000000,1.36,47.53
13217,2018-06-29 08:51:45.031250,-3.1,47.53
13218,2018-06-29 08:51:45.062500,-6.56,47.53
13219,2018-06-29 08:51:45.093750,-9.45,47.53
13220,2018-06-29 08:51:45.125000,-11.72,47.53
13221,2018-06-29 08:51:45.156250,-13.5,47.53
13222,2018-06-29 08:51:45.187500,-15.67,47.53
13223,2018-06-29 08:51:45.218750,-18.78,47.53
13224,2018-06-29 08:51:45.250000,-23.28,47.53
13225,2018-06-29 08:51:45.281250,-30.48,47.53
13226,2018-06-29 08:51:45.312500,-40.76,47.53
13227,2018-06-29 08:51:45.343750,-50.82,47.53
13228,2018-06-29 08:51:45.375000,-54.76,47.53
13229,2018-06-29 08:51:45.406250,-49.05,47.53
13230,2018-06-29 08:51:45.437500,-35.66,47.53
13231,2018-06-29 08:51:45.468750,-19.89,47.53
13232,2018-06-29 08:51:45.500000,-6.26,47.53
13233,2018-06-29 08:51:45.531250,3.45,47.38
13234,2018-06-29 08:51:45.562500,9.93,47.38
13235,2018-06-29 08:51:45.593750,14.52,47.38
13236,2018-06-29 08:51:45.625000,17.39,47.38
13237,2018-06-29 08:51:45.656250,18.48,47.38
13238,2018-06-29 08:51:45.687500,19.1,47.38
13239,2018-06-29 08:51:45.718750,20.84,47.38
13240,2018-06-29 08:51:45.750000,23.87,47.38
13241,2018-06-29 08:51:45.781250,26.87,47.38
13242,2018-06-29 08:51:45.812500,28.32,47.38
13243,2018-06-29 08:51:45.843750,27.56,47.38
13244,2018-06-29 08:51:45.875000,24.95,47.38
13245,2018-06-29 08:51:45.906250,21.41,47.38
13246,2018-06-29 08:51:45.937500,17.9,47.38
13247,2018-06-29 08:51:45.968750,14.91,47.38
13248,2018-06-29 08:51:46.000000,12.19,47.38
13249,2018-06-29 08:51:46.031250,9.43,47.38
13250,2018-06-29 08:51:46.062500,6.49,47.38
13251,2018-06-29 08:51:46.093750,3.2,47.38
13252,2018-06-29 08:51:46.125000,-0.58,47.38
13253,2018-06-29 08:51:46.156250,-4.93,47.38
13254,2018-06-29 08:51:46.187500,-10.05,47.38
13255,2018-06-29 08:51:46.218750,-15.73,47.38
13256,2018-06-29 08:51:46.250000,-21.46,47.38
13257,2018-06-29 08:51:46.281250,-27.23,47.38
13258,2018-06-29 08:51:46.312500,-34.16,47.38
13259,2018-06-29 08:51:46.343750,-43.75,47.38
13260,2018-06-29 08:51:46.375000,-54.96,47.38
13261,2018-06-29 08:51:46.406250,-62.44,47.38
13262,2018-06-29 08:51:46.437500,-60.73,47.38
13263,2018-06-29 08:51:46.468750,-50.35,47.38
13264,2018-06-29 08:51:46.500000,-38.0,47.38
13265,2018-06-29 08:51:46.531250,-30.24,47.27
13266,2018-06-29 08:51:46.562500,-26.95,47.27
13267,2018-06-29 08:51:46.593750,-22.65,47.27
13268,2018-06-29 08:51:46.625000,-14.9,47.27
13269,2018-06-29 08:51:46.656250,-6.44,47.27
13270,2018-06-29 08:51:46.687500,1.22,47.27
13271,2018-06-29 08:51:46.718750,9.05,47.27
13272,2018-06-29 08:51:46.750000,15.87,47.27
13273,2018-06-29 08:51:46.781250,19.88,47.27
13274,2018-06-29 08:51:46.812500,22.59,47.27
13275,2018-06-29 08:51:46.843750,26.71,47.27
13276,2018-06-29 08:51:46.875000,32.26,47.27
13277,2018-06-29 08:51:46.906250,37.42,47.27
13278,2018-06-29 08:51:46.937500,41.36,47.27
13279,2018-06-29 08:51:46.968750,44.64,47.27
13280,2018-06-29 08:51:47.000000,47.22,47.27
13281,2018-06-29 08:51:47.031250,47.82,47.27
13282,2018-06-29 08:51:47.062500,46.17,47.27
13283,2018-06-29 08:51:47.093750,43.73,47.27
13284,2018-06-29 08:51:47.125000,41.47,47.27
13285,2018-06-29 08:51:47.156250,38.76,47.27
13286,2018-06-29 08:51:47.187500,34.89,47.27
13287,2018-06-29 08:51:47.218750,30.26,47.27
13288,2018-06-29 08:51:47.250000,25.62,47.27
13289,2018-06-29 08:51:47.281250,20.89,47.27
13290,2018-06-29 08:51:47.312500,15.23,47.27
13291,2018-06-29 08:51:47.343750,8.54,47.27
13292,2018-06-29 08:51:47.375000,2.28,47.27
13293,2018-06-29 08:51:47.406250,-2.81,47.27
13294,2018-06-29 08:51:47.437500,-8.54,47.27
13295,2018-06-29 08:51:47.468750,-16.05,47.27
13296,2018-06-29 08:51:47.500000,-23.36,47.27
13297,2018-06-29 08:51:47.531250,-29.38,47.17
13298,2018-06-29 08:51:47.562500,-36.28,47.17
13299,2018-06-29 08:51:47.593750,-45.97,47.17
13300,2018-06-29 08:51:47.625000,-57.82,47.17
13301,2018-06-29 08:51:47.656250,-68.58,47.17
13302,2018-06-29 08:51:47.687500,-72.18,47.17
13303,2018-06-29 08:51:47.718750,-64.02,47.17
13304,2018-06-29 08:51:47.750000,-47.26,47.17
13305,2018-06-29 08:51:47.781250,-30.29,47.17
13306,2018-06-29 08:51:47.812500,-17.95,47.17
13307,2018-06-29 08:51:47.843750,-8.86,47.17
13308,2018-06-29 08:51:47.875000,-0.34,47.17
13309,2018-06-29 08:51:47.906250,7.64,47.17
13310,2018-06-29 08:51:47.937500,13.97,47.17
13311,2018-06-29 08:51:47.968750,18.73,47.17
13312,2018-06-29 08:51:48.000000,22.41,47.17
13313,2018-06-29 08:51:48.031250,24.85,47.17
13314,2018-06-29 08:51:48.062500,26.27,47.17
13315,2018-06-29 08:51:48.093750,27.48,47.17
13316,2018-06-29 08:51:48.125000,28.58,47.17
13317,2018-06-29 08:51:48.156250,28.58,47.17
13318,2018-06-29 08:51:48.187500,26.35,47.17
13319,2018-06-29 08:51:48.218750,21.93,47.17
13320,2018-06-29 08:51:48.250000,17.15,47.17
13321,2018-06-29 08:51:48.281250,14.25,47.17
13322,2018-06-29 08:51:48.312500,13.59,47.17
13323,2018-06-29 08:51:48.343750,13.11,47.17
13324,2018-06-29 08:51:48.375000,10.47,47.17
13325,2018-06-29 08:51:48.406250,5.49,47.17
13326,2018-06-29 08:51:48.437500,0.1,47.17
13327,2018-06-29 08:51:48.468750,-4.02,47.17
13328,2018-06-29 08:51:48.500000,-6.98,47.17
13329,2018-06-29 08:51:48.531250,-9.5,47.13
13330,2018-06-29 08:51:48.562500,-12.13,47.13
13331,2018-06-29 08:51:48.593750,-16.29,47.13
13332,2018-06-29 08:51:48.625000,-24.08,47.13
13333,2018-06-29 08:51:48.656250,-34.68,47.13
13334,2018-06-29 08:51:48.687500,-42.34,47.13
13335,2018-06-29 08:51:48.718750,-40.81,47.13
13336,2018-06-29 08:51:48.750000,-29.92,47.13
13337,2018-06-29 08:51:48.781250,-15.49,47.13
13338,2018-06-29 08:51:48.812500,-2.81,47.13
13339,2018-06-29 08:51:48.843750,7.42,47.13
13340,2018-06-29 08:51:48.875000,16.23,47.13
13341,2018-06-29 08:51:48.906250,22.97,47.13
13342,2018-06-29 08:51:48.937500,26.89,47.13
13343,2018-06-29 08:51:48.968750,29.18,47.13
13344,2018-06-29 08:51:49.000000,31.36,47.13
13345,2018-06-29 08:51:49.031250,33.48,47.13
13346,2018-06-29 08:51:49.062500,34.96,47.13
13347,2018-06-29 08:51:49.093750,35.76,47.13
13348,2018-06-29 08:51:49.125000,36.12,47.13
13349,2018-06-29 08:51:49.156250,35.82,47.13
13350,2018-06-29 08:51:49.187500,34.23,47.13
13351,2018-06-29 08:51:49.218750,31.48,47.13
13352,2018-06-29 08:51:49.250000,28.69,47.13
13353,2018-06-29 08:51:49.281250,26.51,47.13
13354,2018-06-29 08:51:49.312500,24.67,47.13
13355,2018-06-29 08:51:49.343750,22.96,47.13
13356,2018-06-29 08:51:49.375000,21.34,47.13
13357,2018-06-29 08:51:49.406250,19.55,47.13
13358,2018-06-29 08:51:49.437500,17.3,47.13
13359,2018-06-29 08:51:49.468750,14.73,47.13
13360,2018-06-29 08:51:49.500000,12.11,47.13
13361,2018-06-29 08:51:49.531250,9.35,47.15
13362,2018-06-29 08:51:49.562500,6.31,47.15
13363,2018-06-29 08:51:49.593750,3.32,47.15
13364,2018-06-29 08:51:49.625000,0.7,47.15
13365,2018-06-29 08:51:49.656250,-2.05,47.15
13366,2018-06-29 08:51:49.687500,-5.44,47.15
13367,2018-06-29 08:51:49.718750,-8.87,47.15
13368,2018-06-29 08:51:49.750000,-11.57,47.15
13369,2018-06-29 08:51:49.781250,-14.09,47.15
13370,2018-06-29 08:51:49.812500,-17.6,47.15
13371,2018-06-29 08:51:49.843750,-22.0,47.15
13372,2018-06-29 08:51:49.875000,-26.11,47.15
13373,2018-06-29 08:51:49.906250,-29.89,47.15
13374,2018-06-29 08:51:49.937500,-35.41,47.15
13375,2018-06-29 08:51:49.968750,-44.46,47.15
13376,2018-06-29 08:51:50.000000,-54.97,47.15
13377,2018-06-29 08:51:50.031250,-60.49,47.15
13378,2018-06-29 08:51:50.062500,-55.75,47.15
13379,2018-06-29 08:51:50.093750,-42.39,47.15
13380,2018-06-29 08:51:50.125000,-26.91,47.15
13381,2018-06-29 08:51:50.156250,-14.32,47.15
13382,2018-06-29 08:51:50.187500,-5.66,47.15
13383,2018-06-29 08:51:50.218750,0.61,47.15
13384,2018-06-29 08:51:50.250000,6.65,47.15
13385,2018-06-29 08:51:50.281250,12.46,47.15
13386,2018-06-29 08:51:50.312500,16.29,47.15
13387,2018-06-29 08:51:50.343750,18.36,47.15
13388,2018-06-29 08:51:50.375000,20.8,47.15
13389,2018-06-29 08:51:50.406250,24.07,47.15
13390,2018-06-29 08:51:50.437500,26.83,47.15
13391,2018-06-29 08:51:50.468750,28.45,47.15
13392,2018-06-29 08:51:50.500000,29.06,47.15
13393,2018-06-29 08:51:50.531250,28.57,47.18
13394,2018-06-29 08:51:50.562500,27.25,47.18
13395,2018-06-29 08:51:50.593750,25.81,47.18
13396,2018-06-29 08:51:50.625000,24.46,47.18
13397,2018-06-29 08:51:50.656250,23.07,47.18
13398,2018-06-29 08:51:50.687500,21.65,47.18
13399,2018-06-29 08:51:50.718750,20.23,47.18
13400,2018-06-29 08:51:50.750000,18.66,47.18
13401,2018-06-29 08:51:50.781250,16.77,47.18
13402,2018-06-29 08:51:50.812500,14.38,47.18
13403,2018-06-29 08:51:50.843750,11.43,47.18
13404,2018-06-29 08:51:50.875000,8.47,47.18
13405,2018-06-29 08:51:50.906250,5.74,47.18
13406,2018-06-29 08:51:50.937500,2.56,47.18
13407,2018-06-29 08:51:50.968750,-1.11,47.18
13408,2018-06-29 08:51:51.000000,-3.94,47.18
13409,2018-06-29 08:51:51.031250,-5.19,47.18
13410,2018-06-29 08:51:51.062500,-5.88,47.18
13411,2018-06-29 08:51:51.093750,-6.93,47.18
13412,2018-06-29 08:51:51.125000,-8.03,47.18
13413,2018-06-29 08:51:51.156250,-8.79,47.18
13414,2018-06-29 08:51:51.187500,-9.76,47.18
13415,2018-06-29 08:51:51.218750,-11.88,47.18
13416,2018-06-29 08:51:51.250000,-15.76,47.18
13417,2018-06-29 08:51:51.281250,-21.09,47.18
13418,2018-06-29 08:51:51.312500,-26.62,47.18
13419,2018-06-29 08:51:51.343750,-31.86,47.18
13420,2018-06-29 08:51:51.375000,-38.24,47.18
13421,2018-06-29 08:51:51.406250,-46.38,47.18
13422,2018-06-29 08:51:51.437500,-52.47,47.18
13423,2018-06-29 08:51:51.468750,-50.28,47.18
13424,2018-06-29 08:51:51.500000,-38.24,47.18
13425,2018-06-29 08:51:51.531250,-21.91,47.22
13426,2018-06-29 08:51:51.562500,-8.13,47.22
13427,2018-06-29 08:51:51.593750,0.72,47.22
13428,2018-06-29 08:51:51.625000,5.9,47.22
13429,2018-06-29 08:51:51.656250,9.21,47.22
13430,2018-06-29 08:51:51.687500,11.6,47.22
13431,2018-06-29 08:51:51.718750,13.52,47.22
13432,2018-06-29 08:51:51.750000,15.58,47.22
13433,2018-06-29 08:51:51.781250,17.98,47.22
13434,2018-06-29 08:51:51.812500,20.07,47.22
13435,2018-06-29 08:51:51.843750,21.52,47.22
13436,2018-06-29 08:51:51.875000,22.66,47.22
13437,2018-06-29 08:51:51.906250,22.99,47.22
13438,2018-06-29 08:51:51.937500,22.03,47.22
13439,2018-06-29 08:51:51.968750,20.41,47.22
13440,2018-06-29 08:51:52.000000,18.77,47.22
13441,2018-06-29 08:51:52.031250,17.24,47.22
13442,2018-06-29 08:51:52.062500,15.94,47.22
13443,2018-06-29 08:51:52.093750,14.73,47.22
13444,2018-06-29 08:51:52.125000,13.15,47.22
13445,2018-06-29 08:51:52.156250,11.02,47.22
13446,2018-06-29 08:51:52.187500,8.67,47.22
13447,2018-06-29 08:51:52.218750,6.86,47.22
13448,2018-06-29 08:51:52.250000,5.83,47.22
13449,2018-06-29 08:51:52.281250,4.37,47.22
13450,2018-06-29 08:51:52.312500,1.67,47.22
13451,2018-06-29 08:51:52.343750,-1.14,47.22
13452,2018-06-29 08:51:52.375000,-3.49,47.22
13453,2018-06-29 08:51:52.406250,-6.4,47.22
13454,2018-06-29 08:51:52.437500,-9.94,47.22
13455,2018-06-29 08:51:52.468750,-13.32,47.22
13456,2018-06-29 08:51:52.500000,-17.17,47.22
13457,2018-06-29 08:51:52.531250,-22.17,47.25
13458,2018-06-29 08:51:52.562500,-27.01,47.25
13459,2018-06-29 08:51:52.593750,-30.44,47.25
13460,2018-06-29 08:51:52.625000,-33.77,47.25
13461,2018-06-29 08:51:52.656250,-39.66,47.25
13462,2018-06-29 08:51:52.687500,-48.52,47.25
13463,2018-06-29 08:51:52.718750,-55.8,47.25
13464,2018-06-29 08:51:52.750000,-54.72,47.25
13465,2018-06-29 08:51:52.781250,-43.25,47.25
13466,2018-06-29 08:51:52.812500,-27.06,47.25
13467,2018-06-29 08:51:52.843750,-13.42,47.25
13468,2018-06-29 08:51:52.875000,-4.54,47.25
13469,2018-06-29 08:51:52.906250,1.72,47.25
13470,2018-06-29 08:51:52.937500,7.44,47.25
13471,2018-06-29 08:51:52.968750,12.55,47.25
13472,2018-06-29 08:51:53.000000,15.84,47.25
13473,2018-06-29 08:51:53.031250,17.31,47.25
13474,2018-06-29 08:51:53.062500,18.6,47.25
13475,2018-06-29 08:51:53.093750,20.88,47.25
13476,2018-06-29 08:51:53.125000,23.66,47.25
13477,2018-06-29 08:51:53.156250,25.89,47.25
13478,2018-06-29 08:51:53.187500,26.49,47.25
13479,2018-06-29 08:51:53.218750,24.87,47.25
13480,2018-06-29 08:51:53.250000,22.27,47.25
13481,2018-06-29 08:51:53.281250,20.59,47.25
13482,2018-06-29 08:51:53.312500,19.71,47.25
13483,2018-06-29 08:51:53.343750,18.23,47.25
13484,2018-06-29 08:51:53.375000,15.86,47.25
13485,2018-06-29 08:51:53.406250,13.64,47.25
13486,2018-06-29 08:51:53.437500,12.61,47.25
13487,2018-06-29 08:51:53.468750,12.52,47.25
13488,2018-06-29 08:51:53.500000,12.0,47.25
13489,2018-06-29 08:51:53.531250,10.33,47.3
13490,2018-06-29 08:51:53.562500,8.31,47.3
13491,2018-06-29 08:51:53.593750,6.59,47.3
13492,2018-06-29 08:51:53.625000,4.77,47.3
13493,2018-06-29 08:51:53.656250,2.6,47.3
13494,2018-06-29 08:51:53.687500,0.49,47.3
13495,2018-06-29 08:51:53.718750,-1.32,47.3
13496,2018-06-29 08:51:53.750000,-3.3,47.3
13497,2018-06-29 08:51:53.781250,-6.04,47.3
13498,2018-06-29 08:51:53.812500,-9.43,47.3
13499,2018-06-29 08:51:53.843750,-12.69,47.3
13500,2018-06-29 08:51:53.875000,-15.57,47.3
13501,2018-06-29 08:51:53.906250,-18.85,47.3
13502,2018-06-29 08:51:53.937500,-23.12,47.3
13503,2018-06-29 08:51:53.968750,-27.83,47.3
13504,2018-06-29 08:51:54.000000,-32.46,47.3
13505,2018-06-29 08:51:54.031250,-38.25,47.3
13506,2018-06-29 08:51:54.062500,-46.73,47.3
13507,2018-06-29 08:51:54.093750,-55.68,47.3
13508,2018-06-29 08:51:54.125000,-58.46,47.3
13509,2018-06-29 08:51:54.156250,-50.49,47.3
13510,2018-06-29 08:51:54.187500,-34.94,47.3
13511,2018-06-29 08:51:54.218750,-19.28,47.3
13512,2018-06-29 08:51:54.250000,-7.9,47.3
13513,2018-06-29 08:51:54.281250,-0.18,47.3
13514,2018-06-29 08:51:54.312500,5.82,47.3
13515,2018-06-29 08:51:54.343750,10.47,47.3
13516,2018-06-29 08:51:54.375000,13.26,47.3
13517,2018-06-29 08:51:54.406250,15.01,47.3
13518,2018-06-29 08:51:54.437500,17.26,47.3
13519,2018-06-29 08:51:54.468750,19.97,47.3
13520,2018-06-29 08:51:54.500000,22.4,47.3
13521,2018-06-29 08:51:54.531250,24.67,47.35
13522,2018-06-29 08:51:54.562500,26.5,47.35
13523,2018-06-29 08:51:54.593750,26.54,47.35
13524,2018-06-29 08:51:54.625000,24.73,47.35
13525,2018-06-29 08:51:54.656250,22.54,47.35
13526,2018-06-29 08:51:54.687500,20.74,47.35
13527,2018-06-29 08:51:54.718750,19.21,47.35
13528,2018-06-29 08:51:54.750000,18.23,47.35
13529,2018-06-29 08:51:54.781250,17.96,47.35
13530,2018-06-29 08:51:54.812500,17.51,47.35
13531,2018-06-29 08:51:54.843750,15.95,47.35
13532,2018-06-29 08:51:54.875000,13.91,47.35
13533,2018-06-29 08:51:54.906250,12.47,47.35
13534,2018-06-29 08:51:54.937500,11.08,47.35
13535,2018-06-29 08:51:54.968750,8.95,47.35
13536,2018-06-29 08:51:55.000000,7.05,47.35
13537,2018-06-29 08:51:55.031250,5.8,47.35
13538,2018-06-29 08:51:55.062500,3.53,47.35
13539,2018-06-29 08:51:55.093750,-0.31,47.35
13540,2018-06-29 08:51:55.125000,-4.03,47.35
13541,2018-06-29 08:51:55.156250,-7.1,47.35
13542,2018-06-29 08:51:55.187500,-10.61,47.35
13543,2018-06-29 08:51:55.218750,-14.51,47.35
13544,2018-06-29 08:51:55.250000,-18.08,47.35
13545,2018-06-29 08:51:55.281250,-21.95,47.35
13546,2018-06-29 08:51:55.312500,-26.68,47.35
13547,2018-06-29 08:51:55.343750,-31.68,47.35
13548,2018-06-29 08:51:55.375000,-37.38,47.35
13549,2018-06-29 08:51:55.406250,-45.54,47.35
13550,2018-06-29 08:51:55.437500,-55.13,47.35
13551,2018-06-29 08:51:55.468750,-60.05,47.35
13552,2018-06-29 08:51:55.500000,-54.53,47.35
13553,2018-06-29 08:51:55.531250,-39.86,47.38
13554,2018-06-29 08:51:55.562500,-23.38,47.38
13555,2018-06-29 08:51:55.593750,-10.82,47.38
13556,2018-06-29 08:51:55.625000,-2.38,47.38
13557,2018-06-29 08:51:55.656250,3.92,47.38
13558,2018-06-29 08:51:55.687500,8.81,47.38
13559,2018-06-29 08:51:55.718750,12.58,47.38
13560,2018-06-29 08:51:55.750000,15.98,47.38
13561,2018-06-29 08:51:55.781250,19.18,47.38
13562,2018-06-29 08:51:55.812500,21.74,47.38
13563,2018-06-29 08:51:55.843750,23.92,47.38
13564,2018-06-29 08:51:55.875000,26.22,47.38
13565,2018-06-29 08:51:55.906250,28.19,47.38
13566,2018-06-29 08:51:55.937500,28.84,47.38
13567,2018-06-29 08:51:55.968750,27.62,47.38
13568,2018-06-29 08:51:56.000000,24.99,47.38
13569,2018-06-29 08:51:56.031250,22.38,47.38
13570,2018-06-29 08:51:56.062500,20.6,47.38
13571,2018-06-29 08:51:56.093750,19.11,47.38
13572,2018-06-29 08:51:56.125000,17.42,47.38
13573,2018-06-29 08:51:56.156250,15.82,47.38
13574,2018-06-29 08:51:56.187500,14.3,47.38
13575,2018-06-29 08:51:56.218750,12.44,47.38
13576,2018-06-29 08:51:56.250000,10.23,47.38
13577,2018-06-29 08:51:56.281250,8.25,47.38
13578,2018-06-29 08:51:56.312500,6.77,47.38
13579,2018-06-29 08:51:56.343750,4.89,47.38
13580,2018-06-29 08:51:56.375000,1.58,47.38
13581,2018-06-29 08:51:56.406250,-2.58,47.38
13582,2018-06-29 08:51:56.437500,-6.32,47.38
13583,2018-06-29 08:51:56.468750,-9.58,47.38
13584,2018-06-29 08:51:56.500000,-12.99,47.38
13585,2018-06-29 08:51:56.531250,-16.86,47.42
13586,2018-06-29 08:51:56.562500,-21.52,47.42
13587,2018-06-29 08:51:56.593750,-26.93,47.42
13588,2018-06-29 08:51:56.625000,-32.74,47.42
13589,2018-06-29 08:51:56.656250,-39.98,47.42
13590,2018-06-29 08:51:56.687500,-49.44,47.42
13591,2018-06-29 08:51:56.718750,-56.86,47.42
13592,2018-06-29 08:51:56.750000,-55.09,47.42
13593,2018-06-29 08:51:56.781250,-42.73,47.42
13594,2018-06-29 08:51:56.812500,-25.93,47.42
13595,2018-06-29 08:51:56.843750,-11.03,47.42
13596,2018-06-29 08:51:56.875000,0.13,47.42
13597,2018-06-29 08:51:56.906250,8.04,47.42
13598,2018-06-29 08:51:56.937500,12.81,47.42
13599,2018-06-29 08:51:56.968750,14.94,47.42
13600,2018-06-29 08:51:57.000000,16.24,47.42
13601,2018-06-29 08:51:57.031250,18.55,47.42
13602,2018-06-29 08:51:57.062500,21.98,47.42
13603,2018-06-29 08:51:57.093750,25.38,47.42
13604,2018-06-29 08:51:57.125000,28.11,47.42
13605,2018-06-29 08:51:57.156250,29.92,47.42
13606,2018-06-29 08:51:57.187500,30.17,47.42
13607,2018-06-29 08:51:57.218750,28.72,47.42
13608,2018-06-29 08:51:57.250000,26.68,47.42
13609,2018-06-29 08:51:57.281250,25.07,47.42
13610,2018-06-29 08:51:57.312500,23.56,47.42
13611,2018-06-29 08:51:57.343750,21.42,47.42
13612,2018-06-29 08:51:57.375000,19.04,47.42
13613,2018-06-29 08:51:57.406250,17.75,47.42
13614,2018-06-29 08:51:57.437500,17.83,47.42
13615,2018-06-29 08:51:57.468750,17.56,47.42
13616,2018-06-29 08:51:57.500000,15.33,47.42
13617,2018-06-29 08:51:57.531250,11.97,47.4
13618,2018-06-29 08:51:57.562500,9.3,47.4
13619,2018-06-29 08:51:57.593750,7.53,47.4
13620,2018-06-29 08:51:57.625000,5.45,47.4
13621,2018-06-29 08:51:57.656250,2.25,47.4
13622,2018-06-29 08:51:57.687500,-2.02,47.4
13623,2018-06-29 08:51:57.718750,-6.55,47.4
13624,2018-06-29 08:51:57.750000,-10.28,47.4
13625,2018-06-29 08:51:57.781250,-13.62,47.4
13626,2018-06-29 08:51:57.812500,-18.46,47.4
13627,2018-06-29 08:51:57.843750,-25.22,47.4
13628,2018-06-29 08:51:57.875000,-32.16,47.4
13629,2018-06-29 08:51:57.906250,-38.78,47.4
13630,2018-06-29 08:51:57.937500,-47.12,47.4
13631,2018-06-29 08:51:57.968750,-57.87,47.4
13632,2018-06-29 08:51:58.000000,-66.93,47.4
13633,2018-06-29 08:51:58.031250,-67.54,47.4
13634,2018-06-29 08:51:58.062500,-56.8,47.4
13635,2018-06-29 08:51:58.093750,-39.17,47.4
13636,2018-06-29 08:51:58.125000,-21.99,47.4
13637,2018-06-29 08:51:58.156250,-8.48,47.4
13638,2018-06-29 08:51:58.187500,2.33,47.4
13639,2018-06-29 08:51:58.218750,11.06,47.4
13640,2018-06-29 08:51:58.250000,17.01,47.4
13641,2018-06-29 08:51:58.281250,20.58,47.4
13642,2018-06-29 08:51:58.312500,23.47,47.4
13643,2018-06-29 08:51:58.343750,26.9,47.4
13644,2018-06-29 08:51:58.375000,30.71,47.4
13645,2018-06-29 08:51:58.406250,34.19,47.4
13646,2018-06-29 08:51:58.437500,36.93,47.4
13647,2018-06-29 08:51:58.468750,38.49,47.4
13648,2018-06-29 08:51:58.500000,38.01,47.4
13649,2018-06-29 08:51:58.531250,35.61,47.33
13650,2018-06-29 08:51:58.562500,33.02,47.33
13651,2018-06-29 08:51:58.593750,31.45,47.33
13652,2018-06-29 08:51:58.625000,30.15,47.33
13653,2018-06-29 08:51:58.656250,28.39,47.33
13654,2018-06-29 08:51:58.687500,26.64,47.33
13655,2018-06-29 08:51:58.718750,25.0,47.33
13656,2018-06-29 08:51:58.750000,22.93,47.33
13657,2018-06-29 08:51:58.781250,20.63,47.33
13658,2018-06-29 08:51:58.812500,18.77,47.33
13659,2018-06-29 08:51:58.843750,17.34,47.33
13660,2018-06-29 08:51:58.875000,15.74,47.33
13661,2018-06-29 08:51:58.906250,13.44,47.33
13662,2018-06-29 08:51:58.937500,10.33,47.33
13663,2018-06-29 08:51:58.968750,6.98,47.33
13664,2018-06-29 08:51:59.000000,4.07,47.33
13665,2018-06-29 08:51:59.031250,1.03,47.33
13666,2018-06-29 08:51:59.062500,-2.96,47.33
13667,2018-06-29 08:51:59.093750,-7.19,47.33
13668,2018-06-29 08:51:59.125000,-10.99,47.33
13669,2018-06-29 08:51:59.156250,-15.37,47.33
13670,2018-06-29 08:51:59.187500,-21.35,47.33
13671,2018-06-29 08:51:59.218750,-28.07,47.33
13672,2018-06-29 08:51:59.250000,-34.04,47.33
13673,2018-06-29 08:51:59.281250,-39.44,47.33
13674,2018-06-29 08:51:59.312500,-46.73,47.33
13675,2018-06-29 08:51:59.343750,-57.61,47.33
13676,2018-06-29 08:51:59.375000,-68.32,47.33
13677,2018-06-29 08:51:59.406250,-70.84,47.33
13678,2018-06-29 08:51:59.437500,-61.06,47.33
13679,2018-06-29 08:51:59.468750,-43.31,47.33
13680,2018-06-29 08:51:59.500000,-25.15,47.33
13681,2018-06-29 08:51:59.531250,-10.54,47.2
13682,2018-06-29 08:51:59.562500,0.69,47.2
13683,2018-06-29 08:51:59.593750,9.44,47.2
13684,2018-06-29 08:51:59.625000,15.62,47.2
13685,2018-06-29 08:51:59.656250,19.32,47.2
13686,2018-06-29 08:51:59.687500,22.14,47.2
13687,2018-06-29 08:51:59.718750,26.0,47.2
13688,2018-06-29 08:51:59.750000,30.99,47.2
13689,2018-06-29 08:51:59.781250,35.5,47.2
13690,2018-06-29 08:51:59.812500,38.48,47.2
13691,2018-06-29 08:51:59.843750,39.96,47.2
13692,2018-06-29 08:51:59.875000,39.68,47.2
13693,2018-06-29 08:51:59.906250,37.66,47.2
13694,2018-06-29 08:51:59.937500,35.15,47.2
13695,2018-06-29 08:51:59.968750,32.91,47.2
13696,2018-06-29 08:52:00.000000,30.43,47.2
13697,2018-06-29 08:52:00.031250,28.05,47.2
13698,2018-06-29 08:52:00.062500,26.55,47.2
13699,2018-06-29 08:52:00.093750,25.04,47.2
13700,2018-06-29 08:52:00.125000,22.35,47.2
13701,2018-06-29 08:52:00.156250,19.27,47.2
13702,2018-06-29 08:52:00.187500,16.95,47.2
13703,2018-06-29 08:52:00.218750,14.99,47.2
13704,2018-06-29 08:52:00.250000,12.54,47.2
13705,2018-06-29 08:52:00.281250,9.7,47.2
13706,2018-06-29 08:52:00.312500,7.06,47.2
13707,2018-06-29 08:52:00.343750,4.65,47.2
13708,2018-06-29 08:52:00.375000,1.73,47.2
13709,2018-06-29 08:52:00.406250,-2.14,47.2
13710,2018-06-29 08:52:00.437500,-6.41,47.2
13711,2018-06-29 08:52:00.468750,-10.45,47.2
13712,2018-06-29 08:52:00.500000,-14.53,47.2
13713,2018-06-29 08:52:00.531250,-19.23,47.03
13714,2018-06-29 08:52:00.562500,-24.35,47.03
13715,2018-06-29 08:52:00.593750,-29.2,47.03
13716,2018-06-29 08:52:00.625000,-33.95,47.03
13717,2018-06-29 08:52:00.656250,-40.27,47.03
13718,2018-06-29 08:52:00.687500,-49.8,47.03
13719,2018-06-29 08:52:00.718750,-60.42,47.03
13720,2018-06-29 08:52:00.750000,-65.03,47.03
13721,2018-06-29 08:52:00.781250,-57.68,47.03
13722,2018-06-29 08:52:00.812500,-40.81,47.03
13723,2018-06-29 08:52:00.843750,-22.85,47.03
13724,2018-06-29 08:52:00.875000,-9.2,47.03
13725,2018-06-29 08:52:00.906250,0.72,47.03
13726,2018-06-29 08:52:00.937500,8.49,47.03
13727,2018-06-29 08:52:00.968750,13.63,47.03
13728,2018-06-29 08:52:01.000000,15.99,47.03
13729,2018-06-29 08:52:01.031250,17.69,47.03
13730,2018-06-29 08:52:01.062500,20.57,47.03
13731,2018-06-29 08:52:01.093750,24.09,47.03
13732,2018-06-29 08:52:01.125000,27.14,47.03
13733,2018-06-29 08:52:01.156250,29.57,47.03
13734,2018-06-29 08:52:01.187500,30.9,47.03
13735,2018-06-29 08:52:01.218750,30.23,47.03
13736,2018-06-29 08:52:01.250000,28.04,47.03
13737,2018-06-29 08:52:01.281250,25.72,47.03
13738,2018-06-29 08:52:01.312500,23.78,47.03
13739,2018-06-29 08:52:01.343750,21.49,47.03
13740,2018-06-29 08:52:01.375000,18.27,47.03
13741,2018-06-29 08:52:01.406250,15.18,47.03
13742,2018-06-29 08:52:01.437500,13.56,47.03
13743,2018-06-29 08:52:01.468750,12.62,47.03
13744,2018-06-29 08:52:01.500000,10.48,47.03
13745,2018-06-29 08:52:01.531250,6.87,46.85
13746,2018-06-29 08:52:01.562500,2.68,46.85
13747,2018-06-29 08:52:01.593750,-1.56,46.85
13748,2018-06-29 08:52:01.625000,-5.22,46.85
13749,2018-06-29 08:52:01.656250,-8.29,46.85
13750,2018-06-29 08:52:01.687500,-12.41,46.85
13751,2018-06-29 08:52:01.718750,-18.23,46.85
13752,2018-06-29 08:52:01.750000,-23.5,46.85
13753,2018-06-29 08:52:01.781250,-26.18,46.85
13754,2018-06-29 08:52:01.812500,-27.38,46.85
13755,2018-06-29 08:52:01.843750,-29.18,46.85
13756,2018-06-29 08:52:01.875000,-31.71,46.85
13757,2018-06-29 08:52:01.906250,-34.05,46.85
13758,2018-06-29 08:52:01.937500,-36.91,46.85
13759,2018-06-29 08:52:01.968750,-42.6,46.85
13760,2018-06-29 08:52:02.000000,-52.11,46.85
13761,2018-06-29 08:52:02.031250,-62.15,46.85
13762,2018-06-29 08:52:02.062500,-65.76,46.85
13763,2018-06-29 08:52:02.093750,-58.06,46.85
13764,2018-06-29 08:52:02.125000,-41.37,46.85
13765,2018-06-29 08:52:02.156250,-22.88,46.85
13766,2018-06-29 08:52:02.187500,-7.78,46.85
13767,2018-06-29 08:52:02.218750,3.56,46.85
13768,2018-06-29 08:52:02.250000,12.84,46.85
13769,2018-06-29 08:52:02.281250,20.65,46.85
13770,2018-06-29 08:52:02.312500,26.41,46.85
13771,2018-06-29 08:52:02.343750,30.14,46.85
13772,2018-06-29 08:52:02.375000,32.96,46.85
13773,2018-06-29 08:52:02.406250,35.65,46.85
13774,2018-06-29 08:52:02.437500,38.27,46.85
13775,2018-06-29 08:52:02.468750,41.05,46.85
13776,2018-06-29 08:52:02.500000,43.67,46.85
13777,2018-06-29 08:52:02.531250,44.35,46.67
13778,2018-06-29 08:52:02.562500,41.96,46.67
13779,2018-06-29 08:52:02.593750,38.27,46.67
13780,2018-06-29 08:52:02.625000,35.85,46.67
13781,2018-06-29 08:52:02.656250,34.41,46.67
13782,2018-06-29 08:52:02.687500,32.06,46.67
13783,2018-06-29 08:52:02.718750,28.61,46.67
13784,2018-06-29 08:52:02.750000,25.54,46.67
13785,2018-06-29 08:52:02.781250,23.4,46.67
13786,2018-06-29 08:52:02.812500,21.55,46.67
13787,2018-06-29 08:52:02.843750,19.6,46.67
13788,2018-06-29 08:52:02.875000,17.5,46.67
13789,2018-06-29 08:52:02.906250,15.1,46.67
13790,2018-06-29 08:52:02.937500,12.53,46.67
13791,2018-06-29 08:52:02.968750,10.12,46.67
13792,2018-06-29 08:52:03.000000,7.66,46.67
13793,2018-06-29 08:52:03.031250,4.57,46.67
13794,2018-06-29 08:52:03.062500,0.72,46.67
13795,2018-06-29 08:52:03.093750,-3.28,46.67
13796,2018-06-29 08:52:03.125000,-6.95,46.67
13797,2018-06-29 08:52:03.156250,-11.12,46.67
13798,2018-06-29 08:52:03.187500,-17.01,46.67
13799,2018-06-29 08:52:03.218750,-24.03,46.67
13800,2018-06-29 08:52:03.250000,-30.48,46.67
13801,2018-06-29 08:52:03.281250,-36.24,46.67
13802,2018-06-29 08:52:03.312500,-43.18,46.67
13803,2018-06-29 08:52:03.343750,-53.07,46.67
13804,2018-06-29 08:52:03.375000,-65.14,46.67
13805,2018-06-29 08:52:03.406250,-73.93,46.67
13806,2018-06-29 08:52:03.437500,-72.24,46.67
13807,2018-06-29 08:52:03.468750,-58.64,46.67
13808,2018-06-29 08:52:03.500000,-39.6,46.67
13809,2018-06-29 08:52:03.531250,-22.49,46.45
13810,2018-06-29 08:52:03.562500,-9.81,46.45
13811,2018-06-29 08:52:03.593750,-0.21,46.45
13812,2018-06-29 08:52:03.625000,8.09,46.45
13813,2018-06-29 08:52:03.656250,15.49,46.45
13814,2018-06-29 08:52:03.687500,21.35,46.45
13815,2018-06-29 08:52:03.718750,25.87,46.45
13816,2018-06-29 08:52:03.750000,30.63,46.45
13817,2018-06-29 08:52:03.781250,36.31,46.45
13818,2018-06-29 08:52:03.812500,41.33,46.45
13819,2018-06-29 08:52:03.843750,44.07,46.45
13820,2018-06-29 08:52:03.875000,44.94,46.45
13821,2018-06-29 08:52:03.906250,44.84,46.45
13822,2018-06-29 08:52:03.937500,43.03,46.45
13823,2018-06-29 08:52:03.968750,38.78,46.45
13824,2018-06-29 08:52:04.000000,33.28,46.45
13825,2018-06-29 08:52:04.031250,28.52,46.45
13826,2018-06-29 08:52:04.062500,26.0,46.45
13827,2018-06-29 08:52:04.093750,26.11,46.45
13828,2018-06-29 08:52:04.125000,26.76,46.45
13829,2018-06-29 08:52:04.156250,24.3,46.45
13830,2018-06-29 08:52:04.187500,17.89,46.45
13831,2018-06-29 08:52:04.218750,10.7,46.45
13832,2018-06-29 08:52:04.250000,6.16,46.45
13833,2018-06-29 08:52:04.281250,5.27,46.45
13834,2018-06-29 08:52:04.312500,6.73,46.45
13835,2018-06-29 08:52:04.343750,8.14,46.45
13836,2018-06-29 08:52:04.375000,7.88,46.45
13837,2018-06-29 08:52:04.406250,5.42,46.45
13838,2018-06-29 08:52:04.437500,0.57,46.45
13839,2018-06-29 08:52:04.468750,-5.71,46.45
13840,2018-06-29 08:52:04.500000,-11.37,46.45
13841,2018-06-29 08:52:04.531250,-15.87,46.27
13842,2018-06-29 08:52:04.562500,-20.73,46.27
13843,2018-06-29 08:52:04.593750,-26.82,46.27
13844,2018-06-29 08:52:04.625000,-33.71,46.27
13845,2018-06-29 08:52:04.656250,-41.8,46.27
13846,2018-06-29 08:52:04.687500,-51.44,46.27
13847,2018-06-29 08:52:04.718750,-59.06,46.27
13848,2018-06-29 08:52:04.750000,-58.15,46.27
13849,2018-06-29 08:52:04.781250,-46.64,46.27
13850,2018-06-29 08:52:04.812500,-30.18,46.27
13851,2018-06-29 08:52:04.843750,-15.63,46.27
13852,2018-06-29 08:52:04.875000,-4.69,46.27
13853,2018-06-29 08:52:04.906250,3.71,46.27
13854,2018-06-29 08:52:04.937500,9.39,46.27
13855,2018-06-29 08:52:04.968750,12.1,46.27
13856,2018-06-29 08:52:05.000000,13.61,46.27
13857,2018-06-29 08:52:05.031250,16.14,46.27
13858,2018-06-29 08:52:05.062500,19.81,46.27
13859,2018-06-29 08:52:05.093750,23.53,46.27
13860,2018-06-29 08:52:05.125000,26.8,46.27
13861,2018-06-29 08:52:05.156250,29.12,46.27
13862,2018-06-29 08:52:05.187500,29.38,46.27
13863,2018-06-29 08:52:05.218750,27.32,46.27
13864,2018-06-29 08:52:05.250000,24.56,46.27
13865,2018-06-29 08:52:05.281250,22.85,46.27
13866,2018-06-29 08:52:05.312500,21.97,46.27
13867,2018-06-29 08:52:05.343750,20.42,46.27
13868,2018-06-29 08:52:05.375000,18.06,46.27
13869,2018-06-29 08:52:05.406250,16.36,46.27
13870,2018-06-29 08:52:05.437500,15.88,46.27
13871,2018-06-29 08:52:05.468750,15.37,46.27
13872,2018-06-29 08:52:05.500000,13.75,46.27
13873,2018-06-29 08:52:05.531250,11.26,46.08
13874,2018-06-29 08:52:05.562500,8.5,46.08
13875,2018-06-29 08:52:05.593750,5.85,46.08
13876,2018-06-29 08:52:05.625000,3.23,46.08
13877,2018-06-29 08:52:05.656250,0.02,46.08
13878,2018-06-29 08:52:05.687500,-3.98,46.08
13879,2018-06-29 08:52:05.718750,-7.96,46.08
13880,2018-06-29 08:52:05.750000,-11.37,46.08
13881,2018-06-29 08:52:05.781250,-15.03,46.08
13882,2018-06-29 08:52:05.812500,-19.78,46.08
13883,2018-06-29 08:52:05.843750,-25.53,46.08
13884,2018-06-29 08:52:05.875000,-31.82,46.08
13885,2018-06-29 08:52:05.906250,-38.25,46.08
13886,2018-06-29 08:52:05.937500,-45.19,46.08
13887,2018-06-29 08:52:05.968750,-54.29,46.08
13888,2018-06-29 08:52:06.000000,-65.78,46.08
13889,2018-06-29 08:52:06.031250,-74.84,46.08
13890,2018-06-29 08:52:06.062500,-73.84,46.08
13891,2018-06-29 08:52:06.093750,-60.44,46.08
13892,2018-06-29 08:52:06.125000,-41.11,46.08
13893,2018-06-29 08:52:06.156250,-24.15,46.08
13894,2018-06-29 08:52:06.187500,-11.63,46.08
13895,2018-06-29 08:52:06.218750,-0.98,46.08
13896,2018-06-29 08:52:06.250000,8.81,46.08
13897,2018-06-29 08:52:06.281250,16.23,46.08
13898,2018-06-29 08:52:06.312500,20.96,46.08
13899,2018-06-29 08:52:06.343750,24.81,46.08
13900,2018-06-29 08:52:06.375000,28.78,46.08
13901,2018-06-29 08:52:06.406250,32.13,46.08
13902,2018-06-29 08:52:06.437500,34.74,46.08
13903,2018-06-29 08:52:06.468750,37.42,46.08
13904,2018-06-29 08:52:06.500000,39.41,46.08
13905,2018-06-29 08:52:06.531250,38.8,45.9
13906,2018-06-29 08:52:06.562500,36.06,45.9
13907,2018-06-29 08:52:06.593750,33.71,45.9
13908,2018-06-29 08:52:06.625000,32.33,45.9
13909,2018-06-29 08:52:06.656250,30.32,45.9
13910,2018-06-29 08:52:06.687500,27.41,45.9
13911,2018-06-29 08:52:06.718750,25.18,45.9
13912,2018-06-29 08:52:06.750000,24.25,45.9
13913,2018-06-29 08:52:06.781250,23.47,45.9
13914,2018-06-29 08:52:06.812500,21.55,45.9
13915,2018-06-29 08:52:06.843750,18.57,45.9
13916,2018-06-29 08:52:06.875000,15.66,45.9
13917,2018-06-29 08:52:06.906250,13.46,45.9
13918,2018-06-29 08:52:06.937500,11.23,45.9
13919,2018-06-29 08:52:06.968750,8.09,45.9
13920,2018-06-29 08:52:07.000000,4.41,45.9
13921,2018-06-29 08:52:07.031250,1.28,45.9
13922,2018-06-29 08:52:07.062500,-1.01,45.9
13923,2018-06-29 08:52:07.093750,-3.45,45.9
13924,2018-06-29 08:52:07.125000,-7.01,45.9
13925,2018-06-29 08:52:07.156250,-11.28,45.9
13926,2018-06-29 08:52:07.187500,-15.46,45.9
13927,2018-06-29 08:52:07.218750,-19.97,45.9
13928,2018-06-29 08:52:07.250000,-25.41,45.9
13929,2018-06-29 08:52:07.281250,-31.05,45.9
13930,2018-06-29 08:52:07.312500,-36.14,45.9
13931,2018-06-29 08:52:07.343750,-41.87,45.9
13932,2018-06-29 08:52:07.375000,-50.16,45.9
13933,2018-06-29 08:52:07.406250,-61.07,45.9
13934,2018-06-29 08:52:07.437500,-71.0,45.9
13935,2018-06-29 08:52:07.468750,-73.66,45.9
13936,2018-06-29 08:52:07.500000,-65.01,45.9
13937,2018-06-29 08:52:07.531250,-47.74,45.7
13938,2018-06-29 08:52:07.562500,-29.06,45.7
13939,2018-06-29 08:52:07.593750,-14.08,45.7
13940,2018-06-29 08:52:07.625000,-3.09,45.7
13941,2018-06-29 08:52:07.656250,5.8,45.7
13942,2018-06-29 08:52:07.687500,13.37,45.7
13943,2018-06-29 08:52:07.718750,19.03,45.7
13944,2018-06-29 08:52:07.750000,23.08,45.7
13945,2018-06-29 08:52:07.781250,26.67,45.7
13946,2018-06-29 08:52:07.812500,29.78,45.7
13947,2018-06-29 08:52:07.843750,31.89,45.7
13948,2018-06-29 08:52:07.875000,33.98,45.7
13949,2018-06-29 08:52:07.906250,36.44,45.7
13950,2018-06-29 08:52:07.937500,37.17,45.7
13951,2018-06-29 08:52:07.968750,34.89,45.7
13952,2018-06-29 08:52:08.000000,31.69,45.7
13953,2018-06-29 08:52:08.031250,29.56,45.7
13954,2018-06-29 08:52:08.062500,27.83,45.7
13955,2018-06-29 08:52:08.093750,25.6,45.7
13956,2018-06-29 08:52:08.125000,23.56,45.7
13957,2018-06-29 08:52:08.156250,22.25,45.7
13958,2018-06-29 08:52:08.187500,21.0,45.7
13959,2018-06-29 08:52:08.218750,19.43,45.7
13960,2018-06-29 08:52:08.250000,17.67,45.7
13961,2018-06-29 08:52:08.281250,15.32,45.7
13962,2018-06-29 08:52:08.312500,12.16,45.7
13963,2018-06-29 08:52:08.343750,9.25,45.7
13964,2018-06-29 08:52:08.375000,7.32,45.7
13965,2018-06-29 08:52:08.406250,5.19,45.7
13966,2018-06-29 08:52:08.437500,1.51,45.7
13967,2018-06-29 08:52:08.468750,-3.18,45.7
13968,2018-06-29 08:52:08.500000,-7.4,45.7
13969,2018-06-29 08:52:08.531250,-10.97,45.6
13970,2018-06-29 08:52:08.562500,-15.07,45.6
13971,2018-06-29 08:52:08.593750,-20.3,45.6
13972,2018-06-29 08:52:08.625000,-25.79,45.6
13973,2018-06-29 08:52:08.656250,-30.57,45.6
13974,2018-06-29 08:52:08.687500,-35.59,45.6
13975,2018-06-29 08:52:08.718750,-43.2,45.6
13976,2018-06-29 08:52:08.750000,-53.04,45.6
13977,2018-06-29 08:52:08.781250,-59.76,45.6
13978,2018-06-29 08:52:08.812500,-57.5,45.6
13979,2018-06-29 08:52:08.843750,-45.89,45.6
13980,2018-06-29 08:52:08.875000,-29.72,45.6
13981,2018-06-29 08:52:08.906250,-14.45,45.6
13982,2018-06-29 08:52:08.937500,-3.02,45.6
13983,2018-06-29 08:52:08.968750,4.43,45.6
13984,2018-06-29 08:52:09.000000,8.68,45.6
13985,2018-06-29 08:52:09.031250,10.23,45.6
13986,2018-06-29 08:52:09.062500,10.33,45.6
13987,2018-06-29 08:52:09.093750,11.52,45.6
13988,2018-06-29 08:52:09.125000,15.25,45.6
13989,2018-06-29 08:52:09.156250,20.29,45.6
13990,2018-06-29 08:52:09.187500,24.53,45.6
13991,2018-06-29 08:52:09.218750,27.14,45.6
13992,2018-06-29 08:52:09.250000,28.03,45.6
13993,2018-06-29 08:52:09.281250,26.56,45.6
13994,2018-06-29 08:52:09.312500,23.03,45.6
13995,2018-06-29 08:52:09.343750,19.86,45.6
13996,2018-06-29 08:52:09.375000,18.54,45.6
13997,2018-06-29 08:52:09.406250,17.49,45.6
13998,2018-06-29 08:52:09.437500,15.41,45.6
13999,2018-06-29 08:52:09.468750,13.24,45.6
14000,2018-06-29 08:52:09.500000,11.41,45.6
14001,2018-06-29 08:52:09.531250,8.65,45.55
14002,2018-06-29 08:52:09.562500,4.41,45.55
14003,2018-06-29 08:52:09.593750,-0.09,45.55
14004,2018-06-29 08:52:09.625000,-3.98,45.55
14005,2018-06-29 08:52:09.656250,-8.03,45.55
14006,2018-06-29 08:52:09.687500,-13.37,45.55
14007,2018-06-29 08:52:09.718750,-19.58,45.55
14008,2018-06-29 08:52:09.750000,-25.47,45.55
14009,2018-06-29 08:52:09.781250,-31.25,45.55
14010,2018-06-29 08:52:09.812500,-38.74,45.55
14011,2018-06-29 08:52:09.843750,-49.47,45.55
14012,2018-06-29 08:52:09.875000,-61.53,45.55
14013,2018-06-29 08:52:09.906250,-68.06,45.55
14014,2018-06-29 08:52:09.937500,-62.75,45.55
14015,2018-06-29 08:52:09.968750,-47.42,45.55
14016,2018-06-29 08:52:10.000000,-29.73,45.55
14017,2018-06-29 08:52:10.031250,-14.82,45.55
14018,2018-06-29 08:52:10.062500,-3.08,45.55
14019,2018-06-29 08:52:10.093750,6.32,45.55
14020,2018-06-29 08:52:10.125000,13.61,45.55
14021,2018-06-29 08:52:10.156250,18.9,45.55
14022,2018-06-29 08:52:10.187500,22.83,45.55
14023,2018-06-29 08:52:10.218750,26.36,45.55
14024,2018-06-29 08:52:10.250000,29.79,45.55
14025,2018-06-29 08:52:10.281250,32.77,45.55
14026,2018-06-29 08:52:10.312500,35.23,45.55
14027,2018-06-29 08:52:10.343750,37.12,45.55
14028,2018-06-29 08:52:10.375000,37.92,45.55
14029,2018-06-29 08:52:10.406250,37.1,45.55
14030,2018-06-29 08:52:10.437500,34.92,45.55
14031,2018-06-29 08:52:10.468750,32.39,45.55
14032,2018-06-29 08:52:10.500000,30.48,45.55
14033,2018-06-29 08:52:10.531250,29.16,45.53
14034,2018-06-29 08:52:10.562500,27.56,45.53
14035,2018-06-29 08:52:10.593750,25.09,45.53
14036,2018-06-29 08:52:10.625000,21.88,45.53
14037,2018-06-29 08:52:10.656250,18.51,45.53
14038,2018-06-29 08:52:10.687500,15.5,45.53
14039,2018-06-29 08:52:10.718750,12.74,45.53
14040,2018-06-29 08:52:10.750000,9.52,45.53
14041,2018-06-29 08:52:10.781250,5.4,45.53
14042,2018-06-29 08:52:10.812500,0.52,45.53
14043,2018-06-29 08:52:10.843750,-4.65,45.53
14044,2018-06-29 08:52:10.875000,-9.53,45.53
14045,2018-06-29 08:52:10.906250,-13.99,45.53
14046,2018-06-29 08:52:10.937500,-19.12,45.53
14047,2018-06-29 08:52:10.968750,-25.71,45.53
14048,2018-06-29 08:52:11.000000,-32.78,45.53
14049,2018-06-29 08:52:11.031250,-39.27,45.53
14050,2018-06-29 08:52:11.062500,-46.19,45.53
14051,2018-06-29 08:52:11.093750,-55.64,45.53
14052,2018-06-29 08:52:11.125000,-67.68,45.53
14053,2018-06-29 08:52:11.156250,-77.17,45.53
14054,2018-06-29 08:52:11.187500,-76.24,45.53
14055,2018-06-29 08:52:11.218750,-62.49,45.53
14056,2018-06-29 08:52:11.250000,-42.62,45.53
14057,2018-06-29 08:52:11.281250,-24.91,45.53
14058,2018-06-29 08:52:11.312500,-11.61,45.53
14059,2018-06-29 08:52:11.343750,-0.42,45.53
14060,2018-06-29 08:52:11.375000,10.28,45.53
14061,2018-06-29 08:52:11.406250,19.68,45.53
14062,2018-06-29 08:52:11.437500,26.19,45.53
14063,2018-06-29 08:52:11.468750,29.87,45.53
14064,2018-06-29 08:52:11.500000,32.89,45.53
14065,2018-06-29 08:52:11.531250,37.09,45.53
14066,2018-06-29 08:52:11.562500,42.1,45.53
14067,2018-06-29 08:52:11.593750,45.99,45.53
14068,2018-06-29 08:52:11.625000,47.22,45.53
14069,2018-06-29 08:52:11.656250,45.51,45.53
14070,2018-06-29 08:52:11.687500,41.86,45.53
14071,2018-06-29 08:52:11.718750,38.33,45.53
14072,2018-06-29 08:52:11.750000,36.56,45.53
14073,2018-06-29 08:52:11.781250,35.57,45.53
14074,2018-06-29 08:52:11.812500,32.97,45.53
14075,2018-06-29 08:52:11.843750,29.05,45.53
14076,2018-06-29 08:52:11.875000,26.47,45.53
14077,2018-06-29 08:52:11.906250,25.56,45.53
14078,2018-06-29 08:52:11.937500,24.04,45.53
14079,2018-06-29 08:52:11.968750,21.37,45.53
14080,2018-06-29 08:52:12.000000,18.87,45.53
14081,2018-06-29 08:52:12.031250,16.53,45.53
14082,2018-06-29 08:52:12.062500,13.42,45.53
14083,2018-06-29 08:52:12.093750,9.81,45.53
14084,2018-06-29 08:52:12.125000,6.57,45.53
14085,2018-06-29 08:52:12.156250,3.86,45.53
14086,2018-06-29 08:52:12.187500,1.34,45.53
14087,2018-06-29 08:52:12.218750,-1.44,45.53
14088,2018-06-29 08:52:12.250000,-5.07,45.53
14089,2018-06-29 08:52:12.281250,-9.61,45.53
14090,2018-06-29 08:52:12.312500,-14.51,45.53
14091,2018-06-29 08:52:12.343750,-19.44,45.53
14092,2018-06-29 08:52:12.375000,-24.57,45.53
14093,2018-06-29 08:52:12.406250,-30.12,45.53
14094,2018-06-29 08:52:12.437500,-36.41,45.53
14095,2018-06-29 08:52:12.468750,-44.02,45.53
14096,2018-06-29 08:52:12.500000,-53.5,45.53
14097,2018-06-29 08:52:12.531250,-64.64,45.57
14098,2018-06-29 08:52:12.562500,-74.06,45.57
14099,2018-06-29 08:52:12.593750,-74.8,45.57
14100,2018-06-29 08:52:12.625000,-62.89,45.57
14101,2018-06-29 08:52:12.656250,-43.41,45.57
14102,2018-06-29 08:52:12.687500,-25.08,45.57
14103,2018-06-29 08:52:12.718750,-11.03,45.57
14104,2018-06-29 08:52:12.750000,0.76,45.57
14105,2018-06-29 08:52:12.781250,11.24,45.57
14106,2018-06-29 08:52:12.812500,19.14,45.57
14107,2018-06-29 08:52:12.843750,24.15,45.57
14108,2018-06-29 08:52:12.875000,27.61,45.57
14109,2018-06-29 08:52:12.906250,30.66,45.57
14110,2018-06-29 08:52:12.937500,33.46,45.57
14111,2018-06-29 08:52:12.968750,36.19,45.57
14112,2018-06-29 08:52:13.000000,38.69,45.57
14113,2018-06-29 08:52:13.031250,39.69,45.57
14114,2018-06-29 08:52:13.062500,37.99,45.57
14115,2018-06-29 08:52:13.093750,34.4,45.57
14116,2018-06-29 08:52:13.125000,31.11,45.57
14117,2018-06-29 08:52:13.156250,29.35,45.57
14118,2018-06-29 08:52:13.187500,28.22,45.57
14119,2018-06-29 08:52:13.218750,26.03,45.57
14120,2018-06-29 08:52:13.250000,22.63,45.57
14121,2018-06-29 08:52:13.281250,19.35,45.57
14122,2018-06-29 08:52:13.312500,16.89,45.57
14123,2018-06-29 08:52:13.343750,14.54,45.57
14124,2018-06-29 08:52:13.375000,11.36,45.57
14125,2018-06-29 08:52:13.406250,7.08,45.57
14126,2018-06-29 08:52:13.437500,2.05,45.57
14127,2018-06-29 08:52:13.468750,-3.24,45.57
14128,2018-06-29 08:52:13.500000,-8.23,45.57
14129,2018-06-29 08:52:13.531250,-12.63,45.6
14130,2018-06-29 08:52:13.562500,-17.02,45.6
14131,2018-06-29 08:52:13.593750,-22.38,45.6
14132,2018-06-29 08:52:13.625000,-28.53,45.6
14133,2018-06-29 08:52:13.656250,-34.52,45.6
14134,2018-06-29 08:52:13.687500,-41.19,45.6
14135,2018-06-29 08:52:13.718750,-50.22,45.6
14136,2018-06-29 08:52:13.750000,-59.0,45.6
14137,2018-06-29 08:52:13.781250,-60.3,45.6
14138,2018-06-29 08:52:13.812500,-50.11,45.6
14139,2018-06-29 08:52:13.843750,-32.74,45.6
14140,2018-06-29 08:52:13.875000,-15.57,45.6
14141,2018-06-29 08:52:13.906250,-2.14,45.6
14142,2018-06-29 08:52:13.937500,7.81,45.6
14143,2018-06-29 08:52:13.968750,15.03,45.6
14144,2018-06-29 08:52:14.000000,19.54,45.6
14145,2018-06-29 08:52:14.031250,21.56,45.6
14146,2018-06-29 08:52:14.062500,22.56,45.6
14147,2018-06-29 08:52:14.093750,24.47,45.6
14148,2018-06-29 08:52:14.125000,27.77,45.6
14149,2018-06-29 08:52:14.156250,31.26,45.6
14150,2018-06-29 08:52:14.187500,33.66,45.6
14151,2018-06-29 08:52:14.218750,34.41,45.6
14152,2018-06-29 08:52:14.250000,33.46,45.6
14153,2018-06-29 08:52:14.281250,31.04,45.6
14154,2018-06-29 08:52:14.312500,27.85,45.6
14155,2018-06-29 08:52:14.343750,25.06,45.6
14156,2018-06-29 08:52:14.375000,23.13,45.6
14157,2018-06-29 08:52:14.406250,21.21,45.6
14158,2018-06-29 08:52:14.437500,18.7,45.6
14159,2018-06-29 08:52:14.468750,16.5,45.6
14160,2018-06-29 08:52:14.500000,14.93,45.6
14161,2018-06-29 08:52:14.531250,12.72,45.63
14162,2018-06-29 08:52:14.562500,9.34,45.63
14163,2018-06-29 08:52:14.593750,5.87,45.63
14164,2018-06-29 08:52:14.625000,3.02,45.63
14165,2018-06-29 08:52:14.656250,0.22,45.63
14166,2018-06-29 08:52:14.687500,-3.29,45.63
14167,2018-06-29 08:52:14.718750,-7.6,45.63
14168,2018-06-29 08:52:14.750000,-12.1,45.63
14169,2018-06-29 08:52:14.781250,-15.92,45.63
14170,2018-06-29 08:52:14.812500,-19.36,45.63
14171,2018-06-29 08:52:14.843750,-23.91,45.63
14172,2018-06-29 08:52:14.875000,-30.05,45.63
14173,2018-06-29 08:52:14.906250,-36.43,45.63
14174,2018-06-29 08:52:14.937500,-42.29,45.63
14175,2018-06-29 08:52:14.968750,-49.32,45.63
14176,2018-06-29 08:52:15.000000,-59.47,45.63
14177,2018-06-29 08:52:15.031250,-70.55,45.63
14178,2018-06-29 08:52:15.062500,-75.58,45.63
14179,2018-06-29 08:52:15.093750,-69.55,45.63
14180,2018-06-29 08:52:15.125000,-54.83,45.63
14181,2018-06-29 08:52:15.156250,-37.83,45.63
14182,2018-06-29 08:52:15.187500,-23.22,45.63
14183,2018-06-29 08:52:15.218750,-12.86,45.63
14184,2018-06-29 08:52:15.250000,-6.12,45.63
14185,2018-06-29 08:52:15.281250,-0.89,45.63
14186,2018-06-29 08:52:15.312500,3.65,45.63
14187,2018-06-29 08:52:15.343750,6.27,45.63
14188,2018-06-29 08:52:15.375000,6.03,45.63
14189,2018-06-29 08:52:15.406250,4.0,45.63
14190,2018-06-29 08:52:15.437500,4.7,45.63
14191,2018-06-29 08:52:15.468750,13.9,45.63
14192,2018-06-29 08:52:15.500000,30.11,45.63
14193,2018-06-29 08:52:15.531250,42.05,45.67
14194,2018-06-29 08:52:15.562500,41.33,45.67
14195,2018-06-29 08:52:15.593750,32.79,45.67
14196,2018-06-29 08:52:15.625000,26.73,45.67
14197,2018-06-29 08:52:15.656250,27.04,45.67
14198,2018-06-29 08:52:15.687500,31.66,45.67
14199,2018-06-29 08:52:15.718750,37.99,45.67
14200,2018-06-29 08:52:15.750000,43.34,45.67
14201,2018-06-29 08:52:15.781250,44.63,45.67
14202,2018-06-29 08:52:15.812500,41.29,45.67
14203,2018-06-29 08:52:15.843750,36.09,45.67
14204,2018-06-29 08:52:15.875000,31.62,45.67
14205,2018-06-29 08:52:15.906250,27.75,45.67
14206,2018-06-29 08:52:15.937500,23.32,45.67
14207,2018-06-29 08:52:15.968750,18.17,45.67
14208,2018-06-29 08:52:16.000000,12.7,45.67
14209,2018-06-29 08:52:16.031250,7.24,45.67
14210,2018-06-29 08:52:16.062500,1.93,45.67
14211,2018-06-29 08:52:16.093750,-3.82,45.67
14212,2018-06-29 08:52:16.125000,-10.65,45.67
14213,2018-06-29 08:52:16.156250,-17.79,45.67
14214,2018-06-29 08:52:16.187500,-23.98,45.67
14215,2018-06-29 08:52:16.218750,-29.83,45.67
14216,2018-06-29 08:52:16.250000,-37.51,45.67
14217,2018-06-29 08:52:16.281250,-47.87,45.67
14218,2018-06-29 08:52:16.312500,-58.42,45.67
14219,2018-06-29 08:52:16.343750,-63.34,45.67
14220,2018-06-29 08:52:16.375000,-57.66,45.67
14221,2018-06-29 08:52:16.406250,-43.09,45.67
14222,2018-06-29 08:52:16.437500,-26.7,45.67
14223,2018-06-29 08:52:16.468750,-13.29,45.67
14224,2018-06-29 08:52:16.500000,-2.58,45.67
14225,2018-06-29 08:52:16.531250,6.48,45.72
14226,2018-06-29 08:52:16.562500,13.06,45.72
14227,2018-06-29 08:52:16.593750,16.73,45.72
14228,2018-06-29 08:52:16.625000,18.86,45.72
14229,2018-06-29 08:52:16.656250,20.94,45.72
14230,2018-06-29 08:52:16.687500,23.37,45.72
14231,2018-06-29 08:52:16.718750,26.25,45.72
14232,2018-06-29 08:52:16.750000,29.37,45.72
14233,2018-06-29 08:52:16.781250,31.42,45.72
14234,2018-06-29 08:52:16.812500,30.89,45.72
14235,2018-06-29 08:52:16.843750,28.13,45.72
14236,2018-06-29 08:52:16.875000,25.0,45.72
14237,2018-06-29 08:52:16.906250,22.66,45.72
14238,2018-06-29 08:52:16.937500,20.72,45.72
14239,2018-06-29 08:52:16.968750,18.51,45.72
14240,2018-06-29 08:52:17.000000,16.36,45.72
14241,2018-06-29 08:52:17.031250,15.0,45.72
14242,2018-06-29 08:52:17.062500,13.63,45.72
14243,2018-06-29 08:52:17.093750,10.5,45.72
14244,2018-06-29 08:52:17.125000,5.88,45.72
14245,2018-06-29 08:52:17.156250,1.64,45.72
14246,2018-06-29 08:52:17.187500,-2.02,45.72
14247,2018-06-29 08:52:17.218750,-6.38,45.72
14248,2018-06-29 08:52:17.250000,-11.57,45.72
14249,2018-06-29 08:52:17.281250,-16.82,45.72
14250,2018-06-29 08:52:17.312500,-22.05,45.72
14251,2018-06-29 08:52:17.343750,-27.77,45.72
14252,2018-06-29 08:52:17.375000,-34.92,45.72
14253,2018-06-29 08:52:17.406250,-44.5,45.72
14254,2018-06-29 08:52:17.437500,-54.86,45.72
14255,2018-06-29 08:52:17.468750,-60.2,45.72
14256,2018-06-29 08:52:17.500000,-54.94,45.72
14257,2018-06-29 08:52:17.531250,-40.29,45.75
14258,2018-06-29 08:52:17.562500,-23.42,45.75
14259,2018-06-29 08:52:17.593750,-9.81,45.75
14260,2018-06-29 08:52:17.625000,0.6,45.75
14261,2018-06-29 08:52:17.656250,9.68,45.75
14262,2018-06-29 08:52:17.687500,17.06,45.75
14263,2018-06-29 08:52:17.718750,21.55,45.75
14264,2018-06-29 08:52:17.750000,23.89,45.75
14265,2018-06-29 08:52:17.781250,26.14,45.75
14266,2018-06-29 08:52:17.812500,29.12,45.75
14267,2018-06-29 08:52:17.843750,32.1,45.75
14268,2018-06-29 08:52:17.875000,34.37,45.75
14269,2018-06-29 08:52:17.906250,35.54,45.75
14270,2018-06-29 08:52:17.937500,34.8,45.75
14271,2018-06-29 08:52:17.968750,31.88,45.75
14272,2018-06-29 08:52:18.000000,28.32,45.75
14273,2018-06-29 08:52:18.031250,25.88,45.75
14274,2018-06-29 08:52:18.062500,24.35,45.75
14275,2018-06-29 08:52:18.093750,22.67,45.75
14276,2018-06-29 08:52:18.125000,20.85,45.75
14277,2018-06-29 08:52:18.156250,19.21,45.75
14278,2018-06-29 08:52:18.187500,17.45,45.75
14279,2018-06-29 08:52:18.218750,15.11,45.75
14280,2018-06-29 08:52:18.250000,12.1,45.75
14281,2018-06-29 08:52:18.281250,8.81,45.75
14282,2018-06-29 08:52:18.312500,5.78,45.75
14283,2018-06-29 08:52:18.343750,2.91,45.75
14284,2018-06-29 08:52:18.375000,-0.79,45.75
14285,2018-06-29 08:52:18.406250,-5.61,45.75
14286,2018-06-29 08:52:18.437500,-10.29,45.75
14287,2018-06-29 08:52:18.468750,-14.07,45.75
14288,2018-06-29 08:52:18.500000,-18.24,45.75
14289,2018-06-29 08:52:18.531250,-24.11,45.82
14290,2018-06-29 08:52:18.562500,-30.59,45.82
14291,2018-06-29 08:52:18.593750,-35.84,45.82
14292,2018-06-29 08:52:18.625000,-40.42,45.82
14293,2018-06-29 08:52:18.656250,-47.14,45.82
14294,2018-06-29 08:52:18.687500,-57.63,45.82
14295,2018-06-29 08:52:18.718750,-68.24,45.82
14296,2018-06-29 08:52:18.750000,-70.81,45.82
14297,2018-06-29 08:52:18.781250,-60.97,45.82
14298,2018-06-29 08:52:18.812500,-43.57,45.82
14299,2018-06-29 08:52:18.843750,-26.92,45.82
14300,2018-06-29 08:52:18.875000,-14.1,45.82
14301,2018-06-29 08:52:18.906250,-3.25,45.82
14302,2018-06-29 08:52:18.937500,6.67,45.82
14303,2018-06-29 08:52:18.968750,14.44,45.82
14304,2018-06-29 08:52:19.000000,19.57,45.82
14305,2018-06-29 08:52:19.031250,23.44,45.82
14306,2018-06-29 08:52:19.062500,27.07,45.82
14307,2018-06-29 08:52:19.093750,30.1,45.82
14308,2018-06-29 08:52:19.125000,32.73,45.82
14309,2018-06-29 08:52:19.156250,35.63,45.82
14310,2018-06-29 08:52:19.187500,37.66,45.82
14311,2018-06-29 08:52:19.218750,36.72,45.82
14312,2018-06-29 08:52:19.250000,33.27,45.82
14313,2018-06-29 08:52:19.281250,30.08,45.82
14314,2018-06-29 08:52:19.312500,28.55,45.82
14315,2018-06-29 08:52:19.343750,27.54,45.82
14316,2018-06-29 08:52:19.375000,25.75,45.82
14317,2018-06-29 08:52:19.406250,23.44,45.82
14318,2018-06-29 08:52:19.437500,21.27,45.82
14319,2018-06-29 08:52:19.468750,19.37,45.82
14320,2018-06-29 08:52:19.500000,17.65,45.82
14321,2018-06-29 08:52:19.531250,15.71,45.85
14322,2018-06-29 08:52:19.562500,12.9,45.85
14323,2018-06-29 08:52:19.593750,9.27,45.85
14324,2018-06-29 08:52:19.625000,5.9,45.85
14325,2018-06-29 08:52:19.656250,3.24,45.85
14326,2018-06-29 08:52:19.687500,0.6,45.85
14327,2018-06-29 08:52:19.718750,-2.42,45.85
14328,2018-06-29 08:52:19.750000,-5.46,45.85
14329,2018-06-29 08:52:19.781250,-8.53,45.85
14330,2018-06-29 08:52:19.812500,-12.35,45.85
14331,2018-06-29 08:52:19.843750,-17.31,45.85
14332,2018-06-29 08:52:19.875000,-22.66,45.85
14333,2018-06-29 08:52:19.906250,-27.41,45.85
14334,2018-06-29 08:52:19.937500,-31.91,45.85
14335,2018-06-29 08:52:19.968750,-37.97,45.85
14336,2018-06-29 08:52:20.000000,-46.89,45.85
14337,2018-06-29 08:52:20.031250,-56.66,45.85
14338,2018-06-29 08:52:20.062500,-61.23,45.85
14339,2018-06-29 08:52:20.093750,-54.96,45.85
14340,2018-06-29 08:52:20.125000,-39.18,45.85
14341,2018-06-29 08:52:20.156250,-21.4,45.85
14342,2018-06-29 08:52:20.187500,-7.58,45.85
14343,2018-06-29 08:52:20.218750,2.05,45.85
14344,2018-06-29 08:52:20.250000,9.39,45.85
14345,2018-06-29 08:52:20.281250,14.7,45.85
14346,2018-06-29 08:52:20.312500,17.63,45.85
14347,2018-06-29 08:52:20.343750,19.28,45.85
14348,2018-06-29 08:52:20.375000,21.36,45.85
14349,2018-06-29 08:52:20.406250,24.35,45.85
14350,2018-06-29 08:52:20.437500,27.49,45.85
14351,2018-06-29 08:52:20.468750,30.1,45.85
14352,2018-06-29 08:52:20.500000,31.66,45.85
14353,2018-06-29 08:52:20.531250,31.27,45.9
14354,2018-06-29 08:52:20.562500,28.6,45.9
14355,2018-06-29 08:52:20.593750,25.2,45.9
14356,2018-06-29 08:52:20.625000,22.98,45.9
14357,2018-06-29 08:52:20.656250,21.65,45.9
14358,2018-06-29 08:52:20.687500,19.6,45.9
14359,2018-06-29 08:52:20.718750,16.82,45.9
14360,2018-06-29 08:52:20.750000,14.8,45.9
14361,2018-06-29 08:52:20.781250,13.69,45.9
14362,2018-06-29 08:52:20.812500,11.99,45.9
14363,2018-06-29 08:52:20.843750,9.21,45.9
14364,2018-06-29 08:52:20.875000,6.26,45.9
14365,2018-06-29 08:52:20.906250,3.26,45.9
14366,2018-06-29 08:52:20.937500,-0.5,45.9
14367,2018-06-29 08:52:20.968750,-4.5,45.9
14368,2018-06-29 08:52:21.000000,-7.58,45.9
14369,2018-06-29 08:52:21.031250,-10.02,45.9
14370,2018-06-29 08:52:21.062500,-13.38,45.9
14371,2018-06-29 08:52:21.093750,-18.34,45.9
14372,2018-06-29 08:52:21.125000,-24.02,45.9
14373,2018-06-29 08:52:21.156250,-29.22,45.9
14374,2018-06-29 08:52:21.187500,-33.78,45.9
14375,2018-06-29 08:52:21.218750,-38.75,45.9
14376,2018-06-29 08:52:21.250000,-45.97,45.9
14377,2018-06-29 08:52:21.281250,-55.63,45.9
14378,2018-06-29 08:52:21.312500,-62.68,45.9
14379,2018-06-29 08:52:21.343750,-59.53,45.9
14380,2018-06-29 08:52:21.375000,-45.26,45.9
14381,2018-06-29 08:52:21.406250,-27.64,45.9
14382,2018-06-29 08:52:21.437500,-13.57,45.9
14383,2018-06-29 08:52:21.468750,-3.07,45.9
14384,2018-06-29 08:52:21.500000,5.96,45.9
14385,2018-06-29 08:52:21.531250,13.22,45.95
14386,2018-06-29 08:52:21.562500,17.7,45.95
14387,2018-06-29 08:52:21.593750,20.1,45.95
14388,2018-06-29 08:52:21.625000,21.95,45.95
14389,2018-06-29 08:52:21.656250,24.18,45.95
14390,2018-06-29 08:52:21.687500,26.95,45.95
14391,2018-06-29 08:52:21.718750,29.92,45.95
14392,2018-06-29 08:52:21.750000,32.1,45.95
14393,2018-06-29 08:52:21.781250,32.38,45.95
14394,2018-06-29 08:52:21.812500,30.83,45.95
14395,2018-06-29 08:52:21.843750,28.67,45.95
14396,2018-06-29 08:52:21.875000,26.82,45.95
14397,2018-06-29 08:52:21.906250,25.34,45.95
14398,2018-06-29 08:52:21.937500,23.84,45.95
14399,2018-06-29 08:52:21.968750,22.18,45.95
14400,2018-06-29 08:52:22.000000,20.74,45.95
14401,2018-06-29 08:52:22.031250,19.78,45.95
14402,2018-06-29 08:52:22.062500,18.76,45.95
14403,2018-06-29 08:52:22.093750,16.96,45.95
14404,2018-06-29 08:52:22.125000,14.41,45.95
14405,2018-06-29 08:52:22.156250,11.4,45.95
14406,2018-06-29 08:52:22.187500,8.21,45.95
14407,2018-06-29 08:52:22.218750,5.56,45.95
14408,2018-06-29 08:52:22.250000,3.89,45.95
14409,2018-06-29 08:52:22.281250,2.5,45.95
14410,2018-06-29 08:52:22.312500,0.18,45.95
14411,2018-06-29 08:52:22.343750,-3.53,45.95
14412,2018-06-29 08:52:22.375000,-7.84,45.95
14413,2018-06-29 08:52:22.406250,-11.37,45.95
14414,2018-06-29 08:52:22.437500,-14.25,45.95
14415,2018-06-29 08:52:22.468750,-18.18,45.95
14416,2018-06-29 08:52:22.500000,-23.68,45.95
14417,2018-06-29 08:52:22.531250,-29.04,45.98
14418,2018-06-29 08:52:22.562500,-33.58,45.98
14419,2018-06-29 08:52:22.593750,-39.32,45.98
14420,2018-06-29 08:52:22.625000,-48.18,45.98
14421,2018-06-29 08:52:22.656250,-58.94,45.98
14422,2018-06-29 08:52:22.687500,-66.57,45.98
14423,2018-06-29 08:52:22.718750,-64.76,45.98
14424,2018-06-29 08:52:22.750000,-51.91,45.98
14425,2018-06-29 08:52:22.781250,-33.84,45.98
14426,2018-06-29 08:52:22.812500,-18.28,45.98
14427,2018-06-29 08:52:22.843750,-7.99,45.98
14428,2018-06-29 08:52:22.875000,-0.91,45.98
14429,2018-06-29 08:52:22.906250,5.22,45.98
14430,2018-06-29 08:52:22.937500,10.53,45.98
14431,2018-06-29 08:52:22.968750,14.31,45.98
14432,2018-06-29 08:52:23.000000,16.82,45.98
14433,2018-06-29 08:52:23.031250,19.12,45.98
14434,2018-06-29 08:52:23.062500,21.93,45.98
14435,2018-06-29 08:52:23.093750,25.23,45.98
14436,2018-06-29 08:52:23.125000,28.17,45.98
14437,2018-06-29 08:52:23.156250,29.27,45.98
14438,2018-06-29 08:52:23.187500,27.99,45.98
14439,2018-06-29 08:52:23.218750,25.61,45.98
14440,2018-06-29 08:52:23.250000,23.89,45.98
14441,2018-06-29 08:52:23.281250,23.18,45.98
14442,2018-06-29 08:52:23.312500,22.44,45.98
14443,2018-06-29 08:52:23.343750,20.79,45.98
14444,2018-06-29 08:52:23.375000,18.71,45.98
14445,2018-06-29 08:52:23.406250,17.07,45.98
14446,2018-06-29 08:52:23.437500,15.6,45.98
14447,2018-06-29 08:52:23.468750,13.69,45.98
14448,2018-06-29 08:52:23.500000,11.96,45.98
14449,2018-06-29 08:52:23.531250,10.77,46.02
14450,2018-06-29 08:52:23.562500,9.03,46.02
14451,2018-06-29 08:52:23.593750,6.38,46.02
14452,2018-06-29 08:52:23.625000,3.96,46.02
14453,2018-06-29 08:52:23.656250,1.76,46.02
14454,2018-06-29 08:52:23.687500,-1.49,46.02
14455,2018-06-29 08:52:23.718750,-5.3,46.02
14456,2018-06-29 08:52:23.750000,-7.85,46.02
14457,2018-06-29 08:52:23.781250,-9.51,46.02
14458,2018-06-29 08:52:23.812500,-12.53,46.02
14459,2018-06-29 08:52:23.843750,-17.65,46.02
14460,2018-06-29 08:52:23.875000,-23.5,46.02
14461,2018-06-29 08:52:23.906250,-28.98,46.02
14462,2018-06-29 08:52:23.937500,-34.56,46.02
14463,2018-06-29 08:52:23.968750,-41.72,46.02
14464,2018-06-29 08:52:24.000000,-51.23,46.02
14465,2018-06-29 08:52:24.031250,-60.37,46.02
14466,2018-06-29 08:52:24.062500,-62.63,46.02
14467,2018-06-29 08:52:24.093750,-53.56,46.02
14468,2018-06-29 08:52:24.125000,-36.45,46.02
14469,2018-06-29 08:52:24.156250,-19.35,46.02
14470,2018-06-29 08:52:24.187500,-6.99,46.02
14471,2018-06-29 08:52:24.218750,1.88,46.02
14472,2018-06-29 08:52:24.250000,9.57,46.02
14473,2018-06-29 08:52:24.281250,15.69,46.02
14474,2018-06-29 08:52:24.312500,19.35,46.02
14475,2018-06-29 08:52:24.343750,21.82,46.02
14476,2018-06-29 08:52:24.375000,24.33,46.02
14477,2018-06-29 08:52:24.406250,26.22,46.02
14478,2018-06-29 08:52:24.437500,27.31,46.02
14479,2018-06-29 08:52:24.468750,28.81,46.02
14480,2018-06-29 08:52:24.500000,30.42,46.02
14481,2018-06-29 08:52:24.531250,30.18,46.03
14482,2018-06-29 08:52:24.562500,27.87,46.03
14483,2018-06-29 08:52:24.593750,25.37,46.03
14484,2018-06-29 08:52:24.625000,23.79,46.03
14485,2018-06-29 08:52:24.656250,22.45,46.03
14486,2018-06-29 08:52:24.687500,20.85,46.03
14487,2018-06-29 08:52:24.718750,19.66,46.03
14488,2018-06-29 08:52:24.750000,19.44,46.03
14489,2018-06-29 08:52:24.781250,19.06,46.03
14490,2018-06-29 08:52:24.812500,16.96,46.03
14491,2018-06-29 08:52:24.843750,13.72,46.03
14492,2018-06-29 08:52:24.875000,11.08,46.03
14493,2018-06-29 08:52:24.906250,9.17,46.03
14494,2018-06-29 08:52:24.937500,6.83,46.03
14495,2018-06-29 08:52:24.968750,3.66,46.03
14496,2018-06-29 08:52:25.000000,0.02,46.03
14497,2018-06-29 08:52:25.031250,-3.83,46.03
14498,2018-06-29 08:52:25.062500,-7.48,46.03
14499,2018-06-29 08:52:25.093750,-10.71,46.03
14500,2018-06-29 08:52:25.125000,-14.25,46.03
14501,2018-06-29 08:52:25.156250,-18.73,46.03
14502,2018-06-29 08:52:25.187500,-23.5,46.03
14503,2018-06-29 08:52:25.218750,-27.78,46.03
14504,2018-06-29 08:52:25.250000,-32.82,46.03
14505,2018-06-29 08:52:25.281250,-40.67,46.03
14506,2018-06-29 08:52:25.312500,-49.36,46.03
14507,2018-06-29 08:52:25.343750,-52.14,46.03
14508,2018-06-29 08:52:25.375000,-44.46,46.03
14509,2018-06-29 08:52:25.406250,-29.66,46.03
14510,2018-06-29 08:52:25.437500,-14.65,46.03
14511,2018-06-29 08:52:25.468750,-3.13,46.03
14512,2018-06-29 08:52:25.500000,4.62,46.03
14513,2018-06-29 08:52:25.531250,9.01,46.03
14514,2018-06-29 08:52:25.562500,11.0,46.03
14515,2018-06-29 08:52:25.593750,12.09,46.03
14516,2018-06-29 08:52:25.625000,13.44,46.03
14517,2018-06-29 08:52:25.656250,15.58,46.03
14518,2018-06-29 08:52:25.687500,18.48,46.03
14519,2018-06-29 08:52:25.718750,21.84,46.03
14520,2018-06-29 08:52:25.750000,25.15,46.03
14521,2018-06-29 08:52:25.781250,27.03,46.03
14522,2018-06-29 08:52:25.812500,25.89,46.03
14523,2018-06-29 08:52:25.843750,22.37,46.03
14524,2018-06-29 08:52:25.875000,19.26,46.03
14525,2018-06-29 08:52:25.906250,17.71,46.03
14526,2018-06-29 08:52:25.937500,16.24,46.03
14527,2018-06-29 08:52:25.968750,14.18,46.03
14528,2018-06-29 08:52:26.000000,12.53,46.03
14529,2018-06-29 08:52:26.031250,11.33,46.03
14530,2018-06-29 08:52:26.062500,9.69,46.03
14531,2018-06-29 08:52:26.093750,7.9,46.03
14532,2018-06-29 08:52:26.125000,6.31,46.03
14533,2018-06-29 08:52:26.156250,3.77,46.03
14534,2018-06-29 08:52:26.187500,-0.36,46.03
14535,2018-06-29 08:52:26.218750,-4.95,46.03
14536,2018-06-29 08:52:26.250000,-8.9,46.03
14537,2018-06-29 08:52:26.281250,-12.41,46.03
14538,2018-06-29 08:52:26.312500,-16.26,46.03
14539,2018-06-29 08:52:26.343750,-20.83,46.03
14540,2018-06-29 08:52:26.375000,-25.71,46.03
14541,2018-06-29 08:52:26.406250,-30.45,46.03
14542,2018-06-29 08:52:26.437500,-35.65,46.03
14543,2018-06-29 08:52:26.468750,-42.48,46.03
14544,2018-06-29 08:52:26.500000,-51.62,46.03
14545,2018-06-29 08:52:26.531250,-61.21,46.05
14546,2018-06-29 08:52:26.562500,-65.35,46.05
14547,2018-06-29 08:52:26.593750,-58.65,46.05
14548,2018-06-29 08:52:26.625000,-43.01,46.05
14549,2018-06-29 08:52:26.656250,-25.92,46.05
14550,2018-06-29 08:52:26.687500,-12.43,46.05
14551,2018-06-29 08:52:26.718750,-2.4,46.05
14552,2018-06-29 08:52:26.750000,5.93,46.05
14553,2018-06-29 08:52:26.781250,12.9,46.05
14554,2018-06-29 08:52:26.812500,17.89,46.05
14555,2018-06-29 08:52:26.843750,21.21,46.05
14556,2018-06-29 08:52:26.875000,24.13,46.05
14557,2018-06-29 08:52:26.906250,26.99,46.05
14558,2018-06-29 08:52:26.937500,29.46,46.05
14559,2018-06-29 08:52:26.968750,31.93,46.05
14560,2018-06-29 08:52:27.000000,34.28,46.05
14561,2018-06-29 08:52:27.031250,35.15,46.05
14562,2018-06-29 08:52:27.062500,33.87,46.05
14563,2018-06-29 08:52:27.093750,31.66,46.05
14564,2018-06-29 08:52:27.125000,29.73,46.05
14565,2018-06-29 08:52:27.156250,28.08,46.05
14566,2018-06-29 08:52:27.187500,26.47,46.05
14567,2018-06-29 08:52:27.218750,24.95,46.05
14568,2018-06-29 08:52:27.250000,23.48,46.05
14569,2018-06-29 08:52:27.281250,21.93,46.05
14570,2018-06-29 08:52:27.312500,20.14,46.05
14571,2018-06-29 08:52:27.343750,18.0,46.05
14572,2018-06-29 08:52:27.375000,15.93,46.05
14573,2018-06-29 08:52:27.406250,14.15,46.05
14574,2018-06-29 08:52:27.437500,11.87,46.05
14575,2018-06-29 08:52:27.468750,8.56,46.05
14576,2018-06-29 08:52:27.500000,5.31,46.05
14577,2018-06-29 08:52:27.531250,2.95,46.05
14578,2018-06-29 08:52:27.562500,0.17,46.05
14579,2018-06-29 08:52:27.593750,-4.16,46.05
14580,2018-06-29 08:52:27.625000,-8.79,46.05
14581,2018-06-29 08:52:27.656250,-12.39,46.05
14582,2018-06-29 08:52:27.687500,-15.97,46.05
14583,2018-06-29 08:52:27.718750,-20.89,46.05
14584,2018-06-29 08:52:27.750000,-26.73,46.05
14585,2018-06-29 08:52:27.781250,-32.65,46.05
14586,2018-06-29 08:52:27.812500,-38.99,46.05
14587,2018-06-29 08:52:27.843750,-46.89,46.05
14588,2018-06-29 08:52:27.875000,-57.17,46.05
14589,2018-06-29 08:52:27.906250,-68.16,46.05
14590,2018-06-29 08:52:27.937500,-74.0,46.05
14591,2018-06-29 08:52:27.968750,-68.53,46.05
14592,2018-06-29 08:52:28.000000,-52.09,46.05
14593,2018-06-29 08:52:28.031250,-32.15,46.05
14594,2018-06-29 08:52:28.062500,-16.05,46.05
14595,2018-06-29 08:52:28.093750,-5.3,46.05
14596,2018-06-29 08:52:28.125000,3.0,46.05
14597,2018-06-29 08:52:28.156250,11.14,46.05
14598,2018-06-29 08:52:28.187500,18.38,46.05
14599,2018-06-29 08:52:28.218750,23.23,46.05
14600,2018-06-29 08:52:28.250000,26.24,46.05
14601,2018-06-29 08:52:28.281250,28.96,46.05
14602,2018-06-29 08:52:28.312500,32.19,46.05
14603,2018-06-29 08:52:28.343750,36.04,46.05
14604,2018-06-29 08:52:28.375000,39.79,46.05
14605,2018-06-29 08:52:28.406250,41.42,46.05
14606,2018-06-29 08:52:28.437500,39.54,46.05
14607,2018-06-29 08:52:28.468750,35.53,46.05
14608,2018-06-29 08:52:28.500000,32.2,46.05
14609,2018-06-29 08:52:28.531250,30.57,46.05
14610,2018-06-29 08:52:28.562500,29.24,46.05
14611,2018-06-29 08:52:28.593750,27.05,46.05
14612,2018-06-29 08:52:28.625000,24.87,46.05
14613,2018-06-29 08:52:28.656250,23.83,46.05
14614,2018-06-29 08:52:28.687500,22.97,46.05
14615,2018-06-29 08:52:28.718750,21.04,46.05
14616,2018-06-29 08:52:28.750000,18.76,46.05
14617,2018-06-29 08:52:28.781250,17.15,46.05
14618,2018-06-29 08:52:28.812500,15.47,46.05
14619,2018-06-29 08:52:28.843750,12.89,46.05
14620,2018-06-29 08:52:28.875000,9.87,46.05
14621,2018-06-29 08:52:28.906250,6.81,46.05
14622,2018-06-29 08:52:28.937500,3.47,46.05
14623,2018-06-29 08:52:28.968750,0.04,46.05
14624,2018-06-29 08:52:29.000000,-3.0,46.05
14625,2018-06-29 08:52:29.031250,-5.95,46.05
14626,2018-06-29 08:52:29.062500,-9.65,46.05
14627,2018-06-29 08:52:29.093750,-14.5,46.05
14628,2018-06-29 08:52:29.125000,-20.16,46.05
14629,2018-06-29 08:52:29.156250,-26.25,46.05
14630,2018-06-29 08:52:29.187500,-32.4,46.05
14631,2018-06-29 08:52:29.218750,-38.13,46.05
14632,2018-06-29 08:52:29.250000,-44.2,46.05
14633,2018-06-29 08:52:29.281250,-53.09,46.05
14634,2018-06-29 08:52:29.312500,-65.33,46.05
14635,2018-06-29 08:52:29.343750,-75.44,46.05
14636,2018-06-29 08:52:29.375000,-75.26,46.05
14637,2018-06-29 08:52:29.406250,-62.32,46.05
14638,2018-06-29 08:52:29.437500,-42.56,46.05
14639,2018-06-29 08:52:29.468750,-24.02,46.05
14640,2018-06-29 08:52:29.500000,-10.18,46.05
14641,2018-06-29 08:52:29.531250,0.0,46.03
14642,2018-06-29 08:52:29.562500,8.33,46.03
14643,2018-06-29 08:52:29.593750,15.36,46.03
14644,2018-06-29 08:52:29.625000,20.77,46.03
14645,2018-06-29 08:52:29.656250,24.56,46.03
14646,2018-06-29 08:52:29.687500,27.49,46.03
14647,2018-06-29 08:52:29.718750,30.78,46.03
14648,2018-06-29 08:52:29.750000,34.82,46.03
14649,2018-06-29 08:52:29.781250,38.38,46.03
14650,2018-06-29 08:52:29.812500,39.79,46.03
14651,2018-06-29 08:52:29.843750,38.85,46.03
14652,2018-06-29 08:52:29.875000,36.69,46.03
14653,2018-06-29 08:52:29.906250,34.29,46.03
14654,2018-06-29 08:52:29.937500,31.98,46.03
14655,2018-06-29 08:52:29.968750,29.87,46.03
14656,2018-06-29 08:52:30.000000,27.7,46.03
14657,2018-06-29 08:52:30.031250,25.46,46.03
14658,2018-06-29 08:52:30.062500,23.42,46.03
14659,2018-06-29 08:52:30.093750,21.45,46.03
14660,2018-06-29 08:52:30.125000,19.09,46.03
14661,2018-06-29 08:52:30.156250,16.36,46.03
14662,2018-06-29 08:52:30.187500,13.54,46.03
14663,2018-06-29 08:52:30.218750,10.44,46.03
14664,2018-06-29 08:52:30.250000,6.62,46.03
14665,2018-06-29 08:52:30.281250,2.54,46.03
14666,2018-06-29 08:52:30.312500,-0.86,46.03
14667,2018-06-29 08:52:30.343750,-3.63,46.03
14668,2018-06-29 08:52:30.375000,-6.98,46.03
14669,2018-06-29 08:52:30.406250,-11.8,46.03
14670,2018-06-29 08:52:30.437500,-17.33,46.03
14671,2018-06-29 08:52:30.468750,-22.2,46.03
14672,2018-06-29 08:52:30.500000,-26.76,46.03
14673,2018-06-29 08:52:30.531250,-33.13,46.03
14674,2018-06-29 08:52:30.562500,-42.57,46.03
14675,2018-06-29 08:52:30.593750,-52.67,46.03
14676,2018-06-29 08:52:30.625000,-57.33,46.03
14677,2018-06-29 08:52:30.656250,-51.35,46.03
14678,2018-06-29 08:52:30.687500,-36.04,46.03
14679,2018-06-29 08:52:30.718750,-18.04,46.03
14680,2018-06-29 08:52:30.750000,-2.55,46.03
14681,2018-06-29 08:52:30.781250,8.98,46.03
14682,2018-06-29 08:52:30.812500,15.82,46.03
14683,2018-06-29 08:52:30.843750,17.72,46.03
14684,2018-06-29 08:52:30.875000,16.88,46.03
14685,2018-06-29 08:52:30.906250,16.79,46.03
14686,2018-06-29 08:52:30.937500,19.02,46.03
14687,2018-06-29 08:52:30.968750,22.84,46.03
14688,2018-06-29 08:52:31.000000,27.11,46.03
14689,2018-06-29 08:52:31.031250,30.84,46.03
14690,2018-06-29 08:52:31.062500,32.51,46.03
14691,2018-06-29 08:52:31.093750,31.07,46.03
14692,2018-06-29 08:52:31.125000,27.92,46.03
14693,2018-06-29 08:52:31.156250,25.2,46.03
14694,2018-06-29 08:52:31.187500,23.26,46.03
14695,2018-06-29 08:52:31.218750,21.74,46.03
14696,2018-06-29 08:52:31.250000,20.9,46.03
14697,2018-06-29 08:52:31.281250,20.34,46.03
14698,2018-06-29 08:52:31.312500,18.83,46.03
14699,2018-06-29 08:52:31.343750,16.02,46.03
14700,2018-06-29 08:52:31.375000,12.63,46.03
14701,2018-06-29 08:52:31.406250,9.24,46.03
14702,2018-06-29 08:52:31.437500,5.95,46.03
14703,2018-06-29 08:52:31.468750,2.47,46.03
14704,2018-06-29 08:52:31.500000,-1.64,46.03
14705,2018-06-29 08:52:31.531250,-6.09,46.02
14706,2018-06-29 08:52:31.562500,-10.02,46.02
14707,2018-06-29 08:52:31.593750,-13.86,46.02
14708,2018-06-29 08:52:31.625000,-19.2,46.02
14709,2018-06-29 08:52:31.656250,-25.95,46.02
14710,2018-06-29 08:52:31.687500,-31.98,46.02
14711,2018-06-29 08:52:31.718750,-36.69,46.02
14712,2018-06-29 08:52:31.750000,-42.4,46.02
14713,2018-06-29 08:52:31.781250,-51.78,46.02
14714,2018-06-29 08:52:31.812500,-64.91,46.02
14715,2018-06-29 08:52:31.843750,-76.9,46.02
14716,2018-06-29 08:52:31.875000,-79.25,46.02
14717,2018-06-29 08:52:31.906250,-67.65,46.02
14718,2018-06-29 08:52:31.937500,-47.24,46.02
14719,2018-06-29 08:52:31.968750,-27.0,46.02
14720,2018-06-29 08:52:32.000000,-11.5,46.02
14721,2018-06-29 08:52:32.031250,0.08,46.02
14722,2018-06-29 08:52:32.062500,9.91,46.02
14723,2018-06-29 08:52:32.093750,18.34,46.02
14724,2018-06-29 08:52:32.125000,24.4,46.02
14725,2018-06-29 08:52:32.156250,28.08,46.02
14726,2018-06-29 08:52:32.187500,30.82,46.02
14727,2018-06-29 08:52:32.218750,34.14,46.02
14728,2018-06-29 08:52:32.250000,38.67,46.02
14729,2018-06-29 08:52:32.281250,43.3,46.02
14730,2018-06-29 08:52:32.312500,45.55,46.02
14731,2018-06-29 08:52:32.343750,44.3,46.02
14732,2018-06-29 08:52:32.375000,40.94,46.02
14733,2018-06-29 08:52:32.406250,37.65,46.02
14734,2018-06-29 08:52:32.437500,35.48,46.02
14735,2018-06-29 08:52:32.468750,33.98,46.02
14736,2018-06-29 08:52:32.500000,32.22,46.02
14737,2018-06-29 08:52:32.531250,30.16,46.0
14738,2018-06-29 08:52:32.562500,28.47,46.0
14739,2018-06-29 08:52:32.593750,27.05,46.0
14740,2018-06-29 08:52:32.625000,25.08,46.0
14741,2018-06-29 08:52:32.656250,22.32,46.0
14742,2018-06-29 08:52:32.687500,19.47,46.0
14743,2018-06-29 08:52:32.718750,17.38,46.0
14744,2018-06-29 08:52:32.750000,15.75,46.0
14745,2018-06-29 08:52:32.781250,13.37,46.0
14746,2018-06-29 08:52:32.812500,9.9,46.0
14747,2018-06-29 08:52:32.843750,6.37,46.0
14748,2018-06-29 08:52:32.875000,3.5,46.0
14749,2018-06-29 08:52:32.906250,0.81,46.0
14750,2018-06-29 08:52:32.937500,-2.45,46.0
14751,2018-06-29 08:52:32.968750,-6.57,46.0
14752,2018-06-29 08:52:33.000000,-11.34,46.0
14753,2018-06-29 08:52:33.031250,-16.46,46.0
14754,2018-06-29 08:52:33.062500,-22.0,46.0
14755,2018-06-29 08:52:33.093750,-28.29,46.0
14756,2018-06-29 08:52:33.125000,-35.36,46.0
14757,2018-06-29 08:52:33.156250,-42.53,46.0
14758,2018-06-29 08:52:33.187500,-49.3,46.0
14759,2018-06-29 08:52:33.218750,-56.68,46.0
14760,2018-06-29 08:52:33.250000,-66.97,46.0
14761,2018-06-29 08:52:33.281250,-79.18,46.0
14762,2018-06-29 08:52:33.312500,-85.68,46.0
14763,2018-06-29 08:52:33.343750,-78.68,46.0
14764,2018-06-29 08:52:33.375000,-59.8,46.0
14765,2018-06-29 08:52:33.406250,-38.19,46.0
14766,2018-06-29 08:52:33.437500,-20.44,46.0
14767,2018-06-29 08:52:33.468750,-7.22,46.0
14768,2018-06-29 08:52:33.500000,3.09,46.0
14769,2018-06-29 08:52:33.531250,11.63,45.98
14770,2018-06-29 08:52:33.562500,18.78,45.98
14771,2018-06-29 08:52:33.593750,24.4,45.98
14772,2018-06-29 08:52:33.625000,28.52,45.98
14773,2018-06-29 08:52:33.656250,31.85,45.98
14774,2018-06-29 08:52:33.687500,35.46,45.98
14775,2018-06-29 08:52:33.718750,39.95,45.98
14776,2018-06-29 08:52:33.750000,44.23,45.98
14777,2018-06-29 08:52:33.781250,45.81,45.98
14778,2018-06-29 08:52:33.812500,43.5,45.98
14779,2018-06-29 08:52:33.843750,39.06,45.98
14780,2018-06-29 08:52:33.875000,35.49,45.98
14781,2018-06-29 08:52:33.906250,33.84,45.98
14782,2018-06-29 08:52:33.937500,32.85,45.98
14783,2018-06-29 08:52:33.968750,31.22,45.98
14784,2018-06-29 08:52:34.000000,28.91,45.98
14785,2018-06-29 08:52:34.031250,26.54,45.98
14786,2018-06-29 08:52:34.062500,24.63,45.98
14787,2018-06-29 08:52:34.093750,23.13,45.98
14788,2018-06-29 08:52:34.125000,21.22,45.98
14789,2018-06-29 08:52:34.156250,18.43,45.98
14790,2018-06-29 08:52:34.187500,15.27,45.98
14791,2018-06-29 08:52:34.218750,12.21,45.98
14792,2018-06-29 08:52:34.250000,9.12,45.98
14793,2018-06-29 08:52:34.281250,5.93,45.98
14794,2018-06-29 08:52:34.312500,2.62,45.98
14795,2018-06-29 08:52:34.343750,-1.54,45.98
14796,2018-06-29 08:52:34.375000,-6.69,45.98
14797,2018-06-29 08:52:34.406250,-11.36,45.98
14798,2018-06-29 08:52:34.437500,-14.88,45.98
14799,2018-06-29 08:52:34.468750,-19.15,45.98
14800,2018-06-29 08:52:34.500000,-25.76,45.98
14801,2018-06-29 08:52:34.531250,-33.03,45.98
14802,2018-06-29 08:52:34.562500,-38.76,45.98
14803,2018-06-29 08:52:34.593750,-43.97,45.98
14804,2018-06-29 08:52:34.625000,-51.65,45.98
14805,2018-06-29 08:52:34.656250,-63.23,45.98
14806,2018-06-29 08:52:34.687500,-75.83,45.98
14807,2018-06-29 08:52:34.718750,-81.69,45.98
14808,2018-06-29 08:52:34.750000,-74.0,45.98
14809,2018-06-29 08:52:34.781250,-54.8,45.98
14810,2018-06-29 08:52:34.812500,-33.32,45.98
14811,2018-06-29 08:52:34.843750,-16.3,45.98
14812,2018-06-29 08:52:34.875000,-3.77,45.98
14813,2018-06-29 08:52:34.906250,6.56,45.98
14814,2018-06-29 08:52:34.937500,15.01,45.98
14815,2018-06-29 08:52:34.968750,20.83,45.98
14816,2018-06-29 08:52:35.000000,24.74,45.98
14817,2018-06-29 08:52:35.031250,28.4,45.98
14818,2018-06-29 08:52:35.062500,32.16,45.98
14819,2018-06-29 08:52:35.093750,35.69,45.98
14820,2018-06-29 08:52:35.125000,39.18,45.98
14821,2018-06-29 08:52:35.156250,42.01,45.98
14822,2018-06-29 08:52:35.187500,42.56,45.98
14823,2018-06-29 08:52:35.218750,40.67,45.98
14824,2018-06-29 08:52:35.250000,38.25,45.98
14825,2018-06-29 08:52:35.281250,36.62,45.98
14826,2018-06-29 08:52:35.312500,35.25,45.98
14827,2018-06-29 08:52:35.343750,33.16,45.98
14828,2018-06-29 08:52:35.375000,30.36,45.98
14829,2018-06-29 08:52:35.406250,27.7,45.98
14830,2018-06-29 08:52:35.437500,25.86,45.98
14831,2018-06-29 08:52:35.468750,24.46,45.98
14832,2018-06-29 08:52:35.500000,22.54,45.98
14833,2018-06-29 08:52:35.531250,19.58,45.97
14834,2018-06-29 08:52:35.562500,15.74,45.97
14835,2018-06-29 08:52:35.593750,11.49,45.97
14836,2018-06-29 08:52:35.625000,7.49,45.97
14837,2018-06-29 08:52:35.656250,4.25,45.97
14838,2018-06-29 08:52:35.687500,1.47,45.97
14839,2018-06-29 08:52:35.718750,-1.66,45.97
14840,2018-06-29 08:52:35.750000,-5.43,45.97
14841,2018-06-29 08:52:35.781250,-9.16,45.97
14842,2018-06-29 08:52:35.812500,-12.5,45.97
14843,2018-06-29 08:52:35.843750,-16.56,45.97
14844,2018-06-29 08:52:35.875000,-22.31,45.97
14845,2018-06-29 08:52:35.906250,-28.97,45.97
14846,2018-06-29 08:52:35.937500,-35.11,45.97
14847,2018-06-29 08:52:35.968750,-40.8,45.97
14848,2018-06-29 08:52:36.000000,-47.75,45.97
14849,2018-06-29 08:52:36.031250,-57.7,45.97
14850,2018-06-29 08:52:36.062500,-68.68,45.97
14851,2018-06-29 08:52:36.093750,-73.15,45.97
14852,2018-06-29 08:52:36.125000,-64.63,45.97
14853,2018-06-29 08:52:36.156250,-45.73,45.97
14854,2018-06-29 08:52:36.187500,-25.17,45.97
14855,2018-06-29 08:52:36.218750,-8.71,45.97
14856,2018-06-29 08:52:36.250000,2.97,45.97
14857,2018-06-29 08:52:36.281250,10.55,45.97
14858,2018-06-29 08:52:36.312500,14.63,45.97
14859,2018-06-29 08:52:36.343750,16.65,45.97
14860,2018-06-29 08:52:36.375000,18.87,45.97
14861,2018-06-29 08:52:36.406250,22.5,45.97
14862,2018-06-29 08:52:36.437500,26.82,45.97
14863,2018-06-29 08:52:36.468750,30.6,45.97
14864,2018-06-29 08:52:36.500000,33.45,45.97
14865,2018-06-29 08:52:36.531250,35.03,45.93
14866,2018-06-29 08:52:36.562500,34.65,45.93
14867,2018-06-29 08:52:36.593750,32.41,45.93
14868,2018-06-29 08:52:36.625000,29.67,45.93
14869,2018-06-29 08:52:36.656250,27.54,45.93
14870,2018-06-29 08:52:36.687500,25.64,45.93
14871,2018-06-29 08:52:36.718750,23.24,45.93
14872,2018-06-29 08:52:36.750000,20.93,45.93
14873,2018-06-29 08:52:36.781250,19.32,45.93
14874,2018-06-29 08:52:36.812500,17.49,45.93
14875,2018-06-29 08:52:36.843750,14.56,45.93
14876,2018-06-29 08:52:36.875000,11.22,45.93
14877,2018-06-29 08:52:36.906250,8.07,45.93
14878,2018-06-29 08:52:36.937500,4.51,45.93
14879,2018-06-29 08:52:36.968750,0.14,45.93
14880,2018-06-29 08:52:37.000000,-4.27,45.93
14881,2018-06-29 08:52:37.031250,-8.05,45.93
14882,2018-06-29 08:52:37.062500,-12.06,45.93
14883,2018-06-29 08:52:37.093750,-17.82,45.93
14884,2018-06-29 08:52:37.125000,-25.17,45.93
14885,2018-06-29 08:52:37.156250,-32.05,45.93
14886,2018-06-29 08:52:37.187500,-37.68,45.93
14887,2018-06-29 08:52:37.218750,-44.36,45.93
14888,2018-06-29 08:52:37.250000,-54.89,45.93
14889,2018-06-29 08:52:37.281250,-67.68,45.93
14890,2018-06-29 08:52:37.312500,-75.32,45.93
14891,2018-06-29 08:52:37.343750,-70.41,45.93
14892,2018-06-29 08:52:37.375000,-53.43,45.93
14893,2018-06-29 08:52:37.406250,-32.37,45.93
14894,2018-06-29 08:52:37.437500,-14.72,45.93
14895,2018-06-29 08:52:37.468750,-2.42,45.93
14896,2018-06-29 08:52:37.500000,6.41,45.93
14897,2018-06-29 08:52:37.531250,13.81,45.9
14898,2018-06-29 08:52:37.562500,19.83,45.9
14899,2018-06-29 08:52:37.593750,23.68,45.9
14900,2018-06-29 08:52:37.625000,26.35,45.9
14901,2018-06-29 08:52:37.656250,29.89,45.9
14902,2018-06-29 08:52:37.687500,34.36,45.9
14903,2018-06-29 08:52:37.718750,38.23,45.9
14904,2018-06-29 08:52:37.750000,40.62,45.9
14905,2018-06-29 08:52:37.781250,40.99,45.9
14906,2018-06-29 08:52:37.812500,38.81,45.9
14907,2018-06-29 08:52:37.843750,35.24,45.9
14908,2018-06-29 08:52:37.875000,32.44,45.9
14909,2018-06-29 08:52:37.906250,30.64,45.9
14910,2018-06-29 08:52:37.937500,28.47,45.9
14911,2018-06-29 08:52:37.968750,25.69,45.9
14912,2018-06-29 08:52:38.000000,23.35,45.9
14913,2018-06-29 08:52:38.031250,21.88,45.9
14914,2018-06-29 08:52:38.062500,20.39,45.9
14915,2018-06-29 08:52:38.093750,17.86,45.9
14916,2018-06-29 08:52:38.125000,14.11,45.9
14917,2018-06-29 08:52:38.156250,9.88,45.9
14918,2018-06-29 08:52:38.187500,6.14,45.9
14919,2018-06-29 08:52:38.218750,2.9,45.9
14920,2018-06-29 08:52:38.250000,-0.98,45.9
14921,2018-06-29 08:52:38.281250,-6.05,45.9
14922,2018-06-29 08:52:38.312500,-11.51,45.9
14923,2018-06-29 08:52:38.343750,-16.65,45.9
14924,2018-06-29 08:52:38.375000,-21.9,45.9
14925,2018-06-29 08:52:38.406250,-27.59,45.9
14926,2018-06-29 08:52:38.437500,-32.92,45.9
14927,2018-06-29 08:52:38.468750,-36.82,45.9
14928,2018-06-29 08:52:38.500000,-38.95,45.9
14929,2018-06-29 08:52:38.531250,-39.96,45.88
14930,2018-06-29 08:52:38.562500,-40.89,45.88
14931,2018-06-29 08:52:38.593750,-42.35,45.88
14932,2018-06-29 08:52:38.625000,-44.43,45.88
14933,2018-06-29 08:52:38.656250,-47.87,45.88
14934,2018-06-29 08:52:38.687500,-54.28,45.88
14935,2018-06-29 08:52:38.718750,-63.31,45.88
14936,2018-06-29 08:52:38.750000,-69.13,45.88
14937,2018-06-29 08:52:38.781250,-63.67,45.88
14938,2018-06-29 08:52:38.812500,-45.85,45.88
14939,2018-06-29 08:52:38.843750,-23.68,45.88
14940,2018-06-29 08:52:38.875000,-5.22,45.88
14941,2018-06-29 08:52:38.906250,7.84,45.88
14942,2018-06-29 08:52:38.937500,17.49,45.88
14943,2018-06-29 08:52:38.968750,25.69,45.88
14944,2018-06-29 08:52:39.000000,33.28,45.88
14945,2018-06-29 08:52:39.031250,39.27,45.88
14946,2018-06-29 08:52:39.062500,42.47,45.88
14947,2018-06-29 08:52:39.093750,44.01,45.88
14948,2018-06-29 08:52:39.125000,45.96,45.88
14949,2018-06-29 08:52:39.156250,48.44,45.88
14950,2018-06-29 08:52:39.187500,50.18,45.88
14951,2018-06-29 08:52:39.218750,49.88,45.88
14952,2018-06-29 08:52:39.250000,46.7,45.88
14953,2018-06-29 08:52:39.281250,41.28,45.88
14954,2018-06-29 08:52:39.312500,35.9,45.88
14955,2018-06-29 08:52:39.343750,32.08,45.88
14956,2018-06-29 08:52:39.375000,29.52,45.88
14957,2018-06-29 08:52:39.406250,27.87,45.88
14958,2018-06-29 08:52:39.437500,26.92,45.88
14959,2018-06-29 08:52:39.468750,25.83,45.88
14960,2018-06-29 08:52:39.500000,24.22,45.88
14961,2018-06-29 08:52:39.531250,22.45,45.87
14962,2018-06-29 08:52:39.562500,20.39,45.87
14963,2018-06-29 08:52:39.593750,17.84,45.87
14964,2018-06-29 08:52:39.625000,15.44,45.87
14965,2018-06-29 08:52:39.656250,13.55,45.87
14966,2018-06-29 08:52:39.687500,11.67,45.87
14967,2018-06-29 08:52:39.718750,9.31,45.87
14968,2018-06-29 08:52:39.750000,6.28,45.87
14969,2018-06-29 08:52:39.781250,2.83,45.87
14970,2018-06-29 08:52:39.812500,-0.64,45.87
14971,2018-06-29 08:52:39.843750,-4.27,45.87
14972,2018-06-29 08:52:39.875000,-8.42,45.87
14973,2018-06-29 08:52:39.906250,-12.82,45.87
14974,2018-06-29 08:52:39.937500,-17.24,45.87
14975,2018-06-29 08:52:39.968750,-22.1,45.87
14976,2018-06-29 08:52:40.000000,-27.67,45.87
14977,2018-06-29 08:52:40.031250,-33.56,45.87
14978,2018-06-29 08:52:40.062500,-39.45,45.87
14979,2018-06-29 08:52:40.093750,-45.96,45.87
14980,2018-06-29 08:52:40.125000,-54.52,45.87
14981,2018-06-29 08:52:40.156250,-66.04,45.87
14982,2018-06-29 08:52:40.187500,-77.55,45.87
14983,2018-06-29 08:52:40.218750,-81.27,45.87
14984,2018-06-29 08:52:40.250000,-71.39,45.87
14985,2018-06-29 08:52:40.281250,-51.37,45.87
14986,2018-06-29 08:52:40.312500,-30.45,45.87
14987,2018-06-29 08:52:40.343750,-14.5,45.87
14988,2018-06-29 08:52:40.375000,-3.17,45.87
14989,2018-06-29 08:52:40.406250,6.25,45.87
14990,2018-06-29 08:52:40.437500,14.74,45.87
14991,2018-06-29 08:52:40.468750,21.55,45.87
14992,2018-06-29 08:52:40.500000,26.73,45.87
14993,2018-06-29 08:52:40.531250,31.34,45.83
14994,2018-06-29 08:52:40.562500,35.58,45.83
14995,2018-06-29 08:52:40.593750,39.09,45.83
14996,2018-06-29 08:52:40.625000,41.75,45.83
14997,2018-06-29 08:52:40.656250,42.91,45.83
14998,2018-06-29 08:52:40.687500,41.96,45.83
14999,2018-06-29 08:52:40.718750,39.7,45.83
15000,2018-06-29 08:52:40.750000,37.13,45.83
15001,2018-06-29 08:52:40.781250,34.2,45.83
15002,2018-06-29 08:52:40.812500,31.05,45.83
15003,2018-06-29 08:52:40.843750,28.65,45.83
15004,2018-06-29 08:52:40.875000,27.41,45.83
15005,2018-06-29 08:52:40.906250,26.5,45.83
15006,2018-06-29 08:52:40.937500,25.02,45.83
15007,2018-06-29 08:52:40.968750,23.05,45.83
15008,2018-06-29 08:52:41.000000,21.0,45.83
15009,2018-06-29 08:52:41.031250,18.55,45.83
15010,2018-06-29 08:52:41.062500,15.28,45.83
15011,2018-06-29 08:52:41.093750,11.67,45.83
15012,2018-06-29 08:52:41.125000,8.54,45.83
15013,2018-06-29 08:52:41.156250,5.74,45.83
15014,2018-06-29 08:52:41.187500,2.37,45.83
15015,2018-06-29 08:52:41.218750,-1.64,45.83
15016,2018-06-29 08:52:41.250000,-5.52,45.83
15017,2018-06-29 08:52:41.281250,-9.28,45.83
15018,2018-06-29 08:52:41.312500,-14.04,45.83
15019,2018-06-29 08:52:41.343750,-20.21,45.83
15020,2018-06-29 08:52:41.375000,-26.54,45.83
15021,2018-06-29 08:52:41.406250,-31.84,45.83
15022,2018-06-29 08:52:41.437500,-36.68,45.83
15023,2018-06-29 08:52:41.468750,-43.0,45.83
15024,2018-06-29 08:52:41.500000,-52.64,45.83
15025,2018-06-29 08:52:41.531250,-64.86,45.82
15026,2018-06-29 08:52:41.562500,-73.68,45.82
15027,2018-06-29 08:52:41.593750,-70.72,45.82
15028,2018-06-29 08:52:41.625000,-54.46,45.82
15029,2018-06-29 08:52:41.656250,-33.07,45.82
15030,2018-06-29 08:52:41.687500,-15.47,45.82
15031,2018-06-29 08:52:41.718750,-3.53,45.82
15032,2018-06-29 08:52:41.750000,5.32,45.82
15033,2018-06-29 08:52:41.781250,12.02,45.82
15034,2018-06-29 08:52:41.812500,15.55,45.82
15035,2018-06-29 08:52:41.843750,16.86,45.82
15036,2018-06-29 08:52:41.875000,19.12,45.82
15037,2018-06-29 08:52:41.906250,23.36,45.82
15038,2018-06-29 08:52:41.937500,27.48,45.82
15039,2018-06-29 08:52:41.968750,30.47,45.82
15040,2018-06-29 08:52:42.000000,33.13,45.82
15041,2018-06-29 08:52:42.031250,34.72,45.82
15042,2018-06-29 08:52:42.062500,33.55,45.82
15043,2018-06-29 08:52:42.093750,30.19,45.82
15044,2018-06-29 08:52:42.125000,26.97,45.82
15045,2018-06-29 08:52:42.156250,25.03,45.82
15046,2018-06-29 08:52:42.187500,23.63,45.82
15047,2018-06-29 08:52:42.218750,21.77,45.82
15048,2018-06-29 08:52:42.250000,19.41,45.82
15049,2018-06-29 08:52:42.281250,17.03,45.82
15050,2018-06-29 08:52:42.312500,14.75,45.82
15051,2018-06-29 08:52:42.343750,12.06,45.82
15052,2018-06-29 08:52:42.375000,8.53,45.82
15053,2018-06-29 08:52:42.406250,4.32,45.82
15054,2018-06-29 08:52:42.437500,0.02,45.82
15055,2018-06-29 08:52:42.468750,-3.97,45.82
15056,2018-06-29 08:52:42.500000,-8.08,45.82
15057,2018-06-29 08:52:42.531250,-13.35,45.8
15058,2018-06-29 08:52:42.562500,-20.13,45.8
15059,2018-06-29 08:52:42.593750,-27.23,45.8
15060,2018-06-29 08:52:42.625000,-33.47,45.8
15061,2018-06-29 08:52:42.656250,-39.7,45.8
15062,2018-06-29 08:52:42.687500,-48.43,45.8
15063,2018-06-29 08:52:42.718750,-60.05,45.8
15064,2018-06-29 08:52:42.750000,-69.08,45.8
15065,2018-06-29 08:52:42.781250,-67.54,45.8
15066,2018-06-29 08:52:42.812500,-53.69,45.8
15067,2018-06-29 08:52:42.843750,-34.08,45.8
15068,2018-06-29 08:52:42.875000,-16.1,45.8
15069,2018-06-29 08:52:42.906250,-2.22,45.8
15070,2018-06-29 08:52:42.937500,8.14,45.8
15071,2018-06-29 08:52:42.968750,15.18,45.8
15072,2018-06-29 08:52:43.000000,19.3,45.8
15073,2018-06-29 08:52:43.031250,22.04,45.8
15074,2018-06-29 08:52:43.062500,24.95,45.8
15075,2018-06-29 08:52:43.093750,28.11,45.8
15076,2018-06-29 08:52:43.125000,31.27,45.8
15077,2018-06-29 08:52:43.156250,34.66,45.8
15078,2018-06-29 08:52:43.187500,37.69,45.8
15079,2018-06-29 08:52:43.218750,38.74,45.8
15080,2018-06-29 08:52:43.250000,37.3,45.8
15081,2018-06-29 08:52:43.281250,34.83,45.8
15082,2018-06-29 08:52:43.312500,32.89,45.8
15083,2018-06-29 08:52:43.343750,31.34,45.8
15084,2018-06-29 08:52:43.375000,29.22,45.8
15085,2018-06-29 08:52:43.406250,26.26,45.8
15086,2018-06-29 08:52:43.437500,23.25,45.8
15087,2018-06-29 08:52:43.468750,21.14,45.8
15088,2018-06-29 08:52:43.500000,19.94,45.8
15089,2018-06-29 08:52:43.531250,18.34,45.78
15090,2018-06-29 08:52:43.562500,15.22,45.78
15091,2018-06-29 08:52:43.593750,11.36,45.78
15092,2018-06-29 08:52:43.625000,8.27,45.78
15093,2018-06-29 08:52:43.656250,5.69,45.78
15094,2018-06-29 08:52:43.687500,2.3,45.78
15095,2018-06-29 08:52:43.718750,-2.08,45.78
15096,2018-06-29 08:52:43.750000,-6.38,45.78
15097,2018-06-29 08:52:43.781250,-10.03,45.78
15098,2018-06-29 08:52:43.812500,-13.82,45.78
15099,2018-06-29 08:52:43.843750,-18.86,45.78
15100,2018-06-29 08:52:43.875000,-25.27,45.78
15101,2018-06-29 08:52:43.906250,-32.09,45.78
15102,2018-06-29 08:52:43.937500,-38.61,45.78
15103,2018-06-29 08:52:43.968750,-45.14,45.78
15104,2018-06-29 08:52:44.000000,-53.02,45.78
15105,2018-06-29 08:52:44.031250,-64.07,45.78
15106,2018-06-29 08:52:44.062500,-77.09,45.78
15107,2018-06-29 08:52:44.093750,-84.42,45.78
15108,2018-06-29 08:52:44.125000,-77.76,45.78
15109,2018-06-29 08:52:44.156250,-58.51,45.78
15110,2018-06-29 08:52:44.187500,-36.45,45.78
15111,2018-06-29 08:52:44.218750,-18.69,45.78
15112,2018-06-29 08:52:44.250000,-5.5,45.78
15113,2018-06-29 08:52:44.281250,4.85,45.78
15114,2018-06-29 08:52:44.312500,13.12,45.78
15115,2018-06-29 08:52:44.343750,19.59,45.78
15116,2018-06-29 08:52:44.375000,24.44,45.78
15117,2018-06-29 08:52:44.406250,28.18,45.78
15118,2018-06-29 08:52:44.437500,31.62,45.78
15119,2018-06-29 08:52:44.468750,35.27,45.78
15120,2018-06-29 08:52:44.500000,39.13,45.78
15121,2018-06-29 08:52:44.531250,42.57,45.78
15122,2018-06-29 08:52:44.562500,44.19,45.78
15123,2018-06-29 08:52:44.593750,43.01,45.78
15124,2018-06-29 08:52:44.625000,39.97,45.78
15125,2018-06-29 08:52:44.656250,37.09,45.78
15126,2018-06-29 08:52:44.687500,35.37,45.78
15127,2018-06-29 08:52:44.718750,34.24,45.78
15128,2018-06-29 08:52:44.750000,32.91,45.78
15129,2018-06-29 08:52:44.781250,31.31,45.78
15130,2018-06-29 08:52:44.812500,29.35,45.78
15131,2018-06-29 08:52:44.843750,26.63,45.78
15132,2018-06-29 08:52:44.875000,23.3,45.78
15133,2018-06-29 08:52:44.906250,20.15,45.78
15134,2018-06-29 08:52:44.937500,17.24,45.78
15135,2018-06-29 08:52:44.968750,13.67,45.78
15136,2018-06-29 08:52:45.000000,9.33,45.78
15137,2018-06-29 08:52:45.031250,5.39,45.78
15138,2018-06-29 08:52:45.062500,2.48,45.78
15139,2018-06-29 08:52:45.093750,-0.07,45.78
15140,2018-06-29 08:52:45.125000,-3.16,45.78
15141,2018-06-29 08:52:45.156250,-7.06,45.78
15142,2018-06-29 08:52:45.187500,-11.36,45.78
15143,2018-06-29 08:52:45.218750,-15.38,45.78
15144,2018-06-29 08:52:45.250000,-19.47,45.78
15145,2018-06-29 08:52:45.281250,-24.82,45.78
15146,2018-06-29 08:52:45.312500,-31.49,45.78
15147,2018-06-29 08:52:45.343750,-38.09,45.78
15148,2018-06-29 08:52:45.375000,-44.0,45.78
15149,2018-06-29 08:52:45.406250,-50.84,45.78
15150,2018-06-29 08:52:45.437500,-61.15,45.78
15151,2018-06-29 08:52:45.468750,-74.72,45.78
15152,2018-06-29 08:52:45.500000,-85.27,45.78
15153,2018-06-29 08:52:45.531250,-84.0,45.77
15154,2018-06-29 08:52:45.562500,-68.9,45.77
15155,2018-06-29 08:52:45.593750,-47.13,45.77
15156,2018-06-29 08:52:45.625000,-27.02,45.77
15157,2018-06-29 08:52:45.656250,-11.7,45.77
15158,2018-06-29 08:52:45.687500,-0.46,45.77
15159,2018-06-29 08:52:45.718750,8.39,45.77
15160,2018-06-29 08:52:45.750000,16.07,45.77
15161,2018-06-29 08:52:45.781250,22.39,45.77
15162,2018-06-29 08:52:45.812500,26.91,45.77
15163,2018-06-29 08:52:45.843750,30.52,45.77
15164,2018-06-29 08:52:45.875000,34.32,45.77
15165,2018-06-29 08:52:45.906250,38.24,45.77
15166,2018-06-29 08:52:45.937500,41.62,45.77
15167,2018-06-29 08:52:45.968750,43.91,45.77
15168,2018-06-29 08:52:46.000000,44.06,45.77
15169,2018-06-29 08:52:46.031250,41.4,45.77
15170,2018-06-29 08:52:46.062500,37.48,45.77
15171,2018-06-29 08:52:46.093750,34.82,45.77
15172,2018-06-29 08:52:46.125000,33.39,45.77
15173,2018-06-29 08:52:46.156250,31.29,45.77
15174,2018-06-29 08:52:46.187500,28.39,45.77
15175,2018-06-29 08:52:46.218750,26.26,45.77
15176,2018-06-29 08:52:46.250000,25.11,45.77
15177,2018-06-29 08:52:46.281250,23.66,45.77
15178,2018-06-29 08:52:46.312500,21.55,45.77
15179,2018-06-29 08:52:46.343750,19.33,45.77
15180,2018-06-29 08:52:46.375000,16.53,45.77
15181,2018-06-29 08:52:46.406250,12.35,45.77
15182,2018-06-29 08:52:46.437500,7.87,45.77
15183,2018-06-29 08:52:46.468750,4.65,45.77
15184,2018-06-29 08:52:46.500000,1.81,45.77
15185,2018-06-29 08:52:46.531250,-2.31,45.75
15186,2018-06-29 08:52:46.562500,-7.15,45.75
15187,2018-06-29 08:52:46.593750,-11.57,45.75
15188,2018-06-29 08:52:46.625000,-16.12,45.75
15189,2018-06-29 08:52:46.656250,-21.39,45.75
15190,2018-06-29 08:52:46.687500,-26.78,45.75
15191,2018-06-29 08:52:46.718750,-32.04,45.75
15192,2018-06-29 08:52:46.750000,-37.98,45.75
15193,2018-06-29 08:52:46.781250,-45.76,45.75
15194,2018-06-29 08:52:46.812500,-56.54,45.75
15195,2018-06-29 08:52:46.843750,-69.11,45.75
15196,2018-06-29 08:52:46.875000,-76.65,45.75
15197,2018-06-29 08:52:46.906250,-71.34,45.75
15198,2018-06-29 08:52:46.937500,-53.87,45.75
15199,2018-06-29 08:52:46.968750,-32.68,45.75
15200,2018-06-29 08:52:47.000000,-14.53,45.75
15201,2018-06-29 08:52:47.031250,-1.12,45.75
15202,2018-06-29 08:52:47.062500,7.71,45.75
15203,2018-06-29 08:52:47.093750,12.96,45.75
15204,2018-06-29 08:52:47.125000,16.1,45.75
15205,2018-06-29 08:52:47.156250,18.1,45.75
15206,2018-06-29 08:52:47.187500,19.95,45.75
15207,2018-06-29 08:52:47.218750,23.17,45.75
15208,2018-06-29 08:52:47.250000,27.95,45.75
15209,2018-06-29 08:52:47.281250,32.35,45.75
15210,2018-06-29 08:52:47.312500,34.49,45.75
15211,2018-06-29 08:52:47.343750,34.43,45.75
15212,2018-06-29 08:52:47.375000,33.0,45.75
15213,2018-06-29 08:52:47.406250,30.57,45.75
15214,2018-06-29 08:52:47.437500,27.65,45.75
15215,2018-06-29 08:52:47.468750,25.12,45.75
15216,2018-06-29 08:52:47.500000,23.0,45.75
15217,2018-06-29 08:52:47.531250,20.7,45.72
15218,2018-06-29 08:52:47.562500,18.36,45.72
15219,2018-06-29 08:52:47.593750,16.32,45.72
15220,2018-06-29 08:52:47.625000,14.18,45.72
15221,2018-06-29 08:52:47.656250,11.3,45.72
15222,2018-06-29 08:52:47.687500,7.71,45.72
15223,2018-06-29 08:52:47.718750,4.13,45.72
15224,2018-06-29 08:52:47.750000,0.97,45.72
15225,2018-06-29 08:52:47.781250,-2.96,45.72
15226,2018-06-29 08:52:47.812500,-8.92,45.72
15227,2018-06-29 08:52:47.843750,-15.91,45.72
15228,2018-06-29 08:52:47.875000,-22.04,45.72
15229,2018-06-29 08:52:47.906250,-27.45,45.72
15230,2018-06-29 08:52:47.937500,-33.87,45.72
15231,2018-06-29 08:52:47.968750,-42.83,45.72
15232,2018-06-29 08:52:48.000000,-54.63,45.72
15233,2018-06-29 08:52:48.031250,-65.39,45.72
15234,2018-06-29 08:52:48.062500,-67.13,45.72
15235,2018-06-29 08:52:48.093750,-55.56,45.72
15236,2018-06-29 08:52:48.125000,-35.66,45.72
15237,2018-06-29 08:52:48.156250,-16.38,45.72
15238,2018-06-29 08:52:48.187500,-2.37,45.72
15239,2018-06-29 08:52:48.218750,7.44,45.72
15240,2018-06-29 08:52:48.250000,14.93,45.72
15241,2018-06-29 08:52:48.281250,19.73,45.72
15242,2018-06-29 08:52:48.312500,21.69,45.72
15243,2018-06-29 08:52:48.343750,23.4,45.72
15244,2018-06-29 08:52:48.375000,27.14,45.72
15245,2018-06-29 08:52:48.406250,31.87,45.72
15246,2018-06-29 08:52:48.437500,35.63,45.72
15247,2018-06-29 08:52:48.468750,37.71,45.72
15248,2018-06-29 08:52:48.500000,37.65,45.72
15249,2018-06-29 08:52:48.531250,35.42,45.67
15250,2018-06-29 08:52:48.562500,32.07,45.67
15251,2018-06-29 08:52:48.593750,28.69,45.67
15252,2018-06-29 08:52:48.625000,25.52,45.67
15253,2018-06-29 08:52:48.656250,22.68,45.67
15254,2018-06-29 08:52:48.687500,20.35,45.67
15255,2018-06-29 08:52:48.718750,18.28,45.67
15256,2018-06-29 08:52:48.750000,16.14,45.67
15257,2018-06-29 08:52:48.781250,13.83,45.67
15258,2018-06-29 08:52:48.812500,11.12,45.67
15259,2018-06-29 08:52:48.843750,7.79,45.67
15260,2018-06-29 08:52:48.875000,3.62,45.67
15261,2018-06-29 08:52:48.906250,-1.59,45.67
15262,2018-06-29 08:52:48.937500,-7.39,45.67
15263,2018-06-29 08:52:48.968750,-12.91,45.67
15264,2018-06-29 08:52:49.000000,-18.35,45.67
15265,2018-06-29 08:52:49.031250,-24.65,45.67
15266,2018-06-29 08:52:49.062500,-31.38,45.67
15267,2018-06-29 08:52:49.093750,-37.72,45.67
15268,2018-06-29 08:52:49.125000,-44.49,45.67
15269,2018-06-29 08:52:49.156250,-53.87,45.67
15270,2018-06-29 08:52:49.187500,-66.8,45.67
15271,2018-06-29 08:52:49.218750,-79.74,45.67
15272,2018-06-29 08:52:49.250000,-84.44,45.67
15273,2018-06-29 08:52:49.281250,-75.17,45.67
15274,2018-06-29 08:52:49.312500,-55.22,45.67
15275,2018-06-29 08:52:49.343750,-33.29,45.67
15276,2018-06-29 08:52:49.375000,-15.4,45.67
15277,2018-06-29 08:52:49.406250,-2.37,45.67
15278,2018-06-29 08:52:49.437500,7.76,45.67
15279,2018-06-29 08:52:49.468750,16.66,45.67
15280,2018-06-29 08:52:49.500000,24.38,45.67
15281,2018-06-29 08:52:49.531250,30.28,45.62
15282,2018-06-29 08:52:49.562500,34.37,45.62
15283,2018-06-29 08:52:49.593750,37.43,45.62
15284,2018-06-29 08:52:49.625000,40.61,45.62
15285,2018-06-29 08:52:49.656250,44.24,45.62
15286,2018-06-29 08:52:49.687500,46.96,45.62
15287,2018-06-29 08:52:49.718750,47.05,45.62
15288,2018-06-29 08:52:49.750000,44.32,45.62
15289,2018-06-29 08:52:49.781250,40.43,45.62
15290,2018-06-29 08:52:49.812500,37.44,45.62
15291,2018-06-29 08:52:49.843750,35.68,45.62
15292,2018-06-29 08:52:49.875000,33.69,45.62
15293,2018-06-29 08:52:49.906250,30.64,45.62
15294,2018-06-29 08:52:49.937500,27.39,45.62
15295,2018-06-29 08:52:49.968750,24.72,45.62
15296,2018-06-29 08:52:50.000000,22.19,45.62
15297,2018-06-29 08:52:50.031250,18.65,45.62
15298,2018-06-29 08:52:50.062500,14.11,45.62
15299,2018-06-29 08:52:50.093750,10.21,45.62
15300,2018-06-29 08:52:50.125000,7.52,45.62
15301,2018-06-29 08:52:50.156250,3.89,45.62
15302,2018-06-29 08:52:50.187500,-1.9,45.62
15303,2018-06-29 08:52:50.218750,-7.59,45.62
15304,2018-06-29 08:52:50.250000,-11.4,45.62
15305,2018-06-29 08:52:50.281250,-15.21,45.62
15306,2018-06-29 08:52:50.312500,-21.22,45.62
15307,2018-06-29 08:52:50.343750,-28.88,45.62
15308,2018-06-29 08:52:50.375000,-36.53,45.62
15309,2018-06-29 08:52:50.406250,-43.63,45.62
15310,2018-06-29 08:52:50.437500,-51.32,45.62
15311,2018-06-29 08:52:50.468750,-61.73,45.62
15312,2018-06-29 08:52:50.500000,-74.87,45.62
15313,2018-06-29 08:52:50.531250,-84.77,45.57
15314,2018-06-29 08:52:50.562500,-82.47,45.57
15315,2018-06-29 08:52:50.593750,-65.7,45.57
15316,2018-06-29 08:52:50.625000,-42.27,45.57
15317,2018-06-29 08:52:50.656250,-21.65,45.57
15318,2018-06-29 08:52:50.687500,-6.75,45.57
15319,2018-06-29 08:52:50.718750,4.58,45.57
15320,2018-06-29 08:52:50.750000,14.19,45.57
15321,2018-06-29 08:52:50.781250,22.07,45.57
15322,2018-06-29 08:52:50.812500,27.6,45.57
15323,2018-06-29 08:52:50.843750,31.01,45.57
15324,2018-06-29 08:52:50.875000,33.58,45.57
15325,2018-06-29 08:52:50.906250,36.78,45.57
15326,2018-06-29 08:52:50.937500,41.01,45.57
15327,2018-06-29 08:52:50.968750,44.91,45.57
15328,2018-06-29 08:52:51.000000,46.13,45.57
15329,2018-06-29 08:52:51.031250,44.12,45.57
15330,2018-06-29 08:52:51.062500,41.15,45.57
15331,2018-06-29 08:52:51.093750,38.98,45.57
15332,2018-06-29 08:52:51.125000,36.72,45.57
15333,2018-06-29 08:52:51.156250,33.52,45.57
15334,2018-06-29 08:52:51.187500,30.44,45.57
15335,2018-06-29 08:52:51.218750,28.27,45.57
15336,2018-06-29 08:52:51.250000,26.32,45.57
15337,2018-06-29 08:52:51.281250,24.11,45.57
15338,2018-06-29 08:52:51.312500,21.92,45.57
15339,2018-06-29 08:52:51.343750,19.42,45.57
15340,2018-06-29 08:52:51.375000,15.95,45.57
15341,2018-06-29 08:52:51.406250,12.0,45.57
15342,2018-06-29 08:52:51.437500,8.47,45.57
15343,2018-06-29 08:52:51.468750,4.71,45.57
15344,2018-06-29 08:52:51.500000,-0.25,45.57
15345,2018-06-29 08:52:51.531250,-5.3,45.53
15346,2018-06-29 08:52:51.562500,-8.83,45.53
15347,2018-06-29 08:52:51.593750,-12.01,45.53
15348,2018-06-29 08:52:51.625000,-17.32,45.53
15349,2018-06-29 08:52:51.656250,-24.81,45.53
15350,2018-06-29 08:52:51.687500,-32.24,45.53
15351,2018-06-29 08:52:51.718750,-38.44,45.53
15352,2018-06-29 08:52:51.750000,-44.58,45.53
15353,2018-06-29 08:52:51.781250,-53.22,45.53
15354,2018-06-29 08:52:51.812500,-65.72,45.53
15355,2018-06-29 08:52:51.843750,-77.84,45.53
15356,2018-06-29 08:52:51.875000,-80.06,45.53
15357,2018-06-29 08:52:51.906250,-67.12,45.53
15358,2018-06-29 08:52:51.937500,-44.75,45.53
15359,2018-06-29 08:52:51.968750,-23.11,45.53
15360,2018-06-29 08:52:52.000000,-7.11,45.53
15361,2018-06-29 08:52:52.031250,3.96,45.53
15362,2018-06-29 08:52:52.062500,12.01,45.53
15363,2018-06-29 08:52:52.093750,17.92,45.53
15364,2018-06-29 08:52:52.125000,21.59,45.53
15365,2018-06-29 08:52:52.156250,23.57,45.53
15366,2018-06-29 08:52:52.187500,25.83,45.53
15367,2018-06-29 08:52:52.218750,29.82,45.53
15368,2018-06-29 08:52:52.250000,34.74,45.53
15369,2018-06-29 08:52:52.281250,38.57,45.53
15370,2018-06-29 08:52:52.312500,39.71,45.53
15371,2018-06-29 08:52:52.343750,37.82,45.53
15372,2018-06-29 08:52:52.375000,34.04,45.53
15373,2018-06-29 08:52:52.406250,30.36,45.53
15374,2018-06-29 08:52:52.437500,27.81,45.53
15375,2018-06-29 08:52:52.468750,25.52,45.53
15376,2018-06-29 08:52:52.500000,22.34,45.53
15377,2018-06-29 08:52:52.531250,18.67,45.5
15378,2018-06-29 08:52:52.562500,15.46,45.5
15379,2018-06-29 08:52:52.593750,12.25,45.5
15380,2018-06-29 08:52:52.625000,7.97,45.5
15381,2018-06-29 08:52:52.656250,3.09,45.5
15382,2018-06-29 08:52:52.687500,-1.12,45.5
15383,2018-06-29 08:52:52.718750,-5.02,45.5
15384,2018-06-29 08:52:52.750000,-10.36,45.5
15385,2018-06-29 08:52:52.781250,-17.4,45.5
15386,2018-06-29 08:52:52.812500,-24.32,45.5
15387,2018-06-29 08:52:52.843750,-30.38,45.5
15388,2018-06-29 08:52:52.875000,-37.12,45.5
15389,2018-06-29 08:52:52.906250,-46.48,45.5
15390,2018-06-29 08:52:52.937500,-58.13,45.5
15391,2018-06-29 08:52:52.968750,-66.9,45.5
15392,2018-06-29 08:52:53.000000,-64.8,45.5
15393,2018-06-29 08:52:53.031250,-49.79,45.5
15394,2018-06-29 08:52:53.062500,-29.04,45.5
15395,2018-06-29 08:52:53.093750,-10.45,45.5
15396,2018-06-29 08:52:53.125000,3.86,45.5
15397,2018-06-29 08:52:53.156250,14.27,45.5
15398,2018-06-29 08:52:53.187500,20.57,45.5
15399,2018-06-29 08:52:53.218750,23.49,45.5
15400,2018-06-29 08:52:53.250000,25.17,45.5
15401,2018-06-29 08:52:53.281250,27.46,45.5
15402,2018-06-29 08:52:53.312500,31.04,45.5
15403,2018-06-29 08:52:53.343750,35.47,45.5
15404,2018-06-29 08:52:53.375000,39.45,45.5
15405,2018-06-29 08:52:53.406250,41.41,45.5
15406,2018-06-29 08:52:53.437500,40.56,45.5
15407,2018-06-29 08:52:53.468750,37.44,45.5
15408,2018-06-29 08:52:53.500000,33.66,45.5
15409,2018-06-29 08:52:53.531250,30.54,45.45
15410,2018-06-29 08:52:53.562500,28.13,45.45
15411,2018-06-29 08:52:53.593750,25.76,45.45
15412,2018-06-29 08:52:53.625000,23.2,45.45
15413,2018-06-29 08:52:53.656250,20.67,45.45
15414,2018-06-29 08:52:53.687500,18.1,45.45
15415,2018-06-29 08:52:53.718750,15.26,45.45
15416,2018-06-29 08:52:53.750000,12.22,45.45
15417,2018-06-29 08:52:53.781250,8.6,45.45
15418,2018-06-29 08:52:53.812500,3.56,45.45
15419,2018-06-29 08:52:53.843750,-2.54,45.45
15420,2018-06-29 08:52:53.875000,-8.07,45.45
15421,2018-06-29 08:52:53.906250,-12.67,45.45
15422,2018-06-29 08:52:53.937500,-18.08,45.45
15423,2018-06-29 08:52:53.968750,-25.26,45.45
15424,2018-06-29 08:52:54.000000,-32.48,45.45
15425,2018-06-29 08:52:54.031250,-38.14,45.45
15426,2018-06-29 08:52:54.062500,-43.96,45.45
15427,2018-06-29 08:52:54.093750,-53.31,45.45
15428,2018-06-29 08:52:54.125000,-67.02,45.45
15429,2018-06-29 08:52:54.156250,-80.39,45.45
15430,2018-06-29 08:52:54.187500,-84.42,45.45
15431,2018-06-29 08:52:54.218750,-73.54,45.45
15432,2018-06-29 08:52:54.250000,-52.31,45.45
15433,2018-06-29 08:52:54.281250,-30.71,45.45
15434,2018-06-29 08:52:54.312500,-13.9,45.45
15435,2018-06-29 08:52:54.343750,-0.59,45.45
15436,2018-06-29 08:52:54.375000,11.13,45.45
15437,2018-06-29 08:52:54.406250,20.64,45.45
15438,2018-06-29 08:52:54.437500,26.96,45.45
15439,2018-06-29 08:52:54.468750,31.06,45.45
15440,2018-06-29 08:52:54.500000,34.71,45.45
15441,2018-06-29 08:52:54.531250,38.25,45.43
15442,2018-06-29 08:52:54.562500,41.02,45.43
15443,2018-06-29 08:52:54.593750,43.03,45.43
15444,2018-06-29 08:52:54.625000,44.26,45.43
15445,2018-06-29 08:52:54.656250,43.85,45.43
15446,2018-06-29 08:52:54.687500,41.34,45.43
15447,2018-06-29 08:52:54.718750,37.7,45.43
15448,2018-06-29 08:52:54.750000,34.27,45.43
15449,2018-06-29 08:52:54.781250,31.58,45.43
15450,2018-06-29 08:52:54.812500,29.47,45.43
15451,2018-06-29 08:52:54.843750,27.55,45.43
15452,2018-06-29 08:52:54.875000,25.45,45.43
15453,2018-06-29 08:52:54.906250,23.21,45.43
15454,2018-06-29 08:52:54.937500,21.01,45.43
15455,2018-06-29 08:52:54.968750,18.55,45.43
15456,2018-06-29 08:52:55.000000,15.58,45.43
15457,2018-06-29 08:52:55.031250,12.58,45.43
15458,2018-06-29 08:52:55.062500,9.73,45.43
15459,2018-06-29 08:52:55.093750,6.26,45.43
15460,2018-06-29 08:52:55.125000,1.77,45.43
15461,2018-06-29 08:52:55.156250,-3.03,45.43
15462,2018-06-29 08:52:55.187500,-7.51,45.43
15463,2018-06-29 08:52:55.218750,-11.65,45.43
15464,2018-06-29 08:52:55.250000,-16.13,45.43
15465,2018-06-29 08:52:55.281250,-22.14,45.43
15466,2018-06-29 08:52:55.312500,-29.78,45.43
15467,2018-06-29 08:52:55.343750,-37.21,45.43
