,Time,ppg,hr
131200,2018-06-29 09:53:12.000000,5.19,60.88
131201,2018-06-29 09:53:12.031250,1.78,60.88
131202,2018-06-29 09:53:12.062500,-1.12,60.88
131203,2018-06-29 09:53:12.093750,-3.64,60.88
131204,2018-06-29 09:53:12.125000,-6.65,60.88
131205,2018-06-29 09:53:12.156250,-10.7,60.88
131206,2018-06-29 09:53:12.187500,-15.49,60.88
131207,2018-06-29 09:53:12.218750,-20.69,60.88
131208,2018-06-29 09:53:12.250000,-25.77,60.88
131209,2018-06-29 09:53:12.281250,-29.91,60.88
131210,2018-06-29 09:53:12.312500,-33.59,60.88
131211,2018-06-29 09:53:12.343750,-38.16,60.88
131212,2018-06-29 09:53:12.375000,-42.55,60.88
131213,2018-06-29 09:53:12.406250,-42.73,60.88
131214,2018-06-29 09:53:12.437500,-36.11,60.88
131215,2018-06-29 09:53:12.468750,-24.22,60.88
131216,2018-06-29 09:53:12.500000,-10.6,60.88
131217,2018-06-29 09:53:12.531250,2.19,61.22
131218,2018-06-29 09:53:12.562500,13.29,61.22
131219,2018-06-29 09:53:12.593750,22.23,61.22
131220,2018-06-29 09:53:12.625000,28.01,61.22
131221,2018-06-29 09:53:12.656250,30.01,61.22
131222,2018-06-29 09:53:12.687500,29.04,61.22
131223,2018-06-29 09:53:12.718750,26.73,61.22
131224,2018-06-29 09:53:12.750000,24.55,61.22
131225,2018-06-29 09:53:12.781250,23.19,61.22
131226,2018-06-29 09:53:12.812500,22.05,61.22
131227,2018-06-29 09:53:12.843750,20.19,61.22
131228,2018-06-29 09:53:12.875000,17.65,61.22
131229,2018-06-29 09:53:12.906250,14.9,61.22
131230,2018-06-29 09:53:12.937500,12.25,61.22
131231,2018-06-29 09:53:12.968750,10.3,61.22
131232,2018-06-29 09:53:13.000000,9.63,61.22
131233,2018-06-29 09:53:13.031250,9.82,61.22
131234,2018-06-29 09:53:13.062500,10.16,61.22
131235,2018-06-29 09:53:13.093750,10.27,61.22
131236,2018-06-29 09:53:13.125000,9.82,61.22
131237,2018-06-29 09:53:13.156250,8.62,61.22
131238,2018-06-29 09:53:13.187500,6.65,61.22
131239,2018-06-29 09:53:13.218750,3.86,61.22
131240,2018-06-29 09:53:13.250000,0.72,61.22
131241,2018-06-29 09:53:13.281250,-1.72,61.22
131242,2018-06-29 09:53:13.312500,-2.91,61.22
131243,2018-06-29 09:53:13.343750,-2.95,61.22
131244,2018-06-29 09:53:13.375000,-2.23,61.22
131245,2018-06-29 09:53:13.406250,-1.48,61.22
131246,2018-06-29 09:53:13.437500,-1.32,61.22
131247,2018-06-29 09:53:13.468750,-1.67,61.22
131248,2018-06-29 09:53:13.500000,-2.23,61.22
131249,2018-06-29 09:53:13.531250,-3.29,61.57
131250,2018-06-29 09:53:13.562500,-5.13,61.57
131251,2018-06-29 09:53:13.593750,-7.53,61.57
131252,2018-06-29 09:53:13.625000,-9.98,61.57
131253,2018-06-29 09:53:13.656250,-12.29,61.57
131254,2018-06-29 09:53:13.687500,-15.55,61.57
131255,2018-06-29 09:53:13.718750,-21.56,61.57
131256,2018-06-29 09:53:13.750000,-29.78,61.57
131257,2018-06-29 09:53:13.781250,-35.99,61.57
131258,2018-06-29 09:53:13.812500,-36.03,61.57
131259,2018-06-29 09:53:13.843750,-30.18,61.57
131260,2018-06-29 09:53:13.875000,-21.91,61.57
131261,2018-06-29 09:53:13.906250,-13.73,61.57
131262,2018-06-29 09:53:13.937500,-6.11,61.57
131263,2018-06-29 09:53:13.968750,0.38,61.57
131264,2018-06-29 09:53:14.000000,4.86,61.57
131265,2018-06-29 09:53:14.031250,7.81,61.57
131266,2018-06-29 09:53:14.062500,10.67,61.57
131267,2018-06-29 09:53:14.093750,13.72,61.57
131268,2018-06-29 09:53:14.125000,16.54,61.57
131269,2018-06-29 09:53:14.156250,19.71,61.57
131270,2018-06-29 09:53:14.187500,23.38,61.57
131271,2018-06-29 09:53:14.218750,25.57,61.57
131272,2018-06-29 09:53:14.250000,24.21,61.57
131273,2018-06-29 09:53:14.281250,19.36,61.57
131274,2018-06-29 09:53:14.312500,12.63,61.57
131275,2018-06-29 09:53:14.343750,5.55,61.57
131276,2018-06-29 09:53:14.375000,-0.3,61.57
131277,2018-06-29 09:53:14.406250,-3.16,61.57
131278,2018-06-29 09:53:14.437500,-2.67,61.57
131279,2018-06-29 09:53:14.468750,-0.98,61.57
131280,2018-06-29 09:53:14.500000,-0.47,61.57
131281,2018-06-29 09:53:14.531250,-1.46,61.95
131282,2018-06-29 09:53:14.562500,-3.41,61.95
131283,2018-06-29 09:53:14.593750,-6.73,61.95
131284,2018-06-29 09:53:14.625000,-11.46,61.95
131285,2018-06-29 09:53:14.656250,-16.26,61.95
131286,2018-06-29 09:53:14.687500,-19.38,61.95
131287,2018-06-29 09:53:14.718750,-19.72,61.95
131288,2018-06-29 09:53:14.750000,-17.63,61.95
131289,2018-06-29 09:53:14.781250,-15.54,61.95
131290,2018-06-29 09:53:14.812500,-16.26,61.95
131291,2018-06-29 09:53:14.843750,-20.51,61.95
131292,2018-06-29 09:53:14.875000,-26.25,61.95
131293,2018-06-29 09:53:14.906250,-29.89,61.95
131294,2018-06-29 09:53:14.937500,-29.89,61.95
131295,2018-06-29 09:53:14.968750,-28.2,61.95
131296,2018-06-29 09:53:15.000000,-26.87,61.95
131297,2018-06-29 09:53:15.031250,-24.3,61.95
131298,2018-06-29 09:53:15.062500,-17.64,61.95
131299,2018-06-29 09:53:15.093750,-6.96,61.95
131300,2018-06-29 09:53:15.125000,4.86,61.95
131301,2018-06-29 09:53:15.156250,16.03,61.95
131302,2018-06-29 09:53:15.187500,29.64,61.95
131303,2018-06-29 09:53:15.218750,50.65,61.95
131304,2018-06-29 09:53:15.250000,78.57,61.95
131305,2018-06-29 09:53:15.281250,104.18,61.95
131306,2018-06-29 09:53:15.312500,119.23,61.95
131307,2018-06-29 09:53:15.343750,123.27,61.95
131308,2018-06-29 09:53:15.375000,117.98,61.95
131309,2018-06-29 09:53:15.406250,100.08,61.95
131310,2018-06-29 09:53:15.437500,65.76,61.95
131311,2018-06-29 09:53:15.468750,21.44,61.95
131312,2018-06-29 09:53:15.500000,-22.52,61.95
131313,2018-06-29 09:53:15.531250,-64.41,62.32
131314,2018-06-29 09:53:15.562500,-114.16,62.32
131315,2018-06-29 09:53:15.593750,-174.96,62.32
131316,2018-06-29 09:53:15.625000,-236.36,62.32
131317,2018-06-29 09:53:15.656250,-281.14,62.32
131318,2018-06-29 09:53:15.687500,-265.86,62.32
131319,2018-06-29 09:53:15.718750,-183.02,62.32
131320,2018-06-29 09:53:15.750000,-79.68,62.32
131321,2018-06-29 09:53:15.781250,7.67,62.32
131322,2018-06-29 09:53:15.812500,74.79,62.32
131323,2018-06-29 09:53:15.843750,120.57,62.32
131324,2018-06-29 09:53:15.875000,142.88,62.32
131325,2018-06-29 09:53:15.906250,150.03,62.32
131326,2018-06-29 09:53:15.937500,158.38,62.32
131327,2018-06-29 09:53:15.968750,173.59,62.32
131328,2018-06-29 09:53:16.000000,181.63,62.32
131329,2018-06-29 09:53:16.031250,165.67,62.32
131330,2018-06-29 09:53:16.062500,124.72,62.32
131331,2018-06-29 09:53:16.093750,80.41,62.32
131332,2018-06-29 09:53:16.125000,49.82,62.32
131333,2018-06-29 09:53:16.156250,31.87,62.32
131334,2018-06-29 09:53:16.187500,22.44,62.32
131335,2018-06-29 09:53:16.218750,26.84,62.32
131336,2018-06-29 09:53:16.250000,47.69,62.32
131337,2018-06-29 09:53:16.281250,72.13,62.32
131338,2018-06-29 09:53:16.312500,78.89,62.32
131339,2018-06-29 09:53:16.343750,63.0,62.32
131340,2018-06-29 09:53:16.375000,52.45,62.32
131341,2018-06-29 09:53:16.406250,78.26,62.32
131342,2018-06-29 09:53:16.437500,137.0,62.32
131343,2018-06-29 09:53:16.468750,190.65,62.32
131344,2018-06-29 09:53:16.500000,204.54,62.32
131345,2018-06-29 09:53:16.531250,171.8,62.75
131346,2018-06-29 09:53:16.562500,109.84,62.75
131347,2018-06-29 09:53:16.593750,42.39,62.75
131348,2018-06-29 09:53:16.625000,-15.6,62.75
131349,2018-06-29 09:53:16.656250,-64.46,62.75
131350,2018-06-29 09:53:16.687500,-110.55,62.75
131351,2018-06-29 09:53:16.718750,-150.5,62.75
131352,2018-06-29 09:53:16.750000,-177.43,62.75
131353,2018-06-29 09:53:16.781250,-202.29,62.75
131354,2018-06-29 09:53:16.812500,-241.19,62.75
131355,2018-06-29 09:53:16.843750,-277.9,62.75
131356,2018-06-29 09:53:16.875000,-274.27,62.75
131357,2018-06-29 09:53:16.906250,-219.96,62.75
131358,2018-06-29 09:53:16.937500,-142.09,62.75
131359,2018-06-29 09:53:16.968750,-69.2,62.75
131360,2018-06-29 09:53:17.000000,-10.34,62.75
131361,2018-06-29 09:53:17.031250,34.57,62.75
131362,2018-06-29 09:53:17.062500,59.7,62.75
131363,2018-06-29 09:53:17.093750,52.4,62.75
131364,2018-06-29 09:53:17.125000,5.96,62.75
131365,2018-06-29 09:53:17.156250,-68.07,62.75
131366,2018-06-29 09:53:17.187500,-145.17,62.75
131367,2018-06-29 09:53:17.218750,-204.89,62.75
131368,2018-06-29 09:53:17.250000,-236.76,62.75
131369,2018-06-29 09:53:17.281250,-238.67,62.75
131370,2018-06-29 09:53:17.312500,-218.53,62.75
131371,2018-06-29 09:53:17.343750,-184.3,62.75
131372,2018-06-29 09:53:17.375000,-127.65,62.75
131373,2018-06-29 09:53:17.406250,-36.93,62.75
131374,2018-06-29 09:53:17.437500,74.98,62.75
131375,2018-06-29 09:53:17.468750,175.73,62.75
131376,2018-06-29 09:53:17.500000,238.67,62.75
131377,2018-06-29 09:53:17.531250,255.67,63.12
131378,2018-06-29 09:53:17.562500,243.78,63.12
131379,2018-06-29 09:53:17.593750,234.27,63.12
131380,2018-06-29 09:53:17.625000,239.56,63.12
131381,2018-06-29 09:53:17.656250,251.33,63.12
131382,2018-06-29 09:53:17.687500,268.6,63.12
131383,2018-06-29 09:53:17.718750,288.08,63.12
131384,2018-06-29 09:53:17.750000,280.68,63.12
131385,2018-06-29 09:53:17.781250,221.78,63.12
131386,2018-06-29 09:53:17.812500,128.31,63.12
131387,2018-06-29 09:53:17.843750,35.52,63.12
131388,2018-06-29 09:53:17.875000,-40.45,63.12
131389,2018-06-29 09:53:17.906250,-101.54,63.12
131390,2018-06-29 09:53:17.937500,-153.07,63.12
131391,2018-06-29 09:53:17.968750,-200.85,63.12
131392,2018-06-29 09:53:18.000000,-247.72,63.12
131393,2018-06-29 09:53:18.031250,-285.07,63.12
131394,2018-06-29 09:53:18.062500,-297.89,63.12
131395,2018-06-29 09:53:18.093750,-282.78,63.12
131396,2018-06-29 09:53:18.125000,-246.79,63.12
131397,2018-06-29 09:53:18.156250,-190.15,63.12
131398,2018-06-29 09:53:18.187500,-113.0,63.12
131399,2018-06-29 09:53:18.218750,-31.08,63.12
131400,2018-06-29 09:53:18.250000,40.78,63.12
131401,2018-06-29 09:53:18.281250,104.07,63.12
131402,2018-06-29 09:53:18.312500,154.44,63.12
131403,2018-06-29 09:53:18.343750,172.15,63.12
131404,2018-06-29 09:53:18.375000,150.92,63.12
131405,2018-06-29 09:53:18.406250,108.9,63.12
131406,2018-06-29 09:53:18.437500,65.75,63.12
131407,2018-06-29 09:53:18.468750,29.9,63.12
131408,2018-06-29 09:53:18.500000,3.46,63.12
131409,2018-06-29 09:53:18.531250,-16.08,63.47
131410,2018-06-29 09:53:18.562500,-34.09,63.47
131411,2018-06-29 09:53:18.593750,-52.48,63.47
131412,2018-06-29 09:53:18.625000,-68.65,63.47
131413,2018-06-29 09:53:18.656250,-76.03,63.47
131414,2018-06-29 09:53:18.687500,-62.97,63.47
131415,2018-06-29 09:53:18.718750,-19.98,63.47
131416,2018-06-29 09:53:18.750000,50.2,63.47
131417,2018-06-29 09:53:18.781250,132.95,63.47
131418,2018-06-29 09:53:18.812500,202.27,63.47
131419,2018-06-29 09:53:18.843750,224.69,63.47
131420,2018-06-29 09:53:18.875000,186.55,63.47
131421,2018-06-29 09:53:18.906250,114.75,63.47
131422,2018-06-29 09:53:18.937500,47.78,63.47
131423,2018-06-29 09:53:18.968750,-0.79,63.47
131424,2018-06-29 09:53:19.000000,-32.28,63.47
131425,2018-06-29 09:53:19.031250,-42.62,63.47
131426,2018-06-29 09:53:19.062500,-31.5,63.47
131427,2018-06-29 09:53:19.093750,-8.18,63.47
131428,2018-06-29 09:53:19.125000,18.41,63.47
131429,2018-06-29 09:53:19.156250,38.39,63.47
131430,2018-06-29 09:53:19.187500,37.62,63.47
131431,2018-06-29 09:53:19.218750,10.16,63.47
131432,2018-06-29 09:53:19.250000,-35.35,63.47
131433,2018-06-29 09:53:19.281250,-84.68,63.47
131434,2018-06-29 09:53:19.312500,-123.17,63.47
131435,2018-06-29 09:53:19.343750,-139.07,63.47
131436,2018-06-29 09:53:19.375000,-132.83,63.47
131437,2018-06-29 09:53:19.406250,-117.9,63.47
131438,2018-06-29 09:53:19.437500,-109.37,63.47
131439,2018-06-29 09:53:19.468750,-113.62,63.47
131440,2018-06-29 09:53:19.500000,-127.57,63.47
131441,2018-06-29 09:53:19.531250,-146.45,63.82
131442,2018-06-29 09:53:19.562500,-163.42,63.82
131443,2018-06-29 09:53:19.593750,-160.28,63.82
131444,2018-06-29 09:53:19.625000,-123.11,63.82
131445,2018-06-29 09:53:19.656250,-70.6,63.82
131446,2018-06-29 09:53:19.687500,-38.6,63.82
131447,2018-06-29 09:53:19.718750,-42.33,63.82
131448,2018-06-29 09:53:19.750000,-76.63,63.82
131449,2018-06-29 09:53:19.781250,-129.01,63.82
131450,2018-06-29 09:53:19.812500,-172.76,63.82
131451,2018-06-29 09:53:19.843750,-177.78,63.82
131452,2018-06-29 09:53:19.875000,-139.13,63.82
131453,2018-06-29 09:53:19.906250,-77.17,63.82
131454,2018-06-29 09:53:19.937500,-11.27,63.82
131455,2018-06-29 09:53:19.968750,53.96,63.82
131456,2018-06-29 09:53:20.000000,114.64,63.82
131457,2018-06-29 09:53:20.031250,155.63,63.82
131458,2018-06-29 09:53:20.062500,165.57,63.82
131459,2018-06-29 09:53:20.093750,158.5,63.82
131460,2018-06-29 09:53:20.125000,169.38,63.82
131461,2018-06-29 09:53:20.156250,221.15,63.82
131462,2018-06-29 09:53:20.187500,289.35,63.82
131463,2018-06-29 09:53:20.218750,314.01,63.82
131464,2018-06-29 09:53:20.250000,269.07,63.82
131465,2018-06-29 09:53:20.281250,196.48,63.82
131466,2018-06-29 09:53:20.312500,152.52,63.82
131467,2018-06-29 09:53:20.343750,150.41,63.82
131468,2018-06-29 09:53:20.375000,164.49,63.82
131469,2018-06-29 09:53:20.406250,164.68,63.82
131470,2018-06-29 09:53:20.437500,144.83,63.82
131471,2018-06-29 09:53:20.468750,121.38,63.82
131472,2018-06-29 09:53:20.500000,101.93,63.82
131473,2018-06-29 09:53:20.531250,72.59,64.08
131474,2018-06-29 09:53:20.562500,22.79,64.08
131475,2018-06-29 09:53:20.593750,-38.95,64.08
131476,2018-06-29 09:53:20.625000,-95.99,64.08
131477,2018-06-29 09:53:20.656250,-134.43,64.08
131478,2018-06-29 09:53:20.687500,-146.73,64.08
131479,2018-06-29 09:53:20.718750,-138.62,64.08
131480,2018-06-29 09:53:20.750000,-129.89,64.08
131481,2018-06-29 09:53:20.781250,-134.78,64.08
131482,2018-06-29 09:53:20.812500,-144.26,64.08
131483,2018-06-29 09:53:20.843750,-142.13,64.08
131484,2018-06-29 09:53:20.875000,-127.94,64.08
131485,2018-06-29 09:53:20.906250,-108.95,64.08
131486,2018-06-29 09:53:20.937500,-86.93,64.08
131487,2018-06-29 09:53:20.968750,-65.9,64.08
131488,2018-06-29 09:53:21.000000,-51.9,64.08
131489,2018-06-29 09:53:21.031250,-37.76,64.08
131490,2018-06-29 09:53:21.062500,-6.88,64.08
131491,2018-06-29 09:53:21.093750,47.49,64.08
131492,2018-06-29 09:53:21.125000,115.71,64.08
131493,2018-06-29 09:53:21.156250,177.35,64.08
131494,2018-06-29 09:53:21.187500,211.55,64.08
131495,2018-06-29 09:53:21.218750,212.35,64.08
131496,2018-06-29 09:53:21.250000,193.06,64.08
131497,2018-06-29 09:53:21.281250,165.91,64.08
131498,2018-06-29 09:53:21.312500,123.22,64.08
131499,2018-06-29 09:53:21.343750,53.32,64.08
131500,2018-06-29 09:53:21.375000,-31.82,64.08
131501,2018-06-29 09:53:21.406250,-101.19,64.08
131502,2018-06-29 09:53:21.437500,-134.31,64.08
131503,2018-06-29 09:53:21.468750,-137.27,64.08
131504,2018-06-29 09:53:21.500000,-135.92,64.08
131505,2018-06-29 09:53:21.531250,-150.85,64.35
131506,2018-06-29 09:53:21.562500,-172.36,64.35
131507,2018-06-29 09:53:21.593750,-174.06,64.35
131508,2018-06-29 09:53:21.625000,-152.74,64.35
131509,2018-06-29 09:53:21.656250,-130.33,64.35
131510,2018-06-29 09:53:21.687500,-121.82,64.35
131511,2018-06-29 09:53:21.718750,-124.31,64.35
131512,2018-06-29 09:53:21.750000,-124.77,64.35
131513,2018-06-29 09:53:21.781250,-109.53,64.35
131514,2018-06-29 09:53:21.812500,-81.29,64.35
131515,2018-06-29 09:53:21.843750,-59.41,64.35
131516,2018-06-29 09:53:21.875000,-55.02,64.35
131517,2018-06-29 09:53:21.906250,-64.29,64.35
131518,2018-06-29 09:53:21.937500,-81.92,64.35
131519,2018-06-29 09:53:21.968750,-99.2,64.35
131520,2018-06-29 09:53:22.000000,-101.6,64.35
131521,2018-06-29 09:53:22.031250,-86.47,64.35
131522,2018-06-29 09:53:22.062500,-66.84,64.35
131523,2018-06-29 09:53:22.093750,-53.67,64.35
131524,2018-06-29 09:53:22.125000,-47.06,64.35
131525,2018-06-29 09:53:22.156250,-41.81,64.35
131526,2018-06-29 09:53:22.187500,-33.76,64.35
131527,2018-06-29 09:53:22.218750,-24.46,64.35
131528,2018-06-29 09:53:22.250000,-20.55,64.35
131529,2018-06-29 09:53:22.281250,-23.99,64.35
131530,2018-06-29 09:53:22.312500,-25.02,64.35
131531,2018-06-29 09:53:22.343750,-10.64,64.35
131532,2018-06-29 09:53:22.375000,22.01,64.35
131533,2018-06-29 09:53:22.406250,65.64,64.35
131534,2018-06-29 09:53:22.437500,112.18,64.35
131535,2018-06-29 09:53:22.468750,152.21,64.35
131536,2018-06-29 09:53:22.500000,169.51,64.35
131537,2018-06-29 09:53:22.531250,153.08,64.62
131538,2018-06-29 09:53:22.562500,113.07,64.62
131539,2018-06-29 09:53:22.593750,71.39,64.62
131540,2018-06-29 09:53:22.625000,37.87,64.62
131541,2018-06-29 09:53:22.656250,5.86,64.62
131542,2018-06-29 09:53:22.687500,-29.89,64.62
131543,2018-06-29 09:53:22.718750,-59.08,64.62
131544,2018-06-29 09:53:22.750000,-64.96,64.62
131545,2018-06-29 09:53:22.781250,-44.49,64.62
131546,2018-06-29 09:53:22.812500,-11.69,64.62
131547,2018-06-29 09:53:22.843750,17.55,64.62
131548,2018-06-29 09:53:22.875000,37.46,64.62
131549,2018-06-29 09:53:22.906250,48.09,64.62
131550,2018-06-29 09:53:22.937500,44.64,64.62
131551,2018-06-29 09:53:22.968750,18.55,64.62
131552,2018-06-29 09:53:23.000000,-29.24,64.62
131553,2018-06-29 09:53:23.031250,-82.04,64.62
131554,2018-06-29 09:53:23.062500,-121.36,64.62
131555,2018-06-29 09:53:23.093750,-143.87,64.62
131556,2018-06-29 09:53:23.125000,-160.26,64.62
131557,2018-06-29 09:53:23.156250,-181.28,64.62
131558,2018-06-29 09:53:23.187500,-208.19,64.62
131559,2018-06-29 09:53:23.218750,-234.31,64.62
131560,2018-06-29 09:53:23.250000,-248.81,64.62
131561,2018-06-29 09:53:23.281250,-239.98,64.62
131562,2018-06-29 09:53:23.312500,-201.8,64.62
131563,2018-06-29 09:53:23.343750,-138.26,64.62
131564,2018-06-29 09:53:23.375000,-61.22,64.62
131565,2018-06-29 09:53:23.406250,14.74,64.62
131566,2018-06-29 09:53:23.437500,75.9,64.62
131567,2018-06-29 09:53:23.468750,112.78,64.62
131568,2018-06-29 09:53:23.500000,124.52,64.62
131569,2018-06-29 09:53:23.531250,120.35,64.88
131570,2018-06-29 09:53:23.562500,114.98,64.88
131571,2018-06-29 09:53:23.593750,121.35,64.88
131572,2018-06-29 09:53:23.625000,142.2,64.88
131573,2018-06-29 09:53:23.656250,166.03,64.88
131574,2018-06-29 09:53:23.687500,177.83,64.88
131575,2018-06-29 09:53:23.718750,175.68,64.88
131576,2018-06-29 09:53:23.750000,169.41,64.88
131577,2018-06-29 09:53:23.781250,169.69,64.88
131578,2018-06-29 09:53:23.812500,186.16,64.88
131579,2018-06-29 09:53:23.843750,221.98,64.88
131580,2018-06-29 09:53:23.875000,260.01,64.88
131581,2018-06-29 09:53:23.906250,269.46,64.88
131582,2018-06-29 09:53:23.937500,237.2,64.88
131583,2018-06-29 09:53:23.968750,181.19,64.88
131584,2018-06-29 09:53:24.000000,127.97,64.88
131585,2018-06-29 09:53:24.031250,86.88,64.88
131586,2018-06-29 09:53:24.062500,53.5,64.88
131587,2018-06-29 09:53:24.093750,31.89,64.88
131588,2018-06-29 09:53:24.125000,35.1,64.88
131589,2018-06-29 09:53:24.156250,62.92,64.88
131590,2018-06-29 09:53:24.187500,96.04,64.88
131591,2018-06-29 09:53:24.218750,113.8,64.88
131592,2018-06-29 09:53:24.250000,109.17,64.88
131593,2018-06-29 09:53:24.281250,89.16,64.88
131594,2018-06-29 09:53:24.312500,65.56,64.88
131595,2018-06-29 09:53:24.343750,39.2,64.88
131596,2018-06-29 09:53:24.375000,-1.19,64.88
131597,2018-06-29 09:53:24.406250,-56.9,64.88
131598,2018-06-29 09:53:24.437500,-108.47,64.88
131599,2018-06-29 09:53:24.468750,-135.47,64.88
131600,2018-06-29 09:53:24.500000,-135.74,64.88
131601,2018-06-29 09:53:24.531250,-122.83,65.13
131602,2018-06-29 09:53:24.562500,-112.94,65.13
131603,2018-06-29 09:53:24.593750,-114.19,65.13
131604,2018-06-29 09:53:24.625000,-121.74,65.13
131605,2018-06-29 09:53:24.656250,-123.42,65.13
131606,2018-06-29 09:53:24.687500,-112.14,65.13
131607,2018-06-29 09:53:24.718750,-91.91,65.13
131608,2018-06-29 09:53:24.750000,-71.66,65.13
131609,2018-06-29 09:53:24.781250,-56.58,65.13
131610,2018-06-29 09:53:24.812500,-47.41,65.13
131611,2018-06-29 09:53:24.843750,-46.03,65.13
131612,2018-06-29 09:53:24.875000,-56.44,65.13
131613,2018-06-29 09:53:24.906250,-74.9,65.13
131614,2018-06-29 09:53:24.937500,-77.92,65.13
131615,2018-06-29 09:53:24.968750,-36.13,65.13
131616,2018-06-29 09:53:25.000000,42.37,65.13
131617,2018-06-29 09:53:25.031250,99.49,65.13
131618,2018-06-29 09:53:25.062500,86.57,65.13
131619,2018-06-29 09:53:25.093750,20.1,65.13
131620,2018-06-29 09:53:25.125000,-47.85,65.13
131621,2018-06-29 09:53:25.156250,-86.4,65.13
131622,2018-06-29 09:53:25.187500,-88.49,65.13
131623,2018-06-29 09:53:25.218750,-53.8,65.13
131624,2018-06-29 09:53:25.250000,3.8,65.13
131625,2018-06-29 09:53:25.281250,57.92,65.13
131626,2018-06-29 09:53:25.312500,93.48,65.13
131627,2018-06-29 09:53:25.343750,112.41,65.13
131628,2018-06-29 09:53:25.375000,117.08,65.13
131629,2018-06-29 09:53:25.406250,114.58,65.13
131630,2018-06-29 09:53:25.437500,130.92,65.13
131631,2018-06-29 09:53:25.468750,182.63,65.13
131632,2018-06-29 09:53:25.500000,236.21,65.13
131633,2018-06-29 09:53:25.531250,239.3,65.37
131634,2018-06-29 09:53:25.562500,186.9,65.37
131635,2018-06-29 09:53:25.593750,112.08,65.37
131636,2018-06-29 09:53:25.625000,33.11,65.37
131637,2018-06-29 09:53:25.656250,-42.32,65.37
131638,2018-06-29 09:53:25.687500,-92.27,65.37
131639,2018-06-29 09:53:25.718750,-97.36,65.37
131640,2018-06-29 09:53:25.750000,-58.83,65.37
131641,2018-06-29 09:53:25.781250,-5.76,65.37
131642,2018-06-29 09:53:25.812500,8.15,65.37
131643,2018-06-29 09:53:25.843750,-42.93,65.37
131644,2018-06-29 09:53:25.875000,-115.21,65.37
131645,2018-06-29 09:53:25.906250,-152.84,65.37
131646,2018-06-29 09:53:25.937500,-152.44,65.37
131647,2018-06-29 09:53:25.968750,-132.6,65.37
131648,2018-06-29 09:53:26.000000,-97.22,65.37
131649,2018-06-29 09:53:26.031250,-55.17,65.37
131650,2018-06-29 09:53:26.062500,-24.89,65.37
131651,2018-06-29 09:53:26.093750,-10.6,65.37
131652,2018-06-29 09:53:26.125000,-5.98,65.37
131653,2018-06-29 09:53:26.156250,-16.35,65.37
131654,2018-06-29 09:53:26.187500,-53.59,65.37
131655,2018-06-29 09:53:26.218750,-111.73,65.37
131656,2018-06-29 09:53:26.250000,-164.13,65.37
131657,2018-06-29 09:53:26.281250,-196.58,65.37
131658,2018-06-29 09:53:26.312500,-221.71,65.37
131659,2018-06-29 09:53:26.343750,-251.42,65.37
131660,2018-06-29 09:53:26.375000,-259.13,65.37
131661,2018-06-29 09:53:26.406250,-199.89,65.37
131662,2018-06-29 09:53:26.437500,-69.74,65.37
131663,2018-06-29 09:53:26.468750,78.08,65.37
131664,2018-06-29 09:53:26.500000,175.58,65.37
131665,2018-06-29 09:53:26.531250,197.3,65.58
131666,2018-06-29 09:53:26.562500,158.45,65.58
131667,2018-06-29 09:53:26.593750,98.68,65.58
131668,2018-06-29 09:53:26.625000,53.71,65.58
131669,2018-06-29 09:53:26.656250,38.98,65.58
131670,2018-06-29 09:53:26.687500,49.47,65.58
131671,2018-06-29 09:53:26.718750,76.76,65.58
131672,2018-06-29 09:53:26.750000,129.71,65.58
131673,2018-06-29 09:53:26.781250,189.95,65.58
131674,2018-06-29 09:53:26.812500,232.73,65.58
131675,2018-06-29 09:53:26.843750,230.04,65.58
131676,2018-06-29 09:53:26.875000,152.85,65.58
131677,2018-06-29 09:53:26.906250,18.69,65.58
131678,2018-06-29 09:53:26.937500,-95.47,65.58
131679,2018-06-29 09:53:26.968750,-142.11,65.58
131680,2018-06-29 09:53:27.000000,-156.21,65.58
131681,2018-06-29 09:53:27.031250,-175.34,65.58
131682,2018-06-29 09:53:27.062500,-180.97,65.58
131683,2018-06-29 09:53:27.093750,-144.92,65.58
131684,2018-06-29 09:53:27.125000,-92.45,65.58
131685,2018-06-29 09:53:27.156250,-60.22,65.58
131686,2018-06-29 09:53:27.187500,-49.19,65.58
131687,2018-06-29 09:53:27.218750,-42.82,65.58
131688,2018-06-29 09:53:27.250000,-40.94,65.58
131689,2018-06-29 09:53:27.281250,-48.09,65.58
131690,2018-06-29 09:53:27.312500,-48.93,65.58
131691,2018-06-29 09:53:27.343750,-30.19,65.58
131692,2018-06-29 09:53:27.375000,-3.75,65.58
131693,2018-06-29 09:53:27.406250,5.09,65.58
131694,2018-06-29 09:53:27.437500,-8.13,65.58
131695,2018-06-29 09:53:27.468750,-23.19,65.58
131696,2018-06-29 09:53:27.500000,-27.44,65.58
131697,2018-06-29 09:53:27.531250,-26.62,65.9
131698,2018-06-29 09:53:27.562500,-34.98,65.9
131699,2018-06-29 09:53:27.593750,-58.87,65.9
131700,2018-06-29 09:53:27.625000,-86.34,65.9
131701,2018-06-29 09:53:27.656250,-76.82,65.9
131702,2018-06-29 09:53:27.687500,5.05,65.9
131703,2018-06-29 09:53:27.718750,136.3,65.9
131704,2018-06-29 09:53:27.750000,258.98,65.9
131705,2018-06-29 09:53:27.781250,305.01,65.9
131706,2018-06-29 09:53:27.812500,256.04,65.9
131707,2018-06-29 09:53:27.843750,148.42,65.9
131708,2018-06-29 09:53:27.875000,19.19,65.9
131709,2018-06-29 09:53:27.906250,-81.35,65.9
131710,2018-06-29 09:53:27.937500,-122.62,65.9
131711,2018-06-29 09:53:27.968750,-122.86,65.9
131712,2018-06-29 09:53:28.000000,-102.65,65.9
131713,2018-06-29 09:53:28.031250,-69.17,65.9
131714,2018-06-29 09:53:28.062500,-37.65,65.9
131715,2018-06-29 09:53:28.093750,-27.46,65.9
131716,2018-06-29 09:53:28.125000,-41.14,65.9
131717,2018-06-29 09:53:28.156250,-60.52,65.9
131718,2018-06-29 09:53:28.187500,-64.97,65.9
131719,2018-06-29 09:53:28.218750,-52.1,65.9
131720,2018-06-29 09:53:28.250000,-30.9,65.9
131721,2018-06-29 09:53:28.281250,-11.12,65.9
131722,2018-06-29 09:53:28.312500,0.3,65.9
131723,2018-06-29 09:53:28.343750,-2.2,65.9
131724,2018-06-29 09:53:28.375000,-14.14,65.9
131725,2018-06-29 09:53:28.406250,-26.06,65.9
131726,2018-06-29 09:53:28.437500,-40.32,65.9
131727,2018-06-29 09:53:28.468750,-70.54,65.9
131728,2018-06-29 09:53:28.500000,-122.7,65.9
131729,2018-06-29 09:53:28.531250,-188.14,66.25
131730,2018-06-29 09:53:28.562500,-255.11,66.25
131731,2018-06-29 09:53:28.593750,-310.65,66.25
131732,2018-06-29 09:53:28.625000,-340.4,66.25
131733,2018-06-29 09:53:28.656250,-338.86,66.25
131734,2018-06-29 09:53:28.687500,-312.64,66.25
131735,2018-06-29 09:53:28.718750,-268.52,66.25
131736,2018-06-29 09:53:28.750000,-207.83,66.25
131737,2018-06-29 09:53:28.781250,-133.03,66.25
131738,2018-06-29 09:53:28.812500,-48.36,66.25
131739,2018-06-29 09:53:28.843750,43.71,66.25
131740,2018-06-29 09:53:28.875000,138.38,66.25
131741,2018-06-29 09:53:28.906250,224.31,66.25
131742,2018-06-29 09:53:28.937500,290.01,66.25
131743,2018-06-29 09:53:28.968750,333.05,66.25
131744,2018-06-29 09:53:29.000000,359.04,66.25
131745,2018-06-29 09:53:29.031250,371.59,66.25
131746,2018-06-29 09:53:29.062500,368.52,66.25
131747,2018-06-29 09:53:29.093750,350.06,66.25
131748,2018-06-29 09:53:29.125000,323.67,66.25
131749,2018-06-29 09:53:29.156250,296.94,66.25
131750,2018-06-29 09:53:29.187500,271.27,66.25
131751,2018-06-29 09:53:29.218750,245.29,66.25
131752,2018-06-29 09:53:29.250000,218.8,66.25
131753,2018-06-29 09:53:29.281250,192.79,66.25
131754,2018-06-29 09:53:29.312500,171.93,66.25
131755,2018-06-29 09:53:29.343750,165.95,66.25
131756,2018-06-29 09:53:29.375000,180.01,66.25
131757,2018-06-29 09:53:29.406250,205.44,66.25
131758,2018-06-29 09:53:29.437500,229.93,66.25
131759,2018-06-29 09:53:29.468750,249.9,66.25
131760,2018-06-29 09:53:29.500000,261.01,66.25
131761,2018-06-29 09:53:29.531250,251.7,66.57
131762,2018-06-29 09:53:29.562500,221.15,66.57
131763,2018-06-29 09:53:29.593750,184.44,66.57
131764,2018-06-29 09:53:29.625000,147.32,66.57
131765,2018-06-29 09:53:29.656250,97.3,66.57
131766,2018-06-29 09:53:29.687500,29.06,66.57
131767,2018-06-29 09:53:29.718750,-42.06,66.57
131768,2018-06-29 09:53:29.750000,-96.6,66.57
131769,2018-06-29 09:53:29.781250,-124.73,66.57
131770,2018-06-29 09:53:29.812500,-128.36,66.57
131771,2018-06-29 09:53:29.843750,-125.1,66.57
131772,2018-06-29 09:53:29.875000,-137.67,66.57
131773,2018-06-29 09:53:29.906250,-166.22,66.57
131774,2018-06-29 09:53:29.937500,-183.32,66.57
131775,2018-06-29 09:53:29.968750,-166.18,66.57
131776,2018-06-29 09:53:30.000000,-121.94,66.57
131777,2018-06-29 09:53:30.031250,-77.97,66.57
131778,2018-06-29 09:53:30.062500,-57.51,66.57
131779,2018-06-29 09:53:30.093750,-64.02,66.57
131780,2018-06-29 09:53:30.125000,-83.94,66.57
131781,2018-06-29 09:53:30.156250,-101.18,66.57
131782,2018-06-29 09:53:30.187500,-107.74,66.57
131783,2018-06-29 09:53:30.218750,-104.88,66.57
131784,2018-06-29 09:53:30.250000,-97.19,66.57
131785,2018-06-29 09:53:30.281250,-85.46,66.57
131786,2018-06-29 09:53:30.312500,-69.23,66.57
131787,2018-06-29 09:53:30.343750,-55.92,66.57
131788,2018-06-29 09:53:30.375000,-57.76,66.57
131789,2018-06-29 09:53:30.406250,-78.63,66.57
131790,2018-06-29 09:53:30.437500,-109.77,66.57
131791,2018-06-29 09:53:30.468750,-137.66,66.57
131792,2018-06-29 09:53:30.500000,-153.35,66.57
131793,2018-06-29 09:53:30.531250,-156.33,66.87
131794,2018-06-29 09:53:30.562500,-153.06,66.87
131795,2018-06-29 09:53:30.593750,-150.17,66.87
131796,2018-06-29 09:53:30.625000,-146.59,66.87
131797,2018-06-29 09:53:30.656250,-135.5,66.87
131798,2018-06-29 09:53:30.687500,-114.25,66.87
131799,2018-06-29 09:53:30.718750,-86.62,66.87
131800,2018-06-29 09:53:30.750000,-53.44,66.87
131801,2018-06-29 09:53:30.781250,-9.05,66.87
131802,2018-06-29 09:53:30.812500,47.6,66.87
131803,2018-06-29 09:53:30.843750,103.24,66.87
131804,2018-06-29 09:53:30.875000,141.32,66.87
131805,2018-06-29 09:53:30.906250,161.32,66.87
131806,2018-06-29 09:53:30.937500,177.79,66.87
131807,2018-06-29 09:53:30.968750,203.61,66.87
131808,2018-06-29 09:53:31.000000,240.44,66.87
131809,2018-06-29 09:53:31.031250,278.41,66.87
131810,2018-06-29 09:53:31.062500,302.1,66.87
131811,2018-06-29 09:53:31.093750,304.7,66.87
131812,2018-06-29 09:53:31.125000,294.97,66.87
131813,2018-06-29 09:53:31.156250,285.73,66.87
131814,2018-06-29 09:53:31.187500,281.59,66.87
131815,2018-06-29 09:53:31.218750,275.74,66.87
131816,2018-06-29 09:53:31.250000,250.32,66.87
131817,2018-06-29 09:53:31.281250,189.76,66.87
131818,2018-06-29 09:53:31.312500,101.37,66.87
131819,2018-06-29 09:53:31.343750,9.97,66.87
131820,2018-06-29 09:53:31.375000,-66.86,66.87
131821,2018-06-29 09:53:31.406250,-123.69,66.87
131822,2018-06-29 09:53:31.437500,-158.92,66.87
131823,2018-06-29 09:53:31.468750,-177.54,66.87
131824,2018-06-29 09:53:31.500000,-193.59,66.87
131825,2018-06-29 09:53:31.531250,-219.1,67.27
131826,2018-06-29 09:53:31.562500,-255.06,67.27
131827,2018-06-29 09:53:31.593750,-297.25,67.27
131828,2018-06-29 09:53:31.625000,-345.15,67.27
131829,2018-06-29 09:53:31.656250,-383.64,67.27
131830,2018-06-29 09:53:31.687500,-373.22,67.27
131831,2018-06-29 09:53:31.718750,-296.07,67.27
131832,2018-06-29 09:53:31.750000,-186.77,67.27
131833,2018-06-29 09:53:31.781250,-85.62,67.27
131834,2018-06-29 09:53:31.812500,-5.73,67.27
131835,2018-06-29 09:53:31.843750,38.85,67.27
131836,2018-06-29 09:53:31.875000,35.56,67.27
131837,2018-06-29 09:53:31.906250,9.5,67.27
131838,2018-06-29 09:53:31.937500,2.4,67.27
131839,2018-06-29 09:53:31.968750,22.1,67.27
131840,2018-06-29 09:53:32.000000,39.83,67.27
131841,2018-06-29 09:53:32.031250,20.88,67.27
131842,2018-06-29 09:53:32.062500,-49.09,67.27
131843,2018-06-29 09:53:32.093750,-152.96,67.27
131844,2018-06-29 09:53:32.125000,-252.28,67.27
131845,2018-06-29 09:53:32.156250,-310.29,67.27
131846,2018-06-29 09:53:32.187500,-306.69,67.27
131847,2018-06-29 09:53:32.218750,-245.55,67.27
131848,2018-06-29 09:53:32.250000,-154.67,67.27
131849,2018-06-29 09:53:32.281250,-63.06,67.27
131850,2018-06-29 09:53:32.312500,21.5,67.27
131851,2018-06-29 09:53:32.343750,97.72,67.27
131852,2018-06-29 09:53:32.375000,148.02,67.27
131853,2018-06-29 09:53:32.406250,154.17,67.27
131854,2018-06-29 09:53:32.437500,123.91,67.27
131855,2018-06-29 09:53:32.468750,81.49,67.27
131856,2018-06-29 09:53:32.500000,43.37,67.27
131857,2018-06-29 09:53:32.531250,16.85,67.65
131858,2018-06-29 09:53:32.562500,6.73,67.65
131859,2018-06-29 09:53:32.593750,9.69,67.65
131860,2018-06-29 09:53:32.625000,12.62,67.65
131861,2018-06-29 09:53:32.656250,6.46,67.65
131862,2018-06-29 09:53:32.687500,-5.58,67.65
131863,2018-06-29 09:53:32.718750,-16.93,67.65
131864,2018-06-29 09:53:32.750000,-27.15,67.65
131865,2018-06-29 09:53:32.781250,-39.57,67.65
131866,2018-06-29 09:53:32.812500,-53.73,67.65
131867,2018-06-29 09:53:32.843750,-62.04,67.65
131868,2018-06-29 09:53:32.875000,-55.05,67.65
131869,2018-06-29 09:53:32.906250,-30.07,67.65
131870,2018-06-29 09:53:32.937500,6.57,67.65
131871,2018-06-29 09:53:32.968750,45.83,67.65
131872,2018-06-29 09:53:33.000000,80.73,67.65
131873,2018-06-29 09:53:33.031250,106.4,67.65
131874,2018-06-29 09:53:33.062500,121.25,67.65
131875,2018-06-29 09:53:33.093750,128.63,67.65
131876,2018-06-29 09:53:33.125000,134.07,67.65
131877,2018-06-29 09:53:33.156250,140.53,67.65
131878,2018-06-29 09:53:33.187500,147.16,67.65
131879,2018-06-29 09:53:33.218750,151.4,67.65
131880,2018-06-29 09:53:33.250000,151.13,67.65
131881,2018-06-29 09:53:33.281250,144.57,67.65
131882,2018-06-29 09:53:33.312500,129.29,67.65
131883,2018-06-29 09:53:33.343750,103.82,67.65
131884,2018-06-29 09:53:33.375000,71.38,67.65
131885,2018-06-29 09:53:33.406250,39.15,67.65
131886,2018-06-29 09:53:33.437500,12.56,67.65
131887,2018-06-29 09:53:33.468750,-9.84,67.65
131888,2018-06-29 09:53:33.500000,-34.59,67.65
131889,2018-06-29 09:53:33.531250,-63.18,67.88
131890,2018-06-29 09:53:33.562500,-84.57,67.88
131891,2018-06-29 09:53:33.593750,-84.51,67.88
131892,2018-06-29 09:53:33.625000,-62.74,67.88
131893,2018-06-29 09:53:33.656250,-31.7,67.88
131894,2018-06-29 09:53:33.687500,-0.13,67.88
131895,2018-06-29 09:53:33.718750,31.12,67.88
131896,2018-06-29 09:53:33.750000,60.3,67.88
131897,2018-06-29 09:53:33.781250,83.83,67.88
131898,2018-06-29 09:53:33.812500,102.2,67.88
131899,2018-06-29 09:53:33.843750,118.86,67.88
131900,2018-06-29 09:53:33.875000,135.83,67.88
131901,2018-06-29 09:53:33.906250,153.44,67.88
131902,2018-06-29 09:53:33.937500,169.62,67.88
131903,2018-06-29 09:53:33.968750,181.53,67.88
131904,2018-06-29 09:53:34.000000,188.45,67.88
131905,2018-06-29 09:53:34.031250,189.55,67.88
131906,2018-06-29 09:53:34.062500,181.86,67.88
131907,2018-06-29 09:53:34.093750,166.64,67.88
131908,2018-06-29 09:53:34.125000,151.03,67.88
131909,2018-06-29 09:53:34.156250,138.85,67.88
131910,2018-06-29 09:53:34.187500,128.33,67.88
131911,2018-06-29 09:53:34.218750,118.75,67.88
131912,2018-06-29 09:53:34.250000,112.16,67.88
131913,2018-06-29 09:53:34.281250,113.04,67.88
131914,2018-06-29 09:53:34.312500,125.78,67.88
131915,2018-06-29 09:53:34.343750,145.09,67.88
131916,2018-06-29 09:53:34.375000,156.69,67.88
131917,2018-06-29 09:53:34.406250,153.74,67.88
131918,2018-06-29 09:53:34.437500,141.38,67.88
131919,2018-06-29 09:53:34.468750,124.33,67.88
131920,2018-06-29 09:53:34.500000,101.92,67.88
131921,2018-06-29 09:53:34.531250,72.52,68.18
131922,2018-06-29 09:53:34.562500,36.06,68.18
131923,2018-06-29 09:53:34.593750,-4.59,68.18
131924,2018-06-29 09:53:34.625000,-44.28,68.18
131925,2018-06-29 09:53:34.656250,-80.68,68.18
131926,2018-06-29 09:53:34.687500,-116.21,68.18
131927,2018-06-29 09:53:34.718750,-157.01,68.18
131928,2018-06-29 09:53:34.750000,-204.95,68.18
131929,2018-06-29 09:53:34.781250,-240.66,68.18
131930,2018-06-29 09:53:34.812500,-231.27,68.18
131931,2018-06-29 09:53:34.843750,-171.96,68.18
131932,2018-06-29 09:53:34.875000,-99.89,68.18
131933,2018-06-29 09:53:34.906250,-52.94,68.18
131934,2018-06-29 09:53:34.937500,-40.0,68.18
131935,2018-06-29 09:53:34.968750,-54.68,68.18
131936,2018-06-29 09:53:35.000000,-82.47,68.18
131937,2018-06-29 09:53:35.031250,-96.01,68.18
131938,2018-06-29 09:53:35.062500,-76.36,68.18
131939,2018-06-29 09:53:35.093750,-37.43,68.18
131940,2018-06-29 09:53:35.125000,-11.23,68.18
131941,2018-06-29 09:53:35.156250,-11.18,68.18
131942,2018-06-29 09:53:35.187500,-21.57,68.18
131943,2018-06-29 09:53:35.218750,-22.34,68.18
131944,2018-06-29 09:53:35.250000,-13.89,68.18
131945,2018-06-29 09:53:35.281250,-12.31,68.18
131946,2018-06-29 09:53:35.312500,-30.76,68.18
131947,2018-06-29 09:53:35.343750,-77.39,68.18
131948,2018-06-29 09:53:35.375000,-151.6,68.18
131949,2018-06-29 09:53:35.406250,-222.69,68.18
131950,2018-06-29 09:53:35.437500,-242.49,68.18
131951,2018-06-29 09:53:35.468750,-199.41,68.18
131952,2018-06-29 09:53:35.500000,-129.97,68.18
131953,2018-06-29 09:53:35.531250,-70.61,68.4
131954,2018-06-29 09:53:35.562500,-31.27,68.4
131955,2018-06-29 09:53:35.593750,-12.19,68.4
131956,2018-06-29 09:53:35.625000,-12.74,68.4
131957,2018-06-29 09:53:35.656250,-27.7,68.4
131958,2018-06-29 09:53:35.687500,-53.89,68.4
131959,2018-06-29 09:53:35.718750,-93.07,68.4
131960,2018-06-29 09:53:35.750000,-142.23,68.4
131961,2018-06-29 09:53:35.781250,-186.88,68.4
131962,2018-06-29 09:53:35.812500,-209.67,68.4
131963,2018-06-29 09:53:35.843750,-204.75,68.4
131964,2018-06-29 09:53:35.875000,-181.09,68.4
131965,2018-06-29 09:53:35.906250,-150.19,68.4
131966,2018-06-29 09:53:35.937500,-116.35,68.4
131967,2018-06-29 09:53:35.968750,-82.51,68.4
131968,2018-06-29 09:53:36.000000,-57.44,68.4
131969,2018-06-29 09:53:36.031250,-48.59,68.4
131970,2018-06-29 09:53:36.062500,-50.59,68.4
131971,2018-06-29 09:53:36.093750,-47.76,68.4
131972,2018-06-29 09:53:36.125000,-31.51,68.4
131973,2018-06-29 09:53:36.156250,-10.26,68.4
131974,2018-06-29 09:53:36.187500,1.43,68.4
131975,2018-06-29 09:53:36.218750,-1.51,68.4
131976,2018-06-29 09:53:36.250000,-12.68,68.4
131977,2018-06-29 09:53:36.281250,-17.72,68.4
131978,2018-06-29 09:53:36.312500,-0.48,68.4
131979,2018-06-29 09:53:36.343750,40.59,68.4
131980,2018-06-29 09:53:36.375000,86.68,68.4
131981,2018-06-29 09:53:36.406250,118.83,68.4
131982,2018-06-29 09:53:36.437500,132.89,68.4
131983,2018-06-29 09:53:36.468750,132.01,68.4
131984,2018-06-29 09:53:36.500000,120.03,68.4
131985,2018-06-29 09:53:36.531250,102.24,68.67
131986,2018-06-29 09:53:36.562500,82.39,68.67
131987,2018-06-29 09:53:36.593750,61.46,68.67
131988,2018-06-29 09:53:36.625000,41.29,68.67
131989,2018-06-29 09:53:36.656250,24.3,68.67
131990,2018-06-29 09:53:36.687500,10.31,68.67
131991,2018-06-29 09:53:36.718750,-2.18,68.67
131992,2018-06-29 09:53:36.750000,-13.86,68.67
131993,2018-06-29 09:53:36.781250,-27.36,68.67
131994,2018-06-29 09:53:36.812500,-48.8,68.67
131995,2018-06-29 09:53:36.843750,-80.97,68.67
131996,2018-06-29 09:53:36.875000,-118.73,68.67
131997,2018-06-29 09:53:36.906250,-152.35,68.67
131998,2018-06-29 09:53:36.937500,-166.13,68.67
131999,2018-06-29 09:53:36.968750,-140.4,68.67
132000,2018-06-29 09:53:37.000000,-75.08,68.67
132001,2018-06-29 09:53:37.031250,-1.68,68.67
132002,2018-06-29 09:53:37.062500,47.12,68.67
132003,2018-06-29 09:53:37.093750,67.12,68.67
132004,2018-06-29 09:53:37.125000,70.6,68.67
132005,2018-06-29 09:53:37.156250,65.29,68.67
132006,2018-06-29 09:53:37.187500,54.57,68.67
132007,2018-06-29 09:53:37.218750,42.09,68.67
132008,2018-06-29 09:53:37.250000,29.8,68.67
132009,2018-06-29 09:53:37.281250,17.63,68.67
132010,2018-06-29 09:53:37.312500,5.16,68.67
132011,2018-06-29 09:53:37.343750,-7.49,68.67
132012,2018-06-29 09:53:37.375000,-19.34,68.67
132013,2018-06-29 09:53:37.406250,-30.2,68.67
132014,2018-06-29 09:53:37.437500,-41.16,68.67
132015,2018-06-29 09:53:37.468750,-51.42,68.67
132016,2018-06-29 09:53:37.500000,-60.96,68.67
132017,2018-06-29 09:53:37.531250,-74.65,68.95
132018,2018-06-29 09:53:37.562500,-90.81,68.95
132019,2018-06-29 09:53:37.593750,-91.75,68.95
132020,2018-06-29 09:53:37.625000,-63.73,68.95
132021,2018-06-29 09:53:37.656250,-17.31,68.95
132022,2018-06-29 09:53:37.687500,26.0,68.95
132023,2018-06-29 09:53:37.718750,54.89,68.95
132024,2018-06-29 09:53:37.750000,67.91,68.95
132025,2018-06-29 09:53:37.781250,66.89,68.95
132026,2018-06-29 09:53:37.812500,57.89,68.95
132027,2018-06-29 09:53:37.843750,48.96,68.95
132028,2018-06-29 09:53:37.875000,43.71,68.95
132029,2018-06-29 09:53:37.906250,39.69,68.95
132030,2018-06-29 09:53:37.937500,33.35,68.95
132031,2018-06-29 09:53:37.968750,24.46,68.95
132032,2018-06-29 09:53:38.000000,14.66,68.95
132033,2018-06-29 09:53:38.031250,4.16,68.95
132034,2018-06-29 09:53:38.062500,-8.37,68.95
132035,2018-06-29 09:53:38.093750,-24.37,68.95
132036,2018-06-29 09:53:38.125000,-44.62,68.95
132037,2018-06-29 09:53:38.156250,-67.25,68.95
132038,2018-06-29 09:53:38.187500,-82.76,68.95
132039,2018-06-29 09:53:38.218750,-76.2,68.95
132040,2018-06-29 09:53:38.250000,-41.45,68.95
132041,2018-06-29 09:53:38.281250,8.51,68.95
132042,2018-06-29 09:53:38.312500,53.54,68.95
132043,2018-06-29 09:53:38.343750,83.55,68.95
132044,2018-06-29 09:53:38.375000,99.45,68.95
132045,2018-06-29 09:53:38.406250,105.91,68.95
132046,2018-06-29 09:53:38.437500,108.83,68.95
132047,2018-06-29 09:53:38.468750,114.0,68.95
132048,2018-06-29 09:53:38.500000,122.27,68.95
132049,2018-06-29 09:53:38.531250,130.78,69.25
132050,2018-06-29 09:53:38.562500,135.56,69.25
132051,2018-06-29 09:53:38.593750,135.03,69.25
132052,2018-06-29 09:53:38.625000,129.94,69.25
132053,2018-06-29 09:53:38.656250,122.03,69.25
132054,2018-06-29 09:53:38.687500,114.94,69.25
132055,2018-06-29 09:53:38.718750,112.52,69.25
132056,2018-06-29 09:53:38.750000,111.82,69.25
132057,2018-06-29 09:53:38.781250,97.08,69.25
132058,2018-06-29 09:53:38.812500,59.72,69.25
132059,2018-06-29 09:53:38.843750,4.41,69.25
132060,2018-06-29 09:53:38.875000,-59.66,69.25
132061,2018-06-29 09:53:38.906250,-122.87,69.25
132062,2018-06-29 09:53:38.937500,-169.59,69.25
132063,2018-06-29 09:53:38.968750,-187.98,69.25
132064,2018-06-29 09:53:39.000000,-176.07,69.25
132065,2018-06-29 09:53:39.031250,-116.02,69.25
132066,2018-06-29 09:53:39.062500,-24.71,69.25
132067,2018-06-29 09:53:39.093750,26.48,69.25
132068,2018-06-29 09:53:39.125000,13.97,69.25
132069,2018-06-29 09:53:39.156250,-29.79,69.25
132070,2018-06-29 09:53:39.187500,-75.37,69.25
132071,2018-06-29 09:53:39.218750,-103.32,69.25
132072,2018-06-29 09:53:39.250000,-92.99,69.25
132073,2018-06-29 09:53:39.281250,-56.18,69.25
132074,2018-06-29 09:53:39.312500,-42.06,69.25
132075,2018-06-29 09:53:39.343750,-72.95,69.25
132076,2018-06-29 09:53:39.375000,-90.17,69.25
132077,2018-06-29 09:53:39.406250,-40.88,69.25
132078,2018-06-29 09:53:39.437500,63.01,69.25
132079,2018-06-29 09:53:39.468750,182.82,69.25
132080,2018-06-29 09:53:39.500000,282.91,69.25
132081,2018-06-29 09:53:39.531250,302.99,69.62
132082,2018-06-29 09:53:39.562500,227.26,69.62
132083,2018-06-29 09:53:39.593750,117.28,69.62
132084,2018-06-29 09:53:39.625000,25.01,69.62
132085,2018-06-29 09:53:39.656250,-35.8,69.62
132086,2018-06-29 09:53:39.687500,-69.56,69.62
132087,2018-06-29 09:53:39.718750,-86.86,69.62
132088,2018-06-29 09:53:39.750000,-101.4,69.62
132089,2018-06-29 09:53:39.781250,-114.96,69.62
132090,2018-06-29 09:53:39.812500,-121.08,69.62
132091,2018-06-29 09:53:39.843750,-109.87,69.62
132092,2018-06-29 09:53:39.875000,-87.76,69.62
132093,2018-06-29 09:53:39.906250,-74.06,69.62
132094,2018-06-29 09:53:39.937500,-80.03,69.62
132095,2018-06-29 09:53:39.968750,-95.35,69.62
132096,2018-06-29 09:53:40.000000,-104.73,69.62
132097,2018-06-29 09:53:40.031250,-110.57,69.62
132098,2018-06-29 09:53:40.062500,-121.29,69.62
132099,2018-06-29 09:53:40.093750,-130.44,69.62
132100,2018-06-29 09:53:40.125000,-119.87,69.62
132101,2018-06-29 09:53:40.156250,-81.41,69.62
132102,2018-06-29 09:53:40.187500,-25.92,69.62
132103,2018-06-29 09:53:40.218750,28.05,69.62
132104,2018-06-29 09:53:40.250000,70.81,69.62
132105,2018-06-29 09:53:40.281250,102.26,69.62
132106,2018-06-29 09:53:40.312500,122.71,69.62
132107,2018-06-29 09:53:40.343750,131.68,69.62
132108,2018-06-29 09:53:40.375000,130.76,69.62
132109,2018-06-29 09:53:40.406250,121.84,69.62
132110,2018-06-29 09:53:40.437500,104.42,69.62
132111,2018-06-29 09:53:40.468750,78.28,69.62
132112,2018-06-29 09:53:40.500000,47.85,69.62
132113,2018-06-29 09:53:40.531250,18.86,70.03
132114,2018-06-29 09:53:40.562500,-6.28,70.03
132115,2018-06-29 09:53:40.593750,-25.93,70.03
132116,2018-06-29 09:53:40.625000,-36.59,70.03
132117,2018-06-29 09:53:40.656250,-38.68,70.03
132118,2018-06-29 09:53:40.687500,-41.62,70.03
132119,2018-06-29 09:53:40.718750,-53.52,70.03
132120,2018-06-29 09:53:40.750000,-66.28,70.03
132121,2018-06-29 09:53:40.781250,-59.77,70.03
132122,2018-06-29 09:53:40.812500,-24.72,70.03
132123,2018-06-29 09:53:40.843750,25.06,70.03
132124,2018-06-29 09:53:40.875000,67.12,70.03
132125,2018-06-29 09:53:40.906250,90.15,70.03
132126,2018-06-29 09:53:40.937500,96.73,70.03
132127,2018-06-29 09:53:40.968750,94.0,70.03
132128,2018-06-29 09:53:41.000000,87.7,70.03
132129,2018-06-29 09:53:41.031250,81.04,70.03
132130,2018-06-29 09:53:41.062500,73.02,70.03
132131,2018-06-29 09:53:41.093750,60.08,70.03
132132,2018-06-29 09:53:41.125000,42.93,70.03
132133,2018-06-29 09:53:41.156250,27.65,70.03
132134,2018-06-29 09:53:41.187500,17.08,70.03
132135,2018-06-29 09:53:41.218750,6.78,70.03
132136,2018-06-29 09:53:41.250000,-7.7,70.03
132137,2018-06-29 09:53:41.281250,-25.57,70.03
132138,2018-06-29 09:53:41.312500,-42.7,70.03
132139,2018-06-29 09:53:41.343750,-55.13,70.03
132140,2018-06-29 09:53:41.375000,-63.41,70.03
132141,2018-06-29 09:53:41.406250,-72.01,70.03
132142,2018-06-29 09:53:41.437500,-77.11,70.03
132143,2018-06-29 09:53:41.468750,-62.94,70.03
132144,2018-06-29 09:53:41.500000,-21.89,70.03
132145,2018-06-29 09:53:41.531250,30.9,70.43
132146,2018-06-29 09:53:41.562500,74.19,70.43
132147,2018-06-29 09:53:41.593750,100.46,70.43
132148,2018-06-29 09:53:41.625000,111.98,70.43
132149,2018-06-29 09:53:41.656250,110.77,70.43
132150,2018-06-29 09:53:41.687500,100.27,70.43
132151,2018-06-29 09:53:41.718750,87.29,70.43
132152,2018-06-29 09:53:41.750000,76.32,70.43
132153,2018-06-29 09:53:41.781250,66.07,70.43
132154,2018-06-29 09:53:41.812500,54.09,70.43
132155,2018-06-29 09:53:41.843750,41.25,70.43
132156,2018-06-29 09:53:41.875000,29.82,70.43
132157,2018-06-29 09:53:41.906250,19.18,70.43
132158,2018-06-29 09:53:41.937500,6.21,70.43
132159,2018-06-29 09:53:41.968750,-10.36,70.43
132160,2018-06-29 09:53:42.000000,-27.88,70.43
132161,2018-06-29 09:53:42.031250,-42.68,70.43
132162,2018-06-29 09:53:42.062500,-53.86,70.43
132163,2018-06-29 09:53:42.093750,-63.24,70.43
132164,2018-06-29 09:53:42.125000,-73.68,70.43
132165,2018-06-29 09:53:42.156250,-86.16,70.43
132166,2018-06-29 09:53:42.187500,-94.26,70.43
132167,2018-06-29 09:53:42.218750,-85.37,70.43
132168,2018-06-29 09:53:42.250000,-54.15,70.43
132169,2018-06-29 09:53:42.281250,-11.24,70.43
132170,2018-06-29 09:53:42.312500,27.31,70.43
132171,2018-06-29 09:53:42.343750,53.18,70.43
132172,2018-06-29 09:53:42.375000,65.39,70.43
132173,2018-06-29 09:53:42.406250,65.54,70.43
132174,2018-06-29 09:53:42.437500,57.64,70.43
132175,2018-06-29 09:53:42.468750,47.72,70.43
132176,2018-06-29 09:53:42.500000,39.79,70.43
132177,2018-06-29 09:53:42.531250,34.04,70.7
132178,2018-06-29 09:53:42.562500,29.3,70.7
132179,2018-06-29 09:53:42.593750,24.95,70.7
132180,2018-06-29 09:53:42.625000,20.32,70.7
132181,2018-06-29 09:53:42.656250,14.19,70.7
132182,2018-06-29 09:53:42.687500,6.51,70.7
132183,2018-06-29 09:53:42.718750,-1.29,70.7
132184,2018-06-29 09:53:42.750000,-8.79,70.7
132185,2018-06-29 09:53:42.781250,-17.29,70.7
132186,2018-06-29 09:53:42.812500,-26.65,70.7
132187,2018-06-29 09:53:42.843750,-34.59,70.7
132188,2018-06-29 09:53:42.875000,-40.44,70.7
132189,2018-06-29 09:53:42.906250,-46.9,70.7
132190,2018-06-29 09:53:42.937500,-57.38,70.7
132191,2018-06-29 09:53:42.968750,-70.52,70.7
132192,2018-06-29 09:53:43.000000,-76.01,70.7
132193,2018-06-29 09:53:43.031250,-61.42,70.7
132194,2018-06-29 09:53:43.062500,-27.15,70.7
132195,2018-06-29 09:53:43.093750,11.77,70.7
132196,2018-06-29 09:53:43.125000,41.17,70.7
132197,2018-06-29 09:53:43.156250,57.49,70.7
132198,2018-06-29 09:53:43.187500,62.29,70.7
132199,2018-06-29 09:53:43.218750,57.7,70.7
132200,2018-06-29 09:53:43.250000,48.29,70.7
132201,2018-06-29 09:53:43.281250,39.89,70.7
132202,2018-06-29 09:53:43.312500,34.69,70.7
132203,2018-06-29 09:53:43.343750,31.49,70.7
132204,2018-06-29 09:53:43.375000,29.76,70.7
132205,2018-06-29 09:53:43.406250,29.0,70.7
132206,2018-06-29 09:53:43.437500,25.66,70.7
132207,2018-06-29 09:53:43.468750,16.54,70.7
132208,2018-06-29 09:53:43.500000,3.92,70.7
132209,2018-06-29 09:53:43.531250,-7.33,71.17
132210,2018-06-29 09:53:43.562500,-15.55,71.17
132211,2018-06-29 09:53:43.593750,-22.04,71.17
132212,2018-06-29 09:53:43.625000,-28.07,71.17
132213,2018-06-29 09:53:43.656250,-33.94,71.17
132214,2018-06-29 09:53:43.687500,-39.23,71.17
132215,2018-06-29 09:53:43.718750,-43.96,71.17
132216,2018-06-29 09:53:43.750000,-50.03,71.17
132217,2018-06-29 09:53:43.781250,-59.61,71.17
132218,2018-06-29 09:53:43.812500,-69.27,71.17
132219,2018-06-29 09:53:43.843750,-68.52,71.17
132220,2018-06-29 09:53:43.875000,-49.35,71.17
132221,2018-06-29 09:53:43.906250,-16.46,71.17
132222,2018-06-29 09:53:43.937500,16.52,71.17
132223,2018-06-29 09:53:43.968750,39.76,71.17
132224,2018-06-29 09:53:44.000000,51.55,71.17
132225,2018-06-29 09:53:44.031250,53.63,71.17
132226,2018-06-29 09:53:44.062500,48.76,71.17
132227,2018-06-29 09:53:44.093750,41.72,71.17
132228,2018-06-29 09:53:44.125000,36.85,71.17
132229,2018-06-29 09:53:44.156250,34.4,71.17
132230,2018-06-29 09:53:44.187500,31.93,71.17
132231,2018-06-29 09:53:44.218750,28.44,71.17
132232,2018-06-29 09:53:44.250000,23.91,71.17
132233,2018-06-29 09:53:44.281250,17.13,71.17
132234,2018-06-29 09:53:44.312500,7.58,71.17
132235,2018-06-29 09:53:44.343750,-1.95,71.17
132236,2018-06-29 09:53:44.375000,-7.88,71.17
132237,2018-06-29 09:53:44.406250,-10.58,71.17
132238,2018-06-29 09:53:44.437500,-13.97,71.17
132239,2018-06-29 09:53:44.468750,-20.06,71.17
132240,2018-06-29 09:53:44.500000,-26.75,71.17
132241,2018-06-29 09:53:44.531250,-32.3,71.68
132242,2018-06-29 09:53:44.562500,-38.09,71.68
132243,2018-06-29 09:53:44.593750,-46.5,71.68
132244,2018-06-29 09:53:44.625000,-57.78,71.68
132245,2018-06-29 09:53:44.656250,-66.4,71.68
132246,2018-06-29 09:53:44.687500,-61.97,71.68
132247,2018-06-29 09:53:44.718750,-40.01,71.68
132248,2018-06-29 09:53:44.750000,-9.66,71.68
132249,2018-06-29 09:53:44.781250,15.87,71.68
132250,2018-06-29 09:53:44.812500,31.3,71.68
132251,2018-06-29 09:53:44.843750,37.64,71.68
132252,2018-06-29 09:53:44.875000,36.78,71.68
132253,2018-06-29 09:53:44.906250,32.06,71.68
132254,2018-06-29 09:53:44.937500,27.85,71.68
132255,2018-06-29 09:53:44.968750,25.81,71.68
132256,2018-06-29 09:53:45.000000,24.58,71.68
132257,2018-06-29 09:53:45.031250,22.79,71.68
132258,2018-06-29 09:53:45.062500,20.14,71.68
132259,2018-06-29 09:53:45.093750,16.38,71.68
132260,2018-06-29 09:53:45.125000,10.99,71.68
132261,2018-06-29 09:53:45.156250,3.91,71.68
132262,2018-06-29 09:53:45.187500,-4.3,71.68
132263,2018-06-29 09:53:45.218750,-13.16,71.68
132264,2018-06-29 09:53:45.250000,-21.72,71.68
132265,2018-06-29 09:53:45.281250,-28.14,71.68
132266,2018-06-29 09:53:45.312500,-32.12,71.68
132267,2018-06-29 09:53:45.343750,-36.24,71.68
132268,2018-06-29 09:53:45.375000,-43.4,71.68
132269,2018-06-29 09:53:45.406250,-52.93,71.68
132270,2018-06-29 09:53:45.437500,-58.62,71.68
132271,2018-06-29 09:53:45.468750,-52.53,71.68
132272,2018-06-29 09:53:45.500000,-33.43,71.68
132273,2018-06-29 09:53:45.531250,-9.03,72.2
132274,2018-06-29 09:53:45.562500,12.49,72.2
132275,2018-06-29 09:53:45.593750,28.5,72.2
132276,2018-06-29 09:53:45.625000,38.66,72.2
132277,2018-06-29 09:53:45.656250,42.2,72.2
132278,2018-06-29 09:53:45.687500,40.04,72.2
132279,2018-06-29 09:53:45.718750,35.72,72.2
132280,2018-06-29 09:53:45.750000,32.72,72.2
132281,2018-06-29 09:53:45.781250,30.9,72.2
132282,2018-06-29 09:53:45.812500,28.57,72.2
132283,2018-06-29 09:53:45.843750,25.57,72.2
132284,2018-06-29 09:53:45.875000,21.92,72.2
132285,2018-06-29 09:53:45.906250,15.01,72.2
132286,2018-06-29 09:53:45.937500,2.01,72.2
132287,2018-06-29 09:53:45.968750,-17.16,72.2
132288,2018-06-29 09:53:46.000000,-42.03,72.2
132289,2018-06-29 09:53:46.031250,-70.86,72.2
132290,2018-06-29 09:53:46.062500,-100.46,72.2
132291,2018-06-29 09:53:46.093750,-126.41,72.2
132292,2018-06-29 09:53:46.125000,-144.96,72.2
132293,2018-06-29 09:53:46.156250,-150.06,72.2
132294,2018-06-29 09:53:46.187500,-134.76,72.2
132295,2018-06-29 09:53:46.218750,-98.62,72.2
132296,2018-06-29 09:53:46.250000,-47.41,72.2
132297,2018-06-29 09:53:46.281250,6.27,72.2
132298,2018-06-29 09:53:46.312500,50.5,72.2
132299,2018-06-29 09:53:46.343750,73.73,72.2
132300,2018-06-29 09:53:46.375000,75.63,72.2
132301,2018-06-29 09:53:46.406250,63.11,72.2
132302,2018-06-29 09:53:46.437500,40.12,72.2
132303,2018-06-29 09:53:46.468750,3.8,72.2
132304,2018-06-29 09:53:46.500000,-49.88,72.2
132305,2018-06-29 09:53:46.531250,-110.01,72.73
132306,2018-06-29 09:53:46.562500,-159.2,72.73
132307,2018-06-29 09:53:46.593750,-159.26,72.73
132308,2018-06-29 09:53:46.625000,-94.33,72.73
132309,2018-06-29 09:53:46.656250,-18.15,72.73
132310,2018-06-29 09:53:46.687500,48.58,72.73
132311,2018-06-29 09:53:46.718750,100.42,72.73
132312,2018-06-29 09:53:46.750000,131.78,72.73
132313,2018-06-29 09:53:46.781250,136.62,72.73
132314,2018-06-29 09:53:46.812500,121.44,72.73
132315,2018-06-29 09:53:46.843750,92.86,72.73
132316,2018-06-29 09:53:46.875000,59.6,72.73
132317,2018-06-29 09:53:46.906250,32.63,72.73
132318,2018-06-29 09:53:46.937500,28.62,72.73
132319,2018-06-29 09:53:46.968750,51.16,72.73
132320,2018-06-29 09:53:47.000000,85.4,72.73
132321,2018-06-29 09:53:47.031250,114.91,72.73
132322,2018-06-29 09:53:47.062500,132.57,72.73
132323,2018-06-29 09:53:47.093750,141.81,72.73
132324,2018-06-29 09:53:47.125000,143.38,72.73
132325,2018-06-29 09:53:47.156250,136.17,72.73
132326,2018-06-29 09:53:47.187500,116.03,72.73
132327,2018-06-29 09:53:47.218750,85.11,72.73
132328,2018-06-29 09:53:47.250000,50.56,72.73
132329,2018-06-29 09:53:47.281250,17.87,72.73
132330,2018-06-29 09:53:47.312500,-13.12,72.73
132331,2018-06-29 09:53:47.343750,-46.11,72.73
132332,2018-06-29 09:53:47.375000,-78.03,72.73
132333,2018-06-29 09:53:47.406250,-104.81,72.73
132334,2018-06-29 09:53:47.437500,-128.64,72.73
132335,2018-06-29 09:53:47.468750,-163.54,72.73
132336,2018-06-29 09:53:47.500000,-214.53,72.73
132337,2018-06-29 09:53:47.531250,-269.44,73.23
132338,2018-06-29 09:53:47.562500,-306.06,73.23
132339,2018-06-29 09:53:47.593750,-277.48,73.23
132340,2018-06-29 09:53:47.625000,-188.68,73.23
132341,2018-06-29 09:53:47.656250,-93.09,73.23
132342,2018-06-29 09:53:47.687500,-21.12,73.23
132343,2018-06-29 09:53:47.718750,27.6,73.23
132344,2018-06-29 09:53:47.750000,50.81,73.23
132345,2018-06-29 09:53:47.781250,46.21,73.23
132346,2018-06-29 09:53:47.812500,26.39,73.23
132347,2018-06-29 09:53:47.843750,7.08,73.23
132348,2018-06-29 09:53:47.875000,2.76,73.23
132349,2018-06-29 09:53:47.906250,15.37,73.23
132350,2018-06-29 09:53:47.937500,38.07,73.23
132351,2018-06-29 09:53:47.968750,59.93,73.23
132352,2018-06-29 09:53:48.000000,76.05,73.23
132353,2018-06-29 09:53:48.031250,81.7,73.23
132354,2018-06-29 09:53:48.062500,72.99,73.23
132355,2018-06-29 09:53:48.093750,55.35,73.23
132356,2018-06-29 09:53:48.125000,44.18,73.23
132357,2018-06-29 09:53:48.156250,47.95,73.23
132358,2018-06-29 09:53:48.187500,59.49,73.23
132359,2018-06-29 09:53:48.218750,71.38,73.23
132360,2018-06-29 09:53:48.250000,80.33,73.23
132361,2018-06-29 09:53:48.281250,78.2,73.23
132362,2018-06-29 09:53:48.312500,55.56,73.23
132363,2018-06-29 09:53:48.343750,15.61,73.23
132364,2018-06-29 09:53:48.375000,-29.42,73.23
132365,2018-06-29 09:53:48.406250,-71.01,73.23
132366,2018-06-29 09:53:48.437500,-104.5,73.23
132367,2018-06-29 09:53:48.468750,-123.43,73.23
132368,2018-06-29 09:53:48.500000,-122.61,73.23
132369,2018-06-29 09:53:48.531250,-104.71,73.75
132370,2018-06-29 09:53:48.562500,-77.17,73.75
132371,2018-06-29 09:53:48.593750,-44.77,73.75
132372,2018-06-29 09:53:48.625000,-12.7,73.75
132373,2018-06-29 09:53:48.656250,8.22,73.75
132374,2018-06-29 09:53:48.687500,9.19,73.75
132375,2018-06-29 09:53:48.718750,-6.82,73.75
132376,2018-06-29 09:53:48.750000,-27.87,73.75
132377,2018-06-29 09:53:48.781250,-39.08,73.75
132378,2018-06-29 09:53:48.812500,-28.45,73.75
132379,2018-06-29 09:53:48.843750,2.26,73.75
132380,2018-06-29 09:53:48.875000,36.82,73.75
132381,2018-06-29 09:53:48.906250,61.16,73.75
132382,2018-06-29 09:53:48.937500,73.72,73.75
132383,2018-06-29 09:53:48.968750,78.41,73.75
132384,2018-06-29 09:53:49.000000,78.03,73.75
132385,2018-06-29 09:53:49.031250,75.84,73.75
132386,2018-06-29 09:53:49.062500,75.37,73.75
132387,2018-06-29 09:53:49.093750,76.57,73.75
132388,2018-06-29 09:53:49.125000,75.68,73.75
132389,2018-06-29 09:53:49.156250,69.71,73.75
132390,2018-06-29 09:53:49.187500,58.78,73.75
132391,2018-06-29 09:53:49.218750,43.81,73.75
132392,2018-06-29 09:53:49.250000,25.81,73.75
132393,2018-06-29 09:53:49.281250,7.86,73.75
132394,2018-06-29 09:53:49.312500,-5.58,73.75
132395,2018-06-29 09:53:49.343750,-12.61,73.75
132396,2018-06-29 09:53:49.375000,-16.01,73.75
132397,2018-06-29 09:53:49.406250,-20.38,73.75
132398,2018-06-29 09:53:49.437500,-27.1,73.75
132399,2018-06-29 09:53:49.468750,-33.31,73.75
132400,2018-06-29 09:53:49.500000,-36.81,73.75
132401,2018-06-29 09:53:49.531250,-40.01,74.3
132402,2018-06-29 09:53:49.562500,-46.99,74.3
132403,2018-06-29 09:53:49.593750,-55.99,74.3
132404,2018-06-29 09:53:49.625000,-55.8,74.3
132405,2018-06-29 09:53:49.656250,-34.96,74.3
132406,2018-06-29 09:53:49.687500,3.13,74.3
132407,2018-06-29 09:53:49.718750,40.81,74.3
132408,2018-06-29 09:53:49.750000,64.87,74.3
132409,2018-06-29 09:53:49.781250,76.96,74.3
132410,2018-06-29 09:53:49.812500,83.65,74.3
132411,2018-06-29 09:53:49.843750,87.04,74.3
132412,2018-06-29 09:53:49.875000,86.86,74.3
132413,2018-06-29 09:53:49.906250,82.82,74.3
132414,2018-06-29 09:53:49.937500,73.08,74.3
132415,2018-06-29 09:53:49.968750,56.86,74.3
132416,2018-06-29 09:53:50.000000,38.62,74.3
132417,2018-06-29 09:53:50.031250,24.68,74.3
132418,2018-06-29 09:53:50.062500,16.45,74.3
132419,2018-06-29 09:53:50.093750,10.5,74.3
132420,2018-06-29 09:53:50.125000,4.94,74.3
132421,2018-06-29 09:53:50.156250,1.9,74.3
132422,2018-06-29 09:53:50.187500,3.03,74.3
132423,2018-06-29 09:53:50.218750,6.39,74.3
132424,2018-06-29 09:53:50.250000,8.83,74.3
132425,2018-06-29 09:53:50.281250,8.15,74.3
132426,2018-06-29 09:53:50.312500,1.89,74.3
132427,2018-06-29 09:53:50.343750,-12.81,74.3
132428,2018-06-29 09:53:50.375000,-37.25,74.3
132429,2018-06-29 09:53:50.406250,-68.69,74.3
132430,2018-06-29 09:53:50.437500,-96.32,74.3
132431,2018-06-29 09:53:50.468750,-102.78,74.3
132432,2018-06-29 09:53:50.500000,-78.53,74.3
132433,2018-06-29 09:53:50.531250,-33.85,74.85
132434,2018-06-29 09:53:50.562500,10.78,74.85
132435,2018-06-29 09:53:50.593750,42.52,74.85
132436,2018-06-29 09:53:50.625000,58.58,74.85
132437,2018-06-29 09:53:50.656250,59.4,74.85
132438,2018-06-29 09:53:50.687500,48.62,74.85
132439,2018-06-29 09:53:50.718750,34.13,74.85
132440,2018-06-29 09:53:50.750000,22.29,74.85
132441,2018-06-29 09:53:50.781250,13.64,74.85
132442,2018-06-29 09:53:50.812500,5.56,74.85
132443,2018-06-29 09:53:50.843750,-3.1,74.85
132444,2018-06-29 09:53:50.875000,-10.3,74.85
132445,2018-06-29 09:53:50.906250,-12.26,74.85
132446,2018-06-29 09:53:50.937500,-6.31,74.85
132447,2018-06-29 09:53:50.968750,6.0,74.85
132448,2018-06-29 09:53:51.000000,19.41,74.85
132449,2018-06-29 09:53:51.031250,30.49,74.85
132450,2018-06-29 09:53:51.062500,39.6,74.85
132451,2018-06-29 09:53:51.093750,45.98,74.85
132452,2018-06-29 09:53:51.125000,44.5,74.85
132453,2018-06-29 09:53:51.156250,29.92,74.85
132454,2018-06-29 09:53:51.187500,4.26,74.85
132455,2018-06-29 09:53:51.218750,-19.46,74.85
132456,2018-06-29 09:53:51.250000,-25.81,74.85
132457,2018-06-29 09:53:51.281250,-13.96,74.85
132458,2018-06-29 09:53:51.312500,0.89,74.85
132459,2018-06-29 09:53:51.343750,6.13,74.85
132460,2018-06-29 09:53:51.375000,2.28,74.85
132461,2018-06-29 09:53:51.406250,-5.34,74.85
132462,2018-06-29 09:53:51.437500,-13.82,74.85
132463,2018-06-29 09:53:51.468750,-20.15,74.85
132464,2018-06-29 09:53:51.500000,-21.33,74.85
132465,2018-06-29 09:53:51.531250,-18.49,75.42
132466,2018-06-29 09:53:51.562500,-16.17,75.42
132467,2018-06-29 09:53:51.593750,-17.48,75.42
132468,2018-06-29 09:53:51.625000,-22.82,75.42
132469,2018-06-29 09:53:51.656250,-31.91,75.42
132470,2018-06-29 09:53:51.687500,-43.88,75.42
132471,2018-06-29 09:53:51.718750,-56.24,75.42
132472,2018-06-29 09:53:51.750000,-64.98,75.42
132473,2018-06-29 09:53:51.781250,-65.88,75.42
132474,2018-06-29 09:53:51.812500,-56.76,75.42
132475,2018-06-29 09:53:51.843750,-40.11,75.42
132476,2018-06-29 09:53:51.875000,-23.3,75.42
132477,2018-06-29 09:53:51.906250,-14.72,75.42
132478,2018-06-29 09:53:51.937500,-17.58,75.42
132479,2018-06-29 09:53:51.968750,-24.36,75.42
132480,2018-06-29 09:53:52.000000,-20.79,75.42
132481,2018-06-29 09:53:52.031250,-0.51,75.42
132482,2018-06-29 09:53:52.062500,27.3,75.42
132483,2018-06-29 09:53:52.093750,48.93,75.42
132484,2018-06-29 09:53:52.125000,58.86,75.42
132485,2018-06-29 09:53:52.156250,59.07,75.42
132486,2018-06-29 09:53:52.187500,52.95,75.42
132487,2018-06-29 09:53:52.218750,43.52,75.42
132488,2018-06-29 09:53:52.250000,32.97,75.42
132489,2018-06-29 09:53:52.281250,21.52,75.42
132490,2018-06-29 09:53:52.312500,9.06,75.42
132491,2018-06-29 09:53:52.343750,-1.37,75.42
132492,2018-06-29 09:53:52.375000,-4.7,75.42
132493,2018-06-29 09:53:52.406250,-0.68,75.42
132494,2018-06-29 09:53:52.437500,2.88,75.42
132495,2018-06-29 09:53:52.468750,-1.64,75.42
132496,2018-06-29 09:53:52.500000,-12.19,75.42
132497,2018-06-29 09:53:52.531250,-20.03,75.85
132498,2018-06-29 09:53:52.562500,-21.19,75.85
132499,2018-06-29 09:53:52.593750,-20.34,75.85
132500,2018-06-29 09:53:52.625000,-22.54,75.85
132501,2018-06-29 09:53:52.656250,-26.14,75.85
132502,2018-06-29 09:53:52.687500,-26.63,75.85
132503,2018-06-29 09:53:52.718750,-23.65,75.85
132504,2018-06-29 09:53:52.750000,-20.22,75.85
132505,2018-06-29 09:53:52.781250,-18.61,75.85
132506,2018-06-29 09:53:52.812500,-19.33,75.85
132507,2018-06-29 09:53:52.843750,-19.62,75.85
132508,2018-06-29 09:53:52.875000,-12.97,75.85
132509,2018-06-29 09:53:52.906250,3.51,75.85
132510,2018-06-29 09:53:52.937500,22.98,75.85
132511,2018-06-29 09:53:52.968750,35.32,75.85
132512,2018-06-29 09:53:53.000000,35.09,75.85
132513,2018-06-29 09:53:53.031250,20.19,75.85
132514,2018-06-29 09:53:53.062500,-8.62,75.85
132515,2018-06-29 09:53:53.093750,-42.23,75.85
132516,2018-06-29 09:53:53.125000,-65.9,75.85
132517,2018-06-29 09:53:53.156250,-71.88,75.85
132518,2018-06-29 09:53:53.187500,-63.65,75.85
132519,2018-06-29 09:53:53.218750,-44.21,75.85
132520,2018-06-29 09:53:53.250000,-7.94,75.85
132521,2018-06-29 09:53:53.281250,50.08,75.85
132522,2018-06-29 09:53:53.312500,118.85,75.85
132523,2018-06-29 09:53:53.343750,171.09,75.85
132524,2018-06-29 09:53:53.375000,181.87,75.85
132525,2018-06-29 09:53:53.406250,148.02,75.85
132526,2018-06-29 09:53:53.437500,88.13,75.85
132527,2018-06-29 09:53:53.468750,25.24,75.85
132528,2018-06-29 09:53:53.500000,-24.12,75.85
132529,2018-06-29 09:53:53.531250,-52.91,76.32
132530,2018-06-29 09:53:53.562500,-62.89,76.32
132531,2018-06-29 09:53:53.593750,-62.13,76.32
132532,2018-06-29 09:53:53.625000,-60.58,76.32
132533,2018-06-29 09:53:53.656250,-64.12,76.32
132534,2018-06-29 09:53:53.687500,-73.22,76.32
132535,2018-06-29 09:53:53.718750,-78.31,76.32
132536,2018-06-29 09:53:53.750000,-70.72,76.32
132537,2018-06-29 09:53:53.781250,-53.75,76.32
132538,2018-06-29 09:53:53.812500,-47.31,76.32
132539,2018-06-29 09:53:53.843750,-64.74,76.32
132540,2018-06-29 09:53:53.875000,-83.71,76.32
132541,2018-06-29 09:53:53.906250,-60.86,76.32
132542,2018-06-29 09:53:53.937500,29.63,76.32
132543,2018-06-29 09:53:53.968750,155.82,76.32
132544,2018-06-29 09:53:54.000000,257.75,76.32
132545,2018-06-29 09:53:54.031250,273.62,76.32
132546,2018-06-29 09:53:54.062500,185.57,76.32
132547,2018-06-29 09:53:54.093750,69.94,76.32
132548,2018-06-29 09:53:54.125000,-25.02,76.32
132549,2018-06-29 09:53:54.156250,-90.43,76.32
132550,2018-06-29 09:53:54.187500,-120.76,76.32
132551,2018-06-29 09:53:54.218750,-119.87,76.32
132552,2018-06-29 09:53:54.250000,-105.98,76.32
132553,2018-06-29 09:53:54.281250,-88.46,76.32
132554,2018-06-29 09:53:54.312500,-68.75,76.32
132555,2018-06-29 09:53:54.343750,-50.19,76.32
132556,2018-06-29 09:53:54.375000,-41.77,76.32
132557,2018-06-29 09:53:54.406250,-48.6,76.32
132558,2018-06-29 09:53:54.437500,-59.57,76.32
132559,2018-06-29 09:53:54.468750,-57.87,76.32
132560,2018-06-29 09:53:54.500000,-33.74,76.32
132561,2018-06-29 09:53:54.531250,4.59,76.78
132562,2018-06-29 09:53:54.562500,42.55,76.78
132563,2018-06-29 09:53:54.593750,68.65,76.78
132564,2018-06-29 09:53:54.625000,76.27,76.78
132565,2018-06-29 09:53:54.656250,64.97,76.78
132566,2018-06-29 09:53:54.687500,42.07,76.78
132567,2018-06-29 09:53:54.718750,20.28,76.78
132568,2018-06-29 09:53:54.750000,7.45,76.78
132569,2018-06-29 09:53:54.781250,5.4,76.78
132570,2018-06-29 09:53:54.812500,9.06,76.78
132571,2018-06-29 09:53:54.843750,12.69,76.78
132572,2018-06-29 09:53:54.875000,13.34,76.78
132573,2018-06-29 09:53:54.906250,12.98,76.78
132574,2018-06-29 09:53:54.937500,9.96,76.78
132575,2018-06-29 09:53:54.968750,-6.13,76.78
132576,2018-06-29 09:53:55.000000,-44.65,76.78
132577,2018-06-29 09:53:55.031250,-105.89,76.78
132578,2018-06-29 09:53:55.062500,-175.1,76.78
132579,2018-06-29 09:53:55.093750,-213.01,76.78
132580,2018-06-29 09:53:55.125000,-181.71,76.78
132581,2018-06-29 09:53:55.156250,-94.38,76.78
132582,2018-06-29 09:53:55.187500,8.74,76.78
132583,2018-06-29 09:53:55.218750,112.8,76.78
132584,2018-06-29 09:53:55.250000,199.66,76.78
132585,2018-06-29 09:53:55.281250,245.39,76.78
132586,2018-06-29 09:53:55.312500,220.56,76.78
132587,2018-06-29 09:53:55.343750,149.13,76.78
132588,2018-06-29 09:53:55.375000,61.51,76.78
132589,2018-06-29 09:53:55.406250,-23.85,76.78
132590,2018-06-29 09:53:55.437500,-84.15,76.78
132591,2018-06-29 09:53:55.468750,-96.09,76.78
132592,2018-06-29 09:53:55.500000,-62.02,76.78
132593,2018-06-29 09:53:55.531250,-7.92,77.23
132594,2018-06-29 09:53:55.562500,43.48,77.23
132595,2018-06-29 09:53:55.593750,80.82,77.23
132596,2018-06-29 09:53:55.625000,98.53,77.23
132597,2018-06-29 09:53:55.656250,88.33,77.23
132598,2018-06-29 09:53:55.687500,56.89,77.23
132599,2018-06-29 09:53:55.718750,22.68,77.23
132600,2018-06-29 09:53:55.750000,2.42,77.23
132601,2018-06-29 09:53:55.781250,-5.79,77.23
132602,2018-06-29 09:53:55.812500,-16.68,77.23
132603,2018-06-29 09:53:55.843750,-37.04,77.23
132604,2018-06-29 09:53:55.875000,-60.53,77.23
132605,2018-06-29 09:53:55.906250,-81.01,77.23
132606,2018-06-29 09:53:55.937500,-104.07,77.23
132607,2018-06-29 09:53:55.968750,-134.14,77.23
132608,2018-06-29 09:53:56.000000,-171.36,77.23
132609,2018-06-29 09:53:56.031250,-217.01,77.23
132610,2018-06-29 09:53:56.062500,-246.26,77.23
132611,2018-06-29 09:53:56.093750,-229.08,77.23
132612,2018-06-29 09:53:56.125000,-169.7,77.23
132613,2018-06-29 09:53:56.156250,-88.97,77.23
132614,2018-06-29 09:53:56.187500,2.76,77.23
132615,2018-06-29 09:53:56.218750,88.35,77.23
132616,2018-06-29 09:53:56.250000,139.44,77.23
132617,2018-06-29 09:53:56.281250,159.25,77.23
132618,2018-06-29 09:53:56.312500,191.61,77.23
132619,2018-06-29 09:53:56.343750,246.25,77.23
132620,2018-06-29 09:53:56.375000,284.28,77.23
132621,2018-06-29 09:53:56.406250,263.26,77.23
132622,2018-06-29 09:53:56.437500,178.32,77.23
132623,2018-06-29 09:53:56.468750,76.26,77.23
132624,2018-06-29 09:53:56.500000,-15.26,77.23
132625,2018-06-29 09:53:56.531250,-92.16,77.55
132626,2018-06-29 09:53:56.562500,-153.03,77.55
132627,2018-06-29 09:53:56.593750,-187.77,77.55
132628,2018-06-29 09:53:56.625000,-192.16,77.55
132629,2018-06-29 09:53:56.656250,-172.45,77.55
132630,2018-06-29 09:53:56.687500,-138.18,77.55
132631,2018-06-29 09:53:56.718750,-83.81,77.55
132632,2018-06-29 09:53:56.750000,5.94,77.55
132633,2018-06-29 09:53:56.781250,125.29,77.55
132634,2018-06-29 09:53:56.812500,246.03,77.55
132635,2018-06-29 09:53:56.843750,323.76,77.55
132636,2018-06-29 09:53:56.875000,305.34,77.55
132637,2018-06-29 09:53:56.906250,192.58,77.55
132638,2018-06-29 09:53:56.937500,51.4,77.55
132639,2018-06-29 09:53:56.968750,-58.39,77.55
132640,2018-06-29 09:53:57.000000,-125.14,77.55
132641,2018-06-29 09:53:57.031250,-151.39,77.55
132642,2018-06-29 09:53:57.062500,-147.91,77.55
132643,2018-06-29 09:53:57.093750,-136.9,77.55
132644,2018-06-29 09:53:57.125000,-129.08,77.55
132645,2018-06-29 09:53:57.156250,-121.77,77.55
132646,2018-06-29 09:53:57.187500,-108.55,77.55
132647,2018-06-29 09:53:57.218750,-92.23,77.55
132648,2018-06-29 09:53:57.250000,-79.15,77.55
132649,2018-06-29 09:53:57.281250,-69.39,77.55
132650,2018-06-29 09:53:57.312500,-50.53,77.55
132651,2018-06-29 09:53:57.343750,-8.27,77.55
132652,2018-06-29 09:53:57.375000,60.12,77.55
132653,2018-06-29 09:53:57.406250,133.48,77.55
132654,2018-06-29 09:53:57.437500,175.23,77.55
132655,2018-06-29 09:53:57.468750,160.11,77.55
132656,2018-06-29 09:53:57.500000,91.73,77.55
132657,2018-06-29 09:53:57.531250,-5.14,77.72
132658,2018-06-29 09:53:57.562500,-100.79,77.72
132659,2018-06-29 09:53:57.593750,-165.9,77.72
132660,2018-06-29 09:53:57.625000,-182.66,77.72
132661,2018-06-29 09:53:57.656250,-158.09,77.72
132662,2018-06-29 09:53:57.687500,-115.46,77.72
132663,2018-06-29 09:53:57.718750,-70.96,77.72
132664,2018-06-29 09:53:57.750000,-26.81,77.72
132665,2018-06-29 09:53:57.781250,17.95,77.72
132666,2018-06-29 09:53:57.812500,61.91,77.72
132667,2018-06-29 09:53:57.843750,101.74,77.72
132668,2018-06-29 09:53:57.875000,131.74,77.72
132669,2018-06-29 09:53:57.906250,143.64,77.72
132670,2018-06-29 09:53:57.937500,132.05,77.72
132671,2018-06-29 09:53:57.968750,101.16,77.72
132672,2018-06-29 09:53:58.000000,63.6,77.72
132673,2018-06-29 09:53:58.031250,31.56,77.72
132674,2018-06-29 09:53:58.062500,10.78,77.72
132675,2018-06-29 09:53:58.093750,1.61,77.72
132676,2018-06-29 09:53:58.125000,0.82,77.72
132677,2018-06-29 09:53:58.156250,3.06,77.72
132678,2018-06-29 09:53:58.187500,4.69,77.72
132679,2018-06-29 09:53:58.218750,6.41,77.72
132680,2018-06-29 09:53:58.250000,9.47,77.72
132681,2018-06-29 09:53:58.281250,8.0,77.72
132682,2018-06-29 09:53:58.312500,-8.45,77.72
132683,2018-06-29 09:53:58.343750,-41.15,77.72
132684,2018-06-29 09:53:58.375000,-74.57,77.72
132685,2018-06-29 09:53:58.406250,-84.72,77.72
132686,2018-06-29 09:53:58.437500,-56.62,77.72
132687,2018-06-29 09:53:58.468750,2.89,77.72
132688,2018-06-29 09:53:58.500000,68.47,77.72
132689,2018-06-29 09:53:58.531250,113.6,78.07
132690,2018-06-29 09:53:58.562500,124.23,78.07
132691,2018-06-29 09:53:58.593750,100.89,78.07
132692,2018-06-29 09:53:58.625000,56.5,78.07
132693,2018-06-29 09:53:58.656250,10.72,78.07
132694,2018-06-29 09:53:58.687500,-21.06,78.07
132695,2018-06-29 09:53:58.718750,-35.73,78.07
132696,2018-06-29 09:53:58.750000,-39.16,78.07
132697,2018-06-29 09:53:58.781250,-37.73,78.07
132698,2018-06-29 09:53:58.812500,-34.82,78.07
132699,2018-06-29 09:53:58.843750,-31.87,78.07
132700,2018-06-29 09:53:58.875000,-27.74,78.07
132701,2018-06-29 09:53:58.906250,-18.35,78.07
132702,2018-06-29 09:53:58.937500,-1.28,78.07
132703,2018-06-29 09:53:58.968750,19.57,78.07
132704,2018-06-29 09:53:59.000000,35.94,78.07
132705,2018-06-29 09:53:59.031250,39.58,78.07
132706,2018-06-29 09:53:59.062500,26.67,78.07
132707,2018-06-29 09:53:59.093750,1.01,78.07
132708,2018-06-29 09:53:59.125000,-28.86,78.07
132709,2018-06-29 09:53:59.156250,-55.97,78.07
132710,2018-06-29 09:53:59.187500,-73.81,78.07
132711,2018-06-29 09:53:59.218750,-71.01,78.07
132712,2018-06-29 09:53:59.250000,-41.96,78.07
132713,2018-06-29 09:53:59.281250,-0.65,78.07
132714,2018-06-29 09:53:59.312500,30.52,78.07
132715,2018-06-29 09:53:59.343750,45.88,78.07
132716,2018-06-29 09:53:59.375000,56.3,78.07
132717,2018-06-29 09:53:59.406250,63.87,78.07
132718,2018-06-29 09:53:59.437500,58.04,78.07
132719,2018-06-29 09:53:59.468750,33.09,78.07
132720,2018-06-29 09:53:59.500000,-4.32,78.07
132721,2018-06-29 09:53:59.531250,-48.81,78.43
132722,2018-06-29 09:53:59.562500,-83.16,78.43
132723,2018-06-29 09:53:59.593750,-77.06,78.43
132724,2018-06-29 09:53:59.625000,-29.54,78.43
132725,2018-06-29 09:53:59.656250,39.45,78.43
132726,2018-06-29 09:53:59.687500,119.15,78.43
132727,2018-06-29 09:53:59.718750,193.92,78.43
132728,2018-06-29 09:53:59.750000,225.45,78.43
132729,2018-06-29 09:53:59.781250,167.64,78.43
132730,2018-06-29 09:53:59.812500,44.29,78.43
132731,2018-06-29 09:53:59.843750,-73.09,78.43
132732,2018-06-29 09:53:59.875000,-156.11,78.43
132733,2018-06-29 09:53:59.906250,-215.74,78.43
132734,2018-06-29 09:53:59.937500,-252.42,78.43
132735,2018-06-29 09:53:59.968750,-257.14,78.43
132736,2018-06-29 09:54:00.000000,-235.31,78.43
132737,2018-06-29 09:54:00.031250,-192.95,78.43
132738,2018-06-29 09:54:00.062500,-127.53,78.43
132739,2018-06-29 09:54:00.093750,-41.07,78.43
132740,2018-06-29 09:54:00.125000,50.57,78.43
132741,2018-06-29 09:54:00.156250,131.51,78.43
132742,2018-06-29 09:54:00.187500,195.58,78.43
132743,2018-06-29 09:54:00.218750,237.95,78.43
132744,2018-06-29 09:54:00.250000,246.81,78.43
132745,2018-06-29 09:54:00.281250,217.01,78.43
132746,2018-06-29 09:54:00.312500,164.12,78.43
132747,2018-06-29 09:54:00.343750,112.53,78.43
132748,2018-06-29 09:54:00.375000,78.38,78.43
132749,2018-06-29 09:54:00.406250,62.92,78.43
132750,2018-06-29 09:54:00.437500,57.83,78.43
132751,2018-06-29 09:54:00.468750,50.22,78.43
132752,2018-06-29 09:54:00.500000,31.88,78.43
132753,2018-06-29 09:54:00.531250,3.08,78.8
132754,2018-06-29 09:54:00.562500,-33.97,78.8
132755,2018-06-29 09:54:00.593750,-73.01,78.8
132756,2018-06-29 09:54:00.625000,-104.84,78.8
132757,2018-06-29 09:54:00.656250,-127.56,78.8
132758,2018-06-29 09:54:00.687500,-156.81,78.8
132759,2018-06-29 09:54:00.718750,-202.88,78.8
132760,2018-06-29 09:54:00.750000,-253.82,78.8
132761,2018-06-29 09:54:00.781250,-286.97,78.8
132762,2018-06-29 09:54:00.812500,-259.17,78.8
132763,2018-06-29 09:54:00.843750,-167.69,78.8
132764,2018-06-29 09:54:00.875000,-54.24,78.8
132765,2018-06-29 09:54:00.906250,47.72,78.8
132766,2018-06-29 09:54:00.937500,127.28,78.8
132767,2018-06-29 09:54:00.968750,178.94,78.8
132768,2018-06-29 09:54:01.000000,202.07,78.8
132769,2018-06-29 09:54:01.031250,207.54,78.8
132770,2018-06-29 09:54:01.062500,203.96,78.8
132771,2018-06-29 09:54:01.093750,193.86,78.8
132772,2018-06-29 09:54:01.125000,174.05,78.8
132773,2018-06-29 09:54:01.156250,144.88,78.8
132774,2018-06-29 09:54:01.187500,108.82,78.8
132775,2018-06-29 09:54:01.218750,64.21,78.8
132776,2018-06-29 09:54:01.250000,7.74,78.8
132777,2018-06-29 09:54:01.281250,-47.55,78.8
132778,2018-06-29 09:54:01.312500,-82.84,78.8
132779,2018-06-29 09:54:01.343750,-96.72,78.8
132780,2018-06-29 09:54:01.375000,-98.94,78.8
132781,2018-06-29 09:54:01.406250,-93.17,78.8
132782,2018-06-29 09:54:01.437500,-76.51,78.8
132783,2018-06-29 09:54:01.468750,-49.08,78.8
132784,2018-06-29 09:54:01.500000,-15.22,78.8
132785,2018-06-29 09:54:01.531250,16.94,79.27
132786,2018-06-29 09:54:01.562500,37.47,79.27
132787,2018-06-29 09:54:01.593750,43.05,79.27
132788,2018-06-29 09:54:01.625000,40.37,79.27
132789,2018-06-29 09:54:01.656250,35.45,79.27
132790,2018-06-29 09:54:01.687500,27.29,79.27
132791,2018-06-29 09:54:01.718750,16.35,79.27
132792,2018-06-29 09:54:01.750000,6.71,79.27
132793,2018-06-29 09:54:01.781250,-3.97,79.27
132794,2018-06-29 09:54:01.812500,-22.5,79.27
132795,2018-06-29 09:54:01.843750,-45.16,79.27
132796,2018-06-29 09:54:01.875000,-57.79,79.27
132797,2018-06-29 09:54:01.906250,-53.27,79.27
132798,2018-06-29 09:54:01.937500,-37.61,79.27
132799,2018-06-29 09:54:01.968750,-16.48,79.27
132800,2018-06-29 09:54:02.000000,13.41,79.27
132801,2018-06-29 09:54:02.031250,54.9,79.27
132802,2018-06-29 09:54:02.062500,99.04,79.27
132803,2018-06-29 09:54:02.093750,128.48,79.27
132804,2018-06-29 09:54:02.125000,129.24,79.27
132805,2018-06-29 09:54:02.156250,98.63,79.27
132806,2018-06-29 09:54:02.187500,46.42,79.27
132807,2018-06-29 09:54:02.218750,-12.51,79.27
132808,2018-06-29 09:54:02.250000,-68.19,79.27
132809,2018-06-29 09:54:02.281250,-116.73,79.27
132810,2018-06-29 09:54:02.312500,-156.99,79.27
132811,2018-06-29 09:54:02.343750,-191.84,79.27
132812,2018-06-29 09:54:02.375000,-225.58,79.27
132813,2018-06-29 09:54:02.406250,-254.45,79.27
132814,2018-06-29 09:54:02.437500,-266.58,79.27
132815,2018-06-29 09:54:02.468750,-253.79,79.27
132816,2018-06-29 09:54:02.500000,-217.8,79.27
132817,2018-06-29 09:54:02.531250,-166.19,79.67
132818,2018-06-29 09:54:02.562500,-106.06,79.67
132819,2018-06-29 09:54:02.593750,-43.31,79.67
132820,2018-06-29 09:54:02.625000,12.63,79.67
132821,2018-06-29 09:54:02.656250,49.26,79.67
132822,2018-06-29 09:54:02.687500,60.06,79.67
132823,2018-06-29 09:54:02.718750,48.01,79.67
132824,2018-06-29 09:54:02.750000,17.74,79.67
132825,2018-06-29 09:54:02.781250,-27.81,79.67
132826,2018-06-29 09:54:02.812500,-79.86,79.67
132827,2018-06-29 09:54:02.843750,-120.82,79.67
132828,2018-06-29 09:54:02.875000,-134.7,79.67
132829,2018-06-29 09:54:02.906250,-117.96,79.67
132830,2018-06-29 09:54:02.937500,-76.98,79.67
132831,2018-06-29 09:54:02.968750,-21.43,79.67
132832,2018-06-29 09:54:03.000000,35.69,79.67
132833,2018-06-29 09:54:03.031250,79.96,79.67
132834,2018-06-29 09:54:03.062500,100.71,79.67
132835,2018-06-29 09:54:03.093750,91.54,79.67
132836,2018-06-29 09:54:03.125000,53.22,79.67
132837,2018-06-29 09:54:03.156250,1.81,79.67
132838,2018-06-29 09:54:03.187500,-37.12,79.67
132839,2018-06-29 09:54:03.218750,-48.92,79.67
132840,2018-06-29 09:54:03.250000,-37.63,79.67
132841,2018-06-29 09:54:03.281250,-15.33,79.67
132842,2018-06-29 09:54:03.312500,8.81,79.67
132843,2018-06-29 09:54:03.343750,30.96,79.67
132844,2018-06-29 09:54:03.375000,50.77,79.67
132845,2018-06-29 09:54:03.406250,69.16,79.67
132846,2018-06-29 09:54:03.437500,87.3,79.67
132847,2018-06-29 09:54:03.468750,106.19,79.67
132848,2018-06-29 09:54:03.500000,125.44,79.67
132849,2018-06-29 09:54:03.531250,142.72,80.13
132850,2018-06-29 09:54:03.562500,155.57,80.13
132851,2018-06-29 09:54:03.593750,162.77,80.13
132852,2018-06-29 09:54:03.625000,162.9,80.13
132853,2018-06-29 09:54:03.656250,153.24,80.13
132854,2018-06-29 09:54:03.687500,131.87,80.13
132855,2018-06-29 09:54:03.718750,100.04,80.13
132856,2018-06-29 09:54:03.750000,61.76,80.13
132857,2018-06-29 09:54:03.781250,21.47,80.13
132858,2018-06-29 09:54:03.812500,-16.64,80.13
132859,2018-06-29 09:54:03.843750,-49.31,80.13
132860,2018-06-29 09:54:03.875000,-77.15,80.13
132861,2018-06-29 09:54:03.906250,-103.71,80.13
132862,2018-06-29 09:54:03.937500,-126.14,80.13
132863,2018-06-29 09:54:03.968750,-130.31,80.13
132864,2018-06-29 09:54:04.000000,-105.08,80.13
132865,2018-06-29 09:54:04.031250,-57.82,80.13
132866,2018-06-29 09:54:04.062500,-7.58,80.13
132867,2018-06-29 09:54:04.093750,32.93,80.13
132868,2018-06-29 09:54:04.125000,62.17,80.13
132869,2018-06-29 09:54:04.156250,83.82,80.13
132870,2018-06-29 09:54:04.187500,102.13,80.13
132871,2018-06-29 09:54:04.218750,117.59,80.13
132872,2018-06-29 09:54:04.250000,124.62,80.13
132873,2018-06-29 09:54:04.281250,117.73,80.13
132874,2018-06-29 09:54:04.312500,98.66,80.13
132875,2018-06-29 09:54:04.343750,74.36,80.13
132876,2018-06-29 09:54:04.375000,49.98,80.13
132877,2018-06-29 09:54:04.406250,27.33,80.13
132878,2018-06-29 09:54:04.437500,6.08,80.13
132879,2018-06-29 09:54:04.468750,-16.58,80.13
132880,2018-06-29 09:54:04.500000,-44.41,80.13
132881,2018-06-29 09:54:04.531250,-76.05,80.63
132882,2018-06-29 09:54:04.562500,-101.62,80.63
132883,2018-06-29 09:54:04.593750,-110.12,80.63
132884,2018-06-29 09:54:04.625000,-99.99,80.63
132885,2018-06-29 09:54:04.656250,-79.96,80.63
132886,2018-06-29 09:54:04.687500,-60.51,80.63
132887,2018-06-29 09:54:04.718750,-44.11,80.63
132888,2018-06-29 09:54:04.750000,-20.74,80.63
132889,2018-06-29 09:54:04.781250,22.22,80.63
132890,2018-06-29 09:54:04.812500,81.11,80.63
132891,2018-06-29 09:54:04.843750,134.94,80.63
132892,2018-06-29 09:54:04.875000,166.15,80.63
132893,2018-06-29 09:54:04.906250,172.85,80.63
132894,2018-06-29 09:54:04.937500,161.49,80.63
132895,2018-06-29 09:54:04.968750,139.14,80.63
132896,2018-06-29 09:54:05.000000,111.95,80.63
132897,2018-06-29 09:54:05.031250,82.44,80.63
132898,2018-06-29 09:54:05.062500,49.06,80.63
132899,2018-06-29 09:54:05.093750,11.2,80.63
132900,2018-06-29 09:54:05.125000,-28.22,80.63
132901,2018-06-29 09:54:05.156250,-65.54,80.63
132902,2018-06-29 09:54:05.187500,-98.61,80.63
132903,2018-06-29 09:54:05.218750,-123.66,80.63
132904,2018-06-29 09:54:05.250000,-131.33,80.63
132905,2018-06-29 09:54:05.281250,-112.9,80.63
132906,2018-06-29 09:54:05.312500,-73.53,80.63
132907,2018-06-29 09:54:05.343750,-31.28,80.63
132908,2018-06-29 09:54:05.375000,-0.2,80.63
132909,2018-06-29 09:54:05.406250,16.78,80.63
132910,2018-06-29 09:54:05.437500,18.33,80.63
132911,2018-06-29 09:54:05.468750,0.6,80.63
132912,2018-06-29 09:54:05.500000,-35.07,80.63
132913,2018-06-29 09:54:05.531250,-76.61,81.08
132914,2018-06-29 09:54:05.562500,-104.99,81.08
132915,2018-06-29 09:54:05.593750,-105.92,81.08
132916,2018-06-29 09:54:05.625000,-81.43,81.08
132917,2018-06-29 09:54:05.656250,-47.06,81.08
132918,2018-06-29 09:54:05.687500,-16.41,81.08
132919,2018-06-29 09:54:05.718750,6.86,81.08
132920,2018-06-29 09:54:05.750000,24.72,81.08
132921,2018-06-29 09:54:05.781250,40.06,81.08
132922,2018-06-29 09:54:05.812500,55.62,81.08
132923,2018-06-29 09:54:05.843750,72.59,81.08
132924,2018-06-29 09:54:05.875000,89.0,81.08
132925,2018-06-29 09:54:05.906250,101.1,81.08
132926,2018-06-29 09:54:05.937500,108.25,81.08
132927,2018-06-29 09:54:05.968750,113.79,81.08
132928,2018-06-29 09:54:06.000000,119.82,81.08
132929,2018-06-29 09:54:06.031250,124.27,81.08
132930,2018-06-29 09:54:06.062500,124.4,81.08
132931,2018-06-29 09:54:06.093750,119.13,81.08
132932,2018-06-29 09:54:06.125000,107.04,81.08
132933,2018-06-29 09:54:06.156250,85.64,81.08
132934,2018-06-29 09:54:06.187500,54.19,81.08
132935,2018-06-29 09:54:06.218750,15.9,81.08
132936,2018-06-29 09:54:06.250000,-24.94,81.08
132937,2018-06-29 09:54:06.281250,-67.86,81.08
132938,2018-06-29 09:54:06.312500,-115.18,81.08
132939,2018-06-29 09:54:06.343750,-165.24,81.08
132940,2018-06-29 09:54:06.375000,-207.83,81.08
132941,2018-06-29 09:54:06.406250,-226.88,81.08
132942,2018-06-29 09:54:06.437500,-210.38,81.08
132943,2018-06-29 09:54:06.468750,-160.58,81.08
132944,2018-06-29 09:54:06.500000,-92.42,81.08
132945,2018-06-29 09:54:06.531250,-20.13,81.58
132946,2018-06-29 09:54:06.562500,49.68,81.58
132947,2018-06-29 09:54:06.593750,111.55,81.58
132948,2018-06-29 09:54:06.625000,158.02,81.58
132949,2018-06-29 09:54:06.656250,186.05,81.58
132950,2018-06-29 09:54:06.687500,200.31,81.58
132951,2018-06-29 09:54:06.718750,205.9,81.58
132952,2018-06-29 09:54:06.750000,200.27,81.58
132953,2018-06-29 09:54:06.781250,174.41,81.58
132954,2018-06-29 09:54:06.812500,121.28,81.58
132955,2018-06-29 09:54:06.843750,42.86,81.58
132956,2018-06-29 09:54:06.875000,-48.76,81.58
132957,2018-06-29 09:54:06.906250,-134.65,81.58
132958,2018-06-29 09:54:06.937500,-196.59,81.58
132959,2018-06-29 09:54:06.968750,-226.02,81.58
132960,2018-06-29 09:54:07.000000,-225.58,81.58
132961,2018-06-29 09:54:07.031250,-201.71,81.58
132962,2018-06-29 09:54:07.062500,-159.06,81.58
132963,2018-06-29 09:54:07.093750,-102.82,81.58
132964,2018-06-29 09:54:07.125000,-42.06,81.58
132965,2018-06-29 09:54:07.156250,13.97,81.58
132966,2018-06-29 09:54:07.187500,61.95,81.58
132967,2018-06-29 09:54:07.218750,105.73,81.58
132968,2018-06-29 09:54:07.250000,149.94,81.58
132969,2018-06-29 09:54:07.281250,189.8,81.58
132970,2018-06-29 09:54:07.312500,210.59,81.58
132971,2018-06-29 09:54:07.343750,200.85,81.58
132972,2018-06-29 09:54:07.375000,163.8,81.58
132973,2018-06-29 09:54:07.406250,110.73,81.58
132974,2018-06-29 09:54:07.437500,50.85,81.58
132975,2018-06-29 09:54:07.468750,-9.85,81.58
132976,2018-06-29 09:54:07.500000,-64.51,81.58
132977,2018-06-29 09:54:07.531250,-107.08,81.98
132978,2018-06-29 09:54:07.562500,-139.31,81.98
132979,2018-06-29 09:54:07.593750,-165.91,81.98
132980,2018-06-29 09:54:07.625000,-183.63,81.98
132981,2018-06-29 09:54:07.656250,-181.33,81.98
132982,2018-06-29 09:54:07.687500,-158.33,81.98
132983,2018-06-29 09:54:07.718750,-123.89,81.98
132984,2018-06-29 09:54:07.750000,-76.4,81.98
132985,2018-06-29 09:54:07.781250,-2.63,81.98
132986,2018-06-29 09:54:07.812500,96.43,81.98
132987,2018-06-29 09:54:07.843750,192.24,81.98
132988,2018-06-29 09:54:07.875000,257.28,81.98
132989,2018-06-29 09:54:07.906250,257.85,81.98
132990,2018-06-29 09:54:07.937500,169.72,81.98
132991,2018-06-29 09:54:07.968750,36.43,81.98
132992,2018-06-29 09:54:08.000000,-85.01,81.98
132993,2018-06-29 09:54:08.031250,-185.15,81.98
132994,2018-06-29 09:54:08.062500,-256.29,81.98
132995,2018-06-29 09:54:08.093750,-280.93,81.98
132996,2018-06-29 09:54:08.125000,-257.71,81.98
132997,2018-06-29 09:54:08.156250,-206.0,81.98
132998,2018-06-29 09:54:08.187500,-142.06,81.98
132999,2018-06-29 09:54:08.218750,-68.7,81.98
133000,2018-06-29 09:54:08.250000,10.79,81.98
133001,2018-06-29 09:54:08.281250,83.89,81.98
133002,2018-06-29 09:54:08.312500,139.41,81.98
133003,2018-06-29 09:54:08.343750,176.06,81.98
133004,2018-06-29 09:54:08.375000,198.49,81.98
133005,2018-06-29 09:54:08.406250,204.87,81.98
133006,2018-06-29 09:54:08.437500,189.04,81.98
133007,2018-06-29 09:54:08.468750,150.75,81.98
133008,2018-06-29 09:54:08.500000,99.47,81.98
133009,2018-06-29 09:54:08.531250,46.21,82.38
133010,2018-06-29 09:54:08.562500,-3.09,82.38
133011,2018-06-29 09:54:08.593750,-44.41,82.38
133012,2018-06-29 09:54:08.625000,-73.29,82.38
133013,2018-06-29 09:54:08.656250,-89.1,82.38
133014,2018-06-29 09:54:08.687500,-97.67,82.38
133015,2018-06-29 09:54:08.718750,-104.91,82.38
133016,2018-06-29 09:54:08.750000,-112.28,82.38
133017,2018-06-29 09:54:08.781250,-120.18,82.38
133018,2018-06-29 09:54:08.812500,-130.51,82.38
133019,2018-06-29 09:54:08.843750,-144.11,82.38
133020,2018-06-29 09:54:08.875000,-157.61,82.38
133021,2018-06-29 09:54:08.906250,-162.85,82.38
133022,2018-06-29 09:54:08.937500,-146.97,82.38
133023,2018-06-29 09:54:08.968750,-95.82,82.38
133024,2018-06-29 09:54:09.000000,-3.96,82.38
133025,2018-06-29 09:54:09.031250,115.92,82.38
133026,2018-06-29 09:54:09.062500,232.36,82.38
133027,2018-06-29 09:54:09.093750,305.92,82.38
133028,2018-06-29 09:54:09.125000,309.72,82.38
133029,2018-06-29 09:54:09.156250,246.3,82.38
133030,2018-06-29 09:54:09.187500,144.4,82.38
133031,2018-06-29 09:54:09.218750,38.95,82.38
133032,2018-06-29 09:54:09.250000,-45.26,82.38
133033,2018-06-29 09:54:09.281250,-98.22,82.38
133034,2018-06-29 09:54:09.312500,-122.51,82.38
133035,2018-06-29 09:54:09.343750,-127.8,82.38
133036,2018-06-29 09:54:09.375000,-123.32,82.38
133037,2018-06-29 09:54:09.406250,-112.71,82.38
133038,2018-06-29 09:54:09.437500,-95.93,82.38
133039,2018-06-29 09:54:09.468750,-74.2,82.38
133040,2018-06-29 09:54:09.500000,-51.15,82.38
133041,2018-06-29 09:54:09.531250,-30.97,82.72
133042,2018-06-29 09:54:09.562500,-17.04,82.72
133043,2018-06-29 09:54:09.593750,-10.77,82.72
133044,2018-06-29 09:54:09.625000,-10.98,82.72
133045,2018-06-29 09:54:09.656250,-16.06,82.72
133046,2018-06-29 09:54:09.687500,-26.54,82.72
133047,2018-06-29 09:54:09.718750,-40.69,82.72
133048,2018-06-29 09:54:09.750000,-48.82,82.72
133049,2018-06-29 09:54:09.781250,-41.52,82.72
133050,2018-06-29 09:54:09.812500,-22.28,82.72
133051,2018-06-29 09:54:09.843750,-2.67,82.72
133052,2018-06-29 09:54:09.875000,12.62,82.72
133053,2018-06-29 09:54:09.906250,26.51,82.72
133054,2018-06-29 09:54:09.937500,39.91,82.72
133055,2018-06-29 09:54:09.968750,50.18,82.72
133056,2018-06-29 09:54:10.000000,55.69,82.72
133057,2018-06-29 09:54:10.031250,57.12,82.72
133058,2018-06-29 09:54:10.062500,56.7,82.72
133059,2018-06-29 09:54:10.093750,56.59,82.72
133060,2018-06-29 09:54:10.125000,55.28,82.72
133061,2018-06-29 09:54:10.156250,48.0,82.72
133062,2018-06-29 09:54:10.187500,34.42,82.72
133063,2018-06-29 09:54:10.218750,22.73,82.72
133064,2018-06-29 09:54:10.250000,21.36,82.72
133065,2018-06-29 09:54:10.281250,28.03,82.72
133066,2018-06-29 09:54:10.312500,31.55,82.72
133067,2018-06-29 09:54:10.343750,23.41,82.72
133068,2018-06-29 09:54:10.375000,4.07,82.72
133069,2018-06-29 09:54:10.406250,-20.28,82.72
133070,2018-06-29 09:54:10.437500,-41.84,82.72
133071,2018-06-29 09:54:10.468750,-53.77,82.72
133072,2018-06-29 09:54:10.500000,-54.99,82.72
133073,2018-06-29 09:54:10.531250,-53.05,83.03
133074,2018-06-29 09:54:10.562500,-57.7,83.03
133075,2018-06-29 09:54:10.593750,-68.0,83.03
133076,2018-06-29 09:54:10.625000,-71.22,83.03
133077,2018-06-29 09:54:10.656250,-59.23,83.03
133078,2018-06-29 09:54:10.687500,-38.97,83.03
133079,2018-06-29 09:54:10.718750,-20.51,83.03
133080,2018-06-29 09:54:10.750000,-2.22,83.03
133081,2018-06-29 09:54:10.781250,25.79,83.03
133082,2018-06-29 09:54:10.812500,68.32,83.03
133083,2018-06-29 09:54:10.843750,114.37,83.03
133084,2018-06-29 09:54:10.875000,141.13,83.03
133085,2018-06-29 09:54:10.906250,131.06,83.03
133086,2018-06-29 09:54:10.937500,88.53,83.03
133087,2018-06-29 09:54:10.968750,34.21,83.03
133088,2018-06-29 09:54:11.000000,-9.86,83.03
133089,2018-06-29 09:54:11.031250,-31.03,83.03
133090,2018-06-29 09:54:11.062500,-32.46,83.03
133091,2018-06-29 09:54:11.093750,-23.96,83.03
133092,2018-06-29 09:54:11.125000,-13.7,83.03
133093,2018-06-29 09:54:11.156250,-0.43,83.03
133094,2018-06-29 09:54:11.187500,12.56,83.03
133095,2018-06-29 09:54:11.218750,15.2,83.03
133096,2018-06-29 09:54:11.250000,-1.11,83.03
133097,2018-06-29 09:54:11.281250,-34.42,83.03
133098,2018-06-29 09:54:11.312500,-73.99,83.03
133099,2018-06-29 09:54:11.343750,-116.6,83.03
133100,2018-06-29 09:54:11.375000,-135.78,83.03
133101,2018-06-29 09:54:11.406250,-112.89,83.03
133102,2018-06-29 09:54:11.437500,-38.4,83.03
133103,2018-06-29 09:54:11.468750,89.44,83.03
133104,2018-06-29 09:54:11.500000,228.44,83.03
133105,2018-06-29 09:54:11.531250,312.63,83.55
133106,2018-06-29 09:54:11.562500,273.21,83.55
133107,2018-06-29 09:54:11.593750,137.77,83.55
133108,2018-06-29 09:54:11.625000,-5.33,83.55
133109,2018-06-29 09:54:11.656250,-128.64,83.55
133110,2018-06-29 09:54:11.687500,-216.97,83.55
133111,2018-06-29 09:54:11.718750,-250.6,83.55
133112,2018-06-29 09:54:11.750000,-233.07,83.55
133113,2018-06-29 09:54:11.781250,-182.83,83.55
133114,2018-06-29 09:54:11.812500,-103.75,83.55
133115,2018-06-29 09:54:11.843750,3.9,83.55
133116,2018-06-29 09:54:11.875000,121.35,83.55
133117,2018-06-29 09:54:11.906250,206.09,83.55
133118,2018-06-29 09:54:11.937500,231.31,83.55
133119,2018-06-29 09:54:11.968750,200.19,83.55
133120,2018-06-29 09:54:12.000000,132.75,83.55
133121,2018-06-29 09:54:12.031250,49.52,83.55
133122,2018-06-29 09:54:12.062500,-30.83,83.55
133123,2018-06-29 09:54:12.093750,-91.24,83.55
133124,2018-06-29 09:54:12.125000,-127.06,83.55
133125,2018-06-29 09:54:12.156250,-143.15,83.55
133126,2018-06-29 09:54:12.187500,-145.45,83.55
133127,2018-06-29 09:54:12.218750,-137.59,83.55
133128,2018-06-29 09:54:12.250000,-122.34,83.55
133129,2018-06-29 09:54:12.281250,-99.56,83.55
133130,2018-06-29 09:54:12.312500,-63.82,83.55
133131,2018-06-29 09:54:12.343750,-15.58,83.55
133132,2018-06-29 09:54:12.375000,29.65,83.55
133133,2018-06-29 09:54:12.406250,51.4,83.55
133134,2018-06-29 09:54:12.437500,42.22,83.55
133135,2018-06-29 09:54:12.468750,10.87,83.55
133136,2018-06-29 09:54:12.500000,-30.67,83.55
133137,2018-06-29 09:54:12.531250,-56.35,84.0
133138,2018-06-29 09:54:12.562500,-37.88,84.0
133139,2018-06-29 09:54:12.593750,21.15,84.0
133140,2018-06-29 09:54:12.625000,110.71,84.0
133141,2018-06-29 09:54:12.656250,217.62,84.0
133142,2018-06-29 09:54:12.687500,305.88,84.0
133143,2018-06-29 09:54:12.718750,313.23,84.0
133144,2018-06-29 09:54:12.750000,213.49,84.0
133145,2018-06-29 09:54:12.781250,65.2,84.0
133146,2018-06-29 09:54:12.812500,-60.3,84.0
133147,2018-06-29 09:54:12.843750,-151.88,84.0
133148,2018-06-29 09:54:12.875000,-214.93,84.0
133149,2018-06-29 09:54:12.906250,-242.37,84.0
133150,2018-06-29 09:54:12.937500,-232.02,84.0
133151,2018-06-29 09:54:12.968750,-196.89,84.0
133152,2018-06-29 09:54:13.000000,-150.86,84.0
133153,2018-06-29 09:54:13.031250,-92.82,84.0
133154,2018-06-29 09:54:13.062500,-20.9,84.0
133155,2018-06-29 09:54:13.093750,53.68,84.0
133156,2018-06-29 09:54:13.125000,109.72,84.0
133157,2018-06-29 09:54:13.156250,133.11,84.0
133158,2018-06-29 09:54:13.187500,124.68,84.0
133159,2018-06-29 09:54:13.218750,93.96,84.0
133160,2018-06-29 09:54:13.250000,50.88,84.0
133161,2018-06-29 09:54:13.281250,8.74,84.0
133162,2018-06-29 09:54:13.312500,-16.77,84.0
133163,2018-06-29 09:54:13.343750,-20.34,84.0
133164,2018-06-29 09:54:13.375000,-12.05,84.0
133165,2018-06-29 09:54:13.406250,-3.69,84.0
133166,2018-06-29 09:54:13.437500,3.56,84.0
133167,2018-06-29 09:54:13.468750,14.66,84.0
133168,2018-06-29 09:54:13.500000,27.02,84.0
133169,2018-06-29 09:54:13.531250,29.07,84.43
133170,2018-06-29 09:54:13.562500,12.09,84.43
133171,2018-06-29 09:54:13.593750,-18.67,84.43
133172,2018-06-29 09:54:13.625000,-49.68,84.43
133173,2018-06-29 09:54:13.656250,-67.63,84.43
133174,2018-06-29 09:54:13.687500,-57.82,84.43
133175,2018-06-29 09:54:13.718750,-16.95,84.43
133176,2018-06-29 09:54:13.750000,56.76,84.43
133177,2018-06-29 09:54:13.781250,150.06,84.43
133178,2018-06-29 09:54:13.812500,224.75,84.43
133179,2018-06-29 09:54:13.843750,244.02,84.43
133180,2018-06-29 09:54:13.875000,181.71,84.43
133181,2018-06-29 09:54:13.906250,70.44,84.43
133182,2018-06-29 09:54:13.937500,-27.1,84.43
133183,2018-06-29 09:54:13.968750,-98.81,84.43
133184,2018-06-29 09:54:14.000000,-150.59,84.43
133185,2018-06-29 09:54:14.031250,-173.86,84.43
133186,2018-06-29 09:54:14.062500,-168.82,84.43
133187,2018-06-29 09:54:14.093750,-148.81,84.43
133188,2018-06-29 09:54:14.125000,-122.54,84.43
133189,2018-06-29 09:54:14.156250,-87.42,84.43
133190,2018-06-29 09:54:14.187500,-41.17,84.43
133191,2018-06-29 09:54:14.218750,6.41,84.43
133192,2018-06-29 09:54:14.250000,40.51,84.43
133193,2018-06-29 09:54:14.281250,55.32,84.43
133194,2018-06-29 09:54:14.312500,54.79,84.43
133195,2018-06-29 09:54:14.343750,42.29,84.43
133196,2018-06-29 09:54:14.375000,17.9,84.43
133197,2018-06-29 09:54:14.406250,-13.8,84.43
133198,2018-06-29 09:54:14.437500,-43.19,84.43
133199,2018-06-29 09:54:14.468750,-61.67,84.43
133200,2018-06-29 09:54:14.500000,-67.06,84.43
133201,2018-06-29 09:54:14.531250,-63.8,84.87
133202,2018-06-29 09:54:14.562500,-58.54,84.87
133203,2018-06-29 09:54:14.593750,-54.77,84.87
133204,2018-06-29 09:54:14.625000,-49.02,84.87
133205,2018-06-29 09:54:14.656250,-32.92,84.87
133206,2018-06-29 09:54:14.687500,-2.41,84.87
133207,2018-06-29 09:54:14.718750,34.17,84.87
133208,2018-06-29 09:54:14.750000,63.01,84.87
133209,2018-06-29 09:54:14.781250,78.55,84.87
133210,2018-06-29 09:54:14.812500,84.19,84.87
133211,2018-06-29 09:54:14.843750,83.25,84.87
133212,2018-06-29 09:54:14.875000,78.51,84.87
133213,2018-06-29 09:54:14.906250,77.15,84.87
133214,2018-06-29 09:54:14.937500,86.36,84.87
133215,2018-06-29 09:54:14.968750,102.18,84.87
133216,2018-06-29 09:54:15.000000,108.4,84.87
133217,2018-06-29 09:54:15.031250,90.75,84.87
133218,2018-06-29 09:54:15.062500,50.7,84.87
133219,2018-06-29 09:54:15.093750,2.57,84.87
133220,2018-06-29 09:54:15.125000,-40.41,84.87
133221,2018-06-29 09:54:15.156250,-72.99,84.87
133222,2018-06-29 09:54:15.187500,-95.52,84.87
133223,2018-06-29 09:54:15.218750,-110.6,84.87
133224,2018-06-29 09:54:15.250000,-120.4,84.87
133225,2018-06-29 09:54:15.281250,-123.32,84.87
133226,2018-06-29 09:54:15.312500,-116.66,84.87
133227,2018-06-29 09:54:15.343750,-102.19,84.87
133228,2018-06-29 09:54:15.375000,-82.74,84.87
133229,2018-06-29 09:54:15.406250,-52.99,84.87
133230,2018-06-29 09:54:15.437500,-4.65,84.87
133231,2018-06-29 09:54:15.468750,54.5,84.87
133232,2018-06-29 09:54:15.500000,100.17,84.87
133233,2018-06-29 09:54:15.531250,114.8,85.32
133234,2018-06-29 09:54:15.562500,102.97,85.32
133235,2018-06-29 09:54:15.593750,78.87,85.32
133236,2018-06-29 09:54:15.625000,53.46,85.32
133237,2018-06-29 09:54:15.656250,34.38,85.32
133238,2018-06-29 09:54:15.687500,25.83,85.32
133239,2018-06-29 09:54:15.718750,26.91,85.32
133240,2018-06-29 09:54:15.750000,31.36,85.32
133241,2018-06-29 09:54:15.781250,35.84,85.32
133242,2018-06-29 09:54:15.812500,37.5,85.32
133243,2018-06-29 09:54:15.843750,34.85,85.32
133244,2018-06-29 09:54:15.875000,24.77,85.32
133245,2018-06-29 09:54:15.906250,5.19,85.32
133246,2018-06-29 09:54:15.937500,-22.39,85.32
133247,2018-06-29 09:54:15.968750,-54.32,85.32
133248,2018-06-29 09:54:16.000000,-66.86,85.32
133249,2018-06-29 09:54:16.031250,-41.31,85.32
133250,2018-06-29 09:54:16.062500,24.12,85.32
133251,2018-06-29 09:54:16.093750,109.81,85.32
133252,2018-06-29 09:54:16.125000,181.04,85.32
133253,2018-06-29 09:54:16.156250,204.83,85.32
133254,2018-06-29 09:54:16.187500,156.68,85.32
133255,2018-06-29 09:54:16.218750,72.17,85.32
133256,2018-06-29 09:54:16.250000,-15.21,85.32
133257,2018-06-29 09:54:16.281250,-91.45,85.32
133258,2018-06-29 09:54:16.312500,-144.58,85.32
133259,2018-06-29 09:54:16.343750,-168.14,85.32
133260,2018-06-29 09:54:16.375000,-169.56,85.32
133261,2018-06-29 09:54:16.406250,-158.71,85.32
133262,2018-06-29 09:54:16.437500,-140.6,85.32
133263,2018-06-29 09:54:16.468750,-114.95,85.32
133264,2018-06-29 09:54:16.500000,-80.49,85.32
133265,2018-06-29 09:54:16.531250,-42.07,85.68
133266,2018-06-29 09:54:16.562500,-3.18,85.68
133267,2018-06-29 09:54:16.593750,30.55,85.68
133268,2018-06-29 09:54:16.625000,52.04,85.68
133269,2018-06-29 09:54:16.656250,53.53,85.68
133270,2018-06-29 09:54:16.687500,36.25,85.68
133271,2018-06-29 09:54:16.718750,10.55,85.68
133272,2018-06-29 09:54:16.750000,-13.26,85.68
133273,2018-06-29 09:54:16.781250,-30.16,85.68
133274,2018-06-29 09:54:16.812500,-40.44,85.68
133275,2018-06-29 09:54:16.843750,-46.22,85.68
133276,2018-06-29 09:54:16.875000,-51.41,85.68
133277,2018-06-29 09:54:16.906250,-55.26,85.68
133278,2018-06-29 09:54:16.937500,-49.14,85.68
133279,2018-06-29 09:54:16.968750,-25.76,85.68
133280,2018-06-29 09:54:17.000000,10.06,85.68
133281,2018-06-29 09:54:17.031250,45.2,85.68
133282,2018-06-29 09:54:17.062500,69.62,85.68
133283,2018-06-29 09:54:17.093750,80.55,85.68
133284,2018-06-29 09:54:17.125000,80.5,85.68
133285,2018-06-29 09:54:17.156250,74.27,85.68
133286,2018-06-29 09:54:17.187500,65.37,85.68
133287,2018-06-29 09:54:17.218750,55.24,85.68
133288,2018-06-29 09:54:17.250000,44.11,85.68
133289,2018-06-29 09:54:17.281250,30.84,85.68
133290,2018-06-29 09:54:17.312500,15.27,85.68
133291,2018-06-29 09:54:17.343750,1.49,85.68
133292,2018-06-29 09:54:17.375000,-6.69,85.68
133293,2018-06-29 09:54:17.406250,-12.61,85.68
133294,2018-06-29 09:54:17.437500,-21.34,85.68
133295,2018-06-29 09:54:17.468750,-31.08,85.68
133296,2018-06-29 09:54:17.500000,-37.33,85.68
133297,2018-06-29 09:54:17.531250,-40.02,86.13
133298,2018-06-29 09:54:17.562500,-40.85,86.13
133299,2018-06-29 09:54:17.593750,-38.49,86.13
133300,2018-06-29 09:54:17.625000,-31.34,86.13
133301,2018-06-29 09:54:17.656250,-21.75,86.13
133302,2018-06-29 09:54:17.687500,-14.96,86.13
133303,2018-06-29 09:54:17.718750,-14.42,86.13
133304,2018-06-29 09:54:17.750000,-17.62,86.13
133305,2018-06-29 09:54:17.781250,-16.23,86.13
133306,2018-06-29 09:54:17.812500,-3.42,86.13
133307,2018-06-29 09:54:17.843750,18.87,86.13
133308,2018-06-29 09:54:17.875000,42.17,86.13
133309,2018-06-29 09:54:17.906250,58.53,86.13
133310,2018-06-29 09:54:17.937500,63.62,86.13
133311,2018-06-29 09:54:17.968750,58.15,86.13
133312,2018-06-29 09:54:18.000000,48.55,86.13
133313,2018-06-29 09:54:18.031250,42.73,86.13
133314,2018-06-29 09:54:18.062500,43.64,86.13
133315,2018-06-29 09:54:18.093750,47.86,86.13
133316,2018-06-29 09:54:18.125000,47.85,86.13
133317,2018-06-29 09:54:18.156250,37.46,86.13
133318,2018-06-29 09:54:18.187500,17.71,86.13
133319,2018-06-29 09:54:18.218750,-5.13,86.13
133320,2018-06-29 09:54:18.250000,-25.63,86.13
133321,2018-06-29 09:54:18.281250,-39.46,86.13
133322,2018-06-29 09:54:18.312500,-39.56,86.13
133323,2018-06-29 09:54:18.343750,-17.37,86.13
133324,2018-06-29 09:54:18.375000,31.24,86.13
133325,2018-06-29 09:54:18.406250,98.16,86.13
133326,2018-06-29 09:54:18.437500,157.28,86.13
133327,2018-06-29 09:54:18.468750,174.33,86.13
133328,2018-06-29 09:54:18.500000,132.33,86.13
133329,2018-06-29 09:54:18.531250,45.78,86.6
133330,2018-06-29 09:54:18.562500,-53.38,86.6
133331,2018-06-29 09:54:18.593750,-138.6,86.6
133332,2018-06-29 09:54:18.625000,-194.54,86.6
133333,2018-06-29 09:54:18.656250,-212.78,86.6
133334,2018-06-29 09:54:18.687500,-195.6,86.6
133335,2018-06-29 09:54:18.718750,-158.29,86.6
133336,2018-06-29 09:54:18.750000,-117.06,86.6
133337,2018-06-29 09:54:18.781250,-78.43,86.6
133338,2018-06-29 09:54:18.812500,-44.13,86.6
133339,2018-06-29 09:54:18.843750,-16.27,86.6
133340,2018-06-29 09:54:18.875000,6.55,86.6
133341,2018-06-29 09:54:18.906250,28.5,86.6
133342,2018-06-29 09:54:18.937500,49.94,86.6
133343,2018-06-29 09:54:18.968750,66.18,86.6
133344,2018-06-29 09:54:19.000000,71.42,86.6
133345,2018-06-29 09:54:19.031250,63.31,86.6
133346,2018-06-29 09:54:19.062500,46.14,86.6
133347,2018-06-29 09:54:19.093750,27.89,86.6
133348,2018-06-29 09:54:19.125000,13.83,86.6
133349,2018-06-29 09:54:19.156250,5.43,86.6
133350,2018-06-29 09:54:19.187500,3.56,86.6
133351,2018-06-29 09:54:19.218750,9.23,86.6
133352,2018-06-29 09:54:19.250000,21.4,86.6
133353,2018-06-29 09:54:19.281250,35.81,86.6
133354,2018-06-29 09:54:19.312500,45.19,86.6
133355,2018-06-29 09:54:19.343750,42.01,86.6
133356,2018-06-29 09:54:19.375000,23.63,86.6
133357,2018-06-29 09:54:19.406250,-5.1,86.6
133358,2018-06-29 09:54:19.437500,-36.26,86.6
133359,2018-06-29 09:54:19.468750,-65.38,86.6
133360,2018-06-29 09:54:19.500000,-87.24,86.6
133361,2018-06-29 09:54:19.531250,-86.71,87.07
133362,2018-06-29 09:54:19.562500,-43.75,87.07
133363,2018-06-29 09:54:19.593750,43.06,87.07
133364,2018-06-29 09:54:19.625000,140.19,87.07
133365,2018-06-29 09:54:19.656250,198.32,87.07
133366,2018-06-29 09:54:19.687500,191.09,87.07
133367,2018-06-29 09:54:19.718750,129.77,87.07
133368,2018-06-29 09:54:19.750000,45.12,87.07
133369,2018-06-29 09:54:19.781250,-33.83,87.07
133370,2018-06-29 09:54:19.812500,-89.14,87.07
133371,2018-06-29 09:54:19.843750,-118.08,87.07
133372,2018-06-29 09:54:19.875000,-129.62,87.07
133373,2018-06-29 09:54:19.906250,-131.69,87.07
133374,2018-06-29 09:54:19.937500,-123.01,87.07
133375,2018-06-29 09:54:19.968750,-99.92,87.07
133376,2018-06-29 09:54:20.000000,-67.55,87.07
133377,2018-06-29 09:54:20.031250,-37.68,87.07
133378,2018-06-29 09:54:20.062500,-18.05,87.07
133379,2018-06-29 09:54:20.093750,-9.72,87.07
133380,2018-06-29 09:54:20.125000,-12.66,87.07
133381,2018-06-29 09:54:20.156250,-26.77,87.07
133382,2018-06-29 09:54:20.187500,-47.97,87.07
133383,2018-06-29 09:54:20.218750,-68.31,87.07
133384,2018-06-29 09:54:20.250000,-81.51,87.07
133385,2018-06-29 09:54:20.281250,-86.56,87.07
133386,2018-06-29 09:54:20.312500,-86.47,87.07
133387,2018-06-29 09:54:20.343750,-82.52,87.07
133388,2018-06-29 09:54:20.375000,-69.8,87.07
133389,2018-06-29 09:54:20.406250,-41.78,87.07
133390,2018-06-29 09:54:20.437500,0.19,87.07
133391,2018-06-29 09:54:20.468750,44.89,87.07
133392,2018-06-29 09:54:20.500000,79.16,87.07
133393,2018-06-29 09:54:20.531250,96.44,87.6
133394,2018-06-29 09:54:20.562500,98.17,87.6
133395,2018-06-29 09:54:20.593750,89.78,87.6
133396,2018-06-29 09:54:20.625000,77.26,87.6
133397,2018-06-29 09:54:20.656250,65.35,87.6
133398,2018-06-29 09:54:20.687500,55.13,87.6
133399,2018-06-29 09:54:20.718750,43.66,87.6
133400,2018-06-29 09:54:20.750000,29.93,87.6
133401,2018-06-29 09:54:20.781250,17.82,87.6
133402,2018-06-29 09:54:20.812500,9.82,87.6
133403,2018-06-29 09:54:20.843750,3.75,87.6
133404,2018-06-29 09:54:20.875000,-1.37,87.6
133405,2018-06-29 09:54:20.906250,-3.83,87.6
133406,2018-06-29 09:54:20.937500,-4.53,87.6
133407,2018-06-29 09:54:20.968750,-7.3,87.6
133408,2018-06-29 09:54:21.000000,-12.9,87.6
133409,2018-06-29 09:54:21.031250,-16.53,87.6
133410,2018-06-29 09:54:21.062500,-14.1,87.6
133411,2018-06-29 09:54:21.093750,-10.07,87.6
133412,2018-06-29 09:54:21.125000,-13.84,87.6
133413,2018-06-29 09:54:21.156250,-26.86,87.6
133414,2018-06-29 09:54:21.187500,-37.98,87.6
133415,2018-06-29 09:54:21.218750,-33.35,87.6
133416,2018-06-29 09:54:21.250000,-8.99,87.6
133417,2018-06-29 09:54:21.281250,24.13,87.6
133418,2018-06-29 09:54:21.312500,49.86,87.6
133419,2018-06-29 09:54:21.343750,61.72,87.6
133420,2018-06-29 09:54:21.375000,63.9,87.6
133421,2018-06-29 09:54:21.406250,61.05,87.6
133422,2018-06-29 09:54:21.437500,55.29,87.6
133423,2018-06-29 09:54:21.468750,50.64,87.6
133424,2018-06-29 09:54:21.500000,48.93,87.6
133425,2018-06-29 09:54:21.531250,48.7,88.15
133426,2018-06-29 09:54:21.562500,48.99,88.15
133427,2018-06-29 09:54:21.593750,52.75,88.15
133428,2018-06-29 09:54:21.625000,61.06,88.15
133429,2018-06-29 09:54:21.656250,65.94,88.15
133430,2018-06-29 09:54:21.687500,55.63,88.15
133431,2018-06-29 09:54:21.718750,25.18,88.15
133432,2018-06-29 09:54:21.750000,-18.74,88.15
133433,2018-06-29 09:54:21.781250,-70.66,88.15
133434,2018-06-29 09:54:21.812500,-109.19,88.15
133435,2018-06-29 09:54:21.843750,-100.61,88.15
133436,2018-06-29 09:54:21.875000,-42.93,88.15
133437,2018-06-29 09:54:21.906250,47.03,88.15
133438,2018-06-29 09:54:21.937500,141.72,88.15
133439,2018-06-29 09:54:21.968750,200.98,88.15
133440,2018-06-29 09:54:22.000000,179.46,88.15
133441,2018-06-29 09:54:22.031250,81.05,88.15
133442,2018-06-29 09:54:22.062500,-24.72,88.15
133443,2018-06-29 09:54:22.093750,-93.54,88.15
133444,2018-06-29 09:54:22.125000,-136.65,88.15
133445,2018-06-29 09:54:22.156250,-159.13,88.15
133446,2018-06-29 09:54:22.187500,-155.64,88.15
133447,2018-06-29 09:54:22.218750,-133.08,88.15
133448,2018-06-29 09:54:22.250000,-103.76,88.15
133449,2018-06-29 09:54:22.281250,-72.96,88.15
133450,2018-06-29 09:54:22.312500,-40.17,88.15
133451,2018-06-29 09:54:22.343750,-9.77,88.15
133452,2018-06-29 09:54:22.375000,9.32,88.15
133453,2018-06-29 09:54:22.406250,14.65,88.15
133454,2018-06-29 09:54:22.437500,11.98,88.15
133455,2018-06-29 09:54:22.468750,7.55,88.15
133456,2018-06-29 09:54:22.500000,1.26,88.15
133457,2018-06-29 09:54:22.531250,-7.87,88.7
133458,2018-06-29 09:54:22.562500,-16.2,88.7
133459,2018-06-29 09:54:22.593750,-18.0,88.7
133460,2018-06-29 09:54:22.625000,-13.28,88.7
133461,2018-06-29 09:54:22.656250,-6.74,88.7
133462,2018-06-29 09:54:22.687500,-0.32,88.7
133463,2018-06-29 09:54:22.718750,6.89,88.7
133464,2018-06-29 09:54:22.750000,13.09,88.7
133465,2018-06-29 09:54:22.781250,10.14,88.7
133466,2018-06-29 09:54:22.812500,-2.52,88.7
133467,2018-06-29 09:54:22.843750,-15.09,88.7
133468,2018-06-29 09:54:22.875000,-17.7,88.7
133469,2018-06-29 09:54:22.906250,-15.41,88.7
133470,2018-06-29 09:54:22.937500,-12.18,88.7
133471,2018-06-29 09:54:22.968750,6.96,88.7
133472,2018-06-29 09:54:23.000000,59.29,88.7
133473,2018-06-29 09:54:23.031250,148.74,88.7
133474,2018-06-29 09:54:23.062500,245.77,88.7
133475,2018-06-29 09:54:23.093750,309.66,88.7
133476,2018-06-29 09:54:23.125000,291.62,88.7
133477,2018-06-29 09:54:23.156250,179.43,88.7
133478,2018-06-29 09:54:23.187500,44.99,88.7
133479,2018-06-29 09:54:23.218750,-67.61,88.7
133480,2018-06-29 09:54:23.250000,-149.16,88.7
133481,2018-06-29 09:54:23.281250,-192.86,88.7
133482,2018-06-29 09:54:23.312500,-200.98,88.7
133483,2018-06-29 09:54:23.343750,-190.61,88.7
133484,2018-06-29 09:54:23.375000,-172.37,88.7
133485,2018-06-29 09:54:23.406250,-147.58,88.7
133486,2018-06-29 09:54:23.437500,-115.38,88.7
133487,2018-06-29 09:54:23.468750,-82.47,88.7
133488,2018-06-29 09:54:23.500000,-57.99,88.7
133489,2018-06-29 09:54:23.531250,-43.15,89.25
133490,2018-06-29 09:54:23.562500,-37.11,89.25
133491,2018-06-29 09:54:23.593750,-39.49,89.25
133492,2018-06-29 09:54:23.625000,-51.33,89.25
133493,2018-06-29 09:54:23.656250,-65.11,89.25
133494,2018-06-29 09:54:23.687500,-67.19,89.25
133495,2018-06-29 09:54:23.718750,-49.73,89.25
133496,2018-06-29 09:54:23.750000,-18.89,89.25
133497,2018-06-29 09:54:23.781250,12.43,89.25
133498,2018-06-29 09:54:23.812500,37.63,89.25
133499,2018-06-29 09:54:23.843750,57.06,89.25
133500,2018-06-29 09:54:23.875000,73.78,89.25
133501,2018-06-29 09:54:23.906250,89.0,89.25
133502,2018-06-29 09:54:23.937500,100.23,89.25
133503,2018-06-29 09:54:23.968750,102.82,89.25
133504,2018-06-29 09:54:24.000000,95.18,89.25
133505,2018-06-29 09:54:24.031250,81.94,89.25
133506,2018-06-29 09:54:24.062500,69.32,89.25
133507,2018-06-29 09:54:24.093750,58.15,89.25
133508,2018-06-29 09:54:24.125000,44.57,89.25
133509,2018-06-29 09:54:24.156250,29.58,89.25
133510,2018-06-29 09:54:24.187500,25.71,89.25
133511,2018-06-29 09:54:24.218750,46.35,89.25
133512,2018-06-29 09:54:24.250000,83.4,89.25
133513,2018-06-29 09:54:24.281250,104.07,89.25
133514,2018-06-29 09:54:24.312500,80.64,89.25
133515,2018-06-29 09:54:24.343750,19.01,89.25
133516,2018-06-29 09:54:24.375000,-51.45,89.25
133517,2018-06-29 09:54:24.406250,-107.58,89.25
133518,2018-06-29 09:54:24.437500,-143.31,89.25
133519,2018-06-29 09:54:24.468750,-162.66,89.25
133520,2018-06-29 09:54:24.500000,-170.91,89.25
133521,2018-06-29 09:54:24.531250,-167.31,89.82
133522,2018-06-29 09:54:24.562500,-144.58,89.82
133523,2018-06-29 09:54:24.593750,-99.92,89.82
133524,2018-06-29 09:54:24.625000,-43.4,89.82
133525,2018-06-29 09:54:24.656250,11.01,89.82
133526,2018-06-29 09:54:24.687500,57.8,89.82
133527,2018-06-29 09:54:24.718750,96.27,89.82
133528,2018-06-29 09:54:24.750000,119.41,89.82
133529,2018-06-29 09:54:24.781250,117.63,89.82
133530,2018-06-29 09:54:24.812500,91.93,89.82
133531,2018-06-29 09:54:24.843750,55.18,89.82
133532,2018-06-29 09:54:24.875000,21.35,89.82
133533,2018-06-29 09:54:24.906250,-1.57,89.82
133534,2018-06-29 09:54:24.937500,-11.02,89.82
133535,2018-06-29 09:54:24.968750,-9.17,89.82
133536,2018-06-29 09:54:25.000000,-2.05,89.82
133537,2018-06-29 09:54:25.031250,5.25,89.82
133538,2018-06-29 09:54:25.062500,12.63,89.82
133539,2018-06-29 09:54:25.093750,22.69,89.82
133540,2018-06-29 09:54:25.125000,34.88,89.82
133541,2018-06-29 09:54:25.156250,43.56,89.82
133542,2018-06-29 09:54:25.187500,41.65,89.82
133543,2018-06-29 09:54:25.218750,25.69,89.82
133544,2018-06-29 09:54:25.250000,-2.27,89.82
133545,2018-06-29 09:54:25.281250,-37.32,89.82
133546,2018-06-29 09:54:25.312500,-72.59,89.82
133547,2018-06-29 09:54:25.343750,-94.91,89.82
133548,2018-06-29 09:54:25.375000,-85.31,89.82
133549,2018-06-29 09:54:25.406250,-29.72,89.82
133550,2018-06-29 09:54:25.437500,67.37,89.82
133551,2018-06-29 09:54:25.468750,173.83,89.82
133552,2018-06-29 09:54:25.500000,239.7,89.82
133553,2018-06-29 09:54:25.531250,231.27,90.4
133554,2018-06-29 09:54:25.562500,157.61,90.4
133555,2018-06-29 09:54:25.593750,57.4,90.4
133556,2018-06-29 09:54:25.625000,-32.69,90.4
133557,2018-06-29 09:54:25.656250,-93.04,90.4
133558,2018-06-29 09:54:25.687500,-120.2,90.4
133559,2018-06-29 09:54:25.718750,-121.58,90.4
133560,2018-06-29 09:54:25.750000,-108.08,90.4
133561,2018-06-29 09:54:25.781250,-87.67,90.4
133562,2018-06-29 09:54:25.812500,-64.55,90.4
133563,2018-06-29 09:54:25.843750,-42.64,90.4
133564,2018-06-29 09:54:25.875000,-27.62,90.4
133565,2018-06-29 09:54:25.906250,-24.48,90.4
133566,2018-06-29 09:54:25.937500,-32.65,90.4
133567,2018-06-29 09:54:25.968750,-45.48,90.4
133568,2018-06-29 09:54:26.000000,-56.83,90.4
133569,2018-06-29 09:54:26.031250,-65.68,90.4
133570,2018-06-29 09:54:26.062500,-73.13,90.4
133571,2018-06-29 09:54:26.093750,-78.27,90.4
133572,2018-06-29 09:54:26.125000,-79.81,90.4
133573,2018-06-29 09:54:26.156250,-78.79,90.4
133574,2018-06-29 09:54:26.187500,-74.15,90.4
133575,2018-06-29 09:54:26.218750,-58.4,90.4
133576,2018-06-29 09:54:26.250000,-24.99,90.4
133577,2018-06-29 09:54:26.281250,19.62,90.4
133578,2018-06-29 09:54:26.312500,59.23,90.4
133579,2018-06-29 09:54:26.343750,82.81,90.4
133580,2018-06-29 09:54:26.375000,91.38,90.4
133581,2018-06-29 09:54:26.406250,91.64,90.4
133582,2018-06-29 09:54:26.437500,88.06,90.4
133583,2018-06-29 09:54:26.468750,80.58,90.4
133584,2018-06-29 09:54:26.500000,67.05,90.4
133585,2018-06-29 09:54:26.531250,49.33,91.0
133586,2018-06-29 09:54:26.562500,36.39,91.0
133587,2018-06-29 09:54:26.593750,36.59,91.0
133588,2018-06-29 09:54:26.625000,45.44,91.0
133589,2018-06-29 09:54:26.656250,47.04,91.0
133590,2018-06-29 09:54:26.687500,29.91,91.0
133591,2018-06-29 09:54:26.718750,-3.0,91.0
133592,2018-06-29 09:54:26.750000,-40.11,91.0
133593,2018-06-29 09:54:26.781250,-71.21,91.0
133594,2018-06-29 09:54:26.812500,-91.6,91.0
133595,2018-06-29 09:54:26.843750,-101.75,91.0
133596,2018-06-29 09:54:26.875000,-105.38,91.0
133597,2018-06-29 09:54:26.906250,-105.95,91.0
133598,2018-06-29 09:54:26.937500,-102.82,91.0
133599,2018-06-29 09:54:26.968750,-90.52,91.0
133600,2018-06-29 09:54:27.000000,-63.65,91.0
133601,2018-06-29 09:54:27.031250,-22.59,91.0
133602,2018-06-29 09:54:27.062500,26.07,91.0
133603,2018-06-29 09:54:27.093750,72.05,91.0
133604,2018-06-29 09:54:27.125000,103.75,91.0
133605,2018-06-29 09:54:27.156250,113.21,91.0
133606,2018-06-29 09:54:27.187500,100.64,91.0
133607,2018-06-29 09:54:27.218750,74.33,91.0
133608,2018-06-29 09:54:27.250000,46.01,91.0
133609,2018-06-29 09:54:27.281250,25.12,91.0
133610,2018-06-29 09:54:27.312500,15.57,91.0
133611,2018-06-29 09:54:27.343750,15.24,91.0
133612,2018-06-29 09:54:27.375000,20.44,91.0
133613,2018-06-29 09:54:27.406250,27.75,91.0
133614,2018-06-29 09:54:27.437500,35.88,91.0
133615,2018-06-29 09:54:27.468750,43.96,91.0
133616,2018-06-29 09:54:27.500000,50.72,91.0
133617,2018-06-29 09:54:27.531250,53.77,91.48
133618,2018-06-29 09:54:27.562500,50.32,91.48
133619,2018-06-29 09:54:27.593750,39.89,91.48
133620,2018-06-29 09:54:27.625000,20.58,91.48
133621,2018-06-29 09:54:27.656250,-9.61,91.48
133622,2018-06-29 09:54:27.687500,-50.37,91.48
133623,2018-06-29 09:54:27.718750,-85.87,91.48
133624,2018-06-29 09:54:27.750000,-79.16,91.48
133625,2018-06-29 09:54:27.781250,-14.95,91.48
133626,2018-06-29 09:54:27.812500,91.83,91.48
133627,2018-06-29 09:54:27.843750,198.53,91.48
133628,2018-06-29 09:54:27.875000,256.93,91.48
133629,2018-06-29 09:54:27.906250,238.04,91.48
133630,2018-06-29 09:54:27.937500,150.41,91.48
133631,2018-06-29 09:54:27.968750,31.32,91.48
133632,2018-06-29 09:54:28.000000,-77.8,91.48
133633,2018-06-29 09:54:28.031250,-152.78,91.48
133634,2018-06-29 09:54:28.062500,-188.53,91.48
133635,2018-06-29 09:54:28.093750,-192.41,91.48
133636,2018-06-29 09:54:28.125000,-177.38,91.48
133637,2018-06-29 09:54:28.156250,-153.83,91.48
133638,2018-06-29 09:54:28.187500,-126.89,91.48
133639,2018-06-29 09:54:28.218750,-98.34,91.48
133640,2018-06-29 09:54:28.250000,-70.88,91.48
133641,2018-06-29 09:54:28.281250,-47.0,91.48
133642,2018-06-29 09:54:28.312500,-25.67,91.48
133643,2018-06-29 09:54:28.343750,-2.66,91.48
133644,2018-06-29 09:54:28.375000,21.54,91.48
133645,2018-06-29 09:54:28.406250,35.29,91.48
133646,2018-06-29 09:54:28.437500,25.68,91.48
133647,2018-06-29 09:54:28.468750,-6.34,91.48
133648,2018-06-29 09:54:28.500000,-44.56,91.48
133649,2018-06-29 09:54:28.531250,-69.87,91.95
133650,2018-06-29 09:54:28.562500,-71.84,91.95
133651,2018-06-29 09:54:28.593750,-52.89,91.95
133652,2018-06-29 09:54:28.625000,-24.51,91.95
133653,2018-06-29 09:54:28.656250,1.51,91.95
133654,2018-06-29 09:54:28.687500,20.19,91.95
133655,2018-06-29 09:54:28.718750,33.39,91.95
133656,2018-06-29 09:54:28.750000,44.7,91.95
133657,2018-06-29 09:54:28.781250,54.87,91.95
133658,2018-06-29 09:54:28.812500,61.32,91.95
133659,2018-06-29 09:54:28.843750,61.44,91.95
133660,2018-06-29 09:54:28.875000,56.29,91.95
133661,2018-06-29 09:54:28.906250,49.25,91.95
133662,2018-06-29 09:54:28.937500,42.37,91.95
133663,2018-06-29 09:54:28.968750,35.73,91.95
133664,2018-06-29 09:54:29.000000,28.82,91.95
133665,2018-06-29 09:54:29.031250,21.35,91.95
133666,2018-06-29 09:54:29.062500,13.53,91.95
133667,2018-06-29 09:54:29.093750,4.45,91.95
133668,2018-06-29 09:54:29.125000,-8.96,91.95
133669,2018-06-29 09:54:29.156250,-28.22,91.95
133670,2018-06-29 09:54:29.187500,-50.88,91.95
133671,2018-06-29 09:54:29.218750,-73.11,91.95
133672,2018-06-29 09:54:29.250000,-89.11,91.95
133673,2018-06-29 09:54:29.281250,-89.7,91.95
133674,2018-06-29 09:54:29.312500,-69.96,91.95
133675,2018-06-29 09:54:29.343750,-37.83,91.95
133676,2018-06-29 09:54:29.375000,-7.82,91.95
133677,2018-06-29 09:54:29.406250,12.33,91.95
133678,2018-06-29 09:54:29.437500,24.11,91.95
133679,2018-06-29 09:54:29.468750,30.74,91.95
133680,2018-06-29 09:54:29.500000,33.11,91.95
133681,2018-06-29 09:54:29.531250,32.9,92.38
133682,2018-06-29 09:54:29.562500,34.76,92.38
133683,2018-06-29 09:54:29.593750,42.8,92.38
133684,2018-06-29 09:54:29.625000,55.58,92.38
133685,2018-06-29 09:54:29.656250,66.32,92.38
133686,2018-06-29 09:54:29.687500,68.74,92.38
133687,2018-06-29 09:54:29.718750,61.82,92.38
133688,2018-06-29 09:54:29.750000,48.8,92.38
133689,2018-06-29 09:54:29.781250,33.76,92.38
133690,2018-06-29 09:54:29.812500,19.88,92.38
133691,2018-06-29 09:54:29.843750,8.29,92.38
133692,2018-06-29 09:54:29.875000,-2.36,92.38
133693,2018-06-29 09:54:29.906250,-13.61,92.38
133694,2018-06-29 09:54:29.937500,-25.61,92.38
133695,2018-06-29 09:54:29.968750,-37.77,92.38
133696,2018-06-29 09:54:30.000000,-46.3,92.38
133697,2018-06-29 09:54:30.031250,-44.16,92.38
133698,2018-06-29 09:54:30.062500,-31.06,92.38
133699,2018-06-29 09:54:30.093750,-17.83,92.38
133700,2018-06-29 09:54:30.125000,-12.78,92.38
133701,2018-06-29 09:54:30.156250,-8.69,92.38
133702,2018-06-29 09:54:30.187500,10.65,92.38
133703,2018-06-29 09:54:30.218750,55.83,92.38
133704,2018-06-29 09:54:30.250000,122.8,92.38
133705,2018-06-29 09:54:30.281250,189.32,92.38
133706,2018-06-29 09:54:30.312500,222.55,92.38
133707,2018-06-29 09:54:30.343750,200.04,92.38
133708,2018-06-29 09:54:30.375000,127.57,92.38
133709,2018-06-29 09:54:30.406250,34.57,92.38
133710,2018-06-29 09:54:30.437500,-48.12,92.38
133711,2018-06-29 09:54:30.468750,-105.26,92.38
133712,2018-06-29 09:54:30.500000,-137.8,92.38
133713,2018-06-29 09:54:30.531250,-153.72,92.8
133714,2018-06-29 09:54:30.562500,-159.6,92.8
133715,2018-06-29 09:54:30.593750,-157.68,92.8
133716,2018-06-29 09:54:30.625000,-148.38,92.8
133717,2018-06-29 09:54:30.656250,-134.02,92.8
133718,2018-06-29 09:54:30.687500,-118.54,92.8
133719,2018-06-29 09:54:30.718750,-102.3,92.8
133720,2018-06-29 09:54:30.750000,-78.8,92.8
133721,2018-06-29 09:54:30.781250,-41.75,92.8
133722,2018-06-29 09:54:30.812500,2.59,92.8
133723,2018-06-29 09:54:30.843750,36.86,92.8
133724,2018-06-29 09:54:30.875000,49.52,92.8
133725,2018-06-29 09:54:30.906250,43.86,92.8
133726,2018-06-29 09:54:30.937500,29.88,92.8
133727,2018-06-29 09:54:30.968750,15.21,92.8
133728,2018-06-29 09:54:31.000000,4.38,92.8
133729,2018-06-29 09:54:31.031250,-0.01,92.8
133730,2018-06-29 09:54:31.062500,2.52,92.8
133731,2018-06-29 09:54:31.093750,10.89,92.8
133732,2018-06-29 09:54:31.125000,23.84,92.8
133733,2018-06-29 09:54:31.156250,39.77,92.8
133734,2018-06-29 09:54:31.187500,54.58,92.8
133735,2018-06-29 09:54:31.218750,61.0,92.8
133736,2018-06-29 09:54:31.250000,54.11,92.8
133737,2018-06-29 09:54:31.281250,36.8,92.8
133738,2018-06-29 09:54:31.312500,16.22,92.8
133739,2018-06-29 09:54:31.343750,-2.38,92.8
133740,2018-06-29 09:54:31.375000,-15.53,92.8
133741,2018-06-29 09:54:31.406250,-19.21,92.8
133742,2018-06-29 09:54:31.437500,-10.3,92.8
133743,2018-06-29 09:54:31.468750,11.9,92.8
133744,2018-06-29 09:54:31.500000,42.57,92.8
133745,2018-06-29 09:54:31.531250,67.15,93.12
133746,2018-06-29 09:54:31.562500,69.12,93.12
133747,2018-06-29 09:54:31.593750,46.1,93.12
133748,2018-06-29 09:54:31.625000,11.51,93.12
133749,2018-06-29 09:54:31.656250,-19.46,93.12
133750,2018-06-29 09:54:31.687500,-39.42,93.12
133751,2018-06-29 09:54:31.718750,-47.8,93.12
133752,2018-06-29 09:54:31.750000,-47.84,93.12
133753,2018-06-29 09:54:31.781250,-44.4,93.12
133754,2018-06-29 09:54:31.812500,-40.71,93.12
133755,2018-06-29 09:54:31.843750,-36.42,93.12
133756,2018-06-29 09:54:31.875000,-29.54,93.12
133757,2018-06-29 09:54:31.906250,-20.62,93.12
133758,2018-06-29 09:54:31.937500,-13.32,93.12
133759,2018-06-29 09:54:31.968750,-10.41,93.12
133760,2018-06-29 09:54:32.000000,-10.83,93.12
133761,2018-06-29 09:54:32.031250,-12.42,93.12
133762,2018-06-29 09:54:32.062500,-15.61,93.12
133763,2018-06-29 09:54:32.093750,-22.37,93.12
133764,2018-06-29 09:54:32.125000,-32.7,93.12
133765,2018-06-29 09:54:32.156250,-44.58,93.12
133766,2018-06-29 09:54:32.187500,-54.66,93.12
133767,2018-06-29 09:54:32.218750,-56.57,93.12
133768,2018-06-29 09:54:32.250000,-43.51,93.12
133769,2018-06-29 09:54:32.281250,-15.4,93.12
133770,2018-06-29 09:54:32.312500,20.25,93.12
133771,2018-06-29 09:54:32.343750,54.74,93.12
133772,2018-06-29 09:54:32.375000,81.85,93.12
133773,2018-06-29 09:54:32.406250,97.59,93.12
133774,2018-06-29 09:54:32.437500,101.15,93.12
133775,2018-06-29 09:54:32.468750,94.66,93.12
133776,2018-06-29 09:54:32.500000,80.04,93.12
133777,2018-06-29 09:54:32.531250,58.19,93.45
133778,2018-06-29 09:54:32.562500,32.97,93.45
133779,2018-06-29 09:54:32.593750,13.91,93.45
133780,2018-06-29 09:54:32.625000,11.91,93.45
