,Time,ppg,hr
134400,2018-06-29 09:54:52.000000,-109.67,98.62
134401,2018-06-29 09:54:52.031250,-87.22,98.62
134402,2018-06-29 09:54:52.062500,-59.56,98.62
134403,2018-06-29 09:54:52.093750,-41.42,98.62
134404,2018-06-29 09:54:52.125000,-36.98,98.62
134405,2018-06-29 09:54:52.156250,-38.26,98.62
134406,2018-06-29 09:54:52.187500,-27.47,98.62
134407,2018-06-29 09:54:52.218750,10.5,98.62
134408,2018-06-29 09:54:52.250000,65.58,98.62
134409,2018-06-29 09:54:52.281250,135.2,98.62
134410,2018-06-29 09:54:52.312500,203.88,98.62
134411,2018-06-29 09:54:52.343750,248.69,98.62
134412,2018-06-29 09:54:52.375000,246.14,98.62
134413,2018-06-29 09:54:52.406250,175.8,98.62
134414,2018-06-29 09:54:52.437500,76.19,98.62
134415,2018-06-29 09:54:52.468750,-21.13,98.62
134416,2018-06-29 09:54:52.500000,-105.66,98.62
134417,2018-06-29 09:54:52.531250,-163.99,99.0
134418,2018-06-29 09:54:52.562500,-185.62,99.0
134419,2018-06-29 09:54:52.593750,-178.22,99.0
134420,2018-06-29 09:54:52.625000,-158.19,99.0
134421,2018-06-29 09:54:52.656250,-136.77,99.0
134422,2018-06-29 09:54:52.687500,-111.21,99.0
134423,2018-06-29 09:54:52.718750,-72.55,99.0
134424,2018-06-29 09:54:52.750000,-20.74,99.0
134425,2018-06-29 09:54:52.781250,37.61,99.0
134426,2018-06-29 09:54:52.812500,89.31,99.0
134427,2018-06-29 09:54:52.843750,120.04,99.0
134428,2018-06-29 09:54:52.875000,119.72,99.0
134429,2018-06-29 09:54:52.906250,91.68,99.0
134430,2018-06-29 09:54:52.937500,51.99,99.0
134431,2018-06-29 09:54:52.968750,14.85,99.0
134432,2018-06-29 09:54:53.000000,-9.45,99.0
134433,2018-06-29 09:54:53.031250,-18.7,99.0
134434,2018-06-29 09:54:53.062500,-18.16,99.0
134435,2018-06-29 09:54:53.093750,-18.87,99.0
134436,2018-06-29 09:54:53.125000,-29.31,99.0
134437,2018-06-29 09:54:53.156250,-42.43,99.0
134438,2018-06-29 09:54:53.187500,-49.7,99.0
134439,2018-06-29 09:54:53.218750,-54.83,99.0
134440,2018-06-29 09:54:53.250000,-82.53,99.0
134441,2018-06-29 09:54:53.281250,-120.92,99.0
134442,2018-06-29 09:54:53.312500,-114.7,99.0
134443,2018-06-29 09:54:53.343750,-36.04,99.0
134444,2018-06-29 09:54:53.375000,106.29,99.0
134445,2018-06-29 09:54:53.406250,254.81,99.0
134446,2018-06-29 09:54:53.437500,339.27,99.0
134447,2018-06-29 09:54:53.468750,309.26,99.0
134448,2018-06-29 09:54:53.500000,193.06,99.0
134449,2018-06-29 09:54:53.531250,76.41,99.33
134450,2018-06-29 09:54:53.562500,-22.9,99.33
134451,2018-06-29 09:54:53.593750,-98.94,99.33
134452,2018-06-29 09:54:53.625000,-143.34,99.33
134453,2018-06-29 09:54:53.656250,-158.63,99.33
134454,2018-06-29 09:54:53.687500,-161.88,99.33
134455,2018-06-29 09:54:53.718750,-156.14,99.33
134456,2018-06-29 09:54:53.750000,-141.0,99.33
134457,2018-06-29 09:54:53.781250,-122.01,99.33
134458,2018-06-29 09:54:53.812500,-114.31,99.33
134459,2018-06-29 09:54:53.843750,-115.7,99.33
134460,2018-06-29 09:54:53.875000,-111.44,99.33
134461,2018-06-29 09:54:53.906250,-96.1,99.33
134462,2018-06-29 09:54:53.937500,-67.77,99.33
134463,2018-06-29 09:54:53.968750,-20.89,99.33
134464,2018-06-29 09:54:54.000000,49.56,99.33
134465,2018-06-29 09:54:54.031250,136.76,99.33
134466,2018-06-29 09:54:54.062500,220.42,99.33
134467,2018-06-29 09:54:54.093750,278.57,99.33
134468,2018-06-29 09:54:54.125000,288.38,99.33
134469,2018-06-29 09:54:54.156250,242.5,99.33
134470,2018-06-29 09:54:54.187500,153.21,99.33
134471,2018-06-29 09:54:54.218750,52.1,99.33
134472,2018-06-29 09:54:54.250000,-30.08,99.33
134473,2018-06-29 09:54:54.281250,-79.6,99.33
134474,2018-06-29 09:54:54.312500,-98.56,99.33
134475,2018-06-29 09:54:54.343750,-101.29,99.33
134476,2018-06-29 09:54:54.375000,-110.56,99.33
134477,2018-06-29 09:54:54.406250,-142.75,99.33
134478,2018-06-29 09:54:54.437500,-188.45,99.33
134479,2018-06-29 09:54:54.468750,-232.22,99.33
134480,2018-06-29 09:54:54.500000,-253.12,99.33
134481,2018-06-29 09:54:54.531250,-215.69,99.62
134482,2018-06-29 09:54:54.562500,-112.78,99.62
134483,2018-06-29 09:54:54.593750,20.52,99.62
134484,2018-06-29 09:54:54.625000,159.63,99.62
134485,2018-06-29 09:54:54.656250,265.86,99.62
134486,2018-06-29 09:54:54.687500,294.76,99.62
134487,2018-06-29 09:54:54.718750,240.5,99.62
134488,2018-06-29 09:54:54.750000,142.4,99.62
134489,2018-06-29 09:54:54.781250,47.69,99.62
134490,2018-06-29 09:54:54.812500,-27.08,99.62
134491,2018-06-29 09:54:54.843750,-83.77,99.62
134492,2018-06-29 09:54:54.875000,-119.3,99.62
134493,2018-06-29 09:54:54.906250,-126.19,99.62
134494,2018-06-29 09:54:54.937500,-107.69,99.62
134495,2018-06-29 09:54:54.968750,-76.21,99.62
134496,2018-06-29 09:54:55.000000,-32.24,99.62
134497,2018-06-29 09:54:55.031250,32.71,99.62
134498,2018-06-29 09:54:55.062500,124.5,99.62
134499,2018-06-29 09:54:55.093750,227.18,99.62
134500,2018-06-29 09:54:55.125000,313.48,99.62
134501,2018-06-29 09:54:55.156250,324.66,99.62
134502,2018-06-29 09:54:55.187500,213.95,99.62
134503,2018-06-29 09:54:55.218750,56.79,99.62
134504,2018-06-29 09:54:55.250000,-84.4,99.62
134505,2018-06-29 09:54:55.281250,-193.98,99.62
134506,2018-06-29 09:54:55.312500,-261.84,99.62
134507,2018-06-29 09:54:55.343750,-284.5,99.62
134508,2018-06-29 09:54:55.375000,-275.11,99.62
134509,2018-06-29 09:54:55.406250,-243.32,99.62
134510,2018-06-29 09:54:55.437500,-192.23,99.62
134511,2018-06-29 09:54:55.468750,-126.92,99.62
134512,2018-06-29 09:54:55.500000,-60.21,99.62
134513,2018-06-29 09:54:55.531250,-7.69,99.92
134514,2018-06-29 09:54:55.562500,30.02,99.92
134515,2018-06-29 09:54:55.593750,59.05,99.92
134516,2018-06-29 09:54:55.625000,97.07,99.92
134517,2018-06-29 09:54:55.656250,157.29,99.92
134518,2018-06-29 09:54:55.687500,228.54,99.92
134519,2018-06-29 09:54:55.718750,288.24,99.92
134520,2018-06-29 09:54:55.750000,317.21,99.92
134521,2018-06-29 09:54:55.781250,272.97,99.92
134522,2018-06-29 09:54:55.812500,150.15,99.92
134523,2018-06-29 09:54:55.843750,1.92,99.92
134524,2018-06-29 09:54:55.875000,-115.38,99.92
134525,2018-06-29 09:54:55.906250,-187.3,99.92
134526,2018-06-29 09:54:55.937500,-221.45,99.92
134527,2018-06-29 09:54:55.968750,-240.85,99.92
134528,2018-06-29 09:54:56.000000,-253.57,99.92
134529,2018-06-29 09:54:56.031250,-251.55,99.92
134530,2018-06-29 09:54:56.062500,-217.98,99.92
134531,2018-06-29 09:54:56.093750,-138.62,99.92
134532,2018-06-29 09:54:56.125000,-27.97,99.92
134533,2018-06-29 09:54:56.156250,75.75,99.92
134534,2018-06-29 09:54:56.187500,178.02,99.92
134535,2018-06-29 09:54:56.218750,285.72,99.92
134536,2018-06-29 09:54:56.250000,378.15,99.92
134537,2018-06-29 09:54:56.281250,422.34,99.92
134538,2018-06-29 09:54:56.312500,357.97,99.92
134539,2018-06-29 09:54:56.343750,195.0,99.92
134540,2018-06-29 09:54:56.375000,30.91,99.92
134541,2018-06-29 09:54:56.406250,-92.96,99.92
134542,2018-06-29 09:54:56.437500,-178.24,99.92
134543,2018-06-29 09:54:56.468750,-218.53,99.92
134544,2018-06-29 09:54:56.500000,-221.17,99.92
134545,2018-06-29 09:54:56.531250,-208.34,100.25
134546,2018-06-29 09:54:56.562500,-194.55,100.25
134547,2018-06-29 09:54:56.593750,-180.95,100.25
134548,2018-06-29 09:54:56.625000,-165.83,100.25
134549,2018-06-29 09:54:56.656250,-155.77,100.25
134550,2018-06-29 09:54:56.687500,-155.6,100.25
134551,2018-06-29 09:54:56.718750,-160.61,100.25
134552,2018-06-29 09:54:56.750000,-133.52,100.25
134553,2018-06-29 09:54:56.781250,-50.95,100.25
134554,2018-06-29 09:54:56.812500,66.01,100.25
134555,2018-06-29 09:54:56.843750,200.82,100.25
134556,2018-06-29 09:54:56.875000,317.11,100.25
134557,2018-06-29 09:54:56.906250,381.98,100.25
134558,2018-06-29 09:54:56.937500,359.75,100.25
134559,2018-06-29 09:54:56.968750,241.05,100.25
134560,2018-06-29 09:54:57.000000,97.02,100.25
134561,2018-06-29 09:54:57.031250,-26.44,100.25
134562,2018-06-29 09:54:57.062500,-116.47,100.25
134563,2018-06-29 09:54:57.093750,-161.97,100.25
134564,2018-06-29 09:54:57.125000,-165.54,100.25
134565,2018-06-29 09:54:57.156250,-149.01,100.25
134566,2018-06-29 09:54:57.187500,-129.78,100.25
134567,2018-06-29 09:54:57.218750,-115.24,100.25
134568,2018-06-29 09:54:57.250000,-104.2,100.25
134569,2018-06-29 09:54:57.281250,-98.28,100.25
134570,2018-06-29 09:54:57.312500,-97.75,100.25
134571,2018-06-29 09:54:57.343750,-87.08,100.25
134572,2018-06-29 09:54:57.375000,-40.29,100.25
134573,2018-06-29 09:54:57.406250,54.7,100.25
134574,2018-06-29 09:54:57.437500,166.59,100.25
134575,2018-06-29 09:54:57.468750,239.24,100.25
134576,2018-06-29 09:54:57.500000,238.51,100.25
134577,2018-06-29 09:54:57.531250,175.83,100.63
134578,2018-06-29 09:54:57.562500,85.98,100.63
134579,2018-06-29 09:54:57.593750,0.63,100.63
134580,2018-06-29 09:54:57.625000,-57.19,100.63
134581,2018-06-29 09:54:57.656250,-78.62,100.63
134582,2018-06-29 09:54:57.687500,-72.64,100.63
134583,2018-06-29 09:54:57.718750,-58.37,100.63
134584,2018-06-29 09:54:57.750000,-49.08,100.63
134585,2018-06-29 09:54:57.781250,-46.23,100.63
134586,2018-06-29 09:54:57.812500,-47.54,100.63
134587,2018-06-29 09:54:57.843750,-52.74,100.63
134588,2018-06-29 09:54:57.875000,-61.6,100.63
134589,2018-06-29 09:54:57.906250,-70.0,100.63
134590,2018-06-29 09:54:57.937500,-66.25,100.63
134591,2018-06-29 09:54:57.968750,-33.87,100.63
134592,2018-06-29 09:54:58.000000,32.83,100.63
134593,2018-06-29 09:54:58.031250,113.1,100.63
134594,2018-06-29 09:54:58.062500,168.81,100.63
134595,2018-06-29 09:54:58.093750,174.2,100.63
134596,2018-06-29 09:54:58.125000,133.19,100.63
134597,2018-06-29 09:54:58.156250,68.99,100.63
134598,2018-06-29 09:54:58.187500,5.54,100.63
134599,2018-06-29 09:54:58.218750,-41.74,100.63
134600,2018-06-29 09:54:58.250000,-68.38,100.63
134601,2018-06-29 09:54:58.281250,-80.26,100.63
134602,2018-06-29 09:54:58.312500,-85.43,100.63
134603,2018-06-29 09:54:58.343750,-85.91,100.63
134604,2018-06-29 09:54:58.375000,-80.58,100.63
134605,2018-06-29 09:54:58.406250,-70.23,100.63
134606,2018-06-29 09:54:58.437500,-55.9,100.63
134607,2018-06-29 09:54:58.468750,-34.64,100.63
134608,2018-06-29 09:54:58.500000,-1.63,100.63
134609,2018-06-29 09:54:58.531250,41.32,100.97
134610,2018-06-29 09:54:58.562500,78.89,100.97
134611,2018-06-29 09:54:58.593750,89.65,100.97
134612,2018-06-29 09:54:58.625000,67.37,100.97
134613,2018-06-29 09:54:58.656250,24.29,100.97
134614,2018-06-29 09:54:58.687500,-22.95,100.97
134615,2018-06-29 09:54:58.718750,-62.91,100.97
134616,2018-06-29 09:54:58.750000,-85.13,100.97
134617,2018-06-29 09:54:58.781250,-82.34,100.97
134618,2018-06-29 09:54:58.812500,-58.9,100.97
134619,2018-06-29 09:54:58.843750,-26.44,100.97
134620,2018-06-29 09:54:58.875000,4.3,100.97
134621,2018-06-29 09:54:58.906250,31.0,100.97
134622,2018-06-29 09:54:58.937500,51.31,100.97
134623,2018-06-29 09:54:58.968750,57.54,100.97
134624,2018-06-29 09:54:59.000000,37.9,100.97
134625,2018-06-29 09:54:59.031250,-6.29,100.97
134626,2018-06-29 09:54:59.062500,-26.55,100.97
134627,2018-06-29 09:54:59.093750,11.12,100.97
134628,2018-06-29 09:54:59.125000,93.17,100.97
134629,2018-06-29 09:54:59.156250,178.5,100.97
134630,2018-06-29 09:54:59.187500,231.07,100.97
134631,2018-06-29 09:54:59.218750,226.66,100.97
134632,2018-06-29 09:54:59.250000,159.67,100.97
134633,2018-06-29 09:54:59.281250,53.14,100.97
134634,2018-06-29 09:54:59.312500,-50.87,100.97
134635,2018-06-29 09:54:59.343750,-124.6,100.97
134636,2018-06-29 09:54:59.375000,-169.46,100.97
134637,2018-06-29 09:54:59.406250,-194.11,100.97
134638,2018-06-29 09:54:59.437500,-199.71,100.97
134639,2018-06-29 09:54:59.468750,-184.1,100.97
134640,2018-06-29 09:54:59.500000,-151.99,100.97
134641,2018-06-29 09:54:59.531250,-109.04,101.27
134642,2018-06-29 09:54:59.562500,-56.28,101.27
134643,2018-06-29 09:54:59.593750,5.75,101.27
134644,2018-06-29 09:54:59.625000,70.41,101.27
134645,2018-06-29 09:54:59.656250,123.29,101.27
134646,2018-06-29 09:54:59.687500,147.44,101.27
134647,2018-06-29 09:54:59.718750,132.93,101.27
134648,2018-06-29 09:54:59.750000,88.31,101.27
134649,2018-06-29 09:54:59.781250,34.11,101.27
134650,2018-06-29 09:54:59.812500,-10.92,101.27
134651,2018-06-29 09:54:59.843750,-37.82,101.27
134652,2018-06-29 09:54:59.875000,-46.05,101.27
134653,2018-06-29 09:54:59.906250,-41.5,101.27
134654,2018-06-29 09:54:59.937500,-33.94,101.27
134655,2018-06-29 09:54:59.968750,-27.26,101.27
134656,2018-06-29 09:55:00.000000,-22.62,101.27
134657,2018-06-29 09:55:00.031250,-19.08,101.27
134658,2018-06-29 09:55:00.062500,-20.45,101.27
134659,2018-06-29 09:55:00.093750,-30.5,101.27
134660,2018-06-29 09:55:00.125000,-50.21,101.27
134661,2018-06-29 09:55:00.156250,-67.26,101.27
134662,2018-06-29 09:55:00.187500,-48.94,101.27
134663,2018-06-29 09:55:00.218750,11.88,101.27
134664,2018-06-29 09:55:00.250000,107.1,101.27
134665,2018-06-29 09:55:00.281250,204.19,101.27
134666,2018-06-29 09:55:00.312500,269.15,101.27
134667,2018-06-29 09:55:00.343750,274.07,101.27
134668,2018-06-29 09:55:00.375000,192.83,101.27
134669,2018-06-29 09:55:00.406250,77.17,101.27
134670,2018-06-29 09:55:00.437500,-27.32,101.27
134671,2018-06-29 09:55:00.468750,-107.95,101.27
134672,2018-06-29 09:55:00.500000,-159.78,101.27
134673,2018-06-29 09:55:00.531250,-180.18,101.58
134674,2018-06-29 09:55:00.562500,-177.25,101.58
134675,2018-06-29 09:55:00.593750,-160.68,101.58
134676,2018-06-29 09:55:00.625000,-139.63,101.58
134677,2018-06-29 09:55:00.656250,-116.76,101.58
134678,2018-06-29 09:55:00.687500,-89.2,101.58
134679,2018-06-29 09:55:00.718750,-57.15,101.58
134680,2018-06-29 09:55:00.750000,-18.6,101.58
134681,2018-06-29 09:55:00.781250,23.01,101.58
134682,2018-06-29 09:55:00.812500,57.11,101.58
134683,2018-06-29 09:55:00.843750,67.94,101.58
134684,2018-06-29 09:55:00.875000,54.73,101.58
134685,2018-06-29 09:55:00.906250,31.38,101.58
134686,2018-06-29 09:55:00.937500,9.41,101.58
134687,2018-06-29 09:55:00.968750,-7.31,101.58
134688,2018-06-29 09:55:01.000000,-14.63,101.58
134689,2018-06-29 09:55:01.031250,-7.6,101.58
134690,2018-06-29 09:55:01.062500,7.53,101.58
134691,2018-06-29 09:55:01.093750,18.98,101.58
134692,2018-06-29 09:55:01.125000,21.74,101.58
134693,2018-06-29 09:55:01.156250,20.51,101.58
134694,2018-06-29 09:55:01.187500,18.75,101.58
134695,2018-06-29 09:55:01.218750,12.55,101.58
134696,2018-06-29 09:55:01.250000,-6.58,101.58
134697,2018-06-29 09:55:01.281250,-39.99,101.58
134698,2018-06-29 09:55:01.312500,-65.76,101.58
134699,2018-06-29 09:55:01.343750,-56.94,101.58
134700,2018-06-29 09:55:01.375000,-1.98,101.58
134701,2018-06-29 09:55:01.406250,78.39,101.58
134702,2018-06-29 09:55:01.437500,145.64,101.58
134703,2018-06-29 09:55:01.468750,167.23,101.58
134704,2018-06-29 09:55:01.500000,132.94,101.58
134705,2018-06-29 09:55:01.531250,60.77,101.9
134706,2018-06-29 09:55:01.562500,-11.21,101.9
134707,2018-06-29 09:55:01.593750,-54.32,101.9
134708,2018-06-29 09:55:01.625000,-69.78,101.9
134709,2018-06-29 09:55:01.656250,-74.17,101.9
134710,2018-06-29 09:55:01.687500,-76.2,101.9
134711,2018-06-29 09:55:01.718750,-73.37,101.9
134712,2018-06-29 09:55:01.750000,-64.82,101.9
134713,2018-06-29 09:55:01.781250,-53.84,101.9
134714,2018-06-29 09:55:01.812500,-40.52,101.9
134715,2018-06-29 09:55:01.843750,-15.47,101.9
134716,2018-06-29 09:55:01.875000,31.81,101.9
134717,2018-06-29 09:55:01.906250,95.58,101.9
134718,2018-06-29 09:55:01.937500,148.12,101.9
134719,2018-06-29 09:55:01.968750,157.43,101.9
134720,2018-06-29 09:55:02.000000,114.82,101.9
134721,2018-06-29 09:55:02.031250,38.28,101.9
134722,2018-06-29 09:55:02.062500,-41.2,101.9
134723,2018-06-29 09:55:02.093750,-98.84,101.9
134724,2018-06-29 09:55:02.125000,-124.74,101.9
134725,2018-06-29 09:55:02.156250,-125.75,101.9
134726,2018-06-29 09:55:02.187500,-112.67,101.9
134727,2018-06-29 09:55:02.218750,-87.54,101.9
134728,2018-06-29 09:55:02.250000,-52.8,101.9
134729,2018-06-29 09:55:02.281250,-14.7,101.9
134730,2018-06-29 09:55:02.312500,13.47,101.9
134731,2018-06-29 09:55:02.343750,16.84,101.9
134732,2018-06-29 09:55:02.375000,-18.5,101.9
134733,2018-06-29 09:55:02.406250,-66.26,101.9
134734,2018-06-29 09:55:02.437500,-61.13,101.9
134735,2018-06-29 09:55:02.468750,10.76,101.9
134736,2018-06-29 09:55:02.500000,119.86,101.9
134737,2018-06-29 09:55:02.531250,221.0,102.23
134738,2018-06-29 09:55:02.562500,277.61,102.23
134739,2018-06-29 09:55:02.593750,252.78,102.23
134740,2018-06-29 09:55:02.625000,144.18,102.23
134741,2018-06-29 09:55:02.656250,20.27,102.23
134742,2018-06-29 09:55:02.687500,-79.71,102.23
134743,2018-06-29 09:55:02.718750,-151.41,102.23
134744,2018-06-29 09:55:02.750000,-195.18,102.23
134745,2018-06-29 09:55:02.781250,-211.59,102.23
134746,2018-06-29 09:55:02.812500,-204.06,102.23
134747,2018-06-29 09:55:02.843750,-171.19,102.23
134748,2018-06-29 09:55:02.875000,-118.69,102.23
134749,2018-06-29 09:55:02.906250,-58.57,102.23
134750,2018-06-29 09:55:02.937500,-3.04,102.23
134751,2018-06-29 09:55:02.968750,43.87,102.23
134752,2018-06-29 09:55:03.000000,87.28,102.23
134753,2018-06-29 09:55:03.031250,128.3,102.23
134754,2018-06-29 09:55:03.062500,158.1,102.23
134755,2018-06-29 09:55:03.093750,159.18,102.23
134756,2018-06-29 09:55:03.125000,126.59,102.23
134757,2018-06-29 09:55:03.156250,72.79,102.23
134758,2018-06-29 09:55:03.187500,15.65,102.23
134759,2018-06-29 09:55:03.218750,-30.82,102.23
134760,2018-06-29 09:55:03.250000,-56.29,102.23
134761,2018-06-29 09:55:03.281250,-57.45,102.23
134762,2018-06-29 09:55:03.312500,-46.39,102.23
134763,2018-06-29 09:55:03.343750,-38.4,102.23
134764,2018-06-29 09:55:03.375000,-39.25,102.23
134765,2018-06-29 09:55:03.406250,-43.93,102.23
134766,2018-06-29 09:55:03.437500,-44.93,102.23
134767,2018-06-29 09:55:03.468750,-41.74,102.23
134768,2018-06-29 09:55:03.500000,-46.19,102.23
134769,2018-06-29 09:55:03.531250,-66.54,102.52
134770,2018-06-29 09:55:03.562500,-74.54,102.52
134771,2018-06-29 09:55:03.593750,-34.33,102.52
134772,2018-06-29 09:55:03.625000,51.55,102.52
134773,2018-06-29 09:55:03.656250,153.42,102.52
134774,2018-06-29 09:55:03.687500,233.57,102.52
134775,2018-06-29 09:55:03.718750,263.61,102.52
134776,2018-06-29 09:55:03.750000,229.73,102.52
134777,2018-06-29 09:55:03.781250,142.03,102.52
134778,2018-06-29 09:55:03.812500,35.37,102.52
134779,2018-06-29 09:55:03.843750,-52.71,102.52
134780,2018-06-29 09:55:03.875000,-109.76,102.52
134781,2018-06-29 09:55:03.906250,-142.67,102.52
134782,2018-06-29 09:55:03.937500,-157.12,102.52
134783,2018-06-29 09:55:03.968750,-153.81,102.52
134784,2018-06-29 09:55:04.000000,-141.15,102.52
134785,2018-06-29 09:55:04.031250,-133.93,102.52
134786,2018-06-29 09:55:04.062500,-133.58,102.52
134787,2018-06-29 09:55:04.093750,-120.36,102.52
134788,2018-06-29 09:55:04.125000,-69.93,102.52
134789,2018-06-29 09:55:04.156250,21.43,102.52
134790,2018-06-29 09:55:04.187500,127.27,102.52
134791,2018-06-29 09:55:04.218750,204.19,102.52
134792,2018-06-29 09:55:04.250000,218.81,102.52
134793,2018-06-29 09:55:04.281250,170.54,102.52
134794,2018-06-29 09:55:04.312500,87.57,102.52
134795,2018-06-29 09:55:04.343750,6.25,102.52
134796,2018-06-29 09:55:04.375000,-48.85,102.52
134797,2018-06-29 09:55:04.406250,-72.04,102.52
134798,2018-06-29 09:55:04.437500,-74.32,102.52
134799,2018-06-29 09:55:04.468750,-71.84,102.52
134800,2018-06-29 09:55:04.500000,-71.96,102.52
134801,2018-06-29 09:55:04.531250,-72.79,102.77
134802,2018-06-29 09:55:04.562500,-71.85,102.77
134803,2018-06-29 09:55:04.593750,-76.3,102.77
134804,2018-06-29 09:55:04.625000,-94.16,102.77
134805,2018-06-29 09:55:04.656250,-111.38,102.77
134806,2018-06-29 09:55:04.687500,-104.53,102.77
134807,2018-06-29 09:55:04.718750,-51.2,102.77
134808,2018-06-29 09:55:04.750000,39.96,102.77
134809,2018-06-29 09:55:04.781250,137.68,102.77
134810,2018-06-29 09:55:04.812500,210.21,102.77
134811,2018-06-29 09:55:04.843750,237.59,102.77
134812,2018-06-29 09:55:04.875000,211.24,102.77
134813,2018-06-29 09:55:04.906250,141.84,102.77
134814,2018-06-29 09:55:04.937500,57.09,102.77
134815,2018-06-29 09:55:04.968750,-16.98,102.77
134816,2018-06-29 09:55:05.000000,-69.78,102.77
134817,2018-06-29 09:55:05.031250,-99.43,102.77
134818,2018-06-29 09:55:05.062500,-105.3,102.77
134819,2018-06-29 09:55:05.093750,-93.89,102.77
134820,2018-06-29 09:55:05.125000,-78.35,102.77
134821,2018-06-29 09:55:05.156250,-67.17,102.77
134822,2018-06-29 09:55:05.187500,-57.35,102.77
134823,2018-06-29 09:55:05.218750,-42.83,102.77
134824,2018-06-29 09:55:05.250000,-23.31,102.77
134825,2018-06-29 09:55:05.281250,-4.19,102.77
134826,2018-06-29 09:55:05.312500,6.58,102.77
134827,2018-06-29 09:55:05.343750,3.86,102.77
134828,2018-06-29 09:55:05.375000,-7.99,102.77
134829,2018-06-29 09:55:05.406250,-18.64,102.77
134830,2018-06-29 09:55:05.437500,-19.6,102.77
134831,2018-06-29 09:55:05.468750,-8.96,102.77
134832,2018-06-29 09:55:05.500000,9.36,102.77
134833,2018-06-29 09:55:05.531250,26.3,103.02
134834,2018-06-29 09:55:05.562500,33.79,103.02
134835,2018-06-29 09:55:05.593750,32.78,103.02
134836,2018-06-29 09:55:05.625000,25.94,103.02
134837,2018-06-29 09:55:05.656250,13.9,103.02
134838,2018-06-29 09:55:05.687500,-4.53,103.02
134839,2018-06-29 09:55:05.718750,-33.21,103.02
134840,2018-06-29 09:55:05.750000,-76.72,103.02
134841,2018-06-29 09:55:05.781250,-110.19,103.02
134842,2018-06-29 09:55:05.812500,-86.14,103.02
134843,2018-06-29 09:55:05.843750,-7.82,103.02
134844,2018-06-29 09:55:05.875000,93.47,103.02
134845,2018-06-29 09:55:05.906250,189.56,103.02
134846,2018-06-29 09:55:05.937500,253.67,103.02
134847,2018-06-29 09:55:05.968750,244.54,103.02
134848,2018-06-29 09:55:06.000000,149.42,103.02
134849,2018-06-29 09:55:06.031250,27.49,103.02
134850,2018-06-29 09:55:06.062500,-59.18,103.02
134851,2018-06-29 09:55:06.093750,-106.58,103.02
134852,2018-06-29 09:55:06.125000,-123.71,103.02
134853,2018-06-29 09:55:06.156250,-114.99,103.02
134854,2018-06-29 09:55:06.187500,-90.96,103.02
134855,2018-06-29 09:55:06.218750,-65.84,103.02
134856,2018-06-29 09:55:06.250000,-49.08,103.02
134857,2018-06-29 09:55:06.281250,-38.63,103.02
134858,2018-06-29 09:55:06.312500,-27.92,103.02
134859,2018-06-29 09:55:06.343750,-16.43,103.02
134860,2018-06-29 09:55:06.375000,-4.33,103.02
134861,2018-06-29 09:55:06.406250,12.94,103.02
134862,2018-06-29 09:55:06.437500,36.06,103.02
134863,2018-06-29 09:55:06.468750,51.52,103.02
134864,2018-06-29 09:55:06.500000,45.28,103.02
134865,2018-06-29 09:55:06.531250,21.21,103.2
134866,2018-06-29 09:55:06.562500,-5.59,103.2
134867,2018-06-29 09:55:06.593750,-25.58,103.2
134868,2018-06-29 09:55:06.625000,-39.54,103.2
134869,2018-06-29 09:55:06.656250,-51.7,103.2
134870,2018-06-29 09:55:06.687500,-63.29,103.2
134871,2018-06-29 09:55:06.718750,-68.09,103.2
134872,2018-06-29 09:55:06.750000,-56.66,103.2
134873,2018-06-29 09:55:06.781250,-28.3,103.2
134874,2018-06-29 09:55:06.812500,4.7,103.2
134875,2018-06-29 09:55:06.843750,27.02,103.2
134876,2018-06-29 09:55:06.875000,35.4,103.2
134877,2018-06-29 09:55:06.906250,41.15,103.2
134878,2018-06-29 09:55:06.937500,57.82,103.2
134879,2018-06-29 09:55:06.968750,88.47,103.2
134880,2018-06-29 09:55:07.000000,124.17,103.2
134881,2018-06-29 09:55:07.031250,150.62,103.2
134882,2018-06-29 09:55:07.062500,154.31,103.2
134883,2018-06-29 09:55:07.093750,128.17,103.2
134884,2018-06-29 09:55:07.125000,75.94,103.2
134885,2018-06-29 09:55:07.156250,11.15,103.2
134886,2018-06-29 09:55:07.187500,-51.19,103.2
134887,2018-06-29 09:55:07.218750,-101.66,103.2
134888,2018-06-29 09:55:07.250000,-135.38,103.2
134889,2018-06-29 09:55:07.281250,-149.88,103.2
134890,2018-06-29 09:55:07.312500,-148.54,103.2
134891,2018-06-29 09:55:07.343750,-140.6,103.2
134892,2018-06-29 09:55:07.375000,-130.51,103.2
134893,2018-06-29 09:55:07.406250,-110.1,103.2
134894,2018-06-29 09:55:07.437500,-68.77,103.2
134895,2018-06-29 09:55:07.468750,-8.94,103.2
134896,2018-06-29 09:55:07.500000,54.11,103.2
134897,2018-06-29 09:55:07.531250,103.02,103.4
134898,2018-06-29 09:55:07.562500,124.84,103.4
134899,2018-06-29 09:55:07.593750,114.88,103.4
134900,2018-06-29 09:55:07.625000,81.07,103.4
134901,2018-06-29 09:55:07.656250,40.35,103.4
134902,2018-06-29 09:55:07.687500,6.68,103.4
134903,2018-06-29 09:55:07.718750,-15.36,103.4
134904,2018-06-29 09:55:07.750000,-26.14,103.4
134905,2018-06-29 09:55:07.781250,-26.77,103.4
134906,2018-06-29 09:55:07.812500,-20.72,103.4
134907,2018-06-29 09:55:07.843750,-14.24,103.4
134908,2018-06-29 09:55:07.875000,-12.14,103.4
134909,2018-06-29 09:55:07.906250,-14.99,103.4
134910,2018-06-29 09:55:07.937500,-21.45,103.4
134911,2018-06-29 09:55:07.968750,-31.21,103.4
134912,2018-06-29 09:55:08.000000,-43.83,103.4
134913,2018-06-29 09:55:08.031250,-55.38,103.4
134914,2018-06-29 09:55:08.062500,-56.05,103.4
134915,2018-06-29 09:55:08.093750,-31.5,103.4
134916,2018-06-29 09:55:08.125000,26.87,103.4
134917,2018-06-29 09:55:08.156250,107.63,103.4
134918,2018-06-29 09:55:08.187500,178.72,103.4
134919,2018-06-29 09:55:08.218750,207.52,103.4
134920,2018-06-29 09:55:08.250000,182.41,103.4
134921,2018-06-29 09:55:08.281250,116.98,103.4
134922,2018-06-29 09:55:08.312500,38.63,103.4
134923,2018-06-29 09:55:08.343750,-28.76,103.4
134924,2018-06-29 09:55:08.375000,-75.38,103.4
134925,2018-06-29 09:55:08.406250,-101.92,103.4
134926,2018-06-29 09:55:08.437500,-111.51,103.4
134927,2018-06-29 09:55:08.468750,-108.64,103.4
134928,2018-06-29 09:55:08.500000,-99.42,103.4
134929,2018-06-29 09:55:08.531250,-87.23,103.58
134930,2018-06-29 09:55:08.562500,-70.34,103.58
134931,2018-06-29 09:55:08.593750,-44.79,103.58
134932,2018-06-29 09:55:08.625000,-6.94,103.58
134933,2018-06-29 09:55:08.656250,41.16,103.58
134934,2018-06-29 09:55:08.687500,82.06,103.58
134935,2018-06-29 09:55:08.718750,89.13,103.58
134936,2018-06-29 09:55:08.750000,54.83,103.58
134937,2018-06-29 09:55:08.781250,2.03,103.58
134938,2018-06-29 09:55:08.812500,-39.9,103.58
134939,2018-06-29 09:55:08.843750,-60.06,103.58
134940,2018-06-29 09:55:08.875000,-63.18,103.58
134941,2018-06-29 09:55:08.906250,-56.81,103.58
134942,2018-06-29 09:55:08.937500,-46.57,103.58
134943,2018-06-29 09:55:08.968750,-35.02,103.58
134944,2018-06-29 09:55:09.000000,-23.53,103.58
134945,2018-06-29 09:55:09.031250,-14.33,103.58
134946,2018-06-29 09:55:09.062500,-12.11,103.58
134947,2018-06-29 09:55:09.093750,-19.88,103.58
134948,2018-06-29 09:55:09.125000,-35.96,103.58
134949,2018-06-29 09:55:09.156250,-43.7,103.58
134950,2018-06-29 09:55:09.187500,-26.08,103.58
134951,2018-06-29 09:55:09.218750,13.69,103.58
134952,2018-06-29 09:55:09.250000,65.75,103.58
134953,2018-06-29 09:55:09.281250,126.21,103.58
134954,2018-06-29 09:55:09.312500,183.02,103.58
134955,2018-06-29 09:55:09.343750,211.46,103.58
134956,2018-06-29 09:55:09.375000,187.04,103.58
134957,2018-06-29 09:55:09.406250,114.69,103.58
134958,2018-06-29 09:55:09.437500,24.55,103.58
134959,2018-06-29 09:55:09.468750,-56.0,103.58
134960,2018-06-29 09:55:09.500000,-117.22,103.58
134961,2018-06-29 09:55:09.531250,-154.87,103.77
134962,2018-06-29 09:55:09.562500,-173.36,103.77
134963,2018-06-29 09:55:09.593750,-171.68,103.77
134964,2018-06-29 09:55:09.625000,-156.63,103.77
134965,2018-06-29 09:55:09.656250,-121.31,103.77
134966,2018-06-29 09:55:09.687500,-61.58,103.77
134967,2018-06-29 09:55:09.718750,12.45,103.77
134968,2018-06-29 09:55:09.750000,85.67,103.77
134969,2018-06-29 09:55:09.781250,150.99,103.77
134970,2018-06-29 09:55:09.812500,206.49,103.77
134971,2018-06-29 09:55:09.843750,242.58,103.77
134972,2018-06-29 09:55:09.875000,254.05,103.77
134973,2018-06-29 09:55:09.906250,218.16,103.77
134974,2018-06-29 09:55:09.937500,124.81,103.77
134975,2018-06-29 09:55:09.968750,5.17,103.77
134976,2018-06-29 09:55:10.000000,-101.42,103.77
134977,2018-06-29 09:55:10.031250,-172.44,103.77
134978,2018-06-29 09:55:10.062500,-193.16,103.77
134979,2018-06-29 09:55:10.093750,-173.45,103.77
134980,2018-06-29 09:55:10.125000,-143.29,103.77
134981,2018-06-29 09:55:10.156250,-118.21,103.77
134982,2018-06-29 09:55:10.187500,-102.25,103.77
134983,2018-06-29 09:55:10.218750,-94.81,103.77
134984,2018-06-29 09:55:10.250000,-101.58,103.77
134985,2018-06-29 09:55:10.281250,-132.74,103.77
134986,2018-06-29 09:55:10.312500,-175.17,103.77
134987,2018-06-29 09:55:10.343750,-177.52,103.77
134988,2018-06-29 09:55:10.375000,-100.98,103.77
134989,2018-06-29 09:55:10.406250,21.54,103.77
134990,2018-06-29 09:55:10.437500,145.1,103.77
134991,2018-06-29 09:55:10.468750,251.78,103.77
134992,2018-06-29 09:55:10.500000,316.78,103.77
134993,2018-06-29 09:55:10.531250,306.61,103.92
134994,2018-06-29 09:55:10.562500,200.72,103.92
134995,2018-06-29 09:55:10.593750,62.52,103.92
134996,2018-06-29 09:55:10.625000,-51.0,103.92
134997,2018-06-29 09:55:10.656250,-145.83,103.92
134998,2018-06-29 09:55:10.687500,-206.01,103.92
134999,2018-06-29 09:55:10.718750,-201.95,103.92
135000,2018-06-29 09:55:10.750000,-143.45,103.92
135001,2018-06-29 09:55:10.781250,-74.78,103.92
135002,2018-06-29 09:55:10.812500,-14.49,103.92
135003,2018-06-29 09:55:10.843750,53.1,103.92
135004,2018-06-29 09:55:10.875000,144.37,103.92
135005,2018-06-29 09:55:10.906250,241.81,103.92
135006,2018-06-29 09:55:10.937500,316.43,103.92
135007,2018-06-29 09:55:10.968750,346.29,103.92
135008,2018-06-29 09:55:11.000000,283.67,103.92
135009,2018-06-29 09:55:11.031250,147.54,103.92
135010,2018-06-29 09:55:11.062500,10.51,103.92
135011,2018-06-29 09:55:11.093750,-104.86,103.92
135012,2018-06-29 09:55:11.125000,-184.19,103.92
135013,2018-06-29 09:55:11.156250,-218.48,103.92
135014,2018-06-29 09:55:11.187500,-221.69,103.92
135015,2018-06-29 09:55:11.218750,-216.64,103.92
135016,2018-06-29 09:55:11.250000,-209.49,103.92
135017,2018-06-29 09:55:11.281250,-196.72,103.92
135018,2018-06-29 09:55:11.312500,-169.86,103.92
135019,2018-06-29 09:55:11.343750,-131.16,103.92
135020,2018-06-29 09:55:11.375000,-91.36,103.92
135021,2018-06-29 09:55:11.406250,-60.39,103.92
135022,2018-06-29 09:55:11.437500,-33.8,103.92
135023,2018-06-29 09:55:11.468750,8.85,103.92
135024,2018-06-29 09:55:11.500000,73.48,103.92
135025,2018-06-29 09:55:11.531250,154.46,104.0
135026,2018-06-29 09:55:11.562500,239.15,104.0
135027,2018-06-29 09:55:11.593750,302.65,104.0
135028,2018-06-29 09:55:11.625000,293.85,104.0
135029,2018-06-29 09:55:11.656250,191.84,104.0
135030,2018-06-29 09:55:11.687500,52.52,104.0
135031,2018-06-29 09:55:11.718750,-59.3,104.0
135032,2018-06-29 09:55:11.750000,-132.78,104.0
135033,2018-06-29 09:55:11.781250,-177.18,104.0
135034,2018-06-29 09:55:11.812500,-196.69,104.0
135035,2018-06-29 09:55:11.843750,-197.06,104.0
135036,2018-06-29 09:55:11.875000,-187.73,104.0
135037,2018-06-29 09:55:11.906250,-169.81,104.0
135038,2018-06-29 09:55:11.937500,-130.84,104.0
135039,2018-06-29 09:55:11.968750,-65.32,104.0
135040,2018-06-29 09:55:12.000000,15.36,104.0
135041,2018-06-29 09:55:12.031250,96.87,104.0
135042,2018-06-29 09:55:12.062500,174.33,104.0
135043,2018-06-29 09:55:12.093750,241.38,104.0
135044,2018-06-29 09:55:12.125000,279.2,104.0
135045,2018-06-29 09:55:12.156250,266.98,104.0
135046,2018-06-29 09:55:12.187500,205.2,104.0
135047,2018-06-29 09:55:12.218750,117.82,104.0
135048,2018-06-29 09:55:12.250000,32.62,104.0
135049,2018-06-29 09:55:12.281250,-34.22,104.0
135050,2018-06-29 09:55:12.312500,-77.75,104.0
135051,2018-06-29 09:55:12.343750,-100.04,104.0
135052,2018-06-29 09:55:12.375000,-108.93,104.0
135053,2018-06-29 09:55:12.406250,-114.24,104.0
135054,2018-06-29 09:55:12.437500,-122.57,104.0
135055,2018-06-29 09:55:12.468750,-135.12,104.0
135056,2018-06-29 09:55:12.500000,-148.35,104.0
135057,2018-06-29 09:55:12.531250,-152.75,104.1
135058,2018-06-29 09:55:12.562500,-134.72,104.1
135059,2018-06-29 09:55:12.593750,-86.59,104.1
135060,2018-06-29 09:55:12.625000,-13.14,104.1
135061,2018-06-29 09:55:12.656250,73.55,104.1
135062,2018-06-29 09:55:12.687500,158.15,104.1
135063,2018-06-29 09:55:12.718750,220.28,104.1
135064,2018-06-29 09:55:12.750000,240.12,104.1
135065,2018-06-29 09:55:12.781250,210.33,104.1
135066,2018-06-29 09:55:12.812500,140.58,104.1
135067,2018-06-29 09:55:12.843750,52.59,104.1
135068,2018-06-29 09:55:12.875000,-30.94,104.1
135069,2018-06-29 09:55:12.906250,-96.13,104.1
135070,2018-06-29 09:55:12.937500,-138.21,104.1
135071,2018-06-29 09:55:12.968750,-156.47,104.1
135072,2018-06-29 09:55:13.000000,-154.9,104.1
135073,2018-06-29 09:55:13.031250,-141.96,104.1
135074,2018-06-29 09:55:13.062500,-123.83,104.1
135075,2018-06-29 09:55:13.093750,-99.47,104.1
135076,2018-06-29 09:55:13.125000,-61.29,104.1
135077,2018-06-29 09:55:13.156250,-0.07,104.1
135078,2018-06-29 09:55:13.187500,81.27,104.1
135079,2018-06-29 09:55:13.218750,155.51,104.1
135080,2018-06-29 09:55:13.250000,187.92,104.1
135081,2018-06-29 09:55:13.281250,167.87,104.1
135082,2018-06-29 09:55:13.312500,116.47,104.1
135083,2018-06-29 09:55:13.343750,61.68,104.1
135084,2018-06-29 09:55:13.375000,17.64,104.1
135085,2018-06-29 09:55:13.406250,-14.42,104.1
135086,2018-06-29 09:55:13.437500,-37.56,104.1
135087,2018-06-29 09:55:13.468750,-52.93,104.1
135088,2018-06-29 09:55:13.500000,-62.99,104.1
135089,2018-06-29 09:55:13.531250,-68.61,104.2
135090,2018-06-29 09:55:13.562500,-72.55,104.2
135091,2018-06-29 09:55:13.593750,-78.89,104.2
135092,2018-06-29 09:55:13.625000,-83.89,104.2
135093,2018-06-29 09:55:13.656250,-73.51,104.2
135094,2018-06-29 09:55:13.687500,-36.62,104.2
135095,2018-06-29 09:55:13.718750,20.15,104.2
135096,2018-06-29 09:55:13.750000,89.17,104.2
135097,2018-06-29 09:55:13.781250,159.84,104.2
135098,2018-06-29 09:55:13.812500,214.69,104.2
135099,2018-06-29 09:55:13.843750,235.03,104.2
135100,2018-06-29 09:55:13.875000,190.83,104.2
135101,2018-06-29 09:55:13.906250,96.79,104.2
135102,2018-06-29 09:55:13.937500,-6.37,104.2
135103,2018-06-29 09:55:13.968750,-90.84,104.2
135104,2018-06-29 09:55:14.000000,-152.3,104.2
135105,2018-06-29 09:55:14.031250,-183.95,104.2
135106,2018-06-29 09:55:14.062500,-188.96,104.2
135107,2018-06-29 09:55:14.093750,-168.73,104.2
135108,2018-06-29 09:55:14.125000,-130.29,104.2
135109,2018-06-29 09:55:14.156250,-82.7,104.2
135110,2018-06-29 09:55:14.187500,-41.02,104.2
135111,2018-06-29 09:55:14.218750,-17.44,104.2
135112,2018-06-29 09:55:14.250000,-14.21,104.2
135113,2018-06-29 09:55:14.281250,-25.77,104.2
135114,2018-06-29 09:55:14.312500,-38.18,104.2
135115,2018-06-29 09:55:14.343750,-32.59,104.2
135116,2018-06-29 09:55:14.375000,0.1,104.2
135117,2018-06-29 09:55:14.406250,46.84,104.2
135118,2018-06-29 09:55:14.437500,87.82,104.2
135119,2018-06-29 09:55:14.468750,112.79,104.2
135120,2018-06-29 09:55:14.500000,118.5,104.2
135121,2018-06-29 09:55:14.531250,102.73,104.27
135122,2018-06-29 09:55:14.562500,70.03,104.27
135123,2018-06-29 09:55:14.593750,31.39,104.27
135124,2018-06-29 09:55:14.625000,-4.51,104.27
135125,2018-06-29 09:55:14.656250,-33.14,104.27
135126,2018-06-29 09:55:14.687500,-50.79,104.27
135127,2018-06-29 09:55:14.718750,-55.53,104.27
135128,2018-06-29 09:55:14.750000,-52.1,104.27
135129,2018-06-29 09:55:14.781250,-52.78,104.27
135130,2018-06-29 09:55:14.812500,-63.78,104.27
135131,2018-06-29 09:55:14.843750,-69.29,104.27
135132,2018-06-29 09:55:14.875000,-44.18,104.27
135133,2018-06-29 09:55:14.906250,13.68,104.27
135134,2018-06-29 09:55:14.937500,80.25,104.27
135135,2018-06-29 09:55:14.968750,132.42,104.27
135136,2018-06-29 09:55:15.000000,158.3,104.27
135137,2018-06-29 09:55:15.031250,149.5,104.27
135138,2018-06-29 09:55:15.062500,106.63,104.27
135139,2018-06-29 09:55:15.093750,47.65,104.27
135140,2018-06-29 09:55:15.125000,-6.35,104.27
135141,2018-06-29 09:55:15.156250,-48.79,104.27
135142,2018-06-29 09:55:15.187500,-81.57,104.27
135143,2018-06-29 09:55:15.218750,-101.27,104.27
135144,2018-06-29 09:55:15.250000,-101.78,104.27
135145,2018-06-29 09:55:15.281250,-87.21,104.27
135146,2018-06-29 09:55:15.312500,-70.47,104.27
135147,2018-06-29 09:55:15.343750,-56.69,104.27
135148,2018-06-29 09:55:15.375000,-37.83,104.27
135149,2018-06-29 09:55:15.406250,-5.39,104.27
135150,2018-06-29 09:55:15.437500,35.75,104.27
135151,2018-06-29 09:55:15.468750,68.9,104.27
135152,2018-06-29 09:55:15.500000,75.68,104.27
135153,2018-06-29 09:55:15.531250,52.04,104.33
135154,2018-06-29 09:55:15.562500,14.32,104.33
135155,2018-06-29 09:55:15.593750,-15.09,104.33
135156,2018-06-29 09:55:15.625000,-27.09,104.33
135157,2018-06-29 09:55:15.656250,-26.72,104.33
135158,2018-06-29 09:55:15.687500,-17.83,104.33
135159,2018-06-29 09:55:15.718750,-4.8,104.33
135160,2018-06-29 09:55:15.750000,6.78,104.33
135161,2018-06-29 09:55:15.781250,10.5,104.33
135162,2018-06-29 09:55:15.812500,8.58,104.33
135163,2018-06-29 09:55:15.843750,7.48,104.33
135164,2018-06-29 09:55:15.875000,8.74,104.33
135165,2018-06-29 09:55:15.906250,5.88,104.33
135166,2018-06-29 09:55:15.937500,-13.74,104.33
135167,2018-06-29 09:55:15.968750,-35.35,104.33
135168,2018-06-29 09:55:16.000000,-25.15,104.33
135169,2018-06-29 09:55:16.031250,30.71,104.33
135170,2018-06-29 09:55:16.062500,109.1,104.33
135171,2018-06-29 09:55:16.093750,174.6,104.33
135172,2018-06-29 09:55:16.125000,195.53,104.33
135173,2018-06-29 09:55:16.156250,137.05,104.33
135174,2018-06-29 09:55:16.187500,38.53,104.33
135175,2018-06-29 09:55:16.218750,-49.96,104.33
135176,2018-06-29 09:55:16.250000,-103.67,104.33
135177,2018-06-29 09:55:16.281250,-120.97,104.33
135178,2018-06-29 09:55:16.312500,-114.32,104.33
135179,2018-06-29 09:55:16.343750,-100.59,104.33
135180,2018-06-29 09:55:16.375000,-87.18,104.33
135181,2018-06-29 09:55:16.406250,-73.13,104.33
135182,2018-06-29 09:55:16.437500,-56.35,104.33
135183,2018-06-29 09:55:16.468750,-37.07,104.33
135184,2018-06-29 09:55:16.500000,-19.44,104.33
135185,2018-06-29 09:55:16.531250,1.66,104.38
135186,2018-06-29 09:55:16.562500,32.13,104.38
135187,2018-06-29 09:55:16.593750,71.35,104.38
135188,2018-06-29 09:55:16.625000,102.96,104.38
135189,2018-06-29 09:55:16.656250,106.39,104.38
135190,2018-06-29 09:55:16.687500,74.45,104.38
135191,2018-06-29 09:55:16.718750,20.41,104.38
135192,2018-06-29 09:55:16.750000,-35.01,104.38
135193,2018-06-29 09:55:16.781250,-80.49,104.38
135194,2018-06-29 09:55:16.812500,-111.87,104.38
135195,2018-06-29 09:55:16.843750,-125.67,104.38
135196,2018-06-29 09:55:16.875000,-114.58,104.38
135197,2018-06-29 09:55:16.906250,-78.03,104.38
135198,2018-06-29 09:55:16.937500,-25.84,104.38
135199,2018-06-29 09:55:16.968750,24.52,104.38
135200,2018-06-29 09:55:17.000000,58.12,104.38
135201,2018-06-29 09:55:17.031250,68.69,104.38
135202,2018-06-29 09:55:17.062500,58.83,104.38
135203,2018-06-29 09:55:17.093750,35.49,104.38
135204,2018-06-29 09:55:17.125000,3.49,104.38
135205,2018-06-29 09:55:17.156250,-11.9,104.38
135206,2018-06-29 09:55:17.187500,9.72,104.38
135207,2018-06-29 09:55:17.218750,65.44,104.38
135208,2018-06-29 09:55:17.250000,137.25,104.38
135209,2018-06-29 09:55:17.281250,197.44,104.38
135210,2018-06-29 09:55:17.312500,215.82,104.38
135211,2018-06-29 09:55:17.343750,157.4,104.38
135212,2018-06-29 09:55:17.375000,45.54,104.38
135213,2018-06-29 09:55:17.406250,-62.79,104.38
135214,2018-06-29 09:55:17.437500,-144.71,104.38
135215,2018-06-29 09:55:17.468750,-191.82,104.38
135216,2018-06-29 09:55:17.500000,-206.74,104.38
135217,2018-06-29 09:55:17.531250,-200.3,104.43
135218,2018-06-29 09:55:17.562500,-179.82,104.43
135219,2018-06-29 09:55:17.593750,-142.17,104.43
135220,2018-06-29 09:55:17.625000,-85.99,104.43
135221,2018-06-29 09:55:17.656250,-21.39,104.43
135222,2018-06-29 09:55:17.687500,31.62,104.43
135223,2018-06-29 09:55:17.718750,69.04,104.43
135224,2018-06-29 09:55:17.750000,102.89,104.43
135225,2018-06-29 09:55:17.781250,135.98,104.43
135226,2018-06-29 09:55:17.812500,149.76,104.43
135227,2018-06-29 09:55:17.843750,128.1,104.43
135228,2018-06-29 09:55:17.875000,80.62,104.43
135229,2018-06-29 09:55:17.906250,27.08,104.43
135230,2018-06-29 09:55:17.937500,-19.4,104.43
135231,2018-06-29 09:55:17.968750,-52.04,104.43
135232,2018-06-29 09:55:18.000000,-65.32,104.43
135233,2018-06-29 09:55:18.031250,-62.65,104.43
135234,2018-06-29 09:55:18.062500,-58.76,104.43
135235,2018-06-29 09:55:18.093750,-63.23,104.43
135236,2018-06-29 09:55:18.125000,-71.89,104.43
135237,2018-06-29 09:55:18.156250,-76.44,104.43
135238,2018-06-29 09:55:18.187500,-80.64,104.43
135239,2018-06-29 09:55:18.218750,-83.83,104.43
135240,2018-06-29 09:55:18.250000,-70.11,104.43
135241,2018-06-29 09:55:18.281250,-22.88,104.43
135242,2018-06-29 09:55:18.312500,69.6,104.43
135243,2018-06-29 09:55:18.343750,191.14,104.43
135244,2018-06-29 09:55:18.375000,296.74,104.43
135245,2018-06-29 09:55:18.406250,326.07,104.43
135246,2018-06-29 09:55:18.437500,245.72,104.43
135247,2018-06-29 09:55:18.468750,106.25,104.43
135248,2018-06-29 09:55:18.500000,-14.75,104.43
135249,2018-06-29 09:55:18.531250,-99.29,104.47
135250,2018-06-29 09:55:18.562500,-148.65,104.47
135251,2018-06-29 09:55:18.593750,-161.08,104.47
135252,2018-06-29 09:55:18.625000,-149.25,104.47
135253,2018-06-29 09:55:18.656250,-134.22,104.47
135254,2018-06-29 09:55:18.687500,-120.12,104.47
135255,2018-06-29 09:55:18.718750,-100.02,104.47
135256,2018-06-29 09:55:18.750000,-77.76,104.47
135257,2018-06-29 09:55:18.781250,-63.94,104.47
135258,2018-06-29 09:55:18.812500,-52.42,104.47
135259,2018-06-29 09:55:18.843750,-19.51,104.47
135260,2018-06-29 09:55:18.875000,48.37,104.47
135261,2018-06-29 09:55:18.906250,131.3,104.47
135262,2018-06-29 09:55:18.937500,185.93,104.47
135263,2018-06-29 09:55:18.968750,179.65,104.47
135264,2018-06-29 09:55:19.000000,116.74,104.47
135265,2018-06-29 09:55:19.031250,34.34,104.47
135266,2018-06-29 09:55:19.062500,-29.59,104.47
135267,2018-06-29 09:55:19.093750,-61.73,104.47
135268,2018-06-29 09:55:19.125000,-68.7,104.47
135269,2018-06-29 09:55:19.156250,-64.33,104.47
135270,2018-06-29 09:55:19.187500,-59.35,104.47
135271,2018-06-29 09:55:19.218750,-60.72,104.47
135272,2018-06-29 09:55:19.250000,-67.55,104.47
135273,2018-06-29 09:55:19.281250,-73.57,104.47
135274,2018-06-29 09:55:19.312500,-77.79,104.47
135275,2018-06-29 09:55:19.343750,-87.89,104.47
135276,2018-06-29 09:55:19.375000,-96.61,104.47
135277,2018-06-29 09:55:19.406250,-71.99,104.47
135278,2018-06-29 09:55:19.437500,-3.7,104.47
135279,2018-06-29 09:55:19.468750,95.07,104.47
135280,2018-06-29 09:55:19.500000,194.46,104.47
135281,2018-06-29 09:55:19.531250,258.93,104.5
135282,2018-06-29 09:55:19.562500,265.22,104.5
135283,2018-06-29 09:55:19.593750,190.68,104.5
135284,2018-06-29 09:55:19.625000,69.66,104.5
135285,2018-06-29 09:55:19.656250,-41.19,104.5
135286,2018-06-29 09:55:19.687500,-130.33,104.5
135287,2018-06-29 09:55:19.718750,-190.47,104.5
135288,2018-06-29 09:55:19.750000,-207.62,104.5
135289,2018-06-29 09:55:19.781250,-180.11,104.5
135290,2018-06-29 09:55:19.812500,-126.41,104.5
135291,2018-06-29 09:55:19.843750,-70.35,104.5
135292,2018-06-29 09:55:19.875000,-25.22,104.5
135293,2018-06-29 09:55:19.906250,13.13,104.5
135294,2018-06-29 09:55:19.937500,54.59,104.5
135295,2018-06-29 09:55:19.968750,108.2,104.5
135296,2018-06-29 09:55:20.000000,168.09,104.5
135297,2018-06-29 09:55:20.031250,211.61,104.5
135298,2018-06-29 09:55:20.062500,212.48,104.5
135299,2018-06-29 09:55:20.093750,163.75,104.5
135300,2018-06-29 09:55:20.125000,85.76,104.5
135301,2018-06-29 09:55:20.156250,6.62,104.5
135302,2018-06-29 09:55:20.187500,-55.18,104.5
135303,2018-06-29 09:55:20.218750,-94.54,104.5
135304,2018-06-29 09:55:20.250000,-113.21,104.5
135305,2018-06-29 09:55:20.281250,-117.64,104.5
135306,2018-06-29 09:55:20.312500,-115.96,104.5
135307,2018-06-29 09:55:20.343750,-114.61,104.5
135308,2018-06-29 09:55:20.375000,-117.66,104.5
135309,2018-06-29 09:55:20.406250,-125.09,104.5
135310,2018-06-29 09:55:20.437500,-130.49,104.5
135311,2018-06-29 09:55:20.468750,-124.83,104.5
135312,2018-06-29 09:55:20.500000,-100.8,104.5
135313,2018-06-29 09:55:20.531250,-50.87,104.53
135314,2018-06-29 09:55:20.562500,28.5,104.53
135315,2018-06-29 09:55:20.593750,123.86,104.53
135316,2018-06-29 09:55:20.625000,204.72,104.53
135317,2018-06-29 09:55:20.656250,242.12,104.53
135318,2018-06-29 09:55:20.687500,224.06,104.53
135319,2018-06-29 09:55:20.718750,158.82,104.53
135320,2018-06-29 09:55:20.750000,71.31,104.53
135321,2018-06-29 09:55:20.781250,-8.92,104.53
135322,2018-06-29 09:55:20.812500,-63.06,104.53
135323,2018-06-29 09:55:20.843750,-89.68,104.53
135324,2018-06-29 09:55:20.875000,-98.57,104.53
135325,2018-06-29 09:55:20.906250,-99.88,104.53
135326,2018-06-29 09:55:20.937500,-97.09,104.53
135327,2018-06-29 09:55:20.968750,-89.1,104.53
135328,2018-06-29 09:55:21.000000,-76.82,104.53
135329,2018-06-29 09:55:21.031250,-64.36,104.53
135330,2018-06-29 09:55:21.062500,-54.73,104.53
135331,2018-06-29 09:55:21.093750,-44.61,104.53
135332,2018-06-29 09:55:21.125000,-25.11,104.53
135333,2018-06-29 09:55:21.156250,7.09,104.53
135334,2018-06-29 09:55:21.187500,41.02,104.53
135335,2018-06-29 09:55:21.218750,61.16,104.53
135336,2018-06-29 09:55:21.250000,63.1,104.53
135337,2018-06-29 09:55:21.281250,52.59,104.53
135338,2018-06-29 09:55:21.312500,36.04,104.53
135339,2018-06-29 09:55:21.343750,20.46,104.53
135340,2018-06-29 09:55:21.375000,14.53,104.53
135341,2018-06-29 09:55:21.406250,20.29,104.53
135342,2018-06-29 09:55:21.437500,29.68,104.53
135343,2018-06-29 09:55:21.468750,33.97,104.53
135344,2018-06-29 09:55:21.500000,30.65,104.53
135345,2018-06-29 09:55:21.531250,21.33,104.57
135346,2018-06-29 09:55:21.562500,9.12,104.57
135347,2018-06-29 09:55:21.593750,-6.57,104.57
135348,2018-06-29 09:55:21.625000,-34.07,104.57
135349,2018-06-29 09:55:21.656250,-72.1,104.57
135350,2018-06-29 09:55:21.687500,-92.44,104.57
135351,2018-06-29 09:55:21.718750,-65.02,104.57
135352,2018-06-29 09:55:21.750000,3.84,104.57
135353,2018-06-29 09:55:21.781250,76.64,104.57
135354,2018-06-29 09:55:21.812500,119.49,104.57
135355,2018-06-29 09:55:21.843750,119.57,104.57
135356,2018-06-29 09:55:21.875000,83.0,104.57
135357,2018-06-29 09:55:21.906250,29.16,104.57
135358,2018-06-29 09:55:21.937500,-18.26,104.57
135359,2018-06-29 09:55:21.968750,-44.01,104.57
135360,2018-06-29 09:55:22.000000,-49.16,104.57
135361,2018-06-29 09:55:22.031250,-44.94,104.57
135362,2018-06-29 09:55:22.062500,-38.83,104.57
135363,2018-06-29 09:55:22.093750,-31.17,104.57
135364,2018-06-29 09:55:22.125000,-22.75,104.57
135365,2018-06-29 09:55:22.156250,-17.02,104.57
135366,2018-06-29 09:55:22.187500,-14.41,104.57
135367,2018-06-29 09:55:22.218750,-11.34,104.57
135368,2018-06-29 09:55:22.250000,-4.24,104.57
135369,2018-06-29 09:55:22.281250,7.39,104.57
135370,2018-06-29 09:55:22.312500,18.56,104.57
135371,2018-06-29 09:55:22.343750,20.27,104.57
135372,2018-06-29 09:55:22.375000,7.34,104.57
135373,2018-06-29 09:55:22.406250,-17.71,104.57
135374,2018-06-29 09:55:22.437500,-48.68,104.57
135375,2018-06-29 09:55:22.468750,-76.72,104.57
135376,2018-06-29 09:55:22.500000,-88.2,104.57
135377,2018-06-29 09:55:22.531250,-72.18,104.6
135378,2018-06-29 09:55:22.562500,-32.87,104.6
135379,2018-06-29 09:55:22.593750,11.58,104.6
135380,2018-06-29 09:55:22.625000,44.2,104.6
135381,2018-06-29 09:55:22.656250,59.86,104.6
135382,2018-06-29 09:55:22.687500,62.64,104.6
135383,2018-06-29 09:55:22.718750,58.49,104.6
135384,2018-06-29 09:55:22.750000,52.76,104.6
135385,2018-06-29 09:55:22.781250,50.46,104.6
135386,2018-06-29 09:55:22.812500,53.68,104.6
135387,2018-06-29 09:55:22.843750,60.62,104.6
135388,2018-06-29 09:55:22.875000,69.7,104.6
135389,2018-06-29 09:55:22.906250,79.56,104.6
135390,2018-06-29 09:55:22.937500,80.88,104.6
135391,2018-06-29 09:55:22.968750,59.0,104.6
135392,2018-06-29 09:55:23.000000,12.1,104.6
135393,2018-06-29 09:55:23.031250,-42.4,104.6
135394,2018-06-29 09:55:23.062500,-86.07,104.6
135395,2018-06-29 09:55:23.093750,-115.73,104.6
135396,2018-06-29 09:55:23.125000,-137.56,104.6
135397,2018-06-29 09:55:23.156250,-152.27,104.6
135398,2018-06-29 09:55:23.187500,-151.12,104.6
135399,2018-06-29 09:55:23.218750,-125.44,104.6
135400,2018-06-29 09:55:23.250000,-77.69,104.6
135401,2018-06-29 09:55:23.281250,-21.98,104.6
135402,2018-06-29 09:55:23.312500,26.86,104.6
135403,2018-06-29 09:55:23.343750,64.26,104.6
135404,2018-06-29 09:55:23.375000,93.78,104.6
135405,2018-06-29 09:55:23.406250,116.62,104.6
135406,2018-06-29 09:55:23.437500,127.53,104.6
135407,2018-06-29 09:55:23.468750,121.72,104.6
135408,2018-06-29 09:55:23.500000,98.76,104.6
135409,2018-06-29 09:55:23.531250,66.37,104.63
135410,2018-06-29 09:55:23.562500,38.8,104.63
135411,2018-06-29 09:55:23.593750,25.71,104.63
135412,2018-06-29 09:55:23.625000,22.62,104.63
135413,2018-06-29 09:55:23.656250,19.76,104.63
135414,2018-06-29 09:55:23.687500,17.11,104.63
135415,2018-06-29 09:55:23.718750,19.32,104.63
135416,2018-06-29 09:55:23.750000,27.53,104.63
135417,2018-06-29 09:55:23.781250,33.23,104.63
135418,2018-06-29 09:55:23.812500,24.47,104.63
135419,2018-06-29 09:55:23.843750,-4.98,104.63
135420,2018-06-29 09:55:23.875000,-46.43,104.63
135421,2018-06-29 09:55:23.906250,-55.95,104.63
135422,2018-06-29 09:55:23.937500,-16.0,104.63
135423,2018-06-29 09:55:23.968750,51.07,104.63
135424,2018-06-29 09:55:24.000000,123.68,104.63
135425,2018-06-29 09:55:24.031250,186.83,104.63
135426,2018-06-29 09:55:24.062500,206.37,104.63
135427,2018-06-29 09:55:24.093750,146.68,104.63
135428,2018-06-29 09:55:24.125000,32.96,104.63
135429,2018-06-29 09:55:24.156250,-71.89,104.63
135430,2018-06-29 09:55:24.187500,-140.95,104.63
135431,2018-06-29 09:55:24.218750,-181.52,104.63
135432,2018-06-29 09:55:24.250000,-197.31,104.63
135433,2018-06-29 09:55:24.281250,-189.46,104.63
135434,2018-06-29 09:55:24.312500,-172.0,104.63
135435,2018-06-29 09:55:24.343750,-154.6,104.63
135436,2018-06-29 09:55:24.375000,-131.96,104.63
135437,2018-06-29 09:55:24.406250,-100.92,104.63
135438,2018-06-29 09:55:24.437500,-74.15,104.63
135439,2018-06-29 09:55:24.468750,-60.54,104.63
135440,2018-06-29 09:55:24.500000,-46.59,104.63
135441,2018-06-29 09:55:24.531250,-14.19,104.65
135442,2018-06-29 09:55:24.562500,30.37,104.65
135443,2018-06-29 09:55:24.593750,63.22,104.65
135444,2018-06-29 09:55:24.625000,71.62,104.65
135445,2018-06-29 09:55:24.656250,61.38,104.65
135446,2018-06-29 09:55:24.687500,42.86,104.65
135447,2018-06-29 09:55:24.718750,21.74,104.65
135448,2018-06-29 09:55:24.750000,3.23,104.65
135449,2018-06-29 09:55:24.781250,-6.51,104.65
135450,2018-06-29 09:55:24.812500,-6.25,104.65
135451,2018-06-29 09:55:24.843750,-2.62,104.65
135452,2018-06-29 09:55:24.875000,-5.66,104.65
135453,2018-06-29 09:55:24.906250,-18.26,104.65
135454,2018-06-29 09:55:24.937500,-28.73,104.65
135455,2018-06-29 09:55:24.968750,-16.22,104.65
135456,2018-06-29 09:55:25.000000,27.88,104.65
135457,2018-06-29 09:55:25.031250,85.86,104.65
135458,2018-06-29 09:55:25.062500,128.64,104.65
135459,2018-06-29 09:55:25.093750,138.75,104.65
135460,2018-06-29 09:55:25.125000,112.62,104.65
135461,2018-06-29 09:55:25.156250,55.56,104.65
135462,2018-06-29 09:55:25.187500,-13.85,104.65
135463,2018-06-29 09:55:25.218750,-67.49,104.65
135464,2018-06-29 09:55:25.250000,-87.92,104.65
135465,2018-06-29 09:55:25.281250,-80.21,104.65
135466,2018-06-29 09:55:25.312500,-60.47,104.65
135467,2018-06-29 09:55:25.343750,-39.59,104.65
135468,2018-06-29 09:55:25.375000,-20.42,104.65
135469,2018-06-29 09:55:25.406250,-5.43,104.65
135470,2018-06-29 09:55:25.437500,2.66,104.65
135471,2018-06-29 09:55:25.468750,6.03,104.65
135472,2018-06-29 09:55:25.500000,9.24,104.65
135473,2018-06-29 09:55:25.531250,12.72,104.68
135474,2018-06-29 09:55:25.562500,14.3,104.68
135475,2018-06-29 09:55:25.593750,17.97,104.68
135476,2018-06-29 09:55:25.625000,28.39,104.68
135477,2018-06-29 09:55:25.656250,41.46,104.68
135478,2018-06-29 09:55:25.687500,45.4,104.68
135479,2018-06-29 09:55:25.718750,35.32,104.68
135480,2018-06-29 09:55:25.750000,20.04,104.68
135481,2018-06-29 09:55:25.781250,10.6,104.68
135482,2018-06-29 09:55:25.812500,10.61,104.68
135483,2018-06-29 09:55:25.843750,10.29,104.68
135484,2018-06-29 09:55:25.875000,2.8,104.68
135485,2018-06-29 09:55:25.906250,-6.55,104.68
135486,2018-06-29 09:55:25.937500,0.47,104.68
135487,2018-06-29 09:55:25.968750,31.12,104.68
135488,2018-06-29 09:55:26.000000,66.21,104.68
135489,2018-06-29 09:55:26.031250,72.01,104.68
135490,2018-06-29 09:55:26.062500,19.67,104.68
135491,2018-06-29 09:55:26.093750,-44.02,104.68
135492,2018-06-29 09:55:26.125000,-47.3,104.68
135493,2018-06-29 09:55:26.156250,14.76,104.68
135494,2018-06-29 09:55:26.187500,103.06,104.68
135495,2018-06-29 09:55:26.218750,174.66,104.68
135496,2018-06-29 09:55:26.250000,191.57,104.68
135497,2018-06-29 09:55:26.281250,125.42,104.68
135498,2018-06-29 09:55:26.312500,23.82,104.68
135499,2018-06-29 09:55:26.343750,-68.8,104.68
135500,2018-06-29 09:55:26.375000,-136.84,104.68
135501,2018-06-29 09:55:26.406250,-179.91,104.68
135502,2018-06-29 09:55:26.437500,-199.01,104.68
135503,2018-06-29 09:55:26.468750,-198.85,104.68
135504,2018-06-29 09:55:26.500000,-184.63,104.68
135505,2018-06-29 09:55:26.531250,-164.54,104.73
135506,2018-06-29 09:55:26.562500,-143.73,104.73
135507,2018-06-29 09:55:26.593750,-115.22,104.73
135508,2018-06-29 09:55:26.625000,-72.27,104.73
135509,2018-06-29 09:55:26.656250,-16.59,104.73
135510,2018-06-29 09:55:26.687500,37.3,104.73
135511,2018-06-29 09:55:26.718750,77.84,104.73
135512,2018-06-29 09:55:26.750000,99.65,104.73
135513,2018-06-29 09:55:26.781250,103.75,104.73
135514,2018-06-29 09:55:26.812500,96.32,104.73
135515,2018-06-29 09:55:26.843750,86.22,104.73
135516,2018-06-29 09:55:26.875000,79.48,104.73
135517,2018-06-29 09:55:26.906250,75.42,104.73
135518,2018-06-29 09:55:26.937500,71.37,104.73
135519,2018-06-29 09:55:26.968750,65.05,104.73
135520,2018-06-29 09:55:27.000000,56.68,104.73
135521,2018-06-29 09:55:27.031250,46.65,104.73
135522,2018-06-29 09:55:27.062500,34.94,104.73
135523,2018-06-29 09:55:27.093750,21.77,104.73
135524,2018-06-29 09:55:27.125000,8.38,104.73
135525,2018-06-29 09:55:27.156250,-10.54,104.73
135526,2018-06-29 09:55:27.187500,-43.2,104.73
135527,2018-06-29 09:55:27.218750,-86.12,104.73
135528,2018-06-29 09:55:27.250000,-125.72,104.73
135529,2018-06-29 09:55:27.281250,-141.65,104.73
135530,2018-06-29 09:55:27.312500,-127.09,104.73
135531,2018-06-29 09:55:27.343750,-87.84,104.73
135532,2018-06-29 09:55:27.375000,-31.13,104.73
135533,2018-06-29 09:55:27.406250,28.65,104.73
135534,2018-06-29 09:55:27.437500,72.53,104.73
135535,2018-06-29 09:55:27.468750,94.59,104.73
135536,2018-06-29 09:55:27.500000,104.44,104.73
135537,2018-06-29 09:55:27.531250,106.82,104.8
135538,2018-06-29 09:55:27.562500,98.58,104.8
135539,2018-06-29 09:55:27.593750,74.85,104.8
135540,2018-06-29 09:55:27.625000,40.54,104.8
135541,2018-06-29 09:55:27.656250,8.01,104.8
135542,2018-06-29 09:55:27.687500,-13.95,104.8
135543,2018-06-29 09:55:27.718750,-23.27,104.8
135544,2018-06-29 09:55:27.750000,-22.69,104.8
135545,2018-06-29 09:55:27.781250,-15.59,104.8
135546,2018-06-29 09:55:27.812500,-8.45,104.8
135547,2018-06-29 09:55:27.843750,-11.07,104.8
135548,2018-06-29 09:55:27.875000,-26.76,104.8
135549,2018-06-29 09:55:27.906250,-43.86,104.8
135550,2018-06-29 09:55:27.937500,-45.43,104.8
135551,2018-06-29 09:55:27.968750,-24.19,104.8
135552,2018-06-29 09:55:28.000000,11.17,104.8
135553,2018-06-29 09:55:28.031250,42.62,104.8
135554,2018-06-29 09:55:28.062500,58.34,104.8
135555,2018-06-29 09:55:28.093750,60.11,104.8
135556,2018-06-29 09:55:28.125000,53.4,104.8
135557,2018-06-29 09:55:28.156250,36.87,104.8
135558,2018-06-29 09:55:28.187500,7.45,104.8
135559,2018-06-29 09:55:28.218750,-31.03,104.8
135560,2018-06-29 09:55:28.250000,-69.91,104.8
135561,2018-06-29 09:55:28.281250,-101.93,104.8
135562,2018-06-29 09:55:28.312500,-124.52,104.8
135563,2018-06-29 09:55:28.343750,-138.28,104.8
135564,2018-06-29 09:55:28.375000,-142.23,104.8
135565,2018-06-29 09:55:28.406250,-132.94,104.8
135566,2018-06-29 09:55:28.437500,-111.92,104.8
135567,2018-06-29 09:55:28.468750,-90.27,104.8
135568,2018-06-29 09:55:28.500000,-79.27,104.8
135569,2018-06-29 09:55:28.531250,-78.32,104.83
135570,2018-06-29 09:55:28.562500,-73.67,104.83
135571,2018-06-29 09:55:28.593750,-49.53,104.83
135572,2018-06-29 09:55:28.625000,-3.96,104.83
135573,2018-06-29 09:55:28.656250,46.04,104.83
135574,2018-06-29 09:55:28.687500,77.8,104.83
135575,2018-06-29 09:55:28.718750,80.15,104.83
135576,2018-06-29 09:55:28.750000,59.51,104.83
135577,2018-06-29 09:55:28.781250,34.99,104.83
135578,2018-06-29 09:55:28.812500,24.92,104.83
135579,2018-06-29 09:55:28.843750,32.69,104.83
135580,2018-06-29 09:55:28.875000,48.71,104.83
135581,2018-06-29 09:55:28.906250,64.46,104.83
135582,2018-06-29 09:55:28.937500,76.1,104.83
135583,2018-06-29 09:55:28.968750,78.98,104.83
135584,2018-06-29 09:55:29.000000,69.21,104.83
135585,2018-06-29 09:55:29.031250,49.41,104.83
135586,2018-06-29 09:55:29.062500,27.51,104.83
135587,2018-06-29 09:55:29.093750,10.05,104.83
135588,2018-06-29 09:55:29.125000,-2.3,104.83
135589,2018-06-29 09:55:29.156250,-13.82,104.83
135590,2018-06-29 09:55:29.187500,-29.95,104.83
135591,2018-06-29 09:55:29.218750,-50.67,104.83
135592,2018-06-29 09:55:29.250000,-64.71,104.83
135593,2018-06-29 09:55:29.281250,-56.98,104.83
135594,2018-06-29 09:55:29.312500,-25.54,104.83
135595,2018-06-29 09:55:29.343750,15.93,104.83
135596,2018-06-29 09:55:29.375000,52.5,104.83
135597,2018-06-29 09:55:29.406250,75.56,104.83
135598,2018-06-29 09:55:29.437500,81.73,104.83
135599,2018-06-29 09:55:29.468750,74.93,104.83
135600,2018-06-29 09:55:29.500000,64.83,104.83
135601,2018-06-29 09:55:29.531250,57.08,104.9
135602,2018-06-29 09:55:29.562500,49.64,104.9
135603,2018-06-29 09:55:29.593750,40.27,104.9
135604,2018-06-29 09:55:29.625000,31.74,104.9
135605,2018-06-29 09:55:29.656250,27.68,104.9
135606,2018-06-29 09:55:29.687500,27.23,104.9
135607,2018-06-29 09:55:29.718750,27.82,104.9
135608,2018-06-29 09:55:29.750000,28.38,104.9
135609,2018-06-29 09:55:29.781250,24.43,104.9
135610,2018-06-29 09:55:29.812500,5.41,104.9
135611,2018-06-29 09:55:29.843750,-35.97,104.9
135612,2018-06-29 09:55:29.875000,-93.31,104.9
135613,2018-06-29 09:55:29.906250,-144.81,104.9
135614,2018-06-29 09:55:29.937500,-160.24,104.9
135615,2018-06-29 09:55:29.968750,-121.48,104.9
135616,2018-06-29 09:55:30.000000,-39.96,104.9
135617,2018-06-29 09:55:30.031250,50.54,104.9
135618,2018-06-29 09:55:30.062500,121.31,104.9
135619,2018-06-29 09:55:30.093750,162.54,104.9
135620,2018-06-29 09:55:30.125000,175.16,104.9
135621,2018-06-29 09:55:30.156250,160.92,104.9
135622,2018-06-29 09:55:30.187500,122.13,104.9
135623,2018-06-29 09:55:30.218750,71.28,104.9
135624,2018-06-29 09:55:30.250000,24.19,104.9
135625,2018-06-29 09:55:30.281250,-7.31,104.9
135626,2018-06-29 09:55:30.312500,-23.19,104.9
135627,2018-06-29 09:55:30.343750,-31.82,104.9
135628,2018-06-29 09:55:30.375000,-44.63,104.9
135629,2018-06-29 09:55:30.406250,-68.82,104.9
135630,2018-06-29 09:55:30.437500,-100.43,104.9
135631,2018-06-29 09:55:30.468750,-135.13,104.9
135632,2018-06-29 09:55:30.500000,-169.79,104.9
135633,2018-06-29 09:55:30.531250,-207.06,105.0
135634,2018-06-29 09:55:30.562500,-233.33,105.0
135635,2018-06-29 09:55:30.593750,-206.03,105.0
135636,2018-06-29 09:55:30.625000,-126.8,105.0
135637,2018-06-29 09:55:30.656250,-9.76,105.0
135638,2018-06-29 09:55:30.687500,106.03,105.0
135639,2018-06-29 09:55:30.718750,189.86,105.0
135640,2018-06-29 09:55:30.750000,232.93,105.0
135641,2018-06-29 09:55:30.781250,242.2,105.0
135642,2018-06-29 09:55:30.812500,221.96,105.0
135643,2018-06-29 09:55:30.843750,180.13,105.0
135644,2018-06-29 09:55:30.875000,122.96,105.0
135645,2018-06-29 09:55:30.906250,52.97,105.0
135646,2018-06-29 09:55:30.937500,-22.84,105.0
135647,2018-06-29 09:55:30.968750,-90.28,105.0
135648,2018-06-29 09:55:31.000000,-135.14,105.0
135649,2018-06-29 09:55:31.031250,-152.02,105.0
135650,2018-06-29 09:55:31.062500,-137.71,105.0
135651,2018-06-29 09:55:31.093750,-95.4,105.0
135652,2018-06-29 09:55:31.125000,-37.51,105.0
135653,2018-06-29 09:55:31.156250,16.87,105.0
135654,2018-06-29 09:55:31.187500,49.1,105.0
135655,2018-06-29 09:55:31.218750,48.2,105.0
135656,2018-06-29 09:55:31.250000,20.25,105.0
135657,2018-06-29 09:55:31.281250,-9.8,105.0
135658,2018-06-29 09:55:31.312500,-19.15,105.0
135659,2018-06-29 09:55:31.343750,-9.32,105.0
135660,2018-06-29 09:55:31.375000,3.42,105.0
135661,2018-06-29 09:55:31.406250,9.97,105.0
135662,2018-06-29 09:55:31.437500,12.09,105.0
135663,2018-06-29 09:55:31.468750,9.2,105.0
135664,2018-06-29 09:55:31.500000,-3.83,105.0
135665,2018-06-29 09:55:31.531250,-26.62,105.1
135666,2018-06-29 09:55:31.562500,-50.59,105.1
135667,2018-06-29 09:55:31.593750,-66.58,105.1
135668,2018-06-29 09:55:31.625000,-74.87,105.1
135669,2018-06-29 09:55:31.656250,-66.94,105.1
135670,2018-06-29 09:55:31.687500,-32.16,105.1
135671,2018-06-29 09:55:31.718750,27.55,105.1
135672,2018-06-29 09:55:31.750000,109.4,105.1
135673,2018-06-29 09:55:31.781250,190.69,105.1
135674,2018-06-29 09:55:31.812500,238.73,105.1
135675,2018-06-29 09:55:31.843750,216.83,105.1
135676,2018-06-29 09:55:31.875000,119.86,105.1
135677,2018-06-29 09:55:31.906250,3.17,105.1
135678,2018-06-29 09:55:31.937500,-85.36,105.1
135679,2018-06-29 09:55:31.968750,-138.31,105.1
135680,2018-06-29 09:55:32.000000,-152.94,105.1
135681,2018-06-29 09:55:32.031250,-139.08,105.1
135682,2018-06-29 09:55:32.062500,-119.12,105.1
135683,2018-06-29 09:55:32.093750,-103.21,105.1
135684,2018-06-29 09:55:32.125000,-87.28,105.1
135685,2018-06-29 09:55:32.156250,-65.47,105.1
135686,2018-06-29 09:55:32.187500,-38.01,105.1
135687,2018-06-29 09:55:32.218750,-7.59,105.1
135688,2018-06-29 09:55:32.250000,25.29,105.1
135689,2018-06-29 09:55:32.281250,60.21,105.1
135690,2018-06-29 09:55:32.312500,92.49,105.1
135691,2018-06-29 09:55:32.343750,112.03,105.1
135692,2018-06-29 09:55:32.375000,111.44,105.1
135693,2018-06-29 09:55:32.406250,92.47,105.1
135694,2018-06-29 09:55:32.437500,63.12,105.1
135695,2018-06-29 09:55:32.468750,31.0,105.1
135696,2018-06-29 09:55:32.500000,-1.9,105.1
135697,2018-06-29 09:55:32.531250,-39.98,105.22
135698,2018-06-29 09:55:32.562500,-86.58,105.22
135699,2018-06-29 09:55:32.593750,-131.87,105.22
135700,2018-06-29 09:55:32.625000,-156.06,105.22
135701,2018-06-29 09:55:32.656250,-148.54,105.22
135702,2018-06-29 09:55:32.687500,-119.09,105.22
135703,2018-06-29 09:55:32.718750,-86.93,105.22
135704,2018-06-29 09:55:32.750000,-57.78,105.22
135705,2018-06-29 09:55:32.781250,-16.42,105.22
135706,2018-06-29 09:55:32.812500,52.22,105.22
135707,2018-06-29 09:55:32.843750,138.73,105.22
135708,2018-06-29 09:55:32.875000,213.07,105.22
135709,2018-06-29 09:55:32.906250,249.15,105.22
135710,2018-06-29 09:55:32.937500,238.39,105.22
135711,2018-06-29 09:55:32.968750,187.83,105.22
135712,2018-06-29 09:55:33.000000,114.2,105.22
135713,2018-06-29 09:55:33.031250,36.15,105.22
135714,2018-06-29 09:55:33.062500,-33.25,105.22
135715,2018-06-29 09:55:33.093750,-88.09,105.22
135716,2018-06-29 09:55:33.125000,-126.46,105.22
135717,2018-06-29 09:55:33.156250,-148.36,105.22
135718,2018-06-29 09:55:33.187500,-156.57,105.22
135719,2018-06-29 09:55:33.218750,-159.17,105.22
135720,2018-06-29 09:55:33.250000,-161.08,105.22
135721,2018-06-29 09:55:33.281250,-152.0,105.22
135722,2018-06-29 09:55:33.312500,-114.19,105.22
135723,2018-06-29 09:55:33.343750,-45.17,105.22
135724,2018-06-29 09:55:33.375000,38.78,105.22
135725,2018-06-29 09:55:33.406250,115.82,105.22
135726,2018-06-29 09:55:33.437500,163.54,105.22
135727,2018-06-29 09:55:33.468750,166.7,105.22
135728,2018-06-29 09:55:33.500000,130.8,105.22
135729,2018-06-29 09:55:33.531250,80.54,105.33
135730,2018-06-29 09:55:33.562500,34.73,105.33
135731,2018-06-29 09:55:33.593750,-3.86,105.33
135732,2018-06-29 09:55:33.625000,-38.16,105.33
135733,2018-06-29 09:55:33.656250,-65.94,105.33
135734,2018-06-29 09:55:33.687500,-83.76,105.33
135735,2018-06-29 09:55:33.718750,-96.02,105.33
135736,2018-06-29 09:55:33.750000,-108.28,105.33
135737,2018-06-29 09:55:33.781250,-125.56,105.33
135738,2018-06-29 09:55:33.812500,-147.06,105.33
135739,2018-06-29 09:55:33.843750,-150.48,105.33
135740,2018-06-29 09:55:33.875000,-114.55,105.33
135741,2018-06-29 09:55:33.906250,-47.72,105.33
135742,2018-06-29 09:55:33.937500,27.47,105.33
135743,2018-06-29 09:55:33.968750,115.01,105.33
135744,2018-06-29 09:55:34.000000,210.64,105.33
135745,2018-06-29 09:55:34.031250,293.83,105.33
135746,2018-06-29 09:55:34.062500,314.52,105.33
135747,2018-06-29 09:55:34.093750,243.42,105.33
135748,2018-06-29 09:55:34.125000,114.96,105.33
135749,2018-06-29 09:55:34.156250,-5.88,105.33
135750,2018-06-29 09:55:34.187500,-87.38,105.33
135751,2018-06-29 09:55:34.218750,-133.63,105.33
135752,2018-06-29 09:55:34.250000,-148.21,105.33
135753,2018-06-29 09:55:34.281250,-142.45,105.33
135754,2018-06-29 09:55:34.312500,-127.36,105.33
135755,2018-06-29 09:55:34.343750,-109.15,105.33
135756,2018-06-29 09:55:34.375000,-83.85,105.33
135757,2018-06-29 09:55:34.406250,-51.06,105.33
135758,2018-06-29 09:55:34.437500,-17.35,105.33
135759,2018-06-29 09:55:34.468750,11.02,105.33
135760,2018-06-29 09:55:34.500000,34.03,105.33
135761,2018-06-29 09:55:34.531250,49.6,105.42
135762,2018-06-29 09:55:34.562500,49.37,105.42
135763,2018-06-29 09:55:34.593750,31.59,105.42
135764,2018-06-29 09:55:34.625000,7.18,105.42
135765,2018-06-29 09:55:34.656250,-6.69,105.42
135766,2018-06-29 09:55:34.687500,-3.49,105.42
135767,2018-06-29 09:55:34.718750,9.4,105.42
135768,2018-06-29 09:55:34.750000,21.71,105.42
135769,2018-06-29 09:55:34.781250,27.77,105.42
135770,2018-06-29 09:55:34.812500,26.25,105.42
135771,2018-06-29 09:55:34.843750,17.4,105.42
135772,2018-06-29 09:55:34.875000,5.68,105.42
135773,2018-06-29 09:55:34.906250,-2.75,105.42
135774,2018-06-29 09:55:34.937500,-7.16,105.42
135775,2018-06-29 09:55:34.968750,-13.52,105.42
135776,2018-06-29 09:55:35.000000,-28.0,105.42
135777,2018-06-29 09:55:35.031250,-37.34,105.42
135778,2018-06-29 09:55:35.062500,-17.41,105.42
135779,2018-06-29 09:55:35.093750,42.56,105.42
135780,2018-06-29 09:55:35.125000,127.92,105.42
135781,2018-06-29 09:55:35.156250,201.26,105.42
135782,2018-06-29 09:55:35.187500,224.78,105.42
135783,2018-06-29 09:55:35.218750,164.87,105.42
135784,2018-06-29 09:55:35.250000,46.38,105.42
135785,2018-06-29 09:55:35.281250,-64.14,105.42
135786,2018-06-29 09:55:35.312500,-136.85,105.42
135787,2018-06-29 09:55:35.343750,-167.53,105.42
135788,2018-06-29 09:55:35.375000,-157.78,105.42
135789,2018-06-29 09:55:35.406250,-126.84,105.42
135790,2018-06-29 09:55:35.437500,-94.59,105.42
135791,2018-06-29 09:55:35.468750,-66.05,105.42
135792,2018-06-29 09:55:35.500000,-38.69,105.42
135793,2018-06-29 09:55:35.531250,-12.18,105.48
135794,2018-06-29 09:55:35.562500,8.89,105.48
135795,2018-06-29 09:55:35.593750,19.85,105.48
135796,2018-06-29 09:55:35.625000,20.42,105.48
135797,2018-06-29 09:55:35.656250,15.21,105.48
135798,2018-06-29 09:55:35.687500,9.87,105.48
135799,2018-06-29 09:55:35.718750,6.86,105.48
135800,2018-06-29 09:55:35.750000,5.46,105.48
135801,2018-06-29 09:55:35.781250,3.57,105.48
135802,2018-06-29 09:55:35.812500,0.69,105.48
135803,2018-06-29 09:55:35.843750,-0.73,105.48
135804,2018-06-29 09:55:35.875000,1.03,105.48
135805,2018-06-29 09:55:35.906250,2.78,105.48
135806,2018-06-29 09:55:35.937500,-2.54,105.48
135807,2018-06-29 09:55:35.968750,-15.82,105.48
135808,2018-06-29 09:55:36.000000,-25.33,105.48
135809,2018-06-29 09:55:36.031250,-18.03,105.48
135810,2018-06-29 09:55:36.062500,2.73,105.48
135811,2018-06-29 09:55:36.093750,16.92,105.48
135812,2018-06-29 09:55:36.125000,14.07,105.48
135813,2018-06-29 09:55:36.156250,8.23,105.48
135814,2018-06-29 09:55:36.187500,27.15,105.48
135815,2018-06-29 09:55:36.218750,85.16,105.48
135816,2018-06-29 09:55:36.250000,167.33,105.48
135817,2018-06-29 09:55:36.281250,227.26,105.48
135818,2018-06-29 09:55:36.312500,217.54,105.48
135819,2018-06-29 09:55:36.343750,143.45,105.48
135820,2018-06-29 09:55:36.375000,45.12,105.48
135821,2018-06-29 09:55:36.406250,-45.09,105.48
135822,2018-06-29 09:55:36.437500,-114.27,105.48
135823,2018-06-29 09:55:36.468750,-159.55,105.48
135824,2018-06-29 09:55:36.500000,-183.74,105.48
135825,2018-06-29 09:55:36.531250,-192.74,105.55
135826,2018-06-29 09:55:36.562500,-190.64,105.55
135827,2018-06-29 09:55:36.593750,-178.6,105.55
135828,2018-06-29 09:55:36.625000,-154.97,105.55
135829,2018-06-29 09:55:36.656250,-117.17,105.55
135830,2018-06-29 09:55:36.687500,-57.32,105.55
135831,2018-06-29 09:55:36.718750,24.91,105.55
135832,2018-06-29 09:55:36.750000,106.4,105.55
135833,2018-06-29 09:55:36.781250,151.68,105.55
135834,2018-06-29 09:55:36.812500,147.02,105.55
135835,2018-06-29 09:55:36.843750,109.32,105.55
135836,2018-06-29 09:55:36.875000,62.23,105.55
135837,2018-06-29 09:55:36.906250,20.38,105.55
135838,2018-06-29 09:55:36.937500,-8.78,105.55
135839,2018-06-29 09:55:36.968750,-22.56,105.55
135840,2018-06-29 09:55:37.000000,-25.12,105.55
135841,2018-06-29 09:55:37.031250,-23.18,105.55
135842,2018-06-29 09:55:37.062500,-21.26,105.55
135843,2018-06-29 09:55:37.093750,-20.94,105.55
135844,2018-06-29 09:55:37.125000,-22.8,105.55
135845,2018-06-29 09:55:37.156250,-27.69,105.55
135846,2018-06-29 09:55:37.187500,-34.77,105.55
135847,2018-06-29 09:55:37.218750,-37.93,105.55
135848,2018-06-29 09:55:37.250000,-29.89,105.55
135849,2018-06-29 09:55:37.281250,-9.94,105.55
135850,2018-06-29 09:55:37.312500,18.28,105.55
135851,2018-06-29 09:55:37.343750,52.57,105.55
135852,2018-06-29 09:55:37.375000,86.36,105.55
135853,2018-06-29 09:55:37.406250,104.05,105.55
135854,2018-06-29 09:55:37.437500,93.92,105.55
135855,2018-06-29 09:55:37.468750,61.66,105.55
135856,2018-06-29 09:55:37.500000,23.22,105.55
135857,2018-06-29 09:55:37.531250,-10.6,105.6
135858,2018-06-29 09:55:37.562500,-37.05,105.6
135859,2018-06-29 09:55:37.593750,-55.08,105.6
135860,2018-06-29 09:55:37.625000,-62.9,105.6
135861,2018-06-29 09:55:37.656250,-61.13,105.6
135862,2018-06-29 09:55:37.687500,-53.92,105.6
135863,2018-06-29 09:55:37.718750,-45.37,105.6
135864,2018-06-29 09:55:37.750000,-36.67,105.6
135865,2018-06-29 09:55:37.781250,-27.56,105.6
135866,2018-06-29 09:55:37.812500,-19.56,105.6
135867,2018-06-29 09:55:37.843750,-16.1,105.6
135868,2018-06-29 09:55:37.875000,-19.46,105.6
135869,2018-06-29 09:55:37.906250,-28.24,105.6
135870,2018-06-29 09:55:37.937500,-36.04,105.6
135871,2018-06-29 09:55:37.968750,-33.96,105.6
135872,2018-06-29 09:55:38.000000,-18.2,105.6
135873,2018-06-29 09:55:38.031250,6.28,105.6
135874,2018-06-29 09:55:38.062500,31.65,105.6
135875,2018-06-29 09:55:38.093750,52.52,105.6
135876,2018-06-29 09:55:38.125000,64.94,105.6
135877,2018-06-29 09:55:38.156250,66.51,105.6
135878,2018-06-29 09:55:38.187500,59.42,105.6
135879,2018-06-29 09:55:38.218750,50.45,105.6
135880,2018-06-29 09:55:38.250000,45.59,105.6
135881,2018-06-29 09:55:38.281250,43.88,105.6
135882,2018-06-29 09:55:38.312500,38.04,105.6
135883,2018-06-29 09:55:38.343750,24.41,105.6
135884,2018-06-29 09:55:38.375000,11.79,105.6
135885,2018-06-29 09:55:38.406250,15.99,105.6
135886,2018-06-29 09:55:38.437500,45.54,105.6
135887,2018-06-29 09:55:38.468750,92.24,105.6
135888,2018-06-29 09:55:38.500000,133.15,105.6
135889,2018-06-29 09:55:38.531250,141.64,105.63
135890,2018-06-29 09:55:38.562500,101.64,105.63
135891,2018-06-29 09:55:38.593750,21.02,105.63
135892,2018-06-29 09:55:38.625000,-67.15,105.63
135893,2018-06-29 09:55:38.656250,-126.12,105.63
135894,2018-06-29 09:55:38.687500,-143.35,105.63
135895,2018-06-29 09:55:38.718750,-132.15,105.63
135896,2018-06-29 09:55:38.750000,-109.6,105.63
135897,2018-06-29 09:55:38.781250,-83.44,105.63
135898,2018-06-29 09:55:38.812500,-57.07,105.63
135899,2018-06-29 09:55:38.843750,-33.71,105.63
135900,2018-06-29 09:55:38.875000,-14.83,105.63
135901,2018-06-29 09:55:38.906250,-0.39,105.63
135902,2018-06-29 09:55:38.937500,7.15,105.63
135903,2018-06-29 09:55:38.968750,4.81,105.63
135904,2018-06-29 09:55:39.000000,-3.77,105.63
135905,2018-06-29 09:55:39.031250,-10.25,105.63
135906,2018-06-29 09:55:39.062500,-10.09,105.63
135907,2018-06-29 09:55:39.093750,-7.95,105.63
135908,2018-06-29 09:55:39.125000,-7.51,105.63
135909,2018-06-29 09:55:39.156250,-6.35,105.63
135910,2018-06-29 09:55:39.187500,1.24,105.63
135911,2018-06-29 09:55:39.218750,12.72,105.63
135912,2018-06-29 09:55:39.250000,17.61,105.63
135913,2018-06-29 09:55:39.281250,11.3,105.63
135914,2018-06-29 09:55:39.312500,3.03,105.63
135915,2018-06-29 09:55:39.343750,10.12,105.63
135916,2018-06-29 09:55:39.375000,34.85,105.63
135917,2018-06-29 09:55:39.406250,62.63,105.63
135918,2018-06-29 09:55:39.437500,68.59,105.63
135919,2018-06-29 09:55:39.468750,42.34,105.63
135920,2018-06-29 09:55:39.500000,24.76,105.63
135921,2018-06-29 09:55:39.531250,53.69,105.72
135922,2018-06-29 09:55:39.562500,120.26,105.72
135923,2018-06-29 09:55:39.593750,188.72,105.72
135924,2018-06-29 09:55:39.625000,221.85,105.72
135925,2018-06-29 09:55:39.656250,179.47,105.72
135926,2018-06-29 09:55:39.687500,83.04,105.72
135927,2018-06-29 09:55:39.718750,-24.24,105.72
135928,2018-06-29 09:55:39.750000,-114.42,105.72
135929,2018-06-29 09:55:39.781250,-176.69,105.72
135930,2018-06-29 09:55:39.812500,-210.79,105.72
135931,2018-06-29 09:55:39.843750,-218.4,105.72
135932,2018-06-29 09:55:39.875000,-203.41,105.72
135933,2018-06-29 09:55:39.906250,-172.89,105.72
135934,2018-06-29 09:55:39.937500,-137.79,105.72
135935,2018-06-29 09:55:39.968750,-102.26,105.72
135936,2018-06-29 09:55:40.000000,-62.83,105.72
135937,2018-06-29 09:55:40.031250,-9.54,105.72
135938,2018-06-29 09:55:40.062500,48.04,105.72
135939,2018-06-29 09:55:40.093750,84.09,105.72
135940,2018-06-29 09:55:40.125000,85.83,105.72
135941,2018-06-29 09:55:40.156250,64.96,105.72
135942,2018-06-29 09:55:40.187500,36.98,105.72
135943,2018-06-29 09:55:40.218750,10.21,105.72
135944,2018-06-29 09:55:40.250000,-5.99,105.72
135945,2018-06-29 09:55:40.281250,-7.75,105.72
135946,2018-06-29 09:55:40.312500,-1.56,105.72
135947,2018-06-29 09:55:40.343750,2.65,105.72
135948,2018-06-29 09:55:40.375000,4.28,105.72
135949,2018-06-29 09:55:40.406250,6.45,105.72
135950,2018-06-29 09:55:40.437500,6.95,105.72
135951,2018-06-29 09:55:40.468750,-2.01,105.72
135952,2018-06-29 09:55:40.500000,-22.39,105.72
135953,2018-06-29 09:55:40.531250,-46.45,105.72
135954,2018-06-29 09:55:40.562500,-58.06,105.72
135955,2018-06-29 09:55:40.593750,-39.43,105.72
135956,2018-06-29 09:55:40.625000,6.67,105.72
135957,2018-06-29 09:55:40.656250,62.33,105.72
135958,2018-06-29 09:55:40.687500,121.83,105.72
135959,2018-06-29 09:55:40.718750,185.65,105.72
135960,2018-06-29 09:55:40.750000,233.95,105.72
135961,2018-06-29 09:55:40.781250,219.44,105.72
135962,2018-06-29 09:55:40.812500,132.62,105.72
135963,2018-06-29 09:55:40.843750,23.72,105.72
135964,2018-06-29 09:55:40.875000,-60.43,105.72
135965,2018-06-29 09:55:40.906250,-122.11,105.72
135966,2018-06-29 09:55:40.937500,-163.96,105.72
135967,2018-06-29 09:55:40.968750,-180.75,105.72
135968,2018-06-29 09:55:41.000000,-168.61,105.72
135969,2018-06-29 09:55:41.031250,-141.47,105.72
135970,2018-06-29 09:55:41.062500,-107.28,105.72
135971,2018-06-29 09:55:41.093750,-63.06,105.72
135972,2018-06-29 09:55:41.125000,-5.89,105.72
135973,2018-06-29 09:55:41.156250,54.51,105.72
135974,2018-06-29 09:55:41.187500,97.02,105.72
135975,2018-06-29 09:55:41.218750,103.88,105.72
135976,2018-06-29 09:55:41.250000,76.35,105.72
135977,2018-06-29 09:55:41.281250,31.85,105.72
135978,2018-06-29 09:55:41.312500,-13.97,105.72
135979,2018-06-29 09:55:41.343750,-52.35,105.72
135980,2018-06-29 09:55:41.375000,-76.62,105.72
135981,2018-06-29 09:55:41.406250,-80.1,105.72
135982,2018-06-29 09:55:41.437500,-61.85,105.72
135983,2018-06-29 09:55:41.468750,-30.38,105.72
135984,2018-06-29 09:55:41.500000,-0.84,105.72
135985,2018-06-29 09:55:41.531250,15.84,105.73
135986,2018-06-29 09:55:41.562500,19.56,105.73
135987,2018-06-29 09:55:41.593750,17.1,105.73
135988,2018-06-29 09:55:41.625000,16.93,105.73
135989,2018-06-29 09:55:41.656250,24.1,105.73
135990,2018-06-29 09:55:41.687500,37.1,105.73
135991,2018-06-29 09:55:41.718750,52.95,105.73
135992,2018-06-29 09:55:41.750000,74.78,105.73
135993,2018-06-29 09:55:41.781250,104.82,105.73
135994,2018-06-29 09:55:41.812500,131.82,105.73
135995,2018-06-29 09:55:41.843750,135.29,105.73
135996,2018-06-29 09:55:41.875000,103.5,105.73
135997,2018-06-29 09:55:41.906250,43.04,105.73
135998,2018-06-29 09:55:41.937500,-27.53,105.73
135999,2018-06-29 09:55:41.968750,-89.34,105.73
136000,2018-06-29 09:55:42.000000,-130.72,105.73
136001,2018-06-29 09:55:42.031250,-150.88,105.73
136002,2018-06-29 09:55:42.062500,-157.6,105.73
136003,2018-06-29 09:55:42.093750,-156.39,105.73
136004,2018-06-29 09:55:42.125000,-140.86,105.73
136005,2018-06-29 09:55:42.156250,-100.59,105.73
136006,2018-06-29 09:55:42.187500,-38.32,105.73
136007,2018-06-29 09:55:42.218750,27.18,105.73
136008,2018-06-29 09:55:42.250000,74.28,105.73
136009,2018-06-29 09:55:42.281250,92.41,105.73
136010,2018-06-29 09:55:42.312500,84.63,105.73
136011,2018-06-29 09:55:42.343750,62.17,105.73
136012,2018-06-29 09:55:42.375000,35.57,105.73
136013,2018-06-29 09:55:42.406250,13.25,105.73
136014,2018-06-29 09:55:42.437500,2.61,105.73
136015,2018-06-29 09:55:42.468750,4.6,105.73
136016,2018-06-29 09:55:42.500000,12.72,105.73
136017,2018-06-29 09:55:42.531250,18.26,105.75
136018,2018-06-29 09:55:42.562500,20.12,105.75
136019,2018-06-29 09:55:42.593750,17.74,105.75
136020,2018-06-29 09:55:42.625000,8.19,105.75
136021,2018-06-29 09:55:42.656250,-7.53,105.75
136022,2018-06-29 09:55:42.687500,-24.1,105.75
136023,2018-06-29 09:55:42.718750,-40.72,105.75
136024,2018-06-29 09:55:42.750000,-58.88,105.75
136025,2018-06-29 09:55:42.781250,-56.86,105.75
136026,2018-06-29 09:55:42.812500,-22.95,105.75
136027,2018-06-29 09:55:42.843750,39.25,105.75
136028,2018-06-29 09:55:42.875000,120.83,105.75
136029,2018-06-29 09:55:42.906250,198.71,105.75
136030,2018-06-29 09:55:42.937500,238.86,105.75
136031,2018-06-29 09:55:42.968750,197.0,105.75
136032,2018-06-29 09:55:43.000000,95.36,105.75
136033,2018-06-29 09:55:43.031250,-0.76,105.75
136034,2018-06-29 09:55:43.062500,-75.84,105.75
136035,2018-06-29 09:55:43.093750,-129.14,105.75
136036,2018-06-29 09:55:43.125000,-152.39,105.75
136037,2018-06-29 09:55:43.156250,-145.83,105.75
136038,2018-06-29 09:55:43.187500,-124.19,105.75
136039,2018-06-29 09:55:43.218750,-100.29,105.75
136040,2018-06-29 09:55:43.250000,-77.81,105.75
136041,2018-06-29 09:55:43.281250,-54.55,105.75
136042,2018-06-29 09:55:43.312500,-34.31,105.75
136043,2018-06-29 09:55:43.343750,-19.59,105.75
136044,2018-06-29 09:55:43.375000,-12.0,105.75
136045,2018-06-29 09:55:43.406250,-10.98,105.75
136046,2018-06-29 09:55:43.437500,-16.69,105.75
136047,2018-06-29 09:55:43.468750,-28.84,105.75
136048,2018-06-29 09:55:43.500000,-42.96,105.75
136049,2018-06-29 09:55:43.531250,-48.12,105.77
136050,2018-06-29 09:55:43.562500,-30.77,105.77
136051,2018-06-29 09:55:43.593750,8.79,105.77
136052,2018-06-29 09:55:43.625000,53.18,105.77
136053,2018-06-29 09:55:43.656250,78.56,105.77
136054,2018-06-29 09:55:43.687500,79.82,105.77
136055,2018-06-29 09:55:43.718750,65.37,105.77
136056,2018-06-29 09:55:43.750000,50.89,105.77
136057,2018-06-29 09:55:43.781250,46.38,105.77
136058,2018-06-29 09:55:43.812500,44.53,105.77
136059,2018-06-29 09:55:43.843750,19.77,105.77
136060,2018-06-29 09:55:43.875000,-39.61,105.77
136061,2018-06-29 09:55:43.906250,-81.55,105.77
136062,2018-06-29 09:55:43.937500,-60.02,105.77
136063,2018-06-29 09:55:43.968750,24.36,105.77
136064,2018-06-29 09:55:44.000000,130.7,105.77
136065,2018-06-29 09:55:44.031250,209.58,105.77
136066,2018-06-29 09:55:44.062500,218.9,105.77
136067,2018-06-29 09:55:44.093750,132.8,105.77
136068,2018-06-29 09:55:44.125000,13.01,105.77
136069,2018-06-29 09:55:44.156250,-92.17,105.77
136070,2018-06-29 09:55:44.187500,-172.36,105.77
136071,2018-06-29 09:55:44.218750,-222.8,105.77
136072,2018-06-29 09:55:44.250000,-231.49,105.77
136073,2018-06-29 09:55:44.281250,-198.42,105.77
136074,2018-06-29 09:55:44.312500,-136.87,105.77
136075,2018-06-29 09:55:44.343750,-69.02,105.77
136076,2018-06-29 09:55:44.375000,-10.53,105.77
136077,2018-06-29 09:55:44.406250,35.16,105.77
136078,2018-06-29 09:55:44.437500,65.43,105.77
136079,2018-06-29 09:55:44.468750,82.41,105.77
136080,2018-06-29 09:55:44.500000,88.52,105.77
136081,2018-06-29 09:55:44.531250,88.05,105.8
136082,2018-06-29 09:55:44.562500,79.02,105.8
136083,2018-06-29 09:55:44.593750,58.84,105.8
136084,2018-06-29 09:55:44.625000,34.8,105.8
136085,2018-06-29 09:55:44.656250,20.35,105.8
136086,2018-06-29 09:55:44.687500,20.07,105.8
136087,2018-06-29 09:55:44.718750,21.39,105.8
136088,2018-06-29 09:55:44.750000,14.6,105.8
136089,2018-06-29 09:55:44.781250,6.03,105.8
136090,2018-06-29 09:55:44.812500,5.62,105.8
136091,2018-06-29 09:55:44.843750,12.51,105.8
136092,2018-06-29 09:55:44.875000,13.47,105.8
136093,2018-06-29 09:55:44.906250,-6.87,105.8
136094,2018-06-29 09:55:44.937500,-55.75,105.8
136095,2018-06-29 09:55:44.968750,-100.71,105.8
136096,2018-06-29 09:55:45.000000,-85.26,105.8
136097,2018-06-29 09:55:45.031250,-14.04,105.8
136098,2018-06-29 09:55:45.062500,79.38,105.8
136099,2018-06-29 09:55:45.093750,175.05,105.8
136100,2018-06-29 09:55:45.125000,249.46,105.8
136101,2018-06-29 09:55:45.156250,265.51,105.8
136102,2018-06-29 09:55:45.187500,188.87,105.8
136103,2018-06-29 09:55:45.218750,56.49,105.8
136104,2018-06-29 09:55:45.250000,-55.75,105.8
136105,2018-06-29 09:55:45.281250,-123.73,105.8
136106,2018-06-29 09:55:45.312500,-164.85,105.8
136107,2018-06-29 09:55:45.343750,-181.86,105.8
136108,2018-06-29 09:55:45.375000,-171.18,105.8
136109,2018-06-29 09:55:45.406250,-148.24,105.8
136110,2018-06-29 09:55:45.437500,-128.18,105.8
136111,2018-06-29 09:55:45.468750,-107.4,105.8
136112,2018-06-29 09:55:45.500000,-79.47,105.8
136113,2018-06-29 09:55:45.531250,-52.85,105.83
136114,2018-06-29 09:55:45.562500,-36.86,105.83
136115,2018-06-29 09:55:45.593750,-26.08,105.83
136116,2018-06-29 09:55:45.625000,-10.65,105.83
136117,2018-06-29 09:55:45.656250,8.5,105.83
136118,2018-06-29 09:55:45.687500,24.1,105.83
136119,2018-06-29 09:55:45.718750,32.23,105.83
136120,2018-06-29 09:55:45.750000,33.99,105.83
136121,2018-06-29 09:55:45.781250,34.26,105.83
136122,2018-06-29 09:55:45.812500,37.13,105.83
136123,2018-06-29 09:55:45.843750,41.82,105.83
136124,2018-06-29 09:55:45.875000,44.79,105.83
136125,2018-06-29 09:55:45.906250,45.62,105.83
136126,2018-06-29 09:55:45.937500,47.96,105.83
136127,2018-06-29 09:55:45.968750,52.93,105.83
136128,2018-06-29 09:55:46.000000,53.48,105.83
136129,2018-06-29 09:55:46.031250,41.59,105.83
136130,2018-06-29 09:55:46.062500,22.96,105.83
136131,2018-06-29 09:55:46.093750,14.02,105.83
136132,2018-06-29 09:55:46.125000,22.05,105.83
136133,2018-06-29 09:55:46.156250,40.26,105.83
136134,2018-06-29 09:55:46.187500,59.33,105.83
136135,2018-06-29 09:55:46.218750,68.11,105.83
136136,2018-06-29 09:55:46.250000,49.03,105.83
136137,2018-06-29 09:55:46.281250,-7.33,105.83
136138,2018-06-29 09:55:46.312500,-82.73,105.83
136139,2018-06-29 09:55:46.343750,-139.63,105.83
136140,2018-06-29 09:55:46.375000,-153.46,105.83
136141,2018-06-29 09:55:46.406250,-131.03,105.83
136142,2018-06-29 09:55:46.437500,-95.59,105.83
136143,2018-06-29 09:55:46.468750,-62.46,105.83
136144,2018-06-29 09:55:46.500000,-34.42,105.83
136145,2018-06-29 09:55:46.531250,-10.73,105.87
136146,2018-06-29 09:55:46.562500,8.69,105.87
136147,2018-06-29 09:55:46.593750,23.82,105.87
136148,2018-06-29 09:55:46.625000,36.33,105.87
136149,2018-06-29 09:55:46.656250,49.4,105.87
136150,2018-06-29 09:55:46.687500,65.72,105.87
136151,2018-06-29 09:55:46.718750,83.27,105.87
136152,2018-06-29 09:55:46.750000,94.23,105.87
136153,2018-06-29 09:55:46.781250,89.81,105.87
136154,2018-06-29 09:55:46.812500,65.46,105.87
136155,2018-06-29 09:55:46.843750,29.43,105.87
136156,2018-06-29 09:55:46.875000,-0.39,105.87
136157,2018-06-29 09:55:46.906250,-11.2,105.87
136158,2018-06-29 09:55:46.937500,-10.07,105.87
136159,2018-06-29 09:55:46.968750,-13.12,105.87
136160,2018-06-29 09:55:47.000000,-18.37,105.87
136161,2018-06-29 09:55:47.031250,-5.76,105.87
136162,2018-06-29 09:55:47.062500,34.95,105.87
136163,2018-06-29 09:55:47.093750,80.5,105.87
136164,2018-06-29 09:55:47.125000,94.41,105.87
136165,2018-06-29 09:55:47.156250,48.67,105.87
136166,2018-06-29 09:55:47.187500,-35.36,105.87
136167,2018-06-29 09:55:47.218750,-77.74,105.87
136168,2018-06-29 09:55:47.250000,-45.94,105.87
136169,2018-06-29 09:55:47.281250,26.86,105.87
136170,2018-06-29 09:55:47.312500,107.56,105.87
136171,2018-06-29 09:55:47.343750,172.58,105.87
136172,2018-06-29 09:55:47.375000,189.73,105.87
136173,2018-06-29 09:55:47.406250,129.44,105.87
136174,2018-06-29 09:55:47.437500,24.36,105.87
136175,2018-06-29 09:55:47.468750,-62.45,105.87
136176,2018-06-29 09:55:47.500000,-123.06,105.87
136177,2018-06-29 09:55:47.531250,-171.14,105.9
136178,2018-06-29 09:55:47.562500,-194.84,105.9
136179,2018-06-29 09:55:47.593750,-185.58,105.9
136180,2018-06-29 09:55:47.625000,-159.42,105.9
136181,2018-06-29 09:55:47.656250,-141.05,105.9
136182,2018-06-29 09:55:47.687500,-132.24,105.9
136183,2018-06-29 09:55:47.718750,-111.74,105.9
136184,2018-06-29 09:55:47.750000,-63.53,105.9
136185,2018-06-29 09:55:47.781250,4.71,105.9
136186,2018-06-29 09:55:47.812500,69.01,105.9
136187,2018-06-29 09:55:47.843750,106.81,105.9
136188,2018-06-29 09:55:47.875000,108.52,105.9
136189,2018-06-29 09:55:47.906250,80.78,105.9
136190,2018-06-29 09:55:47.937500,40.79,105.9
136191,2018-06-29 09:55:47.968750,5.55,105.9
136192,2018-06-29 09:55:48.000000,-13.08,105.9
136193,2018-06-29 09:55:48.031250,-13.75,105.9
136194,2018-06-29 09:55:48.062500,-3.18,105.9
136195,2018-06-29 09:55:48.093750,10.81,105.9
136196,2018-06-29 09:55:48.125000,24.16,105.9
136197,2018-06-29 09:55:48.156250,35.51,105.9
136198,2018-06-29 09:55:48.187500,41.61,105.9
136199,2018-06-29 09:55:48.218750,40.54,105.9
136200,2018-06-29 09:55:48.250000,28.79,105.9
136201,2018-06-29 09:55:48.281250,5.29,105.9
136202,2018-06-29 09:55:48.312500,-33.21,105.9
136203,2018-06-29 09:55:48.343750,-72.57,105.9
136204,2018-06-29 09:55:48.375000,-76.95,105.9
136205,2018-06-29 09:55:48.406250,-30.24,105.9
136206,2018-06-29 09:55:48.437500,63.37,105.9
136207,2018-06-29 09:55:48.468750,167.97,105.9
136208,2018-06-29 09:55:48.500000,236.07,105.9
136209,2018-06-29 09:55:48.531250,224.23,105.93
136210,2018-06-29 09:55:48.562500,130.45,105.93
136211,2018-06-29 09:55:48.593750,20.64,105.93
136212,2018-06-29 09:55:48.625000,-70.93,105.93
136213,2018-06-29 09:55:48.656250,-139.59,105.93
136214,2018-06-29 09:55:48.687500,-176.57,105.93
136215,2018-06-29 09:55:48.718750,-176.8,105.93
136216,2018-06-29 09:55:48.750000,-152.88,105.93
136217,2018-06-29 09:55:48.781250,-120.96,105.93
136218,2018-06-29 09:55:48.812500,-91.41,105.93
136219,2018-06-29 09:55:48.843750,-64.06,105.93
136220,2018-06-29 09:55:48.875000,-35.37,105.93
136221,2018-06-29 09:55:48.906250,-6.87,105.93
136222,2018-06-29 09:55:48.937500,13.34,105.93
136223,2018-06-29 09:55:48.968750,14.22,105.93
136224,2018-06-29 09:55:49.000000,-3.98,105.93
136225,2018-06-29 09:55:49.031250,-30.03,105.93
136226,2018-06-29 09:55:49.062500,-46.84,105.93
136227,2018-06-29 09:55:49.093750,-40.83,105.93
136228,2018-06-29 09:55:49.125000,-12.11,105.93
136229,2018-06-29 09:55:49.156250,25.91,105.93
136230,2018-06-29 09:55:49.187500,57.03,105.93
136231,2018-06-29 09:55:49.218750,75.72,105.93
136232,2018-06-29 09:55:49.250000,85.26,105.93
136233,2018-06-29 09:55:49.281250,90.71,105.93
136234,2018-06-29 09:55:49.312500,92.33,105.93
136235,2018-06-29 09:55:49.343750,82.95,105.93
136236,2018-06-29 09:55:49.375000,59.94,105.93
136237,2018-06-29 09:55:49.406250,28.53,105.93
136238,2018-06-29 09:55:49.437500,-0.5,105.93
136239,2018-06-29 09:55:49.468750,-12.0,105.93
136240,2018-06-29 09:55:49.500000,3.7,105.93
136241,2018-06-29 09:55:49.531250,46.11,105.97
136242,2018-06-29 09:55:49.562500,98.95,105.97
136243,2018-06-29 09:55:49.593750,133.03,105.97
136244,2018-06-29 09:55:49.625000,110.05,105.97
136245,2018-06-29 09:55:49.656250,34.74,105.97
136246,2018-06-29 09:55:49.687500,-58.75,105.97
136247,2018-06-29 09:55:49.718750,-134.58,105.97
136248,2018-06-29 09:55:49.750000,-171.25,105.97
136249,2018-06-29 09:55:49.781250,-170.47,105.97
136250,2018-06-29 09:55:49.812500,-147.06,105.97
136251,2018-06-29 09:55:49.843750,-114.11,105.97
136252,2018-06-29 09:55:49.875000,-77.72,105.97
136253,2018-06-29 09:55:49.906250,-41.98,105.97
136254,2018-06-29 09:55:49.937500,-8.73,105.97
136255,2018-06-29 09:55:49.968750,20.91,105.97
136256,2018-06-29 09:55:50.000000,51.39,105.97
136257,2018-06-29 09:55:50.031250,80.4,105.97
136258,2018-06-29 09:55:50.062500,95.76,105.97
136259,2018-06-29 09:55:50.093750,88.58,105.97
136260,2018-06-29 09:55:50.125000,62.54,105.97
136261,2018-06-29 09:55:50.156250,26.47,105.97
136262,2018-06-29 09:55:50.187500,-10.45,105.97
136263,2018-06-29 09:55:50.218750,-34.62,105.97
136264,2018-06-29 09:55:50.250000,-38.33,105.97
136265,2018-06-29 09:55:50.281250,-29.76,105.97
136266,2018-06-29 09:55:50.312500,-25.09,105.97
136267,2018-06-29 09:55:50.343750,-29.69,105.97
136268,2018-06-29 09:55:50.375000,-33.1,105.97
136269,2018-06-29 09:55:50.406250,-21.74,105.97
136270,2018-06-29 09:55:50.437500,2.21,105.97
136271,2018-06-29 09:55:50.468750,18.04,105.97
136272,2018-06-29 09:55:50.500000,13.33,105.97
136273,2018-06-29 09:55:50.531250,5.97,106.02
136274,2018-06-29 09:55:50.562500,23.49,106.02
136275,2018-06-29 09:55:50.593750,68.27,106.02
136276,2018-06-29 09:55:50.625000,118.06,106.02
136277,2018-06-29 09:55:50.656250,150.23,106.02
136278,2018-06-29 09:55:50.687500,151.83,106.02
136279,2018-06-29 09:55:50.718750,118.4,106.02
136280,2018-06-29 09:55:50.750000,59.24,106.02
136281,2018-06-29 09:55:50.781250,-3.22,106.02
136282,2018-06-29 09:55:50.812500,-51.29,106.02
136283,2018-06-29 09:55:50.843750,-84.37,106.02
136284,2018-06-29 09:55:50.875000,-107.74,106.02
136285,2018-06-29 09:55:50.906250,-119.63,106.02
136286,2018-06-29 09:55:50.937500,-116.61,106.02
136287,2018-06-29 09:55:50.968750,-103.36,106.02
136288,2018-06-29 09:55:51.000000,-89.68,106.02
136289,2018-06-29 09:55:51.031250,-79.98,106.02
136290,2018-06-29 09:55:51.062500,-67.7,106.02
136291,2018-06-29 09:55:51.093750,-42.68,106.02
136292,2018-06-29 09:55:51.125000,-6.41,106.02
136293,2018-06-29 09:55:51.156250,25.56,106.02
136294,2018-06-29 09:55:51.187500,39.9,106.02
136295,2018-06-29 09:55:51.218750,37.17,106.02
136296,2018-06-29 09:55:51.250000,25.68,106.02
136297,2018-06-29 09:55:51.281250,13.42,106.02
136298,2018-06-29 09:55:51.312500,7.01,106.02
136299,2018-06-29 09:55:51.343750,10.06,106.02
136300,2018-06-29 09:55:51.375000,19.45,106.02
136301,2018-06-29 09:55:51.406250,27.04,106.02
136302,2018-06-29 09:55:51.437500,28.5,106.02
136303,2018-06-29 09:55:51.468750,28.37,106.02
136304,2018-06-29 09:55:51.500000,31.54,106.02
136305,2018-06-29 09:55:51.531250,32.01,106.07
136306,2018-06-29 09:55:51.562500,18.59,106.07
136307,2018-06-29 09:55:51.593750,-5.35,106.07
136308,2018-06-29 09:55:51.625000,-17.48,106.07
136309,2018-06-29 09:55:51.656250,0.79,106.07
136310,2018-06-29 09:55:51.687500,42.28,106.07
136311,2018-06-29 09:55:51.718750,80.37,106.07
136312,2018-06-29 09:55:51.750000,90.85,106.07
136313,2018-06-29 09:55:51.781250,64.85,106.07
136314,2018-06-29 09:55:51.812500,13.94,106.07
136315,2018-06-29 09:55:51.843750,-33.43,106.07
136316,2018-06-29 09:55:51.875000,-53.88,106.07
136317,2018-06-29 09:55:51.906250,-50.09,106.07
136318,2018-06-29 09:55:51.937500,-41.54,106.07
136319,2018-06-29 09:55:51.968750,-39.58,106.07
136320,2018-06-29 09:55:52.000000,-41.0,106.07
136321,2018-06-29 09:55:52.031250,-39.05,106.07
136322,2018-06-29 09:55:52.062500,-31.75,106.07
136323,2018-06-29 09:55:52.093750,-21.97,106.07
136324,2018-06-29 09:55:52.125000,-13.12,106.07
136325,2018-06-29 09:55:52.156250,-4.09,106.07
136326,2018-06-29 09:55:52.187500,9.58,106.07
136327,2018-06-29 09:55:52.218750,26.64,106.07
136328,2018-06-29 09:55:52.250000,38.03,106.07
136329,2018-06-29 09:55:52.281250,36.3,106.07
136330,2018-06-29 09:55:52.312500,22.06,106.07
136331,2018-06-29 09:55:52.343750,1.72,106.07
136332,2018-06-29 09:55:52.375000,-17.95,106.07
136333,2018-06-29 09:55:52.406250,-32.65,106.07
136334,2018-06-29 09:55:52.437500,-42.35,106.07
136335,2018-06-29 09:55:52.468750,-47.88,106.07
136336,2018-06-29 09:55:52.500000,-47.77,106.07
136337,2018-06-29 09:55:52.531250,-37.53,106.12
136338,2018-06-29 09:55:52.562500,-13.24,106.12
136339,2018-06-29 09:55:52.593750,20.57,106.12
136340,2018-06-29 09:55:52.625000,51.47,106.12
136341,2018-06-29 09:55:52.656250,67.31,106.12
136342,2018-06-29 09:55:52.687500,65.87,106.12
136343,2018-06-29 09:55:52.718750,50.59,106.12
136344,2018-06-29 09:55:52.750000,26.02,106.12
136345,2018-06-29 09:55:52.781250,5.4,106.12
136346,2018-06-29 09:55:52.812500,2.75,106.12
136347,2018-06-29 09:55:52.843750,32.55,106.12
136348,2018-06-29 09:55:52.875000,87.94,106.12
136349,2018-06-29 09:55:52.906250,141.27,106.12
136350,2018-06-29 09:55:52.937500,164.34,106.12
136351,2018-06-29 09:55:52.968750,144.37,106.12
136352,2018-06-29 09:55:53.000000,82.5,106.12
136353,2018-06-29 09:55:53.031250,-7.41,106.12
136354,2018-06-29 09:55:53.062500,-101.88,106.12
136355,2018-06-29 09:55:53.093750,-177.39,106.12
136356,2018-06-29 09:55:53.125000,-219.37,106.12
136357,2018-06-29 09:55:53.156250,-226.7,106.12
136358,2018-06-29 09:55:53.187500,-209.49,106.12
136359,2018-06-29 09:55:53.218750,-179.68,106.12
136360,2018-06-29 09:55:53.250000,-135.41,106.12
136361,2018-06-29 09:55:53.281250,-63.88,106.12
136362,2018-06-29 09:55:53.312500,36.39,106.12
136363,2018-06-29 09:55:53.343750,137.8,106.12
136364,2018-06-29 09:55:53.375000,195.82,106.12
136365,2018-06-29 09:55:53.406250,185.62,106.12
136366,2018-06-29 09:55:53.437500,121.13,106.12
136367,2018-06-29 09:55:53.468750,41.76,106.12
136368,2018-06-29 09:55:53.500000,-20.88,106.12
136369,2018-06-29 09:55:53.531250,-56.48,106.15
136370,2018-06-29 09:55:53.562500,-69.66,106.15
136371,2018-06-29 09:55:53.593750,-67.81,106.15
136372,2018-06-29 09:55:53.625000,-53.85,106.15
136373,2018-06-29 09:55:53.656250,-35.59,106.15
136374,2018-06-29 09:55:53.687500,-28.44,106.15
136375,2018-06-29 09:55:53.718750,-48.76,106.15
136376,2018-06-29 09:55:53.750000,-92.75,106.15
136377,2018-06-29 09:55:53.781250,-140.91,106.15
136378,2018-06-29 09:55:53.812500,-162.01,106.15
136379,2018-06-29 09:55:53.843750,-125.84,106.15
136380,2018-06-29 09:55:53.875000,-63.27,106.15
136381,2018-06-29 09:55:53.906250,11.79,106.15
136382,2018-06-29 09:55:53.937500,104.4,106.15
136383,2018-06-29 09:55:53.968750,192.98,106.15
136384,2018-06-29 09:55:54.000000,243.0,106.15
136385,2018-06-29 09:55:54.031250,219.99,106.15
136386,2018-06-29 09:55:54.062500,137.53,106.15
136387,2018-06-29 09:55:54.093750,50.14,106.15
136388,2018-06-29 09:55:54.125000,-23.57,106.15
136389,2018-06-29 09:55:54.156250,-76.36,106.15
136390,2018-06-29 09:55:54.187500,-99.27,106.15
136391,2018-06-29 09:55:54.218750,-97.84,106.15
136392,2018-06-29 09:55:54.250000,-88.87,106.15
136393,2018-06-29 09:55:54.281250,-80.68,106.15
136394,2018-06-29 09:55:54.312500,-68.21,106.15
136395,2018-06-29 09:55:54.343750,-46.67,106.15
136396,2018-06-29 09:55:54.375000,-22.83,106.15
136397,2018-06-29 09:55:54.406250,-0.87,106.15
136398,2018-06-29 09:55:54.437500,23.53,106.15
136399,2018-06-29 09:55:54.468750,51.41,106.15
136400,2018-06-29 09:55:54.500000,68.48,106.15
136401,2018-06-29 09:55:54.531250,58.74,106.2
136402,2018-06-29 09:55:54.562500,26.69,106.2
136403,2018-06-29 09:55:54.593750,-7.03,106.2
136404,2018-06-29 09:55:54.625000,-24.22,106.2
136405,2018-06-29 09:55:54.656250,-21.24,106.2
136406,2018-06-29 09:55:54.687500,-5.62,106.2
136407,2018-06-29 09:55:54.718750,11.14,106.2
136408,2018-06-29 09:55:54.750000,20.65,106.2
136409,2018-06-29 09:55:54.781250,21.82,106.2
136410,2018-06-29 09:55:54.812500,19.92,106.2
136411,2018-06-29 09:55:54.843750,20.9,106.2
136412,2018-06-29 09:55:54.875000,23.08,106.2
136413,2018-06-29 09:55:54.906250,16.41,106.2
136414,2018-06-29 09:55:54.937500,-2.42,106.2
136415,2018-06-29 09:55:54.968750,-14.67,106.2
136416,2018-06-29 09:55:55.000000,5.84,106.2
136417,2018-06-29 09:55:55.031250,60.31,106.2
136418,2018-06-29 09:55:55.062500,122.79,106.2
136419,2018-06-29 09:55:55.093750,167.43,106.2
136420,2018-06-29 09:55:55.125000,178.55,106.2
136421,2018-06-29 09:55:55.156250,143.88,106.2
136422,2018-06-29 09:55:55.187500,64.68,106.2
136423,2018-06-29 09:55:55.218750,-32.53,106.2
136424,2018-06-29 09:55:55.250000,-111.49,106.2
136425,2018-06-29 09:55:55.281250,-151.71,106.2
136426,2018-06-29 09:55:55.312500,-155.21,106.2
136427,2018-06-29 09:55:55.343750,-136.06,106.2
136428,2018-06-29 09:55:55.375000,-107.79,106.2
136429,2018-06-29 09:55:55.406250,-78.39,106.2
136430,2018-06-29 09:55:55.437500,-51.89,106.2
136431,2018-06-29 09:55:55.468750,-29.3,106.2
136432,2018-06-29 09:55:55.500000,-8.67,106.2
136433,2018-06-29 09:55:55.531250,13.61,106.23
136434,2018-06-29 09:55:55.562500,40.79,106.23
136435,2018-06-29 09:55:55.593750,70.54,106.23
136436,2018-06-29 09:55:55.625000,91.21,106.23
136437,2018-06-29 09:55:55.656250,90.6,106.23
136438,2018-06-29 09:55:55.687500,67.35,106.23
136439,2018-06-29 09:55:55.718750,29.22,106.23
136440,2018-06-29 09:55:55.750000,-12.82,106.23
136441,2018-06-29 09:55:55.781250,-45.26,106.23
136442,2018-06-29 09:55:55.812500,-58.49,106.23
136443,2018-06-29 09:55:55.843750,-56.79,106.23
136444,2018-06-29 09:55:55.875000,-53.56,106.23
136445,2018-06-29 09:55:55.906250,-54.95,106.23
136446,2018-06-29 09:55:55.937500,-54.54,106.23
136447,2018-06-29 09:55:55.968750,-42.86,106.23
136448,2018-06-29 09:55:56.000000,-19.43,106.23
136449,2018-06-29 09:55:56.031250,4.2,106.23
136450,2018-06-29 09:55:56.062500,17.16,106.23
136451,2018-06-29 09:55:56.093750,25.87,106.23
136452,2018-06-29 09:55:56.125000,46.82,106.23
136453,2018-06-29 09:55:56.156250,80.4,106.23
136454,2018-06-29 09:55:56.187500,110.28,106.23
136455,2018-06-29 09:55:56.218750,129.39,106.23
136456,2018-06-29 09:55:56.250000,144.8,106.23
136457,2018-06-29 09:55:56.281250,156.15,106.23
136458,2018-06-29 09:55:56.312500,150.45,106.23
136459,2018-06-29 09:55:56.343750,121.27,106.23
136460,2018-06-29 09:55:56.375000,74.87,106.23
136461,2018-06-29 09:55:56.406250,18.63,106.23
136462,2018-06-29 09:55:56.437500,-43.41,106.23
136463,2018-06-29 09:55:56.468750,-100.34,106.23
136464,2018-06-29 09:55:56.500000,-134.76,106.23
136465,2018-06-29 09:55:56.531250,-140.99,106.27
136466,2018-06-29 09:55:56.562500,-132.64,106.27
136467,2018-06-29 09:55:56.593750,-126.12,106.27
136468,2018-06-29 09:55:56.625000,-117.36,106.27
136469,2018-06-29 09:55:56.656250,-87.92,106.27
136470,2018-06-29 09:55:56.687500,-33.42,106.27
136471,2018-06-29 09:55:56.718750,18.44,106.27
136472,2018-06-29 09:55:56.750000,29.25,106.27
136473,2018-06-29 09:55:56.781250,-13.9,106.27
136474,2018-06-29 09:55:56.812500,-86.71,106.27
136475,2018-06-29 09:55:56.843750,-133.41,106.27
136476,2018-06-29 09:55:56.875000,-124.74,106.27
136477,2018-06-29 09:55:56.906250,-86.62,106.27
136478,2018-06-29 09:55:56.937500,-47.52,106.27
136479,2018-06-29 09:55:56.968750,-11.36,106.27
136480,2018-06-29 09:55:57.000000,24.45,106.27
136481,2018-06-29 09:55:57.031250,56.84,106.27
136482,2018-06-29 09:55:57.062500,81.76,106.27
136483,2018-06-29 09:55:57.093750,97.25,106.27
136484,2018-06-29 09:55:57.125000,103.84,106.27
136485,2018-06-29 09:55:57.156250,95.25,106.27
136486,2018-06-29 09:55:57.187500,71.45,106.27
136487,2018-06-29 09:55:57.218750,40.66,106.27
136488,2018-06-29 09:55:57.250000,12.49,106.27
136489,2018-06-29 09:55:57.281250,-8.03,106.27
136490,2018-06-29 09:55:57.312500,-17.58,106.27
136491,2018-06-29 09:55:57.343750,-10.78,106.27
136492,2018-06-29 09:55:57.375000,16.56,106.27
136493,2018-06-29 09:55:57.406250,61.89,106.27
136494,2018-06-29 09:55:57.437500,105.84,106.27
136495,2018-06-29 09:55:57.468750,123.21,106.27
136496,2018-06-29 09:55:57.500000,99.12,106.27
136497,2018-06-29 09:55:57.531250,41.76,106.3
136498,2018-06-29 09:55:57.562500,-21.6,106.3
136499,2018-06-29 09:55:57.593750,-69.46,106.3
136500,2018-06-29 09:55:57.625000,-98.71,106.3
136501,2018-06-29 09:55:57.656250,-112.77,106.3
136502,2018-06-29 09:55:57.687500,-117.81,106.3
136503,2018-06-29 09:55:57.718750,-116.82,106.3
136504,2018-06-29 09:55:57.750000,-111.91,106.3
136505,2018-06-29 09:55:57.781250,-100.02,106.3
136506,2018-06-29 09:55:57.812500,-74.13,106.3
136507,2018-06-29 09:55:57.843750,-30.7,106.3
136508,2018-06-29 09:55:57.875000,23.9,106.3
136509,2018-06-29 09:55:57.906250,76.83,106.3
136510,2018-06-29 09:55:57.937500,117.1,106.3
136511,2018-06-29 09:55:57.968750,133.11,106.3
136512,2018-06-29 09:55:58.000000,119.13,106.3
136513,2018-06-29 09:55:58.031250,87.5,106.3
136514,2018-06-29 09:55:58.062500,58.1,106.3
136515,2018-06-29 09:55:58.093750,36.48,106.3
136516,2018-06-29 09:55:58.125000,14.03,106.3
136517,2018-06-29 09:55:58.156250,-14.72,106.3
136518,2018-06-29 09:55:58.187500,-46.54,106.3
136519,2018-06-29 09:55:58.218750,-76.07,106.3
136520,2018-06-29 09:55:58.250000,-98.64,106.3
136521,2018-06-29 09:55:58.281250,-111.49,106.3
136522,2018-06-29 09:55:58.312500,-119.19,106.3
136523,2018-06-29 09:55:58.343750,-124.4,106.3
136524,2018-06-29 09:55:58.375000,-113.87,106.3
136525,2018-06-29 09:55:58.406250,-69.76,106.3
136526,2018-06-29 09:55:58.437500,2.47,106.3
136527,2018-06-29 09:55:58.468750,73.69,106.3
136528,2018-06-29 09:55:58.500000,118.59,106.3
136529,2018-06-29 09:55:58.531250,130.94,106.3
136530,2018-06-29 09:55:58.562500,115.22,106.3
136531,2018-06-29 09:55:58.593750,76.82,106.3
136532,2018-06-29 09:55:58.625000,23.67,106.3
136533,2018-06-29 09:55:58.656250,-31.85,106.3
136534,2018-06-29 09:55:58.687500,-75.68,106.3
136535,2018-06-29 09:55:58.718750,-95.98,106.3
136536,2018-06-29 09:55:58.750000,-88.48,106.3
136537,2018-06-29 09:55:58.781250,-60.31,106.3
136538,2018-06-29 09:55:58.812500,-27.07,106.3
136539,2018-06-29 09:55:58.843750,-1.24,106.3
136540,2018-06-29 09:55:58.875000,14.26,106.3
136541,2018-06-29 09:55:58.906250,23.91,106.3
136542,2018-06-29 09:55:58.937500,33.33,106.3
136543,2018-06-29 09:55:58.968750,44.34,106.3
136544,2018-06-29 09:55:59.000000,53.39,106.3
136545,2018-06-29 09:55:59.031250,54.29,106.3
136546,2018-06-29 09:55:59.062500,45.87,106.3
136547,2018-06-29 09:55:59.093750,32.33,106.3
136548,2018-06-29 09:55:59.125000,19.68,106.3
136549,2018-06-29 09:55:59.156250,7.26,106.3
136550,2018-06-29 09:55:59.187500,-6.25,106.3
136551,2018-06-29 09:55:59.218750,-19.11,106.3
136552,2018-06-29 09:55:59.250000,-28.34,106.3
136553,2018-06-29 09:55:59.281250,-34.13,106.3
136554,2018-06-29 09:55:59.312500,-44.64,106.3
136555,2018-06-29 09:55:59.343750,-60.72,106.3
136556,2018-06-29 09:55:59.375000,-76.23,106.3
136557,2018-06-29 09:55:59.406250,-75.39,106.3
136558,2018-06-29 09:55:59.437500,-57.07,106.3
136559,2018-06-29 09:55:59.468750,-23.02,106.3
136560,2018-06-29 09:55:59.500000,33.82,106.3
136561,2018-06-29 09:55:59.531250,119.05,106.32
136562,2018-06-29 09:55:59.562500,220.18,106.32
136563,2018-06-29 09:55:59.593750,302.26,106.32
136564,2018-06-29 09:55:59.625000,347.12,106.32
136565,2018-06-29 09:55:59.656250,307.96,106.32
136566,2018-06-29 09:55:59.687500,173.46,106.32
136567,2018-06-29 09:55:59.718750,38.8,106.32
136568,2018-06-29 09:55:59.750000,-70.3,106.32
136569,2018-06-29 09:55:59.781250,-146.57,106.32
136570,2018-06-29 09:55:59.812500,-185.67,106.32
136571,2018-06-29 09:55:59.843750,-192.06,106.32
136572,2018-06-29 09:55:59.875000,-185.63,106.32
136573,2018-06-29 09:55:59.906250,-171.59,106.32
136574,2018-06-29 09:55:59.937500,-151.69,106.32
136575,2018-06-29 09:55:59.968750,-124.13,106.32
136576,2018-06-29 09:56:00.000000,-99.55,106.32
136577,2018-06-29 09:56:00.031250,-84.8,106.32
136578,2018-06-29 09:56:00.062500,-70.87,106.32
136579,2018-06-29 09:56:00.093750,-43.42,106.32
136580,2018-06-29 09:56:00.125000,0.14,106.32
136581,2018-06-29 09:56:00.156250,40.55,106.32
136582,2018-06-29 09:56:00.187500,64.99,106.32
136583,2018-06-29 09:56:00.218750,70.57,106.32
136584,2018-06-29 09:56:00.250000,64.11,106.32
136585,2018-06-29 09:56:00.281250,53.37,106.32
136586,2018-06-29 09:56:00.312500,47.82,106.32
136587,2018-06-29 09:56:00.343750,49.86,106.32
136588,2018-06-29 09:56:00.375000,50.57,106.32
136589,2018-06-29 09:56:00.406250,43.8,106.32
136590,2018-06-29 09:56:00.437500,33.3,106.32
136591,2018-06-29 09:56:00.468750,29.62,106.32
136592,2018-06-29 09:56:00.500000,31.14,106.32
136593,2018-06-29 09:56:00.531250,25.47,106.32
136594,2018-06-29 09:56:00.562500,-1.95,106.32
136595,2018-06-29 09:56:00.593750,-46.51,106.32
136596,2018-06-29 09:56:00.625000,-60.85,106.32
136597,2018-06-29 09:56:00.656250,-20.62,106.32
136598,2018-06-29 09:56:00.687500,50.01,106.32
136599,2018-06-29 09:56:00.718750,107.94,106.32
136600,2018-06-29 09:56:00.750000,131.11,106.32
136601,2018-06-29 09:56:00.781250,116.63,106.32
136602,2018-06-29 09:56:00.812500,76.49,106.32
136603,2018-06-29 09:56:00.843750,22.0,106.32
136604,2018-06-29 09:56:00.875000,-31.33,106.32
136605,2018-06-29 09:56:00.906250,-67.85,106.32
136606,2018-06-29 09:56:00.937500,-84.21,106.32
136607,2018-06-29 09:56:00.968750,-86.6,106.32
136608,2018-06-29 09:56:01.000000,-80.19,106.32
136609,2018-06-29 09:56:01.031250,-64.44,106.32
136610,2018-06-29 09:56:01.062500,-43.12,106.32
136611,2018-06-29 09:56:01.093750,-24.4,106.32
136612,2018-06-29 09:56:01.125000,-13.81,106.32
136613,2018-06-29 09:56:01.156250,-6.1,106.32
136614,2018-06-29 09:56:01.187500,2.91,106.32
136615,2018-06-29 09:56:01.218750,8.81,106.32
136616,2018-06-29 09:56:01.250000,7.81,106.32
136617,2018-06-29 09:56:01.281250,0.43,106.32
136618,2018-06-29 09:56:01.312500,-15.63,106.32
136619,2018-06-29 09:56:01.343750,-41.2,106.32
136620,2018-06-29 09:56:01.375000,-62.86,106.32
136621,2018-06-29 09:56:01.406250,-65.64,106.32
136622,2018-06-29 09:56:01.437500,-50.15,106.32
136623,2018-06-29 09:56:01.468750,-25.25,106.32
136624,2018-06-29 09:56:01.500000,2.6,106.32
136625,2018-06-29 09:56:01.531250,24.03,106.32
136626,2018-06-29 09:56:01.562500,29.88,106.32
136627,2018-06-29 09:56:01.593750,25.08,106.32
136628,2018-06-29 09:56:01.625000,23.11,106.32
136629,2018-06-29 09:56:01.656250,27.96,106.32
136630,2018-06-29 09:56:01.687500,33.01,106.32
136631,2018-06-29 09:56:01.718750,32.26,106.32
136632,2018-06-29 09:56:01.750000,24.94,106.32
136633,2018-06-29 09:56:01.781250,13.74,106.32
136634,2018-06-29 09:56:01.812500,2.4,106.32
136635,2018-06-29 09:56:01.843750,-6.25,106.32
136636,2018-06-29 09:56:01.875000,-11.26,106.32
136637,2018-06-29 09:56:01.906250,-13.96,106.32
136638,2018-06-29 09:56:01.937500,-17.89,106.32
136639,2018-06-29 09:56:01.968750,-24.92,106.32
136640,2018-06-29 09:56:02.000000,-32.27,106.32
136641,2018-06-29 09:56:02.031250,-36.16,106.32
136642,2018-06-29 09:56:02.062500,-36.05,106.32
136643,2018-06-29 09:56:02.093750,-33.94,106.32
136644,2018-06-29 09:56:02.125000,-30.24,106.32
136645,2018-06-29 09:56:02.156250,-20.8,106.32
136646,2018-06-29 09:56:02.187500,-0.49,106.32
136647,2018-06-29 09:56:02.218750,28.78,106.32
136648,2018-06-29 09:56:02.250000,57.34,106.32
136649,2018-06-29 09:56:02.281250,76.22,106.32
136650,2018-06-29 09:56:02.312500,82.27,106.32
136651,2018-06-29 09:56:02.343750,76.71,106.32
136652,2018-06-29 09:56:02.375000,64.29,106.32
136653,2018-06-29 09:56:02.406250,50.82,106.32
136654,2018-06-29 09:56:02.437500,37.73,106.32
136655,2018-06-29 09:56:02.468750,22.88,106.32
136656,2018-06-29 09:56:02.500000,7.39,106.32
136657,2018-06-29 09:56:02.531250,-3.73,106.33
136658,2018-06-29 09:56:02.562500,-7.47,106.33
136659,2018-06-29 09:56:02.593750,-5.95,106.33
136660,2018-06-29 09:56:02.625000,-4.51,106.33
136661,2018-06-29 09:56:02.656250,-8.58,106.33
136662,2018-06-29 09:56:02.687500,-21.0,106.33
136663,2018-06-29 09:56:02.718750,-39.04,106.33
136664,2018-06-29 09:56:02.750000,-54.79,106.33
136665,2018-06-29 09:56:02.781250,-62.92,106.33
136666,2018-06-29 09:56:02.812500,-63.38,106.33
136667,2018-06-29 09:56:02.843750,-53.28,106.33
136668,2018-06-29 09:56:02.875000,-25.67,106.33
136669,2018-06-29 09:56:02.906250,18.82,106.33
136670,2018-06-29 09:56:02.937500,66.53,106.33
136671,2018-06-29 09:56:02.968750,97.63,106.33
136672,2018-06-29 09:56:03.000000,97.29,106.33
136673,2018-06-29 09:56:03.031250,66.47,106.33
136674,2018-06-29 09:56:03.062500,21.92,106.33
136675,2018-06-29 09:56:03.093750,-18.43,106.33
136676,2018-06-29 09:56:03.125000,-45.44,106.33
136677,2018-06-29 09:56:03.156250,-56.74,106.33
136678,2018-06-29 09:56:03.187500,-55.34,106.33
136679,2018-06-29 09:56:03.218750,-48.55,106.33
136680,2018-06-29 09:56:03.250000,-41.99,106.33
136681,2018-06-29 09:56:03.281250,-36.48,106.33
136682,2018-06-29 09:56:03.312500,-31.37,106.33
136683,2018-06-29 09:56:03.343750,-26.68,106.33
136684,2018-06-29 09:56:03.375000,-22.35,106.33
136685,2018-06-29 09:56:03.406250,-18.98,106.33
136686,2018-06-29 09:56:03.437500,-18.26,106.33
136687,2018-06-29 09:56:03.468750,-21.39,106.33
136688,2018-06-29 09:56:03.500000,-28.68,106.33
136689,2018-06-29 09:56:03.531250,-37.19,106.35
136690,2018-06-29 09:56:03.562500,-38.34,106.35
136691,2018-06-29 09:56:03.593750,-24.4,106.35
136692,2018-06-29 09:56:03.625000,2.05,106.35
136693,2018-06-29 09:56:03.656250,30.35,106.35
136694,2018-06-29 09:56:03.687500,50.98,106.35
136695,2018-06-29 09:56:03.718750,59.32,106.35
136696,2018-06-29 09:56:03.750000,55.16,106.35
136697,2018-06-29 09:56:03.781250,42.7,106.35
136698,2018-06-29 09:56:03.812500,29.22,106.35
136699,2018-06-29 09:56:03.843750,19.5,106.35
136700,2018-06-29 09:56:03.875000,10.13,106.35
136701,2018-06-29 09:56:03.906250,-4.1,106.35
136702,2018-06-29 09:56:03.937500,-14.62,106.35
136703,2018-06-29 09:56:03.968750,-2.48,106.35
136704,2018-06-29 09:56:04.000000,36.43,106.35
136705,2018-06-29 09:56:04.031250,83.73,106.35
136706,2018-06-29 09:56:04.062500,117.99,106.35
136707,2018-06-29 09:56:04.093750,125.88,106.35
136708,2018-06-29 09:56:04.125000,97.82,106.35
136709,2018-06-29 09:56:04.156250,35.11,106.35
136710,2018-06-29 09:56:04.187500,-40.56,106.35
136711,2018-06-29 09:56:04.218750,-101.27,106.35
136712,2018-06-29 09:56:04.250000,-132.46,106.35
136713,2018-06-29 09:56:04.281250,-133.1,106.35
136714,2018-06-29 09:56:04.312500,-109.17,106.35
136715,2018-06-29 09:56:04.343750,-73.25,106.35
136716,2018-06-29 09:56:04.375000,-39.6,106.35
136717,2018-06-29 09:56:04.406250,-15.6,106.35
136718,2018-06-29 09:56:04.437500,-1.48,106.35
136719,2018-06-29 09:56:04.468750,5.02,106.35
136720,2018-06-29 09:56:04.500000,6.77,106.35
136721,2018-06-29 09:56:04.531250,6.12,106.37
136722,2018-06-29 09:56:04.562500,3.55,106.37
136723,2018-06-29 09:56:04.593750,-1.13,106.37
136724,2018-06-29 09:56:04.625000,-6.12,106.37
136725,2018-06-29 09:56:04.656250,-8.55,106.37
136726,2018-06-29 09:56:04.687500,-7.82,106.37
136727,2018-06-29 09:56:04.718750,-6.92,106.37
136728,2018-06-29 09:56:04.750000,-8.04,106.37
136729,2018-06-29 09:56:04.781250,-8.99,106.37
136730,2018-06-29 09:56:04.812500,-5.92,106.37
136731,2018-06-29 09:56:04.843750,0.23,106.37
136732,2018-06-29 09:56:04.875000,3.14,106.37
136733,2018-06-29 09:56:04.906250,0.29,106.37
136734,2018-06-29 09:56:04.937500,-3.7,106.37
136735,2018-06-29 09:56:04.968750,-4.18,106.37
136736,2018-06-29 09:56:05.000000,-5.0,106.37
136737,2018-06-29 09:56:05.031250,-14.33,106.37
136738,2018-06-29 09:56:05.062500,-35.17,106.37
136739,2018-06-29 09:56:05.093750,-55.92,106.37
136740,2018-06-29 09:56:05.125000,-50.67,106.37
136741,2018-06-29 09:56:05.156250,-10.72,106.37
136742,2018-06-29 09:56:05.187500,48.93,106.37
136743,2018-06-29 09:56:05.218750,100.45,106.37
136744,2018-06-29 09:56:05.250000,120.63,106.37
136745,2018-06-29 09:56:05.281250,105.87,106.37
136746,2018-06-29 09:56:05.312500,75.26,106.37
136747,2018-06-29 09:56:05.343750,51.56,106.37
136748,2018-06-29 09:56:05.375000,46.26,106.37
136749,2018-06-29 09:56:05.406250,56.5,106.37
136750,2018-06-29 09:56:05.437500,69.68,106.37
136751,2018-06-29 09:56:05.468750,74.82,106.37
136752,2018-06-29 09:56:05.500000,71.51,106.37
136753,2018-06-29 09:56:05.531250,66.29,106.42
136754,2018-06-29 09:56:05.562500,60.5,106.42
136755,2018-06-29 09:56:05.593750,49.96,106.42
136756,2018-06-29 09:56:05.625000,37.57,106.42
136757,2018-06-29 09:56:05.656250,35.07,106.42
136758,2018-06-29 09:56:05.687500,47.37,106.42
136759,2018-06-29 09:56:05.718750,61.62,106.42
136760,2018-06-29 09:56:05.750000,58.24,106.42
136761,2018-06-29 09:56:05.781250,31.78,106.42
136762,2018-06-29 09:56:05.812500,-4.85,106.42
136763,2018-06-29 09:56:05.843750,-38.1,106.42
136764,2018-06-29 09:56:05.875000,-67.35,106.42
136765,2018-06-29 09:56:05.906250,-97.1,106.42
136766,2018-06-29 09:56:05.937500,-125.54,106.42
136767,2018-06-29 09:56:05.968750,-145.71,106.42
136768,2018-06-29 09:56:06.000000,-151.67,106.42
136769,2018-06-29 09:56:06.031250,-142.63,106.42
136770,2018-06-29 09:56:06.062500,-124.0,106.42
136771,2018-06-29 09:56:06.093750,-101.49,106.42
136772,2018-06-29 09:56:06.125000,-73.19,106.42
136773,2018-06-29 09:56:06.156250,-33.0,106.42
136774,2018-06-29 09:56:06.187500,17.08,106.42
136775,2018-06-29 09:56:06.218750,63.11,106.42
136776,2018-06-29 09:56:06.250000,87.22,106.42
136777,2018-06-29 09:56:06.281250,78.18,106.42
136778,2018-06-29 09:56:06.312500,40.29,106.42
136779,2018-06-29 09:56:06.343750,-5.43,106.42
136780,2018-06-29 09:56:06.375000,-37.03,106.42
136781,2018-06-29 09:56:06.406250,-49.87,106.42
136782,2018-06-29 09:56:06.437500,-52.01,106.42
136783,2018-06-29 09:56:06.468750,-49.05,106.42
136784,2018-06-29 09:56:06.500000,-43.13,106.42
136785,2018-06-29 09:56:06.531250,-37.9,106.45
136786,2018-06-29 09:56:06.562500,-35.11,106.45
136787,2018-06-29 09:56:06.593750,-32.94,106.45
136788,2018-06-29 09:56:06.625000,-30.49,106.45
136789,2018-06-29 09:56:06.656250,-27.62,106.45
136790,2018-06-29 09:56:06.687500,-22.1,106.45
136791,2018-06-29 09:56:06.718750,-11.18,106.45
136792,2018-06-29 09:56:06.750000,5.03,106.45
136793,2018-06-29 09:56:06.781250,22.32,106.45
136794,2018-06-29 09:56:06.812500,33.09,106.45
136795,2018-06-29 09:56:06.843750,30.04,106.45
136796,2018-06-29 09:56:06.875000,11.51,106.45
136797,2018-06-29 09:56:06.906250,-17.93,106.45
136798,2018-06-29 09:56:06.937500,-51.91,106.45
136799,2018-06-29 09:56:06.968750,-83.42,106.45
136800,2018-06-29 09:56:07.000000,-100.98,106.45
136801,2018-06-29 09:56:07.031250,-92.39,106.45
136802,2018-06-29 09:56:07.062500,-58.46,106.45
136803,2018-06-29 09:56:07.093750,-16.62,106.45
136804,2018-06-29 09:56:07.125000,14.9,106.45
136805,2018-06-29 09:56:07.156250,30.99,106.45
136806,2018-06-29 09:56:07.187500,35.8,106.45
136807,2018-06-29 09:56:07.218750,34.59,106.45
136808,2018-06-29 09:56:07.250000,33.35,106.45
136809,2018-06-29 09:56:07.281250,36.81,106.45
136810,2018-06-29 09:56:07.312500,42.86,106.45
136811,2018-06-29 09:56:07.343750,46.63,106.45
136812,2018-06-29 09:56:07.375000,49.15,106.45
136813,2018-06-29 09:56:07.406250,51.51,106.45
136814,2018-06-29 09:56:07.437500,45.83,106.45
136815,2018-06-29 09:56:07.468750,24.58,106.45
136816,2018-06-29 09:56:07.500000,-7.45,106.45
136817,2018-06-29 09:56:07.531250,-39.19,106.48
136818,2018-06-29 09:56:07.562500,-64.67,106.48
136819,2018-06-29 09:56:07.593750,-83.49,106.48
136820,2018-06-29 09:56:07.625000,-96.78,106.48
136821,2018-06-29 09:56:07.656250,-104.37,106.48
136822,2018-06-29 09:56:07.687500,-101.02,106.48
136823,2018-06-29 09:56:07.718750,-78.31,106.48
136824,2018-06-29 09:56:07.750000,-36.41,106.48
136825,2018-06-29 09:56:07.781250,11.79,106.48
136826,2018-06-29 09:56:07.812500,54.42,106.48
136827,2018-06-29 09:56:07.843750,89.89,106.48
136828,2018-06-29 09:56:07.875000,117.26,106.48
136829,2018-06-29 09:56:07.906250,128.6,106.48
136830,2018-06-29 09:56:07.937500,117.94,106.48
136831,2018-06-29 09:56:07.968750,89.44,106.48
136832,2018-06-29 09:56:08.000000,52.67,106.48
136833,2018-06-29 09:56:08.031250,16.56,106.48
136834,2018-06-29 09:56:08.062500,-10.67,106.48
136835,2018-06-29 09:56:08.093750,-23.54,106.48
136836,2018-06-29 09:56:08.125000,-24.43,106.48
136837,2018-06-29 09:56:08.156250,-21.15,106.48
136838,2018-06-29 09:56:08.187500,-17.11,106.48
136839,2018-06-29 09:56:08.218750,-9.15,106.48
136840,2018-06-29 09:56:08.250000,3.61,106.48
136841,2018-06-29 09:56:08.281250,14.63,106.48
136842,2018-06-29 09:56:08.312500,16.52,106.48
136843,2018-06-29 09:56:08.343750,9.17,106.48
136844,2018-06-29 09:56:08.375000,0.81,106.48
136845,2018-06-29 09:56:08.406250,1.31,106.48
136846,2018-06-29 09:56:08.437500,11.75,106.48
136847,2018-06-29 09:56:08.468750,25.6,106.48
136848,2018-06-29 09:56:08.500000,43.46,106.48
136849,2018-06-29 09:56:08.531250,76.89,106.5
136850,2018-06-29 09:56:08.562500,128.71,106.5
136851,2018-06-29 09:56:08.593750,177.3,106.5
136852,2018-06-29 09:56:08.625000,190.6,106.5
136853,2018-06-29 09:56:08.656250,153.01,106.5
136854,2018-06-29 09:56:08.687500,76.32,106.5
136855,2018-06-29 09:56:08.718750,-10.57,106.5
136856,2018-06-29 09:56:08.750000,-80.22,106.5
136857,2018-06-29 09:56:08.781250,-119.88,106.5
136858,2018-06-29 09:56:08.812500,-134.09,106.5
136859,2018-06-29 09:56:08.843750,-135.33,106.5
136860,2018-06-29 09:56:08.875000,-131.02,106.5
136861,2018-06-29 09:56:08.906250,-120.18,106.5
136862,2018-06-29 09:56:08.937500,-101.63,106.5
136863,2018-06-29 09:56:08.968750,-80.98,106.5
136864,2018-06-29 09:56:09.000000,-66.57,106.5
136865,2018-06-29 09:56:09.031250,-59.66,106.5
136866,2018-06-29 09:56:09.062500,-51.36,106.5
136867,2018-06-29 09:56:09.093750,-32.75,106.5
136868,2018-06-29 09:56:09.125000,-7.63,106.5
136869,2018-06-29 09:56:09.156250,11.67,106.5
136870,2018-06-29 09:56:09.187500,20.09,106.5
136871,2018-06-29 09:56:09.218750,22.72,106.5
136872,2018-06-29 09:56:09.250000,23.7,106.5
136873,2018-06-29 09:56:09.281250,22.86,106.5
136874,2018-06-29 09:56:09.312500,22.54,106.5
136875,2018-06-29 09:56:09.343750,27.31,106.5
136876,2018-06-29 09:56:09.375000,36.23,106.5
136877,2018-06-29 09:56:09.406250,43.29,106.5
136878,2018-06-29 09:56:09.437500,44.63,106.5
136879,2018-06-29 09:56:09.468750,41.72,106.5
136880,2018-06-29 09:56:09.500000,39.52,106.5
136881,2018-06-29 09:56:09.531250,40.99,106.52
136882,2018-06-29 09:56:09.562500,39.46,106.52
136883,2018-06-29 09:56:09.593750,23.56,106.52
136884,2018-06-29 09:56:09.625000,-2.98,106.52
136885,2018-06-29 09:56:09.656250,-18.65,106.52
136886,2018-06-29 09:56:09.687500,-4.75,106.52
136887,2018-06-29 09:56:09.718750,38.99,106.52
136888,2018-06-29 09:56:09.750000,92.89,106.52
136889,2018-06-29 09:56:09.781250,125.67,106.52
136890,2018-06-29 09:56:09.812500,115.79,106.52
136891,2018-06-29 09:56:09.843750,69.59,106.52
136892,2018-06-29 09:56:09.875000,12.0,106.52
136893,2018-06-29 09:56:09.906250,-35.83,106.52
136894,2018-06-29 09:56:09.937500,-64.84,106.52
136895,2018-06-29 09:56:09.968750,-75.88,106.52
136896,2018-06-29 09:56:10.000000,-75.66,106.52
136897,2018-06-29 09:56:10.031250,-71.6,106.52
136898,2018-06-29 09:56:10.062500,-67.39,106.52
136899,2018-06-29 09:56:10.093750,-62.34,106.52
136900,2018-06-29 09:56:10.125000,-53.6,106.52
136901,2018-06-29 09:56:10.156250,-39.75,106.52
136902,2018-06-29 09:56:10.187500,-23.2,106.52
136903,2018-06-29 09:56:10.218750,-9.37,106.52
136904,2018-06-29 09:56:10.250000,-3.15,106.52
136905,2018-06-29 09:56:10.281250,-5.07,106.52
136906,2018-06-29 09:56:10.312500,-11.19,106.52
136907,2018-06-29 09:56:10.343750,-18.25,106.52
136908,2018-06-29 09:56:10.375000,-27.04,106.52
136909,2018-06-29 09:56:10.406250,-39.13,106.52
136910,2018-06-29 09:56:10.437500,-51.58,106.52
136911,2018-06-29 09:56:10.468750,-55.81,106.52
136912,2018-06-29 09:56:10.500000,-43.87,106.52
136913,2018-06-29 09:56:10.531250,-17.12,106.52
136914,2018-06-29 09:56:10.562500,14.51,106.52
136915,2018-06-29 09:56:10.593750,42.66,106.52
136916,2018-06-29 09:56:10.625000,64.84,106.52
136917,2018-06-29 09:56:10.656250,80.71,106.52
136918,2018-06-29 09:56:10.687500,91.14,106.52
136919,2018-06-29 09:56:10.718750,98.65,106.52
136920,2018-06-29 09:56:10.750000,103.29,106.52
136921,2018-06-29 09:56:10.781250,101.09,106.52
136922,2018-06-29 09:56:10.812500,90.44,106.52
136923,2018-06-29 09:56:10.843750,76.03,106.52
136924,2018-06-29 09:56:10.875000,63.23,106.52
136925,2018-06-29 09:56:10.906250,51.36,106.52
136926,2018-06-29 09:56:10.937500,36.2,106.52
136927,2018-06-29 09:56:10.968750,18.77,106.52
136928,2018-06-29 09:56:11.000000,8.19,106.52
136929,2018-06-29 09:56:11.031250,12.22,106.52
136930,2018-06-29 09:56:11.062500,24.82,106.52
136931,2018-06-29 09:56:11.093750,27.15,106.52
136932,2018-06-29 09:56:11.125000,4.65,106.52
136933,2018-06-29 09:56:11.156250,-37.93,106.52
136934,2018-06-29 09:56:11.187500,-80.31,106.52
