,Time,ppg,hr
140800,2018-06-29 09:58:12.000000,9.35,90.03
140801,2018-06-29 09:58:12.031250,6.01,90.03
140802,2018-06-29 09:58:12.062500,11.8,90.03
140803,2018-06-29 09:58:12.093750,24.91,90.03
140804,2018-06-29 09:58:12.125000,37.94,90.03
140805,2018-06-29 09:58:12.156250,45.11,90.03
140806,2018-06-29 09:58:12.187500,47.28,90.03
140807,2018-06-29 09:58:12.218750,49.45,90.03
140808,2018-06-29 09:58:12.250000,55.01,90.03
140809,2018-06-29 09:58:12.281250,59.59,90.03
140810,2018-06-29 09:58:12.312500,52.82,90.03
140811,2018-06-29 09:58:12.343750,33.22,90.03
140812,2018-06-29 09:58:12.375000,14.64,90.03
140813,2018-06-29 09:58:12.406250,8.44,90.03
140814,2018-06-29 09:58:12.437500,9.98,90.03
140815,2018-06-29 09:58:12.468750,8.75,90.03
140816,2018-06-29 09:58:12.500000,-1.01,90.03
140817,2018-06-29 09:58:12.531250,-21.15,90.35
140818,2018-06-29 09:58:12.562500,-47.64,90.35
140819,2018-06-29 09:58:12.593750,-68.73,90.35
140820,2018-06-29 09:58:12.625000,-74.12,90.35
140821,2018-06-29 09:58:12.656250,-64.91,90.35
140822,2018-06-29 09:58:12.687500,-50.85,90.35
140823,2018-06-29 09:58:12.718750,-39.19,90.35
140824,2018-06-29 09:58:12.750000,-29.51,90.35
140825,2018-06-29 09:58:12.781250,-19.47,90.35
140826,2018-06-29 09:58:12.812500,-10.08,90.35
140827,2018-06-29 09:58:12.843750,-2.57,90.35
140828,2018-06-29 09:58:12.875000,4.14,90.35
140829,2018-06-29 09:58:12.906250,10.23,90.35
140830,2018-06-29 09:58:12.937500,14.0,90.35
140831,2018-06-29 09:58:12.968750,14.87,90.35
140832,2018-06-29 09:58:13.000000,13.68,90.35
140833,2018-06-29 09:58:13.031250,11.07,90.35
140834,2018-06-29 09:58:13.062500,6.79,90.35
140835,2018-06-29 09:58:13.093750,-0.6,90.35
140836,2018-06-29 09:58:13.125000,-10.51,90.35
140837,2018-06-29 09:58:13.156250,-16.45,90.35
140838,2018-06-29 09:58:13.187500,-12.18,90.35
140839,2018-06-29 09:58:13.218750,-1.99,90.35
140840,2018-06-29 09:58:13.250000,4.54,90.35
140841,2018-06-29 09:58:13.281250,6.74,90.35
140842,2018-06-29 09:58:13.312500,13.08,90.35
140843,2018-06-29 09:58:13.343750,28.74,90.35
140844,2018-06-29 09:58:13.375000,46.15,90.35
140845,2018-06-29 09:58:13.406250,45.22,90.35
140846,2018-06-29 09:58:13.437500,13.44,90.35
140847,2018-06-29 09:58:13.468750,-25.33,90.35
140848,2018-06-29 09:58:13.500000,-24.34,90.35
140849,2018-06-29 09:58:13.531250,32.47,90.63
140850,2018-06-29 09:58:13.562500,110.29,90.63
140851,2018-06-29 09:58:13.593750,160.53,90.63
140852,2018-06-29 09:58:13.625000,159.27,90.63
140853,2018-06-29 09:58:13.656250,111.0,90.63
140854,2018-06-29 09:58:13.687500,37.06,90.63
140855,2018-06-29 09:58:13.718750,-34.59,90.63
140856,2018-06-29 09:58:13.750000,-81.94,90.63
140857,2018-06-29 09:58:13.781250,-101.53,90.63
140858,2018-06-29 09:58:13.812500,-105.94,90.63
140859,2018-06-29 09:58:13.843750,-105.67,90.63
140860,2018-06-29 09:58:13.875000,-100.45,90.63
140861,2018-06-29 09:58:13.906250,-89.2,90.63
140862,2018-06-29 09:58:13.937500,-77.17,90.63
140863,2018-06-29 09:58:13.968750,-69.42,90.63
140864,2018-06-29 09:58:14.000000,-65.12,90.63
140865,2018-06-29 09:58:14.031250,-59.64,90.63
140866,2018-06-29 09:58:14.062500,-46.78,90.63
140867,2018-06-29 09:58:14.093750,-23.3,90.63
140868,2018-06-29 09:58:14.125000,3.51,90.63
140869,2018-06-29 09:58:14.156250,19.84,90.63
140870,2018-06-29 09:58:14.187500,20.69,90.63
140871,2018-06-29 09:58:14.218750,13.99,90.63
140872,2018-06-29 09:58:14.250000,8.93,90.63
140873,2018-06-29 09:58:14.281250,8.21,90.63
140874,2018-06-29 09:58:14.312500,12.42,90.63
140875,2018-06-29 09:58:14.343750,23.33,90.63
140876,2018-06-29 09:58:14.375000,39.75,90.63
140877,2018-06-29 09:58:14.406250,55.13,90.63
140878,2018-06-29 09:58:14.437500,64.08,90.63
140879,2018-06-29 09:58:14.468750,67.88,90.63
140880,2018-06-29 09:58:14.500000,70.97,90.63
140881,2018-06-29 09:58:14.531250,76.79,90.93
140882,2018-06-29 09:58:14.562500,86.01,90.93
140883,2018-06-29 09:58:14.593750,91.09,90.93
140884,2018-06-29 09:58:14.625000,78.26,90.93
140885,2018-06-29 09:58:14.656250,45.71,90.93
140886,2018-06-29 09:58:14.687500,11.0,90.93
140887,2018-06-29 09:58:14.718750,-11.34,90.93
140888,2018-06-29 09:58:14.750000,-28.16,90.93
140889,2018-06-29 09:58:14.781250,-52.13,90.93
140890,2018-06-29 09:58:14.812500,-80.46,90.93
140891,2018-06-29 09:58:14.843750,-100.34,90.93
140892,2018-06-29 09:58:14.875000,-106.33,90.93
140893,2018-06-29 09:58:14.906250,-102.12,90.93
140894,2018-06-29 09:58:14.937500,-91.79,90.93
140895,2018-06-29 09:58:14.968750,-77.29,90.93
140896,2018-06-29 09:58:15.000000,-60.75,90.93
140897,2018-06-29 09:58:15.031250,-43.2,90.93
140898,2018-06-29 09:58:15.062500,-24.82,90.93
140899,2018-06-29 09:58:15.093750,-8.24,90.93
140900,2018-06-29 09:58:15.125000,4.1,90.93
140901,2018-06-29 09:58:15.156250,15.27,90.93
140902,2018-06-29 09:58:15.187500,28.82,90.93
140903,2018-06-29 09:58:15.218750,40.45,90.93
140904,2018-06-29 09:58:15.250000,43.44,90.93
140905,2018-06-29 09:58:15.281250,38.02,90.93
140906,2018-06-29 09:58:15.312500,27.99,90.93
140907,2018-06-29 09:58:15.343750,14.91,90.93
140908,2018-06-29 09:58:15.375000,1.8,90.93
140909,2018-06-29 09:58:15.406250,-4.76,90.93
140910,2018-06-29 09:58:15.437500,-1.57,90.93
140911,2018-06-29 09:58:15.468750,6.45,90.93
140912,2018-06-29 09:58:15.500000,10.49,90.93
140913,2018-06-29 09:58:15.531250,5.88,91.27
140914,2018-06-29 09:58:15.562500,-2.06,91.27
140915,2018-06-29 09:58:15.593750,-1.53,91.27
140916,2018-06-29 09:58:15.625000,13.22,91.27
140917,2018-06-29 09:58:15.656250,33.22,91.27
140918,2018-06-29 09:58:15.687500,43.1,91.27
140919,2018-06-29 09:58:15.718750,39.29,91.27
140920,2018-06-29 09:58:15.750000,35.76,91.27
140921,2018-06-29 09:58:15.781250,47.41,91.27
140922,2018-06-29 09:58:15.812500,71.47,91.27
140923,2018-06-29 09:58:15.843750,89.67,91.27
140924,2018-06-29 09:58:15.875000,85.11,91.27
140925,2018-06-29 09:58:15.906250,53.94,91.27
140926,2018-06-29 09:58:15.937500,6.17,91.27
140927,2018-06-29 09:58:15.968750,-40.52,91.27
140928,2018-06-29 09:58:16.000000,-70.94,91.27
140929,2018-06-29 09:58:16.031250,-81.32,91.27
140930,2018-06-29 09:58:16.062500,-79.82,91.27
140931,2018-06-29 09:58:16.093750,-76.93,91.27
140932,2018-06-29 09:58:16.125000,-74.17,91.27
140933,2018-06-29 09:58:16.156250,-66.34,91.27
140934,2018-06-29 09:58:16.187500,-52.68,91.27
140935,2018-06-29 09:58:16.218750,-39.12,91.27
140936,2018-06-29 09:58:16.250000,-31.21,91.27
140937,2018-06-29 09:58:16.281250,-28.63,91.27
140938,2018-06-29 09:58:16.312500,-24.01,91.27
140939,2018-06-29 09:58:16.343750,-8.96,91.27
140940,2018-06-29 09:58:16.375000,14.12,91.27
140941,2018-06-29 09:58:16.406250,33.21,91.27
140942,2018-06-29 09:58:16.437500,41.55,91.27
140943,2018-06-29 09:58:16.468750,41.43,91.27
140944,2018-06-29 09:58:16.500000,35.01,91.27
140945,2018-06-29 09:58:16.531250,24.22,91.62
140946,2018-06-29 09:58:16.562500,17.24,91.62
140947,2018-06-29 09:58:16.593750,21.52,91.62
140948,2018-06-29 09:58:16.625000,32.83,91.62
140949,2018-06-29 09:58:16.656250,39.89,91.62
140950,2018-06-29 09:58:16.687500,38.68,91.62
140951,2018-06-29 09:58:16.718750,36.15,91.62
140952,2018-06-29 09:58:16.750000,41.26,91.62
140953,2018-06-29 09:58:16.781250,53.83,91.62
140954,2018-06-29 09:58:16.812500,57.89,91.62
140955,2018-06-29 09:58:16.843750,37.42,91.62
140956,2018-06-29 09:58:16.875000,5.87,91.62
140957,2018-06-29 09:58:16.906250,-1.35,91.62
140958,2018-06-29 09:58:16.937500,27.9,91.62
140959,2018-06-29 09:58:16.968750,67.87,91.62
140960,2018-06-29 09:58:17.000000,85.98,91.62
140961,2018-06-29 09:58:17.031250,66.0,91.62
140962,2018-06-29 09:58:17.062500,11.27,91.62
140963,2018-06-29 09:58:17.093750,-53.96,91.62
140964,2018-06-29 09:58:17.125000,-98.17,91.62
140965,2018-06-29 09:58:17.156250,-109.17,91.62
140966,2018-06-29 09:58:17.187500,-99.64,91.62
140967,2018-06-29 09:58:17.218750,-86.76,91.62
140968,2018-06-29 09:58:17.250000,-75.73,91.62
140969,2018-06-29 09:58:17.281250,-62.68,91.62
140970,2018-06-29 09:58:17.312500,-45.65,91.62
140971,2018-06-29 09:58:17.343750,-29.23,91.62
140972,2018-06-29 09:58:17.375000,-18.77,91.62
140973,2018-06-29 09:58:17.406250,-12.65,91.62
140974,2018-06-29 09:58:17.437500,-2.17,91.62
140975,2018-06-29 09:58:17.468750,16.92,91.62
140976,2018-06-29 09:58:17.500000,34.86,91.62
140977,2018-06-29 09:58:17.531250,37.21,91.98
140978,2018-06-29 09:58:17.562500,21.78,91.98
140979,2018-06-29 09:58:17.593750,-1.71,91.98
140980,2018-06-29 09:58:17.625000,-23.46,91.98
140981,2018-06-29 09:58:17.656250,-37.71,91.98
140982,2018-06-29 09:58:17.687500,-42.03,91.98
140983,2018-06-29 09:58:17.718750,-39.0,91.98
140984,2018-06-29 09:58:17.750000,-33.25,91.98
140985,2018-06-29 09:58:17.781250,-24.57,91.98
140986,2018-06-29 09:58:17.812500,-8.6,91.98
140987,2018-06-29 09:58:17.843750,14.79,91.98
140988,2018-06-29 09:58:17.875000,39.16,91.98
140989,2018-06-29 09:58:17.906250,58.23,91.98
140990,2018-06-29 09:58:17.937500,71.53,91.98
140991,2018-06-29 09:58:17.968750,80.91,91.98
140992,2018-06-29 09:58:18.000000,82.9,91.98
140993,2018-06-29 09:58:18.031250,73.33,91.98
140994,2018-06-29 09:58:18.062500,61.19,91.98
140995,2018-06-29 09:58:18.093750,64.19,91.98
140996,2018-06-29 09:58:18.125000,85.47,91.98
140997,2018-06-29 09:58:18.156250,107.78,91.98
140998,2018-06-29 09:58:18.187500,111.6,91.98
140999,2018-06-29 09:58:18.218750,87.84,91.98
141000,2018-06-29 09:58:18.250000,38.14,91.98
141001,2018-06-29 09:58:18.281250,-25.71,91.98
141002,2018-06-29 09:58:18.312500,-86.24,91.98
141003,2018-06-29 09:58:18.343750,-130.43,91.98
141004,2018-06-29 09:58:18.375000,-154.12,91.98
141005,2018-06-29 09:58:18.406250,-157.72,91.98
141006,2018-06-29 09:58:18.437500,-145.01,91.98
141007,2018-06-29 09:58:18.468750,-125.31,91.98
141008,2018-06-29 09:58:18.500000,-105.92,91.98
141009,2018-06-29 09:58:18.531250,-79.71,92.35
141010,2018-06-29 09:58:18.562500,-34.36,92.35
141011,2018-06-29 09:58:18.593750,21.96,92.35
141012,2018-06-29 09:58:18.625000,60.86,92.35
141013,2018-06-29 09:58:18.656250,64.59,92.35
141014,2018-06-29 09:58:18.687500,41.02,92.35
141015,2018-06-29 09:58:18.718750,7.69,92.35
141016,2018-06-29 09:58:18.750000,-22.23,92.35
141017,2018-06-29 09:58:18.781250,-39.03,92.35
141018,2018-06-29 09:58:18.812500,-38.12,92.35
141019,2018-06-29 09:58:18.843750,-24.72,92.35
141020,2018-06-29 09:58:18.875000,-7.87,92.35
141021,2018-06-29 09:58:18.906250,9.19,92.35
141022,2018-06-29 09:58:18.937500,26.74,92.35
141023,2018-06-29 09:58:18.968750,40.96,92.35
141024,2018-06-29 09:58:19.000000,46.64,92.35
141025,2018-06-29 09:58:19.031250,44.83,92.35
141026,2018-06-29 09:58:19.062500,41.24,92.35
141027,2018-06-29 09:58:19.093750,38.0,92.35
141028,2018-06-29 09:58:19.125000,29.67,92.35
141029,2018-06-29 09:58:19.156250,9.45,92.35
141030,2018-06-29 09:58:19.187500,-18.77,92.35
141031,2018-06-29 09:58:19.218750,-38.37,92.35
141032,2018-06-29 09:58:19.250000,-36.02,92.35
141033,2018-06-29 09:58:19.281250,-16.77,92.35
141034,2018-06-29 09:58:19.312500,1.69,92.35
141035,2018-06-29 09:58:19.343750,7.08,92.35
141036,2018-06-29 09:58:19.375000,0.89,92.35
141037,2018-06-29 09:58:19.406250,-8.17,92.35
141038,2018-06-29 09:58:19.437500,-13.08,92.35
141039,2018-06-29 09:58:19.468750,-11.47,92.35
141040,2018-06-29 09:58:19.500000,-5.07,92.35
141041,2018-06-29 09:58:19.531250,-0.84,92.72
141042,2018-06-29 09:58:19.562500,-6.25,92.72
141043,2018-06-29 09:58:19.593750,-18.06,92.72
141044,2018-06-29 09:58:19.625000,-22.52,92.72
141045,2018-06-29 09:58:19.656250,-12.33,92.72
141046,2018-06-29 09:58:19.687500,5.17,92.72
141047,2018-06-29 09:58:19.718750,19.86,92.72
141048,2018-06-29 09:58:19.750000,25.7,92.72
141049,2018-06-29 09:58:19.781250,18.84,92.72
141050,2018-06-29 09:58:19.812500,-1.0,92.72
141051,2018-06-29 09:58:19.843750,-27.2,92.72
141052,2018-06-29 09:58:19.875000,-53.23,92.72
141053,2018-06-29 09:58:19.906250,-75.97,92.72
141054,2018-06-29 09:58:19.937500,-82.58,92.72
141055,2018-06-29 09:58:19.968750,-63.9,92.72
141056,2018-06-29 09:58:20.000000,-26.83,92.72
141057,2018-06-29 09:58:20.031250,16.11,92.72
141058,2018-06-29 09:58:20.062500,52.19,92.72
141059,2018-06-29 09:58:20.093750,71.41,92.72
141060,2018-06-29 09:58:20.125000,77.02,92.72
141061,2018-06-29 09:58:20.156250,81.14,92.72
141062,2018-06-29 09:58:20.187500,88.22,92.72
141063,2018-06-29 09:58:20.218750,97.35,92.72
141064,2018-06-29 09:58:20.250000,106.25,92.72
141065,2018-06-29 09:58:20.281250,110.87,92.72
141066,2018-06-29 09:58:20.312500,102.48,92.72
141067,2018-06-29 09:58:20.343750,76.15,92.72
141068,2018-06-29 09:58:20.375000,35.27,92.72
141069,2018-06-29 09:58:20.406250,-7.38,92.72
141070,2018-06-29 09:58:20.437500,-46.24,92.72
141071,2018-06-29 09:58:20.468750,-79.44,92.72
141072,2018-06-29 09:58:20.500000,-104.36,92.72
141073,2018-06-29 09:58:20.531250,-116.32,93.05
141074,2018-06-29 09:58:20.562500,-115.81,93.05
141075,2018-06-29 09:58:20.593750,-103.92,93.05
141076,2018-06-29 09:58:20.625000,-82.98,93.05
141077,2018-06-29 09:58:20.656250,-57.89,93.05
141078,2018-06-29 09:58:20.687500,-34.06,93.05
141079,2018-06-29 09:58:20.718750,-13.48,93.05
141080,2018-06-29 09:58:20.750000,6.51,93.05
141081,2018-06-29 09:58:20.781250,23.9,93.05
141082,2018-06-29 09:58:20.812500,36.11,93.05
141083,2018-06-29 09:58:20.843750,42.9,93.05
141084,2018-06-29 09:58:20.875000,46.93,93.05
141085,2018-06-29 09:58:20.906250,48.64,93.05
141086,2018-06-29 09:58:20.937500,45.53,93.05
141087,2018-06-29 09:58:20.968750,35.69,93.05
141088,2018-06-29 09:58:21.000000,21.56,93.05
141089,2018-06-29 09:58:21.031250,7.67,93.05
141090,2018-06-29 09:58:21.062500,-2.42,93.05
141091,2018-06-29 09:58:21.093750,-7.77,93.05
141092,2018-06-29 09:58:21.125000,-10.54,93.05
141093,2018-06-29 09:58:21.156250,-13.97,93.05
141094,2018-06-29 09:58:21.187500,-20.07,93.05
141095,2018-06-29 09:58:21.218750,-28.04,93.05
141096,2018-06-29 09:58:21.250000,-34.67,93.05
141097,2018-06-29 09:58:21.281250,-35.12,93.05
141098,2018-06-29 09:58:21.312500,-25.03,93.05
141099,2018-06-29 09:58:21.343750,-3.46,93.05
141100,2018-06-29 09:58:21.375000,24.98,93.05
141101,2018-06-29 09:58:21.406250,50.2,93.05
141102,2018-06-29 09:58:21.437500,60.39,93.05
141103,2018-06-29 09:58:21.468750,49.09,93.05
141104,2018-06-29 09:58:21.500000,20.91,93.05
141105,2018-06-29 09:58:21.531250,-12.25,93.33
141106,2018-06-29 09:58:21.562500,-41.24,93.33
141107,2018-06-29 09:58:21.593750,-62.74,93.33
141108,2018-06-29 09:58:21.625000,-74.5,93.33
141109,2018-06-29 09:58:21.656250,-75.24,93.33
141110,2018-06-29 09:58:21.687500,-69.01,93.33
141111,2018-06-29 09:58:21.718750,-62.98,93.33
141112,2018-06-29 09:58:21.750000,-59.09,93.33
141113,2018-06-29 09:58:21.781250,-52.68,93.33
141114,2018-06-29 09:58:21.812500,-39.51,93.33
141115,2018-06-29 09:58:21.843750,-20.64,93.33
141116,2018-06-29 09:58:21.875000,0.04,93.33
141117,2018-06-29 09:58:21.906250,21.51,93.33
141118,2018-06-29 09:58:21.937500,45.93,93.33
141119,2018-06-29 09:58:21.968750,69.68,93.33
141120,2018-06-29 09:58:22.000000,79.15,93.33
141121,2018-06-29 09:58:22.031250,64.36,93.33
141122,2018-06-29 09:58:22.062500,32.95,93.33
141123,2018-06-29 09:58:22.093750,1.49,93.33
141124,2018-06-29 09:58:22.125000,-21.33,93.33
141125,2018-06-29 09:58:22.156250,-35.59,93.33
141126,2018-06-29 09:58:22.187500,-41.88,93.33
141127,2018-06-29 09:58:22.218750,-39.31,93.33
141128,2018-06-29 09:58:22.250000,-28.81,93.33
141129,2018-06-29 09:58:22.281250,-15.44,93.33
141130,2018-06-29 09:58:22.312500,-6.43,93.33
141131,2018-06-29 09:58:22.343750,-4.82,93.33
141132,2018-06-29 09:58:22.375000,-6.81,93.33
141133,2018-06-29 09:58:22.406250,-6.88,93.33
141134,2018-06-29 09:58:22.437500,-1.68,93.33
141135,2018-06-29 09:58:22.468750,10.37,93.33
141136,2018-06-29 09:58:22.500000,27.94,93.33
141137,2018-06-29 09:58:22.531250,48.57,93.6
141138,2018-06-29 09:58:22.562500,73.57,93.6
141139,2018-06-29 09:58:22.593750,101.88,93.6
141140,2018-06-29 09:58:22.625000,118.05,93.6
141141,2018-06-29 09:58:22.656250,101.3,93.6
141142,2018-06-29 09:58:22.687500,49.59,93.6
141143,2018-06-29 09:58:22.718750,-17.22,93.6
141144,2018-06-29 09:58:22.750000,-76.23,93.6
141145,2018-06-29 09:58:22.781250,-113.65,93.6
141146,2018-06-29 09:58:22.812500,-124.04,93.6
141147,2018-06-29 09:58:22.843750,-110.43,93.6
141148,2018-06-29 09:58:22.875000,-83.43,93.6
141149,2018-06-29 09:58:22.906250,-52.86,93.6
141150,2018-06-29 09:58:22.937500,-21.45,93.6
141151,2018-06-29 09:58:22.968750,11.31,93.6
141152,2018-06-29 09:58:23.000000,44.5,93.6
141153,2018-06-29 09:58:23.031250,78.03,93.6
141154,2018-06-29 09:58:23.062500,112.45,93.6
141155,2018-06-29 09:58:23.093750,140.3,93.6
141156,2018-06-29 09:58:23.125000,145.22,93.6
141157,2018-06-29 09:58:23.156250,117.94,93.6
141158,2018-06-29 09:58:23.187500,68.18,93.6
141159,2018-06-29 09:58:23.218750,15.04,93.6
141160,2018-06-29 09:58:23.250000,-27.52,93.6
141161,2018-06-29 09:58:23.281250,-53.77,93.6
141162,2018-06-29 09:58:23.312500,-64.55,93.6
141163,2018-06-29 09:58:23.343750,-66.43,93.6
141164,2018-06-29 09:58:23.375000,-66.9,93.6
141165,2018-06-29 09:58:23.406250,-68.81,93.6
141166,2018-06-29 09:58:23.437500,-70.41,93.6
141167,2018-06-29 09:58:23.468750,-69.47,93.6
141168,2018-06-29 09:58:23.500000,-64.8,93.6
141169,2018-06-29 09:58:23.531250,-54.44,93.93
141170,2018-06-29 09:58:23.562500,-35.89,93.93
141171,2018-06-29 09:58:23.593750,-9.68,93.93
141172,2018-06-29 09:58:23.625000,18.59,93.93
141173,2018-06-29 09:58:23.656250,41.78,93.93
141174,2018-06-29 09:58:23.687500,55.75,93.93
141175,2018-06-29 09:58:23.718750,58.59,93.93
141176,2018-06-29 09:58:23.750000,48.44,93.93
141177,2018-06-29 09:58:23.781250,27.47,93.93
141178,2018-06-29 09:58:23.812500,3.85,93.93
141179,2018-06-29 09:58:23.843750,-14.33,93.93
141180,2018-06-29 09:58:23.875000,-25.48,93.93
141181,2018-06-29 09:58:23.906250,-31.51,93.93
141182,2018-06-29 09:58:23.937500,-33.36,93.93
141183,2018-06-29 09:58:23.968750,-31.98,93.93
141184,2018-06-29 09:58:24.000000,-29.26,93.93
141185,2018-06-29 09:58:24.031250,-25.94,93.93
141186,2018-06-29 09:58:24.062500,-19.38,93.93
141187,2018-06-29 09:58:24.093750,-7.99,93.93
141188,2018-06-29 09:58:24.125000,6.4,93.93
141189,2018-06-29 09:58:24.156250,18.83,93.93
141190,2018-06-29 09:58:24.187500,24.75,93.93
141191,2018-06-29 09:58:24.218750,24.49,93.93
141192,2018-06-29 09:58:24.250000,24.09,93.93
141193,2018-06-29 09:58:24.281250,28.26,93.93
141194,2018-06-29 09:58:24.312500,29.09,93.93
141195,2018-06-29 09:58:24.343750,21.52,93.93
141196,2018-06-29 09:58:24.375000,14.01,93.93
141197,2018-06-29 09:58:24.406250,20.13,93.93
141198,2018-06-29 09:58:24.437500,35.86,93.93
141199,2018-06-29 09:58:24.468750,45.51,93.93
141200,2018-06-29 09:58:24.500000,42.69,93.93
141201,2018-06-29 09:58:24.531250,35.48,94.3
141202,2018-06-29 09:58:24.562500,39.59,94.3
141203,2018-06-29 09:58:24.593750,54.01,94.3
141204,2018-06-29 09:58:24.625000,62.12,94.3
141205,2018-06-29 09:58:24.656250,40.73,94.3
141206,2018-06-29 09:58:24.687500,-10.16,94.3
141207,2018-06-29 09:58:24.718750,-23.54,94.3
141208,2018-06-29 09:58:24.750000,17.34,94.3
141209,2018-06-29 09:58:24.781250,83.41,94.3
141210,2018-06-29 09:58:24.812500,132.64,94.3
141211,2018-06-29 09:58:24.843750,143.26,94.3
141212,2018-06-29 09:58:24.875000,107.49,94.3
141213,2018-06-29 09:58:24.906250,38.95,94.3
141214,2018-06-29 09:58:24.937500,-33.57,94.3
141215,2018-06-29 09:58:24.968750,-81.48,94.3
141216,2018-06-29 09:58:25.000000,-101.69,94.3
141217,2018-06-29 09:58:25.031250,-109.24,94.3
141218,2018-06-29 09:58:25.062500,-111.65,94.3
141219,2018-06-29 09:58:25.093750,-104.88,94.3
141220,2018-06-29 09:58:25.125000,-86.45,94.3
141221,2018-06-29 09:58:25.156250,-66.14,94.3
141222,2018-06-29 09:58:25.187500,-50.44,94.3
141223,2018-06-29 09:58:25.218750,-36.78,94.3
141224,2018-06-29 09:58:25.250000,-19.19,94.3
141225,2018-06-29 09:58:25.281250,1.48,94.3
141226,2018-06-29 09:58:25.312500,18.21,94.3
141227,2018-06-29 09:58:25.343750,26.09,94.3
141228,2018-06-29 09:58:25.375000,25.45,94.3
141229,2018-06-29 09:58:25.406250,19.66,94.3
141230,2018-06-29 09:58:25.437500,9.53,94.3
141231,2018-06-29 09:58:25.468750,-4.28,94.3
141232,2018-06-29 09:58:25.500000,-19.13,94.3
141233,2018-06-29 09:58:25.531250,-30.23,94.65
141234,2018-06-29 09:58:25.562500,-33.02,94.65
141235,2018-06-29 09:58:25.593750,-28.16,94.65
141236,2018-06-29 09:58:25.625000,-19.05,94.65
141237,2018-06-29 09:58:25.656250,-4.43,94.65
141238,2018-06-29 09:58:25.687500,20.22,94.65
141239,2018-06-29 09:58:25.718750,46.55,94.65
141240,2018-06-29 09:58:25.750000,56.93,94.65
141241,2018-06-29 09:58:25.781250,44.7,94.65
141242,2018-06-29 09:58:25.812500,14.1,94.65
141243,2018-06-29 09:58:25.843750,-14.91,94.65
141244,2018-06-29 09:58:25.875000,-21.13,94.65
141245,2018-06-29 09:58:25.906250,1.04,94.65
141246,2018-06-29 09:58:25.937500,36.42,94.65
141247,2018-06-29 09:58:25.968750,65.85,94.65
141248,2018-06-29 09:58:26.000000,82.83,94.65
141249,2018-06-29 09:58:26.031250,88.47,94.65
141250,2018-06-29 09:58:26.062500,86.89,94.65
141251,2018-06-29 09:58:26.093750,86.46,94.65
141252,2018-06-29 09:58:26.125000,92.68,94.65
141253,2018-06-29 09:58:26.156250,92.88,94.65
141254,2018-06-29 09:58:26.187500,75.68,94.65
141255,2018-06-29 09:58:26.218750,54.54,94.65
141256,2018-06-29 09:58:26.250000,50.32,94.65
141257,2018-06-29 09:58:26.281250,57.21,94.65
141258,2018-06-29 09:58:26.312500,55.46,94.65
141259,2018-06-29 09:58:26.343750,47.94,94.65
141260,2018-06-29 09:58:26.375000,50.09,94.65
141261,2018-06-29 09:58:26.406250,68.01,94.65
141262,2018-06-29 09:58:26.437500,91.33,94.65
141263,2018-06-29 09:58:26.468750,101.17,94.65
141264,2018-06-29 09:58:26.500000,78.66,94.65
141265,2018-06-29 09:58:26.531250,21.4,95.02
141266,2018-06-29 09:58:26.562500,-52.25,95.02
141267,2018-06-29 09:58:26.593750,-123.76,95.02
141268,2018-06-29 09:58:26.625000,-192.23,95.02
141269,2018-06-29 09:58:26.656250,-257.1,95.02
141270,2018-06-29 09:58:26.687500,-296.91,95.02
141271,2018-06-29 09:58:26.718750,-290.34,95.02
141272,2018-06-29 09:58:26.750000,-246.38,95.02
141273,2018-06-29 09:58:26.781250,-192.66,95.02
141274,2018-06-29 09:58:26.812500,-147.48,95.02
141275,2018-06-29 09:58:26.843750,-118.49,95.02
141276,2018-06-29 09:58:26.875000,-103.69,95.02
141277,2018-06-29 09:58:26.906250,-84.65,95.02
141278,2018-06-29 09:58:26.937500,-45.15,95.02
141279,2018-06-29 09:58:26.968750,3.0,95.02
141280,2018-06-29 09:58:27.000000,34.66,95.02
141281,2018-06-29 09:58:27.031250,43.62,95.02
141282,2018-06-29 09:58:27.062500,43.21,95.02
141283,2018-06-29 09:58:27.093750,44.8,95.02
141284,2018-06-29 09:58:27.125000,49.33,95.02
141285,2018-06-29 09:58:27.156250,55.08,95.02
141286,2018-06-29 09:58:27.187500,63.18,95.02
141287,2018-06-29 09:58:27.218750,75.21,95.02
141288,2018-06-29 09:58:27.250000,90.13,95.02
141289,2018-06-29 09:58:27.281250,103.6,95.02
141290,2018-06-29 09:58:27.312500,108.45,95.02
141291,2018-06-29 09:58:27.343750,98.5,95.02
141292,2018-06-29 09:58:27.375000,73.84,95.02
141293,2018-06-29 09:58:27.406250,41.16,95.02
141294,2018-06-29 09:58:27.437500,9.6,95.02
141295,2018-06-29 09:58:27.468750,-13.55,95.02
141296,2018-06-29 09:58:27.500000,-27.4,95.02
141297,2018-06-29 09:58:27.531250,-36.95,95.42
141298,2018-06-29 09:58:27.562500,-43.05,95.42
141299,2018-06-29 09:58:27.593750,-37.47,95.42
141300,2018-06-29 09:58:27.625000,-15.85,95.42
141301,2018-06-29 09:58:27.656250,9.26,95.42
141302,2018-06-29 09:58:27.687500,18.03,95.42
141303,2018-06-29 09:58:27.718750,4.44,95.42
141304,2018-06-29 09:58:27.750000,-19.62,95.42
141305,2018-06-29 09:58:27.781250,-38.97,95.42
141306,2018-06-29 09:58:27.812500,-46.33,95.42
141307,2018-06-29 09:58:27.843750,-40.98,95.42
141308,2018-06-29 09:58:27.875000,-25.08,95.42
141309,2018-06-29 09:58:27.906250,-3.8,95.42
141310,2018-06-29 09:58:27.937500,15.15,95.42
141311,2018-06-29 09:58:27.968750,26.4,95.42
141312,2018-06-29 09:58:28.000000,30.81,95.42
141313,2018-06-29 09:58:28.031250,32.36,95.42
141314,2018-06-29 09:58:28.062500,31.64,95.42
141315,2018-06-29 09:58:28.093750,26.08,95.42
141316,2018-06-29 09:58:28.125000,16.4,95.42
141317,2018-06-29 09:58:28.156250,6.06,95.42
141318,2018-06-29 09:58:28.187500,-5.97,95.42
141319,2018-06-29 09:58:28.218750,-22.59,95.42
141320,2018-06-29 09:58:28.250000,-36.92,95.42
141321,2018-06-29 09:58:28.281250,-34.11,95.42
141322,2018-06-29 09:58:28.312500,-9.37,95.42
141323,2018-06-29 09:58:28.343750,25.31,95.42
141324,2018-06-29 09:58:28.375000,54.56,95.42
141325,2018-06-29 09:58:28.406250,72.6,95.42
141326,2018-06-29 09:58:28.437500,83.41,95.42
141327,2018-06-29 09:58:28.468750,92.61,95.42
141328,2018-06-29 09:58:28.500000,98.99,95.42
141329,2018-06-29 09:58:28.531250,96.22,95.95
141330,2018-06-29 09:58:28.562500,83.67,95.95
141331,2018-06-29 09:58:28.593750,68.19,95.95
141332,2018-06-29 09:58:28.625000,53.62,95.95
141333,2018-06-29 09:58:28.656250,37.8,95.95
141334,2018-06-29 09:58:28.687500,19.91,95.95
141335,2018-06-29 09:58:28.718750,1.21,95.95
141336,2018-06-29 09:58:28.750000,-17.9,95.95
141337,2018-06-29 09:58:28.781250,-33.82,95.95
141338,2018-06-29 09:58:28.812500,-39.52,95.95
141339,2018-06-29 09:58:28.843750,-34.03,95.95
141340,2018-06-29 09:58:28.875000,-23.53,95.95
141341,2018-06-29 09:58:28.906250,-11.03,95.95
141342,2018-06-29 09:58:28.937500,7.11,95.95
141343,2018-06-29 09:58:28.968750,35.04,95.95
141344,2018-06-29 09:58:29.000000,66.92,95.95
141345,2018-06-29 09:58:29.031250,79.23,95.95
141346,2018-06-29 09:58:29.062500,47.77,95.95
141347,2018-06-29 09:58:29.093750,-18.02,95.95
141348,2018-06-29 09:58:29.125000,-76.63,95.95
141349,2018-06-29 09:58:29.156250,-96.99,95.95
141350,2018-06-29 09:58:29.187500,-79.99,95.95
141351,2018-06-29 09:58:29.218750,-41.93,95.95
141352,2018-06-29 09:58:29.250000,1.26,95.95
141353,2018-06-29 09:58:29.281250,37.08,95.95
141354,2018-06-29 09:58:29.312500,58.69,95.95
141355,2018-06-29 09:58:29.343750,63.15,95.95
141356,2018-06-29 09:58:29.375000,45.4,95.95
141357,2018-06-29 09:58:29.406250,0.15,95.95
141358,2018-06-29 09:58:29.437500,-70.89,95.95
141359,2018-06-29 09:58:29.468750,-159.1,95.95
141360,2018-06-29 09:58:29.500000,-251.54,95.95
141361,2018-06-29 09:58:29.531250,-325.85,96.4
141362,2018-06-29 09:58:29.562500,-355.48,96.4
141363,2018-06-29 09:58:29.593750,-336.52,96.4
141364,2018-06-29 09:58:29.625000,-294.18,96.4
141365,2018-06-29 09:58:29.656250,-252.63,96.4
141366,2018-06-29 09:58:29.687500,-216.0,96.4
141367,2018-06-29 09:58:29.718750,-179.49,96.4
141368,2018-06-29 09:58:29.750000,-138.45,96.4
141369,2018-06-29 09:58:29.781250,-88.36,96.4
141370,2018-06-29 09:58:29.812500,-30.98,96.4
141371,2018-06-29 09:58:29.843750,21.15,96.4
141372,2018-06-29 09:58:29.875000,54.05,96.4
141373,2018-06-29 09:58:29.906250,66.88,96.4
141374,2018-06-29 09:58:29.937500,73.86,96.4
141375,2018-06-29 09:58:29.968750,87.91,96.4
141376,2018-06-29 09:58:30.000000,106.77,96.4
141377,2018-06-29 09:58:30.031250,119.19,96.4
141378,2018-06-29 09:58:30.062500,119.99,96.4
141379,2018-06-29 09:58:30.093750,119.47,96.4
141380,2018-06-29 09:58:30.125000,139.48,96.4
141381,2018-06-29 09:58:30.156250,185.14,96.4
141382,2018-06-29 09:58:30.187500,220.67,96.4
141383,2018-06-29 09:58:30.218750,200.74,96.4
141384,2018-06-29 09:58:30.250000,125.31,96.4
141385,2018-06-29 09:58:30.281250,34.68,96.4
141386,2018-06-29 09:58:30.312500,-36.46,96.4
141387,2018-06-29 09:58:30.343750,-72.0,96.4
141388,2018-06-29 09:58:30.375000,-67.84,96.4
141389,2018-06-29 09:58:30.406250,-40.05,96.4
141390,2018-06-29 09:58:30.437500,-16.94,96.4
141391,2018-06-29 09:58:30.468750,-9.16,96.4
141392,2018-06-29 09:58:30.500000,-5.54,96.4
141393,2018-06-29 09:58:30.531250,2.97,96.83
141394,2018-06-29 09:58:30.562500,13.63,96.83
141395,2018-06-29 09:58:30.593750,22.03,96.83
141396,2018-06-29 09:58:30.625000,27.07,96.83
141397,2018-06-29 09:58:30.656250,28.27,96.83
141398,2018-06-29 09:58:30.687500,25.74,96.83
141399,2018-06-29 09:58:30.718750,19.39,96.83
141400,2018-06-29 09:58:30.750000,6.23,96.83
141401,2018-06-29 09:58:30.781250,-14.07,96.83
141402,2018-06-29 09:58:30.812500,-33.41,96.83
141403,2018-06-29 09:58:30.843750,-45.45,96.83
141404,2018-06-29 09:58:30.875000,-55.69,96.83
141405,2018-06-29 09:58:30.906250,-72.67,96.83
141406,2018-06-29 09:58:30.937500,-97.57,96.83
141407,2018-06-29 09:58:30.968750,-128.01,96.83
141408,2018-06-29 09:58:31.000000,-158.0,96.83
141409,2018-06-29 09:58:31.031250,-172.35,96.83
141410,2018-06-29 09:58:31.062500,-157.25,96.83
141411,2018-06-29 09:58:31.093750,-117.03,96.83
141412,2018-06-29 09:58:31.125000,-68.47,96.83
141413,2018-06-29 09:58:31.156250,-23.69,96.83
141414,2018-06-29 09:58:31.187500,11.71,96.83
141415,2018-06-29 09:58:31.218750,32.88,96.83
141416,2018-06-29 09:58:31.250000,39.91,96.83
141417,2018-06-29 09:58:31.281250,42.02,96.83
141418,2018-06-29 09:58:31.312500,49.84,96.83
141419,2018-06-29 09:58:31.343750,65.19,96.83
141420,2018-06-29 09:58:31.375000,82.23,96.83
141421,2018-06-29 09:58:31.406250,95.45,96.83
141422,2018-06-29 09:58:31.437500,100.47,96.83
141423,2018-06-29 09:58:31.468750,91.1,96.83
141424,2018-06-29 09:58:31.500000,65.46,96.83
141425,2018-06-29 09:58:31.531250,32.51,97.22
141426,2018-06-29 09:58:31.562500,2.52,97.22
141427,2018-06-29 09:58:31.593750,-25.47,97.22
141428,2018-06-29 09:58:31.625000,-56.79,97.22
141429,2018-06-29 09:58:31.656250,-86.53,97.22
141430,2018-06-29 09:58:31.687500,-100.29,97.22
141431,2018-06-29 09:58:31.718750,-86.34,97.22
141432,2018-06-29 09:58:31.750000,-44.64,97.22
141433,2018-06-29 09:58:31.781250,12.54,97.22
141434,2018-06-29 09:58:31.812500,67.88,97.22
141435,2018-06-29 09:58:31.843750,108.84,97.22
141436,2018-06-29 09:58:31.875000,132.87,97.22
141437,2018-06-29 09:58:31.906250,145.35,97.22
141438,2018-06-29 09:58:31.937500,151.25,97.22
141439,2018-06-29 09:58:31.968750,150.09,97.22
141440,2018-06-29 09:58:32.000000,143.22,97.22
141441,2018-06-29 09:58:32.031250,135.96,97.22
141442,2018-06-29 09:58:32.062500,123.51,97.22
141443,2018-06-29 09:58:32.093750,90.12,97.22
141444,2018-06-29 09:58:32.125000,30.46,97.22
141445,2018-06-29 09:58:32.156250,-45.66,97.22
141446,2018-06-29 09:58:32.187500,-130.79,97.22
141447,2018-06-29 09:58:32.218750,-213.81,97.22
141448,2018-06-29 09:58:32.250000,-261.47,97.22
141449,2018-06-29 09:58:32.281250,-242.8,97.22
141450,2018-06-29 09:58:32.312500,-172.48,97.22
141451,2018-06-29 09:58:32.343750,-106.84,97.22
141452,2018-06-29 09:58:32.375000,-97.11,97.22
141453,2018-06-29 09:58:32.406250,-144.51,97.22
141454,2018-06-29 09:58:32.437500,-192.49,97.22
141455,2018-06-29 09:58:32.468750,-179.08,97.22
141456,2018-06-29 09:58:32.500000,-98.42,97.22
141457,2018-06-29 09:58:32.531250,7.73,97.58
141458,2018-06-29 09:58:32.562500,104.55,97.58
141459,2018-06-29 09:58:32.593750,181.14,97.58
141460,2018-06-29 09:58:32.625000,233.24,97.58
141461,2018-06-29 09:58:32.656250,259.47,97.58
141462,2018-06-29 09:58:32.687500,262.64,97.58
141463,2018-06-29 09:58:32.718750,246.1,97.58
141464,2018-06-29 09:58:32.750000,208.58,97.58
141465,2018-06-29 09:58:32.781250,152.0,97.58
141466,2018-06-29 09:58:32.812500,85.13,97.58
141467,2018-06-29 09:58:32.843750,16.02,97.58
141468,2018-06-29 09:58:32.875000,-47.39,97.58
141469,2018-06-29 09:58:32.906250,-91.93,97.58
141470,2018-06-29 09:58:32.937500,-102.36,97.58
141471,2018-06-29 09:58:32.968750,-86.2,97.58
141472,2018-06-29 09:58:33.000000,-58.19,97.58
141473,2018-06-29 09:58:33.031250,-26.59,97.58
141474,2018-06-29 09:58:33.062500,14.36,97.58
141475,2018-06-29 09:58:33.093750,69.63,97.58
141476,2018-06-29 09:58:33.125000,129.87,97.58
141477,2018-06-29 09:58:33.156250,177.03,97.58
141478,2018-06-29 09:58:33.187500,190.76,97.58
141479,2018-06-29 09:58:33.218750,176.03,97.58
141480,2018-06-29 09:58:33.250000,144.68,97.58
141481,2018-06-29 09:58:33.281250,120.26,97.58
141482,2018-06-29 09:58:33.312500,105.0,97.58
141483,2018-06-29 09:58:33.343750,46.66,97.58
141484,2018-06-29 09:58:33.375000,13.75,97.58
141485,2018-06-29 09:58:33.406250,47.38,97.58
141486,2018-06-29 09:58:33.437500,158.97,97.58
141487,2018-06-29 09:58:33.468750,277.07,97.58
141488,2018-06-29 09:58:33.500000,325.27,97.58
141489,2018-06-29 09:58:33.531250,288.61,97.98
141490,2018-06-29 09:58:33.562500,238.84,97.98
141491,2018-06-29 09:58:33.593750,244.17,97.98
141492,2018-06-29 09:58:33.625000,297.63,97.98
141493,2018-06-29 09:58:33.656250,353.19,97.98
141494,2018-06-29 09:58:33.687500,298.26,97.98
141495,2018-06-29 09:58:33.718750,86.42,97.98
141496,2018-06-29 09:58:33.750000,-151.04,97.98
141497,2018-06-29 09:58:33.781250,-308.5,97.98
141498,2018-06-29 09:58:33.812500,-379.53,97.98
141499,2018-06-29 09:58:33.843750,-388.21,97.98
141500,2018-06-29 09:58:33.875000,-359.41,97.98
141501,2018-06-29 09:58:33.906250,-319.06,97.98
141502,2018-06-29 09:58:33.937500,-278.07,97.98
141503,2018-06-29 09:58:33.968750,-237.13,97.98
141504,2018-06-29 09:58:34.000000,-192.01,97.98
141505,2018-06-29 09:58:34.031250,-154.34,97.98
141506,2018-06-29 09:58:34.062500,-133.33,97.98
141507,2018-06-29 09:58:34.093750,-122.71,97.98
141508,2018-06-29 09:58:34.125000,-107.97,97.98
141509,2018-06-29 09:58:34.156250,-81.77,97.98
141510,2018-06-29 09:58:34.187500,-56.02,97.98
141511,2018-06-29 09:58:34.218750,-42.23,97.98
141512,2018-06-29 09:58:34.250000,-40.32,97.98
141513,2018-06-29 09:58:34.281250,-41.07,97.98
141514,2018-06-29 09:58:34.312500,-42.82,97.98
141515,2018-06-29 09:58:34.343750,-52.24,97.98
141516,2018-06-29 09:58:34.375000,-71.14,97.98
141517,2018-06-29 09:58:34.406250,-89.18,97.98
141518,2018-06-29 09:58:34.437500,-89.53,97.98
141519,2018-06-29 09:58:34.468750,-66.35,97.98
141520,2018-06-29 09:58:34.500000,-30.54,97.98
141521,2018-06-29 09:58:34.531250,2.56,98.38
141522,2018-06-29 09:58:34.562500,27.42,98.38
141523,2018-06-29 09:58:34.593750,46.06,98.38
141524,2018-06-29 09:58:34.625000,57.61,98.38
141525,2018-06-29 09:58:34.656250,59.25,98.38
141526,2018-06-29 09:58:34.687500,53.29,98.38
141527,2018-06-29 09:58:34.718750,45.47,98.38
141528,2018-06-29 09:58:34.750000,37.41,98.38
141529,2018-06-29 09:58:34.781250,27.14,98.38
141530,2018-06-29 09:58:34.812500,15.58,98.38
141531,2018-06-29 09:58:34.843750,6.22,98.38
141532,2018-06-29 09:58:34.875000,-2.3,98.38
141533,2018-06-29 09:58:34.906250,-16.26,98.38
141534,2018-06-29 09:58:34.937500,-36.49,98.38
141535,2018-06-29 09:58:34.968750,-53.07,98.38
141536,2018-06-29 09:58:35.000000,-53.92,98.38
141537,2018-06-29 09:58:35.031250,-37.48,98.38
141538,2018-06-29 09:58:35.062500,-14.36,98.38
141539,2018-06-29 09:58:35.093750,5.74,98.38
141540,2018-06-29 09:58:35.125000,28.16,98.38
141541,2018-06-29 09:58:35.156250,64.83,98.38
141542,2018-06-29 09:58:35.187500,112.52,98.38
141543,2018-06-29 09:58:35.218750,153.18,98.38
141544,2018-06-29 09:58:35.250000,174.82,98.38
141545,2018-06-29 09:58:35.281250,177.87,98.38
141546,2018-06-29 09:58:35.312500,162.91,98.38
141547,2018-06-29 09:58:35.343750,131.3,98.38
141548,2018-06-29 09:58:35.375000,91.17,98.38
141549,2018-06-29 09:58:35.406250,51.15,98.38
141550,2018-06-29 09:58:35.437500,11.54,98.38
141551,2018-06-29 09:58:35.468750,-29.71,98.38
141552,2018-06-29 09:58:35.500000,-68.41,98.38
141553,2018-06-29 09:58:35.531250,-104.88,98.9
141554,2018-06-29 09:58:35.562500,-146.59,98.9
141555,2018-06-29 09:58:35.593750,-193.18,98.9
141556,2018-06-29 09:58:35.625000,-230.82,98.9
141557,2018-06-29 09:58:35.656250,-254.0,98.9
141558,2018-06-29 09:58:35.687500,-247.8,98.9
141559,2018-06-29 09:58:35.718750,-184.29,98.9
141560,2018-06-29 09:58:35.750000,-91.95,98.9
141561,2018-06-29 09:58:35.781250,-20.26,98.9
141562,2018-06-29 09:58:35.812500,33.1,98.9
141563,2018-06-29 09:58:35.843750,81.04,98.9
141564,2018-06-29 09:58:35.875000,117.06,98.9
141565,2018-06-29 09:58:35.906250,131.21,98.9
141566,2018-06-29 09:58:35.937500,127.6,98.9
141567,2018-06-29 09:58:35.968750,115.46,98.9
141568,2018-06-29 09:58:36.000000,95.59,98.9
141569,2018-06-29 09:58:36.031250,66.4,98.9
141570,2018-06-29 09:58:36.062500,37.83,98.9
141571,2018-06-29 09:58:36.093750,21.92,98.9
141572,2018-06-29 09:58:36.125000,20.67,98.9
141573,2018-06-29 09:58:36.156250,25.63,98.9
141574,2018-06-29 09:58:36.187500,29.03,98.9
141575,2018-06-29 09:58:36.218750,28.92,98.9
141576,2018-06-29 09:58:36.250000,25.58,98.9
141577,2018-06-29 09:58:36.281250,20.26,98.9
141578,2018-06-29 09:58:36.312500,15.0,98.9
141579,2018-06-29 09:58:36.343750,10.98,98.9
141580,2018-06-29 09:58:36.375000,4.51,98.9
141581,2018-06-29 09:58:36.406250,-6.03,98.9
141582,2018-06-29 09:58:36.437500,-11.61,98.9
141583,2018-06-29 09:58:36.468750,-1.83,98.9
141584,2018-06-29 09:58:36.500000,19.06,98.9
141585,2018-06-29 09:58:36.531250,35.49,99.32
141586,2018-06-29 09:58:36.562500,37.76,99.32
141587,2018-06-29 09:58:36.593750,27.49,99.32
141588,2018-06-29 09:58:36.625000,11.91,99.32
141589,2018-06-29 09:58:36.656250,-0.92,99.32
141590,2018-06-29 09:58:36.687500,-5.89,99.32
141591,2018-06-29 09:58:36.718750,-3.18,99.32
141592,2018-06-29 09:58:36.750000,3.91,99.32
141593,2018-06-29 09:58:36.781250,12.24,99.32
141594,2018-06-29 09:58:36.812500,20.31,99.32
141595,2018-06-29 09:58:36.843750,28.21,99.32
141596,2018-06-29 09:58:36.875000,35.55,99.32
141597,2018-06-29 09:58:36.906250,38.88,99.32
141598,2018-06-29 09:58:36.937500,33.36,99.32
141599,2018-06-29 09:58:36.968750,18.89,99.32
141600,2018-06-29 09:58:37.000000,0.94,99.32
141601,2018-06-29 09:58:37.031250,-16.11,99.32
141602,2018-06-29 09:58:37.062500,-30.75,99.32
141603,2018-06-29 09:58:37.093750,-39.07,99.32
141604,2018-06-29 09:58:37.125000,-36.58,99.32
141605,2018-06-29 09:58:37.156250,-25.3,99.32
141606,2018-06-29 09:58:37.187500,-12.14,99.32
141607,2018-06-29 09:58:37.218750,-1.4,99.32
141608,2018-06-29 09:58:37.250000,6.79,99.32
141609,2018-06-29 09:58:37.281250,15.63,99.32
141610,2018-06-29 09:58:37.312500,29.54,99.32
141611,2018-06-29 09:58:37.343750,48.2,99.32
141612,2018-06-29 09:58:37.375000,65.84,99.32
141613,2018-06-29 09:58:37.406250,78.46,99.32
141614,2018-06-29 09:58:37.437500,84.66,99.32
141615,2018-06-29 09:58:37.468750,80.55,99.32
141616,2018-06-29 09:58:37.500000,63.92,99.32
141617,2018-06-29 09:58:37.531250,41.43,99.77
141618,2018-06-29 09:58:37.562500,22.41,99.77
141619,2018-06-29 09:58:37.593750,8.99,99.77
141620,2018-06-29 09:58:37.625000,-2.03,99.77
141621,2018-06-29 09:58:37.656250,-13.75,99.77
141622,2018-06-29 09:58:37.687500,-28.95,99.77
141623,2018-06-29 09:58:37.718750,-47.14,99.77
141624,2018-06-29 09:58:37.750000,-60.03,99.77
141625,2018-06-29 09:58:37.781250,-58.23,99.77
141626,2018-06-29 09:58:37.812500,-43.04,99.77
141627,2018-06-29 09:58:37.843750,-24.62,99.77
141628,2018-06-29 09:58:37.875000,-10.79,99.77
141629,2018-06-29 09:58:37.906250,-2.96,99.77
141630,2018-06-29 09:58:37.937500,0.12,99.77
141631,2018-06-29 09:58:37.968750,0.47,99.77
141632,2018-06-29 09:58:38.000000,0.55,99.77
141633,2018-06-29 09:58:38.031250,0.43,99.77
141634,2018-06-29 09:58:38.062500,-2.08,99.77
141635,2018-06-29 09:58:38.093750,-5.79,99.77
141636,2018-06-29 09:58:38.125000,-6.79,99.77
141637,2018-06-29 09:58:38.156250,-6.02,99.77
141638,2018-06-29 09:58:38.187500,-8.41,99.77
141639,2018-06-29 09:58:38.218750,-12.74,99.77
141640,2018-06-29 09:58:38.250000,-12.66,99.77
141641,2018-06-29 09:58:38.281250,-8.98,99.77
141642,2018-06-29 09:58:38.312500,-10.41,99.77
141643,2018-06-29 09:58:38.343750,-19.17,99.77
141644,2018-06-29 09:58:38.375000,-22.01,99.77
141645,2018-06-29 09:58:38.406250,-0.97,99.77
141646,2018-06-29 09:58:38.437500,48.16,99.77
141647,2018-06-29 09:58:38.468750,107.35,99.77
141648,2018-06-29 09:58:38.500000,144.73,99.77
141649,2018-06-29 09:58:38.531250,139.57,100.1
141650,2018-06-29 09:58:38.562500,102.61,100.1
141651,2018-06-29 09:58:38.593750,59.76,100.1
141652,2018-06-29 09:58:38.625000,20.75,100.1
141653,2018-06-29 09:58:38.656250,-16.2,100.1
141654,2018-06-29 09:58:38.687500,-43.72,100.1
141655,2018-06-29 09:58:38.718750,-56.24,100.1
141656,2018-06-29 09:58:38.750000,-63.71,100.1
141657,2018-06-29 09:58:38.781250,-75.2,100.1
141658,2018-06-29 09:58:38.812500,-89.17,100.1
141659,2018-06-29 09:58:38.843750,-106.58,100.1
141660,2018-06-29 09:58:38.875000,-129.89,100.1
141661,2018-06-29 09:58:38.906250,-150.38,100.1
141662,2018-06-29 09:58:38.937500,-158.76,100.1
141663,2018-06-29 09:58:38.968750,-164.11,100.1
141664,2018-06-29 09:58:39.000000,-180.68,100.1
141665,2018-06-29 09:58:39.031250,-201.56,100.1
141666,2018-06-29 09:58:39.062500,-205.72,100.1
141667,2018-06-29 09:58:39.093750,-184.22,100.1
141668,2018-06-29 09:58:39.125000,-144.37,100.1
141669,2018-06-29 09:58:39.156250,-97.38,100.1
141670,2018-06-29 09:58:39.187500,-53.62,100.1
141671,2018-06-29 09:58:39.218750,-20.14,100.1
141672,2018-06-29 09:58:39.250000,3.66,100.1
141673,2018-06-29 09:58:39.281250,22.85,100.1
141674,2018-06-29 09:58:39.312500,39.56,100.1
141675,2018-06-29 09:58:39.343750,51.53,100.1
141676,2018-06-29 09:58:39.375000,56.16,100.1
141677,2018-06-29 09:58:39.406250,53.15,100.1
141678,2018-06-29 09:58:39.437500,43.45,100.1
141679,2018-06-29 09:58:39.468750,30.61,100.1
141680,2018-06-29 09:58:39.500000,21.82,100.1
141681,2018-06-29 09:58:39.531250,19.41,100.37
141682,2018-06-29 09:58:39.562500,13.85,100.37
141683,2018-06-29 09:58:39.593750,-4.43,100.37
141684,2018-06-29 09:58:39.625000,-31.62,100.37
141685,2018-06-29 09:58:39.656250,-57.68,100.37
141686,2018-06-29 09:58:39.687500,-78.82,100.37
141687,2018-06-29 09:58:39.718750,-97.25,100.37
141688,2018-06-29 09:58:39.750000,-113.17,100.37
141689,2018-06-29 09:58:39.781250,-118.17,100.37
141690,2018-06-29 09:58:39.812500,-101.07,100.37
141691,2018-06-29 09:58:39.843750,-64.94,100.37
141692,2018-06-29 09:58:39.875000,-26.7,100.37
141693,2018-06-29 09:58:39.906250,3.89,100.37
141694,2018-06-29 09:58:39.937500,28.93,100.37
141695,2018-06-29 09:58:39.968750,47.34,100.37
141696,2018-06-29 09:58:40.000000,53.19,100.37
141697,2018-06-29 09:58:40.031250,46.93,100.37
141698,2018-06-29 09:58:40.062500,36.92,100.37
141699,2018-06-29 09:58:40.093750,33.64,100.37
141700,2018-06-29 09:58:40.125000,45.04,100.37
141701,2018-06-29 09:58:40.156250,70.52,100.37
141702,2018-06-29 09:58:40.187500,97.14,100.37
141703,2018-06-29 09:58:40.218750,107.37,100.37
141704,2018-06-29 09:58:40.250000,95.58,100.37
141705,2018-06-29 09:58:40.281250,72.32,100.37
141706,2018-06-29 09:58:40.312500,48.92,100.37
141707,2018-06-29 09:58:40.343750,25.11,100.37
141708,2018-06-29 09:58:40.375000,-3.28,100.37
141709,2018-06-29 09:58:40.406250,-34.88,100.37
141710,2018-06-29 09:58:40.437500,-66.26,100.37
141711,2018-06-29 09:58:40.468750,-92.97,100.37
141712,2018-06-29 09:58:40.500000,-104.74,100.37
141713,2018-06-29 09:58:40.531250,-93.1,100.7
141714,2018-06-29 09:58:40.562500,-65.32,100.7
141715,2018-06-29 09:58:40.593750,-39.45,100.7
141716,2018-06-29 09:58:40.625000,-24.75,100.7
141717,2018-06-29 09:58:40.656250,-17.07,100.7
141718,2018-06-29 09:58:40.687500,-10.98,100.7
141719,2018-06-29 09:58:40.718750,-6.0,100.7
141720,2018-06-29 09:58:40.750000,-2.37,100.7
141721,2018-06-29 09:58:40.781250,0.2,100.7
141722,2018-06-29 09:58:40.812500,0.13,100.7
141723,2018-06-29 09:58:40.843750,-2.92,100.7
141724,2018-06-29 09:58:40.875000,-5.11,100.7
141725,2018-06-29 09:58:40.906250,-4.41,100.7
141726,2018-06-29 09:58:40.937500,-5.27,100.7
141727,2018-06-29 09:58:40.968750,-11.58,100.7
141728,2018-06-29 09:58:41.000000,-20.45,100.7
141729,2018-06-29 09:58:41.031250,-26.62,100.7
141730,2018-06-29 09:58:41.062500,-28.85,100.7
141731,2018-06-29 09:58:41.093750,-31.3,100.7
141732,2018-06-29 09:58:41.125000,-40.98,100.7
141733,2018-06-29 09:58:41.156250,-61.36,100.7
141734,2018-06-29 09:58:41.187500,-83.47,100.7
141735,2018-06-29 09:58:41.218750,-87.7,100.7
141736,2018-06-29 09:58:41.250000,-62.43,100.7
141737,2018-06-29 09:58:41.281250,-17.65,100.7
141738,2018-06-29 09:58:41.312500,26.81,100.7
141739,2018-06-29 09:58:41.343750,60.51,100.7
141740,2018-06-29 09:58:41.375000,83.61,100.7
141741,2018-06-29 09:58:41.406250,100.61,100.7
141742,2018-06-29 09:58:41.437500,118.84,100.7
141743,2018-06-29 09:58:41.468750,140.01,100.7
141744,2018-06-29 09:58:41.500000,151.71,100.7
141745,2018-06-29 09:58:41.531250,141.01,101.05
141746,2018-06-29 09:58:41.562500,115.23,101.05
141747,2018-06-29 09:58:41.593750,96.08,101.05
141748,2018-06-29 09:58:41.625000,94.95,101.05
141749,2018-06-29 09:58:41.656250,105.81,101.05
141750,2018-06-29 09:58:41.687500,119.67,101.05
141751,2018-06-29 09:58:41.718750,133.13,101.05
141752,2018-06-29 09:58:41.750000,141.81,101.05
141753,2018-06-29 09:58:41.781250,138.02,101.05
141754,2018-06-29 09:58:41.812500,119.06,101.05
141755,2018-06-29 09:58:41.843750,90.93,101.05
141756,2018-06-29 09:58:41.875000,61.38,101.05
141757,2018-06-29 09:58:41.906250,35.26,101.05
141758,2018-06-29 09:58:41.937500,16.19,101.05
141759,2018-06-29 09:58:41.968750,6.17,101.05
141760,2018-06-29 09:58:42.000000,2.61,101.05
141761,2018-06-29 09:58:42.031250,0.36,101.05
141762,2018-06-29 09:58:42.062500,0.01,101.05
141763,2018-06-29 09:58:42.093750,6.23,101.05
141764,2018-06-29 09:58:42.125000,16.63,101.05
141765,2018-06-29 09:58:42.156250,21.6,101.05
141766,2018-06-29 09:58:42.187500,11.85,101.05
141767,2018-06-29 09:58:42.218750,-19.94,101.05
141768,2018-06-29 09:58:42.250000,-76.8,101.05
141769,2018-06-29 09:58:42.281250,-151.04,101.05
141770,2018-06-29 09:58:42.312500,-226.2,101.05
141771,2018-06-29 09:58:42.343750,-284.57,101.05
141772,2018-06-29 09:58:42.375000,-310.88,101.05
141773,2018-06-29 09:58:42.406250,-299.52,101.05
141774,2018-06-29 09:58:42.437500,-261.08,101.05
141775,2018-06-29 09:58:42.468750,-213.25,101.05
141776,2018-06-29 09:58:42.500000,-168.14,101.05
141777,2018-06-29 09:58:42.531250,-131.58,101.42
141778,2018-06-29 09:58:42.562500,-105.41,101.42
141779,2018-06-29 09:58:42.593750,-82.8,101.42
141780,2018-06-29 09:58:42.625000,-49.24,101.42
141781,2018-06-29 09:58:42.656250,1.5,101.42
141782,2018-06-29 09:58:42.687500,56.75,101.42
141783,2018-06-29 09:58:42.718750,98.32,101.42
141784,2018-06-29 09:58:42.750000,121.02,101.42
141785,2018-06-29 09:58:42.781250,131.17,101.42
141786,2018-06-29 09:58:42.812500,134.97,101.42
141787,2018-06-29 09:58:42.843750,135.06,101.42
141788,2018-06-29 09:58:42.875000,131.03,101.42
141789,2018-06-29 09:58:42.906250,119.01,101.42
141790,2018-06-29 09:58:42.937500,97.93,101.42
141791,2018-06-29 09:58:42.968750,75.08,101.42
141792,2018-06-29 09:58:43.000000,60.11,101.42
141793,2018-06-29 09:58:43.031250,55.4,101.42
141794,2018-06-29 09:58:43.062500,54.71,101.42
141795,2018-06-29 09:58:43.093750,49.77,101.42
141796,2018-06-29 09:58:43.125000,36.82,101.42
141797,2018-06-29 09:58:43.156250,16.34,101.42
141798,2018-06-29 09:58:43.187500,-9.6,101.42
141799,2018-06-29 09:58:43.218750,-35.72,101.42
141800,2018-06-29 09:58:43.250000,-51.8,101.42
141801,2018-06-29 09:58:43.281250,-47.06,101.42
141802,2018-06-29 09:58:43.312500,-17.77,101.42
141803,2018-06-29 09:58:43.343750,28.24,101.42
141804,2018-06-29 09:58:43.375000,75.82,101.42
141805,2018-06-29 09:58:43.406250,111.7,101.42
141806,2018-06-29 09:58:43.437500,128.77,101.42
141807,2018-06-29 09:58:43.468750,127.29,101.42
141808,2018-06-29 09:58:43.500000,115.65,101.42
141809,2018-06-29 09:58:43.531250,103.36,101.83
141810,2018-06-29 09:58:43.562500,92.63,101.83
141811,2018-06-29 09:58:43.593750,82.08,101.83
141812,2018-06-29 09:58:43.625000,72.85,101.83
141813,2018-06-29 09:58:43.656250,65.87,101.83
141814,2018-06-29 09:58:43.687500,59.56,101.83
141815,2018-06-29 09:58:43.718750,51.43,101.83
141816,2018-06-29 09:58:43.750000,38.27,101.83
141817,2018-06-29 09:58:43.781250,18.82,101.83
141818,2018-06-29 09:58:43.812500,-1.66,101.83
141819,2018-06-29 09:58:43.843750,-15.74,101.83
141820,2018-06-29 09:58:43.875000,-23.94,101.83
141821,2018-06-29 09:58:43.906250,-34.8,101.83
141822,2018-06-29 09:58:43.937500,-54.74,101.83
141823,2018-06-29 09:58:43.968750,-78.55,101.83
141824,2018-06-29 09:58:44.000000,-90.94,101.83
141825,2018-06-29 09:58:44.031250,-81.71,101.83
141826,2018-06-29 09:58:44.062500,-56.88,101.83
141827,2018-06-29 09:58:44.093750,-29.38,101.83
141828,2018-06-29 09:58:44.125000,-3.15,101.83
141829,2018-06-29 09:58:44.156250,26.29,101.83
141830,2018-06-29 09:58:44.187500,59.92,101.83
141831,2018-06-29 09:58:44.218750,91.42,101.83
141832,2018-06-29 09:58:44.250000,112.78,101.83
141833,2018-06-29 09:58:44.281250,119.28,101.83
141834,2018-06-29 09:58:44.312500,110.57,101.83
141835,2018-06-29 09:58:44.343750,92.13,101.83
141836,2018-06-29 09:58:44.375000,74.78,101.83
141837,2018-06-29 09:58:44.406250,66.34,101.83
141838,2018-06-29 09:58:44.437500,63.87,101.83
141839,2018-06-29 09:58:44.468750,58.32,101.83
141840,2018-06-29 09:58:44.500000,44.9,101.83
141841,2018-06-29 09:58:44.531250,24.29,102.22
141842,2018-06-29 09:58:44.562500,-3.84,102.22
141843,2018-06-29 09:58:44.593750,-42.07,102.22
141844,2018-06-29 09:58:44.625000,-87.86,102.22
141845,2018-06-29 09:58:44.656250,-127.06,102.22
141846,2018-06-29 09:58:44.687500,-141.69,102.22
141847,2018-06-29 09:58:44.718750,-127.63,102.22
141848,2018-06-29 09:58:44.750000,-98.32,102.22
141849,2018-06-29 09:58:44.781250,-68.63,102.22
141850,2018-06-29 09:58:44.812500,-44.26,102.22
141851,2018-06-29 09:58:44.843750,-28.6,102.22
141852,2018-06-29 09:58:44.875000,-25.87,102.22
141853,2018-06-29 09:58:44.906250,-32.66,102.22
141854,2018-06-29 09:58:44.937500,-38.82,102.22
141855,2018-06-29 09:58:44.968750,-40.96,102.22
141856,2018-06-29 09:58:45.000000,-45.51,102.22
141857,2018-06-29 09:58:45.031250,-55.4,102.22
141858,2018-06-29 09:58:45.062500,-64.57,102.22
141859,2018-06-29 09:58:45.093750,-70.15,102.22
141860,2018-06-29 09:58:45.125000,-78.77,102.22
141861,2018-06-29 09:58:45.156250,-95.97,102.22
141862,2018-06-29 09:58:45.187500,-117.9,102.22
141863,2018-06-29 09:58:45.218750,-132.65,102.22
141864,2018-06-29 09:58:45.250000,-119.38,102.22
141865,2018-06-29 09:58:45.281250,-62.86,102.22
141866,2018-06-29 09:58:45.312500,20.46,102.22
141867,2018-06-29 09:58:45.343750,97.58,102.22
141868,2018-06-29 09:58:45.375000,161.34,102.22
141869,2018-06-29 09:58:45.406250,223.17,102.22
141870,2018-06-29 09:58:45.437500,270.8,102.22
141871,2018-06-29 09:58:45.468750,280.28,102.22
141872,2018-06-29 09:58:45.500000,250.25,102.22
141873,2018-06-29 09:58:45.531250,194.36,102.62
141874,2018-06-29 09:58:45.562500,121.08,102.62
141875,2018-06-29 09:58:45.593750,45.06,102.62
141876,2018-06-29 09:58:45.625000,-5.97,102.62
141877,2018-06-29 09:58:45.656250,-19.56,102.62
141878,2018-06-29 09:58:45.687500,-13.25,102.62
141879,2018-06-29 09:58:45.718750,-29.87,102.62
141880,2018-06-29 09:58:45.750000,-90.38,102.62
141881,2018-06-29 09:58:45.781250,-156.67,102.62
141882,2018-06-29 09:58:45.812500,-188.05,102.62
141883,2018-06-29 09:58:45.843750,-178.67,102.62
141884,2018-06-29 09:58:45.875000,-141.17,102.62
141885,2018-06-29 09:58:45.906250,-94.52,102.62
141886,2018-06-29 09:58:45.937500,-54.86,102.62
141887,2018-06-29 09:58:45.968750,-23.04,102.62
141888,2018-06-29 09:58:46.000000,6.66,102.62
141889,2018-06-29 09:58:46.031250,35.15,102.62
141890,2018-06-29 09:58:46.062500,58.08,102.62
141891,2018-06-29 09:58:46.093750,77.41,102.62
141892,2018-06-29 09:58:46.125000,103.14,102.62
141893,2018-06-29 09:58:46.156250,135.8,102.62
141894,2018-06-29 09:58:46.187500,167.2,102.62
141895,2018-06-29 09:58:46.218750,181.11,102.62
141896,2018-06-29 09:58:46.250000,159.93,102.62
141897,2018-06-29 09:58:46.281250,102.28,102.62
141898,2018-06-29 09:58:46.312500,28.05,102.62
141899,2018-06-29 09:58:46.343750,-38.81,102.62
141900,2018-06-29 09:58:46.375000,-86.29,102.62
141901,2018-06-29 09:58:46.406250,-112.93,102.62
141902,2018-06-29 09:58:46.437500,-122.02,102.62
141903,2018-06-29 09:58:46.468750,-117.33,102.62
141904,2018-06-29 09:58:46.500000,-104.02,102.62
141905,2018-06-29 09:58:46.531250,-90.52,103.0
141906,2018-06-29 09:58:46.562500,-89.12,103.0
141907,2018-06-29 09:58:46.593750,-105.4,103.0
141908,2018-06-29 09:58:46.625000,-126.0,103.0
141909,2018-06-29 09:58:46.656250,-127.03,103.0
141910,2018-06-29 09:58:46.687500,-100.32,103.0
141911,2018-06-29 09:58:46.718750,-62.54,103.0
141912,2018-06-29 09:58:46.750000,-33.95,103.0
141913,2018-06-29 09:58:46.781250,-18.04,103.0
141914,2018-06-29 09:58:46.812500,-6.24,103.0
141915,2018-06-29 09:58:46.843750,6.08,103.0
141916,2018-06-29 09:58:46.875000,12.85,103.0
141917,2018-06-29 09:58:46.906250,7.45,103.0
141918,2018-06-29 09:58:46.937500,-3.66,103.0
141919,2018-06-29 09:58:46.968750,-4.71,103.0
141920,2018-06-29 09:58:47.000000,9.54,103.0
141921,2018-06-29 09:58:47.031250,26.47,103.0
141922,2018-06-29 09:58:47.062500,33.09,103.0
141923,2018-06-29 09:58:47.093750,30.75,103.0
141924,2018-06-29 09:58:47.125000,30.17,103.0
141925,2018-06-29 09:58:47.156250,36.22,103.0
141926,2018-06-29 09:58:47.187500,44.75,103.0
141927,2018-06-29 09:58:47.218750,50.47,103.0
141928,2018-06-29 09:58:47.250000,43.64,103.0
141929,2018-06-29 09:58:47.281250,26.43,103.0
141930,2018-06-29 09:58:47.312500,12.28,103.0
141931,2018-06-29 09:58:47.343750,6.12,103.0
141932,2018-06-29 09:58:47.375000,4.48,103.0
141933,2018-06-29 09:58:47.406250,2.5,103.0
141934,2018-06-29 09:58:47.437500,-2.28,103.0
141935,2018-06-29 09:58:47.468750,-9.64,103.0
141936,2018-06-29 09:58:47.500000,-14.98,103.0
141937,2018-06-29 09:58:47.531250,-19.2,103.3
141938,2018-06-29 09:58:47.562500,-24.83,103.3
141939,2018-06-29 09:58:47.593750,-31.91,103.3
141940,2018-06-29 09:58:47.625000,-36.95,103.3
141941,2018-06-29 09:58:47.656250,-38.12,103.3
141942,2018-06-29 09:58:47.687500,-38.23,103.3
141943,2018-06-29 09:58:47.718750,-41.8,103.3
141944,2018-06-29 09:58:47.750000,-49.33,103.3
141945,2018-06-29 09:58:47.781250,-57.63,103.3
141946,2018-06-29 09:58:47.812500,-64.18,103.3
141947,2018-06-29 09:58:47.843750,-68.13,103.3
141948,2018-06-29 09:58:47.875000,-69.63,103.3
141949,2018-06-29 09:58:47.906250,-67.9,103.3
141950,2018-06-29 09:58:47.937500,-59.64,103.3
141951,2018-06-29 09:58:47.968750,-40.89,103.3
141952,2018-06-29 09:58:48.000000,-14.19,103.3
141953,2018-06-29 09:58:48.031250,11.09,103.3
141954,2018-06-29 09:58:48.062500,27.58,103.3
141955,2018-06-29 09:58:48.093750,34.25,103.3
141956,2018-06-29 09:58:48.125000,33.48,103.3
141957,2018-06-29 09:58:48.156250,29.17,103.3
141958,2018-06-29 09:58:48.187500,25.6,103.3
141959,2018-06-29 09:58:48.218750,24.01,103.3
141960,2018-06-29 09:58:48.250000,22.13,103.3
141961,2018-06-29 09:58:48.281250,18.62,103.3
141962,2018-06-29 09:58:48.312500,15.63,103.3
141963,2018-06-29 09:58:48.343750,15.43,103.3
141964,2018-06-29 09:58:48.375000,16.06,103.3
141965,2018-06-29 09:58:48.406250,13.13,103.3
141966,2018-06-29 09:58:48.437500,5.16,103.3
141967,2018-06-29 09:58:48.468750,-5.06,103.3
141968,2018-06-29 09:58:48.500000,-15.11,103.3
141969,2018-06-29 09:58:48.531250,-25.75,103.65
141970,2018-06-29 09:58:48.562500,-38.37,103.65
141971,2018-06-29 09:58:48.593750,-50.51,103.65
141972,2018-06-29 09:58:48.625000,-55.32,103.65
141973,2018-06-29 09:58:48.656250,-47.57,103.65
141974,2018-06-29 09:58:48.687500,-30.11,103.65
141975,2018-06-29 09:58:48.718750,-11.38,103.65
141976,2018-06-29 09:58:48.750000,3.28,103.65
141977,2018-06-29 09:58:48.781250,14.29,103.65
141978,2018-06-29 09:58:48.812500,23.06,103.65
141979,2018-06-29 09:58:48.843750,28.95,103.65
141980,2018-06-29 09:58:48.875000,31.48,103.65
141981,2018-06-29 09:58:48.906250,31.49,103.65
141982,2018-06-29 09:58:48.937500,29.99,103.65
141983,2018-06-29 09:58:48.968750,28.08,103.65
141984,2018-06-29 09:58:49.000000,27.47,103.65
141985,2018-06-29 09:58:49.031250,28.76,103.65
141986,2018-06-29 09:58:49.062500,30.43,103.65
141987,2018-06-29 09:58:49.093750,30.81,103.65
141988,2018-06-29 09:58:49.125000,29.67,103.65
141989,2018-06-29 09:58:49.156250,26.01,103.65
141990,2018-06-29 09:58:49.187500,16.9,103.65
141991,2018-06-29 09:58:49.218750,-0.07,103.65
141992,2018-06-29 09:58:49.250000,-23.15,103.65
141993,2018-06-29 09:58:49.281250,-43.76,103.65
141994,2018-06-29 09:58:49.312500,-48.37,103.65
141995,2018-06-29 09:58:49.343750,-29.02,103.65
141996,2018-06-29 09:58:49.375000,7.04,103.65
141997,2018-06-29 09:58:49.406250,44.22,103.65
141998,2018-06-29 09:58:49.437500,73.02,103.65
141999,2018-06-29 09:58:49.468750,92.23,103.65
142000,2018-06-29 09:58:49.500000,101.93,103.65
142001,2018-06-29 09:58:49.531250,101.74,103.98
142002,2018-06-29 09:58:49.562500,92.57,103.98
142003,2018-06-29 09:58:49.593750,74.43,103.98
142004,2018-06-29 09:58:49.625000,46.73,103.98
142005,2018-06-29 09:58:49.656250,14.3,103.98
142006,2018-06-29 09:58:49.687500,-12.26,103.98
142007,2018-06-29 09:58:49.718750,-27.19,103.98
142008,2018-06-29 09:58:49.750000,-36.07,103.98
142009,2018-06-29 09:58:49.781250,-48.4,103.98
142010,2018-06-29 09:58:49.812500,-67.64,103.98
142011,2018-06-29 09:58:49.843750,-88.65,103.98
142012,2018-06-29 09:58:49.875000,-101.66,103.98
142013,2018-06-29 09:58:49.906250,-100.4,103.98
142014,2018-06-29 09:58:49.937500,-87.63,103.98
142015,2018-06-29 09:58:49.968750,-68.94,103.98
142016,2018-06-29 09:58:50.000000,-43.81,103.98
142017,2018-06-29 09:58:50.031250,-10.08,103.98
142018,2018-06-29 09:58:50.062500,27.06,103.98
142019,2018-06-29 09:58:50.093750,57.84,103.98
142020,2018-06-29 09:58:50.125000,77.93,103.98
142021,2018-06-29 09:58:50.156250,89.85,103.98
142022,2018-06-29 09:58:50.187500,95.59,103.98
142023,2018-06-29 09:58:50.218750,93.87,103.98
142024,2018-06-29 09:58:50.250000,84.29,103.98
142025,2018-06-29 09:58:50.281250,70.37,103.98
142026,2018-06-29 09:58:50.312500,55.52,103.98
142027,2018-06-29 09:58:50.343750,40.52,103.98
142028,2018-06-29 09:58:50.375000,25.08,103.98
142029,2018-06-29 09:58:50.406250,10.17,103.98
142030,2018-06-29 09:58:50.437500,-2.07,103.98
142031,2018-06-29 09:58:50.468750,-8.51,103.98
142032,2018-06-29 09:58:50.500000,-4.61,103.98
142033,2018-06-29 09:58:50.531250,8.98,104.35
142034,2018-06-29 09:58:50.562500,24.99,104.35
142035,2018-06-29 09:58:50.593750,33.64,104.35
142036,2018-06-29 09:58:50.625000,35.25,104.35
142037,2018-06-29 09:58:50.656250,39.46,104.35
142038,2018-06-29 09:58:50.687500,54.11,104.35
142039,2018-06-29 09:58:50.718750,77.83,104.35
142040,2018-06-29 09:58:50.750000,101.53,104.35
142041,2018-06-29 09:58:50.781250,119.16,104.35
142042,2018-06-29 09:58:50.812500,129.16,104.35
142043,2018-06-29 09:58:50.843750,136.61,104.35
142044,2018-06-29 09:58:50.875000,141.32,104.35
142045,2018-06-29 09:58:50.906250,140.35,104.35
142046,2018-06-29 09:58:50.937500,131.01,104.35
142047,2018-06-29 09:58:50.968750,87.74,104.35
142048,2018-06-29 09:58:51.000000,26.64,104.35
142049,2018-06-29 09:58:51.031250,-26.67,104.35
142050,2018-06-29 09:58:51.062500,-73.38,104.35
142051,2018-06-29 09:58:51.093750,-109.84,104.35
142052,2018-06-29 09:58:51.125000,-116.91,104.35
142053,2018-06-29 09:58:51.156250,-95.31,104.35
142054,2018-06-29 09:58:51.187500,-63.38,104.35
142055,2018-06-29 09:58:51.218750,-34.95,104.35
142056,2018-06-29 09:58:51.250000,-13.43,104.35
142057,2018-06-29 09:58:51.281250,3.67,104.35
142058,2018-06-29 09:58:51.312500,20.61,104.35
142059,2018-06-29 09:58:51.343750,41.43,104.35
142060,2018-06-29 09:58:51.375000,61.91,104.35
142061,2018-06-29 09:58:51.406250,76.61,104.35
142062,2018-06-29 09:58:51.437500,81.16,104.35
142063,2018-06-29 09:58:51.468750,75.91,104.35
142064,2018-06-29 09:58:51.500000,65.28,104.35
142065,2018-06-29 09:58:51.531250,53.6,104.68
142066,2018-06-29 09:58:51.562500,48.28,104.68
142067,2018-06-29 09:58:51.593750,43.45,104.68
142068,2018-06-29 09:58:51.625000,32.46,104.68
142069,2018-06-29 09:58:51.656250,13.65,104.68
142070,2018-06-29 09:58:51.687500,-10.12,104.68
142071,2018-06-29 09:58:51.718750,-33.93,104.68
142072,2018-06-29 09:58:51.750000,-48.88,104.68
142073,2018-06-29 09:58:51.781250,-48.9,104.68
142074,2018-06-29 09:58:51.812500,-39.07,104.68
142075,2018-06-29 09:58:51.843750,-32.08,104.68
142076,2018-06-29 09:58:51.875000,-35.42,104.68
142077,2018-06-29 09:58:51.906250,-48.81,104.68
142078,2018-06-29 09:58:51.937500,-67.23,104.68
142079,2018-06-29 09:58:51.968750,-79.22,104.68
142080,2018-06-29 09:58:52.000000,-75.81,104.68
142081,2018-06-29 09:58:52.031250,-63.05,104.68
142082,2018-06-29 09:58:52.062500,-54.4,104.68
142083,2018-06-29 09:58:52.093750,-53.12,104.68
142084,2018-06-29 09:58:52.125000,-55.26,104.68
142085,2018-06-29 09:58:52.156250,-60.05,104.68
142086,2018-06-29 09:58:52.187500,-68.14,104.68
142087,2018-06-29 09:58:52.218750,-80.74,104.68
142088,2018-06-29 09:58:52.250000,-101.46,104.68
142089,2018-06-29 09:58:52.281250,-129.17,104.68
142090,2018-06-29 09:58:52.312500,-152.92,104.68
142091,2018-06-29 09:58:52.343750,-165.15,104.68
142092,2018-06-29 09:58:52.375000,-174.65,104.68
142093,2018-06-29 09:58:52.406250,-193.23,104.68
142094,2018-06-29 09:58:52.437500,-218.11,104.68
142095,2018-06-29 09:58:52.468750,-239.39,104.68
142096,2018-06-29 09:58:52.500000,-256.19,104.68
142097,2018-06-29 09:58:52.531250,-269.79,104.83
142098,2018-06-29 09:58:52.562500,-274.04,104.83
142099,2018-06-29 09:58:52.593750,-266.07,104.83
142100,2018-06-29 09:58:52.625000,-252.35,104.83
142101,2018-06-29 09:58:52.656250,-237.46,104.83
142102,2018-06-29 09:58:52.687500,-214.11,104.83
142103,2018-06-29 09:58:52.718750,-174.35,104.83
142104,2018-06-29 09:58:52.750000,-120.87,104.83
142105,2018-06-29 09:58:52.781250,-65.75,104.83
142106,2018-06-29 09:58:52.812500,-16.87,104.83
142107,2018-06-29 09:58:52.843750,27.45,104.83
142108,2018-06-29 09:58:52.875000,69.18,104.83
142109,2018-06-29 09:58:52.906250,107.81,104.83
142110,2018-06-29 09:58:52.937500,140.99,104.83
142111,2018-06-29 09:58:52.968750,170.43,104.83
142112,2018-06-29 09:58:53.000000,197.76,104.83
142113,2018-06-29 09:58:53.031250,227.64,104.83
142114,2018-06-29 09:58:53.062500,263.9,104.83
142115,2018-06-29 09:58:53.093750,274.1,104.83
142116,2018-06-29 09:58:53.125000,237.82,104.83
142117,2018-06-29 09:58:53.156250,165.26,104.83
142118,2018-06-29 09:58:53.187500,82.54,104.83
142119,2018-06-29 09:58:53.218750,12.71,104.83
142120,2018-06-29 09:58:53.250000,-34.09,104.83
142121,2018-06-29 09:58:53.281250,-57.4,104.83
142122,2018-06-29 09:58:53.312500,-68.28,104.83
142123,2018-06-29 09:58:53.343750,-79.31,104.83
142124,2018-06-29 09:58:53.375000,-88.79,104.83
142125,2018-06-29 09:58:53.406250,-80.04,104.83
142126,2018-06-29 09:58:53.437500,-43.64,104.83
142127,2018-06-29 09:58:53.468750,7.75,104.83
142128,2018-06-29 09:58:53.500000,55.04,104.83
142129,2018-06-29 09:58:53.531250,90.14,104.93
142130,2018-06-29 09:58:53.562500,112.86,104.93
142131,2018-06-29 09:58:53.593750,124.92,104.93
142132,2018-06-29 09:58:53.625000,128.91,104.93
142133,2018-06-29 09:58:53.656250,125.26,104.93
142134,2018-06-29 09:58:53.687500,112.89,104.93
142135,2018-06-29 09:58:53.718750,91.59,104.93
142136,2018-06-29 09:58:53.750000,64.1,104.93
142137,2018-06-29 09:58:53.781250,33.98,104.93
142138,2018-06-29 09:58:53.812500,4.29,104.93
142139,2018-06-29 09:58:53.843750,-22.71,104.93
142140,2018-06-29 09:58:53.875000,-45.49,104.93
142141,2018-06-29 09:58:53.906250,-61.95,104.93
142142,2018-06-29 09:58:53.937500,-69.57,104.93
142143,2018-06-29 09:58:53.968750,-66.93,104.93
142144,2018-06-29 09:58:54.000000,-57.65,104.93
142145,2018-06-29 09:58:54.031250,-49.39,104.93
142146,2018-06-29 09:58:54.062500,-44.12,104.93
142147,2018-06-29 09:58:54.093750,-33.27,104.93
142148,2018-06-29 09:58:54.125000,-8.66,104.93
142149,2018-06-29 09:58:54.156250,26.02,104.93
142150,2018-06-29 09:58:54.187500,59.98,104.93
142151,2018-06-29 09:58:54.218750,85.06,104.93
142152,2018-06-29 09:58:54.250000,97.21,104.93
142153,2018-06-29 09:58:54.281250,95.98,104.93
142154,2018-06-29 09:58:54.312500,85.56,104.93
142155,2018-06-29 09:58:54.343750,72.66,104.93
142156,2018-06-29 09:58:54.375000,62.3,104.93
142157,2018-06-29 09:58:54.406250,55.69,104.93
142158,2018-06-29 09:58:54.437500,51.16,104.93
142159,2018-06-29 09:58:54.468750,46.76,104.93
142160,2018-06-29 09:58:54.500000,40.98,104.93
142161,2018-06-29 09:58:54.531250,30.53,104.88
142162,2018-06-29 09:58:54.562500,12.64,104.88
142163,2018-06-29 09:58:54.593750,-9.35,104.88
142164,2018-06-29 09:58:54.625000,-28.19,104.88
142165,2018-06-29 09:58:54.656250,-41.67,104.88
142166,2018-06-29 09:58:54.687500,-54.03,104.88
142167,2018-06-29 09:58:54.718750,-68.03,104.88
142168,2018-06-29 09:58:54.750000,-79.74,104.88
142169,2018-06-29 09:58:54.781250,-80.58,104.88
142170,2018-06-29 09:58:54.812500,-63.99,104.88
142171,2018-06-29 09:58:54.843750,-33.43,104.88
142172,2018-06-29 09:58:54.875000,-1.92,104.88
142173,2018-06-29 09:58:54.906250,20.42,104.88
142174,2018-06-29 09:58:54.937500,34.5,104.88
142175,2018-06-29 09:58:54.968750,45.75,104.88
142176,2018-06-29 09:58:55.000000,55.67,104.88
142177,2018-06-29 09:58:55.031250,63.69,104.88
142178,2018-06-29 09:58:55.062500,72.16,104.88
142179,2018-06-29 09:58:55.093750,84.01,104.88
142180,2018-06-29 09:58:55.125000,98.58,104.88
142181,2018-06-29 09:58:55.156250,113.43,104.88
142182,2018-06-29 09:58:55.187500,126.93,104.88
142183,2018-06-29 09:58:55.218750,135.3,104.88
142184,2018-06-29 09:58:55.250000,132.04,104.88
142185,2018-06-29 09:58:55.281250,114.63,104.88
142186,2018-06-29 09:58:55.312500,87.95,104.88
142187,2018-06-29 09:58:55.343750,57.02,104.88
142188,2018-06-29 09:58:55.375000,21.22,104.88
142189,2018-06-29 09:58:55.406250,-21.69,104.88
142190,2018-06-29 09:58:55.437500,-69.28,104.88
142191,2018-06-29 09:58:55.468750,-112.5,104.88
142192,2018-06-29 09:58:55.500000,-136.66,104.88
142193,2018-06-29 09:58:55.531250,-129.64,104.58
142194,2018-06-29 09:58:55.562500,-94.7,104.58
142195,2018-06-29 09:58:55.593750,-50.17,104.58
142196,2018-06-29 09:58:55.625000,-13.16,104.58
142197,2018-06-29 09:58:55.656250,11.6,104.58
142198,2018-06-29 09:58:55.687500,26.8,104.58
142199,2018-06-29 09:58:55.718750,33.8,104.58
142200,2018-06-29 09:58:55.750000,31.25,104.58
142201,2018-06-29 09:58:55.781250,19.46,104.58
142202,2018-06-29 09:58:55.812500,3.79,104.58
142203,2018-06-29 09:58:55.843750,-7.01,104.58
142204,2018-06-29 09:58:55.875000,-6.75,104.58
142205,2018-06-29 09:58:55.906250,2.92,104.58
142206,2018-06-29 09:58:55.937500,12.75,104.58
142207,2018-06-29 09:58:55.968750,12.5,104.58
142208,2018-06-29 09:58:56.000000,-0.29,104.58
142209,2018-06-29 09:58:56.031250,-18.28,104.58
142210,2018-06-29 09:58:56.062500,-32.74,104.58
142211,2018-06-29 09:58:56.093750,-43.11,104.58
142212,2018-06-29 09:58:56.125000,-54.95,104.58
142213,2018-06-29 09:58:56.156250,-67.46,104.58
142214,2018-06-29 09:58:56.187500,-68.58,104.58
142215,2018-06-29 09:58:56.218750,-46.58,104.58
142216,2018-06-29 09:58:56.250000,-4.02,104.58
142217,2018-06-29 09:58:56.281250,43.26,104.58
142218,2018-06-29 09:58:56.312500,77.73,104.58
142219,2018-06-29 09:58:56.343750,90.54,104.58
142220,2018-06-29 09:58:56.375000,84.74,104.58
142221,2018-06-29 09:58:56.406250,70.54,104.58
142222,2018-06-29 09:58:56.437500,55.84,104.58
142223,2018-06-29 09:58:56.468750,41.42,104.58
142224,2018-06-29 09:58:56.500000,25.85,104.58
142225,2018-06-29 09:58:56.531250,10.78,104.28
142226,2018-06-29 09:58:56.562500,-2.56,104.28
142227,2018-06-29 09:58:56.593750,-18.41,104.28
142228,2018-06-29 09:58:56.625000,-41.0,104.28
142229,2018-06-29 09:58:56.656250,-65.1,104.28
142230,2018-06-29 09:58:56.687500,-79.81,104.28
142231,2018-06-29 09:58:56.718750,-81.64,104.28
142232,2018-06-29 09:58:56.750000,-77.61,104.28
142233,2018-06-29 09:58:56.781250,-76.28,104.28
142234,2018-06-29 09:58:56.812500,-81.16,104.28
142235,2018-06-29 09:58:56.843750,-89.53,104.28
142236,2018-06-29 09:58:56.875000,-92.42,104.28
142237,2018-06-29 09:58:56.906250,-81.04,104.28
142238,2018-06-29 09:58:56.937500,-56.14,104.28
142239,2018-06-29 09:58:56.968750,-26.63,104.28
142240,2018-06-29 09:58:57.000000,-0.43,104.28
142241,2018-06-29 09:58:57.031250,18.33,104.28
142242,2018-06-29 09:58:57.062500,26.79,104.28
142243,2018-06-29 09:58:57.093750,24.47,104.28
142244,2018-06-29 09:58:57.125000,14.99,104.28
142245,2018-06-29 09:58:57.156250,3.2,104.28
142246,2018-06-29 09:58:57.187500,-8.13,104.28
142247,2018-06-29 09:58:57.218750,-18.3,104.28
142248,2018-06-29 09:58:57.250000,-27.26,104.28
142249,2018-06-29 09:58:57.281250,-35.45,104.28
142250,2018-06-29 09:58:57.312500,-42.91,104.28
142251,2018-06-29 09:58:57.343750,-47.56,104.28
142252,2018-06-29 09:58:57.375000,-46.39,104.28
142253,2018-06-29 09:58:57.406250,-38.54,104.28
142254,2018-06-29 09:58:57.437500,-25.09,104.28
142255,2018-06-29 09:58:57.468750,-8.02,104.28
142256,2018-06-29 09:58:57.500000,10.06,104.28
142257,2018-06-29 09:58:57.531250,29.8,104.0
142258,2018-06-29 09:58:57.562500,56.98,104.0
142259,2018-06-29 09:58:57.593750,92.17,104.0
142260,2018-06-29 09:58:57.625000,122.35,104.0
142261,2018-06-29 09:58:57.656250,131.65,104.0
142262,2018-06-29 09:58:57.687500,117.18,104.0
142263,2018-06-29 09:58:57.718750,87.65,104.0
142264,2018-06-29 09:58:57.750000,52.3,104.0
142265,2018-06-29 09:58:57.781250,16.63,104.0
142266,2018-06-29 09:58:57.812500,-15.08,104.0
142267,2018-06-29 09:58:57.843750,-37.12,104.0
142268,2018-06-29 09:58:57.875000,-42.36,104.0
142269,2018-06-29 09:58:57.906250,-28.26,104.0
142270,2018-06-29 09:58:57.937500,-2.91,104.0
142271,2018-06-29 09:58:57.968750,21.45,104.0
142272,2018-06-29 09:58:58.000000,40.67,104.0
142273,2018-06-29 09:58:58.031250,57.42,104.0
142274,2018-06-29 09:58:58.062500,70.71,104.0
142275,2018-06-29 09:58:58.093750,75.69,104.0
142276,2018-06-29 09:58:58.125000,71.39,104.0
142277,2018-06-29 09:58:58.156250,61.77,104.0
142278,2018-06-29 09:58:58.187500,53.01,104.0
142279,2018-06-29 09:58:58.218750,51.51,104.0
142280,2018-06-29 09:58:58.250000,58.63,104.0
142281,2018-06-29 09:58:58.281250,66.76,104.0
142282,2018-06-29 09:58:58.312500,65.93,104.0
142283,2018-06-29 09:58:58.343750,53.54,104.0
142284,2018-06-29 09:58:58.375000,35.19,104.0
142285,2018-06-29 09:58:58.406250,18.3,104.0
142286,2018-06-29 09:58:58.437500,5.79,104.0
142287,2018-06-29 09:58:58.468750,-4.95,104.0
142288,2018-06-29 09:58:58.500000,-16.59,104.0
142289,2018-06-29 09:58:58.531250,-27.11,103.72
142290,2018-06-29 09:58:58.562500,-32.99,103.72
142291,2018-06-29 09:58:58.593750,-34.66,103.72
142292,2018-06-29 09:58:58.625000,-35.13,103.72
142293,2018-06-29 09:58:58.656250,-35.64,103.72
142294,2018-06-29 09:58:58.687500,-36.03,103.72
142295,2018-06-29 09:58:58.718750,-36.42,103.72
142296,2018-06-29 09:58:58.750000,-36.4,103.72
142297,2018-06-29 09:58:58.781250,-36.29,103.72
142298,2018-06-29 09:58:58.812500,-38.25,103.72
142299,2018-06-29 09:58:58.843750,-41.1,103.72
142300,2018-06-29 09:58:58.875000,-39.47,103.72
142301,2018-06-29 09:58:58.906250,-33.43,103.72
142302,2018-06-29 09:58:58.937500,-31.5,103.72
142303,2018-06-29 09:58:58.968750,-40.18,103.72
142304,2018-06-29 09:58:59.000000,-57.57,103.72
142305,2018-06-29 09:58:59.031250,-76.63,103.72
142306,2018-06-29 09:58:59.062500,-86.52,103.72
142307,2018-06-29 09:58:59.093750,-76.67,103.72
142308,2018-06-29 09:58:59.125000,-46.62,103.72
142309,2018-06-29 09:58:59.156250,-7.89,103.72
142310,2018-06-29 09:58:59.187500,26.23,103.72
142311,2018-06-29 09:58:59.218750,48.58,103.72
142312,2018-06-29 09:58:59.250000,57.75,103.72
142313,2018-06-29 09:58:59.281250,55.38,103.72
142314,2018-06-29 09:58:59.312500,44.15,103.72
142315,2018-06-29 09:58:59.343750,27.87,103.72
142316,2018-06-29 09:58:59.375000,11.52,103.72
142317,2018-06-29 09:58:59.406250,-1.38,103.72
142318,2018-06-29 09:58:59.437500,-11.6,103.72
142319,2018-06-29 09:58:59.468750,-21.79,103.72
142320,2018-06-29 09:58:59.500000,-29.38,103.72
142321,2018-06-29 09:58:59.531250,-25.32,103.43
142322,2018-06-29 09:58:59.562500,-4.33,103.43
142323,2018-06-29 09:58:59.593750,26.1,103.43
142324,2018-06-29 09:58:59.625000,52.04,103.43
142325,2018-06-29 09:58:59.656250,66.33,103.43
142326,2018-06-29 09:58:59.687500,71.48,103.43
142327,2018-06-29 09:58:59.718750,72.01,103.43
142328,2018-06-29 09:58:59.750000,68.47,103.43
142329,2018-06-29 09:58:59.781250,58.73,103.43
142330,2018-06-29 09:58:59.812500,42.25,103.43
142331,2018-06-29 09:58:59.843750,21.63,103.43
142332,2018-06-29 09:58:59.875000,0.89,103.43
142333,2018-06-29 09:58:59.906250,-17.26,103.43
142334,2018-06-29 09:58:59.937500,-32.91,103.43
142335,2018-06-29 09:58:59.968750,-48.64,103.43
142336,2018-06-29 09:59:00.000000,-67.0,103.43
142337,2018-06-29 09:59:00.031250,-87.38,103.43
142338,2018-06-29 09:59:00.062500,-105.47,103.43
142339,2018-06-29 09:59:00.093750,-117.67,103.43
142340,2018-06-29 09:59:00.125000,-125.34,103.43
142341,2018-06-29 09:59:00.156250,-131.7,103.43
142342,2018-06-29 09:59:00.187500,-134.2,103.43
142343,2018-06-29 09:59:00.218750,-124.28,103.43
142344,2018-06-29 09:59:00.250000,-97.9,103.43
142345,2018-06-29 09:59:00.281250,-62.42,103.43
142346,2018-06-29 09:59:00.312500,-29.76,103.43
142347,2018-06-29 09:59:00.343750,-5.0,103.43
142348,2018-06-29 09:59:00.375000,16.38,103.43
142349,2018-06-29 09:59:00.406250,40.39,103.43
142350,2018-06-29 09:59:00.437500,65.42,103.43
142351,2018-06-29 09:59:00.468750,83.32,103.43
142352,2018-06-29 09:59:00.500000,89.4,103.43
142353,2018-06-29 09:59:00.531250,86.76,103.17
142354,2018-06-29 09:59:00.562500,80.55,103.17
142355,2018-06-29 09:59:00.593750,71.92,103.17
142356,2018-06-29 09:59:00.625000,58.96,103.17
142357,2018-06-29 09:59:00.656250,40.33,103.17
142358,2018-06-29 09:59:00.687500,18.18,103.17
142359,2018-06-29 09:59:00.718750,-1.29,103.17
142360,2018-06-29 09:59:00.750000,-13.11,103.17
142361,2018-06-29 09:59:00.781250,-20.38,103.17
142362,2018-06-29 09:59:00.812500,-30.28,103.17
142363,2018-06-29 09:59:00.843750,-46.15,103.17
142364,2018-06-29 09:59:00.875000,-70.12,103.17
142365,2018-06-29 09:59:00.906250,-102.42,103.17
142366,2018-06-29 09:59:00.937500,-131.37,103.17
142367,2018-06-29 09:59:00.968750,-134.32,103.17
142368,2018-06-29 09:59:01.000000,-92.92,103.17
142369,2018-06-29 09:59:01.031250,-3.8,103.17
142370,2018-06-29 09:59:01.062500,115.72,103.17
142371,2018-06-29 09:59:01.093750,231.88,103.17
142372,2018-06-29 09:59:01.125000,317.42,103.17
142373,2018-06-29 09:59:01.156250,366.61,103.17
142374,2018-06-29 09:59:01.187500,377.92,103.17
142375,2018-06-29 09:59:01.218750,343.56,103.17
142376,2018-06-29 09:59:01.250000,269.12,103.17
142377,2018-06-29 09:59:01.281250,178.71,103.17
142378,2018-06-29 09:59:01.312500,91.83,103.17
142379,2018-06-29 09:59:01.343750,12.48,103.17
142380,2018-06-29 09:59:01.375000,-56.82,103.17
142381,2018-06-29 09:59:01.406250,-111.68,103.17
142382,2018-06-29 09:59:01.437500,-152.41,103.17
142383,2018-06-29 09:59:01.468750,-181.81,103.17
142384,2018-06-29 09:59:01.500000,-204.92,103.17
142385,2018-06-29 09:59:01.531250,-230.13,102.92
142386,2018-06-29 09:59:01.562500,-255.55,102.92
142387,2018-06-29 09:59:01.593750,-248.82,102.92
142388,2018-06-29 09:59:01.625000,-190.8,102.92
142389,2018-06-29 09:59:01.656250,-114.77,102.92
142390,2018-06-29 09:59:01.687500,-49.91,102.92
142391,2018-06-29 09:59:01.718750,5.25,102.92
142392,2018-06-29 09:59:01.750000,46.93,102.92
142393,2018-06-29 09:59:01.781250,64.04,102.92
142394,2018-06-29 09:59:01.812500,65.03,102.92
142395,2018-06-29 09:59:01.843750,65.65,102.92
142396,2018-06-29 09:59:01.875000,62.79,102.92
142397,2018-06-29 09:59:01.906250,51.73,102.92
142398,2018-06-29 09:59:01.937500,35.37,102.92
142399,2018-06-29 09:59:01.968750,23.31,102.92
142400,2018-06-29 09:59:02.000000,20.27,102.92
142401,2018-06-29 09:59:02.031250,19.61,102.92
142402,2018-06-29 09:59:02.062500,11.08,102.92
142403,2018-06-29 09:59:02.093750,-2.3,102.92
142404,2018-06-29 09:59:02.125000,-7.72,102.92
142405,2018-06-29 09:59:02.156250,-0.2,102.92
142406,2018-06-29 09:59:02.187500,12.92,102.92
142407,2018-06-29 09:59:02.218750,24.4,102.92
142408,2018-06-29 09:59:02.250000,31.35,102.92
142409,2018-06-29 09:59:02.281250,30.04,102.92
142410,2018-06-29 09:59:02.312500,19.15,102.92
142411,2018-06-29 09:59:02.343750,5.47,102.92
142412,2018-06-29 09:59:02.375000,0.22,102.92
142413,2018-06-29 09:59:02.406250,7.16,102.92
142414,2018-06-29 09:59:02.437500,20.56,102.92
142415,2018-06-29 09:59:02.468750,32.97,102.92
142416,2018-06-29 09:59:02.500000,41.16,102.92
142417,2018-06-29 09:59:02.531250,44.73,102.68
142418,2018-06-29 09:59:02.562500,42.84,102.68
142419,2018-06-29 09:59:02.593750,34.54,102.68
142420,2018-06-29 09:59:02.625000,20.62,102.68
142421,2018-06-29 09:59:02.656250,4.18,102.68
142422,2018-06-29 09:59:02.687500,-10.51,102.68
142423,2018-06-29 09:59:02.718750,-20.32,102.68
142424,2018-06-29 09:59:02.750000,-24.92,102.68
142425,2018-06-29 09:59:02.781250,-26.99,102.68
142426,2018-06-29 09:59:02.812500,-30.2,102.68
142427,2018-06-29 09:59:02.843750,-36.55,102.68
142428,2018-06-29 09:59:02.875000,-45.05,102.68
142429,2018-06-29 09:59:02.906250,-52.21,102.68
142430,2018-06-29 09:59:02.937500,-55.42,102.68
142431,2018-06-29 09:59:02.968750,-56.26,102.68
142432,2018-06-29 09:59:03.000000,-60.26,102.68
142433,2018-06-29 09:59:03.031250,-70.72,102.68
142434,2018-06-29 09:59:03.062500,-83.64,102.68
142435,2018-06-29 09:59:03.093750,-89.78,102.68
142436,2018-06-29 09:59:03.125000,-83.9,102.68
142437,2018-06-29 09:59:03.156250,-68.52,102.68
142438,2018-06-29 09:59:03.187500,-49.85,102.68
142439,2018-06-29 09:59:03.218750,-35.67,102.68
142440,2018-06-29 09:59:03.250000,-31.34,102.68
142441,2018-06-29 09:59:03.281250,-36.61,102.68
142442,2018-06-29 09:59:03.312500,-41.61,102.68
142443,2018-06-29 09:59:03.343750,-39.45,102.68
142444,2018-06-29 09:59:03.375000,-34.49,102.68
142445,2018-06-29 09:59:03.406250,-36.97,102.68
142446,2018-06-29 09:59:03.437500,-48.22,102.68
142447,2018-06-29 09:59:03.468750,-56.85,102.68
142448,2018-06-29 09:59:03.500000,-56.63,102.68
142449,2018-06-29 09:59:03.531250,-52.37,102.43
142450,2018-06-29 09:59:03.562500,-57.0,102.43
142451,2018-06-29 09:59:03.593750,-70.62,102.43
142452,2018-06-29 09:59:03.625000,-79.74,102.43
142453,2018-06-29 09:59:03.656250,-60.62,102.43
142454,2018-06-29 09:59:03.687500,14.43,102.43
142455,2018-06-29 09:59:03.718750,89.17,102.43
142456,2018-06-29 09:59:03.750000,102.17,102.43
142457,2018-06-29 09:59:03.781250,65.69,102.43
142458,2018-06-29 09:59:03.812500,20.78,102.43
142459,2018-06-29 09:59:03.843750,-14.34,102.43
142460,2018-06-29 09:59:03.875000,-25.18,102.43
142461,2018-06-29 09:59:03.906250,-9.38,102.43
142462,2018-06-29 09:59:03.937500,14.5,102.43
142463,2018-06-29 09:59:03.968750,26.46,102.43
142464,2018-06-29 09:59:04.000000,25.58,102.43
142465,2018-06-29 09:59:04.031250,26.8,102.43
142466,2018-06-29 09:59:04.062500,33.77,102.43
142467,2018-06-29 09:59:04.093750,41.01,102.43
142468,2018-06-29 09:59:04.125000,42.96,102.43
142469,2018-06-29 09:59:04.156250,43.35,102.43
142470,2018-06-29 09:59:04.187500,47.65,102.43
142471,2018-06-29 09:59:04.218750,56.14,102.43
142472,2018-06-29 09:59:04.250000,62.2,102.43
142473,2018-06-29 09:59:04.281250,59.52,102.43
142474,2018-06-29 09:59:04.312500,47.69,102.43
142475,2018-06-29 09:59:04.343750,29.54,102.43
142476,2018-06-29 09:59:04.375000,9.23,102.43
142477,2018-06-29 09:59:04.406250,-9.88,102.43
142478,2018-06-29 09:59:04.437500,-26.63,102.43
142479,2018-06-29 09:59:04.468750,-42.6,102.43
142480,2018-06-29 09:59:04.500000,-59.16,102.43
142481,2018-06-29 09:59:04.531250,-75.1,102.17
142482,2018-06-29 09:59:04.562500,-84.27,102.17
142483,2018-06-29 09:59:04.593750,-78.02,102.17
142484,2018-06-29 09:59:04.625000,-55.36,102.17
142485,2018-06-29 09:59:04.656250,-26.7,102.17
142486,2018-06-29 09:59:04.687500,-3.41,102.17
142487,2018-06-29 09:59:04.718750,11.75,102.17
142488,2018-06-29 09:59:04.750000,21.32,102.17
142489,2018-06-29 09:59:04.781250,26.79,102.17
142490,2018-06-29 09:59:04.812500,28.35,102.17
142491,2018-06-29 09:59:04.843750,27.34,102.17
142492,2018-06-29 09:59:04.875000,25.44,102.17
142493,2018-06-29 09:59:04.906250,22.73,102.17
142494,2018-06-29 09:59:04.937500,18.8,102.17
142495,2018-06-29 09:59:04.968750,15.54,102.17
142496,2018-06-29 09:59:05.000000,13.75,102.17
142497,2018-06-29 09:59:05.031250,9.29,102.17
142498,2018-06-29 09:59:05.062500,-0.72,102.17
142499,2018-06-29 09:59:05.093750,-11.03,102.17
142500,2018-06-29 09:59:05.125000,-14.92,102.17
142501,2018-06-29 09:59:05.156250,-13.58,102.17
142502,2018-06-29 09:59:05.187500,-12.44,102.17
142503,2018-06-29 09:59:05.218750,-14.22,102.17
142504,2018-06-29 09:59:05.250000,-18.87,102.17
142505,2018-06-29 09:59:05.281250,-25.42,102.17
142506,2018-06-29 09:59:05.312500,-26.99,102.17
142507,2018-06-29 09:59:05.343750,-13.8,102.17
142508,2018-06-29 09:59:05.375000,15.81,102.17
142509,2018-06-29 09:59:05.406250,52.56,102.17
142510,2018-06-29 09:59:05.437500,83.47,102.17
142511,2018-06-29 09:59:05.468750,103.12,102.17
142512,2018-06-29 09:59:05.500000,114.44,102.17
142513,2018-06-29 09:59:05.531250,125.6,101.95
142514,2018-06-29 09:59:05.562500,137.46,101.95
142515,2018-06-29 09:59:05.593750,143.79,101.95
142516,2018-06-29 09:59:05.625000,140.78,101.95
142517,2018-06-29 09:59:05.656250,133.22,101.95
142518,2018-06-29 09:59:05.687500,131.28,101.95
142519,2018-06-29 09:59:05.718750,137.32,101.95
142520,2018-06-29 09:59:05.750000,140.05,101.95
142521,2018-06-29 09:59:05.781250,97.08,101.95
142522,2018-06-29 09:59:05.812500,-6.71,101.95
142523,2018-06-29 09:59:05.843750,-106.72,101.95
142524,2018-06-29 09:59:05.875000,-152.94,101.95
142525,2018-06-29 09:59:05.906250,-151.27,101.95
142526,2018-06-29 09:59:05.937500,-120.84,101.95
142527,2018-06-29 09:59:05.968750,-83.6,101.95
142528,2018-06-29 09:59:06.000000,-61.7,101.95
142529,2018-06-29 09:59:06.031250,-49.21,101.95
142530,2018-06-29 09:59:06.062500,-24.7,101.95
142531,2018-06-29 09:59:06.093750,13.91,101.95
142532,2018-06-29 09:59:06.125000,50.84,101.95
142533,2018-06-29 09:59:06.156250,75.31,101.95
142534,2018-06-29 09:59:06.187500,85.19,101.95
142535,2018-06-29 09:59:06.218750,83.07,101.95
142536,2018-06-29 09:59:06.250000,80.04,101.95
142537,2018-06-29 09:59:06.281250,85.15,101.95
142538,2018-06-29 09:59:06.312500,95.56,101.95
142539,2018-06-29 09:59:06.343750,100.14,101.95
142540,2018-06-29 09:59:06.375000,95.85,101.95
142541,2018-06-29 09:59:06.406250,82.69,101.95
142542,2018-06-29 09:59:06.437500,56.81,101.95
142543,2018-06-29 09:59:06.468750,17.73,101.95
142544,2018-06-29 09:59:06.500000,-30.02,101.95
142545,2018-06-29 09:59:06.531250,-82.22,101.77
142546,2018-06-29 09:59:06.562500,-136.58,101.77
142547,2018-06-29 09:59:06.593750,-192.58,101.77
142548,2018-06-29 09:59:06.625000,-249.52,101.77
142549,2018-06-29 09:59:06.656250,-295.93,101.77
142550,2018-06-29 09:59:06.687500,-309.72,101.77
142551,2018-06-29 09:59:06.718750,-279.75,101.77
142552,2018-06-29 09:59:06.750000,-221.5,101.77
142553,2018-06-29 09:59:06.781250,-162.42,101.77
142554,2018-06-29 09:59:06.812500,-117.56,101.77
142555,2018-06-29 09:59:06.843750,-81.24,101.77
142556,2018-06-29 09:59:06.875000,-39.95,101.77
142557,2018-06-29 09:59:06.906250,6.95,101.77
142558,2018-06-29 09:59:06.937500,43.64,101.77
142559,2018-06-29 09:59:06.968750,60.44,101.77
142560,2018-06-29 09:59:07.000000,69.82,101.77
142561,2018-06-29 09:59:07.031250,88.7,101.77
142562,2018-06-29 09:59:07.062500,118.55,101.77
142563,2018-06-29 09:59:07.093750,152.57,101.77
142564,2018-06-29 09:59:07.125000,184.28,101.77
142565,2018-06-29 09:59:07.156250,200.08,101.77
142566,2018-06-29 09:59:07.187500,181.06,101.77
142567,2018-06-29 09:59:07.218750,121.26,101.77
142568,2018-06-29 09:59:07.250000,34.54,101.77
142569,2018-06-29 09:59:07.281250,-58.59,101.77
142570,2018-06-29 09:59:07.312500,-143.23,101.77
142571,2018-06-29 09:59:07.343750,-208.23,101.77
142572,2018-06-29 09:59:07.375000,-241.35,101.77
142573,2018-06-29 09:59:07.406250,-236.58,101.77
142574,2018-06-29 09:59:07.437500,-202.32,101.77
142575,2018-06-29 09:59:07.468750,-151.14,101.77
142576,2018-06-29 09:59:07.500000,-88.7,101.77
142577,2018-06-29 09:59:07.531250,-20.56,101.57
142578,2018-06-29 09:59:07.562500,44.44,101.57
142579,2018-06-29 09:59:07.593750,103.52,101.57
142580,2018-06-29 09:59:07.625000,157.29,101.57
142581,2018-06-29 09:59:07.656250,196.3,101.57
142582,2018-06-29 09:59:07.687500,204.78,101.57
142583,2018-06-29 09:59:07.718750,177.8,101.57
142584,2018-06-29 09:59:07.750000,125.46,101.57
142585,2018-06-29 09:59:07.781250,62.63,101.57
142586,2018-06-29 09:59:07.812500,0.7,101.57
142587,2018-06-29 09:59:07.843750,-52.17,101.57
142588,2018-06-29 09:59:07.875000,-89.21,101.57
142589,2018-06-29 09:59:07.906250,-108.02,101.57
142590,2018-06-29 09:59:07.937500,-114.46,101.57
142591,2018-06-29 09:59:07.968750,-119.54,101.57
142592,2018-06-29 09:59:08.000000,-127.85,101.57
142593,2018-06-29 09:59:08.031250,-130.31,101.57
142594,2018-06-29 09:59:08.062500,-112.92,101.57
142595,2018-06-29 09:59:08.093750,-73.34,101.57
142596,2018-06-29 09:59:08.125000,-26.92,101.57
142597,2018-06-29 09:59:08.156250,5.19,101.57
142598,2018-06-29 09:59:08.187500,18.97,101.57
142599,2018-06-29 09:59:08.218750,36.65,101.57
142600,2018-06-29 09:59:08.250000,83.13,101.57
142601,2018-06-29 09:59:08.281250,154.21,101.57
142602,2018-06-29 09:59:08.312500,216.83,101.57
142603,2018-06-29 09:59:08.343750,237.47,101.57
142604,2018-06-29 09:59:08.375000,203.99,101.57
142605,2018-06-29 09:59:08.406250,128.54,101.57
142606,2018-06-29 09:59:08.437500,38.52,101.57
142607,2018-06-29 09:59:08.468750,-39.87,101.57
142608,2018-06-29 09:59:08.500000,-94.77,101.57
142609,2018-06-29 09:59:08.531250,-127.13,101.35
142610,2018-06-29 09:59:08.562500,-141.02,101.35
142611,2018-06-29 09:59:08.593750,-139.19,101.35
142612,2018-06-29 09:59:08.625000,-125.47,101.35
142613,2018-06-29 09:59:08.656250,-107.75,101.35
142614,2018-06-29 09:59:08.687500,-94.04,101.35
142615,2018-06-29 09:59:08.718750,-80.33,101.35
142616,2018-06-29 09:59:08.750000,-53.22,101.35
142617,2018-06-29 09:59:08.781250,-12.23,101.35
142618,2018-06-29 09:59:08.812500,25.25,101.35
142619,2018-06-29 09:59:08.843750,47.47,101.35
142620,2018-06-29 09:59:08.875000,59.09,101.35
142621,2018-06-29 09:59:08.906250,65.8,101.35
142622,2018-06-29 09:59:08.937500,66.35,101.35
142623,2018-06-29 09:59:08.968750,60.81,101.35
142624,2018-06-29 09:59:09.000000,54.23,101.35
142625,2018-06-29 09:59:09.031250,51.23,101.35
142626,2018-06-29 09:59:09.062500,52.0,101.35
142627,2018-06-29 09:59:09.093750,53.97,101.35
142628,2018-06-29 09:59:09.125000,55.69,101.35
142629,2018-06-29 09:59:09.156250,57.26,101.35
142630,2018-06-29 09:59:09.187500,58.46,101.35
142631,2018-06-29 09:59:09.218750,58.49,101.35
142632,2018-06-29 09:59:09.250000,55.49,101.35
142633,2018-06-29 09:59:09.281250,43.9,101.35
142634,2018-06-29 09:59:09.312500,17.63,101.35
142635,2018-06-29 09:59:09.343750,-18.76,101.35
142636,2018-06-29 09:59:09.375000,-49.43,101.35
142637,2018-06-29 09:59:09.406250,-63.63,101.35
142638,2018-06-29 09:59:09.437500,-64.09,101.35
142639,2018-06-29 09:59:09.468750,-57.11,101.35
142640,2018-06-29 09:59:09.500000,-46.36,101.35
142641,2018-06-29 09:59:09.531250,-36.55,101.13
142642,2018-06-29 09:59:09.562500,-31.33,101.13
142643,2018-06-29 09:59:09.593750,-28.35,101.13
142644,2018-06-29 09:59:09.625000,-24.02,101.13
142645,2018-06-29 09:59:09.656250,-19.27,101.13
142646,2018-06-29 09:59:09.687500,-15.45,101.13
142647,2018-06-29 09:59:09.718750,-9.9,101.13
142648,2018-06-29 09:59:09.750000,-0.67,101.13
142649,2018-06-29 09:59:09.781250,8.67,101.13
142650,2018-06-29 09:59:09.812500,12.97,101.13
142651,2018-06-29 09:59:09.843750,11.38,101.13
142652,2018-06-29 09:59:09.875000,6.78,101.13
142653,2018-06-29 09:59:09.906250,2.32,101.13
142654,2018-06-29 09:59:09.937500,-0.12,101.13
142655,2018-06-29 09:59:09.968750,-0.03,101.13
142656,2018-06-29 09:59:10.000000,2.57,101.13
142657,2018-06-29 09:59:10.031250,6.69,101.13
142658,2018-06-29 09:59:10.062500,9.24,101.13
142659,2018-06-29 09:59:10.093750,7.48,101.13
142660,2018-06-29 09:59:10.125000,4.15,101.13
142661,2018-06-29 09:59:10.156250,5.49,101.13
142662,2018-06-29 09:59:10.187500,13.67,101.13
142663,2018-06-29 09:59:10.218750,25.59,101.13
142664,2018-06-29 09:59:10.250000,38.45,101.13
142665,2018-06-29 09:59:10.281250,52.64,101.13
142666,2018-06-29 09:59:10.312500,67.93,101.13
142667,2018-06-29 09:59:10.343750,80.35,101.13
142668,2018-06-29 09:59:10.375000,86.14,101.13
142669,2018-06-29 09:59:10.406250,87.84,101.13
142670,2018-06-29 09:59:10.437500,91.71,101.13
142671,2018-06-29 09:59:10.468750,98.15,101.13
142672,2018-06-29 09:59:10.500000,98.02,101.13
142673,2018-06-29 09:59:10.531250,79.75,100.95
142674,2018-06-29 09:59:10.562500,40.9,100.95
142675,2018-06-29 09:59:10.593750,-6.79,100.95
142676,2018-06-29 09:59:10.625000,-46.21,100.95
142677,2018-06-29 09:59:10.656250,-68.17,100.95
142678,2018-06-29 09:59:10.687500,-74.2,100.95
142679,2018-06-29 09:59:10.718750,-70.8,100.95
142680,2018-06-29 09:59:10.750000,-65.32,100.95
142681,2018-06-29 09:59:10.781250,-63.21,100.95
142682,2018-06-29 09:59:10.812500,-65.12,100.95
142683,2018-06-29 09:59:10.843750,-66.44,100.95
142684,2018-06-29 09:59:10.875000,-60.05,100.95
142685,2018-06-29 09:59:10.906250,-42.67,100.95
142686,2018-06-29 09:59:10.937500,-19.05,100.95
142687,2018-06-29 09:59:10.968750,3.08,100.95
142688,2018-06-29 09:59:11.000000,20.16,100.95
142689,2018-06-29 09:59:11.031250,32.34,100.95
142690,2018-06-29 09:59:11.062500,39.69,100.95
142691,2018-06-29 09:59:11.093750,43.0,100.95
142692,2018-06-29 09:59:11.125000,45.64,100.95
142693,2018-06-29 09:59:11.156250,50.75,100.95
142694,2018-06-29 09:59:11.187500,55.84,100.95
142695,2018-06-29 09:59:11.218750,52.51,100.95
142696,2018-06-29 09:59:11.250000,34.54,100.95
142697,2018-06-29 09:59:11.281250,5.36,100.95
142698,2018-06-29 09:59:11.312500,-23.42,100.95
142699,2018-06-29 09:59:11.343750,-40.6,100.95
142700,2018-06-29 09:59:11.375000,-43.27,100.95
142701,2018-06-29 09:59:11.406250,-37.01,100.95
142702,2018-06-29 09:59:11.437500,-28.75,100.95
142703,2018-06-29 09:59:11.468750,-22.1,100.95
142704,2018-06-29 09:59:11.500000,-19.03,100.95
142705,2018-06-29 09:59:11.531250,-19.92,100.68
142706,2018-06-29 09:59:11.562500,-19.75,100.68
142707,2018-06-29 09:59:11.593750,-10.01,100.68
142708,2018-06-29 09:59:11.625000,12.16,100.68
142709,2018-06-29 09:59:11.656250,39.21,100.68
142710,2018-06-29 09:59:11.687500,60.82,100.68
142711,2018-06-29 09:59:11.718750,74.76,100.68
142712,2018-06-29 09:59:11.750000,86.39,100.68
142713,2018-06-29 09:59:11.781250,97.11,100.68
142714,2018-06-29 09:59:11.812500,98.05,100.68
142715,2018-06-29 09:59:11.843750,77.53,100.68
142716,2018-06-29 09:59:11.875000,34.72,100.68
142717,2018-06-29 09:59:11.906250,-13.37,100.68
142718,2018-06-29 09:59:11.937500,-43.31,100.68
142719,2018-06-29 09:59:11.968750,-47.93,100.68
142720,2018-06-29 09:59:12.000000,-40.0,100.68
142721,2018-06-29 09:59:12.031250,-32.2,100.68
142722,2018-06-29 09:59:12.062500,-26.49,100.68
142723,2018-06-29 09:59:12.093750,-23.06,100.68
142724,2018-06-29 09:59:12.125000,-22.88,100.68
142725,2018-06-29 09:59:12.156250,-21.08,100.68
142726,2018-06-29 09:59:12.187500,-11.4,100.68
142727,2018-06-29 09:59:12.218750,2.03,100.68
142728,2018-06-29 09:59:12.250000,6.58,100.68
142729,2018-06-29 09:59:12.281250,-2.36,100.68
142730,2018-06-29 09:59:12.312500,-13.82,100.68
142731,2018-06-29 09:59:12.343750,-14.61,100.68
142732,2018-06-29 09:59:12.375000,-2.72,100.68
142733,2018-06-29 09:59:12.406250,12.48,100.68
142734,2018-06-29 09:59:12.437500,16.37,100.68
142735,2018-06-29 09:59:12.468750,2.31,100.68
142736,2018-06-29 09:59:12.500000,-16.9,100.68
142737,2018-06-29 09:59:12.531250,-23.18,100.42
142738,2018-06-29 09:59:12.562500,-16.36,100.42
142739,2018-06-29 09:59:12.593750,-8.43,100.42
142740,2018-06-29 09:59:12.625000,-4.37,100.42
142741,2018-06-29 09:59:12.656250,-2.48,100.42
142742,2018-06-29 09:59:12.687500,-1.6,100.42
142743,2018-06-29 09:59:12.718750,1.42,100.42
142744,2018-06-29 09:59:12.750000,11.22,100.42
142745,2018-06-29 09:59:12.781250,26.77,100.42
142746,2018-06-29 09:59:12.812500,41.89,100.42
142747,2018-06-29 09:59:12.843750,53.84,100.42
142748,2018-06-29 09:59:12.875000,65.25,100.42
142749,2018-06-29 09:59:12.906250,78.03,100.42
142750,2018-06-29 09:59:12.937500,91.02,100.42
142751,2018-06-29 09:59:12.968750,101.01,100.42
142752,2018-06-29 09:59:13.000000,101.64,100.42
142753,2018-06-29 09:59:13.031250,87.16,100.42
142754,2018-06-29 09:59:13.062500,58.28,100.42
142755,2018-06-29 09:59:13.093750,19.45,100.42
142756,2018-06-29 09:59:13.125000,-22.35,100.42
142757,2018-06-29 09:59:13.156250,-53.75,100.42
142758,2018-06-29 09:59:13.187500,-65.46,100.42
142759,2018-06-29 09:59:13.218750,-66.61,100.42
142760,2018-06-29 09:59:13.250000,-73.36,100.42
142761,2018-06-29 09:59:13.281250,-87.99,100.42
142762,2018-06-29 09:59:13.312500,-101.94,100.42
142763,2018-06-29 09:59:13.343750,-109.38,100.42
142764,2018-06-29 09:59:13.375000,-108.32,100.42
142765,2018-06-29 09:59:13.406250,-98.15,100.42
142766,2018-06-29 09:59:13.437500,-82.48,100.42
142767,2018-06-29 09:59:13.468750,-68.08,100.42
142768,2018-06-29 09:59:13.500000,-58.32,100.42
142769,2018-06-29 09:59:13.531250,-51.78,100.13
142770,2018-06-29 09:59:13.562500,-46.38,100.13
142771,2018-06-29 09:59:13.593750,-41.07,100.13
142772,2018-06-29 09:59:13.625000,-34.84,100.13
142773,2018-06-29 09:59:13.656250,-27.29,100.13
142774,2018-06-29 09:59:13.687500,-17.73,100.13
142775,2018-06-29 09:59:13.718750,-3.65,100.13
142776,2018-06-29 09:59:13.750000,15.72,100.13
142777,2018-06-29 09:59:13.781250,35.35,100.13
142778,2018-06-29 09:59:13.812500,47.56,100.13
142779,2018-06-29 09:59:13.843750,50.55,100.13
142780,2018-06-29 09:59:13.875000,50.9,100.13
142781,2018-06-29 09:59:13.906250,55.71,100.13
142782,2018-06-29 09:59:13.937500,64.11,100.13
142783,2018-06-29 09:59:13.968750,69.34,100.13
142784,2018-06-29 09:59:14.000000,68.23,100.13
142785,2018-06-29 09:59:14.031250,65.43,100.13
142786,2018-06-29 09:59:14.062500,69.49,100.13
142787,2018-06-29 09:59:14.093750,84.66,100.13
142788,2018-06-29 09:59:14.125000,105.7,100.13
142789,2018-06-29 09:59:14.156250,122.45,100.13
142790,2018-06-29 09:59:14.187500,128.67,100.13
142791,2018-06-29 09:59:14.218750,122.83,100.13
142792,2018-06-29 09:59:14.250000,101.52,100.13
142793,2018-06-29 09:59:14.281250,59.82,100.13
142794,2018-06-29 09:59:14.312500,1.73,100.13
142795,2018-06-29 09:59:14.343750,-53.6,100.13
142796,2018-06-29 09:59:14.375000,-81.09,100.13
142797,2018-06-29 09:59:14.406250,-72.21,100.13
142798,2018-06-29 09:59:14.437500,-46.13,100.13
142799,2018-06-29 09:59:14.468750,-30.97,100.13
142800,2018-06-29 09:59:14.500000,-37.42,100.13
142801,2018-06-29 09:59:14.531250,-56.92,99.87
142802,2018-06-29 09:59:14.562500,-74.04,99.87
142803,2018-06-29 09:59:14.593750,-74.37,99.87
142804,2018-06-29 09:59:14.625000,-54.52,99.87
142805,2018-06-29 09:59:14.656250,-30.05,99.87
142806,2018-06-29 09:59:14.687500,-21.84,99.87
142807,2018-06-29 09:59:14.718750,-34.94,99.87
142808,2018-06-29 09:59:14.750000,-57.13,99.87
142809,2018-06-29 09:59:14.781250,-73.6,99.87
142810,2018-06-29 09:59:14.812500,-78.07,99.87
142811,2018-06-29 09:59:14.843750,-72.6,99.87
142812,2018-06-29 09:59:14.875000,-61.66,99.87
142813,2018-06-29 09:59:14.906250,-49.29,99.87
142814,2018-06-29 09:59:14.937500,-39.41,99.87
142815,2018-06-29 09:59:14.968750,-34.13,99.87
142816,2018-06-29 09:59:15.000000,-30.86,99.87
142817,2018-06-29 09:59:15.031250,-24.46,99.87
142818,2018-06-29 09:59:15.062500,-11.51,99.87
142819,2018-06-29 09:59:15.093750,9.31,99.87
142820,2018-06-29 09:59:15.125000,33.02,99.87
142821,2018-06-29 09:59:15.156250,45.76,99.87
142822,2018-06-29 09:59:15.187500,39.27,99.87
142823,2018-06-29 09:59:15.218750,25.49,99.87
142824,2018-06-29 09:59:15.250000,24.34,99.87
142825,2018-06-29 09:59:15.281250,40.48,99.87
142826,2018-06-29 09:59:15.312500,59.75,99.87
142827,2018-06-29 09:59:15.343750,62.83,99.87
142828,2018-06-29 09:59:15.375000,42.5,99.87
142829,2018-06-29 09:59:15.406250,14.46,99.87
142830,2018-06-29 09:59:15.437500,4.69,99.87
142831,2018-06-29 09:59:15.468750,20.7,99.87
142832,2018-06-29 09:59:15.500000,42.09,99.87
142833,2018-06-29 09:59:15.531250,43.84,99.62
142834,2018-06-29 09:59:15.562500,23.9,99.62
142835,2018-06-29 09:59:15.593750,2.18,99.62
142836,2018-06-29 09:59:15.625000,-6.18,99.62
142837,2018-06-29 09:59:15.656250,-8.51,99.62
142838,2018-06-29 09:59:15.687500,-22.15,99.62
142839,2018-06-29 09:59:15.718750,-51.01,99.62
142840,2018-06-29 09:59:15.750000,-81.07,99.62
142841,2018-06-29 09:59:15.781250,-96.05,99.62
142842,2018-06-29 09:59:15.812500,-92.73,99.62
142843,2018-06-29 09:59:15.843750,-81.35,99.62
142844,2018-06-29 09:59:15.875000,-73.02,99.62
142845,2018-06-29 09:59:15.906250,-68.85,99.62
142846,2018-06-29 09:59:15.937500,-61.07,99.62
142847,2018-06-29 09:59:15.968750,-43.47,99.62
142848,2018-06-29 09:59:16.000000,-19.75,99.62
142849,2018-06-29 09:59:16.031250,-0.88,99.62
142850,2018-06-29 09:59:16.062500,6.07,99.62
142851,2018-06-29 09:59:16.093750,4.77,99.62
142852,2018-06-29 09:59:16.125000,4.91,99.62
142853,2018-06-29 09:59:16.156250,12.9,99.62
142854,2018-06-29 09:59:16.187500,27.27,99.62
142855,2018-06-29 09:59:16.218750,40.4,99.62
142856,2018-06-29 09:59:16.250000,45.3,99.62
142857,2018-06-29 09:59:16.281250,42.89,99.62
142858,2018-06-29 09:59:16.312500,39.41,99.62
142859,2018-06-29 09:59:16.343750,35.72,99.62
142860,2018-06-29 09:59:16.375000,27.15,99.62
142861,2018-06-29 09:59:16.406250,15.19,99.62
142862,2018-06-29 09:59:16.437500,9.37,99.62
142863,2018-06-29 09:59:16.468750,15.89,99.62
142864,2018-06-29 09:59:16.500000,31.99,99.62
142865,2018-06-29 09:59:16.531250,50.16,99.38
142866,2018-06-29 09:59:16.562500,61.95,99.38
142867,2018-06-29 09:59:16.593750,64.37,99.38
142868,2018-06-29 09:59:16.625000,66.09,99.38
142869,2018-06-29 09:59:16.656250,78.03,99.38
142870,2018-06-29 09:59:16.687500,96.0,99.38
142871,2018-06-29 09:59:16.718750,103.2,99.38
142872,2018-06-29 09:59:16.750000,89.72,99.38
142873,2018-06-29 09:59:16.781250,57.48,99.38
142874,2018-06-29 09:59:16.812500,12.03,99.38
142875,2018-06-29 09:59:16.843750,-33.91,99.38
142876,2018-06-29 09:59:16.875000,-58.75,99.38
142877,2018-06-29 09:59:16.906250,-51.55,99.38
142878,2018-06-29 09:59:16.937500,-26.68,99.38
142879,2018-06-29 09:59:16.968750,-7.14,99.38
142880,2018-06-29 09:59:17.000000,-3.18,99.38
142881,2018-06-29 09:59:17.031250,-14.79,99.38
142882,2018-06-29 09:59:17.062500,-40.6,99.38
142883,2018-06-29 09:59:17.093750,-74.77,99.38
142884,2018-06-29 09:59:17.125000,-105.68,99.38
142885,2018-06-29 09:59:17.156250,-127.37,99.38
142886,2018-06-29 09:59:17.187500,-144.01,99.38
142887,2018-06-29 09:59:17.218750,-156.02,99.38
142888,2018-06-29 09:59:17.250000,-153.65,99.38
142889,2018-06-29 09:59:17.281250,-132.08,99.38
142890,2018-06-29 09:59:17.312500,-100.57,99.38
142891,2018-06-29 09:59:17.343750,-69.54,99.38
142892,2018-06-29 09:59:17.375000,-41.52,99.38
142893,2018-06-29 09:59:17.406250,-19.48,99.38
142894,2018-06-29 09:59:17.437500,-9.42,99.38
142895,2018-06-29 09:59:17.468750,-8.76,99.38
142896,2018-06-29 09:59:17.500000,-7.5,99.38
142897,2018-06-29 09:59:17.531250,-3.07,99.13
142898,2018-06-29 09:59:17.562500,0.84,99.13
142899,2018-06-29 09:59:17.593750,6.98,99.13
142900,2018-06-29 09:59:17.625000,19.9,99.13
142901,2018-06-29 09:59:17.656250,34.61,99.13
142902,2018-06-29 09:59:17.687500,42.64,99.13
142903,2018-06-29 09:59:17.718750,42.78,99.13
142904,2018-06-29 09:59:17.750000,39.04,99.13
142905,2018-06-29 09:59:17.781250,34.05,99.13
142906,2018-06-29 09:59:17.812500,26.99,99.13
142907,2018-06-29 09:59:17.843750,14.99,99.13
142908,2018-06-29 09:59:17.875000,-1.45,99.13
142909,2018-06-29 09:59:17.906250,-13.92,99.13
142910,2018-06-29 09:59:17.937500,-12.99,99.13
142911,2018-06-29 09:59:17.968750,0.46,99.13
142912,2018-06-29 09:59:18.000000,18.87,99.13
142913,2018-06-29 09:59:18.031250,40.39,99.13
142914,2018-06-29 09:59:18.062500,66.88,99.13
142915,2018-06-29 09:59:18.093750,93.11,99.13
142916,2018-06-29 09:59:18.125000,109.56,99.13
142917,2018-06-29 09:59:18.156250,112.24,99.13
142918,2018-06-29 09:59:18.187500,103.62,99.13
142919,2018-06-29 09:59:18.218750,88.64,99.13
142920,2018-06-29 09:59:18.250000,71.67,99.13
142921,2018-06-29 09:59:18.281250,53.09,99.13
142922,2018-06-29 09:59:18.312500,29.48,99.13
142923,2018-06-29 09:59:18.343750,1.49,99.13
142924,2018-06-29 09:59:18.375000,-21.8,99.13
142925,2018-06-29 09:59:18.406250,-27.66,99.13
142926,2018-06-29 09:59:18.437500,-9.67,99.13
142927,2018-06-29 09:59:18.468750,24.24,99.13
142928,2018-06-29 09:59:18.500000,54.19,99.13
142929,2018-06-29 09:59:18.531250,64.19,98.92
142930,2018-06-29 09:59:18.562500,55.63,98.92
142931,2018-06-29 09:59:18.593750,40.47,98.92
142932,2018-06-29 09:59:18.625000,24.85,98.92
142933,2018-06-29 09:59:18.656250,8.26,98.92
142934,2018-06-29 09:59:18.687500,-6.33,98.92
142935,2018-06-29 09:59:18.718750,-13.99,98.92
142936,2018-06-29 09:59:18.750000,-14.52,98.92
142937,2018-06-29 09:59:18.781250,-8.6,98.92
142938,2018-06-29 09:59:18.812500,3.05,98.92
142939,2018-06-29 09:59:18.843750,12.66,98.92
142940,2018-06-29 09:59:18.875000,9.4,98.92
142941,2018-06-29 09:59:18.906250,-7.29,98.92
142942,2018-06-29 09:59:18.937500,-26.91,98.92
142943,2018-06-29 09:59:18.968750,-40.65,98.92
142944,2018-06-29 09:59:19.000000,-47.36,98.92
142945,2018-06-29 09:59:19.031250,-49.18,98.92
142946,2018-06-29 09:59:19.062500,-47.51,98.92
142947,2018-06-29 09:59:19.093750,-44.06,98.92
142948,2018-06-29 09:59:19.125000,-40.7,98.92
142949,2018-06-29 09:59:19.156250,-37.24,98.92
142950,2018-06-29 09:59:19.187500,-32.19,98.92
142951,2018-06-29 09:59:19.218750,-25.56,98.92
142952,2018-06-29 09:59:19.250000,-18.22,98.92
142953,2018-06-29 09:59:19.281250,-10.15,98.92
142954,2018-06-29 09:59:19.312500,-2.89,98.92
142955,2018-06-29 09:59:19.343750,-1.39,98.92
142956,2018-06-29 09:59:19.375000,-9.64,98.92
142957,2018-06-29 09:59:19.406250,-24.0,98.92
142958,2018-06-29 09:59:19.437500,-34.23,98.92
142959,2018-06-29 09:59:19.468750,-33.29,98.92
142960,2018-06-29 09:59:19.500000,-23.49,98.92
142961,2018-06-29 09:59:19.531250,-11.82,98.7
142962,2018-06-29 09:59:19.562500,-3.63,98.7
142963,2018-06-29 09:59:19.593750,0.13,98.7
142964,2018-06-29 09:59:19.625000,5.09,98.7
142965,2018-06-29 09:59:19.656250,16.2,98.7
142966,2018-06-29 09:59:19.687500,27.26,98.7
142967,2018-06-29 09:59:19.718750,29.91,98.7
142968,2018-06-29 09:59:19.750000,27.62,98.7
142969,2018-06-29 09:59:19.781250,26.03,98.7
142970,2018-06-29 09:59:19.812500,21.41,98.7
142971,2018-06-29 09:59:19.843750,11.93,98.7
142972,2018-06-29 09:59:19.875000,3.75,98.7
142973,2018-06-29 09:59:19.906250,-1.57,98.7
142974,2018-06-29 09:59:19.937500,-9.13,98.7
142975,2018-06-29 09:59:19.968750,-20.14,98.7
142976,2018-06-29 09:59:20.000000,-33.41,98.7
142977,2018-06-29 09:59:20.031250,-50.13,98.7
142978,2018-06-29 09:59:20.062500,-66.44,98.7
142979,2018-06-29 09:59:20.093750,-70.94,98.7
142980,2018-06-29 09:59:20.125000,-59.55,98.7
142981,2018-06-29 09:59:20.156250,-42.47,98.7
142982,2018-06-29 09:59:20.187500,-30.79,98.7
142983,2018-06-29 09:59:20.218750,-27.48,98.7
142984,2018-06-29 09:59:20.250000,-33.26,98.7
142985,2018-06-29 09:59:20.281250,-45.77,98.7
142986,2018-06-29 09:59:20.312500,-52.52,98.7
142987,2018-06-29 09:59:20.343750,-40.58,98.7
142988,2018-06-29 09:59:20.375000,-12.37,98.7
142989,2018-06-29 09:59:20.406250,18.79,98.7
142990,2018-06-29 09:59:20.437500,42.56,98.7
142991,2018-06-29 09:59:20.468750,54.41,98.7
142992,2018-06-29 09:59:20.500000,53.72,98.7
142993,2018-06-29 09:59:20.531250,44.32,98.52
142994,2018-06-29 09:59:20.562500,30.84,98.52
142995,2018-06-29 09:59:20.593750,14.27,98.52
142996,2018-06-29 09:59:20.625000,-5.7,98.52
142997,2018-06-29 09:59:20.656250,-27.32,98.52
142998,2018-06-29 09:59:20.687500,-46.65,98.52
142999,2018-06-29 09:59:20.718750,-56.62,98.52
143000,2018-06-29 09:59:20.750000,-49.51,98.52
143001,2018-06-29 09:59:20.781250,-26.56,98.52
143002,2018-06-29 09:59:20.812500,1.01,98.52
143003,2018-06-29 09:59:20.843750,24.5,98.52
143004,2018-06-29 09:59:20.875000,42.49,98.52
143005,2018-06-29 09:59:20.906250,53.36,98.52
143006,2018-06-29 09:59:20.937500,53.39,98.52
143007,2018-06-29 09:59:20.968750,41.97,98.52
143008,2018-06-29 09:59:21.000000,23.45,98.52
143009,2018-06-29 09:59:21.031250,5.79,98.52
143010,2018-06-29 09:59:21.062500,-3.81,98.52
143011,2018-06-29 09:59:21.093750,-6.44,98.52
143012,2018-06-29 09:59:21.125000,-10.8,98.52
143013,2018-06-29 09:59:21.156250,-22.65,98.52
143014,2018-06-29 09:59:21.187500,-39.42,98.52
143015,2018-06-29 09:59:21.218750,-55.49,98.52
143016,2018-06-29 09:59:21.250000,-69.72,98.52
143017,2018-06-29 09:59:21.281250,-86.58,98.52
143018,2018-06-29 09:59:21.312500,-109.67,98.52
143019,2018-06-29 09:59:21.343750,-132.29,98.52
143020,2018-06-29 09:59:21.375000,-138.91,98.52
143021,2018-06-29 09:59:21.406250,-121.04,98.52
143022,2018-06-29 09:59:21.437500,-87.37,98.52
143023,2018-06-29 09:59:21.468750,-53.11,98.52
143024,2018-06-29 09:59:21.500000,-24.55,98.52
143025,2018-06-29 09:59:21.531250,1.41,98.35
143026,2018-06-29 09:59:21.562500,27.48,98.35
143027,2018-06-29 09:59:21.593750,51.2,98.35
143028,2018-06-29 09:59:21.625000,67.99,98.35
143029,2018-06-29 09:59:21.656250,76.25,98.35
143030,2018-06-29 09:59:21.687500,78.24,98.35
143031,2018-06-29 09:59:21.718750,75.14,98.35
143032,2018-06-29 09:59:21.750000,65.56,98.35
143033,2018-06-29 09:59:21.781250,49.84,98.35
143034,2018-06-29 09:59:21.812500,33.38,98.35
143035,2018-06-29 09:59:21.843750,20.7,98.35
143036,2018-06-29 09:59:21.875000,10.14,98.35
143037,2018-06-29 09:59:21.906250,-2.75,98.35
143038,2018-06-29 09:59:21.937500,-17.01,98.35
143039,2018-06-29 09:59:21.968750,-22.46,98.35
143040,2018-06-29 09:59:22.000000,-10.52,98.35
143041,2018-06-29 09:59:22.031250,13.01,98.35
143042,2018-06-29 09:59:22.062500,25.68,98.35
143043,2018-06-29 09:59:22.093750,10.75,98.35
143044,2018-06-29 09:59:22.125000,-29.43,98.35
143045,2018-06-29 09:59:22.156250,-77.55,98.35
143046,2018-06-29 09:59:22.187500,-115.78,98.35
143047,2018-06-29 09:59:22.218750,-136.32,98.35
143048,2018-06-29 09:59:22.250000,-137.99,98.35
143049,2018-06-29 09:59:22.281250,-125.76,98.35
143050,2018-06-29 09:59:22.312500,-109.08,98.35
143051,2018-06-29 09:59:22.343750,-106.73,98.35
143052,2018-06-29 09:59:22.375000,-125.11,98.35
143053,2018-06-29 09:59:22.406250,-155.29,98.35
143054,2018-06-29 09:59:22.437500,-184.02,98.35
143055,2018-06-29 09:59:22.468750,-166.51,98.35
143056,2018-06-29 09:59:22.500000,-101.68,98.35
143057,2018-06-29 09:59:22.531250,-22.17,98.23
143058,2018-06-29 09:59:22.562500,59.17,98.23
143059,2018-06-29 09:59:22.593750,145.66,98.23
143060,2018-06-29 09:59:22.625000,227.54,98.23
143061,2018-06-29 09:59:22.656250,284.85,98.23
143062,2018-06-29 09:59:22.687500,326.95,98.23
143063,2018-06-29 09:59:22.718750,369.83,98.23
143064,2018-06-29 09:59:22.750000,421.97,98.23
143065,2018-06-29 09:59:22.781250,473.56,98.23
143066,2018-06-29 09:59:22.812500,479.39,98.23
143067,2018-06-29 09:59:22.843750,384.66,98.23
143068,2018-06-29 09:59:22.875000,208.65,98.23
143069,2018-06-29 09:59:22.906250,28.93,98.23
143070,2018-06-29 09:59:22.937500,-120.75,98.23
143071,2018-06-29 09:59:22.968750,-229.63,98.23
143072,2018-06-29 09:59:23.000000,-291.9,98.23
143073,2018-06-29 09:59:23.031250,-305.57,98.23
143074,2018-06-29 09:59:23.062500,-282.9,98.23
143075,2018-06-29 09:59:23.093750,-240.23,98.23
143076,2018-06-29 09:59:23.125000,-191.14,98.23
143077,2018-06-29 09:59:23.156250,-144.96,98.23
143078,2018-06-29 09:59:23.187500,-109.5,98.23
143079,2018-06-29 09:59:23.218750,-82.12,98.23
143080,2018-06-29 09:59:23.250000,-45.62,98.23
143081,2018-06-29 09:59:23.281250,9.31,98.23
143082,2018-06-29 09:59:23.312500,66.82,98.23
143083,2018-06-29 09:59:23.343750,100.42,98.23
143084,2018-06-29 09:59:23.375000,102.82,98.23
143085,2018-06-29 09:59:23.406250,88.62,98.23
143086,2018-06-29 09:59:23.437500,74.75,98.23
143087,2018-06-29 09:59:23.468750,67.51,98.23
143088,2018-06-29 09:59:23.500000,66.41,98.23
143089,2018-06-29 09:59:23.531250,69.42,98.12
143090,2018-06-29 09:59:23.562500,72.92,98.12
143091,2018-06-29 09:59:23.593750,77.72,98.12
143092,2018-06-29 09:59:23.625000,88.54,98.12
143093,2018-06-29 09:59:23.656250,97.26,98.12
143094,2018-06-29 09:59:23.687500,81.67,98.12
143095,2018-06-29 09:59:23.718750,34.49,98.12
143096,2018-06-29 09:59:23.750000,-24.51,98.12
143097,2018-06-29 09:59:23.781250,-74.56,98.12
143098,2018-06-29 09:59:23.812500,-111.38,98.12
143099,2018-06-29 09:59:23.843750,-136.15,98.12
143100,2018-06-29 09:59:23.875000,-149.03,98.12
143101,2018-06-29 09:59:23.906250,-153.24,98.12
143102,2018-06-29 09:59:23.937500,-149.73,98.12
143103,2018-06-29 09:59:23.968750,-132.92,98.12
143104,2018-06-29 09:59:24.000000,-101.23,98.12
143105,2018-06-29 09:59:24.031250,-63.71,98.12
143106,2018-06-29 09:59:24.062500,-29.13,98.12
143107,2018-06-29 09:59:24.093750,3.35,98.12
143108,2018-06-29 09:59:24.125000,36.05,98.12
143109,2018-06-29 09:59:24.156250,63.76,98.12
143110,2018-06-29 09:59:24.187500,77.76,98.12
143111,2018-06-29 09:59:24.218750,75.24,98.12
143112,2018-06-29 09:59:24.250000,63.39,98.12
143113,2018-06-29 09:59:24.281250,53.34,98.12
143114,2018-06-29 09:59:24.312500,48.13,98.12
143115,2018-06-29 09:59:24.343750,39.8,98.12
143116,2018-06-29 09:59:24.375000,21.34,98.12
143117,2018-06-29 09:59:24.406250,-3.69,98.12
143118,2018-06-29 09:59:24.437500,-26.57,98.12
143119,2018-06-29 09:59:24.468750,-40.84,98.12
143120,2018-06-29 09:59:24.500000,-42.6,98.12
143121,2018-06-29 09:59:24.531250,-31.52,98.0
143122,2018-06-29 09:59:24.562500,-14.0,98.0
143123,2018-06-29 09:59:24.593750,0.63,98.0
143124,2018-06-29 09:59:24.625000,7.95,98.0
143125,2018-06-29 09:59:24.656250,10.78,98.0
143126,2018-06-29 09:59:24.687500,17.04,98.0
143127,2018-06-29 09:59:24.718750,31.28,98.0
143128,2018-06-29 09:59:24.750000,46.22,98.0
143129,2018-06-29 09:59:24.781250,51.15,98.0
143130,2018-06-29 09:59:24.812500,48.04,98.0
143131,2018-06-29 09:59:24.843750,45.25,98.0
143132,2018-06-29 09:59:24.875000,42.38,98.0
143133,2018-06-29 09:59:24.906250,34.63,98.0
143134,2018-06-29 09:59:24.937500,20.74,98.0
143135,2018-06-29 09:59:24.968750,1.67,98.0
143136,2018-06-29 09:59:25.000000,-15.69,98.0
143137,2018-06-29 09:59:25.031250,-17.48,98.0
143138,2018-06-29 09:59:25.062500,1.18,98.0
143139,2018-06-29 09:59:25.093750,27.02,98.0
143140,2018-06-29 09:59:25.125000,44.05,98.0
143141,2018-06-29 09:59:25.156250,48.11,98.0
143142,2018-06-29 09:59:25.187500,43.27,98.0
143143,2018-06-29 09:59:25.218750,34.55,98.0
143144,2018-06-29 09:59:25.250000,26.65,98.0
143145,2018-06-29 09:59:25.281250,22.63,98.0
143146,2018-06-29 09:59:25.312500,21.62,98.0
143147,2018-06-29 09:59:25.343750,21.71,98.0
143148,2018-06-29 09:59:25.375000,23.49,98.0
143149,2018-06-29 09:59:25.406250,28.34,98.0
143150,2018-06-29 09:59:25.437500,35.04,98.0
143151,2018-06-29 09:59:25.468750,40.35,98.0
143152,2018-06-29 09:59:25.500000,45.56,98.0
143153,2018-06-29 09:59:25.531250,58.64,97.95
143154,2018-06-29 09:59:25.562500,83.21,97.95
143155,2018-06-29 09:59:25.593750,108.21,97.95
143156,2018-06-29 09:59:25.625000,117.07,97.95
143157,2018-06-29 09:59:25.656250,105.93,97.95
143158,2018-06-29 09:59:25.687500,86.69,97.95
143159,2018-06-29 09:59:25.718750,72.65,97.95
143160,2018-06-29 09:59:25.750000,65.04,97.95
143161,2018-06-29 09:59:25.781250,53.29,97.95
143162,2018-06-29 09:59:25.812500,26.47,97.95
143163,2018-06-29 09:59:25.843750,-13.46,97.95
143164,2018-06-29 09:59:25.875000,-48.38,97.95
143165,2018-06-29 09:59:25.906250,-57.69,97.95
143166,2018-06-29 09:59:25.937500,-36.99,97.95
143167,2018-06-29 09:59:25.968750,-1.85,97.95
143168,2018-06-29 09:59:26.000000,25.79,97.95
143169,2018-06-29 09:59:26.031250,33.95,97.95
143170,2018-06-29 09:59:26.062500,26.95,97.95
143171,2018-06-29 09:59:26.093750,16.9,97.95
143172,2018-06-29 09:59:26.125000,9.67,97.95
143173,2018-06-29 09:59:26.156250,2.09,97.95
143174,2018-06-29 09:59:26.187500,-8.67,97.95
143175,2018-06-29 09:59:26.218750,-19.99,97.95
143176,2018-06-29 09:59:26.250000,-31.1,97.95
143177,2018-06-29 09:59:26.281250,-49.24,97.95
143178,2018-06-29 09:59:26.312500,-79.02,97.95
143179,2018-06-29 09:59:26.343750,-109.7,97.95
143180,2018-06-29 09:59:26.375000,-122.25,97.95
143181,2018-06-29 09:59:26.406250,-107.18,97.95
143182,2018-06-29 09:59:26.437500,-71.36,97.95
143183,2018-06-29 09:59:26.468750,-32.29,97.95
143184,2018-06-29 09:59:26.500000,-7.37,97.95
143185,2018-06-29 09:59:26.531250,-2.81,97.92
143186,2018-06-29 09:59:26.562500,-11.33,97.92
143187,2018-06-29 09:59:26.593750,-20.73,97.92
143188,2018-06-29 09:59:26.625000,-22.87,97.92
143189,2018-06-29 09:59:26.656250,-16.25,97.92
143190,2018-06-29 09:59:26.687500,-4.6,97.92
143191,2018-06-29 09:59:26.718750,7.84,97.92
143192,2018-06-29 09:59:26.750000,20.78,97.92
143193,2018-06-29 09:59:26.781250,35.75,97.92
143194,2018-06-29 09:59:26.812500,52.18,97.92
143195,2018-06-29 09:59:26.843750,68.15,97.92
143196,2018-06-29 09:59:26.875000,78.58,97.92
143197,2018-06-29 09:59:26.906250,71.04,97.92
143198,2018-06-29 09:59:26.937500,34.72,97.92
143199,2018-06-29 09:59:26.968750,-24.34,97.92
143200,2018-06-29 09:59:27.000000,-87.64,97.92
143201,2018-06-29 09:59:27.031250,-140.78,97.92
143202,2018-06-29 09:59:27.062500,-176.64,97.92
143203,2018-06-29 09:59:27.093750,-188.72,97.92
143204,2018-06-29 09:59:27.125000,-171.34,97.92
143205,2018-06-29 09:59:27.156250,-122.2,97.92
143206,2018-06-29 09:59:27.187500,-45.12,97.92
143207,2018-06-29 09:59:27.218750,41.21,97.92
143208,2018-06-29 09:59:27.250000,105.54,97.92
143209,2018-06-29 09:59:27.281250,130.26,97.92
143210,2018-06-29 09:59:27.312500,125.52,97.92
143211,2018-06-29 09:59:27.343750,106.8,97.92
143212,2018-06-29 09:59:27.375000,77.66,97.92
143213,2018-06-29 09:59:27.406250,44.29,97.92
143214,2018-06-29 09:59:27.437500,22.21,97.92
143215,2018-06-29 09:59:27.468750,16.11,97.92
143216,2018-06-29 09:59:27.500000,12.77,97.92
143217,2018-06-29 09:59:27.531250,4.08,97.88
143218,2018-06-29 09:59:27.562500,-0.52,97.88
143219,2018-06-29 09:59:27.593750,8.51,97.88
143220,2018-06-29 09:59:27.625000,23.91,97.88
143221,2018-06-29 09:59:27.656250,29.29,97.88
143222,2018-06-29 09:59:27.687500,16.06,97.88
143223,2018-06-29 09:59:27.718750,-10.75,97.88
143224,2018-06-29 09:59:27.750000,-37.18,97.88
143225,2018-06-29 09:59:27.781250,-49.66,97.88
143226,2018-06-29 09:59:27.812500,-45.63,97.88
143227,2018-06-29 09:59:27.843750,-36.26,97.88
143228,2018-06-29 09:59:27.875000,-34.91,97.88
143229,2018-06-29 09:59:27.906250,-42.84,97.88
143230,2018-06-29 09:59:27.937500,-51.4,97.88
143231,2018-06-29 09:59:27.968750,-56.75,97.88
143232,2018-06-29 09:59:28.000000,-65.4,97.88
143233,2018-06-29 09:59:28.031250,-83.15,97.88
143234,2018-06-29 09:59:28.062500,-103.5,97.88
143235,2018-06-29 09:59:28.093750,-110.95,97.88
143236,2018-06-29 09:59:28.125000,-95.25,97.88
143237,2018-06-29 09:59:28.156250,-58.1,97.88
143238,2018-06-29 09:59:28.187500,-6.83,97.88
143239,2018-06-29 09:59:28.218750,50.48,97.88
143240,2018-06-29 09:59:28.250000,103.28,97.88
143241,2018-06-29 09:59:28.281250,139.21,97.88
143242,2018-06-29 09:59:28.312500,150.05,97.88
143243,2018-06-29 09:59:28.343750,134.88,97.88
143244,2018-06-29 09:59:28.375000,100.44,97.88
143245,2018-06-29 09:59:28.406250,58.0,97.88
143246,2018-06-29 09:59:28.437500,14.48,97.88
143247,2018-06-29 09:59:28.468750,-31.99,97.88
143248,2018-06-29 09:59:28.500000,-84.44,97.88
143249,2018-06-29 09:59:28.531250,-135.96,97.87
143250,2018-06-29 09:59:28.562500,-167.95,97.87
143251,2018-06-29 09:59:28.593750,-162.59,97.87
143252,2018-06-29 09:59:28.625000,-119.42,97.87
143253,2018-06-29 09:59:28.656250,-59.23,97.87
143254,2018-06-29 09:59:28.687500,-8.97,97.87
143255,2018-06-29 09:59:28.718750,19.23,97.87
143256,2018-06-29 09:59:28.750000,33.48,97.87
143257,2018-06-29 09:59:28.781250,45.67,97.87
143258,2018-06-29 09:59:28.812500,55.85,97.87
143259,2018-06-29 09:59:28.843750,59.06,97.87
143260,2018-06-29 09:59:28.875000,57.97,97.87
143261,2018-06-29 09:59:28.906250,57.53,97.87
143262,2018-06-29 09:59:28.937500,55.15,97.87
143263,2018-06-29 09:59:28.968750,46.5,97.87
143264,2018-06-29 09:59:29.000000,33.62,97.87
143265,2018-06-29 09:59:29.031250,20.36,97.87
143266,2018-06-29 09:59:29.062500,7.0,97.87
143267,2018-06-29 09:59:29.093750,-7.63,97.87
143268,2018-06-29 09:59:29.125000,-23.32,97.87
143269,2018-06-29 09:59:29.156250,-39.01,97.87
143270,2018-06-29 09:59:29.187500,-53.75,97.87
143271,2018-06-29 09:59:29.218750,-67.65,97.87
143272,2018-06-29 09:59:29.250000,-80.9,97.87
143273,2018-06-29 09:59:29.281250,-90.42,97.87
143274,2018-06-29 09:59:29.312500,-89.17,97.87
143275,2018-06-29 09:59:29.343750,-70.11,97.87
143276,2018-06-29 09:59:29.375000,-30.9,97.87
143277,2018-06-29 09:59:29.406250,20.05,97.87
143278,2018-06-29 09:59:29.437500,62.04,97.87
143279,2018-06-29 09:59:29.468750,77.79,97.87
143280,2018-06-29 09:59:29.500000,72.71,97.87
143281,2018-06-29 09:59:29.531250,67.68,97.87
143282,2018-06-29 09:59:29.562500,73.18,97.87
143283,2018-06-29 09:59:29.593750,82.82,97.87
143284,2018-06-29 09:59:29.625000,87.37,97.87
143285,2018-06-29 09:59:29.656250,81.64,97.87
143286,2018-06-29 09:59:29.687500,61.86,97.87
143287,2018-06-29 09:59:29.718750,27.82,97.87
143288,2018-06-29 09:59:29.750000,-12.73,97.87
143289,2018-06-29 09:59:29.781250,-49.06,97.87
143290,2018-06-29 09:59:29.812500,-76.7,97.87
143291,2018-06-29 09:59:29.843750,-97.87,97.87
143292,2018-06-29 09:59:29.875000,-114.71,97.87
143293,2018-06-29 09:59:29.906250,-126.01,97.87
143294,2018-06-29 09:59:29.937500,-132.23,97.87
143295,2018-06-29 09:59:29.968750,-137.63,97.87
143296,2018-06-29 09:59:30.000000,-143.76,97.87
143297,2018-06-29 09:59:30.031250,-147.85,97.87
143298,2018-06-29 09:59:30.062500,-147.36,97.87
143299,2018-06-29 09:59:30.093750,-137.82,97.87
143300,2018-06-29 09:59:30.125000,-112.02,97.87
143301,2018-06-29 09:59:30.156250,-72.16,97.87
143302,2018-06-29 09:59:30.187500,-34.17,97.87
143303,2018-06-29 09:59:30.218750,-12.32,97.87
143304,2018-06-29 09:59:30.250000,-8.54,97.87
143305,2018-06-29 09:59:30.281250,-17.16,97.87
143306,2018-06-29 09:59:30.312500,-30.21,97.87
143307,2018-06-29 09:59:30.343750,-39.68,97.87
143308,2018-06-29 09:59:30.375000,-39.98,97.87
143309,2018-06-29 09:59:30.406250,-28.47,97.87
143310,2018-06-29 09:59:30.437500,-5.93,97.87
143311,2018-06-29 09:59:30.468750,21.5,97.87
143312,2018-06-29 09:59:30.500000,45.72,97.87
143313,2018-06-29 09:59:30.531250,63.38,97.87
143314,2018-06-29 09:59:30.562500,75.43,97.87
143315,2018-06-29 09:59:30.593750,81.98,97.87
143316,2018-06-29 09:59:30.625000,82.38,97.87
143317,2018-06-29 09:59:30.656250,76.74,97.87
143318,2018-06-29 09:59:30.687500,65.38,97.87
143319,2018-06-29 09:59:30.718750,52.89,97.87
143320,2018-06-29 09:59:30.750000,50.34,97.87
143321,2018-06-29 09:59:30.781250,62.76,97.87
143322,2018-06-29 09:59:30.812500,79.75,97.87
143323,2018-06-29 09:59:30.843750,89.55,97.87
143324,2018-06-29 09:59:30.875000,94.25,97.87
143325,2018-06-29 09:59:30.906250,100.29,97.87
143326,2018-06-29 09:59:30.937500,104.37,97.87
143327,2018-06-29 09:59:30.968750,99.48,97.87
143328,2018-06-29 09:59:31.000000,86.85,97.87
143329,2018-06-29 09:59:31.031250,73.43,97.87
143330,2018-06-29 09:59:31.062500,62.34,97.87
143331,2018-06-29 09:59:31.093750,52.08,97.87
143332,2018-06-29 09:59:31.125000,41.78,97.87
143333,2018-06-29 09:59:31.156250,31.99,97.87
143334,2018-06-29 09:59:31.187500,21.79,97.87
143335,2018-06-29 09:59:31.218750,9.32,97.87
143336,2018-06-29 09:59:31.250000,-5.51,97.87
143337,2018-06-29 09:59:31.281250,-20.17,97.87
143338,2018-06-29 09:59:31.312500,-29.89,97.87
143339,2018-06-29 09:59:31.343750,-29.47,97.87
143340,2018-06-29 09:59:31.375000,-16.37,97.87
143341,2018-06-29 09:59:31.406250,7.7,97.87
143342,2018-06-29 09:59:31.437500,36.41,97.87
143343,2018-06-29 09:59:31.468750,58.94,97.87
143344,2018-06-29 09:59:31.500000,63.87,97.87
143345,2018-06-29 09:59:31.531250,44.94,97.92
143346,2018-06-29 09:59:31.562500,4.81,97.92
143347,2018-06-29 09:59:31.593750,-43.23,97.92
143348,2018-06-29 09:59:31.625000,-80.0,97.92
143349,2018-06-29 09:59:31.656250,-93.53,97.92
143350,2018-06-29 09:59:31.687500,-86.44,97.92
143351,2018-06-29 09:59:31.718750,-68.23,97.92
143352,2018-06-29 09:59:31.750000,-46.49,97.92
143353,2018-06-29 09:59:31.781250,-27.04,97.92
143354,2018-06-29 09:59:31.812500,-14.99,97.92
143355,2018-06-29 09:59:31.843750,-11.52,97.92
143356,2018-06-29 09:59:31.875000,-11.75,97.92
143357,2018-06-29 09:59:31.906250,-8.66,97.92
143358,2018-06-29 09:59:31.937500,-0.23,97.92
143359,2018-06-29 09:59:31.968750,9.08,97.92
143360,2018-06-29 09:59:32.000000,14.11,97.92
143361,2018-06-29 09:59:32.031250,13.86,97.92
143362,2018-06-29 09:59:32.062500,9.51,97.92
143363,2018-06-29 09:59:32.093750,1.47,97.92
143364,2018-06-29 09:59:32.125000,-9.15,97.92
