,Time,ppg,hr
144000,2018-06-29 09:59:52.000000,-59.17,95.02
144001,2018-06-29 09:59:52.031250,-30.72,95.02
144002,2018-06-29 09:59:52.062500,-7.19,95.02
144003,2018-06-29 09:59:52.093750,14.56,95.02
144004,2018-06-29 09:59:52.125000,33.24,95.02
144005,2018-06-29 09:59:52.156250,45.71,95.02
144006,2018-06-29 09:59:52.187500,52.28,95.02
144007,2018-06-29 09:59:52.218750,54.53,95.02
144008,2018-06-29 09:59:52.250000,52.24,95.02
144009,2018-06-29 09:59:52.281250,46.8,95.02
144010,2018-06-29 09:59:52.312500,41.86,95.02
144011,2018-06-29 09:59:52.343750,37.52,95.02
144012,2018-06-29 09:59:52.375000,29.25,95.02
144013,2018-06-29 09:59:52.406250,17.2,95.02
144014,2018-06-29 09:59:52.437500,11.26,95.02
144015,2018-06-29 09:59:52.468750,20.44,95.02
144016,2018-06-29 09:59:52.500000,38.44,95.02
144017,2018-06-29 09:59:52.531250,46.71,94.83
144018,2018-06-29 09:59:52.562500,33.64,94.83
144019,2018-06-29 09:59:52.593750,6.4,94.83
144020,2018-06-29 09:59:52.625000,-14.77,94.83
144021,2018-06-29 09:59:52.656250,-12.82,94.83
144022,2018-06-29 09:59:52.687500,10.09,94.83
144023,2018-06-29 09:59:52.718750,32.11,94.83
144024,2018-06-29 09:59:52.750000,33.37,94.83
144025,2018-06-29 09:59:52.781250,15.64,94.83
144026,2018-06-29 09:59:52.812500,-5.13,94.83
144027,2018-06-29 09:59:52.843750,-18.28,94.83
144028,2018-06-29 09:59:52.875000,-22.14,94.83
144029,2018-06-29 09:59:52.906250,-17.72,94.83
144030,2018-06-29 09:59:52.937500,-6.47,94.83
144031,2018-06-29 09:59:52.968750,8.74,94.83
144032,2018-06-29 09:59:53.000000,24.87,94.83
144033,2018-06-29 09:59:53.031250,39.01,94.83
144034,2018-06-29 09:59:53.062500,48.98,94.83
144035,2018-06-29 09:59:53.093750,55.06,94.83
144036,2018-06-29 09:59:53.125000,58.07,94.83
144037,2018-06-29 09:59:53.156250,56.08,94.83
144038,2018-06-29 09:59:53.187500,46.82,94.83
144039,2018-06-29 09:59:53.218750,31.65,94.83
144040,2018-06-29 09:59:53.250000,13.82,94.83
144041,2018-06-29 09:59:53.281250,-4.18,94.83
144042,2018-06-29 09:59:53.312500,-20.62,94.83
144043,2018-06-29 09:59:53.343750,-34.75,94.83
144044,2018-06-29 09:59:53.375000,-44.22,94.83
144045,2018-06-29 09:59:53.406250,-41.36,94.83
144046,2018-06-29 09:59:53.437500,-19.66,94.83
144047,2018-06-29 09:59:53.468750,15.2,94.83
144048,2018-06-29 09:59:53.500000,49.12,94.83
144049,2018-06-29 09:59:53.531250,73.06,94.68
144050,2018-06-29 09:59:53.562500,85.81,94.68
144051,2018-06-29 09:59:53.593750,88.41,94.68
144052,2018-06-29 09:59:53.625000,83.29,94.68
144053,2018-06-29 09:59:53.656250,75.14,94.68
144054,2018-06-29 09:59:53.687500,66.9,94.68
144055,2018-06-29 09:59:53.718750,58.07,94.68
144056,2018-06-29 09:59:53.750000,48.67,94.68
144057,2018-06-29 09:59:53.781250,40.51,94.68
144058,2018-06-29 09:59:53.812500,34.18,94.68
144059,2018-06-29 09:59:53.843750,27.98,94.68
144060,2018-06-29 09:59:53.875000,21.58,94.68
144061,2018-06-29 09:59:53.906250,16.91,94.68
144062,2018-06-29 09:59:53.937500,13.72,94.68
144063,2018-06-29 09:59:53.968750,8.21,94.68
144064,2018-06-29 09:59:54.000000,-1.25,94.68
144065,2018-06-29 09:59:54.031250,-10.96,94.68
144066,2018-06-29 09:59:54.062500,-17.52,94.68
144067,2018-06-29 09:59:54.093750,-23.3,94.68
144068,2018-06-29 09:59:54.125000,-33.97,94.68
144069,2018-06-29 09:59:54.156250,-52.42,94.68
144070,2018-06-29 09:59:54.187500,-72.82,94.68
144071,2018-06-29 09:59:54.218750,-80.46,94.68
144072,2018-06-29 09:59:54.250000,-64.46,94.68
144073,2018-06-29 09:59:54.281250,-31.26,94.68
144074,2018-06-29 09:59:54.312500,2.28,94.68
144075,2018-06-29 09:59:54.343750,26.73,94.68
144076,2018-06-29 09:59:54.375000,43.57,94.68
144077,2018-06-29 09:59:54.406250,54.87,94.68
144078,2018-06-29 09:59:54.437500,59.86,94.68
144079,2018-06-29 09:59:54.468750,59.48,94.68
144080,2018-06-29 09:59:54.500000,57.45,94.68
144081,2018-06-29 09:59:54.531250,56.64,94.55
144082,2018-06-29 09:59:54.562500,57.32,94.55
144083,2018-06-29 09:59:54.593750,58.6,94.55
144084,2018-06-29 09:59:54.625000,59.74,94.55
144085,2018-06-29 09:59:54.656250,60.25,94.55
144086,2018-06-29 09:59:54.687500,59.85,94.55
144087,2018-06-29 09:59:54.718750,57.54,94.55
144088,2018-06-29 09:59:54.750000,50.52,94.55
144089,2018-06-29 09:59:54.781250,37.3,94.55
144090,2018-06-29 09:59:54.812500,22.77,94.55
144091,2018-06-29 09:59:54.843750,13.61,94.55
144092,2018-06-29 09:59:54.875000,7.75,94.55
144093,2018-06-29 09:59:54.906250,-3.49,94.55
144094,2018-06-29 09:59:54.937500,-22.63,94.55
144095,2018-06-29 09:59:54.968750,-44.54,94.55
144096,2018-06-29 09:59:55.000000,-64.72,94.55
144097,2018-06-29 09:59:55.031250,-78.61,94.55
144098,2018-06-29 09:59:55.062500,-77.12,94.55
144099,2018-06-29 09:59:55.093750,-51.65,94.55
144100,2018-06-29 09:59:55.125000,-1.41,94.55
144101,2018-06-29 09:59:55.156250,61.07,94.55
144102,2018-06-29 09:59:55.187500,105.35,94.55
144103,2018-06-29 09:59:55.218750,98.43,94.55
144104,2018-06-29 09:59:55.250000,35.68,94.55
144105,2018-06-29 09:59:55.281250,-53.99,94.55
144106,2018-06-29 09:59:55.312500,-135.04,94.55
144107,2018-06-29 09:59:55.343750,-182.58,94.55
144108,2018-06-29 09:59:55.375000,-182.11,94.55
144109,2018-06-29 09:59:55.406250,-135.04,94.55
144110,2018-06-29 09:59:55.437500,-60.68,94.55
144111,2018-06-29 09:59:55.468750,16.16,94.55
144112,2018-06-29 09:59:55.500000,76.77,94.55
144113,2018-06-29 09:59:55.531250,109.86,94.68
144114,2018-06-29 09:59:55.562500,110.51,94.68
144115,2018-06-29 09:59:55.593750,81.75,94.68
144116,2018-06-29 09:59:55.625000,35.02,94.68
144117,2018-06-29 09:59:55.656250,-13.86,94.68
144118,2018-06-29 09:59:55.687500,-53.28,94.68
144119,2018-06-29 09:59:55.718750,-81.8,94.68
144120,2018-06-29 09:59:55.750000,-103.09,94.68
144121,2018-06-29 09:59:55.781250,-118.06,94.68
144122,2018-06-29 09:59:55.812500,-122.36,94.68
144123,2018-06-29 09:59:55.843750,-110.95,94.68
144124,2018-06-29 09:59:55.875000,-85.27,94.68
144125,2018-06-29 09:59:55.906250,-54.57,94.68
144126,2018-06-29 09:59:55.937500,-27.85,94.68
144127,2018-06-29 09:59:55.968750,-7.46,94.68
144128,2018-06-29 09:59:56.000000,7.31,94.68
144129,2018-06-29 09:59:56.031250,16.41,94.68
144130,2018-06-29 09:59:56.062500,21.27,94.68
144131,2018-06-29 09:59:56.093750,23.92,94.68
144132,2018-06-29 09:59:56.125000,23.05,94.68
144133,2018-06-29 09:59:56.156250,16.33,94.68
144134,2018-06-29 09:59:56.187500,5.15,94.68
144135,2018-06-29 09:59:56.218750,-6.57,94.68
144136,2018-06-29 09:59:56.250000,-16.31,94.68
144137,2018-06-29 09:59:56.281250,-23.46,94.68
144138,2018-06-29 09:59:56.312500,-28.01,94.68
144139,2018-06-29 09:59:56.343750,-30.34,94.68
144140,2018-06-29 09:59:56.375000,-30.55,94.68
144141,2018-06-29 09:59:56.406250,-27.88,94.68
144142,2018-06-29 09:59:56.437500,-22.37,94.68
144143,2018-06-29 09:59:56.468750,-16.4,94.68
144144,2018-06-29 09:59:56.500000,-13.41,94.68
144145,2018-06-29 09:59:56.531250,-15.75,94.97
144146,2018-06-29 09:59:56.562500,-22.79,94.97
144147,2018-06-29 09:59:56.593750,-28.63,94.97
144148,2018-06-29 09:59:56.625000,-25.15,94.97
144149,2018-06-29 09:59:56.656250,-11.68,94.97
144150,2018-06-29 09:59:56.687500,3.2,94.97
144151,2018-06-29 09:59:56.718750,11.62,94.97
144152,2018-06-29 09:59:56.750000,13.16,94.97
144153,2018-06-29 09:59:56.781250,10.61,94.97
144154,2018-06-29 09:59:56.812500,5.57,94.97
144155,2018-06-29 09:59:56.843750,-0.62,94.97
144156,2018-06-29 09:59:56.875000,-5.83,94.97
144157,2018-06-29 09:59:56.906250,-8.25,94.97
144158,2018-06-29 09:59:56.937500,-7.53,94.97
144159,2018-06-29 09:59:56.968750,-4.47,94.97
144160,2018-06-29 09:59:57.000000,-0.43,94.97
144161,2018-06-29 09:59:57.031250,3.77,94.97
144162,2018-06-29 09:59:57.062500,7.85,94.97
144163,2018-06-29 09:59:57.093750,11.06,94.97
144164,2018-06-29 09:59:57.125000,12.22,94.97
144165,2018-06-29 09:59:57.156250,11.48,94.97
144166,2018-06-29 09:59:57.187500,10.18,94.97
144167,2018-06-29 09:59:57.218750,8.79,94.97
144168,2018-06-29 09:59:57.250000,5.9,94.97
144169,2018-06-29 09:59:57.281250,-0.49,94.97
144170,2018-06-29 09:59:57.312500,-10.15,94.97
144171,2018-06-29 09:59:57.343750,-18.1,94.97
144172,2018-06-29 09:59:57.375000,-17.48,94.97
144173,2018-06-29 09:59:57.406250,-6.47,94.97
144174,2018-06-29 09:59:57.437500,8.81,94.97
144175,2018-06-29 09:59:57.468750,20.33,94.97
144176,2018-06-29 09:59:57.500000,25.26,94.97
144177,2018-06-29 09:59:57.531250,25.22,95.22
144178,2018-06-29 09:59:57.562500,21.52,95.22
144179,2018-06-29 09:59:57.593750,14.26,95.22
144180,2018-06-29 09:59:57.625000,4.87,95.22
144181,2018-06-29 09:59:57.656250,-3.16,95.22
144182,2018-06-29 09:59:57.687500,-7.22,95.22
144183,2018-06-29 09:59:57.718750,-8.13,95.22
144184,2018-06-29 09:59:57.750000,-8.78,95.22
144185,2018-06-29 09:59:57.781250,-11.04,95.22
144186,2018-06-29 09:59:57.812500,-15.88,95.22
144187,2018-06-29 09:59:57.843750,-23.8,95.22
144188,2018-06-29 09:59:57.875000,-34.07,95.22
144189,2018-06-29 09:59:57.906250,-42.53,95.22
144190,2018-06-29 09:59:57.937500,-44.4,95.22
144191,2018-06-29 09:59:57.968750,-38.37,95.22
144192,2018-06-29 09:59:58.000000,-27.87,95.22
144193,2018-06-29 09:59:58.031250,-18.39,95.22
144194,2018-06-29 09:59:58.062500,-11.6,95.22
144195,2018-06-29 09:59:58.093750,-2.9,95.22
144196,2018-06-29 09:59:58.125000,16.83,95.22
144197,2018-06-29 09:59:58.156250,47.75,95.22
144198,2018-06-29 09:59:58.187500,79.08,95.22
144199,2018-06-29 09:59:58.218750,101.24,95.22
144200,2018-06-29 09:59:58.250000,114.56,95.22
144201,2018-06-29 09:59:58.281250,121.29,95.22
144202,2018-06-29 09:59:58.312500,117.65,95.22
144203,2018-06-29 09:59:58.343750,103.76,95.22
144204,2018-06-29 09:59:58.375000,74.54,95.22
144205,2018-06-29 09:59:58.406250,34.08,95.22
144206,2018-06-29 09:59:58.437500,5.8,95.22
144207,2018-06-29 09:59:58.468750,-5.9,95.22
144208,2018-06-29 09:59:58.500000,-11.32,95.22
144209,2018-06-29 09:59:58.531250,-10.2,95.55
144210,2018-06-29 09:59:58.562500,0.26,95.55
144211,2018-06-29 09:59:58.593750,12.01,95.55
144212,2018-06-29 09:59:58.625000,16.76,95.55
144213,2018-06-29 09:59:58.656250,13.11,95.55
144214,2018-06-29 09:59:58.687500,8.05,95.55
144215,2018-06-29 09:59:58.718750,2.2,95.55
144216,2018-06-29 09:59:58.750000,-8.63,95.55
144217,2018-06-29 09:59:58.781250,-23.81,95.55
144218,2018-06-29 09:59:58.812500,-36.79,95.55
144219,2018-06-29 09:59:58.843750,-41.19,95.55
144220,2018-06-29 09:59:58.875000,-33.84,95.55
144221,2018-06-29 09:59:58.906250,-17.54,95.55
144222,2018-06-29 09:59:58.937500,0.28,95.55
144223,2018-06-29 09:59:58.968750,14.45,95.55
144224,2018-06-29 09:59:59.000000,23.99,95.55
144225,2018-06-29 09:59:59.031250,28.35,95.55
144226,2018-06-29 09:59:59.062500,26.86,95.55
144227,2018-06-29 09:59:59.093750,21.5,95.55
144228,2018-06-29 09:59:59.125000,15.8,95.55
144229,2018-06-29 09:59:59.156250,11.43,95.55
144230,2018-06-29 09:59:59.187500,7.91,95.55
144231,2018-06-29 09:59:59.218750,4.21,95.55
144232,2018-06-29 09:59:59.250000,-1.39,95.55
144233,2018-06-29 09:59:59.281250,-9.89,95.55
144234,2018-06-29 09:59:59.312500,-18.79,95.55
144235,2018-06-29 09:59:59.343750,-23.58,95.55
144236,2018-06-29 09:59:59.375000,-23.06,95.55
144237,2018-06-29 09:59:59.406250,-20.69,95.55
144238,2018-06-29 09:59:59.437500,-20.3,95.55
144239,2018-06-29 09:59:59.468750,-23.5,95.55
144240,2018-06-29 09:59:59.500000,-30.52,95.55
144241,2018-06-29 09:59:59.531250,-40.41,95.9
144242,2018-06-29 09:59:59.562500,-51.2,95.9
144243,2018-06-29 09:59:59.593750,-61.54,95.9
144244,2018-06-29 09:59:59.625000,-69.11,95.9
144245,2018-06-29 09:59:59.656250,-68.01,95.9
144246,2018-06-29 09:59:59.687500,-54.23,95.9
144247,2018-06-29 09:59:59.718750,-33.07,95.9
144248,2018-06-29 09:59:59.750000,-14.15,95.9
144249,2018-06-29 09:59:59.781250,-0.76,95.9
144250,2018-06-29 09:59:59.812500,9.17,95.9
144251,2018-06-29 09:59:59.843750,16.05,95.9
144252,2018-06-29 09:59:59.875000,20.21,95.9
144253,2018-06-29 09:59:59.906250,24.31,95.9
144254,2018-06-29 09:59:59.937500,29.34,95.9
144255,2018-06-29 09:59:59.968750,32.84,95.9
144256,2018-06-29 10:00:00.000000,33.12,95.9
144257,2018-06-29 10:00:00.031250,30.71,95.9
144258,2018-06-29 10:00:00.062500,25.09,95.9
144259,2018-06-29 10:00:00.093750,16.37,95.9
144260,2018-06-29 10:00:00.125000,7.59,95.9
144261,2018-06-29 10:00:00.156250,2.96,95.9
144262,2018-06-29 10:00:00.187500,1.27,95.9
144263,2018-06-29 10:00:00.218750,-2.43,95.9
144264,2018-06-29 10:00:00.250000,-8.55,95.9
144265,2018-06-29 10:00:00.281250,-11.77,95.9
144266,2018-06-29 10:00:00.312500,-9.89,95.9
144267,2018-06-29 10:00:00.343750,-9.87,95.9
144268,2018-06-29 10:00:00.375000,-12.95,95.9
144269,2018-06-29 10:00:00.406250,-11.27,95.9
144270,2018-06-29 10:00:00.437500,0.24,95.9
144271,2018-06-29 10:00:00.468750,11.19,95.9
144272,2018-06-29 10:00:00.500000,12.13,95.9
144273,2018-06-29 10:00:00.531250,6.27,96.27
144274,2018-06-29 10:00:00.562500,-7.51,96.27
144275,2018-06-29 10:00:00.593750,-38.82,96.27
144276,2018-06-29 10:00:00.625000,-95.97,96.27
144277,2018-06-29 10:00:00.656250,-170.38,96.27
144278,2018-06-29 10:00:00.687500,-256.2,96.27
144279,2018-06-29 10:00:00.718750,-311.61,96.27
144280,2018-06-29 10:00:00.750000,-268.4,96.27
144281,2018-06-29 10:00:00.781250,-154.28,96.27
144282,2018-06-29 10:00:00.812500,-44.36,96.27
144283,2018-06-29 10:00:00.843750,39.07,96.27
144284,2018-06-29 10:00:00.875000,119.25,96.27
144285,2018-06-29 10:00:00.906250,197.17,96.27
144286,2018-06-29 10:00:00.937500,252.62,96.27
144287,2018-06-29 10:00:00.968750,280.8,96.27
144288,2018-06-29 10:00:01.000000,270.2,96.27
144289,2018-06-29 10:00:01.031250,220.84,96.27
144290,2018-06-29 10:00:01.062500,132.09,96.27
144291,2018-06-29 10:00:01.093750,30.0,96.27
144292,2018-06-29 10:00:01.125000,-45.04,96.27
144293,2018-06-29 10:00:01.156250,-78.51,96.27
144294,2018-06-29 10:00:01.187500,-94.57,96.27
144295,2018-06-29 10:00:01.218750,-109.99,96.27
144296,2018-06-29 10:00:01.250000,-116.03,96.27
144297,2018-06-29 10:00:01.281250,-103.62,96.27
144298,2018-06-29 10:00:01.312500,-76.01,96.27
144299,2018-06-29 10:00:01.343750,-45.26,96.27
144300,2018-06-29 10:00:01.375000,-18.76,96.27
144301,2018-06-29 10:00:01.406250,1.37,96.27
144302,2018-06-29 10:00:01.437500,16.01,96.27
144303,2018-06-29 10:00:01.468750,22.71,96.27
144304,2018-06-29 10:00:01.500000,23.99,96.27
144305,2018-06-29 10:00:01.531250,24.56,96.65
144306,2018-06-29 10:00:01.562500,25.58,96.65
144307,2018-06-29 10:00:01.593750,25.32,96.65
144308,2018-06-29 10:00:01.625000,23.86,96.65
144309,2018-06-29 10:00:01.656250,23.36,96.65
144310,2018-06-29 10:00:01.687500,22.88,96.65
144311,2018-06-29 10:00:01.718750,19.35,96.65
144312,2018-06-29 10:00:01.750000,11.62,96.65
144313,2018-06-29 10:00:01.781250,2.47,96.65
144314,2018-06-29 10:00:01.812500,-5.08,96.65
144315,2018-06-29 10:00:01.843750,-11.82,96.65
144316,2018-06-29 10:00:01.875000,-20.22,96.65
144317,2018-06-29 10:00:01.906250,-29.95,96.65
144318,2018-06-29 10:00:01.937500,-38.32,96.65
144319,2018-06-29 10:00:01.968750,-44.35,96.65
144320,2018-06-29 10:00:02.000000,-49.62,96.65
144321,2018-06-29 10:00:02.031250,-55.88,96.65
144322,2018-06-29 10:00:02.062500,-61.39,96.65
144323,2018-06-29 10:00:02.093750,-58.99,96.65
144324,2018-06-29 10:00:02.125000,-42.39,96.65
144325,2018-06-29 10:00:02.156250,-15.51,96.65
144326,2018-06-29 10:00:02.187500,9.42,96.65
144327,2018-06-29 10:00:02.218750,24.33,96.65
144328,2018-06-29 10:00:02.250000,30.33,96.65
144329,2018-06-29 10:00:02.281250,30.72,96.65
144330,2018-06-29 10:00:02.312500,26.74,96.65
144331,2018-06-29 10:00:02.343750,21.39,96.65
144332,2018-06-29 10:00:02.375000,19.59,96.65
144333,2018-06-29 10:00:02.406250,21.92,96.65
144334,2018-06-29 10:00:02.437500,23.51,96.65
144335,2018-06-29 10:00:02.468750,21.32,96.65
144336,2018-06-29 10:00:02.500000,17.89,96.65
144337,2018-06-29 10:00:02.531250,15.75,97.05
144338,2018-06-29 10:00:02.562500,13.47,97.05
144339,2018-06-29 10:00:02.593750,9.86,97.05
144340,2018-06-29 10:00:02.625000,6.84,97.05
144341,2018-06-29 10:00:02.656250,5.22,97.05
144342,2018-06-29 10:00:02.687500,2.31,97.05
144343,2018-06-29 10:00:02.718750,-3.32,97.05
144344,2018-06-29 10:00:02.750000,-8.89,97.05
144345,2018-06-29 10:00:02.781250,-11.76,97.05
144346,2018-06-29 10:00:02.812500,-13.31,97.05
144347,2018-06-29 10:00:02.843750,-16.82,97.05
144348,2018-06-29 10:00:02.875000,-23.57,97.05
144349,2018-06-29 10:00:02.906250,-30.64,97.05
144350,2018-06-29 10:00:02.937500,-31.11,97.05
144351,2018-06-29 10:00:02.968750,-19.63,97.05
144352,2018-06-29 10:00:03.000000,0.2,97.05
144353,2018-06-29 10:00:03.031250,18.67,97.05
144354,2018-06-29 10:00:03.062500,30.22,97.05
144355,2018-06-29 10:00:03.093750,35.45,97.05
144356,2018-06-29 10:00:03.125000,35.31,97.05
144357,2018-06-29 10:00:03.156250,30.67,97.05
144358,2018-06-29 10:00:03.187500,25.06,97.05
144359,2018-06-29 10:00:03.218750,22.28,97.05
144360,2018-06-29 10:00:03.250000,22.16,97.05
144361,2018-06-29 10:00:03.281250,22.0,97.05
144362,2018-06-29 10:00:03.312500,20.91,97.05
144363,2018-06-29 10:00:03.343750,19.68,97.05
144364,2018-06-29 10:00:03.375000,17.99,97.05
144365,2018-06-29 10:00:03.406250,14.84,97.05
144366,2018-06-29 10:00:03.437500,10.77,97.05
144367,2018-06-29 10:00:03.468750,7.35,97.05
144368,2018-06-29 10:00:03.500000,4.95,97.05
144369,2018-06-29 10:00:03.531250,2.4,97.43
144370,2018-06-29 10:00:03.562500,-1.37,97.43
144371,2018-06-29 10:00:03.593750,-5.59,97.43
144372,2018-06-29 10:00:03.625000,-8.36,97.43
144373,2018-06-29 10:00:03.656250,-9.39,97.43
144374,2018-06-29 10:00:03.687500,-10.9,97.43
144375,2018-06-29 10:00:03.718750,-15.09,97.43
144376,2018-06-29 10:00:03.750000,-20.56,97.43
144377,2018-06-29 10:00:03.781250,-22.09,97.43
144378,2018-06-29 10:00:03.812500,-15.43,97.43
144379,2018-06-29 10:00:03.843750,-2.3,97.43
144380,2018-06-29 10:00:03.875000,11.14,97.43
144381,2018-06-29 10:00:03.906250,20.18,97.43
144382,2018-06-29 10:00:03.937500,23.91,97.43
144383,2018-06-29 10:00:03.968750,23.72,97.43
144384,2018-06-29 10:00:04.000000,22.3,97.43
144385,2018-06-29 10:00:04.031250,22.58,97.43
144386,2018-06-29 10:00:04.062500,25.24,97.43
144387,2018-06-29 10:00:04.093750,28.12,97.43
144388,2018-06-29 10:00:04.125000,28.89,97.43
144389,2018-06-29 10:00:04.156250,27.23,97.43
144390,2018-06-29 10:00:04.187500,23.59,97.43
144391,2018-06-29 10:00:04.218750,18.0,97.43
144392,2018-06-29 10:00:04.250000,11.25,97.43
144393,2018-06-29 10:00:04.281250,5.59,97.43
144394,2018-06-29 10:00:04.312500,2.49,97.43
144395,2018-06-29 10:00:04.343750,0.96,97.43
144396,2018-06-29 10:00:04.375000,-0.66,97.43
144397,2018-06-29 10:00:04.406250,-2.17,97.43
144398,2018-06-29 10:00:04.437500,-2.74,97.43
144399,2018-06-29 10:00:04.468750,-3.18,97.43
144400,2018-06-29 10:00:04.500000,-5.24,97.43
144401,2018-06-29 10:00:04.531250,-9.53,97.8
144402,2018-06-29 10:00:04.562500,-14.68,97.8
144403,2018-06-29 10:00:04.593750,-17.13,97.8
144404,2018-06-29 10:00:04.625000,-13.49,97.8
144405,2018-06-29 10:00:04.656250,-4.85,97.8
144406,2018-06-29 10:00:04.687500,4.13,97.8
144407,2018-06-29 10:00:04.718750,10.46,97.8
144408,2018-06-29 10:00:04.750000,14.49,97.8
144409,2018-06-29 10:00:04.781250,16.72,97.8
144410,2018-06-29 10:00:04.812500,16.9,97.8
144411,2018-06-29 10:00:04.843750,16.22,97.8
144412,2018-06-29 10:00:04.875000,16.71,97.8
144413,2018-06-29 10:00:04.906250,18.38,97.8
144414,2018-06-29 10:00:04.937500,18.87,97.8
144415,2018-06-29 10:00:04.968750,16.47,97.8
144416,2018-06-29 10:00:05.000000,11.83,97.8
144417,2018-06-29 10:00:05.031250,6.47,97.8
144418,2018-06-29 10:00:05.062500,1.62,97.8
144419,2018-06-29 10:00:05.093750,-1.98,97.8
144420,2018-06-29 10:00:05.125000,-4.53,97.8
144421,2018-06-29 10:00:05.156250,-6.93,97.8
144422,2018-06-29 10:00:05.187500,-9.32,97.8
144423,2018-06-29 10:00:05.218750,-11.04,97.8
144424,2018-06-29 10:00:05.250000,-12.58,97.8
144425,2018-06-29 10:00:05.281250,-15.17,97.8
144426,2018-06-29 10:00:05.312500,-18.62,97.8
144427,2018-06-29 10:00:05.343750,-20.63,97.8
144428,2018-06-29 10:00:05.375000,-18.3,97.8
144429,2018-06-29 10:00:05.406250,-10.41,97.8
144430,2018-06-29 10:00:05.437500,0.69,97.8
144431,2018-06-29 10:00:05.468750,10.47,97.8
144432,2018-06-29 10:00:05.500000,15.91,97.8
144433,2018-06-29 10:00:05.531250,16.88,98.08
144434,2018-06-29 10:00:05.562500,14.89,98.08
144435,2018-06-29 10:00:05.593750,11.92,98.08
144436,2018-06-29 10:00:05.625000,9.87,98.08
144437,2018-06-29 10:00:05.656250,9.67,98.08
144438,2018-06-29 10:00:05.687500,10.73,98.08
144439,2018-06-29 10:00:05.718750,11.73,98.08
144440,2018-06-29 10:00:05.750000,11.46,98.08
144441,2018-06-29 10:00:05.781250,9.74,98.08
144442,2018-06-29 10:00:05.812500,7.23,98.08
144443,2018-06-29 10:00:05.843750,5.12,98.08
144444,2018-06-29 10:00:05.875000,4.97,98.08
144445,2018-06-29 10:00:05.906250,8.39,98.08
144446,2018-06-29 10:00:05.937500,14.87,98.08
144447,2018-06-29 10:00:05.968750,20.6,98.08
144448,2018-06-29 10:00:06.000000,21.97,98.08
144449,2018-06-29 10:00:06.031250,19.44,98.08
144450,2018-06-29 10:00:06.062500,16.99,98.08
144451,2018-06-29 10:00:06.093750,19.34,98.08
144452,2018-06-29 10:00:06.125000,28.87,98.08
144453,2018-06-29 10:00:06.156250,42.93,98.08
144454,2018-06-29 10:00:06.187500,55.88,98.08
144455,2018-06-29 10:00:06.218750,65.16,98.08
144456,2018-06-29 10:00:06.250000,72.74,98.08
144457,2018-06-29 10:00:06.281250,80.62,98.08
144458,2018-06-29 10:00:06.312500,88.37,98.08
144459,2018-06-29 10:00:06.343750,95.05,98.08
144460,2018-06-29 10:00:06.375000,100.38,98.08
144461,2018-06-29 10:00:06.406250,102.51,98.08
144462,2018-06-29 10:00:06.437500,98.36,98.08
144463,2018-06-29 10:00:06.468750,87.15,98.08
144464,2018-06-29 10:00:06.500000,74.66,98.08
144465,2018-06-29 10:00:06.531250,70.79,98.33
144466,2018-06-29 10:00:06.562500,78.37,98.33
144467,2018-06-29 10:00:06.593750,83.23,98.33
144468,2018-06-29 10:00:06.625000,65.38,98.33
144469,2018-06-29 10:00:06.656250,22.96,98.33
144470,2018-06-29 10:00:06.687500,-25.3,98.33
144471,2018-06-29 10:00:06.718750,-58.39,98.33
144472,2018-06-29 10:00:06.750000,-64.71,98.33
144473,2018-06-29 10:00:06.781250,-46.21,98.33
144474,2018-06-29 10:00:06.812500,-18.42,98.33
144475,2018-06-29 10:00:06.843750,1.07,98.33
144476,2018-06-29 10:00:06.875000,7.18,98.33
144477,2018-06-29 10:00:06.906250,4.11,98.33
144478,2018-06-29 10:00:06.937500,-7.75,98.33
144479,2018-06-29 10:00:06.968750,-27.93,98.33
144480,2018-06-29 10:00:07.000000,-47.93,98.33
144481,2018-06-29 10:00:07.031250,-58.36,98.33
144482,2018-06-29 10:00:07.062500,-62.09,98.33
144483,2018-06-29 10:00:07.093750,-69.14,98.33
144484,2018-06-29 10:00:07.125000,-86.99,98.33
144485,2018-06-29 10:00:07.156250,-120.96,98.33
144486,2018-06-29 10:00:07.187500,-153.85,98.33
144487,2018-06-29 10:00:07.218750,-153.52,98.33
144488,2018-06-29 10:00:07.250000,-116.36,98.33
144489,2018-06-29 10:00:07.281250,-63.98,98.33
144490,2018-06-29 10:00:07.312500,-14.39,98.33
144491,2018-06-29 10:00:07.343750,26.29,98.33
144492,2018-06-29 10:00:07.375000,56.62,98.33
144493,2018-06-29 10:00:07.406250,78.36,98.33
144494,2018-06-29 10:00:07.437500,95.24,98.33
144495,2018-06-29 10:00:07.468750,105.68,98.33
144496,2018-06-29 10:00:07.500000,104.41,98.33
144497,2018-06-29 10:00:07.531250,91.92,98.65
144498,2018-06-29 10:00:07.562500,77.7,98.65
144499,2018-06-29 10:00:07.593750,69.93,98.65
144500,2018-06-29 10:00:07.625000,67.28,98.65
144501,2018-06-29 10:00:07.656250,64.2,98.65
144502,2018-06-29 10:00:07.687500,59.75,98.65
144503,2018-06-29 10:00:07.718750,68.87,98.65
144504,2018-06-29 10:00:07.750000,100.73,98.65
144505,2018-06-29 10:00:07.781250,140.92,98.65
144506,2018-06-29 10:00:07.812500,163.6,98.65
144507,2018-06-29 10:00:07.843750,152.49,98.65
144508,2018-06-29 10:00:07.875000,111.03,98.65
144509,2018-06-29 10:00:07.906250,54.58,98.65
144510,2018-06-29 10:00:07.937500,-4.47,98.65
144511,2018-06-29 10:00:07.968750,-61.47,98.65
144512,2018-06-29 10:00:08.000000,-113.78,98.65
144513,2018-06-29 10:00:08.031250,-161.1,98.65
144514,2018-06-29 10:00:08.062500,-203.82,98.65
144515,2018-06-29 10:00:08.093750,-242.42,98.65
144516,2018-06-29 10:00:08.125000,-280.15,98.65
144517,2018-06-29 10:00:08.156250,-325.3,98.65
144518,2018-06-29 10:00:08.187500,-377.34,98.65
144519,2018-06-29 10:00:08.218750,-417.4,98.65
144520,2018-06-29 10:00:08.250000,-425.4,98.65
144521,2018-06-29 10:00:08.281250,-396.85,98.65
144522,2018-06-29 10:00:08.312500,-339.65,98.65
144523,2018-06-29 10:00:08.343750,-267.29,98.65
144524,2018-06-29 10:00:08.375000,-193.13,98.65
144525,2018-06-29 10:00:08.406250,-119.94,98.65
144526,2018-06-29 10:00:08.437500,-46.64,98.65
144527,2018-06-29 10:00:08.468750,16.25,98.65
144528,2018-06-29 10:00:08.500000,55.68,98.65
144529,2018-06-29 10:00:08.531250,71.04,98.97
144530,2018-06-29 10:00:08.562500,67.92,98.97
144531,2018-06-29 10:00:08.593750,50.24,98.97
144532,2018-06-29 10:00:08.625000,25.88,98.97
144533,2018-06-29 10:00:08.656250,3.62,98.97
144534,2018-06-29 10:00:08.687500,-12.19,98.97
144535,2018-06-29 10:00:08.718750,-21.07,98.97
144536,2018-06-29 10:00:08.750000,-24.85,98.97
144537,2018-06-29 10:00:08.781250,-25.88,98.97
144538,2018-06-29 10:00:08.812500,-25.17,98.97
144539,2018-06-29 10:00:08.843750,-20.66,98.97
144540,2018-06-29 10:00:08.875000,-10.86,98.97
144541,2018-06-29 10:00:08.906250,9.79,98.97
144542,2018-06-29 10:00:08.937500,47.17,98.97
144543,2018-06-29 10:00:08.968750,101.88,98.97
144544,2018-06-29 10:00:09.000000,168.35,98.97
144545,2018-06-29 10:00:09.031250,237.46,98.97
144546,2018-06-29 10:00:09.062500,297.78,98.97
144547,2018-06-29 10:00:09.093750,308.67,98.97
144548,2018-06-29 10:00:09.125000,253.29,98.97
144549,2018-06-29 10:00:09.156250,165.29,98.97
144550,2018-06-29 10:00:09.187500,76.03,98.97
144551,2018-06-29 10:00:09.218750,2.72,98.97
144552,2018-06-29 10:00:09.250000,-45.26,98.97
144553,2018-06-29 10:00:09.281250,-68.61,98.97
144554,2018-06-29 10:00:09.312500,-76.25,98.97
144555,2018-06-29 10:00:09.343750,-77.88,98.97
144556,2018-06-29 10:00:09.375000,-78.23,98.97
144557,2018-06-29 10:00:09.406250,-75.01,98.97
144558,2018-06-29 10:00:09.437500,-68.19,98.97
144559,2018-06-29 10:00:09.468750,-64.65,98.97
144560,2018-06-29 10:00:09.500000,-67.97,98.97
144561,2018-06-29 10:00:09.531250,-74.15,99.3
144562,2018-06-29 10:00:09.562500,-78.19,99.3
144563,2018-06-29 10:00:09.593750,-82.67,99.3
144564,2018-06-29 10:00:09.625000,-91.72,99.3
144565,2018-06-29 10:00:09.656250,-102.31,99.3
144566,2018-06-29 10:00:09.687500,-101.87,99.3
144567,2018-06-29 10:00:09.718750,-81.37,99.3
144568,2018-06-29 10:00:09.750000,-46.58,99.3
144569,2018-06-29 10:00:09.781250,-12.03,99.3
144570,2018-06-29 10:00:09.812500,13.79,99.3
144571,2018-06-29 10:00:09.843750,31.91,99.3
144572,2018-06-29 10:00:09.875000,44.58,99.3
144573,2018-06-29 10:00:09.906250,52.1,99.3
144574,2018-06-29 10:00:09.937500,55.45,99.3
144575,2018-06-29 10:00:09.968750,57.35,99.3
144576,2018-06-29 10:00:10.000000,59.53,99.3
144577,2018-06-29 10:00:10.031250,61.64,99.3
144578,2018-06-29 10:00:10.062500,63.34,99.3
144579,2018-06-29 10:00:10.093750,64.04,99.3
144580,2018-06-29 10:00:10.125000,60.89,99.3
144581,2018-06-29 10:00:10.156250,51.45,99.3
144582,2018-06-29 10:00:10.187500,38.41,99.3
144583,2018-06-29 10:00:10.218750,27.0,99.3
144584,2018-06-29 10:00:10.250000,18.43,99.3
144585,2018-06-29 10:00:10.281250,9.79,99.3
144586,2018-06-29 10:00:10.312500,-0.51,99.3
144587,2018-06-29 10:00:10.343750,-10.65,99.3
144588,2018-06-29 10:00:10.375000,-18.72,99.3
144589,2018-06-29 10:00:10.406250,-25.93,99.3
144590,2018-06-29 10:00:10.437500,-35.91,99.3
144591,2018-06-29 10:00:10.468750,-49.34,99.3
144592,2018-06-29 10:00:10.500000,-58.36,99.3
144593,2018-06-29 10:00:10.531250,-51.68,99.63
144594,2018-06-29 10:00:10.562500,-27.69,99.63
144595,2018-06-29 10:00:10.593750,2.3,99.63
144596,2018-06-29 10:00:10.625000,25.68,99.63
144597,2018-06-29 10:00:10.656250,38.86,99.63
144598,2018-06-29 10:00:10.687500,45.06,99.63
144599,2018-06-29 10:00:10.718750,47.25,99.63
144600,2018-06-29 10:00:10.750000,46.74,99.63
144601,2018-06-29 10:00:10.781250,45.44,99.63
144602,2018-06-29 10:00:10.812500,45.42,99.63
144603,2018-06-29 10:00:10.843750,46.39,99.63
144604,2018-06-29 10:00:10.875000,46.57,99.63
144605,2018-06-29 10:00:10.906250,45.32,99.63
144606,2018-06-29 10:00:10.937500,43.03,99.63
144607,2018-06-29 10:00:10.968750,39.92,99.63
144608,2018-06-29 10:00:11.000000,35.91,99.63
144609,2018-06-29 10:00:11.031250,31.04,99.63
144610,2018-06-29 10:00:11.062500,25.51,99.63
144611,2018-06-29 10:00:11.093750,19.96,99.63
144612,2018-06-29 10:00:11.125000,14.7,99.63
144613,2018-06-29 10:00:11.156250,9.21,99.63
144614,2018-06-29 10:00:11.187500,2.3,99.63
144615,2018-06-29 10:00:11.218750,-7.04,99.63
144616,2018-06-29 10:00:11.250000,-17.51,99.63
144617,2018-06-29 10:00:11.281250,-23.41,99.63
144618,2018-06-29 10:00:11.312500,-18.2,99.63
144619,2018-06-29 10:00:11.343750,-2.08,99.63
144620,2018-06-29 10:00:11.375000,17.06,99.63
144621,2018-06-29 10:00:11.406250,31.42,99.63
144622,2018-06-29 10:00:11.437500,38.85,99.63
144623,2018-06-29 10:00:11.468750,41.02,99.63
144624,2018-06-29 10:00:11.500000,39.82,99.63
144625,2018-06-29 10:00:11.531250,36.95,100.1
144626,2018-06-29 10:00:11.562500,34.5,100.1
144627,2018-06-29 10:00:11.593750,33.31,100.1
144628,2018-06-29 10:00:11.625000,31.91,100.1
144629,2018-06-29 10:00:11.656250,29.08,100.1
144630,2018-06-29 10:00:11.687500,25.49,100.1
144631,2018-06-29 10:00:11.718750,21.58,100.1
144632,2018-06-29 10:00:11.750000,16.62,100.1
144633,2018-06-29 10:00:11.781250,10.42,100.1
144634,2018-06-29 10:00:11.812500,4.09,100.1
144635,2018-06-29 10:00:11.843750,-0.93,100.1
144636,2018-06-29 10:00:11.875000,-4.18,100.1
144637,2018-06-29 10:00:11.906250,-6.74,100.1
144638,2018-06-29 10:00:11.937500,-10.43,100.1
144639,2018-06-29 10:00:11.968750,-15.92,100.1
144640,2018-06-29 10:00:12.000000,-21.26,100.1
144641,2018-06-29 10:00:12.031250,-21.67,100.1
144642,2018-06-29 10:00:12.062500,-13.12,100.1
144643,2018-06-29 10:00:12.093750,2.0,100.1
144644,2018-06-29 10:00:12.125000,15.9,100.1
144645,2018-06-29 10:00:12.156250,23.48,100.1
144646,2018-06-29 10:00:12.187500,25.52,100.1
144647,2018-06-29 10:00:12.218750,24.7,100.1
144648,2018-06-29 10:00:12.250000,22.94,100.1
144649,2018-06-29 10:00:12.281250,21.58,100.1
144650,2018-06-29 10:00:12.312500,20.99,100.1
144651,2018-06-29 10:00:12.343750,20.64,100.1
144652,2018-06-29 10:00:12.375000,19.93,100.1
144653,2018-06-29 10:00:12.406250,18.44,100.1
144654,2018-06-29 10:00:12.437500,15.77,100.1
144655,2018-06-29 10:00:12.468750,11.79,100.1
144656,2018-06-29 10:00:12.500000,6.85,100.1
144657,2018-06-29 10:00:12.531250,2.1,100.47
144658,2018-06-29 10:00:12.562500,-0.93,100.47
144659,2018-06-29 10:00:12.593750,-2.09,100.47
144660,2018-06-29 10:00:12.625000,-2.69,100.47
144661,2018-06-29 10:00:12.656250,-3.46,100.47
144662,2018-06-29 10:00:12.687500,-4.1,100.47
144663,2018-06-29 10:00:12.718750,-4.77,100.47
144664,2018-06-29 10:00:12.750000,-6.58,100.47
144665,2018-06-29 10:00:12.781250,-10.24,100.47
144666,2018-06-29 10:00:12.812500,-13.93,100.47
144667,2018-06-29 10:00:12.843750,-13.02,100.47
144668,2018-06-29 10:00:12.875000,-4.57,100.47
144669,2018-06-29 10:00:12.906250,8.07,100.47
144670,2018-06-29 10:00:12.937500,18.4,100.47
144671,2018-06-29 10:00:12.968750,23.31,100.47
144672,2018-06-29 10:00:13.000000,23.63,100.47
144673,2018-06-29 10:00:13.031250,20.77,100.47
144674,2018-06-29 10:00:13.062500,16.45,100.47
144675,2018-06-29 10:00:13.093750,13.07,100.47
144676,2018-06-29 10:00:13.125000,12.02,100.47
144677,2018-06-29 10:00:13.156250,12.29,100.47
144678,2018-06-29 10:00:13.187500,12.24,100.47
144679,2018-06-29 10:00:13.218750,11.66,100.47
144680,2018-06-29 10:00:13.250000,11.2,100.47
144681,2018-06-29 10:00:13.281250,10.59,100.47
144682,2018-06-29 10:00:13.312500,8.98,100.47
144683,2018-06-29 10:00:13.343750,6.55,100.47
144684,2018-06-29 10:00:13.375000,4.07,100.47
144685,2018-06-29 10:00:13.406250,1.23,100.47
144686,2018-06-29 10:00:13.437500,-2.65,100.47
144687,2018-06-29 10:00:13.468750,-6.7,100.47
144688,2018-06-29 10:00:13.500000,-9.26,100.47
144689,2018-06-29 10:00:13.531250,-10.39,100.85
144690,2018-06-29 10:00:13.562500,-11.9,100.85
144691,2018-06-29 10:00:13.593750,-14.84,100.85
144692,2018-06-29 10:00:13.625000,-17.34,100.85
144693,2018-06-29 10:00:13.656250,-15.43,100.85
144694,2018-06-29 10:00:13.687500,-7.13,100.85
144695,2018-06-29 10:00:13.718750,4.3,100.85
144696,2018-06-29 10:00:13.750000,13.05,100.85
144697,2018-06-29 10:00:13.781250,16.27,100.85
144698,2018-06-29 10:00:13.812500,15.18,100.85
144699,2018-06-29 10:00:13.843750,12.25,100.85
144700,2018-06-29 10:00:13.875000,9.49,100.85
144701,2018-06-29 10:00:13.906250,8.29,100.85
144702,2018-06-29 10:00:13.937500,8.79,100.85
144703,2018-06-29 10:00:13.968750,9.54,100.85
144704,2018-06-29 10:00:14.000000,9.09,100.85
144705,2018-06-29 10:00:14.031250,7.5,100.85
144706,2018-06-29 10:00:14.062500,5.78,100.85
144707,2018-06-29 10:00:14.093750,4.37,100.85
144708,2018-06-29 10:00:14.125000,3.06,100.85
144709,2018-06-29 10:00:14.156250,1.67,100.85
144710,2018-06-29 10:00:14.187500,-0.13,100.85
144711,2018-06-29 10:00:14.218750,-2.56,100.85
144712,2018-06-29 10:00:14.250000,-5.03,100.85
144713,2018-06-29 10:00:14.281250,-6.77,100.85
144714,2018-06-29 10:00:14.312500,-7.98,100.85
144715,2018-06-29 10:00:14.343750,-9.4,100.85
144716,2018-06-29 10:00:14.375000,-11.46,100.85
144717,2018-06-29 10:00:14.406250,-13.72,100.85
144718,2018-06-29 10:00:14.437500,-13.88,100.85
144719,2018-06-29 10:00:14.468750,-9.26,100.85
144720,2018-06-29 10:00:14.500000,-0.78,100.85
144721,2018-06-29 10:00:14.531250,6.95,101.2
144722,2018-06-29 10:00:14.562500,10.65,101.2
144723,2018-06-29 10:00:14.593750,10.66,101.2
144724,2018-06-29 10:00:14.625000,8.72,101.2
144725,2018-06-29 10:00:14.656250,6.48,101.2
144726,2018-06-29 10:00:14.687500,5.05,101.2
144727,2018-06-29 10:00:14.718750,4.55,101.2
144728,2018-06-29 10:00:14.750000,4.6,101.2
144729,2018-06-29 10:00:14.781250,4.79,101.2
144730,2018-06-29 10:00:14.812500,4.58,101.2
144731,2018-06-29 10:00:14.843750,3.8,101.2
144732,2018-06-29 10:00:14.875000,2.87,101.2
144733,2018-06-29 10:00:14.906250,2.08,101.2
144734,2018-06-29 10:00:14.937500,1.57,101.2
144735,2018-06-29 10:00:14.968750,1.34,101.2
144736,2018-06-29 10:00:15.000000,0.98,101.2
144737,2018-06-29 10:00:15.031250,-0.21,101.2
144738,2018-06-29 10:00:15.062500,-2.39,101.2
144739,2018-06-29 10:00:15.093750,-5.17,101.2
144740,2018-06-29 10:00:15.125000,-8.11,101.2
144741,2018-06-29 10:00:15.156250,-10.88,101.2
144742,2018-06-29 10:00:15.187500,-13.22,101.2
144743,2018-06-29 10:00:15.218750,-13.79,101.2
144744,2018-06-29 10:00:15.250000,-10.64,101.2
144745,2018-06-29 10:00:15.281250,-4.27,101.2
144746,2018-06-29 10:00:15.312500,1.91,101.2
144747,2018-06-29 10:00:15.343750,5.28,101.2
144748,2018-06-29 10:00:15.375000,5.74,101.2
144749,2018-06-29 10:00:15.406250,4.15,101.2
144750,2018-06-29 10:00:15.437500,1.51,101.2
144751,2018-06-29 10:00:15.468750,-0.35,101.2
144752,2018-06-29 10:00:15.500000,-0.12,101.2
144753,2018-06-29 10:00:15.531250,1.57,101.53
144754,2018-06-29 10:00:15.562500,2.88,101.53
144755,2018-06-29 10:00:15.593750,2.63,101.53
144756,2018-06-29 10:00:15.625000,1.42,101.53
144757,2018-06-29 10:00:15.656250,0.58,101.53
144758,2018-06-29 10:00:15.687500,0.06,101.53
144759,2018-06-29 10:00:15.718750,-1.29,101.53
144760,2018-06-29 10:00:15.750000,-3.43,101.53
144761,2018-06-29 10:00:15.781250,-5.39,101.53
144762,2018-06-29 10:00:15.812500,-7.51,101.53
144763,2018-06-29 10:00:15.843750,-10.35,101.53
144764,2018-06-29 10:00:15.875000,-13.06,101.53
144765,2018-06-29 10:00:15.906250,-15.09,101.53
144766,2018-06-29 10:00:15.937500,-16.94,101.53
144767,2018-06-29 10:00:15.968750,-17.95,101.53
144768,2018-06-29 10:00:16.000000,-16.07,101.53
144769,2018-06-29 10:00:16.031250,-11.07,101.53
144770,2018-06-29 10:00:16.062500,-5.6,101.53
144771,2018-06-29 10:00:16.093750,-2.06,101.53
144772,2018-06-29 10:00:16.125000,-0.55,101.53
144773,2018-06-29 10:00:16.156250,-0.37,101.53
144774,2018-06-29 10:00:16.187500,-1.19,101.53
144775,2018-06-29 10:00:16.218750,-2.06,101.53
144776,2018-06-29 10:00:16.250000,-1.47,101.53
144777,2018-06-29 10:00:16.281250,0.91,101.53
144778,2018-06-29 10:00:16.312500,4.09,101.53
144779,2018-06-29 10:00:16.343750,7.03,101.53
144780,2018-06-29 10:00:16.375000,8.95,101.53
144781,2018-06-29 10:00:16.406250,9.24,101.53
144782,2018-06-29 10:00:16.437500,8.09,101.53
144783,2018-06-29 10:00:16.468750,6.47,101.53
144784,2018-06-29 10:00:16.500000,4.81,101.53
144785,2018-06-29 10:00:16.531250,2.53,101.85
144786,2018-06-29 10:00:16.562500,-0.56,101.85
144787,2018-06-29 10:00:16.593750,-3.6,101.85
144788,2018-06-29 10:00:16.625000,-5.83,101.85
144789,2018-06-29 10:00:16.656250,-7.75,101.85
144790,2018-06-29 10:00:16.687500,-10.55,101.85
144791,2018-06-29 10:00:16.718750,-14.04,101.85
144792,2018-06-29 10:00:16.750000,-15.74,101.85
144793,2018-06-29 10:00:16.781250,-13.46,101.85
144794,2018-06-29 10:00:16.812500,-8.69,101.85
144795,2018-06-29 10:00:16.843750,-4.7,101.85
144796,2018-06-29 10:00:16.875000,-2.54,101.85
144797,2018-06-29 10:00:16.906250,-1.44,101.85
144798,2018-06-29 10:00:16.937500,-1.31,101.85
144799,2018-06-29 10:00:16.968750,-1.88,101.85
144800,2018-06-29 10:00:17.000000,-1.72,101.85
144801,2018-06-29 10:00:17.031250,0.07,101.85
144802,2018-06-29 10:00:17.062500,2.96,101.85
144803,2018-06-29 10:00:17.093750,5.9,101.85
144804,2018-06-29 10:00:17.125000,8.07,101.85
144805,2018-06-29 10:00:17.156250,9.24,101.85
144806,2018-06-29 10:00:17.187500,9.73,101.85
144807,2018-06-29 10:00:17.218750,9.59,101.85
144808,2018-06-29 10:00:17.250000,8.7,101.85
144809,2018-06-29 10:00:17.281250,7.47,101.85
144810,2018-06-29 10:00:17.312500,6.26,101.85
144811,2018-06-29 10:00:17.343750,4.75,101.85
144812,2018-06-29 10:00:17.375000,2.47,101.85
144813,2018-06-29 10:00:17.406250,-0.58,101.85
144814,2018-06-29 10:00:17.437500,-4.02,101.85
144815,2018-06-29 10:00:17.468750,-6.6,101.85
144816,2018-06-29 10:00:17.500000,-6.53,101.85
144817,2018-06-29 10:00:17.531250,-3.6,102.17
144818,2018-06-29 10:00:17.562500,0.04,102.17
144819,2018-06-29 10:00:17.593750,2.53,102.17
144820,2018-06-29 10:00:17.625000,3.94,102.17
144821,2018-06-29 10:00:17.656250,4.5,102.17
144822,2018-06-29 10:00:17.687500,4.0,102.17
144823,2018-06-29 10:00:17.718750,3.2,102.17
144824,2018-06-29 10:00:17.750000,3.44,102.17
144825,2018-06-29 10:00:17.781250,4.63,102.17
144826,2018-06-29 10:00:17.812500,5.04,102.17
144827,2018-06-29 10:00:17.843750,3.95,102.17
144828,2018-06-29 10:00:17.875000,2.71,102.17
144829,2018-06-29 10:00:17.906250,1.85,102.17
144830,2018-06-29 10:00:17.937500,-0.21,102.17
144831,2018-06-29 10:00:17.968750,-3.84,102.17
144832,2018-06-29 10:00:18.000000,-6.96,102.17
144833,2018-06-29 10:00:18.031250,-8.33,102.17
144834,2018-06-29 10:00:18.062500,-8.65,102.17
144835,2018-06-29 10:00:18.093750,-9.06,102.17
144836,2018-06-29 10:00:18.125000,-10.21,102.17
144837,2018-06-29 10:00:18.156250,-11.76,102.17
144838,2018-06-29 10:00:18.187500,-11.94,102.17
144839,2018-06-29 10:00:18.218750,-9.2,102.17
144840,2018-06-29 10:00:18.250000,-4.38,102.17
144841,2018-06-29 10:00:18.281250,-0.15,102.17
144842,2018-06-29 10:00:18.312500,1.75,102.17
144843,2018-06-29 10:00:18.343750,1.62,102.17
144844,2018-06-29 10:00:18.375000,0.41,102.17
144845,2018-06-29 10:00:18.406250,-1.34,102.17
144846,2018-06-29 10:00:18.437500,-2.87,102.17
144847,2018-06-29 10:00:18.468750,-3.4,102.17
144848,2018-06-29 10:00:18.500000,-2.97,102.17
144849,2018-06-29 10:00:18.531250,-2.15,102.48
144850,2018-06-29 10:00:18.562500,-1.12,102.48
144851,2018-06-29 10:00:18.593750,0.08,102.48
144852,2018-06-29 10:00:18.625000,0.65,102.48
144853,2018-06-29 10:00:18.656250,-0.16,102.48
144854,2018-06-29 10:00:18.687500,-1.76,102.48
144855,2018-06-29 10:00:18.718750,-3.03,102.48
144856,2018-06-29 10:00:18.750000,-4.1,102.48
144857,2018-06-29 10:00:18.781250,-5.64,102.48
144858,2018-06-29 10:00:18.812500,-7.26,102.48
144859,2018-06-29 10:00:18.843750,-8.66,102.48
144860,2018-06-29 10:00:18.875000,-10.34,102.48
144861,2018-06-29 10:00:18.906250,-11.74,102.48
144862,2018-06-29 10:00:18.937500,-10.98,102.48
144863,2018-06-29 10:00:18.968750,-7.4,102.48
144864,2018-06-29 10:00:19.000000,-2.59,102.48
144865,2018-06-29 10:00:19.031250,1.26,102.48
144866,2018-06-29 10:00:19.062500,3.29,102.48
144867,2018-06-29 10:00:19.093750,4.23,102.48
144868,2018-06-29 10:00:19.125000,5.08,102.48
144869,2018-06-29 10:00:19.156250,5.74,102.48
144870,2018-06-29 10:00:19.187500,6.01,102.48
144871,2018-06-29 10:00:19.218750,6.81,102.48
144872,2018-06-29 10:00:19.250000,8.67,102.48
144873,2018-06-29 10:00:19.281250,10.47,102.48
144874,2018-06-29 10:00:19.312500,11.25,102.48
144875,2018-06-29 10:00:19.343750,11.65,102.48
144876,2018-06-29 10:00:19.375000,12.06,102.48
144877,2018-06-29 10:00:19.406250,11.54,102.48
144878,2018-06-29 10:00:19.437500,9.93,102.48
144879,2018-06-29 10:00:19.468750,8.6,102.48
144880,2018-06-29 10:00:19.500000,8.42,102.48
144881,2018-06-29 10:00:19.531250,8.43,102.75
144882,2018-06-29 10:00:19.562500,7.22,102.75
144883,2018-06-29 10:00:19.593750,4.76,102.75
144884,2018-06-29 10:00:19.625000,2.13,102.75
144885,2018-06-29 10:00:19.656250,-0.25,102.75
144886,2018-06-29 10:00:19.687500,-3.19,102.75
144887,2018-06-29 10:00:19.718750,-7.34,102.75
144888,2018-06-29 10:00:19.750000,-11.18,102.75
144889,2018-06-29 10:00:19.781250,-11.69,102.75
144890,2018-06-29 10:00:19.812500,-7.43,102.75
144891,2018-06-29 10:00:19.843750,0.24,102.75
144892,2018-06-29 10:00:19.875000,8.93,102.75
144893,2018-06-29 10:00:19.906250,16.15,102.75
144894,2018-06-29 10:00:19.937500,20.04,102.75
144895,2018-06-29 10:00:19.968750,21.95,102.75
144896,2018-06-29 10:00:20.000000,25.8,102.75
144897,2018-06-29 10:00:20.031250,33.89,102.75
144898,2018-06-29 10:00:20.062500,45.56,102.75
144899,2018-06-29 10:00:20.093750,57.82,102.75
144900,2018-06-29 10:00:20.125000,64.83,102.75
144901,2018-06-29 10:00:20.156250,61.33,102.75
144902,2018-06-29 10:00:20.187500,47.94,102.75
144903,2018-06-29 10:00:20.218750,29.46,102.75
144904,2018-06-29 10:00:20.250000,9.89,102.75
144905,2018-06-29 10:00:20.281250,-8.07,102.75
144906,2018-06-29 10:00:20.312500,-21.58,102.75
144907,2018-06-29 10:00:20.343750,-29.66,102.75
144908,2018-06-29 10:00:20.375000,-34.52,102.75
144909,2018-06-29 10:00:20.406250,-38.37,102.75
144910,2018-06-29 10:00:20.437500,-40.34,102.75
144911,2018-06-29 10:00:20.468750,-38.48,102.75
144912,2018-06-29 10:00:20.500000,-33.34,102.75
144913,2018-06-29 10:00:20.531250,-27.16,103.03
144914,2018-06-29 10:00:20.562500,-21.12,103.03
144915,2018-06-29 10:00:20.593750,-15.81,103.03
144916,2018-06-29 10:00:20.625000,-12.37,103.03
144917,2018-06-29 10:00:20.656250,-11.4,103.03
144918,2018-06-29 10:00:20.687500,-12.23,103.03
144919,2018-06-29 10:00:20.718750,-14.28,103.03
144920,2018-06-29 10:00:20.750000,-17.54,103.03
144921,2018-06-29 10:00:20.781250,-20.87,103.03
144922,2018-06-29 10:00:20.812500,-21.9,103.03
144923,2018-06-29 10:00:20.843750,-19.52,103.03
144924,2018-06-29 10:00:20.875000,-15.37,103.03
144925,2018-06-29 10:00:20.906250,-11.76,103.03
144926,2018-06-29 10:00:20.937500,-9.28,103.03
144927,2018-06-29 10:00:20.968750,-7.58,103.03
144928,2018-06-29 10:00:21.000000,-7.53,103.03
144929,2018-06-29 10:00:21.031250,-10.36,103.03
144930,2018-06-29 10:00:21.062500,-15.14,103.03
144931,2018-06-29 10:00:21.093750,-19.24,103.03
144932,2018-06-29 10:00:21.125000,-20.83,103.03
144933,2018-06-29 10:00:21.156250,-19.77,103.03
144934,2018-06-29 10:00:21.187500,-16.95,103.03
144935,2018-06-29 10:00:21.218750,-13.44,103.03
144936,2018-06-29 10:00:21.250000,-9.77,103.03
144937,2018-06-29 10:00:21.281250,-6.13,103.03
144938,2018-06-29 10:00:21.312500,-3.3,103.03
144939,2018-06-29 10:00:21.343750,-2.42,103.03
144940,2018-06-29 10:00:21.375000,-3.46,103.03
144941,2018-06-29 10:00:21.406250,-5.07,103.03
144942,2018-06-29 10:00:21.437500,-6.05,103.03
144943,2018-06-29 10:00:21.468750,-5.79,103.03
144944,2018-06-29 10:00:21.500000,-3.54,103.03
144945,2018-06-29 10:00:21.531250,0.95,103.35
144946,2018-06-29 10:00:21.562500,6.27,103.35
144947,2018-06-29 10:00:21.593750,10.83,103.35
144948,2018-06-29 10:00:21.625000,15.15,103.35
144949,2018-06-29 10:00:21.656250,20.28,103.35
144950,2018-06-29 10:00:21.687500,25.09,103.35
144951,2018-06-29 10:00:21.718750,27.37,103.35
144952,2018-06-29 10:00:21.750000,25.46,103.35
144953,2018-06-29 10:00:21.781250,17.48,103.35
144954,2018-06-29 10:00:21.812500,3.03,103.35
144955,2018-06-29 10:00:21.843750,-13.14,103.35
144956,2018-06-29 10:00:21.875000,-24.64,103.35
144957,2018-06-29 10:00:21.906250,-30.22,103.35
144958,2018-06-29 10:00:21.937500,-31.17,103.35
144959,2018-06-29 10:00:21.968750,-25.87,103.35
144960,2018-06-29 10:00:22.000000,-13.51,103.35
144961,2018-06-29 10:00:22.031250,2.05,103.35
144962,2018-06-29 10:00:22.062500,17.18,103.35
144963,2018-06-29 10:00:22.093750,31.87,103.35
144964,2018-06-29 10:00:22.125000,45.26,103.35
144965,2018-06-29 10:00:22.156250,53.64,103.35
144966,2018-06-29 10:00:22.187500,56.19,103.35
144967,2018-06-29 10:00:22.218750,58.55,103.35
144968,2018-06-29 10:00:22.250000,66.21,103.35
144969,2018-06-29 10:00:22.281250,76.14,103.35
144970,2018-06-29 10:00:22.312500,78.84,103.35
144971,2018-06-29 10:00:22.343750,67.19,103.35
144972,2018-06-29 10:00:22.375000,42.03,103.35
144973,2018-06-29 10:00:22.406250,11.91,103.35
144974,2018-06-29 10:00:22.437500,-13.04,103.35
144975,2018-06-29 10:00:22.468750,-29.61,103.35
144976,2018-06-29 10:00:22.500000,-40.82,103.35
144977,2018-06-29 10:00:22.531250,-47.24,103.58
144978,2018-06-29 10:00:22.562500,-45.5,103.58
144979,2018-06-29 10:00:22.593750,-35.73,103.58
144980,2018-06-29 10:00:22.625000,-23.15,103.58
144981,2018-06-29 10:00:22.656250,-11.8,103.58
144982,2018-06-29 10:00:22.687500,-2.6,103.58
144983,2018-06-29 10:00:22.718750,2.81,103.58
144984,2018-06-29 10:00:22.750000,2.01,103.58
144985,2018-06-29 10:00:22.781250,-5.25,103.58
144986,2018-06-29 10:00:22.812500,-17.1,103.58
144987,2018-06-29 10:00:22.843750,-30.69,103.58
144988,2018-06-29 10:00:22.875000,-41.52,103.58
144989,2018-06-29 10:00:22.906250,-44.06,103.58
144990,2018-06-29 10:00:22.937500,-34.61,103.58
144991,2018-06-29 10:00:22.968750,-13.66,103.58
144992,2018-06-29 10:00:23.000000,12.65,103.58
144993,2018-06-29 10:00:23.031250,34.66,103.58
144994,2018-06-29 10:00:23.062500,45.8,103.58
144995,2018-06-29 10:00:23.093750,46.91,103.58
144996,2018-06-29 10:00:23.125000,42.11,103.58
144997,2018-06-29 10:00:23.156250,33.54,103.58
144998,2018-06-29 10:00:23.187500,21.55,103.58
144999,2018-06-29 10:00:23.218750,6.94,103.58
145000,2018-06-29 10:00:23.250000,-8.17,103.58
145001,2018-06-29 10:00:23.281250,-21.26,103.58
145002,2018-06-29 10:00:23.312500,-28.93,103.58
145003,2018-06-29 10:00:23.343750,-29.02,103.58
145004,2018-06-29 10:00:23.375000,-21.87,103.58
145005,2018-06-29 10:00:23.406250,-11.37,103.58
145006,2018-06-29 10:00:23.437500,-7.1,103.58
145007,2018-06-29 10:00:23.468750,-18.12,103.58
145008,2018-06-29 10:00:23.500000,-41.29,103.58
145009,2018-06-29 10:00:23.531250,-61.72,103.77
145010,2018-06-29 10:00:23.562500,-69.54,103.77
145011,2018-06-29 10:00:23.593750,-68.54,103.77
145012,2018-06-29 10:00:23.625000,-76.29,103.77
145013,2018-06-29 10:00:23.656250,-111.55,103.77
145014,2018-06-29 10:00:23.687500,-148.46,103.77
145015,2018-06-29 10:00:23.718750,-139.85,103.77
145016,2018-06-29 10:00:23.750000,-81.1,103.77
145017,2018-06-29 10:00:23.781250,-6.78,103.77
145018,2018-06-29 10:00:23.812500,55.03,103.77
145019,2018-06-29 10:00:23.843750,91.96,103.77
145020,2018-06-29 10:00:23.875000,107.8,103.77
145021,2018-06-29 10:00:23.906250,117.98,103.77
145022,2018-06-29 10:00:23.937500,129.5,103.77
145023,2018-06-29 10:00:23.968750,128.88,103.77
145024,2018-06-29 10:00:24.000000,103.01,103.77
145025,2018-06-29 10:00:24.031250,64.19,103.77
145026,2018-06-29 10:00:24.062500,31.49,103.77
145027,2018-06-29 10:00:24.093750,3.19,103.77
145028,2018-06-29 10:00:24.125000,-39.9,103.77
145029,2018-06-29 10:00:24.156250,-107.89,103.77
145030,2018-06-29 10:00:24.187500,-183.04,103.77
145031,2018-06-29 10:00:24.218750,-203.33,103.77
145032,2018-06-29 10:00:24.250000,-114.84,103.77
145033,2018-06-29 10:00:24.281250,1.65,103.77
145034,2018-06-29 10:00:24.312500,35.03,103.77
145035,2018-06-29 10:00:24.343750,2.14,103.77
145036,2018-06-29 10:00:24.375000,-31.97,103.77
145037,2018-06-29 10:00:24.406250,-62.18,103.77
145038,2018-06-29 10:00:24.437500,-88.83,103.77
145039,2018-06-29 10:00:24.468750,-94.32,103.77
145040,2018-06-29 10:00:24.500000,-81.32,103.77
145041,2018-06-29 10:00:24.531250,-75.03,103.98
145042,2018-06-29 10:00:24.562500,-80.31,103.98
145043,2018-06-29 10:00:24.593750,-83.59,103.98
145044,2018-06-29 10:00:24.625000,-76.85,103.98
145045,2018-06-29 10:00:24.656250,-69.77,103.98
145046,2018-06-29 10:00:24.687500,-70.27,103.98
145047,2018-06-29 10:00:24.718750,-66.6,103.98
145048,2018-06-29 10:00:24.750000,-38.62,103.98
145049,2018-06-29 10:00:24.781250,19.07,103.98
145050,2018-06-29 10:00:24.812500,96.32,103.98
145051,2018-06-29 10:00:24.843750,177.77,103.98
145052,2018-06-29 10:00:24.875000,245.03,103.98
145053,2018-06-29 10:00:24.906250,276.7,103.98
145054,2018-06-29 10:00:24.937500,258.76,103.98
145055,2018-06-29 10:00:24.968750,197.58,103.98
145056,2018-06-29 10:00:25.000000,117.19,103.98
145057,2018-06-29 10:00:25.031250,43.35,103.98
145058,2018-06-29 10:00:25.062500,-10.62,103.98
145059,2018-06-29 10:00:25.093750,-43.9,103.98
145060,2018-06-29 10:00:25.125000,-61.65,103.98
145061,2018-06-29 10:00:25.156250,-71.22,103.98
145062,2018-06-29 10:00:25.187500,-78.73,103.98
145063,2018-06-29 10:00:25.218750,-85.61,103.98
145064,2018-06-29 10:00:25.250000,-90.01,103.98
145065,2018-06-29 10:00:25.281250,-92.37,103.98
145066,2018-06-29 10:00:25.312500,-96.42,103.98
145067,2018-06-29 10:00:25.343750,-104.71,103.98
145068,2018-06-29 10:00:25.375000,-114.38,103.98
145069,2018-06-29 10:00:25.406250,-116.82,103.98
145070,2018-06-29 10:00:25.437500,-103.17,103.98
145071,2018-06-29 10:00:25.468750,-69.76,103.98
145072,2018-06-29 10:00:25.500000,-16.8,103.98
145073,2018-06-29 10:00:25.531250,54.65,104.07
145074,2018-06-29 10:00:25.562500,139.01,104.07
145075,2018-06-29 10:00:25.593750,219.09,104.07
145076,2018-06-29 10:00:25.625000,266.91,104.07
145077,2018-06-29 10:00:25.656250,258.31,104.07
145078,2018-06-29 10:00:25.687500,192.55,104.07
145079,2018-06-29 10:00:25.718750,95.88,104.07
145080,2018-06-29 10:00:25.750000,2.82,104.07
145081,2018-06-29 10:00:25.781250,-63.7,104.07
145082,2018-06-29 10:00:25.812500,-97.68,104.07
145083,2018-06-29 10:00:25.843750,-105.33,104.07
145084,2018-06-29 10:00:25.875000,-98.44,104.07
145085,2018-06-29 10:00:25.906250,-86.94,104.07
145086,2018-06-29 10:00:25.937500,-74.4,104.07
145087,2018-06-29 10:00:25.968750,-60.37,104.07
145088,2018-06-29 10:00:26.000000,-45.64,104.07
145089,2018-06-29 10:00:26.031250,-33.94,104.07
145090,2018-06-29 10:00:26.062500,-29.26,104.07
145091,2018-06-29 10:00:26.093750,-32.2,104.07
145092,2018-06-29 10:00:26.125000,-39.24,104.07
145093,2018-06-29 10:00:26.156250,-44.77,104.07
145094,2018-06-29 10:00:26.187500,-44.34,104.07
145095,2018-06-29 10:00:26.218750,-36.83,104.07
145096,2018-06-29 10:00:26.250000,-24.9,104.07
145097,2018-06-29 10:00:26.281250,-12.84,104.07
145098,2018-06-29 10:00:26.312500,-2.97,104.07
145099,2018-06-29 10:00:26.343750,5.62,104.07
145100,2018-06-29 10:00:26.375000,14.67,104.07
145101,2018-06-29 10:00:26.406250,24.26,104.07
145102,2018-06-29 10:00:26.437500,32.96,104.07
145103,2018-06-29 10:00:26.468750,39.62,104.07
145104,2018-06-29 10:00:26.500000,44.99,104.07
145105,2018-06-29 10:00:26.531250,52.26,104.13
145106,2018-06-29 10:00:26.562500,64.23,104.13
145107,2018-06-29 10:00:26.593750,76.97,104.13
145108,2018-06-29 10:00:26.625000,78.78,104.13
145109,2018-06-29 10:00:26.656250,62.88,104.13
145110,2018-06-29 10:00:26.687500,39.05,104.13
145111,2018-06-29 10:00:26.718750,22.26,104.13
145112,2018-06-29 10:00:26.750000,11.61,104.13
145113,2018-06-29 10:00:26.781250,-6.83,104.13
145114,2018-06-29 10:00:26.812500,-38.78,104.13
145115,2018-06-29 10:00:26.843750,-75.61,104.13
145116,2018-06-29 10:00:26.875000,-104.66,104.13
145117,2018-06-29 10:00:26.906250,-115.92,104.13
145118,2018-06-29 10:00:26.937500,-105.29,104.13
145119,2018-06-29 10:00:26.968750,-79.04,104.13
145120,2018-06-29 10:00:27.000000,-48.9,104.13
145121,2018-06-29 10:00:27.031250,-19.62,104.13
145122,2018-06-29 10:00:27.062500,11.13,104.13
145123,2018-06-29 10:00:27.093750,40.03,104.13
145124,2018-06-29 10:00:27.125000,57.35,104.13
145125,2018-06-29 10:00:27.156250,62.01,104.13
145126,2018-06-29 10:00:27.187500,63.77,104.13
145127,2018-06-29 10:00:27.218750,67.17,104.13
145128,2018-06-29 10:00:27.250000,67.01,104.13
145129,2018-06-29 10:00:27.281250,60.25,104.13
145130,2018-06-29 10:00:27.312500,49.73,104.13
145131,2018-06-29 10:00:27.343750,37.45,104.13
145132,2018-06-29 10:00:27.375000,24.69,104.13
145133,2018-06-29 10:00:27.406250,15.45,104.13
145134,2018-06-29 10:00:27.437500,12.6,104.13
145135,2018-06-29 10:00:27.468750,13.82,104.13
145136,2018-06-29 10:00:27.500000,15.3,104.13
145137,2018-06-29 10:00:27.531250,17.06,104.22
145138,2018-06-29 10:00:27.562500,21.38,104.22
145139,2018-06-29 10:00:27.593750,27.65,104.22
145140,2018-06-29 10:00:27.625000,32.45,104.22
145141,2018-06-29 10:00:27.656250,34.69,104.22
145142,2018-06-29 10:00:27.687500,38.76,104.22
145143,2018-06-29 10:00:27.718750,49.67,104.22
145144,2018-06-29 10:00:27.750000,63.03,104.22
145145,2018-06-29 10:00:27.781250,65.61,104.22
145146,2018-06-29 10:00:27.812500,51.0,104.22
145147,2018-06-29 10:00:27.843750,29.64,104.22
145148,2018-06-29 10:00:27.875000,16.08,104.22
145149,2018-06-29 10:00:27.906250,10.97,104.22
145150,2018-06-29 10:00:27.937500,3.22,104.22
145151,2018-06-29 10:00:27.968750,-14.32,104.22
145152,2018-06-29 10:00:28.000000,-38.44,104.22
145153,2018-06-29 10:00:28.031250,-61.11,104.22
145154,2018-06-29 10:00:28.062500,-75.2,104.22
145155,2018-06-29 10:00:28.093750,-77.3,104.22
145156,2018-06-29 10:00:28.125000,-70.08,104.22
145157,2018-06-29 10:00:28.156250,-59.2,104.22
145158,2018-06-29 10:00:28.187500,-46.85,104.22
145159,2018-06-29 10:00:28.218750,-31.31,104.22
145160,2018-06-29 10:00:28.250000,-12.78,104.22
145161,2018-06-29 10:00:28.281250,4.16,104.22
145162,2018-06-29 10:00:28.312500,14.58,104.22
145163,2018-06-29 10:00:28.343750,18.84,104.22
145164,2018-06-29 10:00:28.375000,22.56,104.22
145165,2018-06-29 10:00:28.406250,28.88,104.22
145166,2018-06-29 10:00:28.437500,33.01,104.22
145167,2018-06-29 10:00:28.468750,28.82,104.22
145168,2018-06-29 10:00:28.500000,18.68,104.22
145169,2018-06-29 10:00:28.531250,12.65,104.27
145170,2018-06-29 10:00:28.562500,18.16,104.27
145171,2018-06-29 10:00:28.593750,33.97,104.27
145172,2018-06-29 10:00:28.625000,54.31,104.27
145173,2018-06-29 10:00:28.656250,76.83,104.27
145174,2018-06-29 10:00:28.687500,102.38,104.27
145175,2018-06-29 10:00:28.718750,127.47,104.27
145176,2018-06-29 10:00:28.750000,143.23,104.27
145177,2018-06-29 10:00:28.781250,144.15,104.27
145178,2018-06-29 10:00:28.812500,132.36,104.27
145179,2018-06-29 10:00:28.843750,111.92,104.27
145180,2018-06-29 10:00:28.875000,86.54,104.27
145181,2018-06-29 10:00:28.906250,63.99,104.27
145182,2018-06-29 10:00:28.937500,54.4,104.27
145183,2018-06-29 10:00:28.968750,60.47,104.27
145184,2018-06-29 10:00:29.000000,72.26,104.27
145185,2018-06-29 10:00:29.031250,74.93,104.27
145186,2018-06-29 10:00:29.062500,61.48,104.27
145187,2018-06-29 10:00:29.093750,37.11,104.27
145188,2018-06-29 10:00:29.125000,13.06,104.27
145189,2018-06-29 10:00:29.156250,-3.32,104.27
145190,2018-06-29 10:00:29.187500,-13.36,104.27
145191,2018-06-29 10:00:29.218750,-21.28,104.27
145192,2018-06-29 10:00:29.250000,-25.83,104.27
145193,2018-06-29 10:00:29.281250,-26.91,104.27
145194,2018-06-29 10:00:29.312500,-36.41,104.27
145195,2018-06-29 10:00:29.343750,-66.39,104.27
145196,2018-06-29 10:00:29.375000,-110.63,104.27
145197,2018-06-29 10:00:29.406250,-150.19,104.27
145198,2018-06-29 10:00:29.437500,-170.65,104.27
145199,2018-06-29 10:00:29.468750,-166.53,104.27
145200,2018-06-29 10:00:29.500000,-138.34,104.27
145201,2018-06-29 10:00:29.531250,-93.19,104.35
145202,2018-06-29 10:00:29.562500,-44.46,104.35
145203,2018-06-29 10:00:29.593750,-5.04,104.35
145204,2018-06-29 10:00:29.625000,20.2,104.35
145205,2018-06-29 10:00:29.656250,33.4,104.35
145206,2018-06-29 10:00:29.687500,37.19,104.35
145207,2018-06-29 10:00:29.718750,33.81,104.35
145208,2018-06-29 10:00:29.750000,27.6,104.35
145209,2018-06-29 10:00:29.781250,23.1,104.35
145210,2018-06-29 10:00:29.812500,20.6,104.35
145211,2018-06-29 10:00:29.843750,16.45,104.35
145212,2018-06-29 10:00:29.875000,6.92,104.35
145213,2018-06-29 10:00:29.906250,-7.47,104.35
145214,2018-06-29 10:00:29.937500,-21.46,104.35
145215,2018-06-29 10:00:29.968750,-30.42,104.35
145216,2018-06-29 10:00:30.000000,-34.37,104.35
145217,2018-06-29 10:00:30.031250,-35.28,104.35
145218,2018-06-29 10:00:30.062500,-34.39,104.35
145219,2018-06-29 10:00:30.093750,-33.78,104.35
145220,2018-06-29 10:00:30.125000,-36.32,104.35
145221,2018-06-29 10:00:30.156250,-43.49,104.35
145222,2018-06-29 10:00:30.187500,-55.58,104.35
145223,2018-06-29 10:00:30.218750,-70.17,104.35
145224,2018-06-29 10:00:30.250000,-80.01,104.35
145225,2018-06-29 10:00:30.281250,-78.59,104.35
145226,2018-06-29 10:00:30.312500,-67.5,104.35
145227,2018-06-29 10:00:30.343750,-52.48,104.35
145228,2018-06-29 10:00:30.375000,-36.28,104.35
145229,2018-06-29 10:00:30.406250,-20.75,104.35
145230,2018-06-29 10:00:30.437500,-9.88,104.35
145231,2018-06-29 10:00:30.468750,-5.06,104.35
145232,2018-06-29 10:00:30.500000,-2.24,104.35
145233,2018-06-29 10:00:30.531250,2.95,104.43
145234,2018-06-29 10:00:30.562500,10.37,104.43
145235,2018-06-29 10:00:30.593750,17.9,104.43
145236,2018-06-29 10:00:30.625000,25.37,104.43
145237,2018-06-29 10:00:30.656250,35.81,104.43
145238,2018-06-29 10:00:30.687500,52.41,104.43
145239,2018-06-29 10:00:30.718750,71.2,104.43
145240,2018-06-29 10:00:30.750000,80.42,104.43
145241,2018-06-29 10:00:30.781250,73.42,104.43
145242,2018-06-29 10:00:30.812500,57.08,104.43
145243,2018-06-29 10:00:30.843750,41.46,104.43
145244,2018-06-29 10:00:30.875000,30.71,104.43
145245,2018-06-29 10:00:30.906250,27.04,104.43
145246,2018-06-29 10:00:30.937500,30.55,104.43
145247,2018-06-29 10:00:30.968750,34.25,104.43
145248,2018-06-29 10:00:31.000000,30.26,104.43
145249,2018-06-29 10:00:31.031250,17.88,104.43
145250,2018-06-29 10:00:31.062500,-1.45,104.43
145251,2018-06-29 10:00:31.093750,-27.04,104.43
145252,2018-06-29 10:00:31.125000,-52.55,104.43
145253,2018-06-29 10:00:31.156250,-68.13,104.43
145254,2018-06-29 10:00:31.187500,-70.56,104.43
145255,2018-06-29 10:00:31.218750,-62.52,104.43
145256,2018-06-29 10:00:31.250000,-45.72,104.43
145257,2018-06-29 10:00:31.281250,-21.96,104.43
145258,2018-06-29 10:00:31.312500,2.87,104.43
145259,2018-06-29 10:00:31.343750,21.05,104.43
145260,2018-06-29 10:00:31.375000,28.84,104.43
145261,2018-06-29 10:00:31.406250,28.41,104.43
145262,2018-06-29 10:00:31.437500,25.07,104.43
145263,2018-06-29 10:00:31.468750,25.47,104.43
145264,2018-06-29 10:00:31.500000,33.66,104.43
145265,2018-06-29 10:00:31.531250,44.58,104.52
145266,2018-06-29 10:00:31.562500,46.49,104.52
145267,2018-06-29 10:00:31.593750,33.58,104.52
145268,2018-06-29 10:00:31.625000,10.7,104.52
145269,2018-06-29 10:00:31.656250,-13.78,104.52
145270,2018-06-29 10:00:31.687500,-33.63,104.52
145271,2018-06-29 10:00:31.718750,-45.99,104.52
145272,2018-06-29 10:00:31.750000,-51.21,104.52
145273,2018-06-29 10:00:31.781250,-50.47,104.52
145274,2018-06-29 10:00:31.812500,-44.3,104.52
145275,2018-06-29 10:00:31.843750,-35.63,104.52
145276,2018-06-29 10:00:31.875000,-30.12,104.52
145277,2018-06-29 10:00:31.906250,-30.03,104.52
145278,2018-06-29 10:00:31.937500,-30.82,104.52
145279,2018-06-29 10:00:31.968750,-25.96,104.52
145280,2018-06-29 10:00:32.000000,-12.71,104.52
145281,2018-06-29 10:00:32.031250,5.99,104.52
145282,2018-06-29 10:00:32.062500,23.74,104.52
145283,2018-06-29 10:00:32.093750,34.7,104.52
145284,2018-06-29 10:00:32.125000,36.06,104.52
145285,2018-06-29 10:00:32.156250,28.16,104.52
145286,2018-06-29 10:00:32.187500,14.71,104.52
145287,2018-06-29 10:00:32.218750,-0.31,104.52
145288,2018-06-29 10:00:32.250000,-16.89,104.52
145289,2018-06-29 10:00:32.281250,-35.89,104.52
145290,2018-06-29 10:00:32.312500,-54.64,104.52
145291,2018-06-29 10:00:32.343750,-69.79,104.52
145292,2018-06-29 10:00:32.375000,-79.73,104.52
145293,2018-06-29 10:00:32.406250,-82.88,104.52
145294,2018-06-29 10:00:32.437500,-78.17,104.52
145295,2018-06-29 10:00:32.468750,-66.84,104.52
145296,2018-06-29 10:00:32.500000,-50.93,104.52
145297,2018-06-29 10:00:32.531250,-33.13,104.72
145298,2018-06-29 10:00:32.562500,-18.01,104.72
145299,2018-06-29 10:00:32.593750,-8.74,104.72
145300,2018-06-29 10:00:32.625000,-3.2,104.72
145301,2018-06-29 10:00:32.656250,2.9,104.72
145302,2018-06-29 10:00:32.687500,10.51,104.72
145303,2018-06-29 10:00:32.718750,17.0,104.72
145304,2018-06-29 10:00:32.750000,19.02,104.72
145305,2018-06-29 10:00:32.781250,14.14,104.72
145306,2018-06-29 10:00:32.812500,2.22,104.72
145307,2018-06-29 10:00:32.843750,-12.87,104.72
145308,2018-06-29 10:00:32.875000,-25.33,104.72
145309,2018-06-29 10:00:32.906250,-32.74,104.72
145310,2018-06-29 10:00:32.937500,-36.74,104.72
145311,2018-06-29 10:00:32.968750,-39.24,104.72
145312,2018-06-29 10:00:33.000000,-40.42,104.72
145313,2018-06-29 10:00:33.031250,-40.25,104.72
145314,2018-06-29 10:00:33.062500,-38.8,104.72
145315,2018-06-29 10:00:33.093750,-36.01,104.72
145316,2018-06-29 10:00:33.125000,-31.47,104.72
145317,2018-06-29 10:00:33.156250,-22.98,104.72
145318,2018-06-29 10:00:33.187500,-7.3,104.72
145319,2018-06-29 10:00:33.218750,15.14,104.72
145320,2018-06-29 10:00:33.250000,38.41,104.72
145321,2018-06-29 10:00:33.281250,55.47,104.72
145322,2018-06-29 10:00:33.312500,63.88,104.72
145323,2018-06-29 10:00:33.343750,65.83,104.72
145324,2018-06-29 10:00:33.375000,64.03,104.72
145325,2018-06-29 10:00:33.406250,59.06,104.72
145326,2018-06-29 10:00:33.437500,50.61,104.72
145327,2018-06-29 10:00:33.468750,40.39,104.72
145328,2018-06-29 10:00:33.500000,32.16,104.72
145329,2018-06-29 10:00:33.531250,26.57,104.8
145330,2018-06-29 10:00:33.562500,18.53,104.8
145331,2018-06-29 10:00:33.593750,4.15,104.8
145332,2018-06-29 10:00:33.625000,-13.55,104.8
145333,2018-06-29 10:00:33.656250,-28.73,104.8
145334,2018-06-29 10:00:33.687500,-37.61,104.8
145335,2018-06-29 10:00:33.718750,-38.36,104.8
145336,2018-06-29 10:00:33.750000,-31.39,104.8
145337,2018-06-29 10:00:33.781250,-20.21,104.8
145338,2018-06-29 10:00:33.812500,-8.76,104.8
145339,2018-06-29 10:00:33.843750,1.48,104.8
145340,2018-06-29 10:00:33.875000,10.59,104.8
145341,2018-06-29 10:00:33.906250,18.11,104.8
145342,2018-06-29 10:00:33.937500,23.25,104.8
145343,2018-06-29 10:00:33.968750,26.07,104.8
145344,2018-06-29 10:00:34.000000,27.1,104.8
145345,2018-06-29 10:00:34.031250,26.11,104.8
145346,2018-06-29 10:00:34.062500,22.19,104.8
145347,2018-06-29 10:00:34.093750,15.58,104.8
145348,2018-06-29 10:00:34.125000,8.17,104.8
145349,2018-06-29 10:00:34.156250,2.04,104.8
145350,2018-06-29 10:00:34.187500,-1.78,104.8
145351,2018-06-29 10:00:34.218750,-3.63,104.8
145352,2018-06-29 10:00:34.250000,-5.61,104.8
145353,2018-06-29 10:00:34.281250,-10.27,104.8
145354,2018-06-29 10:00:34.312500,-17.79,104.8
145355,2018-06-29 10:00:34.343750,-25.74,104.8
145356,2018-06-29 10:00:34.375000,-32.77,104.8
145357,2018-06-29 10:00:34.406250,-40.5,104.8
145358,2018-06-29 10:00:34.437500,-51.06,104.8
145359,2018-06-29 10:00:34.468750,-63.36,104.8
145360,2018-06-29 10:00:34.500000,-71.72,104.8
145361,2018-06-29 10:00:34.531250,-69.83,104.88
145362,2018-06-29 10:00:34.562500,-57.63,104.88
145363,2018-06-29 10:00:34.593750,-41.29,104.88
145364,2018-06-29 10:00:34.625000,-25.73,104.88
145365,2018-06-29 10:00:34.656250,-11.97,104.88
145366,2018-06-29 10:00:34.687500,-1.53,104.88
145367,2018-06-29 10:00:34.718750,2.78,104.88
145368,2018-06-29 10:00:34.750000,1.44,104.88
145369,2018-06-29 10:00:34.781250,-1.11,104.88
145370,2018-06-29 10:00:34.812500,-0.73,104.88
145371,2018-06-29 10:00:34.843750,3.95,104.88
145372,2018-06-29 10:00:34.875000,12.94,104.88
145373,2018-06-29 10:00:34.906250,25.53,104.88
145374,2018-06-29 10:00:34.937500,39.07,104.88
145375,2018-06-29 10:00:34.968750,49.03,104.88
145376,2018-06-29 10:00:35.000000,52.89,104.88
145377,2018-06-29 10:00:35.031250,52.19,104.88
145378,2018-06-29 10:00:35.062500,49.28,104.88
145379,2018-06-29 10:00:35.093750,44.41,104.88
145380,2018-06-29 10:00:35.125000,37.41,104.88
145381,2018-06-29 10:00:35.156250,29.75,104.88
145382,2018-06-29 10:00:35.187500,23.54,104.88
145383,2018-06-29 10:00:35.218750,19.61,104.88
145384,2018-06-29 10:00:35.250000,16.52,104.88
145385,2018-06-29 10:00:35.281250,11.29,104.88
145386,2018-06-29 10:00:35.312500,1.54,104.88
145387,2018-06-29 10:00:35.343750,-12.64,104.88
145388,2018-06-29 10:00:35.375000,-27.91,104.88
145389,2018-06-29 10:00:35.406250,-38.9,104.88
145390,2018-06-29 10:00:35.437500,-42.13,104.88
145391,2018-06-29 10:00:35.468750,-38.5,104.88
145392,2018-06-29 10:00:35.500000,-30.91,104.88
145393,2018-06-29 10:00:35.531250,-21.34,104.97
145394,2018-06-29 10:00:35.562500,-11.36,104.97
145395,2018-06-29 10:00:35.593750,-3.26,104.97
145396,2018-06-29 10:00:35.625000,1.31,104.97
145397,2018-06-29 10:00:35.656250,3.29,104.97
145398,2018-06-29 10:00:35.687500,5.37,104.97
145399,2018-06-29 10:00:35.718750,8.96,104.97
145400,2018-06-29 10:00:35.750000,13.74,104.97
145401,2018-06-29 10:00:35.781250,19.13,104.97
145402,2018-06-29 10:00:35.812500,24.05,104.97
145403,2018-06-29 10:00:35.843750,26.82,104.97
145404,2018-06-29 10:00:35.875000,27.12,104.97
145405,2018-06-29 10:00:35.906250,26.09,104.97
145406,2018-06-29 10:00:35.937500,23.63,104.97
145407,2018-06-29 10:00:35.968750,18.61,104.97
145408,2018-06-29 10:00:36.000000,11.28,104.97
145409,2018-06-29 10:00:36.031250,2.47,104.97
145410,2018-06-29 10:00:36.062500,-8.22,104.97
145411,2018-06-29 10:00:36.093750,-21.74,104.97
145412,2018-06-29 10:00:36.125000,-37.85,104.97
145413,2018-06-29 10:00:36.156250,-55.02,104.97
145414,2018-06-29 10:00:36.187500,-69.24,104.97
145415,2018-06-29 10:00:36.218750,-73.17,104.97
145416,2018-06-29 10:00:36.250000,-61.06,104.97
145417,2018-06-29 10:00:36.281250,-35.59,104.97
145418,2018-06-29 10:00:36.312500,-6.13,104.97
145419,2018-06-29 10:00:36.343750,20.09,104.97
145420,2018-06-29 10:00:36.375000,41.11,104.97
145421,2018-06-29 10:00:36.406250,56.28,104.97
145422,2018-06-29 10:00:36.437500,63.56,104.97
145423,2018-06-29 10:00:36.468750,61.49,104.97
145424,2018-06-29 10:00:36.500000,51.13,104.97
145425,2018-06-29 10:00:36.531250,35.57,105.07
145426,2018-06-29 10:00:36.562500,19.12,105.07
145427,2018-06-29 10:00:36.593750,6.54,105.07
145428,2018-06-29 10:00:36.625000,0.47,105.07
145429,2018-06-29 10:00:36.656250,-0.85,105.07
145430,2018-06-29 10:00:36.687500,-2.38,105.07
145431,2018-06-29 10:00:36.718750,-8.57,105.07
145432,2018-06-29 10:00:36.750000,-21.46,105.07
145433,2018-06-29 10:00:36.781250,-40.15,105.07
145434,2018-06-29 10:00:36.812500,-62.18,105.07
145435,2018-06-29 10:00:36.843750,-85.54,105.07
145436,2018-06-29 10:00:36.875000,-107.86,105.07
145437,2018-06-29 10:00:36.906250,-125.08,105.07
145438,2018-06-29 10:00:36.937500,-132.75,105.07
145439,2018-06-29 10:00:36.968750,-127.84,105.07
145440,2018-06-29 10:00:37.000000,-110.07,105.07
145441,2018-06-29 10:00:37.031250,-84.74,105.07
145442,2018-06-29 10:00:37.062500,-61.39,105.07
145443,2018-06-29 10:00:37.093750,-43.68,105.07
145444,2018-06-29 10:00:37.125000,-25.02,105.07
145445,2018-06-29 10:00:37.156250,1.74,105.07
145446,2018-06-29 10:00:37.187500,35.81,105.07
145447,2018-06-29 10:00:37.218750,70.74,105.07
145448,2018-06-29 10:00:37.250000,98.76,105.07
145449,2018-06-29 10:00:37.281250,113.76,105.07
145450,2018-06-29 10:00:37.312500,114.72,105.07
145451,2018-06-29 10:00:37.343750,104.62,105.07
145452,2018-06-29 10:00:37.375000,87.31,105.07
145453,2018-06-29 10:00:37.406250,66.97,105.07
145454,2018-06-29 10:00:37.437500,47.31,105.07
145455,2018-06-29 10:00:37.468750,29.8,105.07
145456,2018-06-29 10:00:37.500000,14.61,105.07
145457,2018-06-29 10:00:37.531250,2.63,105.12
145458,2018-06-29 10:00:37.562500,-5.21,105.12
145459,2018-06-29 10:00:37.593750,-8.99,105.12
145460,2018-06-29 10:00:37.625000,-9.26,105.12
145461,2018-06-29 10:00:37.656250,-7.13,105.12
145462,2018-06-29 10:00:37.687500,-4.65,105.12
145463,2018-06-29 10:00:37.718750,-3.2,105.12
145464,2018-06-29 10:00:37.750000,-2.43,105.12
145465,2018-06-29 10:00:37.781250,-1.75,105.12
145466,2018-06-29 10:00:37.812500,-2.05,105.12
145467,2018-06-29 10:00:37.843750,-5.94,105.12
145468,2018-06-29 10:00:37.875000,-16.45,105.12
145469,2018-06-29 10:00:37.906250,-31.2,105.12
145470,2018-06-29 10:00:37.937500,-39.07,105.12
145471,2018-06-29 10:00:37.968750,-30.24,105.12
145472,2018-06-29 10:00:38.000000,-8.8,105.12
145473,2018-06-29 10:00:38.031250,12.18,105.12
145474,2018-06-29 10:00:38.062500,25.23,105.12
145475,2018-06-29 10:00:38.093750,31.51,105.12
145476,2018-06-29 10:00:38.125000,34.08,105.12
145477,2018-06-29 10:00:38.156250,34.79,105.12
145478,2018-06-29 10:00:38.187500,35.39,105.12
145479,2018-06-29 10:00:38.218750,37.19,105.12
145480,2018-06-29 10:00:38.250000,39.79,105.12
145481,2018-06-29 10:00:38.281250,42.13,105.12
145482,2018-06-29 10:00:38.312500,44.6,105.12
145483,2018-06-29 10:00:38.343750,47.39,105.12
145484,2018-06-29 10:00:38.375000,47.88,105.12
145485,2018-06-29 10:00:38.406250,42.93,105.12
145486,2018-06-29 10:00:38.437500,33.54,105.12
145487,2018-06-29 10:00:38.468750,23.73,105.12
145488,2018-06-29 10:00:38.500000,14.87,105.12
145489,2018-06-29 10:00:38.531250,5.65,105.18
145490,2018-06-29 10:00:38.562500,-3.38,105.18
145491,2018-06-29 10:00:38.593750,-8.62,105.18
145492,2018-06-29 10:00:38.625000,-8.33,105.18
145493,2018-06-29 10:00:38.656250,-6.38,105.18
145494,2018-06-29 10:00:38.687500,-8.91,105.18
145495,2018-06-29 10:00:38.718750,-17.9,105.18
145496,2018-06-29 10:00:38.750000,-28.25,105.18
145497,2018-06-29 10:00:38.781250,-30.66,105.18
145498,2018-06-29 10:00:38.812500,-18.89,105.18
145499,2018-06-29 10:00:38.843750,3.62,105.18
145500,2018-06-29 10:00:38.875000,25.98,105.18
145501,2018-06-29 10:00:38.906250,40.72,105.18
145502,2018-06-29 10:00:38.937500,48.92,105.18
145503,2018-06-29 10:00:38.968750,54.11,105.18
145504,2018-06-29 10:00:39.000000,56.61,105.18
145505,2018-06-29 10:00:39.031250,55.98,105.18
145506,2018-06-29 10:00:39.062500,53.93,105.18
145507,2018-06-29 10:00:39.093750,51.89,105.18
145508,2018-06-29 10:00:39.125000,48.73,105.18
145509,2018-06-29 10:00:39.156250,43.04,105.18
145510,2018-06-29 10:00:39.187500,35.84,105.18
145511,2018-06-29 10:00:39.218750,29.52,105.18
145512,2018-06-29 10:00:39.250000,25.32,105.18
145513,2018-06-29 10:00:39.281250,22.99,105.18
145514,2018-06-29 10:00:39.312500,22.4,105.18
145515,2018-06-29 10:00:39.343750,24.51,105.18
145516,2018-06-29 10:00:39.375000,29.99,105.18
145517,2018-06-29 10:00:39.406250,38.59,105.18
145518,2018-06-29 10:00:39.437500,49.24,105.18
145519,2018-06-29 10:00:39.468750,59.14,105.18
145520,2018-06-29 10:00:39.500000,64.75,105.18
145521,2018-06-29 10:00:39.531250,66.95,105.23
145522,2018-06-29 10:00:39.562500,72.84,105.23
145523,2018-06-29 10:00:39.593750,89.68,105.23
145524,2018-06-29 10:00:39.625000,115.91,105.23
145525,2018-06-29 10:00:39.656250,138.49,105.23
145526,2018-06-29 10:00:39.687500,142.49,105.23
145527,2018-06-29 10:00:39.718750,124.77,105.23
145528,2018-06-29 10:00:39.750000,97.4,105.23
145529,2018-06-29 10:00:39.781250,77.2,105.23
145530,2018-06-29 10:00:39.812500,70.77,105.23
145531,2018-06-29 10:00:39.843750,70.42,105.23
145532,2018-06-29 10:00:39.875000,68.1,105.23
145533,2018-06-29 10:00:39.906250,66.7,105.23
145534,2018-06-29 10:00:39.937500,70.83,105.23
145535,2018-06-29 10:00:39.968750,77.02,105.23
145536,2018-06-29 10:00:40.000000,81.11,105.23
145537,2018-06-29 10:00:40.031250,84.09,105.23
145538,2018-06-29 10:00:40.062500,84.8,105.23
145539,2018-06-29 10:00:40.093750,77.69,105.23
145540,2018-06-29 10:00:40.125000,60.83,105.23
145541,2018-06-29 10:00:40.156250,40.42,105.23
145542,2018-06-29 10:00:40.187500,27.26,105.23
145543,2018-06-29 10:00:40.218750,25.56,105.23
145544,2018-06-29 10:00:40.250000,22.77,105.23
145545,2018-06-29 10:00:40.281250,-1.92,105.23
145546,2018-06-29 10:00:40.312500,-56.42,105.23
145547,2018-06-29 10:00:40.343750,-131.24,105.23
145548,2018-06-29 10:00:40.375000,-209.8,105.23
145549,2018-06-29 10:00:40.406250,-270.67,105.23
145550,2018-06-29 10:00:40.437500,-293.33,105.23
145551,2018-06-29 10:00:40.468750,-276.84,105.23
145552,2018-06-29 10:00:40.500000,-240.88,105.23
145553,2018-06-29 10:00:40.531250,-201.46,105.3
145554,2018-06-29 10:00:40.562500,-162.0,105.3
145555,2018-06-29 10:00:40.593750,-129.53,105.3
145556,2018-06-29 10:00:40.625000,-116.88,105.3
145557,2018-06-29 10:00:40.656250,-124.32,105.3
145558,2018-06-29 10:00:40.687500,-137.63,105.3
145559,2018-06-29 10:00:40.718750,-145.55,105.3
145560,2018-06-29 10:00:40.750000,-143.81,105.3
145561,2018-06-29 10:00:40.781250,-128.09,105.3
145562,2018-06-29 10:00:40.812500,-99.08,105.3
145563,2018-06-29 10:00:40.843750,-64.84,105.3
145564,2018-06-29 10:00:40.875000,-25.59,105.3
145565,2018-06-29 10:00:40.906250,29.62,105.3
145566,2018-06-29 10:00:40.937500,105.08,105.3
145567,2018-06-29 10:00:40.968750,185.33,105.3
145568,2018-06-29 10:00:41.000000,240.77,105.3
145569,2018-06-29 10:00:41.031250,246.27,105.3
145570,2018-06-29 10:00:41.062500,200.86,105.3
145571,2018-06-29 10:00:41.093750,127.52,105.3
145572,2018-06-29 10:00:41.125000,49.27,105.3
145573,2018-06-29 10:00:41.156250,-19.72,105.3
145574,2018-06-29 10:00:41.187500,-66.74,105.3
145575,2018-06-29 10:00:41.218750,-83.71,105.3
145576,2018-06-29 10:00:41.250000,-82.47,105.3
145577,2018-06-29 10:00:41.281250,-84.75,105.3
145578,2018-06-29 10:00:41.312500,-101.08,105.3
145579,2018-06-29 10:00:41.343750,-133.56,105.3
145580,2018-06-29 10:00:41.375000,-181.13,105.3
145581,2018-06-29 10:00:41.406250,-241.14,105.3
145582,2018-06-29 10:00:41.437500,-292.86,105.3
145583,2018-06-29 10:00:41.468750,-317.6,105.3
145584,2018-06-29 10:00:41.500000,-315.82,105.3
145585,2018-06-29 10:00:41.531250,-307.24,105.5
145586,2018-06-29 10:00:41.562500,-303.5,105.5
145587,2018-06-29 10:00:41.593750,-294.63,105.5
145588,2018-06-29 10:00:41.625000,-274.51,105.5
145589,2018-06-29 10:00:41.656250,-244.42,105.5
145590,2018-06-29 10:00:41.687500,-219.05,105.5
145591,2018-06-29 10:00:41.718750,-185.88,105.5
145592,2018-06-29 10:00:41.750000,-123.06,105.5
145593,2018-06-29 10:00:41.781250,-12.0,105.5
145594,2018-06-29 10:00:41.812500,193.76,105.5
145595,2018-06-29 10:00:41.843750,387.64,105.5
145596,2018-06-29 10:00:41.875000,467.96,105.5
145597,2018-06-29 10:00:41.906250,416.79,105.5
145598,2018-06-29 10:00:41.937500,271.8,105.5
145599,2018-06-29 10:00:41.968750,94.33,105.5
145600,2018-06-29 10:00:42.000000,-41.77,105.5
145601,2018-06-29 10:00:42.031250,-94.27,105.5
145602,2018-06-29 10:00:42.062500,-83.37,105.5
145603,2018-06-29 10:00:42.093750,-44.68,105.5
145604,2018-06-29 10:00:42.125000,3.14,105.5
145605,2018-06-29 10:00:42.156250,59.42,105.5
145606,2018-06-29 10:00:42.187500,115.36,105.5
145607,2018-06-29 10:00:42.218750,155.97,105.5
145608,2018-06-29 10:00:42.250000,163.67,105.5
145609,2018-06-29 10:00:42.281250,149.3,105.5
145610,2018-06-29 10:00:42.312500,133.85,105.5
145611,2018-06-29 10:00:42.343750,118.45,105.5
145612,2018-06-29 10:00:42.375000,91.24,105.5
145613,2018-06-29 10:00:42.406250,52.86,105.5
145614,2018-06-29 10:00:42.437500,13.32,105.5
145615,2018-06-29 10:00:42.468750,-23.2,105.5
145616,2018-06-29 10:00:42.500000,-42.94,105.5
145617,2018-06-29 10:00:42.531250,-27.3,105.43
145618,2018-06-29 10:00:42.562500,23.17,105.43
145619,2018-06-29 10:00:42.593750,80.35,105.43
145620,2018-06-29 10:00:42.625000,116.47,105.43
145621,2018-06-29 10:00:42.656250,124.6,105.43
145622,2018-06-29 10:00:42.687500,118.22,105.43
145623,2018-06-29 10:00:42.718750,110.49,105.43
145624,2018-06-29 10:00:42.750000,84.17,105.43
145625,2018-06-29 10:00:42.781250,27.37,105.43
145626,2018-06-29 10:00:42.812500,-36.96,105.43
145627,2018-06-29 10:00:42.843750,-76.96,105.43
145628,2018-06-29 10:00:42.875000,-94.08,105.43
145629,2018-06-29 10:00:42.906250,-108.46,105.43
145630,2018-06-29 10:00:42.937500,-122.42,105.43
145631,2018-06-29 10:00:42.968750,-130.23,105.43
145632,2018-06-29 10:00:43.000000,-133.78,105.43
145633,2018-06-29 10:00:43.031250,-134.52,105.43
145634,2018-06-29 10:00:43.062500,-125.27,105.43
145635,2018-06-29 10:00:43.093750,-106.49,105.43
145636,2018-06-29 10:00:43.125000,-85.19,105.43
145637,2018-06-29 10:00:43.156250,-64.19,105.43
145638,2018-06-29 10:00:43.187500,-38.18,105.43
145639,2018-06-29 10:00:43.218750,-6.51,105.43
145640,2018-06-29 10:00:43.250000,21.97,105.43
145641,2018-06-29 10:00:43.281250,37.6,105.43
145642,2018-06-29 10:00:43.312500,40.3,105.43
145643,2018-06-29 10:00:43.343750,38.08,105.43
145644,2018-06-29 10:00:43.375000,37.62,105.43
145645,2018-06-29 10:00:43.406250,39.83,105.43
145646,2018-06-29 10:00:43.437500,40.36,105.43
145647,2018-06-29 10:00:43.468750,33.23,105.43
145648,2018-06-29 10:00:43.500000,13.29,105.43
145649,2018-06-29 10:00:43.531250,-20.55,105.33
145650,2018-06-29 10:00:43.562500,-62.06,105.33
145651,2018-06-29 10:00:43.593750,-97.32,105.33
145652,2018-06-29 10:00:43.625000,-113.66,105.33
145653,2018-06-29 10:00:43.656250,-108.83,105.33
145654,2018-06-29 10:00:43.687500,-86.45,105.33
145655,2018-06-29 10:00:43.718750,-47.28,105.33
145656,2018-06-29 10:00:43.750000,7.01,105.33
145657,2018-06-29 10:00:43.781250,66.92,105.33
145658,2018-06-29 10:00:43.812500,119.94,105.33
145659,2018-06-29 10:00:43.843750,159.95,105.33
145660,2018-06-29 10:00:43.875000,188.62,105.33
145661,2018-06-29 10:00:43.906250,210.35,105.33
145662,2018-06-29 10:00:43.937500,227.11,105.33
145663,2018-06-29 10:00:43.968750,236.12,105.33
145664,2018-06-29 10:00:44.000000,231.43,105.33
145665,2018-06-29 10:00:44.031250,208.21,105.33
145666,2018-06-29 10:00:44.062500,166.37,105.33
145667,2018-06-29 10:00:44.093750,111.23,105.33
145668,2018-06-29 10:00:44.125000,51.02,105.33
145669,2018-06-29 10:00:44.156250,-6.8,105.33
145670,2018-06-29 10:00:44.187500,-57.82,105.33
145671,2018-06-29 10:00:44.218750,-100.37,105.33
145672,2018-06-29 10:00:44.250000,-134.83,105.33
145673,2018-06-29 10:00:44.281250,-163.63,105.33
145674,2018-06-29 10:00:44.312500,-189.87,105.33
145675,2018-06-29 10:00:44.343750,-211.73,105.33
145676,2018-06-29 10:00:44.375000,-218.94,105.33
145677,2018-06-29 10:00:44.406250,-201.33,105.33
145678,2018-06-29 10:00:44.437500,-160.63,105.33
145679,2018-06-29 10:00:44.468750,-106.72,105.33
145680,2018-06-29 10:00:44.500000,-44.8,105.33
145681,2018-06-29 10:00:44.531250,25.03,105.15
145682,2018-06-29 10:00:44.562500,97.89,105.15
145683,2018-06-29 10:00:44.593750,163.02,105.15
145684,2018-06-29 10:00:44.625000,211.25,105.15
145685,2018-06-29 10:00:44.656250,238.32,105.15
145686,2018-06-29 10:00:44.687500,242.89,105.15
145687,2018-06-29 10:00:44.718750,225.27,105.15
145688,2018-06-29 10:00:44.750000,187.85,105.15
145689,2018-06-29 10:00:44.781250,135.28,105.15
145690,2018-06-29 10:00:44.812500,74.51,105.15
145691,2018-06-29 10:00:44.843750,14.69,105.15
145692,2018-06-29 10:00:44.875000,-35.35,105.15
145693,2018-06-29 10:00:44.906250,-70.67,105.15
145694,2018-06-29 10:00:44.937500,-91.17,105.15
145695,2018-06-29 10:00:44.968750,-100.33,105.15
145696,2018-06-29 10:00:45.000000,-102.88,105.15
145697,2018-06-29 10:00:45.031250,-102.95,105.15
145698,2018-06-29 10:00:45.062500,-103.26,105.15
145699,2018-06-29 10:00:45.093750,-103.67,105.15
145700,2018-06-29 10:00:45.125000,-98.88,105.15
145701,2018-06-29 10:00:45.156250,-81.72,105.15
145702,2018-06-29 10:00:45.187500,-51.3,105.15
145703,2018-06-29 10:00:45.218750,-14.92,105.15
145704,2018-06-29 10:00:45.250000,19.67,105.15
145705,2018-06-29 10:00:45.281250,49.4,105.15
145706,2018-06-29 10:00:45.312500,72.26,105.15
145707,2018-06-29 10:00:45.343750,84.11,105.15
145708,2018-06-29 10:00:45.375000,82.77,105.15
145709,2018-06-29 10:00:45.406250,70.8,105.15
145710,2018-06-29 10:00:45.437500,52.28,105.15
145711,2018-06-29 10:00:45.468750,30.41,105.15
145712,2018-06-29 10:00:45.500000,8.92,105.15
145713,2018-06-29 10:00:45.531250,-7.84,105.0
145714,2018-06-29 10:00:45.562500,-18.77,105.0
145715,2018-06-29 10:00:45.593750,-27.68,105.0
145716,2018-06-29 10:00:45.625000,-39.26,105.0
145717,2018-06-29 10:00:45.656250,-53.69,105.0
145718,2018-06-29 10:00:45.687500,-66.32,105.0
145719,2018-06-29 10:00:45.718750,-71.8,105.0
145720,2018-06-29 10:00:45.750000,-66.96,105.0
145721,2018-06-29 10:00:45.781250,-52.32,105.0
145722,2018-06-29 10:00:45.812500,-31.06,105.0
145723,2018-06-29 10:00:45.843750,-4.79,105.0
145724,2018-06-29 10:00:45.875000,29.03,105.0
145725,2018-06-29 10:00:45.906250,72.62,105.0
145726,2018-06-29 10:00:45.937500,120.7,105.0
145727,2018-06-29 10:00:45.968750,159.72,105.0
145728,2018-06-29 10:00:46.000000,175.25,105.0
145729,2018-06-29 10:00:46.031250,160.82,105.0
145730,2018-06-29 10:00:46.062500,121.01,105.0
145731,2018-06-29 10:00:46.093750,67.82,105.0
145732,2018-06-29 10:00:46.125000,14.41,105.0
145733,2018-06-29 10:00:46.156250,-30.16,105.0
145734,2018-06-29 10:00:46.187500,-61.66,105.0
145735,2018-06-29 10:00:46.218750,-78.98,105.0
145736,2018-06-29 10:00:46.250000,-84.36,105.0
145737,2018-06-29 10:00:46.281250,-82.88,105.0
145738,2018-06-29 10:00:46.312500,-77.99,105.0
145739,2018-06-29 10:00:46.343750,-68.32,105.0
145740,2018-06-29 10:00:46.375000,-52.17,105.0
145741,2018-06-29 10:00:46.406250,-33.7,105.0
145742,2018-06-29 10:00:46.437500,-19.85,105.0
145743,2018-06-29 10:00:46.468750,-11.99,105.0
145744,2018-06-29 10:00:46.500000,-5.04,105.0
145745,2018-06-29 10:00:46.531250,5.15,104.8
145746,2018-06-29 10:00:46.562500,15.95,104.8
145747,2018-06-29 10:00:46.593750,19.48,104.8
145748,2018-06-29 10:00:46.625000,9.51,104.8
145749,2018-06-29 10:00:46.656250,-11.16,104.8
145750,2018-06-29 10:00:46.687500,-31.27,104.8
145751,2018-06-29 10:00:46.718750,-40.68,104.8
145752,2018-06-29 10:00:46.750000,-38.07,104.8
145753,2018-06-29 10:00:46.781250,-28.84,104.8
145754,2018-06-29 10:00:46.812500,-18.48,104.8
145755,2018-06-29 10:00:46.843750,-9.64,104.8
145756,2018-06-29 10:00:46.875000,-2.52,104.8
145757,2018-06-29 10:00:46.906250,3.79,104.8
145758,2018-06-29 10:00:46.937500,9.16,104.8
145759,2018-06-29 10:00:46.968750,12.45,104.8
145760,2018-06-29 10:00:47.000000,14.76,104.8
145761,2018-06-29 10:00:47.031250,20.54,104.8
145762,2018-06-29 10:00:47.062500,32.61,104.8
145763,2018-06-29 10:00:47.093750,46.84,104.8
145764,2018-06-29 10:00:47.125000,54.99,104.8
145765,2018-06-29 10:00:47.156250,53.22,104.8
145766,2018-06-29 10:00:47.187500,45.67,104.8
145767,2018-06-29 10:00:47.218750,37.47,104.8
145768,2018-06-29 10:00:47.250000,26.61,104.8
145769,2018-06-29 10:00:47.281250,8.53,104.8
145770,2018-06-29 10:00:47.312500,-14.85,104.8
145771,2018-06-29 10:00:47.343750,-37.69,104.8
145772,2018-06-29 10:00:47.375000,-57.35,104.8
145773,2018-06-29 10:00:47.406250,-72.02,104.8
145774,2018-06-29 10:00:47.437500,-76.7,104.8
145775,2018-06-29 10:00:47.468750,-68.03,104.8
145776,2018-06-29 10:00:47.500000,-48.82,104.8
145777,2018-06-29 10:00:47.531250,-25.25,104.6
145778,2018-06-29 10:00:47.562500,-3.23,104.6
145779,2018-06-29 10:00:47.593750,14.12,104.6
145780,2018-06-29 10:00:47.625000,28.13,104.6
145781,2018-06-29 10:00:47.656250,40.91,104.6
145782,2018-06-29 10:00:47.687500,51.01,104.6
145783,2018-06-29 10:00:47.718750,56.3,104.6
145784,2018-06-29 10:00:47.750000,57.6,104.6
145785,2018-06-29 10:00:47.781250,55.56,104.6
145786,2018-06-29 10:00:47.812500,48.97,104.6
145787,2018-06-29 10:00:47.843750,39.02,104.6
145788,2018-06-29 10:00:47.875000,29.52,104.6
145789,2018-06-29 10:00:47.906250,22.12,104.6
145790,2018-06-29 10:00:47.937500,16.1,104.6
145791,2018-06-29 10:00:47.968750,12.23,104.6
145792,2018-06-29 10:00:48.000000,12.31,104.6
145793,2018-06-29 10:00:48.031250,15.63,104.6
145794,2018-06-29 10:00:48.062500,19.58,104.6
145795,2018-06-29 10:00:48.093750,22.62,104.6
145796,2018-06-29 10:00:48.125000,25.59,104.6
145797,2018-06-29 10:00:48.156250,30.35,104.6
145798,2018-06-29 10:00:48.187500,35.9,104.6
145799,2018-06-29 10:00:48.218750,36.18,104.6
145800,2018-06-29 10:00:48.250000,26.4,104.6
145801,2018-06-29 10:00:48.281250,11.46,104.6
145802,2018-06-29 10:00:48.312500,3.33,104.6
145803,2018-06-29 10:00:48.343750,8.02,104.6
145804,2018-06-29 10:00:48.375000,17.29,104.6
145805,2018-06-29 10:00:48.406250,16.82,104.6
145806,2018-06-29 10:00:48.437500,2.18,104.6
145807,2018-06-29 10:00:48.468750,-18.96,104.6
145808,2018-06-29 10:00:48.500000,-38.62,104.6
145809,2018-06-29 10:00:48.531250,-53.99,104.42
145810,2018-06-29 10:00:48.562500,-62.48,104.42
145811,2018-06-29 10:00:48.593750,-61.44,104.42
145812,2018-06-29 10:00:48.625000,-51.45,104.42
145813,2018-06-29 10:00:48.656250,-34.92,104.42
145814,2018-06-29 10:00:48.687500,-16.34,104.42
145815,2018-06-29 10:00:48.718750,-4.15,104.42
145816,2018-06-29 10:00:48.750000,-2.66,104.42
145817,2018-06-29 10:00:48.781250,-3.85,104.42
145818,2018-06-29 10:00:48.812500,2.34,104.42
145819,2018-06-29 10:00:48.843750,13.45,104.42
145820,2018-06-29 10:00:48.875000,18.91,104.42
145821,2018-06-29 10:00:48.906250,12.54,104.42
145822,2018-06-29 10:00:48.937500,-4.58,104.42
145823,2018-06-29 10:00:48.968750,-26.57,104.42
145824,2018-06-29 10:00:49.000000,-43.95,104.42
145825,2018-06-29 10:00:49.031250,-48.93,104.42
145826,2018-06-29 10:00:49.062500,-42.05,104.42
145827,2018-06-29 10:00:49.093750,-29.47,104.42
145828,2018-06-29 10:00:49.125000,-14.7,104.42
145829,2018-06-29 10:00:49.156250,2.55,104.42
145830,2018-06-29 10:00:49.187500,20.65,104.42
145831,2018-06-29 10:00:49.218750,34.02,104.42
145832,2018-06-29 10:00:49.250000,39.28,104.42
145833,2018-06-29 10:00:49.281250,41.57,104.42
145834,2018-06-29 10:00:49.312500,49.53,104.42
145835,2018-06-29 10:00:49.343750,60.88,104.42
145836,2018-06-29 10:00:49.375000,60.9,104.42
145837,2018-06-29 10:00:49.406250,42.68,104.42
145838,2018-06-29 10:00:49.437500,20.44,104.42
145839,2018-06-29 10:00:49.468750,12.16,104.42
145840,2018-06-29 10:00:49.500000,15.67,104.42
145841,2018-06-29 10:00:49.531250,14.09,104.2
145842,2018-06-29 10:00:49.562500,-1.74,104.2
145843,2018-06-29 10:00:49.593750,-27.49,104.2
145844,2018-06-29 10:00:49.625000,-55.12,104.2
145845,2018-06-29 10:00:49.656250,-77.26,104.2
145846,2018-06-29 10:00:49.687500,-87.53,104.2
145847,2018-06-29 10:00:49.718750,-85.12,104.2
145848,2018-06-29 10:00:49.750000,-76.05,104.2
145849,2018-06-29 10:00:49.781250,-65.43,104.2
145850,2018-06-29 10:00:49.812500,-51.73,104.2
145851,2018-06-29 10:00:49.843750,-31.74,104.2
145852,2018-06-29 10:00:49.875000,-8.34,104.2
145853,2018-06-29 10:00:49.906250,10.43,104.2
145854,2018-06-29 10:00:49.937500,19.83,104.2
145855,2018-06-29 10:00:49.968750,22.71,104.2
145856,2018-06-29 10:00:50.000000,24.42,104.2
145857,2018-06-29 10:00:50.031250,26.06,104.2
145858,2018-06-29 10:00:50.062500,25.12,104.2
145859,2018-06-29 10:00:50.093750,20.46,104.2
145860,2018-06-29 10:00:50.125000,13.49,104.2
145861,2018-06-29 10:00:50.156250,6.72,104.2
145862,2018-06-29 10:00:50.187500,3.3,104.2
145863,2018-06-29 10:00:50.218750,4.73,104.2
145864,2018-06-29 10:00:50.250000,7.73,104.2
145865,2018-06-29 10:00:50.281250,7.33,104.2
145866,2018-06-29 10:00:50.312500,3.1,104.2
145867,2018-06-29 10:00:50.343750,-0.51,104.2
145868,2018-06-29 10:00:50.375000,1.39,104.2
145869,2018-06-29 10:00:50.406250,8.49,104.2
145870,2018-06-29 10:00:50.437500,13.49,104.2
145871,2018-06-29 10:00:50.468750,11.17,104.2
145872,2018-06-29 10:00:50.500000,7.31,104.2
145873,2018-06-29 10:00:50.531250,10.31,104.07
145874,2018-06-29 10:00:50.562500,17.69,104.07
145875,2018-06-29 10:00:50.593750,20.07,104.07
145876,2018-06-29 10:00:50.625000,13.16,104.07
145877,2018-06-29 10:00:50.656250,-0.9,104.07
145878,2018-06-29 10:00:50.687500,-17.58,104.07
145879,2018-06-29 10:00:50.718750,-31.1,104.07
145880,2018-06-29 10:00:50.750000,-36.58,104.07
145881,2018-06-29 10:00:50.781250,-33.86,104.07
145882,2018-06-29 10:00:50.812500,-27.47,104.07
145883,2018-06-29 10:00:50.843750,-21.55,104.07
145884,2018-06-29 10:00:50.875000,-16.4,104.07
145885,2018-06-29 10:00:50.906250,-9.84,104.07
145886,2018-06-29 10:00:50.937500,-0.86,104.07
145887,2018-06-29 10:00:50.968750,8.8,104.07
145888,2018-06-29 10:00:51.000000,16.31,104.07
145889,2018-06-29 10:00:51.031250,19.84,104.07
145890,2018-06-29 10:00:51.062500,18.81,104.07
145891,2018-06-29 10:00:51.093750,14.24,104.07
145892,2018-06-29 10:00:51.125000,9.08,104.07
145893,2018-06-29 10:00:51.156250,5.54,104.07
145894,2018-06-29 10:00:51.187500,2.59,104.07
145895,2018-06-29 10:00:51.218750,-1.25,104.07
145896,2018-06-29 10:00:51.250000,-4.53,104.07
145897,2018-06-29 10:00:51.281250,-5.21,104.07
145898,2018-06-29 10:00:51.312500,-4.07,104.07
145899,2018-06-29 10:00:51.343750,-2.11,104.07
145900,2018-06-29 10:00:51.375000,3.28,104.07
145901,2018-06-29 10:00:51.406250,15.32,104.07
145902,2018-06-29 10:00:51.437500,32.17,104.07
145903,2018-06-29 10:00:51.468750,46.95,104.07
145904,2018-06-29 10:00:51.500000,54.27,104.07
145905,2018-06-29 10:00:51.531250,55.97,103.93
145906,2018-06-29 10:00:51.562500,60.0,103.93
145907,2018-06-29 10:00:51.593750,71.97,103.93
145908,2018-06-29 10:00:51.625000,85.22,103.93
145909,2018-06-29 10:00:51.656250,82.92,103.93
145910,2018-06-29 10:00:51.687500,56.23,103.93
145911,2018-06-29 10:00:51.718750,18.05,103.93
145912,2018-06-29 10:00:51.750000,-10.52,103.93
145913,2018-06-29 10:00:51.781250,-24.02,103.93
145914,2018-06-29 10:00:51.812500,-32.63,103.93
145915,2018-06-29 10:00:51.843750,-44.27,103.93
145916,2018-06-29 10:00:51.875000,-58.72,103.93
145917,2018-06-29 10:00:51.906250,-73.64,103.93
145918,2018-06-29 10:00:51.937500,-85.59,103.93
145919,2018-06-29 10:00:51.968750,-89.06,103.93
145920,2018-06-29 10:00:52.000000,-82.47,103.93
145921,2018-06-29 10:00:52.031250,-71.89,103.93
145922,2018-06-29 10:00:52.062500,-63.6,103.93
145923,2018-06-29 10:00:52.093750,-56.01,103.93
145924,2018-06-29 10:00:52.125000,-43.75,103.93
145925,2018-06-29 10:00:52.156250,-26.89,103.93
145926,2018-06-29 10:00:52.187500,-11.36,103.93
145927,2018-06-29 10:00:52.218750,-1.57,103.93
145928,2018-06-29 10:00:52.250000,3.29,103.93
145929,2018-06-29 10:00:52.281250,6.01,103.93
145930,2018-06-29 10:00:52.312500,7.71,103.93
145931,2018-06-29 10:00:52.343750,8.47,103.93
145932,2018-06-29 10:00:52.375000,10.34,103.93
145933,2018-06-29 10:00:52.406250,16.68,103.93
145934,2018-06-29 10:00:52.437500,27.68,103.93
145935,2018-06-29 10:00:52.468750,38.82,103.93
145936,2018-06-29 10:00:52.500000,45.37,103.93
145937,2018-06-29 10:00:52.531250,46.66,103.93
145938,2018-06-29 10:00:52.562500,44.65,103.93
145939,2018-06-29 10:00:52.593750,41.46,103.93
145940,2018-06-29 10:00:52.625000,39.09,103.93
145941,2018-06-29 10:00:52.656250,38.26,103.93
145942,2018-06-29 10:00:52.687500,37.08,103.93
145943,2018-06-29 10:00:52.718750,34.34,103.93
145944,2018-06-29 10:00:52.750000,30.44,103.93
145945,2018-06-29 10:00:52.781250,22.38,103.93
145946,2018-06-29 10:00:52.812500,6.99,103.93
145947,2018-06-29 10:00:52.843750,-10.43,103.93
145948,2018-06-29 10:00:52.875000,-22.52,103.93
145949,2018-06-29 10:00:52.906250,-31.3,103.93
145950,2018-06-29 10:00:52.937500,-41.86,103.93
145951,2018-06-29 10:00:52.968750,-51.36,103.93
145952,2018-06-29 10:00:53.000000,-55.22,103.93
145953,2018-06-29 10:00:53.031250,-55.01,103.93
145954,2018-06-29 10:00:53.062500,-53.2,103.93
145955,2018-06-29 10:00:53.093750,-48.17,103.93
145956,2018-06-29 10:00:53.125000,-38.88,103.93
145957,2018-06-29 10:00:53.156250,-27.94,103.93
145958,2018-06-29 10:00:53.187500,-17.97,103.93
145959,2018-06-29 10:00:53.218750,-9.7,103.93
145960,2018-06-29 10:00:53.250000,-4.1,103.93
145961,2018-06-29 10:00:53.281250,-2.17,103.93
145962,2018-06-29 10:00:53.312500,-2.89,103.93
145963,2018-06-29 10:00:53.343750,-4.4,103.93
145964,2018-06-29 10:00:53.375000,-5.9,103.93
145965,2018-06-29 10:00:53.406250,-6.81,103.93
145966,2018-06-29 10:00:53.437500,-5.2,103.93
145967,2018-06-29 10:00:53.468750,0.41,103.93
145968,2018-06-29 10:00:53.500000,7.95,103.93
145969,2018-06-29 10:00:53.531250,13.28,103.92
145970,2018-06-29 10:00:53.562500,15.63,103.92
145971,2018-06-29 10:00:53.593750,19.59,103.92
145972,2018-06-29 10:00:53.625000,28.99,103.92
145973,2018-06-29 10:00:53.656250,40.49,103.92
145974,2018-06-29 10:00:53.687500,48.17,103.92
145975,2018-06-29 10:00:53.718750,52.61,103.92
145976,2018-06-29 10:00:53.750000,60.33,103.92
145977,2018-06-29 10:00:53.781250,74.58,103.92
145978,2018-06-29 10:00:53.812500,88.67,103.92
145979,2018-06-29 10:00:53.843750,89.01,103.92
145980,2018-06-29 10:00:53.875000,69.59,103.92
145981,2018-06-29 10:00:53.906250,41.96,103.92
145982,2018-06-29 10:00:53.937500,20.47,103.92
145983,2018-06-29 10:00:53.968750,3.51,103.92
145984,2018-06-29 10:00:54.000000,-18.46,103.92
145985,2018-06-29 10:00:54.031250,-45.56,103.92
145986,2018-06-29 10:00:54.062500,-71.34,103.92
145987,2018-06-29 10:00:54.093750,-92.14,103.92
145988,2018-06-29 10:00:54.125000,-104.66,103.92
145989,2018-06-29 10:00:54.156250,-104.87,103.92
145990,2018-06-29 10:00:54.187500,-94.73,103.92
145991,2018-06-29 10:00:54.218750,-82.27,103.92
145992,2018-06-29 10:00:54.250000,-72.47,103.92
145993,2018-06-29 10:00:54.281250,-63.23,103.92
145994,2018-06-29 10:00:54.312500,-50.95,103.92
145995,2018-06-29 10:00:54.343750,-36.25,103.92
145996,2018-06-29 10:00:54.375000,-23.11,103.92
145997,2018-06-29 10:00:54.406250,-13.81,103.92
145998,2018-06-29 10:00:54.437500,-7.31,103.92
145999,2018-06-29 10:00:54.468750,-2.57,103.92
146000,2018-06-29 10:00:54.500000,-0.53,103.92
146001,2018-06-29 10:00:54.531250,-0.97,103.88
146002,2018-06-29 10:00:54.562500,-0.94,103.88
146003,2018-06-29 10:00:54.593750,1.6,103.88
146004,2018-06-29 10:00:54.625000,5.75,103.88
146005,2018-06-29 10:00:54.656250,10.61,103.88
146006,2018-06-29 10:00:54.687500,16.74,103.88
146007,2018-06-29 10:00:54.718750,23.39,103.88
146008,2018-06-29 10:00:54.750000,27.26,103.88
146009,2018-06-29 10:00:54.781250,26.68,103.88
146010,2018-06-29 10:00:54.812500,24.88,103.88
146011,2018-06-29 10:00:54.843750,26.47,103.88
146012,2018-06-29 10:00:54.875000,31.23,103.88
146013,2018-06-29 10:00:54.906250,32.65,103.88
146014,2018-06-29 10:00:54.937500,22.85,103.88
146015,2018-06-29 10:00:54.968750,2.2,103.88
146016,2018-06-29 10:00:55.000000,-17.41,103.88
146017,2018-06-29 10:00:55.031250,-24.88,103.88
146018,2018-06-29 10:00:55.062500,-22.83,103.88
146019,2018-06-29 10:00:55.093750,-20.65,103.88
146020,2018-06-29 10:00:55.125000,-21.37,103.88
146021,2018-06-29 10:00:55.156250,-22.55,103.88
146022,2018-06-29 10:00:55.187500,-22.43,103.88
146023,2018-06-29 10:00:55.218750,-19.69,103.88
146024,2018-06-29 10:00:55.250000,-13.59,103.88
146025,2018-06-29 10:00:55.281250,-6.19,103.88
146026,2018-06-29 10:00:55.312500,-0.39,103.88
146027,2018-06-29 10:00:55.343750,3.18,103.88
146028,2018-06-29 10:00:55.375000,6.11,103.88
146029,2018-06-29 10:00:55.406250,10.13,103.88
146030,2018-06-29 10:00:55.437500,14.57,103.88
146031,2018-06-29 10:00:55.468750,16.59,103.88
146032,2018-06-29 10:00:55.500000,14.99,103.88
146033,2018-06-29 10:00:55.531250,11.7,103.67
146034,2018-06-29 10:00:55.562500,8.73,103.67
146035,2018-06-29 10:00:55.593750,5.79,103.67
146036,2018-06-29 10:00:55.625000,2.12,103.67
146037,2018-06-29 10:00:55.656250,-1.33,103.67
146038,2018-06-29 10:00:55.687500,-1.78,103.67
146039,2018-06-29 10:00:55.718750,3.52,103.67
146040,2018-06-29 10:00:55.750000,15.43,103.67
146041,2018-06-29 10:00:55.781250,32.5,103.67
146042,2018-06-29 10:00:55.812500,51.64,103.67
146043,2018-06-29 10:00:55.843750,68.78,103.67
146044,2018-06-29 10:00:55.875000,80.7,103.67
146045,2018-06-29 10:00:55.906250,87.3,103.67
146046,2018-06-29 10:00:55.937500,90.27,103.67
146047,2018-06-29 10:00:55.968750,89.94,103.67
146048,2018-06-29 10:00:56.000000,86.17,103.67
146049,2018-06-29 10:00:56.031250,78.1,103.67
146050,2018-06-29 10:00:56.062500,61.36,103.67
146051,2018-06-29 10:00:56.093750,34.46,103.67
146052,2018-06-29 10:00:56.125000,7.13,103.67
146053,2018-06-29 10:00:56.156250,-10.98,103.67
146054,2018-06-29 10:00:56.187500,-25.4,103.67
146055,2018-06-29 10:00:56.218750,-47.15,103.67
146056,2018-06-29 10:00:56.250000,-75.32,103.67
146057,2018-06-29 10:00:56.281250,-101.36,103.67
146058,2018-06-29 10:00:56.312500,-121.08,103.67
146059,2018-06-29 10:00:56.343750,-133.67,103.67
146060,2018-06-29 10:00:56.375000,-136.59,103.67
146061,2018-06-29 10:00:56.406250,-127.27,103.67
146062,2018-06-29 10:00:56.437500,-106.9,103.67
146063,2018-06-29 10:00:56.468750,-79.78,103.67
146064,2018-06-29 10:00:56.500000,-50.73,103.67
146065,2018-06-29 10:00:56.531250,-24.08,103.28
146066,2018-06-29 10:00:56.562500,-3.72,103.28
146067,2018-06-29 10:00:56.593750,8.01,103.28
146068,2018-06-29 10:00:56.625000,11.93,103.28
146069,2018-06-29 10:00:56.656250,11.59,103.28
146070,2018-06-29 10:00:56.687500,10.23,103.28
146071,2018-06-29 10:00:56.718750,8.8,103.28
146072,2018-06-29 10:00:56.750000,7.67,103.28
146073,2018-06-29 10:00:56.781250,8.0,103.28
146074,2018-06-29 10:00:56.812500,9.44,103.28
146075,2018-06-29 10:00:56.843750,9.48,103.28
146076,2018-06-29 10:00:56.875000,7.44,103.28
146077,2018-06-29 10:00:56.906250,6.67,103.28
146078,2018-06-29 10:00:56.937500,9.75,103.28
146079,2018-06-29 10:00:56.968750,13.39,103.28
146080,2018-06-29 10:00:57.000000,12.11,103.28
146081,2018-06-29 10:00:57.031250,6.36,103.28
146082,2018-06-29 10:00:57.062500,3.83,103.28
146083,2018-06-29 10:00:57.093750,12.28,103.28
146084,2018-06-29 10:00:57.125000,29.92,103.28
146085,2018-06-29 10:00:57.156250,42.02,103.28
146086,2018-06-29 10:00:57.187500,34.47,103.28
146087,2018-06-29 10:00:57.218750,14.03,103.28
146088,2018-06-29 10:00:57.250000,1.44,103.28
146089,2018-06-29 10:00:57.281250,3.1,103.28
146090,2018-06-29 10:00:57.312500,8.46,103.28
146091,2018-06-29 10:00:57.343750,11.72,103.28
146092,2018-06-29 10:00:57.375000,13.41,103.28
146093,2018-06-29 10:00:57.406250,9.48,103.28
146094,2018-06-29 10:00:57.437500,-1.65,103.28
146095,2018-06-29 10:00:57.468750,-11.69,103.28
146096,2018-06-29 10:00:57.500000,-14.77,103.28
146097,2018-06-29 10:00:57.531250,-15.87,102.95
146098,2018-06-29 10:00:57.562500,-20.72,102.95
146099,2018-06-29 10:00:57.593750,-27.05,102.95
146100,2018-06-29 10:00:57.625000,-29.97,102.95
146101,2018-06-29 10:00:57.656250,-30.0,102.95
146102,2018-06-29 10:00:57.687500,-31.41,102.95
146103,2018-06-29 10:00:57.718750,-35.58,102.95
146104,2018-06-29 10:00:57.750000,-39.5,102.95
146105,2018-06-29 10:00:57.781250,-38.85,102.95
146106,2018-06-29 10:00:57.812500,-31.43,102.95
146107,2018-06-29 10:00:57.843750,-19.44,102.95
146108,2018-06-29 10:00:57.875000,-7.51,102.95
146109,2018-06-29 10:00:57.906250,2.48,102.95
146110,2018-06-29 10:00:57.937500,11.59,102.95
146111,2018-06-29 10:00:57.968750,19.15,102.95
146112,2018-06-29 10:00:58.000000,23.02,102.95
146113,2018-06-29 10:00:58.031250,23.04,102.95
146114,2018-06-29 10:00:58.062500,20.25,102.95
146115,2018-06-29 10:00:58.093750,15.27,102.95
146116,2018-06-29 10:00:58.125000,9.56,102.95
146117,2018-06-29 10:00:58.156250,5.48,102.95
146118,2018-06-29 10:00:58.187500,3.95,102.95
146119,2018-06-29 10:00:58.218750,4.24,102.95
146120,2018-06-29 10:00:58.250000,5.1,102.95
146121,2018-06-29 10:00:58.281250,5.25,102.95
146122,2018-06-29 10:00:58.312500,4.35,102.95
146123,2018-06-29 10:00:58.343750,3.74,102.95
146124,2018-06-29 10:00:58.375000,4.52,102.95
146125,2018-06-29 10:00:58.406250,5.39,102.95
146126,2018-06-29 10:00:58.437500,3.62,102.95
146127,2018-06-29 10:00:58.468750,-1.46,102.95
146128,2018-06-29 10:00:58.500000,-6.12,102.95
146129,2018-06-29 10:00:58.531250,-4.48,102.53
146130,2018-06-29 10:00:58.562500,4.59,102.53
146131,2018-06-29 10:00:58.593750,13.96,102.53
146132,2018-06-29 10:00:58.625000,15.31,102.53
146133,2018-06-29 10:00:58.656250,8.62,102.53
146134,2018-06-29 10:00:58.687500,0.88,102.53
146135,2018-06-29 10:00:58.718750,-1.87,102.53
146136,2018-06-29 10:00:58.750000,1.27,102.53
146137,2018-06-29 10:00:58.781250,6.94,102.53
146138,2018-06-29 10:00:58.812500,11.07,102.53
146139,2018-06-29 10:00:58.843750,12.14,102.53
146140,2018-06-29 10:00:58.875000,11.49,102.53
146141,2018-06-29 10:00:58.906250,11.16,102.53
146142,2018-06-29 10:00:58.937500,12.04,102.53
146143,2018-06-29 10:00:58.968750,14.04,102.53
146144,2018-06-29 10:00:59.000000,16.16,102.53
146145,2018-06-29 10:00:59.031250,17.16,102.53
146146,2018-06-29 10:00:59.062500,16.59,102.53
146147,2018-06-29 10:00:59.093750,15.78,102.53
146148,2018-06-29 10:00:59.125000,15.94,102.53
146149,2018-06-29 10:00:59.156250,15.76,102.53
146150,2018-06-29 10:00:59.187500,13.89,102.53
146151,2018-06-29 10:00:59.218750,11.53,102.53
146152,2018-06-29 10:00:59.250000,12.76,102.53
146153,2018-06-29 10:00:59.281250,18.56,102.53
146154,2018-06-29 10:00:59.312500,27.74,102.53
146155,2018-06-29 10:00:59.343750,40.46,102.53
146156,2018-06-29 10:00:59.375000,59.34,102.53
146157,2018-06-29 10:00:59.406250,84.01,102.53
146158,2018-06-29 10:00:59.437500,106.36,102.53
146159,2018-06-29 10:00:59.468750,121.3,102.53
146160,2018-06-29 10:00:59.500000,133.12,102.53
146161,2018-06-29 10:00:59.531250,153.96,102.13
146162,2018-06-29 10:00:59.562500,181.8,102.13
146163,2018-06-29 10:00:59.593750,202.93,102.13
146164,2018-06-29 10:00:59.625000,210.51,102.13
146165,2018-06-29 10:00:59.656250,214.05,102.13
146166,2018-06-29 10:00:59.687500,224.43,102.13
146167,2018-06-29 10:00:59.718750,232.32,102.13
146168,2018-06-29 10:00:59.750000,224.06,102.13
146169,2018-06-29 10:00:59.781250,157.21,102.13
146170,2018-06-29 10:00:59.812500,17.31,102.13
146171,2018-06-29 10:00:59.843750,-120.44,102.13
146172,2018-06-29 10:00:59.875000,-200.7,102.13
146173,2018-06-29 10:00:59.906250,-232.89,102.13
146174,2018-06-29 10:00:59.937500,-234.32,102.13
146175,2018-06-29 10:00:59.968750,-214.45,102.13
146176,2018-06-29 10:01:00.000000,-191.05,102.13
146177,2018-06-29 10:01:00.031250,-176.42,102.13
146178,2018-06-29 10:01:00.062500,-167.25,102.13
146179,2018-06-29 10:01:00.093750,-148.69,102.13
146180,2018-06-29 10:01:00.125000,-120.06,102.13
146181,2018-06-29 10:01:00.156250,-94.5,102.13
146182,2018-06-29 10:01:00.187500,-79.53,102.13
146183,2018-06-29 10:01:00.218750,-68.87,102.13
146184,2018-06-29 10:01:00.250000,-54.46,102.13
146185,2018-06-29 10:01:00.281250,-38.73,102.13
146186,2018-06-29 10:01:00.312500,-24.99,102.13
146187,2018-06-29 10:01:00.343750,-11.38,102.13
146188,2018-06-29 10:01:00.375000,4.22,102.13
146189,2018-06-29 10:01:00.406250,16.6,102.13
146190,2018-06-29 10:01:00.437500,18.59,102.13
146191,2018-06-29 10:01:00.468750,11.11,102.13
146192,2018-06-29 10:01:00.500000,1.38,102.13
146193,2018-06-29 10:01:00.531250,-4.82,101.68
146194,2018-06-29 10:01:00.562500,-7.81,101.68
146195,2018-06-29 10:01:00.593750,-10.38,101.68
146196,2018-06-29 10:01:00.625000,-12.51,101.68
146197,2018-06-29 10:01:00.656250,-11.52,101.68
146198,2018-06-29 10:01:00.687500,-7.22,101.68
146199,2018-06-29 10:01:00.718750,-2.67,101.68
146200,2018-06-29 10:01:00.750000,-0.36,101.68
146201,2018-06-29 10:01:00.781250,1.8,101.68
146202,2018-06-29 10:01:00.812500,7.17,101.68
146203,2018-06-29 10:01:00.843750,15.37,101.68
146204,2018-06-29 10:01:00.875000,21.95,101.68
146205,2018-06-29 10:01:00.906250,23.64,101.68
146206,2018-06-29 10:01:00.937500,22.34,101.68
146207,2018-06-29 10:01:00.968750,23.2,101.68
146208,2018-06-29 10:01:01.000000,33.0,101.68
146209,2018-06-29 10:01:01.031250,50.21,101.68
146210,2018-06-29 10:01:01.062500,62.57,101.68
146211,2018-06-29 10:01:01.093750,61.08,101.68
146212,2018-06-29 10:01:01.125000,48.08,101.68
146213,2018-06-29 10:01:01.156250,29.76,101.68
146214,2018-06-29 10:01:01.187500,11.18,101.68
146215,2018-06-29 10:01:01.218750,-0.52,101.68
146216,2018-06-29 10:01:01.250000,0.21,101.68
146217,2018-06-29 10:01:01.281250,8.16,101.68
146218,2018-06-29 10:01:01.312500,9.77,101.68
146219,2018-06-29 10:01:01.343750,-0.95,101.68
146220,2018-06-29 10:01:01.375000,-16.44,101.68
146221,2018-06-29 10:01:01.406250,-26.63,101.68
146222,2018-06-29 10:01:01.437500,-29.94,101.68
146223,2018-06-29 10:01:01.468750,-30.49,101.68
146224,2018-06-29 10:01:01.500000,-31.28,101.68
146225,2018-06-29 10:01:01.531250,-33.88,101.22
146226,2018-06-29 10:01:01.562500,-39.67,101.22
146227,2018-06-29 10:01:01.593750,-47.87,101.22
146228,2018-06-29 10:01:01.625000,-55.0,101.22
146229,2018-06-29 10:01:01.656250,-59.65,101.22
146230,2018-06-29 10:01:01.687500,-64.3,101.22
146231,2018-06-29 10:01:01.718750,-70.02,101.22
146232,2018-06-29 10:01:01.750000,-73.48,101.22
146233,2018-06-29 10:01:01.781250,-71.08,101.22
146234,2018-06-29 10:01:01.812500,-63.4,101.22
146235,2018-06-29 10:01:01.843750,-54.22,101.22
146236,2018-06-29 10:01:01.875000,-46.63,101.22
146237,2018-06-29 10:01:01.906250,-40.04,101.22
146238,2018-06-29 10:01:01.937500,-31.22,101.22
146239,2018-06-29 10:01:01.968750,-19.53,101.22
146240,2018-06-29 10:01:02.000000,-8.92,101.22
146241,2018-06-29 10:01:02.031250,-3.63,101.22
146242,2018-06-29 10:01:02.062500,-4.68,101.22
146243,2018-06-29 10:01:02.093750,-10.83,101.22
146244,2018-06-29 10:01:02.125000,-19.01,101.22
146245,2018-06-29 10:01:02.156250,-24.34,101.22
146246,2018-06-29 10:01:02.187500,-23.52,101.22
146247,2018-06-29 10:01:02.218750,-17.45,101.22
146248,2018-06-29 10:01:02.250000,-9.55,101.22
146249,2018-06-29 10:01:02.281250,-3.46,101.22
146250,2018-06-29 10:01:02.312500,-1.74,101.22
146251,2018-06-29 10:01:02.343750,-3.87,101.22
146252,2018-06-29 10:01:02.375000,-6.1,101.22
146253,2018-06-29 10:01:02.406250,-4.9,101.22
146254,2018-06-29 10:01:02.437500,0.12,101.22
146255,2018-06-29 10:01:02.468750,6.6,101.22
146256,2018-06-29 10:01:02.500000,11.62,101.22
146257,2018-06-29 10:01:02.531250,13.87,100.7
146258,2018-06-29 10:01:02.562500,14.32,100.7
146259,2018-06-29 10:01:02.593750,14.64,100.7
146260,2018-06-29 10:01:02.625000,15.33,100.7
146261,2018-06-29 10:01:02.656250,15.91,100.7
146262,2018-06-29 10:01:02.687500,16.19,100.7
146263,2018-06-29 10:01:02.718750,16.29,100.7
146264,2018-06-29 10:01:02.750000,15.88,100.7
146265,2018-06-29 10:01:02.781250,14.51,100.7
146266,2018-06-29 10:01:02.812500,12.33,100.7
146267,2018-06-29 10:01:02.843750,9.7,100.7
146268,2018-06-29 10:01:02.875000,6.98,100.7
146269,2018-06-29 10:01:02.906250,4.83,100.7
146270,2018-06-29 10:01:02.937500,3.46,100.7
146271,2018-06-29 10:01:02.968750,1.9,100.7
146272,2018-06-29 10:01:03.000000,-0.76,100.7
146273,2018-06-29 10:01:03.031250,-4.29,100.7
146274,2018-06-29 10:01:03.062500,-7.88,100.7
146275,2018-06-29 10:01:03.093750,-10.22,100.7
146276,2018-06-29 10:01:03.125000,-9.07,100.7
146277,2018-06-29 10:01:03.156250,-3.08,100.7
146278,2018-06-29 10:01:03.187500,5.74,100.7
146279,2018-06-29 10:01:03.218750,13.25,100.7
146280,2018-06-29 10:01:03.250000,16.75,100.7
146281,2018-06-29 10:01:03.281250,15.66,100.7
146282,2018-06-29 10:01:03.312500,10.66,100.7
146283,2018-06-29 10:01:03.343750,4.49,100.7
146284,2018-06-29 10:01:03.375000,1.33,100.7
146285,2018-06-29 10:01:03.406250,2.29,100.7
146286,2018-06-29 10:01:03.437500,3.15,100.7
146287,2018-06-29 10:01:03.468750,-0.16,100.7
146288,2018-06-29 10:01:03.500000,-4.45,100.7
146289,2018-06-29 10:01:03.531250,-2.34,100.2
146290,2018-06-29 10:01:03.562500,6.84,100.2
146291,2018-06-29 10:01:03.593750,14.96,100.2
146292,2018-06-29 10:01:03.625000,15.88,100.2
146293,2018-06-29 10:01:03.656250,12.0,100.2
146294,2018-06-29 10:01:03.687500,8.13,100.2
146295,2018-06-29 10:01:03.718750,4.9,100.2
146296,2018-06-29 10:01:03.750000,-0.27,100.2
146297,2018-06-29 10:01:03.781250,-9.52,100.2
146298,2018-06-29 10:01:03.812500,-20.05,100.2
146299,2018-06-29 10:01:03.843750,-22.5,100.2
146300,2018-06-29 10:01:03.875000,-11.08,100.2
146301,2018-06-29 10:01:03.906250,6.49,100.2
146302,2018-06-29 10:01:03.937500,17.77,100.2
146303,2018-06-29 10:01:03.968750,20.31,100.2
146304,2018-06-29 10:01:04.000000,19.44,100.2
146305,2018-06-29 10:01:04.031250,17.66,100.2
146306,2018-06-29 10:01:04.062500,13.67,100.2
146307,2018-06-29 10:01:04.093750,6.97,100.2
146308,2018-06-29 10:01:04.125000,-0.39,100.2
146309,2018-06-29 10:01:04.156250,-5.26,100.2
146310,2018-06-29 10:01:04.187500,-6.58,100.2
146311,2018-06-29 10:01:04.218750,-6.52,100.2
146312,2018-06-29 10:01:04.250000,-7.09,100.2
146313,2018-06-29 10:01:04.281250,-7.49,100.2
146314,2018-06-29 10:01:04.312500,-6.73,100.2
146315,2018-06-29 10:01:04.343750,-5.91,100.2
146316,2018-06-29 10:01:04.375000,-5.71,100.2
146317,2018-06-29 10:01:04.406250,-5.39,100.2
146318,2018-06-29 10:01:04.437500,-5.43,100.2
146319,2018-06-29 10:01:04.468750,-7.17,100.2
146320,2018-06-29 10:01:04.500000,-9.42,100.2
146321,2018-06-29 10:01:04.531250,-9.92,99.72
146322,2018-06-29 10:01:04.562500,-8.79,99.72
146323,2018-06-29 10:01:04.593750,-7.23,99.72
146324,2018-06-29 10:01:04.625000,-4.7,99.72
146325,2018-06-29 10:01:04.656250,-0.31,99.72
146326,2018-06-29 10:01:04.687500,4.87,99.72
146327,2018-06-29 10:01:04.718750,8.81,99.72
146328,2018-06-29 10:01:04.750000,10.47,99.72
146329,2018-06-29 10:01:04.781250,9.92,99.72
146330,2018-06-29 10:01:04.812500,8.0,99.72
146331,2018-06-29 10:01:04.843750,6.37,99.72
146332,2018-06-29 10:01:04.875000,5.99,99.72
146333,2018-06-29 10:01:04.906250,6.41,99.72
146334,2018-06-29 10:01:04.937500,6.63,99.72
146335,2018-06-29 10:01:04.968750,6.2,99.72
146336,2018-06-29 10:01:05.000000,5.22,99.72
146337,2018-06-29 10:01:05.031250,4.12,99.72
146338,2018-06-29 10:01:05.062500,3.43,99.72
146339,2018-06-29 10:01:05.093750,3.39,99.72
146340,2018-06-29 10:01:05.125000,3.92,99.72
146341,2018-06-29 10:01:05.156250,4.65,99.72
146342,2018-06-29 10:01:05.187500,5.66,99.72
146343,2018-06-29 10:01:05.218750,6.36,99.72
146344,2018-06-29 10:01:05.250000,5.53,99.72
146345,2018-06-29 10:01:05.281250,2.81,99.72
146346,2018-06-29 10:01:05.312500,0.45,99.72
146347,2018-06-29 10:01:05.343750,1.73,99.72
146348,2018-06-29 10:01:05.375000,5.55,99.72
146349,2018-06-29 10:01:05.406250,9.88,99.72
146350,2018-06-29 10:01:05.437500,15.63,99.72
146351,2018-06-29 10:01:05.468750,24.98,99.72
146352,2018-06-29 10:01:05.500000,32.87,99.72
146353,2018-06-29 10:01:05.531250,33.07,99.28
146354,2018-06-29 10:01:05.562500,27.73,99.28
146355,2018-06-29 10:01:05.593750,21.35,99.28
146356,2018-06-29 10:01:05.625000,12.21,99.28
146357,2018-06-29 10:01:05.656250,-6.2,99.28
146358,2018-06-29 10:01:05.687500,-36.44,99.28
146359,2018-06-29 10:01:05.718750,-86.0,99.28
146360,2018-06-29 10:01:05.750000,-138.43,99.28
146361,2018-06-29 10:01:05.781250,-142.83,99.28
146362,2018-06-29 10:01:05.812500,-95.49,99.28
146363,2018-06-29 10:01:05.843750,-34.95,99.28
146364,2018-06-29 10:01:05.875000,11.75,99.28
146365,2018-06-29 10:01:05.906250,40.27,99.28
146366,2018-06-29 10:01:05.937500,53.48,99.28
146367,2018-06-29 10:01:05.968750,59.65,99.28
146368,2018-06-29 10:01:06.000000,68.13,99.28
146369,2018-06-29 10:01:06.031250,83.56,99.28
146370,2018-06-29 10:01:06.062500,98.01,99.28
146371,2018-06-29 10:01:06.093750,100.78,99.28
146372,2018-06-29 10:01:06.125000,87.28,99.28
146373,2018-06-29 10:01:06.156250,57.51,99.28
146374,2018-06-29 10:01:06.187500,14.57,99.28
146375,2018-06-29 10:01:06.218750,-37.89,99.28
146376,2018-06-29 10:01:06.250000,-84.51,99.28
146377,2018-06-29 10:01:06.281250,-100.72,99.28
146378,2018-06-29 10:01:06.312500,-81.04,99.28
146379,2018-06-29 10:01:06.343750,-44.66,99.28
146380,2018-06-29 10:01:06.375000,-15.69,99.28
146381,2018-06-29 10:01:06.406250,7.02,99.28
146382,2018-06-29 10:01:06.437500,32.08,99.28
146383,2018-06-29 10:01:06.468750,56.08,99.28
146384,2018-06-29 10:01:06.500000,68.76,99.28
146385,2018-06-29 10:01:06.531250,64.43,98.83
146386,2018-06-29 10:01:06.562500,39.59,98.83
146387,2018-06-29 10:01:06.593750,-0.04,98.83
146388,2018-06-29 10:01:06.625000,-38.15,98.83
146389,2018-06-29 10:01:06.656250,-61.07,98.83
146390,2018-06-29 10:01:06.687500,-67.9,98.83
146391,2018-06-29 10:01:06.718750,-66.03,98.83
146392,2018-06-29 10:01:06.750000,-61.57,98.83
146393,2018-06-29 10:01:06.781250,-57.55,98.83
146394,2018-06-29 10:01:06.812500,-54.91,98.83
146395,2018-06-29 10:01:06.843750,-53.51,98.83
146396,2018-06-29 10:01:06.875000,-50.22,98.83
146397,2018-06-29 10:01:06.906250,-41.15,98.83
146398,2018-06-29 10:01:06.937500,-26.71,98.83
146399,2018-06-29 10:01:06.968750,-12.69,98.83
146400,2018-06-29 10:01:07.000000,-4.28,98.83
146401,2018-06-29 10:01:07.031250,-1.12,98.83
146402,2018-06-29 10:01:07.062500,0.25,98.83
146403,2018-06-29 10:01:07.093750,2.02,98.83
146404,2018-06-29 10:01:07.125000,4.2,98.83
146405,2018-06-29 10:01:07.156250,4.8,98.83
146406,2018-06-29 10:01:07.187500,2.05,98.83
146407,2018-06-29 10:01:07.218750,-0.49,98.83
146408,2018-06-29 10:01:07.250000,3.52,98.83
146409,2018-06-29 10:01:07.281250,12.92,98.83
146410,2018-06-29 10:01:07.312500,18.97,98.83
146411,2018-06-29 10:01:07.343750,16.64,98.83
146412,2018-06-29 10:01:07.375000,8.67,98.83
146413,2018-06-29 10:01:07.406250,-0.7,98.83
146414,2018-06-29 10:01:07.437500,-8.96,98.83
146415,2018-06-29 10:01:07.468750,-14.33,98.83
146416,2018-06-29 10:01:07.500000,-16.34,98.83
146417,2018-06-29 10:01:07.531250,-17.11,98.3
146418,2018-06-29 10:01:07.562500,-19.86,98.3
146419,2018-06-29 10:01:07.593750,-25.51,98.3
146420,2018-06-29 10:01:07.625000,-30.8,98.3
146421,2018-06-29 10:01:07.656250,-30.25,98.3
146422,2018-06-29 10:01:07.687500,-21.38,98.3
146423,2018-06-29 10:01:07.718750,-7.63,98.3
146424,2018-06-29 10:01:07.750000,5.02,98.3
146425,2018-06-29 10:01:07.781250,13.37,98.3
146426,2018-06-29 10:01:07.812500,17.55,98.3
146427,2018-06-29 10:01:07.843750,18.52,98.3
146428,2018-06-29 10:01:07.875000,17.38,98.3
146429,2018-06-29 10:01:07.906250,15.68,98.3
146430,2018-06-29 10:01:07.937500,14.8,98.3
146431,2018-06-29 10:01:07.968750,14.95,98.3
146432,2018-06-29 10:01:08.000000,15.0,98.3
146433,2018-06-29 10:01:08.031250,13.44,98.3
146434,2018-06-29 10:01:08.062500,10.19,98.3
146435,2018-06-29 10:01:08.093750,6.6,98.3
146436,2018-06-29 10:01:08.125000,3.19,98.3
146437,2018-06-29 10:01:08.156250,-0.92,98.3
146438,2018-06-29 10:01:08.187500,-5.6,98.3
146439,2018-06-29 10:01:08.218750,-9.38,98.3
146440,2018-06-29 10:01:08.250000,-11.9,98.3
146441,2018-06-29 10:01:08.281250,-14.34,98.3
146442,2018-06-29 10:01:08.312500,-17.54,98.3
146443,2018-06-29 10:01:08.343750,-21.49,98.3
146444,2018-06-29 10:01:08.375000,-25.69,98.3
146445,2018-06-29 10:01:08.406250,-27.98,98.3
146446,2018-06-29 10:01:08.437500,-24.42,98.3
146447,2018-06-29 10:01:08.468750,-13.47,98.3
146448,2018-06-29 10:01:08.500000,0.76,98.3
146449,2018-06-29 10:01:08.531250,12.39,97.75
146450,2018-06-29 10:01:08.562500,19.31,97.75
146451,2018-06-29 10:01:08.593750,22.84,97.75
146452,2018-06-29 10:01:08.625000,24.52,97.75
146453,2018-06-29 10:01:08.656250,25.69,97.75
146454,2018-06-29 10:01:08.687500,27.26,97.75
146455,2018-06-29 10:01:08.718750,28.77,97.75
146456,2018-06-29 10:01:08.750000,29.35,97.75
146457,2018-06-29 10:01:08.781250,29.08,97.75
146458,2018-06-29 10:01:08.812500,28.26,97.75
146459,2018-06-29 10:01:08.843750,26.54,97.75
146460,2018-06-29 10:01:08.875000,23.53,97.75
146461,2018-06-29 10:01:08.906250,19.07,97.75
146462,2018-06-29 10:01:08.937500,13.35,97.75
146463,2018-06-29 10:01:08.968750,6.97,97.75
146464,2018-06-29 10:01:09.000000,0.65,97.75
146465,2018-06-29 10:01:09.031250,-5.34,97.75
146466,2018-06-29 10:01:09.062500,-11.36,97.75
146467,2018-06-29 10:01:09.093750,-17.65,97.75
146468,2018-06-29 10:01:09.125000,-23.85,97.75
146469,2018-06-29 10:01:09.156250,-28.21,97.75
146470,2018-06-29 10:01:09.187500,-27.03,97.75
146471,2018-06-29 10:01:09.218750,-17.4,97.75
146472,2018-06-29 10:01:09.250000,-2.64,97.75
146473,2018-06-29 10:01:09.281250,9.63,97.75
146474,2018-06-29 10:01:09.312500,16.43,97.75
146475,2018-06-29 10:01:09.343750,20.48,97.75
146476,2018-06-29 10:01:09.375000,24.39,97.75
146477,2018-06-29 10:01:09.406250,27.13,97.75
146478,2018-06-29 10:01:09.437500,27.4,97.75
146479,2018-06-29 10:01:09.468750,26.71,97.75
146480,2018-06-29 10:01:09.500000,28.64,97.75
146481,2018-06-29 10:01:09.531250,33.76,97.25
146482,2018-06-29 10:01:09.562500,37.67,97.25
146483,2018-06-29 10:01:09.593750,37.67,97.25
146484,2018-06-29 10:01:09.625000,35.43,97.25
146485,2018-06-29 10:01:09.656250,36.56,97.25
146486,2018-06-29 10:01:09.687500,41.25,97.25
146487,2018-06-29 10:01:09.718750,49.81,97.25
146488,2018-06-29 10:01:09.750000,62.68,97.25
146489,2018-06-29 10:01:09.781250,79.78,97.25
146490,2018-06-29 10:01:09.812500,96.34,97.25
146491,2018-06-29 10:01:09.843750,102.58,97.25
146492,2018-06-29 10:01:09.875000,101.41,97.25
146493,2018-06-29 10:01:09.906250,105.4,97.25
146494,2018-06-29 10:01:09.937500,133.53,97.25
146495,2018-06-29 10:01:09.968750,174.29,97.25
146496,2018-06-29 10:01:10.000000,205.46,97.25
146497,2018-06-29 10:01:10.031250,221.86,97.25
146498,2018-06-29 10:01:10.062500,239.95,97.25
146499,2018-06-29 10:01:10.093750,265.75,97.25
146500,2018-06-29 10:01:10.125000,273.03,97.25
146501,2018-06-29 10:01:10.156250,243.95,97.25
146502,2018-06-29 10:01:10.187500,109.06,97.25
146503,2018-06-29 10:01:10.218750,-106.62,97.25
146504,2018-06-29 10:01:10.250000,-245.21,97.25
146505,2018-06-29 10:01:10.281250,-281.2,97.25
146506,2018-06-29 10:01:10.312500,-271.29,97.25
146507,2018-06-29 10:01:10.343750,-238.5,97.25
146508,2018-06-29 10:01:10.375000,-190.48,97.25
146509,2018-06-29 10:01:10.406250,-154.98,97.25
146510,2018-06-29 10:01:10.437500,-137.73,97.25
146511,2018-06-29 10:01:10.468750,-121.88,97.25
146512,2018-06-29 10:01:10.500000,-86.93,97.25
146513,2018-06-29 10:01:10.531250,-46.73,96.73
146514,2018-06-29 10:01:10.562500,-21.26,96.73
146515,2018-06-29 10:01:10.593750,-10.47,96.73
146516,2018-06-29 10:01:10.625000,-2.48,96.73
146517,2018-06-29 10:01:10.656250,6.38,96.73
146518,2018-06-29 10:01:10.687500,6.53,96.73
146519,2018-06-29 10:01:10.718750,-0.06,96.73
146520,2018-06-29 10:01:10.750000,-2.56,96.73
146521,2018-06-29 10:01:10.781250,9.43,96.73
146522,2018-06-29 10:01:10.812500,32.92,96.73
146523,2018-06-29 10:01:10.843750,61.41,96.73
146524,2018-06-29 10:01:10.875000,92.45,96.73
146525,2018-06-29 10:01:10.906250,125.3,96.73
146526,2018-06-29 10:01:10.937500,156.46,96.73
146527,2018-06-29 10:01:10.968750,177.68,96.73
146528,2018-06-29 10:01:11.000000,187.53,96.73
146529,2018-06-29 10:01:11.031250,187.02,96.73
146530,2018-06-29 10:01:11.062500,177.02,96.73
146531,2018-06-29 10:01:11.093750,160.66,96.73
146532,2018-06-29 10:01:11.125000,142.99,96.73
146533,2018-06-29 10:01:11.156250,128.37,96.73
146534,2018-06-29 10:01:11.187500,119.19,96.73
146535,2018-06-29 10:01:11.218750,115.38,96.73
146536,2018-06-29 10:01:11.250000,114.38,96.73
146537,2018-06-29 10:01:11.281250,112.5,96.73
146538,2018-06-29 10:01:11.312500,106.02,96.73
146539,2018-06-29 10:01:11.343750,93.59,96.73
146540,2018-06-29 10:01:11.375000,75.89,96.73
146541,2018-06-29 10:01:11.406250,54.46,96.73
146542,2018-06-29 10:01:11.437500,30.56,96.73
146543,2018-06-29 10:01:11.468750,5.93,96.73
146544,2018-06-29 10:01:11.500000,-16.86,96.73
146545,2018-06-29 10:01:11.531250,-35.28,96.15
146546,2018-06-29 10:01:11.562500,-47.99,96.15
146547,2018-06-29 10:01:11.593750,-54.87,96.15
146548,2018-06-29 10:01:11.625000,-55.66,96.15
146549,2018-06-29 10:01:11.656250,-50.57,96.15
146550,2018-06-29 10:01:11.687500,-41.07,96.15
146551,2018-06-29 10:01:11.718750,-30.0,96.15
146552,2018-06-29 10:01:11.750000,-19.35,96.15
146553,2018-06-29 10:01:11.781250,-9.58,96.15
146554,2018-06-29 10:01:11.812500,-2.02,96.15
146555,2018-06-29 10:01:11.843750,-0.47,96.15
146556,2018-06-29 10:01:11.875000,-7.65,96.15
146557,2018-06-29 10:01:11.906250,-20.98,96.15
146558,2018-06-29 10:01:11.937500,-35.67,96.15
146559,2018-06-29 10:01:11.968750,-52.09,96.15
146560,2018-06-29 10:01:12.000000,-74.15,96.15
146561,2018-06-29 10:01:12.031250,-98.88,96.15
146562,2018-06-29 10:01:12.062500,-115.26,96.15
146563,2018-06-29 10:01:12.093750,-119.39,96.15
146564,2018-06-29 10:01:12.125000,-123.5,96.15
146565,2018-06-29 10:01:12.156250,-141.66,96.15
146566,2018-06-29 10:01:12.187500,-172.02,96.15
146567,2018-06-29 10:01:12.218750,-205.28,96.15
146568,2018-06-29 10:01:12.250000,-243.53,96.15
