,Time,ppg,hr
153600,2018-06-29 10:04:52.000000,-52.8,82.6
153601,2018-06-29 10:04:52.031250,-30.57,82.6
153602,2018-06-29 10:04:52.062500,-12.85,82.6
153603,2018-06-29 10:04:52.093750,5.43,82.6
153604,2018-06-29 10:04:52.125000,28.43,82.6
153605,2018-06-29 10:04:52.156250,55.83,82.6
153606,2018-06-29 10:04:52.187500,80.85,82.6
153607,2018-06-29 10:04:52.218750,97.77,82.6
153608,2018-06-29 10:04:52.250000,108.62,82.6
153609,2018-06-29 10:04:52.281250,117.6,82.6
153610,2018-06-29 10:04:52.312500,126.87,82.6
153611,2018-06-29 10:04:52.343750,135.64,82.6
153612,2018-06-29 10:04:52.375000,140.99,82.6
153613,2018-06-29 10:04:52.406250,140.54,82.6
153614,2018-06-29 10:04:52.437500,136.69,82.6
153615,2018-06-29 10:04:52.468750,136.12,82.6
153616,2018-06-29 10:04:52.500000,141.96,82.6
153617,2018-06-29 10:04:52.531250,151.5,82.65
153618,2018-06-29 10:04:52.562500,156.63,82.65
153619,2018-06-29 10:04:52.593750,152.38,82.65
153620,2018-06-29 10:04:52.625000,137.81,82.65
153621,2018-06-29 10:04:52.656250,114.18,82.65
153622,2018-06-29 10:04:52.687500,77.21,82.65
153623,2018-06-29 10:04:52.718750,20.37,82.65
153624,2018-06-29 10:04:52.750000,-46.55,82.65
153625,2018-06-29 10:04:52.781250,-102.42,82.65
153626,2018-06-29 10:04:52.812500,-129.68,82.65
153627,2018-06-29 10:04:52.843750,-143.65,82.65
153628,2018-06-29 10:04:52.875000,-157.32,82.65
153629,2018-06-29 10:04:52.906250,-161.54,82.65
153630,2018-06-29 10:04:52.937500,-130.5,82.65
153631,2018-06-29 10:04:52.968750,-61.35,82.65
153632,2018-06-29 10:04:53.000000,16.92,82.65
153633,2018-06-29 10:04:53.031250,93.07,82.65
153634,2018-06-29 10:04:53.062500,168.68,82.65
153635,2018-06-29 10:04:53.093750,251.51,82.65
153636,2018-06-29 10:04:53.125000,314.43,82.65
153637,2018-06-29 10:04:53.156250,345.93,82.65
153638,2018-06-29 10:04:53.187500,329.37,82.65
153639,2018-06-29 10:04:53.218750,199.9,82.65
153640,2018-06-29 10:04:53.250000,68.2,82.65
153641,2018-06-29 10:04:53.281250,-39.24,82.65
153642,2018-06-29 10:04:53.312500,-131.43,82.65
153643,2018-06-29 10:04:53.343750,-202.85,82.65
153644,2018-06-29 10:04:53.375000,-244.01,82.65
153645,2018-06-29 10:04:53.406250,-273.06,82.65
153646,2018-06-29 10:04:53.437500,-294.21,82.65
153647,2018-06-29 10:04:53.468750,-303.92,82.65
153648,2018-06-29 10:04:53.500000,-296.13,82.65
153649,2018-06-29 10:04:53.531250,-272.67,82.75
153650,2018-06-29 10:04:53.562500,-247.69,82.75
153651,2018-06-29 10:04:53.593750,-219.91,82.75
153652,2018-06-29 10:04:53.625000,-188.28,82.75
153653,2018-06-29 10:04:53.656250,-146.47,82.75
153654,2018-06-29 10:04:53.687500,-97.7,82.75
153655,2018-06-29 10:04:53.718750,-38.89,82.75
153656,2018-06-29 10:04:53.750000,29.03,82.75
153657,2018-06-29 10:04:53.781250,96.78,82.75
153658,2018-06-29 10:04:53.812500,155.77,82.75
153659,2018-06-29 10:04:53.843750,203.4,82.75
153660,2018-06-29 10:04:53.875000,243.8,82.75
153661,2018-06-29 10:04:53.906250,276.61,82.75
153662,2018-06-29 10:04:53.937500,300.14,82.75
153663,2018-06-29 10:04:53.968750,311.41,82.75
153664,2018-06-29 10:04:54.000000,309.53,82.75
153665,2018-06-29 10:04:54.031250,293.83,82.75
153666,2018-06-29 10:04:54.062500,261.18,82.75
153667,2018-06-29 10:04:54.093750,209.71,82.75
153668,2018-06-29 10:04:54.125000,144.87,82.75
153669,2018-06-29 10:04:54.156250,76.27,82.75
153670,2018-06-29 10:04:54.187500,7.59,82.75
153671,2018-06-29 10:04:54.218750,-64.38,82.75
153672,2018-06-29 10:04:54.250000,-139.96,82.75
153673,2018-06-29 10:04:54.281250,-211.64,82.75
153674,2018-06-29 10:04:54.312500,-261.82,82.75
153675,2018-06-29 10:04:54.343750,-262.91,82.75
153676,2018-06-29 10:04:54.375000,-197.95,82.75
153677,2018-06-29 10:04:54.406250,-86.85,82.75
153678,2018-06-29 10:04:54.437500,24.03,82.75
153679,2018-06-29 10:04:54.468750,95.81,82.75
153680,2018-06-29 10:04:54.500000,109.99,82.75
153681,2018-06-29 10:04:54.531250,67.34,82.82
153682,2018-06-29 10:04:54.562500,-9.2,82.82
153683,2018-06-29 10:04:54.593750,-84.68,82.82
153684,2018-06-29 10:04:54.625000,-134.98,82.82
153685,2018-06-29 10:04:54.656250,-155.71,82.82
153686,2018-06-29 10:04:54.687500,-154.29,82.82
153687,2018-06-29 10:04:54.718750,-141.49,82.82
153688,2018-06-29 10:04:54.750000,-127.4,82.82
153689,2018-06-29 10:04:54.781250,-117.33,82.82
153690,2018-06-29 10:04:54.812500,-109.59,82.82
153691,2018-06-29 10:04:54.843750,-99.23,82.82
153692,2018-06-29 10:04:54.875000,-83.22,82.82
153693,2018-06-29 10:04:54.906250,-61.3,82.82
153694,2018-06-29 10:04:54.937500,-37.17,82.82
153695,2018-06-29 10:04:54.968750,-16.05,82.82
153696,2018-06-29 10:04:55.000000,4.38,82.82
153697,2018-06-29 10:04:55.031250,31.44,82.82
153698,2018-06-29 10:04:55.062500,60.6,82.82
153699,2018-06-29 10:04:55.093750,75.97,82.82
153700,2018-06-29 10:04:55.125000,70.41,82.82
153701,2018-06-29 10:04:55.156250,54.0,82.82
153702,2018-06-29 10:04:55.187500,43.53,82.82
153703,2018-06-29 10:04:55.218750,49.9,82.82
153704,2018-06-29 10:04:55.250000,70.47,82.82
153705,2018-06-29 10:04:55.281250,91.33,82.82
153706,2018-06-29 10:04:55.312500,100.52,82.82
153707,2018-06-29 10:04:55.343750,97.7,82.82
153708,2018-06-29 10:04:55.375000,91.6,82.82
153709,2018-06-29 10:04:55.406250,93.46,82.82
153710,2018-06-29 10:04:55.437500,111.54,82.82
153711,2018-06-29 10:04:55.468750,146.51,82.82
153712,2018-06-29 10:04:55.500000,189.22,82.82
153713,2018-06-29 10:04:55.531250,222.59,82.95
153714,2018-06-29 10:04:55.562500,228.6,82.95
153715,2018-06-29 10:04:55.593750,195.67,82.95
153716,2018-06-29 10:04:55.625000,121.98,82.95
153717,2018-06-29 10:04:55.656250,19.4,82.95
153718,2018-06-29 10:04:55.687500,-82.46,82.95
153719,2018-06-29 10:04:55.718750,-151.65,82.95
153720,2018-06-29 10:04:55.750000,-179.04,82.95
153721,2018-06-29 10:04:55.781250,-175.16,82.95
153722,2018-06-29 10:04:55.812500,-148.15,82.95
153723,2018-06-29 10:04:55.843750,-104.02,82.95
153724,2018-06-29 10:04:55.875000,-57.27,82.95
153725,2018-06-29 10:04:55.906250,-20.2,82.95
153726,2018-06-29 10:04:55.937500,10.33,82.95
153727,2018-06-29 10:04:55.968750,43.6,82.95
153728,2018-06-29 10:04:56.000000,80.82,82.95
153729,2018-06-29 10:04:56.031250,115.27,82.95
153730,2018-06-29 10:04:56.062500,140.49,82.95
153731,2018-06-29 10:04:56.093750,155.3,82.95
153732,2018-06-29 10:04:56.125000,166.63,82.95
153733,2018-06-29 10:04:56.156250,184.92,82.95
153734,2018-06-29 10:04:56.187500,205.51,82.95
153735,2018-06-29 10:04:56.218750,204.24,82.95
153736,2018-06-29 10:04:56.250000,167.74,82.95
153737,2018-06-29 10:04:56.281250,113.53,82.95
153738,2018-06-29 10:04:56.312500,63.5,82.95
153739,2018-06-29 10:04:56.343750,17.92,82.95
153740,2018-06-29 10:04:56.375000,-30.15,82.95
153741,2018-06-29 10:04:56.406250,-77.95,82.95
153742,2018-06-29 10:04:56.437500,-123.22,82.95
153743,2018-06-29 10:04:56.468750,-173.35,82.95
153744,2018-06-29 10:04:56.500000,-237.16,82.95
153745,2018-06-29 10:04:56.531250,-311.58,83.02
153746,2018-06-29 10:04:56.562500,-369.9,83.02
153747,2018-06-29 10:04:56.593750,-371.18,83.02
153748,2018-06-29 10:04:56.625000,-300.34,83.02
153749,2018-06-29 10:04:56.656250,-189.42,83.02
153750,2018-06-29 10:04:56.687500,-85.18,83.02
153751,2018-06-29 10:04:56.718750,-12.0,83.02
153752,2018-06-29 10:04:56.750000,27.91,83.02
153753,2018-06-29 10:04:56.781250,42.72,83.02
153754,2018-06-29 10:04:56.812500,47.58,83.02
153755,2018-06-29 10:04:56.843750,57.22,83.02
153756,2018-06-29 10:04:56.875000,73.39,83.02
153757,2018-06-29 10:04:56.906250,81.43,83.02
153758,2018-06-29 10:04:56.937500,64.33,83.02
153759,2018-06-29 10:04:56.968750,21.74,83.02
153760,2018-06-29 10:04:57.000000,-29.14,83.02
153761,2018-06-29 10:04:57.031250,-69.87,83.02
153762,2018-06-29 10:04:57.062500,-92.67,83.02
153763,2018-06-29 10:04:57.093750,-100.65,83.02
153764,2018-06-29 10:04:57.125000,-100.01,83.02
153765,2018-06-29 10:04:57.156250,-92.06,83.02
153766,2018-06-29 10:04:57.187500,-79.83,83.02
153767,2018-06-29 10:04:57.218750,-81.84,83.02
153768,2018-06-29 10:04:57.250000,-123.93,83.02
153769,2018-06-29 10:04:57.281250,-208.07,83.02
153770,2018-06-29 10:04:57.312500,-295.97,83.02
153771,2018-06-29 10:04:57.343750,-332.04,83.02
153772,2018-06-29 10:04:57.375000,-287.6,83.02
153773,2018-06-29 10:04:57.406250,-183.73,83.02
153774,2018-06-29 10:04:57.437500,-72.54,83.02
153775,2018-06-29 10:04:57.468750,0.9,83.02
153776,2018-06-29 10:04:57.500000,26.79,83.02
153777,2018-06-29 10:04:57.531250,31.94,83.03
153778,2018-06-29 10:04:57.562500,49.41,83.03
153779,2018-06-29 10:04:57.593750,84.99,83.03
153780,2018-06-29 10:04:57.625000,121.46,83.03
153781,2018-06-29 10:04:57.656250,148.22,83.03
153782,2018-06-29 10:04:57.687500,169.7,83.03
153783,2018-06-29 10:04:57.718750,191.11,83.03
153784,2018-06-29 10:04:57.750000,213.5,83.03
153785,2018-06-29 10:04:57.781250,238.92,83.03
153786,2018-06-29 10:04:57.812500,266.2,83.03
153787,2018-06-29 10:04:57.843750,286.36,83.03
153788,2018-06-29 10:04:57.875000,291.93,83.03
153789,2018-06-29 10:04:57.906250,286.38,83.03
153790,2018-06-29 10:04:57.937500,279.48,83.03
153791,2018-06-29 10:04:57.968750,276.4,83.03
153792,2018-06-29 10:04:58.000000,267.92,83.03
153793,2018-06-29 10:04:58.031250,234.71,83.03
153794,2018-06-29 10:04:58.062500,171.88,83.03
153795,2018-06-29 10:04:58.093750,97.96,83.03
153796,2018-06-29 10:04:58.125000,27.32,83.03
153797,2018-06-29 10:04:58.156250,-44.59,83.03
153798,2018-06-29 10:04:58.187500,-117.17,83.03
153799,2018-06-29 10:04:58.218750,-174.73,83.03
153800,2018-06-29 10:04:58.250000,-210.94,83.03
153801,2018-06-29 10:04:58.281250,-239.56,83.03
153802,2018-06-29 10:04:58.312500,-279.45,83.03
153803,2018-06-29 10:04:58.343750,-338.97,83.03
153804,2018-06-29 10:04:58.375000,-398.17,83.03
153805,2018-06-29 10:04:58.406250,-411.65,83.03
153806,2018-06-29 10:04:58.437500,-358.15,83.03
153807,2018-06-29 10:04:58.468750,-269.3,83.03
153808,2018-06-29 10:04:58.500000,-182.43,83.03
153809,2018-06-29 10:04:58.531250,-101.67,83.08
153810,2018-06-29 10:04:58.562500,-26.31,83.08
153811,2018-06-29 10:04:58.593750,32.2,83.08
153812,2018-06-29 10:04:58.625000,76.03,83.08
153813,2018-06-29 10:04:58.656250,119.1,83.08
153814,2018-06-29 10:04:58.687500,158.93,83.08
153815,2018-06-29 10:04:58.718750,179.95,83.08
153816,2018-06-29 10:04:58.750000,174.83,83.08
153817,2018-06-29 10:04:58.781250,143.29,83.08
153818,2018-06-29 10:04:58.812500,85.2,83.08
153819,2018-06-29 10:04:58.843750,5.34,83.08
153820,2018-06-29 10:04:58.875000,-82.68,83.08
153821,2018-06-29 10:04:58.906250,-157.59,83.08
153822,2018-06-29 10:04:58.937500,-200.3,83.08
153823,2018-06-29 10:04:58.968750,-206.89,83.08
153824,2018-06-29 10:04:59.000000,-187.43,83.08
153825,2018-06-29 10:04:59.031250,-146.18,83.08
153826,2018-06-29 10:04:59.062500,-76.1,83.08
153827,2018-06-29 10:04:59.093750,18.88,83.08
153828,2018-06-29 10:04:59.125000,104.92,83.08
153829,2018-06-29 10:04:59.156250,138.81,83.08
153830,2018-06-29 10:04:59.187500,115.73,83.08
153831,2018-06-29 10:04:59.218750,64.72,83.08
153832,2018-06-29 10:04:59.250000,6.1,83.08
153833,2018-06-29 10:04:59.281250,-68.35,83.08
153834,2018-06-29 10:04:59.312500,-162.57,83.08
153835,2018-06-29 10:04:59.343750,-251.11,83.08
153836,2018-06-29 10:04:59.375000,-291.19,83.08
153837,2018-06-29 10:04:59.406250,-260.75,83.08
153838,2018-06-29 10:04:59.437500,-191.33,83.08
153839,2018-06-29 10:04:59.468750,-124.1,83.08
153840,2018-06-29 10:04:59.500000,-76.61,83.08
153841,2018-06-29 10:04:59.531250,-42.37,83.17
153842,2018-06-29 10:04:59.562500,-20.38,83.17
153843,2018-06-29 10:04:59.593750,0.66,83.17
153844,2018-06-29 10:04:59.625000,41.08,83.17
153845,2018-06-29 10:04:59.656250,96.31,83.17
153846,2018-06-29 10:04:59.687500,177.99,83.17
153847,2018-06-29 10:04:59.718750,236.63,83.17
153848,2018-06-29 10:04:59.750000,230.0,83.17
153849,2018-06-29 10:04:59.781250,190.62,83.17
153850,2018-06-29 10:04:59.812500,148.68,83.17
153851,2018-06-29 10:04:59.843750,109.07,83.17
153852,2018-06-29 10:04:59.875000,71.72,83.17
153853,2018-06-29 10:04:59.906250,41.03,83.17
153854,2018-06-29 10:04:59.937500,16.78,83.17
153855,2018-06-29 10:04:59.968750,0.59,83.17
153856,2018-06-29 10:05:00.000000,-12.37,83.17
153857,2018-06-29 10:05:00.031250,-15.32,83.17
153858,2018-06-29 10:05:00.062500,-9.09,83.17
153859,2018-06-29 10:05:00.093750,1.42,83.17
153860,2018-06-29 10:05:00.125000,9.79,83.17
153861,2018-06-29 10:05:00.156250,16.47,83.17
153862,2018-06-29 10:05:00.187500,27.02,83.17
153863,2018-06-29 10:05:00.218750,41.37,83.17
153864,2018-06-29 10:05:00.250000,52.6,83.17
153865,2018-06-29 10:05:00.281250,52.04,83.17
153866,2018-06-29 10:05:00.312500,44.22,83.17
153867,2018-06-29 10:05:00.343750,39.36,83.17
153868,2018-06-29 10:05:00.375000,41.55,83.17
153869,2018-06-29 10:05:00.406250,44.84,83.17
153870,2018-06-29 10:05:00.437500,44.01,83.17
153871,2018-06-29 10:05:00.468750,40.43,83.17
153872,2018-06-29 10:05:00.500000,36.65,83.17
153873,2018-06-29 10:05:00.531250,30.96,83.45
153874,2018-06-29 10:05:00.562500,18.08,83.45
153875,2018-06-29 10:05:00.593750,-5.23,83.45
153876,2018-06-29 10:05:00.625000,-35.33,83.45
153877,2018-06-29 10:05:00.656250,-59.93,83.45
153878,2018-06-29 10:05:00.687500,-65.14,83.45
153879,2018-06-29 10:05:00.718750,-47.5,83.45
153880,2018-06-29 10:05:00.750000,-17.77,83.45
153881,2018-06-29 10:05:00.781250,9.53,83.45
153882,2018-06-29 10:05:00.812500,27.96,83.45
153883,2018-06-29 10:05:00.843750,38.95,83.45
153884,2018-06-29 10:05:00.875000,44.03,83.45
153885,2018-06-29 10:05:00.906250,43.09,83.45
153886,2018-06-29 10:05:00.937500,39.21,83.45
153887,2018-06-29 10:05:00.968750,38.0,83.45
153888,2018-06-29 10:05:01.000000,40.39,83.45
153889,2018-06-29 10:05:01.031250,41.83,83.45
153890,2018-06-29 10:05:01.062500,39.16,83.45
153891,2018-06-29 10:05:01.093750,33.0,83.45
153892,2018-06-29 10:05:01.125000,24.27,83.45
153893,2018-06-29 10:05:01.156250,12.93,83.45
153894,2018-06-29 10:05:01.187500,-0.07,83.45
153895,2018-06-29 10:05:01.218750,-12.16,83.45
153896,2018-06-29 10:05:01.250000,-21.51,83.45
153897,2018-06-29 10:05:01.281250,-29.48,83.45
153898,2018-06-29 10:05:01.312500,-39.47,83.45
153899,2018-06-29 10:05:01.343750,-53.46,83.45
153900,2018-06-29 10:05:01.375000,-69.36,83.45
153901,2018-06-29 10:05:01.406250,-79.22,83.45
153902,2018-06-29 10:05:01.437500,-72.47,83.45
153903,2018-06-29 10:05:01.468750,-46.36,83.45
153904,2018-06-29 10:05:01.500000,-10.22,83.45
153905,2018-06-29 10:05:01.531250,24.93,83.68
153906,2018-06-29 10:05:01.562500,55.4,83.68
153907,2018-06-29 10:05:01.593750,80.52,83.68
153908,2018-06-29 10:05:01.625000,97.43,83.68
153909,2018-06-29 10:05:01.656250,104.36,83.68
153910,2018-06-29 10:05:01.687500,103.48,83.68
153911,2018-06-29 10:05:01.718750,98.59,83.68
153912,2018-06-29 10:05:01.750000,92.35,83.68
153913,2018-06-29 10:05:01.781250,85.19,83.68
153914,2018-06-29 10:05:01.812500,75.68,83.68
153915,2018-06-29 10:05:01.843750,63.16,83.68
153916,2018-06-29 10:05:01.875000,49.37,83.68
153917,2018-06-29 10:05:01.906250,36.06,83.68
153918,2018-06-29 10:05:01.937500,23.35,83.68
153919,2018-06-29 10:05:01.968750,11.5,83.68
153920,2018-06-29 10:05:02.000000,1.68,83.68
153921,2018-06-29 10:05:02.031250,-6.04,83.68
153922,2018-06-29 10:05:02.062500,-13.44,83.68
153923,2018-06-29 10:05:02.093750,-22.47,83.68
153924,2018-06-29 10:05:02.125000,-34.25,83.68
153925,2018-06-29 10:05:02.156250,-48.27,83.68
153926,2018-06-29 10:05:02.187500,-59.5,83.68
153927,2018-06-29 10:05:02.218750,-58.69,83.68
153928,2018-06-29 10:05:02.250000,-41.13,83.68
153929,2018-06-29 10:05:02.281250,-14.19,83.68
153930,2018-06-29 10:05:02.312500,9.67,83.68
153931,2018-06-29 10:05:02.343750,25.32,83.68
153932,2018-06-29 10:05:02.375000,34.87,83.68
153933,2018-06-29 10:05:02.406250,38.97,83.68
153934,2018-06-29 10:05:02.437500,36.13,83.68
153935,2018-06-29 10:05:02.468750,29.14,83.68
153936,2018-06-29 10:05:02.500000,24.36,83.68
153937,2018-06-29 10:05:02.531250,24.1,83.95
153938,2018-06-29 10:05:02.562500,24.8,83.95
153939,2018-06-29 10:05:02.593750,23.45,83.95
153940,2018-06-29 10:05:02.625000,20.91,83.95
153941,2018-06-29 10:05:02.656250,18.43,83.95
153942,2018-06-29 10:05:02.687500,14.84,83.95
153943,2018-06-29 10:05:02.718750,8.36,83.95
153944,2018-06-29 10:05:02.750000,-0.58,83.95
153945,2018-06-29 10:05:02.781250,-9.54,83.95
153946,2018-06-29 10:05:02.812500,-16.75,83.95
153947,2018-06-29 10:05:02.843750,-22.86,83.95
153948,2018-06-29 10:05:02.875000,-29.59,83.95
153949,2018-06-29 10:05:02.906250,-37.65,83.95
153950,2018-06-29 10:05:02.937500,-44.96,83.95
153951,2018-06-29 10:05:02.968750,-44.89,83.95
153952,2018-06-29 10:05:03.000000,-31.13,83.95
153953,2018-06-29 10:05:03.031250,-6.65,83.95
153954,2018-06-29 10:05:03.062500,18.13,83.95
153955,2018-06-29 10:05:03.093750,36.73,83.95
153956,2018-06-29 10:05:03.125000,49.07,83.95
153957,2018-06-29 10:05:03.156250,54.87,83.95
153958,2018-06-29 10:05:03.187500,53.4,83.95
153959,2018-06-29 10:05:03.218750,47.49,83.95
153960,2018-06-29 10:05:03.250000,41.65,83.95
153961,2018-06-29 10:05:03.281250,37.28,83.95
153962,2018-06-29 10:05:03.312500,33.23,83.95
153963,2018-06-29 10:05:03.343750,29.53,83.95
153964,2018-06-29 10:05:03.375000,26.81,83.95
153965,2018-06-29 10:05:03.406250,23.08,83.95
153966,2018-06-29 10:05:03.437500,15.76,83.95
153967,2018-06-29 10:05:03.468750,6.32,83.95
153968,2018-06-29 10:05:03.500000,-1.88,83.95
153969,2018-06-29 10:05:03.531250,-8.86,84.27
153970,2018-06-29 10:05:03.562500,-16.66,84.27
153971,2018-06-29 10:05:03.593750,-25.02,84.27
153972,2018-06-29 10:05:03.625000,-31.84,84.27
153973,2018-06-29 10:05:03.656250,-36.52,84.27
153974,2018-06-29 10:05:03.687500,-41.5,84.27
153975,2018-06-29 10:05:03.718750,-49.84,84.27
153976,2018-06-29 10:05:03.750000,-59.88,84.27
153977,2018-06-29 10:05:03.781250,-63.87,84.27
153978,2018-06-29 10:05:03.812500,-55.06,84.27
153979,2018-06-29 10:05:03.843750,-34.97,84.27
153980,2018-06-29 10:05:03.875000,-11.38,84.27
153981,2018-06-29 10:05:03.906250,9.23,84.27
153982,2018-06-29 10:05:03.937500,25.29,84.27
153983,2018-06-29 10:05:03.968750,38.02,84.27
153984,2018-06-29 10:05:04.000000,47.36,84.27
153985,2018-06-29 10:05:04.031250,51.25,84.27
153986,2018-06-29 10:05:04.062500,49.29,84.27
153987,2018-06-29 10:05:04.093750,45.11,84.27
153988,2018-06-29 10:05:04.125000,42.35,84.27
153989,2018-06-29 10:05:04.156250,40.75,84.27
153990,2018-06-29 10:05:04.187500,38.13,84.27
153991,2018-06-29 10:05:04.218750,33.71,84.27
153992,2018-06-29 10:05:04.250000,27.07,84.27
153993,2018-06-29 10:05:04.281250,17.48,84.27
153994,2018-06-29 10:05:04.312500,6.61,84.27
153995,2018-06-29 10:05:04.343750,-2.03,84.27
153996,2018-06-29 10:05:04.375000,-7.0,84.27
153997,2018-06-29 10:05:04.406250,-9.74,84.27
153998,2018-06-29 10:05:04.437500,-12.18,84.27
153999,2018-06-29 10:05:04.468750,-15.32,84.27
154000,2018-06-29 10:05:04.500000,-19.02,84.27
154001,2018-06-29 10:05:04.531250,-22.68,84.48
154002,2018-06-29 10:05:04.562500,-26.66,84.48
154003,2018-06-29 10:05:04.593750,-32.3,84.48
154004,2018-06-29 10:05:04.625000,-40.48,84.48
154005,2018-06-29 10:05:04.656250,-50.22,84.48
154006,2018-06-29 10:05:04.687500,-56.7,84.48
154007,2018-06-29 10:05:04.718750,-52.8,84.48
154008,2018-06-29 10:05:04.750000,-36.51,84.48
154009,2018-06-29 10:05:04.781250,-14.69,84.48
154010,2018-06-29 10:05:04.812500,3.93,84.48
154011,2018-06-29 10:05:04.843750,17.57,84.48
154012,2018-06-29 10:05:04.875000,29.31,84.48
154013,2018-06-29 10:05:04.906250,39.52,84.48
154014,2018-06-29 10:05:04.937500,45.28,84.48
154015,2018-06-29 10:05:04.968750,45.99,84.48
154016,2018-06-29 10:05:05.000000,44.26,84.48
154017,2018-06-29 10:05:05.031250,42.0,84.48
154018,2018-06-29 10:05:05.062500,38.76,84.48
154019,2018-06-29 10:05:05.093750,33.85,84.48
154020,2018-06-29 10:05:05.125000,27.89,84.48
154021,2018-06-29 10:05:05.156250,22.41,84.48
154022,2018-06-29 10:05:05.187500,18.24,84.48
154023,2018-06-29 10:05:05.218750,14.3,84.48
154024,2018-06-29 10:05:05.250000,9.05,84.48
154025,2018-06-29 10:05:05.281250,3.0,84.48
154026,2018-06-29 10:05:05.312500,-1.8,84.48
154027,2018-06-29 10:05:05.343750,-4.04,84.48
154028,2018-06-29 10:05:05.375000,-3.76,84.48
154029,2018-06-29 10:05:05.406250,-1.8,84.48
154030,2018-06-29 10:05:05.437500,0.09,84.48
154031,2018-06-29 10:05:05.468750,-0.08,84.48
154032,2018-06-29 10:05:05.500000,-3.27,84.48
154033,2018-06-29 10:05:05.531250,-8.52,84.73
154034,2018-06-29 10:05:05.562500,-14.58,84.73
154035,2018-06-29 10:05:05.593750,-21.66,84.73
154036,2018-06-29 10:05:05.625000,-29.68,84.73
154037,2018-06-29 10:05:05.656250,-34.85,84.73
154038,2018-06-29 10:05:05.687500,-32.54,84.73
154039,2018-06-29 10:05:05.718750,-23.74,84.73
154040,2018-06-29 10:05:05.750000,-13.58,84.73
154041,2018-06-29 10:05:05.781250,-4.78,84.73
154042,2018-06-29 10:05:05.812500,2.54,84.73
154043,2018-06-29 10:05:05.843750,7.7,84.73
154044,2018-06-29 10:05:05.875000,9.46,84.73
154045,2018-06-29 10:05:05.906250,5.57,84.73
154046,2018-06-29 10:05:05.937500,-7.27,84.73
154047,2018-06-29 10:05:05.968750,-26.65,84.73
154048,2018-06-29 10:05:06.000000,-40.6,84.73
154049,2018-06-29 10:05:06.031250,-37.66,84.73
154050,2018-06-29 10:05:06.062500,-18.21,84.73
154051,2018-06-29 10:05:06.093750,8.11,84.73
154052,2018-06-29 10:05:06.125000,31.53,84.73
154053,2018-06-29 10:05:06.156250,45.29,84.73
154054,2018-06-29 10:05:06.187500,45.13,84.73
154055,2018-06-29 10:05:06.218750,32.73,84.73
154056,2018-06-29 10:05:06.250000,17.19,84.73
154057,2018-06-29 10:05:06.281250,6.56,84.73
154058,2018-06-29 10:05:06.312500,-0.99,84.73
154059,2018-06-29 10:05:06.343750,-12.15,84.73
154060,2018-06-29 10:05:06.375000,-27.51,84.73
154061,2018-06-29 10:05:06.406250,-41.01,84.73
154062,2018-06-29 10:05:06.437500,-47.09,84.73
154063,2018-06-29 10:05:06.468750,-44.0,84.73
154064,2018-06-29 10:05:06.500000,-33.82,84.73
154065,2018-06-29 10:05:06.531250,-21.06,85.03
154066,2018-06-29 10:05:06.562500,-9.79,85.03
154067,2018-06-29 10:05:06.593750,-1.87,85.03
154068,2018-06-29 10:05:06.625000,2.21,85.03
154069,2018-06-29 10:05:06.656250,2.96,85.03
154070,2018-06-29 10:05:06.687500,2.02,85.03
154071,2018-06-29 10:05:06.718750,1.04,85.03
154072,2018-06-29 10:05:06.750000,0.25,85.03
154073,2018-06-29 10:05:06.781250,-1.01,85.03
154074,2018-06-29 10:05:06.812500,-2.66,85.03
154075,2018-06-29 10:05:06.843750,-4.03,85.03
154076,2018-06-29 10:05:06.875000,-5.45,85.03
154077,2018-06-29 10:05:06.906250,-7.1,85.03
154078,2018-06-29 10:05:06.937500,-7.44,85.03
154079,2018-06-29 10:05:06.968750,-5.94,85.03
154080,2018-06-29 10:05:07.000000,-5.11,85.03
154081,2018-06-29 10:05:07.031250,-7.12,85.03
154082,2018-06-29 10:05:07.062500,-10.9,85.03
154083,2018-06-29 10:05:07.093750,-14.26,85.03
154084,2018-06-29 10:05:07.125000,-16.05,85.03
154085,2018-06-29 10:05:07.156250,-16.38,85.03
154086,2018-06-29 10:05:07.187500,-17.19,85.03
154087,2018-06-29 10:05:07.218750,-20.64,85.03
154088,2018-06-29 10:05:07.250000,-24.45,85.03
154089,2018-06-29 10:05:07.281250,-22.25,85.03
154090,2018-06-29 10:05:07.312500,-10.83,85.03
154091,2018-06-29 10:05:07.343750,5.65,85.03
154092,2018-06-29 10:05:07.375000,21.01,85.03
154093,2018-06-29 10:05:07.406250,32.8,85.03
154094,2018-06-29 10:05:07.437500,41.22,85.03
154095,2018-06-29 10:05:07.468750,46.08,85.03
154096,2018-06-29 10:05:07.500000,47.54,85.03
154097,2018-06-29 10:05:07.531250,47.15,85.32
154098,2018-06-29 10:05:07.562500,45.81,85.32
154099,2018-06-29 10:05:07.593750,43.2,85.32
154100,2018-06-29 10:05:07.625000,40.77,85.32
154101,2018-06-29 10:05:07.656250,42.11,85.32
154102,2018-06-29 10:05:07.687500,48.88,85.32
154103,2018-06-29 10:05:07.718750,58.32,85.32
154104,2018-06-29 10:05:07.750000,66.06,85.32
154105,2018-06-29 10:05:07.781250,69.7,85.32
154106,2018-06-29 10:05:07.812500,69.88,85.32
154107,2018-06-29 10:05:07.843750,68.92,85.32
154108,2018-06-29 10:05:07.875000,67.81,85.32
154109,2018-06-29 10:05:07.906250,64.18,85.32
154110,2018-06-29 10:05:07.937500,54.84,85.32
154111,2018-06-29 10:05:07.968750,39.84,85.32
154112,2018-06-29 10:05:08.000000,23.32,85.32
154113,2018-06-29 10:05:08.031250,11.22,85.32
154114,2018-06-29 10:05:08.062500,8.48,85.32
154115,2018-06-29 10:05:08.093750,17.02,85.32
154116,2018-06-29 10:05:08.125000,31.49,85.32
154117,2018-06-29 10:05:08.156250,43.97,85.32
154118,2018-06-29 10:05:08.187500,48.98,85.32
154119,2018-06-29 10:05:08.218750,43.86,85.32
154120,2018-06-29 10:05:08.250000,26.78,85.32
154121,2018-06-29 10:05:08.281250,1.6,85.32
154122,2018-06-29 10:05:08.312500,-23.46,85.32
154123,2018-06-29 10:05:08.343750,-45.94,85.32
154124,2018-06-29 10:05:08.375000,-66.4,85.32
154125,2018-06-29 10:05:08.406250,-85.0,85.32
154126,2018-06-29 10:05:08.437500,-91.29,85.32
154127,2018-06-29 10:05:08.468750,-84.22,85.32
154128,2018-06-29 10:05:08.500000,-75.39,85.32
154129,2018-06-29 10:05:08.531250,-85.62,85.55
154130,2018-06-29 10:05:08.562500,-120.0,85.55
154131,2018-06-29 10:05:08.593750,-162.11,85.55
154132,2018-06-29 10:05:08.625000,-204.69,85.55
154133,2018-06-29 10:05:08.656250,-246.96,85.55
154134,2018-06-29 10:05:08.687500,-299.04,85.55
154135,2018-06-29 10:05:08.718750,-340.36,85.55
154136,2018-06-29 10:05:08.750000,-361.04,85.55
154137,2018-06-29 10:05:08.781250,-365.92,85.55
154138,2018-06-29 10:05:08.812500,-372.3,85.55
154139,2018-06-29 10:05:08.843750,-375.54,85.55
154140,2018-06-29 10:05:08.875000,-346.51,85.55
154141,2018-06-29 10:05:08.906250,-296.68,85.55
154142,2018-06-29 10:05:08.937500,-139.7,85.55
154143,2018-06-29 10:05:08.968750,97.65,85.55
154144,2018-06-29 10:05:09.000000,256.53,85.55
154145,2018-06-29 10:05:09.031250,340.92,85.55
154146,2018-06-29 10:05:09.062500,390.15,85.55
154147,2018-06-29 10:05:09.093750,404.27,85.55
154148,2018-06-29 10:05:09.125000,393.31,85.55
154149,2018-06-29 10:05:09.156250,393.78,85.55
154150,2018-06-29 10:05:09.187500,397.18,85.55
154151,2018-06-29 10:05:09.218750,367.27,85.55
154152,2018-06-29 10:05:09.250000,265.5,85.55
154153,2018-06-29 10:05:09.281250,117.37,85.55
154154,2018-06-29 10:05:09.312500,-31.86,85.55
154155,2018-06-29 10:05:09.343750,-145.51,85.55
154156,2018-06-29 10:05:09.375000,-209.34,85.55
154157,2018-06-29 10:05:09.406250,-226.89,85.55
154158,2018-06-29 10:05:09.437500,-205.57,85.55
154159,2018-06-29 10:05:09.468750,-158.79,85.55
154160,2018-06-29 10:05:09.500000,-101.2,85.55
154161,2018-06-29 10:05:09.531250,-55.29,85.87
154162,2018-06-29 10:05:09.562500,-23.02,85.87
154163,2018-06-29 10:05:09.593750,6.7,85.87
154164,2018-06-29 10:05:09.625000,35.26,85.87
154165,2018-06-29 10:05:09.656250,55.58,85.87
154166,2018-06-29 10:05:09.687500,69.89,85.87
154167,2018-06-29 10:05:09.718750,82.41,85.87
154168,2018-06-29 10:05:09.750000,86.28,85.87
154169,2018-06-29 10:05:09.781250,79.98,85.87
154170,2018-06-29 10:05:09.812500,75.4,85.87
154171,2018-06-29 10:05:09.843750,82.03,85.87
154172,2018-06-29 10:05:09.875000,94.41,85.87
154173,2018-06-29 10:05:09.906250,95.74,85.87
154174,2018-06-29 10:05:09.937500,73.34,85.87
154175,2018-06-29 10:05:09.968750,35.8,85.87
154176,2018-06-29 10:05:10.000000,7.62,85.87
154177,2018-06-29 10:05:10.031250,3.2,85.87
154178,2018-06-29 10:05:10.062500,16.23,85.87
154179,2018-06-29 10:05:10.093750,33.39,85.87
154180,2018-06-29 10:05:10.125000,45.53,85.87
154181,2018-06-29 10:05:10.156250,47.79,85.87
154182,2018-06-29 10:05:10.187500,39.1,85.87
154183,2018-06-29 10:05:10.218750,21.68,85.87
154184,2018-06-29 10:05:10.250000,-1.94,85.87
154185,2018-06-29 10:05:10.281250,-29.94,85.87
154186,2018-06-29 10:05:10.312500,-57.51,85.87
154187,2018-06-29 10:05:10.343750,-75.35,85.87
154188,2018-06-29 10:05:10.375000,-76.69,85.87
154189,2018-06-29 10:05:10.406250,-65.81,85.87
154190,2018-06-29 10:05:10.437500,-54.54,85.87
154191,2018-06-29 10:05:10.468750,-48.55,85.87
154192,2018-06-29 10:05:10.500000,-43.23,85.87
154193,2018-06-29 10:05:10.531250,-35.08,86.25
154194,2018-06-29 10:05:10.562500,-28.67,86.25
154195,2018-06-29 10:05:10.593750,-27.61,86.25
154196,2018-06-29 10:05:10.625000,-28.21,86.25
154197,2018-06-29 10:05:10.656250,-27.38,86.25
154198,2018-06-29 10:05:10.687500,-28.15,86.25
154199,2018-06-29 10:05:10.718750,-33.78,86.25
154200,2018-06-29 10:05:10.750000,-44.15,86.25
154201,2018-06-29 10:05:10.781250,-58.32,86.25
154202,2018-06-29 10:05:10.812500,-74.32,86.25
154203,2018-06-29 10:05:10.843750,-87.86,86.25
154204,2018-06-29 10:05:10.875000,-95.68,86.25
154205,2018-06-29 10:05:10.906250,-98.7,86.25
154206,2018-06-29 10:05:10.937500,-100.11,86.25
154207,2018-06-29 10:05:10.968750,-101.6,86.25
154208,2018-06-29 10:05:11.000000,-103.14,86.25
154209,2018-06-29 10:05:11.031250,-104.23,86.25
154210,2018-06-29 10:05:11.062500,-102.13,86.25
154211,2018-06-29 10:05:11.093750,-91.15,86.25
154212,2018-06-29 10:05:11.125000,-69.21,86.25
154213,2018-06-29 10:05:11.156250,-42.02,86.25
154214,2018-06-29 10:05:11.187500,-15.91,86.25
154215,2018-06-29 10:05:11.218750,8.46,86.25
154216,2018-06-29 10:05:11.250000,31.53,86.25
154217,2018-06-29 10:05:11.281250,50.26,86.25
154218,2018-06-29 10:05:11.312500,61.8,86.25
154219,2018-06-29 10:05:11.343750,67.02,86.25
154220,2018-06-29 10:05:11.375000,69.12,86.25
154221,2018-06-29 10:05:11.406250,70.89,86.25
154222,2018-06-29 10:05:11.437500,73.09,86.25
154223,2018-06-29 10:05:11.468750,74.4,86.25
154224,2018-06-29 10:05:11.500000,73.53,86.25
154225,2018-06-29 10:05:11.531250,70.23,86.7
154226,2018-06-29 10:05:11.562500,64.01,86.7
154227,2018-06-29 10:05:11.593750,54.16,86.7
154228,2018-06-29 10:05:11.625000,41.8,86.7
154229,2018-06-29 10:05:11.656250,29.81,86.7
154230,2018-06-29 10:05:11.687500,19.8,86.7
154231,2018-06-29 10:05:11.718750,10.72,86.7
154232,2018-06-29 10:05:11.750000,0.89,86.7
154233,2018-06-29 10:05:11.781250,-10.03,86.7
154234,2018-06-29 10:05:11.812500,-21.28,86.7
154235,2018-06-29 10:05:11.843750,-32.26,86.7
154236,2018-06-29 10:05:11.875000,-43.12,86.7
154237,2018-06-29 10:05:11.906250,-55.11,86.7
154238,2018-06-29 10:05:11.937500,-69.32,86.7
154239,2018-06-29 10:05:11.968750,-81.78,86.7
154240,2018-06-29 10:05:12.000000,-82.64,86.7
154241,2018-06-29 10:05:12.031250,-65.99,86.7
154242,2018-06-29 10:05:12.062500,-38.42,86.7
154243,2018-06-29 10:05:12.093750,-11.4,86.7
154244,2018-06-29 10:05:12.125000,11.09,86.7
154245,2018-06-29 10:05:12.156250,31.15,86.7
154246,2018-06-29 10:05:12.187500,48.11,86.7
154247,2018-06-29 10:05:12.218750,58.75,86.7
154248,2018-06-29 10:05:12.250000,62.76,86.7
154249,2018-06-29 10:05:12.281250,62.99,86.7
154250,2018-06-29 10:05:12.312500,62.18,86.7
154251,2018-06-29 10:05:12.343750,61.64,86.7
154252,2018-06-29 10:05:12.375000,61.54,86.7
154253,2018-06-29 10:05:12.406250,60.63,86.7
154254,2018-06-29 10:05:12.437500,57.17,86.7
154255,2018-06-29 10:05:12.468750,50.88,86.7
154256,2018-06-29 10:05:12.500000,43.05,86.7
154257,2018-06-29 10:05:12.531250,35.37,87.1
154258,2018-06-29 10:05:12.562500,29.21,87.1
154259,2018-06-29 10:05:12.593750,24.76,87.1
154260,2018-06-29 10:05:12.625000,20.52,87.1
154261,2018-06-29 10:05:12.656250,14.58,87.1
154262,2018-06-29 10:05:12.687500,7.22,87.1
154263,2018-06-29 10:05:12.718750,0.91,87.1
154264,2018-06-29 10:05:12.750000,-3.55,87.1
154265,2018-06-29 10:05:12.781250,-9.38,87.1
154266,2018-06-29 10:05:12.812500,-20.59,87.1
154267,2018-06-29 10:05:12.843750,-35.75,87.1
154268,2018-06-29 10:05:12.875000,-45.22,87.1
154269,2018-06-29 10:05:12.906250,-36.79,87.1
154270,2018-06-29 10:05:12.937500,-7.68,87.1
154271,2018-06-29 10:05:12.968750,30.47,87.1
154272,2018-06-29 10:05:13.000000,62.38,87.1
154273,2018-06-29 10:05:13.031250,83.25,87.1
154274,2018-06-29 10:05:13.062500,97.2,87.1
154275,2018-06-29 10:05:13.093750,106.24,87.1
154276,2018-06-29 10:05:13.125000,108.22,87.1
154277,2018-06-29 10:05:13.156250,103.25,87.1
154278,2018-06-29 10:05:13.187500,94.96,87.1
154279,2018-06-29 10:05:13.218750,86.05,87.1
154280,2018-06-29 10:05:13.250000,76.77,87.1
154281,2018-06-29 10:05:13.281250,67.77,87.1
154282,2018-06-29 10:05:13.312500,60.03,87.1
154283,2018-06-29 10:05:13.343750,51.96,87.1
154284,2018-06-29 10:05:13.375000,41.5,87.1
154285,2018-06-29 10:05:13.406250,30.38,87.1
154286,2018-06-29 10:05:13.437500,21.47,87.1
154287,2018-06-29 10:05:13.468750,14.53,87.1
154288,2018-06-29 10:05:13.500000,8.39,87.1
154289,2018-06-29 10:05:13.531250,3.68,87.42
154290,2018-06-29 10:05:13.562500,0.17,87.42
154291,2018-06-29 10:05:13.593750,-4.97,87.42
154292,2018-06-29 10:05:13.625000,-14.41,87.42
154293,2018-06-29 10:05:13.656250,-28.28,87.42
154294,2018-06-29 10:05:13.687500,-44.5,87.42
154295,2018-06-29 10:05:13.718750,-58.72,87.42
154296,2018-06-29 10:05:13.750000,-63.58,87.42
154297,2018-06-29 10:05:13.781250,-52.99,87.42
154298,2018-06-29 10:05:13.812500,-29.59,87.42
154299,2018-06-29 10:05:13.843750,-3.74,87.42
154300,2018-06-29 10:05:13.875000,16.59,87.42
154301,2018-06-29 10:05:13.906250,30.81,87.42
154302,2018-06-29 10:05:13.937500,40.65,87.42
154303,2018-06-29 10:05:13.968750,46.13,87.42
154304,2018-06-29 10:05:14.000000,48.0,87.42
154305,2018-06-29 10:05:14.031250,48.61,87.42
154306,2018-06-29 10:05:14.062500,48.86,87.42
154307,2018-06-29 10:05:14.093750,47.6,87.42
154308,2018-06-29 10:05:14.125000,44.33,87.42
154309,2018-06-29 10:05:14.156250,39.52,87.42
154310,2018-06-29 10:05:14.187500,33.52,87.42
154311,2018-06-29 10:05:14.218750,26.38,87.42
154312,2018-06-29 10:05:14.250000,17.35,87.42
154313,2018-06-29 10:05:14.281250,5.31,87.42
154314,2018-06-29 10:05:14.312500,-8.99,87.42
154315,2018-06-29 10:05:14.343750,-23.55,87.42
154316,2018-06-29 10:05:14.375000,-37.81,87.42
154317,2018-06-29 10:05:14.406250,-52.77,87.42
154318,2018-06-29 10:05:14.437500,-69.82,87.42
154319,2018-06-29 10:05:14.468750,-90.24,87.42
154320,2018-06-29 10:05:14.500000,-112.17,87.42
154321,2018-06-29 10:05:14.531250,-127.93,87.78
154322,2018-06-29 10:05:14.562500,-129.6,87.78
154323,2018-06-29 10:05:14.593750,-118.17,87.78
154324,2018-06-29 10:05:14.625000,-101.88,87.78
154325,2018-06-29 10:05:14.656250,-84.81,87.78
154326,2018-06-29 10:05:14.687500,-62.94,87.78
154327,2018-06-29 10:05:14.718750,-32.81,87.78
154328,2018-06-29 10:05:14.750000,3.14,87.78
154329,2018-06-29 10:05:14.781250,42.91,87.78
154330,2018-06-29 10:05:14.812500,87.71,87.78
154331,2018-06-29 10:05:14.843750,133.87,87.78
154332,2018-06-29 10:05:14.875000,170.2,87.78
154333,2018-06-29 10:05:14.906250,188.12,87.78
154334,2018-06-29 10:05:14.937500,188.62,87.78
154335,2018-06-29 10:05:14.968750,178.22,87.78
154336,2018-06-29 10:05:15.000000,164.25,87.78
154337,2018-06-29 10:05:15.031250,153.4,87.78
154338,2018-06-29 10:05:15.062500,149.2,87.78
154339,2018-06-29 10:05:15.093750,149.66,87.78
154340,2018-06-29 10:05:15.125000,149.08,87.78
154341,2018-06-29 10:05:15.156250,142.89,87.78
154342,2018-06-29 10:05:15.187500,130.01,87.78
154343,2018-06-29 10:05:15.218750,110.37,87.78
154344,2018-06-29 10:05:15.250000,83.38,87.78
154345,2018-06-29 10:05:15.281250,52.89,87.78
154346,2018-06-29 10:05:15.312500,28.83,87.78
154347,2018-06-29 10:05:15.343750,17.6,87.78
154348,2018-06-29 10:05:15.375000,14.17,87.78
154349,2018-06-29 10:05:15.406250,9.24,87.78
154350,2018-06-29 10:05:15.437500,0.9,87.78
154351,2018-06-29 10:05:15.468750,-6.22,87.78
154352,2018-06-29 10:05:15.500000,-10.69,87.78
154353,2018-06-29 10:05:15.531250,-16.53,88.1
154354,2018-06-29 10:05:15.562500,-25.09,88.1
154355,2018-06-29 10:05:15.593750,-29.76,88.1
154356,2018-06-29 10:05:15.625000,-22.19,88.1
154357,2018-06-29 10:05:15.656250,-3.37,88.1
154358,2018-06-29 10:05:15.687500,15.01,88.1
154359,2018-06-29 10:05:15.718750,21.83,88.1
154360,2018-06-29 10:05:15.750000,16.55,88.1
154361,2018-06-29 10:05:15.781250,6.4,88.1
154362,2018-06-29 10:05:15.812500,-4.61,88.1
154363,2018-06-29 10:05:15.843750,-22.06,88.1
154364,2018-06-29 10:05:15.875000,-54.13,88.1
154365,2018-06-29 10:05:15.906250,-101.57,88.1
154366,2018-06-29 10:05:15.937500,-159.51,88.1
154367,2018-06-29 10:05:15.968750,-223.39,88.1
154368,2018-06-29 10:05:16.000000,-286.51,88.1
154369,2018-06-29 10:05:16.031250,-337.2,88.1
154370,2018-06-29 10:05:16.062500,-358.87,88.1
154371,2018-06-29 10:05:16.093750,-334.91,88.1
154372,2018-06-29 10:05:16.125000,-268.96,88.1
154373,2018-06-29 10:05:16.156250,-195.41,88.1
154374,2018-06-29 10:05:16.187500,-148.68,88.1
154375,2018-06-29 10:05:16.218750,-130.13,88.1
154376,2018-06-29 10:05:16.250000,-121.45,88.1
154377,2018-06-29 10:05:16.281250,-111.54,88.1
154378,2018-06-29 10:05:16.312500,-97.17,88.1
154379,2018-06-29 10:05:16.343750,-77.16,88.1
154380,2018-06-29 10:05:16.375000,-55.21,88.1
154381,2018-06-29 10:05:16.406250,-37.8,88.1
154382,2018-06-29 10:05:16.437500,-26.33,88.1
154383,2018-06-29 10:05:16.468750,-16.36,88.1
154384,2018-06-29 10:05:16.500000,-6.04,88.1
154385,2018-06-29 10:05:16.531250,-0.62,88.35
154386,2018-06-29 10:05:16.562500,-4.86,88.35
154387,2018-06-29 10:05:16.593750,-14.82,88.35
154388,2018-06-29 10:05:16.625000,-22.6,88.35
154389,2018-06-29 10:05:16.656250,-26.17,88.35
154390,2018-06-29 10:05:16.687500,-29.97,88.35
154391,2018-06-29 10:05:16.718750,-38.04,88.35
154392,2018-06-29 10:05:16.750000,-49.58,88.35
154393,2018-06-29 10:05:16.781250,-61.55,88.35
154394,2018-06-29 10:05:16.812500,-74.39,88.35
154395,2018-06-29 10:05:16.843750,-91.91,88.35
154396,2018-06-29 10:05:16.875000,-113.79,88.35
154397,2018-06-29 10:05:16.906250,-131.94,88.35
154398,2018-06-29 10:05:16.937500,-136.65,88.35
154399,2018-06-29 10:05:16.968750,-125.12,88.35
154400,2018-06-29 10:05:17.000000,-102.32,88.35
154401,2018-06-29 10:05:17.031250,-74.7,88.35
154402,2018-06-29 10:05:17.062500,-45.54,88.35
154403,2018-06-29 10:05:17.093750,-15.56,88.35
154404,2018-06-29 10:05:17.125000,14.06,88.35
154405,2018-06-29 10:05:17.156250,39.73,88.35
154406,2018-06-29 10:05:17.187500,58.21,88.35
154407,2018-06-29 10:05:17.218750,70.99,88.35
154408,2018-06-29 10:05:17.250000,81.71,88.35
154409,2018-06-29 10:05:17.281250,90.03,88.35
154410,2018-06-29 10:05:17.312500,91.94,88.35
154411,2018-06-29 10:05:17.343750,83.62,88.35
154412,2018-06-29 10:05:17.375000,64.47,88.35
154413,2018-06-29 10:05:17.406250,40.12,88.35
154414,2018-06-29 10:05:17.437500,20.77,88.35
154415,2018-06-29 10:05:17.468750,13.32,88.35
154416,2018-06-29 10:05:17.500000,16.97,88.35
154417,2018-06-29 10:05:17.531250,26.62,88.55
154418,2018-06-29 10:05:17.562500,36.92,88.55
154419,2018-06-29 10:05:17.593750,46.61,88.55
154420,2018-06-29 10:05:17.625000,56.82,88.55
154421,2018-06-29 10:05:17.656250,65.69,88.55
154422,2018-06-29 10:05:17.687500,70.26,88.55
154423,2018-06-29 10:05:17.718750,71.94,88.55
154424,2018-06-29 10:05:17.750000,73.6,88.55
154425,2018-06-29 10:05:17.781250,70.34,88.55
154426,2018-06-29 10:05:17.812500,55.6,88.55
154427,2018-06-29 10:05:17.843750,28.7,88.55
154428,2018-06-29 10:05:17.875000,-2.7,88.55
154429,2018-06-29 10:05:17.906250,-27.86,88.55
154430,2018-06-29 10:05:17.937500,-35.04,88.55
154431,2018-06-29 10:05:17.968750,-21.28,88.55
154432,2018-06-29 10:05:18.000000,-1.33,88.55
154433,2018-06-29 10:05:18.031250,10.38,88.55
154434,2018-06-29 10:05:18.062500,11.24,88.55
154435,2018-06-29 10:05:18.093750,15.78,88.55
154436,2018-06-29 10:05:18.125000,24.47,88.55
154437,2018-06-29 10:05:18.156250,30.21,88.55
154438,2018-06-29 10:05:18.187500,31.19,88.55
154439,2018-06-29 10:05:18.218750,41.53,88.55
154440,2018-06-29 10:05:18.250000,74.74,88.55
154441,2018-06-29 10:05:18.281250,115.07,88.55
154442,2018-06-29 10:05:18.312500,148.43,88.55
154443,2018-06-29 10:05:18.343750,168.14,88.55
154444,2018-06-29 10:05:18.375000,199.31,88.55
154445,2018-06-29 10:05:18.406250,249.2,88.55
154446,2018-06-29 10:05:18.437500,317.84,88.55
154447,2018-06-29 10:05:18.468750,377.75,88.55
154448,2018-06-29 10:05:18.500000,302.22,88.55
154449,2018-06-29 10:05:18.531250,147.62,88.73
154450,2018-06-29 10:05:18.562500,6.91,88.73
154451,2018-06-29 10:05:18.593750,-110.41,88.73
154452,2018-06-29 10:05:18.625000,-223.93,88.73
154453,2018-06-29 10:05:18.656250,-313.26,88.73
154454,2018-06-29 10:05:18.687500,-369.27,88.73
154455,2018-06-29 10:05:18.718750,-393.39,88.73
154456,2018-06-29 10:05:18.750000,-325.44,88.73
154457,2018-06-29 10:05:18.781250,-197.03,88.73
154458,2018-06-29 10:05:18.812500,-77.82,88.73
154459,2018-06-29 10:05:18.843750,1.21,88.73
154460,2018-06-29 10:05:18.875000,58.82,88.73
154461,2018-06-29 10:05:18.906250,100.89,88.73
154462,2018-06-29 10:05:18.937500,148.53,88.73
154463,2018-06-29 10:05:18.968750,192.75,88.73
154464,2018-06-29 10:05:19.000000,217.07,88.73
154465,2018-06-29 10:05:19.031250,201.81,88.73
154466,2018-06-29 10:05:19.062500,146.92,88.73
154467,2018-06-29 10:05:19.093750,79.64,88.73
154468,2018-06-29 10:05:19.125000,23.96,88.73
154469,2018-06-29 10:05:19.156250,-9.87,88.73
154470,2018-06-29 10:05:19.187500,-22.9,88.73
154471,2018-06-29 10:05:19.218750,-13.04,88.73
154472,2018-06-29 10:05:19.250000,16.11,88.73
154473,2018-06-29 10:05:19.281250,56.38,88.73
154474,2018-06-29 10:05:19.312500,97.17,88.73
154475,2018-06-29 10:05:19.343750,126.85,88.73
154476,2018-06-29 10:05:19.375000,138.09,88.73
154477,2018-06-29 10:05:19.406250,133.91,88.73
154478,2018-06-29 10:05:19.437500,122.34,88.73
154479,2018-06-29 10:05:19.468750,104.52,88.73
154480,2018-06-29 10:05:19.500000,75.52,88.73
154481,2018-06-29 10:05:19.531250,36.45,88.83
154482,2018-06-29 10:05:19.562500,-1.07,88.83
154483,2018-06-29 10:05:19.593750,-25.04,88.83
154484,2018-06-29 10:05:19.625000,-33.55,88.83
154485,2018-06-29 10:05:19.656250,-36.19,88.83
154486,2018-06-29 10:05:19.687500,-46.81,88.83
154487,2018-06-29 10:05:19.718750,-73.4,88.83
154488,2018-06-29 10:05:19.750000,-113.93,88.83
154489,2018-06-29 10:05:19.781250,-162.88,88.83
154490,2018-06-29 10:05:19.812500,-216.36,88.83
154491,2018-06-29 10:05:19.843750,-268.46,88.83
154492,2018-06-29 10:05:19.875000,-308.21,88.83
154493,2018-06-29 10:05:19.906250,-326.51,88.83
154494,2018-06-29 10:05:19.937500,-325.86,88.83
154495,2018-06-29 10:05:19.968750,-317.2,88.83
154496,2018-06-29 10:05:20.000000,-302.65,88.83
154497,2018-06-29 10:05:20.031250,-266.82,88.83
154498,2018-06-29 10:05:20.062500,-195.76,88.83
154499,2018-06-29 10:05:20.093750,-101.15,88.83
154500,2018-06-29 10:05:20.125000,-14.04,88.83
154501,2018-06-29 10:05:20.156250,44.43,88.83
154502,2018-06-29 10:05:20.187500,74.58,88.83
154503,2018-06-29 10:05:20.218750,82.13,88.83
154504,2018-06-29 10:05:20.250000,70.77,88.83
154505,2018-06-29 10:05:20.281250,55.61,88.83
154506,2018-06-29 10:05:20.312500,62.0,88.83
154507,2018-06-29 10:05:20.343750,100.1,88.83
154508,2018-06-29 10:05:20.375000,153.95,88.83
154509,2018-06-29 10:05:20.406250,199.98,88.83
154510,2018-06-29 10:05:20.437500,224.58,88.83
154511,2018-06-29 10:05:20.468750,222.6,88.83
154512,2018-06-29 10:05:20.500000,192.63,88.83
154513,2018-06-29 10:05:20.531250,141.06,88.87
154514,2018-06-29 10:05:20.562500,83.86,88.87
154515,2018-06-29 10:05:20.593750,33.72,88.87
154516,2018-06-29 10:05:20.625000,-11.31,88.87
154517,2018-06-29 10:05:20.656250,-56.59,88.87
154518,2018-06-29 10:05:20.687500,-95.96,88.87
154519,2018-06-29 10:05:20.718750,-122.3,88.87
154520,2018-06-29 10:05:20.750000,-142.28,88.87
154521,2018-06-29 10:05:20.781250,-160.23,88.87
154522,2018-06-29 10:05:20.812500,-158.17,88.87
154523,2018-06-29 10:05:20.843750,-117.51,88.87
154524,2018-06-29 10:05:20.875000,-54.83,88.87
154525,2018-06-29 10:05:20.906250,-11.81,88.87
154526,2018-06-29 10:05:20.937500,-9.75,88.87
154527,2018-06-29 10:05:20.968750,-27.92,88.87
154528,2018-06-29 10:05:21.000000,-28.6,88.87
154529,2018-06-29 10:05:21.031250,3.48,88.87
154530,2018-06-29 10:05:21.062500,50.89,88.87
154531,2018-06-29 10:05:21.093750,89.17,88.87
154532,2018-06-29 10:05:21.125000,109.59,88.87
154533,2018-06-29 10:05:21.156250,114.06,88.87
154534,2018-06-29 10:05:21.187500,105.37,88.87
154535,2018-06-29 10:05:21.218750,89.48,88.87
154536,2018-06-29 10:05:21.250000,73.96,88.87
154537,2018-06-29 10:05:21.281250,60.28,88.87
154538,2018-06-29 10:05:21.312500,46.1,88.87
154539,2018-06-29 10:05:21.343750,33.05,88.87
154540,2018-06-29 10:05:21.375000,23.89,88.87
154541,2018-06-29 10:05:21.406250,16.72,88.87
154542,2018-06-29 10:05:21.437500,8.13,88.87
154543,2018-06-29 10:05:21.468750,-1.11,88.87
154544,2018-06-29 10:05:21.500000,-7.98,88.87
154545,2018-06-29 10:05:21.531250,-10.64,88.93
154546,2018-06-29 10:05:21.562500,-10.05,88.93
154547,2018-06-29 10:05:21.593750,-13.1,88.93
154548,2018-06-29 10:05:21.625000,-26.67,88.93
154549,2018-06-29 10:05:21.656250,-48.8,88.93
154550,2018-06-29 10:05:21.687500,-65.56,88.93
154551,2018-06-29 10:05:21.718750,-63.07,88.93
154552,2018-06-29 10:05:21.750000,-39.77,88.93
154553,2018-06-29 10:05:21.781250,-7.49,88.93
154554,2018-06-29 10:05:21.812500,21.44,88.93
154555,2018-06-29 10:05:21.843750,45.54,88.93
154556,2018-06-29 10:05:21.875000,66.38,88.93
154557,2018-06-29 10:05:21.906250,85.61,88.93
154558,2018-06-29 10:05:21.937500,94.6,88.93
154559,2018-06-29 10:05:21.968750,89.62,88.93
154560,2018-06-29 10:05:22.000000,75.97,88.93
154561,2018-06-29 10:05:22.031250,67.26,88.93
154562,2018-06-29 10:05:22.062500,62.89,88.93
154563,2018-06-29 10:05:22.093750,43.0,88.93
154564,2018-06-29 10:05:22.125000,11.76,88.93
154565,2018-06-29 10:05:22.156250,-3.09,88.93
154566,2018-06-29 10:05:22.187500,33.07,88.93
154567,2018-06-29 10:05:22.218750,95.66,88.93
154568,2018-06-29 10:05:22.250000,150.79,88.93
154569,2018-06-29 10:05:22.281250,193.46,88.93
154570,2018-06-29 10:05:22.312500,247.54,88.93
154571,2018-06-29 10:05:22.343750,317.8,88.93
154572,2018-06-29 10:05:22.375000,372.57,88.93
154573,2018-06-29 10:05:22.406250,406.64,88.93
154574,2018-06-29 10:05:22.437500,306.03,88.93
154575,2018-06-29 10:05:22.468750,77.43,88.93
154576,2018-06-29 10:05:22.500000,-88.7,88.93
154577,2018-06-29 10:05:22.531250,-166.41,89.02
154578,2018-06-29 10:05:22.562500,-191.99,89.02
154579,2018-06-29 10:05:22.593750,-174.89,89.02
154580,2018-06-29 10:05:22.625000,-129.34,89.02
154581,2018-06-29 10:05:22.656250,-104.58,89.02
154582,2018-06-29 10:05:22.687500,-114.88,89.02
154583,2018-06-29 10:05:22.718750,-145.57,89.02
154584,2018-06-29 10:05:22.750000,-163.03,89.02
154585,2018-06-29 10:05:22.781250,-171.82,89.02
154586,2018-06-29 10:05:22.812500,-179.27,89.02
154587,2018-06-29 10:05:22.843750,-179.43,89.02
154588,2018-06-29 10:05:22.875000,-161.62,89.02
154589,2018-06-29 10:05:22.906250,-127.67,89.02
154590,2018-06-29 10:05:22.937500,-98.3,89.02
154591,2018-06-29 10:05:22.968750,-81.37,89.02
154592,2018-06-29 10:05:23.000000,-73.75,89.02
154593,2018-06-29 10:05:23.031250,-64.71,89.02
154594,2018-06-29 10:05:23.062500,-56.26,89.02
154595,2018-06-29 10:05:23.093750,-52.75,89.02
154596,2018-06-29 10:05:23.125000,-52.64,89.02
154597,2018-06-29 10:05:23.156250,-52.26,89.02
154598,2018-06-29 10:05:23.187500,-51.02,89.02
154599,2018-06-29 10:05:23.218750,-50.47,89.02
154600,2018-06-29 10:05:23.250000,-48.94,89.02
154601,2018-06-29 10:05:23.281250,-47.5,89.02
154602,2018-06-29 10:05:23.312500,-51.72,89.02
154603,2018-06-29 10:05:23.343750,-63.32,89.02
154604,2018-06-29 10:05:23.375000,-72.35,89.02
154605,2018-06-29 10:05:23.406250,-64.09,89.02
154606,2018-06-29 10:05:23.437500,-35.8,89.02
154607,2018-06-29 10:05:23.468750,-1.56,89.02
154608,2018-06-29 10:05:23.500000,22.68,89.02
154609,2018-06-29 10:05:23.531250,33.28,89.1
154610,2018-06-29 10:05:23.562500,35.48,89.1
154611,2018-06-29 10:05:23.593750,33.78,89.1
154612,2018-06-29 10:05:23.625000,30.49,89.1
154613,2018-06-29 10:05:23.656250,28.91,89.1
154614,2018-06-29 10:05:23.687500,32.59,89.1
154615,2018-06-29 10:05:23.718750,41.64,89.1
154616,2018-06-29 10:05:23.750000,52.24,89.1
154617,2018-06-29 10:05:23.781250,60.09,89.1
154618,2018-06-29 10:05:23.812500,62.98,89.1
154619,2018-06-29 10:05:23.843750,61.15,89.1
154620,2018-06-29 10:05:23.875000,56.24,89.1
154621,2018-06-29 10:05:23.906250,49.58,89.1
154622,2018-06-29 10:05:23.937500,41.16,89.1
154623,2018-06-29 10:05:23.968750,31.42,89.1
154624,2018-06-29 10:05:24.000000,22.43,89.1
154625,2018-06-29 10:05:24.031250,15.2,89.1
154626,2018-06-29 10:05:24.062500,7.29,89.1
154627,2018-06-29 10:05:24.093750,-4.83,89.1
154628,2018-06-29 10:05:24.125000,-20.53,89.1
154629,2018-06-29 10:05:24.156250,-31.69,89.1
154630,2018-06-29 10:05:24.187500,-26.75,89.1
154631,2018-06-29 10:05:24.218750,-2.07,89.1
154632,2018-06-29 10:05:24.250000,32.62,89.1
154633,2018-06-29 10:05:24.281250,64.5,89.1
154634,2018-06-29 10:05:24.312500,89.19,89.1
154635,2018-06-29 10:05:24.343750,106.08,89.1
154636,2018-06-29 10:05:24.375000,109.4,89.1
154637,2018-06-29 10:05:24.406250,94.43,89.1
154638,2018-06-29 10:05:24.437500,67.41,89.1
154639,2018-06-29 10:05:24.468750,39.49,89.1
154640,2018-06-29 10:05:24.500000,15.89,89.1
154641,2018-06-29 10:05:24.531250,-2.22,89.23
154642,2018-06-29 10:05:24.562500,-12.37,89.23
154643,2018-06-29 10:05:24.593750,-14.79,89.23
154644,2018-06-29 10:05:24.625000,-16.19,89.23
154645,2018-06-29 10:05:24.656250,-24.24,89.23
154646,2018-06-29 10:05:24.687500,-40.92,89.23
154647,2018-06-29 10:05:24.718750,-62.17,89.23
154648,2018-06-29 10:05:24.750000,-82.18,89.23
154649,2018-06-29 10:05:24.781250,-98.1,89.23
154650,2018-06-29 10:05:24.812500,-111.1,89.23
154651,2018-06-29 10:05:24.843750,-123.76,89.23
154652,2018-06-29 10:05:24.875000,-137.63,89.23
154653,2018-06-29 10:05:24.906250,-149.7,89.23
154654,2018-06-29 10:05:24.937500,-149.94,89.23
154655,2018-06-29 10:05:24.968750,-128.75,89.23
154656,2018-06-29 10:05:25.000000,-89.47,89.23
154657,2018-06-29 10:05:25.031250,-46.81,89.23
154658,2018-06-29 10:05:25.062500,-11.61,89.23
154659,2018-06-29 10:05:25.093750,15.64,89.23
154660,2018-06-29 10:05:25.125000,36.44,89.23
154661,2018-06-29 10:05:25.156250,48.69,89.23
154662,2018-06-29 10:05:25.187500,51.79,89.23
154663,2018-06-29 10:05:25.218750,50.6,89.23
154664,2018-06-29 10:05:25.250000,50.99,89.23
154665,2018-06-29 10:05:25.281250,54.36,89.23
154666,2018-06-29 10:05:25.312500,58.15,89.23
154667,2018-06-29 10:05:25.343750,60.0,89.23
154668,2018-06-29 10:05:25.375000,59.63,89.23
154669,2018-06-29 10:05:25.406250,57.05,89.23
154670,2018-06-29 10:05:25.437500,51.32,89.23
154671,2018-06-29 10:05:25.468750,42.86,89.23
154672,2018-06-29 10:05:25.500000,34.77,89.23
154673,2018-06-29 10:05:25.531250,28.66,89.43
154674,2018-06-29 10:05:25.562500,22.5,89.43
154675,2018-06-29 10:05:25.593750,14.22,89.43
154676,2018-06-29 10:05:25.625000,4.3,89.43
154677,2018-06-29 10:05:25.656250,-5.67,89.43
154678,2018-06-29 10:05:25.687500,-14.9,89.43
154679,2018-06-29 10:05:25.718750,-24.21,89.43
154680,2018-06-29 10:05:25.750000,-35.8,89.43
154681,2018-06-29 10:05:25.781250,-49.73,89.43
154682,2018-06-29 10:05:25.812500,-59.34,89.43
154683,2018-06-29 10:05:25.843750,-54.13,89.43
154684,2018-06-29 10:05:25.875000,-31.21,89.43
154685,2018-06-29 10:05:25.906250,-0.88,89.43
154686,2018-06-29 10:05:25.937500,23.37,89.43
154687,2018-06-29 10:05:25.968750,37.83,89.43
154688,2018-06-29 10:05:26.000000,47.25,89.43
154689,2018-06-29 10:05:26.031250,54.05,89.43
154690,2018-06-29 10:05:26.062500,56.31,89.43
154691,2018-06-29 10:05:26.093750,54.5,89.43
154692,2018-06-29 10:05:26.125000,52.85,89.43
154693,2018-06-29 10:05:26.156250,53.28,89.43
154694,2018-06-29 10:05:26.187500,54.23,89.43
154695,2018-06-29 10:05:26.218750,55.19,89.43
154696,2018-06-29 10:05:26.250000,57.11,89.43
154697,2018-06-29 10:05:26.281250,58.44,89.43
154698,2018-06-29 10:05:26.312500,55.82,89.43
154699,2018-06-29 10:05:26.343750,49.14,89.43
154700,2018-06-29 10:05:26.375000,41.66,89.43
154701,2018-06-29 10:05:26.406250,34.98,89.43
154702,2018-06-29 10:05:26.437500,27.86,89.43
154703,2018-06-29 10:05:26.468750,19.59,89.43
154704,2018-06-29 10:05:26.500000,11.17,89.43
154705,2018-06-29 10:05:26.531250,2.78,89.65
154706,2018-06-29 10:05:26.562500,-6.53,89.65
154707,2018-06-29 10:05:26.593750,-16.89,89.65
154708,2018-06-29 10:05:26.625000,-27.62,89.65
154709,2018-06-29 10:05:26.656250,-38.91,89.65
154710,2018-06-29 10:05:26.687500,-50.32,89.65
154711,2018-06-29 10:05:26.718750,-58.99,89.65
154712,2018-06-29 10:05:26.750000,-62.99,89.65
154713,2018-06-29 10:05:26.781250,-64.73,89.65
154714,2018-06-29 10:05:26.812500,-67.51,89.65
154715,2018-06-29 10:05:26.843750,-71.07,89.65
154716,2018-06-29 10:05:26.875000,-70.83,89.65
154717,2018-06-29 10:05:26.906250,-59.45,89.65
154718,2018-06-29 10:05:26.937500,-33.03,89.65
154719,2018-06-29 10:05:26.968750,1.68,89.65
154720,2018-06-29 10:05:27.000000,31.77,89.65
154721,2018-06-29 10:05:27.031250,50.42,89.65
154722,2018-06-29 10:05:27.062500,60.0,89.65
154723,2018-06-29 10:05:27.093750,64.68,89.65
154724,2018-06-29 10:05:27.125000,65.68,89.65
154725,2018-06-29 10:05:27.156250,63.12,89.65
154726,2018-06-29 10:05:27.187500,58.19,89.65
154727,2018-06-29 10:05:27.218750,52.8,89.65
154728,2018-06-29 10:05:27.250000,47.99,89.65
154729,2018-06-29 10:05:27.281250,43.55,89.65
154730,2018-06-29 10:05:27.312500,38.25,89.65
154731,2018-06-29 10:05:27.343750,30.72,89.65
154732,2018-06-29 10:05:27.375000,21.3,89.65
154733,2018-06-29 10:05:27.406250,11.91,89.65
154734,2018-06-29 10:05:27.437500,3.93,89.65
154735,2018-06-29 10:05:27.468750,-2.31,89.65
154736,2018-06-29 10:05:27.500000,-6.8,89.65
154737,2018-06-29 10:05:27.531250,-10.67,89.87
154738,2018-06-29 10:05:27.562500,-15.73,89.87
154739,2018-06-29 10:05:27.593750,-21.38,89.87
154740,2018-06-29 10:05:27.625000,-24.5,89.87
154741,2018-06-29 10:05:27.656250,-23.83,89.87
154742,2018-06-29 10:05:27.687500,-22.41,89.87
154743,2018-06-29 10:05:27.718750,-24.36,89.87
154744,2018-06-29 10:05:27.750000,-30.82,89.87
154745,2018-06-29 10:05:27.781250,-40.34,89.87
154746,2018-06-29 10:05:27.812500,-51.55,89.87
154747,2018-06-29 10:05:27.843750,-63.9,89.87
154748,2018-06-29 10:05:27.875000,-77.16,89.87
154749,2018-06-29 10:05:27.906250,-89.3,89.87
154750,2018-06-29 10:05:27.937500,-92.29,89.87
154751,2018-06-29 10:05:27.968750,-75.94,89.87
154752,2018-06-29 10:05:28.000000,-37.55,89.87
154753,2018-06-29 10:05:28.031250,15.59,89.87
154754,2018-06-29 10:05:28.062500,72.34,89.87
154755,2018-06-29 10:05:28.093750,122.51,89.87
154756,2018-06-29 10:05:28.125000,156.26,89.87
154757,2018-06-29 10:05:28.156250,167.42,89.87
154758,2018-06-29 10:05:28.187500,155.43,89.87
154759,2018-06-29 10:05:28.218750,125.65,89.87
154760,2018-06-29 10:05:28.250000,86.25,89.87
154761,2018-06-29 10:05:28.281250,46.65,89.87
154762,2018-06-29 10:05:28.312500,12.11,89.87
154763,2018-06-29 10:05:28.343750,-17.31,89.87
154764,2018-06-29 10:05:28.375000,-37.99,89.87
154765,2018-06-29 10:05:28.406250,-50.08,89.87
154766,2018-06-29 10:05:28.437500,-61.43,89.87
154767,2018-06-29 10:05:28.468750,-84.71,89.87
154768,2018-06-29 10:05:28.500000,-111.56,89.87
154769,2018-06-29 10:05:28.531250,-126.76,90.12
154770,2018-06-29 10:05:28.562500,-130.14,90.12
154771,2018-06-29 10:05:28.593750,-132.3,90.12
154772,2018-06-29 10:05:28.625000,-136.43,90.12
154773,2018-06-29 10:05:28.656250,-129.4,90.12
154774,2018-06-29 10:05:28.687500,-116.05,90.12
154775,2018-06-29 10:05:28.718750,-106.11,90.12
154776,2018-06-29 10:05:28.750000,-111.57,90.12
154777,2018-06-29 10:05:28.781250,-124.2,90.12
154778,2018-06-29 10:05:28.812500,-134.42,90.12
154779,2018-06-29 10:05:28.843750,-123.29,90.12
154780,2018-06-29 10:05:28.875000,-15.61,90.12
154781,2018-06-29 10:05:28.906250,118.76,90.12
154782,2018-06-29 10:05:28.937500,211.4,90.12
154783,2018-06-29 10:05:28.968750,286.9,90.12
154784,2018-06-29 10:05:29.000000,349.53,90.12
154785,2018-06-29 10:05:29.031250,381.49,90.12
154786,2018-06-29 10:05:29.062500,382.61,90.12
154787,2018-06-29 10:05:29.093750,356.17,90.12
154788,2018-06-29 10:05:29.125000,299.8,90.12
154789,2018-06-29 10:05:29.156250,217.65,90.12
154790,2018-06-29 10:05:29.187500,121.52,90.12
154791,2018-06-29 10:05:29.218750,39.5,90.12
154792,2018-06-29 10:05:29.250000,-16.19,90.12
154793,2018-06-29 10:05:29.281250,-50.56,90.12
154794,2018-06-29 10:05:29.312500,-77.99,90.12
154795,2018-06-29 10:05:29.343750,-93.72,90.12
154796,2018-06-29 10:05:29.375000,-88.63,90.12
154797,2018-06-29 10:05:29.406250,-74.86,90.12
154798,2018-06-29 10:05:29.437500,-71.78,90.12
154799,2018-06-29 10:05:29.468750,-83.3,90.12
154800,2018-06-29 10:05:29.500000,-95.61,90.12
154801,2018-06-29 10:05:29.531250,-99.55,90.35
154802,2018-06-29 10:05:29.562500,-92.81,90.35
154803,2018-06-29 10:05:29.593750,-79.44,90.35
154804,2018-06-29 10:05:29.625000,-67.23,90.35
154805,2018-06-29 10:05:29.656250,-61.76,90.35
154806,2018-06-29 10:05:29.687500,-61.39,90.35
154807,2018-06-29 10:05:29.718750,-61.42,90.35
154808,2018-06-29 10:05:29.750000,-63.15,90.35
154809,2018-06-29 10:05:29.781250,-71.41,90.35
154810,2018-06-29 10:05:29.812500,-83.73,90.35
154811,2018-06-29 10:05:29.843750,-89.84,90.35
154812,2018-06-29 10:05:29.875000,-83.28,90.35
154813,2018-06-29 10:05:29.906250,-66.72,90.35
154814,2018-06-29 10:05:29.937500,-46.91,90.35
154815,2018-06-29 10:05:29.968750,-29.85,90.35
154816,2018-06-29 10:05:30.000000,-18.8,90.35
154817,2018-06-29 10:05:30.031250,-14.17,90.35
154818,2018-06-29 10:05:30.062500,-15.83,90.35
154819,2018-06-29 10:05:30.093750,-23.3,90.35
154820,2018-06-29 10:05:30.125000,-33.28,90.35
154821,2018-06-29 10:05:30.156250,-40.95,90.35
154822,2018-06-29 10:05:30.187500,-43.64,90.35
154823,2018-06-29 10:05:30.218750,-42.79,90.35
154824,2018-06-29 10:05:30.250000,-42.94,90.35
154825,2018-06-29 10:05:30.281250,-47.01,90.35
154826,2018-06-29 10:05:30.312500,-54.15,90.35
154827,2018-06-29 10:05:30.343750,-63.34,90.35
154828,2018-06-29 10:05:30.375000,-75.52,90.35
154829,2018-06-29 10:05:30.406250,-90.03,90.35
154830,2018-06-29 10:05:30.437500,-102.39,90.35
154831,2018-06-29 10:05:30.468750,-107.65,90.35
154832,2018-06-29 10:05:30.500000,-105.25,90.35
154833,2018-06-29 10:05:30.531250,-100.01,90.55
154834,2018-06-29 10:05:30.562500,-94.71,90.55
154835,2018-06-29 10:05:30.593750,-82.51,90.55
154836,2018-06-29 10:05:30.625000,-55.36,90.55
154837,2018-06-29 10:05:30.656250,-19.85,90.55
154838,2018-06-29 10:05:30.687500,8.28,90.55
154839,2018-06-29 10:05:30.718750,25.2,90.55
154840,2018-06-29 10:05:30.750000,39.63,90.55
154841,2018-06-29 10:05:30.781250,55.39,90.55
154842,2018-06-29 10:05:30.812500,68.99,90.55
154843,2018-06-29 10:05:30.843750,81.54,90.55
154844,2018-06-29 10:05:30.875000,98.23,90.55
154845,2018-06-29 10:05:30.906250,119.0,90.55
154846,2018-06-29 10:05:30.937500,139.91,90.55
154847,2018-06-29 10:05:30.968750,160.3,90.55
154848,2018-06-29 10:05:31.000000,182.2,90.55
154849,2018-06-29 10:05:31.031250,206.81,90.55
154850,2018-06-29 10:05:31.062500,234.92,90.55
154851,2018-06-29 10:05:31.093750,265.8,90.55
154852,2018-06-29 10:05:31.125000,294.02,90.55
154853,2018-06-29 10:05:31.156250,312.36,90.55
154854,2018-06-29 10:05:31.187500,318.77,90.55
154855,2018-06-29 10:05:31.218750,315.9,90.55
154856,2018-06-29 10:05:31.250000,302.83,90.55
154857,2018-06-29 10:05:31.281250,271.69,90.55
154858,2018-06-29 10:05:31.312500,215.49,90.55
154859,2018-06-29 10:05:31.343750,136.31,90.55
154860,2018-06-29 10:05:31.375000,45.94,90.55
154861,2018-06-29 10:05:31.406250,-38.71,90.55
154862,2018-06-29 10:05:31.437500,-104.96,90.55
154863,2018-06-29 10:05:31.468750,-154.67,90.55
154864,2018-06-29 10:05:31.500000,-201.19,90.55
154865,2018-06-29 10:05:31.531250,-250.24,90.68
154866,2018-06-29 10:05:31.562500,-289.59,90.68
154867,2018-06-29 10:05:31.593750,-305.64,90.68
154868,2018-06-29 10:05:31.625000,-304.33,90.68
154869,2018-06-29 10:05:31.656250,-300.99,90.68
154870,2018-06-29 10:05:31.687500,-295.75,90.68
154871,2018-06-29 10:05:31.718750,-277.19,90.68
154872,2018-06-29 10:05:31.750000,-240.22,90.68
154873,2018-06-29 10:05:31.781250,-184.42,90.68
154874,2018-06-29 10:05:31.812500,-109.93,90.68
154875,2018-06-29 10:05:31.843750,-25.21,90.68
154876,2018-06-29 10:05:31.875000,55.25,90.68
154877,2018-06-29 10:05:31.906250,120.69,90.68
154878,2018-06-29 10:05:31.937500,160.61,90.68
154879,2018-06-29 10:05:31.968750,162.2,90.68
154880,2018-06-29 10:05:32.000000,122.62,90.68
154881,2018-06-29 10:05:32.031250,54.6,90.68
154882,2018-06-29 10:05:32.062500,-23.46,90.68
154883,2018-06-29 10:05:32.093750,-98.09,90.68
154884,2018-06-29 10:05:32.125000,-161.1,90.68
154885,2018-06-29 10:05:32.156250,-203.71,90.68
154886,2018-06-29 10:05:32.187500,-214.6,90.68
154887,2018-06-29 10:05:32.218750,-188.28,90.68
154888,2018-06-29 10:05:32.250000,-135.16,90.68
154889,2018-06-29 10:05:32.281250,-80.21,90.68
154890,2018-06-29 10:05:32.312500,-46.51,90.68
154891,2018-06-29 10:05:32.343750,-38.8,90.68
154892,2018-06-29 10:05:32.375000,-42.79,90.68
154893,2018-06-29 10:05:32.406250,-39.75,90.68
154894,2018-06-29 10:05:32.437500,-20.58,90.68
154895,2018-06-29 10:05:32.468750,13.14,90.68
154896,2018-06-29 10:05:32.500000,55.2,90.68
154897,2018-06-29 10:05:32.531250,98.29,90.68
154898,2018-06-29 10:05:32.562500,136.5,90.68
154899,2018-06-29 10:05:32.593750,167.6,90.68
154900,2018-06-29 10:05:32.625000,190.63,90.68
154901,2018-06-29 10:05:32.656250,200.95,90.68
154902,2018-06-29 10:05:32.687500,194.09,90.68
154903,2018-06-29 10:05:32.718750,173.38,90.68
154904,2018-06-29 10:05:32.750000,147.04,90.68
154905,2018-06-29 10:05:32.781250,119.47,90.68
154906,2018-06-29 10:05:32.812500,89.9,90.68
154907,2018-06-29 10:05:32.843750,55.47,90.68
154908,2018-06-29 10:05:32.875000,15.71,90.68
154909,2018-06-29 10:05:32.906250,-29.58,90.68
154910,2018-06-29 10:05:32.937500,-77.47,90.68
154911,2018-06-29 10:05:32.968750,-121.37,90.68
154912,2018-06-29 10:05:33.000000,-153.25,90.68
154913,2018-06-29 10:05:33.031250,-165.41,90.68
154914,2018-06-29 10:05:33.062500,-156.5,90.68
154915,2018-06-29 10:05:33.093750,-133.8,90.68
154916,2018-06-29 10:05:33.125000,-109.36,90.68
154917,2018-06-29 10:05:33.156250,-81.4,90.68
154918,2018-06-29 10:05:33.187500,-42.02,90.68
154919,2018-06-29 10:05:33.218750,9.7,90.68
154920,2018-06-29 10:05:33.250000,54.53,90.68
154921,2018-06-29 10:05:33.281250,68.0,90.68
154922,2018-06-29 10:05:33.312500,39.25,90.68
154923,2018-06-29 10:05:33.343750,-37.17,90.68
154924,2018-06-29 10:05:33.375000,-147.0,90.68
154925,2018-06-29 10:05:33.406250,-266.39,90.68
154926,2018-06-29 10:05:33.437500,-339.01,90.68
154927,2018-06-29 10:05:33.468750,-347.69,90.68
154928,2018-06-29 10:05:33.500000,-318.91,90.68
154929,2018-06-29 10:05:33.531250,-301.53,90.7
154930,2018-06-29 10:05:33.562500,-318.64,90.7
154931,2018-06-29 10:05:33.593750,-346.15,90.7
154932,2018-06-29 10:05:33.625000,-375.3,90.7
154933,2018-06-29 10:05:33.656250,-407.21,90.7
154934,2018-06-29 10:05:33.687500,-481.21,90.7
154935,2018-06-29 10:05:33.718750,-550.88,90.7
154936,2018-06-29 10:05:33.750000,-564.57,90.7
154937,2018-06-29 10:05:33.781250,-474.4,90.7
154938,2018-06-29 10:05:33.812500,-91.24,90.7
154939,2018-06-29 10:05:33.843750,285.53,90.7
154940,2018-06-29 10:05:33.875000,470.38,90.7
154941,2018-06-29 10:05:33.906250,533.99,90.7
154942,2018-06-29 10:05:33.937500,545.53,90.7
154943,2018-06-29 10:05:33.968750,507.93,90.7
154944,2018-06-29 10:05:34.000000,472.0,90.7
154945,2018-06-29 10:05:34.031250,475.81,90.7
154946,2018-06-29 10:05:34.062500,508.89,90.7
154947,2018-06-29 10:05:34.093750,500.9,90.7
154948,2018-06-29 10:05:34.125000,415.52,90.7
154949,2018-06-29 10:05:34.156250,313.55,90.7
154950,2018-06-29 10:05:34.187500,243.3,90.7
154951,2018-06-29 10:05:34.218750,204.49,90.7
154952,2018-06-29 10:05:34.250000,159.88,90.7
154953,2018-06-29 10:05:34.281250,116.21,90.7
154954,2018-06-29 10:05:34.312500,84.98,90.7
154955,2018-06-29 10:05:34.343750,64.38,90.7
154956,2018-06-29 10:05:34.375000,42.41,90.7
154957,2018-06-29 10:05:34.406250,16.24,90.7
154958,2018-06-29 10:05:34.437500,-2.95,90.7
154959,2018-06-29 10:05:34.468750,-17.02,90.7
154960,2018-06-29 10:05:34.500000,-28.9,90.7
154961,2018-06-29 10:05:34.531250,-31.52,90.7
154962,2018-06-29 10:05:34.562500,-18.84,90.7
154963,2018-06-29 10:05:34.593750,-2.91,90.7
154964,2018-06-29 10:05:34.625000,-1.25,90.7
154965,2018-06-29 10:05:34.656250,-23.91,90.7
154966,2018-06-29 10:05:34.687500,-74.57,90.7
154967,2018-06-29 10:05:34.718750,-142.45,90.7
154968,2018-06-29 10:05:34.750000,-194.13,90.7
154969,2018-06-29 10:05:34.781250,-210.12,90.7
154970,2018-06-29 10:05:34.812500,-201.32,90.7
154971,2018-06-29 10:05:34.843750,-190.74,90.7
154972,2018-06-29 10:05:34.875000,-181.82,90.7
154973,2018-06-29 10:05:34.906250,-160.18,90.7
154974,2018-06-29 10:05:34.937500,-119.84,90.7
154975,2018-06-29 10:05:34.968750,-63.96,90.7
154976,2018-06-29 10:05:35.000000,-6.14,90.7
154977,2018-06-29 10:05:35.031250,54.57,90.7
154978,2018-06-29 10:05:35.062500,106.92,90.7
154979,2018-06-29 10:05:35.093750,139.62,90.7
154980,2018-06-29 10:05:35.125000,157.16,90.7
154981,2018-06-29 10:05:35.156250,190.22,90.7
154982,2018-06-29 10:05:35.187500,260.52,90.7
154983,2018-06-29 10:05:35.218750,343.17,90.7
154984,2018-06-29 10:05:35.250000,418.43,90.7
154985,2018-06-29 10:05:35.281250,390.98,90.7
154986,2018-06-29 10:05:35.312500,233.77,90.7
154987,2018-06-29 10:05:35.343750,85.32,90.7
154988,2018-06-29 10:05:35.375000,-15.12,90.7
154989,2018-06-29 10:05:35.406250,-88.96,90.7
154990,2018-06-29 10:05:35.437500,-138.96,90.7
154991,2018-06-29 10:05:35.468750,-160.98,90.7
154992,2018-06-29 10:05:35.500000,-170.94,90.7
154993,2018-06-29 10:05:35.531250,-174.3,90.8
154994,2018-06-29 10:05:35.562500,-170.12,90.8
154995,2018-06-29 10:05:35.593750,-142.55,90.8
154996,2018-06-29 10:05:35.625000,-98.71,90.8
154997,2018-06-29 10:05:35.656250,-52.21,90.8
154998,2018-06-29 10:05:35.687500,-10.97,90.8
154999,2018-06-29 10:05:35.718750,28.21,90.8
155000,2018-06-29 10:05:35.750000,58.18,90.8
155001,2018-06-29 10:05:35.781250,52.46,90.8
155002,2018-06-29 10:05:35.812500,0.79,90.8
155003,2018-06-29 10:05:35.843750,-73.12,90.8
155004,2018-06-29 10:05:35.875000,-124.03,90.8
155005,2018-06-29 10:05:35.906250,-121.89,90.8
155006,2018-06-29 10:05:35.937500,-56.06,90.8
155007,2018-06-29 10:05:35.968750,31.09,90.8
155008,2018-06-29 10:05:36.000000,82.57,90.8
155009,2018-06-29 10:05:36.031250,87.55,90.8
155010,2018-06-29 10:05:36.062500,68.85,90.8
155011,2018-06-29 10:05:36.093750,40.92,90.8
155012,2018-06-29 10:05:36.125000,22.65,90.8
155013,2018-06-29 10:05:36.156250,23.55,90.8
155014,2018-06-29 10:05:36.187500,30.76,90.8
155015,2018-06-29 10:05:36.218750,34.94,90.8
155016,2018-06-29 10:05:36.250000,38.35,90.8
155017,2018-06-29 10:05:36.281250,41.75,90.8
155018,2018-06-29 10:05:36.312500,36.84,90.8
155019,2018-06-29 10:05:36.343750,19.46,90.8
155020,2018-06-29 10:05:36.375000,-5.75,90.8
155021,2018-06-29 10:05:36.406250,-29.89,90.8
155022,2018-06-29 10:05:36.437500,-51.75,90.8
155023,2018-06-29 10:05:36.468750,-77.95,90.8
155024,2018-06-29 10:05:36.500000,-109.94,90.8
155025,2018-06-29 10:05:36.531250,-139.89,90.83
155026,2018-06-29 10:05:36.562500,-159.46,90.83
155027,2018-06-29 10:05:36.593750,-166.71,90.83
155028,2018-06-29 10:05:36.625000,-159.91,90.83
155029,2018-06-29 10:05:36.656250,-137.87,90.83
155030,2018-06-29 10:05:36.687500,-105.06,90.83
155031,2018-06-29 10:05:36.718750,-68.94,90.83
155032,2018-06-29 10:05:36.750000,-35.0,90.83
155033,2018-06-29 10:05:36.781250,-6.74,90.83
155034,2018-06-29 10:05:36.812500,17.17,90.83
155035,2018-06-29 10:05:36.843750,45.09,90.83
155036,2018-06-29 10:05:36.875000,78.79,90.83
155037,2018-06-29 10:05:36.906250,109.13,90.83
155038,2018-06-29 10:05:36.937500,133.8,90.83
155039,2018-06-29 10:05:36.968750,162.3,90.83
155040,2018-06-29 10:05:37.000000,197.62,90.83
155041,2018-06-29 10:05:37.031250,225.6,90.83
155042,2018-06-29 10:05:37.062500,229.54,90.83
155043,2018-06-29 10:05:37.093750,204.35,90.83
155044,2018-06-29 10:05:37.125000,160.28,90.83
155045,2018-06-29 10:05:37.156250,112.91,90.83
155046,2018-06-29 10:05:37.187500,74.12,90.83
155047,2018-06-29 10:05:37.218750,47.28,90.83
155048,2018-06-29 10:05:37.250000,24.82,90.83
155049,2018-06-29 10:05:37.281250,-1.72,90.83
155050,2018-06-29 10:05:37.312500,-35.21,90.83
155051,2018-06-29 10:05:37.343750,-63.97,90.83
155052,2018-06-29 10:05:37.375000,-84.02,90.83
155053,2018-06-29 10:05:37.406250,-98.25,90.83
155054,2018-06-29 10:05:37.437500,-107.84,90.83
155055,2018-06-29 10:05:37.468750,-104.57,90.83
155056,2018-06-29 10:05:37.500000,-83.35,90.83
155057,2018-06-29 10:05:37.531250,-59.22,90.78
155058,2018-06-29 10:05:37.562500,-36.44,90.78
155059,2018-06-29 10:05:37.593750,-7.04,90.78
155060,2018-06-29 10:05:37.625000,49.52,90.78
155061,2018-06-29 10:05:37.656250,126.08,90.78
155062,2018-06-29 10:05:37.687500,209.61,90.78
155063,2018-06-29 10:05:37.718750,276.06,90.78
155064,2018-06-29 10:05:37.750000,221.37,90.78
155065,2018-06-29 10:05:37.781250,98.79,90.78
155066,2018-06-29 10:05:37.812500,-0.58,90.78
155067,2018-06-29 10:05:37.843750,-61.86,90.78
155068,2018-06-29 10:05:37.875000,-100.1,90.78
155069,2018-06-29 10:05:37.906250,-118.68,90.78
155070,2018-06-29 10:05:37.937500,-132.87,90.78
155071,2018-06-29 10:05:37.968750,-159.95,90.78
155072,2018-06-29 10:05:38.000000,-192.4,90.78
155073,2018-06-29 10:05:38.031250,-210.25,90.78
155074,2018-06-29 10:05:38.062500,-204.01,90.78
155075,2018-06-29 10:05:38.093750,-188.76,90.78
155076,2018-06-29 10:05:38.125000,-170.92,90.78
155077,2018-06-29 10:05:38.156250,-151.42,90.78
155078,2018-06-29 10:05:38.187500,-123.16,90.78
155079,2018-06-29 10:05:38.218750,-85.45,90.78
155080,2018-06-29 10:05:38.250000,-41.18,90.78
155081,2018-06-29 10:05:38.281250,1.9,90.78
155082,2018-06-29 10:05:38.312500,35.0,90.78
155083,2018-06-29 10:05:38.343750,56.13,90.78
155084,2018-06-29 10:05:38.375000,62.52,90.78
155085,2018-06-29 10:05:38.406250,52.34,90.78
155086,2018-06-29 10:05:38.437500,26.22,90.78
155087,2018-06-29 10:05:38.468750,-6.96,90.78
155088,2018-06-29 10:05:38.500000,-33.88,90.78
155089,2018-06-29 10:05:38.531250,-41.98,90.75
155090,2018-06-29 10:05:38.562500,-26.14,90.75
155091,2018-06-29 10:05:38.593750,5.82,90.75
155092,2018-06-29 10:05:38.625000,41.49,90.75
155093,2018-06-29 10:05:38.656250,71.32,90.75
155094,2018-06-29 10:05:38.687500,91.39,90.75
155095,2018-06-29 10:05:38.718750,105.28,90.75
155096,2018-06-29 10:05:38.750000,121.68,90.75
155097,2018-06-29 10:05:38.781250,141.95,90.75
155098,2018-06-29 10:05:38.812500,153.27,90.75
155099,2018-06-29 10:05:38.843750,147.45,90.75
155100,2018-06-29 10:05:38.875000,130.16,90.75
155101,2018-06-29 10:05:38.906250,114.03,90.75
155102,2018-06-29 10:05:38.937500,98.37,90.75
155103,2018-06-29 10:05:38.968750,79.84,90.75
155104,2018-06-29 10:05:39.000000,63.12,90.75
155105,2018-06-29 10:05:39.031250,53.68,90.75
155106,2018-06-29 10:05:39.062500,49.78,90.75
155107,2018-06-29 10:05:39.093750,37.73,90.75
155108,2018-06-29 10:05:39.125000,23.73,90.75
155109,2018-06-29 10:05:39.156250,15.23,90.75
155110,2018-06-29 10:05:39.187500,16.3,90.75
155111,2018-06-29 10:05:39.218750,2.25,90.75
155112,2018-06-29 10:05:39.250000,-42.12,90.75
155113,2018-06-29 10:05:39.281250,-84.18,90.75
155114,2018-06-29 10:05:39.312500,-61.36,90.75
155115,2018-06-29 10:05:39.343750,63.59,90.75
155116,2018-06-29 10:05:39.375000,240.5,90.75
155117,2018-06-29 10:05:39.406250,412.65,90.75
155118,2018-06-29 10:05:39.437500,463.52,90.75
155119,2018-06-29 10:05:39.468750,347.53,90.75
155120,2018-06-29 10:05:39.500000,240.45,90.75
155121,2018-06-29 10:05:39.531250,148.18,90.78
155122,2018-06-29 10:05:39.562500,47.58,90.78
155123,2018-06-29 10:05:39.593750,-31.84,90.78
155124,2018-06-29 10:05:39.625000,-67.54,90.78
155125,2018-06-29 10:05:39.656250,-89.3,90.78
155126,2018-06-29 10:05:39.687500,-100.62,90.78
155127,2018-06-29 10:05:39.718750,-94.19,90.78
155128,2018-06-29 10:05:39.750000,-67.15,90.78
155129,2018-06-29 10:05:39.781250,-46.89,90.78
155130,2018-06-29 10:05:39.812500,-54.58,90.78
155131,2018-06-29 10:05:39.843750,-78.79,90.78
155132,2018-06-29 10:05:39.875000,-103.38,90.78
155133,2018-06-29 10:05:39.906250,-123.92,90.78
155134,2018-06-29 10:05:39.937500,-153.12,90.78
155135,2018-06-29 10:05:39.968750,-180.8,90.78
155136,2018-06-29 10:05:40.000000,-186.02,90.78
155137,2018-06-29 10:05:40.031250,-155.44,90.78
155138,2018-06-29 10:05:40.062500,-101.21,90.78
155139,2018-06-29 10:05:40.093750,-47.35,90.78
155140,2018-06-29 10:05:40.125000,-6.97,90.78
155141,2018-06-29 10:05:40.156250,16.42,90.78
155142,2018-06-29 10:05:40.187500,21.7,90.78
155143,2018-06-29 10:05:40.218750,6.87,90.78
155144,2018-06-29 10:05:40.250000,-25.21,90.78
155145,2018-06-29 10:05:40.281250,-71.35,90.78
155146,2018-06-29 10:05:40.312500,-123.07,90.78
155147,2018-06-29 10:05:40.343750,-160.49,90.78
155148,2018-06-29 10:05:40.375000,-170.1,90.78
155149,2018-06-29 10:05:40.406250,-157.52,90.78
155150,2018-06-29 10:05:40.437500,-127.91,90.78
155151,2018-06-29 10:05:40.468750,-75.2,90.78
155152,2018-06-29 10:05:40.500000,-1.38,90.78
155153,2018-06-29 10:05:40.531250,72.0,90.75
155154,2018-06-29 10:05:40.562500,117.38,90.75
155155,2018-06-29 10:05:40.593750,118.59,90.75
155156,2018-06-29 10:05:40.625000,79.01,90.75
155157,2018-06-29 10:05:40.656250,15.01,90.75
155158,2018-06-29 10:05:40.687500,-58.82,90.75
155159,2018-06-29 10:05:40.718750,-134.04,90.75
155160,2018-06-29 10:05:40.750000,-203.27,90.75
155161,2018-06-29 10:05:40.781250,-257.44,90.75
155162,2018-06-29 10:05:40.812500,-285.01,90.75
155163,2018-06-29 10:05:40.843750,-275.94,90.75
155164,2018-06-29 10:05:40.875000,-234.73,90.75
155165,2018-06-29 10:05:40.906250,-184.88,90.75
155166,2018-06-29 10:05:40.937500,-149.77,90.75
155167,2018-06-29 10:05:40.968750,-128.14,90.75
155168,2018-06-29 10:05:41.000000,-102.28,90.75
155169,2018-06-29 10:05:41.031250,-71.47,90.75
155170,2018-06-29 10:05:41.062500,-53.34,90.75
155171,2018-06-29 10:05:41.093750,-49.62,90.75
155172,2018-06-29 10:05:41.125000,-43.07,90.75
155173,2018-06-29 10:05:41.156250,-28.51,90.75
155174,2018-06-29 10:05:41.187500,-12.18,90.75
155175,2018-06-29 10:05:41.218750,11.87,90.75
155176,2018-06-29 10:05:41.250000,50.9,90.75
155177,2018-06-29 10:05:41.281250,93.54,90.75
155178,2018-06-29 10:05:41.312500,125.78,90.75
155179,2018-06-29 10:05:41.343750,150.72,90.75
155180,2018-06-29 10:05:41.375000,176.25,90.75
155181,2018-06-29 10:05:41.406250,198.5,90.75
155182,2018-06-29 10:05:41.437500,207.77,90.75
155183,2018-06-29 10:05:41.468750,201.03,90.75
155184,2018-06-29 10:05:41.500000,182.5,90.75
155185,2018-06-29 10:05:41.531250,160.07,90.7
155186,2018-06-29 10:05:41.562500,140.32,90.7
155187,2018-06-29 10:05:41.593750,125.09,90.7
155188,2018-06-29 10:05:41.625000,109.32,90.7
155189,2018-06-29 10:05:41.656250,83.87,90.7
155190,2018-06-29 10:05:41.687500,46.35,90.7
155191,2018-06-29 10:05:41.718750,9.14,90.7
155192,2018-06-29 10:05:41.750000,-8.51,90.7
155193,2018-06-29 10:05:41.781250,-3.38,90.7
155194,2018-06-29 10:05:41.812500,9.52,90.7
155195,2018-06-29 10:05:41.843750,12.24,90.7
155196,2018-06-29 10:05:41.875000,1.77,90.7
155197,2018-06-29 10:05:41.906250,-16.36,90.7
155198,2018-06-29 10:05:41.937500,-38.28,90.7
155199,2018-06-29 10:05:41.968750,-61.6,90.7
155200,2018-06-29 10:05:42.000000,-87.74,90.7
155201,2018-06-29 10:05:42.031250,-113.56,90.7
155202,2018-06-29 10:05:42.062500,-145.17,90.7
155203,2018-06-29 10:05:42.093750,-185.39,90.7
155204,2018-06-29 10:05:42.125000,-235.12,90.7
155205,2018-06-29 10:05:42.156250,-283.35,90.7
155206,2018-06-29 10:05:42.187500,-323.14,90.7
155207,2018-06-29 10:05:42.218750,-354.3,90.7
155208,2018-06-29 10:05:42.250000,-360.83,90.7
155209,2018-06-29 10:05:42.281250,-320.42,90.7
155210,2018-06-29 10:05:42.312500,-212.04,90.7
155211,2018-06-29 10:05:42.343750,-63.38,90.7
155212,2018-06-29 10:05:42.375000,99.34,90.7
155213,2018-06-29 10:05:42.406250,268.94,90.7
155214,2018-06-29 10:05:42.437500,339.63,90.7
155215,2018-06-29 10:05:42.468750,329.81,90.7
155216,2018-06-29 10:05:42.500000,288.68,90.7
155217,2018-06-29 10:05:42.531250,228.78,90.7
155218,2018-06-29 10:05:42.562500,153.77,90.7
155219,2018-06-29 10:05:42.593750,98.72,90.7
155220,2018-06-29 10:05:42.625000,73.3,90.7
155221,2018-06-29 10:05:42.656250,60.37,90.7
155222,2018-06-29 10:05:42.687500,39.5,90.7
155223,2018-06-29 10:05:42.718750,24.24,90.7
155224,2018-06-29 10:05:42.750000,26.09,90.7
155225,2018-06-29 10:05:42.781250,34.22,90.7
155226,2018-06-29 10:05:42.812500,40.88,90.7
155227,2018-06-29 10:05:42.843750,46.46,90.7
155228,2018-06-29 10:05:42.875000,58.7,90.7
155229,2018-06-29 10:05:42.906250,71.31,90.7
155230,2018-06-29 10:05:42.937500,78.46,90.7
155231,2018-06-29 10:05:42.968750,84.2,90.7
155232,2018-06-29 10:05:43.000000,97.61,90.7
155233,2018-06-29 10:05:43.031250,124.93,90.7
155234,2018-06-29 10:05:43.062500,159.33,90.7
155235,2018-06-29 10:05:43.093750,183.55,90.7
155236,2018-06-29 10:05:43.125000,176.34,90.7
155237,2018-06-29 10:05:43.156250,129.66,90.7
155238,2018-06-29 10:05:43.187500,56.98,90.7
155239,2018-06-29 10:05:43.218750,-15.21,90.7
155240,2018-06-29 10:05:43.250000,-67.83,90.7
155241,2018-06-29 10:05:43.281250,-98.15,90.7
155242,2018-06-29 10:05:43.312500,-113.76,90.7
155243,2018-06-29 10:05:43.343750,-125.63,90.7
155244,2018-06-29 10:05:43.375000,-142.23,90.7
155245,2018-06-29 10:05:43.406250,-160.65,90.7
155246,2018-06-29 10:05:43.437500,-164.45,90.7
155247,2018-06-29 10:05:43.468750,-139.94,90.7
155248,2018-06-29 10:05:43.500000,-94.21,90.7
155249,2018-06-29 10:05:43.531250,-48.59,90.78
155250,2018-06-29 10:05:43.562500,-16.04,90.78
155251,2018-06-29 10:05:43.593750,4.88,90.78
155252,2018-06-29 10:05:43.625000,17.98,90.78
155253,2018-06-29 10:05:43.656250,24.74,90.78
155254,2018-06-29 10:05:43.687500,29.0,90.78
155255,2018-06-29 10:05:43.718750,35.45,90.78
155256,2018-06-29 10:05:43.750000,43.01,90.78
155257,2018-06-29 10:05:43.781250,47.4,90.78
155258,2018-06-29 10:05:43.812500,48.82,90.78
155259,2018-06-29 10:05:43.843750,50.21,90.78
155260,2018-06-29 10:05:43.875000,49.63,90.78
155261,2018-06-29 10:05:43.906250,41.98,90.78
155262,2018-06-29 10:05:43.937500,27.3,90.78
155263,2018-06-29 10:05:43.968750,11.41,90.78
155264,2018-06-29 10:05:44.000000,-0.76,90.78
155265,2018-06-29 10:05:44.031250,-8.72,90.78
155266,2018-06-29 10:05:44.062500,-14.83,90.78
155267,2018-06-29 10:05:44.093750,-21.52,90.78
155268,2018-06-29 10:05:44.125000,-28.56,90.78
155269,2018-06-29 10:05:44.156250,-33.38,90.78
155270,2018-06-29 10:05:44.187500,-34.77,90.78
155271,2018-06-29 10:05:44.218750,-34.1,90.78
155272,2018-06-29 10:05:44.250000,-33.05,90.78
155273,2018-06-29 10:05:44.281250,-32.69,90.78
155274,2018-06-29 10:05:44.312500,-34.09,90.78
155275,2018-06-29 10:05:44.343750,-38.73,90.78
155276,2018-06-29 10:05:44.375000,-48.13,90.78
155277,2018-06-29 10:05:44.406250,-61.08,90.78
155278,2018-06-29 10:05:44.437500,-69.33,90.78
155279,2018-06-29 10:05:44.468750,-61.82,90.78
155280,2018-06-29 10:05:44.500000,-37.5,90.78
155281,2018-06-29 10:05:44.531250,-7.24,90.92
155282,2018-06-29 10:05:44.562500,18.93,90.92
155283,2018-06-29 10:05:44.593750,39.2,90.92
155284,2018-06-29 10:05:44.625000,54.94,90.92
155285,2018-06-29 10:05:44.656250,66.07,90.92
155286,2018-06-29 10:05:44.687500,72.77,90.92
155287,2018-06-29 10:05:44.718750,77.22,90.92
155288,2018-06-29 10:05:44.750000,81.98,90.92
155289,2018-06-29 10:05:44.781250,86.97,90.92
155290,2018-06-29 10:05:44.812500,90.07,90.92
155291,2018-06-29 10:05:44.843750,90.55,90.92
155292,2018-06-29 10:05:44.875000,88.04,90.92
155293,2018-06-29 10:05:44.906250,79.34,90.92
155294,2018-06-29 10:05:44.937500,63.04,90.92
155295,2018-06-29 10:05:44.968750,44.93,90.92
155296,2018-06-29 10:05:45.000000,31.71,90.92
155297,2018-06-29 10:05:45.031250,22.6,90.92
155298,2018-06-29 10:05:45.062500,14.25,90.92
155299,2018-06-29 10:05:45.093750,8.95,90.92
155300,2018-06-29 10:05:45.125000,9.8,90.92
155301,2018-06-29 10:05:45.156250,13.88,90.92
155302,2018-06-29 10:05:45.187500,17.39,90.92
155303,2018-06-29 10:05:45.218750,21.22,90.92
155304,2018-06-29 10:05:45.250000,26.63,90.92
155305,2018-06-29 10:05:45.281250,31.67,90.92
155306,2018-06-29 10:05:45.312500,33.23,90.92
155307,2018-06-29 10:05:45.343750,26.67,90.92
155308,2018-06-29 10:05:45.375000,7.73,90.92
155309,2018-06-29 10:05:45.406250,-17.45,90.92
155310,2018-06-29 10:05:45.437500,-32.04,90.92
155311,2018-06-29 10:05:45.468750,-27.61,90.92
155312,2018-06-29 10:05:45.500000,-14.27,90.92
155313,2018-06-29 10:05:45.531250,-6.05,90.98
155314,2018-06-29 10:05:45.562500,-6.01,90.98
155315,2018-06-29 10:05:45.593750,-8.76,90.98
155316,2018-06-29 10:05:45.625000,-10.18,90.98
155317,2018-06-29 10:05:45.656250,-9.22,90.98
155318,2018-06-29 10:05:45.687500,-6.81,90.98
155319,2018-06-29 10:05:45.718750,-2.97,90.98
155320,2018-06-29 10:05:45.750000,2.79,90.98
155321,2018-06-29 10:05:45.781250,8.34,90.98
155322,2018-06-29 10:05:45.812500,9.12,90.98
155323,2018-06-29 10:05:45.843750,1.84,90.98
155324,2018-06-29 10:05:45.875000,-12.02,90.98
155325,2018-06-29 10:05:45.906250,-30.9,90.98
155326,2018-06-29 10:05:45.937500,-47.33,90.98
155327,2018-06-29 10:05:45.968750,-59.4,90.98
155328,2018-06-29 10:05:46.000000,-74.58,90.98
155329,2018-06-29 10:05:46.031250,-101.43,90.98
155330,2018-06-29 10:05:46.062500,-131.26,90.98
155331,2018-06-29 10:05:46.093750,-148.93,90.98
155332,2018-06-29 10:05:46.125000,-163.54,90.98
155333,2018-06-29 10:05:46.156250,-185.42,90.98
155334,2018-06-29 10:05:46.187500,-211.36,90.98
155335,2018-06-29 10:05:46.218750,-218.09,90.98
155336,2018-06-29 10:05:46.250000,-207.79,90.98
155337,2018-06-29 10:05:46.281250,-204.53,90.98
155338,2018-06-29 10:05:46.312500,-235.72,90.98
155339,2018-06-29 10:05:46.343750,-299.03,90.98
155340,2018-06-29 10:05:46.375000,-347.27,90.98
155341,2018-06-29 10:05:46.406250,-348.22,90.98
155342,2018-06-29 10:05:46.437500,-236.45,90.98
155343,2018-06-29 10:05:46.468750,-56.62,90.98
155344,2018-06-29 10:05:46.500000,61.01,90.98
155345,2018-06-29 10:05:46.531250,131.69,91.05
155346,2018-06-29 10:05:46.562500,191.31,91.05
155347,2018-06-29 10:05:46.593750,227.47,91.05
155348,2018-06-29 10:05:46.625000,237.93,91.05
155349,2018-06-29 10:05:46.656250,249.36,91.05
155350,2018-06-29 10:05:46.687500,261.13,91.05
155351,2018-06-29 10:05:46.718750,261.36,91.05
155352,2018-06-29 10:05:46.750000,241.06,91.05
155353,2018-06-29 10:05:46.781250,215.91,91.05
155354,2018-06-29 10:05:46.812500,192.45,91.05
155355,2018-06-29 10:05:46.843750,163.93,91.05
155356,2018-06-29 10:05:46.875000,125.51,91.05
155357,2018-06-29 10:05:46.906250,83.76,91.05
155358,2018-06-29 10:05:46.937500,51.66,91.05
155359,2018-06-29 10:05:46.968750,28.41,91.05
155360,2018-06-29 10:05:47.000000,8.88,91.05
155361,2018-06-29 10:05:47.031250,-10.2,91.05
155362,2018-06-29 10:05:47.062500,-24.55,91.05
155363,2018-06-29 10:05:47.093750,-35.45,91.05
155364,2018-06-29 10:05:47.125000,-52.12,91.05
155365,2018-06-29 10:05:47.156250,-82.62,91.05
155366,2018-06-29 10:05:47.187500,-125.63,91.05
155367,2018-06-29 10:05:47.218750,-168.77,91.05
155368,2018-06-29 10:05:47.250000,-197.1,91.05
155369,2018-06-29 10:05:47.281250,-203.63,91.05
155370,2018-06-29 10:05:47.312500,-193.58,91.05
155371,2018-06-29 10:05:47.343750,-174.61,91.05
155372,2018-06-29 10:05:47.375000,-147.08,91.05
155373,2018-06-29 10:05:47.406250,-109.53,91.05
155374,2018-06-29 10:05:47.437500,-66.81,91.05
155375,2018-06-29 10:05:47.468750,-26.53,91.05
155376,2018-06-29 10:05:47.500000,7.75,91.05
155377,2018-06-29 10:05:47.531250,37.62,91.02
155378,2018-06-29 10:05:47.562500,66.39,91.02
155379,2018-06-29 10:05:47.593750,95.23,91.02
155380,2018-06-29 10:05:47.625000,122.51,91.02
155381,2018-06-29 10:05:47.656250,144.61,91.02
155382,2018-06-29 10:05:47.687500,155.51,91.02
155383,2018-06-29 10:05:47.718750,149.46,91.02
155384,2018-06-29 10:05:47.750000,127.19,91.02
155385,2018-06-29 10:05:47.781250,95.6,91.02
155386,2018-06-29 10:05:47.812500,60.15,91.02
155387,2018-06-29 10:05:47.843750,22.56,91.02
155388,2018-06-29 10:05:47.875000,-13.57,91.02
155389,2018-06-29 10:05:47.906250,-40.87,91.02
155390,2018-06-29 10:05:47.937500,-54.73,91.02
155391,2018-06-29 10:05:47.968750,-57.86,91.02
155392,2018-06-29 10:05:48.000000,-56.25,91.02
155393,2018-06-29 10:05:48.031250,-54.02,91.02
155394,2018-06-29 10:05:48.062500,-51.72,91.02
155395,2018-06-29 10:05:48.093750,-44.04,91.02
155396,2018-06-29 10:05:48.125000,-22.27,91.02
155397,2018-06-29 10:05:48.156250,14.77,91.02
155398,2018-06-29 10:05:48.187500,56.2,91.02
155399,2018-06-29 10:05:48.218750,90.66,91.02
155400,2018-06-29 10:05:48.250000,115.48,91.02
155401,2018-06-29 10:05:48.281250,131.37,91.02
155402,2018-06-29 10:05:48.312500,137.0,91.02
155403,2018-06-29 10:05:48.343750,132.71,91.02
155404,2018-06-29 10:05:48.375000,123.31,91.02
155405,2018-06-29 10:05:48.406250,114.23,91.02
155406,2018-06-29 10:05:48.437500,108.32,91.02
155407,2018-06-29 10:05:48.468750,107.13,91.02
155408,2018-06-29 10:05:48.500000,111.0,91.02
155409,2018-06-29 10:05:48.531250,117.39,91.0
155410,2018-06-29 10:05:48.562500,123.02,91.0
155411,2018-06-29 10:05:48.593750,128.43,91.0
155412,2018-06-29 10:05:48.625000,137.13,91.0
155413,2018-06-29 10:05:48.656250,149.6,91.0
155414,2018-06-29 10:05:48.687500,160.91,91.0
155415,2018-06-29 10:05:48.718750,165.6,91.0
155416,2018-06-29 10:05:48.750000,162.35,91.0
155417,2018-06-29 10:05:48.781250,151.17,91.0
155418,2018-06-29 10:05:48.812500,128.79,91.0
155419,2018-06-29 10:05:48.843750,90.35,91.0
155420,2018-06-29 10:05:48.875000,34.85,91.0
155421,2018-06-29 10:05:48.906250,-29.84,91.0
155422,2018-06-29 10:05:48.937500,-86.43,91.0
155423,2018-06-29 10:05:48.968750,-117.8,91.0
155424,2018-06-29 10:05:49.000000,-121.53,91.0
155425,2018-06-29 10:05:49.031250,-110.37,91.0
155426,2018-06-29 10:05:49.062500,-97.21,91.0
155427,2018-06-29 10:05:49.093750,-86.68,91.0
155428,2018-06-29 10:05:49.125000,-80.38,91.0
155429,2018-06-29 10:05:49.156250,-79.32,91.0
155430,2018-06-29 10:05:49.187500,-78.57,91.0
155431,2018-06-29 10:05:49.218750,-68.78,91.0
155432,2018-06-29 10:05:49.250000,-47.01,91.0
155433,2018-06-29 10:05:49.281250,-20.38,91.0
155434,2018-06-29 10:05:49.312500,2.97,91.0
155435,2018-06-29 10:05:49.343750,19.89,91.0
155436,2018-06-29 10:05:49.375000,28.47,91.0
155437,2018-06-29 10:05:49.406250,26.17,91.0
155438,2018-06-29 10:05:49.437500,14.19,91.0
155439,2018-06-29 10:05:49.468750,-2.51,91.0
155440,2018-06-29 10:05:49.500000,-21.2,91.0
155441,2018-06-29 10:05:49.531250,-42.24,90.9
155442,2018-06-29 10:05:49.562500,-63.48,90.9
155443,2018-06-29 10:05:49.593750,-79.75,90.9
155444,2018-06-29 10:05:49.625000,-88.02,90.9
155445,2018-06-29 10:05:49.656250,-89.49,90.9
155446,2018-06-29 10:05:49.687500,-87.65,90.9
155447,2018-06-29 10:05:49.718750,-85.24,90.9
155448,2018-06-29 10:05:49.750000,-79.85,90.9
155449,2018-06-29 10:05:49.781250,-64.88,90.9
155450,2018-06-29 10:05:49.812500,-39.3,90.9
155451,2018-06-29 10:05:49.843750,-11.97,90.9
155452,2018-06-29 10:05:49.875000,7.91,90.9
155453,2018-06-29 10:05:49.906250,19.33,90.9
155454,2018-06-29 10:05:49.937500,25.78,90.9
155455,2018-06-29 10:05:49.968750,28.8,90.9
155456,2018-06-29 10:05:50.000000,28.76,90.9
155457,2018-06-29 10:05:50.031250,28.03,90.9
155458,2018-06-29 10:05:50.062500,29.28,90.9
155459,2018-06-29 10:05:50.093750,32.01,90.9
155460,2018-06-29 10:05:50.125000,32.92,90.9
155461,2018-06-29 10:05:50.156250,28.41,90.9
155462,2018-06-29 10:05:50.187500,16.32,90.9
155463,2018-06-29 10:05:50.218750,-1.99,90.9
155464,2018-06-29 10:05:50.250000,-20.99,90.9
155465,2018-06-29 10:05:50.281250,-35.63,90.9
155466,2018-06-29 10:05:50.312500,-46.74,90.9
155467,2018-06-29 10:05:50.343750,-59.65,90.9
155468,2018-06-29 10:05:50.375000,-76.45,90.9
155469,2018-06-29 10:05:50.406250,-91.61,90.9
155470,2018-06-29 10:05:50.437500,-97.39,90.9
155471,2018-06-29 10:05:50.468750,-93.04,90.9
155472,2018-06-29 10:05:50.500000,-84.98,90.9
155473,2018-06-29 10:05:50.531250,-76.53,90.85
155474,2018-06-29 10:05:50.562500,-59.45,90.85
155475,2018-06-29 10:05:50.593750,-20.26,90.85
155476,2018-06-29 10:05:50.625000,42.09,90.85
155477,2018-06-29 10:05:50.656250,109.7,90.85
155478,2018-06-29 10:05:50.687500,161.11,90.85
155479,2018-06-29 10:05:50.718750,186.98,90.85
155480,2018-06-29 10:05:50.750000,187.75,90.85
155481,2018-06-29 10:05:50.781250,167.49,90.85
155482,2018-06-29 10:05:50.812500,135.8,90.85
155483,2018-06-29 10:05:50.843750,105.87,90.85
155484,2018-06-29 10:05:50.875000,84.85,90.85
155485,2018-06-29 10:05:50.906250,70.78,90.85
155486,2018-06-29 10:05:50.937500,59.76,90.85
155487,2018-06-29 10:05:50.968750,50.97,90.85
155488,2018-06-29 10:05:51.000000,43.64,90.85
155489,2018-06-29 10:05:51.031250,34.33,90.85
155490,2018-06-29 10:05:51.062500,20.23,90.85
155491,2018-06-29 10:05:51.093750,2.61,90.85
155492,2018-06-29 10:05:51.125000,-15.18,90.85
155493,2018-06-29 10:05:51.156250,-31.45,90.85
155494,2018-06-29 10:05:51.187500,-46.29,90.85
155495,2018-06-29 10:05:51.218750,-59.57,90.85
155496,2018-06-29 10:05:51.250000,-70.45,90.85
155497,2018-06-29 10:05:51.281250,-78.18,90.85
155498,2018-06-29 10:05:51.312500,-83.3,90.85
155499,2018-06-29 10:05:51.343750,-87.95,90.85
155500,2018-06-29 10:05:51.375000,-94.15,90.85
155501,2018-06-29 10:05:51.406250,-101.16,90.85
155502,2018-06-29 10:05:51.437500,-103.38,90.85
155503,2018-06-29 10:05:51.468750,-92.75,90.85
155504,2018-06-29 10:05:51.500000,-67.08,90.85
155505,2018-06-29 10:05:51.531250,-34.02,90.78
155506,2018-06-29 10:05:51.562500,-3.47,90.78
155507,2018-06-29 10:05:51.593750,20.02,90.78
155508,2018-06-29 10:05:51.625000,35.88,90.78
155509,2018-06-29 10:05:51.656250,44.41,90.78
155510,2018-06-29 10:05:51.687500,46.72,90.78
155511,2018-06-29 10:05:51.718750,45.61,90.78
155512,2018-06-29 10:05:51.750000,44.89,90.78
155513,2018-06-29 10:05:51.781250,46.41,90.78
155514,2018-06-29 10:05:51.812500,48.45,90.78
155515,2018-06-29 10:05:51.843750,48.64,90.78
155516,2018-06-29 10:05:51.875000,46.57,90.78
155517,2018-06-29 10:05:51.906250,41.88,90.78
155518,2018-06-29 10:05:51.937500,33.59,90.78
155519,2018-06-29 10:05:51.968750,23.99,90.78
155520,2018-06-29 10:05:52.000000,18.36,90.78
155521,2018-06-29 10:05:52.031250,18.1,90.78
155522,2018-06-29 10:05:52.062500,18.01,90.78
155523,2018-06-29 10:05:52.093750,14.21,90.78
155524,2018-06-29 10:05:52.125000,10.56,90.78
155525,2018-06-29 10:05:52.156250,11.88,90.78
155526,2018-06-29 10:05:52.187500,15.29,90.78
155527,2018-06-29 10:05:52.218750,13.35,90.78
155528,2018-06-29 10:05:52.250000,1.37,90.78
155529,2018-06-29 10:05:52.281250,-24.09,90.78
155530,2018-06-29 10:05:52.312500,-66.94,90.78
155531,2018-06-29 10:05:52.343750,-126.25,90.78
155532,2018-06-29 10:05:52.375000,-191.53,90.78
155533,2018-06-29 10:05:52.406250,-245.19,90.78
155534,2018-06-29 10:05:52.437500,-271.63,90.78
155535,2018-06-29 10:05:52.468750,-261.4,90.78
155536,2018-06-29 10:05:52.500000,-214.81,90.78
155537,2018-06-29 10:05:52.531250,-143.82,90.68
155538,2018-06-29 10:05:52.562500,-68.15,90.68
155539,2018-06-29 10:05:52.593750,-4.32,90.68
155540,2018-06-29 10:05:52.625000,44.23,90.68
155541,2018-06-29 10:05:52.656250,81.84,90.68
155542,2018-06-29 10:05:52.687500,112.36,90.68
155543,2018-06-29 10:05:52.718750,133.79,90.68
155544,2018-06-29 10:05:52.750000,141.51,90.68
155545,2018-06-29 10:05:52.781250,125.24,90.68
155546,2018-06-29 10:05:52.812500,80.82,90.68
155547,2018-06-29 10:05:52.843750,47.3,90.68
155548,2018-06-29 10:05:52.875000,54.68,90.68
155549,2018-06-29 10:05:52.906250,88.12,90.68
155550,2018-06-29 10:05:52.937500,122.97,90.68
155551,2018-06-29 10:05:52.968750,152.45,90.68
155552,2018-06-29 10:05:53.000000,173.05,90.68
155553,2018-06-29 10:05:53.031250,177.82,90.68
155554,2018-06-29 10:05:53.062500,167.56,90.68
155555,2018-06-29 10:05:53.093750,156.44,90.68
155556,2018-06-29 10:05:53.125000,151.18,90.68
155557,2018-06-29 10:05:53.156250,142.42,90.68
155558,2018-06-29 10:05:53.187500,119.52,90.68
155559,2018-06-29 10:05:53.218750,83.47,90.68
155560,2018-06-29 10:05:53.250000,52.02,90.68
155561,2018-06-29 10:05:53.281250,22.64,90.68
155562,2018-06-29 10:05:53.312500,-18.4,90.68
155563,2018-06-29 10:05:53.343750,-71.44,90.68
155564,2018-06-29 10:05:53.375000,-119.67,90.68
155565,2018-06-29 10:05:53.406250,-153.49,90.68
155566,2018-06-29 10:05:53.437500,-180.6,90.68
155567,2018-06-29 10:05:53.468750,-216.45,90.68
155568,2018-06-29 10:05:53.500000,-269.12,90.68
155569,2018-06-29 10:05:53.531250,-317.7,90.52
155570,2018-06-29 10:05:53.562500,-308.25,90.52
155571,2018-06-29 10:05:53.593750,-208.69,90.52
155572,2018-06-29 10:05:53.625000,-61.09,90.52
155573,2018-06-29 10:05:53.656250,61.72,90.52
155574,2018-06-29 10:05:53.687500,129.76,90.52
155575,2018-06-29 10:05:53.718750,155.18,90.52
155576,2018-06-29 10:05:53.750000,153.14,90.52
155577,2018-06-29 10:05:53.781250,140.0,90.52
155578,2018-06-29 10:05:53.812500,136.85,90.52
155579,2018-06-29 10:05:53.843750,149.7,90.52
155580,2018-06-29 10:05:53.875000,164.29,90.52
155581,2018-06-29 10:05:53.906250,169.08,90.52
155582,2018-06-29 10:05:53.937500,168.26,90.52
155583,2018-06-29 10:05:53.968750,164.95,90.52
155584,2018-06-29 10:05:54.000000,149.52,90.52
155585,2018-06-29 10:05:54.031250,113.72,90.52
155586,2018-06-29 10:05:54.062500,63.34,90.52
155587,2018-06-29 10:05:54.093750,9.07,90.52
155588,2018-06-29 10:05:54.125000,-44.39,90.52
155589,2018-06-29 10:05:54.156250,-95.51,90.52
155590,2018-06-29 10:05:54.187500,-140.67,90.52
155591,2018-06-29 10:05:54.218750,-175.9,90.52
155592,2018-06-29 10:05:54.250000,-205.11,90.52
155593,2018-06-29 10:05:54.281250,-241.36,90.52
155594,2018-06-29 10:05:54.312500,-285.6,90.52
155595,2018-06-29 10:05:54.343750,-308.46,90.52
155596,2018-06-29 10:05:54.375000,-277.24,90.52
155597,2018-06-29 10:05:54.406250,-197.02,90.52
155598,2018-06-29 10:05:54.437500,-103.44,90.52
155599,2018-06-29 10:05:54.468750,-26.2,90.52
155600,2018-06-29 10:05:54.500000,22.23,90.52
155601,2018-06-29 10:05:54.531250,39.99,90.35
155602,2018-06-29 10:05:54.562500,36.32,90.35
155603,2018-06-29 10:05:54.593750,29.04,90.35
155604,2018-06-29 10:05:54.625000,31.15,90.35
155605,2018-06-29 10:05:54.656250,42.99,90.35
155606,2018-06-29 10:05:54.687500,55.82,90.35
155607,2018-06-29 10:05:54.718750,59.71,90.35
155608,2018-06-29 10:05:54.750000,51.02,90.35
155609,2018-06-29 10:05:54.781250,33.88,90.35
155610,2018-06-29 10:05:54.812500,13.4,90.35
155611,2018-06-29 10:05:54.843750,-4.76,90.35
155612,2018-06-29 10:05:54.875000,-9.94,90.35
155613,2018-06-29 10:05:54.906250,0.45,90.35
155614,2018-06-29 10:05:54.937500,9.15,90.35
155615,2018-06-29 10:05:54.968750,1.22,90.35
155616,2018-06-29 10:05:55.000000,-15.24,90.35
155617,2018-06-29 10:05:55.031250,-26.83,90.35
155618,2018-06-29 10:05:55.062500,-30.49,90.35
155619,2018-06-29 10:05:55.093750,-22.29,90.35
155620,2018-06-29 10:05:55.125000,2.83,90.35
155621,2018-06-29 10:05:55.156250,37.81,90.35
155622,2018-06-29 10:05:55.187500,68.93,90.35
155623,2018-06-29 10:05:55.218750,89.15,90.35
155624,2018-06-29 10:05:55.250000,97.88,90.35
155625,2018-06-29 10:05:55.281250,96.38,90.35
155626,2018-06-29 10:05:55.312500,87.83,90.35
155627,2018-06-29 10:05:55.343750,76.93,90.35
155628,2018-06-29 10:05:55.375000,68.48,90.35
155629,2018-06-29 10:05:55.406250,65.38,90.35
155630,2018-06-29 10:05:55.437500,66.81,90.35
155631,2018-06-29 10:05:55.468750,68.4,90.35
155632,2018-06-29 10:05:55.500000,63.63,90.35
155633,2018-06-29 10:05:55.531250,49.03,90.1
155634,2018-06-29 10:05:55.562500,28.41,90.1
155635,2018-06-29 10:05:55.593750,14.88,90.1
155636,2018-06-29 10:05:55.625000,16.87,90.1
155637,2018-06-29 10:05:55.656250,23.74,90.1
155638,2018-06-29 10:05:55.687500,13.43,90.1
155639,2018-06-29 10:05:55.718750,-25.24,90.1
155640,2018-06-29 10:05:55.750000,-82.95,90.1
155641,2018-06-29 10:05:55.781250,-143.59,90.1
155642,2018-06-29 10:05:55.812500,-191.76,90.1
155643,2018-06-29 10:05:55.843750,-220.08,90.1
155644,2018-06-29 10:05:55.875000,-227.43,90.1
155645,2018-06-29 10:05:55.906250,-222.06,90.1
155646,2018-06-29 10:05:55.937500,-210.26,90.1
155647,2018-06-29 10:05:55.968750,-194.35,90.1
155648,2018-06-29 10:05:56.000000,-184.4,90.1
155649,2018-06-29 10:05:56.031250,-191.65,90.1
155650,2018-06-29 10:05:56.062500,-225.58,90.1
155651,2018-06-29 10:05:56.093750,-260.98,90.1
155652,2018-06-29 10:05:56.125000,-280.4,90.1
155653,2018-06-29 10:05:56.156250,-286.25,90.1
155654,2018-06-29 10:05:56.187500,-302.5,90.1
155655,2018-06-29 10:05:56.218750,-325.54,90.1
155656,2018-06-29 10:05:56.250000,-321.17,90.1
155657,2018-06-29 10:05:56.281250,-283.52,90.1
155658,2018-06-29 10:05:56.312500,-230.09,90.1
155659,2018-06-29 10:05:56.343750,-194.36,90.1
155660,2018-06-29 10:05:56.375000,-147.92,90.1
155661,2018-06-29 10:05:56.406250,-77.36,90.1
155662,2018-06-29 10:05:56.437500,40.01,90.1
155663,2018-06-29 10:05:56.468750,293.78,90.1
155664,2018-06-29 10:05:56.500000,471.21,90.1
155665,2018-06-29 10:05:56.531250,506.42,89.9
155666,2018-06-29 10:05:56.562500,464.28,89.9
155667,2018-06-29 10:05:56.593750,394.1,89.9
155668,2018-06-29 10:05:56.625000,305.52,89.9
155669,2018-06-29 10:05:56.656250,237.47,89.9
155670,2018-06-29 10:05:56.687500,206.84,89.9
155671,2018-06-29 10:05:56.718750,197.1,89.9
155672,2018-06-29 10:05:56.750000,175.41,89.9
155673,2018-06-29 10:05:56.781250,138.3,89.9
155674,2018-06-29 10:05:56.812500,109.92,89.9
155675,2018-06-29 10:05:56.843750,93.23,89.9
155676,2018-06-29 10:05:56.875000,72.69,89.9
155677,2018-06-29 10:05:56.906250,35.41,89.9
155678,2018-06-29 10:05:56.937500,4.05,89.9
155679,2018-06-29 10:05:56.968750,-8.66,89.9
155680,2018-06-29 10:05:57.000000,-6.4,89.9
155681,2018-06-29 10:05:57.031250,6.11,89.9
155682,2018-06-29 10:05:57.062500,31.4,89.9
155683,2018-06-29 10:05:57.093750,71.94,89.9
155684,2018-06-29 10:05:57.125000,113.91,89.9
155685,2018-06-29 10:05:57.156250,137.57,89.9
155686,2018-06-29 10:05:57.187500,126.76,89.9
155687,2018-06-29 10:05:57.218750,86.31,89.9
155688,2018-06-29 10:05:57.250000,34.89,89.9
155689,2018-06-29 10:05:57.281250,-14.55,89.9
155690,2018-06-29 10:05:57.312500,-58.89,89.9
155691,2018-06-29 10:05:57.343750,-94.66,89.9
155692,2018-06-29 10:05:57.375000,-115.6,89.9
155693,2018-06-29 10:05:57.406250,-122.3,89.9
155694,2018-06-29 10:05:57.437500,-120.68,89.9
155695,2018-06-29 10:05:57.468750,-112.57,89.9
155696,2018-06-29 10:05:57.500000,-95.88,89.9
155697,2018-06-29 10:05:57.531250,-72.11,89.73
155698,2018-06-29 10:05:57.562500,-48.66,89.73
155699,2018-06-29 10:05:57.593750,-33.17,89.73
155700,2018-06-29 10:05:57.625000,-28.26,89.73
155701,2018-06-29 10:05:57.656250,-31.14,89.73
155702,2018-06-29 10:05:57.687500,-37.61,89.73
155703,2018-06-29 10:05:57.718750,-46.78,89.73
155704,2018-06-29 10:05:57.750000,-59.93,89.73
155705,2018-06-29 10:05:57.781250,-73.82,89.73
155706,2018-06-29 10:05:57.812500,-79.63,89.73
155707,2018-06-29 10:05:57.843750,-71.85,89.73
155708,2018-06-29 10:05:57.875000,-55.35,89.73
155709,2018-06-29 10:05:57.906250,-38.83,89.73
155710,2018-06-29 10:05:57.937500,-24.69,89.73
155711,2018-06-29 10:05:57.968750,-12.14,89.73
155712,2018-06-29 10:05:58.000000,-6.89,89.73
155713,2018-06-29 10:05:58.031250,-18.17,89.73
155714,2018-06-29 10:05:58.062500,-46.27,89.73
155715,2018-06-29 10:05:58.093750,-75.74,89.73
155716,2018-06-29 10:05:58.125000,-78.81,89.73
155717,2018-06-29 10:05:58.156250,-36.6,89.73
155718,2018-06-29 10:05:58.187500,35.74,89.73
155719,2018-06-29 10:05:58.218750,99.53,89.73
155720,2018-06-29 10:05:58.250000,130.44,89.73
155721,2018-06-29 10:05:58.281250,129.83,89.73
155722,2018-06-29 10:05:58.312500,106.36,89.73
155723,2018-06-29 10:05:58.343750,69.62,89.73
155724,2018-06-29 10:05:58.375000,34.96,89.73
155725,2018-06-29 10:05:58.406250,13.09,89.73
155726,2018-06-29 10:05:58.437500,-0.13,89.73
155727,2018-06-29 10:05:58.468750,-11.86,89.73
155728,2018-06-29 10:05:58.500000,-17.79,89.73
155729,2018-06-29 10:05:58.531250,-11.35,89.65
155730,2018-06-29 10:05:58.562500,1.02,89.65
155731,2018-06-29 10:05:58.593750,6.14,89.65
155732,2018-06-29 10:05:58.625000,0.9,89.65
155733,2018-06-29 10:05:58.656250,-7.01,89.65
155734,2018-06-29 10:05:58.687500,-12.45,89.65
155735,2018-06-29 10:05:58.718750,-18.07,89.65
155736,2018-06-29 10:05:58.750000,-25.11,89.65
155737,2018-06-29 10:05:58.781250,-28.4,89.65
155738,2018-06-29 10:05:58.812500,-25.84,89.65
155739,2018-06-29 10:05:58.843750,-23.25,89.65
155740,2018-06-29 10:05:58.875000,-26.09,89.65
155741,2018-06-29 10:05:58.906250,-35.33,89.65
155742,2018-06-29 10:05:58.937500,-49.94,89.65
155743,2018-06-29 10:05:58.968750,-67.29,89.65
155744,2018-06-29 10:05:59.000000,-84.9,89.65
155745,2018-06-29 10:05:59.031250,-104.57,89.65
155746,2018-06-29 10:05:59.062500,-126.98,89.65
155747,2018-06-29 10:05:59.093750,-140.92,89.65
155748,2018-06-29 10:05:59.125000,-129.32,89.65
155749,2018-06-29 10:05:59.156250,-89.93,89.65
155750,2018-06-29 10:05:59.187500,-40.69,89.65
155751,2018-06-29 10:05:59.218750,-0.58,89.65
155752,2018-06-29 10:05:59.250000,25.91,89.65
155753,2018-06-29 10:05:59.281250,43.04,89.65
155754,2018-06-29 10:05:59.312500,53.89,89.65
155755,2018-06-29 10:05:59.343750,60.45,89.65
155756,2018-06-29 10:05:59.375000,65.61,89.65
155757,2018-06-29 10:05:59.406250,71.36,89.65
155758,2018-06-29 10:05:59.437500,77.82,89.65
155759,2018-06-29 10:05:59.468750,84.66,89.65
155760,2018-06-29 10:05:59.500000,92.05,89.65
155761,2018-06-29 10:05:59.531250,99.67,89.55
155762,2018-06-29 10:05:59.562500,104.66,89.55
155763,2018-06-29 10:05:59.593750,103.18,89.55
155764,2018-06-29 10:05:59.625000,95.27,89.55
155765,2018-06-29 10:05:59.656250,85.12,89.55
155766,2018-06-29 10:05:59.687500,75.32,89.55
155767,2018-06-29 10:05:59.718750,65.0,89.55
155768,2018-06-29 10:05:59.750000,54.37,89.55
155769,2018-06-29 10:05:59.781250,46.04,89.55
155770,2018-06-29 10:05:59.812500,40.76,89.55
155771,2018-06-29 10:05:59.843750,36.37,89.55
155772,2018-06-29 10:05:59.875000,32.2,89.55
155773,2018-06-29 10:05:59.906250,30.75,89.55
155774,2018-06-29 10:05:59.937500,33.64,89.55
155775,2018-06-29 10:05:59.968750,38.63,89.55
155776,2018-06-29 10:06:00.000000,41.96,89.55
155777,2018-06-29 10:06:00.031250,41.82,89.55
155778,2018-06-29 10:06:00.062500,41.86,89.55
155779,2018-06-29 10:06:00.093750,53.68,89.55
155780,2018-06-29 10:06:00.125000,88.47,89.55
155781,2018-06-29 10:06:00.156250,141.88,89.55
155782,2018-06-29 10:06:00.187500,195.63,89.55
155783,2018-06-29 10:06:00.218750,236.79,89.55
155784,2018-06-29 10:06:00.250000,266.58,89.55
155785,2018-06-29 10:06:00.281250,289.86,89.55
155786,2018-06-29 10:06:00.312500,304.98,89.55
155787,2018-06-29 10:06:00.343750,304.95,89.55
155788,2018-06-29 10:06:00.375000,283.96,89.55
155789,2018-06-29 10:06:00.406250,244.05,89.55
155790,2018-06-29 10:06:00.437500,196.53,89.55
155791,2018-06-29 10:06:00.468750,151.64,89.55
155792,2018-06-29 10:06:00.500000,107.09,89.55
155793,2018-06-29 10:06:00.531250,53.83,89.25
155794,2018-06-29 10:06:00.562500,-7.98,89.25
155795,2018-06-29 10:06:00.593750,-67.21,89.25
155796,2018-06-29 10:06:00.625000,-114.47,89.25
155797,2018-06-29 10:06:00.656250,-148.56,89.25
155798,2018-06-29 10:06:00.687500,-171.07,89.25
155799,2018-06-29 10:06:00.718750,-181.47,89.25
155800,2018-06-29 10:06:00.750000,-179.33,89.25
155801,2018-06-29 10:06:00.781250,-166.95,89.25
155802,2018-06-29 10:06:00.812500,-148.74,89.25
155803,2018-06-29 10:06:00.843750,-128.88,89.25
155804,2018-06-29 10:06:00.875000,-107.5,89.25
155805,2018-06-29 10:06:00.906250,-80.67,89.25
155806,2018-06-29 10:06:00.937500,-49.84,89.25
155807,2018-06-29 10:06:00.968750,-28.85,89.25
155808,2018-06-29 10:06:01.000000,-31.72,89.25
155809,2018-06-29 10:06:01.031250,-51.1,89.25
155810,2018-06-29 10:06:01.062500,-64.53,89.25
155811,2018-06-29 10:06:01.093750,-67.88,89.25
155812,2018-06-29 10:06:01.125000,-81.07,89.25
155813,2018-06-29 10:06:01.156250,-111.66,89.25
155814,2018-06-29 10:06:01.187500,-139.84,89.25
155815,2018-06-29 10:06:01.218750,-150.2,89.25
155816,2018-06-29 10:06:01.250000,-152.19,89.25
155817,2018-06-29 10:06:01.281250,-162.03,89.25
155818,2018-06-29 10:06:01.312500,-186.48,89.25
155819,2018-06-29 10:06:01.343750,-218.31,89.25
155820,2018-06-29 10:06:01.375000,-228.76,89.25
155821,2018-06-29 10:06:01.406250,-190.18,89.25
155822,2018-06-29 10:06:01.437500,-121.0,89.25
155823,2018-06-29 10:06:01.468750,-71.24,89.25
155824,2018-06-29 10:06:01.500000,-56.71,89.25
155825,2018-06-29 10:06:01.531250,-53.27,88.98
155826,2018-06-29 10:06:01.562500,-47.69,88.98
155827,2018-06-29 10:06:01.593750,-44.28,88.98
155828,2018-06-29 10:06:01.625000,-38.56,88.98
155829,2018-06-29 10:06:01.656250,-26.01,88.98
155830,2018-06-29 10:06:01.687500,-18.85,88.98
155831,2018-06-29 10:06:01.718750,-29.67,88.98
155832,2018-06-29 10:06:01.750000,-53.83,88.98
155833,2018-06-29 10:06:01.781250,-80.7,88.98
155834,2018-06-29 10:06:01.812500,-104.94,88.98
155835,2018-06-29 10:06:01.843750,-121.03,88.98
155836,2018-06-29 10:06:01.875000,-121.78,88.98
155837,2018-06-29 10:06:01.906250,-105.29,88.98
155838,2018-06-29 10:06:01.937500,-71.3,88.98
155839,2018-06-29 10:06:01.968750,-17.3,88.98
155840,2018-06-29 10:06:02.000000,48.97,88.98
155841,2018-06-29 10:06:02.031250,106.19,88.98
155842,2018-06-29 10:06:02.062500,137.48,88.98
155843,2018-06-29 10:06:02.093750,142.26,88.98
155844,2018-06-29 10:06:02.125000,129.0,88.98
155845,2018-06-29 10:06:02.156250,103.78,88.98
155846,2018-06-29 10:06:02.187500,66.86,88.98
155847,2018-06-29 10:06:02.218750,22.41,88.98
155848,2018-06-29 10:06:02.250000,-10.99,88.98
155849,2018-06-29 10:06:02.281250,-14.67,88.98
155850,2018-06-29 10:06:02.312500,8.61,88.98
155851,2018-06-29 10:06:02.343750,44.0,88.98
155852,2018-06-29 10:06:02.375000,85.57,88.98
155853,2018-06-29 10:06:02.406250,130.3,88.98
155854,2018-06-29 10:06:02.437500,164.79,88.98
155855,2018-06-29 10:06:02.468750,176.14,88.98
155856,2018-06-29 10:06:02.500000,165.63,88.98
155857,2018-06-29 10:06:02.531250,142.15,88.72
155858,2018-06-29 10:06:02.562500,112.25,88.72
155859,2018-06-29 10:06:02.593750,80.5,88.72
155860,2018-06-29 10:06:02.625000,50.9,88.72
155861,2018-06-29 10:06:02.656250,24.25,88.72
155862,2018-06-29 10:06:02.687500,-1.66,88.72
155863,2018-06-29 10:06:02.718750,-29.47,88.72
155864,2018-06-29 10:06:02.750000,-59.92,88.72
155865,2018-06-29 10:06:02.781250,-88.39,88.72
155866,2018-06-29 10:06:02.812500,-103.64,88.72
155867,2018-06-29 10:06:02.843750,-94.81,88.72
155868,2018-06-29 10:06:02.875000,-62.29,88.72
155869,2018-06-29 10:06:02.906250,-18.33,88.72
155870,2018-06-29 10:06:02.937500,23.35,88.72
155871,2018-06-29 10:06:02.968750,54.62,88.72
155872,2018-06-29 10:06:03.000000,72.38,88.72
155873,2018-06-29 10:06:03.031250,77.15,88.72
155874,2018-06-29 10:06:03.062500,73.82,88.72
155875,2018-06-29 10:06:03.093750,69.61,88.72
155876,2018-06-29 10:06:03.125000,68.29,88.72
155877,2018-06-29 10:06:03.156250,68.15,88.72
155878,2018-06-29 10:06:03.187500,66.97,88.72
155879,2018-06-29 10:06:03.218750,65.43,88.72
155880,2018-06-29 10:06:03.250000,63.62,88.72
155881,2018-06-29 10:06:03.281250,58.8,88.72
155882,2018-06-29 10:06:03.312500,49.82,88.72
155883,2018-06-29 10:06:03.343750,39.6,88.72
155884,2018-06-29 10:06:03.375000,31.14,88.72
155885,2018-06-29 10:06:03.406250,24.07,88.72
155886,2018-06-29 10:06:03.437500,16.25,88.72
155887,2018-06-29 10:06:03.468750,6.64,88.72
155888,2018-06-29 10:06:03.500000,-4.07,88.72
155889,2018-06-29 10:06:03.531250,-14.73,88.4
155890,2018-06-29 10:06:03.562500,-25.58,88.4
155891,2018-06-29 10:06:03.593750,-38.31,88.4
155892,2018-06-29 10:06:03.625000,-51.81,88.4
155893,2018-06-29 10:06:03.656250,-57.45,88.4
155894,2018-06-29 10:06:03.687500,-44.0,88.4
155895,2018-06-29 10:06:03.718750,-10.67,88.4
155896,2018-06-29 10:06:03.750000,30.56,88.4
155897,2018-06-29 10:06:03.781250,67.88,88.4
155898,2018-06-29 10:06:03.812500,97.36,88.4
155899,2018-06-29 10:06:03.843750,117.23,88.4
155900,2018-06-29 10:06:03.875000,124.41,88.4
155901,2018-06-29 10:06:03.906250,118.47,88.4
155902,2018-06-29 10:06:03.937500,101.33,88.4
155903,2018-06-29 10:06:03.968750,74.52,88.4
155904,2018-06-29 10:06:04.000000,41.97,88.4
155905,2018-06-29 10:06:04.031250,11.04,88.4
155906,2018-06-29 10:06:04.062500,-13.35,88.4
155907,2018-06-29 10:06:04.093750,-31.91,88.4
155908,2018-06-29 10:06:04.125000,-46.37,88.4
155909,2018-06-29 10:06:04.156250,-56.04,88.4
155910,2018-06-29 10:06:04.187500,-60.81,88.4
155911,2018-06-29 10:06:04.218750,-63.33,88.4
155912,2018-06-29 10:06:04.250000,-64.96,88.4
155913,2018-06-29 10:06:04.281250,-62.93,88.4
155914,2018-06-29 10:06:04.312500,-55.55,88.4
155915,2018-06-29 10:06:04.343750,-47.98,88.4
155916,2018-06-29 10:06:04.375000,-48.05,88.4
155917,2018-06-29 10:06:04.406250,-55.46,88.4
155918,2018-06-29 10:06:04.437500,-56.64,88.4
155919,2018-06-29 10:06:04.468750,-34.93,88.4
155920,2018-06-29 10:06:04.500000,11.32,88.4
155921,2018-06-29 10:06:04.531250,64.84,88.12
155922,2018-06-29 10:06:04.562500,105.67,88.12
155923,2018-06-29 10:06:04.593750,126.5,88.12
155924,2018-06-29 10:06:04.625000,131.07,88.12
155925,2018-06-29 10:06:04.656250,125.02,88.12
155926,2018-06-29 10:06:04.687500,108.92,88.12
155927,2018-06-29 10:06:04.718750,77.42,88.12
155928,2018-06-29 10:06:04.750000,29.41,88.12
155929,2018-06-29 10:06:04.781250,-22.33,88.12
155930,2018-06-29 10:06:04.812500,-61.5,88.12
155931,2018-06-29 10:06:04.843750,-84.9,88.12
155932,2018-06-29 10:06:04.875000,-98.17,88.12
155933,2018-06-29 10:06:04.906250,-103.54,88.12
155934,2018-06-29 10:06:04.937500,-102.03,88.12
155935,2018-06-29 10:06:04.968750,-97.93,88.12
155936,2018-06-29 10:06:05.000000,-93.94,88.12
155937,2018-06-29 10:06:05.031250,-88.84,88.12
155938,2018-06-29 10:06:05.062500,-82.55,88.12
155939,2018-06-29 10:06:05.093750,-78.53,88.12
155940,2018-06-29 10:06:05.125000,-81.26,88.12
155941,2018-06-29 10:06:05.156250,-94.62,88.12
155942,2018-06-29 10:06:05.187500,-120.34,88.12
155943,2018-06-29 10:06:05.218750,-150.07,88.12
155944,2018-06-29 10:06:05.250000,-162.92,88.12
155945,2018-06-29 10:06:05.281250,-143.07,88.12
155946,2018-06-29 10:06:05.312500,-96.62,88.12
155947,2018-06-29 10:06:05.343750,-39.85,88.12
155948,2018-06-29 10:06:05.375000,19.18,88.12
155949,2018-06-29 10:06:05.406250,76.71,88.12
155950,2018-06-29 10:06:05.437500,125.37,88.12
155951,2018-06-29 10:06:05.468750,164.03,88.12
155952,2018-06-29 10:06:05.500000,204.71,88.12
155953,2018-06-29 10:06:05.531250,254.69,87.77
155954,2018-06-29 10:06:05.562500,297.69,87.77
155955,2018-06-29 10:06:05.593750,308.06,87.77
155956,2018-06-29 10:06:05.625000,279.55,87.77
155957,2018-06-29 10:06:05.656250,227.99,87.77
155958,2018-06-29 10:06:05.687500,173.16,87.77
155959,2018-06-29 10:06:05.718750,127.85,87.77
155960,2018-06-29 10:06:05.750000,94.44,87.77
155961,2018-06-29 10:06:05.781250,65.97,87.77
155962,2018-06-29 10:06:05.812500,36.3,87.77
155963,2018-06-29 10:06:05.843750,4.52,87.77
155964,2018-06-29 10:06:05.875000,-30.42,87.77
155965,2018-06-29 10:06:05.906250,-68.57,87.77
155966,2018-06-29 10:06:05.937500,-108.06,87.77
155967,2018-06-29 10:06:05.968750,-151.84,87.77
155968,2018-06-29 10:06:06.000000,-203.14,87.77
155969,2018-06-29 10:06:06.031250,-250.79,87.77
155970,2018-06-29 10:06:06.062500,-276.1,87.77
155971,2018-06-29 10:06:06.093750,-274.47,87.77
155972,2018-06-29 10:06:06.125000,-254.5,87.77
155973,2018-06-29 10:06:06.156250,-218.89,87.77
155974,2018-06-29 10:06:06.187500,-161.75,87.77
155975,2018-06-29 10:06:06.218750,-84.64,87.77
155976,2018-06-29 10:06:06.250000,-2.16,87.77
155977,2018-06-29 10:06:06.281250,69.72,87.77
155978,2018-06-29 10:06:06.312500,121.46,87.77
155979,2018-06-29 10:06:06.343750,147.93,87.77
155980,2018-06-29 10:06:06.375000,150.16,87.77
155981,2018-06-29 10:06:06.406250,138.53,87.77
155982,2018-06-29 10:06:06.437500,125.73,87.77
155983,2018-06-29 10:06:06.468750,115.21,87.77
155984,2018-06-29 10:06:06.500000,102.06,87.77
155985,2018-06-29 10:06:06.531250,85.41,87.32
155986,2018-06-29 10:06:06.562500,72.12,87.32
155987,2018-06-29 10:06:06.593750,65.82,87.32
155988,2018-06-29 10:06:06.625000,59.12,87.32
155989,2018-06-29 10:06:06.656250,41.4,87.32
155990,2018-06-29 10:06:06.687500,11.8,87.32
155991,2018-06-29 10:06:06.718750,-18.55,87.32
155992,2018-06-29 10:06:06.750000,-37.73,87.32
155993,2018-06-29 10:06:06.781250,-44.05,87.32
155994,2018-06-29 10:06:06.812500,-43.17,87.32
155995,2018-06-29 10:06:06.843750,-40.0,87.32
155996,2018-06-29 10:06:06.875000,-37.74,87.32
155997,2018-06-29 10:06:06.906250,-38.0,87.32
155998,2018-06-29 10:06:06.937500,-36.3,87.32
155999,2018-06-29 10:06:06.968750,-24.51,87.32
156000,2018-06-29 10:06:07.000000,-2.95,87.32
156001,2018-06-29 10:06:07.031250,15.77,87.32
156002,2018-06-29 10:06:07.062500,19.57,87.32
156003,2018-06-29 10:06:07.093750,9.72,87.32
156004,2018-06-29 10:06:07.125000,-1.44,87.32
156005,2018-06-29 10:06:07.156250,-3.26,87.32
156006,2018-06-29 10:06:07.187500,3.32,87.32
156007,2018-06-29 10:06:07.218750,9.73,87.32
156008,2018-06-29 10:06:07.250000,15.01,87.32
156009,2018-06-29 10:06:07.281250,29.26,87.32
156010,2018-06-29 10:06:07.312500,55.46,87.32
156011,2018-06-29 10:06:07.343750,79.01,87.32
156012,2018-06-29 10:06:07.375000,85.56,87.32
156013,2018-06-29 10:06:07.406250,80.42,87.32
156014,2018-06-29 10:06:07.437500,80.05,87.32
156015,2018-06-29 10:06:07.468750,89.56,87.32
156016,2018-06-29 10:06:07.500000,100.13,87.32
156017,2018-06-29 10:06:07.531250,103.02,86.9
156018,2018-06-29 10:06:07.562500,98.97,86.9
156019,2018-06-29 10:06:07.593750,89.78,86.9
156020,2018-06-29 10:06:07.625000,72.24,86.9
156021,2018-06-29 10:06:07.656250,45.69,86.9
156022,2018-06-29 10:06:07.687500,22.1,86.9
156023,2018-06-29 10:06:07.718750,21.09,86.9
156024,2018-06-29 10:06:07.750000,46.76,86.9
156025,2018-06-29 10:06:07.781250,82.17,86.9
156026,2018-06-29 10:06:07.812500,106.91,86.9
156027,2018-06-29 10:06:07.843750,113.51,86.9
156028,2018-06-29 10:06:07.875000,94.33,86.9
156029,2018-06-29 10:06:07.906250,50.14,86.9
156030,2018-06-29 10:06:07.937500,2.89,86.9
156031,2018-06-29 10:06:07.968750,-28.64,86.9
156032,2018-06-29 10:06:08.000000,-53.88,86.9
156033,2018-06-29 10:06:08.031250,-97.44,86.9
156034,2018-06-29 10:06:08.062500,-151.52,86.9
156035,2018-06-29 10:06:08.093750,-207.99,86.9
156036,2018-06-29 10:06:08.125000,-273.34,86.9
156037,2018-06-29 10:06:08.156250,-361.62,86.9
156038,2018-06-29 10:06:08.187500,-454.66,86.9
156039,2018-06-29 10:06:08.218750,-520.64,86.9
156040,2018-06-29 10:06:08.250000,-555.36,86.9
156041,2018-06-29 10:06:08.281250,-559.51,86.9
156042,2018-06-29 10:06:08.312500,-529.55,86.9
156043,2018-06-29 10:06:08.343750,-435.76,86.9
156044,2018-06-29 10:06:08.375000,-290.36,86.9
156045,2018-06-29 10:06:08.406250,-104.63,86.9
156046,2018-06-29 10:06:08.437500,142.32,86.9
156047,2018-06-29 10:06:08.468750,288.39,86.9
156048,2018-06-29 10:06:08.500000,318.01,86.9
156049,2018-06-29 10:06:08.531250,288.19,86.48
156050,2018-06-29 10:06:08.562500,225.45,86.48
156051,2018-06-29 10:06:08.593750,142.36,86.48
156052,2018-06-29 10:06:08.625000,83.83,86.48
156053,2018-06-29 10:06:08.656250,62.74,86.48
156054,2018-06-29 10:06:08.687500,64.4,86.48
156055,2018-06-29 10:06:08.718750,72.18,86.48
156056,2018-06-29 10:06:08.750000,77.19,86.48
156057,2018-06-29 10:06:08.781250,81.47,86.48
156058,2018-06-29 10:06:08.812500,87.0,86.48
156059,2018-06-29 10:06:08.843750,98.74,86.48
156060,2018-06-29 10:06:08.875000,107.2,86.48
156061,2018-06-29 10:06:08.906250,115.22,86.48
156062,2018-06-29 10:06:08.937500,123.56,86.48
156063,2018-06-29 10:06:08.968750,127.68,86.48
156064,2018-06-29 10:06:09.000000,122.98,86.48
156065,2018-06-29 10:06:09.031250,115.29,86.48
156066,2018-06-29 10:06:09.062500,112.87,86.48
156067,2018-06-29 10:06:09.093750,111.15,86.48
156068,2018-06-29 10:06:09.125000,104.0,86.48
156069,2018-06-29 10:06:09.156250,89.11,86.48
156070,2018-06-29 10:06:09.187500,69.95,86.48
156071,2018-06-29 10:06:09.218750,51.09,86.48
156072,2018-06-29 10:06:09.250000,38.16,86.48
156073,2018-06-29 10:06:09.281250,33.21,86.48
156074,2018-06-29 10:06:09.312500,30.71,86.48
156075,2018-06-29 10:06:09.343750,23.93,86.48
156076,2018-06-29 10:06:09.375000,12.19,86.48
156077,2018-06-29 10:06:09.406250,-0.54,86.48
156078,2018-06-29 10:06:09.437500,-12.8,86.48
156079,2018-06-29 10:06:09.468750,-25.95,86.48
156080,2018-06-29 10:06:09.500000,-38.84,86.48
156081,2018-06-29 10:06:09.531250,-49.46,86.07
156082,2018-06-29 10:06:09.562500,-60.24,86.07
156083,2018-06-29 10:06:09.593750,-75.64,86.07
156084,2018-06-29 10:06:09.625000,-95.94,86.07
156085,2018-06-29 10:06:09.656250,-114.28,86.07
156086,2018-06-29 10:06:09.687500,-116.99,86.07
156087,2018-06-29 10:06:09.718750,-93.63,86.07
156088,2018-06-29 10:06:09.750000,-51.53,86.07
156089,2018-06-29 10:06:09.781250,-12.06,86.07
156090,2018-06-29 10:06:09.812500,9.84,86.07
156091,2018-06-29 10:06:09.843750,15.26,86.07
156092,2018-06-29 10:06:09.875000,12.73,86.07
156093,2018-06-29 10:06:09.906250,7.93,86.07
156094,2018-06-29 10:06:09.937500,3.4,86.07
156095,2018-06-29 10:06:09.968750,0.93,86.07
156096,2018-06-29 10:06:10.000000,0.76,86.07
156097,2018-06-29 10:06:10.031250,-1.22,86.07
156098,2018-06-29 10:06:10.062500,-10.47,86.07
156099,2018-06-29 10:06:10.093750,-29.9,86.07
156100,2018-06-29 10:06:10.125000,-61.77,86.07
156101,2018-06-29 10:06:10.156250,-104.5,86.07
156102,2018-06-29 10:06:10.187500,-149.48,86.07
156103,2018-06-29 10:06:10.218750,-187.52,86.07
156104,2018-06-29 10:06:10.250000,-215.72,86.07
156105,2018-06-29 10:06:10.281250,-225.16,86.07
156106,2018-06-29 10:06:10.312500,-203.21,86.07
156107,2018-06-29 10:06:10.343750,-159.86,86.07
156108,2018-06-29 10:06:10.375000,-123.5,86.07
156109,2018-06-29 10:06:10.406250,-105.72,86.07
156110,2018-06-29 10:06:10.437500,-93.34,86.07
156111,2018-06-29 10:06:10.468750,-84.65,86.07
156112,2018-06-29 10:06:10.500000,-91.11,86.07
156113,2018-06-29 10:06:10.531250,-115.26,85.62
156114,2018-06-29 10:06:10.562500,-139.91,85.62
156115,2018-06-29 10:06:10.593750,-140.04,85.62
156116,2018-06-29 10:06:10.625000,-99.91,85.62
156117,2018-06-29 10:06:10.656250,-21.61,85.62
156118,2018-06-29 10:06:10.687500,70.12,85.62
156119,2018-06-29 10:06:10.718750,154.48,85.62
156120,2018-06-29 10:06:10.750000,219.82,85.62
156121,2018-06-29 10:06:10.781250,267.55,85.62
156122,2018-06-29 10:06:10.812500,293.63,85.62
156123,2018-06-29 10:06:10.843750,261.73,85.62
156124,2018-06-29 10:06:10.875000,193.05,85.62
156125,2018-06-29 10:06:10.906250,120.05,85.62
156126,2018-06-29 10:06:10.937500,55.71,85.62
156127,2018-06-29 10:06:10.968750,1.08,85.62
156128,2018-06-29 10:06:11.000000,-41.34,85.62
156129,2018-06-29 10:06:11.031250,-62.95,85.62
156130,2018-06-29 10:06:11.062500,-80.55,85.62
156131,2018-06-29 10:06:11.093750,-108.79,85.62
156132,2018-06-29 10:06:11.125000,-133.92,85.62
156133,2018-06-29 10:06:11.156250,-133.46,85.62
156134,2018-06-29 10:06:11.187500,-110.65,85.62
156135,2018-06-29 10:06:11.218750,-74.39,85.62
156136,2018-06-29 10:06:11.250000,-25.27,85.62
156137,2018-06-29 10:06:11.281250,35.16,85.62
156138,2018-06-29 10:06:11.312500,92.2,85.62
156139,2018-06-29 10:06:11.343750,136.08,85.62
156140,2018-06-29 10:06:11.375000,164.79,85.62
156141,2018-06-29 10:06:11.406250,175.6,85.62
156142,2018-06-29 10:06:11.437500,171.44,85.62
156143,2018-06-29 10:06:11.468750,160.43,85.62
156144,2018-06-29 10:06:11.500000,146.88,85.62
156145,2018-06-29 10:06:11.531250,127.61,85.17
156146,2018-06-29 10:06:11.562500,101.5,85.17
156147,2018-06-29 10:06:11.593750,70.07,85.17
156148,2018-06-29 10:06:11.625000,35.01,85.17
156149,2018-06-29 10:06:11.656250,-1.29,85.17
156150,2018-06-29 10:06:11.687500,-35.27,85.17
156151,2018-06-29 10:06:11.718750,-62.7,85.17
156152,2018-06-29 10:06:11.750000,-80.67,85.17
156153,2018-06-29 10:06:11.781250,-90.39,85.17
156154,2018-06-29 10:06:11.812500,-97.14,85.17
156155,2018-06-29 10:06:11.843750,-104.11,85.17
156156,2018-06-29 10:06:11.875000,-110.01,85.17
156157,2018-06-29 10:06:11.906250,-114.78,85.17
156158,2018-06-29 10:06:11.937500,-121.12,85.17
156159,2018-06-29 10:06:11.968750,-129.26,85.17
156160,2018-06-29 10:06:12.000000,-137.25,85.17
156161,2018-06-29 10:06:12.031250,-146.44,85.17
156162,2018-06-29 10:06:12.062500,-160.89,85.17
156163,2018-06-29 10:06:12.093750,-180.98,85.17
156164,2018-06-29 10:06:12.125000,-202.65,85.17
156165,2018-06-29 10:06:12.156250,-222.26,85.17
156166,2018-06-29 10:06:12.187500,-238.19,85.17
156167,2018-06-29 10:06:12.218750,-248.62,85.17
156168,2018-06-29 10:06:12.250000,-250.02,85.17
156169,2018-06-29 10:06:12.281250,-234.24,85.17
156170,2018-06-29 10:06:12.312500,-190.95,85.17
156171,2018-06-29 10:06:12.343750,-122.08,85.17
156172,2018-06-29 10:06:12.375000,-46.9,85.17
156173,2018-06-29 10:06:12.406250,17.28,85.17
156174,2018-06-29 10:06:12.437500,70.0,85.17
156175,2018-06-29 10:06:12.468750,114.88,85.17
156176,2018-06-29 10:06:12.500000,146.59,85.17
156177,2018-06-29 10:06:12.531250,159.51,84.73
156178,2018-06-29 10:06:12.562500,158.83,84.73
156179,2018-06-29 10:06:12.593750,154.07,84.73
156180,2018-06-29 10:06:12.625000,147.11,84.73
156181,2018-06-29 10:06:12.656250,134.47,84.73
156182,2018-06-29 10:06:12.687500,117.71,84.73
