,Time,ppg,hr
156800,2018-06-29 10:06:32.000000,-15.33,82.33
156801,2018-06-29 10:06:32.031250,11.49,82.33
156802,2018-06-29 10:06:32.062500,31.56,82.33
156803,2018-06-29 10:06:32.093750,46.12,82.33
156804,2018-06-29 10:06:32.125000,55.63,82.33
156805,2018-06-29 10:06:32.156250,59.29,82.33
156806,2018-06-29 10:06:32.187500,57.59,82.33
156807,2018-06-29 10:06:32.218750,53.66,82.33
156808,2018-06-29 10:06:32.250000,50.3,82.33
156809,2018-06-29 10:06:32.281250,47.38,82.33
156810,2018-06-29 10:06:32.312500,43.45,82.33
156811,2018-06-29 10:06:32.343750,37.65,82.33
156812,2018-06-29 10:06:32.375000,29.58,82.33
156813,2018-06-29 10:06:32.406250,19.34,82.33
156814,2018-06-29 10:06:32.437500,7.78,82.33
156815,2018-06-29 10:06:32.468750,-4.46,82.33
156816,2018-06-29 10:06:32.500000,-16.38,82.33
156817,2018-06-29 10:06:32.531250,-24.67,82.45
156818,2018-06-29 10:06:32.562500,-25.61,82.45
156819,2018-06-29 10:06:32.593750,-20.32,82.45
156820,2018-06-29 10:06:32.625000,-14.82,82.45
156821,2018-06-29 10:06:32.656250,-13.31,82.45
156822,2018-06-29 10:06:32.687500,-14.77,82.45
156823,2018-06-29 10:06:32.718750,-16.55,82.45
156824,2018-06-29 10:06:32.750000,-18.37,82.45
156825,2018-06-29 10:06:32.781250,-22.44,82.45
156826,2018-06-29 10:06:32.812500,-29.02,82.45
156827,2018-06-29 10:06:32.843750,-31.54,82.45
156828,2018-06-29 10:06:32.875000,-21.39,82.45
156829,2018-06-29 10:06:32.906250,1.04,82.45
156830,2018-06-29 10:06:32.937500,26.38,82.45
156831,2018-06-29 10:06:32.968750,47.89,82.45
156832,2018-06-29 10:06:33.000000,65.73,82.45
156833,2018-06-29 10:06:33.031250,80.85,82.45
156834,2018-06-29 10:06:33.062500,91.27,82.45
156835,2018-06-29 10:06:33.093750,94.29,82.45
156836,2018-06-29 10:06:33.125000,89.88,82.45
156837,2018-06-29 10:06:33.156250,81.54,82.45
156838,2018-06-29 10:06:33.187500,73.43,82.45
156839,2018-06-29 10:06:33.218750,67.19,82.45
156840,2018-06-29 10:06:33.250000,62.15,82.45
156841,2018-06-29 10:06:33.281250,57.05,82.45
156842,2018-06-29 10:06:33.312500,50.34,82.45
156843,2018-06-29 10:06:33.343750,40.8,82.45
156844,2018-06-29 10:06:33.375000,28.87,82.45
156845,2018-06-29 10:06:33.406250,16.3,82.45
156846,2018-06-29 10:06:33.437500,4.44,82.45
156847,2018-06-29 10:06:33.468750,-6.3,82.45
156848,2018-06-29 10:06:33.500000,-15.73,82.45
156849,2018-06-29 10:06:33.531250,-23.93,82.53
156850,2018-06-29 10:06:33.562500,-31.87,82.53
156851,2018-06-29 10:06:33.593750,-40.29,82.53
156852,2018-06-29 10:06:33.625000,-48.87,82.53
156853,2018-06-29 10:06:33.656250,-57.6,82.53
156854,2018-06-29 10:06:33.687500,-67.95,82.53
156855,2018-06-29 10:06:33.718750,-80.79,82.53
156856,2018-06-29 10:06:33.750000,-91.93,82.53
156857,2018-06-29 10:06:33.781250,-92.17,82.53
156858,2018-06-29 10:06:33.812500,-76.3,82.53
156859,2018-06-29 10:06:33.843750,-50.12,82.53
156860,2018-06-29 10:06:33.875000,-23.97,82.53
156861,2018-06-29 10:06:33.906250,-2.71,82.53
156862,2018-06-29 10:06:33.937500,13.99,82.53
156863,2018-06-29 10:06:33.968750,26.06,82.53
156864,2018-06-29 10:06:34.000000,32.61,82.53
156865,2018-06-29 10:06:34.031250,34.27,82.53
156866,2018-06-29 10:06:34.062500,33.45,82.53
156867,2018-06-29 10:06:34.093750,32.73,82.53
156868,2018-06-29 10:06:34.125000,33.3,82.53
156869,2018-06-29 10:06:34.156250,34.39,82.53
156870,2018-06-29 10:06:34.187500,34.34,82.53
156871,2018-06-29 10:06:34.218750,32.07,82.53
156872,2018-06-29 10:06:34.250000,27.35,82.53
156873,2018-06-29 10:06:34.281250,20.58,82.53
156874,2018-06-29 10:06:34.312500,12.96,82.53
156875,2018-06-29 10:06:34.343750,5.94,82.53
156876,2018-06-29 10:06:34.375000,-0.77,82.53
156877,2018-06-29 10:06:34.406250,-9.05,82.53
156878,2018-06-29 10:06:34.437500,-19.3,82.53
156879,2018-06-29 10:06:34.468750,-29.69,82.53
156880,2018-06-29 10:06:34.500000,-38.74,82.53
156881,2018-06-29 10:06:34.531250,-47.2,82.63
156882,2018-06-29 10:06:34.562500,-56.78,82.63
156883,2018-06-29 10:06:34.593750,-68.39,82.63
156884,2018-06-29 10:06:34.625000,-80.14,82.63
156885,2018-06-29 10:06:34.656250,-85.82,82.63
156886,2018-06-29 10:06:34.687500,-78.76,82.63
156887,2018-06-29 10:06:34.718750,-59.38,82.63
156888,2018-06-29 10:06:34.750000,-35.7,82.63
156889,2018-06-29 10:06:34.781250,-14.79,82.63
156890,2018-06-29 10:06:34.812500,2.33,82.63
156891,2018-06-29 10:06:34.843750,16.69,82.63
156892,2018-06-29 10:06:34.875000,27.94,82.63
156893,2018-06-29 10:06:34.906250,36.37,82.63
156894,2018-06-29 10:06:34.937500,44.25,82.63
156895,2018-06-29 10:06:34.968750,52.7,82.63
156896,2018-06-29 10:06:35.000000,59.94,82.63
156897,2018-06-29 10:06:35.031250,64.03,82.63
156898,2018-06-29 10:06:35.062500,64.57,82.63
156899,2018-06-29 10:06:35.093750,59.88,82.63
156900,2018-06-29 10:06:35.125000,46.64,82.63
156901,2018-06-29 10:06:35.156250,25.52,82.63
156902,2018-06-29 10:06:35.187500,3.11,82.63
156903,2018-06-29 10:06:35.218750,-14.47,82.63
156904,2018-06-29 10:06:35.250000,-26.69,82.63
156905,2018-06-29 10:06:35.281250,-36.34,82.63
156906,2018-06-29 10:06:35.312500,-44.67,82.63
156907,2018-06-29 10:06:35.343750,-50.23,82.63
156908,2018-06-29 10:06:35.375000,-52.54,82.63
156909,2018-06-29 10:06:35.406250,-55.09,82.63
156910,2018-06-29 10:06:35.437500,-62.0,82.63
156911,2018-06-29 10:06:35.468750,-72.32,82.63
156912,2018-06-29 10:06:35.500000,-79.42,82.63
156913,2018-06-29 10:06:35.531250,-75.58,82.65
156914,2018-06-29 10:06:35.562500,-58.68,82.65
156915,2018-06-29 10:06:35.593750,-35.01,82.65
156916,2018-06-29 10:06:35.625000,-13.23,82.65
156917,2018-06-29 10:06:35.656250,3.67,82.65
156918,2018-06-29 10:06:35.687500,17.17,82.65
156919,2018-06-29 10:06:35.718750,27.02,82.65
156920,2018-06-29 10:06:35.750000,31.24,82.65
156921,2018-06-29 10:06:35.781250,31.0,82.65
156922,2018-06-29 10:06:35.812500,30.03,82.65
156923,2018-06-29 10:06:35.843750,29.91,82.65
156924,2018-06-29 10:06:35.875000,29.31,82.65
156925,2018-06-29 10:06:35.906250,27.31,82.65
156926,2018-06-29 10:06:35.937500,24.08,82.65
156927,2018-06-29 10:06:35.968750,19.41,82.65
156928,2018-06-29 10:06:36.000000,14.29,82.65
156929,2018-06-29 10:06:36.031250,11.42,82.65
156930,2018-06-29 10:06:36.062500,10.77,82.65
156931,2018-06-29 10:06:36.093750,7.92,82.65
156932,2018-06-29 10:06:36.125000,0.01,82.65
156933,2018-06-29 10:06:36.156250,-10.95,82.65
156934,2018-06-29 10:06:36.187500,-22.2,82.65
156935,2018-06-29 10:06:36.218750,-33.11,82.65
156936,2018-06-29 10:06:36.250000,-43.93,82.65
156937,2018-06-29 10:06:36.281250,-55.4,82.65
156938,2018-06-29 10:06:36.312500,-65.98,82.65
156939,2018-06-29 10:06:36.343750,-68.22,82.65
156940,2018-06-29 10:06:36.375000,-55.25,82.65
156941,2018-06-29 10:06:36.406250,-31.21,82.65
156942,2018-06-29 10:06:36.437500,-7.58,82.65
156943,2018-06-29 10:06:36.468750,9.7,82.65
156944,2018-06-29 10:06:36.500000,22.13,82.65
156945,2018-06-29 10:06:36.531250,31.11,82.68
156946,2018-06-29 10:06:36.562500,35.53,82.68
156947,2018-06-29 10:06:36.593750,35.31,82.68
156948,2018-06-29 10:06:36.625000,33.13,82.68
156949,2018-06-29 10:06:36.656250,31.5,82.68
156950,2018-06-29 10:06:36.687500,30.25,82.68
156951,2018-06-29 10:06:36.718750,28.26,82.68
156952,2018-06-29 10:06:36.750000,25.65,82.68
156953,2018-06-29 10:06:36.781250,22.53,82.68
156954,2018-06-29 10:06:36.812500,17.54,82.68
156955,2018-06-29 10:06:36.843750,10.31,82.68
156956,2018-06-29 10:06:36.875000,2.92,82.68
156957,2018-06-29 10:06:36.906250,-3.0,82.68
156958,2018-06-29 10:06:36.937500,-8.56,82.68
156959,2018-06-29 10:06:36.968750,-15.24,82.68
156960,2018-06-29 10:06:37.000000,-22.88,82.68
156961,2018-06-29 10:06:37.031250,-31.47,82.68
156962,2018-06-29 10:06:37.062500,-40.6,82.68
156963,2018-06-29 10:06:37.093750,-45.04,82.68
156964,2018-06-29 10:06:37.125000,-37.52,82.68
156965,2018-06-29 10:06:37.156250,-18.79,82.68
156966,2018-06-29 10:06:37.187500,1.77,82.68
156967,2018-06-29 10:06:37.218750,17.22,82.68
156968,2018-06-29 10:06:37.250000,27.17,82.68
156969,2018-06-29 10:06:37.281250,31.1,82.68
156970,2018-06-29 10:06:37.312500,27.17,82.68
156971,2018-06-29 10:06:37.343750,18.73,82.68
156972,2018-06-29 10:06:37.375000,13.06,82.68
156973,2018-06-29 10:06:37.406250,12.49,82.68
156974,2018-06-29 10:06:37.437500,12.7,82.68
156975,2018-06-29 10:06:37.468750,10.34,82.68
156976,2018-06-29 10:06:37.500000,6.55,82.68
156977,2018-06-29 10:06:37.531250,2.57,82.72
156978,2018-06-29 10:06:37.562500,-3.12,82.72
156979,2018-06-29 10:06:37.593750,-11.7,82.72
156980,2018-06-29 10:06:37.625000,-21.4,82.72
156981,2018-06-29 10:06:37.656250,-29.71,82.72
156982,2018-06-29 10:06:37.687500,-36.39,82.72
156983,2018-06-29 10:06:37.718750,-43.47,82.72
156984,2018-06-29 10:06:37.750000,-52.92,82.72
156985,2018-06-29 10:06:37.781250,-63.72,82.72
156986,2018-06-29 10:06:37.812500,-69.6,82.72
156987,2018-06-29 10:06:37.843750,-62.5,82.72
156988,2018-06-29 10:06:37.875000,-41.43,82.72
156989,2018-06-29 10:06:37.906250,-15.11,82.72
156990,2018-06-29 10:06:37.937500,7.25,82.72
156991,2018-06-29 10:06:37.968750,23.52,82.72
156992,2018-06-29 10:06:38.000000,34.81,82.72
156993,2018-06-29 10:06:38.031250,40.19,82.72
156994,2018-06-29 10:06:38.062500,39.0,82.72
156995,2018-06-29 10:06:38.093750,34.39,82.72
156996,2018-06-29 10:06:38.125000,31.05,82.72
156997,2018-06-29 10:06:38.156250,30.16,82.72
156998,2018-06-29 10:06:38.187500,29.08,82.72
156999,2018-06-29 10:06:38.218750,26.09,82.72
157000,2018-06-29 10:06:38.250000,22.22,82.72
157001,2018-06-29 10:06:38.281250,17.78,82.72
157002,2018-06-29 10:06:38.312500,10.67,82.72
157003,2018-06-29 10:06:38.343750,0.04,82.72
157004,2018-06-29 10:06:38.375000,-11.53,82.72
157005,2018-06-29 10:06:38.406250,-21.72,82.72
157006,2018-06-29 10:06:38.437500,-31.76,82.72
157007,2018-06-29 10:06:38.468750,-44.4,82.72
157008,2018-06-29 10:06:38.500000,-59.87,82.72
157009,2018-06-29 10:06:38.531250,-73.36,82.72
157010,2018-06-29 10:06:38.562500,-75.61,82.72
157011,2018-06-29 10:06:38.593750,-60.53,82.72
157012,2018-06-29 10:06:38.625000,-33.16,82.72
157013,2018-06-29 10:06:38.656250,-5.16,82.72
157014,2018-06-29 10:06:38.687500,16.75,82.72
157015,2018-06-29 10:06:38.718750,33.12,82.72
157016,2018-06-29 10:06:38.750000,45.5,82.72
157017,2018-06-29 10:06:38.781250,53.09,82.72
157018,2018-06-29 10:06:38.812500,54.95,82.72
157019,2018-06-29 10:06:38.843750,52.75,82.72
157020,2018-06-29 10:06:38.875000,49.58,82.72
157021,2018-06-29 10:06:38.906250,47.27,82.72
157022,2018-06-29 10:06:38.937500,46.13,82.72
157023,2018-06-29 10:06:38.968750,45.41,82.72
157024,2018-06-29 10:06:39.000000,42.89,82.72
157025,2018-06-29 10:06:39.031250,36.09,82.72
157026,2018-06-29 10:06:39.062500,25.37,82.72
157027,2018-06-29 10:06:39.093750,14.02,82.72
157028,2018-06-29 10:06:39.125000,4.21,82.72
157029,2018-06-29 10:06:39.156250,-5.42,82.72
157030,2018-06-29 10:06:39.187500,-17.19,82.72
157031,2018-06-29 10:06:39.218750,-30.09,82.72
157032,2018-06-29 10:06:39.250000,-41.39,82.72
157033,2018-06-29 10:06:39.281250,-51.77,82.72
157034,2018-06-29 10:06:39.312500,-65.32,82.72
157035,2018-06-29 10:06:39.343750,-83.89,82.72
157036,2018-06-29 10:06:39.375000,-101.88,82.72
157037,2018-06-29 10:06:39.406250,-107.98,82.72
157038,2018-06-29 10:06:39.437500,-95.8,82.72
157039,2018-06-29 10:06:39.468750,-72.44,82.72
157040,2018-06-29 10:06:39.500000,-51.52,82.72
157041,2018-06-29 10:06:39.531250,-39.96,82.6
157042,2018-06-29 10:06:39.562500,-37.72,82.6
157043,2018-06-29 10:06:39.593750,-46.48,82.6
157044,2018-06-29 10:06:39.625000,-68.99,82.6
157045,2018-06-29 10:06:39.656250,-100.37,82.6
157046,2018-06-29 10:06:39.687500,-127.45,82.6
157047,2018-06-29 10:06:39.718750,-138.51,82.6
157048,2018-06-29 10:06:39.750000,-130.69,82.6
157049,2018-06-29 10:06:39.781250,-109.23,82.6
157050,2018-06-29 10:06:39.812500,-83.23,82.6
157051,2018-06-29 10:06:39.843750,-60.65,82.6
157052,2018-06-29 10:06:39.875000,-43.9,82.6
157053,2018-06-29 10:06:39.906250,-30.21,82.6
157054,2018-06-29 10:06:39.937500,-15.72,82.6
157055,2018-06-29 10:06:39.968750,4.79,82.6
157056,2018-06-29 10:06:40.000000,40.31,82.6
157057,2018-06-29 10:06:40.031250,96.59,82.6
157058,2018-06-29 10:06:40.062500,166.67,82.6
157059,2018-06-29 10:06:40.093750,236.85,82.6
157060,2018-06-29 10:06:40.125000,299.8,82.6
157061,2018-06-29 10:06:40.156250,353.64,82.6
157062,2018-06-29 10:06:40.187500,394.36,82.6
157063,2018-06-29 10:06:40.218750,418.5,82.6
157064,2018-06-29 10:06:40.250000,426.49,82.6
157065,2018-06-29 10:06:40.281250,417.16,82.6
157066,2018-06-29 10:06:40.312500,389.13,82.6
157067,2018-06-29 10:06:40.343750,351.62,82.6
157068,2018-06-29 10:06:40.375000,321.45,82.6
157069,2018-06-29 10:06:40.406250,304.42,82.6
157070,2018-06-29 10:06:40.437500,292.06,82.6
157071,2018-06-29 10:06:40.468750,277.0,82.6
157072,2018-06-29 10:06:40.500000,258.24,82.6
157073,2018-06-29 10:06:40.531250,235.62,82.53
157074,2018-06-29 10:06:40.562500,211.04,82.53
157075,2018-06-29 10:06:40.593750,187.53,82.53
157076,2018-06-29 10:06:40.625000,160.6,82.53
157077,2018-06-29 10:06:40.656250,122.08,82.53
157078,2018-06-29 10:06:40.687500,74.73,82.53
157079,2018-06-29 10:06:40.718750,30.4,82.53
157080,2018-06-29 10:06:40.750000,-6.08,82.53
157081,2018-06-29 10:06:40.781250,-39.27,82.53
157082,2018-06-29 10:06:40.812500,-71.81,82.53
157083,2018-06-29 10:06:40.843750,-100.9,82.53
157084,2018-06-29 10:06:40.875000,-125.94,82.53
157085,2018-06-29 10:06:40.906250,-152.02,82.53
157086,2018-06-29 10:06:40.937500,-183.28,82.53
157087,2018-06-29 10:06:40.968750,-217.17,82.53
157088,2018-06-29 10:06:41.000000,-249.77,82.53
157089,2018-06-29 10:06:41.031250,-283.9,82.53
157090,2018-06-29 10:06:41.062500,-328.24,82.53
157091,2018-06-29 10:06:41.093750,-390.22,82.53
157092,2018-06-29 10:06:41.125000,-463.83,82.53
157093,2018-06-29 10:06:41.156250,-522.59,82.53
157094,2018-06-29 10:06:41.187500,-538.42,82.53
157095,2018-06-29 10:06:41.218750,-511.97,82.53
157096,2018-06-29 10:06:41.250000,-469.12,82.53
157097,2018-06-29 10:06:41.281250,-426.53,82.53
157098,2018-06-29 10:06:41.312500,-376.79,82.53
157099,2018-06-29 10:06:41.343750,-309.19,82.53
157100,2018-06-29 10:06:41.375000,-229.69,82.53
157101,2018-06-29 10:06:41.406250,-154.93,82.53
157102,2018-06-29 10:06:41.437500,-96.7,82.53
157103,2018-06-29 10:06:41.468750,-58.18,82.53
157104,2018-06-29 10:06:41.500000,-35.53,82.53
157105,2018-06-29 10:06:41.531250,-15.53,82.53
157106,2018-06-29 10:06:41.562500,18.77,82.53
157107,2018-06-29 10:06:41.593750,72.33,82.53
157108,2018-06-29 10:06:41.625000,133.52,82.53
157109,2018-06-29 10:06:41.656250,185.89,82.53
157110,2018-06-29 10:06:41.687500,218.92,82.53
157111,2018-06-29 10:06:41.718750,230.0,82.53
157112,2018-06-29 10:06:41.750000,225.83,82.53
157113,2018-06-29 10:06:41.781250,225.6,82.53
157114,2018-06-29 10:06:41.812500,251.81,82.53
157115,2018-06-29 10:06:41.843750,307.45,82.53
157116,2018-06-29 10:06:41.875000,368.06,82.53
157117,2018-06-29 10:06:41.906250,403.55,82.53
157118,2018-06-29 10:06:41.937500,403.38,82.53
157119,2018-06-29 10:06:41.968750,377.13,82.53
157120,2018-06-29 10:06:42.000000,339.38,82.53
157121,2018-06-29 10:06:42.031250,296.43,82.53
157122,2018-06-29 10:06:42.062500,243.34,82.53
157123,2018-06-29 10:06:42.093750,174.89,82.53
157124,2018-06-29 10:06:42.125000,97.09,82.53
157125,2018-06-29 10:06:42.156250,21.87,82.53
157126,2018-06-29 10:06:42.187500,-44.96,82.53
157127,2018-06-29 10:06:42.218750,-105.12,82.53
157128,2018-06-29 10:06:42.250000,-164.36,82.53
157129,2018-06-29 10:06:42.281250,-226.92,82.53
157130,2018-06-29 10:06:42.312500,-284.87,82.53
157131,2018-06-29 10:06:42.343750,-320.58,82.53
157132,2018-06-29 10:06:42.375000,-326.17,82.53
157133,2018-06-29 10:06:42.406250,-308.15,82.53
157134,2018-06-29 10:06:42.437500,-273.44,82.53
157135,2018-06-29 10:06:42.468750,-227.27,82.53
157136,2018-06-29 10:06:42.500000,-177.66,82.53
157137,2018-06-29 10:06:42.531250,-127.44,82.4
157138,2018-06-29 10:06:42.562500,-74.94,82.4
157139,2018-06-29 10:06:42.593750,-28.51,82.4
157140,2018-06-29 10:06:42.625000,-0.79,82.4
157141,2018-06-29 10:06:42.656250,10.44,82.4
157142,2018-06-29 10:06:42.687500,18.08,82.4
157143,2018-06-29 10:06:42.718750,29.68,82.4
157144,2018-06-29 10:06:42.750000,48.9,82.4
157145,2018-06-29 10:06:42.781250,78.92,82.4
157146,2018-06-29 10:06:42.812500,114.08,82.4
157147,2018-06-29 10:06:42.843750,139.97,82.4
157148,2018-06-29 10:06:42.875000,147.14,82.4
157149,2018-06-29 10:06:42.906250,139.11,82.4
157150,2018-06-29 10:06:42.937500,127.74,82.4
157151,2018-06-29 10:06:42.968750,122.34,82.4
157152,2018-06-29 10:06:43.000000,121.03,82.4
157153,2018-06-29 10:06:43.031250,110.43,82.4
157154,2018-06-29 10:06:43.062500,75.82,82.4
157155,2018-06-29 10:06:43.093750,13.92,82.4
157156,2018-06-29 10:06:43.125000,-62.37,82.4
157157,2018-06-29 10:06:43.156250,-131.77,82.4
157158,2018-06-29 10:06:43.187500,-179.58,82.4
157159,2018-06-29 10:06:43.218750,-206.57,82.4
157160,2018-06-29 10:06:43.250000,-223.04,82.4
157161,2018-06-29 10:06:43.281250,-235.76,82.4
157162,2018-06-29 10:06:43.312500,-241.67,82.4
157163,2018-06-29 10:06:43.343750,-234.03,82.4
157164,2018-06-29 10:06:43.375000,-213.2,82.4
157165,2018-06-29 10:06:43.406250,-188.4,82.4
157166,2018-06-29 10:06:43.437500,-167.97,82.4
157167,2018-06-29 10:06:43.468750,-152.74,82.4
157168,2018-06-29 10:06:43.500000,-140.96,82.4
157169,2018-06-29 10:06:43.531250,-134.26,82.22
157170,2018-06-29 10:06:43.562500,-134.27,82.22
157171,2018-06-29 10:06:43.593750,-133.41,82.22
157172,2018-06-29 10:06:43.625000,-113.01,82.22
157173,2018-06-29 10:06:43.656250,-60.31,82.22
157174,2018-06-29 10:06:43.687500,11.37,82.22
157175,2018-06-29 10:06:43.718750,71.88,82.22
157176,2018-06-29 10:06:43.750000,105.52,82.22
157177,2018-06-29 10:06:43.781250,119.03,82.22
157178,2018-06-29 10:06:43.812500,121.68,82.22
157179,2018-06-29 10:06:43.843750,115.69,82.22
157180,2018-06-29 10:06:43.875000,106.59,82.22
157181,2018-06-29 10:06:43.906250,106.53,82.22
157182,2018-06-29 10:06:43.937500,120.03,82.22
157183,2018-06-29 10:06:43.968750,135.26,82.22
157184,2018-06-29 10:06:44.000000,135.72,82.22
157185,2018-06-29 10:06:44.031250,115.93,82.22
157186,2018-06-29 10:06:44.062500,81.68,82.22
157187,2018-06-29 10:06:44.093750,41.56,82.22
157188,2018-06-29 10:06:44.125000,3.51,82.22
157189,2018-06-29 10:06:44.156250,-26.4,82.22
157190,2018-06-29 10:06:44.187500,-46.66,82.22
157191,2018-06-29 10:06:44.218750,-58.43,82.22
157192,2018-06-29 10:06:44.250000,-59.53,82.22
157193,2018-06-29 10:06:44.281250,-43.65,82.22
157194,2018-06-29 10:06:44.312500,-10.71,82.22
157195,2018-06-29 10:06:44.343750,23.41,82.22
157196,2018-06-29 10:06:44.375000,36.3,82.22
157197,2018-06-29 10:06:44.406250,21.81,82.22
157198,2018-06-29 10:06:44.437500,-5.54,82.22
157199,2018-06-29 10:06:44.468750,-31.03,82.22
157200,2018-06-29 10:06:44.500000,-51.98,82.22
157201,2018-06-29 10:06:44.531250,-67.3,81.85
157202,2018-06-29 10:06:44.562500,-70.52,81.85
157203,2018-06-29 10:06:44.593750,-58.86,81.85
157204,2018-06-29 10:06:44.625000,-39.4,81.85
157205,2018-06-29 10:06:44.656250,-21.11,81.85
157206,2018-06-29 10:06:44.687500,-7.27,81.85
157207,2018-06-29 10:06:44.718750,2.25,81.85
157208,2018-06-29 10:06:44.750000,6.71,81.85
157209,2018-06-29 10:06:44.781250,5.48,81.85
157210,2018-06-29 10:06:44.812500,-0.68,81.85
157211,2018-06-29 10:06:44.843750,-10.03,81.85
157212,2018-06-29 10:06:44.875000,-18.69,81.85
157213,2018-06-29 10:06:44.906250,-22.56,81.85
157214,2018-06-29 10:06:44.937500,-22.64,81.85
157215,2018-06-29 10:06:44.968750,-22.29,81.85
157216,2018-06-29 10:06:45.000000,-21.72,81.85
157217,2018-06-29 10:06:45.031250,-22.35,81.85
157218,2018-06-29 10:06:45.062500,-32.44,81.85
157219,2018-06-29 10:06:45.093750,-61.11,81.85
157220,2018-06-29 10:06:45.125000,-104.16,81.85
157221,2018-06-29 10:06:45.156250,-140.06,81.85
157222,2018-06-29 10:06:45.187500,-149.45,81.85
157223,2018-06-29 10:06:45.218750,-137.04,81.85
157224,2018-06-29 10:06:45.250000,-122.03,81.85
157225,2018-06-29 10:06:45.281250,-114.59,81.85
157226,2018-06-29 10:06:45.312500,-113.79,81.85
157227,2018-06-29 10:06:45.343750,-113.06,81.85
157228,2018-06-29 10:06:45.375000,-98.71,81.85
157229,2018-06-29 10:06:45.406250,-59.88,81.85
157230,2018-06-29 10:06:45.437500,-1.4,81.85
157231,2018-06-29 10:06:45.468750,64.24,81.85
157232,2018-06-29 10:06:45.500000,130.36,81.85
157233,2018-06-29 10:06:45.531250,194.34,81.47
157234,2018-06-29 10:06:45.562500,249.94,81.47
157235,2018-06-29 10:06:45.593750,284.15,81.47
157236,2018-06-29 10:06:45.625000,282.46,81.47
157237,2018-06-29 10:06:45.656250,243.34,81.47
157238,2018-06-29 10:06:45.687500,186.71,81.47
157239,2018-06-29 10:06:45.718750,137.91,81.47
157240,2018-06-29 10:06:45.750000,103.79,81.47
157241,2018-06-29 10:06:45.781250,72.03,81.47
157242,2018-06-29 10:06:45.812500,31.81,81.47
157243,2018-06-29 10:06:45.843750,-13.24,81.47
157244,2018-06-29 10:06:45.875000,-52.76,81.47
157245,2018-06-29 10:06:45.906250,-82.47,81.47
157246,2018-06-29 10:06:45.937500,-105.29,81.47
157247,2018-06-29 10:06:45.968750,-124.28,81.47
157248,2018-06-29 10:06:46.000000,-138.32,81.47
157249,2018-06-29 10:06:46.031250,-142.43,81.47
157250,2018-06-29 10:06:46.062500,-131.22,81.47
157251,2018-06-29 10:06:46.093750,-107.38,81.47
157252,2018-06-29 10:06:46.125000,-81.15,81.47
157253,2018-06-29 10:06:46.156250,-51.1,81.47
157254,2018-06-29 10:06:46.187500,-0.69,81.47
157255,2018-06-29 10:06:46.218750,69.24,81.47
157256,2018-06-29 10:06:46.250000,127.51,81.47
157257,2018-06-29 10:06:46.281250,149.94,81.47
157258,2018-06-29 10:06:46.312500,143.11,81.47
157259,2018-06-29 10:06:46.343750,123.09,81.47
157260,2018-06-29 10:06:46.375000,100.42,81.47
157261,2018-06-29 10:06:46.406250,85.63,81.47
157262,2018-06-29 10:06:46.437500,81.67,81.47
157263,2018-06-29 10:06:46.468750,76.69,81.47
157264,2018-06-29 10:06:46.500000,62.04,81.47
157265,2018-06-29 10:06:46.531250,45.89,81.08
157266,2018-06-29 10:06:46.562500,38.1,81.08
157267,2018-06-29 10:06:46.593750,34.48,81.08
157268,2018-06-29 10:06:46.625000,23.46,81.08
157269,2018-06-29 10:06:46.656250,-0.25,81.08
157270,2018-06-29 10:06:46.687500,-32.23,81.08
157271,2018-06-29 10:06:46.718750,-62.61,81.08
157272,2018-06-29 10:06:46.750000,-83.34,81.08
157273,2018-06-29 10:06:46.781250,-91.1,81.08
157274,2018-06-29 10:06:46.812500,-83.09,81.08
157275,2018-06-29 10:06:46.843750,-58.18,81.08
157276,2018-06-29 10:06:46.875000,-23.75,81.08
157277,2018-06-29 10:06:46.906250,7.14,81.08
157278,2018-06-29 10:06:46.937500,28.88,81.08
157279,2018-06-29 10:06:46.968750,43.16,81.08
157280,2018-06-29 10:06:47.000000,49.43,81.08
157281,2018-06-29 10:06:47.031250,46.07,81.08
157282,2018-06-29 10:06:47.062500,39.47,81.08
157283,2018-06-29 10:06:47.093750,39.77,81.08
157284,2018-06-29 10:06:47.125000,46.15,81.08
157285,2018-06-29 10:06:47.156250,52.05,81.08
157286,2018-06-29 10:06:47.187500,53.31,81.08
157287,2018-06-29 10:06:47.218750,50.69,81.08
157288,2018-06-29 10:06:47.250000,39.97,81.08
157289,2018-06-29 10:06:47.281250,18.54,81.08
157290,2018-06-29 10:06:47.312500,-9.35,81.08
157291,2018-06-29 10:06:47.343750,-39.47,81.08
157292,2018-06-29 10:06:47.375000,-70.36,81.08
157293,2018-06-29 10:06:47.406250,-105.66,81.08
157294,2018-06-29 10:06:47.437500,-136.51,81.08
157295,2018-06-29 10:06:47.468750,-157.34,81.08
157296,2018-06-29 10:06:47.500000,-167.02,81.08
157297,2018-06-29 10:06:47.531250,-169.67,80.8
157298,2018-06-29 10:06:47.562500,-158.65,80.8
157299,2018-06-29 10:06:47.593750,-127.02,80.8
157300,2018-06-29 10:06:47.625000,-83.31,80.8
157301,2018-06-29 10:06:47.656250,-0.61,80.8
157302,2018-06-29 10:06:47.687500,83.79,80.8
157303,2018-06-29 10:06:47.718750,104.37,80.8
157304,2018-06-29 10:06:47.750000,62.56,80.8
157305,2018-06-29 10:06:47.781250,-12.7,80.8
157306,2018-06-29 10:06:47.812500,-97.36,80.8
157307,2018-06-29 10:06:47.843750,-172.36,80.8
157308,2018-06-29 10:06:47.875000,-221.92,80.8
157309,2018-06-29 10:06:47.906250,-252.89,80.8
157310,2018-06-29 10:06:47.937500,-271.4,80.8
157311,2018-06-29 10:06:47.968750,-266.38,80.8
157312,2018-06-29 10:06:48.000000,-206.09,80.8
157313,2018-06-29 10:06:48.031250,-107.85,80.8
157314,2018-06-29 10:06:48.062500,-21.12,80.8
157315,2018-06-29 10:06:48.093750,26.95,80.8
157316,2018-06-29 10:06:48.125000,36.25,80.8
157317,2018-06-29 10:06:48.156250,10.94,80.8
157318,2018-06-29 10:06:48.187500,-32.35,80.8
157319,2018-06-29 10:06:48.218750,-60.6,80.8
157320,2018-06-29 10:06:48.250000,-57.31,80.8
157321,2018-06-29 10:06:48.281250,-25.64,80.8
157322,2018-06-29 10:06:48.312500,21.4,80.8
157323,2018-06-29 10:06:48.343750,66.16,80.8
157324,2018-06-29 10:06:48.375000,85.81,80.8
157325,2018-06-29 10:06:48.406250,73.62,80.8
157326,2018-06-29 10:06:48.437500,51.16,80.8
157327,2018-06-29 10:06:48.468750,47.07,80.8
157328,2018-06-29 10:06:48.500000,68.64,80.8
157329,2018-06-29 10:06:48.531250,100.79,80.5
157330,2018-06-29 10:06:48.562500,128.63,80.5
157331,2018-06-29 10:06:48.593750,148.8,80.5
157332,2018-06-29 10:06:48.625000,162.2,80.5
157333,2018-06-29 10:06:48.656250,166.57,80.5
157334,2018-06-29 10:06:48.687500,162.22,80.5
157335,2018-06-29 10:06:48.718750,155.98,80.5
157336,2018-06-29 10:06:48.750000,153.45,80.5
157337,2018-06-29 10:06:48.781250,153.54,80.5
157338,2018-06-29 10:06:48.812500,153.64,80.5
157339,2018-06-29 10:06:48.843750,153.1,80.5
157340,2018-06-29 10:06:48.875000,149.6,80.5
157341,2018-06-29 10:06:48.906250,139.56,80.5
157342,2018-06-29 10:06:48.937500,122.5,80.5
157343,2018-06-29 10:06:48.968750,100.74,80.5
157344,2018-06-29 10:06:49.000000,77.6,80.5
157345,2018-06-29 10:06:49.031250,57.2,80.5
157346,2018-06-29 10:06:49.062500,41.53,80.5
157347,2018-06-29 10:06:49.093750,27.06,80.5
157348,2018-06-29 10:06:49.125000,8.27,80.5
157349,2018-06-29 10:06:49.156250,-15.19,80.5
157350,2018-06-29 10:06:49.187500,-38.03,80.5
157351,2018-06-29 10:06:49.218750,-56.59,80.5
157352,2018-06-29 10:06:49.250000,-74.71,80.5
157353,2018-06-29 10:06:49.281250,-100.56,80.5
157354,2018-06-29 10:06:49.312500,-135.31,80.5
157355,2018-06-29 10:06:49.343750,-165.7,80.5
157356,2018-06-29 10:06:49.375000,-173.61,80.5
157357,2018-06-29 10:06:49.406250,-155.82,80.5
157358,2018-06-29 10:06:49.437500,-125.94,80.5
157359,2018-06-29 10:06:49.468750,-95.08,80.5
157360,2018-06-29 10:06:49.500000,-62.59,80.5
157361,2018-06-29 10:06:49.531250,-28.15,80.23
157362,2018-06-29 10:06:49.562500,0.16,80.23
157363,2018-06-29 10:06:49.593750,14.75,80.23
157364,2018-06-29 10:06:49.625000,18.3,80.23
157365,2018-06-29 10:06:49.656250,23.07,80.23
157366,2018-06-29 10:06:49.687500,40.77,80.23
157367,2018-06-29 10:06:49.718750,70.48,80.23
157368,2018-06-29 10:06:49.750000,98.13,80.23
157369,2018-06-29 10:06:49.781250,109.98,80.23
157370,2018-06-29 10:06:49.812500,104.99,80.23
157371,2018-06-29 10:06:49.843750,93.27,80.23
157372,2018-06-29 10:06:49.875000,84.7,80.23
157373,2018-06-29 10:06:49.906250,80.92,80.23
157374,2018-06-29 10:06:49.937500,77.15,80.23
157375,2018-06-29 10:06:49.968750,70.51,80.23
157376,2018-06-29 10:06:50.000000,64.67,80.23
157377,2018-06-29 10:06:50.031250,65.46,80.23
157378,2018-06-29 10:06:50.062500,73.74,80.23
157379,2018-06-29 10:06:50.093750,84.76,80.23
157380,2018-06-29 10:06:50.125000,92.81,80.23
157381,2018-06-29 10:06:50.156250,93.12,80.23
157382,2018-06-29 10:06:50.187500,81.87,80.23
157383,2018-06-29 10:06:50.218750,58.25,80.23
157384,2018-06-29 10:06:50.250000,28.27,80.23
157385,2018-06-29 10:06:50.281250,6.03,80.23
157386,2018-06-29 10:06:50.312500,5.69,80.23
157387,2018-06-29 10:06:50.343750,27.6,80.23
157388,2018-06-29 10:06:50.375000,57.51,80.23
157389,2018-06-29 10:06:50.406250,82.36,80.23
157390,2018-06-29 10:06:50.437500,99.32,80.23
157391,2018-06-29 10:06:50.468750,109.88,80.23
157392,2018-06-29 10:06:50.500000,114.11,80.23
157393,2018-06-29 10:06:50.531250,112.1,79.93
157394,2018-06-29 10:06:50.562500,106.18,79.93
157395,2018-06-29 10:06:50.593750,99.87,79.93
157396,2018-06-29 10:06:50.625000,94.82,79.93
157397,2018-06-29 10:06:50.656250,90.23,79.93
157398,2018-06-29 10:06:50.687500,84.63,79.93
157399,2018-06-29 10:06:50.718750,76.55,79.93
157400,2018-06-29 10:06:50.750000,64.37,79.93
157401,2018-06-29 10:06:50.781250,48.24,79.93
157402,2018-06-29 10:06:50.812500,30.37,79.93
157403,2018-06-29 10:06:50.843750,12.61,79.93
157404,2018-06-29 10:06:50.875000,-4.4,79.93
157405,2018-06-29 10:06:50.906250,-19.7,79.93
157406,2018-06-29 10:06:50.937500,-32.3,79.93
157407,2018-06-29 10:06:50.968750,-43.23,79.93
157408,2018-06-29 10:06:51.000000,-54.59,79.93
157409,2018-06-29 10:06:51.031250,-66.24,79.93
157410,2018-06-29 10:06:51.062500,-76.05,79.93
157411,2018-06-29 10:06:51.093750,-83.74,79.93
157412,2018-06-29 10:06:51.125000,-92.42,79.93
157413,2018-06-29 10:06:51.156250,-105.87,79.93
157414,2018-06-29 10:06:51.187500,-122.48,79.93
157415,2018-06-29 10:06:51.218750,-130.54,79.93
157416,2018-06-29 10:06:51.250000,-115.78,79.93
157417,2018-06-29 10:06:51.281250,-77.68,79.93
157418,2018-06-29 10:06:51.312500,-31.86,79.93
157419,2018-06-29 10:06:51.343750,6.36,79.93
157420,2018-06-29 10:06:51.375000,33.3,79.93
157421,2018-06-29 10:06:51.406250,51.33,79.93
157422,2018-06-29 10:06:51.437500,61.17,79.93
157423,2018-06-29 10:06:51.468750,62.81,79.93
157424,2018-06-29 10:06:51.500000,58.94,79.93
157425,2018-06-29 10:06:51.531250,54.05,79.65
157426,2018-06-29 10:06:51.562500,50.47,79.65
157427,2018-06-29 10:06:51.593750,47.37,79.65
157428,2018-06-29 10:06:51.625000,43.83,79.65
157429,2018-06-29 10:06:51.656250,39.5,79.65
157430,2018-06-29 10:06:51.687500,32.92,79.65
157431,2018-06-29 10:06:51.718750,22.83,79.65
157432,2018-06-29 10:06:51.750000,10.63,79.65
157433,2018-06-29 10:06:51.781250,-1.2,79.65
157434,2018-06-29 10:06:51.812500,-11.99,79.65
157435,2018-06-29 10:06:51.843750,-22.72,79.65
157436,2018-06-29 10:06:51.875000,-34.03,79.65
157437,2018-06-29 10:06:51.906250,-44.31,79.65
157438,2018-06-29 10:06:51.937500,-50.21,79.65
157439,2018-06-29 10:06:51.968750,-50.17,79.65
157440,2018-06-29 10:06:52.000000,-46.61,79.65
157441,2018-06-29 10:06:52.031250,-43.51,79.65
157442,2018-06-29 10:06:52.062500,-43.4,79.65
157443,2018-06-29 10:06:52.093750,-44.98,79.65
157444,2018-06-29 10:06:52.125000,-40.65,79.65
157445,2018-06-29 10:06:52.156250,-21.95,79.65
157446,2018-06-29 10:06:52.187500,9.31,79.65
157447,2018-06-29 10:06:52.218750,41.21,79.65
157448,2018-06-29 10:06:52.250000,63.38,79.65
157449,2018-06-29 10:06:52.281250,72.91,79.65
157450,2018-06-29 10:06:52.312500,70.97,79.65
157451,2018-06-29 10:06:52.343750,60.01,79.65
157452,2018-06-29 10:06:52.375000,44.34,79.65
157453,2018-06-29 10:06:52.406250,29.86,79.65
157454,2018-06-29 10:06:52.437500,20.92,79.65
157455,2018-06-29 10:06:52.468750,17.48,79.65
157456,2018-06-29 10:06:52.500000,16.61,79.65
157457,2018-06-29 10:06:52.531250,15.91,79.37
157458,2018-06-29 10:06:52.562500,13.98,79.37
157459,2018-06-29 10:06:52.593750,9.6,79.37
157460,2018-06-29 10:06:52.625000,2.57,79.37
157461,2018-06-29 10:06:52.656250,-5.59,79.37
157462,2018-06-29 10:06:52.687500,-12.95,79.37
157463,2018-06-29 10:06:52.718750,-19.7,79.37
157464,2018-06-29 10:06:52.750000,-28.07,79.37
157465,2018-06-29 10:06:52.781250,-38.58,79.37
157466,2018-06-29 10:06:52.812500,-48.65,79.37
157467,2018-06-29 10:06:52.843750,-56.21,79.37
157468,2018-06-29 10:06:52.875000,-62.9,79.37
157469,2018-06-29 10:06:52.906250,-72.01,79.37
157470,2018-06-29 10:06:52.937500,-84.07,79.37
157471,2018-06-29 10:06:52.968750,-93.17,79.37
157472,2018-06-29 10:06:53.000000,-88.79,79.37
157473,2018-06-29 10:06:53.031250,-65.95,79.37
157474,2018-06-29 10:06:53.062500,-32.32,79.37
157475,2018-06-29 10:06:53.093750,-0.71,79.37
157476,2018-06-29 10:06:53.125000,22.5,79.37
157477,2018-06-29 10:06:53.156250,37.44,79.37
157478,2018-06-29 10:06:53.187500,44.72,79.37
157479,2018-06-29 10:06:53.218750,45.11,79.37
157480,2018-06-29 10:06:53.250000,41.81,79.37
157481,2018-06-29 10:06:53.281250,38.56,79.37
157482,2018-06-29 10:06:53.312500,36.49,79.37
157483,2018-06-29 10:06:53.343750,34.74,79.37
157484,2018-06-29 10:06:53.375000,33.04,79.37
157485,2018-06-29 10:06:53.406250,31.22,79.37
157486,2018-06-29 10:06:53.437500,27.3,79.37
157487,2018-06-29 10:06:53.468750,19.13,79.37
157488,2018-06-29 10:06:53.500000,8.18,79.37
157489,2018-06-29 10:06:53.531250,-1.8,79.1
157490,2018-06-29 10:06:53.562500,-9.73,79.1
157491,2018-06-29 10:06:53.593750,-17.34,79.1
157492,2018-06-29 10:06:53.625000,-25.05,79.1
157493,2018-06-29 10:06:53.656250,-31.41,79.1
157494,2018-06-29 10:06:53.687500,-35.96,79.1
157495,2018-06-29 10:06:53.718750,-39.69,79.1
157496,2018-06-29 10:06:53.750000,-43.01,79.1
157497,2018-06-29 10:06:53.781250,-44.02,79.1
157498,2018-06-29 10:06:53.812500,-37.77,79.1
157499,2018-06-29 10:06:53.843750,-18.82,79.1
157500,2018-06-29 10:06:53.875000,12.53,79.1
157501,2018-06-29 10:06:53.906250,47.18,79.1
157502,2018-06-29 10:06:53.937500,71.62,79.1
157503,2018-06-29 10:06:53.968750,76.22,79.1
157504,2018-06-29 10:06:54.000000,60.36,79.1
157505,2018-06-29 10:06:54.031250,31.52,79.1
157506,2018-06-29 10:06:54.062500,0.82,79.1
157507,2018-06-29 10:06:54.093750,-21.44,79.1
157508,2018-06-29 10:06:54.125000,-29.91,79.1
157509,2018-06-29 10:06:54.156250,-25.58,79.1
157510,2018-06-29 10:06:54.187500,-11.62,79.1
157511,2018-06-29 10:06:54.218750,10.23,79.1
157512,2018-06-29 10:06:54.250000,36.05,79.1
157513,2018-06-29 10:06:54.281250,56.09,79.1
157514,2018-06-29 10:06:54.312500,62.02,79.1
157515,2018-06-29 10:06:54.343750,55.32,79.1
157516,2018-06-29 10:06:54.375000,43.09,79.1
157517,2018-06-29 10:06:54.406250,29.05,79.1
157518,2018-06-29 10:06:54.437500,15.61,79.1
157519,2018-06-29 10:06:54.468750,10.79,79.1
157520,2018-06-29 10:06:54.500000,26.09,79.1
157521,2018-06-29 10:06:54.531250,67.78,78.85
157522,2018-06-29 10:06:54.562500,128.7,78.85
157523,2018-06-29 10:06:54.593750,187.3,78.85
157524,2018-06-29 10:06:54.625000,223.39,78.85
157525,2018-06-29 10:06:54.656250,236.13,78.85
157526,2018-06-29 10:06:54.687500,237.2,78.85
157527,2018-06-29 10:06:54.718750,230.68,78.85
157528,2018-06-29 10:06:54.750000,212.04,78.85
157529,2018-06-29 10:06:54.781250,179.61,78.85
157530,2018-06-29 10:06:54.812500,133.99,78.85
157531,2018-06-29 10:06:54.843750,73.85,78.85
157532,2018-06-29 10:06:54.875000,0.62,78.85
157533,2018-06-29 10:06:54.906250,-79.39,78.85
157534,2018-06-29 10:06:54.937500,-158.19,78.85
157535,2018-06-29 10:06:54.968750,-225.44,78.85
157536,2018-06-29 10:06:55.000000,-269.61,78.85
157537,2018-06-29 10:06:55.031250,-287.25,78.85
157538,2018-06-29 10:06:55.062500,-284.6,78.85
157539,2018-06-29 10:06:55.093750,-269.23,78.85
157540,2018-06-29 10:06:55.125000,-248.99,78.85
157541,2018-06-29 10:06:55.156250,-233.38,78.85
157542,2018-06-29 10:06:55.187500,-223.75,78.85
157543,2018-06-29 10:06:55.218750,-208.17,78.85
157544,2018-06-29 10:06:55.250000,-176.02,78.85
157545,2018-06-29 10:06:55.281250,-133.29,78.85
157546,2018-06-29 10:06:55.312500,-96.82,78.85
157547,2018-06-29 10:06:55.343750,-77.13,78.85
157548,2018-06-29 10:06:55.375000,-71.65,78.85
157549,2018-06-29 10:06:55.406250,-70.44,78.85
157550,2018-06-29 10:06:55.437500,-63.33,78.85
157551,2018-06-29 10:06:55.468750,-45.8,78.85
157552,2018-06-29 10:06:55.500000,-23.74,78.85
157553,2018-06-29 10:06:55.531250,-9.58,78.58
157554,2018-06-29 10:06:55.562500,-10.51,78.58
157555,2018-06-29 10:06:55.593750,-22.08,78.58
157556,2018-06-29 10:06:55.625000,-34.88,78.58
157557,2018-06-29 10:06:55.656250,-43.62,78.58
157558,2018-06-29 10:06:55.687500,-47.96,78.58
157559,2018-06-29 10:06:55.718750,-48.51,78.58
157560,2018-06-29 10:06:55.750000,-45.95,78.58
157561,2018-06-29 10:06:55.781250,-42.75,78.58
157562,2018-06-29 10:06:55.812500,-41.51,78.58
157563,2018-06-29 10:06:55.843750,-41.33,78.58
157564,2018-06-29 10:06:55.875000,-39.43,78.58
157565,2018-06-29 10:06:55.906250,-35.69,78.58
157566,2018-06-29 10:06:55.937500,-32.66,78.58
157567,2018-06-29 10:06:55.968750,-31.2,78.58
157568,2018-06-29 10:06:56.000000,-29.9,78.58
157569,2018-06-29 10:06:56.031250,-27.04,78.58
157570,2018-06-29 10:06:56.062500,-21.01,78.58
157571,2018-06-29 10:06:56.093750,-11.38,78.58
157572,2018-06-29 10:06:56.125000,-0.36,78.58
157573,2018-06-29 10:06:56.156250,11.12,78.58
157574,2018-06-29 10:06:56.187500,26.89,78.58
157575,2018-06-29 10:06:56.218750,49.88,78.58
157576,2018-06-29 10:06:56.250000,75.69,78.58
157577,2018-06-29 10:06:56.281250,98.4,78.58
157578,2018-06-29 10:06:56.312500,118.29,78.58
157579,2018-06-29 10:06:56.343750,137.59,78.58
157580,2018-06-29 10:06:56.375000,154.35,78.58
157581,2018-06-29 10:06:56.406250,165.75,78.58
157582,2018-06-29 10:06:56.437500,171.32,78.58
157583,2018-06-29 10:06:56.468750,169.35,78.58
157584,2018-06-29 10:06:56.500000,155.49,78.58
157585,2018-06-29 10:06:56.531250,125.9,78.37
157586,2018-06-29 10:06:56.562500,79.41,78.37
157587,2018-06-29 10:06:56.593750,21.17,78.37
157588,2018-06-29 10:06:56.625000,-35.96,78.37
157589,2018-06-29 10:06:56.656250,-82.44,78.37
157590,2018-06-29 10:06:56.687500,-119.5,78.37
157591,2018-06-29 10:06:56.718750,-147.58,78.37
157592,2018-06-29 10:06:56.750000,-161.32,78.37
157593,2018-06-29 10:06:56.781250,-163.45,78.37
157594,2018-06-29 10:06:56.812500,-167.34,78.37
157595,2018-06-29 10:06:56.843750,-180.42,78.37
157596,2018-06-29 10:06:56.875000,-196.6,78.37
157597,2018-06-29 10:06:56.906250,-205.27,78.37
157598,2018-06-29 10:06:56.937500,-199.55,78.37
157599,2018-06-29 10:06:56.968750,-175.3,78.37
157600,2018-06-29 10:06:57.000000,-130.35,78.37
157601,2018-06-29 10:06:57.031250,-71.97,78.37
157602,2018-06-29 10:06:57.062500,-20.98,78.37
157603,2018-06-29 10:06:57.093750,3.2,78.37
157604,2018-06-29 10:06:57.125000,1.99,78.37
157605,2018-06-29 10:06:57.156250,-4.85,78.37
157606,2018-06-29 10:06:57.187500,0.58,78.37
157607,2018-06-29 10:06:57.218750,20.89,78.37
157608,2018-06-29 10:06:57.250000,47.28,78.37
157609,2018-06-29 10:06:57.281250,70.61,78.37
157610,2018-06-29 10:06:57.312500,87.74,78.37
157611,2018-06-29 10:06:57.343750,100.68,78.37
157612,2018-06-29 10:06:57.375000,111.44,78.37
157613,2018-06-29 10:06:57.406250,117.12,78.37
157614,2018-06-29 10:06:57.437500,112.55,78.37
157615,2018-06-29 10:06:57.468750,98.73,78.37
157616,2018-06-29 10:06:57.500000,82.68,78.37
157617,2018-06-29 10:06:57.531250,68.51,78.15
157618,2018-06-29 10:06:57.562500,54.63,78.15
157619,2018-06-29 10:06:57.593750,38.52,78.15
157620,2018-06-29 10:06:57.625000,20.28,78.15
157621,2018-06-29 10:06:57.656250,1.85,78.15
157622,2018-06-29 10:06:57.687500,-17.46,78.15
157623,2018-06-29 10:06:57.718750,-40.56,78.15
157624,2018-06-29 10:06:57.750000,-61.43,78.15
157625,2018-06-29 10:06:57.781250,-64.1,78.15
157626,2018-06-29 10:06:57.812500,-42.02,78.15
157627,2018-06-29 10:06:57.843750,-6.4,78.15
157628,2018-06-29 10:06:57.875000,27.66,78.15
157629,2018-06-29 10:06:57.906250,50.32,78.15
157630,2018-06-29 10:06:57.937500,55.87,78.15
157631,2018-06-29 10:06:57.968750,45.76,78.15
157632,2018-06-29 10:06:58.000000,28.98,78.15
157633,2018-06-29 10:06:58.031250,13.68,78.15
157634,2018-06-29 10:06:58.062500,2.41,78.15
157635,2018-06-29 10:06:58.093750,-6.25,78.15
157636,2018-06-29 10:06:58.125000,-15.38,78.15
157637,2018-06-29 10:06:58.156250,-25.72,78.15
157638,2018-06-29 10:06:58.187500,-33.7,78.15
157639,2018-06-29 10:06:58.218750,-36.91,78.15
157640,2018-06-29 10:06:58.250000,-38.42,78.15
157641,2018-06-29 10:06:58.281250,-40.66,78.15
157642,2018-06-29 10:06:58.312500,-38.58,78.15
157643,2018-06-29 10:06:58.343750,-26.29,78.15
157644,2018-06-29 10:06:58.375000,-8.09,78.15
157645,2018-06-29 10:06:58.406250,5.2,78.15
157646,2018-06-29 10:06:58.437500,9.83,78.15
157647,2018-06-29 10:06:58.468750,12.07,78.15
157648,2018-06-29 10:06:58.500000,18.15,78.15
157649,2018-06-29 10:06:58.531250,26.75,77.82
157650,2018-06-29 10:06:58.562500,31.21,77.82
157651,2018-06-29 10:06:58.593750,25.71,77.82
157652,2018-06-29 10:06:58.625000,12.1,77.82
157653,2018-06-29 10:06:58.656250,1.3,77.82
157654,2018-06-29 10:06:58.687500,2.93,77.82
157655,2018-06-29 10:06:58.718750,14.18,77.82
157656,2018-06-29 10:06:58.750000,25.09,77.82
157657,2018-06-29 10:06:58.781250,31.46,77.82
157658,2018-06-29 10:06:58.812500,35.13,77.82
157659,2018-06-29 10:06:58.843750,35.8,77.82
157660,2018-06-29 10:06:58.875000,30.93,77.82
157661,2018-06-29 10:06:58.906250,20.99,77.82
157662,2018-06-29 10:06:58.937500,9.25,77.82
157663,2018-06-29 10:06:58.968750,-2.45,77.82
157664,2018-06-29 10:06:59.000000,-12.86,77.82
157665,2018-06-29 10:06:59.031250,-17.82,77.82
157666,2018-06-29 10:06:59.062500,-15.0,77.82
157667,2018-06-29 10:06:59.093750,-10.78,77.82
157668,2018-06-29 10:06:59.125000,-12.97,77.82
157669,2018-06-29 10:06:59.156250,-18.46,77.82
157670,2018-06-29 10:06:59.187500,-20.16,77.82
157671,2018-06-29 10:06:59.218750,-21.56,77.82
157672,2018-06-29 10:06:59.250000,-30.99,77.82
157673,2018-06-29 10:06:59.281250,-46.63,77.82
157674,2018-06-29 10:06:59.312500,-59.23,77.82
157675,2018-06-29 10:06:59.343750,-64.25,77.82
157676,2018-06-29 10:06:59.375000,-65.1,77.82
157677,2018-06-29 10:06:59.406250,-68.17,77.82
157678,2018-06-29 10:06:59.437500,-74.99,77.82
157679,2018-06-29 10:06:59.468750,-78.9,77.82
157680,2018-06-29 10:06:59.500000,-74.35,77.82
157681,2018-06-29 10:06:59.531250,-66.68,77.5
157682,2018-06-29 10:06:59.562500,-63.44,77.5
157683,2018-06-29 10:06:59.593750,-59.01,77.5
157684,2018-06-29 10:06:59.625000,-41.01,77.5
157685,2018-06-29 10:06:59.656250,-9.66,77.5
157686,2018-06-29 10:06:59.687500,23.07,77.5
157687,2018-06-29 10:06:59.718750,53.55,77.5
157688,2018-06-29 10:06:59.750000,93.44,77.5
157689,2018-06-29 10:06:59.781250,153.85,77.5
157690,2018-06-29 10:06:59.812500,230.76,77.5
157691,2018-06-29 10:06:59.843750,305.84,77.5
157692,2018-06-29 10:06:59.875000,355.09,77.5
157693,2018-06-29 10:06:59.906250,356.94,77.5
157694,2018-06-29 10:06:59.937500,303.51,77.5
157695,2018-06-29 10:06:59.968750,210.78,77.5
157696,2018-06-29 10:07:00.000000,111.01,77.5
157697,2018-06-29 10:07:00.031250,29.79,77.5
157698,2018-06-29 10:07:00.062500,-27.53,77.5
157699,2018-06-29 10:07:00.093750,-68.14,77.5
157700,2018-06-29 10:07:00.125000,-98.7,77.5
157701,2018-06-29 10:07:00.156250,-120.91,77.5
157702,2018-06-29 10:07:00.187500,-135.31,77.5
157703,2018-06-29 10:07:00.218750,-143.94,77.5
157704,2018-06-29 10:07:00.250000,-149.87,77.5
157705,2018-06-29 10:07:00.281250,-156.24,77.5
157706,2018-06-29 10:07:00.312500,-162.88,77.5
157707,2018-06-29 10:07:00.343750,-166.44,77.5
157708,2018-06-29 10:07:00.375000,-169.99,77.5
157709,2018-06-29 10:07:00.406250,-184.8,77.5
157710,2018-06-29 10:07:00.437500,-209.28,77.5
157711,2018-06-29 10:07:00.468750,-219.1,77.5
157712,2018-06-29 10:07:00.500000,-194.74,77.5
157713,2018-06-29 10:07:00.531250,-143.45,77.22
157714,2018-06-29 10:07:00.562500,-82.2,77.22
157715,2018-06-29 10:07:00.593750,-19.45,77.22
157716,2018-06-29 10:07:00.625000,38.87,77.22
157717,2018-06-29 10:07:00.656250,87.45,77.22
157718,2018-06-29 10:07:00.687500,131.94,77.22
157719,2018-06-29 10:07:00.718750,181.34,77.22
157720,2018-06-29 10:07:00.750000,228.4,77.22
157721,2018-06-29 10:07:00.781250,252.79,77.22
157722,2018-06-29 10:07:00.812500,246.36,77.22
157723,2018-06-29 10:07:00.843750,222.44,77.22
157724,2018-06-29 10:07:00.875000,198.61,77.22
157725,2018-06-29 10:07:00.906250,180.67,77.22
157726,2018-06-29 10:07:00.937500,162.89,77.22
157727,2018-06-29 10:07:00.968750,135.69,77.22
157728,2018-06-29 10:07:01.000000,95.23,77.22
157729,2018-06-29 10:07:01.031250,47.88,77.22
157730,2018-06-29 10:07:01.062500,2.38,77.22
157731,2018-06-29 10:07:01.093750,-38.56,77.22
157732,2018-06-29 10:07:01.125000,-74.88,77.22
157733,2018-06-29 10:07:01.156250,-105.56,77.22
157734,2018-06-29 10:07:01.187500,-133.21,77.22
157735,2018-06-29 10:07:01.218750,-162.83,77.22
157736,2018-06-29 10:07:01.250000,-188.92,77.22
157737,2018-06-29 10:07:01.281250,-192.24,77.22
157738,2018-06-29 10:07:01.312500,-161.21,77.22
157739,2018-06-29 10:07:01.343750,-110.15,77.22
157740,2018-06-29 10:07:01.375000,-63.77,77.22
157741,2018-06-29 10:07:01.406250,-30.38,77.22
157742,2018-06-29 10:07:01.437500,-4.59,77.22
157743,2018-06-29 10:07:01.468750,11.77,77.22
157744,2018-06-29 10:07:01.500000,11.32,77.22
157745,2018-06-29 10:07:01.531250,0.15,76.98
157746,2018-06-29 10:07:01.562500,-5.09,76.98
157747,2018-06-29 10:07:01.593750,1.23,76.98
157748,2018-06-29 10:07:01.625000,9.7,76.98
157749,2018-06-29 10:07:01.656250,12.37,76.98
157750,2018-06-29 10:07:01.687500,10.18,76.98
157751,2018-06-29 10:07:01.718750,3.25,76.98
157752,2018-06-29 10:07:01.750000,-12.65,76.98
157753,2018-06-29 10:07:01.781250,-34.41,76.98
157754,2018-06-29 10:07:01.812500,-48.04,76.98
157755,2018-06-29 10:07:01.843750,-44.68,76.98
157756,2018-06-29 10:07:01.875000,-28.95,76.98
157757,2018-06-29 10:07:01.906250,-2.41,76.98
157758,2018-06-29 10:07:01.937500,44.73,76.98
157759,2018-06-29 10:07:01.968750,113.9,76.98
157760,2018-06-29 10:07:02.000000,185.69,76.98
157761,2018-06-29 10:07:02.031250,236.26,76.98
157762,2018-06-29 10:07:02.062500,253.61,76.98
157763,2018-06-29 10:07:02.093750,235.94,76.98
157764,2018-06-29 10:07:02.125000,189.82,76.98
157765,2018-06-29 10:07:02.156250,131.79,76.98
157766,2018-06-29 10:07:02.187500,79.94,76.98
157767,2018-06-29 10:07:02.218750,43.54,76.98
157768,2018-06-29 10:07:02.250000,23.55,76.98
157769,2018-06-29 10:07:02.281250,15.32,76.98
157770,2018-06-29 10:07:02.312500,8.8,76.98
157771,2018-06-29 10:07:02.343750,-5.75,76.98
157772,2018-06-29 10:07:02.375000,-30.39,76.98
157773,2018-06-29 10:07:02.406250,-57.73,76.98
157774,2018-06-29 10:07:02.437500,-74.83,76.98
157775,2018-06-29 10:07:02.468750,-74.28,76.98
157776,2018-06-29 10:07:02.500000,-64.13,76.98
157777,2018-06-29 10:07:02.531250,-58.89,76.73
157778,2018-06-29 10:07:02.562500,-62.95,76.73
157779,2018-06-29 10:07:02.593750,-72.0,76.73
157780,2018-06-29 10:07:02.625000,-84.18,76.73
157781,2018-06-29 10:07:02.656250,-98.88,76.73
157782,2018-06-29 10:07:02.687500,-111.86,76.73
157783,2018-06-29 10:07:02.718750,-118.31,76.73
157784,2018-06-29 10:07:02.750000,-114.33,76.73
157785,2018-06-29 10:07:02.781250,-94.92,76.73
157786,2018-06-29 10:07:02.812500,-58.75,76.73
157787,2018-06-29 10:07:02.843750,-12.28,76.73
157788,2018-06-29 10:07:02.875000,36.47,76.73
157789,2018-06-29 10:07:02.906250,81.11,76.73
157790,2018-06-29 10:07:02.937500,113.4,76.73
157791,2018-06-29 10:07:02.968750,126.95,76.73
157792,2018-06-29 10:07:03.000000,124.2,76.73
157793,2018-06-29 10:07:03.031250,109.91,76.73
157794,2018-06-29 10:07:03.062500,85.0,76.73
157795,2018-06-29 10:07:03.093750,51.55,76.73
157796,2018-06-29 10:07:03.125000,9.78,76.73
157797,2018-06-29 10:07:03.156250,-44.25,76.73
157798,2018-06-29 10:07:03.187500,-109.29,76.73
157799,2018-06-29 10:07:03.218750,-167.77,76.73
157800,2018-06-29 10:07:03.250000,-203.16,76.73
157801,2018-06-29 10:07:03.281250,-215.8,76.73
157802,2018-06-29 10:07:03.312500,-220.37,76.73
157803,2018-06-29 10:07:03.343750,-234.22,76.73
157804,2018-06-29 10:07:03.375000,-257.65,76.73
157805,2018-06-29 10:07:03.406250,-271.96,76.73
157806,2018-06-29 10:07:03.437500,-249.78,76.73
157807,2018-06-29 10:07:03.468750,-187.21,76.73
157808,2018-06-29 10:07:03.500000,-100.85,76.73
157809,2018-06-29 10:07:03.531250,-16.12,76.55
157810,2018-06-29 10:07:03.562500,48.44,76.55
157811,2018-06-29 10:07:03.593750,90.94,76.55
157812,2018-06-29 10:07:03.625000,116.88,76.55
157813,2018-06-29 10:07:03.656250,158.33,76.55
157814,2018-06-29 10:07:03.687500,199.18,76.55
157815,2018-06-29 10:07:03.718750,203.7,76.55
157816,2018-06-29 10:07:03.750000,181.22,76.55
157817,2018-06-29 10:07:03.781250,143.17,76.55
157818,2018-06-29 10:07:03.812500,96.37,76.55
157819,2018-06-29 10:07:03.843750,52.08,76.55
157820,2018-06-29 10:07:03.875000,26.88,76.55
157821,2018-06-29 10:07:03.906250,17.19,76.55
157822,2018-06-29 10:07:03.937500,11.59,76.55
157823,2018-06-29 10:07:03.968750,3.81,76.55
157824,2018-06-29 10:07:04.000000,0.68,76.55
157825,2018-06-29 10:07:04.031250,10.69,76.55
157826,2018-06-29 10:07:04.062500,28.68,76.55
157827,2018-06-29 10:07:04.093750,41.21,76.55
157828,2018-06-29 10:07:04.125000,44.93,76.55
157829,2018-06-29 10:07:04.156250,47.05,76.55
157830,2018-06-29 10:07:04.187500,48.47,76.55
157831,2018-06-29 10:07:04.218750,45.63,76.55
157832,2018-06-29 10:07:04.250000,36.51,76.55
157833,2018-06-29 10:07:04.281250,26.24,76.55
157834,2018-06-29 10:07:04.312500,20.78,76.55
157835,2018-06-29 10:07:04.343750,21.88,76.55
157836,2018-06-29 10:07:04.375000,29.1,76.55
157837,2018-06-29 10:07:04.406250,39.68,76.55
157838,2018-06-29 10:07:04.437500,49.04,76.55
157839,2018-06-29 10:07:04.468750,53.21,76.55
157840,2018-06-29 10:07:04.500000,53.71,76.55
157841,2018-06-29 10:07:04.531250,53.78,76.42
157842,2018-06-29 10:07:04.562500,51.3,76.42
157843,2018-06-29 10:07:04.593750,42.35,76.42
157844,2018-06-29 10:07:04.625000,29.16,76.42
157845,2018-06-29 10:07:04.656250,18.68,76.42
157846,2018-06-29 10:07:04.687500,14.26,76.42
157847,2018-06-29 10:07:04.718750,14.52,76.42
157848,2018-06-29 10:07:04.750000,16.2,76.42
157849,2018-06-29 10:07:04.781250,18.35,76.42
157850,2018-06-29 10:07:04.812500,26.82,76.42
157851,2018-06-29 10:07:04.843750,48.62,76.42
157852,2018-06-29 10:07:04.875000,78.92,76.42
157853,2018-06-29 10:07:04.906250,103.05,76.42
157854,2018-06-29 10:07:04.937500,113.22,76.42
157855,2018-06-29 10:07:04.968750,113.36,76.42
157856,2018-06-29 10:07:05.000000,108.2,76.42
157857,2018-06-29 10:07:05.031250,97.92,76.42
157858,2018-06-29 10:07:05.062500,83.35,76.42
157859,2018-06-29 10:07:05.093750,68.42,76.42
157860,2018-06-29 10:07:05.125000,57.55,76.42
157861,2018-06-29 10:07:05.156250,51.34,76.42
157862,2018-06-29 10:07:05.187500,45.34,76.42
157863,2018-06-29 10:07:05.218750,35.42,76.42
157864,2018-06-29 10:07:05.250000,22.27,76.42
157865,2018-06-29 10:07:05.281250,8.25,76.42
157866,2018-06-29 10:07:05.312500,-4.97,76.42
157867,2018-06-29 10:07:05.343750,-15.35,76.42
157868,2018-06-29 10:07:05.375000,-23.94,76.42
157869,2018-06-29 10:07:05.406250,-37.52,76.42
157870,2018-06-29 10:07:05.437500,-60.33,76.42
157871,2018-06-29 10:07:05.468750,-87.29,76.42
157872,2018-06-29 10:07:05.500000,-111.35,76.42
157873,2018-06-29 10:07:05.531250,-134.2,76.33
157874,2018-06-29 10:07:05.562500,-163.13,76.33
157875,2018-06-29 10:07:05.593750,-196.96,76.33
157876,2018-06-29 10:07:05.625000,-219.55,76.33
157877,2018-06-29 10:07:05.656250,-213.05,76.33
157878,2018-06-29 10:07:05.687500,-177.32,76.33
157879,2018-06-29 10:07:05.718750,-130.91,76.33
157880,2018-06-29 10:07:05.750000,-93.38,76.33
157881,2018-06-29 10:07:05.781250,-71.4,76.33
157882,2018-06-29 10:07:05.812500,-61.3,76.33
157883,2018-06-29 10:07:05.843750,-59.43,76.33
157884,2018-06-29 10:07:05.875000,-66.66,76.33
157885,2018-06-29 10:07:05.906250,-81.67,76.33
157886,2018-06-29 10:07:05.937500,-95.62,76.33
157887,2018-06-29 10:07:05.968750,-99.83,76.33
157888,2018-06-29 10:07:06.000000,-95.04,76.33
157889,2018-06-29 10:07:06.031250,-88.04,76.33
157890,2018-06-29 10:07:06.062500,-85.61,76.33
157891,2018-06-29 10:07:06.093750,-95.49,76.33
157892,2018-06-29 10:07:06.125000,-125.46,76.33
157893,2018-06-29 10:07:06.156250,-175.04,76.33
157894,2018-06-29 10:07:06.187500,-230.04,76.33
157895,2018-06-29 10:07:06.218750,-272.15,76.33
157896,2018-06-29 10:07:06.250000,-296.42,76.33
157897,2018-06-29 10:07:06.281250,-312.13,76.33
157898,2018-06-29 10:07:06.312500,-327.39,76.33
157899,2018-06-29 10:07:06.343750,-348.49,76.33
157900,2018-06-29 10:07:06.375000,-382.01,76.33
157901,2018-06-29 10:07:06.406250,-408.66,76.33
157902,2018-06-29 10:07:06.437500,-383.19,76.33
157903,2018-06-29 10:07:06.468750,-293.82,76.33
157904,2018-06-29 10:07:06.500000,-181.39,76.33
157905,2018-06-29 10:07:06.531250,-80.95,76.35
157906,2018-06-29 10:07:06.562500,4.03,76.35
157907,2018-06-29 10:07:06.593750,69.13,76.35
157908,2018-06-29 10:07:06.625000,108.43,76.35
157909,2018-06-29 10:07:06.656250,136.81,76.35
157910,2018-06-29 10:07:06.687500,170.84,76.35
157911,2018-06-29 10:07:06.718750,204.07,76.35
157912,2018-06-29 10:07:06.750000,223.64,76.35
157913,2018-06-29 10:07:06.781250,232.16,76.35
157914,2018-06-29 10:07:06.812500,238.22,76.35
157915,2018-06-29 10:07:06.843750,240.49,76.35
157916,2018-06-29 10:07:06.875000,233.86,76.35
157917,2018-06-29 10:07:06.906250,221.7,76.35
157918,2018-06-29 10:07:06.937500,211.76,76.35
157919,2018-06-29 10:07:06.968750,205.88,76.35
157920,2018-06-29 10:07:07.000000,199.06,76.35
157921,2018-06-29 10:07:07.031250,185.48,76.35
157922,2018-06-29 10:07:07.062500,164.01,76.35
157923,2018-06-29 10:07:07.093750,138.47,76.35
157924,2018-06-29 10:07:07.125000,112.85,76.35
157925,2018-06-29 10:07:07.156250,87.23,76.35
157926,2018-06-29 10:07:07.187500,58.67,76.35
157927,2018-06-29 10:07:07.218750,26.92,76.35
157928,2018-06-29 10:07:07.250000,0.27,76.35
157929,2018-06-29 10:07:07.281250,-7.9,76.35
157930,2018-06-29 10:07:07.312500,7.05,76.35
157931,2018-06-29 10:07:07.343750,35.1,76.35
157932,2018-06-29 10:07:07.375000,63.04,76.35
157933,2018-06-29 10:07:07.406250,85.95,76.35
157934,2018-06-29 10:07:07.437500,104.1,76.35
157935,2018-06-29 10:07:07.468750,116.13,76.35
157936,2018-06-29 10:07:07.500000,120.88,76.35
157937,2018-06-29 10:07:07.531250,120.88,76.35
157938,2018-06-29 10:07:07.562500,119.1,76.35
157939,2018-06-29 10:07:07.593750,115.93,76.35
157940,2018-06-29 10:07:07.625000,111.23,76.35
157941,2018-06-29 10:07:07.656250,105.87,76.35
157942,2018-06-29 10:07:07.687500,99.61,76.35
157943,2018-06-29 10:07:07.718750,90.68,76.35
157944,2018-06-29 10:07:07.750000,78.6,76.35
157945,2018-06-29 10:07:07.781250,65.22,76.35
157946,2018-06-29 10:07:07.812500,51.96,76.35
157947,2018-06-29 10:07:07.843750,38.18,76.35
157948,2018-06-29 10:07:07.875000,23.66,76.35
157949,2018-06-29 10:07:07.906250,10.16,76.35
157950,2018-06-29 10:07:07.937500,-1.48,76.35
157951,2018-06-29 10:07:07.968750,-13.1,76.35
157952,2018-06-29 10:07:08.000000,-27.15,76.35
157953,2018-06-29 10:07:08.031250,-43.9,76.35
157954,2018-06-29 10:07:08.062500,-58.59,76.35
157955,2018-06-29 10:07:08.093750,-61.39,76.35
157956,2018-06-29 10:07:08.125000,-46.09,76.35
157957,2018-06-29 10:07:08.156250,-18.59,76.35
157958,2018-06-29 10:07:08.187500,9.41,76.35
157959,2018-06-29 10:07:08.218750,33.05,76.35
157960,2018-06-29 10:07:08.250000,53.95,76.35
157961,2018-06-29 10:07:08.281250,71.36,76.35
157962,2018-06-29 10:07:08.312500,81.5,76.35
157963,2018-06-29 10:07:08.343750,83.9,76.35
157964,2018-06-29 10:07:08.375000,82.97,76.35
157965,2018-06-29 10:07:08.406250,82.82,76.35
157966,2018-06-29 10:07:08.437500,83.63,76.35
157967,2018-06-29 10:07:08.468750,83.55,76.35
157968,2018-06-29 10:07:08.500000,81.16,76.35
157969,2018-06-29 10:07:08.531250,74.81,76.35
157970,2018-06-29 10:07:08.562500,62.94,76.35
157971,2018-06-29 10:07:08.593750,46.85,76.35
157972,2018-06-29 10:07:08.625000,30.52,76.35
157973,2018-06-29 10:07:08.656250,16.47,76.35
157974,2018-06-29 10:07:08.687500,3.69,76.35
157975,2018-06-29 10:07:08.718750,-9.54,76.35
157976,2018-06-29 10:07:08.750000,-22.67,76.35
157977,2018-06-29 10:07:08.781250,-34.49,76.35
157978,2018-06-29 10:07:08.812500,-46.51,76.35
157979,2018-06-29 10:07:08.843750,-62.05,76.35
157980,2018-06-29 10:07:08.875000,-82.62,76.35
157981,2018-06-29 10:07:08.906250,-104.49,76.35
157982,2018-06-29 10:07:08.937500,-117.14,76.35
157983,2018-06-29 10:07:08.968750,-109.21,76.35
157984,2018-06-29 10:07:09.000000,-80.54,76.35
157985,2018-06-29 10:07:09.031250,-43.05,76.35
157986,2018-06-29 10:07:09.062500,-7.03,76.35
157987,2018-06-29 10:07:09.093750,25.6,76.35
157988,2018-06-29 10:07:09.125000,53.67,76.35
157989,2018-06-29 10:07:09.156250,72.89,76.35
157990,2018-06-29 10:07:09.187500,81.42,76.35
157991,2018-06-29 10:07:09.218750,82.57,76.35
157992,2018-06-29 10:07:09.250000,80.35,76.35
157993,2018-06-29 10:07:09.281250,76.79,76.35
157994,2018-06-29 10:07:09.312500,74.51,76.35
157995,2018-06-29 10:07:09.343750,77.15,76.35
157996,2018-06-29 10:07:09.375000,84.55,76.35
157997,2018-06-29 10:07:09.406250,91.38,76.35
157998,2018-06-29 10:07:09.437500,93.37,76.35
157999,2018-06-29 10:07:09.468750,91.56,76.35
158000,2018-06-29 10:07:09.500000,88.38,76.35
158001,2018-06-29 10:07:09.531250,83.11,76.33
158002,2018-06-29 10:07:09.562500,72.57,76.33
158003,2018-06-29 10:07:09.593750,55.47,76.33
158004,2018-06-29 10:07:09.625000,33.96,76.33
158005,2018-06-29 10:07:09.656250,10.82,76.33
158006,2018-06-29 10:07:09.687500,-13.5,76.33
158007,2018-06-29 10:07:09.718750,-40.27,76.33
158008,2018-06-29 10:07:09.750000,-68.96,76.33
158009,2018-06-29 10:07:09.781250,-93.42,76.33
158010,2018-06-29 10:07:09.812500,-102.77,76.33
158011,2018-06-29 10:07:09.843750,-91.14,76.33
158012,2018-06-29 10:07:09.875000,-65.07,76.33
158013,2018-06-29 10:07:09.906250,-36.53,76.33
158014,2018-06-29 10:07:09.937500,-12.29,76.33
158015,2018-06-29 10:07:09.968750,5.82,76.33
158016,2018-06-29 10:07:10.000000,16.73,76.33
158017,2018-06-29 10:07:10.031250,20.99,76.33
158018,2018-06-29 10:07:10.062500,21.61,76.33
158019,2018-06-29 10:07:10.093750,21.26,76.33
158020,2018-06-29 10:07:10.125000,20.8,76.33
158021,2018-06-29 10:07:10.156250,20.74,76.33
158022,2018-06-29 10:07:10.187500,22.35,76.33
158023,2018-06-29 10:07:10.218750,26.31,76.33
158024,2018-06-29 10:07:10.250000,29.52,76.33
158025,2018-06-29 10:07:10.281250,26.26,76.33
158026,2018-06-29 10:07:10.312500,14.94,76.33
158027,2018-06-29 10:07:10.343750,0.18,76.33
158028,2018-06-29 10:07:10.375000,-13.59,76.33
158029,2018-06-29 10:07:10.406250,-26.96,76.33
158030,2018-06-29 10:07:10.437500,-41.32,76.33
158031,2018-06-29 10:07:10.468750,-54.36,76.33
158032,2018-06-29 10:07:10.500000,-63.34,76.33
158033,2018-06-29 10:07:10.531250,-69.87,76.28
158034,2018-06-29 10:07:10.562500,-78.16,76.28
158035,2018-06-29 10:07:10.593750,-90.03,76.28
158036,2018-06-29 10:07:10.625000,-101.65,76.28
158037,2018-06-29 10:07:10.656250,-104.13,76.28
158038,2018-06-29 10:07:10.687500,-90.42,76.28
158039,2018-06-29 10:07:10.718750,-63.84,76.28
158040,2018-06-29 10:07:10.750000,-35.27,76.28
158041,2018-06-29 10:07:10.781250,-11.82,76.28
158042,2018-06-29 10:07:10.812500,6.13,76.28
158043,2018-06-29 10:07:10.843750,18.83,76.28
158044,2018-06-29 10:07:10.875000,25.61,76.28
158045,2018-06-29 10:07:10.906250,27.38,76.28
158046,2018-06-29 10:07:10.937500,26.66,76.28
158047,2018-06-29 10:07:10.968750,26.04,76.28
158048,2018-06-29 10:07:11.000000,27.46,76.28
158049,2018-06-29 10:07:11.031250,31.17,76.28
158050,2018-06-29 10:07:11.062500,35.02,76.28
158051,2018-06-29 10:07:11.093750,35.52,76.28
158052,2018-06-29 10:07:11.125000,30.92,76.28
158053,2018-06-29 10:07:11.156250,23.16,76.28
158054,2018-06-29 10:07:11.187500,15.42,76.28
158055,2018-06-29 10:07:11.218750,8.25,76.28
158056,2018-06-29 10:07:11.250000,-0.36,76.28
158057,2018-06-29 10:07:11.281250,-11.26,76.28
158058,2018-06-29 10:07:11.312500,-22.66,76.28
158059,2018-06-29 10:07:11.343750,-32.61,76.28
158060,2018-06-29 10:07:11.375000,-41.82,76.28
158061,2018-06-29 10:07:11.406250,-53.23,76.28
158062,2018-06-29 10:07:11.437500,-67.02,76.28
158063,2018-06-29 10:07:11.468750,-76.03,76.28
158064,2018-06-29 10:07:11.500000,-70.96,76.28
158065,2018-06-29 10:07:11.531250,-51.58,76.22
158066,2018-06-29 10:07:11.562500,-27.33,76.22
158067,2018-06-29 10:07:11.593750,-6.31,76.22
158068,2018-06-29 10:07:11.625000,10.08,76.22
158069,2018-06-29 10:07:11.656250,22.07,76.22
158070,2018-06-29 10:07:11.687500,28.41,76.22
158071,2018-06-29 10:07:11.718750,29.19,76.22
158072,2018-06-29 10:07:11.750000,27.28,76.22
158073,2018-06-29 10:07:11.781250,25.86,76.22
158074,2018-06-29 10:07:11.812500,25.73,76.22
158075,2018-06-29 10:07:11.843750,25.78,76.22
158076,2018-06-29 10:07:11.875000,25.06,76.22
158077,2018-06-29 10:07:11.906250,23.26,76.22
158078,2018-06-29 10:07:11.937500,19.61,76.22
158079,2018-06-29 10:07:11.968750,13.53,76.22
158080,2018-06-29 10:07:12.000000,5.9,76.22
158081,2018-06-29 10:07:12.031250,-2.06,76.22
158082,2018-06-29 10:07:12.062500,-10.21,76.22
158083,2018-06-29 10:07:12.093750,-18.01,76.22
158084,2018-06-29 10:07:12.125000,-23.83,76.22
158085,2018-06-29 10:07:12.156250,-28.03,76.22
158086,2018-06-29 10:07:12.187500,-34.3,76.22
158087,2018-06-29 10:07:12.218750,-45.24,76.22
158088,2018-06-29 10:07:12.250000,-57.35,76.22
158089,2018-06-29 10:07:12.281250,-62.19,76.22
158090,2018-06-29 10:07:12.312500,-53.72,76.22
158091,2018-06-29 10:07:12.343750,-34.92,76.22
158092,2018-06-29 10:07:12.375000,-14.87,76.22
158093,2018-06-29 10:07:12.406250,0.56,76.22
158094,2018-06-29 10:07:12.437500,11.66,76.22
158095,2018-06-29 10:07:12.468750,19.55,76.22
158096,2018-06-29 10:07:12.500000,23.31,76.22
158097,2018-06-29 10:07:12.531250,22.52,76.15
158098,2018-06-29 10:07:12.562500,19.11,76.15
158099,2018-06-29 10:07:12.593750,16.34,76.15
158100,2018-06-29 10:07:12.625000,16.3,76.15
158101,2018-06-29 10:07:12.656250,18.44,76.15
158102,2018-06-29 10:07:12.687500,20.29,76.15
158103,2018-06-29 10:07:12.718750,19.78,76.15
158104,2018-06-29 10:07:12.750000,16.45,76.15
158105,2018-06-29 10:07:12.781250,10.71,76.15
158106,2018-06-29 10:07:12.812500,2.84,76.15
158107,2018-06-29 10:07:12.843750,-6.31,76.15
158108,2018-06-29 10:07:12.875000,-15.25,76.15
158109,2018-06-29 10:07:12.906250,-23.64,76.15
158110,2018-06-29 10:07:12.937500,-33.02,76.15
158111,2018-06-29 10:07:12.968750,-44.66,76.15
158112,2018-06-29 10:07:13.000000,-57.03,76.15
158113,2018-06-29 10:07:13.031250,-64.88,76.15
158114,2018-06-29 10:07:13.062500,-61.91,76.15
158115,2018-06-29 10:07:13.093750,-46.67,76.15
158116,2018-06-29 10:07:13.125000,-24.77,76.15
158117,2018-06-29 10:07:13.156250,-3.85,76.15
158118,2018-06-29 10:07:13.187500,12.1,76.15
158119,2018-06-29 10:07:13.218750,23.3,76.15
158120,2018-06-29 10:07:13.250000,30.79,76.15
158121,2018-06-29 10:07:13.281250,33.67,76.15
158122,2018-06-29 10:07:13.312500,31.47,76.15
158123,2018-06-29 10:07:13.343750,27.6,76.15
158124,2018-06-29 10:07:13.375000,26.26,76.15
158125,2018-06-29 10:07:13.406250,27.17,76.15
158126,2018-06-29 10:07:13.437500,27.25,76.15
158127,2018-06-29 10:07:13.468750,24.96,76.15
158128,2018-06-29 10:07:13.500000,20.28,76.15
158129,2018-06-29 10:07:13.531250,13.58,75.98
158130,2018-06-29 10:07:13.562500,5.76,75.98
158131,2018-06-29 10:07:13.593750,-2.6,75.98
158132,2018-06-29 10:07:13.625000,-11.65,75.98
158133,2018-06-29 10:07:13.656250,-21.47,75.98
158134,2018-06-29 10:07:13.687500,-31.76,75.98
158135,2018-06-29 10:07:13.718750,-42.52,75.98
158136,2018-06-29 10:07:13.750000,-53.85,75.98
158137,2018-06-29 10:07:13.781250,-64.75,75.98
158138,2018-06-29 10:07:13.812500,-70.82,75.98
158139,2018-06-29 10:07:13.843750,-65.33,75.98
158140,2018-06-29 10:07:13.875000,-46.63,75.98
158141,2018-06-29 10:07:13.906250,-22.42,75.98
158142,2018-06-29 10:07:13.937500,-1.85,75.98
158143,2018-06-29 10:07:13.968750,13.04,75.98
158144,2018-06-29 10:07:14.000000,24.14,75.98
158145,2018-06-29 10:07:14.031250,30.77,75.98
158146,2018-06-29 10:07:14.062500,31.49,75.98
158147,2018-06-29 10:07:14.093750,28.76,75.98
158148,2018-06-29 10:07:14.125000,27.45,75.98
158149,2018-06-29 10:07:14.156250,30.11,75.98
158150,2018-06-29 10:07:14.187500,35.31,75.98
158151,2018-06-29 10:07:14.218750,40.2,75.98
158152,2018-06-29 10:07:14.250000,42.88,75.98
158153,2018-06-29 10:07:14.281250,42.09,75.98
158154,2018-06-29 10:07:14.312500,36.82,75.98
158155,2018-06-29 10:07:14.343750,27.69,75.98
158156,2018-06-29 10:07:14.375000,17.28,75.98
158157,2018-06-29 10:07:14.406250,7.74,75.98
158158,2018-06-29 10:07:14.437500,-0.9,75.98
158159,2018-06-29 10:07:14.468750,-9.45,75.98
158160,2018-06-29 10:07:14.500000,-18.15,75.98
158161,2018-06-29 10:07:14.531250,-26.65,75.8
158162,2018-06-29 10:07:14.562500,-34.33,75.8
158163,2018-06-29 10:07:14.593750,-41.1,75.8
158164,2018-06-29 10:07:14.625000,-48.57,75.8
158165,2018-06-29 10:07:14.656250,-59.15,75.8
158166,2018-06-29 10:07:14.687500,-72.05,75.8
158167,2018-06-29 10:07:14.718750,-79.94,75.8
158168,2018-06-29 10:07:14.750000,-73.69,75.8
158169,2018-06-29 10:07:14.781250,-52.77,75.8
158170,2018-06-29 10:07:14.812500,-27.12,75.8
158171,2018-06-29 10:07:14.843750,-6.18,75.8
158172,2018-06-29 10:07:14.875000,8.68,75.8
158173,2018-06-29 10:07:14.906250,18.88,75.8
158174,2018-06-29 10:07:14.937500,23.65,75.8
158175,2018-06-29 10:07:14.968750,23.25,75.8
158176,2018-06-29 10:07:15.000000,21.13,75.8
158177,2018-06-29 10:07:15.031250,20.13,75.8
158178,2018-06-29 10:07:15.062500,20.03,75.8
158179,2018-06-29 10:07:15.093750,19.87,75.8
158180,2018-06-29 10:07:15.125000,19.5,75.8
158181,2018-06-29 10:07:15.156250,18.01,75.8
158182,2018-06-29 10:07:15.187500,12.99,75.8
158183,2018-06-29 10:07:15.218750,2.99,75.8
158184,2018-06-29 10:07:15.250000,-10.87,75.8
158185,2018-06-29 10:07:15.281250,-26.55,75.8
158186,2018-06-29 10:07:15.312500,-43.92,75.8
158187,2018-06-29 10:07:15.343750,-64.22,75.8
158188,2018-06-29 10:07:15.375000,-86.71,75.8
158189,2018-06-29 10:07:15.406250,-107.67,75.8
158190,2018-06-29 10:07:15.437500,-124.08,75.8
158191,2018-06-29 10:07:15.468750,-136.37,75.8
158192,2018-06-29 10:07:15.500000,-146.74,75.8
158193,2018-06-29 10:07:15.531250,-156.33,75.62
158194,2018-06-29 10:07:15.562500,-161.97,75.62
158195,2018-06-29 10:07:15.593750,-155.57,75.62
158196,2018-06-29 10:07:15.625000,-131.7,75.62
158197,2018-06-29 10:07:15.656250,-95.76,75.62
158198,2018-06-29 10:07:15.687500,-59.35,75.62
158199,2018-06-29 10:07:15.718750,-29.49,75.62
158200,2018-06-29 10:07:15.750000,-7.5,75.62
158201,2018-06-29 10:07:15.781250,5.98,75.62
158202,2018-06-29 10:07:15.812500,11.87,75.62
158203,2018-06-29 10:07:15.843750,15.07,75.62
158204,2018-06-29 10:07:15.875000,20.27,75.62
158205,2018-06-29 10:07:15.906250,27.3,75.62
158206,2018-06-29 10:07:15.937500,34.64,75.62
158207,2018-06-29 10:07:15.968750,44.7,75.62
158208,2018-06-29 10:07:16.000000,61.39,75.62
158209,2018-06-29 10:07:16.031250,84.04,75.62
158210,2018-06-29 10:07:16.062500,106.96,75.62
158211,2018-06-29 10:07:16.093750,124.64,75.62
158212,2018-06-29 10:07:16.125000,134.78,75.62
158213,2018-06-29 10:07:16.156250,137.24,75.62
158214,2018-06-29 10:07:16.187500,132.68,75.62
158215,2018-06-29 10:07:16.218750,122.43,75.62
158216,2018-06-29 10:07:16.250000,107.83,75.62
158217,2018-06-29 10:07:16.281250,90.21,75.62
158218,2018-06-29 10:07:16.312500,71.03,75.62
158219,2018-06-29 10:07:16.343750,49.93,75.62
158220,2018-06-29 10:07:16.375000,23.97,75.62
158221,2018-06-29 10:07:16.406250,-8.32,75.62
158222,2018-06-29 10:07:16.437500,-41.71,75.62
158223,2018-06-29 10:07:16.468750,-64.49,75.62
158224,2018-06-29 10:07:16.500000,-66.09,75.62
158225,2018-06-29 10:07:16.531250,-46.28,75.45
158226,2018-06-29 10:07:16.562500,-15.34,75.45
158227,2018-06-29 10:07:16.593750,15.35,75.45
158228,2018-06-29 10:07:16.625000,39.08,75.45
158229,2018-06-29 10:07:16.656250,54.1,75.45
158230,2018-06-29 10:07:16.687500,64.35,75.45
158231,2018-06-29 10:07:16.718750,75.6,75.45
158232,2018-06-29 10:07:16.750000,87.35,75.45
158233,2018-06-29 10:07:16.781250,95.42,75.45
158234,2018-06-29 10:07:16.812500,101.78,75.45
158235,2018-06-29 10:07:16.843750,112.49,75.45
158236,2018-06-29 10:07:16.875000,128.44,75.45
158237,2018-06-29 10:07:16.906250,145.88,75.45
158238,2018-06-29 10:07:16.937500,161.97,75.45
158239,2018-06-29 10:07:16.968750,174.54,75.45
158240,2018-06-29 10:07:17.000000,178.99,75.45
158241,2018-06-29 10:07:17.031250,169.0,75.45
158242,2018-06-29 10:07:17.062500,142.66,75.45
158243,2018-06-29 10:07:17.093750,108.5,75.45
158244,2018-06-29 10:07:17.125000,81.62,75.45
158245,2018-06-29 10:07:17.156250,70.55,75.45
158246,2018-06-29 10:07:17.187500,71.05,75.45
158247,2018-06-29 10:07:17.218750,73.81,75.45
158248,2018-06-29 10:07:17.250000,74.5,75.45
158249,2018-06-29 10:07:17.281250,74.86,75.45
158250,2018-06-29 10:07:17.312500,75.63,75.45
158251,2018-06-29 10:07:17.343750,71.6,75.45
158252,2018-06-29 10:07:17.375000,57.07,75.45
158253,2018-06-29 10:07:17.406250,37.91,75.45
158254,2018-06-29 10:07:17.437500,31.22,75.45
158255,2018-06-29 10:07:17.468750,48.62,75.45
158256,2018-06-29 10:07:17.500000,81.9,75.45
158257,2018-06-29 10:07:17.531250,106.86,75.3
158258,2018-06-29 10:07:17.562500,105.58,75.3
158259,2018-06-29 10:07:17.593750,83.62,75.3
158260,2018-06-29 10:07:17.625000,60.11,75.3
158261,2018-06-29 10:07:17.656250,45.57,75.3
158262,2018-06-29 10:07:17.687500,37.11,75.3
158263,2018-06-29 10:07:17.718750,27.05,75.3
158264,2018-06-29 10:07:17.750000,8.19,75.3
158265,2018-06-29 10:07:17.781250,-21.15,75.3
158266,2018-06-29 10:07:17.812500,-53.04,75.3
158267,2018-06-29 10:07:17.843750,-76.66,75.3
158268,2018-06-29 10:07:17.875000,-88.06,75.3
158269,2018-06-29 10:07:17.906250,-88.24,75.3
158270,2018-06-29 10:07:17.937500,-76.9,75.3
158271,2018-06-29 10:07:17.968750,-58.93,75.3
158272,2018-06-29 10:07:18.000000,-51.12,75.3
158273,2018-06-29 10:07:18.031250,-65.68,75.3
158274,2018-06-29 10:07:18.062500,-93.03,75.3
158275,2018-06-29 10:07:18.093750,-116.48,75.3
158276,2018-06-29 10:07:18.125000,-132.28,75.3
158277,2018-06-29 10:07:18.156250,-143.85,75.3
158278,2018-06-29 10:07:18.187500,-151.78,75.3
158279,2018-06-29 10:07:18.218750,-156.47,75.3
158280,2018-06-29 10:07:18.250000,-160.4,75.3
158281,2018-06-29 10:07:18.281250,-171.59,75.3
158282,2018-06-29 10:07:18.312500,-200.75,75.3
158283,2018-06-29 10:07:18.343750,-243.33,75.3
158284,2018-06-29 10:07:18.375000,-277.5,75.3
158285,2018-06-29 10:07:18.406250,-285.22,75.3
158286,2018-06-29 10:07:18.437500,-260.53,75.3
158287,2018-06-29 10:07:18.468750,-206.57,75.3
158288,2018-06-29 10:07:18.500000,-141.04,75.3
158289,2018-06-29 10:07:18.531250,-86.42,75.15
158290,2018-06-29 10:07:18.562500,-45.55,75.15
158291,2018-06-29 10:07:18.593750,-7.07,75.15
158292,2018-06-29 10:07:18.625000,32.21,75.15
158293,2018-06-29 10:07:18.656250,70.36,75.15
158294,2018-06-29 10:07:18.687500,109.38,75.15
158295,2018-06-29 10:07:18.718750,145.43,75.15
158296,2018-06-29 10:07:18.750000,163.42,75.15
158297,2018-06-29 10:07:18.781250,151.01,75.15
158298,2018-06-29 10:07:18.812500,111.92,75.15
158299,2018-06-29 10:07:18.843750,64.18,75.15
158300,2018-06-29 10:07:18.875000,28.07,75.15
158301,2018-06-29 10:07:18.906250,13.62,75.15
158302,2018-06-29 10:07:18.937500,18.67,75.15
158303,2018-06-29 10:07:18.968750,34.76,75.15
158304,2018-06-29 10:07:19.000000,48.91,75.15
158305,2018-06-29 10:07:19.031250,48.18,75.15
158306,2018-06-29 10:07:19.062500,32.71,75.15
158307,2018-06-29 10:07:19.093750,14.73,75.15
158308,2018-06-29 10:07:19.125000,1.16,75.15
158309,2018-06-29 10:07:19.156250,-11.3,75.15
158310,2018-06-29 10:07:19.187500,-25.22,75.15
158311,2018-06-29 10:07:19.218750,-38.38,75.15
158312,2018-06-29 10:07:19.250000,-48.47,75.15
158313,2018-06-29 10:07:19.281250,-55.68,75.15
158314,2018-06-29 10:07:19.312500,-60.32,75.15
158315,2018-06-29 10:07:19.343750,-57.79,75.15
158316,2018-06-29 10:07:19.375000,-42.84,75.15
158317,2018-06-29 10:07:19.406250,-22.64,75.15
158318,2018-06-29 10:07:19.437500,-13.78,75.15
158319,2018-06-29 10:07:19.468750,-21.36,75.15
158320,2018-06-29 10:07:19.500000,-34.46,75.15
158321,2018-06-29 10:07:19.531250,-43.41,74.92
158322,2018-06-29 10:07:19.562500,-47.91,74.92
158323,2018-06-29 10:07:19.593750,-49.62,74.92
158324,2018-06-29 10:07:19.625000,-49.34,74.92
158325,2018-06-29 10:07:19.656250,-50.02,74.92
158326,2018-06-29 10:07:19.687500,-53.52,74.92
158327,2018-06-29 10:07:19.718750,-55.25,74.92
158328,2018-06-29 10:07:19.750000,-49.87,74.92
158329,2018-06-29 10:07:19.781250,-44.9,74.92
158330,2018-06-29 10:07:19.812500,-57.19,74.92
158331,2018-06-29 10:07:19.843750,-87.88,74.92
158332,2018-06-29 10:07:19.875000,-115.58,74.92
158333,2018-06-29 10:07:19.906250,-122.21,74.92
158334,2018-06-29 10:07:19.937500,-109.99,74.92
158335,2018-06-29 10:07:19.968750,-89.78,74.92
158336,2018-06-29 10:07:20.000000,-68.54,74.92
158337,2018-06-29 10:07:20.031250,-50.35,74.92
158338,2018-06-29 10:07:20.062500,-37.43,74.92
158339,2018-06-29 10:07:20.093750,-30.73,74.92
158340,2018-06-29 10:07:20.125000,-29.83,74.92
158341,2018-06-29 10:07:20.156250,-30.46,74.92
158342,2018-06-29 10:07:20.187500,-27.1,74.92
158343,2018-06-29 10:07:20.218750,-13.15,74.92
158344,2018-06-29 10:07:20.250000,17.48,74.92
158345,2018-06-29 10:07:20.281250,64.68,74.92
158346,2018-06-29 10:07:20.312500,113.33,74.92
158347,2018-06-29 10:07:20.343750,142.28,74.92
158348,2018-06-29 10:07:20.375000,142.1,74.92
158349,2018-06-29 10:07:20.406250,118.44,74.92
158350,2018-06-29 10:07:20.437500,82.55,74.92
158351,2018-06-29 10:07:20.468750,38.28,74.92
158352,2018-06-29 10:07:20.500000,-11.23,74.92
158353,2018-06-29 10:07:20.531250,-69.5,74.7
158354,2018-06-29 10:07:20.562500,-132.36,74.7
158355,2018-06-29 10:07:20.593750,-196.13,74.7
158356,2018-06-29 10:07:20.625000,-262.02,74.7
158357,2018-06-29 10:07:20.656250,-334.07,74.7
158358,2018-06-29 10:07:20.687500,-412.97,74.7
158359,2018-06-29 10:07:20.718750,-481.48,74.7
158360,2018-06-29 10:07:20.750000,-520.28,74.7
158361,2018-06-29 10:07:20.781250,-489.45,74.7
158362,2018-06-29 10:07:20.812500,-389.52,74.7
158363,2018-06-29 10:07:20.843750,-261.51,74.7
158364,2018-06-29 10:07:20.875000,-156.81,74.7
158365,2018-06-29 10:07:20.906250,-79.29,74.7
158366,2018-06-29 10:07:20.937500,-0.08,74.7
158367,2018-06-29 10:07:20.968750,80.86,74.7
158368,2018-06-29 10:07:21.000000,246.87,74.7
158369,2018-06-29 10:07:21.031250,427.36,74.7
158370,2018-06-29 10:07:21.062500,489.16,74.7
158371,2018-06-29 10:07:21.093750,472.0,74.7
158372,2018-06-29 10:07:21.125000,431.81,74.7
158373,2018-06-29 10:07:21.156250,375.48,74.7
158374,2018-06-29 10:07:21.187500,307.77,74.7
158375,2018-06-29 10:07:21.218750,245.5,74.7
158376,2018-06-29 10:07:21.250000,188.55,74.7
158377,2018-06-29 10:07:21.281250,135.94,74.7
158378,2018-06-29 10:07:21.312500,76.89,74.7
158379,2018-06-29 10:07:21.343750,25.73,74.7
158380,2018-06-29 10:07:21.375000,1.2,74.7
158381,2018-06-29 10:07:21.406250,11.31,74.7
158382,2018-06-29 10:07:21.437500,40.58,74.7
158383,2018-06-29 10:07:21.468750,71.73,74.7
158384,2018-06-29 10:07:21.500000,102.05,74.7
158385,2018-06-29 10:07:21.531250,130.03,74.47
158386,2018-06-29 10:07:21.562500,153.25,74.47
158387,2018-06-29 10:07:21.593750,159.78,74.47
158388,2018-06-29 10:07:21.625000,143.2,74.47
158389,2018-06-29 10:07:21.656250,109.53,74.47
158390,2018-06-29 10:07:21.687500,71.04,74.47
158391,2018-06-29 10:07:21.718750,40.87,74.47
158392,2018-06-29 10:07:21.750000,24.51,74.47
158393,2018-06-29 10:07:21.781250,19.63,74.47
158394,2018-06-29 10:07:21.812500,12.08,74.47
158395,2018-06-29 10:07:21.843750,-18.5,74.47
158396,2018-06-29 10:07:21.875000,-67.95,74.47
158397,2018-06-29 10:07:21.906250,-112.91,74.47
158398,2018-06-29 10:07:21.937500,-128.47,74.47
158399,2018-06-29 10:07:21.968750,-127.99,74.47
158400,2018-06-29 10:07:22.000000,-128.2,74.47
158401,2018-06-29 10:07:22.031250,-117.08,74.47
158402,2018-06-29 10:07:22.062500,-61.09,74.47
158403,2018-06-29 10:07:22.093750,53.45,74.47
158404,2018-06-29 10:07:22.125000,191.0,74.47
158405,2018-06-29 10:07:22.156250,318.85,74.47
158406,2018-06-29 10:07:22.187500,348.49,74.47
158407,2018-06-29 10:07:22.218750,245.0,74.47
158408,2018-06-29 10:07:22.250000,125.78,74.47
158409,2018-06-29 10:07:22.281250,21.74,74.47
158410,2018-06-29 10:07:22.312500,-80.44,74.47
158411,2018-06-29 10:07:22.343750,-158.68,74.47
158412,2018-06-29 10:07:22.375000,-191.44,74.47
158413,2018-06-29 10:07:22.406250,-205.58,74.47
158414,2018-06-29 10:07:22.437500,-209.13,74.47
158415,2018-06-29 10:07:22.468750,-193.7,74.47
158416,2018-06-29 10:07:22.500000,-149.15,74.47
158417,2018-06-29 10:07:22.531250,-96.69,74.2
158418,2018-06-29 10:07:22.562500,-55.12,74.2
158419,2018-06-29 10:07:22.593750,-24.09,74.2
158420,2018-06-29 10:07:22.625000,-2.15,74.2
158421,2018-06-29 10:07:22.656250,10.87,74.2
158422,2018-06-29 10:07:22.687500,11.01,74.2
158423,2018-06-29 10:07:22.718750,3.13,74.2
158424,2018-06-29 10:07:22.750000,-5.92,74.2
158425,2018-06-29 10:07:22.781250,-9.32,74.2
158426,2018-06-29 10:07:22.812500,-8.61,74.2
158427,2018-06-29 10:07:22.843750,-6.89,74.2
158428,2018-06-29 10:07:22.875000,-5.85,74.2
158429,2018-06-29 10:07:22.906250,-7.23,74.2
158430,2018-06-29 10:07:22.937500,-11.16,74.2
158431,2018-06-29 10:07:22.968750,-15.5,74.2
158432,2018-06-29 10:07:23.000000,-17.94,74.2
158433,2018-06-29 10:07:23.031250,-21.78,74.2
158434,2018-06-29 10:07:23.062500,-31.31,74.2
158435,2018-06-29 10:07:23.093750,-44.69,74.2
158436,2018-06-29 10:07:23.125000,-56.52,74.2
158437,2018-06-29 10:07:23.156250,-65.44,74.2
158438,2018-06-29 10:07:23.187500,-76.27,74.2
158439,2018-06-29 10:07:23.218750,-94.72,74.2
158440,2018-06-29 10:07:23.250000,-116.87,74.2
158441,2018-06-29 10:07:23.281250,-126.04,74.2
158442,2018-06-29 10:07:23.312500,-107.92,74.2
158443,2018-06-29 10:07:23.343750,-67.24,74.2
158444,2018-06-29 10:07:23.375000,-22.12,74.2
158445,2018-06-29 10:07:23.406250,15.08,74.2
158446,2018-06-29 10:07:23.437500,43.29,74.2
158447,2018-06-29 10:07:23.468750,63.91,74.2
158448,2018-06-29 10:07:23.500000,75.73,74.2
158449,2018-06-29 10:07:23.531250,79.01,73.85
158450,2018-06-29 10:07:23.562500,77.2,73.85
158451,2018-06-29 10:07:23.593750,73.83,73.85
158452,2018-06-29 10:07:23.625000,71.36,73.85
158453,2018-06-29 10:07:23.656250,71.82,73.85
158454,2018-06-29 10:07:23.687500,74.46,73.85
158455,2018-06-29 10:07:23.718750,75.49,73.85
158456,2018-06-29 10:07:23.750000,72.5,73.85
158457,2018-06-29 10:07:23.781250,66.88,73.85
158458,2018-06-29 10:07:23.812500,61.23,73.85
158459,2018-06-29 10:07:23.843750,56.36,73.85
158460,2018-06-29 10:07:23.875000,50.94,73.85
158461,2018-06-29 10:07:23.906250,43.32,73.85
158462,2018-06-29 10:07:23.937500,32.31,73.85
158463,2018-06-29 10:07:23.968750,17.31,73.85
158464,2018-06-29 10:07:24.000000,-0.64,73.85
158465,2018-06-29 10:07:24.031250,-18.32,73.85
158466,2018-06-29 10:07:24.062500,-34.04,73.85
158467,2018-06-29 10:07:24.093750,-50.59,73.85
158468,2018-06-29 10:07:24.125000,-71.85,73.85
158469,2018-06-29 10:07:24.156250,-96.16,73.85
158470,2018-06-29 10:07:24.187500,-112.73,73.85
158471,2018-06-29 10:07:24.218750,-107.02,73.85
158472,2018-06-29 10:07:24.250000,-74.41,73.85
158473,2018-06-29 10:07:24.281250,-26.83,73.85
158474,2018-06-29 10:07:24.312500,19.04,73.85
158475,2018-06-29 10:07:24.343750,56.21,73.85
158476,2018-06-29 10:07:24.375000,86.04,73.85
158477,2018-06-29 10:07:24.406250,109.33,73.85
158478,2018-06-29 10:07:24.437500,125.55,73.85
158479,2018-06-29 10:07:24.468750,136.73,73.85
158480,2018-06-29 10:07:24.500000,146.26,73.85
158481,2018-06-29 10:07:24.531250,154.32,73.53
158482,2018-06-29 10:07:24.562500,158.11,73.53
158483,2018-06-29 10:07:24.593750,155.3,73.53
158484,2018-06-29 10:07:24.625000,144.8,73.53
158485,2018-06-29 10:07:24.656250,125.85,73.53
158486,2018-06-29 10:07:24.687500,99.7,73.53
158487,2018-06-29 10:07:24.718750,70.7,73.53
158488,2018-06-29 10:07:24.750000,43.7,73.53
158489,2018-06-29 10:07:24.781250,21.41,73.53
158490,2018-06-29 10:07:24.812500,4.5,73.53
158491,2018-06-29 10:07:24.843750,-8.3,73.53
158492,2018-06-29 10:07:24.875000,-20.23,73.53
158493,2018-06-29 10:07:24.906250,-34.29,73.53
158494,2018-06-29 10:07:24.937500,-50.47,73.53
158495,2018-06-29 10:07:24.968750,-66.27,73.53
158496,2018-06-29 10:07:25.000000,-80.0,73.53
158497,2018-06-29 10:07:25.031250,-92.52,73.53
158498,2018-06-29 10:07:25.062500,-105.93,73.53
158499,2018-06-29 10:07:25.093750,-119.53,73.53
158500,2018-06-29 10:07:25.125000,-125.81,73.53
158501,2018-06-29 10:07:25.156250,-114.06,73.53
158502,2018-06-29 10:07:25.187500,-82.26,73.53
158503,2018-06-29 10:07:25.218750,-41.48,73.53
158504,2018-06-29 10:07:25.250000,-4.43,73.53
158505,2018-06-29 10:07:25.281250,25.03,73.53
158506,2018-06-29 10:07:25.312500,48.52,73.53
158507,2018-06-29 10:07:25.343750,65.28,73.53
158508,2018-06-29 10:07:25.375000,72.69,73.53
158509,2018-06-29 10:07:25.406250,72.2,73.53
158510,2018-06-29 10:07:25.437500,69.79,73.53
158511,2018-06-29 10:07:25.468750,69.44,73.53
158512,2018-06-29 10:07:25.500000,70.15,73.53
158513,2018-06-29 10:07:25.531250,69.9,73.23
158514,2018-06-29 10:07:25.562500,67.89,73.23
158515,2018-06-29 10:07:25.593750,63.2,73.23
158516,2018-06-29 10:07:25.625000,55.84,73.23
158517,2018-06-29 10:07:25.656250,47.19,73.23
158518,2018-06-29 10:07:25.687500,37.88,73.23
158519,2018-06-29 10:07:25.718750,27.79,73.23
158520,2018-06-29 10:07:25.750000,17.38,73.23
158521,2018-06-29 10:07:25.781250,6.73,73.23
158522,2018-06-29 10:07:25.812500,-4.65,73.23
158523,2018-06-29 10:07:25.843750,-15.74,73.23
158524,2018-06-29 10:07:25.875000,-25.06,73.23
158525,2018-06-29 10:07:25.906250,-33.82,73.23
158526,2018-06-29 10:07:25.937500,-44.43,73.23
158527,2018-06-29 10:07:25.968750,-57.01,73.23
158528,2018-06-29 10:07:26.000000,-69.48,73.23
158529,2018-06-29 10:07:26.031250,-77.73,73.23
158530,2018-06-29 10:07:26.062500,-74.59,73.23
158531,2018-06-29 10:07:26.093750,-55.64,73.23
158532,2018-06-29 10:07:26.125000,-26.24,73.23
158533,2018-06-29 10:07:26.156250,3.32,73.23
158534,2018-06-29 10:07:26.187500,27.6,73.23
158535,2018-06-29 10:07:26.218750,45.54,73.23
158536,2018-06-29 10:07:26.250000,55.39,73.23
158537,2018-06-29 10:07:26.281250,56.78,73.23
158538,2018-06-29 10:07:26.312500,54.2,73.23
158539,2018-06-29 10:07:26.343750,52.76,73.23
158540,2018-06-29 10:07:26.375000,52.91,73.23
158541,2018-06-29 10:07:26.406250,52.51,73.23
158542,2018-06-29 10:07:26.437500,51.43,73.23
158543,2018-06-29 10:07:26.468750,50.39,73.23
158544,2018-06-29 10:07:26.500000,47.54,73.23
158545,2018-06-29 10:07:26.531250,40.54,72.92
158546,2018-06-29 10:07:26.562500,30.23,72.92
158547,2018-06-29 10:07:26.593750,19.24,72.92
158548,2018-06-29 10:07:26.625000,8.64,72.92
158549,2018-06-29 10:07:26.656250,-2.11,72.92
158550,2018-06-29 10:07:26.687500,-13.67,72.92
158551,2018-06-29 10:07:26.718750,-25.41,72.92
158552,2018-06-29 10:07:26.750000,-35.68,72.92
158553,2018-06-29 10:07:26.781250,-43.7,72.92
158554,2018-06-29 10:07:26.812500,-50.99,72.92
158555,2018-06-29 10:07:26.843750,-60.0,72.92
158556,2018-06-29 10:07:26.875000,-70.37,72.92
158557,2018-06-29 10:07:26.906250,-75.7,72.92
158558,2018-06-29 10:07:26.937500,-67.58,72.92
158559,2018-06-29 10:07:26.968750,-45.61,72.92
158560,2018-06-29 10:07:27.000000,-18.77,72.92
158561,2018-06-29 10:07:27.031250,4.47,72.92
158562,2018-06-29 10:07:27.062500,22.08,72.92
158563,2018-06-29 10:07:27.093750,34.37,72.92
158564,2018-06-29 10:07:27.125000,40.97,72.92
158565,2018-06-29 10:07:27.156250,42.43,72.92
158566,2018-06-29 10:07:27.187500,40.42,72.92
158567,2018-06-29 10:07:27.218750,36.61,72.92
158568,2018-06-29 10:07:27.250000,32.73,72.92
158569,2018-06-29 10:07:27.281250,30.38,72.92
158570,2018-06-29 10:07:27.312500,29.75,72.92
158571,2018-06-29 10:07:27.343750,29.1,72.92
158572,2018-06-29 10:07:27.375000,25.98,72.92
158573,2018-06-29 10:07:27.406250,19.81,72.92
158574,2018-06-29 10:07:27.437500,12.41,72.92
158575,2018-06-29 10:07:27.468750,5.56,72.92
158576,2018-06-29 10:07:27.500000,-1.32,72.92
158577,2018-06-29 10:07:27.531250,-9.88,72.62
158578,2018-06-29 10:07:27.562500,-20.0,72.62
158579,2018-06-29 10:07:27.593750,-29.42,72.62
158580,2018-06-29 10:07:27.625000,-36.67,72.62
158581,2018-06-29 10:07:27.656250,-43.5,72.62
158582,2018-06-29 10:07:27.687500,-52.88,72.62
158583,2018-06-29 10:07:27.718750,-62.77,72.62
158584,2018-06-29 10:07:27.750000,-64.62,72.62
158585,2018-06-29 10:07:27.781250,-52.33,72.62
158586,2018-06-29 10:07:27.812500,-30.56,72.62
158587,2018-06-29 10:07:27.843750,-9.28,72.62
158588,2018-06-29 10:07:27.875000,6.93,72.62
158589,2018-06-29 10:07:27.906250,19.38,72.62
158590,2018-06-29 10:07:27.937500,28.99,72.62
158591,2018-06-29 10:07:27.968750,35.01,72.62
158592,2018-06-29 10:07:28.000000,37.71,72.62
158593,2018-06-29 10:07:28.031250,38.49,72.62
158594,2018-06-29 10:07:28.062500,38.31,72.62
158595,2018-06-29 10:07:28.093750,37.57,72.62
158596,2018-06-29 10:07:28.125000,36.49,72.62
158597,2018-06-29 10:07:28.156250,34.86,72.62
158598,2018-06-29 10:07:28.187500,32.04,72.62
158599,2018-06-29 10:07:28.218750,27.54,72.62
158600,2018-06-29 10:07:28.250000,21.34,72.62
158601,2018-06-29 10:07:28.281250,13.8,72.62
158602,2018-06-29 10:07:28.312500,5.71,72.62
158603,2018-06-29 10:07:28.343750,-2.23,72.62
158604,2018-06-29 10:07:28.375000,-10.9,72.62
158605,2018-06-29 10:07:28.406250,-21.44,72.62
158606,2018-06-29 10:07:28.437500,-32.24,72.62
158607,2018-06-29 10:07:28.468750,-40.26,72.62
158608,2018-06-29 10:07:28.500000,-45.27,72.62
158609,2018-06-29 10:07:28.531250,-50.1,72.3
158610,2018-06-29 10:07:28.562500,-57.29,72.3
158611,2018-06-29 10:07:28.593750,-65.37,72.3
158612,2018-06-29 10:07:28.625000,-67.39,72.3
158613,2018-06-29 10:07:28.656250,-56.26,72.3
158614,2018-06-29 10:07:28.687500,-33.83,72.3
158615,2018-06-29 10:07:28.718750,-10.32,72.3
158616,2018-06-29 10:07:28.750000,6.96,72.3
158617,2018-06-29 10:07:28.781250,19.28,72.3
158618,2018-06-29 10:07:28.812500,30.7,72.3
158619,2018-06-29 10:07:28.843750,42.81,72.3
158620,2018-06-29 10:07:28.875000,55.06,72.3
158621,2018-06-29 10:07:28.906250,65.59,72.3
158622,2018-06-29 10:07:28.937500,71.7,72.3
158623,2018-06-29 10:07:28.968750,71.87,72.3
158624,2018-06-29 10:07:29.000000,67.01,72.3
158625,2018-06-29 10:07:29.031250,58.78,72.3
158626,2018-06-29 10:07:29.062500,47.53,72.3
158627,2018-06-29 10:07:29.093750,32.38,72.3
158628,2018-06-29 10:07:29.125000,14.29,72.3
158629,2018-06-29 10:07:29.156250,-2.88,72.3
158630,2018-06-29 10:07:29.187500,-16.82,72.3
158631,2018-06-29 10:07:29.218750,-28.92,72.3
158632,2018-06-29 10:07:29.250000,-39.08,72.3
158633,2018-06-29 10:07:29.281250,-43.51,72.3
158634,2018-06-29 10:07:29.312500,-39.64,72.3
158635,2018-06-29 10:07:29.343750,-29.01,72.3
158636,2018-06-29 10:07:29.375000,-15.02,72.3
158637,2018-06-29 10:07:29.406250,-1.31,72.3
158638,2018-06-29 10:07:29.437500,8.79,72.3
158639,2018-06-29 10:07:29.468750,13.0,72.3
158640,2018-06-29 10:07:29.500000,10.42,72.3
158641,2018-06-29 10:07:29.531250,1.86,71.98
158642,2018-06-29 10:07:29.562500,-10.11,71.98
158643,2018-06-29 10:07:29.593750,-22.64,71.98
158644,2018-06-29 10:07:29.625000,-34.21,71.98
158645,2018-06-29 10:07:29.656250,-45.33,71.98
158646,2018-06-29 10:07:29.687500,-57.01,71.98
158647,2018-06-29 10:07:29.718750,-66.42,71.98
158648,2018-06-29 10:07:29.750000,-65.88,71.98
158649,2018-06-29 10:07:29.781250,-50.98,71.98
158650,2018-06-29 10:07:29.812500,-27.92,71.98
158651,2018-06-29 10:07:29.843750,-7.36,71.98
158652,2018-06-29 10:07:29.875000,6.56,71.98
158653,2018-06-29 10:07:29.906250,15.51,71.98
158654,2018-06-29 10:07:29.937500,19.86,71.98
158655,2018-06-29 10:07:29.968750,19.03,71.98
158656,2018-06-29 10:07:30.000000,15.22,71.98
158657,2018-06-29 10:07:30.031250,11.9,71.98
158658,2018-06-29 10:07:30.062500,10.45,71.98
158659,2018-06-29 10:07:30.093750,10.68,71.98
158660,2018-06-29 10:07:30.125000,11.99,71.98
158661,2018-06-29 10:07:30.156250,13.43,71.98
158662,2018-06-29 10:07:30.187500,14.16,71.98
158663,2018-06-29 10:07:30.218750,13.64,71.98
158664,2018-06-29 10:07:30.250000,11.54,71.98
158665,2018-06-29 10:07:30.281250,8.33,71.98
158666,2018-06-29 10:07:30.312500,4.61,71.98
158667,2018-06-29 10:07:30.343750,-0.36,71.98
158668,2018-06-29 10:07:30.375000,-7.13,71.98
158669,2018-06-29 10:07:30.406250,-14.45,71.98
158670,2018-06-29 10:07:30.437500,-21.32,71.98
158671,2018-06-29 10:07:30.468750,-28.13,71.98
158672,2018-06-29 10:07:30.500000,-34.62,71.98
158673,2018-06-29 10:07:30.531250,-39.14,71.67
158674,2018-06-29 10:07:30.562500,-40.65,71.67
158675,2018-06-29 10:07:30.593750,-40.42,71.67
158676,2018-06-29 10:07:30.625000,-41.97,71.67
158677,2018-06-29 10:07:30.656250,-47.66,71.67
158678,2018-06-29 10:07:30.687500,-53.69,71.67
158679,2018-06-29 10:07:30.718750,-52.11,71.67
158680,2018-06-29 10:07:30.750000,-40.19,71.67
158681,2018-06-29 10:07:30.781250,-24.31,71.67
158682,2018-06-29 10:07:30.812500,-11.9,71.67
158683,2018-06-29 10:07:30.843750,-4.11,71.67
158684,2018-06-29 10:07:30.875000,1.35,71.67
158685,2018-06-29 10:07:30.906250,5.55,71.67
158686,2018-06-29 10:07:30.937500,8.75,71.67
158687,2018-06-29 10:07:30.968750,11.3,71.67
158688,2018-06-29 10:07:31.000000,12.88,71.67
158689,2018-06-29 10:07:31.031250,13.05,71.67
158690,2018-06-29 10:07:31.062500,12.09,71.67
158691,2018-06-29 10:07:31.093750,10.16,71.67
158692,2018-06-29 10:07:31.125000,7.29,71.67
158693,2018-06-29 10:07:31.156250,3.88,71.67
158694,2018-06-29 10:07:31.187500,0.5,71.67
158695,2018-06-29 10:07:31.218750,-1.51,71.67
158696,2018-06-29 10:07:31.250000,1.22,71.67
158697,2018-06-29 10:07:31.281250,11.7,71.67
158698,2018-06-29 10:07:31.312500,28.57,71.67
158699,2018-06-29 10:07:31.343750,46.41,71.67
158700,2018-06-29 10:07:31.375000,59.95,71.67
158701,2018-06-29 10:07:31.406250,66.3,71.67
158702,2018-06-29 10:07:31.437500,63.79,71.67
158703,2018-06-29 10:07:31.468750,51.08,71.67
158704,2018-06-29 10:07:31.500000,29.17,71.67
158705,2018-06-29 10:07:31.531250,2.61,71.37
158706,2018-06-29 10:07:31.562500,-23.09,71.37
158707,2018-06-29 10:07:31.593750,-44.51,71.37
158708,2018-06-29 10:07:31.625000,-60.89,71.37
158709,2018-06-29 10:07:31.656250,-73.53,71.37
158710,2018-06-29 10:07:31.687500,-83.39,71.37
158711,2018-06-29 10:07:31.718750,-87.29,71.37
158712,2018-06-29 10:07:31.750000,-79.74,71.37
158713,2018-06-29 10:07:31.781250,-60.85,71.37
158714,2018-06-29 10:07:31.812500,-38.58,71.37
158715,2018-06-29 10:07:31.843750,-20.48,71.37
158716,2018-06-29 10:07:31.875000,-7.41,71.37
158717,2018-06-29 10:07:31.906250,2.73,71.37
158718,2018-06-29 10:07:31.937500,10.07,71.37
158719,2018-06-29 10:07:31.968750,14.18,71.37
158720,2018-06-29 10:07:32.000000,16.46,71.37
158721,2018-06-29 10:07:32.031250,18.81,71.37
158722,2018-06-29 10:07:32.062500,21.55,71.37
158723,2018-06-29 10:07:32.093750,24.46,71.37
158724,2018-06-29 10:07:32.125000,27.95,71.37
158725,2018-06-29 10:07:32.156250,31.14,71.37
158726,2018-06-29 10:07:32.187500,31.22,71.37
158727,2018-06-29 10:07:32.218750,27.26,71.37
158728,2018-06-29 10:07:32.250000,22.33,71.37
158729,2018-06-29 10:07:32.281250,19.5,71.37
158730,2018-06-29 10:07:32.312500,17.9,71.37
158731,2018-06-29 10:07:32.343750,14.65,71.37
158732,2018-06-29 10:07:32.375000,8.8,71.37
158733,2018-06-29 10:07:32.406250,1.95,71.37
158734,2018-06-29 10:07:32.437500,-4.22,71.37
158735,2018-06-29 10:07:32.468750,-9.73,71.37
158736,2018-06-29 10:07:32.500000,-15.26,71.37
158737,2018-06-29 10:07:32.531250,-20.79,71.08
158738,2018-06-29 10:07:32.562500,-26.51,71.08
158739,2018-06-29 10:07:32.593750,-33.73,71.08
158740,2018-06-29 10:07:32.625000,-43.89,71.08
158741,2018-06-29 10:07:32.656250,-56.57,71.08
158742,2018-06-29 10:07:32.687500,-67.61,71.08
158743,2018-06-29 10:07:32.718750,-70.26,71.08
158744,2018-06-29 10:07:32.750000,-61.27,71.08
158745,2018-06-29 10:07:32.781250,-44.63,71.08
158746,2018-06-29 10:07:32.812500,-26.85,71.08
158747,2018-06-29 10:07:32.843750,-10.35,71.08
158748,2018-06-29 10:07:32.875000,5.52,71.08
158749,2018-06-29 10:07:32.906250,19.42,71.08
158750,2018-06-29 10:07:32.937500,27.92,71.08
158751,2018-06-29 10:07:32.968750,29.88,71.08
158752,2018-06-29 10:07:33.000000,28.27,71.08
158753,2018-06-29 10:07:33.031250,27.04,71.08
158754,2018-06-29 10:07:33.062500,27.64,71.08
158755,2018-06-29 10:07:33.093750,29.29,71.08
158756,2018-06-29 10:07:33.125000,30.63,71.08
158757,2018-06-29 10:07:33.156250,30.37,71.08
158758,2018-06-29 10:07:33.187500,27.3,71.08
158759,2018-06-29 10:07:33.218750,21.28,71.08
158760,2018-06-29 10:07:33.250000,13.79,71.08
158761,2018-06-29 10:07:33.281250,6.35,71.08
158762,2018-06-29 10:07:33.312500,-1.28,71.08
158763,2018-06-29 10:07:33.343750,-10.29,71.08
158764,2018-06-29 10:07:33.375000,-20.49,71.08
158765,2018-06-29 10:07:33.406250,-30.44,71.08
158766,2018-06-29 10:07:33.437500,-39.56,71.08
158767,2018-06-29 10:07:33.468750,-48.27,71.08
158768,2018-06-29 10:07:33.500000,-56.74,71.08
158769,2018-06-29 10:07:33.531250,-65.26,70.8
158770,2018-06-29 10:07:33.562500,-72.85,70.8
158771,2018-06-29 10:07:33.593750,-73.34,70.8
158772,2018-06-29 10:07:33.625000,-58.13,70.8
158773,2018-06-29 10:07:33.656250,-26.36,70.8
158774,2018-06-29 10:07:33.687500,12.81,70.8
158775,2018-06-29 10:07:33.718750,49.82,70.8
158776,2018-06-29 10:07:33.750000,80.16,70.8
158777,2018-06-29 10:07:33.781250,99.44,70.8
158778,2018-06-29 10:07:33.812500,102.36,70.8
158779,2018-06-29 10:07:33.843750,89.84,70.8
158780,2018-06-29 10:07:33.875000,70.79,70.8
158781,2018-06-29 10:07:33.906250,54.07,70.8
158782,2018-06-29 10:07:33.937500,43.17,70.8
158783,2018-06-29 10:07:33.968750,39.09,70.8
158784,2018-06-29 10:07:34.000000,43.23,70.8
158785,2018-06-29 10:07:34.031250,55.21,70.8
158786,2018-06-29 10:07:34.062500,70.92,70.8
158787,2018-06-29 10:07:34.093750,85.65,70.8
158788,2018-06-29 10:07:34.125000,97.97,70.8
158789,2018-06-29 10:07:34.156250,107.59,70.8
158790,2018-06-29 10:07:34.187500,110.82,70.8
158791,2018-06-29 10:07:34.218750,102.04,70.8
158792,2018-06-29 10:07:34.250000,78.86,70.8
158793,2018-06-29 10:07:34.281250,44.74,70.8
158794,2018-06-29 10:07:34.312500,7.16,70.8
158795,2018-06-29 10:07:34.343750,-27.52,70.8
158796,2018-06-29 10:07:34.375000,-58.13,70.8
158797,2018-06-29 10:07:34.406250,-85.48,70.8
158798,2018-06-29 10:07:34.437500,-105.62,70.8
158799,2018-06-29 10:07:34.468750,-110.31,70.8
158800,2018-06-29 10:07:34.500000,-96.81,70.8
158801,2018-06-29 10:07:34.531250,-72.87,70.5
158802,2018-06-29 10:07:34.562500,-49.0,70.5
158803,2018-06-29 10:07:34.593750,-29.57,70.5
158804,2018-06-29 10:07:34.625000,-14.22,70.5
158805,2018-06-29 10:07:34.656250,-2.91,70.5
158806,2018-06-29 10:07:34.687500,3.77,70.5
158807,2018-06-29 10:07:34.718750,6.63,70.5
158808,2018-06-29 10:07:34.750000,7.09,70.5
158809,2018-06-29 10:07:34.781250,5.35,70.5
158810,2018-06-29 10:07:34.812500,1.01,70.5
158811,2018-06-29 10:07:34.843750,-5.02,70.5
158812,2018-06-29 10:07:34.875000,-10.51,70.5
158813,2018-06-29 10:07:34.906250,-13.65,70.5
158814,2018-06-29 10:07:34.937500,-14.45,70.5
158815,2018-06-29 10:07:34.968750,-13.8,70.5
158816,2018-06-29 10:07:35.000000,-11.86,70.5
158817,2018-06-29 10:07:35.031250,-8.81,70.5
158818,2018-06-29 10:07:35.062500,-6.83,70.5
158819,2018-06-29 10:07:35.093750,-8.43,70.5
158820,2018-06-29 10:07:35.125000,-14.17,70.5
158821,2018-06-29 10:07:35.156250,-23.0,70.5
158822,2018-06-29 10:07:35.187500,-33.02,70.5
158823,2018-06-29 10:07:35.218750,-41.77,70.5
158824,2018-06-29 10:07:35.250000,-48.73,70.5
158825,2018-06-29 10:07:35.281250,-56.71,70.5
158826,2018-06-29 10:07:35.312500,-67.33,70.5
158827,2018-06-29 10:07:35.343750,-75.34,70.5
158828,2018-06-29 10:07:35.375000,-71.19,70.5
158829,2018-06-29 10:07:35.406250,-51.66,70.5
158830,2018-06-29 10:07:35.437500,-24.52,70.5
158831,2018-06-29 10:07:35.468750,-0.39,70.5
158832,2018-06-29 10:07:35.500000,16.93,70.5
158833,2018-06-29 10:07:35.531250,29.51,70.23
158834,2018-06-29 10:07:35.562500,38.62,70.23
158835,2018-06-29 10:07:35.593750,43.65,70.23
158836,2018-06-29 10:07:35.625000,45.55,70.23
158837,2018-06-29 10:07:35.656250,46.84,70.23
158838,2018-06-29 10:07:35.687500,48.29,70.23
158839,2018-06-29 10:07:35.718750,49.14,70.23
158840,2018-06-29 10:07:35.750000,49.19,70.23
158841,2018-06-29 10:07:35.781250,47.87,70.23
158842,2018-06-29 10:07:35.812500,43.64,70.23
158843,2018-06-29 10:07:35.843750,36.51,70.23
158844,2018-06-29 10:07:35.875000,28.84,70.23
158845,2018-06-29 10:07:35.906250,22.55,70.23
158846,2018-06-29 10:07:35.937500,18.02,70.23
158847,2018-06-29 10:07:35.968750,14.94,70.23
158848,2018-06-29 10:07:36.000000,12.28,70.23
158849,2018-06-29 10:07:36.031250,8.38,70.23
158850,2018-06-29 10:07:36.062500,2.47,70.23
158851,2018-06-29 10:07:36.093750,-4.62,70.23
158852,2018-06-29 10:07:36.125000,-12.28,70.23
158853,2018-06-29 10:07:36.156250,-21.53,70.23
158854,2018-06-29 10:07:36.187500,-33.34,70.23
158855,2018-06-29 10:07:36.218750,-46.1,70.23
158856,2018-06-29 10:07:36.250000,-56.95,70.23
158857,2018-06-29 10:07:36.281250,-65.74,70.23
158858,2018-06-29 10:07:36.312500,-75.67,70.23
158859,2018-06-29 10:07:36.343750,-88.1,70.23
158860,2018-06-29 10:07:36.375000,-97.46,70.23
158861,2018-06-29 10:07:36.406250,-93.88,70.23
158862,2018-06-29 10:07:36.437500,-73.5,70.23
158863,2018-06-29 10:07:36.468750,-43.73,70.23
158864,2018-06-29 10:07:36.500000,-15.62,70.23
158865,2018-06-29 10:07:36.531250,6.0,69.97
158866,2018-06-29 10:07:36.562500,21.79,69.97
158867,2018-06-29 10:07:36.593750,32.24,69.97
158868,2018-06-29 10:07:36.625000,37.18,69.97
158869,2018-06-29 10:07:36.656250,38.9,69.97
158870,2018-06-29 10:07:36.687500,41.19,69.97
158871,2018-06-29 10:07:36.718750,45.24,69.97
158872,2018-06-29 10:07:36.750000,49.2,69.97
158873,2018-06-29 10:07:36.781250,51.67,69.97
158874,2018-06-29 10:07:36.812500,52.47,69.97
158875,2018-06-29 10:07:36.843750,51.29,69.97
158876,2018-06-29 10:07:36.875000,48.18,69.97
158877,2018-06-29 10:07:36.906250,44.31,69.97
158878,2018-06-29 10:07:36.937500,40.59,69.97
158879,2018-06-29 10:07:36.968750,36.5,69.97
158880,2018-06-29 10:07:37.000000,30.33,69.97
158881,2018-06-29 10:07:37.031250,20.06,69.97
158882,2018-06-29 10:07:37.062500,5.47,69.97
158883,2018-06-29 10:07:37.093750,-10.54,69.97
158884,2018-06-29 10:07:37.125000,-23.73,69.97
158885,2018-06-29 10:07:37.156250,-32.08,69.97
158886,2018-06-29 10:07:37.187500,-37.28,69.97
158887,2018-06-29 10:07:37.218750,-42.47,69.97
158888,2018-06-29 10:07:37.250000,-48.6,69.97
158889,2018-06-29 10:07:37.281250,-52.31,69.97
158890,2018-06-29 10:07:37.312500,-47.62,69.97
158891,2018-06-29 10:07:37.343750,-32.11,69.97
158892,2018-06-29 10:07:37.375000,-10.96,69.97
158893,2018-06-29 10:07:37.406250,8.22,69.97
158894,2018-06-29 10:07:37.437500,23.45,69.97
158895,2018-06-29 10:07:37.468750,37.84,69.97
158896,2018-06-29 10:07:37.500000,52.95,69.97
158897,2018-06-29 10:07:37.531250,66.45,69.7
158898,2018-06-29 10:07:37.562500,75.92,69.7
158899,2018-06-29 10:07:37.593750,81.24,69.7
158900,2018-06-29 10:07:37.625000,81.47,69.7
158901,2018-06-29 10:07:37.656250,72.29,69.7
158902,2018-06-29 10:07:37.687500,49.66,69.7
158903,2018-06-29 10:07:37.718750,14.35,69.7
158904,2018-06-29 10:07:37.750000,-29.9,69.7
158905,2018-06-29 10:07:37.781250,-79.51,69.7
158906,2018-06-29 10:07:37.812500,-130.7,69.7
158907,2018-06-29 10:07:37.843750,-178.62,69.7
158908,2018-06-29 10:07:37.875000,-216.73,69.7
158909,2018-06-29 10:07:37.906250,-235.93,69.7
158910,2018-06-29 10:07:37.937500,-226.97,69.7
158911,2018-06-29 10:07:37.968750,-188.09,69.7
158912,2018-06-29 10:07:38.000000,-130.38,69.7
158913,2018-06-29 10:07:38.031250,-74.11,69.7
158914,2018-06-29 10:07:38.062500,-37.77,69.7
158915,2018-06-29 10:07:38.093750,-28.07,69.7
158916,2018-06-29 10:07:38.125000,-37.66,69.7
158917,2018-06-29 10:07:38.156250,-52.17,69.7
158918,2018-06-29 10:07:38.187500,-61.16,69.7
158919,2018-06-29 10:07:38.218750,-63.7,69.7
158920,2018-06-29 10:07:38.250000,-61.9,69.7
158921,2018-06-29 10:07:38.281250,-49.77,69.7
158922,2018-06-29 10:07:38.312500,-15.27,69.7
158923,2018-06-29 10:07:38.343750,42.18,69.7
158924,2018-06-29 10:07:38.375000,103.26,69.7
158925,2018-06-29 10:07:38.406250,144.49,69.7
158926,2018-06-29 10:07:38.437500,157.74,69.7
158927,2018-06-29 10:07:38.468750,150.83,69.7
158928,2018-06-29 10:07:38.500000,135.4,69.7
158929,2018-06-29 10:07:38.531250,119.54,69.4
158930,2018-06-29 10:07:38.562500,107.61,69.4
158931,2018-06-29 10:07:38.593750,101.29,69.4
158932,2018-06-29 10:07:38.625000,100.29,69.4
158933,2018-06-29 10:07:38.656250,103.13,69.4
158934,2018-06-29 10:07:38.687500,106.54,69.4
158935,2018-06-29 10:07:38.718750,104.79,69.4
158936,2018-06-29 10:07:38.750000,93.08,69.4
158937,2018-06-29 10:07:38.781250,72.42,69.4
158938,2018-06-29 10:07:38.812500,48.64,69.4
158939,2018-06-29 10:07:38.843750,27.13,69.4
158940,2018-06-29 10:07:38.875000,11.14,69.4
158941,2018-06-29 10:07:38.906250,2.33,69.4
158942,2018-06-29 10:07:38.937500,-0.02,69.4
158943,2018-06-29 10:07:38.968750,1.8,69.4
158944,2018-06-29 10:07:39.000000,6.3,69.4
158945,2018-06-29 10:07:39.031250,11.36,69.4
158946,2018-06-29 10:07:39.062500,11.91,69.4
158947,2018-06-29 10:07:39.093750,4.43,69.4
158948,2018-06-29 10:07:39.125000,-7.86,69.4
158949,2018-06-29 10:07:39.156250,-18.65,69.4
158950,2018-06-29 10:07:39.187500,-25.2,69.4
158951,2018-06-29 10:07:39.218750,-28.95,69.4
158952,2018-06-29 10:07:39.250000,-31.88,69.4
158953,2018-06-29 10:07:39.281250,-33.47,69.4
158954,2018-06-29 10:07:39.312500,-28.46,69.4
158955,2018-06-29 10:07:39.343750,-11.01,69.4
158956,2018-06-29 10:07:39.375000,18.08,69.4
158957,2018-06-29 10:07:39.406250,50.91,69.4
158958,2018-06-29 10:07:39.437500,79.01,69.4
158959,2018-06-29 10:07:39.468750,100.23,69.4
158960,2018-06-29 10:07:39.500000,115.16,69.4
158961,2018-06-29 10:07:39.531250,126.48,69.15
158962,2018-06-29 10:07:39.562500,139.13,69.15
158963,2018-06-29 10:07:39.593750,158.76,69.15
158964,2018-06-29 10:07:39.625000,184.82,69.15
158965,2018-06-29 10:07:39.656250,211.3,69.15
158966,2018-06-29 10:07:39.687500,234.41,69.15
158967,2018-06-29 10:07:39.718750,251.23,69.15
158968,2018-06-29 10:07:39.750000,257.76,69.15
158969,2018-06-29 10:07:39.781250,242.86,69.15
158970,2018-06-29 10:07:39.812500,213.82,69.15
158971,2018-06-29 10:07:39.843750,184.03,69.15
158972,2018-06-29 10:07:39.875000,157.49,69.15
158973,2018-06-29 10:07:39.906250,117.05,69.15
158974,2018-06-29 10:07:39.937500,54.62,69.15
158975,2018-06-29 10:07:39.968750,-5.2,69.15
158976,2018-06-29 10:07:40.000000,-52.29,69.15
158977,2018-06-29 10:07:40.031250,-100.74,69.15
158978,2018-06-29 10:07:40.062500,-187.95,69.15
158979,2018-06-29 10:07:40.093750,-291.54,69.15
158980,2018-06-29 10:07:40.125000,-377.45,69.15
158981,2018-06-29 10:07:40.156250,-444.02,69.15
158982,2018-06-29 10:07:40.187500,-528.74,69.15
158983,2018-06-29 10:07:40.218750,-642.18,69.15
158984,2018-06-29 10:07:40.250000,-729.69,69.15
158985,2018-06-29 10:07:40.281250,-771.56,69.15
158986,2018-06-29 10:07:40.312500,-600.1,69.15
158987,2018-06-29 10:07:40.343750,-208.33,69.15
158988,2018-06-29 10:07:40.375000,95.74,69.15
158989,2018-06-29 10:07:40.406250,241.11,69.15
158990,2018-06-29 10:07:40.437500,322.35,69.15
158991,2018-06-29 10:07:40.468750,346.95,69.15
158992,2018-06-29 10:07:40.500000,315.51,69.15
158993,2018-06-29 10:07:40.531250,279.66,68.88
158994,2018-06-29 10:07:40.562500,253.64,68.88
158995,2018-06-29 10:07:40.593750,219.69,68.88
158996,2018-06-29 10:07:40.625000,152.14,68.88
158997,2018-06-29 10:07:40.656250,85.31,68.88
158998,2018-06-29 10:07:40.687500,49.95,68.88
158999,2018-06-29 10:07:40.718750,34.54,68.88
159000,2018-06-29 10:07:40.750000,8.84,68.88
159001,2018-06-29 10:07:40.781250,-33.84,68.88
159002,2018-06-29 10:07:40.812500,-68.51,68.88
159003,2018-06-29 10:07:40.843750,-91.41,68.88
159004,2018-06-29 10:07:40.875000,-115.24,68.88
159005,2018-06-29 10:07:40.906250,-148.8,68.88
159006,2018-06-29 10:07:40.937500,-179.53,68.88
159007,2018-06-29 10:07:40.968750,-198.45,68.88
159008,2018-06-29 10:07:41.000000,-210.41,68.88
159009,2018-06-29 10:07:41.031250,-223.58,68.88
159010,2018-06-29 10:07:41.062500,-238.85,68.88
159011,2018-06-29 10:07:41.093750,-245.77,68.88
159012,2018-06-29 10:07:41.125000,-240.21,68.88
159013,2018-06-29 10:07:41.156250,-233.97,68.88
159014,2018-06-29 10:07:41.187500,-235.06,68.88
159015,2018-06-29 10:07:41.218750,-231.38,68.88
159016,2018-06-29 10:07:41.250000,-210.78,68.88
159017,2018-06-29 10:07:41.281250,-183.16,68.88
159018,2018-06-29 10:07:41.312500,-165.58,68.88
159019,2018-06-29 10:07:41.343750,-160.42,68.88
159020,2018-06-29 10:07:41.375000,-155.55,68.88
159021,2018-06-29 10:07:41.406250,-133.9,68.88
159022,2018-06-29 10:07:41.437500,-86.79,68.88
159023,2018-06-29 10:07:41.468750,-24.23,68.88
159024,2018-06-29 10:07:41.500000,35.1,68.88
159025,2018-06-29 10:07:41.531250,83.89,68.57
159026,2018-06-29 10:07:41.562500,126.83,68.57
159027,2018-06-29 10:07:41.593750,166.69,68.57
159028,2018-06-29 10:07:41.625000,200.57,68.57
159029,2018-06-29 10:07:41.656250,224.08,68.57
159030,2018-06-29 10:07:41.687500,232.65,68.57
159031,2018-06-29 10:07:41.718750,224.58,68.57
159032,2018-06-29 10:07:41.750000,205.45,68.57
159033,2018-06-29 10:07:41.781250,184.02,68.57
159034,2018-06-29 10:07:41.812500,163.6,68.57
159035,2018-06-29 10:07:41.843750,142.07,68.57
159036,2018-06-29 10:07:41.875000,119.22,68.57
159037,2018-06-29 10:07:41.906250,98.88,68.57
159038,2018-06-29 10:07:41.937500,83.43,68.57
159039,2018-06-29 10:07:41.968750,70.07,68.57
159040,2018-06-29 10:07:42.000000,54.75,68.57
159041,2018-06-29 10:07:42.031250,37.28,68.57
159042,2018-06-29 10:07:42.062500,20.31,68.57
159043,2018-06-29 10:07:42.093750,4.47,68.57
159044,2018-06-29 10:07:42.125000,-12.93,68.57
159045,2018-06-29 10:07:42.156250,-33.27,68.57
159046,2018-06-29 10:07:42.187500,-49.85,68.57
159047,2018-06-29 10:07:42.218750,-49.87,68.57
159048,2018-06-29 10:07:42.250000,-28.38,68.57
159049,2018-06-29 10:07:42.281250,4.05,68.57
159050,2018-06-29 10:07:42.312500,33.08,68.57
159051,2018-06-29 10:07:42.343750,54.5,68.57
159052,2018-06-29 10:07:42.375000,71.43,68.57
159053,2018-06-29 10:07:42.406250,84.84,68.57
159054,2018-06-29 10:07:42.437500,93.25,68.57
159055,2018-06-29 10:07:42.468750,97.15,68.57
159056,2018-06-29 10:07:42.500000,99.19,68.57
159057,2018-06-29 10:07:42.531250,100.99,68.32
159058,2018-06-29 10:07:42.562500,102.5,68.32
159059,2018-06-29 10:07:42.593750,103.94,68.32
159060,2018-06-29 10:07:42.625000,105.05,68.32
159061,2018-06-29 10:07:42.656250,103.5,68.32
159062,2018-06-29 10:07:42.687500,97.38,68.32
159063,2018-06-29 10:07:42.718750,88.64,68.32
159064,2018-06-29 10:07:42.750000,80.35,68.32
159065,2018-06-29 10:07:42.781250,72.2,68.32
159066,2018-06-29 10:07:42.812500,61.98,68.32
159067,2018-06-29 10:07:42.843750,49.48,68.32
159068,2018-06-29 10:07:42.875000,36.74,68.32
159069,2018-06-29 10:07:42.906250,25.33,68.32
159070,2018-06-29 10:07:42.937500,14.38,68.32
159071,2018-06-29 10:07:42.968750,2.14,68.32
159072,2018-06-29 10:07:43.000000,-11.27,68.32
159073,2018-06-29 10:07:43.031250,-24.45,68.32
159074,2018-06-29 10:07:43.062500,-37.36,68.32
159075,2018-06-29 10:07:43.093750,-51.52,68.32
159076,2018-06-29 10:07:43.125000,-67.19,68.32
159077,2018-06-29 10:07:43.156250,-79.0,68.32
159078,2018-06-29 10:07:43.187500,-76.23,68.32
159079,2018-06-29 10:07:43.218750,-53.62,68.32
159080,2018-06-29 10:07:43.250000,-19.96,68.32
159081,2018-06-29 10:07:43.281250,11.49,68.32
159082,2018-06-29 10:07:43.312500,36.19,68.32
159083,2018-06-29 10:07:43.343750,55.88,68.32
159084,2018-06-29 10:07:43.375000,70.07,68.32
159085,2018-06-29 10:07:43.406250,77.04,68.32
159086,2018-06-29 10:07:43.437500,78.19,68.32
159087,2018-06-29 10:07:43.468750,76.87,68.32
159088,2018-06-29 10:07:43.500000,74.72,68.32
159089,2018-06-29 10:07:43.531250,71.69,68.07
159090,2018-06-29 10:07:43.562500,67.94,68.07
159091,2018-06-29 10:07:43.593750,63.6,68.07
159092,2018-06-29 10:07:43.625000,57.35,68.07
159093,2018-06-29 10:07:43.656250,48.11,68.07
159094,2018-06-29 10:07:43.687500,37.71,68.07
159095,2018-06-29 10:07:43.718750,29.31,68.07
159096,2018-06-29 10:07:43.750000,23.03,68.07
159097,2018-06-29 10:07:43.781250,16.01,68.07
159098,2018-06-29 10:07:43.812500,6.89,68.07
159099,2018-06-29 10:07:43.843750,-2.57,68.07
159100,2018-06-29 10:07:43.875000,-11.01,68.07
159101,2018-06-29 10:07:43.906250,-19.51,68.07
159102,2018-06-29 10:07:43.937500,-29.05,68.07
159103,2018-06-29 10:07:43.968750,-38.55,68.07
159104,2018-06-29 10:07:44.000000,-47.36,68.07
159105,2018-06-29 10:07:44.031250,-57.28,68.07
159106,2018-06-29 10:07:44.062500,-70.67,68.07
159107,2018-06-29 10:07:44.093750,-86.35,68.07
159108,2018-06-29 10:07:44.125000,-96.68,68.07
159109,2018-06-29 10:07:44.156250,-91.11,68.07
159110,2018-06-29 10:07:44.187500,-66.99,68.07
159111,2018-06-29 10:07:44.218750,-33.76,68.07
159112,2018-06-29 10:07:44.250000,-3.14,68.07
159113,2018-06-29 10:07:44.281250,20.27,68.07
159114,2018-06-29 10:07:44.312500,37.27,68.07
159115,2018-06-29 10:07:44.343750,48.93,68.07
159116,2018-06-29 10:07:44.375000,55.17,68.07
159117,2018-06-29 10:07:44.406250,56.22,68.07
159118,2018-06-29 10:07:44.437500,54.15,68.07
159119,2018-06-29 10:07:44.468750,51.92,68.07
159120,2018-06-29 10:07:44.500000,51.13,68.07
159121,2018-06-29 10:07:44.531250,51.78,67.95
159122,2018-06-29 10:07:44.562500,52.68,67.95
159123,2018-06-29 10:07:44.593750,51.44,67.95
159124,2018-06-29 10:07:44.625000,46.79,67.95
159125,2018-06-29 10:07:44.656250,40.57,67.95
159126,2018-06-29 10:07:44.687500,34.65,67.95
159127,2018-06-29 10:07:44.718750,28.1,67.95
159128,2018-06-29 10:07:44.750000,19.37,67.95
159129,2018-06-29 10:07:44.781250,9.1,67.95
159130,2018-06-29 10:07:44.812500,-1.23,67.95
159131,2018-06-29 10:07:44.843750,-11.51,67.95
159132,2018-06-29 10:07:44.875000,-22.75,67.95
159133,2018-06-29 10:07:44.906250,-35.04,67.95
159134,2018-06-29 10:07:44.937500,-46.7,67.95
159135,2018-06-29 10:07:44.968750,-56.49,67.95
159136,2018-06-29 10:07:45.000000,-66.13,67.95
159137,2018-06-29 10:07:45.031250,-78.47,67.95
159138,2018-06-29 10:07:45.062500,-91.18,67.95
159139,2018-06-29 10:07:45.093750,-94.53,67.95
159140,2018-06-29 10:07:45.125000,-79.97,67.95
159141,2018-06-29 10:07:45.156250,-50.81,67.95
159142,2018-06-29 10:07:45.187500,-19.58,67.95
159143,2018-06-29 10:07:45.218750,5.07,67.95
159144,2018-06-29 10:07:45.250000,23.25,67.95
159145,2018-06-29 10:07:45.281250,36.94,67.95
159146,2018-06-29 10:07:45.312500,45.25,67.95
159147,2018-06-29 10:07:45.343750,47.54,67.95
159148,2018-06-29 10:07:45.375000,46.51,67.95
159149,2018-06-29 10:07:45.406250,45.63,67.95
159150,2018-06-29 10:07:45.437500,45.63,67.95
159151,2018-06-29 10:07:45.468750,45.47,67.95
159152,2018-06-29 10:07:45.500000,44.84,67.95
159153,2018-06-29 10:07:45.531250,43.54,67.88
159154,2018-06-29 10:07:45.562500,40.45,67.88
159155,2018-06-29 10:07:45.593750,35.44,67.88
159156,2018-06-29 10:07:45.625000,30.05,67.88
159157,2018-06-29 10:07:45.656250,24.83,67.88
159158,2018-06-29 10:07:45.687500,18.31,67.88
159159,2018-06-29 10:07:45.718750,9.67,67.88
159160,2018-06-29 10:07:45.750000,-0.26,67.88
159161,2018-06-29 10:07:45.781250,-10.76,67.88
159162,2018-06-29 10:07:45.812500,-21.91,67.88
159163,2018-06-29 10:07:45.843750,-33.38,67.88
159164,2018-06-29 10:07:45.875000,-44.36,67.88
159165,2018-06-29 10:07:45.906250,-55.22,67.88
159166,2018-06-29 10:07:45.937500,-67.39,67.88
159167,2018-06-29 10:07:45.968750,-79.67,67.88
159168,2018-06-29 10:07:46.000000,-85.58,67.88
159169,2018-06-29 10:07:46.031250,-77.58,67.88
159170,2018-06-29 10:07:46.062500,-55.67,67.88
159171,2018-06-29 10:07:46.093750,-28.4,67.88
159172,2018-06-29 10:07:46.125000,-4.24,67.88
159173,2018-06-29 10:07:46.156250,14.4,67.88
159174,2018-06-29 10:07:46.187500,28.35,67.88
159175,2018-06-29 10:07:46.218750,37.22,67.88
159176,2018-06-29 10:07:46.250000,40.08,67.88
159177,2018-06-29 10:07:46.281250,38.61,67.88
159178,2018-06-29 10:07:46.312500,36.8,67.88
159179,2018-06-29 10:07:46.343750,36.62,67.88
159180,2018-06-29 10:07:46.375000,36.36,67.88
159181,2018-06-29 10:07:46.406250,34.77,67.88
159182,2018-06-29 10:07:46.437500,32.58,67.88
159183,2018-06-29 10:07:46.468750,29.15,67.88
159184,2018-06-29 10:07:46.500000,22.36,67.88
159185,2018-06-29 10:07:46.531250,12.48,67.82
159186,2018-06-29 10:07:46.562500,2.34,67.82
159187,2018-06-29 10:07:46.593750,-6.23,67.82
159188,2018-06-29 10:07:46.625000,-13.92,67.82
159189,2018-06-29 10:07:46.656250,-22.24,67.82
159190,2018-06-29 10:07:46.687500,-31.25,67.82
159191,2018-06-29 10:07:46.718750,-39.59,67.82
159192,2018-06-29 10:07:46.750000,-46.4,67.82
159193,2018-06-29 10:07:46.781250,-52.48,67.82
159194,2018-06-29 10:07:46.812500,-59.49,67.82
159195,2018-06-29 10:07:46.843750,-67.82,67.82
159196,2018-06-29 10:07:46.875000,-74.02,67.82
159197,2018-06-29 10:07:46.906250,-71.42,67.82
159198,2018-06-29 10:07:46.937500,-56.79,67.82
159199,2018-06-29 10:07:46.968750,-34.79,67.82
159200,2018-06-29 10:07:47.000000,-13.15,67.82
159201,2018-06-29 10:07:47.031250,4.33,67.82
159202,2018-06-29 10:07:47.062500,17.68,67.82
159203,2018-06-29 10:07:47.093750,26.84,67.82
159204,2018-06-29 10:07:47.125000,31.15,67.82
159205,2018-06-29 10:07:47.156250,31.58,67.82
159206,2018-06-29 10:07:47.187500,31.23,67.82
159207,2018-06-29 10:07:47.218750,32.3,67.82
159208,2018-06-29 10:07:47.250000,34.23,67.82
159209,2018-06-29 10:07:47.281250,35.67,67.82
159210,2018-06-29 10:07:47.312500,36.51,67.82
159211,2018-06-29 10:07:47.343750,36.3,67.82
159212,2018-06-29 10:07:47.375000,33.38,67.82
159213,2018-06-29 10:07:47.406250,27.35,67.82
159214,2018-06-29 10:07:47.437500,20.31,67.82
159215,2018-06-29 10:07:47.468750,13.68,67.82
159216,2018-06-29 10:07:47.500000,5.71,67.82
159217,2018-06-29 10:07:47.531250,-5.19,67.77
159218,2018-06-29 10:07:47.562500,-16.72,67.77
159219,2018-06-29 10:07:47.593750,-25.37,67.77
159220,2018-06-29 10:07:47.625000,-30.99,67.77
159221,2018-06-29 10:07:47.656250,-36.45,67.77
159222,2018-06-29 10:07:47.687500,-44.22,67.77
159223,2018-06-29 10:07:47.718750,-53.66,67.77
159224,2018-06-29 10:07:47.750000,-59.11,67.77
159225,2018-06-29 10:07:47.781250,-53.62,67.77
159226,2018-06-29 10:07:47.812500,-36.9,67.77
159227,2018-06-29 10:07:47.843750,-15.72,67.77
159228,2018-06-29 10:07:47.875000,4.41,67.77
159229,2018-06-29 10:07:47.906250,23.06,67.77
159230,2018-06-29 10:07:47.937500,40.01,67.77
159231,2018-06-29 10:07:47.968750,52.88,67.77
159232,2018-06-29 10:07:48.000000,60.03,67.77
159233,2018-06-29 10:07:48.031250,61.63,67.77
159234,2018-06-29 10:07:48.062500,58.12,67.77
159235,2018-06-29 10:07:48.093750,50.17,67.77
159236,2018-06-29 10:07:48.125000,39.88,67.77
159237,2018-06-29 10:07:48.156250,29.33,67.77
159238,2018-06-29 10:07:48.187500,18.17,67.77
159239,2018-06-29 10:07:48.218750,5.31,67.77
159240,2018-06-29 10:07:48.250000,-8.19,67.77
159241,2018-06-29 10:07:48.281250,-20.9,67.77
159242,2018-06-29 10:07:48.312500,-33.34,67.77
159243,2018-06-29 10:07:48.343750,-46.4,67.77
159244,2018-06-29 10:07:48.375000,-59.35,67.77
159245,2018-06-29 10:07:48.406250,-70.82,67.77
159246,2018-06-29 10:07:48.437500,-80.33,67.77
159247,2018-06-29 10:07:48.468750,-88.6,67.77
159248,2018-06-29 10:07:48.500000,-96.21,67.77
159249,2018-06-29 10:07:48.531250,-100.44,67.77
159250,2018-06-29 10:07:48.562500,-94.76,67.77
159251,2018-06-29 10:07:48.593750,-75.65,67.77
159252,2018-06-29 10:07:48.625000,-48.34,67.77
159253,2018-06-29 10:07:48.656250,-21.62,67.77
159254,2018-06-29 10:07:48.687500,0.12,67.77
159255,2018-06-29 10:07:48.718750,16.67,67.77
159256,2018-06-29 10:07:48.750000,27.68,67.77
159257,2018-06-29 10:07:48.781250,32.26,67.77
159258,2018-06-29 10:07:48.812500,31.33,67.77
159259,2018-06-29 10:07:48.843750,28.24,67.77
159260,2018-06-29 10:07:48.875000,27.25,67.77
159261,2018-06-29 10:07:48.906250,31.05,67.77
159262,2018-06-29 10:07:48.937500,39.16,67.77
159263,2018-06-29 10:07:48.968750,48.59,67.77
159264,2018-06-29 10:07:49.000000,55.36,67.77
159265,2018-06-29 10:07:49.031250,56.26,67.77
159266,2018-06-29 10:07:49.062500,50.85,67.77
159267,2018-06-29 10:07:49.093750,41.79,67.77
159268,2018-06-29 10:07:49.125000,32.3,67.77
159269,2018-06-29 10:07:49.156250,23.72,67.77
159270,2018-06-29 10:07:49.187500,15.82,67.77
159271,2018-06-29 10:07:49.218750,8.2,67.77
159272,2018-06-29 10:07:49.250000,1.09,67.77
159273,2018-06-29 10:07:49.281250,-4.82,67.77
159274,2018-06-29 10:07:49.312500,-8.74,67.77
159275,2018-06-29 10:07:49.343750,-9.88,67.77
159276,2018-06-29 10:07:49.375000,-7.83,67.77
159277,2018-06-29 10:07:49.406250,-4.86,67.77
159278,2018-06-29 10:07:49.437500,-5.61,67.77
159279,2018-06-29 10:07:49.468750,-11.24,67.77
159280,2018-06-29 10:07:49.500000,-15.69,67.77
159281,2018-06-29 10:07:49.531250,-11.35,67.82
159282,2018-06-29 10:07:49.562500,1.9,67.82
159283,2018-06-29 10:07:49.593750,16.53,67.82
159284,2018-06-29 10:07:49.625000,25.13,67.82
159285,2018-06-29 10:07:49.656250,24.68,67.82
159286,2018-06-29 10:07:49.687500,15.28,67.82
159287,2018-06-29 10:07:49.718750,1.11,67.82
159288,2018-06-29 10:07:49.750000,-9.34,67.82
159289,2018-06-29 10:07:49.781250,-10.44,67.82
159290,2018-06-29 10:07:49.812500,-5.3,67.82
159291,2018-06-29 10:07:49.843750,-0.28,67.82
159292,2018-06-29 10:07:49.875000,2.87,67.82
159293,2018-06-29 10:07:49.906250,5.59,67.82
159294,2018-06-29 10:07:49.937500,7.09,67.82
159295,2018-06-29 10:07:49.968750,4.85,67.82
159296,2018-06-29 10:07:50.000000,-1.35,67.82
159297,2018-06-29 10:07:50.031250,-8.29,67.82
159298,2018-06-29 10:07:50.062500,-11.98,67.82
159299,2018-06-29 10:07:50.093750,-10.2,67.82
159300,2018-06-29 10:07:50.125000,-4.02,67.82
159301,2018-06-29 10:07:50.156250,1.4,67.82
159302,2018-06-29 10:07:50.187500,-0.74,67.82
159303,2018-06-29 10:07:50.218750,-12.81,67.82
159304,2018-06-29 10:07:50.250000,-30.61,67.82
159305,2018-06-29 10:07:50.281250,-48.86,67.82
159306,2018-06-29 10:07:50.312500,-66.25,67.82
159307,2018-06-29 10:07:50.343750,-83.35,67.82
159308,2018-06-29 10:07:50.375000,-99.84,67.82
159309,2018-06-29 10:07:50.406250,-114.25,67.82
159310,2018-06-29 10:07:50.437500,-121.91,67.82
159311,2018-06-29 10:07:50.468750,-116.46,67.82
159312,2018-06-29 10:07:50.500000,-98.54,67.82
159313,2018-06-29 10:07:50.531250,-77.97,67.9
159314,2018-06-29 10:07:50.562500,-62.73,67.9
159315,2018-06-29 10:07:50.593750,-50.44,67.9
159316,2018-06-29 10:07:50.625000,-34.31,67.9
159317,2018-06-29 10:07:50.656250,-13.86,67.9
159318,2018-06-29 10:07:50.687500,4.88,67.9
159319,2018-06-29 10:07:50.718750,18.34,67.9
159320,2018-06-29 10:07:50.750000,29.54,67.9
159321,2018-06-29 10:07:50.781250,42.13,67.9
159322,2018-06-29 10:07:50.812500,55.37,67.9
159323,2018-06-29 10:07:50.843750,65.6,67.9
159324,2018-06-29 10:07:50.875000,70.58,67.9
159325,2018-06-29 10:07:50.906250,78.02,67.9
159326,2018-06-29 10:07:50.937500,109.57,67.9
159327,2018-06-29 10:07:50.968750,178.65,67.9
159328,2018-06-29 10:07:51.000000,261.05,67.9
159329,2018-06-29 10:07:51.031250,311.03,67.9
159330,2018-06-29 10:07:51.062500,308.43,67.9
159331,2018-06-29 10:07:51.093750,267.52,67.9
159332,2018-06-29 10:07:51.125000,208.12,67.9
159333,2018-06-29 10:07:51.156250,145.51,67.9
159334,2018-06-29 10:07:51.187500,96.45,67.9
159335,2018-06-29 10:07:51.218750,68.2,67.9
159336,2018-06-29 10:07:51.250000,50.03,67.9
159337,2018-06-29 10:07:51.281250,29.24,67.9
159338,2018-06-29 10:07:51.312500,6.64,67.9
159339,2018-06-29 10:07:51.343750,-8.07,67.9
159340,2018-06-29 10:07:51.375000,-6.81,67.9
159341,2018-06-29 10:07:51.406250,11.75,67.9
159342,2018-06-29 10:07:51.437500,41.04,67.9
159343,2018-06-29 10:07:51.468750,69.84,67.9
159344,2018-06-29 10:07:51.500000,88.26,67.9
159345,2018-06-29 10:07:51.531250,88.33,67.95
159346,2018-06-29 10:07:51.562500,62.84,67.95
159347,2018-06-29 10:07:51.593750,11.97,67.95
159348,2018-06-29 10:07:51.625000,-46.16,67.95
159349,2018-06-29 10:07:51.656250,-81.79,67.95
159350,2018-06-29 10:07:51.687500,-80.33,67.95
159351,2018-06-29 10:07:51.718750,-57.3,67.95
159352,2018-06-29 10:07:51.750000,-38.58,67.95
159353,2018-06-29 10:07:51.781250,-35.51,67.95
159354,2018-06-29 10:07:51.812500,-47.43,67.95
159355,2018-06-29 10:07:51.843750,-73.7,67.95
159356,2018-06-29 10:07:51.875000,-110.61,67.95
159357,2018-06-29 10:07:51.906250,-146.65,67.95
159358,2018-06-29 10:07:51.937500,-169.01,67.95
159359,2018-06-29 10:07:51.968750,-170.72,67.95
159360,2018-06-29 10:07:52.000000,-154.87,67.95
159361,2018-06-29 10:07:52.031250,-136.4,67.95
159362,2018-06-29 10:07:52.062500,-130.73,67.95
159363,2018-06-29 10:07:52.093750,-137.84,67.95
159364,2018-06-29 10:07:52.125000,-147.35,67.95
159365,2018-06-29 10:07:52.156250,-155.71,67.95
159366,2018-06-29 10:07:52.187500,-165.15,67.95
159367,2018-06-29 10:07:52.218750,-168.85,67.95
159368,2018-06-29 10:07:52.250000,-152.51,67.95
159369,2018-06-29 10:07:52.281250,-112.76,67.95
159370,2018-06-29 10:07:52.312500,-64.7,67.95
159371,2018-06-29 10:07:52.343750,-24.73,67.95
159372,2018-06-29 10:07:52.375000,6.2,67.95
159373,2018-06-29 10:07:52.406250,32.81,67.95
159374,2018-06-29 10:07:52.437500,50.24,67.95
159375,2018-06-29 10:07:52.468750,52.44,67.95
159376,2018-06-29 10:07:52.500000,47.18,67.95
159377,2018-06-29 10:07:52.531250,48.52,68.03
159378,2018-06-29 10:07:52.562500,59.97,68.03
159379,2018-06-29 10:07:52.593750,75.34,68.03
159380,2018-06-29 10:07:52.625000,90.65,68.03
159381,2018-06-29 10:07:52.656250,103.95,68.03
159382,2018-06-29 10:07:52.687500,106.65,68.03
159383,2018-06-29 10:07:52.718750,87.77,68.03
159384,2018-06-29 10:07:52.750000,46.73,68.03
159385,2018-06-29 10:07:52.781250,-3.87,68.03
159386,2018-06-29 10:07:52.812500,-42.57,68.03
159387,2018-06-29 10:07:52.843750,-47.42,68.03
159388,2018-06-29 10:07:52.875000,-16.62,68.03
159389,2018-06-29 10:07:52.906250,21.18,68.03
159390,2018-06-29 10:07:52.937500,36.44,68.03
159391,2018-06-29 10:07:52.968750,30.94,68.03
