,Time,ppg,hr
16000,2018-06-29 08:53:12.000000,-72.89,46.42
16001,2018-06-29 08:53:12.031250,-53.94,46.42
16002,2018-06-29 08:53:12.062500,-30.58,46.42
16003,2018-06-29 08:53:12.093750,-11.01,46.42
16004,2018-06-29 08:53:12.125000,2.85,46.42
16005,2018-06-29 08:53:12.156250,13.74,46.42
16006,2018-06-29 08:53:12.187500,23.18,46.42
16007,2018-06-29 08:53:12.218750,29.91,46.42
16008,2018-06-29 08:53:12.250000,33.59,46.42
16009,2018-06-29 08:53:12.281250,36.18,46.42
16010,2018-06-29 08:53:12.312500,39.24,46.42
16011,2018-06-29 08:53:12.343750,42.46,46.42
16012,2018-06-29 08:53:12.375000,45.22,46.42
16013,2018-06-29 08:53:12.406250,47.06,46.42
16014,2018-06-29 08:53:12.437500,46.61,46.42
16015,2018-06-29 08:53:12.468750,43.1,46.42
16016,2018-06-29 08:53:12.500000,38.42,46.42
16017,2018-06-29 08:53:12.531250,34.73,46.53
16018,2018-06-29 08:53:12.562500,31.28,46.53
16019,2018-06-29 08:53:12.593750,26.7,46.53
16020,2018-06-29 08:53:12.625000,22.13,46.53
16021,2018-06-29 08:53:12.656250,18.7,46.53
16022,2018-06-29 08:53:12.687500,15.0,46.53
16023,2018-06-29 08:53:12.718750,9.75,46.53
16024,2018-06-29 08:53:12.750000,3.97,46.53
16025,2018-06-29 08:53:12.781250,-1.57,46.53
16026,2018-06-29 08:53:12.812500,-8.15,46.53
16027,2018-06-29 08:53:12.843750,-16.8,46.53
16028,2018-06-29 08:53:12.875000,-26.39,46.53
16029,2018-06-29 08:53:12.906250,-35.13,46.53
16030,2018-06-29 08:53:12.937500,-43.02,46.53
16031,2018-06-29 08:53:12.968750,-51.91,46.53
16032,2018-06-29 08:53:13.000000,-63.53,46.53
16033,2018-06-29 08:53:13.031250,-75.98,46.53
16034,2018-06-29 08:53:13.062500,-82.2,46.53
16035,2018-06-29 08:53:13.093750,-75.02,46.53
16036,2018-06-29 08:53:13.125000,-55.45,46.53
16037,2018-06-29 08:53:13.156250,-32.21,46.53
16038,2018-06-29 08:53:13.187500,-12.41,46.53
16039,2018-06-29 08:53:13.218750,3.35,46.53
16040,2018-06-29 08:53:13.250000,16.79,46.53
16041,2018-06-29 08:53:13.281250,27.52,46.53
16042,2018-06-29 08:53:13.312500,34.38,46.53
16043,2018-06-29 08:53:13.343750,38.02,46.53
16044,2018-06-29 08:53:13.375000,40.26,46.53
16045,2018-06-29 08:53:13.406250,42.6,46.53
16046,2018-06-29 08:53:13.437500,45.87,46.53
16047,2018-06-29 08:53:13.468750,49.52,46.53
16048,2018-06-29 08:53:13.500000,51.39,46.53
16049,2018-06-29 08:53:13.531250,49.74,46.63
16050,2018-06-29 08:53:13.562500,45.45,46.63
16051,2018-06-29 08:53:13.593750,40.99,46.63
16052,2018-06-29 08:53:13.625000,37.95,46.63
16053,2018-06-29 08:53:13.656250,36.2,46.63
16054,2018-06-29 08:53:13.687500,34.6,46.63
16055,2018-06-29 08:53:13.718750,32.29,46.63
16056,2018-06-29 08:53:13.750000,29.47,46.63
16057,2018-06-29 08:53:13.781250,26.54,46.63
16058,2018-06-29 08:53:13.812500,23.22,46.63
16059,2018-06-29 08:53:13.843750,19.23,46.63
16060,2018-06-29 08:53:13.875000,15.4,46.63
16061,2018-06-29 08:53:13.906250,12.77,46.63
16062,2018-06-29 08:53:13.937500,10.5,46.63
16063,2018-06-29 08:53:13.968750,6.79,46.63
16064,2018-06-29 08:53:14.000000,1.64,46.63
16065,2018-06-29 08:53:14.031250,-2.9,46.63
16066,2018-06-29 08:53:14.062500,-5.77,46.63
16067,2018-06-29 08:53:14.093750,-8.51,46.63
16068,2018-06-29 08:53:14.125000,-13.22,46.63
16069,2018-06-29 08:53:14.156250,-19.68,46.63
16070,2018-06-29 08:53:14.187500,-25.78,46.63
16071,2018-06-29 08:53:14.218750,-30.35,46.63
16072,2018-06-29 08:53:14.250000,-34.79,46.63
16073,2018-06-29 08:53:14.281250,-41.65,46.63
16074,2018-06-29 08:53:14.312500,-52.05,46.63
16075,2018-06-29 08:53:14.343750,-62.38,46.63
16076,2018-06-29 08:53:14.375000,-64.56,46.63
16077,2018-06-29 08:53:14.406250,-53.63,46.63
16078,2018-06-29 08:53:14.437500,-34.61,46.63
16079,2018-06-29 08:53:14.468750,-16.92,46.63
16080,2018-06-29 08:53:14.500000,-4.33,46.63
16081,2018-06-29 08:53:14.531250,4.99,46.75
16082,2018-06-29 08:53:14.562500,12.19,46.75
16083,2018-06-29 08:53:14.593750,16.61,46.75
16084,2018-06-29 08:53:14.625000,18.72,46.75
16085,2018-06-29 08:53:14.656250,20.3,46.75
16086,2018-06-29 08:53:14.687500,22.32,46.75
16087,2018-06-29 08:53:14.718750,24.62,46.75
16088,2018-06-29 08:53:14.750000,26.93,46.75
16089,2018-06-29 08:53:14.781250,28.75,46.75
16090,2018-06-29 08:53:14.812500,29.0,46.75
16091,2018-06-29 08:53:14.843750,26.95,46.75
16092,2018-06-29 08:53:14.875000,23.48,46.75
16093,2018-06-29 08:53:14.906250,20.41,46.75
16094,2018-06-29 08:53:14.937500,18.7,46.75
16095,2018-06-29 08:53:14.968750,17.47,46.75
16096,2018-06-29 08:53:15.000000,15.47,46.75
16097,2018-06-29 08:53:15.031250,12.63,46.75
16098,2018-06-29 08:53:15.062500,9.83,46.75
16099,2018-06-29 08:53:15.093750,7.83,46.75
16100,2018-06-29 08:53:15.125000,6.4,46.75
16101,2018-06-29 08:53:15.156250,4.25,46.75
16102,2018-06-29 08:53:15.187500,0.81,46.75
16103,2018-06-29 08:53:15.218750,-2.6,46.75
16104,2018-06-29 08:53:15.250000,-4.8,46.75
16105,2018-06-29 08:53:15.281250,-7.05,46.75
16106,2018-06-29 08:53:15.312500,-10.87,46.75
16107,2018-06-29 08:53:15.343750,-15.24,46.75
16108,2018-06-29 08:53:15.375000,-18.75,46.75
16109,2018-06-29 08:53:15.406250,-22.2,46.75
16110,2018-06-29 08:53:15.437500,-26.92,46.75
16111,2018-06-29 08:53:15.468750,-33.14,46.75
16112,2018-06-29 08:53:15.500000,-40.32,46.75
16113,2018-06-29 08:53:15.531250,-45.63,46.87
16114,2018-06-29 08:53:15.562500,-44.21,46.87
16115,2018-06-29 08:53:15.593750,-34.57,46.87
16116,2018-06-29 08:53:15.625000,-21.25,46.87
16117,2018-06-29 08:53:15.656250,-9.6,46.87
16118,2018-06-29 08:53:15.687500,-1.14,46.87
16119,2018-06-29 08:53:15.718750,5.05,46.87
16120,2018-06-29 08:53:15.750000,9.24,46.87
16121,2018-06-29 08:53:15.781250,11.28,46.87
16122,2018-06-29 08:53:15.812500,12.22,46.87
16123,2018-06-29 08:53:15.843750,13.36,46.87
16124,2018-06-29 08:53:15.875000,14.6,46.87
16125,2018-06-29 08:53:15.906250,15.7,46.87
16126,2018-06-29 08:53:15.937500,17.17,46.87
16127,2018-06-29 08:53:15.968750,18.53,46.87
16128,2018-06-29 08:53:16.000000,18.47,46.87
16129,2018-06-29 08:53:16.031250,16.92,46.87
16130,2018-06-29 08:53:16.062500,14.96,46.87
16131,2018-06-29 08:53:16.093750,13.19,46.87
16132,2018-06-29 08:53:16.125000,11.54,46.87
16133,2018-06-29 08:53:16.156250,9.86,46.87
16134,2018-06-29 08:53:16.187500,8.3,46.87
16135,2018-06-29 08:53:16.218750,7.44,46.87
16136,2018-06-29 08:53:16.250000,7.4,46.87
16137,2018-06-29 08:53:16.281250,6.99,46.87
16138,2018-06-29 08:53:16.312500,5.16,46.87
16139,2018-06-29 08:53:16.343750,2.48,46.87
16140,2018-06-29 08:53:16.375000,0.29,46.87
16141,2018-06-29 08:53:16.406250,-1.09,46.87
16142,2018-06-29 08:53:16.437500,-2.43,46.87
16143,2018-06-29 08:53:16.468750,-4.5,46.87
16144,2018-06-29 08:53:16.500000,-7.09,46.87
16145,2018-06-29 08:53:16.531250,-9.12,46.95
16146,2018-06-29 08:53:16.562500,-10.54,46.95
16147,2018-06-29 08:53:16.593750,-12.7,46.95
16148,2018-06-29 08:53:16.625000,-15.88,46.95
16149,2018-06-29 08:53:16.656250,-18.89,46.95
16150,2018-06-29 08:53:16.687500,-21.27,46.95
16151,2018-06-29 08:53:16.718750,-23.97,46.95
16152,2018-06-29 08:53:16.750000,-28.17,46.95
16153,2018-06-29 08:53:16.781250,-34.45,46.95
16154,2018-06-29 08:53:16.812500,-40.75,46.95
16155,2018-06-29 08:53:16.843750,-41.75,46.95
16156,2018-06-29 08:53:16.875000,-34.06,46.95
16157,2018-06-29 08:53:16.906250,-21.14,46.95
16158,2018-06-29 08:53:16.937500,-9.56,46.95
16159,2018-06-29 08:53:16.968750,-2.07,46.95
16160,2018-06-29 08:53:17.000000,2.98,46.95
16161,2018-06-29 08:53:17.031250,6.92,46.95
16162,2018-06-29 08:53:17.062500,9.34,46.95
16163,2018-06-29 08:53:17.093750,10.07,46.95
16164,2018-06-29 08:53:17.125000,9.88,46.95
16165,2018-06-29 08:53:17.156250,9.68,46.95
16166,2018-06-29 08:53:17.187500,10.07,46.95
16167,2018-06-29 08:53:17.218750,11.06,46.95
16168,2018-06-29 08:53:17.250000,12.02,46.95
16169,2018-06-29 08:53:17.281250,12.38,46.95
16170,2018-06-29 08:53:17.312500,12.22,46.95
16171,2018-06-29 08:53:17.343750,11.38,46.95
16172,2018-06-29 08:53:17.375000,9.9,46.95
16173,2018-06-29 08:53:17.406250,8.79,46.95
16174,2018-06-29 08:53:17.437500,8.31,46.95
16175,2018-06-29 08:53:17.468750,7.48,46.95
16176,2018-06-29 08:53:17.500000,6.3,46.95
16177,2018-06-29 08:53:17.531250,5.73,47.03
16178,2018-06-29 08:53:17.562500,5.1,47.03
16179,2018-06-29 08:53:17.593750,3.28,47.03
16180,2018-06-29 08:53:17.625000,1.1,47.03
16181,2018-06-29 08:53:17.656250,-0.19,47.03
16182,2018-06-29 08:53:17.687500,-1.17,47.03
16183,2018-06-29 08:53:17.718750,-2.55,47.03
16184,2018-06-29 08:53:17.750000,-3.87,47.03
16185,2018-06-29 08:53:17.781250,-5.03,47.03
16186,2018-06-29 08:53:17.812500,-6.68,47.03
16187,2018-06-29 08:53:17.843750,-8.74,47.03
16188,2018-06-29 08:53:17.875000,-10.68,47.03
16189,2018-06-29 08:53:17.906250,-12.46,47.03
16190,2018-06-29 08:53:17.937500,-13.93,47.03
16191,2018-06-29 08:53:17.968750,-14.84,47.03
16192,2018-06-29 08:53:18.000000,-15.96,47.03
16193,2018-06-29 08:53:18.031250,-18.1,47.03
16194,2018-06-29 08:53:18.062500,-21.14,47.03
16195,2018-06-29 08:53:18.093750,-25.46,47.03
16196,2018-06-29 08:53:18.125000,-30.98,47.03
16197,2018-06-29 08:53:18.156250,-34.13,47.03
16198,2018-06-29 08:53:18.187500,-30.3,47.03
16199,2018-06-29 08:53:18.218750,-20.02,47.03
16200,2018-06-29 08:53:18.250000,-8.63,47.03
16201,2018-06-29 08:53:18.281250,-0.2,47.03
16202,2018-06-29 08:53:18.312500,4.94,47.03
16203,2018-06-29 08:53:18.343750,7.91,47.03
16204,2018-06-29 08:53:18.375000,9.37,47.03
16205,2018-06-29 08:53:18.406250,9.54,47.03
16206,2018-06-29 08:53:18.437500,8.9,47.03
16207,2018-06-29 08:53:18.468750,8.63,47.03
16208,2018-06-29 08:53:18.500000,9.48,47.03
16209,2018-06-29 08:53:18.531250,10.82,47.12
16210,2018-06-29 08:53:18.562500,11.78,47.12
16211,2018-06-29 08:53:18.593750,12.27,47.12
16212,2018-06-29 08:53:18.625000,12.08,47.12
16213,2018-06-29 08:53:18.656250,10.71,47.12
16214,2018-06-29 08:53:18.687500,8.74,47.12
16215,2018-06-29 08:53:18.718750,7.58,47.12
16216,2018-06-29 08:53:18.750000,7.32,47.12
16217,2018-06-29 08:53:18.781250,6.92,47.12
16218,2018-06-29 08:53:18.812500,5.85,47.12
16219,2018-06-29 08:53:18.843750,4.43,47.12
16220,2018-06-29 08:53:18.875000,3.44,47.12
16221,2018-06-29 08:53:18.906250,3.16,47.12
16222,2018-06-29 08:53:18.937500,2.44,47.12
16223,2018-06-29 08:53:18.968750,0.56,47.12
16224,2018-06-29 08:53:19.000000,-1.07,47.12
16225,2018-06-29 08:53:19.031250,-1.34,47.12
16226,2018-06-29 08:53:19.062500,-1.75,47.12
16227,2018-06-29 08:53:19.093750,-3.71,47.12
16228,2018-06-29 08:53:19.125000,-6.48,47.12
16229,2018-06-29 08:53:19.156250,-8.8,47.12
16230,2018-06-29 08:53:19.187500,-10.66,47.12
16231,2018-06-29 08:53:19.218750,-12.72,47.12
16232,2018-06-29 08:53:19.250000,-15.08,47.12
16233,2018-06-29 08:53:19.281250,-17.37,47.12
16234,2018-06-29 08:53:19.312500,-19.72,47.12
16235,2018-06-29 08:53:19.343750,-23.01,47.12
16236,2018-06-29 08:53:19.375000,-27.96,47.12
16237,2018-06-29 08:53:19.406250,-32.96,47.12
16238,2018-06-29 08:53:19.437500,-33.38,47.12
16239,2018-06-29 08:53:19.468750,-26.21,47.12
16240,2018-06-29 08:53:19.500000,-14.62,47.12
16241,2018-06-29 08:53:19.531250,-4.35,47.18
16242,2018-06-29 08:53:19.562500,2.27,47.18
16243,2018-06-29 08:53:19.593750,5.99,47.18
16244,2018-06-29 08:53:19.625000,7.63,47.18
16245,2018-06-29 08:53:19.656250,7.92,47.18
16246,2018-06-29 08:53:19.687500,7.86,47.18
16247,2018-06-29 08:53:19.718750,8.25,47.18
16248,2018-06-29 08:53:19.750000,9.46,47.18
16249,2018-06-29 08:53:19.781250,11.13,47.18
16250,2018-06-29 08:53:19.812500,12.32,47.18
16251,2018-06-29 08:53:19.843750,12.78,47.18
16252,2018-06-29 08:53:19.875000,13.0,47.18
16253,2018-06-29 08:53:19.906250,12.88,47.18
16254,2018-06-29 08:53:19.937500,11.87,47.18
16255,2018-06-29 08:53:19.968750,10.46,47.18
16256,2018-06-29 08:53:20.000000,9.78,47.18
16257,2018-06-29 08:53:20.031250,9.65,47.18
16258,2018-06-29 08:53:20.062500,8.82,47.18
16259,2018-06-29 08:53:20.093750,7.13,47.18
16260,2018-06-29 08:53:20.125000,5.77,47.18
16261,2018-06-29 08:53:20.156250,5.17,47.18
16262,2018-06-29 08:53:20.187500,4.46,47.18
16263,2018-06-29 08:53:20.218750,3.08,47.18
16264,2018-06-29 08:53:20.250000,1.48,47.18
16265,2018-06-29 08:53:20.281250,0.26,47.18
16266,2018-06-29 08:53:20.312500,-0.67,47.18
16267,2018-06-29 08:53:20.343750,-1.97,47.18
16268,2018-06-29 08:53:20.375000,-3.92,47.18
16269,2018-06-29 08:53:20.406250,-6.09,47.18
16270,2018-06-29 08:53:20.437500,-8.06,47.18
16271,2018-06-29 08:53:20.468750,-10.02,47.18
16272,2018-06-29 08:53:20.500000,-12.3,47.18
16273,2018-06-29 08:53:20.531250,-14.91,47.22
16274,2018-06-29 08:53:20.562500,-17.63,47.22
16275,2018-06-29 08:53:20.593750,-20.93,47.22
16276,2018-06-29 08:53:20.625000,-25.88,47.22
16277,2018-06-29 08:53:20.656250,-31.83,47.22
16278,2018-06-29 08:53:20.687500,-34.34,47.22
16279,2018-06-29 08:53:20.718750,-28.94,47.22
16280,2018-06-29 08:53:20.750000,-17.16,47.22
16281,2018-06-29 08:53:20.781250,-5.54,47.22
16282,2018-06-29 08:53:20.812500,1.78,47.22
16283,2018-06-29 08:53:20.843750,5.72,47.22
16284,2018-06-29 08:53:20.875000,7.79,47.22
16285,2018-06-29 08:53:20.906250,7.86,47.22
16286,2018-06-29 08:53:20.937500,6.52,47.22
16287,2018-06-29 08:53:20.968750,5.69,47.22
16288,2018-06-29 08:53:21.000000,6.33,47.22
16289,2018-06-29 08:53:21.031250,8.08,47.22
16290,2018-06-29 08:53:21.062500,10.54,47.22
16291,2018-06-29 08:53:21.093750,13.16,47.22
16292,2018-06-29 08:53:21.125000,14.47,47.22
16293,2018-06-29 08:53:21.156250,13.41,47.22
16294,2018-06-29 08:53:21.187500,11.11,47.22
16295,2018-06-29 08:53:21.218750,9.57,47.22
16296,2018-06-29 08:53:21.250000,8.93,47.22
16297,2018-06-29 08:53:21.281250,8.2,47.22
16298,2018-06-29 08:53:21.312500,7.25,47.22
16299,2018-06-29 08:53:21.343750,6.28,47.22
16300,2018-06-29 08:53:21.375000,5.04,47.22
16301,2018-06-29 08:53:21.406250,3.61,47.22
16302,2018-06-29 08:53:21.437500,2.02,47.22
16303,2018-06-29 08:53:21.468750,-0.06,47.22
16304,2018-06-29 08:53:21.500000,-2.24,47.22
16305,2018-06-29 08:53:21.531250,-4.05,47.23
16306,2018-06-29 08:53:21.562500,-6.23,47.23
16307,2018-06-29 08:53:21.593750,-9.62,47.23
16308,2018-06-29 08:53:21.625000,-13.71,47.23
16309,2018-06-29 08:53:21.656250,-17.46,47.23
16310,2018-06-29 08:53:21.687500,-20.91,47.23
16311,2018-06-29 08:53:21.718750,-25.46,47.23
16312,2018-06-29 08:53:21.750000,-32.34,47.23
16313,2018-06-29 08:53:21.781250,-40.12,47.23
16314,2018-06-29 08:53:21.812500,-43.9,47.23
16315,2018-06-29 08:53:21.843750,-39.3,47.23
16316,2018-06-29 08:53:21.875000,-27.46,47.23
16317,2018-06-29 08:53:21.906250,-14.05,47.23
16318,2018-06-29 08:53:21.937500,-3.27,47.23
16319,2018-06-29 08:53:21.968750,4.15,47.23
16320,2018-06-29 08:53:22.000000,8.51,47.23
16321,2018-06-29 08:53:22.031250,10.22,47.23
16322,2018-06-29 08:53:22.062500,10.69,47.23
16323,2018-06-29 08:53:22.093750,11.33,47.23
16324,2018-06-29 08:53:22.125000,12.74,47.23
16325,2018-06-29 08:53:22.156250,15.02,47.23
16326,2018-06-29 08:53:22.187500,17.8,47.23
16327,2018-06-29 08:53:22.218750,20.58,47.23
16328,2018-06-29 08:53:22.250000,22.94,47.23
16329,2018-06-29 08:53:22.281250,24.06,47.23
16330,2018-06-29 08:53:22.312500,23.06,47.23
16331,2018-06-29 08:53:22.343750,20.6,47.23
16332,2018-06-29 08:53:22.375000,18.38,47.23
16333,2018-06-29 08:53:22.406250,16.81,47.23
16334,2018-06-29 08:53:22.437500,14.92,47.23
16335,2018-06-29 08:53:22.468750,12.75,47.23
16336,2018-06-29 08:53:22.500000,11.12,47.23
16337,2018-06-29 08:53:22.531250,9.54,47.27
16338,2018-06-29 08:53:22.562500,6.88,47.27
16339,2018-06-29 08:53:22.593750,3.49,47.27
16340,2018-06-29 08:53:22.625000,0.32,47.27
16341,2018-06-29 08:53:22.656250,-2.82,47.27
16342,2018-06-29 08:53:22.687500,-6.72,47.27
16343,2018-06-29 08:53:22.718750,-11.52,47.27
16344,2018-06-29 08:53:22.750000,-16.68,47.27
16345,2018-06-29 08:53:22.781250,-21.61,47.27
16346,2018-06-29 08:53:22.812500,-26.41,47.27
16347,2018-06-29 08:53:22.843750,-32.04,47.27
16348,2018-06-29 08:53:22.875000,-39.92,47.27
16349,2018-06-29 08:53:22.906250,-50.21,47.27
16350,2018-06-29 08:53:22.937500,-59.0,47.27
16351,2018-06-29 08:53:22.968750,-59.14,47.27
16352,2018-06-29 08:53:23.000000,-47.78,47.27
16353,2018-06-29 08:53:23.031250,-30.6,47.27
16354,2018-06-29 08:53:23.062500,-15.08,47.27
16355,2018-06-29 08:53:23.093750,-3.55,47.27
16356,2018-06-29 08:53:23.125000,5.05,47.27
16357,2018-06-29 08:53:23.156250,11.37,47.27
16358,2018-06-29 08:53:23.187500,15.68,47.27
16359,2018-06-29 08:53:23.218750,18.78,47.27
16360,2018-06-29 08:53:23.250000,21.5,47.27
16361,2018-06-29 08:53:23.281250,24.12,47.27
16362,2018-06-29 08:53:23.312500,26.66,47.27
16363,2018-06-29 08:53:23.343750,29.6,47.27
16364,2018-06-29 08:53:23.375000,33.15,47.27
16365,2018-06-29 08:53:23.406250,35.84,47.27
16366,2018-06-29 08:53:23.437500,35.77,47.27
16367,2018-06-29 08:53:23.468750,33.34,47.27
16368,2018-06-29 08:53:23.500000,30.45,47.27
16369,2018-06-29 08:53:23.531250,27.95,47.28
16370,2018-06-29 08:53:23.562500,25.65,47.28
16371,2018-06-29 08:53:23.593750,23.42,47.28
16372,2018-06-29 08:53:23.625000,21.28,47.28
16373,2018-06-29 08:53:23.656250,19.52,47.28
16374,2018-06-29 08:53:23.687500,18.45,47.28
16375,2018-06-29 08:53:23.718750,17.22,47.28
16376,2018-06-29 08:53:23.750000,13.89,47.28
16377,2018-06-29 08:53:23.781250,8.2,47.28
16378,2018-06-29 08:53:23.812500,2.28,47.28
16379,2018-06-29 08:53:23.843750,-2.57,47.28
16380,2018-06-29 08:53:23.875000,-7.72,47.28
16381,2018-06-29 08:53:23.906250,-14.35,47.28
16382,2018-06-29 08:53:23.937500,-21.54,47.28
16383,2018-06-29 08:53:23.968750,-28.14,47.28
16384,2018-06-29 08:53:24.000000,-34.36,47.28
16385,2018-06-29 08:53:24.031250,-41.82,47.28
16386,2018-06-29 08:53:24.062500,-52.56,47.28
16387,2018-06-29 08:53:24.093750,-65.2,47.28
16388,2018-06-29 08:53:24.125000,-72.3,47.28
16389,2018-06-29 08:53:24.156250,-66.56,47.28
16390,2018-06-29 08:53:24.187500,-49.44,47.28
16391,2018-06-29 08:53:24.218750,-29.14,47.28
16392,2018-06-29 08:53:24.250000,-11.86,47.28
16393,2018-06-29 08:53:24.281250,1.53,47.28
16394,2018-06-29 08:53:24.312500,11.97,47.28
16395,2018-06-29 08:53:24.343750,19.45,47.28
16396,2018-06-29 08:53:24.375000,24.09,47.28
16397,2018-06-29 08:53:24.406250,27.45,47.28
16398,2018-06-29 08:53:24.437500,31.08,47.28
16399,2018-06-29 08:53:24.468750,35.08,47.28
16400,2018-06-29 08:53:24.500000,38.79,47.28
16401,2018-06-29 08:53:24.531250,41.75,47.3
16402,2018-06-29 08:53:24.562500,43.49,47.3
16403,2018-06-29 08:53:24.593750,43.41,47.3
16404,2018-06-29 08:53:24.625000,41.47,47.3
16405,2018-06-29 08:53:24.656250,38.48,47.3
16406,2018-06-29 08:53:24.687500,35.5,47.3
16407,2018-06-29 08:53:24.718750,33.27,47.3
16408,2018-06-29 08:53:24.750000,31.75,47.3
16409,2018-06-29 08:53:24.781250,30.12,47.3
16410,2018-06-29 08:53:24.812500,27.43,47.3
16411,2018-06-29 08:53:24.843750,23.64,47.3
16412,2018-06-29 08:53:24.875000,19.68,47.3
16413,2018-06-29 08:53:24.906250,15.82,47.3
16414,2018-06-29 08:53:24.937500,11.27,47.3
16415,2018-06-29 08:53:24.968750,5.86,47.3
16416,2018-06-29 08:53:25.000000,0.44,47.3
16417,2018-06-29 08:53:25.031250,-4.66,47.3
16418,2018-06-29 08:53:25.062500,-10.26,47.3
16419,2018-06-29 08:53:25.093750,-17.09,47.3
16420,2018-06-29 08:53:25.125000,-24.72,47.3
16421,2018-06-29 08:53:25.156250,-32.41,47.3
16422,2018-06-29 08:53:25.187500,-40.64,47.3
16423,2018-06-29 08:53:25.218750,-51.28,47.3
16424,2018-06-29 08:53:25.250000,-64.21,47.3
16425,2018-06-29 08:53:25.281250,-73.53,47.3
16426,2018-06-29 08:53:25.312500,-71.01,47.3
16427,2018-06-29 08:53:25.343750,-55.0,47.3
16428,2018-06-29 08:53:25.375000,-32.58,47.3
16429,2018-06-29 08:53:25.406250,-11.72,47.3
16430,2018-06-29 08:53:25.437500,4.6,47.3
16431,2018-06-29 08:53:25.468750,16.57,47.3
16432,2018-06-29 08:53:25.500000,24.45,47.3
16433,2018-06-29 08:53:25.531250,28.94,47.35
16434,2018-06-29 08:53:25.562500,32.07,47.35
16435,2018-06-29 08:53:25.593750,35.89,47.35
16436,2018-06-29 08:53:25.625000,40.69,47.35
16437,2018-06-29 08:53:25.656250,44.91,47.35
16438,2018-06-29 08:53:25.687500,47.44,47.35
16439,2018-06-29 08:53:25.718750,48.84,47.35
16440,2018-06-29 08:53:25.750000,49.21,47.35
16441,2018-06-29 08:53:25.781250,47.07,47.35
16442,2018-06-29 08:53:25.812500,42.62,47.35
16443,2018-06-29 08:53:25.843750,38.9,47.35
16444,2018-06-29 08:53:25.875000,37.36,47.35
16445,2018-06-29 08:53:25.906250,35.9,47.35
16446,2018-06-29 08:53:25.937500,32.99,47.35
16447,2018-06-29 08:53:25.968750,29.97,47.35
16448,2018-06-29 08:53:26.000000,28.25,47.35
16449,2018-06-29 08:53:26.031250,27.07,47.35
16450,2018-06-29 08:53:26.062500,24.92,47.35
16451,2018-06-29 08:53:26.093750,21.2,47.35
16452,2018-06-29 08:53:26.125000,16.48,47.35
16453,2018-06-29 08:53:26.156250,11.82,47.35
16454,2018-06-29 08:53:26.187500,7.71,47.35
16455,2018-06-29 08:53:26.218750,3.65,47.35
16456,2018-06-29 08:53:26.250000,-0.55,47.35
16457,2018-06-29 08:53:26.281250,-4.3,47.35
16458,2018-06-29 08:53:26.312500,-8.2,47.35
16459,2018-06-29 08:53:26.343750,-13.84,47.35
16460,2018-06-29 08:53:26.375000,-20.92,47.35
16461,2018-06-29 08:53:26.406250,-27.53,47.35
16462,2018-06-29 08:53:26.437500,-33.28,47.35
16463,2018-06-29 08:53:26.468750,-39.83,47.35
16464,2018-06-29 08:53:26.500000,-49.05,47.35
16465,2018-06-29 08:53:26.531250,-61.58,47.4
16466,2018-06-29 08:53:26.562500,-74.54,47.4
16467,2018-06-29 08:53:26.593750,-80.01,47.4
16468,2018-06-29 08:53:26.625000,-70.84,47.4
16469,2018-06-29 08:53:26.656250,-49.42,47.4
16470,2018-06-29 08:53:26.687500,-25.91,47.4
16471,2018-06-29 08:53:26.718750,-7.29,47.4
16472,2018-06-29 08:53:26.750000,6.51,47.4
16473,2018-06-29 08:53:26.781250,16.9,47.4
16474,2018-06-29 08:53:26.812500,23.71,47.4
16475,2018-06-29 08:53:26.843750,27.58,47.4
16476,2018-06-29 08:53:26.875000,30.71,47.4
16477,2018-06-29 08:53:26.906250,34.88,47.4
16478,2018-06-29 08:53:26.937500,39.99,47.4
16479,2018-06-29 08:53:26.968750,44.77,47.4
16480,2018-06-29 08:53:27.000000,48.12,47.4
16481,2018-06-29 08:53:27.031250,49.35,47.4
16482,2018-06-29 08:53:27.062500,48.01,47.4
16483,2018-06-29 08:53:27.093750,44.57,47.4
16484,2018-06-29 08:53:27.125000,40.74,47.4
16485,2018-06-29 08:53:27.156250,37.69,47.4
16486,2018-06-29 08:53:27.187500,35.0,47.4
16487,2018-06-29 08:53:27.218750,32.16,47.4
16488,2018-06-29 08:53:27.250000,29.5,47.4
16489,2018-06-29 08:53:27.281250,27.31,47.4
16490,2018-06-29 08:53:27.312500,25.27,47.4
16491,2018-06-29 08:53:27.343750,22.87,47.4
16492,2018-06-29 08:53:27.375000,19.67,47.4
16493,2018-06-29 08:53:27.406250,15.73,47.4
16494,2018-06-29 08:53:27.437500,11.75,47.4
16495,2018-06-29 08:53:27.468750,8.33,47.4
16496,2018-06-29 08:53:27.500000,5.11,47.4
16497,2018-06-29 08:53:27.531250,1.17,47.45
16498,2018-06-29 08:53:27.562500,-3.59,47.45
16499,2018-06-29 08:53:27.593750,-8.17,47.45
16500,2018-06-29 08:53:27.625000,-12.26,47.45
16501,2018-06-29 08:53:27.656250,-16.99,47.45
16502,2018-06-29 08:53:27.687500,-22.89,47.45
16503,2018-06-29 08:53:27.718750,-28.79,47.45
16504,2018-06-29 08:53:27.750000,-33.84,47.45
16505,2018-06-29 08:53:27.781250,-39.24,47.45
16506,2018-06-29 08:53:27.812500,-47.29,47.45
16507,2018-06-29 08:53:27.843750,-58.45,47.45
16508,2018-06-29 08:53:27.875000,-68.56,47.45
16509,2018-06-29 08:53:27.906250,-69.98,47.45
16510,2018-06-29 08:53:27.937500,-58.42,47.45
16511,2018-06-29 08:53:27.968750,-38.35,47.45
16512,2018-06-29 08:53:28.000000,-18.56,47.45
16513,2018-06-29 08:53:28.031250,-3.86,47.45
16514,2018-06-29 08:53:28.062500,6.51,47.45
16515,2018-06-29 08:53:28.093750,14.23,47.45
16516,2018-06-29 08:53:28.125000,19.37,47.45
16517,2018-06-29 08:53:28.156250,22.32,47.45
16518,2018-06-29 08:53:28.187500,25.05,47.45
16519,2018-06-29 08:53:28.218750,28.87,47.45
16520,2018-06-29 08:53:28.250000,32.85,47.45
16521,2018-06-29 08:53:28.281250,35.86,47.45
16522,2018-06-29 08:53:28.312500,37.69,47.45
16523,2018-06-29 08:53:28.343750,37.96,47.45
16524,2018-06-29 08:53:28.375000,35.98,47.45
16525,2018-06-29 08:53:28.406250,32.13,47.45
16526,2018-06-29 08:53:28.437500,27.9,47.45
16527,2018-06-29 08:53:28.468750,24.69,47.45
16528,2018-06-29 08:53:28.500000,22.91,47.45
16529,2018-06-29 08:53:28.531250,21.95,47.5
16530,2018-06-29 08:53:28.562500,21.03,47.5
16531,2018-06-29 08:53:28.593750,19.61,47.5
16532,2018-06-29 08:53:28.625000,17.1,47.5
16533,2018-06-29 08:53:28.656250,13.44,47.5
16534,2018-06-29 08:53:28.687500,9.67,47.5
16535,2018-06-29 08:53:28.718750,6.77,47.5
16536,2018-06-29 08:53:28.750000,4.25,47.5
16537,2018-06-29 08:53:28.781250,0.98,47.5
16538,2018-06-29 08:53:28.812500,-3.18,47.5
16539,2018-06-29 08:53:28.843750,-7.2,47.5
16540,2018-06-29 08:53:28.875000,-10.48,47.5
16541,2018-06-29 08:53:28.906250,-14.13,47.5
16542,2018-06-29 08:53:28.937500,-19.16,47.5
16543,2018-06-29 08:53:28.968750,-24.51,47.5
16544,2018-06-29 08:53:29.000000,-28.74,47.5
16545,2018-06-29 08:53:29.031250,-32.78,47.5
16546,2018-06-29 08:53:29.062500,-38.99,47.5
16547,2018-06-29 08:53:29.093750,-48.33,47.5
16548,2018-06-29 08:53:29.125000,-57.88,47.5
16549,2018-06-29 08:53:29.156250,-60.99,47.5
16550,2018-06-29 08:53:29.187500,-52.75,47.5
16551,2018-06-29 08:53:29.218750,-35.85,47.5
16552,2018-06-29 08:53:29.250000,-18.17,47.5
16553,2018-06-29 08:53:29.281250,-4.93,47.5
16554,2018-06-29 08:53:29.312500,3.9,47.5
16555,2018-06-29 08:53:29.343750,9.76,47.5
16556,2018-06-29 08:53:29.375000,13.09,47.5
16557,2018-06-29 08:53:29.406250,14.74,47.5
16558,2018-06-29 08:53:29.437500,16.16,47.5
16559,2018-06-29 08:53:29.468750,18.11,47.5
16560,2018-06-29 08:53:29.500000,20.66,47.5
16561,2018-06-29 08:53:29.531250,23.72,47.57
16562,2018-06-29 08:53:29.562500,26.56,47.57
16563,2018-06-29 08:53:29.593750,27.9,47.57
16564,2018-06-29 08:53:29.625000,26.91,47.57
16565,2018-06-29 08:53:29.656250,23.93,47.57
16566,2018-06-29 08:53:29.687500,20.48,47.57
16567,2018-06-29 08:53:29.718750,18.01,47.57
16568,2018-06-29 08:53:29.750000,16.53,47.57
16569,2018-06-29 08:53:29.781250,15.49,47.57
16570,2018-06-29 08:53:29.812500,14.67,47.57
16571,2018-06-29 08:53:29.843750,13.57,47.57
16572,2018-06-29 08:53:29.875000,11.73,47.57
16573,2018-06-29 08:53:29.906250,9.22,47.57
16574,2018-06-29 08:53:29.937500,6.33,47.57
16575,2018-06-29 08:53:29.968750,3.86,47.57
16576,2018-06-29 08:53:30.000000,2.57,47.57
16577,2018-06-29 08:53:30.031250,1.18,47.57
16578,2018-06-29 08:53:30.062500,-2.2,47.57
16579,2018-06-29 08:53:30.093750,-6.49,47.57
16580,2018-06-29 08:53:30.125000,-9.4,47.57
16581,2018-06-29 08:53:30.156250,-11.45,47.57
16582,2018-06-29 08:53:30.187500,-14.82,47.57
16583,2018-06-29 08:53:30.218750,-19.6,47.57
16584,2018-06-29 08:53:30.250000,-24.27,47.57
16585,2018-06-29 08:53:30.281250,-28.24,47.57
16586,2018-06-29 08:53:30.312500,-32.27,47.57
16587,2018-06-29 08:53:30.343750,-37.67,47.57
16588,2018-06-29 08:53:30.375000,-45.27,47.57
16589,2018-06-29 08:53:30.406250,-53.54,47.57
16590,2018-06-29 08:53:30.437500,-57.38,47.57
16591,2018-06-29 08:53:30.468750,-51.87,47.57
16592,2018-06-29 08:53:30.500000,-37.68,47.57
16593,2018-06-29 08:53:30.531250,-20.99,47.63
16594,2018-06-29 08:53:30.562500,-7.86,47.63
16595,2018-06-29 08:53:30.593750,0.26,47.63
16596,2018-06-29 08:53:30.625000,5.36,47.63
16597,2018-06-29 08:53:30.656250,8.88,47.63
16598,2018-06-29 08:53:30.687500,11.0,47.63
16599,2018-06-29 08:53:30.718750,12.89,47.63
16600,2018-06-29 08:53:30.750000,15.89,47.63
16601,2018-06-29 08:53:30.781250,19.31,47.63
16602,2018-06-29 08:53:30.812500,21.92,47.63
16603,2018-06-29 08:53:30.843750,23.72,47.63
16604,2018-06-29 08:53:30.875000,24.58,47.63
16605,2018-06-29 08:53:30.906250,23.99,47.63
16606,2018-06-29 08:53:30.937500,22.37,47.63
16607,2018-06-29 08:53:30.968750,20.47,47.63
16608,2018-06-29 08:53:31.000000,18.57,47.63
16609,2018-06-29 08:53:31.031250,17.0,47.63
16610,2018-06-29 08:53:31.062500,15.9,47.63
16611,2018-06-29 08:53:31.093750,14.69,47.63
16612,2018-06-29 08:53:31.125000,13.1,47.63
16613,2018-06-29 08:53:31.156250,11.46,47.63
16614,2018-06-29 08:53:31.187500,9.67,47.63
16615,2018-06-29 08:53:31.218750,7.67,47.63
16616,2018-06-29 08:53:31.250000,6.27,47.63
16617,2018-06-29 08:53:31.281250,5.45,47.63
16618,2018-06-29 08:53:31.312500,3.45,47.63
16619,2018-06-29 08:53:31.343750,-0.62,47.63
16620,2018-06-29 08:53:31.375000,-5.24,47.63
16621,2018-06-29 08:53:31.406250,-8.58,47.63
16622,2018-06-29 08:53:31.437500,-10.69,47.63
16623,2018-06-29 08:53:31.468750,-13.03,47.63
16624,2018-06-29 08:53:31.500000,-16.78,47.63
16625,2018-06-29 08:53:31.531250,-21.67,47.68
16626,2018-06-29 08:53:31.562500,-26.39,47.68
16627,2018-06-29 08:53:31.593750,-30.23,47.68
16628,2018-06-29 08:53:31.625000,-34.18,47.68
16629,2018-06-29 08:53:31.656250,-40.57,47.68
16630,2018-06-29 08:53:31.687500,-49.81,47.68
16631,2018-06-29 08:53:31.718750,-56.65,47.68
16632,2018-06-29 08:53:31.750000,-53.27,47.68
16633,2018-06-29 08:53:31.781250,-38.57,47.68
16634,2018-06-29 08:53:31.812500,-20.53,47.68
16635,2018-06-29 08:53:31.843750,-6.98,47.68
16636,2018-06-29 08:53:31.875000,1.45,47.68
16637,2018-06-29 08:53:31.906250,7.42,47.68
16638,2018-06-29 08:53:31.937500,11.71,47.68
16639,2018-06-29 08:53:31.968750,14.21,47.68
16640,2018-06-29 08:53:32.000000,15.96,47.68
16641,2018-06-29 08:53:32.031250,17.83,47.68
16642,2018-06-29 08:53:32.062500,19.6,47.68
16643,2018-06-29 08:53:32.093750,21.22,47.68
16644,2018-06-29 08:53:32.125000,23.16,47.68
16645,2018-06-29 08:53:32.156250,25.02,47.68
16646,2018-06-29 08:53:32.187500,25.17,47.68
16647,2018-06-29 08:53:32.218750,22.99,47.68
16648,2018-06-29 08:53:32.250000,20.22,47.68
16649,2018-06-29 08:53:32.281250,18.63,47.68
16650,2018-06-29 08:53:32.312500,17.85,47.68
16651,2018-06-29 08:53:32.343750,17.05,47.68
16652,2018-06-29 08:53:32.375000,16.17,47.68
16653,2018-06-29 08:53:32.406250,14.81,47.68
16654,2018-06-29 08:53:32.437500,12.96,47.68
16655,2018-06-29 08:53:32.468750,11.93,47.68
16656,2018-06-29 08:53:32.500000,11.81,47.68
16657,2018-06-29 08:53:32.531250,10.43,47.73
16658,2018-06-29 08:53:32.562500,7.16,47.73
16659,2018-06-29 08:53:32.593750,4.14,47.73
16660,2018-06-29 08:53:32.625000,2.56,47.73
16661,2018-06-29 08:53:32.656250,0.8,47.73
16662,2018-06-29 08:53:32.687500,-2.7,47.73
16663,2018-06-29 08:53:32.718750,-6.69,47.73
16664,2018-06-29 08:53:32.750000,-9.15,47.73
16665,2018-06-29 08:53:32.781250,-10.87,47.73
16666,2018-06-29 08:53:32.812500,-14.71,47.73
16667,2018-06-29 08:53:32.843750,-20.93,47.73
16668,2018-06-29 08:53:32.875000,-26.59,47.73
16669,2018-06-29 08:53:32.906250,-30.16,47.73
16670,2018-06-29 08:53:32.937500,-33.9,47.73
16671,2018-06-29 08:53:32.968750,-40.71,47.73
16672,2018-06-29 08:53:33.000000,-50.08,47.73
16673,2018-06-29 08:53:33.031250,-56.81,47.73
16674,2018-06-29 08:53:33.062500,-54.46,47.73
16675,2018-06-29 08:53:33.093750,-41.81,47.73
16676,2018-06-29 08:53:33.125000,-24.98,47.73
16677,2018-06-29 08:53:33.156250,-11.07,47.73
16678,2018-06-29 08:53:33.187500,-1.67,47.73
16679,2018-06-29 08:53:33.218750,5.33,47.73
16680,2018-06-29 08:53:33.250000,10.68,47.73
16681,2018-06-29 08:53:33.281250,13.48,47.73
16682,2018-06-29 08:53:33.312500,14.2,47.73
16683,2018-06-29 08:53:33.343750,14.9,47.73
16684,2018-06-29 08:53:33.375000,17.01,47.73
16685,2018-06-29 08:53:33.406250,20.29,47.73
16686,2018-06-29 08:53:33.437500,23.49,47.73
16687,2018-06-29 08:53:33.468750,25.48,47.73
16688,2018-06-29 08:53:33.500000,25.9,47.73
16689,2018-06-29 08:53:33.531250,25.22,47.78
16690,2018-06-29 08:53:33.562500,23.9,47.78
16691,2018-06-29 08:53:33.593750,22.01,47.78
16692,2018-06-29 08:53:33.625000,20.0,47.78
16693,2018-06-29 08:53:33.656250,18.43,47.78
16694,2018-06-29 08:53:33.687500,17.21,47.78
16695,2018-06-29 08:53:33.718750,15.98,47.78
16696,2018-06-29 08:53:33.750000,14.82,47.78
16697,2018-06-29 08:53:33.781250,13.8,47.78
16698,2018-06-29 08:53:33.812500,12.63,47.78
16699,2018-06-29 08:53:33.843750,10.87,47.78
16700,2018-06-29 08:53:33.875000,8.5,47.78
16701,2018-06-29 08:53:33.906250,6.01,47.78
16702,2018-06-29 08:53:33.937500,3.94,47.78
16703,2018-06-29 08:53:33.968750,2.15,47.78
16704,2018-06-29 08:53:34.000000,0.14,47.78
16705,2018-06-29 08:53:34.031250,-2.35,47.78
16706,2018-06-29 08:53:34.062500,-5.32,47.78
16707,2018-06-29 08:53:34.093750,-8.81,47.78
16708,2018-06-29 08:53:34.125000,-12.93,47.78
16709,2018-06-29 08:53:34.156250,-17.65,47.78
16710,2018-06-29 08:53:34.187500,-22.45,47.78
16711,2018-06-29 08:53:34.218750,-26.47,47.78
16712,2018-06-29 08:53:34.250000,-29.82,47.78
16713,2018-06-29 08:53:34.281250,-34.3,47.78
16714,2018-06-29 08:53:34.312500,-41.76,47.78
16715,2018-06-29 08:53:34.343750,-51.36,47.78
16716,2018-06-29 08:53:34.375000,-57.78,47.78
16717,2018-06-29 08:53:34.406250,-54.57,47.78
16718,2018-06-29 08:53:34.437500,-40.96,47.78
16719,2018-06-29 08:53:34.468750,-23.22,47.78
16720,2018-06-29 08:53:34.500000,-8.28,47.78
16721,2018-06-29 08:53:34.531250,1.41,47.82
16722,2018-06-29 08:53:34.562500,6.8,47.82
16723,2018-06-29 08:53:34.593750,9.89,47.82
16724,2018-06-29 08:53:34.625000,12.46,47.82
16725,2018-06-29 08:53:34.656250,15.0,47.82
16726,2018-06-29 08:53:34.687500,17.27,47.82
16727,2018-06-29 08:53:34.718750,19.56,47.82
16728,2018-06-29 08:53:34.750000,22.31,47.82
16729,2018-06-29 08:53:34.781250,25.1,47.82
16730,2018-06-29 08:53:34.812500,27.14,47.82
16731,2018-06-29 08:53:34.843750,27.93,47.82
16732,2018-06-29 08:53:34.875000,27.47,47.82
16733,2018-06-29 08:53:34.906250,26.17,47.82
16734,2018-06-29 08:53:34.937500,24.44,47.82
16735,2018-06-29 08:53:34.968750,22.56,47.82
16736,2018-06-29 08:53:35.000000,20.86,47.82
16737,2018-06-29 08:53:35.031250,19.61,47.82
16738,2018-06-29 08:53:35.062500,18.65,47.82
16739,2018-06-29 08:53:35.093750,17.66,47.82
16740,2018-06-29 08:53:35.125000,16.49,47.82
16741,2018-06-29 08:53:35.156250,14.98,47.82
16742,2018-06-29 08:53:35.187500,12.87,47.82
16743,2018-06-29 08:53:35.218750,10.15,47.82
16744,2018-06-29 08:53:35.250000,7.46,47.82
16745,2018-06-29 08:53:35.281250,5.35,47.82
16746,2018-06-29 08:53:35.312500,3.39,47.82
16747,2018-06-29 08:53:35.343750,0.73,47.82
16748,2018-06-29 08:53:35.375000,-2.6,47.82
16749,2018-06-29 08:53:35.406250,-5.65,47.82
16750,2018-06-29 08:53:35.437500,-8.17,47.82
16751,2018-06-29 08:53:35.468750,-11.24,47.82
16752,2018-06-29 08:53:35.500000,-15.87,47.82
16753,2018-06-29 08:53:35.531250,-21.84,47.83
16754,2018-06-29 08:53:35.562500,-27.81,47.83
16755,2018-06-29 08:53:35.593750,-32.64,47.83
16756,2018-06-29 08:53:35.625000,-37.15,47.83
16757,2018-06-29 08:53:35.656250,-44.03,47.83
16758,2018-06-29 08:53:35.687500,-53.79,47.83
16759,2018-06-29 08:53:35.718750,-61.02,47.83
16760,2018-06-29 08:53:35.750000,-58.38,47.83
16761,2018-06-29 08:53:35.781250,-44.89,47.83
16762,2018-06-29 08:53:35.812500,-26.94,47.83
16763,2018-06-29 08:53:35.843750,-11.11,47.83
16764,2018-06-29 08:53:35.875000,0.58,47.83
16765,2018-06-29 08:53:35.906250,8.61,47.83
16766,2018-06-29 08:53:35.937500,13.26,47.83
16767,2018-06-29 08:53:35.968750,15.23,47.83
16768,2018-06-29 08:53:36.000000,16.62,47.83
16769,2018-06-29 08:53:36.031250,19.15,47.83
16770,2018-06-29 08:53:36.062500,22.63,47.83
16771,2018-06-29 08:53:36.093750,26.13,47.83
16772,2018-06-29 08:53:36.125000,29.23,47.83
16773,2018-06-29 08:53:36.156250,31.25,47.83
16774,2018-06-29 08:53:36.187500,31.25,47.83
16775,2018-06-29 08:53:36.218750,29.55,47.83
16776,2018-06-29 08:53:36.250000,27.3,47.83
16777,2018-06-29 08:53:36.281250,25.05,47.83
16778,2018-06-29 08:53:36.312500,23.01,47.83
16779,2018-06-29 08:53:36.343750,21.35,47.83
16780,2018-06-29 08:53:36.375000,19.93,47.83
16781,2018-06-29 08:53:36.406250,18.55,47.83
16782,2018-06-29 08:53:36.437500,17.42,47.83
16783,2018-06-29 08:53:36.468750,16.39,47.83
16784,2018-06-29 08:53:36.500000,14.99,47.83
16785,2018-06-29 08:53:36.531250,13.13,47.87
16786,2018-06-29 08:53:36.562500,10.79,47.87
16787,2018-06-29 08:53:36.593750,8.1,47.87
16788,2018-06-29 08:53:36.625000,5.61,47.87
16789,2018-06-29 08:53:36.656250,3.26,47.87
16790,2018-06-29 08:53:36.687500,0.22,47.87
16791,2018-06-29 08:53:36.718750,-3.41,47.87
16792,2018-06-29 08:53:36.750000,-6.72,47.87
16793,2018-06-29 08:53:36.781250,-9.89,47.87
16794,2018-06-29 08:53:36.812500,-13.83,47.87
16795,2018-06-29 08:53:36.843750,-18.66,47.87
16796,2018-06-29 08:53:36.875000,-23.87,47.87
16797,2018-06-29 08:53:36.906250,-29.08,47.87
16798,2018-06-29 08:53:36.937500,-34.81,47.87
16799,2018-06-29 08:53:36.968750,-42.54,47.87
16800,2018-06-29 08:53:37.000000,-52.69,47.87
16801,2018-06-29 08:53:37.031250,-61.47,47.87
16802,2018-06-29 08:53:37.062500,-61.94,47.87
16803,2018-06-29 08:53:37.093750,-50.68,47.87
16804,2018-06-29 08:53:37.125000,-32.41,47.87
16805,2018-06-29 08:53:37.156250,-15.3,47.87
16806,2018-06-29 08:53:37.187500,-3.52,47.87
16807,2018-06-29 08:53:37.218750,4.03,47.87
16808,2018-06-29 08:53:37.250000,9.53,47.87
16809,2018-06-29 08:53:37.281250,13.09,47.87
16810,2018-06-29 08:53:37.312500,14.47,47.87
16811,2018-06-29 08:53:37.343750,15.51,47.87
16812,2018-06-29 08:53:37.375000,18.23,47.87
16813,2018-06-29 08:53:37.406250,22.09,47.87
16814,2018-06-29 08:53:37.437500,25.57,47.87
16815,2018-06-29 08:53:37.468750,28.13,47.87
16816,2018-06-29 08:53:37.500000,29.03,47.87
16817,2018-06-29 08:53:37.531250,27.6,47.9
16818,2018-06-29 08:53:37.562500,24.96,47.9
16819,2018-06-29 08:53:37.593750,22.96,47.9
16820,2018-06-29 08:53:37.625000,22.1,47.9
16821,2018-06-29 08:53:37.656250,21.53,47.9
16822,2018-06-29 08:53:37.687500,20.3,47.9
16823,2018-06-29 08:53:37.718750,18.27,47.9
16824,2018-06-29 08:53:37.750000,16.1,47.9
16825,2018-06-29 08:53:37.781250,14.26,47.9
16826,2018-06-29 08:53:37.812500,12.27,47.9
16827,2018-06-29 08:53:37.843750,9.23,47.9
16828,2018-06-29 08:53:37.875000,4.9,47.9
16829,2018-06-29 08:53:37.906250,0.26,47.9
16830,2018-06-29 08:53:37.937500,-3.58,47.9
16831,2018-06-29 08:53:37.968750,-6.98,47.9
16832,2018-06-29 08:53:38.000000,-11.38,47.9
16833,2018-06-29 08:53:38.031250,-17.18,47.9
16834,2018-06-29 08:53:38.062500,-23.41,47.9
16835,2018-06-29 08:53:38.093750,-28.93,47.9
16836,2018-06-29 08:53:38.125000,-34.21,47.9
16837,2018-06-29 08:53:38.156250,-41.62,47.9
16838,2018-06-29 08:53:38.187500,-52.37,47.9
16839,2018-06-29 08:53:38.218750,-62.73,47.9
16840,2018-06-29 08:53:38.250000,-65.35,47.9
16841,2018-06-29 08:53:38.281250,-56.11,47.9
16842,2018-06-29 08:53:38.312500,-38.63,47.9
16843,2018-06-29 08:53:38.343750,-20.45,47.9
16844,2018-06-29 08:53:38.375000,-6.13,47.9
16845,2018-06-29 08:53:38.406250,4.34,47.9
16846,2018-06-29 08:53:38.437500,12.14,47.9
16847,2018-06-29 08:53:38.468750,17.64,47.9
16848,2018-06-29 08:53:38.500000,21.32,47.9
16849,2018-06-29 08:53:38.531250,24.21,47.93
16850,2018-06-29 08:53:38.562500,26.88,47.93
16851,2018-06-29 08:53:38.593750,29.27,47.93
16852,2018-06-29 08:53:38.625000,31.81,47.93
16853,2018-06-29 08:53:38.656250,34.99,47.93
16854,2018-06-29 08:53:38.687500,37.55,47.93
16855,2018-06-29 08:53:38.718750,37.32,47.93
16856,2018-06-29 08:53:38.750000,34.34,47.93
16857,2018-06-29 08:53:38.781250,30.77,47.93
16858,2018-06-29 08:53:38.812500,28.22,47.93
16859,2018-06-29 08:53:38.843750,26.94,47.93
16860,2018-06-29 08:53:38.875000,26.33,47.93
16861,2018-06-29 08:53:38.906250,25.26,47.93
16862,2018-06-29 08:53:38.937500,23.28,47.93
16863,2018-06-29 08:53:38.968750,21.28,47.93
16864,2018-06-29 08:53:39.000000,19.85,47.93
16865,2018-06-29 08:53:39.031250,18.2,47.93
16866,2018-06-29 08:53:39.062500,15.57,47.93
16867,2018-06-29 08:53:39.093750,12.4,47.93
16868,2018-06-29 08:53:39.125000,9.36,47.93
16869,2018-06-29 08:53:39.156250,6.09,47.93
16870,2018-06-29 08:53:39.187500,1.98,47.93
16871,2018-06-29 08:53:39.218750,-2.47,47.93
16872,2018-06-29 08:53:39.250000,-6.66,47.93
16873,2018-06-29 08:53:39.281250,-10.95,47.93
16874,2018-06-29 08:53:39.312500,-15.75,47.93
16875,2018-06-29 08:53:39.343750,-21.22,47.93
16876,2018-06-29 08:53:39.375000,-27.74,47.93
16877,2018-06-29 08:53:39.406250,-35.01,47.93
16878,2018-06-29 08:53:39.437500,-41.84,47.93
16879,2018-06-29 08:53:39.468750,-48.75,47.93
16880,2018-06-29 08:53:39.500000,-58.35,47.93
16881,2018-06-29 08:53:39.531250,-70.5,47.97
16882,2018-06-29 08:53:39.562500,-78.39,47.97
16883,2018-06-29 08:53:39.593750,-73.93,47.97
16884,2018-06-29 08:53:39.625000,-57.04,47.97
16885,2018-06-29 08:53:39.656250,-35.94,47.97
16886,2018-06-29 08:53:39.687500,-18.06,47.97
16887,2018-06-29 08:53:39.718750,-4.66,47.97
16888,2018-06-29 08:53:39.750000,6.09,47.97
16889,2018-06-29 08:53:39.781250,15.24,47.97
16890,2018-06-29 08:53:39.812500,22.36,47.97
16891,2018-06-29 08:53:39.843750,26.92,47.97
16892,2018-06-29 08:53:39.875000,29.91,47.97
16893,2018-06-29 08:53:39.906250,33.37,47.97
16894,2018-06-29 08:53:39.937500,37.87,47.97
16895,2018-06-29 08:53:39.968750,42.11,47.97
16896,2018-06-29 08:53:40.000000,44.91,47.97
16897,2018-06-29 08:53:40.031250,45.63,47.97
16898,2018-06-29 08:53:40.062500,43.78,47.97
16899,2018-06-29 08:53:40.093750,40.27,47.97
16900,2018-06-29 08:53:40.125000,37.3,47.97
16901,2018-06-29 08:53:40.156250,35.59,47.97
16902,2018-06-29 08:53:40.187500,33.8,47.97
16903,2018-06-29 08:53:40.218750,31.56,47.97
16904,2018-06-29 08:53:40.250000,29.86,47.97
16905,2018-06-29 08:53:40.281250,28.61,47.97
16906,2018-06-29 08:53:40.312500,26.48,47.97
16907,2018-06-29 08:53:40.343750,23.14,47.97
16908,2018-06-29 08:53:40.375000,19.59,47.97
16909,2018-06-29 08:53:40.406250,16.56,47.97
16910,2018-06-29 08:53:40.437500,13.99,47.97
16911,2018-06-29 08:53:40.468750,11.84,47.97
16912,2018-06-29 08:53:40.500000,9.96,47.97
16913,2018-06-29 08:53:40.531250,7.3,48.0
16914,2018-06-29 08:53:40.562500,2.95,48.0
16915,2018-06-29 08:53:40.593750,-2.14,48.0
16916,2018-06-29 08:53:40.625000,-6.28,48.0
16917,2018-06-29 08:53:40.656250,-9.97,48.0
16918,2018-06-29 08:53:40.687500,-15.36,48.0
16919,2018-06-29 08:53:40.718750,-22.52,48.0
16920,2018-06-29 08:53:40.750000,-29.24,48.0
16921,2018-06-29 08:53:40.781250,-34.71,48.0
16922,2018-06-29 08:53:40.812500,-40.66,48.0
16923,2018-06-29 08:53:40.843750,-49.27,48.0
16924,2018-06-29 08:53:40.875000,-60.6,48.0
16925,2018-06-29 08:53:40.906250,-69.92,48.0
16926,2018-06-29 08:53:40.937500,-69.0,48.0
16927,2018-06-29 08:53:40.968750,-54.69,48.0
16928,2018-06-29 08:53:41.000000,-33.77,48.0
16929,2018-06-29 08:53:41.031250,-15.15,48.0
16930,2018-06-29 08:53:41.062500,-1.63,48.0
16931,2018-06-29 08:53:41.093750,7.98,48.0
16932,2018-06-29 08:53:41.125000,14.2,48.0
16933,2018-06-29 08:53:41.156250,17.58,48.0
16934,2018-06-29 08:53:41.187500,20.0,48.0
16935,2018-06-29 08:53:41.218750,22.88,48.0
16936,2018-06-29 08:53:41.250000,26.23,48.0
16937,2018-06-29 08:53:41.281250,29.92,48.0
16938,2018-06-29 08:53:41.312500,33.65,48.0
16939,2018-06-29 08:53:41.343750,35.95,48.0
16940,2018-06-29 08:53:41.375000,35.3,48.0
16941,2018-06-29 08:53:41.406250,32.21,48.0
16942,2018-06-29 08:53:41.437500,28.84,48.0
16943,2018-06-29 08:53:41.468750,26.57,48.0
16944,2018-06-29 08:53:41.500000,24.84,48.0
16945,2018-06-29 08:53:41.531250,22.42,48.03
16946,2018-06-29 08:53:41.562500,19.31,48.03
16947,2018-06-29 08:53:41.593750,16.33,48.03
16948,2018-06-29 08:53:41.625000,13.52,48.03
16949,2018-06-29 08:53:41.656250,10.16,48.03
16950,2018-06-29 08:53:41.687500,6.05,48.03
16951,2018-06-29 08:53:41.718750,1.82,48.03
16952,2018-06-29 08:53:41.750000,-2.34,48.03
16953,2018-06-29 08:53:41.781250,-7.29,48.03
16954,2018-06-29 08:53:41.812500,-13.57,48.03
16955,2018-06-29 08:53:41.843750,-20.4,48.03
16956,2018-06-29 08:53:41.875000,-26.76,48.03
16957,2018-06-29 08:53:41.906250,-32.65,48.03
16958,2018-06-29 08:53:41.937500,-39.75,48.03
16959,2018-06-29 08:53:41.968750,-50.26,48.03
16960,2018-06-29 08:53:42.000000,-62.43,48.03
16961,2018-06-29 08:53:42.031250,-68.29,48.03
16962,2018-06-29 08:53:42.062500,-61.09,48.03
16963,2018-06-29 08:53:42.093750,-43.58,48.03
16964,2018-06-29 08:53:42.125000,-24.29,48.03
16965,2018-06-29 08:53:42.156250,-8.45,48.03
16966,2018-06-29 08:53:42.187500,3.82,48.03
16967,2018-06-29 08:53:42.218750,13.45,48.03
16968,2018-06-29 08:53:42.250000,20.13,48.03
16969,2018-06-29 08:53:42.281250,23.58,48.03
16970,2018-06-29 08:53:42.312500,25.49,48.03
16971,2018-06-29 08:53:42.343750,28.19,48.03
16972,2018-06-29 08:53:42.375000,32.08,48.03
16973,2018-06-29 08:53:42.406250,35.98,48.03
16974,2018-06-29 08:53:42.437500,38.96,48.03
16975,2018-06-29 08:53:42.468750,40.13,48.03
16976,2018-06-29 08:53:42.500000,38.69,48.03
16977,2018-06-29 08:53:42.531250,35.39,48.07
16978,2018-06-29 08:53:42.562500,32.4,48.07
16979,2018-06-29 08:53:42.593750,31.0,48.07
16980,2018-06-29 08:53:42.625000,30.1,48.07
16981,2018-06-29 08:53:42.656250,28.12,48.07
16982,2018-06-29 08:53:42.687500,25.35,48.07
16983,2018-06-29 08:53:42.718750,23.24,48.07
16984,2018-06-29 08:53:42.750000,21.68,48.07
16985,2018-06-29 08:53:42.781250,19.26,48.07
16986,2018-06-29 08:53:42.812500,15.64,48.07
16987,2018-06-29 08:53:42.843750,11.93,48.07
16988,2018-06-29 08:53:42.875000,8.69,48.07
16989,2018-06-29 08:53:42.906250,5.13,48.07
16990,2018-06-29 08:53:42.937500,0.74,48.07
16991,2018-06-29 08:53:42.968750,-3.8,48.07
16992,2018-06-29 08:53:43.000000,-7.81,48.07
16993,2018-06-29 08:53:43.031250,-11.69,48.07
16994,2018-06-29 08:53:43.062500,-16.59,48.07
16995,2018-06-29 08:53:43.093750,-23.18,48.07
16996,2018-06-29 08:53:43.125000,-30.94,48.07
16997,2018-06-29 08:53:43.156250,-38.48,48.07
16998,2018-06-29 08:53:43.187500,-45.3,48.07
16999,2018-06-29 08:53:43.218750,-53.21,48.07
17000,2018-06-29 08:53:43.250000,-64.63,48.07
17001,2018-06-29 08:53:43.281250,-78.27,48.07
17002,2018-06-29 08:53:43.312500,-87.27,48.07
17003,2018-06-29 08:53:43.343750,-84.07,48.07
17004,2018-06-29 08:53:43.375000,-68.25,48.07
17005,2018-06-29 08:53:43.406250,-47.53,48.07
17006,2018-06-29 08:53:43.437500,-29.64,48.07
17007,2018-06-29 08:53:43.468750,-15.82,48.07
17008,2018-06-29 08:53:43.500000,-3.81,48.07
17009,2018-06-29 08:53:43.531250,6.66,48.1
17010,2018-06-29 08:53:43.562500,14.03,48.1
17011,2018-06-29 08:53:43.593750,18.06,48.1
17012,2018-06-29 08:53:43.625000,20.25,48.1
17013,2018-06-29 08:53:43.656250,21.74,48.1
17014,2018-06-29 08:53:43.687500,22.44,48.1
17015,2018-06-29 08:53:43.718750,22.21,48.1
17016,2018-06-29 08:53:43.750000,21.24,48.1
17017,2018-06-29 08:53:43.781250,18.88,48.1
17018,2018-06-29 08:53:43.812500,13.44,48.1
17019,2018-06-29 08:53:43.843750,4.96,48.1
17020,2018-06-29 08:53:43.875000,-3.03,48.1
17021,2018-06-29 08:53:43.906250,-7.24,48.1
17022,2018-06-29 08:53:43.937500,-8.56,48.1
17023,2018-06-29 08:53:43.968750,-9.84,48.1
17024,2018-06-29 08:53:44.000000,-11.25,48.1
17025,2018-06-29 08:53:44.031250,-10.85,48.1
17026,2018-06-29 08:53:44.062500,-8.46,48.1
17027,2018-06-29 08:53:44.093750,-5.36,48.1
17028,2018-06-29 08:53:44.125000,-1.31,48.1
17029,2018-06-29 08:53:44.156250,4.45,48.1
17030,2018-06-29 08:53:44.187500,10.15,48.1
17031,2018-06-29 08:53:44.218750,13.31,48.1
17032,2018-06-29 08:53:44.250000,14.15,48.1
17033,2018-06-29 08:53:44.281250,14.52,48.1
17034,2018-06-29 08:53:44.312500,15.17,48.1
17035,2018-06-29 08:53:44.343750,15.61,48.1
17036,2018-06-29 08:53:44.375000,14.56,48.1
17037,2018-06-29 08:53:44.406250,10.79,48.1
17038,2018-06-29 08:53:44.437500,4.4,48.1
17039,2018-06-29 08:53:44.468750,-3.27,48.1
17040,2018-06-29 08:53:44.500000,-11.47,48.1
17041,2018-06-29 08:53:44.531250,-20.86,48.13
17042,2018-06-29 08:53:44.562500,-31.94,48.13
17043,2018-06-29 08:53:44.593750,-42.09,48.13
17044,2018-06-29 08:53:44.625000,-45.23,48.13
17045,2018-06-29 08:53:44.656250,-37.13,48.13
17046,2018-06-29 08:53:44.687500,-20.59,48.13
17047,2018-06-29 08:53:44.718750,-2.61,48.13
17048,2018-06-29 08:53:44.750000,12.32,48.13
17049,2018-06-29 08:53:44.781250,23.81,48.13
17050,2018-06-29 08:53:44.812500,32.42,48.13
17051,2018-06-29 08:53:44.843750,38.2,48.13
17052,2018-06-29 08:53:44.875000,41.96,48.13
17053,2018-06-29 08:53:44.906250,45.62,48.13
17054,2018-06-29 08:53:44.937500,50.14,48.13
17055,2018-06-29 08:53:44.968750,54.42,48.13
17056,2018-06-29 08:53:45.000000,56.97,48.13
17057,2018-06-29 08:53:45.031250,57.31,48.13
17058,2018-06-29 08:53:45.062500,55.26,48.13
17059,2018-06-29 08:53:45.093750,50.66,48.13
17060,2018-06-29 08:53:45.125000,44.65,48.13
17061,2018-06-29 08:53:45.156250,39.56,48.13
17062,2018-06-29 08:53:45.187500,36.14,48.13
17063,2018-06-29 08:53:45.218750,32.87,48.13
17064,2018-06-29 08:53:45.250000,28.92,48.13
17065,2018-06-29 08:53:45.281250,25.14,48.13
17066,2018-06-29 08:53:45.312500,22.1,48.13
17067,2018-06-29 08:53:45.343750,19.33,48.13
17068,2018-06-29 08:53:45.375000,16.09,48.13
17069,2018-06-29 08:53:45.406250,11.57,48.13
17070,2018-06-29 08:53:45.437500,5.81,48.13
17071,2018-06-29 08:53:45.468750,0.16,48.13
17072,2018-06-29 08:53:45.500000,-5.2,48.13
17073,2018-06-29 08:53:45.531250,-11.91,48.18
17074,2018-06-29 08:53:45.562500,-20.18,48.18
17075,2018-06-29 08:53:45.593750,-28.1,48.18
17076,2018-06-29 08:53:45.625000,-34.84,48.18
17077,2018-06-29 08:53:45.656250,-42.35,48.18
17078,2018-06-29 08:53:45.687500,-53.35,48.18
17079,2018-06-29 08:53:45.718750,-66.82,48.18
17080,2018-06-29 08:53:45.750000,-75.6,48.18
17081,2018-06-29 08:53:45.781250,-71.74,48.18
17082,2018-06-29 08:53:45.812500,-55.35,48.18
17083,2018-06-29 08:53:45.843750,-34.66,48.18
17084,2018-06-29 08:53:45.875000,-16.95,48.18
17085,2018-06-29 08:53:45.906250,-3.38,48.18
17086,2018-06-29 08:53:45.937500,7.73,48.18
17087,2018-06-29 08:53:45.968750,17.15,48.18
17088,2018-06-29 08:53:46.000000,24.6,48.18
17089,2018-06-29 08:53:46.031250,29.51,48.18
17090,2018-06-29 08:53:46.062500,31.84,48.18
17091,2018-06-29 08:53:46.093750,33.15,48.18
17092,2018-06-29 08:53:46.125000,35.27,48.18
17093,2018-06-29 08:53:46.156250,38.08,48.18
17094,2018-06-29 08:53:46.187500,39.94,48.18
17095,2018-06-29 08:53:46.218750,40.04,48.18
17096,2018-06-29 08:53:46.250000,38.64,48.18
17097,2018-06-29 08:53:46.281250,36.4,48.18
17098,2018-06-29 08:53:46.312500,34.18,48.18
17099,2018-06-29 08:53:46.343750,32.31,48.18
17100,2018-06-29 08:53:46.375000,29.91,48.18
17101,2018-06-29 08:53:46.406250,26.7,48.18
17102,2018-06-29 08:53:46.437500,24.15,48.18
17103,2018-06-29 08:53:46.468750,23.11,48.18
17104,2018-06-29 08:53:46.500000,21.84,48.18
17105,2018-06-29 08:53:46.531250,18.69,48.23
17106,2018-06-29 08:53:46.562500,14.52,48.23
17107,2018-06-29 08:53:46.593750,10.83,48.23
17108,2018-06-29 08:53:46.625000,7.71,48.23
17109,2018-06-29 08:53:46.656250,4.99,48.23
17110,2018-06-29 08:53:46.687500,2.78,48.23
17111,2018-06-29 08:53:46.718750,0.57,48.23
17112,2018-06-29 08:53:46.750000,-2.72,48.23
17113,2018-06-29 08:53:46.781250,-7.3,48.23
17114,2018-06-29 08:53:46.812500,-12.17,48.23
17115,2018-06-29 08:53:46.843750,-16.16,48.23
17116,2018-06-29 08:53:46.875000,-19.67,48.23
17117,2018-06-29 08:53:46.906250,-24.53,48.23
17118,2018-06-29 08:53:46.937500,-31.78,48.23
17119,2018-06-29 08:53:46.968750,-40.16,48.23
17120,2018-06-29 08:53:47.000000,-47.95,48.23
17121,2018-06-29 08:53:47.031250,-55.27,48.23
17122,2018-06-29 08:53:47.062500,-64.33,48.23
17123,2018-06-29 08:53:47.093750,-76.11,48.23
17124,2018-06-29 08:53:47.125000,-86.0,48.23
17125,2018-06-29 08:53:47.156250,-85.83,48.23
17126,2018-06-29 08:53:47.187500,-72.48,48.23
17127,2018-06-29 08:53:47.218750,-51.74,48.23
17128,2018-06-29 08:53:47.250000,-32.02,48.23
17129,2018-06-29 08:53:47.281250,-16.98,48.23
17130,2018-06-29 08:53:47.312500,-4.95,48.23
17131,2018-06-29 08:53:47.343750,6.46,48.23
17132,2018-06-29 08:53:47.375000,16.77,48.23
17133,2018-06-29 08:53:47.406250,24.14,48.23
17134,2018-06-29 08:53:47.437500,28.82,48.23
17135,2018-06-29 08:53:47.468750,32.79,48.23
17136,2018-06-29 08:53:47.500000,36.78,48.23
17137,2018-06-29 08:53:47.531250,40.06,48.28
17138,2018-06-29 08:53:47.562500,42.13,48.28
17139,2018-06-29 08:53:47.593750,42.74,48.28
17140,2018-06-29 08:53:47.625000,41.55,48.28
17141,2018-06-29 08:53:47.656250,38.98,48.28
17142,2018-06-29 08:53:47.687500,36.15,48.28
17143,2018-06-29 08:53:47.718750,33.7,48.28
17144,2018-06-29 08:53:47.750000,31.69,48.28
17145,2018-06-29 08:53:47.781250,29.83,48.28
17146,2018-06-29 08:53:47.812500,27.4,48.28
17147,2018-06-29 08:53:47.843750,24.42,48.28
17148,2018-06-29 08:53:47.875000,21.92,48.28
17149,2018-06-29 08:53:47.906250,19.77,48.28
17150,2018-06-29 08:53:47.937500,16.56,48.28
17151,2018-06-29 08:53:47.968750,12.61,48.28
17152,2018-06-29 08:53:48.000000,9.5,48.28
17153,2018-06-29 08:53:48.031250,7.02,48.28
17154,2018-06-29 08:53:48.062500,3.45,48.28
17155,2018-06-29 08:53:48.093750,-1.74,48.28
17156,2018-06-29 08:53:48.125000,-7.14,48.28
17157,2018-06-29 08:53:48.156250,-11.12,48.28
17158,2018-06-29 08:53:48.187500,-13.97,48.28
17159,2018-06-29 08:53:48.218750,-17.81,48.28
17160,2018-06-29 08:53:48.250000,-23.45,48.28
17161,2018-06-29 08:53:48.281250,-29.23,48.28
17162,2018-06-29 08:53:48.312500,-33.96,48.28
17163,2018-06-29 08:53:48.343750,-38.75,48.28
17164,2018-06-29 08:53:48.375000,-45.84,48.28
17165,2018-06-29 08:53:48.406250,-56.39,48.28
17166,2018-06-29 08:53:48.437500,-67.32,48.28
17167,2018-06-29 08:53:48.468750,-70.7,48.28
17168,2018-06-29 08:53:48.500000,-60.9,48.28
17169,2018-06-29 08:53:48.531250,-41.99,48.33
17170,2018-06-29 08:53:48.562500,-23.46,48.33
17171,2018-06-29 08:53:48.593750,-9.92,48.33
17172,2018-06-29 08:53:48.625000,0.31,48.33
17173,2018-06-29 08:53:48.656250,8.62,48.33
17174,2018-06-29 08:53:48.687500,13.82,48.33
17175,2018-06-29 08:53:48.718750,16.17,48.33
17176,2018-06-29 08:53:48.750000,18.4,48.33
17177,2018-06-29 08:53:48.781250,22.16,48.33
17178,2018-06-29 08:53:48.812500,26.63,48.33
17179,2018-06-29 08:53:48.843750,30.51,48.33
17180,2018-06-29 08:53:48.875000,32.84,48.33
17181,2018-06-29 08:53:48.906250,32.95,48.33
17182,2018-06-29 08:53:48.937500,31.32,48.33
17183,2018-06-29 08:53:48.968750,29.01,48.33
17184,2018-06-29 08:53:49.000000,26.34,48.33
17185,2018-06-29 08:53:49.031250,23.52,48.33
17186,2018-06-29 08:53:49.062500,21.16,48.33
17187,2018-06-29 08:53:49.093750,19.23,48.33
17188,2018-06-29 08:53:49.125000,17.12,48.33
17189,2018-06-29 08:53:49.156250,14.7,48.33
17190,2018-06-29 08:53:49.187500,12.33,48.33
17191,2018-06-29 08:53:49.218750,10.21,48.33
17192,2018-06-29 08:53:49.250000,7.9,48.33
17193,2018-06-29 08:53:49.281250,4.6,48.33
17194,2018-06-29 08:53:49.312500,0.06,48.33
17195,2018-06-29 08:53:49.343750,-5.01,48.33
17196,2018-06-29 08:53:49.375000,-9.98,48.33
17197,2018-06-29 08:53:49.406250,-14.85,48.33
17198,2018-06-29 08:53:49.437500,-20.13,48.33
17199,2018-06-29 08:53:49.468750,-26.43,48.33
17200,2018-06-29 08:53:49.500000,-33.41,48.33
17201,2018-06-29 08:53:49.531250,-39.9,48.38
17202,2018-06-29 08:53:49.562500,-46.21,48.38
17203,2018-06-29 08:53:49.593750,-54.66,48.38
17204,2018-06-29 08:53:49.625000,-65.8,48.38
17205,2018-06-29 08:53:49.656250,-74.56,48.38
17206,2018-06-29 08:53:49.687500,-73.23,48.38
17207,2018-06-29 08:53:49.718750,-59.61,48.38
17208,2018-06-29 08:53:49.750000,-39.92,48.38
17209,2018-06-29 08:53:49.781250,-22.14,48.38
17210,2018-06-29 08:53:49.812500,-9.16,48.38
17211,2018-06-29 08:53:49.843750,0.98,48.38
17212,2018-06-29 08:53:49.875000,10.3,48.38
17213,2018-06-29 08:53:49.906250,18.29,48.38
17214,2018-06-29 08:53:49.937500,23.86,48.38
17215,2018-06-29 08:53:49.968750,27.75,48.38
17216,2018-06-29 08:53:50.000000,31.02,48.38
17217,2018-06-29 08:53:50.031250,33.54,48.38
17218,2018-06-29 08:53:50.062500,35.47,48.38
17219,2018-06-29 08:53:50.093750,37.53,48.38
17220,2018-06-29 08:53:50.125000,38.87,48.38
17221,2018-06-29 08:53:50.156250,37.98,48.38
17222,2018-06-29 08:53:50.187500,35.36,48.38
17223,2018-06-29 08:53:50.218750,32.83,48.38
17224,2018-06-29 08:53:50.250000,31.0,48.38
17225,2018-06-29 08:53:50.281250,29.22,48.38
17226,2018-06-29 08:53:50.312500,27.08,48.38
17227,2018-06-29 08:53:50.343750,24.97,48.38
17228,2018-06-29 08:53:50.375000,23.4,48.38
17229,2018-06-29 08:53:50.406250,22.07,48.38
17230,2018-06-29 08:53:50.437500,20.2,48.38
17231,2018-06-29 08:53:50.468750,17.8,48.38
17232,2018-06-29 08:53:50.500000,15.28,48.38
17233,2018-06-29 08:53:50.531250,12.49,48.42
17234,2018-06-29 08:53:50.562500,9.16,48.42
17235,2018-06-29 08:53:50.593750,5.42,48.42
17236,2018-06-29 08:53:50.625000,1.33,48.42
17237,2018-06-29 08:53:50.656250,-2.94,48.42
17238,2018-06-29 08:53:50.687500,-6.79,48.42
17239,2018-06-29 08:53:50.718750,-10.05,48.42
17240,2018-06-29 08:53:50.750000,-13.24,48.42
17241,2018-06-29 08:53:50.781250,-17.24,48.42
17242,2018-06-29 08:53:50.812500,-22.96,48.42
17243,2018-06-29 08:53:50.843750,-29.93,48.42
17244,2018-06-29 08:53:50.875000,-36.28,48.42
17245,2018-06-29 08:53:50.906250,-41.75,48.42
17246,2018-06-29 08:53:50.937500,-48.52,48.42
17247,2018-06-29 08:53:50.968750,-58.35,48.42
17248,2018-06-29 08:53:51.000000,-69.72,48.42
17249,2018-06-29 08:53:51.031250,-76.82,48.42
17250,2018-06-29 08:53:51.062500,-72.69,48.42
17251,2018-06-29 08:53:51.093750,-56.68,48.42
17252,2018-06-29 08:53:51.125000,-36.25,48.42
17253,2018-06-29 08:53:51.156250,-19.05,48.42
17254,2018-06-29 08:53:51.187500,-6.88,48.42
17255,2018-06-29 08:53:51.218750,2.31,48.42
17256,2018-06-29 08:53:51.250000,10.34,48.42
17257,2018-06-29 08:53:51.281250,17.54,48.42
17258,2018-06-29 08:53:51.312500,23.02,48.42
17259,2018-06-29 08:53:51.343750,26.35,48.42
17260,2018-06-29 08:53:51.375000,28.72,48.42
17261,2018-06-29 08:53:51.406250,31.41,48.42
17262,2018-06-29 08:53:51.437500,34.37,48.42
17263,2018-06-29 08:53:51.468750,36.64,48.42
17264,2018-06-29 08:53:51.500000,37.17,48.42
17265,2018-06-29 08:53:51.531250,35.59,48.43
17266,2018-06-29 08:53:51.562500,32.69,48.43
17267,2018-06-29 08:53:51.593750,29.75,48.43
17268,2018-06-29 08:53:51.625000,27.19,48.43
17269,2018-06-29 08:53:51.656250,24.65,48.43
17270,2018-06-29 08:53:51.687500,22.26,48.43
17271,2018-06-29 08:53:51.718750,20.22,48.43
17272,2018-06-29 08:53:51.750000,18.15,48.43
17273,2018-06-29 08:53:51.781250,15.86,48.43
17274,2018-06-29 08:53:51.812500,13.41,48.43
17275,2018-06-29 08:53:51.843750,10.15,48.43
17276,2018-06-29 08:53:51.875000,5.58,48.43
17277,2018-06-29 08:53:51.906250,0.77,48.43
17278,2018-06-29 08:53:51.937500,-2.91,48.43
17279,2018-06-29 08:53:51.968750,-5.84,48.43
17280,2018-06-29 08:53:52.000000,-9.62,48.43
17281,2018-06-29 08:53:52.031250,-15.29,48.43
17282,2018-06-29 08:53:52.062500,-21.93,48.43
17283,2018-06-29 08:53:52.093750,-27.66,48.43
17284,2018-06-29 08:53:52.125000,-32.67,48.43
17285,2018-06-29 08:53:52.156250,-39.39,48.43
17286,2018-06-29 08:53:52.187500,-49.11,48.43
17287,2018-06-29 08:53:52.218750,-59.35,48.43
17288,2018-06-29 08:53:52.250000,-64.36,48.43
17289,2018-06-29 08:53:52.281250,-58.86,48.43
17290,2018-06-29 08:53:52.312500,-43.42,48.43
17291,2018-06-29 08:53:52.343750,-24.62,48.43
17292,2018-06-29 08:53:52.375000,-8.75,48.43
17293,2018-06-29 08:53:52.406250,2.68,48.43
17294,2018-06-29 08:53:52.437500,10.62,48.43
17295,2018-06-29 08:53:52.468750,15.41,48.43
17296,2018-06-29 08:53:52.500000,17.77,48.43
17297,2018-06-29 08:53:52.531250,19.9,48.45
17298,2018-06-29 08:53:52.562500,23.33,48.45
17299,2018-06-29 08:53:52.593750,27.46,48.45
17300,2018-06-29 08:53:52.625000,31.19,48.45
17301,2018-06-29 08:53:52.656250,34.19,48.45
17302,2018-06-29 08:53:52.687500,35.97,48.45
17303,2018-06-29 08:53:52.718750,35.69,48.45
17304,2018-06-29 08:53:52.750000,33.48,48.45
17305,2018-06-29 08:53:52.781250,30.52,48.45
17306,2018-06-29 08:53:52.812500,27.92,48.45
17307,2018-06-29 08:53:52.843750,25.97,48.45
17308,2018-06-29 08:53:52.875000,24.22,48.45
17309,2018-06-29 08:53:52.906250,22.19,48.45
17310,2018-06-29 08:53:52.937500,20.1,48.45
17311,2018-06-29 08:53:52.968750,18.35,48.45
17312,2018-06-29 08:53:53.000000,16.87,48.45
17313,2018-06-29 08:53:53.031250,15.12,48.45
17314,2018-06-29 08:53:53.062500,12.37,48.45
17315,2018-06-29 08:53:53.093750,8.51,48.45
17316,2018-06-29 08:53:53.125000,4.76,48.45
17317,2018-06-29 08:53:53.156250,1.95,48.45
17318,2018-06-29 08:53:53.187500,-1.13,48.45
17319,2018-06-29 08:53:53.218750,-5.39,48.45
17320,2018-06-29 08:53:53.250000,-9.64,48.45
17321,2018-06-29 08:53:53.281250,-13.3,48.45
17322,2018-06-29 08:53:53.312500,-17.91,48.45
17323,2018-06-29 08:53:53.343750,-24.11,48.45
17324,2018-06-29 08:53:53.375000,-30.49,48.45
17325,2018-06-29 08:53:53.406250,-36.09,48.45
17326,2018-06-29 08:53:53.437500,-41.52,48.45
17327,2018-06-29 08:53:53.468750,-48.27,48.45
17328,2018-06-29 08:53:53.500000,-58.07,48.45
17329,2018-06-29 08:53:53.531250,-69.76,48.47
17330,2018-06-29 08:53:53.562500,-76.19,48.47
17331,2018-06-29 08:53:53.593750,-69.73,48.47
17332,2018-06-29 08:53:53.625000,-51.69,48.47
17333,2018-06-29 08:53:53.656250,-31.19,48.47
17334,2018-06-29 08:53:53.687500,-15.14,48.47
17335,2018-06-29 08:53:53.718750,-3.78,48.47
17336,2018-06-29 08:53:53.750000,5.3,48.47
17337,2018-06-29 08:53:53.781250,13.32,48.47
17338,2018-06-29 08:53:53.812500,20.1,48.47
17339,2018-06-29 08:53:53.843750,24.99,48.47
17340,2018-06-29 08:53:53.875000,28.33,48.47
17341,2018-06-29 08:53:53.906250,31.5,48.47
17342,2018-06-29 08:53:53.937500,35.25,48.47
17343,2018-06-29 08:53:53.968750,38.76,48.47
17344,2018-06-29 08:53:54.000000,40.58,48.47
17345,2018-06-29 08:53:54.031250,39.99,48.47
17346,2018-06-29 08:53:54.062500,37.67,48.47
17347,2018-06-29 08:53:54.093750,35.05,48.47
17348,2018-06-29 08:53:54.125000,33.03,48.47
17349,2018-06-29 08:53:54.156250,31.15,48.47
17350,2018-06-29 08:53:54.187500,28.55,48.47
17351,2018-06-29 08:53:54.218750,25.42,48.47
17352,2018-06-29 08:53:54.250000,23.03,48.47
17353,2018-06-29 08:53:54.281250,22.09,48.47
17354,2018-06-29 08:53:54.312500,21.55,48.47
17355,2018-06-29 08:53:54.343750,19.85,48.47
17356,2018-06-29 08:53:54.375000,16.96,48.47
17357,2018-06-29 08:53:54.406250,13.77,48.47
17358,2018-06-29 08:53:54.437500,10.28,48.47
17359,2018-06-29 08:53:54.468750,6.32,48.47
17360,2018-06-29 08:53:54.500000,2.83,48.47
17361,2018-06-29 08:53:54.531250,0.07,48.47
17362,2018-06-29 08:53:54.562500,-3.13,48.47
17363,2018-06-29 08:53:54.593750,-7.0,48.47
17364,2018-06-29 08:53:54.625000,-10.87,48.47
17365,2018-06-29 08:53:54.656250,-15.46,48.47
17366,2018-06-29 08:53:54.687500,-21.63,48.47
17367,2018-06-29 08:53:54.718750,-27.92,48.47
17368,2018-06-29 08:53:54.750000,-32.73,48.47
17369,2018-06-29 08:53:54.781250,-37.6,48.47
17370,2018-06-29 08:53:54.812500,-45.31,48.47
17371,2018-06-29 08:53:54.843750,-56.24,48.47
17372,2018-06-29 08:53:54.875000,-66.93,48.47
17373,2018-06-29 08:53:54.906250,-70.89,48.47
17374,2018-06-29 08:53:54.937500,-62.95,48.47
17375,2018-06-29 08:53:54.968750,-45.17,48.47
17376,2018-06-29 08:53:55.000000,-25.58,48.47
17377,2018-06-29 08:53:55.031250,-10.0,48.47
17378,2018-06-29 08:53:55.062500,1.23,48.47
17379,2018-06-29 08:53:55.093750,9.5,48.47
17380,2018-06-29 08:53:55.125000,15.67,48.47
17381,2018-06-29 08:53:55.156250,20.55,48.47
17382,2018-06-29 08:53:55.187500,24.52,48.47
17383,2018-06-29 08:53:55.218750,27.68,48.47
17384,2018-06-29 08:53:55.250000,30.56,48.47
17385,2018-06-29 08:53:55.281250,33.37,48.47
17386,2018-06-29 08:53:55.312500,35.6,48.47
17387,2018-06-29 08:53:55.343750,36.64,48.47
17388,2018-06-29 08:53:55.375000,36.21,48.47
17389,2018-06-29 08:53:55.406250,34.43,48.47
17390,2018-06-29 08:53:55.437500,31.83,48.47
17391,2018-06-29 08:53:55.468750,29.23,48.47
17392,2018-06-29 08:53:55.500000,27.15,48.47
17393,2018-06-29 08:53:55.531250,25.26,48.45
17394,2018-06-29 08:53:55.562500,22.96,48.45
17395,2018-06-29 08:53:55.593750,20.36,48.45
17396,2018-06-29 08:53:55.625000,17.84,48.45
17397,2018-06-29 08:53:55.656250,15.26,48.45
17398,2018-06-29 08:53:55.687500,12.53,48.45
17399,2018-06-29 08:53:55.718750,9.97,48.45
17400,2018-06-29 08:53:55.750000,7.4,48.45
17401,2018-06-29 08:53:55.781250,4.39,48.45
17402,2018-06-29 08:53:55.812500,1.07,48.45
17403,2018-06-29 08:53:55.843750,-2.45,48.45
17404,2018-06-29 08:53:55.875000,-6.29,48.45
17405,2018-06-29 08:53:55.906250,-10.59,48.45
17406,2018-06-29 08:53:55.937500,-15.44,48.45
17407,2018-06-29 08:53:55.968750,-20.56,48.45
17408,2018-06-29 08:53:56.000000,-25.33,48.45
17409,2018-06-29 08:53:56.031250,-29.93,48.45
17410,2018-06-29 08:53:56.062500,-35.78,48.45
17411,2018-06-29 08:53:56.093750,-44.08,48.45
17412,2018-06-29 08:53:56.125000,-53.7,48.45
17413,2018-06-29 08:53:56.156250,-59.94,48.45
17414,2018-06-29 08:53:56.187500,-56.77,48.45
17415,2018-06-29 08:53:56.218750,-42.99,48.45
17416,2018-06-29 08:53:56.250000,-24.7,48.45
17417,2018-06-29 08:53:56.281250,-9.35,48.45
17418,2018-06-29 08:53:56.312500,0.77,48.45
17419,2018-06-29 08:53:56.343750,7.22,48.45
17420,2018-06-29 08:53:56.375000,11.25,48.45
17421,2018-06-29 08:53:56.406250,13.63,48.45
17422,2018-06-29 08:53:56.437500,15.8,48.45
17423,2018-06-29 08:53:56.468750,18.95,48.45
17424,2018-06-29 08:53:56.500000,22.86,48.45
17425,2018-06-29 08:53:56.531250,26.36,48.43
17426,2018-06-29 08:53:56.562500,28.52,48.43
17427,2018-06-29 08:53:56.593750,29.26,48.43
17428,2018-06-29 08:53:56.625000,28.7,48.43
17429,2018-06-29 08:53:56.656250,26.68,48.43
17430,2018-06-29 08:53:56.687500,23.75,48.43
17431,2018-06-29 08:53:56.718750,21.45,48.43
17432,2018-06-29 08:53:56.750000,20.34,48.43
17433,2018-06-29 08:53:56.781250,19.28,48.43
17434,2018-06-29 08:53:56.812500,17.53,48.43
17435,2018-06-29 08:53:56.843750,15.55,48.43
17436,2018-06-29 08:53:56.875000,13.58,48.43
17437,2018-06-29 08:53:56.906250,11.22,48.43
17438,2018-06-29 08:53:56.937500,8.49,48.43
17439,2018-06-29 08:53:56.968750,5.96,48.43
17440,2018-06-29 08:53:57.000000,3.53,48.43
17441,2018-06-29 08:53:57.031250,0.25,48.43
17442,2018-06-29 08:53:57.062500,-4.48,48.43
17443,2018-06-29 08:53:57.093750,-9.61,48.43
17444,2018-06-29 08:53:57.125000,-13.81,48.43
17445,2018-06-29 08:53:57.156250,-17.71,48.43
17446,2018-06-29 08:53:57.187500,-22.8,48.43
17447,2018-06-29 08:53:57.218750,-28.81,48.43
17448,2018-06-29 08:53:57.250000,-34.72,48.43
17449,2018-06-29 08:53:57.281250,-41.09,48.43
17450,2018-06-29 08:53:57.312500,-49.63,48.43
17451,2018-06-29 08:53:57.343750,-60.62,48.43
17452,2018-06-29 08:53:57.375000,-70.59,48.43
17453,2018-06-29 08:53:57.406250,-72.85,48.43
17454,2018-06-29 08:53:57.437500,-63.32,48.43
17455,2018-06-29 08:53:57.468750,-45.62,48.43
17456,2018-06-29 08:53:57.500000,-27.42,48.43
17457,2018-06-29 08:53:57.531250,-12.95,48.4
17458,2018-06-29 08:53:57.562500,-1.72,48.4
17459,2018-06-29 08:53:57.593750,7.5,48.4
17460,2018-06-29 08:53:57.625000,14.69,48.4
17461,2018-06-29 08:53:57.656250,19.77,48.4
17462,2018-06-29 08:53:57.687500,23.48,48.4
17463,2018-06-29 08:53:57.718750,26.79,48.4
17464,2018-06-29 08:53:57.750000,30.14,48.4
17465,2018-06-29 08:53:57.781250,33.47,48.4
17466,2018-06-29 08:53:57.812500,36.12,48.4
17467,2018-06-29 08:53:57.843750,37.38,48.4
17468,2018-06-29 08:53:57.875000,37.25,48.4
17469,2018-06-29 08:53:57.906250,35.98,48.4
17470,2018-06-29 08:53:57.937500,33.55,48.4
17471,2018-06-29 08:53:57.968750,30.61,48.4
17472,2018-06-29 08:53:58.000000,28.43,48.4
17473,2018-06-29 08:53:58.031250,27.35,48.4
17474,2018-06-29 08:53:58.062500,26.5,48.4
17475,2018-06-29 08:53:58.093750,25.18,48.4
17476,2018-06-29 08:53:58.125000,23.3,48.4
17477,2018-06-29 08:53:58.156250,21.04,48.4
17478,2018-06-29 08:53:58.187500,18.74,48.4
17479,2018-06-29 08:53:58.218750,16.49,48.4
17480,2018-06-29 08:53:58.250000,13.87,48.4
17481,2018-06-29 08:53:58.281250,10.61,48.4
17482,2018-06-29 08:53:58.312500,7.2,48.4
17483,2018-06-29 08:53:58.343750,4.09,48.4
17484,2018-06-29 08:53:58.375000,0.84,48.4
17485,2018-06-29 08:53:58.406250,-2.95,48.4
17486,2018-06-29 08:53:58.437500,-6.94,48.4
17487,2018-06-29 08:53:58.468750,-10.83,48.4
17488,2018-06-29 08:53:58.500000,-15.12,48.4
17489,2018-06-29 08:53:58.531250,-20.45,48.37
17490,2018-06-29 08:53:58.562500,-26.72,48.37
17491,2018-06-29 08:53:58.593750,-33.06,48.37
17492,2018-06-29 08:53:58.625000,-38.99,48.37
17493,2018-06-29 08:53:58.656250,-45.87,48.37
17494,2018-06-29 08:53:58.687500,-56.0,48.37
17495,2018-06-29 08:53:58.718750,-68.78,48.37
17496,2018-06-29 08:53:58.750000,-78.07,48.37
17497,2018-06-29 08:53:58.781250,-76.07,48.37
17498,2018-06-29 08:53:58.812500,-61.04,48.37
17499,2018-06-29 08:53:58.843750,-39.58,48.37
17500,2018-06-29 08:53:58.875000,-20.37,48.37
17501,2018-06-29 08:53:58.906250,-7.1,48.37
17502,2018-06-29 08:53:58.937500,1.91,48.37
17503,2018-06-29 08:53:58.968750,9.5,48.37
17504,2018-06-29 08:53:59.000000,16.74,48.37
17505,2018-06-29 08:53:59.031250,23.05,48.37
17506,2018-06-29 08:53:59.062500,27.76,48.37
17507,2018-06-29 08:53:59.093750,31.06,48.37
17508,2018-06-29 08:53:59.125000,33.87,48.37
17509,2018-06-29 08:53:59.156250,36.92,48.37
17510,2018-06-29 08:53:59.187500,39.65,48.37
17511,2018-06-29 08:53:59.218750,40.6,48.37
17512,2018-06-29 08:53:59.250000,39.24,48.37
17513,2018-06-29 08:53:59.281250,36.49,48.37
17514,2018-06-29 08:53:59.312500,33.55,48.37
17515,2018-06-29 08:53:59.343750,31.15,48.37
17516,2018-06-29 08:53:59.375000,29.28,48.37
17517,2018-06-29 08:53:59.406250,27.54,48.37
17518,2018-06-29 08:53:59.437500,25.77,48.37
17519,2018-06-29 08:53:59.468750,24.43,48.37
17520,2018-06-29 08:53:59.500000,23.57,48.37
17521,2018-06-29 08:53:59.531250,22.0,48.33
17522,2018-06-29 08:53:59.562500,18.75,48.33
17523,2018-06-29 08:53:59.593750,14.67,48.33
17524,2018-06-29 08:53:59.625000,11.34,48.33
17525,2018-06-29 08:53:59.656250,9.09,48.33
17526,2018-06-29 08:53:59.687500,6.53,48.33
17527,2018-06-29 08:53:59.718750,2.55,48.33
17528,2018-06-29 08:53:59.750000,-2.07,48.33
17529,2018-06-29 08:53:59.781250,-6.01,48.33
17530,2018-06-29 08:53:59.812500,-9.71,48.33
17531,2018-06-29 08:53:59.843750,-14.27,48.33
17532,2018-06-29 08:53:59.875000,-19.53,48.33
17533,2018-06-29 08:53:59.906250,-24.82,48.33
17534,2018-06-29 08:53:59.937500,-30.31,48.33
17535,2018-06-29 08:53:59.968750,-36.54,48.33
17536,2018-06-29 08:54:00.000000,-44.29,48.33
17537,2018-06-29 08:54:00.031250,-54.41,48.33
17538,2018-06-29 08:54:00.062500,-64.9,48.33
17539,2018-06-29 08:54:00.093750,-68.99,48.33
17540,2018-06-29 08:54:00.125000,-60.52,48.33
17541,2018-06-29 08:54:00.156250,-41.73,48.33
17542,2018-06-29 08:54:00.187500,-21.57,48.33
17543,2018-06-29 08:54:00.218750,-6.5,48.33
17544,2018-06-29 08:54:00.250000,3.29,48.33
17545,2018-06-29 08:54:00.281250,9.78,48.33
17546,2018-06-29 08:54:00.312500,13.52,48.33
17547,2018-06-29 08:54:00.343750,15.26,48.33
17548,2018-06-29 08:54:00.375000,17.3,48.33
17549,2018-06-29 08:54:00.406250,20.82,48.33
17550,2018-06-29 08:54:00.437500,24.52,48.33
17551,2018-06-29 08:54:00.468750,27.8,48.33
17552,2018-06-29 08:54:00.500000,31.36,48.33
17553,2018-06-29 08:54:00.531250,33.77,48.3
17554,2018-06-29 08:54:00.562500,32.55,48.3
17555,2018-06-29 08:54:00.593750,28.77,48.3
17556,2018-06-29 08:54:00.625000,25.55,48.3
17557,2018-06-29 08:54:00.656250,23.59,48.3
17558,2018-06-29 08:54:00.687500,21.69,48.3
17559,2018-06-29 08:54:00.718750,19.28,48.3
17560,2018-06-29 08:54:00.750000,16.66,48.3
17561,2018-06-29 08:54:00.781250,14.12,48.3
17562,2018-06-29 08:54:00.812500,11.15,48.3
17563,2018-06-29 08:54:00.843750,6.78,48.3
17564,2018-06-29 08:54:00.875000,1.51,48.3
17565,2018-06-29 08:54:00.906250,-2.92,48.3
17566,2018-06-29 08:54:00.937500,-6.52,48.3
17567,2018-06-29 08:54:00.968750,-11.36,48.3
17568,2018-06-29 08:54:01.000000,-18.18,48.3
17569,2018-06-29 08:54:01.031250,-25.3,48.3
17570,2018-06-29 08:54:01.062500,-31.47,48.3
17571,2018-06-29 08:54:01.093750,-38.1,48.3
17572,2018-06-29 08:54:01.125000,-47.69,48.3
17573,2018-06-29 08:54:01.156250,-59.92,48.3
17574,2018-06-29 08:54:01.187500,-69.17,48.3
17575,2018-06-29 08:54:01.218750,-67.93,48.3
17576,2018-06-29 08:54:01.250000,-54.37,48.3
17577,2018-06-29 08:54:01.281250,-34.57,48.3
17578,2018-06-29 08:54:01.312500,-16.32,48.3
17579,2018-06-29 08:54:01.343750,-2.82,48.3
17580,2018-06-29 08:54:01.375000,7.02,48.3
17581,2018-06-29 08:54:01.406250,14.75,48.3
17582,2018-06-29 08:54:01.437500,20.65,48.3
17583,2018-06-29 08:54:01.468750,24.78,48.3
17584,2018-06-29 08:54:01.500000,28.0,48.3
17585,2018-06-29 08:54:01.531250,31.14,48.27
17586,2018-06-29 08:54:01.562500,34.38,48.27
17587,2018-06-29 08:54:01.593750,37.45,48.27
17588,2018-06-29 08:54:01.625000,39.56,48.27
17589,2018-06-29 08:54:01.656250,39.87,48.27
17590,2018-06-29 08:54:01.687500,38.42,48.27
17591,2018-06-29 08:54:01.718750,36.03,48.27
17592,2018-06-29 08:54:01.750000,33.38,48.27
17593,2018-06-29 08:54:01.781250,30.68,48.27
17594,2018-06-29 08:54:01.812500,27.95,48.27
17595,2018-06-29 08:54:01.843750,25.14,48.27
17596,2018-06-29 08:54:01.875000,22.41,48.27
17597,2018-06-29 08:54:01.906250,19.82,48.27
17598,2018-06-29 08:54:01.937500,17.05,48.27
17599,2018-06-29 08:54:01.968750,13.89,48.27
17600,2018-06-29 08:54:02.000000,10.32,48.27
17601,2018-06-29 08:54:02.031250,6.01,48.27
17602,2018-06-29 08:54:02.062500,0.9,48.27
17603,2018-06-29 08:54:02.093750,-3.92,48.27
17604,2018-06-29 08:54:02.125000,-8.02,48.27
17605,2018-06-29 08:54:02.156250,-13.19,48.27
17606,2018-06-29 08:54:02.187500,-20.8,48.27
17607,2018-06-29 08:54:02.218750,-28.94,48.27
17608,2018-06-29 08:54:02.250000,-35.02,48.27
17609,2018-06-29 08:54:02.281250,-39.92,48.27
17610,2018-06-29 08:54:02.312500,-47.26,48.27
17611,2018-06-29 08:54:02.343750,-59.34,48.27
17612,2018-06-29 08:54:02.375000,-73.75,48.27
17613,2018-06-29 08:54:02.406250,-82.85,48.27
17614,2018-06-29 08:54:02.437500,-79.07,48.27
17615,2018-06-29 08:54:02.468750,-62.67,48.27
17616,2018-06-29 08:54:02.500000,-41.35,48.27
17617,2018-06-29 08:54:02.531250,-22.27,48.25
17618,2018-06-29 08:54:02.562500,-7.45,48.25
17619,2018-06-29 08:54:02.593750,4.29,48.25
17620,2018-06-29 08:54:02.625000,14.42,48.25
17621,2018-06-29 08:54:02.656250,23.11,48.25
17622,2018-06-29 08:54:02.687500,29.59,48.25
17623,2018-06-29 08:54:02.718750,34.14,48.25
17624,2018-06-29 08:54:02.750000,38.02,48.25
17625,2018-06-29 08:54:02.781250,41.56,48.25
17626,2018-06-29 08:54:02.812500,44.4,48.25
17627,2018-06-29 08:54:02.843750,46.64,48.25
17628,2018-06-29 08:54:02.875000,47.88,48.25
17629,2018-06-29 08:54:02.906250,46.84,48.25
17630,2018-06-29 08:54:02.937500,43.7,48.25
17631,2018-06-29 08:54:02.968750,40.81,48.25
17632,2018-06-29 08:54:03.000000,39.15,48.25
17633,2018-06-29 08:54:03.031250,37.02,48.25
17634,2018-06-29 08:54:03.062500,33.55,48.25
17635,2018-06-29 08:54:03.093750,30.25,48.25
17636,2018-06-29 08:54:03.125000,28.04,48.25
17637,2018-06-29 08:54:03.156250,25.88,48.25
17638,2018-06-29 08:54:03.187500,22.99,48.25
17639,2018-06-29 08:54:03.218750,19.74,48.25
17640,2018-06-29 08:54:03.250000,16.2,48.25
17641,2018-06-29 08:54:03.281250,12.09,48.25
17642,2018-06-29 08:54:03.312500,7.73,48.25
17643,2018-06-29 08:54:03.343750,3.47,48.25
17644,2018-06-29 08:54:03.375000,-1.14,48.25
17645,2018-06-29 08:54:03.406250,-6.11,48.25
17646,2018-06-29 08:54:03.437500,-10.55,48.25
17647,2018-06-29 08:54:03.468750,-14.85,48.25
17648,2018-06-29 08:54:03.500000,-20.99,48.25
17649,2018-06-29 08:54:03.531250,-28.96,48.22
17650,2018-06-29 08:54:03.562500,-36.11,48.22
17651,2018-06-29 08:54:03.593750,-41.75,48.22
17652,2018-06-29 08:54:03.625000,-49.29,48.22
17653,2018-06-29 08:54:03.656250,-62.09,48.22
17654,2018-06-29 08:54:03.687500,-77.92,48.22
17655,2018-06-29 08:54:03.718750,-87.98,48.22
17656,2018-06-29 08:54:03.750000,-83.86,48.22
17657,2018-06-29 08:54:03.781250,-66.67,48.22
17658,2018-06-29 08:54:03.812500,-46.24,48.22
17659,2018-06-29 08:54:03.843750,-30.5,48.22
17660,2018-06-29 08:54:03.875000,-19.33,48.22
17661,2018-06-29 08:54:03.906250,-9.31,48.22
17662,2018-06-29 08:54:03.937500,-0.29,48.22
17663,2018-06-29 08:54:03.968750,4.8,48.22
17664,2018-06-29 08:54:04.000000,5.18,48.22
17665,2018-06-29 08:54:04.031250,5.31,48.22
17666,2018-06-29 08:54:04.062500,10.76,48.22
17667,2018-06-29 08:54:04.093750,21.91,48.22
17668,2018-06-29 08:54:04.125000,34.25,48.22
17669,2018-06-29 08:54:04.156250,43.28,48.22
17670,2018-06-29 08:54:04.187500,47.14,48.22
17671,2018-06-29 08:54:04.218750,46.62,48.22
17672,2018-06-29 08:54:04.250000,44.37,48.22
17673,2018-06-29 08:54:04.281250,43.18,48.22
17674,2018-06-29 08:54:04.312500,43.6,48.22
17675,2018-06-29 08:54:04.343750,43.75,48.22
17676,2018-06-29 08:54:04.375000,42.44,48.22
17677,2018-06-29 08:54:04.406250,41.54,48.22
17678,2018-06-29 08:54:04.437500,43.36,48.22
17679,2018-06-29 08:54:04.468750,46.97,48.22
17680,2018-06-29 08:54:04.500000,49.16,48.22
17681,2018-06-29 08:54:04.531250,47.78,48.2
17682,2018-06-29 08:54:04.562500,42.23,48.2
17683,2018-06-29 08:54:04.593750,32.75,48.2
17684,2018-06-29 08:54:04.625000,20.69,48.2
17685,2018-06-29 08:54:04.656250,7.5,48.2
17686,2018-06-29 08:54:04.687500,-6.09,48.2
17687,2018-06-29 08:54:04.718750,-19.38,48.2
17688,2018-06-29 08:54:04.750000,-31.52,48.2
17689,2018-06-29 08:54:04.781250,-43.35,48.2
17690,2018-06-29 08:54:04.812500,-57.0,48.2
17691,2018-06-29 08:54:04.843750,-72.23,48.2
17692,2018-06-29 08:54:04.875000,-84.3,48.2
17693,2018-06-29 08:54:04.906250,-87.12,48.2
17694,2018-06-29 08:54:04.937500,-78.79,48.2
17695,2018-06-29 08:54:04.968750,-62.77,48.2
17696,2018-06-29 08:54:05.000000,-43.93,48.2
17697,2018-06-29 08:54:05.031250,-24.92,48.2
17698,2018-06-29 08:54:05.062500,-6.88,48.2
17699,2018-06-29 08:54:05.093750,8.56,48.2
17700,2018-06-29 08:54:05.125000,19.7,48.2
17701,2018-06-29 08:54:05.156250,26.83,48.2
17702,2018-06-29 08:54:05.187500,31.96,48.2
17703,2018-06-29 08:54:05.218750,37.09,48.2
17704,2018-06-29 08:54:05.250000,42.92,48.2
17705,2018-06-29 08:54:05.281250,48.83,48.2
17706,2018-06-29 08:54:05.312500,53.2,48.2
17707,2018-06-29 08:54:05.343750,54.62,48.2
17708,2018-06-29 08:54:05.375000,53.65,48.2
17709,2018-06-29 08:54:05.406250,52.12,48.2
17710,2018-06-29 08:54:05.437500,50.66,48.2
17711,2018-06-29 08:54:05.468750,48.02,48.2
17712,2018-06-29 08:54:05.500000,43.3,48.2
17713,2018-06-29 08:54:05.531250,37.48,48.17
17714,2018-06-29 08:54:05.562500,32.02,48.17
17715,2018-06-29 08:54:05.593750,27.13,48.17
17716,2018-06-29 08:54:05.625000,22.31,48.17
17717,2018-06-29 08:54:05.656250,17.4,48.17
17718,2018-06-29 08:54:05.687500,12.63,48.17
17719,2018-06-29 08:54:05.718750,8.59,48.17
17720,2018-06-29 08:54:05.750000,5.36,48.17
17721,2018-06-29 08:54:05.781250,1.83,48.17
17722,2018-06-29 08:54:05.812500,-2.8,48.17
17723,2018-06-29 08:54:05.843750,-7.71,48.17
17724,2018-06-29 08:54:05.875000,-12.19,48.17
17725,2018-06-29 08:54:05.906250,-17.5,48.17
17726,2018-06-29 08:54:05.937500,-24.65,48.17
17727,2018-06-29 08:54:05.968750,-32.0,48.17
17728,2018-06-29 08:54:06.000000,-37.69,48.17
17729,2018-06-29 08:54:06.031250,-42.87,48.17
17730,2018-06-29 08:54:06.062500,-50.57,48.17
17731,2018-06-29 08:54:06.093750,-61.49,48.17
17732,2018-06-29 08:54:06.125000,-71.45,48.17
17733,2018-06-29 08:54:06.156250,-73.36,48.17
17734,2018-06-29 08:54:06.187500,-63.51,48.17
17735,2018-06-29 08:54:06.218750,-45.75,48.17
17736,2018-06-29 08:54:06.250000,-27.48,48.17
17737,2018-06-29 08:54:06.281250,-12.61,48.17
17738,2018-06-29 08:54:06.312500,-0.63,48.17
17739,2018-06-29 08:54:06.343750,9.59,48.17
17740,2018-06-29 08:54:06.375000,17.99,48.17
17741,2018-06-29 08:54:06.406250,24.27,48.17
17742,2018-06-29 08:54:06.437500,28.43,48.17
17743,2018-06-29 08:54:06.468750,30.91,48.17
17744,2018-06-29 08:54:06.500000,32.83,48.17
17745,2018-06-29 08:54:06.531250,35.23,48.13
17746,2018-06-29 08:54:06.562500,37.89,48.13
17747,2018-06-29 08:54:06.593750,39.28,48.13
17748,2018-06-29 08:54:06.625000,38.47,48.13
17749,2018-06-29 08:54:06.656250,36.38,48.13
17750,2018-06-29 08:54:06.687500,34.47,48.13
17751,2018-06-29 08:54:06.718750,32.79,48.13
17752,2018-06-29 08:54:06.750000,30.51,48.13
17753,2018-06-29 08:54:06.781250,27.5,48.13
17754,2018-06-29 08:54:06.812500,24.16,48.13
17755,2018-06-29 08:54:06.843750,20.55,48.13
17756,2018-06-29 08:54:06.875000,16.8,48.13
17757,2018-06-29 08:54:06.906250,13.22,48.13
17758,2018-06-29 08:54:06.937500,9.42,48.13
17759,2018-06-29 08:54:06.968750,5.24,48.13
17760,2018-06-29 08:54:07.000000,1.37,48.13
17761,2018-06-29 08:54:07.031250,-2.15,48.13
17762,2018-06-29 08:54:07.062500,-6.0,48.13
17763,2018-06-29 08:54:07.093750,-10.01,48.13
17764,2018-06-29 08:54:07.125000,-13.91,48.13
17765,2018-06-29 08:54:07.156250,-18.66,48.13
17766,2018-06-29 08:54:07.187500,-24.57,48.13
17767,2018-06-29 08:54:07.218750,-30.15,48.13
17768,2018-06-29 08:54:07.250000,-34.81,48.13
17769,2018-06-29 08:54:07.281250,-40.63,48.13
17770,2018-06-29 08:54:07.312500,-50.05,48.13
17771,2018-06-29 08:54:07.343750,-61.77,48.13
17772,2018-06-29 08:54:07.375000,-69.31,48.13
17773,2018-06-29 08:54:07.406250,-66.13,48.13
17774,2018-06-29 08:54:07.437500,-52.86,48.13
17775,2018-06-29 08:54:07.468750,-35.98,48.13
17776,2018-06-29 08:54:07.500000,-20.36,48.13
17777,2018-06-29 08:54:07.531250,-6.98,48.12
17778,2018-06-29 08:54:07.562500,3.81,48.12
17779,2018-06-29 08:54:07.593750,11.46,48.12
17780,2018-06-29 08:54:07.625000,16.37,48.12
17781,2018-06-29 08:54:07.656250,19.69,48.12
17782,2018-06-29 08:54:07.687500,22.46,48.12
17783,2018-06-29 08:54:07.718750,25.2,48.12
17784,2018-06-29 08:54:07.750000,27.79,48.12
17785,2018-06-29 08:54:07.781250,29.86,48.12
17786,2018-06-29 08:54:07.812500,31.15,48.12
17787,2018-06-29 08:54:07.843750,31.47,48.12
17788,2018-06-29 08:54:07.875000,30.4,48.12
17789,2018-06-29 08:54:07.906250,27.44,48.12
17790,2018-06-29 08:54:07.937500,23.19,48.12
17791,2018-06-29 08:54:07.968750,19.61,48.12
17792,2018-06-29 08:54:08.000000,17.9,48.12
17793,2018-06-29 08:54:08.031250,17.02,48.12
17794,2018-06-29 08:54:08.062500,15.53,48.12
17795,2018-06-29 08:54:08.093750,13.31,48.12
17796,2018-06-29 08:54:08.125000,10.7,48.12
17797,2018-06-29 08:54:08.156250,7.4,48.12
17798,2018-06-29 08:54:08.187500,3.32,48.12
17799,2018-06-29 08:54:08.218750,-0.77,48.12
17800,2018-06-29 08:54:08.250000,-4.22,48.12
17801,2018-06-29 08:54:08.281250,-7.43,48.12
17802,2018-06-29 08:54:08.312500,-11.35,48.12
17803,2018-06-29 08:54:08.343750,-16.41,48.12
17804,2018-06-29 08:54:08.375000,-22.16,48.12
17805,2018-06-29 08:54:08.406250,-27.88,48.12
17806,2018-06-29 08:54:08.437500,-33.29,48.12
17807,2018-06-29 08:54:08.468750,-38.74,48.12
17808,2018-06-29 08:54:08.500000,-45.38,48.12
17809,2018-06-29 08:54:08.531250,-54.49,48.1
17810,2018-06-29 08:54:08.562500,-64.29,48.1
17811,2018-06-29 08:54:08.593750,-68.23,48.1
17812,2018-06-29 08:54:08.625000,-61.23,48.1
17813,2018-06-29 08:54:08.656250,-46.38,48.1
17814,2018-06-29 08:54:08.687500,-31.05,48.1
17815,2018-06-29 08:54:08.718750,-19.24,48.1
17816,2018-06-29 08:54:08.750000,-11.51,48.1
17817,2018-06-29 08:54:08.781250,-7.54,48.1
17818,2018-06-29 08:54:08.812500,-5.29,48.1
17819,2018-06-29 08:54:08.843750,-1.31,48.1
17820,2018-06-29 08:54:08.875000,6.08,48.1
17821,2018-06-29 08:54:08.906250,15.25,48.1
17822,2018-06-29 08:54:08.937500,23.27,48.1
17823,2018-06-29 08:54:08.968750,28.38,48.1
17824,2018-06-29 08:54:09.000000,30.74,48.1
17825,2018-06-29 08:54:09.031250,31.2,48.1
17826,2018-06-29 08:54:09.062500,30.46,48.1
17827,2018-06-29 08:54:09.093750,29.34,48.1
17828,2018-06-29 08:54:09.125000,28.41,48.1
17829,2018-06-29 08:54:09.156250,27.39,48.1
17830,2018-06-29 08:54:09.187500,25.35,48.1
17831,2018-06-29 08:54:09.218750,22.21,48.1
17832,2018-06-29 08:54:09.250000,19.03,48.1
17833,2018-06-29 08:54:09.281250,16.18,48.1
17834,2018-06-29 08:54:09.312500,12.42,48.1
17835,2018-06-29 08:54:09.343750,6.64,48.1
17836,2018-06-29 08:54:09.375000,-0.5,48.1
17837,2018-06-29 08:54:09.406250,-7.41,48.1
17838,2018-06-29 08:54:09.437500,-13.27,48.1
17839,2018-06-29 08:54:09.468750,-18.64,48.1
17840,2018-06-29 08:54:09.500000,-25.48,48.1
17841,2018-06-29 08:54:09.531250,-35.02,48.08
17842,2018-06-29 08:54:09.562500,-44.54,48.08
17843,2018-06-29 08:54:09.593750,-48.02,48.08
17844,2018-06-29 08:54:09.625000,-41.75,48.08
17845,2018-06-29 08:54:09.656250,-28.51,48.08
17846,2018-06-29 08:54:09.687500,-14.64,48.08
17847,2018-06-29 08:54:09.718750,-4.02,48.08
17848,2018-06-29 08:54:09.750000,3.58,48.08
17849,2018-06-29 08:54:09.781250,9.14,48.08
17850,2018-06-29 08:54:09.812500,12.56,48.08
17851,2018-06-29 08:54:09.843750,14.16,48.08
17852,2018-06-29 08:54:09.875000,15.1,48.08
17853,2018-06-29 08:54:09.906250,15.85,48.08
17854,2018-06-29 08:54:09.937500,16.39,48.08
17855,2018-06-29 08:54:09.968750,17.68,48.08
17856,2018-06-29 08:54:10.000000,20.32,48.08
17857,2018-06-29 08:54:10.031250,22.49,48.08
17858,2018-06-29 08:54:10.062500,22.05,48.08
17859,2018-06-29 08:54:10.093750,20.02,48.08
17860,2018-06-29 08:54:10.125000,19.07,48.08
17861,2018-06-29 08:54:10.156250,19.62,48.08
17862,2018-06-29 08:54:10.187500,20.06,48.08
17863,2018-06-29 08:54:10.218750,19.71,48.08
17864,2018-06-29 08:54:10.250000,18.84,48.08
17865,2018-06-29 08:54:10.281250,17.29,48.08
17866,2018-06-29 08:54:10.312500,14.75,48.08
17867,2018-06-29 08:54:10.343750,11.39,48.08
17868,2018-06-29 08:54:10.375000,7.57,48.08
17869,2018-06-29 08:54:10.406250,3.44,48.08
17870,2018-06-29 08:54:10.437500,-0.94,48.08
17871,2018-06-29 08:54:10.468750,-5.6,48.08
17872,2018-06-29 08:54:10.500000,-10.36,48.08
17873,2018-06-29 08:54:10.531250,-14.87,48.05
17874,2018-06-29 08:54:10.562500,-19.82,48.05
17875,2018-06-29 08:54:10.593750,-26.57,48.05
17876,2018-06-29 08:54:10.625000,-35.45,48.05
17877,2018-06-29 08:54:10.656250,-45.52,48.05
17878,2018-06-29 08:54:10.687500,-53.99,48.05
17879,2018-06-29 08:54:10.718750,-55.25,48.05
17880,2018-06-29 08:54:10.750000,-45.69,48.05
17881,2018-06-29 08:54:10.781250,-29.61,48.05
17882,2018-06-29 08:54:10.812500,-14.51,48.05
17883,2018-06-29 08:54:10.843750,-2.93,48.05
17884,2018-06-29 08:54:10.875000,6.19,48.05
17885,2018-06-29 08:54:10.906250,12.6,48.05
17886,2018-06-29 08:54:10.937500,16.14,48.05
17887,2018-06-29 08:54:10.968750,18.46,48.05
17888,2018-06-29 08:54:11.000000,21.06,48.05
17889,2018-06-29 08:54:11.031250,23.96,48.05
17890,2018-06-29 08:54:11.062500,26.58,48.05
17891,2018-06-29 08:54:11.093750,28.57,48.05
17892,2018-06-29 08:54:11.125000,30.05,48.05
17893,2018-06-29 08:54:11.156250,30.74,48.05
17894,2018-06-29 08:54:11.187500,29.76,48.05
17895,2018-06-29 08:54:11.218750,27.26,48.05
17896,2018-06-29 08:54:11.250000,25.04,48.05
17897,2018-06-29 08:54:11.281250,23.66,48.05
17898,2018-06-29 08:54:11.312500,21.87,48.05
17899,2018-06-29 08:54:11.343750,19.57,48.05
17900,2018-06-29 08:54:11.375000,18.02,48.05
17901,2018-06-29 08:54:11.406250,17.04,48.05
17902,2018-06-29 08:54:11.437500,14.79,48.05
17903,2018-06-29 08:54:11.468750,10.98,48.05
17904,2018-06-29 08:54:11.500000,7.24,48.05
17905,2018-06-29 08:54:11.531250,4.58,48.03
17906,2018-06-29 08:54:11.562500,1.91,48.03
17907,2018-06-29 08:54:11.593750,-2.42,48.03
17908,2018-06-29 08:54:11.625000,-8.68,48.03
17909,2018-06-29 08:54:11.656250,-16.29,48.03
17910,2018-06-29 08:54:11.687500,-25.19,48.03
17911,2018-06-29 08:54:11.718750,-36.5,48.03
17912,2018-06-29 08:54:11.750000,-49.11,48.03
17913,2018-06-29 08:54:11.781250,-60.3,48.03
17914,2018-06-29 08:54:11.812500,-67.0,48.03
17915,2018-06-29 08:54:11.843750,-68.91,48.03
17916,2018-06-29 08:54:11.875000,-70.0,48.03
17917,2018-06-29 08:54:11.906250,-74.26,48.03
17918,2018-06-29 08:54:11.937500,-81.66,48.03
17919,2018-06-29 08:54:11.968750,-86.01,48.03
17920,2018-06-29 08:54:12.000000,-83.93,48.03
17921,2018-06-29 08:54:12.031250,-72.64,48.03
17922,2018-06-29 08:54:12.062500,-50.95,48.03
17923,2018-06-29 08:54:12.093750,-18.7,48.03
17924,2018-06-29 08:54:12.125000,21.35,48.03
17925,2018-06-29 08:54:12.156250,61.49,48.03
17926,2018-06-29 08:54:12.187500,91.81,48.03
17927,2018-06-29 08:54:12.218750,90.24,48.03
17928,2018-06-29 08:54:12.250000,72.89,48.03
17929,2018-06-29 08:54:12.281250,71.59,48.03
17930,2018-06-29 08:54:12.312500,75.49,48.03
17931,2018-06-29 08:54:12.343750,73.1,48.03
17932,2018-06-29 08:54:12.375000,59.94,48.03
17933,2018-06-29 08:54:12.406250,39.42,48.03
17934,2018-06-29 08:54:12.437500,15.98,48.03
17935,2018-06-29 08:54:12.468750,-0.88,48.03
17936,2018-06-29 08:54:12.500000,-6.83,48.03
17937,2018-06-29 08:54:12.531250,-4.0,47.98
17938,2018-06-29 08:54:12.562500,-1.21,47.98
17939,2018-06-29 08:54:12.593750,-2.69,47.98
17940,2018-06-29 08:54:12.625000,-5.23,47.98
17941,2018-06-29 08:54:12.656250,-0.43,47.98
17942,2018-06-29 08:54:12.687500,18.18,47.98
17943,2018-06-29 08:54:12.718750,47.99,47.98
17944,2018-06-29 08:54:12.750000,79.54,47.98
17945,2018-06-29 08:54:12.781250,102.52,47.98
17946,2018-06-29 08:54:12.812500,113.9,47.98
17947,2018-06-29 08:54:12.843750,114.65,47.98
17948,2018-06-29 08:54:12.875000,108.77,47.98
17949,2018-06-29 08:54:12.906250,104.44,47.98
17950,2018-06-29 08:54:12.937500,108.6,47.98
17951,2018-06-29 08:54:12.968750,117.37,47.98
17952,2018-06-29 08:54:13.000000,118.45,47.98
17953,2018-06-29 08:54:13.031250,105.11,47.98
17954,2018-06-29 08:54:13.062500,82.94,47.98
17955,2018-06-29 08:54:13.093750,64.13,47.98
17956,2018-06-29 08:54:13.125000,54.42,47.98
17957,2018-06-29 08:54:13.156250,46.32,47.98
17958,2018-06-29 08:54:13.187500,28.98,47.98
17959,2018-06-29 08:54:13.218750,2.23,47.98
17960,2018-06-29 08:54:13.250000,-26.83,47.98
17961,2018-06-29 08:54:13.281250,-55.6,47.98
17962,2018-06-29 08:54:13.312500,-83.88,47.98
17963,2018-06-29 08:54:13.343750,-107.76,47.98
17964,2018-06-29 08:54:13.375000,-124.29,47.98
17965,2018-06-29 08:54:13.406250,-135.25,47.98
17966,2018-06-29 08:54:13.437500,-141.65,47.98
17967,2018-06-29 08:54:13.468750,-141.52,47.98
17968,2018-06-29 08:54:13.500000,-135.48,47.98
17969,2018-06-29 08:54:13.531250,-128.35,47.93
17970,2018-06-29 08:54:13.562500,-123.44,47.93
17971,2018-06-29 08:54:13.593750,-118.01,47.93
17972,2018-06-29 08:54:13.625000,-105.26,47.93
17973,2018-06-29 08:54:13.656250,-81.41,47.93
17974,2018-06-29 08:54:13.687500,-50.54,47.93
17975,2018-06-29 08:54:13.718750,-20.54,47.93
17976,2018-06-29 08:54:13.750000,4.56,47.93
17977,2018-06-29 08:54:13.781250,24.8,47.93
17978,2018-06-29 08:54:13.812500,39.54,47.93
17979,2018-06-29 08:54:13.843750,46.69,47.93
17980,2018-06-29 08:54:13.875000,46.16,47.93
17981,2018-06-29 08:54:13.906250,41.17,47.93
17982,2018-06-29 08:54:13.937500,36.02,47.93
17983,2018-06-29 08:54:13.968750,33.14,47.93
17984,2018-06-29 08:54:14.000000,32.26,47.93
17985,2018-06-29 08:54:14.031250,31.9,47.93
17986,2018-06-29 08:54:14.062500,30.76,47.93
17987,2018-06-29 08:54:14.093750,27.57,47.93
17988,2018-06-29 08:54:14.125000,22.27,47.93
17989,2018-06-29 08:54:14.156250,16.71,47.93
17990,2018-06-29 08:54:14.187500,11.99,47.93
17991,2018-06-29 08:54:14.218750,6.87,47.93
17992,2018-06-29 08:54:14.250000,0.35,47.93
17993,2018-06-29 08:54:14.281250,-6.37,47.93
17994,2018-06-29 08:54:14.312500,-11.63,47.93
17995,2018-06-29 08:54:14.343750,-15.3,47.93
17996,2018-06-29 08:54:14.375000,-18.45,47.93
17997,2018-06-29 08:54:14.406250,-21.55,47.93
17998,2018-06-29 08:54:14.437500,-23.85,47.93
17999,2018-06-29 08:54:14.468750,-24.8,47.93
18000,2018-06-29 08:54:14.500000,-25.39,47.93
18001,2018-06-29 08:54:14.531250,-26.67,47.85
18002,2018-06-29 08:54:14.562500,-28.23,47.85
18003,2018-06-29 08:54:14.593750,-29.7,47.85
18004,2018-06-29 08:54:14.625000,-32.11,47.85
18005,2018-06-29 08:54:14.656250,-36.67,47.85
18006,2018-06-29 08:54:14.687500,-42.95,47.85
18007,2018-06-29 08:54:14.718750,-47.8,47.85
18008,2018-06-29 08:54:14.750000,-46.63,47.85
18009,2018-06-29 08:54:14.781250,-37.75,47.85
18010,2018-06-29 08:54:14.812500,-24.64,47.85
18011,2018-06-29 08:54:14.843750,-11.95,47.85
18012,2018-06-29 08:54:14.875000,-1.85,47.85
18013,2018-06-29 08:54:14.906250,5.45,47.85
18014,2018-06-29 08:54:14.937500,10.41,47.85
18015,2018-06-29 08:54:14.968750,13.74,47.85
18016,2018-06-29 08:54:15.000000,15.61,47.85
18017,2018-06-29 08:54:15.031250,16.22,47.85
18018,2018-06-29 08:54:15.062500,16.57,47.85
18019,2018-06-29 08:54:15.093750,17.33,47.85
18020,2018-06-29 08:54:15.125000,18.47,47.85
18021,2018-06-29 08:54:15.156250,20.04,47.85
18022,2018-06-29 08:54:15.187500,21.25,47.85
18023,2018-06-29 08:54:15.218750,20.27,47.85
18024,2018-06-29 08:54:15.250000,16.76,47.85
18025,2018-06-29 08:54:15.281250,12.76,47.85
18026,2018-06-29 08:54:15.312500,9.66,47.85
18027,2018-06-29 08:54:15.343750,6.9,47.85
18028,2018-06-29 08:54:15.375000,3.74,47.85
18029,2018-06-29 08:54:15.406250,0.09,47.85
18030,2018-06-29 08:54:15.437500,-3.81,47.85
18031,2018-06-29 08:54:15.468750,-7.35,47.85
18032,2018-06-29 08:54:15.500000,-10.47,47.85
18033,2018-06-29 08:54:15.531250,-13.96,47.77
18034,2018-06-29 08:54:15.562500,-17.95,47.77
18035,2018-06-29 08:54:15.593750,-21.66,47.77
18036,2018-06-29 08:54:15.625000,-24.89,47.77
18037,2018-06-29 08:54:15.656250,-28.39,47.77
18038,2018-06-29 08:54:15.687500,-32.98,47.77
18039,2018-06-29 08:54:15.718750,-37.69,47.77
18040,2018-06-29 08:54:15.750000,-38.46,47.77
18041,2018-06-29 08:54:15.781250,-31.38,47.77
18042,2018-06-29 08:54:15.812500,-17.91,47.77
18043,2018-06-29 08:54:15.843750,-3.89,47.77
18044,2018-06-29 08:54:15.875000,6.6,47.77
18045,2018-06-29 08:54:15.906250,13.14,47.77
18046,2018-06-29 08:54:15.937500,16.27,47.77
18047,2018-06-29 08:54:15.968750,16.72,47.77
18048,2018-06-29 08:54:16.000000,16.46,47.77
18049,2018-06-29 08:54:16.031250,17.69,47.77
18050,2018-06-29 08:54:16.062500,20.85,47.77
18051,2018-06-29 08:54:16.093750,24.38,47.77
18052,2018-06-29 08:54:16.125000,26.3,47.77
18053,2018-06-29 08:54:16.156250,26.24,47.77
18054,2018-06-29 08:54:16.187500,24.85,47.77
18055,2018-06-29 08:54:16.218750,21.87,47.77
18056,2018-06-29 08:54:16.250000,17.06,47.77
18057,2018-06-29 08:54:16.281250,12.01,47.77
18058,2018-06-29 08:54:16.312500,8.31,47.77
18059,2018-06-29 08:54:16.343750,5.2,47.77
18060,2018-06-29 08:54:16.375000,1.57,47.77
18061,2018-06-29 08:54:16.406250,-2.1,47.77
18062,2018-06-29 08:54:16.437500,-5.54,47.77
18063,2018-06-29 08:54:16.468750,-9.61,47.77
18064,2018-06-29 08:54:16.500000,-14.25,47.77
18065,2018-06-29 08:54:16.531250,-18.22,47.72
18066,2018-06-29 08:54:16.562500,-21.67,47.72
18067,2018-06-29 08:54:16.593750,-26.86,47.72
18068,2018-06-29 08:54:16.625000,-34.88,47.72
18069,2018-06-29 08:54:16.656250,-43.25,47.72
18070,2018-06-29 08:54:16.687500,-46.99,47.72
18071,2018-06-29 08:54:16.718750,-42.32,47.72
18072,2018-06-29 08:54:16.750000,-30.24,47.72
18073,2018-06-29 08:54:16.781250,-16.24,47.72
18074,2018-06-29 08:54:16.812500,-5.3,47.72
18075,2018-06-29 08:54:16.843750,1.92,47.72
18076,2018-06-29 08:54:16.875000,7.14,47.72
18077,2018-06-29 08:54:16.906250,10.86,47.72
18078,2018-06-29 08:54:16.937500,12.53,47.72
18079,2018-06-29 08:54:16.968750,12.5,47.72
18080,2018-06-29 08:54:17.000000,12.24,47.72
18081,2018-06-29 08:54:17.031250,13.14,47.72
18082,2018-06-29 08:54:17.062500,15.44,47.72
18083,2018-06-29 08:54:17.093750,18.21,47.72
18084,2018-06-29 08:54:17.125000,20.25,47.72
18085,2018-06-29 08:54:17.156250,20.85,47.72
18086,2018-06-29 08:54:17.187500,20.11,47.72
18087,2018-06-29 08:54:17.218750,18.76,47.72
18088,2018-06-29 08:54:17.250000,17.47,47.72
18089,2018-06-29 08:54:17.281250,16.03,47.72
18090,2018-06-29 08:54:17.312500,14.03,47.72
18091,2018-06-29 08:54:17.343750,11.98,47.72
18092,2018-06-29 08:54:17.375000,10.27,47.72
18093,2018-06-29 08:54:17.406250,8.08,47.72
18094,2018-06-29 08:54:17.437500,4.68,47.72
18095,2018-06-29 08:54:17.468750,0.77,47.72
18096,2018-06-29 08:54:17.500000,-2.88,47.72
18097,2018-06-29 08:54:17.531250,-6.9,47.67
18098,2018-06-29 08:54:17.562500,-11.88,47.67
18099,2018-06-29 08:54:17.593750,-17.16,47.67
18100,2018-06-29 08:54:17.625000,-21.97,47.67
18101,2018-06-29 08:54:17.656250,-26.6,47.67
18102,2018-06-29 08:54:17.687500,-32.24,47.67
18103,2018-06-29 08:54:17.718750,-40.18,47.67
18104,2018-06-29 08:54:17.750000,-49.01,47.67
18105,2018-06-29 08:54:17.781250,-52.74,47.67
18106,2018-06-29 08:54:17.812500,-45.85,47.67
18107,2018-06-29 08:54:17.843750,-30.22,47.67
18108,2018-06-29 08:54:17.875000,-13.28,47.67
18109,2018-06-29 08:54:17.906250,-0.58,47.67
18110,2018-06-29 08:54:17.937500,7.27,47.67
18111,2018-06-29 08:54:17.968750,11.81,47.67
18112,2018-06-29 08:54:18.000000,14.08,47.67
18113,2018-06-29 08:54:18.031250,15.0,47.67
18114,2018-06-29 08:54:18.062500,15.93,47.67
18115,2018-06-29 08:54:18.093750,17.26,47.67
18116,2018-06-29 08:54:18.125000,18.36,47.67
18117,2018-06-29 08:54:18.156250,19.27,47.67
18118,2018-06-29 08:54:18.187500,20.3,47.67
18119,2018-06-29 08:54:18.218750,20.82,47.67
18120,2018-06-29 08:54:18.250000,20.64,47.67
18121,2018-06-29 08:54:18.281250,20.37,47.67
18122,2018-06-29 08:54:18.312500,19.85,47.67
18123,2018-06-29 08:54:18.343750,18.54,47.67
18124,2018-06-29 08:54:18.375000,17.15,47.67
18125,2018-06-29 08:54:18.406250,16.43,47.67
18126,2018-06-29 08:54:18.437500,15.65,47.67
18127,2018-06-29 08:54:18.468750,14.12,47.67
18128,2018-06-29 08:54:18.500000,12.52,47.67
18129,2018-06-29 08:54:18.531250,11.1,47.62
18130,2018-06-29 08:54:18.562500,9.09,47.62
18131,2018-06-29 08:54:18.593750,6.3,47.62
18132,2018-06-29 08:54:18.625000,3.22,47.62
18133,2018-06-29 08:54:18.656250,-0.05,47.62
18134,2018-06-29 08:54:18.687500,-3.26,47.62
18135,2018-06-29 08:54:18.718750,-5.85,47.62
18136,2018-06-29 08:54:18.750000,-8.85,47.62
18137,2018-06-29 08:54:18.781250,-14.64,47.62
18138,2018-06-29 08:54:18.812500,-23.68,47.62
18139,2018-06-29 08:54:18.843750,-32.08,47.62
18140,2018-06-29 08:54:18.875000,-33.6,47.62
18141,2018-06-29 08:54:18.906250,-25.53,47.62
18142,2018-06-29 08:54:18.937500,-11.74,47.62
18143,2018-06-29 08:54:18.968750,1.6,47.62
18144,2018-06-29 08:54:19.000000,11.52,47.62
18145,2018-06-29 08:54:19.031250,17.69,47.62
18146,2018-06-29 08:54:19.062500,19.68,47.62
18147,2018-06-29 08:54:19.093750,17.98,47.62
18148,2018-06-29 08:54:19.125000,15.23,47.62
18149,2018-06-29 08:54:19.156250,14.07,47.62
18150,2018-06-29 08:54:19.187500,15.11,47.62
18151,2018-06-29 08:54:19.218750,17.53,47.62
18152,2018-06-29 08:54:19.250000,20.0,47.62
18153,2018-06-29 08:54:19.281250,20.99,47.62
18154,2018-06-29 08:54:19.312500,19.98,47.62
18155,2018-06-29 08:54:19.343750,17.7,47.62
18156,2018-06-29 08:54:19.375000,14.96,47.62
18157,2018-06-29 08:54:19.406250,12.0,47.62
18158,2018-06-29 08:54:19.437500,9.04,47.62
18159,2018-06-29 08:54:19.468750,6.41,47.62
18160,2018-06-29 08:54:19.500000,4.28,47.62
18161,2018-06-29 08:54:19.531250,2.63,47.75
18162,2018-06-29 08:54:19.562500,0.91,47.75
18163,2018-06-29 08:54:19.593750,-1.43,47.75
18164,2018-06-29 08:54:19.625000,-4.09,47.75
18165,2018-06-29 08:54:19.656250,-6.75,47.75
18166,2018-06-29 08:54:19.687500,-9.85,47.75
18167,2018-06-29 08:54:19.718750,-13.6,47.75
18168,2018-06-29 08:54:19.750000,-17.58,47.75
18169,2018-06-29 08:54:19.781250,-21.84,47.75
18170,2018-06-29 08:54:19.812500,-27.24,47.75
18171,2018-06-29 08:54:19.843750,-34.85,47.75
18172,2018-06-29 08:54:19.875000,-44.54,47.75
18173,2018-06-29 08:54:19.906250,-52.4,47.75
18174,2018-06-29 08:54:19.937500,-52.0,47.75
18175,2018-06-29 08:54:19.968750,-41.13,47.75
18176,2018-06-29 08:54:20.000000,-24.56,47.75
18177,2018-06-29 08:54:20.031250,-8.72,47.75
18178,2018-06-29 08:54:20.062500,3.23,47.75
18179,2018-06-29 08:54:20.093750,11.24,47.75
18180,2018-06-29 08:54:20.125000,16.33,47.75
18181,2018-06-29 08:54:20.156250,19.33,47.75
18182,2018-06-29 08:54:20.187500,20.69,47.75
18183,2018-06-29 08:54:20.218750,21.53,47.75
18184,2018-06-29 08:54:20.250000,23.32,47.75
18185,2018-06-29 08:54:20.281250,26.28,47.75
18186,2018-06-29 08:54:20.312500,29.24,47.75
18187,2018-06-29 08:54:20.343750,31.02,47.75
18188,2018-06-29 08:54:20.375000,31.22,47.75
18189,2018-06-29 08:54:20.406250,30.09,47.75
18190,2018-06-29 08:54:20.437500,28.2,47.75
18191,2018-06-29 08:54:20.468750,26.23,47.75
18192,2018-06-29 08:54:20.500000,24.52,47.75
18193,2018-06-29 08:54:20.531250,22.92,47.87
18194,2018-06-29 08:54:20.562500,21.16,47.87
18195,2018-06-29 08:54:20.593750,19.1,47.87
18196,2018-06-29 08:54:20.625000,16.6,47.87
18197,2018-06-29 08:54:20.656250,13.53,47.87
18198,2018-06-29 08:54:20.687500,9.84,47.87
18199,2018-06-29 08:54:20.718750,5.66,47.87
18200,2018-06-29 08:54:20.750000,0.86,47.87
18201,2018-06-29 08:54:20.781250,-5.49,47.87
18202,2018-06-29 08:54:20.812500,-13.96,47.87
18203,2018-06-29 08:54:20.843750,-23.0,47.87
18204,2018-06-29 08:54:20.875000,-30.61,47.87
18205,2018-06-29 08:54:20.906250,-37.13,47.87
18206,2018-06-29 08:54:20.937500,-44.84,47.87
18207,2018-06-29 08:54:20.968750,-54.24,47.87
18208,2018-06-29 08:54:21.000000,-61.32,47.87
18209,2018-06-29 08:54:21.031250,-59.84,47.87
18210,2018-06-29 08:54:21.062500,-47.99,47.87
18211,2018-06-29 08:54:21.093750,-30.83,47.87
18212,2018-06-29 08:54:21.125000,-14.84,47.87
18213,2018-06-29 08:54:21.156250,-2.89,47.87
18214,2018-06-29 08:54:21.187500,5.3,47.87
18215,2018-06-29 08:54:21.218750,10.85,47.87
18216,2018-06-29 08:54:21.250000,14.67,47.87
18217,2018-06-29 08:54:21.281250,17.35,47.87
18218,2018-06-29 08:54:21.312500,19.5,47.87
18219,2018-06-29 08:54:21.343750,21.71,47.87
18220,2018-06-29 08:54:21.375000,24.5,47.87
18221,2018-06-29 08:54:21.406250,27.88,47.87
18222,2018-06-29 08:54:21.437500,30.47,47.87
18223,2018-06-29 08:54:21.468750,30.58,47.87
18224,2018-06-29 08:54:21.500000,28.66,47.87
18225,2018-06-29 08:54:21.531250,26.51,47.98
18226,2018-06-29 08:54:21.562500,24.65,47.98
18227,2018-06-29 08:54:21.593750,22.28,47.98
18228,2018-06-29 08:54:21.625000,19.2,47.98
18229,2018-06-29 08:54:21.656250,16.07,47.98
18230,2018-06-29 08:54:21.687500,13.69,47.98
18231,2018-06-29 08:54:21.718750,12.19,47.98
18232,2018-06-29 08:54:21.750000,10.78,47.98
18233,2018-06-29 08:54:21.781250,8.67,47.98
18234,2018-06-29 08:54:21.812500,6.08,47.98
18235,2018-06-29 08:54:21.843750,3.23,47.98
18236,2018-06-29 08:54:21.875000,-1.04,47.98
18237,2018-06-29 08:54:21.906250,-7.47,47.98
18238,2018-06-29 08:54:21.937500,-14.34,47.98
18239,2018-06-29 08:54:21.968750,-19.77,47.98
18240,2018-06-29 08:54:22.000000,-24.41,47.98
18241,2018-06-29 08:54:22.031250,-30.3,47.98
18242,2018-06-29 08:54:22.062500,-38.81,47.98
18243,2018-06-29 08:54:22.093750,-48.74,47.98
18244,2018-06-29 08:54:22.125000,-54.29,47.98
18245,2018-06-29 08:54:22.156250,-48.95,47.98
18246,2018-06-29 08:54:22.187500,-33.43,47.98
18247,2018-06-29 08:54:22.218750,-14.98,47.98
18248,2018-06-29 08:54:22.250000,0.53,47.98
18249,2018-06-29 08:54:22.281250,11.36,47.98
18250,2018-06-29 08:54:22.312500,17.31,47.98
18251,2018-06-29 08:54:22.343750,19.03,47.98
18252,2018-06-29 08:54:22.375000,18.56,47.98
18253,2018-06-29 08:54:22.406250,18.39,47.98
18254,2018-06-29 08:54:22.437500,19.86,47.98
18255,2018-06-29 08:54:22.468750,22.67,47.98
18256,2018-06-29 08:54:22.500000,25.95,47.98
18257,2018-06-29 08:54:22.531250,28.92,48.1
18258,2018-06-29 08:54:22.562500,30.19,48.1
18259,2018-06-29 08:54:22.593750,28.7,48.1
18260,2018-06-29 08:54:22.625000,25.4,48.1
18261,2018-06-29 08:54:22.656250,22.07,48.1
18262,2018-06-29 08:54:22.687500,19.19,48.1
18263,2018-06-29 08:54:22.718750,16.47,48.1
18264,2018-06-29 08:54:22.750000,13.77,48.1
18265,2018-06-29 08:54:22.781250,10.78,48.1
18266,2018-06-29 08:54:22.812500,7.52,48.1
18267,2018-06-29 08:54:22.843750,4.71,48.1
18268,2018-06-29 08:54:22.875000,2.37,48.1
18269,2018-06-29 08:54:22.906250,-0.4,48.1
18270,2018-06-29 08:54:22.937500,-4.1,48.1
18271,2018-06-29 08:54:22.968750,-8.66,48.1
18272,2018-06-29 08:54:23.000000,-13.92,48.1
18273,2018-06-29 08:54:23.031250,-19.01,48.1
18274,2018-06-29 08:54:23.062500,-23.26,48.1
18275,2018-06-29 08:54:23.093750,-27.84,48.1
18276,2018-06-29 08:54:23.125000,-34.47,48.1
18277,2018-06-29 08:54:23.156250,-43.5,48.1
18278,2018-06-29 08:54:23.187500,-53.06,48.1
18279,2018-06-29 08:54:23.218750,-58.03,48.1
18280,2018-06-29 08:54:23.250000,-52.23,48.1
18281,2018-06-29 08:54:23.281250,-35.5,48.1
18282,2018-06-29 08:54:23.312500,-15.66,48.1
18283,2018-06-29 08:54:23.343750,-0.29,48.1
18284,2018-06-29 08:54:23.375000,9.36,48.1
18285,2018-06-29 08:54:23.406250,15.14,48.1
18286,2018-06-29 08:54:23.437500,18.0,48.1
18287,2018-06-29 08:54:23.468750,18.71,48.1
18288,2018-06-29 08:54:23.500000,18.75,48.1
18289,2018-06-29 08:54:23.531250,19.04,48.23
18290,2018-06-29 08:54:23.562500,20.17,48.23
18291,2018-06-29 08:54:23.593750,23.05,48.23
18292,2018-06-29 08:54:23.625000,27.12,48.23
18293,2018-06-29 08:54:23.656250,29.39,48.23
18294,2018-06-29 08:54:23.687500,27.92,48.23
18295,2018-06-29 08:54:23.718750,24.32,48.23
18296,2018-06-29 08:54:23.750000,20.73,48.23
18297,2018-06-29 08:54:23.781250,17.19,48.23
18298,2018-06-29 08:54:23.812500,13.38,48.23
18299,2018-06-29 08:54:23.843750,10.36,48.23
18300,2018-06-29 08:54:23.875000,8.96,48.23
18301,2018-06-29 08:54:23.906250,7.9,48.23
18302,2018-06-29 08:54:23.937500,5.29,48.23
18303,2018-06-29 08:54:23.968750,1.35,48.23
18304,2018-06-29 08:54:24.000000,-2.0,48.23
18305,2018-06-29 08:54:24.031250,-4.18,48.23
18306,2018-06-29 08:54:24.062500,-6.78,48.23
18307,2018-06-29 08:54:24.093750,-11.06,48.23
18308,2018-06-29 08:54:24.125000,-16.57,48.23
18309,2018-06-29 08:54:24.156250,-22.24,48.23
18310,2018-06-29 08:54:24.187500,-27.68,48.23
18311,2018-06-29 08:54:24.218750,-34.05,48.23
18312,2018-06-29 08:54:24.250000,-43.74,48.23
18313,2018-06-29 08:54:24.281250,-57.12,48.23
18314,2018-06-29 08:54:24.312500,-68.29,48.23
18315,2018-06-29 08:54:24.343750,-67.75,48.23
18316,2018-06-29 08:54:24.375000,-52.4,48.23
18317,2018-06-29 08:54:24.406250,-29.58,48.23
18318,2018-06-29 08:54:24.437500,-8.83,48.23
18319,2018-06-29 08:54:24.468750,6.08,48.23
18320,2018-06-29 08:54:24.500000,15.81,48.23
18321,2018-06-29 08:54:24.531250,21.8,48.35
18322,2018-06-29 08:54:24.562500,25.38,48.35
18323,2018-06-29 08:54:24.593750,27.73,48.35
18324,2018-06-29 08:54:24.625000,30.08,48.35
18325,2018-06-29 08:54:24.656250,33.62,48.35
18326,2018-06-29 08:54:24.687500,37.93,48.35
18327,2018-06-29 08:54:24.718750,41.18,48.35
18328,2018-06-29 08:54:24.750000,42.5,48.35
18329,2018-06-29 08:54:24.781250,41.87,48.35
18330,2018-06-29 08:54:24.812500,38.93,48.35
18331,2018-06-29 08:54:24.843750,34.35,48.35
18332,2018-06-29 08:54:24.875000,30.07,48.35
18333,2018-06-29 08:54:24.906250,27.01,48.35
18334,2018-06-29 08:54:24.937500,24.43,48.35
18335,2018-06-29 08:54:24.968750,21.48,48.35
18336,2018-06-29 08:54:25.000000,17.99,48.35
18337,2018-06-29 08:54:25.031250,14.45,48.35
18338,2018-06-29 08:54:25.062500,11.57,48.35
18339,2018-06-29 08:54:25.093750,8.92,48.35
18340,2018-06-29 08:54:25.125000,5.18,48.35
18341,2018-06-29 08:54:25.156250,0.3,48.35
18342,2018-06-29 08:54:25.187500,-4.78,48.35
18343,2018-06-29 08:54:25.218750,-9.9,48.35
18344,2018-06-29 08:54:25.250000,-15.78,48.35
18345,2018-06-29 08:54:25.281250,-22.69,48.35
18346,2018-06-29 08:54:25.312500,-30.1,48.35
18347,2018-06-29 08:54:25.343750,-37.21,48.35
18348,2018-06-29 08:54:25.375000,-43.8,48.35
18349,2018-06-29 08:54:25.406250,-51.48,48.35
18350,2018-06-29 08:54:25.437500,-62.42,48.35
18351,2018-06-29 08:54:25.468750,-74.8,48.35
18352,2018-06-29 08:54:25.500000,-80.38,48.35
18353,2018-06-29 08:54:25.531250,-71.06,48.45
18354,2018-06-29 08:54:25.562500,-48.58,48.45
18355,2018-06-29 08:54:25.593750,-23.19,48.45
18356,2018-06-29 08:54:25.625000,-2.77,48.45
18357,2018-06-29 08:54:25.656250,11.52,48.45
18358,2018-06-29 08:54:25.687500,20.6,48.45
18359,2018-06-29 08:54:25.718750,24.88,48.45
18360,2018-06-29 08:54:25.750000,26.09,48.45
18361,2018-06-29 08:54:25.781250,27.33,48.45
18362,2018-06-29 08:54:25.812500,30.24,48.45
18363,2018-06-29 08:54:25.843750,34.47,48.45
18364,2018-06-29 08:54:25.875000,39.33,48.45
18365,2018-06-29 08:54:25.906250,43.84,48.45
18366,2018-06-29 08:54:25.937500,46.14,48.45
18367,2018-06-29 08:54:25.968750,45.12,48.45
18368,2018-06-29 08:54:26.000000,41.72,48.45
18369,2018-06-29 08:54:26.031250,37.7,48.45
18370,2018-06-29 08:54:26.062500,34.21,48.45
18371,2018-06-29 08:54:26.093750,31.34,48.45
18372,2018-06-29 08:54:26.125000,28.26,48.45
18373,2018-06-29 08:54:26.156250,24.39,48.45
18374,2018-06-29 08:54:26.187500,20.4,48.45
18375,2018-06-29 08:54:26.218750,17.41,48.45
18376,2018-06-29 08:54:26.250000,15.17,48.45
18377,2018-06-29 08:54:26.281250,11.7,48.45
18378,2018-06-29 08:54:26.312500,5.19,48.45
18379,2018-06-29 08:54:26.343750,-3.35,48.45
18380,2018-06-29 08:54:26.375000,-10.31,48.45
18381,2018-06-29 08:54:26.406250,-13.81,48.45
18382,2018-06-29 08:54:26.437500,-16.15,48.45
18383,2018-06-29 08:54:26.468750,-20.44,48.45
18384,2018-06-29 08:54:26.500000,-26.74,48.45
18385,2018-06-29 08:54:26.531250,-33.54,48.53
18386,2018-06-29 08:54:26.562500,-40.99,48.53
18387,2018-06-29 08:54:26.593750,-50.88,48.53
18388,2018-06-29 08:54:26.625000,-63.53,48.53
18389,2018-06-29 08:54:26.656250,-74.2,48.53
18390,2018-06-29 08:54:26.687500,-74.24,48.53
18391,2018-06-29 08:54:26.718750,-59.07,48.53
18392,2018-06-29 08:54:26.750000,-33.91,48.53
18393,2018-06-29 08:54:26.781250,-8.8,48.53
18394,2018-06-29 08:54:26.812500,9.93,48.53
18395,2018-06-29 08:54:26.843750,21.49,48.53
18396,2018-06-29 08:54:26.875000,27.26,48.53
18397,2018-06-29 08:54:26.906250,29.1,48.53
18398,2018-06-29 08:54:26.937500,29.71,48.53
18399,2018-06-29 08:54:26.968750,31.83,48.53
18400,2018-06-29 08:54:27.000000,36.33,48.53
18401,2018-06-29 08:54:27.031250,41.42,48.53
18402,2018-06-29 08:54:27.062500,44.66,48.53
18403,2018-06-29 08:54:27.093750,45.36,48.53
18404,2018-06-29 08:54:27.125000,44.37,48.53
18405,2018-06-29 08:54:27.156250,42.22,48.53
18406,2018-06-29 08:54:27.187500,38.71,48.53
18407,2018-06-29 08:54:27.218750,34.02,48.53
18408,2018-06-29 08:54:27.250000,28.93,48.53
18409,2018-06-29 08:54:27.281250,23.72,48.53
18410,2018-06-29 08:54:27.312500,18.4,48.53
18411,2018-06-29 08:54:27.343750,13.79,48.53
18412,2018-06-29 08:54:27.375000,10.08,48.53
18413,2018-06-29 08:54:27.406250,5.7,48.53
18414,2018-06-29 08:54:27.437500,0.24,48.53
18415,2018-06-29 08:54:27.468750,-4.32,48.53
18416,2018-06-29 08:54:27.500000,-7.72,48.53
18417,2018-06-29 08:54:27.531250,-12.89,48.6
18418,2018-06-29 08:54:27.562500,-21.21,48.6
18419,2018-06-29 08:54:27.593750,-30.08,48.6
18420,2018-06-29 08:54:27.625000,-37.19,48.6
18421,2018-06-29 08:54:27.656250,-44.2,48.6
18422,2018-06-29 08:54:27.687500,-54.22,48.6
18423,2018-06-29 08:54:27.718750,-67.1,48.6
18424,2018-06-29 08:54:27.750000,-77.1,48.6
18425,2018-06-29 08:54:27.781250,-75.47,48.6
18426,2018-06-29 08:54:27.812500,-58.46,48.6
18427,2018-06-29 08:54:27.843750,-32.5,48.6
18428,2018-06-29 08:54:27.875000,-8.32,48.6
18429,2018-06-29 08:54:27.906250,8.9,48.6
18430,2018-06-29 08:54:27.937500,20.09,48.6
18431,2018-06-29 08:54:27.968750,26.56,48.6
18432,2018-06-29 08:54:28.000000,28.95,48.6
18433,2018-06-29 08:54:28.031250,29.57,48.6
18434,2018-06-29 08:54:28.062500,31.71,48.6
18435,2018-06-29 08:54:28.093750,36.41,48.6
18436,2018-06-29 08:54:28.125000,41.97,48.6
18437,2018-06-29 08:54:28.156250,46.38,48.6
18438,2018-06-29 08:54:28.187500,48.53,48.6
18439,2018-06-29 08:54:28.218750,47.63,48.6
18440,2018-06-29 08:54:28.250000,43.6,48.6
18441,2018-06-29 08:54:28.281250,38.0,48.6
18442,2018-06-29 08:54:28.312500,32.57,48.6
18443,2018-06-29 08:54:28.343750,27.42,48.6
18444,2018-06-29 08:54:28.375000,22.27,48.6
18445,2018-06-29 08:54:28.406250,17.62,48.6
18446,2018-06-29 08:54:28.437500,13.55,48.6
18447,2018-06-29 08:54:28.468750,8.93,48.6
18448,2018-06-29 08:54:28.500000,3.09,48.6
18449,2018-06-29 08:54:28.531250,-3.06,48.67
18450,2018-06-29 08:54:28.562500,-8.93,48.67
18451,2018-06-29 08:54:28.593750,-15.76,48.67
18452,2018-06-29 08:54:28.625000,-24.48,48.67
18453,2018-06-29 08:54:28.656250,-34.08,48.67
18454,2018-06-29 08:54:28.687500,-43.54,48.67
18455,2018-06-29 08:54:28.718750,-53.17,48.67
18456,2018-06-29 08:54:28.750000,-63.99,48.67
18457,2018-06-29 08:54:28.781250,-77.34,48.67
18458,2018-06-29 08:54:28.812500,-92.52,48.67
18459,2018-06-29 08:54:28.843750,-102.46,48.67
18460,2018-06-29 08:54:28.875000,-97.41,48.67
18461,2018-06-29 08:54:28.906250,-76.34,48.67
18462,2018-06-29 08:54:28.937500,-49.27,48.67
18463,2018-06-29 08:54:28.968750,-25.89,48.67
18464,2018-06-29 08:54:29.000000,-8.0,48.67
18465,2018-06-29 08:54:29.031250,5.36,48.67
18466,2018-06-29 08:54:29.062500,13.05,48.67
18467,2018-06-29 08:54:29.093750,14.91,48.67
18468,2018-06-29 08:54:29.125000,14.32,48.67
18469,2018-06-29 08:54:29.156250,14.38,48.67
18470,2018-06-29 08:54:29.187500,14.47,48.67
18471,2018-06-29 08:54:29.218750,12.9,48.67
18472,2018-06-29 08:54:29.250000,10.27,48.67
18473,2018-06-29 08:54:29.281250,7.31,48.67
18474,2018-06-29 08:54:29.312500,2.52,48.67
18475,2018-06-29 08:54:29.343750,-5.41,48.67
18476,2018-06-29 08:54:29.375000,-15.8,48.67
18477,2018-06-29 08:54:29.406250,-28.64,48.67
18478,2018-06-29 08:54:29.437500,-45.14,48.67
18479,2018-06-29 08:54:29.468750,-64.52,48.67
18480,2018-06-29 08:54:29.500000,-84.43,48.67
18481,2018-06-29 08:54:29.531250,-104.55,48.75
18482,2018-06-29 08:54:29.562500,-125.38,48.75
18483,2018-06-29 08:54:29.593750,-142.54,48.75
18484,2018-06-29 08:54:29.625000,-147.52,48.75
18485,2018-06-29 08:54:29.656250,-135.88,48.75
18486,2018-06-29 08:54:29.687500,-110.99,48.75
18487,2018-06-29 08:54:29.718750,-79.28,48.75
18488,2018-06-29 08:54:29.750000,-46.22,48.75
18489,2018-06-29 08:54:29.781250,-15.06,48.75
18490,2018-06-29 08:54:29.812500,13.93,48.75
18491,2018-06-29 08:54:29.843750,40.84,48.75
18492,2018-06-29 08:54:29.875000,63.04,48.75
18493,2018-06-29 08:54:29.906250,78.79,48.75
18494,2018-06-29 08:54:29.937500,90.3,48.75
18495,2018-06-29 08:54:29.968750,98.76,48.75
18496,2018-06-29 08:54:30.000000,101.31,48.75
18497,2018-06-29 08:54:30.031250,95.51,48.75
18498,2018-06-29 08:54:30.062500,83.62,48.75
18499,2018-06-29 08:54:30.093750,72.23,48.75
18500,2018-06-29 08:54:30.125000,68.75,48.75
18501,2018-06-29 08:54:30.156250,75.14,48.75
18502,2018-06-29 08:54:30.187500,85.86,48.75
18503,2018-06-29 08:54:30.218750,94.72,48.75
18504,2018-06-29 08:54:30.250000,100.56,48.75
18505,2018-06-29 08:54:30.281250,103.96,48.75
18506,2018-06-29 08:54:30.312500,104.38,48.75
18507,2018-06-29 08:54:30.343750,102.29,48.75
18508,2018-06-29 08:54:30.375000,99.77,48.75
18509,2018-06-29 08:54:30.406250,97.89,48.75
18510,2018-06-29 08:54:30.437500,95.63,48.75
18511,2018-06-29 08:54:30.468750,92.0,48.75
18512,2018-06-29 08:54:30.500000,87.16,48.75
18513,2018-06-29 08:54:30.531250,81.29,48.83
18514,2018-06-29 08:54:30.562500,74.53,48.83
18515,2018-06-29 08:54:30.593750,67.75,48.83
18516,2018-06-29 08:54:30.625000,62.76,48.83
18517,2018-06-29 08:54:30.656250,60.85,48.83
18518,2018-06-29 08:54:30.687500,61.57,48.83
18519,2018-06-29 08:54:30.718750,62.66,48.83
18520,2018-06-29 08:54:30.750000,61.69,48.83
18521,2018-06-29 08:54:30.781250,57.72,48.83
18522,2018-06-29 08:54:30.812500,50.65,48.83
18523,2018-06-29 08:54:30.843750,40.08,48.83
18524,2018-06-29 08:54:30.875000,26.83,48.83
18525,2018-06-29 08:54:30.906250,13.79,48.83
18526,2018-06-29 08:54:30.937500,3.21,48.83
18527,2018-06-29 08:54:30.968750,-5.44,48.83
18528,2018-06-29 08:54:31.000000,-13.49,48.83
18529,2018-06-29 08:54:31.031250,-20.24,48.83
18530,2018-06-29 08:54:31.062500,-23.9,48.83
18531,2018-06-29 08:54:31.093750,-25.62,48.83
18532,2018-06-29 08:54:31.125000,-30.92,48.83
18533,2018-06-29 08:54:31.156250,-44.9,48.83
18534,2018-06-29 08:54:31.187500,-66.86,48.83
18535,2018-06-29 08:54:31.218750,-89.52,48.83
18536,2018-06-29 08:54:31.250000,-101.83,48.83
18537,2018-06-29 08:54:31.281250,-96.18,48.83
18538,2018-06-29 08:54:31.312500,-76.0,48.83
18539,2018-06-29 08:54:31.343750,-52.69,48.83
18540,2018-06-29 08:54:31.375000,-33.99,48.83
18541,2018-06-29 08:54:31.406250,-20.06,48.83
18542,2018-06-29 08:54:31.437500,-10.25,48.83
18543,2018-06-29 08:54:31.468750,-6.09,48.83
18544,2018-06-29 08:54:31.500000,-6.83,48.83
18545,2018-06-29 08:54:31.531250,-7.74,48.92
18546,2018-06-29 08:54:31.562500,-5.24,48.92
18547,2018-06-29 08:54:31.593750,-0.42,48.92
18548,2018-06-29 08:54:31.625000,4.49,48.92
18549,2018-06-29 08:54:31.656250,9.14,48.92
18550,2018-06-29 08:54:31.687500,12.92,48.92
18551,2018-06-29 08:54:31.718750,14.18,48.92
18552,2018-06-29 08:54:31.750000,13.22,48.92
18553,2018-06-29 08:54:31.781250,12.49,48.92
18554,2018-06-29 08:54:31.812500,12.67,48.92
18555,2018-06-29 08:54:31.843750,11.9,48.92
18556,2018-06-29 08:54:31.875000,9.57,48.92
18557,2018-06-29 08:54:31.906250,7.45,48.92
18558,2018-06-29 08:54:31.937500,6.75,48.92
18559,2018-06-29 08:54:31.968750,6.81,48.92
18560,2018-06-29 08:54:32.000000,6.67,48.92
18561,2018-06-29 08:54:32.031250,6.27,48.92
18562,2018-06-29 08:54:32.062500,5.64,48.92
18563,2018-06-29 08:54:32.093750,4.31,48.92
18564,2018-06-29 08:54:32.125000,2.12,48.92
18565,2018-06-29 08:54:32.156250,0.12,48.92
18566,2018-06-29 08:54:32.187500,-0.13,48.92
18567,2018-06-29 08:54:32.218750,0.97,48.92
18568,2018-06-29 08:54:32.250000,-0.22,48.92
18569,2018-06-29 08:54:32.281250,-6.85,48.92
18570,2018-06-29 08:54:32.312500,-17.28,48.92
18571,2018-06-29 08:54:32.343750,-27.9,48.92
18572,2018-06-29 08:54:32.375000,-38.5,48.92
18573,2018-06-29 08:54:32.406250,-51.08,48.92
18574,2018-06-29 08:54:32.437500,-64.59,48.92
18575,2018-06-29 08:54:32.468750,-72.83,48.92
18576,2018-06-29 08:54:32.500000,-68.15,48.92
18577,2018-06-29 08:54:32.531250,-49.39,48.98
18578,2018-06-29 08:54:32.562500,-25.0,48.98
18579,2018-06-29 08:54:32.593750,-5.03,48.98
18580,2018-06-29 08:54:32.625000,6.85,48.98
18581,2018-06-29 08:54:32.656250,11.7,48.98
18582,2018-06-29 08:54:32.687500,11.2,48.98
18583,2018-06-29 08:54:32.718750,8.09,48.98
18584,2018-06-29 08:54:32.750000,6.34,48.98
18585,2018-06-29 08:54:32.781250,8.29,48.98
18586,2018-06-29 08:54:32.812500,12.89,48.98
18587,2018-06-29 08:54:32.843750,17.98,48.98
18588,2018-06-29 08:54:32.875000,22.91,48.98
18589,2018-06-29 08:54:32.906250,26.9,48.98
18590,2018-06-29 08:54:32.937500,27.79,48.98
18591,2018-06-29 08:54:32.968750,25.57,48.98
18592,2018-06-29 08:54:33.000000,23.27,48.98
18593,2018-06-29 08:54:33.031250,22.17,48.98
18594,2018-06-29 08:54:33.062500,20.27,48.98
18595,2018-06-29 08:54:33.093750,16.5,48.98
18596,2018-06-29 08:54:33.125000,12.35,48.98
18597,2018-06-29 08:54:33.156250,8.94,48.98
18598,2018-06-29 08:54:33.187500,5.4,48.98
18599,2018-06-29 08:54:33.218750,0.52,48.98
18600,2018-06-29 08:54:33.250000,-5.58,48.98
18601,2018-06-29 08:54:33.281250,-12.04,48.98
18602,2018-06-29 08:54:33.312500,-18.28,48.98
18603,2018-06-29 08:54:33.343750,-23.57,48.98
18604,2018-06-29 08:54:33.375000,-27.04,48.98
18605,2018-06-29 08:54:33.406250,-29.15,48.98
18606,2018-06-29 08:54:33.437500,-32.22,48.98
18607,2018-06-29 08:54:33.468750,-38.6,48.98
18608,2018-06-29 08:54:33.500000,-48.22,48.98
18609,2018-06-29 08:54:33.531250,-56.63,49.05
18610,2018-06-29 08:54:33.562500,-55.79,49.05
18611,2018-06-29 08:54:33.593750,-41.03,49.05
18612,2018-06-29 08:54:33.625000,-17.3,49.05
18613,2018-06-29 08:54:33.656250,5.36,49.05
18614,2018-06-29 08:54:33.687500,21.61,49.05
18615,2018-06-29 08:54:33.718750,32.3,49.05
18616,2018-06-29 08:54:33.750000,38.47,49.05
18617,2018-06-29 08:54:33.781250,39.3,49.05
18618,2018-06-29 08:54:33.812500,35.3,49.05
18619,2018-06-29 08:54:33.843750,29.72,49.05
18620,2018-06-29 08:54:33.875000,25.78,49.05
18621,2018-06-29 08:54:33.906250,24.28,49.05
18622,2018-06-29 08:54:33.937500,23.94,49.05
18623,2018-06-29 08:54:33.968750,23.06,49.05
18624,2018-06-29 08:54:34.000000,20.53,49.05
18625,2018-06-29 08:54:34.031250,16.54,49.05
18626,2018-06-29 08:54:34.062500,12.03,49.05
18627,2018-06-29 08:54:34.093750,7.5,49.05
18628,2018-06-29 08:54:34.125000,3.28,49.05
18629,2018-06-29 08:54:34.156250,0.01,49.05
18630,2018-06-29 08:54:34.187500,-2.49,49.05
18631,2018-06-29 08:54:34.218750,-4.63,49.05
18632,2018-06-29 08:54:34.250000,-5.89,49.05
18633,2018-06-29 08:54:34.281250,-6.68,49.05
18634,2018-06-29 08:54:34.312500,-9.39,49.05
18635,2018-06-29 08:54:34.343750,-14.64,49.05
18636,2018-06-29 08:54:34.375000,-19.57,49.05
18637,2018-06-29 08:54:34.406250,-22.45,49.05
18638,2018-06-29 08:54:34.437500,-25.59,49.05
18639,2018-06-29 08:54:34.468750,-31.5,49.05
18640,2018-06-29 08:54:34.500000,-39.12,49.05
18641,2018-06-29 08:54:34.531250,-45.66,49.13
18642,2018-06-29 08:54:34.562500,-50.35,49.13
18643,2018-06-29 08:54:34.593750,-55.22,49.13
18644,2018-06-29 08:54:34.625000,-63.45,49.13
18645,2018-06-29 08:54:34.656250,-75.12,49.13
18646,2018-06-29 08:54:34.687500,-83.0,49.13
18647,2018-06-29 08:54:34.718750,-77.1,49.13
18648,2018-06-29 08:54:34.750000,-56.61,49.13
18649,2018-06-29 08:54:34.781250,-32.04,49.13
18650,2018-06-29 08:54:34.812500,-13.04,49.13
18651,2018-06-29 08:54:34.843750,-0.31,49.13
18652,2018-06-29 08:54:34.875000,9.57,49.13
18653,2018-06-29 08:54:34.906250,17.29,49.13
18654,2018-06-29 08:54:34.937500,21.41,49.13
18655,2018-06-29 08:54:34.968750,22.14,49.13
18656,2018-06-29 08:54:35.000000,21.5,49.13
18657,2018-06-29 08:54:35.031250,20.68,49.13
18658,2018-06-29 08:54:35.062500,19.65,49.13
18659,2018-06-29 08:54:35.093750,18.05,49.13
18660,2018-06-29 08:54:35.125000,15.59,49.13
18661,2018-06-29 08:54:35.156250,12.92,49.13
18662,2018-06-29 08:54:35.187500,11.81,49.13
18663,2018-06-29 08:54:35.218750,13.5,49.13
18664,2018-06-29 08:54:35.250000,17.47,49.13
18665,2018-06-29 08:54:35.281250,21.95,49.13
18666,2018-06-29 08:54:35.312500,25.04,49.13
18667,2018-06-29 08:54:35.343750,26.52,49.13
18668,2018-06-29 08:54:35.375000,27.82,49.13
