,Time,ppg,hr
163200,2018-06-29 10:09:52.000000,38.88,72.27
163201,2018-06-29 10:09:52.031250,36.34,72.27
163202,2018-06-29 10:09:52.062500,30.23,72.27
163203,2018-06-29 10:09:52.093750,22.25,72.27
163204,2018-06-29 10:09:52.125000,14.45,72.27
163205,2018-06-29 10:09:52.156250,5.32,72.27
163206,2018-06-29 10:09:52.187500,-7.09,72.27
163207,2018-06-29 10:09:52.218750,-21.48,72.27
163208,2018-06-29 10:09:52.250000,-36.93,72.27
163209,2018-06-29 10:09:52.281250,-56.68,72.27
163210,2018-06-29 10:09:52.312500,-84.88,72.27
163211,2018-06-29 10:09:52.343750,-120.82,72.27
163212,2018-06-29 10:09:52.375000,-155.32,72.27
163213,2018-06-29 10:09:52.406250,-172.87,72.27
163214,2018-06-29 10:09:52.437500,-162.74,72.27
163215,2018-06-29 10:09:52.468750,-129.27,72.27
163216,2018-06-29 10:09:52.500000,-87.08,72.27
163217,2018-06-29 10:09:52.531250,-46.8,72.05
163218,2018-06-29 10:09:52.562500,-9.2,72.05
163219,2018-06-29 10:09:52.593750,28.48,72.05
163220,2018-06-29 10:09:52.625000,66.34,72.05
163221,2018-06-29 10:09:52.656250,102.56,72.05
163222,2018-06-29 10:09:52.687500,138.23,72.05
163223,2018-06-29 10:09:52.718750,176.74,72.05
163224,2018-06-29 10:09:52.750000,215.41,72.05
163225,2018-06-29 10:09:52.781250,242.79,72.05
163226,2018-06-29 10:09:52.812500,249.58,72.05
163227,2018-06-29 10:09:52.843750,237.41,72.05
163228,2018-06-29 10:09:52.875000,213.86,72.05
163229,2018-06-29 10:09:52.906250,186.66,72.05
163230,2018-06-29 10:09:52.937500,165.48,72.05
163231,2018-06-29 10:09:52.968750,158.53,72.05
163232,2018-06-29 10:09:53.000000,162.43,72.05
163233,2018-06-29 10:09:53.031250,164.14,72.05
163234,2018-06-29 10:09:53.062500,153.39,72.05
163235,2018-06-29 10:09:53.093750,124.89,72.05
163236,2018-06-29 10:09:53.125000,74.51,72.05
163237,2018-06-29 10:09:53.156250,4.1,72.05
163238,2018-06-29 10:09:53.187500,-76.65,72.05
163239,2018-06-29 10:09:53.218750,-160.19,72.05
163240,2018-06-29 10:09:53.250000,-240.94,72.05
163241,2018-06-29 10:09:53.281250,-304.06,72.05
163242,2018-06-29 10:09:53.312500,-333.21,72.05
163243,2018-06-29 10:09:53.343750,-327.91,72.05
163244,2018-06-29 10:09:53.375000,-296.51,72.05
163245,2018-06-29 10:09:53.406250,-239.65,72.05
163246,2018-06-29 10:09:53.437500,-157.59,72.05
163247,2018-06-29 10:09:53.468750,-64.16,72.05
163248,2018-06-29 10:09:53.500000,21.62,72.05
163249,2018-06-29 10:09:53.531250,89.7,71.87
163250,2018-06-29 10:09:53.562500,136.86,71.87
163251,2018-06-29 10:09:53.593750,161.57,71.87
163252,2018-06-29 10:09:53.625000,167.94,71.87
163253,2018-06-29 10:09:53.656250,165.85,71.87
163254,2018-06-29 10:09:53.687500,160.5,71.87
163255,2018-06-29 10:09:53.718750,145.8,71.87
163256,2018-06-29 10:09:53.750000,112.62,71.87
163257,2018-06-29 10:09:53.781250,61.2,71.87
163258,2018-06-29 10:09:53.812500,5.22,71.87
163259,2018-06-29 10:09:53.843750,-33.02,71.87
163260,2018-06-29 10:09:53.875000,-37.51,71.87
163261,2018-06-29 10:09:53.906250,-13.31,71.87
163262,2018-06-29 10:09:53.937500,20.79,71.87
163263,2018-06-29 10:09:53.968750,52.31,71.87
163264,2018-06-29 10:09:54.000000,79.9,71.87
163265,2018-06-29 10:09:54.031250,106.85,71.87
163266,2018-06-29 10:09:54.062500,136.51,71.87
163267,2018-06-29 10:09:54.093750,163.07,71.87
163268,2018-06-29 10:09:54.125000,168.07,71.87
163269,2018-06-29 10:09:54.156250,137.12,71.87
163270,2018-06-29 10:09:54.187500,74.88,71.87
163271,2018-06-29 10:09:54.218750,1.5,71.87
163272,2018-06-29 10:09:54.250000,-59.26,71.87
163273,2018-06-29 10:09:54.281250,-94.67,71.87
163274,2018-06-29 10:09:54.312500,-112.42,71.87
163275,2018-06-29 10:09:54.343750,-129.56,71.87
163276,2018-06-29 10:09:54.375000,-154.51,71.87
163277,2018-06-29 10:09:54.406250,-184.51,71.87
163278,2018-06-29 10:09:54.437500,-210.22,71.87
163279,2018-06-29 10:09:54.468750,-217.44,71.87
163280,2018-06-29 10:09:54.500000,-194.93,71.87
163281,2018-06-29 10:09:54.531250,-145.3,71.7
163282,2018-06-29 10:09:54.562500,-84.25,71.7
163283,2018-06-29 10:09:54.593750,-29.76,71.7
163284,2018-06-29 10:09:54.625000,6.36,71.7
163285,2018-06-29 10:09:54.656250,20.12,71.7
163286,2018-06-29 10:09:54.687500,15.05,71.7
163287,2018-06-29 10:09:54.718750,0.89,71.7
163288,2018-06-29 10:09:54.750000,-14.19,71.7
163289,2018-06-29 10:09:54.781250,-30.96,71.7
163290,2018-06-29 10:09:54.812500,-52.68,71.7
163291,2018-06-29 10:09:54.843750,-74.02,71.7
163292,2018-06-29 10:09:54.875000,-84.89,71.7
163293,2018-06-29 10:09:54.906250,-83.57,71.7
163294,2018-06-29 10:09:54.937500,-77.67,71.7
163295,2018-06-29 10:09:54.968750,-71.25,71.7
163296,2018-06-29 10:09:55.000000,-59.52,71.7
163297,2018-06-29 10:09:55.031250,-41.35,71.7
163298,2018-06-29 10:09:55.062500,-26.48,71.7
163299,2018-06-29 10:09:55.093750,-22.93,71.7
163300,2018-06-29 10:09:55.125000,-28.03,71.7
163301,2018-06-29 10:09:55.156250,-37.73,71.7
163302,2018-06-29 10:09:55.187500,-54.17,71.7
163303,2018-06-29 10:09:55.218750,-80.35,71.7
163304,2018-06-29 10:09:55.250000,-111.24,71.7
163305,2018-06-29 10:09:55.281250,-131.27,71.7
163306,2018-06-29 10:09:55.312500,-124.24,71.7
163307,2018-06-29 10:09:55.343750,-91.15,71.7
163308,2018-06-29 10:09:55.375000,-52.77,71.7
163309,2018-06-29 10:09:55.406250,-26.16,71.7
163310,2018-06-29 10:09:55.437500,-3.87,71.7
163311,2018-06-29 10:09:55.468750,33.95,71.7
163312,2018-06-29 10:09:55.500000,89.79,71.7
163313,2018-06-29 10:09:55.531250,143.23,71.53
163314,2018-06-29 10:09:55.562500,175.18,71.53
163315,2018-06-29 10:09:55.593750,185.37,71.53
163316,2018-06-29 10:09:55.625000,185.01,71.53
163317,2018-06-29 10:09:55.656250,183.11,71.53
163318,2018-06-29 10:09:55.687500,183.16,71.53
163319,2018-06-29 10:09:55.718750,183.53,71.53
163320,2018-06-29 10:09:55.750000,176.86,71.53
163321,2018-06-29 10:09:55.781250,156.83,71.53
163322,2018-06-29 10:09:55.812500,129.65,71.53
163323,2018-06-29 10:09:55.843750,110.45,71.53
163324,2018-06-29 10:09:55.875000,105.0,71.53
163325,2018-06-29 10:09:55.906250,103.71,71.53
163326,2018-06-29 10:09:55.937500,95.01,71.53
163327,2018-06-29 10:09:55.968750,76.65,71.53
163328,2018-06-29 10:09:56.000000,53.07,71.53
163329,2018-06-29 10:09:56.031250,26.45,71.53
163330,2018-06-29 10:09:56.062500,-6.16,71.53
163331,2018-06-29 10:09:56.093750,-46.67,71.53
163332,2018-06-29 10:09:56.125000,-91.55,71.53
163333,2018-06-29 10:09:56.156250,-137.35,71.53
163334,2018-06-29 10:09:56.187500,-186.59,71.53
163335,2018-06-29 10:09:56.218750,-245.34,71.53
163336,2018-06-29 10:09:56.250000,-317.85,71.53
163337,2018-06-29 10:09:56.281250,-403.17,71.53
163338,2018-06-29 10:09:56.312500,-490.81,71.53
163339,2018-06-29 10:09:56.343750,-560.77,71.53
163340,2018-06-29 10:09:56.375000,-596.99,71.53
163341,2018-06-29 10:09:56.406250,-597.57,71.53
163342,2018-06-29 10:09:56.437500,-564.14,71.53
163343,2018-06-29 10:09:56.468750,-494.02,71.53
163344,2018-06-29 10:09:56.500000,-393.35,71.53
163345,2018-06-29 10:09:56.531250,-281.66,71.35
163346,2018-06-29 10:09:56.562500,-174.16,71.35
163347,2018-06-29 10:09:56.593750,-72.63,71.35
163348,2018-06-29 10:09:56.625000,25.03,71.35
163349,2018-06-29 10:09:56.656250,116.36,71.35
163350,2018-06-29 10:09:56.687500,192.93,71.35
163351,2018-06-29 10:09:56.718750,242.43,71.35
163352,2018-06-29 10:09:56.750000,255.81,71.35
163353,2018-06-29 10:09:56.781250,236.74,71.35
163354,2018-06-29 10:09:56.812500,204.21,71.35
163355,2018-06-29 10:09:56.843750,180.81,71.35
163356,2018-06-29 10:09:56.875000,170.73,71.35
163357,2018-06-29 10:09:56.906250,157.41,71.35
163358,2018-06-29 10:09:56.937500,131.09,71.35
163359,2018-06-29 10:09:56.968750,103.38,71.35
163360,2018-06-29 10:09:57.000000,86.36,71.35
163361,2018-06-29 10:09:57.031250,76.48,71.35
163362,2018-06-29 10:09:57.062500,66.72,71.35
163363,2018-06-29 10:09:57.093750,56.59,71.35
163364,2018-06-29 10:09:57.125000,45.99,71.35
163365,2018-06-29 10:09:57.156250,32.97,71.35
163366,2018-06-29 10:09:57.187500,19.77,71.35
163367,2018-06-29 10:09:57.218750,11.86,71.35
163368,2018-06-29 10:09:57.250000,7.12,71.35
163369,2018-06-29 10:09:57.281250,-6.13,71.35
163370,2018-06-29 10:09:57.312500,-33.8,71.35
163371,2018-06-29 10:09:57.343750,-64.21,71.35
163372,2018-06-29 10:09:57.375000,-76.38,71.35
163373,2018-06-29 10:09:57.406250,-58.24,71.35
163374,2018-06-29 10:09:57.437500,-15.88,71.35
163375,2018-06-29 10:09:57.468750,33.04,71.35
163376,2018-06-29 10:09:57.500000,73.71,71.35
163377,2018-06-29 10:09:57.531250,101.75,71.12
163378,2018-06-29 10:09:57.562500,119.15,71.12
163379,2018-06-29 10:09:57.593750,127.87,71.12
163380,2018-06-29 10:09:57.625000,129.43,71.12
163381,2018-06-29 10:09:57.656250,127.91,71.12
163382,2018-06-29 10:09:57.687500,128.73,71.12
163383,2018-06-29 10:09:57.718750,132.56,71.12
163384,2018-06-29 10:09:57.750000,134.82,71.12
163385,2018-06-29 10:09:57.781250,132.93,71.12
163386,2018-06-29 10:09:57.812500,128.76,71.12
163387,2018-06-29 10:09:57.843750,123.37,71.12
163388,2018-06-29 10:09:57.875000,115.86,71.12
163389,2018-06-29 10:09:57.906250,106.74,71.12
163390,2018-06-29 10:09:57.937500,97.18,71.12
163391,2018-06-29 10:09:57.968750,86.43,71.12
163392,2018-06-29 10:09:58.000000,73.83,71.12
163393,2018-06-29 10:09:58.031250,61.19,71.12
163394,2018-06-29 10:09:58.062500,50.83,71.12
163395,2018-06-29 10:09:58.093750,42.59,71.12
163396,2018-06-29 10:09:58.125000,33.88,71.12
163397,2018-06-29 10:09:58.156250,22.47,71.12
163398,2018-06-29 10:09:58.187500,9.05,71.12
163399,2018-06-29 10:09:58.218750,-3.5,71.12
163400,2018-06-29 10:09:58.250000,-14.26,71.12
163401,2018-06-29 10:09:58.281250,-26.1,71.12
163402,2018-06-29 10:09:58.312500,-42.33,71.12
163403,2018-06-29 10:09:58.343750,-59.91,71.12
163404,2018-06-29 10:09:58.375000,-66.89,71.12
163405,2018-06-29 10:09:58.406250,-52.28,71.12
163406,2018-06-29 10:09:58.437500,-19.37,71.12
163407,2018-06-29 10:09:58.468750,17.17,71.12
163408,2018-06-29 10:09:58.500000,46.47,71.12
163409,2018-06-29 10:09:58.531250,66.31,70.83
163410,2018-06-29 10:09:58.562500,76.67,70.83
163411,2018-06-29 10:09:58.593750,78.13,70.83
163412,2018-06-29 10:09:58.625000,74.33,70.83
163413,2018-06-29 10:09:58.656250,69.92,70.83
163414,2018-06-29 10:09:58.687500,66.32,70.83
163415,2018-06-29 10:09:58.718750,62.0,70.83
163416,2018-06-29 10:09:58.750000,56.34,70.83
163417,2018-06-29 10:09:58.781250,50.81,70.83
163418,2018-06-29 10:09:58.812500,45.86,70.83
163419,2018-06-29 10:09:58.843750,39.82,70.83
163420,2018-06-29 10:09:58.875000,32.06,70.83
163421,2018-06-29 10:09:58.906250,23.95,70.83
163422,2018-06-29 10:09:58.937500,15.69,70.83
163423,2018-06-29 10:09:58.968750,5.83,70.83
163424,2018-06-29 10:09:59.000000,-5.4,70.83
163425,2018-06-29 10:09:59.031250,-15.21,70.83
163426,2018-06-29 10:09:59.062500,-21.26,70.83
163427,2018-06-29 10:09:59.093750,-24.03,70.83
163428,2018-06-29 10:09:59.125000,-26.58,70.83
163429,2018-06-29 10:09:59.156250,-33.22,70.83
163430,2018-06-29 10:09:59.187500,-45.06,70.83
163431,2018-06-29 10:09:59.218750,-55.69,70.83
163432,2018-06-29 10:09:59.250000,-56.3,70.83
163433,2018-06-29 10:09:59.281250,-45.88,70.83
163434,2018-06-29 10:09:59.312500,-30.91,70.83
163435,2018-06-29 10:09:59.343750,-15.58,70.83
163436,2018-06-29 10:09:59.375000,0.83,70.83
163437,2018-06-29 10:09:59.406250,17.5,70.83
163438,2018-06-29 10:09:59.437500,29.69,70.83
163439,2018-06-29 10:09:59.468750,33.7,70.83
163440,2018-06-29 10:09:59.500000,30.83,70.83
163441,2018-06-29 10:09:59.531250,25.1,70.55
163442,2018-06-29 10:09:59.562500,18.62,70.55
163443,2018-06-29 10:09:59.593750,10.83,70.55
163444,2018-06-29 10:09:59.625000,1.31,70.55
163445,2018-06-29 10:09:59.656250,-9.32,70.55
163446,2018-06-29 10:09:59.687500,-19.89,70.55
163447,2018-06-29 10:09:59.718750,-28.38,70.55
163448,2018-06-29 10:09:59.750000,-32.16,70.55
163449,2018-06-29 10:09:59.781250,-28.77,70.55
163450,2018-06-29 10:09:59.812500,-17.1,70.55
163451,2018-06-29 10:09:59.843750,0.49,70.55
163452,2018-06-29 10:09:59.875000,17.78,70.55
163453,2018-06-29 10:09:59.906250,27.7,70.55
163454,2018-06-29 10:09:59.937500,25.06,70.55
163455,2018-06-29 10:09:59.968750,10.2,70.55
163456,2018-06-29 10:10:00.000000,-6.86,70.55
163457,2018-06-29 10:10:00.031250,-12.58,70.55
163458,2018-06-29 10:10:00.062500,-4.13,70.55
163459,2018-06-29 10:10:00.093750,9.39,70.55
163460,2018-06-29 10:10:00.125000,20.58,70.55
163461,2018-06-29 10:10:00.156250,30.02,70.55
163462,2018-06-29 10:10:00.187500,39.22,70.55
163463,2018-06-29 10:10:00.218750,46.16,70.55
163464,2018-06-29 10:10:00.250000,49.46,70.55
163465,2018-06-29 10:10:00.281250,51.14,70.55
163466,2018-06-29 10:10:00.312500,53.16,70.55
163467,2018-06-29 10:10:00.343750,54.58,70.55
163468,2018-06-29 10:10:00.375000,53.66,70.55
163469,2018-06-29 10:10:00.406250,50.37,70.55
163470,2018-06-29 10:10:00.437500,46.0,70.55
163471,2018-06-29 10:10:00.468750,41.27,70.55
163472,2018-06-29 10:10:00.500000,35.47,70.55
163473,2018-06-29 10:10:00.531250,27.56,70.25
163474,2018-06-29 10:10:00.562500,18.49,70.25
163475,2018-06-29 10:10:00.593750,10.02,70.25
163476,2018-06-29 10:10:00.625000,1.15,70.25
163477,2018-06-29 10:10:00.656250,-11.43,70.25
163478,2018-06-29 10:10:00.687500,-29.21,70.25
163479,2018-06-29 10:10:00.718750,-49.11,70.25
163480,2018-06-29 10:10:00.750000,-62.95,70.25
163481,2018-06-29 10:10:00.781250,-61.49,70.25
163482,2018-06-29 10:10:00.812500,-43.34,70.25
163483,2018-06-29 10:10:00.843750,-17.03,70.25
163484,2018-06-29 10:10:00.875000,8.21,70.25
163485,2018-06-29 10:10:00.906250,29.33,70.25
163486,2018-06-29 10:10:00.937500,45.98,70.25
163487,2018-06-29 10:10:00.968750,56.21,70.25
163488,2018-06-29 10:10:01.000000,58.18,70.25
163489,2018-06-29 10:10:01.031250,53.5,70.25
163490,2018-06-29 10:10:01.062500,46.49,70.25
163491,2018-06-29 10:10:01.093750,39.8,70.25
163492,2018-06-29 10:10:01.125000,32.68,70.25
163493,2018-06-29 10:10:01.156250,24.19,70.25
163494,2018-06-29 10:10:01.187500,14.97,70.25
163495,2018-06-29 10:10:01.218750,5.26,70.25
163496,2018-06-29 10:10:01.250000,-5.48,70.25
163497,2018-06-29 10:10:01.281250,-16.77,70.25
163498,2018-06-29 10:10:01.312500,-26.82,70.25
163499,2018-06-29 10:10:01.343750,-34.4,70.25
163500,2018-06-29 10:10:01.375000,-40.14,70.25
163501,2018-06-29 10:10:01.406250,-46.57,70.25
163502,2018-06-29 10:10:01.437500,-56.0,70.25
163503,2018-06-29 10:10:01.468750,-66.93,70.25
163504,2018-06-29 10:10:01.500000,-72.74,70.25
163505,2018-06-29 10:10:01.531250,-66.16,69.93
163506,2018-06-29 10:10:01.562500,-46.58,69.93
163507,2018-06-29 10:10:01.593750,-21.29,69.93
163508,2018-06-29 10:10:01.625000,2.27,69.93
163509,2018-06-29 10:10:01.656250,21.92,69.93
163510,2018-06-29 10:10:01.687500,37.64,69.93
163511,2018-06-29 10:10:01.718750,47.6,69.93
163512,2018-06-29 10:10:01.750000,50.93,69.93
163513,2018-06-29 10:10:01.781250,50.31,69.93
163514,2018-06-29 10:10:01.812500,48.58,69.93
163515,2018-06-29 10:10:01.843750,45.47,69.93
163516,2018-06-29 10:10:01.875000,40.17,69.93
163517,2018-06-29 10:10:01.906250,33.93,69.93
163518,2018-06-29 10:10:01.937500,27.77,69.93
163519,2018-06-29 10:10:01.968750,21.07,69.93
163520,2018-06-29 10:10:02.000000,13.89,69.93
163521,2018-06-29 10:10:02.031250,7.63,69.93
163522,2018-06-29 10:10:02.062500,2.89,69.93
163523,2018-06-29 10:10:02.093750,-1.24,69.93
163524,2018-06-29 10:10:02.125000,-6.17,69.93
163525,2018-06-29 10:10:02.156250,-12.58,69.93
163526,2018-06-29 10:10:02.187500,-20.21,69.93
163527,2018-06-29 10:10:02.218750,-28.93,69.93
163528,2018-06-29 10:10:02.250000,-38.98,69.93
163529,2018-06-29 10:10:02.281250,-49.42,69.93
163530,2018-06-29 10:10:02.312500,-58.35,69.93
163531,2018-06-29 10:10:02.343750,-65.54,69.93
163532,2018-06-29 10:10:02.375000,-73.05,69.93
163533,2018-06-29 10:10:02.406250,-82.7,69.93
163534,2018-06-29 10:10:02.437500,-92.53,69.93
163535,2018-06-29 10:10:02.468750,-95.18,69.93
163536,2018-06-29 10:10:02.500000,-83.15,69.93
163537,2018-06-29 10:10:02.531250,-57.96,69.58
163538,2018-06-29 10:10:02.562500,-29.72,69.58
163539,2018-06-29 10:10:02.593750,-6.33,69.58
163540,2018-06-29 10:10:02.625000,11.55,69.58
163541,2018-06-29 10:10:02.656250,25.38,69.58
163542,2018-06-29 10:10:02.687500,34.97,69.58
163543,2018-06-29 10:10:02.718750,40.15,69.58
163544,2018-06-29 10:10:02.750000,42.55,69.58
163545,2018-06-29 10:10:02.781250,44.38,69.58
163546,2018-06-29 10:10:02.812500,46.29,69.58
163547,2018-06-29 10:10:02.843750,46.83,69.58
163548,2018-06-29 10:10:02.875000,45.01,69.58
163549,2018-06-29 10:10:02.906250,41.71,69.58
163550,2018-06-29 10:10:02.937500,37.72,69.58
163551,2018-06-29 10:10:02.968750,32.34,69.58
163552,2018-06-29 10:10:03.000000,25.12,69.58
163553,2018-06-29 10:10:03.031250,17.02,69.58
163554,2018-06-29 10:10:03.062500,9.33,69.58
163555,2018-06-29 10:10:03.093750,2.34,69.58
163556,2018-06-29 10:10:03.125000,-5.03,69.58
163557,2018-06-29 10:10:03.156250,-13.58,69.58
163558,2018-06-29 10:10:03.187500,-22.08,69.58
163559,2018-06-29 10:10:03.218750,-28.81,69.58
163560,2018-06-29 10:10:03.250000,-34.51,69.58
163561,2018-06-29 10:10:03.281250,-41.66,69.58
163562,2018-06-29 10:10:03.312500,-51.54,69.58
163563,2018-06-29 10:10:03.343750,-62.42,69.58
163564,2018-06-29 10:10:03.375000,-68.8,69.58
163565,2018-06-29 10:10:03.406250,-63.89,69.58
163566,2018-06-29 10:10:03.437500,-47.02,69.58
163567,2018-06-29 10:10:03.468750,-25.5,69.58
163568,2018-06-29 10:10:03.500000,-6.7,69.58
163569,2018-06-29 10:10:03.531250,7.93,69.23
163570,2018-06-29 10:10:03.562500,19.0,69.23
163571,2018-06-29 10:10:03.593750,25.22,69.23
163572,2018-06-29 10:10:03.625000,25.78,69.23
163573,2018-06-29 10:10:03.656250,22.97,69.23
163574,2018-06-29 10:10:03.687500,20.0,69.23
163575,2018-06-29 10:10:03.718750,18.36,69.23
163576,2018-06-29 10:10:03.750000,18.82,69.23
163577,2018-06-29 10:10:03.781250,23.17,69.23
163578,2018-06-29 10:10:03.812500,32.07,69.23
163579,2018-06-29 10:10:03.843750,42.23,69.23
163580,2018-06-29 10:10:03.875000,48.89,69.23
163581,2018-06-29 10:10:03.906250,50.23,69.23
163582,2018-06-29 10:10:03.937500,47.27,69.23
163583,2018-06-29 10:10:03.968750,40.82,69.23
163584,2018-06-29 10:10:04.000000,30.58,69.23
163585,2018-06-29 10:10:04.031250,17.05,69.23
163586,2018-06-29 10:10:04.062500,2.62,69.23
163587,2018-06-29 10:10:04.093750,-9.7,69.23
163588,2018-06-29 10:10:04.125000,-18.63,69.23
163589,2018-06-29 10:10:04.156250,-25.51,69.23
163590,2018-06-29 10:10:04.187500,-32.2,69.23
163591,2018-06-29 10:10:04.218750,-38.5,69.23
163592,2018-06-29 10:10:04.250000,-42.45,69.23
163593,2018-06-29 10:10:04.281250,-43.09,69.23
163594,2018-06-29 10:10:04.312500,-42.35,69.23
163595,2018-06-29 10:10:04.343750,-43.75,69.23
163596,2018-06-29 10:10:04.375000,-49.15,69.23
163597,2018-06-29 10:10:04.406250,-55.67,69.23
163598,2018-06-29 10:10:04.437500,-56.38,69.23
163599,2018-06-29 10:10:04.468750,-46.52,69.23
163600,2018-06-29 10:10:04.500000,-29.05,69.23
163601,2018-06-29 10:10:04.531250,-11.16,68.8
163602,2018-06-29 10:10:04.562500,3.84,68.8
163603,2018-06-29 10:10:04.593750,17.14,68.8
163604,2018-06-29 10:10:04.625000,29.06,68.8
163605,2018-06-29 10:10:04.656250,37.71,68.8
163606,2018-06-29 10:10:04.687500,41.99,68.8
163607,2018-06-29 10:10:04.718750,42.77,68.8
163608,2018-06-29 10:10:04.750000,41.72,68.8
163609,2018-06-29 10:10:04.781250,40.45,68.8
163610,2018-06-29 10:10:04.812500,39.53,68.8
163611,2018-06-29 10:10:04.843750,38.09,68.8
163612,2018-06-29 10:10:04.875000,35.14,68.8
163613,2018-06-29 10:10:04.906250,30.74,68.8
163614,2018-06-29 10:10:04.937500,25.45,68.8
163615,2018-06-29 10:10:04.968750,19.75,68.8
163616,2018-06-29 10:10:05.000000,14.23,68.8
163617,2018-06-29 10:10:05.031250,9.52,68.8
163618,2018-06-29 10:10:05.062500,5.37,68.8
163619,2018-06-29 10:10:05.093750,0.97,68.8
163620,2018-06-29 10:10:05.125000,-4.01,68.8
163621,2018-06-29 10:10:05.156250,-9.08,68.8
163622,2018-06-29 10:10:05.187500,-13.57,68.8
163623,2018-06-29 10:10:05.218750,-16.77,68.8
163624,2018-06-29 10:10:05.250000,-18.59,68.8
163625,2018-06-29 10:10:05.281250,-20.16,68.8
163626,2018-06-29 10:10:05.312500,-22.5,68.8
163627,2018-06-29 10:10:05.343750,-25.01,68.8
163628,2018-06-29 10:10:05.375000,-26.84,68.8
163629,2018-06-29 10:10:05.406250,-28.91,68.8
163630,2018-06-29 10:10:05.437500,-32.16,68.8
163631,2018-06-29 10:10:05.468750,-35.39,68.8
163632,2018-06-29 10:10:05.500000,-37.44,68.8
163633,2018-06-29 10:10:05.531250,-39.87,68.35
163634,2018-06-29 10:10:05.562500,-45.05,68.35
163635,2018-06-29 10:10:05.593750,-53.14,68.35
163636,2018-06-29 10:10:05.625000,-60.72,68.35
163637,2018-06-29 10:10:05.656250,-61.7,68.35
163638,2018-06-29 10:10:05.687500,-51.99,68.35
163639,2018-06-29 10:10:05.718750,-34.51,68.35
163640,2018-06-29 10:10:05.750000,-16.49,68.35
163641,2018-06-29 10:10:05.781250,-2.05,68.35
163642,2018-06-29 10:10:05.812500,9.49,68.35
163643,2018-06-29 10:10:05.843750,19.36,68.35
163644,2018-06-29 10:10:05.875000,26.8,68.35
163645,2018-06-29 10:10:05.906250,30.68,68.35
163646,2018-06-29 10:10:05.937500,31.8,68.35
163647,2018-06-29 10:10:05.968750,32.06,68.35
163648,2018-06-29 10:10:06.000000,32.51,68.35
163649,2018-06-29 10:10:06.031250,33.18,68.35
163650,2018-06-29 10:10:06.062500,33.74,68.35
163651,2018-06-29 10:10:06.093750,33.11,68.35
163652,2018-06-29 10:10:06.125000,30.17,68.35
163653,2018-06-29 10:10:06.156250,25.39,68.35
163654,2018-06-29 10:10:06.187500,20.43,68.35
163655,2018-06-29 10:10:06.218750,16.44,68.35
163656,2018-06-29 10:10:06.250000,13.73,68.35
163657,2018-06-29 10:10:06.281250,11.86,68.35
163658,2018-06-29 10:10:06.312500,9.81,68.35
163659,2018-06-29 10:10:06.343750,7.03,68.35
163660,2018-06-29 10:10:06.375000,4.18,68.35
163661,2018-06-29 10:10:06.406250,1.64,68.35
163662,2018-06-29 10:10:06.437500,-1.28,68.35
163663,2018-06-29 10:10:06.468750,-4.94,68.35
163664,2018-06-29 10:10:06.500000,-8.73,68.35
163665,2018-06-29 10:10:06.531250,-12.47,67.9
163666,2018-06-29 10:10:06.562500,-16.96,67.9
163667,2018-06-29 10:10:06.593750,-23.02,67.9
163668,2018-06-29 10:10:06.625000,-30.66,67.9
163669,2018-06-29 10:10:06.656250,-38.96,67.9
163670,2018-06-29 10:10:06.687500,-46.97,67.9
163671,2018-06-29 10:10:06.718750,-54.87,67.9
163672,2018-06-29 10:10:06.750000,-63.85,67.9
163673,2018-06-29 10:10:06.781250,-73.54,67.9
163674,2018-06-29 10:10:06.812500,-79.12,67.9
163675,2018-06-29 10:10:06.843750,-73.69,67.9
163676,2018-06-29 10:10:06.875000,-56.02,67.9
163677,2018-06-29 10:10:06.906250,-33.07,67.9
163678,2018-06-29 10:10:06.937500,-12.96,67.9
163679,2018-06-29 10:10:06.968750,1.97,67.9
163680,2018-06-29 10:10:07.000000,13.5,67.9
163681,2018-06-29 10:10:07.031250,22.59,67.9
163682,2018-06-29 10:10:07.062500,28.68,67.9
163683,2018-06-29 10:10:07.093750,31.82,67.9
163684,2018-06-29 10:10:07.125000,33.68,67.9
163685,2018-06-29 10:10:07.156250,35.94,67.9
163686,2018-06-29 10:10:07.187500,38.9,67.9
163687,2018-06-29 10:10:07.218750,42.1,67.9
163688,2018-06-29 10:10:07.250000,44.75,67.9
163689,2018-06-29 10:10:07.281250,45.18,67.9
163690,2018-06-29 10:10:07.312500,42.04,67.9
163691,2018-06-29 10:10:07.343750,36.46,67.9
163692,2018-06-29 10:10:07.375000,31.01,67.9
163693,2018-06-29 10:10:07.406250,26.78,67.9
163694,2018-06-29 10:10:07.437500,23.46,67.9
163695,2018-06-29 10:10:07.468750,21.13,67.9
163696,2018-06-29 10:10:07.500000,19.61,67.9
163697,2018-06-29 10:10:07.531250,17.38,67.43
163698,2018-06-29 10:10:07.562500,13.33,67.43
163699,2018-06-29 10:10:07.593750,8.31,67.43
163700,2018-06-29 10:10:07.625000,3.2,67.43
163701,2018-06-29 10:10:07.656250,-2.32,67.43
163702,2018-06-29 10:10:07.687500,-8.5,67.43
163703,2018-06-29 10:10:07.718750,-14.54,67.43
163704,2018-06-29 10:10:07.750000,-19.28,67.43
163705,2018-06-29 10:10:07.781250,-22.68,67.43
163706,2018-06-29 10:10:07.812500,-26.21,67.43
163707,2018-06-29 10:10:07.843750,-30.87,67.43
163708,2018-06-29 10:10:07.875000,-35.61,67.43
163709,2018-06-29 10:10:07.906250,-39.27,67.43
163710,2018-06-29 10:10:07.937500,-43.28,67.43
163711,2018-06-29 10:10:07.968750,-49.94,67.43
163712,2018-06-29 10:10:08.000000,-59.15,67.43
163713,2018-06-29 10:10:08.031250,-67.08,67.43
163714,2018-06-29 10:10:08.062500,-67.15,67.43
163715,2018-06-29 10:10:08.093750,-54.74,67.43
163716,2018-06-29 10:10:08.125000,-33.2,67.43
163717,2018-06-29 10:10:08.156250,-11.41,67.43
163718,2018-06-29 10:10:08.187500,5.56,67.43
163719,2018-06-29 10:10:08.218750,18.53,67.43
163720,2018-06-29 10:10:08.250000,28.39,67.43
163721,2018-06-29 10:10:08.281250,34.32,67.43
163722,2018-06-29 10:10:08.312500,36.58,67.43
163723,2018-06-29 10:10:08.343750,36.75,67.43
163724,2018-06-29 10:10:08.375000,36.06,67.43
163725,2018-06-29 10:10:08.406250,35.6,67.43
163726,2018-06-29 10:10:08.437500,36.4,67.43
163727,2018-06-29 10:10:08.468750,38.08,67.43
163728,2018-06-29 10:10:08.500000,38.71,67.43
163729,2018-06-29 10:10:08.531250,37.07,66.88
163730,2018-06-29 10:10:08.562500,34.05,66.88
163731,2018-06-29 10:10:08.593750,31.16,66.88
163732,2018-06-29 10:10:08.625000,28.55,66.88
163733,2018-06-29 10:10:08.656250,24.88,66.88
163734,2018-06-29 10:10:08.687500,19.05,66.88
163735,2018-06-29 10:10:08.718750,11.64,66.88
163736,2018-06-29 10:10:08.750000,4.29,66.88
163737,2018-06-29 10:10:08.781250,-2.35,66.88
163738,2018-06-29 10:10:08.812500,-8.88,66.88
163739,2018-06-29 10:10:08.843750,-14.96,66.88
163740,2018-06-29 10:10:08.875000,-19.17,66.88
163741,2018-06-29 10:10:08.906250,-21.63,66.88
163742,2018-06-29 10:10:08.937500,-24.24,66.88
163743,2018-06-29 10:10:08.968750,-28.31,66.88
163744,2018-06-29 10:10:09.000000,-33.78,66.88
163745,2018-06-29 10:10:09.031250,-40.34,66.88
163746,2018-06-29 10:10:09.062500,-48.14,66.88
163747,2018-06-29 10:10:09.093750,-58.06,66.88
163748,2018-06-29 10:10:09.125000,-70.56,66.88
163749,2018-06-29 10:10:09.156250,-82.12,66.88
163750,2018-06-29 10:10:09.187500,-84.75,66.88
163751,2018-06-29 10:10:09.218750,-73.12,66.88
163752,2018-06-29 10:10:09.250000,-51.32,66.88
163753,2018-06-29 10:10:09.281250,-28.75,66.88
163754,2018-06-29 10:10:09.312500,-10.83,66.88
163755,2018-06-29 10:10:09.343750,3.06,66.88
163756,2018-06-29 10:10:09.375000,14.6,66.88
163757,2018-06-29 10:10:09.406250,23.73,66.88
163758,2018-06-29 10:10:09.437500,30.1,66.88
163759,2018-06-29 10:10:09.468750,34.16,66.88
163760,2018-06-29 10:10:09.500000,36.65,66.88
163761,2018-06-29 10:10:09.531250,38.18,66.27
163762,2018-06-29 10:10:09.562500,39.31,66.27
163763,2018-06-29 10:10:09.593750,39.79,66.27
163764,2018-06-29 10:10:09.625000,37.91,66.27
163765,2018-06-29 10:10:09.656250,31.94,66.27
163766,2018-06-29 10:10:09.687500,22.85,66.27
163767,2018-06-29 10:10:09.718750,14.14,66.27
163768,2018-06-29 10:10:09.750000,8.38,66.27
163769,2018-06-29 10:10:09.781250,5.15,66.27
163770,2018-06-29 10:10:09.812500,2.51,66.27
163771,2018-06-29 10:10:09.843750,-0.11,66.27
163772,2018-06-29 10:10:09.875000,-1.12,66.27
163773,2018-06-29 10:10:09.906250,1.1,66.27
163774,2018-06-29 10:10:09.937500,6.29,66.27
163775,2018-06-29 10:10:09.968750,13.64,66.27
163776,2018-06-29 10:10:10.000000,22.63,66.27
163777,2018-06-29 10:10:10.031250,31.05,66.27
163778,2018-06-29 10:10:10.062500,35.7,66.27
163779,2018-06-29 10:10:10.093750,36.78,66.27
163780,2018-06-29 10:10:10.125000,38.1,66.27
163781,2018-06-29 10:10:10.156250,42.81,66.27
163782,2018-06-29 10:10:10.187500,50.92,66.27
163783,2018-06-29 10:10:10.218750,59.37,66.27
163784,2018-06-29 10:10:10.250000,63.22,66.27
163785,2018-06-29 10:10:10.281250,59.11,66.27
163786,2018-06-29 10:10:10.312500,48.18,66.27
163787,2018-06-29 10:10:10.343750,33.66,66.27
163788,2018-06-29 10:10:10.375000,16.81,66.27
163789,2018-06-29 10:10:10.406250,-2.18,66.27
163790,2018-06-29 10:10:10.437500,-21.36,66.27
163791,2018-06-29 10:10:10.468750,-36.93,66.27
163792,2018-06-29 10:10:10.500000,-45.63,66.27
163793,2018-06-29 10:10:10.531250,-46.68,65.7
163794,2018-06-29 10:10:10.562500,-42.11,65.7
163795,2018-06-29 10:10:10.593750,-35.16,65.7
163796,2018-06-29 10:10:10.625000,-28.13,65.7
163797,2018-06-29 10:10:10.656250,-22.0,65.7
163798,2018-06-29 10:10:10.687500,-17.46,65.7
163799,2018-06-29 10:10:10.718750,-15.2,65.7
163800,2018-06-29 10:10:10.750000,-15.61,65.7
163801,2018-06-29 10:10:10.781250,-18.63,65.7
163802,2018-06-29 10:10:10.812500,-23.22,65.7
163803,2018-06-29 10:10:10.843750,-27.78,65.7
163804,2018-06-29 10:10:10.875000,-31.73,65.7
163805,2018-06-29 10:10:10.906250,-35.99,65.7
163806,2018-06-29 10:10:10.937500,-41.07,65.7
163807,2018-06-29 10:10:10.968750,-45.68,65.7
163808,2018-06-29 10:10:11.000000,-48.89,65.7
163809,2018-06-29 10:10:11.031250,-53.09,65.7
163810,2018-06-29 10:10:11.062500,-62.38,65.7
163811,2018-06-29 10:10:11.093750,-76.28,65.7
163812,2018-06-29 10:10:11.125000,-86.3,65.7
163813,2018-06-29 10:10:11.156250,-82.61,65.7
163814,2018-06-29 10:10:11.187500,-64.28,65.7
163815,2018-06-29 10:10:11.218750,-39.59,65.7
163816,2018-06-29 10:10:11.250000,-16.58,65.7
163817,2018-06-29 10:10:11.281250,2.42,65.7
163818,2018-06-29 10:10:11.312500,17.98,65.7
163819,2018-06-29 10:10:11.343750,30.35,65.7
163820,2018-06-29 10:10:11.375000,39.18,65.7
163821,2018-06-29 10:10:11.406250,44.07,65.7
163822,2018-06-29 10:10:11.437500,45.47,65.7
163823,2018-06-29 10:10:11.468750,45.68,65.7
163824,2018-06-29 10:10:11.500000,47.2,65.7
163825,2018-06-29 10:10:11.531250,50.26,65.23
163826,2018-06-29 10:10:11.562500,53.07,65.23
163827,2018-06-29 10:10:11.593750,53.73,65.23
163828,2018-06-29 10:10:11.625000,51.65,65.23
163829,2018-06-29 10:10:11.656250,47.76,65.23
163830,2018-06-29 10:10:11.687500,43.68,65.23
163831,2018-06-29 10:10:11.718750,39.87,65.23
163832,2018-06-29 10:10:11.750000,35.28,65.23
163833,2018-06-29 10:10:11.781250,29.49,65.23
163834,2018-06-29 10:10:11.812500,23.65,65.23
163835,2018-06-29 10:10:11.843750,18.0,65.23
163836,2018-06-29 10:10:11.875000,11.23,65.23
163837,2018-06-29 10:10:11.906250,3.41,65.23
163838,2018-06-29 10:10:11.937500,-3.89,65.23
163839,2018-06-29 10:10:11.968750,-10.89,65.23
163840,2018-06-29 10:10:12.000000,-19.1,65.23
163841,2018-06-29 10:10:12.031250,-28.37,65.23
163842,2018-06-29 10:10:12.062500,-37.77,65.23
163843,2018-06-29 10:10:12.093750,-47.51,65.23
163844,2018-06-29 10:10:12.125000,-58.18,65.23
163845,2018-06-29 10:10:12.156250,-70.48,65.23
163846,2018-06-29 10:10:12.187500,-84.53,65.23
163847,2018-06-29 10:10:12.218750,-95.4,65.23
163848,2018-06-29 10:10:12.250000,-93.48,65.23
163849,2018-06-29 10:10:12.281250,-75.09,65.23
163850,2018-06-29 10:10:12.312500,-48.13,65.23
163851,2018-06-29 10:10:12.343750,-22.66,65.23
163852,2018-06-29 10:10:12.375000,-1.69,65.23
163853,2018-06-29 10:10:12.406250,16.1,65.23
163854,2018-06-29 10:10:12.437500,30.8,65.23
163855,2018-06-29 10:10:12.468750,41.32,65.23
163856,2018-06-29 10:10:12.500000,47.95,65.23
163857,2018-06-29 10:10:12.531250,52.0,64.73
163858,2018-06-29 10:10:12.562500,54.28,64.73
163859,2018-06-29 10:10:12.593750,55.56,64.73
163860,2018-06-29 10:10:12.625000,57.16,64.73
163861,2018-06-29 10:10:12.656250,59.12,64.73
163862,2018-06-29 10:10:12.687500,59.23,64.73
163863,2018-06-29 10:10:12.718750,55.9,64.73
163864,2018-06-29 10:10:12.750000,50.13,64.73
163865,2018-06-29 10:10:12.781250,43.68,64.73
163866,2018-06-29 10:10:12.812500,37.21,64.73
163867,2018-06-29 10:10:12.843750,30.7,64.73
163868,2018-06-29 10:10:12.875000,24.21,64.73
163869,2018-06-29 10:10:12.906250,17.61,64.73
163870,2018-06-29 10:10:12.937500,10.5,64.73
163871,2018-06-29 10:10:12.968750,3.24,64.73
163872,2018-06-29 10:10:13.000000,-2.84,64.73
163873,2018-06-29 10:10:13.031250,-7.37,64.73
163874,2018-06-29 10:10:13.062500,-12.12,64.73
163875,2018-06-29 10:10:13.093750,-19.18,64.73
163876,2018-06-29 10:10:13.125000,-28.49,64.73
163877,2018-06-29 10:10:13.156250,-38.09,64.73
163878,2018-06-29 10:10:13.187500,-46.79,64.73
163879,2018-06-29 10:10:13.218750,-56.24,64.73
163880,2018-06-29 10:10:13.250000,-68.82,64.73
163881,2018-06-29 10:10:13.281250,-82.82,64.73
163882,2018-06-29 10:10:13.312500,-90.55,64.73
163883,2018-06-29 10:10:13.343750,-83.79,64.73
163884,2018-06-29 10:10:13.375000,-62.69,64.73
163885,2018-06-29 10:10:13.406250,-36.47,64.73
163886,2018-06-29 10:10:13.437500,-13.67,64.73
163887,2018-06-29 10:10:13.468750,4.67,64.73
163888,2018-06-29 10:10:13.500000,20.38,64.73
163889,2018-06-29 10:10:13.531250,32.32,64.2
163890,2018-06-29 10:10:13.562500,38.5,64.2
163891,2018-06-29 10:10:13.593750,39.76,64.2
163892,2018-06-29 10:10:13.625000,39.05,64.2
163893,2018-06-29 10:10:13.656250,38.84,64.2
163894,2018-06-29 10:10:13.687500,39.83,64.2
163895,2018-06-29 10:10:13.718750,41.46,64.2
163896,2018-06-29 10:10:13.750000,42.72,64.2
163897,2018-06-29 10:10:13.781250,42.4,64.2
163898,2018-06-29 10:10:13.812500,39.36,64.2
163899,2018-06-29 10:10:13.843750,33.86,64.2
163900,2018-06-29 10:10:13.875000,27.88,64.2
163901,2018-06-29 10:10:13.906250,23.26,64.2
163902,2018-06-29 10:10:13.937500,19.33,64.2
163903,2018-06-29 10:10:13.968750,13.26,64.2
163904,2018-06-29 10:10:14.000000,3.84,64.2
163905,2018-06-29 10:10:14.031250,-6.51,64.2
163906,2018-06-29 10:10:14.062500,-15.49,64.2
163907,2018-06-29 10:10:14.093750,-24.53,64.2
163908,2018-06-29 10:10:14.125000,-35.96,64.2
163909,2018-06-29 10:10:14.156250,-49.16,64.2
163910,2018-06-29 10:10:14.187500,-60.39,64.2
163911,2018-06-29 10:10:14.218750,-63.26,64.2
163912,2018-06-29 10:10:14.250000,-52.23,64.2
163913,2018-06-29 10:10:14.281250,-29.68,64.2
163914,2018-06-29 10:10:14.312500,-4.91,64.2
163915,2018-06-29 10:10:14.343750,15.43,64.2
163916,2018-06-29 10:10:14.375000,30.91,64.2
163917,2018-06-29 10:10:14.406250,41.98,64.2
163918,2018-06-29 10:10:14.437500,47.74,64.2
163919,2018-06-29 10:10:14.468750,48.84,64.2
163920,2018-06-29 10:10:14.500000,48.24,64.2
163921,2018-06-29 10:10:14.531250,48.41,63.82
163922,2018-06-29 10:10:14.562500,49.12,63.82
163923,2018-06-29 10:10:14.593750,49.21,63.82
163924,2018-06-29 10:10:14.625000,48.76,63.82
163925,2018-06-29 10:10:14.656250,47.76,63.82
163926,2018-06-29 10:10:14.687500,44.86,63.82
163927,2018-06-29 10:10:14.718750,39.49,63.82
163928,2018-06-29 10:10:14.750000,33.2,63.82
163929,2018-06-29 10:10:14.781250,27.17,63.82
163930,2018-06-29 10:10:14.812500,20.67,63.82
163931,2018-06-29 10:10:14.843750,13.17,63.82
163932,2018-06-29 10:10:14.875000,5.65,63.82
163933,2018-06-29 10:10:14.906250,-1.11,63.82
163934,2018-06-29 10:10:14.937500,-7.95,63.82
163935,2018-06-29 10:10:14.968750,-16.06,63.82
163936,2018-06-29 10:10:15.000000,-24.73,63.82
163937,2018-06-29 10:10:15.031250,-32.22,63.82
163938,2018-06-29 10:10:15.062500,-39.04,63.82
163939,2018-06-29 10:10:15.093750,-48.22,63.82
163940,2018-06-29 10:10:15.125000,-61.32,63.82
163941,2018-06-29 10:10:15.156250,-74.84,63.82
163942,2018-06-29 10:10:15.187500,-80.66,63.82
163943,2018-06-29 10:10:15.218750,-71.74,63.82
163944,2018-06-29 10:10:15.250000,-49.85,63.82
163945,2018-06-29 10:10:15.281250,-24.36,63.82
163946,2018-06-29 10:10:15.312500,-2.39,63.82
163947,2018-06-29 10:10:15.343750,15.39,63.82
163948,2018-06-29 10:10:15.375000,30.04,63.82
163949,2018-06-29 10:10:15.406250,41.05,63.82
163950,2018-06-29 10:10:15.437500,47.55,63.82
163951,2018-06-29 10:10:15.468750,50.13,63.82
163952,2018-06-29 10:10:15.500000,50.93,63.82
163953,2018-06-29 10:10:15.531250,51.75,63.48
163954,2018-06-29 10:10:15.562500,52.88,63.48
163955,2018-06-29 10:10:15.593750,53.96,63.48
163956,2018-06-29 10:10:15.625000,54.21,63.48
163957,2018-06-29 10:10:15.656250,52.64,63.48
163958,2018-06-29 10:10:15.687500,49.45,63.48
163959,2018-06-29 10:10:15.718750,46.07,63.48
163960,2018-06-29 10:10:15.750000,43.63,63.48
163961,2018-06-29 10:10:15.781250,42.07,63.48
163962,2018-06-29 10:10:15.812500,40.95,63.48
163963,2018-06-29 10:10:15.843750,40.52,63.48
163964,2018-06-29 10:10:15.875000,41.47,63.48
163965,2018-06-29 10:10:15.906250,43.61,63.48
163966,2018-06-29 10:10:15.937500,46.06,63.48
163967,2018-06-29 10:10:15.968750,48.6,63.48
163968,2018-06-29 10:10:16.000000,51.42,63.48
163969,2018-06-29 10:10:16.031250,54.08,63.48
163970,2018-06-29 10:10:16.062500,56.57,63.48
163971,2018-06-29 10:10:16.093750,60.1,63.48
163972,2018-06-29 10:10:16.125000,65.0,63.48
163973,2018-06-29 10:10:16.156250,67.87,63.48
163974,2018-06-29 10:10:16.187500,63.02,63.48
163975,2018-06-29 10:10:16.218750,49.03,63.48
163976,2018-06-29 10:10:16.250000,34.46,63.48
163977,2018-06-29 10:10:16.281250,34.49,63.48
163978,2018-06-29 10:10:16.312500,58.28,63.48
163979,2018-06-29 10:10:16.343750,99.85,63.48
163980,2018-06-29 10:10:16.375000,144.25,63.48
163981,2018-06-29 10:10:16.406250,180.89,63.48
163982,2018-06-29 10:10:16.437500,207.5,63.48
163983,2018-06-29 10:10:16.468750,223.08,63.48
163984,2018-06-29 10:10:16.500000,224.01,63.48
163985,2018-06-29 10:10:16.531250,210.09,63.22
163986,2018-06-29 10:10:16.562500,188.72,63.22
163987,2018-06-29 10:10:16.593750,168.4,63.22
163988,2018-06-29 10:10:16.625000,150.36,63.22
163989,2018-06-29 10:10:16.656250,130.1,63.22
163990,2018-06-29 10:10:16.687500,104.03,63.22
163991,2018-06-29 10:10:16.718750,72.2,63.22
163992,2018-06-29 10:10:16.750000,37.07,63.22
163993,2018-06-29 10:10:16.781250,1.93,63.22
163994,2018-06-29 10:10:16.812500,-30.22,63.22
163995,2018-06-29 10:10:16.843750,-58.17,63.22
163996,2018-06-29 10:10:16.875000,-83.32,63.22
163997,2018-06-29 10:10:16.906250,-107.43,63.22
163998,2018-06-29 10:10:16.937500,-130.81,63.22
163999,2018-06-29 10:10:16.968750,-153.79,63.22
164000,2018-06-29 10:10:17.000000,-175.1,63.22
164001,2018-06-29 10:10:17.031250,-188.82,63.22
164002,2018-06-29 10:10:17.062500,-191.92,63.22
164003,2018-06-29 10:10:17.093750,-193.33,63.22
164004,2018-06-29 10:10:17.125000,-205.51,63.22
164005,2018-06-29 10:10:17.156250,-229.78,63.22
164006,2018-06-29 10:10:17.187500,-258.72,63.22
164007,2018-06-29 10:10:17.218750,-287.77,63.22
164008,2018-06-29 10:10:17.250000,-318.53,63.22
164009,2018-06-29 10:10:17.281250,-357.67,63.22
164010,2018-06-29 10:10:17.312500,-409.94,63.22
164011,2018-06-29 10:10:17.343750,-459.83,63.22
164012,2018-06-29 10:10:17.375000,-471.46,63.22
164013,2018-06-29 10:10:17.406250,-425.88,63.22
164014,2018-06-29 10:10:17.437500,-346.18,63.22
164015,2018-06-29 10:10:17.468750,-270.28,63.22
164016,2018-06-29 10:10:17.500000,-214.38,63.22
164017,2018-06-29 10:10:17.531250,-172.82,62.93
164018,2018-06-29 10:10:17.562500,-139.94,62.93
164019,2018-06-29 10:10:17.593750,-121.45,62.93
164020,2018-06-29 10:10:17.625000,-125.88,62.93
164021,2018-06-29 10:10:17.656250,-148.3,62.93
164022,2018-06-29 10:10:17.687500,-170.02,62.93
164023,2018-06-29 10:10:17.718750,-174.01,62.93
164024,2018-06-29 10:10:17.750000,-153.84,62.93
164025,2018-06-29 10:10:17.781250,-112.52,62.93
164026,2018-06-29 10:10:17.812500,-59.86,62.93
164027,2018-06-29 10:10:17.843750,-5.43,62.93
164028,2018-06-29 10:10:17.875000,48.95,62.93
164029,2018-06-29 10:10:17.906250,104.36,62.93
164030,2018-06-29 10:10:17.937500,153.27,62.93
164031,2018-06-29 10:10:17.968750,182.68,62.93
164032,2018-06-29 10:10:18.000000,187.87,62.93
164033,2018-06-29 10:10:18.031250,174.35,62.93
164034,2018-06-29 10:10:18.062500,149.93,62.93
164035,2018-06-29 10:10:18.093750,122.13,62.93
164036,2018-06-29 10:10:18.125000,97.23,62.93
164037,2018-06-29 10:10:18.156250,75.74,62.93
164038,2018-06-29 10:10:18.187500,53.06,62.93
164039,2018-06-29 10:10:18.218750,27.17,62.93
164040,2018-06-29 10:10:18.250000,3.09,62.93
164041,2018-06-29 10:10:18.281250,-10.49,62.93
164042,2018-06-29 10:10:18.312500,-9.42,62.93
164043,2018-06-29 10:10:18.343750,1.72,62.93
164044,2018-06-29 10:10:18.375000,15.64,62.93
164045,2018-06-29 10:10:18.406250,30.42,62.93
164046,2018-06-29 10:10:18.437500,47.79,62.93
164047,2018-06-29 10:10:18.468750,66.62,62.93
164048,2018-06-29 10:10:18.500000,83.28,62.93
164049,2018-06-29 10:10:18.531250,95.44,62.67
164050,2018-06-29 10:10:18.562500,102.09,62.67
164051,2018-06-29 10:10:18.593750,102.74,62.67
164052,2018-06-29 10:10:18.625000,98.98,62.67
164053,2018-06-29 10:10:18.656250,93.91,62.67
164054,2018-06-29 10:10:18.687500,88.22,62.67
164055,2018-06-29 10:10:18.718750,79.54,62.67
164056,2018-06-29 10:10:18.750000,67.17,62.67
164057,2018-06-29 10:10:18.781250,54.09,62.67
164058,2018-06-29 10:10:18.812500,43.68,62.67
164059,2018-06-29 10:10:18.843750,37.08,62.67
164060,2018-06-29 10:10:18.875000,34.89,62.67
164061,2018-06-29 10:10:18.906250,38.47,62.67
164062,2018-06-29 10:10:18.937500,48.27,62.67
164063,2018-06-29 10:10:18.968750,62.77,62.67
164064,2018-06-29 10:10:19.000000,78.97,62.67
164065,2018-06-29 10:10:19.031250,92.4,62.67
164066,2018-06-29 10:10:19.062500,98.9,62.67
164067,2018-06-29 10:10:19.093750,97.71,62.67
164068,2018-06-29 10:10:19.125000,90.35,62.67
164069,2018-06-29 10:10:19.156250,76.99,62.67
164070,2018-06-29 10:10:19.187500,58.32,62.67
164071,2018-06-29 10:10:19.218750,40.54,62.67
164072,2018-06-29 10:10:19.250000,33.43,62.67
164073,2018-06-29 10:10:19.281250,41.6,62.67
164074,2018-06-29 10:10:19.312500,59.74,62.67
164075,2018-06-29 10:10:19.343750,77.61,62.67
164076,2018-06-29 10:10:19.375000,88.26,62.67
164077,2018-06-29 10:10:19.406250,90.97,62.67
164078,2018-06-29 10:10:19.437500,87.97,62.67
164079,2018-06-29 10:10:19.468750,79.84,62.67
164080,2018-06-29 10:10:19.500000,63.96,62.67
164081,2018-06-29 10:10:19.531250,39.94,62.38
164082,2018-06-29 10:10:19.562500,15.19,62.38
164083,2018-06-29 10:10:19.593750,-0.55,62.38
164084,2018-06-29 10:10:19.625000,-4.64,62.38
164085,2018-06-29 10:10:19.656250,0.0,62.38
164086,2018-06-29 10:10:19.687500,11.44,62.38
164087,2018-06-29 10:10:19.718750,29.59,62.38
164088,2018-06-29 10:10:19.750000,53.51,62.38
164089,2018-06-29 10:10:19.781250,80.35,62.38
164090,2018-06-29 10:10:19.812500,107.2,62.38
164091,2018-06-29 10:10:19.843750,136.32,62.38
164092,2018-06-29 10:10:19.875000,178.03,62.38
164093,2018-06-29 10:10:19.906250,241.87,62.38
164094,2018-06-29 10:10:19.937500,317.59,62.38
164095,2018-06-29 10:10:19.968750,370.85,62.38
164096,2018-06-29 10:10:20.000000,372.88,62.38
164097,2018-06-29 10:10:20.031250,332.04,62.38
164098,2018-06-29 10:10:20.062500,280.65,62.38
164099,2018-06-29 10:10:20.093750,239.33,62.38
164100,2018-06-29 10:10:20.125000,210.19,62.38
164101,2018-06-29 10:10:20.156250,190.89,62.38
164102,2018-06-29 10:10:20.187500,176.24,62.38
164103,2018-06-29 10:10:20.218750,156.48,62.38
164104,2018-06-29 10:10:20.250000,126.99,62.38
164105,2018-06-29 10:10:20.281250,93.24,62.38
164106,2018-06-29 10:10:20.312500,60.91,62.38
164107,2018-06-29 10:10:20.343750,27.75,62.38
164108,2018-06-29 10:10:20.375000,-10.01,62.38
164109,2018-06-29 10:10:20.406250,-48.1,62.38
164110,2018-06-29 10:10:20.437500,-77.55,62.38
164111,2018-06-29 10:10:20.468750,-96.47,62.38
164112,2018-06-29 10:10:20.500000,-112.25,62.38
164113,2018-06-29 10:10:20.531250,-130.32,62.05
164114,2018-06-29 10:10:20.562500,-147.03,62.05
164115,2018-06-29 10:10:20.593750,-157.87,62.05
164116,2018-06-29 10:10:20.625000,-167.75,62.05
164117,2018-06-29 10:10:20.656250,-185.62,62.05
164118,2018-06-29 10:10:20.687500,-211.52,62.05
164119,2018-06-29 10:10:20.718750,-238.43,62.05
164120,2018-06-29 10:10:20.750000,-265.11,62.05
164121,2018-06-29 10:10:20.781250,-298.36,62.05
164122,2018-06-29 10:10:20.812500,-346.41,62.05
164123,2018-06-29 10:10:20.843750,-412.58,62.05
164124,2018-06-29 10:10:20.875000,-477.28,62.05
164125,2018-06-29 10:10:20.906250,-494.72,62.05
164126,2018-06-29 10:10:20.937500,-440.84,62.05
164127,2018-06-29 10:10:20.968750,-351.07,62.05
164128,2018-06-29 10:10:21.000000,-279.47,62.05
164129,2018-06-29 10:10:21.031250,-244.67,62.05
164130,2018-06-29 10:10:21.062500,-235.01,62.05
164131,2018-06-29 10:10:21.093750,-229.68,62.05
164132,2018-06-29 10:10:21.125000,-201.96,62.05
164133,2018-06-29 10:10:21.156250,-137.61,62.05
164134,2018-06-29 10:10:21.187500,-58.02,62.05
164135,2018-06-29 10:10:21.218750,-1.22,62.05
164136,2018-06-29 10:10:21.250000,21.61,62.05
164137,2018-06-29 10:10:21.281250,30.84,62.05
164138,2018-06-29 10:10:21.312500,41.58,62.05
164139,2018-06-29 10:10:21.343750,49.21,62.05
164140,2018-06-29 10:10:21.375000,55.13,62.05
164141,2018-06-29 10:10:21.406250,74.17,62.05
164142,2018-06-29 10:10:21.437500,106.25,62.05
164143,2018-06-29 10:10:21.468750,128.46,62.05
164144,2018-06-29 10:10:21.500000,125.56,62.05
164145,2018-06-29 10:10:21.531250,113.17,61.68
164146,2018-06-29 10:10:21.562500,121.16,61.68
164147,2018-06-29 10:10:21.593750,156.62,61.68
164148,2018-06-29 10:10:21.625000,191.37,61.68
164149,2018-06-29 10:10:21.656250,191.22,61.68
164150,2018-06-29 10:10:21.687500,147.67,61.68
164151,2018-06-29 10:10:21.718750,74.34,61.68
164152,2018-06-29 10:10:21.750000,-9.78,61.68
164153,2018-06-29 10:10:21.781250,-86.26,61.68
164154,2018-06-29 10:10:21.812500,-144.96,61.68
164155,2018-06-29 10:10:21.843750,-187.86,61.68
164156,2018-06-29 10:10:21.875000,-214.9,61.68
164157,2018-06-29 10:10:21.906250,-215.56,61.68
164158,2018-06-29 10:10:21.937500,-182.73,61.68
164159,2018-06-29 10:10:21.968750,-122.76,61.68
164160,2018-06-29 10:10:22.000000,-53.44,61.68
164161,2018-06-29 10:10:22.031250,-6.41,61.68
164162,2018-06-29 10:10:22.062500,-14.97,61.68
164163,2018-06-29 10:10:22.093750,-78.15,61.68
164164,2018-06-29 10:10:22.125000,-153.6,61.68
164165,2018-06-29 10:10:22.156250,-200.79,61.68
164166,2018-06-29 10:10:22.187500,-213.0,61.68
164167,2018-06-29 10:10:22.218750,-200.34,61.68
164168,2018-06-29 10:10:22.250000,-165.86,61.68
164169,2018-06-29 10:10:22.281250,-113.02,61.68
164170,2018-06-29 10:10:22.312500,-58.24,61.68
164171,2018-06-29 10:10:22.343750,-17.65,61.68
164172,2018-06-29 10:10:22.375000,9.96,61.68
164173,2018-06-29 10:10:22.406250,33.08,61.68
164174,2018-06-29 10:10:22.437500,49.86,61.68
164175,2018-06-29 10:10:22.468750,55.32,61.68
164176,2018-06-29 10:10:22.500000,55.2,61.68
164177,2018-06-29 10:10:22.531250,57.7,61.37
164178,2018-06-29 10:10:22.562500,60.64,61.37
164179,2018-06-29 10:10:22.593750,59.39,61.37
164180,2018-06-29 10:10:22.625000,58.18,61.37
164181,2018-06-29 10:10:22.656250,61.94,61.37
164182,2018-06-29 10:10:22.687500,65.02,61.37
164183,2018-06-29 10:10:22.718750,58.43,61.37
164184,2018-06-29 10:10:22.750000,41.86,61.37
164185,2018-06-29 10:10:22.781250,22.99,61.37
164186,2018-06-29 10:10:22.812500,12.5,61.37
164187,2018-06-29 10:10:22.843750,20.63,61.37
164188,2018-06-29 10:10:22.875000,49.44,61.37
164189,2018-06-29 10:10:22.906250,86.99,61.37
164190,2018-06-29 10:10:22.937500,115.58,61.37
164191,2018-06-29 10:10:22.968750,126.58,61.37
164192,2018-06-29 10:10:23.000000,122.91,61.37
164193,2018-06-29 10:10:23.031250,108.38,61.37
164194,2018-06-29 10:10:23.062500,82.17,61.37
164195,2018-06-29 10:10:23.093750,47.27,61.37
164196,2018-06-29 10:10:23.125000,15.53,61.37
164197,2018-06-29 10:10:23.156250,-3.69,61.37
164198,2018-06-29 10:10:23.187500,-12.42,61.37
164199,2018-06-29 10:10:23.218750,-16.57,61.37
164200,2018-06-29 10:10:23.250000,-19.46,61.37
164201,2018-06-29 10:10:23.281250,-24.05,61.37
164202,2018-06-29 10:10:23.312500,-30.91,61.37
164203,2018-06-29 10:10:23.343750,-34.18,61.37
164204,2018-06-29 10:10:23.375000,-28.7,61.37
164205,2018-06-29 10:10:23.406250,-18.9,61.37
164206,2018-06-29 10:10:23.437500,-13.33,61.37
164207,2018-06-29 10:10:23.468750,-13.43,61.37
164208,2018-06-29 10:10:23.500000,-14.17,61.37
164209,2018-06-29 10:10:23.531250,-14.84,61.05
164210,2018-06-29 10:10:23.562500,-22.1,61.05
164211,2018-06-29 10:10:23.593750,-39.55,61.05
164212,2018-06-29 10:10:23.625000,-57.6,61.05
164213,2018-06-29 10:10:23.656250,-59.0,61.05
164214,2018-06-29 10:10:23.687500,-36.0,61.05
164215,2018-06-29 10:10:23.718750,1.83,61.05
164216,2018-06-29 10:10:23.750000,38.31,61.05
164217,2018-06-29 10:10:23.781250,63.15,61.05
164218,2018-06-29 10:10:23.812500,74.03,61.05
164219,2018-06-29 10:10:23.843750,73.83,61.05
164220,2018-06-29 10:10:23.875000,66.96,61.05
164221,2018-06-29 10:10:23.906250,56.57,61.05
164222,2018-06-29 10:10:23.937500,46.36,61.05
164223,2018-06-29 10:10:23.968750,43.74,61.05
164224,2018-06-29 10:10:24.000000,54.17,61.05
164225,2018-06-29 10:10:24.031250,71.44,61.05
164226,2018-06-29 10:10:24.062500,81.17,61.05
164227,2018-06-29 10:10:24.093750,76.06,61.05
164228,2018-06-29 10:10:24.125000,60.53,61.05
164229,2018-06-29 10:10:24.156250,39.87,61.05
164230,2018-06-29 10:10:24.187500,15.46,61.05
164231,2018-06-29 10:10:24.218750,-10.08,61.05
164232,2018-06-29 10:10:24.250000,-33.9,61.05
164233,2018-06-29 10:10:24.281250,-55.39,61.05
164234,2018-06-29 10:10:24.312500,-71.94,61.05
164235,2018-06-29 10:10:24.343750,-80.83,61.05
164236,2018-06-29 10:10:24.375000,-87.79,61.05
164237,2018-06-29 10:10:24.406250,-101.68,61.05
164238,2018-06-29 10:10:24.437500,-116.88,61.05
164239,2018-06-29 10:10:24.468750,-114.47,61.05
164240,2018-06-29 10:10:24.500000,-85.64,61.05
164241,2018-06-29 10:10:24.531250,-41.68,60.72
164242,2018-06-29 10:10:24.562500,3.73,60.72
164243,2018-06-29 10:10:24.593750,47.46,60.72
164244,2018-06-29 10:10:24.625000,87.77,60.72
164245,2018-06-29 10:10:24.656250,117.85,60.72
164246,2018-06-29 10:10:24.687500,135.0,60.72
164247,2018-06-29 10:10:24.718750,146.22,60.72
164248,2018-06-29 10:10:24.750000,159.82,60.72
164249,2018-06-29 10:10:24.781250,176.64,60.72
164250,2018-06-29 10:10:24.812500,191.5,60.72
164251,2018-06-29 10:10:24.843750,198.88,60.72
164252,2018-06-29 10:10:24.875000,196.36,60.72
164253,2018-06-29 10:10:24.906250,186.61,60.72
164254,2018-06-29 10:10:24.937500,173.72,60.72
164255,2018-06-29 10:10:24.968750,155.07,60.72
164256,2018-06-29 10:10:25.000000,126.62,60.72
164257,2018-06-29 10:10:25.031250,94.78,60.72
164258,2018-06-29 10:10:25.062500,64.33,60.72
164259,2018-06-29 10:10:25.093750,23.51,60.72
164260,2018-06-29 10:10:25.125000,-36.51,60.72
164261,2018-06-29 10:10:25.156250,-103.34,60.72
164262,2018-06-29 10:10:25.187500,-160.81,60.72
164263,2018-06-29 10:10:25.218750,-200.38,60.72
164264,2018-06-29 10:10:25.250000,-209.9,60.72
164265,2018-06-29 10:10:25.281250,-184.44,60.72
164266,2018-06-29 10:10:25.312500,-144.83,60.72
164267,2018-06-29 10:10:25.343750,-112.68,60.72
164268,2018-06-29 10:10:25.375000,-83.48,60.72
164269,2018-06-29 10:10:25.406250,-51.37,60.72
164270,2018-06-29 10:10:25.437500,-31.64,60.72
164271,2018-06-29 10:10:25.468750,-34.07,60.72
164272,2018-06-29 10:10:25.500000,-44.48,60.72
164273,2018-06-29 10:10:25.531250,-48.84,60.38
164274,2018-06-29 10:10:25.562500,-48.44,60.38
164275,2018-06-29 10:10:25.593750,-44.77,60.38
164276,2018-06-29 10:10:25.625000,-33.04,60.38
164277,2018-06-29 10:10:25.656250,-13.05,60.38
164278,2018-06-29 10:10:25.687500,8.51,60.38
164279,2018-06-29 10:10:25.718750,29.45,60.38
164280,2018-06-29 10:10:25.750000,55.24,60.38
164281,2018-06-29 10:10:25.781250,87.66,60.38
164282,2018-06-29 10:10:25.812500,118.47,60.38
164283,2018-06-29 10:10:25.843750,139.73,60.38
164284,2018-06-29 10:10:25.875000,151.81,60.38
164285,2018-06-29 10:10:25.906250,157.17,60.38
164286,2018-06-29 10:10:25.937500,157.63,60.38
164287,2018-06-29 10:10:25.968750,160.11,60.38
164288,2018-06-29 10:10:26.000000,171.97,60.38
164289,2018-06-29 10:10:26.031250,190.25,60.38
164290,2018-06-29 10:10:26.062500,204.42,60.38
164291,2018-06-29 10:10:26.093750,205.11,60.38
164292,2018-06-29 10:10:26.125000,187.77,60.38
164293,2018-06-29 10:10:26.156250,155.76,60.38
164294,2018-06-29 10:10:26.187500,118.34,60.38
164295,2018-06-29 10:10:26.218750,80.99,60.38
164296,2018-06-29 10:10:26.250000,43.79,60.38
164297,2018-06-29 10:10:26.281250,8.75,60.38
164298,2018-06-29 10:10:26.312500,-20.54,60.38
164299,2018-06-29 10:10:26.343750,-44.25,60.38
164300,2018-06-29 10:10:26.375000,-65.15,60.38
164301,2018-06-29 10:10:26.406250,-85.18,60.38
164302,2018-06-29 10:10:26.437500,-107.02,60.38
164303,2018-06-29 10:10:26.468750,-133.65,60.38
164304,2018-06-29 10:10:26.500000,-162.98,60.38
164305,2018-06-29 10:10:26.531250,-187.65,60.08
164306,2018-06-29 10:10:26.562500,-203.36,60.08
164307,2018-06-29 10:10:26.593750,-212.76,60.08
164308,2018-06-29 10:10:26.625000,-219.99,60.08
164309,2018-06-29 10:10:26.656250,-225.64,60.08
164310,2018-06-29 10:10:26.687500,-227.09,60.08
164311,2018-06-29 10:10:26.718750,-222.7,60.08
164312,2018-06-29 10:10:26.750000,-215.83,60.08
164313,2018-06-29 10:10:26.781250,-214.17,60.08
164314,2018-06-29 10:10:26.812500,-221.65,60.08
164315,2018-06-29 10:10:26.843750,-226.61,60.08
164316,2018-06-29 10:10:26.875000,-204.4,60.08
164317,2018-06-29 10:10:26.906250,-142.27,60.08
164318,2018-06-29 10:10:26.937500,-55.63,60.08
164319,2018-06-29 10:10:26.968750,30.17,60.08
164320,2018-06-29 10:10:27.000000,101.3,60.08
164321,2018-06-29 10:10:27.031250,151.49,60.08
164322,2018-06-29 10:10:27.062500,175.9,60.08
164323,2018-06-29 10:10:27.093750,177.87,60.08
164324,2018-06-29 10:10:27.125000,168.9,60.08
164325,2018-06-29 10:10:27.156250,157.36,60.08
164326,2018-06-29 10:10:27.187500,144.61,60.08
164327,2018-06-29 10:10:27.218750,131.24,60.08
164328,2018-06-29 10:10:27.250000,120.4,60.08
164329,2018-06-29 10:10:27.281250,111.85,60.08
164330,2018-06-29 10:10:27.312500,98.63,60.08
164331,2018-06-29 10:10:27.343750,76.08,60.08
164332,2018-06-29 10:10:27.375000,50.14,60.08
164333,2018-06-29 10:10:27.406250,30.27,60.08
164334,2018-06-29 10:10:27.437500,18.86,60.08
164335,2018-06-29 10:10:27.468750,13.11,60.08
164336,2018-06-29 10:10:27.500000,11.18,60.08
164337,2018-06-29 10:10:27.531250,10.75,59.8
164338,2018-06-29 10:10:27.562500,6.87,59.8
164339,2018-06-29 10:10:27.593750,-3.78,59.8
164340,2018-06-29 10:10:27.625000,-18.79,59.8
164341,2018-06-29 10:10:27.656250,-32.81,59.8
164342,2018-06-29 10:10:27.687500,-43.29,59.8
164343,2018-06-29 10:10:27.718750,-51.39,59.8
164344,2018-06-29 10:10:27.750000,-58.48,59.8
164345,2018-06-29 10:10:27.781250,-64.09,59.8
164346,2018-06-29 10:10:27.812500,-64.08,59.8
164347,2018-06-29 10:10:27.843750,-50.31,59.8
164348,2018-06-29 10:10:27.875000,-19.34,59.8
164349,2018-06-29 10:10:27.906250,19.22,59.8
164350,2018-06-29 10:10:27.937500,50.72,59.8
164351,2018-06-29 10:10:27.968750,69.91,59.8
164352,2018-06-29 10:10:28.000000,79.85,59.8
164353,2018-06-29 10:10:28.031250,82.08,59.8
164354,2018-06-29 10:10:28.062500,76.92,59.8
164355,2018-06-29 10:10:28.093750,69.32,59.8
164356,2018-06-29 10:10:28.125000,65.85,59.8
164357,2018-06-29 10:10:28.156250,67.35,59.8
164358,2018-06-29 10:10:28.187500,70.17,59.8
164359,2018-06-29 10:10:28.218750,72.34,59.8
164360,2018-06-29 10:10:28.250000,73.65,59.8
164361,2018-06-29 10:10:28.281250,71.69,59.8
164362,2018-06-29 10:10:28.312500,64.02,59.8
164363,2018-06-29 10:10:28.343750,53.21,59.8
164364,2018-06-29 10:10:28.375000,44.92,59.8
164365,2018-06-29 10:10:28.406250,39.99,59.8
164366,2018-06-29 10:10:28.437500,33.44,59.8
164367,2018-06-29 10:10:28.468750,22.29,59.8
164368,2018-06-29 10:10:28.500000,9.5,59.8
164369,2018-06-29 10:10:28.531250,-1.2,59.55
164370,2018-06-29 10:10:28.562500,-10.27,59.55
164371,2018-06-29 10:10:28.593750,-22.27,59.55
164372,2018-06-29 10:10:28.625000,-42.65,59.55
164373,2018-06-29 10:10:28.656250,-70.1,59.55
164374,2018-06-29 10:10:28.687500,-90.38,59.55
164375,2018-06-29 10:10:28.718750,-87.21,59.55
164376,2018-06-29 10:10:28.750000,-61.23,59.55
164377,2018-06-29 10:10:28.781250,-28.56,59.55
164378,2018-06-29 10:10:28.812500,-0.78,59.55
164379,2018-06-29 10:10:28.843750,21.96,59.55
164380,2018-06-29 10:10:28.875000,40.65,59.55
164381,2018-06-29 10:10:28.906250,52.26,59.55
164382,2018-06-29 10:10:28.937500,55.32,59.55
164383,2018-06-29 10:10:28.968750,53.23,59.55
164384,2018-06-29 10:10:29.000000,50.35,59.55
164385,2018-06-29 10:10:29.031250,48.62,59.55
164386,2018-06-29 10:10:29.062500,47.96,59.55
164387,2018-06-29 10:10:29.093750,47.3,59.55
164388,2018-06-29 10:10:29.125000,44.64,59.55
164389,2018-06-29 10:10:29.156250,38.25,59.55
164390,2018-06-29 10:10:29.187500,27.69,59.55
164391,2018-06-29 10:10:29.218750,13.99,59.55
164392,2018-06-29 10:10:29.250000,-0.04,59.55
164393,2018-06-29 10:10:29.281250,-11.78,59.55
164394,2018-06-29 10:10:29.312500,-21.52,59.55
164395,2018-06-29 10:10:29.343750,-30.67,59.55
164396,2018-06-29 10:10:29.375000,-38.34,59.55
164397,2018-06-29 10:10:29.406250,-42.68,59.55
164398,2018-06-29 10:10:29.437500,-43.95,59.55
164399,2018-06-29 10:10:29.468750,-44.99,59.55
164400,2018-06-29 10:10:29.500000,-50.07,59.55
164401,2018-06-29 10:10:29.531250,-61.57,59.3
164402,2018-06-29 10:10:29.562500,-74.95,59.3
164403,2018-06-29 10:10:29.593750,-79.1,59.3
164404,2018-06-29 10:10:29.625000,-66.06,59.3
164405,2018-06-29 10:10:29.656250,-39.48,59.3
164406,2018-06-29 10:10:29.687500,-10.71,59.3
164407,2018-06-29 10:10:29.718750,12.45,59.3
164408,2018-06-29 10:10:29.750000,29.32,59.3
164409,2018-06-29 10:10:29.781250,40.92,59.3
164410,2018-06-29 10:10:29.812500,46.77,59.3
164411,2018-06-29 10:10:29.843750,47.69,59.3
164412,2018-06-29 10:10:29.875000,46.92,59.3
164413,2018-06-29 10:10:29.906250,46.86,59.3
164414,2018-06-29 10:10:29.937500,46.87,59.3
164415,2018-06-29 10:10:29.968750,45.79,59.3
164416,2018-06-29 10:10:30.000000,43.84,59.3
164417,2018-06-29 10:10:30.031250,40.49,59.3
164418,2018-06-29 10:10:30.062500,33.88,59.3
164419,2018-06-29 10:10:30.093750,24.37,59.3
164420,2018-06-29 10:10:30.125000,15.75,59.3
164421,2018-06-29 10:10:30.156250,10.86,59.3
164422,2018-06-29 10:10:30.187500,8.18,59.3
164423,2018-06-29 10:10:30.218750,4.96,59.3
164424,2018-06-29 10:10:30.250000,1.23,59.3
164425,2018-06-29 10:10:30.281250,-1.92,59.3
164426,2018-06-29 10:10:30.312500,-5.41,59.3
164427,2018-06-29 10:10:30.343750,-11.26,59.3
164428,2018-06-29 10:10:30.375000,-19.87,59.3
164429,2018-06-29 10:10:30.406250,-30.06,59.3
164430,2018-06-29 10:10:30.437500,-39.14,59.3
164431,2018-06-29 10:10:30.468750,-42.0,59.3
164432,2018-06-29 10:10:30.500000,-34.95,59.3
164433,2018-06-29 10:10:30.531250,-21.39,59.07
164434,2018-06-29 10:10:30.562500,-8.98,59.07
164435,2018-06-29 10:10:30.593750,-1.23,59.07
164436,2018-06-29 10:10:30.625000,3.05,59.07
164437,2018-06-29 10:10:30.656250,4.61,59.07
164438,2018-06-29 10:10:30.687500,3.41,59.07
164439,2018-06-29 10:10:30.718750,1.21,59.07
164440,2018-06-29 10:10:30.750000,0.67,59.07
164441,2018-06-29 10:10:30.781250,2.76,59.07
164442,2018-06-29 10:10:30.812500,6.58,59.07
164443,2018-06-29 10:10:30.843750,10.57,59.07
164444,2018-06-29 10:10:30.875000,13.38,59.07
164445,2018-06-29 10:10:30.906250,14.48,59.07
164446,2018-06-29 10:10:30.937500,14.13,59.07
164447,2018-06-29 10:10:30.968750,12.36,59.07
164448,2018-06-29 10:10:31.000000,8.69,59.07
164449,2018-06-29 10:10:31.031250,2.79,59.07
164450,2018-06-29 10:10:31.062500,-5.2,59.07
164451,2018-06-29 10:10:31.093750,-14.51,59.07
164452,2018-06-29 10:10:31.125000,-23.82,59.07
164453,2018-06-29 10:10:31.156250,-32.75,59.07
164454,2018-06-29 10:10:31.187500,-43.06,59.07
164455,2018-06-29 10:10:31.218750,-55.95,59.07
164456,2018-06-29 10:10:31.250000,-67.97,59.07
164457,2018-06-29 10:10:31.281250,-71.34,59.07
164458,2018-06-29 10:10:31.312500,-60.74,59.07
164459,2018-06-29 10:10:31.343750,-39.77,59.07
164460,2018-06-29 10:10:31.375000,-18.07,59.07
164461,2018-06-29 10:10:31.406250,-1.99,59.07
164462,2018-06-29 10:10:31.437500,8.45,59.07
164463,2018-06-29 10:10:31.468750,14.54,59.07
164464,2018-06-29 10:10:31.500000,16.35,59.07
164465,2018-06-29 10:10:31.531250,14.74,58.85
164466,2018-06-29 10:10:31.562500,11.71,58.85
164467,2018-06-29 10:10:31.593750,9.17,58.85
164468,2018-06-29 10:10:31.625000,8.22,58.85
164469,2018-06-29 10:10:31.656250,8.31,58.85
164470,2018-06-29 10:10:31.687500,8.06,58.85
164471,2018-06-29 10:10:31.718750,7.24,58.85
164472,2018-06-29 10:10:31.750000,6.23,58.85
164473,2018-06-29 10:10:31.781250,4.3,58.85
164474,2018-06-29 10:10:31.812500,0.73,58.85
164475,2018-06-29 10:10:31.843750,-3.79,58.85
164476,2018-06-29 10:10:31.875000,-8.68,58.85
164477,2018-06-29 10:10:31.906250,-14.62,58.85
164478,2018-06-29 10:10:31.937500,-22.16,58.85
164479,2018-06-29 10:10:31.968750,-31.23,58.85
164480,2018-06-29 10:10:32.000000,-41.49,58.85
164481,2018-06-29 10:10:32.031250,-49.61,58.85
164482,2018-06-29 10:10:32.062500,-48.33,58.85
164483,2018-06-29 10:10:32.093750,-33.77,58.85
164484,2018-06-29 10:10:32.125000,-11.51,58.85
164485,2018-06-29 10:10:32.156250,9.25,58.85
164486,2018-06-29 10:10:32.187500,24.5,58.85
164487,2018-06-29 10:10:32.218750,34.63,58.85
164488,2018-06-29 10:10:32.250000,39.1,58.85
164489,2018-06-29 10:10:32.281250,37.07,58.85
164490,2018-06-29 10:10:32.312500,30.92,58.85
164491,2018-06-29 10:10:32.343750,25.11,58.85
164492,2018-06-29 10:10:32.375000,22.04,58.85
164493,2018-06-29 10:10:32.406250,21.23,58.85
164494,2018-06-29 10:10:32.437500,21.14,58.85
164495,2018-06-29 10:10:32.468750,19.92,58.85
164496,2018-06-29 10:10:32.500000,16.34,58.85
164497,2018-06-29 10:10:32.531250,10.82,58.67
164498,2018-06-29 10:10:32.562500,4.28,58.67
164499,2018-06-29 10:10:32.593750,-2.67,58.67
164500,2018-06-29 10:10:32.625000,-9.41,58.67
164501,2018-06-29 10:10:32.656250,-15.84,58.67
164502,2018-06-29 10:10:32.687500,-22.64,58.67
164503,2018-06-29 10:10:32.718750,-30.03,58.67
164504,2018-06-29 10:10:32.750000,-37.52,58.67
164505,2018-06-29 10:10:32.781250,-44.63,58.67
164506,2018-06-29 10:10:32.812500,-48.79,58.67
164507,2018-06-29 10:10:32.843750,-44.48,58.67
164508,2018-06-29 10:10:32.875000,-29.42,58.67
164509,2018-06-29 10:10:32.906250,-9.64,58.67
164510,2018-06-29 10:10:32.937500,6.5,58.67
164511,2018-06-29 10:10:32.968750,16.05,58.67
164512,2018-06-29 10:10:33.000000,19.48,58.67
164513,2018-06-29 10:10:33.031250,16.94,58.67
164514,2018-06-29 10:10:33.062500,10.88,58.67
164515,2018-06-29 10:10:33.093750,6.68,58.67
164516,2018-06-29 10:10:33.125000,7.25,58.67
164517,2018-06-29 10:10:33.156250,10.54,58.67
164518,2018-06-29 10:10:33.187500,13.04,58.67
164519,2018-06-29 10:10:33.218750,13.36,58.67
164520,2018-06-29 10:10:33.250000,11.75,58.67
164521,2018-06-29 10:10:33.281250,7.91,58.67
164522,2018-06-29 10:10:33.312500,0.66,58.67
164523,2018-06-29 10:10:33.343750,-8.83,58.67
164524,2018-06-29 10:10:33.375000,-17.08,58.67
164525,2018-06-29 10:10:33.406250,-23.15,58.67
164526,2018-06-29 10:10:33.437500,-29.85,58.67
164527,2018-06-29 10:10:33.468750,-38.7,58.67
164528,2018-06-29 10:10:33.500000,-48.78,58.67
164529,2018-06-29 10:10:33.531250,-58.66,58.5
164530,2018-06-29 10:10:33.562500,-63.92,58.5
164531,2018-06-29 10:10:33.593750,-57.76,58.5
164532,2018-06-29 10:10:33.625000,-40.04,58.5
164533,2018-06-29 10:10:33.656250,-19.99,58.5
164534,2018-06-29 10:10:33.687500,-5.89,58.5
164535,2018-06-29 10:10:33.718750,2.05,58.5
164536,2018-06-29 10:10:33.750000,6.54,58.5
164537,2018-06-29 10:10:33.781250,7.61,58.5
164538,2018-06-29 10:10:33.812500,4.78,58.5
164539,2018-06-29 10:10:33.843750,0.38,58.5
164540,2018-06-29 10:10:33.875000,-2.65,58.5
164541,2018-06-29 10:10:33.906250,-4.06,58.5
164542,2018-06-29 10:10:33.937500,-5.45,58.5
164543,2018-06-29 10:10:33.968750,-7.94,58.5
164544,2018-06-29 10:10:34.000000,-11.89,58.5
164545,2018-06-29 10:10:34.031250,-16.94,58.5
164546,2018-06-29 10:10:34.062500,-20.57,58.5
164547,2018-06-29 10:10:34.093750,-18.91,58.5
164548,2018-06-29 10:10:34.125000,-10.62,58.5
164549,2018-06-29 10:10:34.156250,0.27,58.5
164550,2018-06-29 10:10:34.187500,7.19,58.5
164551,2018-06-29 10:10:34.218750,6.59,58.5
164552,2018-06-29 10:10:34.250000,-0.19,58.5
164553,2018-06-29 10:10:34.281250,-8.14,58.5
164554,2018-06-29 10:10:34.312500,-10.38,58.5
164555,2018-06-29 10:10:34.343750,-1.94,58.5
164556,2018-06-29 10:10:34.375000,14.9,58.5
164557,2018-06-29 10:10:34.406250,31.15,58.5
164558,2018-06-29 10:10:34.437500,39.61,58.5
164559,2018-06-29 10:10:34.468750,41.36,58.5
164560,2018-06-29 10:10:34.500000,41.44,58.5
164561,2018-06-29 10:10:34.531250,41.26,58.35
164562,2018-06-29 10:10:34.562500,39.7,58.35
164563,2018-06-29 10:10:34.593750,38.22,58.35
164564,2018-06-29 10:10:34.625000,40.19,58.35
164565,2018-06-29 10:10:34.656250,45.71,58.35
164566,2018-06-29 10:10:34.687500,50.38,58.35
164567,2018-06-29 10:10:34.718750,49.73,58.35
164568,2018-06-29 10:10:34.750000,43.16,58.35
164569,2018-06-29 10:10:34.781250,33.22,58.35
164570,2018-06-29 10:10:34.812500,22.51,58.35
164571,2018-06-29 10:10:34.843750,12.01,58.35
164572,2018-06-29 10:10:34.875000,1.55,58.35
164573,2018-06-29 10:10:34.906250,-9.43,58.35
164574,2018-06-29 10:10:34.937500,-20.61,58.35
164575,2018-06-29 10:10:34.968750,-30.97,58.35
164576,2018-06-29 10:10:35.000000,-40.95,58.35
164577,2018-06-29 10:10:35.031250,-52.81,58.35
164578,2018-06-29 10:10:35.062500,-65.98,58.35
164579,2018-06-29 10:10:35.093750,-73.17,58.35
164580,2018-06-29 10:10:35.125000,-65.86,58.35
164581,2018-06-29 10:10:35.156250,-44.83,58.35
164582,2018-06-29 10:10:35.187500,-20.42,58.35
164583,2018-06-29 10:10:35.218750,-1.01,58.35
164584,2018-06-29 10:10:35.250000,12.88,58.35
164585,2018-06-29 10:10:35.281250,22.97,58.35
164586,2018-06-29 10:10:35.312500,28.43,58.35
164587,2018-06-29 10:10:35.343750,29.01,58.35
164588,2018-06-29 10:10:35.375000,27.34,58.35
164589,2018-06-29 10:10:35.406250,26.35,58.35
164590,2018-06-29 10:10:35.437500,26.45,58.35
164591,2018-06-29 10:10:35.468750,26.46,58.35
164592,2018-06-29 10:10:35.500000,25.96,58.35
164593,2018-06-29 10:10:35.531250,25.11,58.23
164594,2018-06-29 10:10:35.562500,22.72,58.23
164595,2018-06-29 10:10:35.593750,17.09,58.23
164596,2018-06-29 10:10:35.625000,8.98,58.23
164597,2018-06-29 10:10:35.656250,0.73,58.23
164598,2018-06-29 10:10:35.687500,-6.89,58.23
164599,2018-06-29 10:10:35.718750,-14.71,58.23
164600,2018-06-29 10:10:35.750000,-23.31,58.23
164601,2018-06-29 10:10:35.781250,-31.83,58.23
164602,2018-06-29 10:10:35.812500,-38.13,58.23
164603,2018-06-29 10:10:35.843750,-41.03,58.23
164604,2018-06-29 10:10:35.875000,-42.76,58.23
164605,2018-06-29 10:10:35.906250,-47.46,58.23
164606,2018-06-29 10:10:35.937500,-56.81,58.23
164607,2018-06-29 10:10:35.968750,-66.51,58.23
164608,2018-06-29 10:10:36.000000,-66.87,58.23
164609,2018-06-29 10:10:36.031250,-51.43,58.23
164610,2018-06-29 10:10:36.062500,-25.09,58.23
164611,2018-06-29 10:10:36.093750,0.83,58.23
164612,2018-06-29 10:10:36.125000,20.17,58.23
164613,2018-06-29 10:10:36.156250,33.84,58.23
164614,2018-06-29 10:10:36.187500,43.73,58.23
164615,2018-06-29 10:10:36.218750,50.04,58.23
164616,2018-06-29 10:10:36.250000,52.64,58.23
164617,2018-06-29 10:10:36.281250,52.18,58.23
164618,2018-06-29 10:10:36.312500,50.11,58.23
164619,2018-06-29 10:10:36.343750,48.2,58.23
164620,2018-06-29 10:10:36.375000,47.65,58.23
164621,2018-06-29 10:10:36.406250,47.88,58.23
164622,2018-06-29 10:10:36.437500,46.18,58.23
164623,2018-06-29 10:10:36.468750,40.2,58.23
164624,2018-06-29 10:10:36.500000,30.74,58.23
164625,2018-06-29 10:10:36.531250,21.06,58.13
164626,2018-06-29 10:10:36.562500,13.11,58.13
164627,2018-06-29 10:10:36.593750,6.34,58.13
164628,2018-06-29 10:10:36.625000,0.11,58.13
164629,2018-06-29 10:10:36.656250,-5.12,58.13
164630,2018-06-29 10:10:36.687500,-9.73,58.13
164631,2018-06-29 10:10:36.718750,-15.22,58.13
164632,2018-06-29 10:10:36.750000,-21.85,58.13
164633,2018-06-29 10:10:36.781250,-28.43,58.13
164634,2018-06-29 10:10:36.812500,-34.56,58.13
164635,2018-06-29 10:10:36.843750,-41.39,58.13
164636,2018-06-29 10:10:36.875000,-50.98,58.13
164637,2018-06-29 10:10:36.906250,-64.1,58.13
164638,2018-06-29 10:10:36.937500,-75.62,58.13
164639,2018-06-29 10:10:36.968750,-75.21,58.13
164640,2018-06-29 10:10:37.000000,-57.31,58.13
164641,2018-06-29 10:10:37.031250,-28.54,58.13
164642,2018-06-29 10:10:37.062500,-1.17,58.13
164643,2018-06-29 10:10:37.093750,17.95,58.13
164644,2018-06-29 10:10:37.125000,28.95,58.13
164645,2018-06-29 10:10:37.156250,34.26,58.13
164646,2018-06-29 10:10:37.187500,36.11,58.13
164647,2018-06-29 10:10:37.218750,36.84,58.13
164648,2018-06-29 10:10:37.250000,38.28,58.13
164649,2018-06-29 10:10:37.281250,40.73,58.13
164650,2018-06-29 10:10:37.312500,43.43,58.13
164651,2018-06-29 10:10:37.343750,45.49,58.13
164652,2018-06-29 10:10:37.375000,46.36,58.13
164653,2018-06-29 10:10:37.406250,45.31,58.13
164654,2018-06-29 10:10:37.437500,41.48,58.13
164655,2018-06-29 10:10:37.468750,35.19,58.13
164656,2018-06-29 10:10:37.500000,28.45,58.13
164657,2018-06-29 10:10:37.531250,22.79,58.03
164658,2018-06-29 10:10:37.562500,17.33,58.03
164659,2018-06-29 10:10:37.593750,10.76,58.03
164660,2018-06-29 10:10:37.625000,3.9,58.03
164661,2018-06-29 10:10:37.656250,-2.0,58.03
164662,2018-06-29 10:10:37.687500,-8.05,58.03
164663,2018-06-29 10:10:37.718750,-15.93,58.03
164664,2018-06-29 10:10:37.750000,-24.73,58.03
164665,2018-06-29 10:10:37.781250,-32.58,58.03
164666,2018-06-29 10:10:37.812500,-39.83,58.03
164667,2018-06-29 10:10:37.843750,-48.67,58.03
164668,2018-06-29 10:10:37.875000,-60.05,58.03
164669,2018-06-29 10:10:37.906250,-70.82,58.03
164670,2018-06-29 10:10:37.937500,-73.19,58.03
164671,2018-06-29 10:10:37.968750,-60.94,58.03
164672,2018-06-29 10:10:38.000000,-37.45,58.03
164673,2018-06-29 10:10:38.031250,-13.17,58.03
164674,2018-06-29 10:10:38.062500,4.78,58.03
164675,2018-06-29 10:10:38.093750,16.33,58.03
164676,2018-06-29 10:10:38.125000,23.23,58.03
164677,2018-06-29 10:10:38.156250,25.63,58.03
164678,2018-06-29 10:10:38.187500,24.18,58.03
164679,2018-06-29 10:10:38.218750,21.53,58.03
164680,2018-06-29 10:10:38.250000,19.92,58.03
164681,2018-06-29 10:10:38.281250,18.88,58.03
164682,2018-06-29 10:10:38.312500,17.09,58.03
164683,2018-06-29 10:10:38.343750,14.86,58.03
164684,2018-06-29 10:10:38.375000,12.58,58.03
164685,2018-06-29 10:10:38.406250,8.95,58.03
164686,2018-06-29 10:10:38.437500,2.81,58.03
164687,2018-06-29 10:10:38.468750,-5.01,58.03
164688,2018-06-29 10:10:38.500000,-12.79,58.03
164689,2018-06-29 10:10:38.531250,-19.7,57.93
164690,2018-06-29 10:10:38.562500,-26.06,57.93
164691,2018-06-29 10:10:38.593750,-32.61,57.93
164692,2018-06-29 10:10:38.625000,-39.46,57.93
164693,2018-06-29 10:10:38.656250,-45.96,57.93
164694,2018-06-29 10:10:38.687500,-51.48,57.93
164695,2018-06-29 10:10:38.718750,-55.61,57.93
164696,2018-06-29 10:10:38.750000,-58.11,57.93
164697,2018-06-29 10:10:38.781250,-58.96,57.93
164698,2018-06-29 10:10:38.812500,-56.36,57.93
164699,2018-06-29 10:10:38.843750,-45.38,57.93
164700,2018-06-29 10:10:38.875000,-23.19,57.93
164701,2018-06-29 10:10:38.906250,5.04,57.93
164702,2018-06-29 10:10:38.937500,29.73,57.93
164703,2018-06-29 10:10:38.968750,45.78,57.93
164704,2018-06-29 10:10:39.000000,53.85,57.93
164705,2018-06-29 10:10:39.031250,55.02,57.93
164706,2018-06-29 10:10:39.062500,49.53,57.93
164707,2018-06-29 10:10:39.093750,40.41,57.93
164708,2018-06-29 10:10:39.125000,33.21,57.93
164709,2018-06-29 10:10:39.156250,30.32,57.93
164710,2018-06-29 10:10:39.187500,29.29,57.93
164711,2018-06-29 10:10:39.218750,27.7,57.93
164712,2018-06-29 10:10:39.250000,25.89,57.93
164713,2018-06-29 10:10:39.281250,23.9,57.93
164714,2018-06-29 10:10:39.312500,20.17,57.93
164715,2018-06-29 10:10:39.343750,14.79,57.93
164716,2018-06-29 10:10:39.375000,10.02,57.93
164717,2018-06-29 10:10:39.406250,6.53,57.93
164718,2018-06-29 10:10:39.437500,2.51,57.93
164719,2018-06-29 10:10:39.468750,-2.46,57.93
164720,2018-06-29 10:10:39.500000,-5.66,57.93
164721,2018-06-29 10:10:39.531250,-5.22,57.98
164722,2018-06-29 10:10:39.562500,-3.35,57.98
164723,2018-06-29 10:10:39.593750,-4.03,57.98
164724,2018-06-29 10:10:39.625000,-8.59,57.98
164725,2018-06-29 10:10:39.656250,-13.99,57.98
164726,2018-06-29 10:10:39.687500,-13.94,57.98
164727,2018-06-29 10:10:39.718750,-2.89,57.98
164728,2018-06-29 10:10:39.750000,18.6,57.98
164729,2018-06-29 10:10:39.781250,44.24,57.98
164730,2018-06-29 10:10:39.812500,68.62,57.98
164731,2018-06-29 10:10:39.843750,89.49,57.98
164732,2018-06-29 10:10:39.875000,103.44,57.98
164733,2018-06-29 10:10:39.906250,106.01,57.98
164734,2018-06-29 10:10:39.937500,97.51,57.98
164735,2018-06-29 10:10:39.968750,83.05,57.98
164736,2018-06-29 10:10:40.000000,66.86,57.98
164737,2018-06-29 10:10:40.031250,51.37,57.98
164738,2018-06-29 10:10:40.062500,39.99,57.98
164739,2018-06-29 10:10:40.093750,34.64,57.98
164740,2018-06-29 10:10:40.125000,31.91,57.98
164741,2018-06-29 10:10:40.156250,26.24,57.98
164742,2018-06-29 10:10:40.187500,15.88,57.98
164743,2018-06-29 10:10:40.218750,3.33,57.98
164744,2018-06-29 10:10:40.250000,-8.39,57.98
164745,2018-06-29 10:10:40.281250,-19.02,57.98
164746,2018-06-29 10:10:40.312500,-30.6,57.98
164747,2018-06-29 10:10:40.343750,-43.03,57.98
164748,2018-06-29 10:10:40.375000,-52.69,57.98
164749,2018-06-29 10:10:40.406250,-58.33,57.98
164750,2018-06-29 10:10:40.437500,-65.28,57.98
164751,2018-06-29 10:10:40.468750,-79.8,57.98
164752,2018-06-29 10:10:40.500000,-100.87,57.98
164753,2018-06-29 10:10:40.531250,-117.33,58.0
164754,2018-06-29 10:10:40.562500,-114.36,58.0
164755,2018-06-29 10:10:40.593750,-88.16,58.0
164756,2018-06-29 10:10:40.625000,-52.5,58.0
164757,2018-06-29 10:10:40.656250,-24.37,58.0
164758,2018-06-29 10:10:40.687500,-7.98,58.0
164759,2018-06-29 10:10:40.718750,1.8,58.0
164760,2018-06-29 10:10:40.750000,8.67,58.0
164761,2018-06-29 10:10:40.781250,13.98,58.0
164762,2018-06-29 10:10:40.812500,19.51,58.0
164763,2018-06-29 10:10:40.843750,26.33,58.0
164764,2018-06-29 10:10:40.875000,32.71,58.0
164765,2018-06-29 10:10:40.906250,35.01,58.0
164766,2018-06-29 10:10:40.937500,31.08,58.0
164767,2018-06-29 10:10:40.968750,21.94,58.0
164768,2018-06-29 10:10:41.000000,8.97,58.0
164769,2018-06-29 10:10:41.031250,-7.13,58.0
164770,2018-06-29 10:10:41.062500,-23.95,58.0
164771,2018-06-29 10:10:41.093750,-38.14,58.0
164772,2018-06-29 10:10:41.125000,-49.91,58.0
164773,2018-06-29 10:10:41.156250,-61.61,58.0
164774,2018-06-29 10:10:41.187500,-72.6,58.0
164775,2018-06-29 10:10:41.218750,-79.76,58.0
164776,2018-06-29 10:10:41.250000,-82.88,58.0
164777,2018-06-29 10:10:41.281250,-85.67,58.0
164778,2018-06-29 10:10:41.312500,-91.56,58.0
164779,2018-06-29 10:10:41.343750,-98.87,58.0
164780,2018-06-29 10:10:41.375000,-99.27,58.0
164781,2018-06-29 10:10:41.406250,-85.06,58.0
164782,2018-06-29 10:10:41.437500,-58.75,58.0
164783,2018-06-29 10:10:41.468750,-30.31,58.0
164784,2018-06-29 10:10:41.500000,-5.93,58.0
164785,2018-06-29 10:10:41.531250,13.69,58.07
164786,2018-06-29 10:10:41.562500,27.16,58.07
164787,2018-06-29 10:10:41.593750,33.27,58.07
164788,2018-06-29 10:10:41.625000,35.3,58.07
164789,2018-06-29 10:10:41.656250,37.78,58.07
164790,2018-06-29 10:10:41.687500,41.74,58.07
164791,2018-06-29 10:10:41.718750,45.71,58.07
164792,2018-06-29 10:10:41.750000,48.39,58.07
164793,2018-06-29 10:10:41.781250,48.41,58.07
164794,2018-06-29 10:10:41.812500,44.36,58.07
164795,2018-06-29 10:10:41.843750,35.76,58.07
164796,2018-06-29 10:10:41.875000,24.16,58.07
164797,2018-06-29 10:10:41.906250,12.64,58.07
164798,2018-06-29 10:10:41.937500,3.39,58.07
164799,2018-06-29 10:10:41.968750,-4.4,58.07
164800,2018-06-29 10:10:42.000000,-12.99,58.07
164801,2018-06-29 10:10:42.031250,-22.59,58.07
164802,2018-06-29 10:10:42.062500,-31.03,58.07
164803,2018-06-29 10:10:42.093750,-37.68,58.07
164804,2018-06-29 10:10:42.125000,-45.53,58.07
164805,2018-06-29 10:10:42.156250,-58.19,58.07
164806,2018-06-29 10:10:42.187500,-74.42,58.07
164807,2018-06-29 10:10:42.218750,-85.46,58.07
164808,2018-06-29 10:10:42.250000,-80.45,58.07
164809,2018-06-29 10:10:42.281250,-57.25,58.07
164810,2018-06-29 10:10:42.312500,-25.33,58.07
164811,2018-06-29 10:10:42.343750,3.91,58.07
164812,2018-06-29 10:10:42.375000,26.02,58.07
164813,2018-06-29 10:10:42.406250,41.65,58.07
164814,2018-06-29 10:10:42.437500,50.83,58.07
164815,2018-06-29 10:10:42.468750,52.93,58.07
164816,2018-06-29 10:10:42.500000,49.74,58.07
164817,2018-06-29 10:10:42.531250,45.53,58.12
164818,2018-06-29 10:10:42.562500,42.97,58.12
164819,2018-06-29 10:10:42.593750,41.51,58.12
164820,2018-06-29 10:10:42.625000,40.01,58.12
164821,2018-06-29 10:10:42.656250,37.78,58.12
164822,2018-06-29 10:10:42.687500,33.65,58.12
164823,2018-06-29 10:10:42.718750,27.12,58.12
164824,2018-06-29 10:10:42.750000,19.38,58.12
164825,2018-06-29 10:10:42.781250,11.3,58.12
164826,2018-06-29 10:10:42.812500,2.14,58.12
164827,2018-06-29 10:10:42.843750,-8.39,58.12
164828,2018-06-29 10:10:42.875000,-18.91,58.12
164829,2018-06-29 10:10:42.906250,-27.93,58.12
164830,2018-06-29 10:10:42.937500,-35.85,58.12
164831,2018-06-29 10:10:42.968750,-43.67,58.12
164832,2018-06-29 10:10:43.000000,-51.02,58.12
164833,2018-06-29 10:10:43.031250,-57.62,58.12
164834,2018-06-29 10:10:43.062500,-65.65,58.12
164835,2018-06-29 10:10:43.093750,-78.16,58.12
164836,2018-06-29 10:10:43.125000,-93.82,58.12
164837,2018-06-29 10:10:43.156250,-103.53,58.12
164838,2018-06-29 10:10:43.187500,-95.27,58.12
164839,2018-06-29 10:10:43.218750,-65.66,58.12
164840,2018-06-29 10:10:43.250000,-25.1,58.12
164841,2018-06-29 10:10:43.281250,11.95,58.12
164842,2018-06-29 10:10:43.312500,39.27,58.12
164843,2018-06-29 10:10:43.343750,58.13,58.12
164844,2018-06-29 10:10:43.375000,68.71,58.12
164845,2018-06-29 10:10:43.406250,69.32,58.12
164846,2018-06-29 10:10:43.437500,63.05,58.12
164847,2018-06-29 10:10:43.468750,58.0,58.12
164848,2018-06-29 10:10:43.500000,59.03,58.12
164849,2018-06-29 10:10:43.531250,64.37,58.17
164850,2018-06-29 10:10:43.562500,70.1,58.17
164851,2018-06-29 10:10:43.593750,73.18,58.17
164852,2018-06-29 10:10:43.625000,71.38,58.17
164853,2018-06-29 10:10:43.656250,65.24,58.17
164854,2018-06-29 10:10:43.687500,59.02,58.17
164855,2018-06-29 10:10:43.718750,56.36,58.17
164856,2018-06-29 10:10:43.750000,55.51,58.17
164857,2018-06-29 10:10:43.781250,51.23,58.17
164858,2018-06-29 10:10:43.812500,41.65,58.17
164859,2018-06-29 10:10:43.843750,30.66,58.17
164860,2018-06-29 10:10:43.875000,22.39,58.17
164861,2018-06-29 10:10:43.906250,15.1,58.17
164862,2018-06-29 10:10:43.937500,2.8,58.17
164863,2018-06-29 10:10:43.968750,-17.03,58.17
164864,2018-06-29 10:10:44.000000,-37.43,58.17
164865,2018-06-29 10:10:44.031250,-45.34,58.17
164866,2018-06-29 10:10:44.062500,-34.04,58.17
164867,2018-06-29 10:10:44.093750,-10.95,58.17
164868,2018-06-29 10:10:44.125000,11.05,58.17
164869,2018-06-29 10:10:44.156250,26.53,58.17
164870,2018-06-29 10:10:44.187500,37.34,58.17
164871,2018-06-29 10:10:44.218750,44.31,58.17
164872,2018-06-29 10:10:44.250000,45.91,58.17
164873,2018-06-29 10:10:44.281250,42.73,58.17
164874,2018-06-29 10:10:44.312500,38.98,58.17
164875,2018-06-29 10:10:44.343750,38.68,58.17
164876,2018-06-29 10:10:44.375000,42.11,58.17
164877,2018-06-29 10:10:44.406250,47.72,58.17
164878,2018-06-29 10:10:44.437500,56.11,58.17
164879,2018-06-29 10:10:44.468750,68.88,58.17
164880,2018-06-29 10:10:44.500000,84.25,58.17
164881,2018-06-29 10:10:44.531250,98.14,58.22
164882,2018-06-29 10:10:44.562500,109.66,58.22
164883,2018-06-29 10:10:44.593750,120.77,58.22
164884,2018-06-29 10:10:44.625000,129.37,58.22
164885,2018-06-29 10:10:44.656250,127.23,58.22
164886,2018-06-29 10:10:44.687500,107.23,58.22
164887,2018-06-29 10:10:44.718750,70.92,58.22
164888,2018-06-29 10:10:44.750000,28.48,58.22
164889,2018-06-29 10:10:44.781250,-8.22,58.22
164890,2018-06-29 10:10:44.812500,-35.14,58.22
164891,2018-06-29 10:10:44.843750,-58.74,58.22
164892,2018-06-29 10:10:44.875000,-82.5,58.22
164893,2018-06-29 10:10:44.906250,-94.13,58.22
164894,2018-06-29 10:10:44.937500,-79.06,58.22
164895,2018-06-29 10:10:44.968750,-43.34,58.22
164896,2018-06-29 10:10:45.000000,-8.12,58.22
164897,2018-06-29 10:10:45.031250,14.16,58.22
164898,2018-06-29 10:10:45.062500,23.97,58.22
164899,2018-06-29 10:10:45.093750,22.06,58.22
164900,2018-06-29 10:10:45.125000,8.3,58.22
164901,2018-06-29 10:10:45.156250,-11.37,58.22
164902,2018-06-29 10:10:45.187500,-28.72,58.22
164903,2018-06-29 10:10:45.218750,-40.98,58.22
164904,2018-06-29 10:10:45.250000,-47.81,58.22
164905,2018-06-29 10:10:45.281250,-45.4,58.22
164906,2018-06-29 10:10:45.312500,-31.79,58.22
164907,2018-06-29 10:10:45.343750,-11.22,58.22
164908,2018-06-29 10:10:45.375000,10.4,58.22
164909,2018-06-29 10:10:45.406250,28.58,58.22
164910,2018-06-29 10:10:45.437500,39.02,58.22
164911,2018-06-29 10:10:45.468750,38.11,58.22
164912,2018-06-29 10:10:45.500000,23.82,58.22
164913,2018-06-29 10:10:45.531250,-3.11,58.28
164914,2018-06-29 10:10:45.562500,-35.79,58.28
164915,2018-06-29 10:10:45.593750,-63.74,58.28
164916,2018-06-29 10:10:45.625000,-82.13,58.28
164917,2018-06-29 10:10:45.656250,-94.85,58.28
164918,2018-06-29 10:10:45.687500,-108.15,58.28
164919,2018-06-29 10:10:45.718750,-120.82,58.28
164920,2018-06-29 10:10:45.750000,-119.47,58.28
164921,2018-06-29 10:10:45.781250,-91.61,58.28
164922,2018-06-29 10:10:45.812500,-45.14,58.28
164923,2018-06-29 10:10:45.843750,-2.51,58.28
164924,2018-06-29 10:10:45.875000,24.09,58.28
164925,2018-06-29 10:10:45.906250,37.66,58.28
164926,2018-06-29 10:10:45.937500,41.22,58.28
164927,2018-06-29 10:10:45.968750,34.65,58.28
164928,2018-06-29 10:10:46.000000,21.76,58.28
164929,2018-06-29 10:10:46.031250,7.51,58.28
164930,2018-06-29 10:10:46.062500,-7.26,58.28
164931,2018-06-29 10:10:46.093750,-21.27,58.28
164932,2018-06-29 10:10:46.125000,-29.67,58.28
164933,2018-06-29 10:10:46.156250,-30.54,58.28
164934,2018-06-29 10:10:46.187500,-28.16,58.28
164935,2018-06-29 10:10:46.218750,-25.97,58.28
164936,2018-06-29 10:10:46.250000,-22.26,58.28
164937,2018-06-29 10:10:46.281250,-17.23,58.28
164938,2018-06-29 10:10:46.312500,-18.33,58.28
164939,2018-06-29 10:10:46.343750,-29.94,58.28
164940,2018-06-29 10:10:46.375000,-43.43,58.28
164941,2018-06-29 10:10:46.406250,-48.78,58.28
164942,2018-06-29 10:10:46.437500,-51.07,58.28
164943,2018-06-29 10:10:46.468750,-66.07,58.28
164944,2018-06-29 10:10:46.500000,-101.97,58.28
164945,2018-06-29 10:10:46.531250,-141.96,58.37
164946,2018-06-29 10:10:46.562500,-146.46,58.37
164947,2018-06-29 10:10:46.593750,-98.76,58.37
164948,2018-06-29 10:10:46.625000,-40.63,58.37
164949,2018-06-29 10:10:46.656250,-24.66,58.37
164950,2018-06-29 10:10:46.687500,-51.99,58.37
164951,2018-06-29 10:10:46.718750,-94.44,58.37
164952,2018-06-29 10:10:46.750000,-140.55,58.37
164953,2018-06-29 10:10:46.781250,-183.62,58.37
164954,2018-06-29 10:10:46.812500,-207.17,58.37
164955,2018-06-29 10:10:46.843750,-208.05,58.37
164956,2018-06-29 10:10:46.875000,-199.79,58.37
164957,2018-06-29 10:10:46.906250,-187.78,58.37
164958,2018-06-29 10:10:46.937500,-167.2,58.37
164959,2018-06-29 10:10:46.968750,-141.57,58.37
164960,2018-06-29 10:10:47.000000,-121.68,58.37
164961,2018-06-29 10:10:47.031250,-108.38,58.37
164962,2018-06-29 10:10:47.062500,-92.44,58.37
164963,2018-06-29 10:10:47.093750,-68.64,58.37
164964,2018-06-29 10:10:47.125000,-39.14,58.37
164965,2018-06-29 10:10:47.156250,-4.79,58.37
164966,2018-06-29 10:10:47.187500,37.7,58.37
164967,2018-06-29 10:10:47.218750,88.06,58.37
164968,2018-06-29 10:10:47.250000,137.66,58.37
164969,2018-06-29 10:10:47.281250,175.75,58.37
164970,2018-06-29 10:10:47.312500,200.85,58.37
164971,2018-06-29 10:10:47.343750,224.35,58.37
164972,2018-06-29 10:10:47.375000,258.28,58.37
164973,2018-06-29 10:10:47.406250,299.73,58.37
164974,2018-06-29 10:10:47.437500,332.49,58.37
164975,2018-06-29 10:10:47.468750,343.16,58.37
164976,2018-06-29 10:10:47.500000,328.76,58.37
164977,2018-06-29 10:10:47.531250,289.58,58.43
164978,2018-06-29 10:10:47.562500,225.42,58.43
164979,2018-06-29 10:10:47.593750,140.92,58.43
164980,2018-06-29 10:10:47.625000,48.21,58.43
164981,2018-06-29 10:10:47.656250,-40.17,58.43
164982,2018-06-29 10:10:47.687500,-118.5,58.43
164983,2018-06-29 10:10:47.718750,-187.04,58.43
164984,2018-06-29 10:10:47.750000,-245.83,58.43
164985,2018-06-29 10:10:47.781250,-287.98,58.43
164986,2018-06-29 10:10:47.812500,-300.5,58.43
164987,2018-06-29 10:10:47.843750,-276.63,58.43
164988,2018-06-29 10:10:47.875000,-225.27,58.43
164989,2018-06-29 10:10:47.906250,-162.14,58.43
164990,2018-06-29 10:10:47.937500,-98.22,58.43
164991,2018-06-29 10:10:47.968750,-40.42,58.43
164992,2018-06-29 10:10:48.000000,6.59,58.43
164993,2018-06-29 10:10:48.031250,40.65,58.43
164994,2018-06-29 10:10:48.062500,60.84,58.43
164995,2018-06-29 10:10:48.093750,72.28,58.43
164996,2018-06-29 10:10:48.125000,89.39,58.43
164997,2018-06-29 10:10:48.156250,123.43,58.43
164998,2018-06-29 10:10:48.187500,170.38,58.43
164999,2018-06-29 10:10:48.218750,216.24,58.43
165000,2018-06-29 10:10:48.250000,244.4,58.43
165001,2018-06-29 10:10:48.281250,241.55,58.43
165002,2018-06-29 10:10:48.312500,209.91,58.43
165003,2018-06-29 10:10:48.343750,170.99,58.43
165004,2018-06-29 10:10:48.375000,148.19,58.43
165005,2018-06-29 10:10:48.406250,147.16,58.43
165006,2018-06-29 10:10:48.437500,156.11,58.43
165007,2018-06-29 10:10:48.468750,160.35,58.43
165008,2018-06-29 10:10:48.500000,153.83,58.43
165009,2018-06-29 10:10:48.531250,138.82,58.48
165010,2018-06-29 10:10:48.562500,116.96,58.48
165011,2018-06-29 10:10:48.593750,85.62,58.48
165012,2018-06-29 10:10:48.625000,44.6,58.48
165013,2018-06-29 10:10:48.656250,-0.89,58.48
165014,2018-06-29 10:10:48.687500,-45.44,58.48
165015,2018-06-29 10:10:48.718750,-85.8,58.48
165016,2018-06-29 10:10:48.750000,-119.06,58.48
165017,2018-06-29 10:10:48.781250,-144.6,58.48
165018,2018-06-29 10:10:48.812500,-165.87,58.48
165019,2018-06-29 10:10:48.843750,-184.77,58.48
165020,2018-06-29 10:10:48.875000,-195.53,58.48
165021,2018-06-29 10:10:48.906250,-188.71,58.48
165022,2018-06-29 10:10:48.937500,-161.87,58.48
165023,2018-06-29 10:10:48.968750,-122.01,58.48
165024,2018-06-29 10:10:49.000000,-75.31,58.48
165025,2018-06-29 10:10:49.031250,-22.48,58.48
165026,2018-06-29 10:10:49.062500,32.86,58.48
165027,2018-06-29 10:10:49.093750,80.86,58.48
165028,2018-06-29 10:10:49.125000,113.93,58.48
165029,2018-06-29 10:10:49.156250,131.14,58.48
165030,2018-06-29 10:10:49.187500,135.7,58.48
165031,2018-06-29 10:10:49.218750,133.8,58.48
165032,2018-06-29 10:10:49.250000,131.05,58.48
165033,2018-06-29 10:10:49.281250,126.28,58.48
165034,2018-06-29 10:10:49.312500,113.96,58.48
165035,2018-06-29 10:10:49.343750,93.37,58.48
165036,2018-06-29 10:10:49.375000,71.34,58.48
165037,2018-06-29 10:10:49.406250,55.58,58.48
165038,2018-06-29 10:10:49.437500,46.49,58.48
165039,2018-06-29 10:10:49.468750,38.27,58.48
165040,2018-06-29 10:10:49.500000,29.82,58.48
165041,2018-06-29 10:10:49.531250,27.05,58.53
165042,2018-06-29 10:10:49.562500,31.24,58.53
165043,2018-06-29 10:10:49.593750,35.86,58.53
165044,2018-06-29 10:10:49.625000,35.95,58.53
165045,2018-06-29 10:10:49.656250,30.22,58.53
165046,2018-06-29 10:10:49.687500,19.04,58.53
165047,2018-06-29 10:10:49.718750,8.61,58.53
165048,2018-06-29 10:10:49.750000,6.6,58.53
165049,2018-06-29 10:10:49.781250,12.65,58.53
165050,2018-06-29 10:10:49.812500,23.9,58.53
165051,2018-06-29 10:10:49.843750,41.6,58.53
165052,2018-06-29 10:10:49.875000,63.3,58.53
165053,2018-06-29 10:10:49.906250,82.43,58.53
165054,2018-06-29 10:10:49.937500,97.61,58.53
165055,2018-06-29 10:10:49.968750,108.65,58.53
165056,2018-06-29 10:10:50.000000,110.33,58.53
165057,2018-06-29 10:10:50.031250,101.54,58.53
165058,2018-06-29 10:10:50.062500,87.5,58.53
165059,2018-06-29 10:10:50.093750,69.0,58.53
165060,2018-06-29 10:10:50.125000,43.59,58.53
165061,2018-06-29 10:10:50.156250,14.54,58.53
165062,2018-06-29 10:10:50.187500,-13.29,58.53
165063,2018-06-29 10:10:50.218750,-40.15,58.53
165064,2018-06-29 10:10:50.250000,-67.23,58.53
165065,2018-06-29 10:10:50.281250,-93.57,58.53
165066,2018-06-29 10:10:50.312500,-119.18,58.53
165067,2018-06-29 10:10:50.343750,-143.05,58.53
165068,2018-06-29 10:10:50.375000,-159.4,58.53
165069,2018-06-29 10:10:50.406250,-163.39,58.53
165070,2018-06-29 10:10:50.437500,-159.17,58.53
165071,2018-06-29 10:10:50.468750,-157.29,58.53
165072,2018-06-29 10:10:50.500000,-163.76,58.53
165073,2018-06-29 10:10:50.531250,-172.88,58.6
165074,2018-06-29 10:10:50.562500,-169.54,58.6
165075,2018-06-29 10:10:50.593750,-140.18,58.6
165076,2018-06-29 10:10:50.625000,-84.89,58.6
165077,2018-06-29 10:10:50.656250,-18.16,58.6
165078,2018-06-29 10:10:50.687500,44.41,58.6
165079,2018-06-29 10:10:50.718750,96.25,58.6
165080,2018-06-29 10:10:50.750000,136.03,58.6
165081,2018-06-29 10:10:50.781250,160.45,58.6
165082,2018-06-29 10:10:50.812500,162.09,58.6
165083,2018-06-29 10:10:50.843750,134.27,58.6
165084,2018-06-29 10:10:50.875000,82.43,58.6
165085,2018-06-29 10:10:50.906250,26.89,58.6
165086,2018-06-29 10:10:50.937500,-14.82,58.6
165087,2018-06-29 10:10:50.968750,-44.45,58.6
165088,2018-06-29 10:10:51.000000,-73.78,58.6
165089,2018-06-29 10:10:51.031250,-107.72,58.6
165090,2018-06-29 10:10:51.062500,-145.71,58.6
165091,2018-06-29 10:10:51.093750,-188.41,58.6
165092,2018-06-29 10:10:51.125000,-232.44,58.6
165093,2018-06-29 10:10:51.156250,-266.13,58.6
165094,2018-06-29 10:10:51.187500,-279.44,58.6
165095,2018-06-29 10:10:51.218750,-273.5,58.6
165096,2018-06-29 10:10:51.250000,-256.71,58.6
165097,2018-06-29 10:10:51.281250,-236.16,58.6
165098,2018-06-29 10:10:51.312500,-216.91,58.6
165099,2018-06-29 10:10:51.343750,-204.0,58.6
165100,2018-06-29 10:10:51.375000,-195.89,58.6
165101,2018-06-29 10:10:51.406250,-178.77,58.6
165102,2018-06-29 10:10:51.437500,-140.94,58.6
165103,2018-06-29 10:10:51.468750,-90.11,58.6
165104,2018-06-29 10:10:51.500000,-44.3,58.6
165105,2018-06-29 10:10:51.531250,-10.46,58.67
165106,2018-06-29 10:10:51.562500,20.48,58.67
165107,2018-06-29 10:10:51.593750,61.62,58.67
165108,2018-06-29 10:10:51.625000,111.08,58.67
165109,2018-06-29 10:10:51.656250,143.95,58.67
165110,2018-06-29 10:10:51.687500,136.67,58.67
165111,2018-06-29 10:10:51.718750,96.38,58.67
165112,2018-06-29 10:10:51.750000,49.79,58.67
165113,2018-06-29 10:10:51.781250,14.34,58.67
165114,2018-06-29 10:10:51.812500,-4.11,58.67
165115,2018-06-29 10:10:51.843750,-2.45,58.67
165116,2018-06-29 10:10:51.875000,15.04,58.67
165117,2018-06-29 10:10:51.906250,35.87,58.67
165118,2018-06-29 10:10:51.937500,51.41,58.67
165119,2018-06-29 10:10:51.968750,62.93,58.67
165120,2018-06-29 10:10:52.000000,75.03,58.67
165121,2018-06-29 10:10:52.031250,86.34,58.67
165122,2018-06-29 10:10:52.062500,89.23,58.67
165123,2018-06-29 10:10:52.093750,80.37,58.67
165124,2018-06-29 10:10:52.125000,67.2,58.67
165125,2018-06-29 10:10:52.156250,60.69,58.67
165126,2018-06-29 10:10:52.187500,69.47,58.67
165127,2018-06-29 10:10:52.218750,99.96,58.67
165128,2018-06-29 10:10:52.250000,150.42,58.67
165129,2018-06-29 10:10:52.281250,206.1,58.67
165130,2018-06-29 10:10:52.312500,249.45,58.67
165131,2018-06-29 10:10:52.343750,270.86,58.67
165132,2018-06-29 10:10:52.375000,268.04,58.67
165133,2018-06-29 10:10:52.406250,245.37,58.67
165134,2018-06-29 10:10:52.437500,212.44,58.67
165135,2018-06-29 10:10:52.468750,174.2,58.67
165136,2018-06-29 10:10:52.500000,127.94,58.67
165137,2018-06-29 10:10:52.531250,71.57,58.85
165138,2018-06-29 10:10:52.562500,9.78,58.85
165139,2018-06-29 10:10:52.593750,-46.3,58.85
165140,2018-06-29 10:10:52.625000,-85.55,58.85
165141,2018-06-29 10:10:52.656250,-109.13,58.85
165142,2018-06-29 10:10:52.687500,-132.1,58.85
165143,2018-06-29 10:10:52.718750,-166.0,58.85
165144,2018-06-29 10:10:52.750000,-208.54,58.85
165145,2018-06-29 10:10:52.781250,-254.31,58.85
165146,2018-06-29 10:10:52.812500,-303.11,58.85
165147,2018-06-29 10:10:52.843750,-355.59,58.85
165148,2018-06-29 10:10:52.875000,-405.75,58.85
165149,2018-06-29 10:10:52.906250,-433.14,58.85
165150,2018-06-29 10:10:52.937500,-406.65,58.85
165151,2018-06-29 10:10:52.968750,-312.69,58.85
165152,2018-06-29 10:10:53.000000,-176.11,58.85
165153,2018-06-29 10:10:53.031250,-35.56,58.85
165154,2018-06-29 10:10:53.062500,93.26,58.85
165155,2018-06-29 10:10:53.093750,212.12,58.85
165156,2018-06-29 10:10:53.125000,311.52,58.85
165157,2018-06-29 10:10:53.156250,371.98,58.85
165158,2018-06-29 10:10:53.187500,389.83,58.85
165159,2018-06-29 10:10:53.218750,384.88,58.85
165160,2018-06-29 10:10:53.250000,381.94,58.85
165161,2018-06-29 10:10:53.281250,390.53,58.85
165162,2018-06-29 10:10:53.312500,399.66,58.85
165163,2018-06-29 10:10:53.343750,390.72,58.85
165164,2018-06-29 10:10:53.375000,354.86,58.85
165165,2018-06-29 10:10:53.406250,294.21,58.85
165166,2018-06-29 10:10:53.437500,211.6,58.85
165167,2018-06-29 10:10:53.468750,112.36,58.85
165168,2018-06-29 10:10:53.500000,11.3,58.85
165169,2018-06-29 10:10:53.531250,-77.09,58.98
165170,2018-06-29 10:10:53.562500,-151.56,58.98
165171,2018-06-29 10:10:53.593750,-219.6,58.98
165172,2018-06-29 10:10:53.625000,-289.25,58.98
165173,2018-06-29 10:10:53.656250,-367.54,58.98
165174,2018-06-29 10:10:53.687500,-441.37,58.98
165175,2018-06-29 10:10:53.718750,-464.46,58.98
165176,2018-06-29 10:10:53.750000,-402.88,58.98
165177,2018-06-29 10:10:53.781250,-282.65,58.98
165178,2018-06-29 10:10:53.812500,-155.99,58.98
165179,2018-06-29 10:10:53.843750,-47.69,58.98
165180,2018-06-29 10:10:53.875000,33.62,58.98
165181,2018-06-29 10:10:53.906250,73.51,58.98
165182,2018-06-29 10:10:53.937500,71.55,58.98
165183,2018-06-29 10:10:53.968750,48.24,58.98
165184,2018-06-29 10:10:54.000000,18.89,58.98
165185,2018-06-29 10:10:54.031250,-13.53,58.98
165186,2018-06-29 10:10:54.062500,-41.48,58.98
165187,2018-06-29 10:10:54.093750,-52.84,58.98
165188,2018-06-29 10:10:54.125000,-45.87,58.98
165189,2018-06-29 10:10:54.156250,-29.71,58.98
165190,2018-06-29 10:10:54.187500,-13.37,58.98
165191,2018-06-29 10:10:54.218750,-1.66,58.98
165192,2018-06-29 10:10:54.250000,2.3,58.98
165193,2018-06-29 10:10:54.281250,-4.71,58.98
165194,2018-06-29 10:10:54.312500,-23.61,58.98
165195,2018-06-29 10:10:54.343750,-48.8,58.98
165196,2018-06-29 10:10:54.375000,-72.04,58.98
165197,2018-06-29 10:10:54.406250,-93.01,58.98
165198,2018-06-29 10:10:54.437500,-117.55,58.98
165199,2018-06-29 10:10:54.468750,-140.95,58.98
165200,2018-06-29 10:10:54.500000,-142.66,58.98
165201,2018-06-29 10:10:54.531250,-108.02,59.12
165202,2018-06-29 10:10:54.562500,-47.96,59.12
165203,2018-06-29 10:10:54.593750,15.22,59.12
165204,2018-06-29 10:10:54.625000,72.38,59.12
165205,2018-06-29 10:10:54.656250,123.16,59.12
165206,2018-06-29 10:10:54.687500,160.84,59.12
165207,2018-06-29 10:10:54.718750,179.83,59.12
165208,2018-06-29 10:10:54.750000,188.72,59.12
165209,2018-06-29 10:10:54.781250,202.49,59.12
165210,2018-06-29 10:10:54.812500,225.88,59.12
165211,2018-06-29 10:10:54.843750,251.28,59.12
165212,2018-06-29 10:10:54.875000,271.2,59.12
165213,2018-06-29 10:10:54.906250,283.88,59.12
165214,2018-06-29 10:10:54.937500,284.94,59.12
165215,2018-06-29 10:10:54.968750,267.27,59.12
165216,2018-06-29 10:10:55.000000,235.85,59.12
165217,2018-06-29 10:10:55.031250,207.9,59.12
165218,2018-06-29 10:10:55.062500,191.59,59.12
165219,2018-06-29 10:10:55.093750,178.55,59.12
165220,2018-06-29 10:10:55.125000,160.7,59.12
165221,2018-06-29 10:10:55.156250,140.05,59.12
165222,2018-06-29 10:10:55.187500,120.18,59.12
165223,2018-06-29 10:10:55.218750,99.3,59.12
165224,2018-06-29 10:10:55.250000,73.55,59.12
165225,2018-06-29 10:10:55.281250,41.8,59.12
165226,2018-06-29 10:10:55.312500,6.35,59.12
165227,2018-06-29 10:10:55.343750,-32.45,59.12
165228,2018-06-29 10:10:55.375000,-80.45,59.12
165229,2018-06-29 10:10:55.406250,-141.06,59.12
165230,2018-06-29 10:10:55.437500,-204.38,59.12
165231,2018-06-29 10:10:55.468750,-250.92,59.12
165232,2018-06-29 10:10:55.500000,-262.29,59.12
165233,2018-06-29 10:10:55.531250,-231.71,59.23
165234,2018-06-29 10:10:55.562500,-173.35,59.23
165235,2018-06-29 10:10:55.593750,-115.28,59.23
165236,2018-06-29 10:10:55.625000,-76.25,59.23
165237,2018-06-29 10:10:55.656250,-57.11,59.23
165238,2018-06-29 10:10:55.687500,-50.57,59.23
165239,2018-06-29 10:10:55.718750,-46.95,59.23
165240,2018-06-29 10:10:55.750000,-38.1,59.23
165241,2018-06-29 10:10:55.781250,-26.11,59.23
165242,2018-06-29 10:10:55.812500,-20.66,59.23
165243,2018-06-29 10:10:55.843750,-25.03,59.23
165244,2018-06-29 10:10:55.875000,-34.09,59.23
165245,2018-06-29 10:10:55.906250,-44.02,59.23
165246,2018-06-29 10:10:55.937500,-53.6,59.23
165247,2018-06-29 10:10:55.968750,-58.87,59.23
165248,2018-06-29 10:10:56.000000,-57.29,59.23
165249,2018-06-29 10:10:56.031250,-55.75,59.23
165250,2018-06-29 10:10:56.062500,-64.86,59.23
165251,2018-06-29 10:10:56.093750,-84.72,59.23
165252,2018-06-29 10:10:56.125000,-104.17,59.23
165253,2018-06-29 10:10:56.156250,-116.71,59.23
165254,2018-06-29 10:10:56.187500,-129.32,59.23
165255,2018-06-29 10:10:56.218750,-150.7,59.23
165256,2018-06-29 10:10:56.250000,-177.55,59.23
165257,2018-06-29 10:10:56.281250,-195.65,59.23
165258,2018-06-29 10:10:56.312500,-189.21,59.23
165259,2018-06-29 10:10:56.343750,-152.6,59.23
165260,2018-06-29 10:10:56.375000,-98.79,59.23
165261,2018-06-29 10:10:56.406250,-51.35,59.23
165262,2018-06-29 10:10:56.437500,-24.89,59.23
165263,2018-06-29 10:10:56.468750,-17.99,59.23
165264,2018-06-29 10:10:56.500000,-21.94,59.23
165265,2018-06-29 10:10:56.531250,-27.78,59.38
165266,2018-06-29 10:10:56.562500,-28.23,59.38
165267,2018-06-29 10:10:56.593750,-20.6,59.38
165268,2018-06-29 10:10:56.625000,-6.55,59.38
165269,2018-06-29 10:10:56.656250,11.85,59.38
165270,2018-06-29 10:10:56.687500,31.42,59.38
165271,2018-06-29 10:10:56.718750,43.24,59.38
165272,2018-06-29 10:10:56.750000,39.01,59.38
165273,2018-06-29 10:10:56.781250,23.17,59.38
165274,2018-06-29 10:10:56.812500,8.13,59.38
165275,2018-06-29 10:10:56.843750,-0.86,59.38
165276,2018-06-29 10:10:56.875000,-6.53,59.38
165277,2018-06-29 10:10:56.906250,-11.8,59.38
165278,2018-06-29 10:10:56.937500,-18.84,59.38
165279,2018-06-29 10:10:56.968750,-28.97,59.38
165280,2018-06-29 10:10:57.000000,-40.85,59.38
165281,2018-06-29 10:10:57.031250,-55.37,59.38
165282,2018-06-29 10:10:57.062500,-78.6,59.38
165283,2018-06-29 10:10:57.093750,-111.2,59.38
165284,2018-06-29 10:10:57.125000,-138.93,59.38
165285,2018-06-29 10:10:57.156250,-143.02,59.38
165286,2018-06-29 10:10:57.187500,-118.93,59.38
165287,2018-06-29 10:10:57.218750,-79.17,59.38
165288,2018-06-29 10:10:57.250000,-41.18,59.38
165289,2018-06-29 10:10:57.281250,-17.76,59.38
165290,2018-06-29 10:10:57.312500,-14.08,59.38
165291,2018-06-29 10:10:57.343750,-26.77,59.38
165292,2018-06-29 10:10:57.375000,-46.49,59.38
165293,2018-06-29 10:10:57.406250,-63.79,59.38
165294,2018-06-29 10:10:57.437500,-73.88,59.38
165295,2018-06-29 10:10:57.468750,-77.81,59.38
165296,2018-06-29 10:10:57.500000,-77.8,59.38
165297,2018-06-29 10:10:57.531250,-71.72,59.55
165298,2018-06-29 10:10:57.562500,-58.74,59.55
165299,2018-06-29 10:10:57.593750,-46.14,59.55
165300,2018-06-29 10:10:57.625000,-40.54,59.55
165301,2018-06-29 10:10:57.656250,-37.5,59.55
165302,2018-06-29 10:10:57.687500,-28.62,59.55
165303,2018-06-29 10:10:57.718750,-10.97,59.55
165304,2018-06-29 10:10:57.750000,15.84,59.55
165305,2018-06-29 10:10:57.781250,50.36,59.55
165306,2018-06-29 10:10:57.812500,82.11,59.55
165307,2018-06-29 10:10:57.843750,93.65,59.55
165308,2018-06-29 10:10:57.875000,76.5,59.55
165309,2018-06-29 10:10:57.906250,42.73,59.55
165310,2018-06-29 10:10:57.937500,16.94,59.55
165311,2018-06-29 10:10:57.968750,15.2,59.55
165312,2018-06-29 10:10:58.000000,32.95,59.55
165313,2018-06-29 10:10:58.031250,55.51,59.55
165314,2018-06-29 10:10:58.062500,74.93,59.55
165315,2018-06-29 10:10:58.093750,90.26,59.55
165316,2018-06-29 10:10:58.125000,98.76,59.55
165317,2018-06-29 10:10:58.156250,98.65,59.55
165318,2018-06-29 10:10:58.187500,96.07,59.55
165319,2018-06-29 10:10:58.218750,98.64,59.55
165320,2018-06-29 10:10:58.250000,107.67,59.55
165321,2018-06-29 10:10:58.281250,121.03,59.55
165322,2018-06-29 10:10:58.312500,135.38,59.55
165323,2018-06-29 10:10:58.343750,144.55,59.55
165324,2018-06-29 10:10:58.375000,144.44,59.55
165325,2018-06-29 10:10:58.406250,138.75,59.55
165326,2018-06-29 10:10:58.437500,132.74,59.55
165327,2018-06-29 10:10:58.468750,125.81,59.55
165328,2018-06-29 10:10:58.500000,114.56,59.55
165329,2018-06-29 10:10:58.531250,98.11,59.73
165330,2018-06-29 10:10:58.562500,78.27,59.73
165331,2018-06-29 10:10:58.593750,57.24,59.73
165332,2018-06-29 10:10:58.625000,37.02,59.73
165333,2018-06-29 10:10:58.656250,19.26,59.73
165334,2018-06-29 10:10:58.687500,4.43,59.73
165335,2018-06-29 10:10:58.718750,-6.31,59.73
165336,2018-06-29 10:10:58.750000,-6.35,59.73
165337,2018-06-29 10:10:58.781250,14.33,59.73
165338,2018-06-29 10:10:58.812500,57.63,59.73
165339,2018-06-29 10:10:58.843750,113.21,59.73
165340,2018-06-29 10:10:58.875000,170.39,59.73
165341,2018-06-29 10:10:58.906250,226.76,59.73
165342,2018-06-29 10:10:58.937500,281.64,59.73
165343,2018-06-29 10:10:58.968750,329.98,59.73
165344,2018-06-29 10:10:59.000000,366.43,59.73
165345,2018-06-29 10:10:59.031250,386.63,59.73
165346,2018-06-29 10:10:59.062500,385.4,59.73
165347,2018-06-29 10:10:59.093750,363.37,59.73
165348,2018-06-29 10:10:59.125000,330.72,59.73
165349,2018-06-29 10:10:59.156250,296.48,59.73
165350,2018-06-29 10:10:59.187500,262.28,59.73
165351,2018-06-29 10:10:59.218750,231.45,59.73
165352,2018-06-29 10:10:59.250000,210.44,59.73
165353,2018-06-29 10:10:59.281250,196.31,59.73
165354,2018-06-29 10:10:59.312500,175.39,59.73
165355,2018-06-29 10:10:59.343750,137.18,59.73
165356,2018-06-29 10:10:59.375000,82.41,59.73
165357,2018-06-29 10:10:59.406250,20.13,59.73
165358,2018-06-29 10:10:59.437500,-38.58,59.73
165359,2018-06-29 10:10:59.468750,-88.64,59.73
165360,2018-06-29 10:10:59.500000,-132.97,59.73
165361,2018-06-29 10:10:59.531250,-171.02,59.92
165362,2018-06-29 10:10:59.562500,-191.5,59.92
165363,2018-06-29 10:10:59.593750,-184.32,59.92
165364,2018-06-29 10:10:59.625000,-154.15,59.92
165365,2018-06-29 10:10:59.656250,-115.69,59.92
165366,2018-06-29 10:10:59.687500,-80.19,59.92
165367,2018-06-29 10:10:59.718750,-51.42,59.92
165368,2018-06-29 10:10:59.750000,-30.68,59.92
165369,2018-06-29 10:10:59.781250,-19.24,59.92
165370,2018-06-29 10:10:59.812500,-15.72,59.92
165371,2018-06-29 10:10:59.843750,-17.09,59.92
165372,2018-06-29 10:10:59.875000,-24.15,59.92
165373,2018-06-29 10:10:59.906250,-42.56,59.92
165374,2018-06-29 10:10:59.937500,-76.38,59.92
165375,2018-06-29 10:10:59.968750,-122.45,59.92
165376,2018-06-29 10:11:00.000000,-171.02,59.92
165377,2018-06-29 10:11:00.031250,-210.49,59.92
165378,2018-06-29 10:11:00.062500,-230.06,59.92
165379,2018-06-29 10:11:00.093750,-221.04,59.92
165380,2018-06-29 10:11:00.125000,-182.98,59.92
165381,2018-06-29 10:11:00.156250,-130.54,59.92
165382,2018-06-29 10:11:00.187500,-85.32,59.92
165383,2018-06-29 10:11:00.218750,-57.37,59.92
165384,2018-06-29 10:11:00.250000,-43.99,59.92
165385,2018-06-29 10:11:00.281250,-45.13,59.92
165386,2018-06-29 10:11:00.312500,-67.97,59.92
165387,2018-06-29 10:11:00.343750,-118.57,59.92
165388,2018-06-29 10:11:00.375000,-193.8,59.92
165389,2018-06-29 10:11:00.406250,-273.4,59.92
165390,2018-06-29 10:11:00.437500,-323.12,59.92
165391,2018-06-29 10:11:00.468750,-320.84,59.92
165392,2018-06-29 10:11:00.500000,-279.08,59.92
165393,2018-06-29 10:11:00.531250,-234.02,60.1
165394,2018-06-29 10:11:00.562500,-217.37,60.1
165395,2018-06-29 10:11:00.593750,-235.92,60.1
165396,2018-06-29 10:11:00.625000,-269.75,60.1
165397,2018-06-29 10:11:00.656250,-292.9,60.1
165398,2018-06-29 10:11:00.687500,-294.79,60.1
165399,2018-06-29 10:11:00.718750,-275.28,60.1
165400,2018-06-29 10:11:00.750000,-234.36,60.1
165401,2018-06-29 10:11:00.781250,-181.16,60.1
165402,2018-06-29 10:11:00.812500,-131.75,60.1
165403,2018-06-29 10:11:00.843750,-89.45,60.1
165404,2018-06-29 10:11:00.875000,-52.35,60.1
165405,2018-06-29 10:11:00.906250,-30.71,60.1
165406,2018-06-29 10:11:00.937500,-28.45,60.1
165407,2018-06-29 10:11:00.968750,-27.34,60.1
165408,2018-06-29 10:11:01.000000,-13.82,60.1
165409,2018-06-29 10:11:01.031250,4.63,60.1
165410,2018-06-29 10:11:01.062500,20.51,60.1
165411,2018-06-29 10:11:01.093750,34.9,60.1
165412,2018-06-29 10:11:01.125000,44.15,60.1
165413,2018-06-29 10:11:01.156250,41.54,60.1
165414,2018-06-29 10:11:01.187500,31.2,60.1
165415,2018-06-29 10:11:01.218750,27.14,60.1
165416,2018-06-29 10:11:01.250000,38.29,60.1
165417,2018-06-29 10:11:01.281250,59.96,60.1
165418,2018-06-29 10:11:01.312500,81.88,60.1
165419,2018-06-29 10:11:01.343750,99.85,60.1
165420,2018-06-29 10:11:01.375000,114.25,60.1
165421,2018-06-29 10:11:01.406250,123.01,60.1
165422,2018-06-29 10:11:01.437500,124.3,60.1
165423,2018-06-29 10:11:01.468750,121.79,60.1
165424,2018-06-29 10:11:01.500000,120.3,60.1
165425,2018-06-29 10:11:01.531250,119.62,60.28
165426,2018-06-29 10:11:01.562500,117.53,60.28
165427,2018-06-29 10:11:01.593750,114.65,60.28
165428,2018-06-29 10:11:01.625000,112.68,60.28
165429,2018-06-29 10:11:01.656250,110.71,60.28
165430,2018-06-29 10:11:01.687500,106.4,60.28
165431,2018-06-29 10:11:01.718750,99.97,60.28
165432,2018-06-29 10:11:01.750000,94.07,60.28
165433,2018-06-29 10:11:01.781250,88.51,60.28
165434,2018-06-29 10:11:01.812500,78.67,60.28
165435,2018-06-29 10:11:01.843750,61.9,60.28
165436,2018-06-29 10:11:01.875000,40.64,60.28
165437,2018-06-29 10:11:01.906250,16.49,60.28
165438,2018-06-29 10:11:01.937500,-12.24,60.28
165439,2018-06-29 10:11:01.968750,-45.33,60.28
165440,2018-06-29 10:11:02.000000,-77.6,60.28
165441,2018-06-29 10:11:02.031250,-100.09,60.28
165442,2018-06-29 10:11:02.062500,-103.39,60.28
165443,2018-06-29 10:11:02.093750,-84.61,60.28
165444,2018-06-29 10:11:02.125000,-50.91,60.28
165445,2018-06-29 10:11:02.156250,-12.26,60.28
165446,2018-06-29 10:11:02.187500,26.29,60.28
165447,2018-06-29 10:11:02.218750,62.8,60.28
165448,2018-06-29 10:11:02.250000,94.8,60.28
165449,2018-06-29 10:11:02.281250,120.41,60.28
165450,2018-06-29 10:11:02.312500,140.04,60.28
165451,2018-06-29 10:11:02.343750,154.21,60.28
165452,2018-06-29 10:11:02.375000,160.43,60.28
165453,2018-06-29 10:11:02.406250,154.63,60.28
165454,2018-06-29 10:11:02.437500,136.73,60.28
165455,2018-06-29 10:11:02.468750,111.31,60.28
165456,2018-06-29 10:11:02.500000,82.55,60.28
165457,2018-06-29 10:11:02.531250,52.98,60.48
165458,2018-06-29 10:11:02.562500,26.12,60.48
165459,2018-06-29 10:11:02.593750,5.27,60.48
165460,2018-06-29 10:11:02.625000,-9.72,60.48
165461,2018-06-29 10:11:02.656250,-21.57,60.48
165462,2018-06-29 10:11:02.687500,-32.57,60.48
165463,2018-06-29 10:11:02.718750,-43.25,60.48
165464,2018-06-29 10:11:02.750000,-53.24,60.48
165465,2018-06-29 10:11:02.781250,-63.11,60.48
165466,2018-06-29 10:11:02.812500,-74.83,60.48
165467,2018-06-29 10:11:02.843750,-89.43,60.48
165468,2018-06-29 10:11:02.875000,-103.07,60.48
165469,2018-06-29 10:11:02.906250,-107.47,60.48
165470,2018-06-29 10:11:02.937500,-98.21,60.48
165471,2018-06-29 10:11:02.968750,-80.27,60.48
165472,2018-06-29 10:11:03.000000,-60.81,60.48
165473,2018-06-29 10:11:03.031250,-40.36,60.48
165474,2018-06-29 10:11:03.062500,-16.74,60.48
165475,2018-06-29 10:11:03.093750,6.98,60.48
165476,2018-06-29 10:11:03.125000,24.49,60.48
165477,2018-06-29 10:11:03.156250,33.99,60.48
165478,2018-06-29 10:11:03.187500,39.51,60.48
165479,2018-06-29 10:11:03.218750,45.63,60.48
165480,2018-06-29 10:11:03.250000,53.06,60.48
165481,2018-06-29 10:11:03.281250,59.66,60.48
165482,2018-06-29 10:11:03.312500,63.96,60.48
165483,2018-06-29 10:11:03.343750,65.79,60.48
165484,2018-06-29 10:11:03.375000,64.43,60.48
165485,2018-06-29 10:11:03.406250,58.97,60.48
165486,2018-06-29 10:11:03.437500,50.56,60.48
165487,2018-06-29 10:11:03.468750,41.45,60.48
165488,2018-06-29 10:11:03.500000,31.71,60.48
165489,2018-06-29 10:11:03.531250,19.3,60.68
165490,2018-06-29 10:11:03.562500,3.52,60.68
165491,2018-06-29 10:11:03.593750,-13.82,60.68
165492,2018-06-29 10:11:03.625000,-30.86,60.68
165493,2018-06-29 10:11:03.656250,-47.84,60.68
165494,2018-06-29 10:11:03.687500,-66.57,60.68
165495,2018-06-29 10:11:03.718750,-87.65,60.68
165496,2018-06-29 10:11:03.750000,-107.24,60.68
165497,2018-06-29 10:11:03.781250,-116.57,60.68
165498,2018-06-29 10:11:03.812500,-107.34,60.68
165499,2018-06-29 10:11:03.843750,-79.68,60.68
165500,2018-06-29 10:11:03.875000,-42.45,60.68
165501,2018-06-29 10:11:03.906250,-4.6,60.68
165502,2018-06-29 10:11:03.937500,30.47,60.68
165503,2018-06-29 10:11:03.968750,61.45,60.68
165504,2018-06-29 10:11:04.000000,85.13,60.68
165505,2018-06-29 10:11:04.031250,99.05,60.68
165506,2018-06-29 10:11:04.062500,104.91,60.68
165507,2018-06-29 10:11:04.093750,106.74,60.68
165508,2018-06-29 10:11:04.125000,106.76,60.68
165509,2018-06-29 10:11:04.156250,104.89,60.68
165510,2018-06-29 10:11:04.187500,101.3,60.68
165511,2018-06-29 10:11:04.218750,96.7,60.68
165512,2018-06-29 10:11:04.250000,90.56,60.68
165513,2018-06-29 10:11:04.281250,81.89,60.68
165514,2018-06-29 10:11:04.312500,71.56,60.68
165515,2018-06-29 10:11:04.343750,61.13,60.68
165516,2018-06-29 10:11:04.375000,50.61,60.68
165517,2018-06-29 10:11:04.406250,39.12,60.68
165518,2018-06-29 10:11:04.437500,26.07,60.68
165519,2018-06-29 10:11:04.468750,11.66,60.68
165520,2018-06-29 10:11:04.500000,-2.77,60.68
165521,2018-06-29 10:11:04.531250,-16.04,60.88
165522,2018-06-29 10:11:04.562500,-29.39,60.88
165523,2018-06-29 10:11:04.593750,-45.22,60.88
165524,2018-06-29 10:11:04.625000,-63.8,60.88
165525,2018-06-29 10:11:04.656250,-82.03,60.88
165526,2018-06-29 10:11:04.687500,-92.94,60.88
165527,2018-06-29 10:11:04.718750,-89.25,60.88
165528,2018-06-29 10:11:04.750000,-71.71,60.88
165529,2018-06-29 10:11:04.781250,-49.89,60.88
165530,2018-06-29 10:11:04.812500,-31.23,60.88
165531,2018-06-29 10:11:04.843750,-15.57,60.88
165532,2018-06-29 10:11:04.875000,-1.19,60.88
165533,2018-06-29 10:11:04.906250,11.3,60.88
165534,2018-06-29 10:11:04.937500,22.09,60.88
165535,2018-06-29 10:11:04.968750,32.77,60.88
165536,2018-06-29 10:11:05.000000,43.29,60.88
165537,2018-06-29 10:11:05.031250,51.58,60.88
165538,2018-06-29 10:11:05.062500,56.85,60.88
165539,2018-06-29 10:11:05.093750,60.83,60.88
165540,2018-06-29 10:11:05.125000,64.48,60.88
165541,2018-06-29 10:11:05.156250,65.39,60.88
165542,2018-06-29 10:11:05.187500,61.13,60.88
165543,2018-06-29 10:11:05.218750,53.44,60.88
165544,2018-06-29 10:11:05.250000,45.76,60.88
165545,2018-06-29 10:11:05.281250,38.08,60.88
165546,2018-06-29 10:11:05.312500,28.41,60.88
165547,2018-06-29 10:11:05.343750,17.68,60.88
165548,2018-06-29 10:11:05.375000,8.68,60.88
165549,2018-06-29 10:11:05.406250,1.57,60.88
165550,2018-06-29 10:11:05.437500,-6.39,60.88
165551,2018-06-29 10:11:05.468750,-18.13,60.88
165552,2018-06-29 10:11:05.500000,-34.71,60.88
165553,2018-06-29 10:11:05.531250,-54.1,61.07
165554,2018-06-29 10:11:05.562500,-70.63,61.07
165555,2018-06-29 10:11:05.593750,-77.68,61.07
165556,2018-06-29 10:11:05.625000,-73.03,61.07
165557,2018-06-29 10:11:05.656250,-60.52,61.07
165558,2018-06-29 10:11:05.687500,-44.59,61.07
165559,2018-06-29 10:11:05.718750,-26.29,61.07
165560,2018-06-29 10:11:05.750000,-6.64,61.07
165561,2018-06-29 10:11:05.781250,9.98,61.07
165562,2018-06-29 10:11:05.812500,19.4,61.07
165563,2018-06-29 10:11:05.843750,22.22,61.07
165564,2018-06-29 10:11:05.875000,22.71,61.07
165565,2018-06-29 10:11:05.906250,24.35,61.07
165566,2018-06-29 10:11:05.937500,27.42,61.07
165567,2018-06-29 10:11:05.968750,30.89,61.07
165568,2018-06-29 10:11:06.000000,33.76,61.07
165569,2018-06-29 10:11:06.031250,33.84,61.07
165570,2018-06-29 10:11:06.062500,29.0,61.07
165571,2018-06-29 10:11:06.093750,19.92,61.07
165572,2018-06-29 10:11:06.125000,9.24,61.07
165573,2018-06-29 10:11:06.156250,-2.43,61.07
165574,2018-06-29 10:11:06.187500,-16.58,61.07
165575,2018-06-29 10:11:06.218750,-33.03,61.07
165576,2018-06-29 10:11:06.250000,-48.1,61.07
165577,2018-06-29 10:11:06.281250,-58.22,61.07
165578,2018-06-29 10:11:06.312500,-64.16,61.07
165579,2018-06-29 10:11:06.343750,-70.16,61.07
165580,2018-06-29 10:11:06.375000,-79.17,61.07
165581,2018-06-29 10:11:06.406250,-89.03,61.07
165582,2018-06-29 10:11:06.437500,-92.15,61.07
165583,2018-06-29 10:11:06.468750,-81.08,61.07
165584,2018-06-29 10:11:06.500000,-56.38,61.07
165585,2018-06-29 10:11:06.531250,-26.65,61.27
165586,2018-06-29 10:11:06.562500,0.42,61.27
165587,2018-06-29 10:11:06.593750,22.97,61.27
165588,2018-06-29 10:11:06.625000,40.86,61.27
165589,2018-06-29 10:11:06.656250,52.17,61.27
165590,2018-06-29 10:11:06.687500,55.77,61.27
165591,2018-06-29 10:11:06.718750,54.34,61.27
165592,2018-06-29 10:11:06.750000,52.21,61.27
165593,2018-06-29 10:11:06.781250,51.22,61.27
165594,2018-06-29 10:11:06.812500,50.27,61.27
165595,2018-06-29 10:11:06.843750,48.78,61.27
165596,2018-06-29 10:11:06.875000,47.85,61.27
165597,2018-06-29 10:11:06.906250,47.27,61.27
165598,2018-06-29 10:11:06.937500,44.14,61.27
165599,2018-06-29 10:11:06.968750,36.67,61.27
165600,2018-06-29 10:11:07.000000,26.93,61.27
165601,2018-06-29 10:11:07.031250,16.92,61.27
165602,2018-06-29 10:11:07.062500,5.68,61.27
165603,2018-06-29 10:11:07.093750,-6.88,61.27
165604,2018-06-29 10:11:07.125000,-18.14,61.27
165605,2018-06-29 10:11:07.156250,-27.79,61.27
165606,2018-06-29 10:11:07.187500,-39.43,61.27
165607,2018-06-29 10:11:07.218750,-54.69,61.27
165608,2018-06-29 10:11:07.250000,-70.16,61.27
165609,2018-06-29 10:11:07.281250,-80.13,61.27
165610,2018-06-29 10:11:07.312500,-78.97,61.27
165611,2018-06-29 10:11:07.343750,-64.09,61.27
165612,2018-06-29 10:11:07.375000,-39.72,61.27
165613,2018-06-29 10:11:07.406250,-14.31,61.27
165614,2018-06-29 10:11:07.437500,7.45,61.27
165615,2018-06-29 10:11:07.468750,25.89,61.27
165616,2018-06-29 10:11:07.500000,40.55,61.27
165617,2018-06-29 10:11:07.531250,49.0,61.5
165618,2018-06-29 10:11:07.562500,51.44,61.5
165619,2018-06-29 10:11:07.593750,51.2,61.5
165620,2018-06-29 10:11:07.625000,50.66,61.5
165621,2018-06-29 10:11:07.656250,50.26,61.5
165622,2018-06-29 10:11:07.687500,50.14,61.5
165623,2018-06-29 10:11:07.718750,49.11,61.5
165624,2018-06-29 10:11:07.750000,44.0,61.5
165625,2018-06-29 10:11:07.781250,33.8,61.5
165626,2018-06-29 10:11:07.812500,21.8,61.5
165627,2018-06-29 10:11:07.843750,11.44,61.5
165628,2018-06-29 10:11:07.875000,2.63,61.5
165629,2018-06-29 10:11:07.906250,-6.27,61.5
165630,2018-06-29 10:11:07.937500,-15.4,61.5
165631,2018-06-29 10:11:07.968750,-24.05,61.5
165632,2018-06-29 10:11:08.000000,-32.61,61.5
165633,2018-06-29 10:11:08.031250,-42.41,61.5
165634,2018-06-29 10:11:08.062500,-54.32,61.5
165635,2018-06-29 10:11:08.093750,-66.43,61.5
165636,2018-06-29 10:11:08.125000,-72.65,61.5
165637,2018-06-29 10:11:08.156250,-66.65,61.5
165638,2018-06-29 10:11:08.187500,-48.85,61.5
165639,2018-06-29 10:11:08.218750,-26.29,61.5
165640,2018-06-29 10:11:08.250000,-5.3,61.5
165641,2018-06-29 10:11:08.281250,11.76,61.5
165642,2018-06-29 10:11:08.312500,23.78,61.5
165643,2018-06-29 10:11:08.343750,29.8,61.5
165644,2018-06-29 10:11:08.375000,31.3,61.5
165645,2018-06-29 10:11:08.406250,32.0,61.5
165646,2018-06-29 10:11:08.437500,34.07,61.5
165647,2018-06-29 10:11:08.468750,36.66,61.5
165648,2018-06-29 10:11:08.500000,38.09,61.5
165649,2018-06-29 10:11:08.531250,36.66,61.77
165650,2018-06-29 10:11:08.562500,29.17,61.77
165651,2018-06-29 10:11:08.593750,12.83,61.77
165652,2018-06-29 10:11:08.625000,-11.05,61.77
165653,2018-06-29 10:11:08.656250,-37.78,61.77
165654,2018-06-29 10:11:08.687500,-62.46,61.77
165655,2018-06-29 10:11:08.718750,-81.18,61.77
165656,2018-06-29 10:11:08.750000,-91.14,61.77
165657,2018-06-29 10:11:08.781250,-92.55,61.77
165658,2018-06-29 10:11:08.812500,-89.57,61.77
165659,2018-06-29 10:11:08.843750,-87.66,61.77
165660,2018-06-29 10:11:08.875000,-88.3,61.77
165661,2018-06-29 10:11:08.906250,-85.39,61.77
165662,2018-06-29 10:11:08.937500,-68.06,61.77
165663,2018-06-29 10:11:08.968750,-30.74,61.77
165664,2018-06-29 10:11:09.000000,20.47,61.77
165665,2018-06-29 10:11:09.031250,74.64,61.77
165666,2018-06-29 10:11:09.062500,125.94,61.77
165667,2018-06-29 10:11:09.093750,172.22,61.77
165668,2018-06-29 10:11:09.125000,208.51,61.77
165669,2018-06-29 10:11:09.156250,228.18,61.77
165670,2018-06-29 10:11:09.187500,229.79,61.77
165671,2018-06-29 10:11:09.218750,219.82,61.77
165672,2018-06-29 10:11:09.250000,208.19,61.77
165673,2018-06-29 10:11:09.281250,202.11,61.77
165674,2018-06-29 10:11:09.312500,203.18,61.77
165675,2018-06-29 10:11:09.343750,206.8,61.77
165676,2018-06-29 10:11:09.375000,203.31,61.77
165677,2018-06-29 10:11:09.406250,182.93,61.77
165678,2018-06-29 10:11:09.437500,142.32,61.77
165679,2018-06-29 10:11:09.468750,88.95,61.77
165680,2018-06-29 10:11:09.500000,38.75,61.77
165681,2018-06-29 10:11:09.531250,5.91,62.07
165682,2018-06-29 10:11:09.562500,-6.33,62.07
165683,2018-06-29 10:11:09.593750,-4.11,62.07
165684,2018-06-29 10:11:09.625000,6.34,62.07
165685,2018-06-29 10:11:09.656250,20.54,62.07
165686,2018-06-29 10:11:09.687500,28.14,62.07
165687,2018-06-29 10:11:09.718750,17.14,62.07
165688,2018-06-29 10:11:09.750000,-6.03,62.07
165689,2018-06-29 10:11:09.781250,-17.71,62.07
165690,2018-06-29 10:11:09.812500,-8.12,62.07
165691,2018-06-29 10:11:09.843750,9.5,62.07
165692,2018-06-29 10:11:09.875000,27.71,62.07
165693,2018-06-29 10:11:09.906250,54.61,62.07
165694,2018-06-29 10:11:09.937500,88.36,62.07
165695,2018-06-29 10:11:09.968750,108.83,62.07
165696,2018-06-29 10:11:10.000000,101.69,62.07
165697,2018-06-29 10:11:10.031250,72.39,62.07
165698,2018-06-29 10:11:10.062500,34.55,62.07
165699,2018-06-29 10:11:10.093750,-2.92,62.07
165700,2018-06-29 10:11:10.125000,-38.32,62.07
165701,2018-06-29 10:11:10.156250,-73.87,62.07
165702,2018-06-29 10:11:10.187500,-109.5,62.07
165703,2018-06-29 10:11:10.218750,-141.28,62.07
165704,2018-06-29 10:11:10.250000,-167.38,62.07
165705,2018-06-29 10:11:10.281250,-192.54,62.07
165706,2018-06-29 10:11:10.312500,-227.78,62.07
165707,2018-06-29 10:11:10.343750,-281.73,62.07
165708,2018-06-29 10:11:10.375000,-336.32,62.07
165709,2018-06-29 10:11:10.406250,-345.25,62.07
165710,2018-06-29 10:11:10.437500,-288.77,62.07
165711,2018-06-29 10:11:10.468750,-209.88,62.07
165712,2018-06-29 10:11:10.500000,-163.64,62.07
165713,2018-06-29 10:11:10.531250,-156.92,62.33
165714,2018-06-29 10:11:10.562500,-161.35,62.33
165715,2018-06-29 10:11:10.593750,-152.62,62.33
165716,2018-06-29 10:11:10.625000,-120.04,62.33
165717,2018-06-29 10:11:10.656250,-65.71,62.33
165718,2018-06-29 10:11:10.687500,-5.37,62.33
165719,2018-06-29 10:11:10.718750,45.05,62.33
165720,2018-06-29 10:11:10.750000,86.43,62.33
165721,2018-06-29 10:11:10.781250,130.8,62.33
165722,2018-06-29 10:11:10.812500,178.81,62.33
165723,2018-06-29 10:11:10.843750,215.3,62.33
165724,2018-06-29 10:11:10.875000,230.99,62.33
165725,2018-06-29 10:11:10.906250,234.44,62.33
165726,2018-06-29 10:11:10.937500,234.01,62.33
165727,2018-06-29 10:11:10.968750,220.26,62.33
165728,2018-06-29 10:11:11.000000,179.8,62.33
165729,2018-06-29 10:11:11.031250,118.41,62.33
165730,2018-06-29 10:11:11.062500,54.81,62.33
165731,2018-06-29 10:11:11.093750,-2.44,62.33
165732,2018-06-29 10:11:11.125000,-57.59,62.33
165733,2018-06-29 10:11:11.156250,-112.5,62.33
165734,2018-06-29 10:11:11.187500,-159.09,62.33
165735,2018-06-29 10:11:11.218750,-186.45,62.33
165736,2018-06-29 10:11:11.250000,-190.99,62.33
165737,2018-06-29 10:11:11.281250,-178.99,62.33
165738,2018-06-29 10:11:11.312500,-162.54,62.33
165739,2018-06-29 10:11:11.343750,-154.53,62.33
165740,2018-06-29 10:11:11.375000,-160.7,62.33
165741,2018-06-29 10:11:11.406250,-172.75,62.33
165742,2018-06-29 10:11:11.437500,-174.2,62.33
165743,2018-06-29 10:11:11.468750,-152.31,62.33
165744,2018-06-29 10:11:11.500000,-106.08,62.33
165745,2018-06-29 10:11:11.531250,-52.77,62.62
165746,2018-06-29 10:11:11.562500,-19.88,62.62
165747,2018-06-29 10:11:11.593750,-16.82,62.62
165748,2018-06-29 10:11:11.625000,-25.36,62.62
165749,2018-06-29 10:11:11.656250,-26.09,62.62
165750,2018-06-29 10:11:11.687500,-18.33,62.62
165751,2018-06-29 10:11:11.718750,-10.06,62.62
165752,2018-06-29 10:11:11.750000,-7.06,62.62
165753,2018-06-29 10:11:11.781250,-14.21,62.62
165754,2018-06-29 10:11:11.812500,-32.87,62.62
165755,2018-06-29 10:11:11.843750,-54.72,62.62
165756,2018-06-29 10:11:11.875000,-69.51,62.62
165757,2018-06-29 10:11:11.906250,-79.28,62.62
165758,2018-06-29 10:11:11.937500,-93.41,62.62
165759,2018-06-29 10:11:11.968750,-110.8,62.62
165760,2018-06-29 10:11:12.000000,-121.54,62.62
165761,2018-06-29 10:11:12.031250,-123.9,62.62
165762,2018-06-29 10:11:12.062500,-126.24,62.62
165763,2018-06-29 10:11:12.093750,-133.96,62.62
165764,2018-06-29 10:11:12.125000,-140.08,62.62
165765,2018-06-29 10:11:12.156250,-127.64,62.62
165766,2018-06-29 10:11:12.187500,-89.79,62.62
165767,2018-06-29 10:11:12.218750,-46.73,62.62
165768,2018-06-29 10:11:12.250000,-24.24,62.62
165769,2018-06-29 10:11:12.281250,-21.24,62.62
165770,2018-06-29 10:11:12.312500,-19.32,62.62
165771,2018-06-29 10:11:12.343750,-12.32,62.62
165772,2018-06-29 10:11:12.375000,-5.73,62.62
165773,2018-06-29 10:11:12.406250,-0.65,62.62
165774,2018-06-29 10:11:12.437500,5.86,62.62
165775,2018-06-29 10:11:12.468750,14.65,62.62
165776,2018-06-29 10:11:12.500000,25.95,62.62
165777,2018-06-29 10:11:12.531250,40.1,62.92
165778,2018-06-29 10:11:12.562500,53.9,62.92
165779,2018-06-29 10:11:12.593750,61.26,62.92
165780,2018-06-29 10:11:12.625000,59.89,62.92
165781,2018-06-29 10:11:12.656250,53.09,62.92
165782,2018-06-29 10:11:12.687500,43.95,62.92
165783,2018-06-29 10:11:12.718750,32.59,62.92
165784,2018-06-29 10:11:12.750000,19.02,62.92
165785,2018-06-29 10:11:12.781250,4.0,62.92
165786,2018-06-29 10:11:12.812500,-15.63,62.92
165787,2018-06-29 10:11:12.843750,-51.42,62.92
