,Time,ppg,hr
166400,2018-06-29 10:11:32.000000,-11.08,68.92
166401,2018-06-29 10:11:32.031250,-23.45,68.92
166402,2018-06-29 10:11:32.062500,-37.36,68.92
166403,2018-06-29 10:11:32.093750,-55.17,68.92
166404,2018-06-29 10:11:32.125000,-74.35,68.92
166405,2018-06-29 10:11:32.156250,-86.65,68.92
166406,2018-06-29 10:11:32.187500,-82.96,68.92
166407,2018-06-29 10:11:32.218750,-61.54,68.92
166408,2018-06-29 10:11:32.250000,-30.8,68.92
166409,2018-06-29 10:11:32.281250,-2.17,68.92
166410,2018-06-29 10:11:32.312500,18.73,68.92
166411,2018-06-29 10:11:32.343750,32.2,68.92
166412,2018-06-29 10:11:32.375000,39.15,68.92
166413,2018-06-29 10:11:32.406250,40.23,68.92
166414,2018-06-29 10:11:32.437500,38.8,68.92
166415,2018-06-29 10:11:32.468750,39.06,68.92
166416,2018-06-29 10:11:32.500000,40.72,68.92
166417,2018-06-29 10:11:32.531250,39.66,69.12
166418,2018-06-29 10:11:32.562500,34.02,69.12
166419,2018-06-29 10:11:32.593750,26.1,69.12
166420,2018-06-29 10:11:32.625000,18.38,69.12
166421,2018-06-29 10:11:32.656250,10.74,69.12
166422,2018-06-29 10:11:32.687500,2.24,69.12
166423,2018-06-29 10:11:32.718750,-6.77,69.12
166424,2018-06-29 10:11:32.750000,-15.62,69.12
166425,2018-06-29 10:11:32.781250,-24.24,69.12
166426,2018-06-29 10:11:32.812500,-32.63,69.12
166427,2018-06-29 10:11:32.843750,-41.25,69.12
166428,2018-06-29 10:11:32.875000,-51.62,69.12
166429,2018-06-29 10:11:32.906250,-63.16,69.12
166430,2018-06-29 10:11:32.937500,-69.5,69.12
166431,2018-06-29 10:11:32.968750,-61.92,69.12
166432,2018-06-29 10:11:33.000000,-38.85,69.12
166433,2018-06-29 10:11:33.031250,-8.77,69.12
166434,2018-06-29 10:11:33.062500,18.49,69.12
166435,2018-06-29 10:11:33.093750,39.54,69.12
166436,2018-06-29 10:11:33.125000,54.79,69.12
166437,2018-06-29 10:11:33.156250,63.42,69.12
166438,2018-06-29 10:11:33.187500,64.58,69.12
166439,2018-06-29 10:11:33.218750,61.03,69.12
166440,2018-06-29 10:11:33.250000,57.29,69.12
166441,2018-06-29 10:11:33.281250,55.15,69.12
166442,2018-06-29 10:11:33.312500,53.04,69.12
166443,2018-06-29 10:11:33.343750,49.21,69.12
166444,2018-06-29 10:11:33.375000,43.34,69.12
166445,2018-06-29 10:11:33.406250,35.88,69.12
166446,2018-06-29 10:11:33.437500,27.24,69.12
166447,2018-06-29 10:11:33.468750,17.22,69.12
166448,2018-06-29 10:11:33.500000,4.42,69.12
166449,2018-06-29 10:11:33.531250,-13.2,69.35
166450,2018-06-29 10:11:33.562500,-35.62,69.35
166451,2018-06-29 10:11:33.593750,-59.47,69.35
166452,2018-06-29 10:11:33.625000,-81.14,69.35
166453,2018-06-29 10:11:33.656250,-99.59,69.35
166454,2018-06-29 10:11:33.687500,-111.13,69.35
166455,2018-06-29 10:11:33.718750,-103.15,69.35
166456,2018-06-29 10:11:33.750000,-61.71,69.35
166457,2018-06-29 10:11:33.781250,10.49,69.35
166458,2018-06-29 10:11:33.812500,90.57,69.35
166459,2018-06-29 10:11:33.843750,153.87,69.35
166460,2018-06-29 10:11:33.875000,190.2,69.35
166461,2018-06-29 10:11:33.906250,200.77,69.35
166462,2018-06-29 10:11:33.937500,189.44,69.35
166463,2018-06-29 10:11:33.968750,161.02,69.35
166464,2018-06-29 10:11:34.000000,121.18,69.35
166465,2018-06-29 10:11:34.031250,74.8,69.35
166466,2018-06-29 10:11:34.062500,27.15,69.35
166467,2018-06-29 10:11:34.093750,-16.37,69.35
166468,2018-06-29 10:11:34.125000,-52.13,69.35
166469,2018-06-29 10:11:34.156250,-75.38,69.35
166470,2018-06-29 10:11:34.187500,-78.71,69.35
166471,2018-06-29 10:11:34.218750,-59.07,69.35
166472,2018-06-29 10:11:34.250000,-23.51,69.35
166473,2018-06-29 10:11:34.281250,14.41,69.35
166474,2018-06-29 10:11:34.312500,41.08,69.35
166475,2018-06-29 10:11:34.343750,48.92,69.35
166476,2018-06-29 10:11:34.375000,41.05,69.35
166477,2018-06-29 10:11:34.406250,27.21,69.35
166478,2018-06-29 10:11:34.437500,13.24,69.35
166479,2018-06-29 10:11:34.468750,-1.59,69.35
166480,2018-06-29 10:11:34.500000,-18.28,69.35
166481,2018-06-29 10:11:34.531250,-34.55,69.62
166482,2018-06-29 10:11:34.562500,-48.69,69.62
166483,2018-06-29 10:11:34.593750,-62.79,69.62
166484,2018-06-29 10:11:34.625000,-80.41,69.62
166485,2018-06-29 10:11:34.656250,-101.76,69.62
166486,2018-06-29 10:11:34.687500,-120.17,69.62
166487,2018-06-29 10:11:34.718750,-125.53,69.62
166488,2018-06-29 10:11:34.750000,-115.18,69.62
166489,2018-06-29 10:11:34.781250,-98.52,69.62
166490,2018-06-29 10:11:34.812500,-85.94,69.62
166491,2018-06-29 10:11:34.843750,-78.35,69.62
166492,2018-06-29 10:11:34.875000,-71.79,69.62
166493,2018-06-29 10:11:34.906250,-65.64,69.62
166494,2018-06-29 10:11:34.937500,-61.53,69.62
166495,2018-06-29 10:11:34.968750,-58.6,69.62
166496,2018-06-29 10:11:35.000000,-52.49,69.62
166497,2018-06-29 10:11:35.031250,-37.57,69.62
166498,2018-06-29 10:11:35.062500,-10.33,69.62
166499,2018-06-29 10:11:35.093750,26.79,69.62
166500,2018-06-29 10:11:35.125000,62.42,69.62
166501,2018-06-29 10:11:35.156250,80.17,69.62
166502,2018-06-29 10:11:35.187500,70.59,69.62
166503,2018-06-29 10:11:35.218750,39.41,69.62
166504,2018-06-29 10:11:35.250000,2.09,69.62
166505,2018-06-29 10:11:35.281250,-25.86,69.62
166506,2018-06-29 10:11:35.312500,-34.37,69.62
166507,2018-06-29 10:11:35.343750,-22.63,69.62
166508,2018-06-29 10:11:35.375000,0.86,69.62
166509,2018-06-29 10:11:35.406250,25.17,69.62
166510,2018-06-29 10:11:35.437500,43.51,69.62
166511,2018-06-29 10:11:35.468750,54.09,69.62
166512,2018-06-29 10:11:35.500000,57.48,69.62
166513,2018-06-29 10:11:35.531250,53.02,69.9
166514,2018-06-29 10:11:35.562500,38.41,69.9
166515,2018-06-29 10:11:35.593750,16.08,69.9
166516,2018-06-29 10:11:35.625000,-3.55,69.9
166517,2018-06-29 10:11:35.656250,-11.21,69.9
166518,2018-06-29 10:11:35.687500,-8.68,69.9
166519,2018-06-29 10:11:35.718750,-3.79,69.9
166520,2018-06-29 10:11:35.750000,0.54,69.9
166521,2018-06-29 10:11:35.781250,6.53,69.9
166522,2018-06-29 10:11:35.812500,14.73,69.9
166523,2018-06-29 10:11:35.843750,22.93,69.9
166524,2018-06-29 10:11:35.875000,30.12,69.9
166525,2018-06-29 10:11:35.906250,37.51,69.9
166526,2018-06-29 10:11:35.937500,46.46,69.9
166527,2018-06-29 10:11:35.968750,57.52,69.9
166528,2018-06-29 10:11:36.000000,69.89,69.9
166529,2018-06-29 10:11:36.031250,80.29,69.9
166530,2018-06-29 10:11:36.062500,83.93,69.9
166531,2018-06-29 10:11:36.093750,78.14,69.9
166532,2018-06-29 10:11:36.125000,64.58,69.9
166533,2018-06-29 10:11:36.156250,47.1,69.9
166534,2018-06-29 10:11:36.187500,28.81,69.9
166535,2018-06-29 10:11:36.218750,11.91,69.9
166536,2018-06-29 10:11:36.250000,-1.08,69.9
166537,2018-06-29 10:11:36.281250,-7.9,69.9
166538,2018-06-29 10:11:36.312500,-8.59,69.9
166539,2018-06-29 10:11:36.343750,-6.09,69.9
166540,2018-06-29 10:11:36.375000,-4.33,69.9
166541,2018-06-29 10:11:36.406250,-4.4,69.9
166542,2018-06-29 10:11:36.437500,-1.63,69.9
166543,2018-06-29 10:11:36.468750,10.76,69.9
166544,2018-06-29 10:11:36.500000,32.8,69.9
166545,2018-06-29 10:11:36.531250,55.76,70.1
166546,2018-06-29 10:11:36.562500,70.46,70.1
166547,2018-06-29 10:11:36.593750,74.35,70.1
166548,2018-06-29 10:11:36.625000,69.16,70.1
166549,2018-06-29 10:11:36.656250,56.81,70.1
166550,2018-06-29 10:11:36.687500,40.19,70.1
166551,2018-06-29 10:11:36.718750,24.23,70.1
166552,2018-06-29 10:11:36.750000,11.9,70.1
166553,2018-06-29 10:11:36.781250,1.76,70.1
166554,2018-06-29 10:11:36.812500,-7.36,70.1
166555,2018-06-29 10:11:36.843750,-13.36,70.1
166556,2018-06-29 10:11:36.875000,-15.72,70.1
166557,2018-06-29 10:11:36.906250,-18.14,70.1
166558,2018-06-29 10:11:36.937500,-23.67,70.1
166559,2018-06-29 10:11:36.968750,-31.74,70.1
166560,2018-06-29 10:11:37.000000,-41.05,70.1
166561,2018-06-29 10:11:37.031250,-51.33,70.1
166562,2018-06-29 10:11:37.062500,-62.34,70.1
166563,2018-06-29 10:11:37.093750,-73.13,70.1
166564,2018-06-29 10:11:37.125000,-82.83,70.1
166565,2018-06-29 10:11:37.156250,-91.15,70.1
166566,2018-06-29 10:11:37.187500,-98.4,70.1
166567,2018-06-29 10:11:37.218750,-104.45,70.1
166568,2018-06-29 10:11:37.250000,-109.13,70.1
166569,2018-06-29 10:11:37.281250,-113.52,70.1
166570,2018-06-29 10:11:37.312500,-119.57,70.1
166571,2018-06-29 10:11:37.343750,-127.62,70.1
166572,2018-06-29 10:11:37.375000,-133.56,70.1
166573,2018-06-29 10:11:37.406250,-128.0,70.1
166574,2018-06-29 10:11:37.437500,-101.57,70.1
166575,2018-06-29 10:11:37.468750,-54.46,70.1
166576,2018-06-29 10:11:37.500000,0.13,70.1
166577,2018-06-29 10:11:37.531250,44.61,70.32
166578,2018-06-29 10:11:37.562500,68.88,70.32
166579,2018-06-29 10:11:37.593750,73.71,70.32
166580,2018-06-29 10:11:37.625000,65.67,70.32
166581,2018-06-29 10:11:37.656250,51.77,70.32
166582,2018-06-29 10:11:37.687500,38.12,70.32
166583,2018-06-29 10:11:37.718750,29.11,70.32
166584,2018-06-29 10:11:37.750000,25.76,70.32
166585,2018-06-29 10:11:37.781250,25.78,70.32
166586,2018-06-29 10:11:37.812500,26.3,70.32
166587,2018-06-29 10:11:37.843750,25.47,70.32
166588,2018-06-29 10:11:37.875000,22.5,70.32
166589,2018-06-29 10:11:37.906250,17.77,70.32
166590,2018-06-29 10:11:37.937500,12.28,70.32
166591,2018-06-29 10:11:37.968750,6.25,70.32
166592,2018-06-29 10:11:38.000000,-0.14,70.32
166593,2018-06-29 10:11:38.031250,-5.7,70.32
166594,2018-06-29 10:11:38.062500,-9.7,70.32
166595,2018-06-29 10:11:38.093750,-12.28,70.32
166596,2018-06-29 10:11:38.125000,-11.98,70.32
166597,2018-06-29 10:11:38.156250,-6.22,70.32
166598,2018-06-29 10:11:38.187500,4.66,70.32
166599,2018-06-29 10:11:38.218750,16.82,70.32
166600,2018-06-29 10:11:38.250000,26.55,70.32
166601,2018-06-29 10:11:38.281250,32.69,70.32
166602,2018-06-29 10:11:38.312500,35.97,70.32
166603,2018-06-29 10:11:38.343750,36.95,70.32
166604,2018-06-29 10:11:38.375000,34.64,70.32
166605,2018-06-29 10:11:38.406250,27.11,70.32
166606,2018-06-29 10:11:38.437500,13.76,70.32
166607,2018-06-29 10:11:38.468750,-3.77,70.32
166608,2018-06-29 10:11:38.500000,-22.76,70.32
166609,2018-06-29 10:11:38.531250,-40.68,70.53
166610,2018-06-29 10:11:38.562500,-54.34,70.53
166611,2018-06-29 10:11:38.593750,-58.26,70.53
166612,2018-06-29 10:11:38.625000,-48.58,70.53
166613,2018-06-29 10:11:38.656250,-29.59,70.53
166614,2018-06-29 10:11:38.687500,-10.94,70.53
166615,2018-06-29 10:11:38.718750,2.73,70.53
166616,2018-06-29 10:11:38.750000,13.66,70.53
166617,2018-06-29 10:11:38.781250,23.65,70.53
166618,2018-06-29 10:11:38.812500,31.53,70.53
166619,2018-06-29 10:11:38.843750,36.9,70.53
166620,2018-06-29 10:11:38.875000,41.18,70.53
166621,2018-06-29 10:11:38.906250,45.04,70.53
166622,2018-06-29 10:11:38.937500,47.71,70.53
166623,2018-06-29 10:11:38.968750,49.1,70.53
166624,2018-06-29 10:11:39.000000,50.83,70.53
166625,2018-06-29 10:11:39.031250,54.31,70.53
166626,2018-06-29 10:11:39.062500,59.08,70.53
166627,2018-06-29 10:11:39.093750,63.49,70.53
166628,2018-06-29 10:11:39.125000,66.14,70.53
166629,2018-06-29 10:11:39.156250,66.08,70.53
166630,2018-06-29 10:11:39.187500,62.76,70.53
166631,2018-06-29 10:11:39.218750,56.69,70.53
166632,2018-06-29 10:11:39.250000,48.85,70.53
166633,2018-06-29 10:11:39.281250,37.55,70.53
166634,2018-06-29 10:11:39.312500,17.74,70.53
166635,2018-06-29 10:11:39.343750,-12.29,70.53
166636,2018-06-29 10:11:39.375000,-44.32,70.53
166637,2018-06-29 10:11:39.406250,-64.61,70.53
166638,2018-06-29 10:11:39.437500,-65.1,70.53
166639,2018-06-29 10:11:39.468750,-48.46,70.53
166640,2018-06-29 10:11:39.500000,-24.21,70.53
166641,2018-06-29 10:11:39.531250,-2.59,70.65
166642,2018-06-29 10:11:39.562500,9.95,70.65
166643,2018-06-29 10:11:39.593750,12.34,70.65
166644,2018-06-29 10:11:39.625000,5.96,70.65
166645,2018-06-29 10:11:39.656250,-8.47,70.65
166646,2018-06-29 10:11:39.687500,-27.93,70.65
166647,2018-06-29 10:11:39.718750,-43.1,70.65
166648,2018-06-29 10:11:39.750000,-44.83,70.65
166649,2018-06-29 10:11:39.781250,-34.72,70.65
166650,2018-06-29 10:11:39.812500,-22.83,70.65
166651,2018-06-29 10:11:39.843750,-15.05,70.65
166652,2018-06-29 10:11:39.875000,-9.4,70.65
166653,2018-06-29 10:11:39.906250,-3.74,70.65
166654,2018-06-29 10:11:39.937500,0.01,70.65
166655,2018-06-29 10:11:39.968750,0.1,70.65
166656,2018-06-29 10:11:40.000000,-2.72,70.65
166657,2018-06-29 10:11:40.031250,-8.43,70.65
166658,2018-06-29 10:11:40.062500,-18.47,70.65
166659,2018-06-29 10:11:40.093750,-31.01,70.65
166660,2018-06-29 10:11:40.125000,-40.3,70.65
166661,2018-06-29 10:11:40.156250,-43.84,70.65
166662,2018-06-29 10:11:40.187500,-45.23,70.65
166663,2018-06-29 10:11:40.218750,-47.84,70.65
166664,2018-06-29 10:11:40.250000,-51.23,70.65
166665,2018-06-29 10:11:40.281250,-53.74,70.65
166666,2018-06-29 10:11:40.312500,-54.23,70.65
166667,2018-06-29 10:11:40.343750,-53.48,70.65
166668,2018-06-29 10:11:40.375000,-55.57,70.65
166669,2018-06-29 10:11:40.406250,-63.08,70.65
166670,2018-06-29 10:11:40.437500,-72.2,70.65
166671,2018-06-29 10:11:40.468750,-78.06,70.65
166672,2018-06-29 10:11:40.500000,-80.6,70.65
166673,2018-06-29 10:11:40.531250,-80.45,70.78
166674,2018-06-29 10:11:40.562500,-75.96,70.78
166675,2018-06-29 10:11:40.593750,-68.1,70.78
166676,2018-06-29 10:11:40.625000,-62.18,70.78
166677,2018-06-29 10:11:40.656250,-62.09,70.78
166678,2018-06-29 10:11:40.687500,-66.24,70.78
166679,2018-06-29 10:11:40.718750,-68.13,70.78
166680,2018-06-29 10:11:40.750000,-59.58,70.78
166681,2018-06-29 10:11:40.781250,-37.36,70.78
166682,2018-06-29 10:11:40.812500,-7.73,70.78
166683,2018-06-29 10:11:40.843750,18.66,70.78
166684,2018-06-29 10:11:40.875000,36.05,70.78
166685,2018-06-29 10:11:40.906250,45.46,70.78
166686,2018-06-29 10:11:40.937500,50.25,70.78
166687,2018-06-29 10:11:40.968750,52.85,70.78
166688,2018-06-29 10:11:41.000000,54.86,70.78
166689,2018-06-29 10:11:41.031250,57.18,70.78
166690,2018-06-29 10:11:41.062500,59.64,70.78
166691,2018-06-29 10:11:41.093750,61.67,70.78
166692,2018-06-29 10:11:41.125000,63.64,70.78
166693,2018-06-29 10:11:41.156250,65.66,70.78
166694,2018-06-29 10:11:41.187500,66.04,70.78
166695,2018-06-29 10:11:41.218750,63.19,70.78
166696,2018-06-29 10:11:41.250000,57.73,70.78
166697,2018-06-29 10:11:41.281250,51.1,70.78
166698,2018-06-29 10:11:41.312500,43.38,70.78
166699,2018-06-29 10:11:41.343750,34.23,70.78
166700,2018-06-29 10:11:41.375000,24.68,70.78
166701,2018-06-29 10:11:41.406250,16.07,70.78
166702,2018-06-29 10:11:41.437500,8.42,70.78
166703,2018-06-29 10:11:41.468750,1.24,70.78
166704,2018-06-29 10:11:41.500000,-4.93,70.78
166705,2018-06-29 10:11:41.531250,-9.03,70.82
166706,2018-06-29 10:11:41.562500,-11.76,70.82
166707,2018-06-29 10:11:41.593750,-16.23,70.82
166708,2018-06-29 10:11:41.625000,-23.87,70.82
166709,2018-06-29 10:11:41.656250,-28.58,70.82
166710,2018-06-29 10:11:41.687500,-18.07,70.82
166711,2018-06-29 10:11:41.718750,14.54,70.82
166712,2018-06-29 10:11:41.750000,62.53,70.82
166713,2018-06-29 10:11:41.781250,112.86,70.82
166714,2018-06-29 10:11:41.812500,157.11,70.82
166715,2018-06-29 10:11:41.843750,191.7,70.82
166716,2018-06-29 10:11:41.875000,213.34,70.82
166717,2018-06-29 10:11:41.906250,220.26,70.82
166718,2018-06-29 10:11:41.937500,214.76,70.82
166719,2018-06-29 10:11:41.968750,200.24,70.82
166720,2018-06-29 10:11:42.000000,178.39,70.82
166721,2018-06-29 10:11:42.031250,150.71,70.82
166722,2018-06-29 10:11:42.062500,119.33,70.82
166723,2018-06-29 10:11:42.093750,83.91,70.82
166724,2018-06-29 10:11:42.125000,41.66,70.82
166725,2018-06-29 10:11:42.156250,-7.15,70.82
166726,2018-06-29 10:11:42.187500,-56.69,70.82
166727,2018-06-29 10:11:42.218750,-101.59,70.82
166728,2018-06-29 10:11:42.250000,-142.56,70.82
166729,2018-06-29 10:11:42.281250,-181.88,70.82
166730,2018-06-29 10:11:42.312500,-216.31,70.82
166731,2018-06-29 10:11:42.343750,-239.78,70.82
166732,2018-06-29 10:11:42.375000,-251.3,70.82
166733,2018-06-29 10:11:42.406250,-256.49,70.82
166734,2018-06-29 10:11:42.437500,-260.5,70.82
166735,2018-06-29 10:11:42.468750,-260.26,70.82
166736,2018-06-29 10:11:42.500000,-244.27,70.82
166737,2018-06-29 10:11:42.531250,-204.42,70.83
166738,2018-06-29 10:11:42.562500,-147.61,70.83
166739,2018-06-29 10:11:42.593750,-90.07,70.83
166740,2018-06-29 10:11:42.625000,-41.82,70.83
166741,2018-06-29 10:11:42.656250,-2.9,70.83
166742,2018-06-29 10:11:42.687500,27.52,70.83
166743,2018-06-29 10:11:42.718750,47.45,70.83
166744,2018-06-29 10:11:42.750000,57.59,70.83
166745,2018-06-29 10:11:42.781250,62.37,70.83
166746,2018-06-29 10:11:42.812500,63.45,70.83
166747,2018-06-29 10:11:42.843750,57.94,70.83
166748,2018-06-29 10:11:42.875000,43.93,70.83
166749,2018-06-29 10:11:42.906250,23.58,70.83
166750,2018-06-29 10:11:42.937500,2.38,70.83
166751,2018-06-29 10:11:42.968750,-11.48,70.83
166752,2018-06-29 10:11:43.000000,-11.67,70.83
166753,2018-06-29 10:11:43.031250,-0.38,70.83
166754,2018-06-29 10:11:43.062500,13.31,70.83
166755,2018-06-29 10:11:43.093750,21.72,70.83
166756,2018-06-29 10:11:43.125000,21.76,70.83
166757,2018-06-29 10:11:43.156250,11.92,70.83
166758,2018-06-29 10:11:43.187500,-9.27,70.83
166759,2018-06-29 10:11:43.218750,-38.65,70.83
166760,2018-06-29 10:11:43.250000,-63.46,70.83
166761,2018-06-29 10:11:43.281250,-68.4,70.83
166762,2018-06-29 10:11:43.312500,-51.87,70.83
166763,2018-06-29 10:11:43.343750,-28.1,70.83
166764,2018-06-29 10:11:43.375000,-9.92,70.83
166765,2018-06-29 10:11:43.406250,2.58,70.83
166766,2018-06-29 10:11:43.437500,14.02,70.83
166767,2018-06-29 10:11:43.468750,24.13,70.83
166768,2018-06-29 10:11:43.500000,29.59,70.83
166769,2018-06-29 10:11:43.531250,29.79,70.88
166770,2018-06-29 10:11:43.562500,27.23,70.88
166771,2018-06-29 10:11:43.593750,23.68,70.88
166772,2018-06-29 10:11:43.625000,18.84,70.88
166773,2018-06-29 10:11:43.656250,12.59,70.88
166774,2018-06-29 10:11:43.687500,5.13,70.88
166775,2018-06-29 10:11:43.718750,-5.24,70.88
166776,2018-06-29 10:11:43.750000,-20.72,70.88
166777,2018-06-29 10:11:43.781250,-40.28,70.88
166778,2018-06-29 10:11:43.812500,-60.07,70.88
166779,2018-06-29 10:11:43.843750,-76.63,70.88
166780,2018-06-29 10:11:43.875000,-89.04,70.88
166781,2018-06-29 10:11:43.906250,-100.14,70.88
166782,2018-06-29 10:11:43.937500,-114.72,70.88
166783,2018-06-29 10:11:43.968750,-132.45,70.88
166784,2018-06-29 10:11:44.000000,-142.49,70.88
166785,2018-06-29 10:11:44.031250,-130.49,70.88
166786,2018-06-29 10:11:44.062500,-94.09,70.88
166787,2018-06-29 10:11:44.093750,-46.2,70.88
166788,2018-06-29 10:11:44.125000,-1.42,70.88
166789,2018-06-29 10:11:44.156250,34.99,70.88
166790,2018-06-29 10:11:44.187500,63.8,70.88
166791,2018-06-29 10:11:44.218750,85.1,70.88
166792,2018-06-29 10:11:44.250000,97.45,70.88
166793,2018-06-29 10:11:44.281250,100.8,70.88
166794,2018-06-29 10:11:44.312500,98.84,70.88
166795,2018-06-29 10:11:44.343750,96.78,70.88
166796,2018-06-29 10:11:44.375000,96.53,70.88
166797,2018-06-29 10:11:44.406250,95.99,70.88
166798,2018-06-29 10:11:44.437500,92.6,70.88
166799,2018-06-29 10:11:44.468750,85.14,70.88
166800,2018-06-29 10:11:44.500000,73.22,70.88
166801,2018-06-29 10:11:44.531250,57.53,70.95
166802,2018-06-29 10:11:44.562500,40.0,70.95
166803,2018-06-29 10:11:44.593750,22.5,70.95
166804,2018-06-29 10:11:44.625000,5.3,70.95
166805,2018-06-29 10:11:44.656250,-13.05,70.95
166806,2018-06-29 10:11:44.687500,-34.72,70.95
166807,2018-06-29 10:11:44.718750,-60.1,70.95
166808,2018-06-29 10:11:44.750000,-83.46,70.95
166809,2018-06-29 10:11:44.781250,-92.05,70.95
166810,2018-06-29 10:11:44.812500,-76.27,70.95
166811,2018-06-29 10:11:44.843750,-40.99,70.95
166812,2018-06-29 10:11:44.875000,-0.55,70.95
166813,2018-06-29 10:11:44.906250,35.44,70.95
166814,2018-06-29 10:11:44.937500,65.09,70.95
166815,2018-06-29 10:11:44.968750,87.52,70.95
166816,2018-06-29 10:11:45.000000,101.07,70.95
166817,2018-06-29 10:11:45.031250,106.36,70.95
166818,2018-06-29 10:11:45.062500,106.58,70.95
166819,2018-06-29 10:11:45.093750,105.37,70.95
166820,2018-06-29 10:11:45.125000,105.0,70.95
166821,2018-06-29 10:11:45.156250,106.25,70.95
166822,2018-06-29 10:11:45.187500,108.72,70.95
166823,2018-06-29 10:11:45.218750,110.23,70.95
166824,2018-06-29 10:11:45.250000,107.83,70.95
166825,2018-06-29 10:11:45.281250,101.17,70.95
166826,2018-06-29 10:11:45.312500,92.66,70.95
166827,2018-06-29 10:11:45.343750,83.89,70.95
166828,2018-06-29 10:11:45.375000,74.5,70.95
166829,2018-06-29 10:11:45.406250,64.27,70.95
166830,2018-06-29 10:11:45.437500,54.13,70.95
166831,2018-06-29 10:11:45.468750,46.04,70.95
166832,2018-06-29 10:11:45.500000,41.75,70.95
166833,2018-06-29 10:11:45.531250,39.89,71.0
166834,2018-06-29 10:11:45.562500,36.79,71.0
166835,2018-06-29 10:11:45.593750,31.01,71.0
166836,2018-06-29 10:11:45.625000,23.62,71.0
166837,2018-06-29 10:11:45.656250,14.73,71.0
166838,2018-06-29 10:11:45.687500,3.75,71.0
166839,2018-06-29 10:11:45.718750,-8.3,71.0
166840,2018-06-29 10:11:45.750000,-19.63,71.0
166841,2018-06-29 10:11:45.781250,-29.89,71.0
166842,2018-06-29 10:11:45.812500,-40.69,71.0
166843,2018-06-29 10:11:45.843750,-53.96,71.0
166844,2018-06-29 10:11:45.875000,-69.17,71.0
166845,2018-06-29 10:11:45.906250,-83.95,71.0
166846,2018-06-29 10:11:45.937500,-97.55,71.0
166847,2018-06-29 10:11:45.968750,-111.72,71.0
166848,2018-06-29 10:11:46.000000,-128.57,71.0
166849,2018-06-29 10:11:46.031250,-146.89,71.0
166850,2018-06-29 10:11:46.062500,-157.47,71.0
166851,2018-06-29 10:11:46.093750,-146.93,71.0
166852,2018-06-29 10:11:46.125000,-112.85,71.0
166853,2018-06-29 10:11:46.156250,-68.97,71.0
166854,2018-06-29 10:11:46.187500,-30.49,71.0
166855,2018-06-29 10:11:46.218750,-1.51,71.0
166856,2018-06-29 10:11:46.250000,20.18,71.0
166857,2018-06-29 10:11:46.281250,35.69,71.0
166858,2018-06-29 10:11:46.312500,45.67,71.0
166859,2018-06-29 10:11:46.343750,52.51,71.0
166860,2018-06-29 10:11:46.375000,59.07,71.0
166861,2018-06-29 10:11:46.406250,66.29,71.0
166862,2018-06-29 10:11:46.437500,72.93,71.0
166863,2018-06-29 10:11:46.468750,77.79,71.0
166864,2018-06-29 10:11:46.500000,80.55,71.0
166865,2018-06-29 10:11:46.531250,80.24,71.03
166866,2018-06-29 10:11:46.562500,75.31,71.03
166867,2018-06-29 10:11:46.593750,66.61,71.03
166868,2018-06-29 10:11:46.625000,57.28,71.03
166869,2018-06-29 10:11:46.656250,48.55,71.03
166870,2018-06-29 10:11:46.687500,38.46,71.03
166871,2018-06-29 10:11:46.718750,26.12,71.03
166872,2018-06-29 10:11:46.750000,14.0,71.03
166873,2018-06-29 10:11:46.781250,4.41,71.03
166874,2018-06-29 10:11:46.812500,-3.73,71.03
166875,2018-06-29 10:11:46.843750,-13.0,71.03
166876,2018-06-29 10:11:46.875000,-24.32,71.03
166877,2018-06-29 10:11:46.906250,-36.02,71.03
166878,2018-06-29 10:11:46.937500,-46.02,71.03
166879,2018-06-29 10:11:46.968750,-54.82,71.03
166880,2018-06-29 10:11:47.000000,-65.62,71.03
166881,2018-06-29 10:11:47.031250,-79.91,71.03
166882,2018-06-29 10:11:47.062500,-92.22,71.03
166883,2018-06-29 10:11:47.093750,-91.42,71.03
166884,2018-06-29 10:11:47.125000,-71.32,71.03
166885,2018-06-29 10:11:47.156250,-38.79,71.03
166886,2018-06-29 10:11:47.187500,-6.75,71.03
166887,2018-06-29 10:11:47.218750,18.27,71.03
166888,2018-06-29 10:11:47.250000,37.16,71.03
166889,2018-06-29 10:11:47.281250,51.26,71.03
166890,2018-06-29 10:11:47.312500,60.5,71.03
166891,2018-06-29 10:11:47.343750,65.39,71.03
166892,2018-06-29 10:11:47.375000,67.06,71.03
166893,2018-06-29 10:11:47.406250,66.77,71.03
166894,2018-06-29 10:11:47.437500,66.24,71.03
166895,2018-06-29 10:11:47.468750,66.51,71.03
166896,2018-06-29 10:11:47.500000,66.75,71.03
166897,2018-06-29 10:11:47.531250,64.93,71.05
166898,2018-06-29 10:11:47.562500,59.75,71.05
166899,2018-06-29 10:11:47.593750,51.84,71.05
166900,2018-06-29 10:11:47.625000,43.34,71.05
166901,2018-06-29 10:11:47.656250,35.81,71.05
166902,2018-06-29 10:11:47.687500,28.79,71.05
166903,2018-06-29 10:11:47.718750,21.29,71.05
166904,2018-06-29 10:11:47.750000,13.56,71.05
166905,2018-06-29 10:11:47.781250,6.35,71.05
166906,2018-06-29 10:11:47.812500,-0.72,71.05
166907,2018-06-29 10:11:47.843750,-8.35,71.05
166908,2018-06-29 10:11:47.875000,-16.51,71.05
166909,2018-06-29 10:11:47.906250,-25.33,71.05
166910,2018-06-29 10:11:47.937500,-35.43,71.05
166911,2018-06-29 10:11:47.968750,-46.33,71.05
166912,2018-06-29 10:11:48.000000,-56.06,71.05
166913,2018-06-29 10:11:48.031250,-63.73,71.05
166914,2018-06-29 10:11:48.062500,-71.22,71.05
166915,2018-06-29 10:11:48.093750,-80.78,71.05
166916,2018-06-29 10:11:48.125000,-90.07,71.05
166917,2018-06-29 10:11:48.156250,-90.53,71.05
166918,2018-06-29 10:11:48.187500,-74.97,71.05
166919,2018-06-29 10:11:48.218750,-47.0,71.05
166920,2018-06-29 10:11:48.250000,-18.37,71.05
166921,2018-06-29 10:11:48.281250,2.98,71.05
166922,2018-06-29 10:11:48.312500,17.82,71.05
166923,2018-06-29 10:11:48.343750,29.71,71.05
166924,2018-06-29 10:11:48.375000,39.45,71.05
166925,2018-06-29 10:11:48.406250,46.06,71.05
166926,2018-06-29 10:11:48.437500,49.5,71.05
166927,2018-06-29 10:11:48.468750,51.14,71.05
166928,2018-06-29 10:11:48.500000,52.2,71.05
166929,2018-06-29 10:11:48.531250,53.19,71.07
166930,2018-06-29 10:11:48.562500,53.91,71.07
166931,2018-06-29 10:11:48.593750,53.25,71.07
166932,2018-06-29 10:11:48.625000,49.58,71.07
166933,2018-06-29 10:11:48.656250,42.42,71.07
166934,2018-06-29 10:11:48.687500,33.7,71.07
166935,2018-06-29 10:11:48.718750,26.46,71.07
166936,2018-06-29 10:11:48.750000,22.05,71.07
166937,2018-06-29 10:11:48.781250,19.62,71.07
166938,2018-06-29 10:11:48.812500,17.93,71.07
166939,2018-06-29 10:11:48.843750,16.38,71.07
166940,2018-06-29 10:11:48.875000,14.83,71.07
166941,2018-06-29 10:11:48.906250,13.27,71.07
166942,2018-06-29 10:11:48.937500,11.02,71.07
166943,2018-06-29 10:11:48.968750,6.31,71.07
166944,2018-06-29 10:11:49.000000,-2.41,71.07
166945,2018-06-29 10:11:49.031250,-15.18,71.07
166946,2018-06-29 10:11:49.062500,-30.3,71.07
166947,2018-06-29 10:11:49.093750,-44.49,71.07
166948,2018-06-29 10:11:49.125000,-54.69,71.07
166949,2018-06-29 10:11:49.156250,-61.5,71.07
166950,2018-06-29 10:11:49.187500,-68.36,71.07
166951,2018-06-29 10:11:49.218750,-75.01,71.07
166952,2018-06-29 10:11:49.250000,-74.27,71.07
166953,2018-06-29 10:11:49.281250,-59.23,71.07
166954,2018-06-29 10:11:49.312500,-32.88,71.07
166955,2018-06-29 10:11:49.343750,-6.89,71.07
166956,2018-06-29 10:11:49.375000,9.64,71.07
166957,2018-06-29 10:11:49.406250,16.54,71.07
166958,2018-06-29 10:11:49.437500,17.3,71.07
166959,2018-06-29 10:11:49.468750,13.13,71.07
166960,2018-06-29 10:11:49.500000,4.77,71.07
166961,2018-06-29 10:11:49.531250,-4.73,71.08
166962,2018-06-29 10:11:49.562500,-11.88,71.08
166963,2018-06-29 10:11:49.593750,-15.27,71.08
166964,2018-06-29 10:11:49.625000,-14.79,71.08
166965,2018-06-29 10:11:49.656250,-10.72,71.08
166966,2018-06-29 10:11:49.687500,-4.51,71.08
166967,2018-06-29 10:11:49.718750,1.2,71.08
166968,2018-06-29 10:11:49.750000,4.71,71.08
166969,2018-06-29 10:11:49.781250,6.19,71.08
166970,2018-06-29 10:11:49.812500,5.39,71.08
166971,2018-06-29 10:11:49.843750,1.21,71.08
166972,2018-06-29 10:11:49.875000,-5.66,71.08
166973,2018-06-29 10:11:49.906250,-12.68,71.08
166974,2018-06-29 10:11:49.937500,-18.92,71.08
166975,2018-06-29 10:11:49.968750,-25.81,71.08
166976,2018-06-29 10:11:50.000000,-33.89,71.08
166977,2018-06-29 10:11:50.031250,-40.82,71.08
166978,2018-06-29 10:11:50.062500,-44.39,71.08
166979,2018-06-29 10:11:50.093750,-46.25,71.08
166980,2018-06-29 10:11:50.125000,-50.9,71.08
166981,2018-06-29 10:11:50.156250,-59.37,71.08
166982,2018-06-29 10:11:50.187500,-64.77,71.08
166983,2018-06-29 10:11:50.218750,-57.56,71.08
166984,2018-06-29 10:11:50.250000,-36.73,71.08
166985,2018-06-29 10:11:50.281250,-12.28,71.08
166986,2018-06-29 10:11:50.312500,5.66,71.08
166987,2018-06-29 10:11:50.343750,15.71,71.08
166988,2018-06-29 10:11:50.375000,21.18,71.08
166989,2018-06-29 10:11:50.406250,23.49,71.08
166990,2018-06-29 10:11:50.437500,23.16,71.08
166991,2018-06-29 10:11:50.468750,22.63,71.08
166992,2018-06-29 10:11:50.500000,24.12,71.08
166993,2018-06-29 10:11:50.531250,27.01,71.07
166994,2018-06-29 10:11:50.562500,29.84,71.07
166995,2018-06-29 10:11:50.593750,31.93,71.07
166996,2018-06-29 10:11:50.625000,32.21,71.07
166997,2018-06-29 10:11:50.656250,28.87,71.07
166998,2018-06-29 10:11:50.687500,21.3,71.07
166999,2018-06-29 10:11:50.718750,11.28,71.07
167000,2018-06-29 10:11:50.750000,1.72,71.07
167001,2018-06-29 10:11:50.781250,-6.0,71.07
167002,2018-06-29 10:11:50.812500,-13.47,71.07
167003,2018-06-29 10:11:50.843750,-22.68,71.07
167004,2018-06-29 10:11:50.875000,-32.44,71.07
167005,2018-06-29 10:11:50.906250,-39.74,71.07
167006,2018-06-29 10:11:50.937500,-44.15,71.07
167007,2018-06-29 10:11:50.968750,-48.58,71.07
167008,2018-06-29 10:11:51.000000,-55.83,71.07
167009,2018-06-29 10:11:51.031250,-64.32,71.07
167010,2018-06-29 10:11:51.062500,-66.45,71.07
167011,2018-06-29 10:11:51.093750,-55.02,71.07
167012,2018-06-29 10:11:51.125000,-32.92,71.07
167013,2018-06-29 10:11:51.156250,-11.05,71.07
167014,2018-06-29 10:11:51.187500,3.9,71.07
167015,2018-06-29 10:11:51.218750,13.24,71.07
167016,2018-06-29 10:11:51.250000,19.36,71.07
167017,2018-06-29 10:11:51.281250,22.64,71.07
167018,2018-06-29 10:11:51.312500,23.86,71.07
167019,2018-06-29 10:11:51.343750,24.59,71.07
167020,2018-06-29 10:11:51.375000,25.55,71.07
167021,2018-06-29 10:11:51.406250,26.77,71.07
167022,2018-06-29 10:11:51.437500,28.46,71.07
167023,2018-06-29 10:11:51.468750,30.5,71.07
167024,2018-06-29 10:11:51.500000,31.08,71.07
167025,2018-06-29 10:11:51.531250,27.53,71.02
167026,2018-06-29 10:11:51.562500,19.65,71.02
167027,2018-06-29 10:11:51.593750,10.58,71.02
167028,2018-06-29 10:11:51.625000,2.75,71.02
167029,2018-06-29 10:11:51.656250,-5.03,71.02
167030,2018-06-29 10:11:51.687500,-14.29,71.02
167031,2018-06-29 10:11:51.718750,-23.52,71.02
167032,2018-06-29 10:11:51.750000,-30.66,71.02
167033,2018-06-29 10:11:51.781250,-36.84,71.02
167034,2018-06-29 10:11:51.812500,-45.71,71.02
167035,2018-06-29 10:11:51.843750,-59.16,71.02
167036,2018-06-29 10:11:51.875000,-72.14,71.02
167037,2018-06-29 10:11:51.906250,-73.54,71.02
167038,2018-06-29 10:11:51.937500,-57.41,71.02
167039,2018-06-29 10:11:51.968750,-31.09,71.02
167040,2018-06-29 10:11:52.000000,-6.62,71.02
167041,2018-06-29 10:11:52.031250,10.98,71.02
167042,2018-06-29 10:11:52.062500,23.01,71.02
167043,2018-06-29 10:11:52.093750,30.87,71.02
167044,2018-06-29 10:11:52.125000,34.98,71.02
167045,2018-06-29 10:11:52.156250,36.0,71.02
167046,2018-06-29 10:11:52.187500,35.06,71.02
167047,2018-06-29 10:11:52.218750,33.5,71.02
167048,2018-06-29 10:11:52.250000,31.87,71.02
167049,2018-06-29 10:11:52.281250,29.99,71.02
167050,2018-06-29 10:11:52.312500,27.84,71.02
167051,2018-06-29 10:11:52.343750,25.17,71.02
167052,2018-06-29 10:11:52.375000,20.98,71.02
167053,2018-06-29 10:11:52.406250,14.53,71.02
167054,2018-06-29 10:11:52.437500,6.11,71.02
167055,2018-06-29 10:11:52.468750,-2.82,71.02
167056,2018-06-29 10:11:52.500000,-10.29,71.02
167057,2018-06-29 10:11:52.531250,-15.81,70.78
167058,2018-06-29 10:11:52.562500,-21.17,70.78
167059,2018-06-29 10:11:52.593750,-27.82,70.78
167060,2018-06-29 10:11:52.625000,-34.68,70.78
167061,2018-06-29 10:11:52.656250,-40.04,70.78
167062,2018-06-29 10:11:52.687500,-44.79,70.78
167063,2018-06-29 10:11:52.718750,-52.07,70.78
167064,2018-06-29 10:11:52.750000,-63.36,70.78
167065,2018-06-29 10:11:52.781250,-72.58,70.78
167066,2018-06-29 10:11:52.812500,-67.27,70.78
167067,2018-06-29 10:11:52.843750,-41.78,70.78
167068,2018-06-29 10:11:52.875000,-5.66,70.78
167069,2018-06-29 10:11:52.906250,26.6,70.78
167070,2018-06-29 10:11:52.937500,49.26,70.78
167071,2018-06-29 10:11:52.968750,64.42,70.78
167072,2018-06-29 10:11:53.000000,73.95,70.78
167073,2018-06-29 10:11:53.031250,77.96,70.78
167074,2018-06-29 10:11:53.062500,77.4,70.78
167075,2018-06-29 10:11:53.093750,74.57,70.78
167076,2018-06-29 10:11:53.125000,71.53,70.78
167077,2018-06-29 10:11:53.156250,69.2,70.78
167078,2018-06-29 10:11:53.187500,67.59,70.78
167079,2018-06-29 10:11:53.218750,65.87,70.78
167080,2018-06-29 10:11:53.250000,62.82,70.78
167081,2018-06-29 10:11:53.281250,58.1,70.78
167082,2018-06-29 10:11:53.312500,52.33,70.78
167083,2018-06-29 10:11:53.343750,44.83,70.78
167084,2018-06-29 10:11:53.375000,33.14,70.78
167085,2018-06-29 10:11:53.406250,16.85,70.78
167086,2018-06-29 10:11:53.437500,-0.28,70.78
167087,2018-06-29 10:11:53.468750,-14.82,70.78
167088,2018-06-29 10:11:53.500000,-28.01,70.78
167089,2018-06-29 10:11:53.531250,-42.23,70.57
167090,2018-06-29 10:11:53.562500,-56.15,70.57
167091,2018-06-29 10:11:53.593750,-66.74,70.57
167092,2018-06-29 10:11:53.625000,-73.83,70.57
167093,2018-06-29 10:11:53.656250,-81.0,70.57
167094,2018-06-29 10:11:53.687500,-92.48,70.57
167095,2018-06-29 10:11:53.718750,-106.63,70.57
167096,2018-06-29 10:11:53.750000,-112.21,70.57
167097,2018-06-29 10:11:53.781250,-97.87,70.57
167098,2018-06-29 10:11:53.812500,-66.1,70.57
167099,2018-06-29 10:11:53.843750,-30.47,70.57
167100,2018-06-29 10:11:53.875000,-0.1,70.57
167101,2018-06-29 10:11:53.906250,24.77,70.57
167102,2018-06-29 10:11:53.937500,45.47,70.57
167103,2018-06-29 10:11:53.968750,61.46,70.57
167104,2018-06-29 10:11:54.000000,72.0,70.57
167105,2018-06-29 10:11:54.031250,76.71,70.57
167106,2018-06-29 10:11:54.062500,75.98,70.57
167107,2018-06-29 10:11:54.093750,71.82,70.57
167108,2018-06-29 10:11:54.125000,66.76,70.57
167109,2018-06-29 10:11:54.156250,62.18,70.57
167110,2018-06-29 10:11:54.187500,57.42,70.57
167111,2018-06-29 10:11:54.218750,51.12,70.57
167112,2018-06-29 10:11:54.250000,43.49,70.57
167113,2018-06-29 10:11:54.281250,36.44,70.57
167114,2018-06-29 10:11:54.312500,31.36,70.57
167115,2018-06-29 10:11:54.343750,27.6,70.57
167116,2018-06-29 10:11:54.375000,23.68,70.57
167117,2018-06-29 10:11:54.406250,19.22,70.57
167118,2018-06-29 10:11:54.437500,15.01,70.57
167119,2018-06-29 10:11:54.468750,11.27,70.57
167120,2018-06-29 10:11:54.500000,6.51,70.57
167121,2018-06-29 10:11:54.531250,-0.74,70.37
167122,2018-06-29 10:11:54.562500,-10.26,70.37
167123,2018-06-29 10:11:54.593750,-21.3,70.37
167124,2018-06-29 10:11:54.625000,-33.63,70.37
167125,2018-06-29 10:11:54.656250,-46.72,70.37
167126,2018-06-29 10:11:54.687500,-59.22,70.37
167127,2018-06-29 10:11:54.718750,-70.38,70.37
167128,2018-06-29 10:11:54.750000,-81.09,70.37
167129,2018-06-29 10:11:54.781250,-92.29,70.37
167130,2018-06-29 10:11:54.812500,-102.59,70.37
167131,2018-06-29 10:11:54.843750,-109.2,70.37
167132,2018-06-29 10:11:54.875000,-111.84,70.37
167133,2018-06-29 10:11:54.906250,-114.42,70.37
167134,2018-06-29 10:11:54.937500,-120.99,70.37
167135,2018-06-29 10:11:54.968750,-128.18,70.37
167136,2018-06-29 10:11:55.000000,-123.64,70.37
167137,2018-06-29 10:11:55.031250,-97.48,70.37
167138,2018-06-29 10:11:55.062500,-54.55,70.37
167139,2018-06-29 10:11:55.093750,-9.58,70.37
167140,2018-06-29 10:11:55.125000,27.61,70.37
167141,2018-06-29 10:11:55.156250,56.79,70.37
167142,2018-06-29 10:11:55.187500,79.98,70.37
167143,2018-06-29 10:11:55.218750,96.27,70.37
167144,2018-06-29 10:11:55.250000,103.53,70.37
167145,2018-06-29 10:11:55.281250,102.34,70.37
167146,2018-06-29 10:11:55.312500,97.05,70.37
167147,2018-06-29 10:11:55.343750,92.41,70.37
167148,2018-06-29 10:11:55.375000,90.12,70.37
167149,2018-06-29 10:11:55.406250,88.9,70.37
167150,2018-06-29 10:11:55.437500,86.21,70.37
167151,2018-06-29 10:11:55.468750,79.94,70.37
167152,2018-06-29 10:11:55.500000,70.05,70.37
167153,2018-06-29 10:11:55.531250,58.6,70.18
167154,2018-06-29 10:11:55.562500,47.77,70.18
167155,2018-06-29 10:11:55.593750,38.19,70.18
167156,2018-06-29 10:11:55.625000,28.9,70.18
167157,2018-06-29 10:11:55.656250,19.18,70.18
167158,2018-06-29 10:11:55.687500,9.8,70.18
167159,2018-06-29 10:11:55.718750,1.59,70.18
167160,2018-06-29 10:11:55.750000,-6.19,70.18
167161,2018-06-29 10:11:55.781250,-14.73,70.18
167162,2018-06-29 10:11:55.812500,-24.12,70.18
167163,2018-06-29 10:11:55.843750,-33.3,70.18
167164,2018-06-29 10:11:55.875000,-40.28,70.18
167165,2018-06-29 10:11:55.906250,-43.67,70.18
167166,2018-06-29 10:11:55.937500,-44.63,70.18
167167,2018-06-29 10:11:55.968750,-45.37,70.18
167168,2018-06-29 10:11:56.000000,-45.48,70.18
167169,2018-06-29 10:11:56.031250,-42.4,70.18
167170,2018-06-29 10:11:56.062500,-36.43,70.18
167171,2018-06-29 10:11:56.093750,-32.65,70.18
167172,2018-06-29 10:11:56.125000,-36.96,70.18
167173,2018-06-29 10:11:56.156250,-50.23,70.18
167174,2018-06-29 10:11:56.187500,-64.83,70.18
167175,2018-06-29 10:11:56.218750,-68.66,70.18
167176,2018-06-29 10:11:56.250000,-56.45,70.18
167177,2018-06-29 10:11:56.281250,-34.73,70.18
167178,2018-06-29 10:11:56.312500,-13.23,70.18
167179,2018-06-29 10:11:56.343750,4.13,70.18
167180,2018-06-29 10:11:56.375000,18.0,70.18
167181,2018-06-29 10:11:56.406250,28.89,70.18
167182,2018-06-29 10:11:56.437500,36.17,70.18
167183,2018-06-29 10:11:56.468750,39.83,70.18
167184,2018-06-29 10:11:56.500000,41.75,70.18
167185,2018-06-29 10:11:56.531250,44.05,70.0
167186,2018-06-29 10:11:56.562500,47.33,70.0
167187,2018-06-29 10:11:56.593750,51.69,70.0
167188,2018-06-29 10:11:56.625000,56.68,70.0
167189,2018-06-29 10:11:56.656250,59.7,70.0
167190,2018-06-29 10:11:56.687500,57.89,70.0
167191,2018-06-29 10:11:56.718750,51.9,70.0
167192,2018-06-29 10:11:56.750000,44.97,70.0
167193,2018-06-29 10:11:56.781250,38.77,70.0
167194,2018-06-29 10:11:56.812500,32.07,70.0
167195,2018-06-29 10:11:56.843750,23.43,70.0
167196,2018-06-29 10:11:56.875000,13.79,70.0
167197,2018-06-29 10:11:56.906250,5.33,70.0
167198,2018-06-29 10:11:56.937500,-1.47,70.0
167199,2018-06-29 10:11:56.968750,-7.93,70.0
167200,2018-06-29 10:11:57.000000,-15.27,70.0
167201,2018-06-29 10:11:57.031250,-23.62,70.0
167202,2018-06-29 10:11:57.062500,-32.08,70.0
167203,2018-06-29 10:11:57.093750,-39.46,70.0
167204,2018-06-29 10:11:57.125000,-46.39,70.0
167205,2018-06-29 10:11:57.156250,-55.97,70.0
167206,2018-06-29 10:11:57.187500,-69.04,70.0
167207,2018-06-29 10:11:57.218750,-78.23,70.0
167208,2018-06-29 10:11:57.250000,-72.7,70.0
167209,2018-06-29 10:11:57.281250,-50.8,70.0
167210,2018-06-29 10:11:57.312500,-22.49,70.0
167211,2018-06-29 10:11:57.343750,1.91,70.0
167212,2018-06-29 10:11:57.375000,19.13,70.0
167213,2018-06-29 10:11:57.406250,29.95,70.0
167214,2018-06-29 10:11:57.437500,35.62,70.0
167215,2018-06-29 10:11:57.468750,37.49,70.0
167216,2018-06-29 10:11:57.500000,36.74,70.0
167217,2018-06-29 10:11:57.531250,35.34,69.87
167218,2018-06-29 10:11:57.562500,36.19,69.87
167219,2018-06-29 10:11:57.593750,40.93,69.87
167220,2018-06-29 10:11:57.625000,49.33,69.87
167221,2018-06-29 10:11:57.656250,60.54,69.87
167222,2018-06-29 10:11:57.687500,73.94,69.87
167223,2018-06-29 10:11:57.718750,90.43,69.87
167224,2018-06-29 10:11:57.750000,113.73,69.87
167225,2018-06-29 10:11:57.781250,147.89,69.87
167226,2018-06-29 10:11:57.812500,192.28,69.87
167227,2018-06-29 10:11:57.843750,240.34,69.87
167228,2018-06-29 10:11:57.875000,283.13,69.87
167229,2018-06-29 10:11:57.906250,314.56,69.87
167230,2018-06-29 10:11:57.937500,333.38,69.87
167231,2018-06-29 10:11:57.968750,338.84,69.87
167232,2018-06-29 10:11:58.000000,326.53,69.87
167233,2018-06-29 10:11:58.031250,291.66,69.87
167234,2018-06-29 10:11:58.062500,235.48,69.87
167235,2018-06-29 10:11:58.093750,166.58,69.87
167236,2018-06-29 10:11:58.125000,98.7,69.87
167237,2018-06-29 10:11:58.156250,45.31,69.87
167238,2018-06-29 10:11:58.187500,10.81,69.87
167239,2018-06-29 10:11:58.218750,-11.97,69.87
167240,2018-06-29 10:11:58.250000,-32.46,69.87
167241,2018-06-29 10:11:58.281250,-54.79,69.87
167242,2018-06-29 10:11:58.312500,-81.74,69.87
167243,2018-06-29 10:11:58.343750,-117.29,69.87
167244,2018-06-29 10:11:58.375000,-159.87,69.87
167245,2018-06-29 10:11:58.406250,-201.12,69.87
167246,2018-06-29 10:11:58.437500,-235.74,69.87
167247,2018-06-29 10:11:58.468750,-263.14,69.87
167248,2018-06-29 10:11:58.500000,-277.46,69.87
167249,2018-06-29 10:11:58.531250,-268.21,69.73
167250,2018-06-29 10:11:58.562500,-233.1,69.73
167251,2018-06-29 10:11:58.593750,-181.17,69.73
167252,2018-06-29 10:11:58.625000,-122.4,69.73
167253,2018-06-29 10:11:58.656250,-62.26,69.73
167254,2018-06-29 10:11:58.687500,-7.87,69.73
167255,2018-06-29 10:11:58.718750,29.56,69.73
167256,2018-06-29 10:11:58.750000,42.53,69.73
167257,2018-06-29 10:11:58.781250,30.54,69.73
167258,2018-06-29 10:11:58.812500,-2.89,69.73
167259,2018-06-29 10:11:58.843750,-48.26,69.73
167260,2018-06-29 10:11:58.875000,-90.8,69.73
167261,2018-06-29 10:11:58.906250,-126.09,69.73
167262,2018-06-29 10:11:58.937500,-164.83,69.73
167263,2018-06-29 10:11:58.968750,-211.79,69.73
167264,2018-06-29 10:11:59.000000,-255.84,69.73
167265,2018-06-29 10:11:59.031250,-289.19,69.73
167266,2018-06-29 10:11:59.062500,-316.47,69.73
167267,2018-06-29 10:11:59.093750,-338.81,69.73
167268,2018-06-29 10:11:59.125000,-348.72,69.73
167269,2018-06-29 10:11:59.156250,-342.01,69.73
167270,2018-06-29 10:11:59.187500,-314.91,69.73
167271,2018-06-29 10:11:59.218750,-258.69,69.73
167272,2018-06-29 10:11:59.250000,-178.34,69.73
167273,2018-06-29 10:11:59.281250,-100.85,69.73
167274,2018-06-29 10:11:59.312500,-45.97,69.73
167275,2018-06-29 10:11:59.343750,-6.44,69.73
167276,2018-06-29 10:11:59.375000,29.59,69.73
167277,2018-06-29 10:11:59.406250,58.74,69.73
167278,2018-06-29 10:11:59.437500,74.13,69.73
167279,2018-06-29 10:11:59.468750,77.42,69.73
167280,2018-06-29 10:11:59.500000,73.34,69.73
167281,2018-06-29 10:11:59.531250,63.62,69.62
167282,2018-06-29 10:11:59.562500,49.26,69.62
167283,2018-06-29 10:11:59.593750,33.89,69.62
167284,2018-06-29 10:11:59.625000,20.8,69.62
167285,2018-06-29 10:11:59.656250,8.8,69.62
167286,2018-06-29 10:11:59.687500,-5.84,69.62
167287,2018-06-29 10:11:59.718750,-23.22,69.62
167288,2018-06-29 10:11:59.750000,-39.57,69.62
167289,2018-06-29 10:11:59.781250,-53.14,69.62
167290,2018-06-29 10:11:59.812500,-65.71,69.62
167291,2018-06-29 10:11:59.843750,-78.48,69.62
167292,2018-06-29 10:11:59.875000,-90.96,69.62
167293,2018-06-29 10:11:59.906250,-102.91,69.62
167294,2018-06-29 10:11:59.937500,-110.89,69.62
167295,2018-06-29 10:11:59.968750,-105.48,69.62
167296,2018-06-29 10:12:00.000000,-80.9,69.62
167297,2018-06-29 10:12:00.031250,-44.26,69.62
167298,2018-06-29 10:12:00.062500,-8.04,69.62
167299,2018-06-29 10:12:00.093750,22.37,69.62
167300,2018-06-29 10:12:00.125000,48.09,69.62
167301,2018-06-29 10:12:00.156250,69.58,69.62
167302,2018-06-29 10:12:00.187500,85.13,69.62
167303,2018-06-29 10:12:00.218750,93.16,69.62
167304,2018-06-29 10:12:00.250000,93.59,69.62
167305,2018-06-29 10:12:00.281250,88.68,69.62
167306,2018-06-29 10:12:00.312500,82.61,69.62
167307,2018-06-29 10:12:00.343750,79.1,69.62
167308,2018-06-29 10:12:00.375000,79.06,69.62
167309,2018-06-29 10:12:00.406250,80.96,69.62
167310,2018-06-29 10:12:00.437500,83.21,69.62
167311,2018-06-29 10:12:00.468750,85.35,69.62
167312,2018-06-29 10:12:00.500000,86.5,69.62
167313,2018-06-29 10:12:00.531250,84.89,69.52
167314,2018-06-29 10:12:00.562500,79.88,69.52
167315,2018-06-29 10:12:00.593750,72.92,69.52
167316,2018-06-29 10:12:00.625000,65.72,69.52
167317,2018-06-29 10:12:00.656250,57.46,69.52
167318,2018-06-29 10:12:00.687500,45.78,69.52
167319,2018-06-29 10:12:00.718750,30.62,69.52
167320,2018-06-29 10:12:00.750000,14.63,69.52
167321,2018-06-29 10:12:00.781250,-1.45,69.52
167322,2018-06-29 10:12:00.812500,-19.77,69.52
167323,2018-06-29 10:12:00.843750,-40.95,69.52
167324,2018-06-29 10:12:00.875000,-59.73,69.52
167325,2018-06-29 10:12:00.906250,-65.03,69.52
167326,2018-06-29 10:12:00.937500,-47.48,69.52
167327,2018-06-29 10:12:00.968750,-9.9,69.52
167328,2018-06-29 10:12:01.000000,32.73,69.52
167329,2018-06-29 10:12:01.031250,67.05,69.52
167330,2018-06-29 10:12:01.062500,91.23,69.52
167331,2018-06-29 10:12:01.093750,109.82,69.52
167332,2018-06-29 10:12:01.125000,124.01,69.52
167333,2018-06-29 10:12:01.156250,130.6,69.52
167334,2018-06-29 10:12:01.187500,128.86,69.52
167335,2018-06-29 10:12:01.218750,123.55,69.52
167336,2018-06-29 10:12:01.250000,119.69,69.52
167337,2018-06-29 10:12:01.281250,118.05,69.52
167338,2018-06-29 10:12:01.312500,117.35,69.52
167339,2018-06-29 10:12:01.343750,116.22,69.52
167340,2018-06-29 10:12:01.375000,111.75,69.52
167341,2018-06-29 10:12:01.406250,101.05,69.52
167342,2018-06-29 10:12:01.437500,84.81,69.52
167343,2018-06-29 10:12:01.468750,65.81,69.52
167344,2018-06-29 10:12:01.500000,45.02,69.52
167345,2018-06-29 10:12:01.531250,22.3,69.45
167346,2018-06-29 10:12:01.562500,-1.48,69.45
167347,2018-06-29 10:12:01.593750,-25.03,69.45
167348,2018-06-29 10:12:01.625000,-46.85,69.45
167349,2018-06-29 10:12:01.656250,-63.5,69.45
167350,2018-06-29 10:12:01.687500,-70.28,69.45
167351,2018-06-29 10:12:01.718750,-65.67,69.45
167352,2018-06-29 10:12:01.750000,-53.56,69.45
167353,2018-06-29 10:12:01.781250,-39.55,69.45
167354,2018-06-29 10:12:01.812500,-24.87,69.45
167355,2018-06-29 10:12:01.843750,-4.67,69.45
167356,2018-06-29 10:12:01.875000,24.75,69.45
167357,2018-06-29 10:12:01.906250,57.88,69.45
167358,2018-06-29 10:12:01.937500,84.91,69.45
167359,2018-06-29 10:12:01.968750,104.37,69.45
167360,2018-06-29 10:12:02.000000,123.55,69.45
167361,2018-06-29 10:12:02.031250,147.29,69.45
167362,2018-06-29 10:12:02.062500,172.79,69.45
167363,2018-06-29 10:12:02.093750,193.18,69.45
167364,2018-06-29 10:12:02.125000,202.24,69.45
167365,2018-06-29 10:12:02.156250,198.05,69.45
167366,2018-06-29 10:12:02.187500,182.51,69.45
167367,2018-06-29 10:12:02.218750,157.44,69.45
167368,2018-06-29 10:12:02.250000,125.08,69.45
167369,2018-06-29 10:12:02.281250,90.38,69.45
167370,2018-06-29 10:12:02.312500,58.43,69.45
167371,2018-06-29 10:12:02.343750,31.32,69.45
167372,2018-06-29 10:12:02.375000,8.88,69.45
167373,2018-06-29 10:12:02.406250,-10.51,69.45
167374,2018-06-29 10:12:02.437500,-29.66,69.45
167375,2018-06-29 10:12:02.468750,-50.89,69.45
167376,2018-06-29 10:12:02.500000,-73.55,69.45
167377,2018-06-29 10:12:02.531250,-92.18,69.4
167378,2018-06-29 10:12:02.562500,-97.38,69.4
167379,2018-06-29 10:12:02.593750,-84.35,69.4
167380,2018-06-29 10:12:02.625000,-61.15,69.4
167381,2018-06-29 10:12:02.656250,-42.24,69.4
167382,2018-06-29 10:12:02.687500,-32.43,69.4
167383,2018-06-29 10:12:02.718750,-20.87,69.4
167384,2018-06-29 10:12:02.750000,7.82,69.4
167385,2018-06-29 10:12:02.781250,55.72,69.4
167386,2018-06-29 10:12:02.812500,103.0,69.4
167387,2018-06-29 10:12:02.843750,122.19,69.4
167388,2018-06-29 10:12:02.875000,105.88,69.4
167389,2018-06-29 10:12:02.906250,71.99,69.4
167390,2018-06-29 10:12:02.937500,39.72,69.4
167391,2018-06-29 10:12:02.968750,12.71,69.4
167392,2018-06-29 10:12:03.000000,-12.19,69.4
167393,2018-06-29 10:12:03.031250,-34.55,69.4
167394,2018-06-29 10:12:03.062500,-51.58,69.4
167395,2018-06-29 10:12:03.093750,-60.3,69.4
167396,2018-06-29 10:12:03.125000,-57.78,69.4
167397,2018-06-29 10:12:03.156250,-42.48,69.4
167398,2018-06-29 10:12:03.187500,-13.8,69.4
167399,2018-06-29 10:12:03.218750,28.17,69.4
167400,2018-06-29 10:12:03.250000,75.96,69.4
167401,2018-06-29 10:12:03.281250,112.56,69.4
167402,2018-06-29 10:12:03.312500,126.82,69.4
167403,2018-06-29 10:12:03.343750,124.45,69.4
167404,2018-06-29 10:12:03.375000,115.37,69.4
167405,2018-06-29 10:12:03.406250,100.24,69.4
167406,2018-06-29 10:12:03.437500,74.43,69.4
167407,2018-06-29 10:12:03.468750,34.94,69.4
167408,2018-06-29 10:12:03.500000,-14.63,69.4
167409,2018-06-29 10:12:03.531250,-59.52,69.37
167410,2018-06-29 10:12:03.562500,-82.82,69.37
167411,2018-06-29 10:12:03.593750,-80.06,69.37
167412,2018-06-29 10:12:03.625000,-57.04,69.37
167413,2018-06-29 10:12:03.656250,-22.69,69.37
167414,2018-06-29 10:12:03.687500,9.13,69.37
167415,2018-06-29 10:12:03.718750,25.5,69.37
167416,2018-06-29 10:12:03.750000,27.76,69.37
167417,2018-06-29 10:12:03.781250,27.94,69.37
167418,2018-06-29 10:12:03.812500,30.15,69.37
167419,2018-06-29 10:12:03.843750,24.91,69.37
167420,2018-06-29 10:12:03.875000,5.02,69.37
167421,2018-06-29 10:12:03.906250,-18.63,69.37
167422,2018-06-29 10:12:03.937500,-26.67,69.37
167423,2018-06-29 10:12:03.968750,-19.69,69.37
167424,2018-06-29 10:12:04.000000,-23.47,69.37
167425,2018-06-29 10:12:04.031250,-57.95,69.37
167426,2018-06-29 10:12:04.062500,-113.81,69.37
167427,2018-06-29 10:12:04.093750,-165.26,69.37
167428,2018-06-29 10:12:04.125000,-193.29,69.37
167429,2018-06-29 10:12:04.156250,-194.91,69.37
167430,2018-06-29 10:12:04.187500,-181.32,69.37
167431,2018-06-29 10:12:04.218750,-164.06,69.37
167432,2018-06-29 10:12:04.250000,-134.83,69.37
167433,2018-06-29 10:12:04.281250,-74.93,69.37
167434,2018-06-29 10:12:04.312500,5.01,69.37
167435,2018-06-29 10:12:04.343750,57.56,69.37
167436,2018-06-29 10:12:04.375000,45.5,69.37
167437,2018-06-29 10:12:04.406250,-20.28,69.37
167438,2018-06-29 10:12:04.437500,-95.03,69.37
167439,2018-06-29 10:12:04.468750,-139.41,69.37
167440,2018-06-29 10:12:04.500000,-143.53,69.37
167441,2018-06-29 10:12:04.531250,-122.41,69.37
167442,2018-06-29 10:12:04.562500,-93.13,69.37
167443,2018-06-29 10:12:04.593750,-63.54,69.37
167444,2018-06-29 10:12:04.625000,-41.29,69.37
167445,2018-06-29 10:12:04.656250,-32.45,69.37
167446,2018-06-29 10:12:04.687500,-29.61,69.37
167447,2018-06-29 10:12:04.718750,-23.49,69.37
167448,2018-06-29 10:12:04.750000,-21.01,69.37
167449,2018-06-29 10:12:04.781250,-32.5,69.37
167450,2018-06-29 10:12:04.812500,-53.4,69.37
167451,2018-06-29 10:12:04.843750,-75.21,69.37
167452,2018-06-29 10:12:04.875000,-99.17,69.37
167453,2018-06-29 10:12:04.906250,-127.79,69.37
167454,2018-06-29 10:12:04.937500,-157.27,69.37
167455,2018-06-29 10:12:04.968750,-182.57,69.37
167456,2018-06-29 10:12:05.000000,-200.14,69.37
167457,2018-06-29 10:12:05.031250,-206.51,69.37
167458,2018-06-29 10:12:05.062500,-200.73,69.37
167459,2018-06-29 10:12:05.093750,-190.4,69.37
167460,2018-06-29 10:12:05.125000,-190.52,69.37
167461,2018-06-29 10:12:05.156250,-208.53,69.37
167462,2018-06-29 10:12:05.187500,-231.21,69.37
167463,2018-06-29 10:12:05.218750,-234.14,69.37
167464,2018-06-29 10:12:05.250000,-204.53,69.37
167465,2018-06-29 10:12:05.281250,-148.25,69.37
167466,2018-06-29 10:12:05.312500,-80.88,69.37
167467,2018-06-29 10:12:05.343750,-20.09,69.37
167468,2018-06-29 10:12:05.375000,20.58,69.37
167469,2018-06-29 10:12:05.406250,39.91,69.37
167470,2018-06-29 10:12:05.437500,49.57,69.37
167471,2018-06-29 10:12:05.468750,65.18,69.37
167472,2018-06-29 10:12:05.500000,95.67,69.37
167473,2018-06-29 10:12:05.531250,135.82,69.35
167474,2018-06-29 10:12:05.562500,170.78,69.35
167475,2018-06-29 10:12:05.593750,191.71,69.35
167476,2018-06-29 10:12:05.625000,198.62,69.35
167477,2018-06-29 10:12:05.656250,188.18,69.35
167478,2018-06-29 10:12:05.687500,154.62,69.35
167479,2018-06-29 10:12:05.718750,101.96,69.35
167480,2018-06-29 10:12:05.750000,40.38,69.35
167481,2018-06-29 10:12:05.781250,-23.58,69.35
167482,2018-06-29 10:12:05.812500,-82.75,69.35
167483,2018-06-29 10:12:05.843750,-127.77,69.35
167484,2018-06-29 10:12:05.875000,-158.39,69.35
167485,2018-06-29 10:12:05.906250,-182.8,69.35
167486,2018-06-29 10:12:05.937500,-200.86,69.35
167487,2018-06-29 10:12:05.968750,-199.42,69.35
167488,2018-06-29 10:12:06.000000,-168.6,69.35
167489,2018-06-29 10:12:06.031250,-116.47,69.35
167490,2018-06-29 10:12:06.062500,-62.9,69.35
167491,2018-06-29 10:12:06.093750,-20.98,69.35
167492,2018-06-29 10:12:06.125000,10.15,69.35
167493,2018-06-29 10:12:06.156250,33.9,69.35
167494,2018-06-29 10:12:06.187500,48.01,69.35
167495,2018-06-29 10:12:06.218750,52.57,69.35
167496,2018-06-29 10:12:06.250000,55.7,69.35
167497,2018-06-29 10:12:06.281250,63.78,69.35
167498,2018-06-29 10:12:06.312500,74.04,69.35
167499,2018-06-29 10:12:06.343750,81.52,69.35
167500,2018-06-29 10:12:06.375000,85.6,69.35
167501,2018-06-29 10:12:06.406250,87.46,69.35
167502,2018-06-29 10:12:06.437500,88.75,69.35
167503,2018-06-29 10:12:06.468750,91.39,69.35
167504,2018-06-29 10:12:06.500000,93.06,69.35
167505,2018-06-29 10:12:06.531250,86.23,69.35
167506,2018-06-29 10:12:06.562500,66.06,69.35
167507,2018-06-29 10:12:06.593750,36.8,69.35
167508,2018-06-29 10:12:06.625000,7.47,69.35
167509,2018-06-29 10:12:06.656250,-16.66,69.35
167510,2018-06-29 10:12:06.687500,-36.19,69.35
167511,2018-06-29 10:12:06.718750,-48.96,69.35
167512,2018-06-29 10:12:06.750000,-45.18,69.35
167513,2018-06-29 10:12:06.781250,-19.35,69.35
167514,2018-06-29 10:12:06.812500,18.1,69.35
167515,2018-06-29 10:12:06.843750,51.38,69.35
167516,2018-06-29 10:12:06.875000,76.13,69.35
167517,2018-06-29 10:12:06.906250,96.25,69.35
167518,2018-06-29 10:12:06.937500,110.93,69.35
167519,2018-06-29 10:12:06.968750,115.89,69.35
167520,2018-06-29 10:12:07.000000,112.31,69.35
167521,2018-06-29 10:12:07.031250,105.5,69.35
167522,2018-06-29 10:12:07.062500,98.74,69.35
167523,2018-06-29 10:12:07.093750,93.42,69.35
167524,2018-06-29 10:12:07.125000,91.61,69.35
167525,2018-06-29 10:12:07.156250,93.78,69.35
167526,2018-06-29 10:12:07.187500,96.26,69.35
167527,2018-06-29 10:12:07.218750,94.75,69.35
167528,2018-06-29 10:12:07.250000,89.78,69.35
167529,2018-06-29 10:12:07.281250,85.17,69.35
167530,2018-06-29 10:12:07.312500,82.13,69.35
167531,2018-06-29 10:12:07.343750,79.01,69.35
167532,2018-06-29 10:12:07.375000,75.64,69.35
167533,2018-06-29 10:12:07.406250,73.47,69.35
167534,2018-06-29 10:12:07.437500,72.51,69.35
167535,2018-06-29 10:12:07.468750,70.68,69.35
167536,2018-06-29 10:12:07.500000,65.35,69.35
167537,2018-06-29 10:12:07.531250,55.02,69.35
167538,2018-06-29 10:12:07.562500,40.75,69.35
167539,2018-06-29 10:12:07.593750,26.24,69.35
167540,2018-06-29 10:12:07.625000,15.18,69.35
167541,2018-06-29 10:12:07.656250,7.89,69.35
167542,2018-06-29 10:12:07.687500,0.72,69.35
167543,2018-06-29 10:12:07.718750,-10.55,69.35
167544,2018-06-29 10:12:07.750000,-25.83,69.35
167545,2018-06-29 10:12:07.781250,-41.07,69.35
167546,2018-06-29 10:12:07.812500,-54.06,69.35
167547,2018-06-29 10:12:07.843750,-67.42,69.35
167548,2018-06-29 10:12:07.875000,-84.62,69.35
167549,2018-06-29 10:12:07.906250,-103.36,69.35
167550,2018-06-29 10:12:07.937500,-112.56,69.35
167551,2018-06-29 10:12:07.968750,-100.09,69.35
167552,2018-06-29 10:12:08.000000,-66.86,69.35
167553,2018-06-29 10:12:08.031250,-27.95,69.35
167554,2018-06-29 10:12:08.062500,3.04,69.35
167555,2018-06-29 10:12:08.093750,24.25,69.35
167556,2018-06-29 10:12:08.125000,39.11,69.35
167557,2018-06-29 10:12:08.156250,47.75,69.35
167558,2018-06-29 10:12:08.187500,48.64,69.35
167559,2018-06-29 10:12:08.218750,42.76,69.35
167560,2018-06-29 10:12:08.250000,32.59,69.35
167561,2018-06-29 10:12:08.281250,19.81,69.35
167562,2018-06-29 10:12:08.312500,7.74,69.35
167563,2018-06-29 10:12:08.343750,2.5,69.35
167564,2018-06-29 10:12:08.375000,7.36,69.35
167565,2018-06-29 10:12:08.406250,18.31,69.35
167566,2018-06-29 10:12:08.437500,28.77,69.35
167567,2018-06-29 10:12:08.468750,35.83,69.35
167568,2018-06-29 10:12:08.500000,39.29,69.35
167569,2018-06-29 10:12:08.531250,38.36,69.33
167570,2018-06-29 10:12:08.562500,32.19,69.33
167571,2018-06-29 10:12:08.593750,21.5,69.33
167572,2018-06-29 10:12:08.625000,7.92,69.33
167573,2018-06-29 10:12:08.656250,-6.06,69.33
167574,2018-06-29 10:12:08.687500,-16.96,69.33
167575,2018-06-29 10:12:08.718750,-22.84,69.33
167576,2018-06-29 10:12:08.750000,-25.84,69.33
167577,2018-06-29 10:12:08.781250,-31.03,69.33
167578,2018-06-29 10:12:08.812500,-42.42,69.33
167579,2018-06-29 10:12:08.843750,-57.04,69.33
167580,2018-06-29 10:12:08.875000,-63.53,69.33
167581,2018-06-29 10:12:08.906250,-52.96,69.33
167582,2018-06-29 10:12:08.937500,-30.35,69.33
167583,2018-06-29 10:12:08.968750,-8.38,69.33
167584,2018-06-29 10:12:09.000000,7.38,69.33
167585,2018-06-29 10:12:09.031250,19.53,69.33
167586,2018-06-29 10:12:09.062500,30.15,69.33
167587,2018-06-29 10:12:09.093750,39.02,69.33
167588,2018-06-29 10:12:09.125000,46.67,69.33
167589,2018-06-29 10:12:09.156250,54.28,69.33
167590,2018-06-29 10:12:09.187500,62.06,69.33
167591,2018-06-29 10:12:09.218750,69.96,69.33
167592,2018-06-29 10:12:09.250000,77.58,69.33
167593,2018-06-29 10:12:09.281250,83.19,69.33
167594,2018-06-29 10:12:09.312500,84.51,69.33
167595,2018-06-29 10:12:09.343750,80.61,69.33
167596,2018-06-29 10:12:09.375000,72.76,69.33
167597,2018-06-29 10:12:09.406250,63.25,69.33
167598,2018-06-29 10:12:09.437500,53.53,69.33
167599,2018-06-29 10:12:09.468750,43.13,69.33
167600,2018-06-29 10:12:09.500000,31.41,69.33
167601,2018-06-29 10:12:09.531250,19.03,69.28
167602,2018-06-29 10:12:09.562500,6.24,69.28
167603,2018-06-29 10:12:09.593750,-7.96,69.28
167604,2018-06-29 10:12:09.625000,-23.58,69.28
167605,2018-06-29 10:12:09.656250,-38.54,69.28
167606,2018-06-29 10:12:09.687500,-51.67,69.28
167607,2018-06-29 10:12:09.718750,-65.16,69.28
167608,2018-06-29 10:12:09.750000,-82.05,69.28
167609,2018-06-29 10:12:09.781250,-99.98,69.28
167610,2018-06-29 10:12:09.812500,-108.45,69.28
167611,2018-06-29 10:12:09.843750,-97.34,69.28
167612,2018-06-29 10:12:09.875000,-68.88,69.28
167613,2018-06-29 10:12:09.906250,-36.39,69.28
167614,2018-06-29 10:12:09.937500,-10.54,69.28
167615,2018-06-29 10:12:09.968750,7.5,69.28
167616,2018-06-29 10:12:10.000000,19.88,69.28
167617,2018-06-29 10:12:10.031250,26.54,69.28
167618,2018-06-29 10:12:10.062500,27.69,69.28
167619,2018-06-29 10:12:10.093750,26.07,69.28
167620,2018-06-29 10:12:10.125000,24.12,69.28
167621,2018-06-29 10:12:10.156250,22.12,69.28
167622,2018-06-29 10:12:10.187500,20.37,69.28
167623,2018-06-29 10:12:10.218750,19.89,69.28
167624,2018-06-29 10:12:10.250000,19.59,69.28
167625,2018-06-29 10:12:10.281250,16.44,69.28
167626,2018-06-29 10:12:10.312500,9.72,69.28
167627,2018-06-29 10:12:10.343750,2.14,69.28
167628,2018-06-29 10:12:10.375000,-3.75,69.28
167629,2018-06-29 10:12:10.406250,-8.93,69.28
167630,2018-06-29 10:12:10.437500,-16.27,69.28
167631,2018-06-29 10:12:10.468750,-25.84,69.28
167632,2018-06-29 10:12:10.500000,-34.42,69.28
167633,2018-06-29 10:12:10.531250,-40.16,69.22
167634,2018-06-29 10:12:10.562500,-45.18,69.22
167635,2018-06-29 10:12:10.593750,-53.02,69.22
167636,2018-06-29 10:12:10.625000,-63.67,69.22
167637,2018-06-29 10:12:10.656250,-70.3,69.22
167638,2018-06-29 10:12:10.687500,-62.87,69.22
167639,2018-06-29 10:12:10.718750,-39.02,69.22
167640,2018-06-29 10:12:10.750000,-8.09,69.22
167641,2018-06-29 10:12:10.781250,18.65,69.22
167642,2018-06-29 10:12:10.812500,37.09,69.22
167643,2018-06-29 10:12:10.843750,47.77,69.22
167644,2018-06-29 10:12:10.875000,50.77,69.22
167645,2018-06-29 10:12:10.906250,47.55,69.22
167646,2018-06-29 10:12:10.937500,42.83,69.22
167647,2018-06-29 10:12:10.968750,40.84,69.22
167648,2018-06-29 10:12:11.000000,41.49,69.22
167649,2018-06-29 10:12:11.031250,42.24,69.22
167650,2018-06-29 10:12:11.062500,41.69,69.22
167651,2018-06-29 10:12:11.093750,39.77,69.22
167652,2018-06-29 10:12:11.125000,36.13,69.22
167653,2018-06-29 10:12:11.156250,30.3,69.22
167654,2018-06-29 10:12:11.187500,23.37,69.22
167655,2018-06-29 10:12:11.218750,18.08,69.22
167656,2018-06-29 10:12:11.250000,15.71,69.22
167657,2018-06-29 10:12:11.281250,14.05,69.22
167658,2018-06-29 10:12:11.312500,10.18,69.22
167659,2018-06-29 10:12:11.343750,3.36,69.22
167660,2018-06-29 10:12:11.375000,-6.51,69.22
167661,2018-06-29 10:12:11.406250,-19.95,69.22
167662,2018-06-29 10:12:11.437500,-36.52,69.22
167663,2018-06-29 10:12:11.468750,-54.88,69.22
167664,2018-06-29 10:12:11.500000,-72.34,69.22
167665,2018-06-29 10:12:11.531250,-81.57,69.13
167666,2018-06-29 10:12:11.562500,-73.81,69.13
167667,2018-06-29 10:12:11.593750,-49.82,69.13
167668,2018-06-29 10:12:11.625000,-20.91,69.13
167669,2018-06-29 10:12:11.656250,3.41,69.13
167670,2018-06-29 10:12:11.687500,21.83,69.13
167671,2018-06-29 10:12:11.718750,34.33,69.13
167672,2018-06-29 10:12:11.750000,38.73,69.13
167673,2018-06-29 10:12:11.781250,36.19,69.13
167674,2018-06-29 10:12:11.812500,32.1,69.13
167675,2018-06-29 10:12:11.843750,29.99,69.13
167676,2018-06-29 10:12:11.875000,29.27,69.13
167677,2018-06-29 10:12:11.906250,28.87,69.13
167678,2018-06-29 10:12:11.937500,28.36,69.13
167679,2018-06-29 10:12:11.968750,26.35,69.13
167680,2018-06-29 10:12:12.000000,21.62,69.13
167681,2018-06-29 10:12:12.031250,14.74,69.13
167682,2018-06-29 10:12:12.062500,7.49,69.13
167683,2018-06-29 10:12:12.093750,1.11,69.13
167684,2018-06-29 10:12:12.125000,-4.94,69.13
167685,2018-06-29 10:12:12.156250,-12.45,69.13
167686,2018-06-29 10:12:12.187500,-21.47,69.13
167687,2018-06-29 10:12:12.218750,-29.16,69.13
167688,2018-06-29 10:12:12.250000,-33.82,69.13
167689,2018-06-29 10:12:12.281250,-38.07,69.13
167690,2018-06-29 10:12:12.312500,-45.39,69.13
167691,2018-06-29 10:12:12.343750,-55.47,69.13
167692,2018-06-29 10:12:12.375000,-63.19,69.13
167693,2018-06-29 10:12:12.406250,-60.89,69.13
167694,2018-06-29 10:12:12.437500,-44.5,69.13
167695,2018-06-29 10:12:12.468750,-19.28,69.13
167696,2018-06-29 10:12:12.500000,3.93,69.13
167697,2018-06-29 10:12:12.531250,18.64,69.0
167698,2018-06-29 10:12:12.562500,24.81,69.0
167699,2018-06-29 10:12:12.593750,24.0,69.0
167700,2018-06-29 10:12:12.625000,18.8,69.0
167701,2018-06-29 10:12:12.656250,14.03,69.0
167702,2018-06-29 10:12:12.687500,13.35,69.0
167703,2018-06-29 10:12:12.718750,16.29,69.0
167704,2018-06-29 10:12:12.750000,20.23,69.0
167705,2018-06-29 10:12:12.781250,22.34,69.0
167706,2018-06-29 10:12:12.812500,20.32,69.0
167707,2018-06-29 10:12:12.843750,14.1,69.0
167708,2018-06-29 10:12:12.875000,6.05,69.0
167709,2018-06-29 10:12:12.906250,-2.17,69.0
167710,2018-06-29 10:12:12.937500,-11.07,69.0
167711,2018-06-29 10:12:12.968750,-21.0,69.0
167712,2018-06-29 10:12:13.000000,-30.35,69.0
167713,2018-06-29 10:12:13.031250,-37.76,69.0
167714,2018-06-29 10:12:13.062500,-44.48,69.0
167715,2018-06-29 10:12:13.093750,-53.52,69.0
167716,2018-06-29 10:12:13.125000,-66.32,69.0
167717,2018-06-29 10:12:13.156250,-78.83,69.0
167718,2018-06-29 10:12:13.187500,-81.18,69.0
167719,2018-06-29 10:12:13.218750,-65.81,69.0
167720,2018-06-29 10:12:13.250000,-36.9,69.0
167721,2018-06-29 10:12:13.281250,-6.91,69.0
167722,2018-06-29 10:12:13.312500,15.82,69.0
167723,2018-06-29 10:12:13.343750,31.11,69.0
167724,2018-06-29 10:12:13.375000,41.02,69.0
167725,2018-06-29 10:12:13.406250,46.19,69.0
167726,2018-06-29 10:12:13.437500,47.23,69.0
167727,2018-06-29 10:12:13.468750,45.89,69.0
167728,2018-06-29 10:12:13.500000,44.55,69.0
167729,2018-06-29 10:12:13.531250,44.7,68.88
167730,2018-06-29 10:12:13.562500,45.58,68.88
167731,2018-06-29 10:12:13.593750,44.79,68.88
167732,2018-06-29 10:12:13.625000,40.23,68.88
167733,2018-06-29 10:12:13.656250,31.29,68.88
167734,2018-06-29 10:12:13.687500,19.42,68.88
167735,2018-06-29 10:12:13.718750,6.96,68.88
167736,2018-06-29 10:12:13.750000,-5.19,68.88
167737,2018-06-29 10:12:13.781250,-17.68,68.88
167738,2018-06-29 10:12:13.812500,-29.98,68.88
167739,2018-06-29 10:12:13.843750,-40.99,68.88
167740,2018-06-29 10:12:13.875000,-52.14,68.88
167741,2018-06-29 10:12:13.906250,-66.96,68.88
167742,2018-06-29 10:12:13.937500,-87.51,68.88
167743,2018-06-29 10:12:13.968750,-109.38,68.88
167744,2018-06-29 10:12:14.000000,-119.89,68.88
167745,2018-06-29 10:12:14.031250,-107.42,68.88
167746,2018-06-29 10:12:14.062500,-74.84,68.88
167747,2018-06-29 10:12:14.093750,-36.58,68.88
167748,2018-06-29 10:12:14.125000,-3.12,68.88
167749,2018-06-29 10:12:14.156250,22.75,68.88
167750,2018-06-29 10:12:14.187500,38.48,68.88
167751,2018-06-29 10:12:14.218750,41.2,68.88
167752,2018-06-29 10:12:14.250000,33.54,68.88
167753,2018-06-29 10:12:14.281250,22.89,68.88
167754,2018-06-29 10:12:14.312500,15.09,68.88
167755,2018-06-29 10:12:14.343750,12.05,68.88
167756,2018-06-29 10:12:14.375000,14.28,68.88
167757,2018-06-29 10:12:14.406250,21.76,68.88
167758,2018-06-29 10:12:14.437500,32.0,68.88
167759,2018-06-29 10:12:14.468750,40.46,68.88
167760,2018-06-29 10:12:14.500000,43.73,68.88
167761,2018-06-29 10:12:14.531250,40.38,68.77
167762,2018-06-29 10:12:14.562500,30.2,68.77
167763,2018-06-29 10:12:14.593750,14.85,68.77
167764,2018-06-29 10:12:14.625000,-1.54,68.77
167765,2018-06-29 10:12:14.656250,-14.6,68.77
167766,2018-06-29 10:12:14.687500,-22.61,68.77
167767,2018-06-29 10:12:14.718750,-25.76,68.77
167768,2018-06-29 10:12:14.750000,-24.71,68.77
167769,2018-06-29 10:12:14.781250,-21.66,68.77
167770,2018-06-29 10:12:14.812500,-21.39,68.77
167771,2018-06-29 10:12:14.843750,-28.06,68.77
167772,2018-06-29 10:12:14.875000,-39.76,68.77
167773,2018-06-29 10:12:14.906250,-46.35,68.77
167774,2018-06-29 10:12:14.937500,-36.55,68.77
167775,2018-06-29 10:12:14.968750,-9.43,68.77
167776,2018-06-29 10:12:15.000000,25.05,68.77
167777,2018-06-29 10:12:15.031250,57.21,68.77
167778,2018-06-29 10:12:15.062500,83.57,68.77
167779,2018-06-29 10:12:15.093750,102.76,68.77
167780,2018-06-29 10:12:15.125000,113.14,68.77
167781,2018-06-29 10:12:15.156250,115.74,68.77
167782,2018-06-29 10:12:15.187500,114.63,68.77
167783,2018-06-29 10:12:15.218750,112.66,68.77
167784,2018-06-29 10:12:15.250000,109.15,68.77
167785,2018-06-29 10:12:15.281250,103.12,68.77
167786,2018-06-29 10:12:15.312500,95.85,68.77
167787,2018-06-29 10:12:15.343750,87.5,68.77
167788,2018-06-29 10:12:15.375000,74.44,68.77
167789,2018-06-29 10:12:15.406250,54.31,68.77
167790,2018-06-29 10:12:15.437500,31.36,68.77
167791,2018-06-29 10:12:15.468750,12.22,68.77
167792,2018-06-29 10:12:15.500000,-1.66,68.77
167793,2018-06-29 10:12:15.531250,-13.65,68.68
167794,2018-06-29 10:12:15.562500,-25.41,68.68
167795,2018-06-29 10:12:15.593750,-35.31,68.68
167796,2018-06-29 10:12:15.625000,-42.49,68.68
167797,2018-06-29 10:12:15.656250,-49.0,68.68
167798,2018-06-29 10:12:15.687500,-56.6,68.68
167799,2018-06-29 10:12:15.718750,-64.08,68.68
167800,2018-06-29 10:12:15.750000,-69.67,68.68
167801,2018-06-29 10:12:15.781250,-74.51,68.68
167802,2018-06-29 10:12:15.812500,-81.84,68.68
167803,2018-06-29 10:12:15.843750,-93.32,68.68
167804,2018-06-29 10:12:15.875000,-104.9,68.68
167805,2018-06-29 10:12:15.906250,-105.5,68.68
167806,2018-06-29 10:12:15.937500,-85.56,68.68
167807,2018-06-29 10:12:15.968750,-49.22,68.68
167808,2018-06-29 10:12:16.000000,-11.43,68.68
167809,2018-06-29 10:12:16.031250,17.5,68.68
167810,2018-06-29 10:12:16.062500,37.22,68.68
167811,2018-06-29 10:12:16.093750,49.67,68.68
167812,2018-06-29 10:12:16.125000,54.93,68.68
167813,2018-06-29 10:12:16.156250,54.64,68.68
167814,2018-06-29 10:12:16.187500,53.07,68.68
167815,2018-06-29 10:12:16.218750,53.29,68.68
167816,2018-06-29 10:12:16.250000,54.76,68.68
167817,2018-06-29 10:12:16.281250,55.75,68.68
167818,2018-06-29 10:12:16.312500,55.89,68.68
167819,2018-06-29 10:12:16.343750,54.92,68.68
167820,2018-06-29 10:12:16.375000,51.26,68.68
167821,2018-06-29 10:12:16.406250,43.84,68.68
167822,2018-06-29 10:12:16.437500,34.39,68.68
167823,2018-06-29 10:12:16.468750,25.84,68.68
167824,2018-06-29 10:12:16.500000,18.91,68.68
167825,2018-06-29 10:12:16.531250,11.83,68.6
167826,2018-06-29 10:12:16.562500,3.81,68.6
167827,2018-06-29 10:12:16.593750,-3.88,68.6
167828,2018-06-29 10:12:16.625000,-10.5,68.6
167829,2018-06-29 10:12:16.656250,-17.37,68.6
167830,2018-06-29 10:12:16.687500,-26.41,68.6
167831,2018-06-29 10:12:16.718750,-37.95,68.6
167832,2018-06-29 10:12:16.750000,-50.21,68.6
167833,2018-06-29 10:12:16.781250,-61.55,68.6
167834,2018-06-29 10:12:16.812500,-73.35,68.6
167835,2018-06-29 10:12:16.843750,-88.86,68.6
167836,2018-06-29 10:12:16.875000,-109.14,68.6
167837,2018-06-29 10:12:16.906250,-130.13,68.6
167838,2018-06-29 10:12:16.937500,-141.65,68.6
167839,2018-06-29 10:12:16.968750,-131.74,68.6
167840,2018-06-29 10:12:17.000000,-97.95,68.6
167841,2018-06-29 10:12:17.031250,-52.25,68.6
167842,2018-06-29 10:12:17.062500,-10.05,68.6
167843,2018-06-29 10:12:17.093750,19.94,68.6
167844,2018-06-29 10:12:17.125000,33.02,68.6
167845,2018-06-29 10:12:17.156250,27.18,68.6
167846,2018-06-29 10:12:17.187500,8.89,68.6
167847,2018-06-29 10:12:17.218750,-8.19,68.6
167848,2018-06-29 10:12:17.250000,-13.67,68.6
167849,2018-06-29 10:12:17.281250,-5.08,68.6
167850,2018-06-29 10:12:17.312500,15.59,68.6
167851,2018-06-29 10:12:17.343750,44.02,68.6
167852,2018-06-29 10:12:17.375000,72.61,68.6
167853,2018-06-29 10:12:17.406250,92.11,68.6
167854,2018-06-29 10:12:17.437500,97.79,68.6
167855,2018-06-29 10:12:17.468750,92.85,68.6
167856,2018-06-29 10:12:17.500000,83.77,68.6
167857,2018-06-29 10:12:17.531250,73.47,68.48
167858,2018-06-29 10:12:17.562500,61.11,68.48
167859,2018-06-29 10:12:17.593750,46.61,68.48
167860,2018-06-29 10:12:17.625000,30.25,68.48
167861,2018-06-29 10:12:17.656250,9.91,68.48
167862,2018-06-29 10:12:17.687500,-16.67,68.48
167863,2018-06-29 10:12:17.718750,-47.54,68.48
167864,2018-06-29 10:12:17.750000,-77.28,68.48
167865,2018-06-29 10:12:17.781250,-101.29,68.48
167866,2018-06-29 10:12:17.812500,-117.72,68.48
167867,2018-06-29 10:12:17.843750,-126.76,68.48
167868,2018-06-29 10:12:17.875000,-127.03,68.48
167869,2018-06-29 10:12:17.906250,-111.75,68.48
167870,2018-06-29 10:12:17.937500,-74.34,68.48
167871,2018-06-29 10:12:17.968750,-23.04,68.48
167872,2018-06-29 10:12:18.000000,17.09,68.48
167873,2018-06-29 10:12:18.031250,26.16,68.48
167874,2018-06-29 10:12:18.062500,8.36,68.48
167875,2018-06-29 10:12:18.093750,-18.08,68.48
167876,2018-06-29 10:12:18.125000,-39.77,68.48
167877,2018-06-29 10:12:18.156250,-49.66,68.48
167878,2018-06-29 10:12:18.187500,-40.89,68.48
167879,2018-06-29 10:12:18.218750,-10.96,68.48
167880,2018-06-29 10:12:18.250000,31.93,68.48
167881,2018-06-29 10:12:18.281250,72.72,68.48
167882,2018-06-29 10:12:18.312500,99.16,68.48
167883,2018-06-29 10:12:18.343750,107.83,68.48
167884,2018-06-29 10:12:18.375000,102.68,68.48
167885,2018-06-29 10:12:18.406250,90.21,68.48
167886,2018-06-29 10:12:18.437500,76.35,68.48
167887,2018-06-29 10:12:18.468750,64.9,68.48
167888,2018-06-29 10:12:18.500000,55.26,68.48
167889,2018-06-29 10:12:18.531250,43.33,68.35
167890,2018-06-29 10:12:18.562500,27.13,68.35
167891,2018-06-29 10:12:18.593750,9.12,68.35
167892,2018-06-29 10:12:18.625000,-9.56,68.35
167893,2018-06-29 10:12:18.656250,-32.15,68.35
167894,2018-06-29 10:12:18.687500,-59.43,68.35
167895,2018-06-29 10:12:18.718750,-84.71,68.35
167896,2018-06-29 10:12:18.750000,-100.33,68.35
167897,2018-06-29 10:12:18.781250,-105.49,68.35
167898,2018-06-29 10:12:18.812500,-104.29,68.35
167899,2018-06-29 10:12:18.843750,-97.39,68.35
167900,2018-06-29 10:12:18.875000,-77.04,68.35
167901,2018-06-29 10:12:18.906250,-33.93,68.35
167902,2018-06-29 10:12:18.937500,30.26,68.35
167903,2018-06-29 10:12:18.968750,101.91,68.35
167904,2018-06-29 10:12:19.000000,165.22,68.35
167905,2018-06-29 10:12:19.031250,207.14,68.35
167906,2018-06-29 10:12:19.062500,219.16,68.35
167907,2018-06-29 10:12:19.093750,203.47,68.35
167908,2018-06-29 10:12:19.125000,173.21,68.35
167909,2018-06-29 10:12:19.156250,141.32,68.35
167910,2018-06-29 10:12:19.187500,113.64,68.35
167911,2018-06-29 10:12:19.218750,91.85,68.35
167912,2018-06-29 10:12:19.250000,74.94,68.35
167913,2018-06-29 10:12:19.281250,58.96,68.35
167914,2018-06-29 10:12:19.312500,40.81,68.35
167915,2018-06-29 10:12:19.343750,21.33,68.35
167916,2018-06-29 10:12:19.375000,2.18,68.35
167917,2018-06-29 10:12:19.406250,-16.58,68.35
167918,2018-06-29 10:12:19.437500,-35.29,68.35
167919,2018-06-29 10:12:19.468750,-53.83,68.35
167920,2018-06-29 10:12:19.500000,-69.46,68.35
167921,2018-06-29 10:12:19.531250,-77.4,68.18
167922,2018-06-29 10:12:19.562500,-76.17,68.18
167923,2018-06-29 10:12:19.593750,-67.03,68.18
167924,2018-06-29 10:12:19.625000,-47.96,68.18
167925,2018-06-29 10:12:19.656250,-17.44,68.18
167926,2018-06-29 10:12:19.687500,15.69,68.18
167927,2018-06-29 10:12:19.718750,35.56,68.18
167928,2018-06-29 10:12:19.750000,32.57,68.18
167929,2018-06-29 10:12:19.781250,9.69,68.18
167930,2018-06-29 10:12:19.812500,-21.09,68.18
167931,2018-06-29 10:12:19.843750,-46.65,68.18
167932,2018-06-29 10:12:19.875000,-58.71,68.18
167933,2018-06-29 10:12:19.906250,-56.22,68.18
167934,2018-06-29 10:12:19.937500,-43.59,68.18
167935,2018-06-29 10:12:19.968750,-26.93,68.18
167936,2018-06-29 10:12:20.000000,-11.96,68.18
167937,2018-06-29 10:12:20.031250,-3.33,68.18
167938,2018-06-29 10:12:20.062500,-3.42,68.18
167939,2018-06-29 10:12:20.093750,-12.31,68.18
167940,2018-06-29 10:12:20.125000,-29.13,68.18
167941,2018-06-29 10:12:20.156250,-52.47,68.18
167942,2018-06-29 10:12:20.187500,-78.65,68.18
167943,2018-06-29 10:12:20.218750,-100.36,68.18
167944,2018-06-29 10:12:20.250000,-110.56,68.18
167945,2018-06-29 10:12:20.281250,-108.78,68.18
167946,2018-06-29 10:12:20.312500,-99.76,68.18
167947,2018-06-29 10:12:20.343750,-85.41,68.18
167948,2018-06-29 10:12:20.375000,-64.14,68.18
167949,2018-06-29 10:12:20.406250,-38.66,68.18
167950,2018-06-29 10:12:20.437500,-16.28,68.18
167951,2018-06-29 10:12:20.468750,-0.63,68.18
167952,2018-06-29 10:12:20.500000,9.68,68.18
167953,2018-06-29 10:12:20.531250,15.09,68.02
167954,2018-06-29 10:12:20.562500,14.22,68.02
167955,2018-06-29 10:12:20.593750,8.24,68.02
167956,2018-06-29 10:12:20.625000,1.48,68.02
167957,2018-06-29 10:12:20.656250,-0.09,68.02
167958,2018-06-29 10:12:20.687500,8.58,68.02
167959,2018-06-29 10:12:20.718750,26.8,68.02
167960,2018-06-29 10:12:20.750000,47.18,68.02
167961,2018-06-29 10:12:20.781250,62.52,68.02
167962,2018-06-29 10:12:20.812500,70.75,68.02
167963,2018-06-29 10:12:20.843750,72.02,68.02
167964,2018-06-29 10:12:20.875000,66.61,68.02
167965,2018-06-29 10:12:20.906250,57.62,68.02
167966,2018-06-29 10:12:20.937500,50.06,68.02
167967,2018-06-29 10:12:20.968750,45.56,68.02
167968,2018-06-29 10:12:21.000000,42.25,68.02
167969,2018-06-29 10:12:21.031250,39.37,68.02
167970,2018-06-29 10:12:21.062500,37.78,68.02
167971,2018-06-29 10:12:21.093750,36.54,68.02
167972,2018-06-29 10:12:21.125000,33.01,68.02
167973,2018-06-29 10:12:21.156250,26.31,68.02
167974,2018-06-29 10:12:21.187500,18.75,68.02
167975,2018-06-29 10:12:21.218750,12.93,68.02
167976,2018-06-29 10:12:21.250000,8.2,68.02
167977,2018-06-29 10:12:21.281250,1.6,68.02
167978,2018-06-29 10:12:21.312500,-8.59,68.02
167979,2018-06-29 10:12:21.343750,-21.79,68.02
167980,2018-06-29 10:12:21.375000,-36.52,68.02
167981,2018-06-29 10:12:21.406250,-51.97,68.02
167982,2018-06-29 10:12:21.437500,-68.73,68.02
167983,2018-06-29 10:12:21.468750,-86.8,68.02
167984,2018-06-29 10:12:21.500000,-101.46,68.02
167985,2018-06-29 10:12:21.531250,-105.84,67.82
167986,2018-06-29 10:12:21.562500,-99.62,67.82
167987,2018-06-29 10:12:21.593750,-90.34,67.82
167988,2018-06-29 10:12:21.625000,-84.08,67.82
167989,2018-06-29 10:12:21.656250,-78.66,67.82
167990,2018-06-29 10:12:21.687500,-67.49,67.82
167991,2018-06-29 10:12:21.718750,-47.07,67.82
167992,2018-06-29 10:12:21.750000,-18.81,67.82
167993,2018-06-29 10:12:21.781250,13.76,67.82
167994,2018-06-29 10:12:21.812500,47.14,67.82
167995,2018-06-29 10:12:21.843750,78.48,67.82
167996,2018-06-29 10:12:21.875000,105.09,67.82
167997,2018-06-29 10:12:21.906250,123.14,67.82
167998,2018-06-29 10:12:21.937500,130.39,67.82
167999,2018-06-29 10:12:21.968750,131.61,67.82
168000,2018-06-29 10:12:22.000000,135.59,67.82
168001,2018-06-29 10:12:22.031250,147.04,67.82
168002,2018-06-29 10:12:22.062500,165.21,67.82
168003,2018-06-29 10:12:22.093750,186.89,67.82
168004,2018-06-29 10:12:22.125000,208.08,67.82
168005,2018-06-29 10:12:22.156250,226.78,67.82
168006,2018-06-29 10:12:22.187500,243.64,67.82
168007,2018-06-29 10:12:22.218750,255.74,67.82
168008,2018-06-29 10:12:22.250000,252.39,67.82
168009,2018-06-29 10:12:22.281250,224.74,67.82
168010,2018-06-29 10:12:22.312500,178.63,67.82
168011,2018-06-29 10:12:22.343750,129.37,67.82
168012,2018-06-29 10:12:22.375000,84.97,67.82
168013,2018-06-29 10:12:22.406250,42.99,67.82
168014,2018-06-29 10:12:22.437500,-0.27,67.82
168015,2018-06-29 10:12:22.468750,-48.81,67.82
168016,2018-06-29 10:12:22.500000,-105.89,67.82
168017,2018-06-29 10:12:22.531250,-159.36,67.58
168018,2018-06-29 10:12:22.562500,-184.52,67.58
168019,2018-06-29 10:12:22.593750,-178.45,67.58
168020,2018-06-29 10:12:22.625000,-170.19,67.58
168021,2018-06-29 10:12:22.656250,-179.91,67.58
168022,2018-06-29 10:12:22.687500,-193.49,67.58
168023,2018-06-29 10:12:22.718750,-191.39,67.58
168024,2018-06-29 10:12:22.750000,-175.08,67.58
168025,2018-06-29 10:12:22.781250,-150.63,67.58
168026,2018-06-29 10:12:22.812500,-119.93,67.58
168027,2018-06-29 10:12:22.843750,-89.86,67.58
168028,2018-06-29 10:12:22.875000,-66.55,67.58
168029,2018-06-29 10:12:22.906250,-42.2,67.58
168030,2018-06-29 10:12:22.937500,-3.71,67.58
168031,2018-06-29 10:12:22.968750,41.51,67.58
168032,2018-06-29 10:12:23.000000,77.55,67.58
168033,2018-06-29 10:12:23.031250,101.73,67.58
168034,2018-06-29 10:12:23.062500,125.18,67.58
168035,2018-06-29 10:12:23.093750,142.86,67.58
168036,2018-06-29 10:12:23.125000,134.47,67.58
168037,2018-06-29 10:12:23.156250,92.61,67.58
168038,2018-06-29 10:12:23.187500,27.88,67.58
168039,2018-06-29 10:12:23.218750,-32.77,67.58
168040,2018-06-29 10:12:23.250000,-92.64,67.58
168041,2018-06-29 10:12:23.281250,-159.14,67.58
168042,2018-06-29 10:12:23.312500,-243.23,67.58
168043,2018-06-29 10:12:23.343750,-325.68,67.58
168044,2018-06-29 10:12:23.375000,-398.26,67.58
168045,2018-06-29 10:12:23.406250,-469.58,67.58
168046,2018-06-29 10:12:23.437500,-541.66,67.58
168047,2018-06-29 10:12:23.468750,-616.8,67.58
168048,2018-06-29 10:12:23.500000,-634.45,67.58
168049,2018-06-29 10:12:23.531250,-583.9,67.38
168050,2018-06-29 10:12:23.562500,-475.95,67.38
168051,2018-06-29 10:12:23.593750,-372.63,67.38
168052,2018-06-29 10:12:23.625000,-280.76,67.38
168053,2018-06-29 10:12:23.656250,-198.38,67.38
168054,2018-06-29 10:12:23.687500,-144.7,67.38
168055,2018-06-29 10:12:23.718750,57.39,67.38
168056,2018-06-29 10:12:23.750000,228.46,67.38
168057,2018-06-29 10:12:23.781250,295.36,67.38
168058,2018-06-29 10:12:23.812500,310.46,67.38
168059,2018-06-29 10:12:23.843750,298.7,67.38
168060,2018-06-29 10:12:23.875000,253.29,67.38
168061,2018-06-29 10:12:23.906250,207.91,67.38
168062,2018-06-29 10:12:23.937500,177.86,67.38
168063,2018-06-29 10:12:23.968750,153.39,67.38
168064,2018-06-29 10:12:24.000000,138.78,67.38
168065,2018-06-29 10:12:24.031250,126.06,67.38
168066,2018-06-29 10:12:24.062500,145.34,67.38
168067,2018-06-29 10:12:24.093750,172.95,67.38
168068,2018-06-29 10:12:24.125000,198.17,67.38
168069,2018-06-29 10:12:24.156250,209.94,67.38
168070,2018-06-29 10:12:24.187500,222.13,67.38
168071,2018-06-29 10:12:24.218750,244.66,67.38
168072,2018-06-29 10:12:24.250000,270.38,67.38
168073,2018-06-29 10:12:24.281250,282.64,67.38
168074,2018-06-29 10:12:24.312500,257.34,67.38
168075,2018-06-29 10:12:24.343750,207.26,67.38
168076,2018-06-29 10:12:24.375000,150.0,67.38
168077,2018-06-29 10:12:24.406250,95.04,67.38
168078,2018-06-29 10:12:24.437500,37.01,67.38
168079,2018-06-29 10:12:24.468750,-23.39,67.38
168080,2018-06-29 10:12:24.500000,-77.75,67.38
168081,2018-06-29 10:12:24.531250,-125.73,67.18
168082,2018-06-29 10:12:24.562500,-164.1,67.18
168083,2018-06-29 10:12:24.593750,-185.95,67.18
168084,2018-06-29 10:12:24.625000,-188.8,67.18
168085,2018-06-29 10:12:24.656250,-176.09,67.18
168086,2018-06-29 10:12:24.687500,-146.5,67.18
168087,2018-06-29 10:12:24.718750,-90.35,67.18
168088,2018-06-29 10:12:24.750000,-12.27,67.18
168089,2018-06-29 10:12:24.781250,75.97,67.18
168090,2018-06-29 10:12:24.812500,139.77,67.18
168091,2018-06-29 10:12:24.843750,137.92,67.18
168092,2018-06-29 10:12:24.875000,98.43,67.18
168093,2018-06-29 10:12:24.906250,41.31,67.18
168094,2018-06-29 10:12:24.937500,-16.89,67.18
168095,2018-06-29 10:12:24.968750,-55.7,67.18
168096,2018-06-29 10:12:25.000000,-70.44,67.18
168097,2018-06-29 10:12:25.031250,-85.91,67.18
168098,2018-06-29 10:12:25.062500,-113.54,67.18
168099,2018-06-29 10:12:25.093750,-139.6,67.18
168100,2018-06-29 10:12:25.125000,-144.6,67.18
168101,2018-06-29 10:12:25.156250,-130.67,67.18
168102,2018-06-29 10:12:25.187500,-111.61,67.18
168103,2018-06-29 10:12:25.218750,-91.64,67.18
168104,2018-06-29 10:12:25.250000,-70.95,67.18
168105,2018-06-29 10:12:25.281250,-54.05,67.18
168106,2018-06-29 10:12:25.312500,-49.25,67.18
168107,2018-06-29 10:12:25.343750,-55.02,67.18
168108,2018-06-29 10:12:25.375000,-65.33,67.18
168109,2018-06-29 10:12:25.406250,-74.53,67.18
168110,2018-06-29 10:12:25.437500,-77.88,67.18
168111,2018-06-29 10:12:25.468750,-73.9,67.18
168112,2018-06-29 10:12:25.500000,-67.01,67.18
168113,2018-06-29 10:12:25.531250,-57.73,67.05
168114,2018-06-29 10:12:25.562500,-32.78,67.05
168115,2018-06-29 10:12:25.593750,19.05,67.05
168116,2018-06-29 10:12:25.625000,88.39,67.05
168117,2018-06-29 10:12:25.656250,154.65,67.05
168118,2018-06-29 10:12:25.687500,209.68,67.05
168119,2018-06-29 10:12:25.718750,259.66,67.05
168120,2018-06-29 10:12:25.750000,306.12,67.05
168121,2018-06-29 10:12:25.781250,338.39,67.05
168122,2018-06-29 10:12:25.812500,347.57,67.05
168123,2018-06-29 10:12:25.843750,337.85,67.05
168124,2018-06-29 10:12:25.875000,319.76,67.05
168125,2018-06-29 10:12:25.906250,299.06,67.05
168126,2018-06-29 10:12:25.937500,273.99,67.05
168127,2018-06-29 10:12:25.968750,239.98,67.05
168128,2018-06-29 10:12:26.000000,195.49,67.05
168129,2018-06-29 10:12:26.031250,146.78,67.05
168130,2018-06-29 10:12:26.062500,107.09,67.05
168131,2018-06-29 10:12:26.093750,86.5,67.05
168132,2018-06-29 10:12:26.125000,81.06,67.05
168133,2018-06-29 10:12:26.156250,73.68,67.05
168134,2018-06-29 10:12:26.187500,54.97,67.05
168135,2018-06-29 10:12:26.218750,35.39,67.05
168136,2018-06-29 10:12:26.250000,31.62,67.05
168137,2018-06-29 10:12:26.281250,45.36,67.05
168138,2018-06-29 10:12:26.312500,64.07,67.05
168139,2018-06-29 10:12:26.343750,74.05,67.05
168140,2018-06-29 10:12:26.375000,65.11,67.05
168141,2018-06-29 10:12:26.406250,40.54,67.05
168142,2018-06-29 10:12:26.437500,11.42,67.05
168143,2018-06-29 10:12:26.468750,-12.74,67.05
168144,2018-06-29 10:12:26.500000,-43.75,67.05
168145,2018-06-29 10:12:26.531250,-95.69,66.85
168146,2018-06-29 10:12:26.562500,-164.96,66.85
168147,2018-06-29 10:12:26.593750,-234.97,66.85
168148,2018-06-29 10:12:26.625000,-294.93,66.85
168149,2018-06-29 10:12:26.656250,-353.8,66.85
168150,2018-06-29 10:12:26.687500,-409.79,66.85
168151,2018-06-29 10:12:26.718750,-472.48,66.85
168152,2018-06-29 10:12:26.750000,-540.51,66.85
168153,2018-06-29 10:12:26.781250,-577.74,66.85
168154,2018-06-29 10:12:26.812500,-517.28,66.85
168155,2018-06-29 10:12:26.843750,-351.02,66.85
168156,2018-06-29 10:12:26.875000,-154.71,66.85
168157,2018-06-29 10:12:26.906250,65.54,66.85
168158,2018-06-29 10:12:26.937500,231.31,66.85
168159,2018-06-29 10:12:26.968750,283.84,66.85
168160,2018-06-29 10:12:27.000000,280.44,66.85
168161,2018-06-29 10:12:27.031250,281.62,66.85
168162,2018-06-29 10:12:27.062500,295.02,66.85
168163,2018-06-29 10:12:27.093750,308.47,66.85
168164,2018-06-29 10:12:27.125000,306.76,66.85
168165,2018-06-29 10:12:27.156250,283.77,66.85
168166,2018-06-29 10:12:27.187500,251.9,66.85
168167,2018-06-29 10:12:27.218750,205.41,66.85
168168,2018-06-29 10:12:27.250000,138.97,66.85
168169,2018-06-29 10:12:27.281250,54.67,66.85
168170,2018-06-29 10:12:27.312500,-23.88,66.85
168171,2018-06-29 10:12:27.343750,-77.53,66.85
168172,2018-06-29 10:12:27.375000,-98.5,66.85
168173,2018-06-29 10:12:27.406250,-89.21,66.85
168174,2018-06-29 10:12:27.437500,-62.48,66.85
168175,2018-06-29 10:12:27.468750,-33.19,66.85
168176,2018-06-29 10:12:27.500000,-12.14,66.85
168177,2018-06-29 10:12:27.531250,4.16,66.9
168178,2018-06-29 10:12:27.562500,18.02,66.9
168179,2018-06-29 10:12:27.593750,27.11,66.9
168180,2018-06-29 10:12:27.625000,30.95,66.9
168181,2018-06-29 10:12:27.656250,33.07,66.9
168182,2018-06-29 10:12:27.687500,34.16,66.9
168183,2018-06-29 10:12:27.718750,32.16,66.9
168184,2018-06-29 10:12:27.750000,27.43,66.9
168185,2018-06-29 10:12:27.781250,20.48,66.9
168186,2018-06-29 10:12:27.812500,11.1,66.9
168187,2018-06-29 10:12:27.843750,0.64,66.9
168188,2018-06-29 10:12:27.875000,-10.08,66.9
168189,2018-06-29 10:12:27.906250,-23.14,66.9
168190,2018-06-29 10:12:27.937500,-38.34,66.9
168191,2018-06-29 10:12:27.968750,-49.96,66.9
168192,2018-06-29 10:12:28.000000,-54.52,66.9
168193,2018-06-29 10:12:28.031250,-57.44,66.9
168194,2018-06-29 10:12:28.062500,-65.66,66.9
168195,2018-06-29 10:12:28.093750,-77.84,66.9
168196,2018-06-29 10:12:28.125000,-86.72,66.9
168197,2018-06-29 10:12:28.156250,-87.11,66.9
168198,2018-06-29 10:12:28.187500,-80.67,66.9
168199,2018-06-29 10:12:28.218750,-76.56,66.9
168200,2018-06-29 10:12:28.250000,-84.76,66.9
168201,2018-06-29 10:12:28.281250,-106.69,66.9
168202,2018-06-29 10:12:28.312500,-135.8,66.9
168203,2018-06-29 10:12:28.343750,-166.9,66.9
168204,2018-06-29 10:12:28.375000,-197.5,66.9
168205,2018-06-29 10:12:28.406250,-221.22,66.9
168206,2018-06-29 10:12:28.437500,-229.0,66.9
168207,2018-06-29 10:12:28.468750,-217.8,66.9
168208,2018-06-29 10:12:28.500000,-191.13,66.9
168209,2018-06-29 10:12:28.531250,-149.44,66.95
168210,2018-06-29 10:12:28.562500,-90.57,66.95
168211,2018-06-29 10:12:28.593750,-22.2,66.95
168212,2018-06-29 10:12:28.625000,35.57,66.95
168213,2018-06-29 10:12:28.656250,63.99,66.95
168214,2018-06-29 10:12:28.687500,58.51,66.95
168215,2018-06-29 10:12:28.718750,31.14,66.95
168216,2018-06-29 10:12:28.750000,2.35,66.95
168217,2018-06-29 10:12:28.781250,-16.26,66.95
168218,2018-06-29 10:12:28.812500,-27.83,66.95
168219,2018-06-29 10:12:28.843750,-36.56,66.95
168220,2018-06-29 10:12:28.875000,-43.56,66.95
168221,2018-06-29 10:12:28.906250,-60.7,66.95
168222,2018-06-29 10:12:28.937500,-109.49,66.95
168223,2018-06-29 10:12:28.968750,-194.82,66.95
168224,2018-06-29 10:12:29.000000,-294.8,66.95
168225,2018-06-29 10:12:29.031250,-383.87,66.95
168226,2018-06-29 10:12:29.062500,-445.31,66.95
168227,2018-06-29 10:12:29.093750,-460.49,66.95
168228,2018-06-29 10:12:29.125000,-417.88,66.95
168229,2018-06-29 10:12:29.156250,-333.23,66.95
168230,2018-06-29 10:12:29.187500,-232.7,66.95
168231,2018-06-29 10:12:29.218750,-129.1,66.95
168232,2018-06-29 10:12:29.250000,-36.31,66.95
168233,2018-06-29 10:12:29.281250,27.61,66.95
168234,2018-06-29 10:12:29.312500,67.47,66.95
168235,2018-06-29 10:12:29.343750,105.86,66.95
168236,2018-06-29 10:12:29.375000,148.5,66.95
168237,2018-06-29 10:12:29.406250,183.16,66.95
168238,2018-06-29 10:12:29.437500,203.75,66.95
168239,2018-06-29 10:12:29.468750,214.98,66.95
168240,2018-06-29 10:12:29.500000,220.5,66.95
168241,2018-06-29 10:12:29.531250,220.25,67.02
168242,2018-06-29 10:12:29.562500,215.51,67.02
168243,2018-06-29 10:12:29.593750,209.38,67.02
168244,2018-06-29 10:12:29.625000,202.72,67.02
168245,2018-06-29 10:12:29.656250,194.69,67.02
168246,2018-06-29 10:12:29.687500,186.53,67.02
168247,2018-06-29 10:12:29.718750,179.76,67.02
168248,2018-06-29 10:12:29.750000,171.14,67.02
168249,2018-06-29 10:12:29.781250,155.77,67.02
168250,2018-06-29 10:12:29.812500,134.63,67.02
168251,2018-06-29 10:12:29.843750,113.28,67.02
168252,2018-06-29 10:12:29.875000,94.03,67.02
168253,2018-06-29 10:12:29.906250,75.16,67.02
168254,2018-06-29 10:12:29.937500,56.35,67.02
168255,2018-06-29 10:12:29.968750,39.18,67.02
168256,2018-06-29 10:12:30.000000,23.22,67.02
168257,2018-06-29 10:12:30.031250,5.46,67.02
168258,2018-06-29 10:12:30.062500,-16.18,67.02
168259,2018-06-29 10:12:30.093750,-36.8,67.02
168260,2018-06-29 10:12:30.125000,-42.7,67.02
168261,2018-06-29 10:12:30.156250,-23.22,67.02
168262,2018-06-29 10:12:30.187500,15.93,67.02
168263,2018-06-29 10:12:30.218750,58.54,67.02
168264,2018-06-29 10:12:30.250000,94.4,67.02
168265,2018-06-29 10:12:30.281250,122.2,67.02
168266,2018-06-29 10:12:30.312500,141.87,67.02
168267,2018-06-29 10:12:30.343750,152.25,67.02
168268,2018-06-29 10:12:30.375000,153.76,67.02
168269,2018-06-29 10:12:30.406250,149.58,67.02
168270,2018-06-29 10:12:30.437500,144.18,67.02
168271,2018-06-29 10:12:30.468750,140.21,67.02
168272,2018-06-29 10:12:30.500000,137.5,67.02
168273,2018-06-29 10:12:30.531250,134.58,67.1
168274,2018-06-29 10:12:30.562500,128.77,67.1
168275,2018-06-29 10:12:30.593750,115.95,67.1
168276,2018-06-29 10:12:30.625000,94.9,67.1
168277,2018-06-29 10:12:30.656250,70.95,67.1
168278,2018-06-29 10:12:30.687500,51.31,67.1
168279,2018-06-29 10:12:30.718750,38.25,67.1
168280,2018-06-29 10:12:30.750000,29.83,67.1
168281,2018-06-29 10:12:30.781250,25.43,67.1
168282,2018-06-29 10:12:30.812500,27.18,67.1
168283,2018-06-29 10:12:30.843750,35.84,67.1
168284,2018-06-29 10:12:30.875000,47.76,67.1
168285,2018-06-29 10:12:30.906250,57.91,67.1
168286,2018-06-29 10:12:30.937500,64.56,67.1
168287,2018-06-29 10:12:30.968750,68.98,67.1
168288,2018-06-29 10:12:31.000000,72.09,67.1
168289,2018-06-29 10:12:31.031250,73.05,67.1
168290,2018-06-29 10:12:31.062500,69.62,67.1
168291,2018-06-29 10:12:31.093750,60.42,67.1
168292,2018-06-29 10:12:31.125000,48.35,67.1
168293,2018-06-29 10:12:31.156250,38.98,67.1
168294,2018-06-29 10:12:31.187500,32.69,67.1
168295,2018-06-29 10:12:31.218750,23.33,67.1
168296,2018-06-29 10:12:31.250000,7.98,67.1
168297,2018-06-29 10:12:31.281250,-7.88,67.1
168298,2018-06-29 10:12:31.312500,-18.31,67.1
168299,2018-06-29 10:12:31.343750,-23.49,67.1
168300,2018-06-29 10:12:31.375000,-26.01,67.1
168301,2018-06-29 10:12:31.406250,-26.48,67.1
168302,2018-06-29 10:12:31.437500,-24.62,67.1
168303,2018-06-29 10:12:31.468750,-20.87,67.1
168304,2018-06-29 10:12:31.500000,-16.23,67.1
168305,2018-06-29 10:12:31.531250,-12.02,67.2
168306,2018-06-29 10:12:31.562500,-9.98,67.2
168307,2018-06-29 10:12:31.593750,-11.1,67.2
168308,2018-06-29 10:12:31.625000,-14.24,67.2
168309,2018-06-29 10:12:31.656250,-17.2,67.2
168310,2018-06-29 10:12:31.687500,-19.51,67.2
168311,2018-06-29 10:12:31.718750,-22.3,67.2
168312,2018-06-29 10:12:31.750000,-25.99,67.2
168313,2018-06-29 10:12:31.781250,-29.97,67.2
168314,2018-06-29 10:12:31.812500,-34.03,67.2
168315,2018-06-29 10:12:31.843750,-38.47,67.2
168316,2018-06-29 10:12:31.875000,-43.46,67.2
168317,2018-06-29 10:12:31.906250,-48.92,67.2
168318,2018-06-29 10:12:31.937500,-54.46,67.2
168319,2018-06-29 10:12:31.968750,-60.53,67.2
168320,2018-06-29 10:12:32.000000,-68.92,67.2
168321,2018-06-29 10:12:32.031250,-79.69,67.2
168322,2018-06-29 10:12:32.062500,-86.48,67.2
168323,2018-06-29 10:12:32.093750,-79.39,67.2
168324,2018-06-29 10:12:32.125000,-56.15,67.2
168325,2018-06-29 10:12:32.156250,-26.3,67.2
168326,2018-06-29 10:12:32.187500,-1.1,67.2
168327,2018-06-29 10:12:32.218750,16.35,67.2
168328,2018-06-29 10:12:32.250000,28.11,67.2
168329,2018-06-29 10:12:32.281250,34.49,67.2
168330,2018-06-29 10:12:32.312500,34.85,67.2
168331,2018-06-29 10:12:32.343750,31.46,67.2
168332,2018-06-29 10:12:32.375000,28.16,67.2
168333,2018-06-29 10:12:32.406250,26.61,67.2
168334,2018-06-29 10:12:32.437500,26.48,67.2
168335,2018-06-29 10:12:32.468750,27.47,67.2
168336,2018-06-29 10:12:32.500000,28.43,67.2
168337,2018-06-29 10:12:32.531250,26.5,67.3
168338,2018-06-29 10:12:32.562500,19.82,67.3
168339,2018-06-29 10:12:32.593750,9.95,67.3
168340,2018-06-29 10:12:32.625000,0.09,67.3
168341,2018-06-29 10:12:32.656250,-8.6,67.3
168342,2018-06-29 10:12:32.687500,-17.66,67.3
168343,2018-06-29 10:12:32.718750,-27.6,67.3
168344,2018-06-29 10:12:32.750000,-36.3,67.3
168345,2018-06-29 10:12:32.781250,-43.02,67.3
168346,2018-06-29 10:12:32.812500,-50.62,67.3
168347,2018-06-29 10:12:32.843750,-61.64,67.3
168348,2018-06-29 10:12:32.875000,-73.96,67.3
168349,2018-06-29 10:12:32.906250,-80.19,67.3
168350,2018-06-29 10:12:32.937500,-72.12,67.3
168351,2018-06-29 10:12:32.968750,-49.21,67.3
168352,2018-06-29 10:12:33.000000,-20.81,67.3
168353,2018-06-29 10:12:33.031250,3.22,67.3
168354,2018-06-29 10:12:33.062500,19.95,67.3
168355,2018-06-29 10:12:33.093750,30.44,67.3
168356,2018-06-29 10:12:33.125000,35.09,67.3
168357,2018-06-29 10:12:33.156250,34.71,67.3
168358,2018-06-29 10:12:33.187500,31.92,67.3
168359,2018-06-29 10:12:33.218750,29.11,67.3
168360,2018-06-29 10:12:33.250000,26.69,67.3
168361,2018-06-29 10:12:33.281250,24.4,67.3
168362,2018-06-29 10:12:33.312500,22.46,67.3
168363,2018-06-29 10:12:33.343750,20.27,67.3
168364,2018-06-29 10:12:33.375000,16.08,67.3
168365,2018-06-29 10:12:33.406250,9.41,67.3
168366,2018-06-29 10:12:33.437500,1.73,67.3
168367,2018-06-29 10:12:33.468750,-6.05,67.3
168368,2018-06-29 10:12:33.500000,-14.83,67.3
168369,2018-06-29 10:12:33.531250,-24.78,67.42
168370,2018-06-29 10:12:33.562500,-34.47,67.42
168371,2018-06-29 10:12:33.593750,-43.21,67.42
168372,2018-06-29 10:12:33.625000,-52.26,67.42
168373,2018-06-29 10:12:33.656250,-63.12,67.42
168374,2018-06-29 10:12:33.687500,-73.71,67.42
168375,2018-06-29 10:12:33.718750,-76.69,67.42
168376,2018-06-29 10:12:33.750000,-65.76,67.42
168377,2018-06-29 10:12:33.781250,-44.28,67.42
168378,2018-06-29 10:12:33.812500,-22.07,67.42
168379,2018-06-29 10:12:33.843750,-5.0,67.42
168380,2018-06-29 10:12:33.875000,7.24,67.42
168381,2018-06-29 10:12:33.906250,15.78,67.42
168382,2018-06-29 10:12:33.937500,20.48,67.42
168383,2018-06-29 10:12:33.968750,21.7,67.42
168384,2018-06-29 10:12:34.000000,21.04,67.42
168385,2018-06-29 10:12:34.031250,20.29,67.42
168386,2018-06-29 10:12:34.062500,20.22,67.42
168387,2018-06-29 10:12:34.093750,20.17,67.42
168388,2018-06-29 10:12:34.125000,18.7,67.42
168389,2018-06-29 10:12:34.156250,15.17,67.42
168390,2018-06-29 10:12:34.187500,10.45,67.42
168391,2018-06-29 10:12:34.218750,5.41,67.42
168392,2018-06-29 10:12:34.250000,-0.24,67.42
168393,2018-06-29 10:12:34.281250,-6.75,67.42
168394,2018-06-29 10:12:34.312500,-13.97,67.42
168395,2018-06-29 10:12:34.343750,-22.18,67.42
168396,2018-06-29 10:12:34.375000,-31.42,67.42
168397,2018-06-29 10:12:34.406250,-41.1,67.42
168398,2018-06-29 10:12:34.437500,-51.27,67.42
168399,2018-06-29 10:12:34.468750,-60.39,67.42
168400,2018-06-29 10:12:34.500000,-62.21,67.42
168401,2018-06-29 10:12:34.531250,-51.05,67.48
168402,2018-06-29 10:12:34.562500,-30.15,67.48
168403,2018-06-29 10:12:34.593750,-8.82,67.48
168404,2018-06-29 10:12:34.625000,7.6,67.48
168405,2018-06-29 10:12:34.656250,19.65,67.48
168406,2018-06-29 10:12:34.687500,27.87,67.48
168407,2018-06-29 10:12:34.718750,31.12,67.48
168408,2018-06-29 10:12:34.750000,30.29,67.48
168409,2018-06-29 10:12:34.781250,28.64,67.48
168410,2018-06-29 10:12:34.812500,28.21,67.48
168411,2018-06-29 10:12:34.843750,28.64,67.48
168412,2018-06-29 10:12:34.875000,29.08,67.48
168413,2018-06-29 10:12:34.906250,29.07,67.48
168414,2018-06-29 10:12:34.937500,27.43,67.48
168415,2018-06-29 10:12:34.968750,22.93,67.48
168416,2018-06-29 10:12:35.000000,16.21,67.48
168417,2018-06-29 10:12:35.031250,8.85,67.48
168418,2018-06-29 10:12:35.062500,1.04,67.48
168419,2018-06-29 10:12:35.093750,-8.13,67.48
168420,2018-06-29 10:12:35.125000,-18.23,67.48
168421,2018-06-29 10:12:35.156250,-27.44,67.48
168422,2018-06-29 10:12:35.187500,-34.98,67.48
168423,2018-06-29 10:12:35.218750,-42.23,67.48
168424,2018-06-29 10:12:35.250000,-51.48,67.48
168425,2018-06-29 10:12:35.281250,-63.27,67.48
168426,2018-06-29 10:12:35.312500,-73.34,67.48
168427,2018-06-29 10:12:35.343750,-73.22,67.48
168428,2018-06-29 10:12:35.375000,-58.41,67.48
168429,2018-06-29 10:12:35.406250,-34.79,67.48
168430,2018-06-29 10:12:35.437500,-12.37,67.48
168431,2018-06-29 10:12:35.468750,4.89,67.48
168432,2018-06-29 10:12:35.500000,18.85,67.48
168433,2018-06-29 10:12:35.531250,29.88,67.5
168434,2018-06-29 10:12:35.562500,35.77,67.5
168435,2018-06-29 10:12:35.593750,36.42,67.5
168436,2018-06-29 10:12:35.625000,35.36,67.5
168437,2018-06-29 10:12:35.656250,35.75,67.5
168438,2018-06-29 10:12:35.687500,37.1,67.5
168439,2018-06-29 10:12:35.718750,37.45,67.5
168440,2018-06-29 10:12:35.750000,36.34,67.5
168441,2018-06-29 10:12:35.781250,33.92,67.5
168442,2018-06-29 10:12:35.812500,29.36,67.5
168443,2018-06-29 10:12:35.843750,22.38,67.5
168444,2018-06-29 10:12:35.875000,14.68,67.5
168445,2018-06-29 10:12:35.906250,7.86,67.5
168446,2018-06-29 10:12:35.937500,0.76,67.5
168447,2018-06-29 10:12:35.968750,-8.41,67.5
168448,2018-06-29 10:12:36.000000,-18.68,67.5
168449,2018-06-29 10:12:36.031250,-27.54,67.5
168450,2018-06-29 10:12:36.062500,-35.16,67.5
168451,2018-06-29 10:12:36.093750,-44.02,67.5
168452,2018-06-29 10:12:36.125000,-55.42,67.5
168453,2018-06-29 10:12:36.156250,-68.31,67.5
168454,2018-06-29 10:12:36.187500,-78.82,67.5
168455,2018-06-29 10:12:36.218750,-79.71,67.5
168456,2018-06-29 10:12:36.250000,-65.8,67.5
168457,2018-06-29 10:12:36.281250,-41.36,67.5
168458,2018-06-29 10:12:36.312500,-16.46,67.5
168459,2018-06-29 10:12:36.343750,3.41,67.5
168460,2018-06-29 10:12:36.375000,19.03,67.5
168461,2018-06-29 10:12:36.406250,30.86,67.5
168462,2018-06-29 10:12:36.437500,37.43,67.5
168463,2018-06-29 10:12:36.468750,39.23,67.5
168464,2018-06-29 10:12:36.500000,39.18,67.5
168465,2018-06-29 10:12:36.531250,39.11,67.6
168466,2018-06-29 10:12:36.562500,38.89,67.6
168467,2018-06-29 10:12:36.593750,38.61,67.6
168468,2018-06-29 10:12:36.625000,38.41,67.6
168469,2018-06-29 10:12:36.656250,36.66,67.6
168470,2018-06-29 10:12:36.687500,31.37,67.6
168471,2018-06-29 10:12:36.718750,23.0,67.6
168472,2018-06-29 10:12:36.750000,13.87,67.6
168473,2018-06-29 10:12:36.781250,4.88,67.6
168474,2018-06-29 10:12:36.812500,-5.02,67.6
168475,2018-06-29 10:12:36.843750,-15.75,67.6
168476,2018-06-29 10:12:36.875000,-25.09,67.6
168477,2018-06-29 10:12:36.906250,-32.33,67.6
168478,2018-06-29 10:12:36.937500,-40.31,67.6
168479,2018-06-29 10:12:36.968750,-51.53,67.6
168480,2018-06-29 10:12:37.000000,-63.46,67.6
168481,2018-06-29 10:12:37.031250,-68.77,67.6
168482,2018-06-29 10:12:37.062500,-60.93,67.6
168483,2018-06-29 10:12:37.093750,-41.0,67.6
168484,2018-06-29 10:12:37.125000,-16.98,67.6
168485,2018-06-29 10:12:37.156250,4.16,67.6
168486,2018-06-29 10:12:37.187500,20.81,67.6
168487,2018-06-29 10:12:37.218750,32.82,67.6
168488,2018-06-29 10:12:37.250000,38.82,67.6
168489,2018-06-29 10:12:37.281250,38.92,67.6
168490,2018-06-29 10:12:37.312500,36.6,67.6
168491,2018-06-29 10:12:37.343750,35.4,67.6
168492,2018-06-29 10:12:37.375000,35.4,67.6
168493,2018-06-29 10:12:37.406250,35.02,67.6
168494,2018-06-29 10:12:37.437500,34.03,67.6
168495,2018-06-29 10:12:37.468750,32.41,67.6
168496,2018-06-29 10:12:37.500000,28.8,67.6
168497,2018-06-29 10:12:37.531250,22.64,67.7
168498,2018-06-29 10:12:37.562500,15.51,67.7
168499,2018-06-29 10:12:37.593750,8.64,67.7
168500,2018-06-29 10:12:37.625000,1.31,67.7
168501,2018-06-29 10:12:37.656250,-7.52,67.7
168502,2018-06-29 10:12:37.687500,-17.26,67.7
168503,2018-06-29 10:12:37.718750,-26.22,67.7
168504,2018-06-29 10:12:37.750000,-33.78,67.7
168505,2018-06-29 10:12:37.781250,-42.07,67.7
168506,2018-06-29 10:12:37.812500,-53.26,67.7
168507,2018-06-29 10:12:37.843750,-63.39,67.7
168508,2018-06-29 10:12:37.875000,-63.11,67.7
168509,2018-06-29 10:12:37.906250,-47.87,67.7
168510,2018-06-29 10:12:37.937500,-23.56,67.7
168511,2018-06-29 10:12:37.968750,0.79,67.7
168512,2018-06-29 10:12:38.000000,21.05,67.7
168513,2018-06-29 10:12:38.031250,35.71,67.7
168514,2018-06-29 10:12:38.062500,42.2,67.7
168515,2018-06-29 10:12:38.093750,40.47,67.7
168516,2018-06-29 10:12:38.125000,36.14,67.7
168517,2018-06-29 10:12:38.156250,35.14,67.7
168518,2018-06-29 10:12:38.187500,37.4,67.7
168519,2018-06-29 10:12:38.218750,39.45,67.7
168520,2018-06-29 10:12:38.250000,40.07,67.7
168521,2018-06-29 10:12:38.281250,39.66,67.7
168522,2018-06-29 10:12:38.312500,37.53,67.7
168523,2018-06-29 10:12:38.343750,32.92,67.7
168524,2018-06-29 10:12:38.375000,26.31,67.7
168525,2018-06-29 10:12:38.406250,18.23,67.7
168526,2018-06-29 10:12:38.437500,9.16,67.7
168527,2018-06-29 10:12:38.468750,0.3,67.7
168528,2018-06-29 10:12:38.500000,-7.57,67.7
168529,2018-06-29 10:12:38.531250,-15.65,67.8
168530,2018-06-29 10:12:38.562500,-25.5,67.8
168531,2018-06-29 10:12:38.593750,-36.44,67.8
168532,2018-06-29 10:12:38.625000,-46.43,67.8
168533,2018-06-29 10:12:38.656250,-55.43,67.8
168534,2018-06-29 10:12:38.687500,-65.8,67.8
168535,2018-06-29 10:12:38.718750,-79.17,67.8
168536,2018-06-29 10:12:38.750000,-91.66,67.8
168537,2018-06-29 10:12:38.781250,-93.01,67.8
168538,2018-06-29 10:12:38.812500,-75.83,67.8
168539,2018-06-29 10:12:38.843750,-45.43,67.8
168540,2018-06-29 10:12:38.875000,-14.28,67.8
168541,2018-06-29 10:12:38.906250,11.07,67.8
168542,2018-06-29 10:12:38.937500,31.26,67.8
168543,2018-06-29 10:12:38.968750,46.65,67.8
168544,2018-06-29 10:12:39.000000,55.8,67.8
168545,2018-06-29 10:12:39.031250,58.85,67.8
168546,2018-06-29 10:12:39.062500,58.41,67.8
168547,2018-06-29 10:12:39.093750,57.62,67.8
168548,2018-06-29 10:12:39.125000,58.12,67.8
168549,2018-06-29 10:12:39.156250,59.35,67.8
168550,2018-06-29 10:12:39.187500,60.12,67.8
168551,2018-06-29 10:12:39.218750,59.43,67.8
168552,2018-06-29 10:12:39.250000,56.15,67.8
168553,2018-06-29 10:12:39.281250,49.78,67.8
168554,2018-06-29 10:12:39.312500,41.99,67.8
168555,2018-06-29 10:12:39.343750,34.96,67.8
168556,2018-06-29 10:12:39.375000,28.68,67.8
168557,2018-06-29 10:12:39.406250,22.01,67.8
168558,2018-06-29 10:12:39.437500,15.1,67.8
168559,2018-06-29 10:12:39.468750,8.25,67.8
168560,2018-06-29 10:12:39.500000,0.49,67.8
168561,2018-06-29 10:12:39.531250,-8.46,67.75
168562,2018-06-29 10:12:39.562500,-16.84,67.75
168563,2018-06-29 10:12:39.593750,-23.47,67.75
168564,2018-06-29 10:12:39.625000,-29.97,67.75
168565,2018-06-29 10:12:39.656250,-38.55,67.75
168566,2018-06-29 10:12:39.687500,-48.91,67.75
168567,2018-06-29 10:12:39.718750,-58.74,67.75
168568,2018-06-29 10:12:39.750000,-67.1,67.75
168569,2018-06-29 10:12:39.781250,-75.72,67.75
168570,2018-06-29 10:12:39.812500,-86.5,67.75
168571,2018-06-29 10:12:39.843750,-96.77,67.75
168572,2018-06-29 10:12:39.875000,-97.74,67.75
168573,2018-06-29 10:12:39.906250,-81.15,67.75
168574,2018-06-29 10:12:39.937500,-49.74,67.75
168575,2018-06-29 10:12:39.968750,-16.44,67.75
168576,2018-06-29 10:12:40.000000,8.81,67.75
168577,2018-06-29 10:12:40.031250,25.89,67.75
168578,2018-06-29 10:12:40.062500,37.79,67.75
168579,2018-06-29 10:12:40.093750,44.59,67.75
168580,2018-06-29 10:12:40.125000,46.17,67.75
168581,2018-06-29 10:12:40.156250,45.37,67.75
168582,2018-06-29 10:12:40.187500,45.17,67.75
168583,2018-06-29 10:12:40.218750,45.36,67.75
168584,2018-06-29 10:12:40.250000,44.26,67.75
168585,2018-06-29 10:12:40.281250,41.28,67.75
168586,2018-06-29 10:12:40.312500,35.79,67.75
168587,2018-06-29 10:12:40.343750,25.96,67.75
168588,2018-06-29 10:12:40.375000,11.4,67.75
168589,2018-06-29 10:12:40.406250,-4.8,67.75
168590,2018-06-29 10:12:40.437500,-18.01,67.75
168591,2018-06-29 10:12:40.468750,-24.98,67.75
168592,2018-06-29 10:12:40.500000,-24.33,67.75
168593,2018-06-29 10:12:40.531250,-16.45,67.72
168594,2018-06-29 10:12:40.562500,-3.48,67.72
168595,2018-06-29 10:12:40.593750,11.26,67.72
168596,2018-06-29 10:12:40.625000,23.96,67.72
168597,2018-06-29 10:12:40.656250,30.57,67.72
168598,2018-06-29 10:12:40.687500,28.53,67.72
168599,2018-06-29 10:12:40.718750,18.74,67.72
168600,2018-06-29 10:12:40.750000,4.63,67.72
168601,2018-06-29 10:12:40.781250,-11.02,67.72
168602,2018-06-29 10:12:40.812500,-27.88,67.72
168603,2018-06-29 10:12:40.843750,-47.04,67.72
168604,2018-06-29 10:12:40.875000,-65.93,67.72
168605,2018-06-29 10:12:40.906250,-75.11,67.72
168606,2018-06-29 10:12:40.937500,-66.23,67.72
168607,2018-06-29 10:12:40.968750,-42.63,67.72
168608,2018-06-29 10:12:41.000000,-16.23,67.72
168609,2018-06-29 10:12:41.031250,4.92,67.72
168610,2018-06-29 10:12:41.062500,20.52,67.72
168611,2018-06-29 10:12:41.093750,32.31,67.72
168612,2018-06-29 10:12:41.125000,40.23,67.72
168613,2018-06-29 10:12:41.156250,44.14,67.72
168614,2018-06-29 10:12:41.187500,45.45,67.72
168615,2018-06-29 10:12:41.218750,46.3,67.72
168616,2018-06-29 10:12:41.250000,47.72,67.72
168617,2018-06-29 10:12:41.281250,49.72,67.72
168618,2018-06-29 10:12:41.312500,52.11,67.72
168619,2018-06-29 10:12:41.343750,53.81,67.72
168620,2018-06-29 10:12:41.375000,52.47,67.72
168621,2018-06-29 10:12:41.406250,47.24,67.72
168622,2018-06-29 10:12:41.437500,40.29,67.72
168623,2018-06-29 10:12:41.468750,33.96,67.72
168624,2018-06-29 10:12:41.500000,28.58,67.72
168625,2018-06-29 10:12:41.531250,23.18,67.75
168626,2018-06-29 10:12:41.562500,16.82,67.75
168627,2018-06-29 10:12:41.593750,9.33,67.75
168628,2018-06-29 10:12:41.625000,1.62,67.75
168629,2018-06-29 10:12:41.656250,-5.4,67.75
168630,2018-06-29 10:12:41.687500,-12.14,67.75
168631,2018-06-29 10:12:41.718750,-19.71,67.75
168632,2018-06-29 10:12:41.750000,-28.57,67.75
168633,2018-06-29 10:12:41.781250,-38.02,67.75
168634,2018-06-29 10:12:41.812500,-46.54,67.75
168635,2018-06-29 10:12:41.843750,-53.69,67.75
168636,2018-06-29 10:12:41.875000,-61.79,67.75
168637,2018-06-29 10:12:41.906250,-73.53,67.75
168638,2018-06-29 10:12:41.937500,-85.65,67.75
168639,2018-06-29 10:12:41.968750,-87.96,67.75
168640,2018-06-29 10:12:42.000000,-73.05,67.75
168641,2018-06-29 10:12:42.031250,-45.53,67.75
168642,2018-06-29 10:12:42.062500,-17.32,67.75
168643,2018-06-29 10:12:42.093750,4.02,67.75
168644,2018-06-29 10:12:42.125000,18.43,67.75
168645,2018-06-29 10:12:42.156250,27.88,67.75
168646,2018-06-29 10:12:42.187500,32.81,67.75
168647,2018-06-29 10:12:42.218750,33.92,67.75
168648,2018-06-29 10:12:42.250000,33.84,67.75
168649,2018-06-29 10:12:42.281250,34.98,67.75
168650,2018-06-29 10:12:42.312500,37.41,67.75
168651,2018-06-29 10:12:42.343750,39.85,67.75
168652,2018-06-29 10:12:42.375000,40.93,67.75
168653,2018-06-29 10:12:42.406250,39.57,67.75
168654,2018-06-29 10:12:42.437500,35.33,67.75
168655,2018-06-29 10:12:42.468750,28.89,67.75
168656,2018-06-29 10:12:42.500000,21.28,67.75
168657,2018-06-29 10:12:42.531250,13.35,67.82
168658,2018-06-29 10:12:42.562500,5.81,67.82
168659,2018-06-29 10:12:42.593750,-0.97,67.82
168660,2018-06-29 10:12:42.625000,-7.29,67.82
168661,2018-06-29 10:12:42.656250,-14.09,67.82
168662,2018-06-29 10:12:42.687500,-22.37,67.82
168663,2018-06-29 10:12:42.718750,-31.73,67.82
168664,2018-06-29 10:12:42.750000,-40.7,67.82
168665,2018-06-29 10:12:42.781250,-49.39,67.82
168666,2018-06-29 10:12:42.812500,-60.21,67.82
168667,2018-06-29 10:12:42.843750,-73.98,67.82
168668,2018-06-29 10:12:42.875000,-85.35,67.82
168669,2018-06-29 10:12:42.906250,-84.71,67.82
168670,2018-06-29 10:12:42.937500,-68.15,67.82
168671,2018-06-29 10:12:42.968750,-43.57,67.82
168672,2018-06-29 10:12:43.000000,-22.43,67.82
168673,2018-06-29 10:12:43.031250,-8.25,67.82
168674,2018-06-29 10:12:43.062500,1.28,67.82
168675,2018-06-29 10:12:43.093750,5.13,67.82
168676,2018-06-29 10:12:43.125000,-0.34,67.82
168677,2018-06-29 10:12:43.156250,-14.34,67.82
168678,2018-06-29 10:12:43.187500,-32.2,67.82
168679,2018-06-29 10:12:43.218750,-50.9,67.82
168680,2018-06-29 10:12:43.250000,-69.71,67.82
168681,2018-06-29 10:12:43.281250,-88.94,67.82
168682,2018-06-29 10:12:43.312500,-110.14,67.82
168683,2018-06-29 10:12:43.343750,-131.67,67.82
168684,2018-06-29 10:12:43.375000,-143.08,67.82
168685,2018-06-29 10:12:43.406250,-132.67,67.82
168686,2018-06-29 10:12:43.437500,-100.29,67.82
168687,2018-06-29 10:12:43.468750,-55.28,67.82
168688,2018-06-29 10:12:43.500000,-6.08,67.82
168689,2018-06-29 10:12:43.531250,39.97,67.88
168690,2018-06-29 10:12:43.562500,72.77,67.88
168691,2018-06-29 10:12:43.593750,84.79,67.88
168692,2018-06-29 10:12:43.625000,76.9,67.88
168693,2018-06-29 10:12:43.656250,55.21,67.88
168694,2018-06-29 10:12:43.687500,27.54,67.88
168695,2018-06-29 10:12:43.718750,5.55,67.88
168696,2018-06-29 10:12:43.750000,1.7,67.88
168697,2018-06-29 10:12:43.781250,18.51,67.88
168698,2018-06-29 10:12:43.812500,46.01,67.88
168699,2018-06-29 10:12:43.843750,72.41,67.88
168700,2018-06-29 10:12:43.875000,93.04,67.88
168701,2018-06-29 10:12:43.906250,107.99,67.88
168702,2018-06-29 10:12:43.937500,116.59,67.88
168703,2018-06-29 10:12:43.968750,117.85,67.88
168704,2018-06-29 10:12:44.000000,113.72,67.88
168705,2018-06-29 10:12:44.031250,108.33,67.88
168706,2018-06-29 10:12:44.062500,104.2,67.88
168707,2018-06-29 10:12:44.093750,101.01,67.88
168708,2018-06-29 10:12:44.125000,96.62,67.88
168709,2018-06-29 10:12:44.156250,87.95,67.88
168710,2018-06-29 10:12:44.187500,73.2,67.88
168711,2018-06-29 10:12:44.218750,54.86,67.88
168712,2018-06-29 10:12:44.250000,37.37,67.88
168713,2018-06-29 10:12:44.281250,21.59,67.88
168714,2018-06-29 10:12:44.312500,5.26,67.88
168715,2018-06-29 10:12:44.343750,-12.05,67.88
168716,2018-06-29 10:12:44.375000,-29.03,67.88
168717,2018-06-29 10:12:44.406250,-47.29,67.88
168718,2018-06-29 10:12:44.437500,-71.36,67.88
168719,2018-06-29 10:12:44.468750,-103.97,67.88
168720,2018-06-29 10:12:44.500000,-140.98,67.88
168721,2018-06-29 10:12:44.531250,-168.12,67.92
168722,2018-06-29 10:12:44.562500,-167.37,67.92
168723,2018-06-29 10:12:44.593750,-133.52,67.92
168724,2018-06-29 10:12:44.625000,-79.76,67.92
168725,2018-06-29 10:12:44.656250,-23.58,67.92
168726,2018-06-29 10:12:44.687500,25.13,67.92
168727,2018-06-29 10:12:44.718750,61.38,67.92
168728,2018-06-29 10:12:44.750000,82.63,67.92
168729,2018-06-29 10:12:44.781250,91.32,67.92
168730,2018-06-29 10:12:44.812500,92.75,67.92
168731,2018-06-29 10:12:44.843750,90.06,67.92
168732,2018-06-29 10:12:44.875000,84.05,67.92
168733,2018-06-29 10:12:44.906250,75.54,67.92
168734,2018-06-29 10:12:44.937500,65.21,67.92
168735,2018-06-29 10:12:44.968750,52.46,67.92
168736,2018-06-29 10:12:45.000000,36.17,67.92
168737,2018-06-29 10:12:45.031250,17.1,67.92
168738,2018-06-29 10:12:45.062500,-1.83,67.92
168739,2018-06-29 10:12:45.093750,-18.42,67.92
168740,2018-06-29 10:12:45.125000,-32.53,67.92
168741,2018-06-29 10:12:45.156250,-44.02,67.92
168742,2018-06-29 10:12:45.187500,-52.36,67.92
168743,2018-06-29 10:12:45.218750,-58.41,67.92
168744,2018-06-29 10:12:45.250000,-64.62,67.92
168745,2018-06-29 10:12:45.281250,-73.33,67.92
168746,2018-06-29 10:12:45.312500,-82.61,67.92
168747,2018-06-29 10:12:45.343750,-83.14,67.92
168748,2018-06-29 10:12:45.375000,-65.83,67.92
168749,2018-06-29 10:12:45.406250,-33.97,67.92
168750,2018-06-29 10:12:45.437500,-0.37,67.92
168751,2018-06-29 10:12:45.468750,26.48,67.92
168752,2018-06-29 10:12:45.500000,45.6,67.92
168753,2018-06-29 10:12:45.531250,56.57,67.95
168754,2018-06-29 10:12:45.562500,57.73,67.95
168755,2018-06-29 10:12:45.593750,49.56,67.95
168756,2018-06-29 10:12:45.625000,34.63,67.95
168757,2018-06-29 10:12:45.656250,15.22,67.95
168758,2018-06-29 10:12:45.687500,-5.52,67.95
168759,2018-06-29 10:12:45.718750,-21.27,67.95
168760,2018-06-29 10:12:45.750000,-25.95,67.95
168761,2018-06-29 10:12:45.781250,-18.47,67.95
168762,2018-06-29 10:12:45.812500,-0.93,67.95
168763,2018-06-29 10:12:45.843750,24.13,67.95
168764,2018-06-29 10:12:45.875000,51.25,67.95
168765,2018-06-29 10:12:45.906250,71.52,67.95
168766,2018-06-29 10:12:45.937500,79.15,67.95
168767,2018-06-29 10:12:45.968750,75.61,67.95
168768,2018-06-29 10:12:46.000000,65.89,67.95
168769,2018-06-29 10:12:46.031250,53.12,67.95
168770,2018-06-29 10:12:46.062500,37.37,67.95
168771,2018-06-29 10:12:46.093750,18.62,67.95
168772,2018-06-29 10:12:46.125000,1.26,67.95
168773,2018-06-29 10:12:46.156250,-5.48,67.95
168774,2018-06-29 10:12:46.187500,4.96,67.95
168775,2018-06-29 10:12:46.218750,28.41,67.95
168776,2018-06-29 10:12:46.250000,52.93,67.95
168777,2018-06-29 10:12:46.281250,69.04,67.95
168778,2018-06-29 10:12:46.312500,74.28,67.95
168779,2018-06-29 10:12:46.343750,69.86,67.95
168780,2018-06-29 10:12:46.375000,58.15,67.95
168781,2018-06-29 10:12:46.406250,43.38,67.95
168782,2018-06-29 10:12:46.437500,30.82,67.95
168783,2018-06-29 10:12:46.468750,23.63,67.95
168784,2018-06-29 10:12:46.500000,21.23,67.95
168785,2018-06-29 10:12:46.531250,21.46,68.02
168786,2018-06-29 10:12:46.562500,22.6,68.02
168787,2018-06-29 10:12:46.593750,22.64,68.02
168788,2018-06-29 10:12:46.625000,19.38,68.02
168789,2018-06-29 10:12:46.656250,12.91,68.02
168790,2018-06-29 10:12:46.687500,5.71,68.02
168791,2018-06-29 10:12:46.718750,-0.95,68.02
168792,2018-06-29 10:12:46.750000,-8.74,68.02
168793,2018-06-29 10:12:46.781250,-19.37,68.02
168794,2018-06-29 10:12:46.812500,-31.89,68.02
168795,2018-06-29 10:12:46.843750,-43.95,68.02
168796,2018-06-29 10:12:46.875000,-54.68,68.02
168797,2018-06-29 10:12:46.906250,-65.75,68.02
168798,2018-06-29 10:12:46.937500,-79.14,68.02
168799,2018-06-29 10:12:46.968750,-92.81,68.02
168800,2018-06-29 10:12:47.000000,-98.04,68.02
168801,2018-06-29 10:12:47.031250,-85.74,68.02
168802,2018-06-29 10:12:47.062500,-57.43,68.02
168803,2018-06-29 10:12:47.093750,-24.76,68.02
168804,2018-06-29 10:12:47.125000,2.48,68.02
168805,2018-06-29 10:12:47.156250,22.14,68.02
168806,2018-06-29 10:12:47.187500,34.41,68.02
168807,2018-06-29 10:12:47.218750,39.08,68.02
168808,2018-06-29 10:12:47.250000,38.35,68.02
168809,2018-06-29 10:12:47.281250,36.75,68.02
168810,2018-06-29 10:12:47.312500,37.24,68.02
168811,2018-06-29 10:12:47.343750,40.22,68.02
168812,2018-06-29 10:12:47.375000,44.92,68.02
168813,2018-06-29 10:12:47.406250,49.43,68.02
168814,2018-06-29 10:12:47.437500,51.0,68.02
168815,2018-06-29 10:12:47.468750,48.11,68.02
168816,2018-06-29 10:12:47.500000,41.1,68.02
168817,2018-06-29 10:12:47.531250,30.78,68.15
168818,2018-06-29 10:12:47.562500,17.65,68.15
168819,2018-06-29 10:12:47.593750,2.31,68.15
168820,2018-06-29 10:12:47.625000,-13.74,68.15
168821,2018-06-29 10:12:47.656250,-28.89,68.15
168822,2018-06-29 10:12:47.687500,-42.86,68.15
168823,2018-06-29 10:12:47.718750,-55.64,68.15
168824,2018-06-29 10:12:47.750000,-65.36,68.15
168825,2018-06-29 10:12:47.781250,-70.06,68.15
168826,2018-06-29 10:12:47.812500,-70.75,68.15
168827,2018-06-29 10:12:47.843750,-70.05,68.15
168828,2018-06-29 10:12:47.875000,-69.54,68.15
168829,2018-06-29 10:12:47.906250,-67.81,68.15
168830,2018-06-29 10:12:47.937500,-59.04,68.15
168831,2018-06-29 10:12:47.968750,-37.4,68.15
168832,2018-06-29 10:12:48.000000,-5.57,68.15
168833,2018-06-29 10:12:48.031250,25.86,68.15
168834,2018-06-29 10:12:48.062500,47.94,68.15
168835,2018-06-29 10:12:48.093750,58.35,68.15
168836,2018-06-29 10:12:48.125000,59.1,68.15
168837,2018-06-29 10:12:48.156250,52.94,68.15
168838,2018-06-29 10:12:48.187500,43.95,68.15
168839,2018-06-29 10:12:48.218750,41.07,68.15
168840,2018-06-29 10:12:48.250000,52.55,68.15
168841,2018-06-29 10:12:48.281250,75.45,68.15
168842,2018-06-29 10:12:48.312500,100.43,68.15
168843,2018-06-29 10:12:48.343750,125.23,68.15
168844,2018-06-29 10:12:48.375000,152.77,68.15
168845,2018-06-29 10:12:48.406250,182.71,68.15
168846,2018-06-29 10:12:48.437500,213.8,68.15
168847,2018-06-29 10:12:48.468750,243.71,68.15
168848,2018-06-29 10:12:48.500000,260.9,68.15
168849,2018-06-29 10:12:48.531250,249.31,68.2
168850,2018-06-29 10:12:48.562500,205.58,68.2
168851,2018-06-29 10:12:48.593750,143.41,68.2
168852,2018-06-29 10:12:48.625000,78.5,68.2
168853,2018-06-29 10:12:48.656250,16.51,68.2
168854,2018-06-29 10:12:48.687500,-44.7,68.2
168855,2018-06-29 10:12:48.718750,-108.42,68.2
168856,2018-06-29 10:12:48.750000,-170.17,68.2
168857,2018-06-29 10:12:48.781250,-212.63,68.2
168858,2018-06-29 10:12:48.812500,-221.72,68.2
168859,2018-06-29 10:12:48.843750,-205.09,68.2
168860,2018-06-29 10:12:48.875000,-177.66,68.2
168861,2018-06-29 10:12:48.906250,-140.76,68.2
168862,2018-06-29 10:12:48.937500,-96.77,68.2
168863,2018-06-29 10:12:48.968750,-63.06,68.2
168864,2018-06-29 10:12:49.000000,-50.64,68.2
168865,2018-06-29 10:12:49.031250,-52.13,68.2
168866,2018-06-29 10:12:49.062500,-59.88,68.2
168867,2018-06-29 10:12:49.093750,-73.45,68.2
168868,2018-06-29 10:12:49.125000,-90.7,68.2
168869,2018-06-29 10:12:49.156250,-106.07,68.2
168870,2018-06-29 10:12:49.187500,-111.15,68.2
168871,2018-06-29 10:12:49.218750,-95.74,68.2
168872,2018-06-29 10:12:49.250000,-59.61,68.2
168873,2018-06-29 10:12:49.281250,-16.31,68.2
168874,2018-06-29 10:12:49.312500,22.42,68.2
168875,2018-06-29 10:12:49.343750,54.37,68.2
168876,2018-06-29 10:12:49.375000,80.83,68.2
168877,2018-06-29 10:12:49.406250,105.27,68.2
168878,2018-06-29 10:12:49.437500,129.43,68.2
168879,2018-06-29 10:12:49.468750,144.68,68.2
168880,2018-06-29 10:12:49.500000,141.96,68.2
168881,2018-06-29 10:12:49.531250,129.79,68.23
168882,2018-06-29 10:12:49.562500,125.54,68.23
168883,2018-06-29 10:12:49.593750,130.63,68.23
168884,2018-06-29 10:12:49.625000,127.55,68.23
168885,2018-06-29 10:12:49.656250,100.06,68.23
168886,2018-06-29 10:12:49.687500,48.38,68.23
168887,2018-06-29 10:12:49.718750,-14.26,68.23
168888,2018-06-29 10:12:49.750000,-72.12,68.23
168889,2018-06-29 10:12:49.781250,-113.55,68.23
168890,2018-06-29 10:12:49.812500,-136.17,68.23
168891,2018-06-29 10:12:49.843750,-148.21,68.23
168892,2018-06-29 10:12:49.875000,-160.87,68.23
168893,2018-06-29 10:12:49.906250,-179.33,68.23
168894,2018-06-29 10:12:49.937500,-202.23,68.23
168895,2018-06-29 10:12:49.968750,-226.28,68.23
168896,2018-06-29 10:12:50.000000,-247.9,68.23
168897,2018-06-29 10:12:50.031250,-261.07,68.23
168898,2018-06-29 10:12:50.062500,-258.96,68.23
168899,2018-06-29 10:12:50.093750,-240.65,68.23
168900,2018-06-29 10:12:50.125000,-209.66,68.23
168901,2018-06-29 10:12:50.156250,-164.87,68.23
168902,2018-06-29 10:12:50.187500,-104.33,68.23
168903,2018-06-29 10:12:50.218750,-35.83,68.23
168904,2018-06-29 10:12:50.250000,30.1,68.23
168905,2018-06-29 10:12:50.281250,91.2,68.23
168906,2018-06-29 10:12:50.312500,146.46,68.23
168907,2018-06-29 10:12:50.343750,189.51,68.23
168908,2018-06-29 10:12:50.375000,217.89,68.23
168909,2018-06-29 10:12:50.406250,233.8,68.23
168910,2018-06-29 10:12:50.437500,229.9,68.23
168911,2018-06-29 10:12:50.468750,194.37,68.23
168912,2018-06-29 10:12:50.500000,136.18,68.23
168913,2018-06-29 10:12:50.531250,86.1,68.27
168914,2018-06-29 10:12:50.562500,65.04,68.27
168915,2018-06-29 10:12:50.593750,64.29,68.27
168916,2018-06-29 10:12:50.625000,61.1,68.27
168917,2018-06-29 10:12:50.656250,44.44,68.27
168918,2018-06-29 10:12:50.687500,21.99,68.27
168919,2018-06-29 10:12:50.718750,4.83,68.27
168920,2018-06-29 10:12:50.750000,-7.52,68.27
168921,2018-06-29 10:12:50.781250,-21.47,68.27
168922,2018-06-29 10:12:50.812500,-36.92,68.27
168923,2018-06-29 10:12:50.843750,-50.92,68.27
168924,2018-06-29 10:12:50.875000,-68.54,68.27
168925,2018-06-29 10:12:50.906250,-97.89,68.27
168926,2018-06-29 10:12:50.937500,-136.98,68.27
168927,2018-06-29 10:12:50.968750,-175.32,68.27
168928,2018-06-29 10:12:51.000000,-208.62,68.27
168929,2018-06-29 10:12:51.031250,-242.98,68.27
168930,2018-06-29 10:12:51.062500,-280.26,68.27
168931,2018-06-29 10:12:51.093750,-303.65,68.27
168932,2018-06-29 10:12:51.125000,-286.0,68.27
168933,2018-06-29 10:12:51.156250,-217.44,68.27
168934,2018-06-29 10:12:51.187500,-119.61,68.27
168935,2018-06-29 10:12:51.218750,-27.31,68.27
168936,2018-06-29 10:12:51.250000,37.78,68.27
168937,2018-06-29 10:12:51.281250,71.91,68.27
168938,2018-06-29 10:12:51.312500,81.85,68.27
168939,2018-06-29 10:12:51.343750,82.24,68.27
168940,2018-06-29 10:12:51.375000,90.44,68.27
168941,2018-06-29 10:12:51.406250,112.72,68.27
168942,2018-06-29 10:12:51.437500,136.11,68.27
168943,2018-06-29 10:12:51.468750,138.43,68.27
168944,2018-06-29 10:12:51.500000,109.72,68.27
168945,2018-06-29 10:12:51.531250,59.64,68.28
168946,2018-06-29 10:12:51.562500,2.75,68.28
168947,2018-06-29 10:12:51.593750,-53.49,68.28
168948,2018-06-29 10:12:51.625000,-101.76,68.28
168949,2018-06-29 10:12:51.656250,-131.64,68.28
168950,2018-06-29 10:12:51.687500,-142.7,68.28
168951,2018-06-29 10:12:51.718750,-147.54,68.28
168952,2018-06-29 10:12:51.750000,-153.53,68.28
168953,2018-06-29 10:12:51.781250,-153.92,68.28
168954,2018-06-29 10:12:51.812500,-143.56,68.28
168955,2018-06-29 10:12:51.843750,-130.69,68.28
168956,2018-06-29 10:12:51.875000,-126.01,68.28
168957,2018-06-29 10:12:51.906250,-129.31,68.28
168958,2018-06-29 10:12:51.937500,-134.4,68.28
168959,2018-06-29 10:12:51.968750,-141.14,68.28
168960,2018-06-29 10:12:52.000000,-155.03,68.28
168961,2018-06-29 10:12:52.031250,-176.35,68.28
168962,2018-06-29 10:12:52.062500,-193.39,68.28
168963,2018-06-29 10:12:52.093750,-189.93,68.28
168964,2018-06-29 10:12:52.125000,-162.81,68.28
168965,2018-06-29 10:12:52.156250,-125.82,68.28
168966,2018-06-29 10:12:52.187500,-90.96,68.28
168967,2018-06-29 10:12:52.218750,-56.2,68.28
168968,2018-06-29 10:12:52.250000,-17.8,68.28
168969,2018-06-29 10:12:52.281250,17.99,68.28
168970,2018-06-29 10:12:52.312500,42.18,68.28
168971,2018-06-29 10:12:52.343750,54.11,68.28
168972,2018-06-29 10:12:52.375000,61.7,68.28
168973,2018-06-29 10:12:52.406250,73.81,68.28
168974,2018-06-29 10:12:52.437500,92.86,68.28
168975,2018-06-29 10:12:52.468750,115.61,68.28
168976,2018-06-29 10:12:52.500000,139.59,68.28
168977,2018-06-29 10:12:52.531250,167.25,68.3
168978,2018-06-29 10:12:52.562500,203.14,68.3
168979,2018-06-29 10:12:52.593750,245.7,68.3
168980,2018-06-29 10:12:52.625000,284.33,68.3
168981,2018-06-29 10:12:52.656250,309.43,68.3
168982,2018-06-29 10:12:52.687500,322.62,68.3
168983,2018-06-29 10:12:52.718750,332.64,68.3
168984,2018-06-29 10:12:52.750000,342.98,68.3
168985,2018-06-29 10:12:52.781250,345.84,68.3
168986,2018-06-29 10:12:52.812500,327.57,68.3
168987,2018-06-29 10:12:52.843750,280.11,68.3
168988,2018-06-29 10:12:52.875000,207.32,68.3
168989,2018-06-29 10:12:52.906250,122.23,68.3
168990,2018-06-29 10:12:52.937500,46.21,68.3
168991,2018-06-29 10:12:52.968750,8.84,68.3
168992,2018-06-29 10:12:53.000000,28.87,68.3
168993,2018-06-29 10:12:53.031250,86.62,68.3
