,Time,ppg,hr
169600,2018-06-29 10:13:12.000000,-61.01,70.27
169601,2018-06-29 10:13:12.031250,-23.97,70.27
169602,2018-06-29 10:13:12.062500,11.49,70.27
169603,2018-06-29 10:13:12.093750,43.06,70.27
169604,2018-06-29 10:13:12.125000,68.98,70.27
169605,2018-06-29 10:13:12.156250,84.15,70.27
169606,2018-06-29 10:13:12.187500,85.84,70.27
169607,2018-06-29 10:13:12.218750,78.57,70.27
169608,2018-06-29 10:13:12.250000,69.73,70.27
169609,2018-06-29 10:13:12.281250,63.33,70.27
169610,2018-06-29 10:13:12.312500,59.49,70.27
169611,2018-06-29 10:13:12.343750,56.88,70.27
169612,2018-06-29 10:13:12.375000,53.28,70.27
169613,2018-06-29 10:13:12.406250,46.35,70.27
169614,2018-06-29 10:13:12.437500,36.73,70.27
169615,2018-06-29 10:13:12.468750,27.73,70.27
169616,2018-06-29 10:13:12.500000,20.11,70.27
169617,2018-06-29 10:13:12.531250,10.37,70.22
169618,2018-06-29 10:13:12.562500,-3.72,70.22
169619,2018-06-29 10:13:12.593750,-20.41,70.22
169620,2018-06-29 10:13:12.625000,-38.58,70.22
169621,2018-06-29 10:13:12.656250,-59.62,70.22
169622,2018-06-29 10:13:12.687500,-83.92,70.22
169623,2018-06-29 10:13:12.718750,-109.88,70.22
169624,2018-06-29 10:13:12.750000,-136.21,70.22
169625,2018-06-29 10:13:12.781250,-162.76,70.22
169626,2018-06-29 10:13:12.812500,-190.7,70.22
169627,2018-06-29 10:13:12.843750,-219.11,70.22
169628,2018-06-29 10:13:12.875000,-237.93,70.22
169629,2018-06-29 10:13:12.906250,-232.21,70.22
169630,2018-06-29 10:13:12.937500,-199.1,70.22
169631,2018-06-29 10:13:12.968750,-151.74,70.22
169632,2018-06-29 10:13:13.000000,-104.12,70.22
169633,2018-06-29 10:13:13.031250,-61.5,70.22
169634,2018-06-29 10:13:13.062500,-25.64,70.22
169635,2018-06-29 10:13:13.093750,0.94,70.22
169636,2018-06-29 10:13:13.125000,17.3,70.22
169637,2018-06-29 10:13:13.156250,26.45,70.22
169638,2018-06-29 10:13:13.187500,35.94,70.22
169639,2018-06-29 10:13:13.218750,55.17,70.22
169640,2018-06-29 10:13:13.250000,87.53,70.22
169641,2018-06-29 10:13:13.281250,125.16,70.22
169642,2018-06-29 10:13:13.312500,155.19,70.22
169643,2018-06-29 10:13:13.343750,170.33,70.22
169644,2018-06-29 10:13:13.375000,171.3,70.22
169645,2018-06-29 10:13:13.406250,163.43,70.22
169646,2018-06-29 10:13:13.437500,154.2,70.22
169647,2018-06-29 10:13:13.468750,147.22,70.22
169648,2018-06-29 10:13:13.500000,136.68,70.22
169649,2018-06-29 10:13:13.531250,116.68,70.13
169650,2018-06-29 10:13:13.562500,92.4,70.13
169651,2018-06-29 10:13:13.593750,71.03,70.13
169652,2018-06-29 10:13:13.625000,49.56,70.13
169653,2018-06-29 10:13:13.656250,22.15,70.13
169654,2018-06-29 10:13:13.687500,-8.92,70.13
169655,2018-06-29 10:13:13.718750,-33.99,70.13
169656,2018-06-29 10:13:13.750000,-40.56,70.13
169657,2018-06-29 10:13:13.781250,-21.8,70.13
169658,2018-06-29 10:13:13.812500,13.48,70.13
169659,2018-06-29 10:13:13.843750,46.13,70.13
169660,2018-06-29 10:13:13.875000,64.11,70.13
169661,2018-06-29 10:13:13.906250,68.19,70.13
169662,2018-06-29 10:13:13.937500,63.98,70.13
169663,2018-06-29 10:13:13.968750,55.93,70.13
169664,2018-06-29 10:13:14.000000,47.33,70.13
169665,2018-06-29 10:13:14.031250,40.37,70.13
169666,2018-06-29 10:13:14.062500,34.87,70.13
169667,2018-06-29 10:13:14.093750,30.14,70.13
169668,2018-06-29 10:13:14.125000,28.22,70.13
169669,2018-06-29 10:13:14.156250,30.27,70.13
169670,2018-06-29 10:13:14.187500,30.38,70.13
169671,2018-06-29 10:13:14.218750,21.69,70.13
169672,2018-06-29 10:13:14.250000,7.87,70.13
169673,2018-06-29 10:13:14.281250,-1.39,70.13
169674,2018-06-29 10:13:14.312500,-4.07,70.13
169675,2018-06-29 10:13:14.343750,-5.68,70.13
169676,2018-06-29 10:13:14.375000,-9.49,70.13
169677,2018-06-29 10:13:14.406250,-15.45,70.13
169678,2018-06-29 10:13:14.437500,-24.48,70.13
169679,2018-06-29 10:13:14.468750,-36.55,70.13
169680,2018-06-29 10:13:14.500000,-46.85,70.13
169681,2018-06-29 10:13:14.531250,-47.34,70.02
169682,2018-06-29 10:13:14.562500,-32.25,70.02
169683,2018-06-29 10:13:14.593750,-3.26,70.02
169684,2018-06-29 10:13:14.625000,30.26,70.02
169685,2018-06-29 10:13:14.656250,58.3,70.02
169686,2018-06-29 10:13:14.687500,76.87,70.02
169687,2018-06-29 10:13:14.718750,85.35,70.02
169688,2018-06-29 10:13:14.750000,83.42,70.02
169689,2018-06-29 10:13:14.781250,75.61,70.02
169690,2018-06-29 10:13:14.812500,71.46,70.02
169691,2018-06-29 10:13:14.843750,75.37,70.02
169692,2018-06-29 10:13:14.875000,82.72,70.02
169693,2018-06-29 10:13:14.906250,88.88,70.02
169694,2018-06-29 10:13:14.937500,93.53,70.02
169695,2018-06-29 10:13:14.968750,95.64,70.02
169696,2018-06-29 10:13:15.000000,92.73,70.02
169697,2018-06-29 10:13:15.031250,85.64,70.02
169698,2018-06-29 10:13:15.062500,78.38,70.02
169699,2018-06-29 10:13:15.093750,73.08,70.02
169700,2018-06-29 10:13:15.125000,66.46,70.02
169701,2018-06-29 10:13:15.156250,50.8,70.02
169702,2018-06-29 10:13:15.187500,20.77,70.02
169703,2018-06-29 10:13:15.218750,-19.39,70.02
169704,2018-06-29 10:13:15.250000,-56.56,70.02
169705,2018-06-29 10:13:15.281250,-78.2,70.02
169706,2018-06-29 10:13:15.312500,-82.63,70.02
169707,2018-06-29 10:13:15.343750,-77.21,70.02
169708,2018-06-29 10:13:15.375000,-67.13,70.02
169709,2018-06-29 10:13:15.406250,-52.73,70.02
169710,2018-06-29 10:13:15.437500,-37.01,70.02
169711,2018-06-29 10:13:15.468750,-26.47,70.02
169712,2018-06-29 10:13:15.500000,-23.31,70.02
169713,2018-06-29 10:13:15.531250,-23.26,69.9
169714,2018-06-29 10:13:15.562500,-22.16,69.9
169715,2018-06-29 10:13:15.593750,-21.12,69.9
169716,2018-06-29 10:13:15.625000,-25.02,69.9
169717,2018-06-29 10:13:15.656250,-37.4,69.9
169718,2018-06-29 10:13:15.687500,-58.34,69.9
169719,2018-06-29 10:13:15.718750,-84.97,69.9
169720,2018-06-29 10:13:15.750000,-112.1,69.9
169721,2018-06-29 10:13:15.781250,-134.32,69.9
169722,2018-06-29 10:13:15.812500,-147.75,69.9
169723,2018-06-29 10:13:15.843750,-150.26,69.9
169724,2018-06-29 10:13:15.875000,-142.98,69.9
169725,2018-06-29 10:13:15.906250,-129.6,69.9
169726,2018-06-29 10:13:15.937500,-111.22,69.9
169727,2018-06-29 10:13:15.968750,-84.91,69.9
169728,2018-06-29 10:13:16.000000,-49.38,69.9
169729,2018-06-29 10:13:16.031250,-7.68,69.9
169730,2018-06-29 10:13:16.062500,36.37,69.9
169731,2018-06-29 10:13:16.093750,77.99,69.9
169732,2018-06-29 10:13:16.125000,107.62,69.9
169733,2018-06-29 10:13:16.156250,115.05,69.9
169734,2018-06-29 10:13:16.187500,98.73,69.9
169735,2018-06-29 10:13:16.218750,68.32,69.9
169736,2018-06-29 10:13:16.250000,36.42,69.9
169737,2018-06-29 10:13:16.281250,8.51,69.9
169738,2018-06-29 10:13:16.312500,-20.07,69.9
169739,2018-06-29 10:13:16.343750,-57.32,69.9
169740,2018-06-29 10:13:16.375000,-103.89,69.9
169741,2018-06-29 10:13:16.406250,-151.29,69.9
169742,2018-06-29 10:13:16.437500,-193.63,69.9
169743,2018-06-29 10:13:16.468750,-236.71,69.9
169744,2018-06-29 10:13:16.500000,-287.38,69.9
169745,2018-06-29 10:13:16.531250,-339.02,69.8
169746,2018-06-29 10:13:16.562500,-383.14,69.8
169747,2018-06-29 10:13:16.593750,-430.53,69.8
169748,2018-06-29 10:13:16.625000,-489.84,69.8
169749,2018-06-29 10:13:16.656250,-527.58,69.8
169750,2018-06-29 10:13:16.687500,-497.52,69.8
169751,2018-06-29 10:13:16.718750,-407.25,69.8
169752,2018-06-29 10:13:16.750000,-308.03,69.8
169753,2018-06-29 10:13:16.781250,-230.21,69.8
169754,2018-06-29 10:13:16.812500,-170.68,69.8
169755,2018-06-29 10:13:16.843750,-120.46,69.8
169756,2018-06-29 10:13:16.875000,-69.4,69.8
169757,2018-06-29 10:13:16.906250,-6.94,69.8
169758,2018-06-29 10:13:16.937500,62.19,69.8
169759,2018-06-29 10:13:16.968750,118.92,69.8
169760,2018-06-29 10:13:17.000000,153.12,69.8
169761,2018-06-29 10:13:17.031250,175.31,69.8
169762,2018-06-29 10:13:17.062500,199.67,69.8
169763,2018-06-29 10:13:17.093750,226.05,69.8
169764,2018-06-29 10:13:17.125000,246.49,69.8
169765,2018-06-29 10:13:17.156250,259.66,69.8
169766,2018-06-29 10:13:17.187500,268.33,69.8
169767,2018-06-29 10:13:17.218750,271.24,69.8
169768,2018-06-29 10:13:17.250000,266.14,69.8
169769,2018-06-29 10:13:17.281250,254.58,69.8
169770,2018-06-29 10:13:17.312500,238.98,69.8
169771,2018-06-29 10:13:17.343750,219.57,69.8
169772,2018-06-29 10:13:17.375000,196.93,69.8
169773,2018-06-29 10:13:17.406250,174.22,69.8
169774,2018-06-29 10:13:17.437500,153.63,69.8
169775,2018-06-29 10:13:17.468750,133.3,69.8
169776,2018-06-29 10:13:17.500000,110.97,69.8
169777,2018-06-29 10:13:17.531250,87.78,69.72
169778,2018-06-29 10:13:17.562500,66.01,69.72
169779,2018-06-29 10:13:17.593750,45.34,69.72
169780,2018-06-29 10:13:17.625000,23.64,69.72
169781,2018-06-29 10:13:17.656250,0.21,69.72
169782,2018-06-29 10:13:17.687500,-23.11,69.72
169783,2018-06-29 10:13:17.718750,-43.7,69.72
169784,2018-06-29 10:13:17.750000,-61.86,69.72
169785,2018-06-29 10:13:17.781250,-82.13,69.72
169786,2018-06-29 10:13:17.812500,-107.39,69.72
169787,2018-06-29 10:13:17.843750,-129.16,69.72
169788,2018-06-29 10:13:17.875000,-129.49,69.72
169789,2018-06-29 10:13:17.906250,-100.09,69.72
169790,2018-06-29 10:13:17.937500,-53.95,69.72
169791,2018-06-29 10:13:17.968750,-10.18,69.72
169792,2018-06-29 10:13:18.000000,25.07,69.72
169793,2018-06-29 10:13:18.031250,55.02,69.72
169794,2018-06-29 10:13:18.062500,79.71,69.72
169795,2018-06-29 10:13:18.093750,96.31,69.72
169796,2018-06-29 10:13:18.125000,104.66,69.72
169797,2018-06-29 10:13:18.156250,107.24,69.72
169798,2018-06-29 10:13:18.187500,107.42,69.72
169799,2018-06-29 10:13:18.218750,109.24,69.72
169800,2018-06-29 10:13:18.250000,115.04,69.72
169801,2018-06-29 10:13:18.281250,122.87,69.72
169802,2018-06-29 10:13:18.312500,128.16,69.72
169803,2018-06-29 10:13:18.343750,127.67,69.72
169804,2018-06-29 10:13:18.375000,121.26,69.72
169805,2018-06-29 10:13:18.406250,111.25,69.72
169806,2018-06-29 10:13:18.437500,100.74,69.72
169807,2018-06-29 10:13:18.468750,91.11,69.72
169808,2018-06-29 10:13:18.500000,80.87,69.72
169809,2018-06-29 10:13:18.531250,68.69,69.65
169810,2018-06-29 10:13:18.562500,55.86,69.65
169811,2018-06-29 10:13:18.593750,43.83,69.65
169812,2018-06-29 10:13:18.625000,31.24,69.65
169813,2018-06-29 10:13:18.656250,15.87,69.65
169814,2018-06-29 10:13:18.687500,-2.05,69.65
169815,2018-06-29 10:13:18.718750,-20.3,69.65
169816,2018-06-29 10:13:18.750000,-37.56,69.65
169817,2018-06-29 10:13:18.781250,-54.98,69.65
169818,2018-06-29 10:13:18.812500,-75.48,69.65
169819,2018-06-29 10:13:18.843750,-99.79,69.65
169820,2018-06-29 10:13:18.875000,-119.51,69.65
169821,2018-06-29 10:13:18.906250,-118.63,69.65
169822,2018-06-29 10:13:18.937500,-89.64,69.65
169823,2018-06-29 10:13:18.968750,-44.1,69.65
169824,2018-06-29 10:13:19.000000,-0.13,69.65
169825,2018-06-29 10:13:19.031250,34.07,69.65
169826,2018-06-29 10:13:19.062500,59.33,69.65
169827,2018-06-29 10:13:19.093750,76.65,69.65
169828,2018-06-29 10:13:19.125000,85.21,69.65
169829,2018-06-29 10:13:19.156250,85.77,69.65
169830,2018-06-29 10:13:19.187500,82.42,69.65
169831,2018-06-29 10:13:19.218750,79.87,69.65
169832,2018-06-29 10:13:19.250000,79.74,69.65
169833,2018-06-29 10:13:19.281250,81.33,69.65
169834,2018-06-29 10:13:19.312500,83.88,69.65
169835,2018-06-29 10:13:19.343750,84.73,69.65
169836,2018-06-29 10:13:19.375000,79.84,69.65
169837,2018-06-29 10:13:19.406250,69.34,69.65
169838,2018-06-29 10:13:19.437500,57.85,69.65
169839,2018-06-29 10:13:19.468750,47.46,69.65
169840,2018-06-29 10:13:19.500000,35.6,69.65
169841,2018-06-29 10:13:19.531250,21.1,69.58
169842,2018-06-29 10:13:19.562500,7.35,69.58
169843,2018-06-29 10:13:19.593750,-2.86,69.58
169844,2018-06-29 10:13:19.625000,-11.98,69.58
169845,2018-06-29 10:13:19.656250,-24.13,69.58
169846,2018-06-29 10:13:19.687500,-39.04,69.58
169847,2018-06-29 10:13:19.718750,-52.94,69.58
169848,2018-06-29 10:13:19.750000,-64.36,69.58
169849,2018-06-29 10:13:19.781250,-76.28,69.58
169850,2018-06-29 10:13:19.812500,-92.38,69.58
169851,2018-06-29 10:13:19.843750,-110.79,69.58
169852,2018-06-29 10:13:19.875000,-120.64,69.58
169853,2018-06-29 10:13:19.906250,-108.87,69.58
169854,2018-06-29 10:13:19.937500,-74.15,69.58
169855,2018-06-29 10:13:19.968750,-29.98,69.58
169856,2018-06-29 10:13:20.000000,8.73,69.58
169857,2018-06-29 10:13:20.031250,37.13,69.58
169858,2018-06-29 10:13:20.062500,57.24,69.58
169859,2018-06-29 10:13:20.093750,69.97,69.58
169860,2018-06-29 10:13:20.125000,74.65,69.58
169861,2018-06-29 10:13:20.156250,73.26,69.58
169862,2018-06-29 10:13:20.187500,70.44,69.58
169863,2018-06-29 10:13:20.218750,69.0,69.58
169864,2018-06-29 10:13:20.250000,68.09,69.58
169865,2018-06-29 10:13:20.281250,66.27,69.58
169866,2018-06-29 10:13:20.312500,63.28,69.58
169867,2018-06-29 10:13:20.343750,58.15,69.58
169868,2018-06-29 10:13:20.375000,49.15,69.58
169869,2018-06-29 10:13:20.406250,36.53,69.58
169870,2018-06-29 10:13:20.437500,23.01,69.58
169871,2018-06-29 10:13:20.468750,10.43,69.58
169872,2018-06-29 10:13:20.500000,-1.99,69.58
169873,2018-06-29 10:13:20.531250,-15.66,69.5
169874,2018-06-29 10:13:20.562500,-30.4,69.5
169875,2018-06-29 10:13:20.593750,-44.71,69.5
169876,2018-06-29 10:13:20.625000,-57.41,69.5
169877,2018-06-29 10:13:20.656250,-69.01,69.5
169878,2018-06-29 10:13:20.687500,-81.19,69.5
169879,2018-06-29 10:13:20.718750,-93.46,69.5
169880,2018-06-29 10:13:20.750000,-99.48,69.5
169881,2018-06-29 10:13:20.781250,-89.98,69.5
169882,2018-06-29 10:13:20.812500,-63.23,69.5
169883,2018-06-29 10:13:20.843750,-29.17,69.5
169884,2018-06-29 10:13:20.875000,0.75,69.5
169885,2018-06-29 10:13:20.906250,23.64,69.5
169886,2018-06-29 10:13:20.937500,41.08,69.5
169887,2018-06-29 10:13:20.968750,52.02,69.5
169888,2018-06-29 10:13:21.000000,54.6,69.5
169889,2018-06-29 10:13:21.031250,50.58,69.5
169890,2018-06-29 10:13:21.062500,44.06,69.5
169891,2018-06-29 10:13:21.093750,37.88,69.5
169892,2018-06-29 10:13:21.125000,33.17,69.5
169893,2018-06-29 10:13:21.156250,30.33,69.5
169894,2018-06-29 10:13:21.187500,28.54,69.5
169895,2018-06-29 10:13:21.218750,25.27,69.5
169896,2018-06-29 10:13:21.250000,18.14,69.5
169897,2018-06-29 10:13:21.281250,7.61,69.5
169898,2018-06-29 10:13:21.312500,-3.37,69.5
169899,2018-06-29 10:13:21.343750,-13.31,69.5
169900,2018-06-29 10:13:21.375000,-24.26,69.5
169901,2018-06-29 10:13:21.406250,-38.71,69.5
169902,2018-06-29 10:13:21.437500,-55.57,69.5
169903,2018-06-29 10:13:21.468750,-71.06,69.5
169904,2018-06-29 10:13:21.500000,-83.19,69.5
169905,2018-06-29 10:13:21.531250,-94.07,69.45
169906,2018-06-29 10:13:21.562500,-107.19,69.45
169907,2018-06-29 10:13:21.593750,-122.08,69.45
169908,2018-06-29 10:13:21.625000,-130.72,69.45
169909,2018-06-29 10:13:21.656250,-122.3,69.45
169910,2018-06-29 10:13:21.687500,-94.79,69.45
169911,2018-06-29 10:13:21.718750,-58.42,69.45
169912,2018-06-29 10:13:21.750000,-24.61,69.45
169913,2018-06-29 10:13:21.781250,3.57,69.45
169914,2018-06-29 10:13:21.812500,27.0,69.45
169915,2018-06-29 10:13:21.843750,42.98,69.45
169916,2018-06-29 10:13:21.875000,47.67,69.45
169917,2018-06-29 10:13:21.906250,42.46,69.45
169918,2018-06-29 10:13:21.937500,33.43,69.45
169919,2018-06-29 10:13:21.968750,25.2,69.45
169920,2018-06-29 10:13:22.000000,18.55,69.45
169921,2018-06-29 10:13:22.031250,12.98,69.45
169922,2018-06-29 10:13:22.062500,8.34,69.45
169923,2018-06-29 10:13:22.093750,4.32,69.45
169924,2018-06-29 10:13:22.125000,1.37,69.45
169925,2018-06-29 10:13:22.156250,1.19,69.45
169926,2018-06-29 10:13:22.187500,4.65,69.45
169927,2018-06-29 10:13:22.218750,9.38,69.45
169928,2018-06-29 10:13:22.250000,11.31,69.45
169929,2018-06-29 10:13:22.281250,9.16,69.45
169930,2018-06-29 10:13:22.312500,5.47,69.45
169931,2018-06-29 10:13:22.343750,2.26,69.45
169932,2018-06-29 10:13:22.375000,-2.6,69.45
169933,2018-06-29 10:13:22.406250,-12.79,69.45
169934,2018-06-29 10:13:22.437500,-27.31,69.45
169935,2018-06-29 10:13:22.468750,-37.18,69.45
169936,2018-06-29 10:13:22.500000,-31.81,69.45
169937,2018-06-29 10:13:22.531250,-10.55,69.43
169938,2018-06-29 10:13:22.562500,15.69,69.43
169939,2018-06-29 10:13:22.593750,35.8,69.43
169940,2018-06-29 10:13:22.625000,47.72,69.43
169941,2018-06-29 10:13:22.656250,54.54,69.43
169942,2018-06-29 10:13:22.687500,56.85,69.43
169943,2018-06-29 10:13:22.718750,53.48,69.43
169944,2018-06-29 10:13:22.750000,46.55,69.43
169945,2018-06-29 10:13:22.781250,40.25,69.43
169946,2018-06-29 10:13:22.812500,36.06,69.43
169947,2018-06-29 10:13:22.843750,33.44,69.43
169948,2018-06-29 10:13:22.875000,32.59,69.43
169949,2018-06-29 10:13:22.906250,32.54,69.43
169950,2018-06-29 10:13:22.937500,30.04,69.43
169951,2018-06-29 10:13:22.968750,23.71,69.43
169952,2018-06-29 10:13:23.000000,15.89,69.43
169953,2018-06-29 10:13:23.031250,8.42,69.43
169954,2018-06-29 10:13:23.062500,0.09,69.43
169955,2018-06-29 10:13:23.093750,-9.96,69.43
169956,2018-06-29 10:13:23.125000,-19.84,69.43
169957,2018-06-29 10:13:23.156250,-28.1,69.43
169958,2018-06-29 10:13:23.187500,-36.34,69.43
169959,2018-06-29 10:13:23.218750,-47.0,69.43
169960,2018-06-29 10:13:23.250000,-58.68,69.43
169961,2018-06-29 10:13:23.281250,-64.1,69.43
169962,2018-06-29 10:13:23.312500,-55.63,69.43
169963,2018-06-29 10:13:23.343750,-34.22,69.43
169964,2018-06-29 10:13:23.375000,-8.84,69.43
169965,2018-06-29 10:13:23.406250,12.96,69.43
169966,2018-06-29 10:13:23.437500,29.4,69.43
169967,2018-06-29 10:13:23.468750,40.16,69.43
169968,2018-06-29 10:13:23.500000,43.92,69.43
169969,2018-06-29 10:13:23.531250,40.97,69.35
169970,2018-06-29 10:13:23.562500,34.55,69.35
169971,2018-06-29 10:13:23.593750,28.73,69.35
169972,2018-06-29 10:13:23.625000,25.12,69.35
169973,2018-06-29 10:13:23.656250,22.07,69.35
169974,2018-06-29 10:13:23.687500,17.55,69.35
169975,2018-06-29 10:13:23.718750,11.88,69.35
169976,2018-06-29 10:13:23.750000,6.23,69.35
169977,2018-06-29 10:13:23.781250,0.43,69.35
169978,2018-06-29 10:13:23.812500,-6.21,69.35
169979,2018-06-29 10:13:23.843750,-14.13,69.35
169980,2018-06-29 10:13:23.875000,-24.23,69.35
169981,2018-06-29 10:13:23.906250,-36.78,69.35
169982,2018-06-29 10:13:23.937500,-50.42,69.35
169983,2018-06-29 10:13:23.968750,-64.01,69.35
169984,2018-06-29 10:13:24.000000,-77.9,69.35
169985,2018-06-29 10:13:24.031250,-90.42,69.35
169986,2018-06-29 10:13:24.062500,-93.68,69.35
169987,2018-06-29 10:13:24.093750,-78.36,69.35
169988,2018-06-29 10:13:24.125000,-44.55,69.35
169989,2018-06-29 10:13:24.156250,-2.9,69.35
169990,2018-06-29 10:13:24.187500,35.68,69.35
169991,2018-06-29 10:13:24.218750,66.08,69.35
169992,2018-06-29 10:13:24.250000,86.04,69.35
169993,2018-06-29 10:13:24.281250,94.95,69.35
169994,2018-06-29 10:13:24.312500,96.14,69.35
169995,2018-06-29 10:13:24.343750,94.97,69.35
169996,2018-06-29 10:13:24.375000,94.73,69.35
169997,2018-06-29 10:13:24.406250,95.66,69.35
169998,2018-06-29 10:13:24.437500,96.67,69.35
169999,2018-06-29 10:13:24.468750,96.25,69.35
170000,2018-06-29 10:13:24.500000,92.59,69.35
170001,2018-06-29 10:13:24.531250,84.24,69.3
170002,2018-06-29 10:13:24.562500,70.96,69.3
170003,2018-06-29 10:13:24.593750,53.47,69.3
170004,2018-06-29 10:13:24.625000,32.62,69.3
170005,2018-06-29 10:13:24.656250,9.91,69.3
170006,2018-06-29 10:13:24.687500,-11.53,69.3
170007,2018-06-29 10:13:24.718750,-28.46,69.3
170008,2018-06-29 10:13:24.750000,-40.41,69.3
170009,2018-06-29 10:13:24.781250,-49.31,69.3
170010,2018-06-29 10:13:24.812500,-56.65,69.3
170011,2018-06-29 10:13:24.843750,-62.02,69.3
170012,2018-06-29 10:13:24.875000,-64.68,69.3
170013,2018-06-29 10:13:24.906250,-65.8,69.3
170014,2018-06-29 10:13:24.937500,-69.4,69.3
170015,2018-06-29 10:13:24.968750,-79.46,69.3
170016,2018-06-29 10:13:25.000000,-92.72,69.3
170017,2018-06-29 10:13:25.031250,-97.31,69.3
170018,2018-06-29 10:13:25.062500,-84.63,69.3
170019,2018-06-29 10:13:25.093750,-59.61,69.3
170020,2018-06-29 10:13:25.125000,-33.08,69.3
170021,2018-06-29 10:13:25.156250,-9.68,69.3
170022,2018-06-29 10:13:25.187500,10.89,69.3
170023,2018-06-29 10:13:25.218750,27.03,69.3
170024,2018-06-29 10:13:25.250000,35.78,69.3
170025,2018-06-29 10:13:25.281250,36.46,69.3
170026,2018-06-29 10:13:25.312500,31.44,69.3
170027,2018-06-29 10:13:25.343750,24.65,69.3
170028,2018-06-29 10:13:25.375000,19.46,69.3
170029,2018-06-29 10:13:25.406250,16.99,69.3
170030,2018-06-29 10:13:25.437500,16.0,69.3
170031,2018-06-29 10:13:25.468750,14.26,69.3
170032,2018-06-29 10:13:25.500000,10.27,69.3
170033,2018-06-29 10:13:25.531250,4.02,69.23
170034,2018-06-29 10:13:25.562500,-3.19,69.23
170035,2018-06-29 10:13:25.593750,-9.73,69.23
170036,2018-06-29 10:13:25.625000,-15.14,69.23
170037,2018-06-29 10:13:25.656250,-20.47,69.23
170038,2018-06-29 10:13:25.687500,-26.63,69.23
170039,2018-06-29 10:13:25.718750,-33.25,69.23
170040,2018-06-29 10:13:25.750000,-39.22,69.23
170041,2018-06-29 10:13:25.781250,-43.86,69.23
170042,2018-06-29 10:13:25.812500,-47.89,69.23
170043,2018-06-29 10:13:25.843750,-53.19,69.23
170044,2018-06-29 10:13:25.875000,-60.52,69.23
170045,2018-06-29 10:13:25.906250,-66.76,69.23
170046,2018-06-29 10:13:25.937500,-64.8,69.23
170047,2018-06-29 10:13:25.968750,-49.33,69.23
170048,2018-06-29 10:13:26.000000,-23.41,69.23
170049,2018-06-29 10:13:26.031250,3.55,69.23
170050,2018-06-29 10:13:26.062500,24.82,69.23
170051,2018-06-29 10:13:26.093750,40.12,69.23
170052,2018-06-29 10:13:26.125000,50.85,69.23
170053,2018-06-29 10:13:26.156250,56.9,69.23
170054,2018-06-29 10:13:26.187500,59.06,69.23
170055,2018-06-29 10:13:26.218750,60.19,69.23
170056,2018-06-29 10:13:26.250000,62.67,69.23
170057,2018-06-29 10:13:26.281250,66.7,69.23
170058,2018-06-29 10:13:26.312500,71.52,69.23
170059,2018-06-29 10:13:26.343750,76.13,69.23
170060,2018-06-29 10:13:26.375000,79.16,69.23
170061,2018-06-29 10:13:26.406250,80.87,69.23
170062,2018-06-29 10:13:26.437500,83.97,69.23
170063,2018-06-29 10:13:26.468750,89.34,69.23
170064,2018-06-29 10:13:26.500000,94.43,69.23
170065,2018-06-29 10:13:26.531250,97.72,69.18
170066,2018-06-29 10:13:26.562500,100.31,69.18
170067,2018-06-29 10:13:26.593750,102.27,69.18
170068,2018-06-29 10:13:26.625000,101.74,69.18
170069,2018-06-29 10:13:26.656250,97.07,69.18
170070,2018-06-29 10:13:26.687500,88.48,69.18
170071,2018-06-29 10:13:26.718750,82.17,69.18
170072,2018-06-29 10:13:26.750000,89.36,69.18
170073,2018-06-29 10:13:26.781250,111.49,69.18
170074,2018-06-29 10:13:26.812500,131.04,69.18
170075,2018-06-29 10:13:26.843750,128.91,69.18
170076,2018-06-29 10:13:26.875000,106.57,69.18
170077,2018-06-29 10:13:26.906250,80.23,69.18
170078,2018-06-29 10:13:26.937500,59.39,69.18
170079,2018-06-29 10:13:26.968750,41.47,69.18
170080,2018-06-29 10:13:27.000000,21.05,69.18
170081,2018-06-29 10:13:27.031250,-4.45,69.18
170082,2018-06-29 10:13:27.062500,-32.42,69.18
170083,2018-06-29 10:13:27.093750,-51.32,69.18
170084,2018-06-29 10:13:27.125000,-45.76,69.18
170085,2018-06-29 10:13:27.156250,-15.02,69.18
170086,2018-06-29 10:13:27.187500,18.82,69.18
170087,2018-06-29 10:13:27.218750,32.0,69.18
170088,2018-06-29 10:13:27.250000,23.98,69.18
170089,2018-06-29 10:13:27.281250,10.64,69.18
170090,2018-06-29 10:13:27.312500,-0.27,69.18
170091,2018-06-29 10:13:27.343750,-13.04,69.18
170092,2018-06-29 10:13:27.375000,-29.75,69.18
170093,2018-06-29 10:13:27.406250,-47.63,69.18
170094,2018-06-29 10:13:27.437500,-67.82,69.18
170095,2018-06-29 10:13:27.468750,-95.14,69.18
170096,2018-06-29 10:13:27.500000,-132.92,69.18
170097,2018-06-29 10:13:27.531250,-183.45,68.93
170098,2018-06-29 10:13:27.562500,-246.72,68.93
170099,2018-06-29 10:13:27.593750,-316.83,68.93
170100,2018-06-29 10:13:27.625000,-387.3,68.93
170101,2018-06-29 10:13:27.656250,-459.37,68.93
170102,2018-06-29 10:13:27.687500,-530.02,68.93
170103,2018-06-29 10:13:27.718750,-573.41,68.93
170104,2018-06-29 10:13:27.750000,-555.59,68.93
170105,2018-06-29 10:13:27.781250,-471.42,68.93
170106,2018-06-29 10:13:27.812500,-350.6,68.93
170107,2018-06-29 10:13:27.843750,-227.46,68.93
170108,2018-06-29 10:13:27.875000,-119.66,68.93
170109,2018-06-29 10:13:27.906250,-31.77,68.93
170110,2018-06-29 10:13:27.937500,36.21,68.93
170111,2018-06-29 10:13:27.968750,84.72,68.93
170112,2018-06-29 10:13:28.000000,114.24,68.93
170113,2018-06-29 10:13:28.031250,127.21,68.93
170114,2018-06-29 10:13:28.062500,128.88,68.93
170115,2018-06-29 10:13:28.093750,125.23,68.93
170116,2018-06-29 10:13:28.125000,118.86,68.93
170117,2018-06-29 10:13:28.156250,107.18,68.93
170118,2018-06-29 10:13:28.187500,88.21,68.93
170119,2018-06-29 10:13:28.218750,67.09,68.93
170120,2018-06-29 10:13:28.250000,53.15,68.93
170121,2018-06-29 10:13:28.281250,51.33,68.93
170122,2018-06-29 10:13:28.312500,58.36,68.93
170123,2018-06-29 10:13:28.343750,65.62,68.93
170124,2018-06-29 10:13:28.375000,65.65,68.93
170125,2018-06-29 10:13:28.406250,57.36,68.93
170126,2018-06-29 10:13:28.437500,45.27,68.93
170127,2018-06-29 10:13:28.468750,35.09,68.93
170128,2018-06-29 10:13:28.500000,30.29,68.93
170129,2018-06-29 10:13:28.531250,29.5,68.7
170130,2018-06-29 10:13:28.562500,27.47,68.7
170131,2018-06-29 10:13:28.593750,21.87,68.7
170132,2018-06-29 10:13:28.625000,16.83,68.7
170133,2018-06-29 10:13:28.656250,16.83,68.7
170134,2018-06-29 10:13:28.687500,20.16,68.7
170135,2018-06-29 10:13:28.718750,21.13,68.7
170136,2018-06-29 10:13:28.750000,18.94,68.7
170137,2018-06-29 10:13:28.781250,22.41,68.7
170138,2018-06-29 10:13:28.812500,41.63,68.7
170139,2018-06-29 10:13:28.843750,76.4,68.7
170140,2018-06-29 10:13:28.875000,116.38,68.7
170141,2018-06-29 10:13:28.906250,148.82,68.7
170142,2018-06-29 10:13:28.937500,165.29,68.7
170143,2018-06-29 10:13:28.968750,168.89,68.7
170144,2018-06-29 10:13:29.000000,173.42,68.7
170145,2018-06-29 10:13:29.031250,187.28,68.7
170146,2018-06-29 10:13:29.062500,199.47,68.7
170147,2018-06-29 10:13:29.093750,186.06,68.7
170148,2018-06-29 10:13:29.125000,129.6,68.7
170149,2018-06-29 10:13:29.156250,32.74,68.7
170150,2018-06-29 10:13:29.187500,-86.02,68.7
170151,2018-06-29 10:13:29.218750,-209.83,68.7
170152,2018-06-29 10:13:29.250000,-334.52,68.7
170153,2018-06-29 10:13:29.281250,-448.68,68.7
170154,2018-06-29 10:13:29.312500,-506.94,68.7
170155,2018-06-29 10:13:29.343750,-461.08,68.7
170156,2018-06-29 10:13:29.375000,-324.26,68.7
170157,2018-06-29 10:13:29.406250,-162.24,68.7
170158,2018-06-29 10:13:29.437500,-19.69,68.7
170159,2018-06-29 10:13:29.468750,101.07,68.7
170160,2018-06-29 10:13:29.500000,201.3,68.7
170161,2018-06-29 10:13:29.531250,278.11,68.4
170162,2018-06-29 10:13:29.562500,345.72,68.4
170163,2018-06-29 10:13:29.593750,422.0,68.4
170164,2018-06-29 10:13:29.625000,500.25,68.4
170165,2018-06-29 10:13:29.656250,561.36,68.4
170166,2018-06-29 10:13:29.687500,600.18,68.4
170167,2018-06-29 10:13:29.718750,619.74,68.4
170168,2018-06-29 10:13:29.750000,611.29,68.4
170169,2018-06-29 10:13:29.781250,567.94,68.4
170170,2018-06-29 10:13:29.812500,504.68,68.4
170171,2018-06-29 10:13:29.843750,432.85,68.4
170172,2018-06-29 10:13:29.875000,347.97,68.4
170173,2018-06-29 10:13:29.906250,245.95,68.4
170174,2018-06-29 10:13:29.937500,135.05,68.4
170175,2018-06-29 10:13:29.968750,20.52,68.4
170176,2018-06-29 10:13:30.000000,-89.98,68.4
170177,2018-06-29 10:13:30.031250,-181.5,68.4
170178,2018-06-29 10:13:30.062500,-252.69,68.4
170179,2018-06-29 10:13:30.093750,-315.04,68.4
170180,2018-06-29 10:13:30.125000,-386.06,68.4
170181,2018-06-29 10:13:30.156250,-441.58,68.4
170182,2018-06-29 10:13:30.187500,-467.98,68.4
170183,2018-06-29 10:13:30.218750,-481.15,68.4
170184,2018-06-29 10:13:30.250000,-525.01,68.4
170185,2018-06-29 10:13:30.281250,-593.4,68.4
170186,2018-06-29 10:13:30.312500,-623.52,68.4
170187,2018-06-29 10:13:30.343750,-609.36,68.4
170188,2018-06-29 10:13:30.375000,-598.52,68.4
170189,2018-06-29 10:13:30.406250,-666.57,68.4
170190,2018-06-29 10:13:30.437500,-747.08,68.4
170191,2018-06-29 10:13:30.468750,-780.71,68.4
170192,2018-06-29 10:13:30.500000,-782.83,68.4
170193,2018-06-29 10:13:30.531250,-837.82,68.07
170194,2018-06-29 10:13:30.562500,-942.04,68.07
170195,2018-06-29 10:13:30.593750,-982.93,68.07
170196,2018-06-29 10:13:30.625000,-946.39,68.07
170197,2018-06-29 10:13:30.656250,-513.73,68.07
170198,2018-06-29 10:13:30.687500,183.98,68.07
170199,2018-06-29 10:13:30.718750,576.94,68.07
170200,2018-06-29 10:13:30.750000,670.86,68.07
170201,2018-06-29 10:13:30.781250,667.11,68.07
170202,2018-06-29 10:13:30.812500,571.47,68.07
170203,2018-06-29 10:13:30.843750,403.71,68.07
170204,2018-06-29 10:13:30.875000,277.91,68.07
170205,2018-06-29 10:13:30.906250,225.26,68.07
170206,2018-06-29 10:13:30.937500,212.08,68.07
170207,2018-06-29 10:13:30.968750,164.37,68.07
170208,2018-06-29 10:13:31.000000,125.12,68.07
170209,2018-06-29 10:13:31.031250,119.61,68.07
170210,2018-06-29 10:13:31.062500,113.76,68.07
170211,2018-06-29 10:13:31.093750,66.69,68.07
170212,2018-06-29 10:13:31.125000,5.32,68.07
170213,2018-06-29 10:13:31.156250,-3.43,68.07
170214,2018-06-29 10:13:31.187500,40.06,68.07
170215,2018-06-29 10:13:31.218750,102.13,68.07
170216,2018-06-29 10:13:31.250000,148.85,68.07
170217,2018-06-29 10:13:31.281250,187.73,68.07
170218,2018-06-29 10:13:31.312500,225.54,68.07
170219,2018-06-29 10:13:31.343750,253.69,68.07
170220,2018-06-29 10:13:31.375000,260.03,68.07
170221,2018-06-29 10:13:31.406250,245.87,68.07
170222,2018-06-29 10:13:31.437500,225.64,68.07
170223,2018-06-29 10:13:31.468750,207.95,68.07
170224,2018-06-29 10:13:31.500000,196.29,68.07
170225,2018-06-29 10:13:31.531250,191.15,67.75
170226,2018-06-29 10:13:31.562500,188.36,67.75
170227,2018-06-29 10:13:31.593750,182.34,67.75
170228,2018-06-29 10:13:31.625000,169.71,67.75
170229,2018-06-29 10:13:31.656250,150.62,67.75
170230,2018-06-29 10:13:31.687500,127.98,67.75
170231,2018-06-29 10:13:31.718750,104.99,67.75
170232,2018-06-29 10:13:31.750000,82.39,67.75
170233,2018-06-29 10:13:31.781250,59.46,67.75
170234,2018-06-29 10:13:31.812500,37.31,67.75
170235,2018-06-29 10:13:31.843750,18.2,67.75
170236,2018-06-29 10:13:31.875000,1.58,67.75
170237,2018-06-29 10:13:31.906250,-16.5,67.75
170238,2018-06-29 10:13:31.937500,-39.04,67.75
170239,2018-06-29 10:13:31.968750,-61.84,67.75
170240,2018-06-29 10:13:32.000000,-71.78,67.75
170241,2018-06-29 10:13:32.031250,-56.91,67.75
170242,2018-06-29 10:13:32.062500,-20.49,67.75
170243,2018-06-29 10:13:32.093750,21.02,67.75
170244,2018-06-29 10:13:32.125000,54.91,67.75
170245,2018-06-29 10:13:32.156250,79.29,67.75
170246,2018-06-29 10:13:32.187500,94.5,67.75
170247,2018-06-29 10:13:32.218750,99.13,67.75
170248,2018-06-29 10:13:32.250000,96.1,67.75
170249,2018-06-29 10:13:32.281250,92.41,67.75
170250,2018-06-29 10:13:32.312500,91.04,67.75
170251,2018-06-29 10:13:32.343750,89.79,67.75
170252,2018-06-29 10:13:32.375000,87.25,67.75
170253,2018-06-29 10:13:32.406250,83.6,67.75
170254,2018-06-29 10:13:32.437500,77.36,67.75
170255,2018-06-29 10:13:32.468750,65.96,67.75
170256,2018-06-29 10:13:32.500000,49.78,67.75
170257,2018-06-29 10:13:32.531250,33.21,67.42
170258,2018-06-29 10:13:32.562500,20.18,67.42
170259,2018-06-29 10:13:32.593750,9.6,67.42
170260,2018-06-29 10:13:32.625000,-1.55,67.42
170261,2018-06-29 10:13:32.656250,-12.03,67.42
170262,2018-06-29 10:13:32.687500,-18.22,67.42
170263,2018-06-29 10:13:32.718750,-20.74,67.42
170264,2018-06-29 10:13:32.750000,-24.08,67.42
170265,2018-06-29 10:13:32.781250,-31.69,67.42
170266,2018-06-29 10:13:32.812500,-42.91,67.42
170267,2018-06-29 10:13:32.843750,-50.21,67.42
170268,2018-06-29 10:13:32.875000,-41.95,67.42
170269,2018-06-29 10:13:32.906250,-15.66,67.42
170270,2018-06-29 10:13:32.937500,16.92,67.42
170271,2018-06-29 10:13:32.968750,43.66,67.42
170272,2018-06-29 10:13:33.000000,62.57,67.42
170273,2018-06-29 10:13:33.031250,75.12,67.42
170274,2018-06-29 10:13:33.062500,80.01,67.42
170275,2018-06-29 10:13:33.093750,77.71,67.42
170276,2018-06-29 10:13:33.125000,73.23,67.42
170277,2018-06-29 10:13:33.156250,70.69,67.42
170278,2018-06-29 10:13:33.187500,69.3,67.42
170279,2018-06-29 10:13:33.218750,66.91,67.42
170280,2018-06-29 10:13:33.250000,63.51,67.42
170281,2018-06-29 10:13:33.281250,58.42,67.42
170282,2018-06-29 10:13:33.312500,48.8,67.42
170283,2018-06-29 10:13:33.343750,34.27,67.42
170284,2018-06-29 10:13:33.375000,18.97,67.42
170285,2018-06-29 10:13:33.406250,6.55,67.42
170286,2018-06-29 10:13:33.437500,-3.99,67.42
170287,2018-06-29 10:13:33.468750,-15.6,67.42
170288,2018-06-29 10:13:33.500000,-28.65,67.42
170289,2018-06-29 10:13:33.531250,-40.91,67.02
170290,2018-06-29 10:13:33.562500,-51.08,67.02
170291,2018-06-29 10:13:33.593750,-60.77,67.02
170292,2018-06-29 10:13:33.625000,-72.98,67.02
170293,2018-06-29 10:13:33.656250,-87.93,67.02
170294,2018-06-29 10:13:33.687500,-98.03,67.02
170295,2018-06-29 10:13:33.718750,-90.97,67.02
170296,2018-06-29 10:13:33.750000,-63.23,67.02
170297,2018-06-29 10:13:33.781250,-26.18,67.02
170298,2018-06-29 10:13:33.812500,6.27,67.02
170299,2018-06-29 10:13:33.843750,29.68,67.02
170300,2018-06-29 10:13:33.875000,45.44,67.02
170301,2018-06-29 10:13:33.906250,53.41,67.02
170302,2018-06-29 10:13:33.937500,53.67,67.02
170303,2018-06-29 10:13:33.968750,50.77,67.02
170304,2018-06-29 10:13:34.000000,50.32,67.02
170305,2018-06-29 10:13:34.031250,52.49,67.02
170306,2018-06-29 10:13:34.062500,52.45,67.02
170307,2018-06-29 10:13:34.093750,47.11,67.02
170308,2018-06-29 10:13:34.125000,36.87,67.02
170309,2018-06-29 10:13:34.156250,21.63,67.02
170310,2018-06-29 10:13:34.187500,1.11,67.02
170311,2018-06-29 10:13:34.218750,-20.21,67.02
170312,2018-06-29 10:13:34.250000,-33.39,67.02
170313,2018-06-29 10:13:34.281250,-32.9,67.02
170314,2018-06-29 10:13:34.312500,-22.16,67.02
170315,2018-06-29 10:13:34.343750,-10.04,67.02
170316,2018-06-29 10:13:34.375000,-3.02,67.02
170317,2018-06-29 10:13:34.406250,-3.3,67.02
170318,2018-06-29 10:13:34.437500,-12.19,67.02
170319,2018-06-29 10:13:34.468750,-29.69,67.02
170320,2018-06-29 10:13:34.500000,-51.66,67.02
170321,2018-06-29 10:13:34.531250,-70.92,66.88
170322,2018-06-29 10:13:34.562500,-79.72,66.88
170323,2018-06-29 10:13:34.593750,-71.87,66.88
170324,2018-06-29 10:13:34.625000,-47.98,66.88
170325,2018-06-29 10:13:34.656250,-17.54,66.88
170326,2018-06-29 10:13:34.687500,8.88,66.88
170327,2018-06-29 10:13:34.718750,27.63,66.88
170328,2018-06-29 10:13:34.750000,39.78,66.88
170329,2018-06-29 10:13:34.781250,45.91,66.88
170330,2018-06-29 10:13:34.812500,46.5,66.88
170331,2018-06-29 10:13:34.843750,44.4,66.88
170332,2018-06-29 10:13:34.875000,42.8,66.88
170333,2018-06-29 10:13:34.906250,42.22,66.88
170334,2018-06-29 10:13:34.937500,41.76,66.88
170335,2018-06-29 10:13:34.968750,41.77,66.88
170336,2018-06-29 10:13:35.000000,41.43,66.88
170337,2018-06-29 10:13:35.031250,37.28,66.88
170338,2018-06-29 10:13:35.062500,27.95,66.88
170339,2018-06-29 10:13:35.093750,17.03,66.88
170340,2018-06-29 10:13:35.125000,8.63,66.88
170341,2018-06-29 10:13:35.156250,2.43,66.88
170342,2018-06-29 10:13:35.187500,-4.7,66.88
170343,2018-06-29 10:13:35.218750,-13.59,66.88
170344,2018-06-29 10:13:35.250000,-21.92,66.88
170345,2018-06-29 10:13:35.281250,-28.97,66.88
170346,2018-06-29 10:13:35.312500,-37.94,66.88
170347,2018-06-29 10:13:35.343750,-51.48,66.88
170348,2018-06-29 10:13:35.375000,-66.97,66.88
170349,2018-06-29 10:13:35.406250,-76.24,66.88
170350,2018-06-29 10:13:35.437500,-69.92,66.88
170351,2018-06-29 10:13:35.468750,-45.77,66.88
170352,2018-06-29 10:13:35.500000,-12.57,66.88
170353,2018-06-29 10:13:35.531250,17.52,66.78
170354,2018-06-29 10:13:35.562500,39.25,66.78
170355,2018-06-29 10:13:35.593750,54.55,66.78
170356,2018-06-29 10:13:35.625000,65.48,66.78
170357,2018-06-29 10:13:35.656250,71.35,66.78
170358,2018-06-29 10:13:35.687500,72.53,66.78
170359,2018-06-29 10:13:35.718750,73.16,66.78
170360,2018-06-29 10:13:35.750000,77.56,66.78
170361,2018-06-29 10:13:35.781250,85.77,66.78
170362,2018-06-29 10:13:35.812500,93.48,66.78
170363,2018-06-29 10:13:35.843750,93.17,66.78
170364,2018-06-29 10:13:35.875000,77.32,66.78
170365,2018-06-29 10:13:35.906250,45.94,66.78
170366,2018-06-29 10:13:35.937500,9.19,66.78
170367,2018-06-29 10:13:35.968750,-21.86,66.78
170368,2018-06-29 10:13:36.000000,-43.38,66.78
170369,2018-06-29 10:13:36.031250,-56.23,66.78
170370,2018-06-29 10:13:36.062500,-61.55,66.78
170371,2018-06-29 10:13:36.093750,-61.18,66.78
170372,2018-06-29 10:13:36.125000,-57.37,66.78
170373,2018-06-29 10:13:36.156250,-51.6,66.78
170374,2018-06-29 10:13:36.187500,-45.47,66.78
170375,2018-06-29 10:13:36.218750,-41.01,66.78
170376,2018-06-29 10:13:36.250000,-39.25,66.78
170377,2018-06-29 10:13:36.281250,-38.56,66.78
170378,2018-06-29 10:13:36.312500,-34.89,66.78
170379,2018-06-29 10:13:36.343750,-25.44,66.78
170380,2018-06-29 10:13:36.375000,-12.76,66.78
170381,2018-06-29 10:13:36.406250,-2.63,66.78
170382,2018-06-29 10:13:36.437500,2.57,66.78
170383,2018-06-29 10:13:36.468750,6.19,66.78
170384,2018-06-29 10:13:36.500000,12.66,66.78
170385,2018-06-29 10:13:36.531250,21.62,66.68
170386,2018-06-29 10:13:36.562500,29.26,66.68
170387,2018-06-29 10:13:36.593750,35.91,66.68
170388,2018-06-29 10:13:36.625000,46.73,66.68
170389,2018-06-29 10:13:36.656250,63.09,66.68
170390,2018-06-29 10:13:36.687500,80.02,66.68
170391,2018-06-29 10:13:36.718750,93.01,66.68
170392,2018-06-29 10:13:36.750000,100.57,66.68
170393,2018-06-29 10:13:36.781250,101.1,66.68
170394,2018-06-29 10:13:36.812500,92.89,66.68
170395,2018-06-29 10:13:36.843750,76.82,66.68
170396,2018-06-29 10:13:36.875000,55.45,66.68
170397,2018-06-29 10:13:36.906250,31.26,66.68
170398,2018-06-29 10:13:36.937500,9.99,66.68
170399,2018-06-29 10:13:36.968750,-0.61,66.68
170400,2018-06-29 10:13:37.000000,-3.44,66.68
170401,2018-06-29 10:13:37.031250,-12.93,66.68
170402,2018-06-29 10:13:37.062500,-31.26,66.68
170403,2018-06-29 10:13:37.093750,-39.34,66.68
170404,2018-06-29 10:13:37.125000,-23.73,66.68
170405,2018-06-29 10:13:37.156250,5.59,66.68
170406,2018-06-29 10:13:37.187500,32.77,66.68
170407,2018-06-29 10:13:37.218750,53.01,66.68
170408,2018-06-29 10:13:37.250000,66.35,66.68
170409,2018-06-29 10:13:37.281250,72.56,66.68
170410,2018-06-29 10:13:37.312500,77.97,66.68
170411,2018-06-29 10:13:37.343750,91.32,66.68
170412,2018-06-29 10:13:37.375000,106.04,66.68
170413,2018-06-29 10:13:37.406250,102.17,66.68
170414,2018-06-29 10:13:37.437500,72.27,66.68
170415,2018-06-29 10:13:37.468750,29.41,66.68
170416,2018-06-29 10:13:37.500000,-12.11,66.68
170417,2018-06-29 10:13:37.531250,-48.99,66.6
170418,2018-06-29 10:13:37.562500,-86.8,66.6
170419,2018-06-29 10:13:37.593750,-135.61,66.6
170420,2018-06-29 10:13:37.625000,-201.42,66.6
170421,2018-06-29 10:13:37.656250,-280.01,66.6
170422,2018-06-29 10:13:37.687500,-363.94,66.6
170423,2018-06-29 10:13:37.718750,-446.45,66.6
170424,2018-06-29 10:13:37.750000,-513.93,66.6
170425,2018-06-29 10:13:37.781250,-545.16,66.6
170426,2018-06-29 10:13:37.812500,-522.61,66.6
170427,2018-06-29 10:13:37.843750,-444.32,66.6
170428,2018-06-29 10:13:37.875000,-327.57,66.6
170429,2018-06-29 10:13:37.906250,-198.81,66.6
170430,2018-06-29 10:13:37.937500,-79.0,66.6
170431,2018-06-29 10:13:37.968750,20.87,66.6
170432,2018-06-29 10:13:38.000000,99.71,66.6
170433,2018-06-29 10:13:38.031250,165.84,66.6
170434,2018-06-29 10:13:38.062500,224.48,66.6
170435,2018-06-29 10:13:38.093750,266.8,66.6
170436,2018-06-29 10:13:38.125000,283.17,66.6
170437,2018-06-29 10:13:38.156250,277.51,66.6
170438,2018-06-29 10:13:38.187500,257.18,66.6
170439,2018-06-29 10:13:38.218750,224.29,66.6
170440,2018-06-29 10:13:38.250000,185.7,66.6
170441,2018-06-29 10:13:38.281250,153.62,66.6
170442,2018-06-29 10:13:38.312500,130.69,66.6
170443,2018-06-29 10:13:38.343750,110.84,66.6
170444,2018-06-29 10:13:38.375000,94.54,66.6
170445,2018-06-29 10:13:38.406250,86.0,66.6
170446,2018-06-29 10:13:38.437500,77.58,66.6
170447,2018-06-29 10:13:38.468750,54.97,66.6
170448,2018-06-29 10:13:38.500000,19.43,66.6
170449,2018-06-29 10:13:38.531250,-13.39,66.52
170450,2018-06-29 10:13:38.562500,-39.94,66.52
170451,2018-06-29 10:13:38.593750,-72.27,66.52
170452,2018-06-29 10:13:38.625000,-109.53,66.52
170453,2018-06-29 10:13:38.656250,-131.97,66.52
170454,2018-06-29 10:13:38.687500,-132.3,66.52
170455,2018-06-29 10:13:38.718750,-127.04,66.52
170456,2018-06-29 10:13:38.750000,-127.37,66.52
170457,2018-06-29 10:13:38.781250,-119.92,66.52
170458,2018-06-29 10:13:38.812500,-86.86,66.52
170459,2018-06-29 10:13:38.843750,-31.79,66.52
170460,2018-06-29 10:13:38.875000,24.56,66.52
170461,2018-06-29 10:13:38.906250,67.12,66.52
170462,2018-06-29 10:13:38.937500,94.55,66.52
170463,2018-06-29 10:13:38.968750,109.05,66.52
170464,2018-06-29 10:13:39.000000,108.15,66.52
170465,2018-06-29 10:13:39.031250,84.16,66.52
170466,2018-06-29 10:13:39.062500,33.09,66.52
170467,2018-06-29 10:13:39.093750,-29.86,66.52
170468,2018-06-29 10:13:39.125000,-74.79,66.52
170469,2018-06-29 10:13:39.156250,-87.0,66.52
170470,2018-06-29 10:13:39.187500,-80.54,66.52
170471,2018-06-29 10:13:39.218750,-74.89,66.52
170472,2018-06-29 10:13:39.250000,-73.08,66.52
170473,2018-06-29 10:13:39.281250,-68.49,66.52
170474,2018-06-29 10:13:39.312500,-58.52,66.52
170475,2018-06-29 10:13:39.343750,-44.92,66.52
170476,2018-06-29 10:13:39.375000,-30.5,66.52
170477,2018-06-29 10:13:39.406250,-18.74,66.52
170478,2018-06-29 10:13:39.437500,-11.73,66.52
170479,2018-06-29 10:13:39.468750,-12.26,66.52
170480,2018-06-29 10:13:39.500000,-28.19,66.52
170481,2018-06-29 10:13:39.531250,-62.46,66.58
170482,2018-06-29 10:13:39.562500,-99.94,66.58
170483,2018-06-29 10:13:39.593750,-118.04,66.58
170484,2018-06-29 10:13:39.625000,-104.71,66.58
170485,2018-06-29 10:13:39.656250,-61.46,66.58
170486,2018-06-29 10:13:39.687500,-3.69,66.58
170487,2018-06-29 10:13:39.718750,44.27,66.58
170488,2018-06-29 10:13:39.750000,70.98,66.58
170489,2018-06-29 10:13:39.781250,85.88,66.58
170490,2018-06-29 10:13:39.812500,97.84,66.58
170491,2018-06-29 10:13:39.843750,103.41,66.58
170492,2018-06-29 10:13:39.875000,100.76,66.58
170493,2018-06-29 10:13:39.906250,96.06,66.58
170494,2018-06-29 10:13:39.937500,94.53,66.58
170495,2018-06-29 10:13:39.968750,96.47,66.58
170496,2018-06-29 10:13:40.000000,98.74,66.58
170497,2018-06-29 10:13:40.031250,94.1,66.58
170498,2018-06-29 10:13:40.062500,74.23,66.58
170499,2018-06-29 10:13:40.093750,35.38,66.58
170500,2018-06-29 10:13:40.125000,-22.2,66.58
170501,2018-06-29 10:13:40.156250,-95.51,66.58
170502,2018-06-29 10:13:40.187500,-175.37,66.58
170503,2018-06-29 10:13:40.218750,-249.11,66.58
170504,2018-06-29 10:13:40.250000,-305.35,66.58
170505,2018-06-29 10:13:40.281250,-328.05,66.58
170506,2018-06-29 10:13:40.312500,-298.65,66.58
170507,2018-06-29 10:13:40.343750,-221.36,66.58
170508,2018-06-29 10:13:40.375000,-133.54,66.58
170509,2018-06-29 10:13:40.406250,-73.37,66.58
170510,2018-06-29 10:13:40.437500,-49.73,66.58
170511,2018-06-29 10:13:40.468750,-49.52,66.58
170512,2018-06-29 10:13:40.500000,-54.43,66.58
170513,2018-06-29 10:13:40.531250,-47.25,66.6
170514,2018-06-29 10:13:40.562500,-21.37,66.6
170515,2018-06-29 10:13:40.593750,13.31,66.6
170516,2018-06-29 10:13:40.625000,45.25,66.6
170517,2018-06-29 10:13:40.656250,74.51,66.6
170518,2018-06-29 10:13:40.687500,100.78,66.6
170519,2018-06-29 10:13:40.718750,114.82,66.6
170520,2018-06-29 10:13:40.750000,112.0,66.6
170521,2018-06-29 10:13:40.781250,99.53,66.6
170522,2018-06-29 10:13:40.812500,86.37,66.6
170523,2018-06-29 10:13:40.843750,78.47,66.6
170524,2018-06-29 10:13:40.875000,79.36,66.6
170525,2018-06-29 10:13:40.906250,86.21,66.6
170526,2018-06-29 10:13:40.937500,91.36,66.6
170527,2018-06-29 10:13:40.968750,87.69,66.6
170528,2018-06-29 10:13:41.000000,65.21,66.6
170529,2018-06-29 10:13:41.031250,13.85,66.6
170530,2018-06-29 10:13:41.062500,-60.96,66.6
170531,2018-06-29 10:13:41.093750,-139.45,66.6
170532,2018-06-29 10:13:41.125000,-211.96,66.6
170533,2018-06-29 10:13:41.156250,-286.05,66.6
170534,2018-06-29 10:13:41.187500,-360.96,66.6
170535,2018-06-29 10:13:41.218750,-412.64,66.6
170536,2018-06-29 10:13:41.250000,-417.8,66.6
170537,2018-06-29 10:13:41.281250,-377.52,66.6
170538,2018-06-29 10:13:41.312500,-307.23,66.6
170539,2018-06-29 10:13:41.343750,-220.28,66.6
170540,2018-06-29 10:13:41.375000,-130.94,66.6
170541,2018-06-29 10:13:41.406250,-55.47,66.6
170542,2018-06-29 10:13:41.437500,0.66,66.6
170543,2018-06-29 10:13:41.468750,46.33,66.6
170544,2018-06-29 10:13:41.500000,93.54,66.6
170545,2018-06-29 10:13:41.531250,150.09,66.58
170546,2018-06-29 10:13:41.562500,214.76,66.58
170547,2018-06-29 10:13:41.593750,268.34,66.58
170548,2018-06-29 10:13:41.625000,284.42,66.58
170549,2018-06-29 10:13:41.656250,260.44,66.58
170550,2018-06-29 10:13:41.687500,222.05,66.58
170551,2018-06-29 10:13:41.718750,192.08,66.58
170552,2018-06-29 10:13:41.750000,172.09,66.58
170553,2018-06-29 10:13:41.781250,152.81,66.58
170554,2018-06-29 10:13:41.812500,127.72,66.58
170555,2018-06-29 10:13:41.843750,97.89,66.58
170556,2018-06-29 10:13:41.875000,70.47,66.58
170557,2018-06-29 10:13:41.906250,51.45,66.58
170558,2018-06-29 10:13:41.937500,40.89,66.58
170559,2018-06-29 10:13:41.968750,33.87,66.58
170560,2018-06-29 10:13:42.000000,24.02,66.58
170561,2018-06-29 10:13:42.031250,8.33,66.58
170562,2018-06-29 10:13:42.062500,-12.09,66.58
170563,2018-06-29 10:13:42.093750,-33.82,66.58
170564,2018-06-29 10:13:42.125000,-47.11,66.58
170565,2018-06-29 10:13:42.156250,-34.92,66.58
170566,2018-06-29 10:13:42.187500,11.52,66.58
170567,2018-06-29 10:13:42.218750,79.35,66.58
170568,2018-06-29 10:13:42.250000,145.36,66.58
170569,2018-06-29 10:13:42.281250,194.82,66.58
170570,2018-06-29 10:13:42.312500,224.73,66.58
170571,2018-06-29 10:13:42.343750,237.22,66.58
170572,2018-06-29 10:13:42.375000,236.4,66.58
170573,2018-06-29 10:13:42.406250,229.94,66.58
170574,2018-06-29 10:13:42.437500,226.86,66.58
170575,2018-06-29 10:13:42.468750,230.3,66.58
170576,2018-06-29 10:13:42.500000,237.21,66.58
170577,2018-06-29 10:13:42.531250,245.53,66.55
170578,2018-06-29 10:13:42.562500,252.63,66.55
170579,2018-06-29 10:13:42.593750,249.89,66.55
170580,2018-06-29 10:13:42.625000,232.16,66.55
170581,2018-06-29 10:13:42.656250,206.56,66.55
170582,2018-06-29 10:13:42.687500,180.55,66.55
170583,2018-06-29 10:13:42.718750,149.51,66.55
170584,2018-06-29 10:13:42.750000,104.25,66.55
170585,2018-06-29 10:13:42.781250,41.93,66.55
170586,2018-06-29 10:13:42.812500,-34.86,66.55
170587,2018-06-29 10:13:42.843750,-122.65,66.55
170588,2018-06-29 10:13:42.875000,-218.75,66.55
170589,2018-06-29 10:13:42.906250,-318.53,66.55
170590,2018-06-29 10:13:42.937500,-406.97,66.55
170591,2018-06-29 10:13:42.968750,-460.69,66.55
170592,2018-06-29 10:13:43.000000,-466.12,66.55
170593,2018-06-29 10:13:43.031250,-429.12,66.55
170594,2018-06-29 10:13:43.062500,-364.94,66.55
170595,2018-06-29 10:13:43.093750,-285.66,66.55
170596,2018-06-29 10:13:43.125000,-197.1,66.55
170597,2018-06-29 10:13:43.156250,-102.81,66.55
170598,2018-06-29 10:13:43.187500,-8.89,66.55
170599,2018-06-29 10:13:43.218750,75.53,66.55
170600,2018-06-29 10:13:43.250000,140.09,66.55
170601,2018-06-29 10:13:43.281250,174.46,66.55
170602,2018-06-29 10:13:43.312500,175.65,66.55
170603,2018-06-29 10:13:43.343750,154.57,66.55
170604,2018-06-29 10:13:43.375000,127.3,66.55
170605,2018-06-29 10:13:43.406250,100.55,66.55
170606,2018-06-29 10:13:43.437500,71.3,66.55
170607,2018-06-29 10:13:43.468750,37.48,66.55
170608,2018-06-29 10:13:43.500000,3.15,66.55
170609,2018-06-29 10:13:43.531250,-27.85,66.48
170610,2018-06-29 10:13:43.562500,-57.05,66.48
170611,2018-06-29 10:13:43.593750,-86.91,66.48
170612,2018-06-29 10:13:43.625000,-115.98,66.48
170613,2018-06-29 10:13:43.656250,-142.07,66.48
170614,2018-06-29 10:13:43.687500,-165.19,66.48
170615,2018-06-29 10:13:43.718750,-185.24,66.48
170616,2018-06-29 10:13:43.750000,-199.97,66.48
170617,2018-06-29 10:13:43.781250,-205.44,66.48
170618,2018-06-29 10:13:43.812500,-195.44,66.48
170619,2018-06-29 10:13:43.843750,-165.69,66.48
170620,2018-06-29 10:13:43.875000,-121.74,66.48
170621,2018-06-29 10:13:43.906250,-73.24,66.48
170622,2018-06-29 10:13:43.937500,-19.43,66.48
170623,2018-06-29 10:13:43.968750,45.8,66.48
170624,2018-06-29 10:13:44.000000,115.5,66.48
170625,2018-06-29 10:13:44.031250,173.75,66.48
170626,2018-06-29 10:13:44.062500,214.89,66.48
170627,2018-06-29 10:13:44.093750,241.42,66.48
170628,2018-06-29 10:13:44.125000,251.08,66.48
170629,2018-06-29 10:13:44.156250,242.32,66.48
170630,2018-06-29 10:13:44.187500,223.19,66.48
170631,2018-06-29 10:13:44.218750,203.56,66.48
170632,2018-06-29 10:13:44.250000,187.16,66.48
170633,2018-06-29 10:13:44.281250,174.98,66.48
170634,2018-06-29 10:13:44.312500,167.07,66.48
170635,2018-06-29 10:13:44.343750,160.93,66.48
170636,2018-06-29 10:13:44.375000,152.34,66.48
170637,2018-06-29 10:13:44.406250,135.07,66.48
170638,2018-06-29 10:13:44.437500,102.74,66.48
170639,2018-06-29 10:13:44.468750,56.7,66.48
170640,2018-06-29 10:13:44.500000,7.97,66.48
170641,2018-06-29 10:13:44.531250,-32.48,66.45
170642,2018-06-29 10:13:44.562500,-61.53,66.45
170643,2018-06-29 10:13:44.593750,-82.57,66.45
170644,2018-06-29 10:13:44.625000,-100.99,66.45
170645,2018-06-29 10:13:44.656250,-119.03,66.45
170646,2018-06-29 10:13:44.687500,-131.12,66.45
170647,2018-06-29 10:13:44.718750,-127.19,66.45
170648,2018-06-29 10:13:44.750000,-104.84,66.45
170649,2018-06-29 10:13:44.781250,-74.44,66.45
170650,2018-06-29 10:13:44.812500,-49.67,66.45
170651,2018-06-29 10:13:44.843750,-35.84,66.45
170652,2018-06-29 10:13:44.875000,-29.4,66.45
170653,2018-06-29 10:13:44.906250,-24.71,66.45
170654,2018-06-29 10:13:44.937500,-18.27,66.45
170655,2018-06-29 10:13:44.968750,-8.97,66.45
170656,2018-06-29 10:13:45.000000,2.28,66.45
170657,2018-06-29 10:13:45.031250,12.81,66.45
170658,2018-06-29 10:13:45.062500,20.66,66.45
170659,2018-06-29 10:13:45.093750,26.0,66.45
170660,2018-06-29 10:13:45.125000,28.71,66.45
170661,2018-06-29 10:13:45.156250,27.19,66.45
170662,2018-06-29 10:13:45.187500,21.26,66.45
170663,2018-06-29 10:13:45.218750,13.22,66.45
170664,2018-06-29 10:13:45.250000,4.88,66.45
170665,2018-06-29 10:13:45.281250,-3.84,66.45
170666,2018-06-29 10:13:45.312500,-13.05,66.45
170667,2018-06-29 10:13:45.343750,-21.9,66.45
170668,2018-06-29 10:13:45.375000,-29.97,66.45
170669,2018-06-29 10:13:45.406250,-38.72,66.45
170670,2018-06-29 10:13:45.437500,-50.69,66.45
170671,2018-06-29 10:13:45.468750,-65.52,66.45
170672,2018-06-29 10:13:45.500000,-76.09,66.45
170673,2018-06-29 10:13:45.531250,-72.72,66.4
170674,2018-06-29 10:13:45.562500,-54.34,66.4
170675,2018-06-29 10:13:45.593750,-30.79,66.4
170676,2018-06-29 10:13:45.625000,-11.39,66.4
170677,2018-06-29 10:13:45.656250,2.41,66.4
170678,2018-06-29 10:13:45.687500,10.88,66.4
170679,2018-06-29 10:13:45.718750,12.15,66.4
170680,2018-06-29 10:13:45.750000,7.55,66.4
170681,2018-06-29 10:13:45.781250,2.63,66.4
170682,2018-06-29 10:13:45.812500,1.12,66.4
170683,2018-06-29 10:13:45.843750,2.53,66.4
170684,2018-06-29 10:13:45.875000,4.65,66.4
170685,2018-06-29 10:13:45.906250,4.72,66.4
170686,2018-06-29 10:13:45.937500,0.56,66.4
170687,2018-06-29 10:13:45.968750,-6.74,66.4
170688,2018-06-29 10:13:46.000000,-12.92,66.4
170689,2018-06-29 10:13:46.031250,-15.54,66.4
170690,2018-06-29 10:13:46.062500,-17.63,66.4
170691,2018-06-29 10:13:46.093750,-24.2,66.4
170692,2018-06-29 10:13:46.125000,-35.75,66.4
170693,2018-06-29 10:13:46.156250,-48.61,66.4
170694,2018-06-29 10:13:46.187500,-60.88,66.4
170695,2018-06-29 10:13:46.218750,-74.37,66.4
170696,2018-06-29 10:13:46.250000,-91.39,66.4
170697,2018-06-29 10:13:46.281250,-109.11,66.4
170698,2018-06-29 10:13:46.312500,-116.87,66.4
170699,2018-06-29 10:13:46.343750,-104.35,66.4
170700,2018-06-29 10:13:46.375000,-74.42,66.4
170701,2018-06-29 10:13:46.406250,-41.06,66.4
170702,2018-06-29 10:13:46.437500,-14.17,66.4
170703,2018-06-29 10:13:46.468750,6.24,66.4
170704,2018-06-29 10:13:46.500000,22.38,66.4
170705,2018-06-29 10:13:46.531250,33.86,66.33
170706,2018-06-29 10:13:46.562500,40.79,66.33
170707,2018-06-29 10:13:46.593750,45.69,66.33
170708,2018-06-29 10:13:46.625000,50.74,66.33
170709,2018-06-29 10:13:46.656250,56.11,66.33
170710,2018-06-29 10:13:46.687500,61.24,66.33
170711,2018-06-29 10:13:46.718750,65.0,66.33
170712,2018-06-29 10:13:46.750000,64.37,66.33
170713,2018-06-29 10:13:46.781250,57.14,66.33
170714,2018-06-29 10:13:46.812500,45.77,66.33
170715,2018-06-29 10:13:46.843750,34.71,66.33
170716,2018-06-29 10:13:46.875000,24.49,66.33
170717,2018-06-29 10:13:46.906250,12.59,66.33
170718,2018-06-29 10:13:46.937500,-1.14,66.33
170719,2018-06-29 10:13:46.968750,-13.96,66.33
170720,2018-06-29 10:13:47.000000,-24.49,66.33
170721,2018-06-29 10:13:47.031250,-35.0,66.33
170722,2018-06-29 10:13:47.062500,-48.95,66.33
170723,2018-06-29 10:13:47.093750,-64.89,66.33
170724,2018-06-29 10:13:47.125000,-72.78,66.33
170725,2018-06-29 10:13:47.156250,-62.0,66.33
170726,2018-06-29 10:13:47.187500,-34.07,66.33
170727,2018-06-29 10:13:47.218750,-1.04,66.33
170728,2018-06-29 10:13:47.250000,27.96,66.33
170729,2018-06-29 10:13:47.281250,51.13,66.33
170730,2018-06-29 10:13:47.312500,67.64,66.33
170731,2018-06-29 10:13:47.343750,75.54,66.33
170732,2018-06-29 10:13:47.375000,76.1,66.33
170733,2018-06-29 10:13:47.406250,74.1,66.33
170734,2018-06-29 10:13:47.437500,72.86,66.33
170735,2018-06-29 10:13:47.468750,71.65,66.33
170736,2018-06-29 10:13:47.500000,68.9,66.33
170737,2018-06-29 10:13:47.531250,65.39,66.28
170738,2018-06-29 10:13:47.562500,61.53,66.28
170739,2018-06-29 10:13:47.593750,53.98,66.28
170740,2018-06-29 10:13:47.625000,40.11,66.28
170741,2018-06-29 10:13:47.656250,23.82,66.28
170742,2018-06-29 10:13:47.687500,10.76,66.28
170743,2018-06-29 10:13:47.718750,-1.41,66.28
170744,2018-06-29 10:13:47.750000,-21.68,66.28
170745,2018-06-29 10:13:47.781250,-54.66,66.28
170746,2018-06-29 10:13:47.812500,-95.12,66.28
170747,2018-06-29 10:13:47.843750,-132.43,66.28
170748,2018-06-29 10:13:47.875000,-158.3,66.28
170749,2018-06-29 10:13:47.906250,-170.47,66.28
170750,2018-06-29 10:13:47.937500,-169.27,66.28
170751,2018-06-29 10:13:47.968750,-150.44,66.28
170752,2018-06-29 10:13:48.000000,-104.38,66.28
170753,2018-06-29 10:13:48.031250,-28.14,66.28
170754,2018-06-29 10:13:48.062500,63.37,66.28
170755,2018-06-29 10:13:48.093750,144.82,66.28
170756,2018-06-29 10:13:48.125000,198.87,66.28
170757,2018-06-29 10:13:48.156250,221.63,66.28
170758,2018-06-29 10:13:48.187500,213.72,66.28
170759,2018-06-29 10:13:48.218750,177.3,66.28
170760,2018-06-29 10:13:48.250000,120.45,66.28
170761,2018-06-29 10:13:48.281250,56.13,66.28
170762,2018-06-29 10:13:48.312500,-5.03,66.28
170763,2018-06-29 10:13:48.343750,-57.16,66.28
170764,2018-06-29 10:13:48.375000,-93.79,66.28
170765,2018-06-29 10:13:48.406250,-106.07,66.28
170766,2018-06-29 10:13:48.437500,-90.65,66.28
170767,2018-06-29 10:13:48.468750,-55.04,66.28
170768,2018-06-29 10:13:48.500000,-10.71,66.28
170769,2018-06-29 10:13:48.531250,34.25,66.35
170770,2018-06-29 10:13:48.562500,73.67,66.35
170771,2018-06-29 10:13:48.593750,101.62,66.35
170772,2018-06-29 10:13:48.625000,115.41,66.35
170773,2018-06-29 10:13:48.656250,116.24,66.35
170774,2018-06-29 10:13:48.687500,105.67,66.35
170775,2018-06-29 10:13:48.718750,84.49,66.35
170776,2018-06-29 10:13:48.750000,55.86,66.35
170777,2018-06-29 10:13:48.781250,24.54,66.35
170778,2018-06-29 10:13:48.812500,-8.11,66.35
170779,2018-06-29 10:13:48.843750,-43.22,66.35
170780,2018-06-29 10:13:48.875000,-75.1,66.35
170781,2018-06-29 10:13:48.906250,-88.04,66.35
170782,2018-06-29 10:13:48.937500,-70.24,66.35
170783,2018-06-29 10:13:48.968750,-28.63,66.35
170784,2018-06-29 10:13:49.000000,16.55,66.35
170785,2018-06-29 10:13:49.031250,49.86,66.35
170786,2018-06-29 10:13:49.062500,68.24,66.35
170787,2018-06-29 10:13:49.093750,74.6,66.35
170788,2018-06-29 10:13:49.125000,71.24,66.35
170789,2018-06-29 10:13:49.156250,59.0,66.35
170790,2018-06-29 10:13:49.187500,40.18,66.35
170791,2018-06-29 10:13:49.218750,20.6,66.35
170792,2018-06-29 10:13:49.250000,7.16,66.35
170793,2018-06-29 10:13:49.281250,3.43,66.35
170794,2018-06-29 10:13:49.312500,8.02,66.35
170795,2018-06-29 10:13:49.343750,15.08,66.35
170796,2018-06-29 10:13:49.375000,17.19,66.35
170797,2018-06-29 10:13:49.406250,11.82,66.35
170798,2018-06-29 10:13:49.437500,3.19,66.35
170799,2018-06-29 10:13:49.468750,-5.08,66.35
170800,2018-06-29 10:13:49.500000,-14.63,66.35
170801,2018-06-29 10:13:49.531250,-26.79,66.43
170802,2018-06-29 10:13:49.562500,-38.95,66.43
170803,2018-06-29 10:13:49.593750,-49.18,66.43
170804,2018-06-29 10:13:49.625000,-59.1,66.43
170805,2018-06-29 10:13:49.656250,-70.41,66.43
170806,2018-06-29 10:13:49.687500,-80.7,66.43
170807,2018-06-29 10:13:49.718750,-83.06,66.43
170808,2018-06-29 10:13:49.750000,-71.83,66.43
170809,2018-06-29 10:13:49.781250,-49.41,66.43
170810,2018-06-29 10:13:49.812500,-24.73,66.43
170811,2018-06-29 10:13:49.843750,-4.59,66.43
170812,2018-06-29 10:13:49.875000,9.93,66.43
170813,2018-06-29 10:13:49.906250,19.12,66.43
170814,2018-06-29 10:13:49.937500,22.38,66.43
170815,2018-06-29 10:13:49.968750,21.47,66.43
170816,2018-06-29 10:13:50.000000,21.33,66.43
170817,2018-06-29 10:13:50.031250,24.67,66.43
170818,2018-06-29 10:13:50.062500,29.21,66.43
170819,2018-06-29 10:13:50.093750,32.7,66.43
170820,2018-06-29 10:13:50.125000,35.59,66.43
170821,2018-06-29 10:13:50.156250,36.6,66.43
170822,2018-06-29 10:13:50.187500,32.93,66.43
170823,2018-06-29 10:13:50.218750,25.73,66.43
170824,2018-06-29 10:13:50.250000,18.83,66.43
170825,2018-06-29 10:13:50.281250,12.51,66.43
170826,2018-06-29 10:13:50.312500,4.14,66.43
170827,2018-06-29 10:13:50.343750,-6.43,66.43
170828,2018-06-29 10:13:50.375000,-16.76,66.43
170829,2018-06-29 10:13:50.406250,-25.89,66.43
170830,2018-06-29 10:13:50.437500,-35.79,66.43
170831,2018-06-29 10:13:50.468750,-49.22,66.43
170832,2018-06-29 10:13:50.500000,-65.76,66.43
170833,2018-06-29 10:13:50.531250,-78.5,66.55
170834,2018-06-29 10:13:50.562500,-77.39,66.55
170835,2018-06-29 10:13:50.593750,-59.58,66.55
170836,2018-06-29 10:13:50.625000,-33.39,66.55
170837,2018-06-29 10:13:50.656250,-9.29,66.55
170838,2018-06-29 10:13:50.687500,8.96,66.55
170839,2018-06-29 10:13:50.718750,21.88,66.55
170840,2018-06-29 10:13:50.750000,29.02,66.55
170841,2018-06-29 10:13:50.781250,30.59,66.55
170842,2018-06-29 10:13:50.812500,30.26,66.55
170843,2018-06-29 10:13:50.843750,31.93,66.55
170844,2018-06-29 10:13:50.875000,35.45,66.55
170845,2018-06-29 10:13:50.906250,38.18,66.55
170846,2018-06-29 10:13:50.937500,39.06,66.55
170847,2018-06-29 10:13:50.968750,38.84,66.55
170848,2018-06-29 10:13:51.000000,37.19,66.55
170849,2018-06-29 10:13:51.031250,32.22,66.55
170850,2018-06-29 10:13:51.062500,23.76,66.55
170851,2018-06-29 10:13:51.093750,14.82,66.55
170852,2018-06-29 10:13:51.125000,7.71,66.55
170853,2018-06-29 10:13:51.156250,0.82,66.55
170854,2018-06-29 10:13:51.187500,-8.08,66.55
170855,2018-06-29 10:13:51.218750,-17.52,66.55
170856,2018-06-29 10:13:51.250000,-24.99,66.55
170857,2018-06-29 10:13:51.281250,-31.74,66.55
170858,2018-06-29 10:13:51.312500,-41.43,66.55
170859,2018-06-29 10:13:51.343750,-54.86,66.55
170860,2018-06-29 10:13:51.375000,-66.67,66.55
170861,2018-06-29 10:13:51.406250,-67.93,66.55
170862,2018-06-29 10:13:51.437500,-54.12,66.55
170863,2018-06-29 10:13:51.468750,-30.56,66.55
170864,2018-06-29 10:13:51.500000,-7.18,66.55
170865,2018-06-29 10:13:51.531250,10.53,66.7
170866,2018-06-29 10:13:51.562500,22.48,66.7
170867,2018-06-29 10:13:51.593750,29.03,66.7
170868,2018-06-29 10:13:51.625000,29.94,66.7
170869,2018-06-29 10:13:51.656250,27.54,66.7
170870,2018-06-29 10:13:51.687500,25.96,66.7
170871,2018-06-29 10:13:51.718750,26.4,66.7
170872,2018-06-29 10:13:51.750000,26.77,66.7
170873,2018-06-29 10:13:51.781250,25.82,66.7
170874,2018-06-29 10:13:51.812500,24.72,66.7
170875,2018-06-29 10:13:51.843750,24.74,66.7
170876,2018-06-29 10:13:51.875000,25.33,66.7
170877,2018-06-29 10:13:51.906250,24.48,66.7
170878,2018-06-29 10:13:51.937500,21.14,66.7
170879,2018-06-29 10:13:51.968750,16.52,66.7
170880,2018-06-29 10:13:52.000000,11.51,66.7
170881,2018-06-29 10:13:52.031250,4.8,66.7
170882,2018-06-29 10:13:52.062500,-4.79,66.7
170883,2018-06-29 10:13:52.093750,-15.69,66.7
170884,2018-06-29 10:13:52.125000,-25.29,66.7
170885,2018-06-29 10:13:52.156250,-33.51,66.7
170886,2018-06-29 10:13:52.187500,-43.06,66.7
170887,2018-06-29 10:13:52.218750,-55.14,66.7
170888,2018-06-29 10:13:52.250000,-65.85,66.7
170889,2018-06-29 10:13:52.281250,-67.36,66.7
170890,2018-06-29 10:13:52.312500,-54.01,66.7
170891,2018-06-29 10:13:52.343750,-28.73,66.7
170892,2018-06-29 10:13:52.375000,-1.24,66.7
170893,2018-06-29 10:13:52.406250,20.62,66.7
170894,2018-06-29 10:13:52.437500,34.89,66.7
170895,2018-06-29 10:13:52.468750,42.49,66.7
170896,2018-06-29 10:13:52.500000,44.71,66.7
170897,2018-06-29 10:13:52.531250,43.8,66.87
170898,2018-06-29 10:13:52.562500,43.12,66.87
170899,2018-06-29 10:13:52.593750,45.39,66.87
170900,2018-06-29 10:13:52.625000,50.23,66.87
170901,2018-06-29 10:13:52.656250,54.66,66.87
170902,2018-06-29 10:13:52.687500,56.95,66.87
170903,2018-06-29 10:13:52.718750,57.43,66.87
170904,2018-06-29 10:13:52.750000,55.95,66.87
170905,2018-06-29 10:13:52.781250,52.09,66.87
170906,2018-06-29 10:13:52.812500,46.99,66.87
170907,2018-06-29 10:13:52.843750,42.52,66.87
170908,2018-06-29 10:13:52.875000,39.19,66.87
170909,2018-06-29 10:13:52.906250,36.03,66.87
170910,2018-06-29 10:13:52.937500,31.87,66.87
170911,2018-06-29 10:13:52.968750,26.19,66.87
170912,2018-06-29 10:13:53.000000,18.77,66.87
170913,2018-06-29 10:13:53.031250,8.47,66.87
170914,2018-06-29 10:13:53.062500,-6.76,66.87
170915,2018-06-29 10:13:53.093750,-28.54,66.87
170916,2018-06-29 10:13:53.125000,-56.29,66.87
170917,2018-06-29 10:13:53.156250,-84.97,66.87
170918,2018-06-29 10:13:53.187500,-104.87,66.87
170919,2018-06-29 10:13:53.218750,-107.59,66.87
170920,2018-06-29 10:13:53.250000,-94.07,66.87
170921,2018-06-29 10:13:53.281250,-73.06,66.87
170922,2018-06-29 10:13:53.312500,-51.46,66.87
170923,2018-06-29 10:13:53.343750,-31.55,66.87
170924,2018-06-29 10:13:53.375000,-15.2,66.87
170925,2018-06-29 10:13:53.406250,-4.42,66.87
170926,2018-06-29 10:13:53.437500,1.78,66.87
170927,2018-06-29 10:13:53.468750,6.9,66.87
170928,2018-06-29 10:13:53.500000,13.56,66.87
170929,2018-06-29 10:13:53.531250,21.58,67.1
170930,2018-06-29 10:13:53.562500,29.19,67.1
170931,2018-06-29 10:13:53.593750,35.26,67.1
170932,2018-06-29 10:13:53.625000,39.23,67.1
170933,2018-06-29 10:13:53.656250,40.31,67.1
170934,2018-06-29 10:13:53.687500,38.9,67.1
170935,2018-06-29 10:13:53.718750,37.08,67.1
170936,2018-06-29 10:13:53.750000,36.01,67.1
170937,2018-06-29 10:13:53.781250,34.47,67.1
170938,2018-06-29 10:13:53.812500,30.93,67.1
170939,2018-06-29 10:13:53.843750,25.14,67.1
170940,2018-06-29 10:13:53.875000,17.24,67.1
170941,2018-06-29 10:13:53.906250,7.29,67.1
170942,2018-06-29 10:13:53.937500,-4.44,67.1
170943,2018-06-29 10:13:53.968750,-18.23,67.1
170944,2018-06-29 10:13:54.000000,-35.27,67.1
170945,2018-06-29 10:13:54.031250,-55.96,67.1
170946,2018-06-29 10:13:54.062500,-77.49,67.1
170947,2018-06-29 10:13:54.093750,-92.84,67.1
170948,2018-06-29 10:13:54.125000,-94.86,67.1
170949,2018-06-29 10:13:54.156250,-83.49,67.1
170950,2018-06-29 10:13:54.187500,-65.91,67.1
170951,2018-06-29 10:13:54.218750,-47.88,67.1
170952,2018-06-29 10:13:54.250000,-30.54,67.1
170953,2018-06-29 10:13:54.281250,-15.73,67.1
170954,2018-06-29 10:13:54.312500,-6.72,67.1
170955,2018-06-29 10:13:54.343750,-2.6,67.1
170956,2018-06-29 10:13:54.375000,1.3,67.1
170957,2018-06-29 10:13:54.406250,6.94,67.1
170958,2018-06-29 10:13:54.437500,12.21,67.1
170959,2018-06-29 10:13:54.468750,15.73,67.1
170960,2018-06-29 10:13:54.500000,18.65,67.1
170961,2018-06-29 10:13:54.531250,20.87,66.98
170962,2018-06-29 10:13:54.562500,19.48,66.98
170963,2018-06-29 10:13:54.593750,13.49,66.98
170964,2018-06-29 10:13:54.625000,5.99,66.98
170965,2018-06-29 10:13:54.656250,0.08,66.98
170966,2018-06-29 10:13:54.687500,-4.15,66.98
170967,2018-06-29 10:13:54.718750,-7.8,66.98
170968,2018-06-29 10:13:54.750000,-11.25,66.98
170969,2018-06-29 10:13:54.781250,-14.81,66.98
170970,2018-06-29 10:13:54.812500,-19.79,66.98
170971,2018-06-29 10:13:54.843750,-28.2,66.98
170972,2018-06-29 10:13:54.875000,-40.93,66.98
170973,2018-06-29 10:13:54.906250,-55.68,66.98
170974,2018-06-29 10:13:54.937500,-66.15,66.98
170975,2018-06-29 10:13:54.968750,-64.94,66.98
170976,2018-06-29 10:13:55.000000,-50.38,66.98
170977,2018-06-29 10:13:55.031250,-29.1,66.98
170978,2018-06-29 10:13:55.062500,-9.09,66.98
170979,2018-06-29 10:13:55.093750,6.73,66.98
170980,2018-06-29 10:13:55.125000,18.17,66.98
170981,2018-06-29 10:13:55.156250,23.9,66.98
170982,2018-06-29 10:13:55.187500,23.35,66.98
170983,2018-06-29 10:13:55.218750,19.02,66.98
170984,2018-06-29 10:13:55.250000,14.09,66.98
170985,2018-06-29 10:13:55.281250,9.64,66.98
170986,2018-06-29 10:13:55.312500,6.0,66.98
170987,2018-06-29 10:13:55.343750,3.95,66.98
170988,2018-06-29 10:13:55.375000,2.71,66.98
170989,2018-06-29 10:13:55.406250,-0.73,66.98
170990,2018-06-29 10:13:55.437500,-7.74,66.98
170991,2018-06-29 10:13:55.468750,-15.12,66.98
170992,2018-06-29 10:13:55.500000,-18.13,66.98
170993,2018-06-29 10:13:55.531250,-15.61,66.85
170994,2018-06-29 10:13:55.562500,-10.05,66.85
170995,2018-06-29 10:13:55.593750,-3.66,66.85
170996,2018-06-29 10:13:55.625000,2.87,66.85
170997,2018-06-29 10:13:55.656250,6.56,66.85
170998,2018-06-29 10:13:55.687500,0.66,66.85
170999,2018-06-29 10:13:55.718750,-20.04,66.85
171000,2018-06-29 10:13:55.750000,-53.18,66.85
171001,2018-06-29 10:13:55.781250,-88.67,66.85
171002,2018-06-29 10:13:55.812500,-113.58,66.85
171003,2018-06-29 10:13:55.843750,-118.9,66.85
171004,2018-06-29 10:13:55.875000,-103.76,66.85
171005,2018-06-29 10:13:55.906250,-74.3,66.85
171006,2018-06-29 10:13:55.937500,-38.49,66.85
171007,2018-06-29 10:13:55.968750,-3.14,66.85
171008,2018-06-29 10:13:56.000000,26.87,66.85
171009,2018-06-29 10:13:56.031250,49.93,66.85
171010,2018-06-29 10:13:56.062500,68.34,66.85
171011,2018-06-29 10:13:56.093750,84.52,66.85
171012,2018-06-29 10:13:56.125000,96.66,66.85
171013,2018-06-29 10:13:56.156250,100.67,66.85
171014,2018-06-29 10:13:56.187500,94.88,66.85
171015,2018-06-29 10:13:56.218750,80.42,66.85
171016,2018-06-29 10:13:56.250000,59.53,66.85
171017,2018-06-29 10:13:56.281250,36.65,66.85
171018,2018-06-29 10:13:56.312500,17.65,66.85
171019,2018-06-29 10:13:56.343750,4.4,66.85
171020,2018-06-29 10:13:56.375000,-6.72,66.85
171021,2018-06-29 10:13:56.406250,-18.5,66.85
171022,2018-06-29 10:13:56.437500,-29.22,66.85
171023,2018-06-29 10:13:56.468750,-36.87,66.85
171024,2018-06-29 10:13:56.500000,-42.94,66.85
171025,2018-06-29 10:13:56.531250,-50.52,66.68
171026,2018-06-29 10:13:56.562500,-60.06,66.68
171027,2018-06-29 10:13:56.593750,-66.36,66.68
171028,2018-06-29 10:13:56.625000,-60.49,66.68
171029,2018-06-29 10:13:56.656250,-39.56,66.68
171030,2018-06-29 10:13:56.687500,-13.21,66.68
171031,2018-06-29 10:13:56.718750,6.03,66.68
171032,2018-06-29 10:13:56.750000,15.83,66.68
171033,2018-06-29 10:13:56.781250,20.78,66.68
171034,2018-06-29 10:13:56.812500,22.3,66.68
171035,2018-06-29 10:13:56.843750,20.1,66.68
171036,2018-06-29 10:13:56.875000,17.47,66.68
171037,2018-06-29 10:13:56.906250,18.06,66.68
171038,2018-06-29 10:13:56.937500,21.54,66.68
171039,2018-06-29 10:13:56.968750,26.43,66.68
171040,2018-06-29 10:13:57.000000,32.29,66.68
171041,2018-06-29 10:13:57.031250,36.82,66.68
171042,2018-06-29 10:13:57.062500,36.29,66.68
171043,2018-06-29 10:13:57.093750,30.84,66.68
171044,2018-06-29 10:13:57.125000,24.42,66.68
171045,2018-06-29 10:13:57.156250,18.7,66.68
171046,2018-06-29 10:13:57.187500,11.7,66.68
171047,2018-06-29 10:13:57.218750,2.1,66.68
171048,2018-06-29 10:13:57.250000,-8.69,66.68
171049,2018-06-29 10:13:57.281250,-18.21,66.68
171050,2018-06-29 10:13:57.312500,-25.4,66.68
171051,2018-06-29 10:13:57.343750,-32.51,66.68
171052,2018-06-29 10:13:57.375000,-43.69,66.68
171053,2018-06-29 10:13:57.406250,-58.33,66.68
171054,2018-06-29 10:13:57.437500,-66.67,66.68
171055,2018-06-29 10:13:57.468750,-58.23,66.68
171056,2018-06-29 10:13:57.500000,-34.35,66.68
171057,2018-06-29 10:13:57.531250,-6.92,66.48
171058,2018-06-29 10:13:57.562500,14.51,66.48
171059,2018-06-29 10:13:57.593750,28.31,66.48
171060,2018-06-29 10:13:57.625000,35.93,66.48
171061,2018-06-29 10:13:57.656250,38.81,66.48
171062,2018-06-29 10:13:57.687500,40.44,66.48
171063,2018-06-29 10:13:57.718750,45.82,66.48
171064,2018-06-29 10:13:57.750000,57.3,66.48
171065,2018-06-29 10:13:57.781250,72.88,66.48
171066,2018-06-29 10:13:57.812500,88.94,66.48
171067,2018-06-29 10:13:57.843750,103.34,66.48
171068,2018-06-29 10:13:57.875000,114.8,66.48
171069,2018-06-29 10:13:57.906250,120.84,66.48
171070,2018-06-29 10:13:57.937500,119.23,66.48
171071,2018-06-29 10:13:57.968750,110.85,66.48
171072,2018-06-29 10:13:58.000000,98.52,66.48
171073,2018-06-29 10:13:58.031250,83.99,66.48
171074,2018-06-29 10:13:58.062500,67.69,66.48
171075,2018-06-29 10:13:58.093750,49.56,66.48
171076,2018-06-29 10:13:58.125000,29.08,66.48
171077,2018-06-29 10:13:58.156250,5.29,66.48
171078,2018-06-29 10:13:58.187500,-21.88,66.48
171079,2018-06-29 10:13:58.218750,-49.39,66.48
171080,2018-06-29 10:13:58.250000,-70.4,66.48
171081,2018-06-29 10:13:58.281250,-77.77,66.48
171082,2018-06-29 10:13:58.312500,-69.57,66.48
171083,2018-06-29 10:13:58.343750,-51.82,66.48
171084,2018-06-29 10:13:58.375000,-34.85,66.48
171085,2018-06-29 10:13:58.406250,-24.46,66.48
171086,2018-06-29 10:13:58.437500,-18.1,66.48
171087,2018-06-29 10:13:58.468750,-11.03,66.48
171088,2018-06-29 10:13:58.500000,-2.39,66.48
171089,2018-06-29 10:13:58.531250,6.67,66.35
171090,2018-06-29 10:13:58.562500,15.43,66.35
171091,2018-06-29 10:13:58.593750,22.18,66.35
171092,2018-06-29 10:13:58.625000,24.44,66.35
171093,2018-06-29 10:13:58.656250,21.77,66.35
171094,2018-06-29 10:13:58.687500,15.52,66.35
171095,2018-06-29 10:13:58.718750,6.87,66.35
171096,2018-06-29 10:13:58.750000,-1.7,66.35
171097,2018-06-29 10:13:58.781250,-5.52,66.35
171098,2018-06-29 10:13:58.812500,-2.75,66.35
171099,2018-06-29 10:13:58.843750,1.84,66.35
171100,2018-06-29 10:13:58.875000,1.93,66.35
171101,2018-06-29 10:13:58.906250,-3.91,66.35
171102,2018-06-29 10:13:58.937500,-13.15,66.35
171103,2018-06-29 10:13:58.968750,-22.88,66.35
171104,2018-06-29 10:13:59.000000,-31.01,66.35
171105,2018-06-29 10:13:59.031250,-37.63,66.35
171106,2018-06-29 10:13:59.062500,-44.65,66.35
171107,2018-06-29 10:13:59.093750,-50.01,66.35
171108,2018-06-29 10:13:59.125000,-45.88,66.35
171109,2018-06-29 10:13:59.156250,-28.51,66.35
171110,2018-06-29 10:13:59.187500,-5.0,66.35
171111,2018-06-29 10:13:59.218750,14.83,66.35
171112,2018-06-29 10:13:59.250000,28.15,66.35
171113,2018-06-29 10:13:59.281250,36.73,66.35
171114,2018-06-29 10:13:59.312500,40.13,66.35
171115,2018-06-29 10:13:59.343750,36.06,66.35
171116,2018-06-29 10:13:59.375000,24.67,66.35
171117,2018-06-29 10:13:59.406250,8.55,66.35
171118,2018-06-29 10:13:59.437500,-9.58,66.35
171119,2018-06-29 10:13:59.468750,-26.23,66.35
171120,2018-06-29 10:13:59.500000,-37.14,66.35
171121,2018-06-29 10:13:59.531250,-41.84,66.22
171122,2018-06-29 10:13:59.562500,-45.33,66.22
171123,2018-06-29 10:13:59.593750,-51.77,66.22
171124,2018-06-29 10:13:59.625000,-60.29,66.22
171125,2018-06-29 10:13:59.656250,-69.17,66.22
171126,2018-06-29 10:13:59.687500,-79.21,66.22
171127,2018-06-29 10:13:59.718750,-89.89,66.22
171128,2018-06-29 10:13:59.750000,-95.86,66.22
171129,2018-06-29 10:13:59.781250,-91.5,66.22
171130,2018-06-29 10:13:59.812500,-77.92,66.22
171131,2018-06-29 10:13:59.843750,-61.06,66.22
171132,2018-06-29 10:13:59.875000,-42.28,66.22
171133,2018-06-29 10:13:59.906250,-16.71,66.22
171134,2018-06-29 10:13:59.937500,17.47,66.22
171135,2018-06-29 10:13:59.968750,54.06,66.22
171136,2018-06-29 10:14:00.000000,84.96,66.22
171137,2018-06-29 10:14:00.031250,105.64,66.22
171138,2018-06-29 10:14:00.062500,113.66,66.22
171139,2018-06-29 10:14:00.093750,107.87,66.22
171140,2018-06-29 10:14:00.125000,91.01,66.22
171141,2018-06-29 10:14:00.156250,69.3,66.22
171142,2018-06-29 10:14:00.187500,47.75,66.22
171143,2018-06-29 10:14:00.218750,28.44,66.22
171144,2018-06-29 10:14:00.250000,13.05,66.22
171145,2018-06-29 10:14:00.281250,3.24,66.22
171146,2018-06-29 10:14:00.312500,-2.02,66.22
171147,2018-06-29 10:14:00.343750,-7.13,66.22
171148,2018-06-29 10:14:00.375000,-17.18,66.22
171149,2018-06-29 10:14:00.406250,-33.8,66.22
171150,2018-06-29 10:14:00.437500,-53.2,66.22
171151,2018-06-29 10:14:00.468750,-69.71,66.22
171152,2018-06-29 10:14:00.500000,-81.16,66.22
171153,2018-06-29 10:14:00.531250,-89.07,66.07
171154,2018-06-29 10:14:00.562500,-95.62,66.07
171155,2018-06-29 10:14:00.593750,-100.94,66.07
171156,2018-06-29 10:14:00.625000,-100.1,66.07
171157,2018-06-29 10:14:00.656250,-86.07,66.07
171158,2018-06-29 10:14:00.687500,-61.02,66.07
171159,2018-06-29 10:14:00.718750,-37.13,66.07
171160,2018-06-29 10:14:00.750000,-21.7,66.07
171161,2018-06-29 10:14:00.781250,-10.56,66.07
171162,2018-06-29 10:14:00.812500,1.09,66.07
171163,2018-06-29 10:14:00.843750,11.84,66.07
171164,2018-06-29 10:14:00.875000,19.72,66.07
171165,2018-06-29 10:14:00.906250,25.78,66.07
171166,2018-06-29 10:14:00.937500,30.87,66.07
171167,2018-06-29 10:14:00.968750,34.53,66.07
171168,2018-06-29 10:14:01.000000,37.51,66.07
171169,2018-06-29 10:14:01.031250,41.69,66.07
171170,2018-06-29 10:14:01.062500,46.53,66.07
171171,2018-06-29 10:14:01.093750,48.93,66.07
171172,2018-06-29 10:14:01.125000,47.83,66.07
171173,2018-06-29 10:14:01.156250,46.33,66.07
171174,2018-06-29 10:14:01.187500,47.62,66.07
171175,2018-06-29 10:14:01.218750,50.12,66.07
171176,2018-06-29 10:14:01.250000,48.73,66.07
171177,2018-06-29 10:14:01.281250,40.1,66.07
171178,2018-06-29 10:14:01.312500,26.31,66.07
171179,2018-06-29 10:14:01.343750,14.02,66.07
171180,2018-06-29 10:14:01.375000,9.06,66.07
171181,2018-06-29 10:14:01.406250,11.26,66.07
171182,2018-06-29 10:14:01.437500,16.18,66.07
171183,2018-06-29 10:14:01.468750,20.95,66.07
171184,2018-06-29 10:14:01.500000,25.3,66.07
171185,2018-06-29 10:14:01.531250,28.08,65.98
171186,2018-06-29 10:14:01.562500,27.74,65.98
171187,2018-06-29 10:14:01.593750,25.98,65.98
171188,2018-06-29 10:14:01.625000,27.21,65.98
171189,2018-06-29 10:14:01.656250,33.62,65.98
171190,2018-06-29 10:14:01.687500,43.23,65.98
171191,2018-06-29 10:14:01.718750,53.38,65.98
171192,2018-06-29 10:14:01.750000,63.68,65.98
171193,2018-06-29 10:14:01.781250,73.04,65.98
171194,2018-06-29 10:14:01.812500,77.29,65.98
171195,2018-06-29 10:14:01.843750,73.64,65.98
171196,2018-06-29 10:14:01.875000,65.13,65.98
171197,2018-06-29 10:14:01.906250,56.58,65.98
171198,2018-06-29 10:14:01.937500,49.51,65.98
171199,2018-06-29 10:14:01.968750,43.59,65.98
171200,2018-06-29 10:14:02.000000,37.9,65.98
171201,2018-06-29 10:14:02.031250,31.05,65.98
171202,2018-06-29 10:14:02.062500,26.23,65.98
171203,2018-06-29 10:14:02.093750,32.06,65.98
171204,2018-06-29 10:14:02.125000,51.46,65.98
171205,2018-06-29 10:14:02.156250,76.0,65.98
171206,2018-06-29 10:14:02.187500,96.5,65.98
171207,2018-06-29 10:14:02.218750,111.91,65.98
171208,2018-06-29 10:14:02.250000,123.44,65.98
171209,2018-06-29 10:14:02.281250,127.94,65.98
171210,2018-06-29 10:14:02.312500,122.77,65.98
171211,2018-06-29 10:14:02.343750,111.72,65.98
171212,2018-06-29 10:14:02.375000,100.25,65.98
171213,2018-06-29 10:14:02.406250,88.13,65.98
171214,2018-06-29 10:14:02.437500,72.49,65.98
171215,2018-06-29 10:14:02.468750,54.21,65.98
171216,2018-06-29 10:14:02.500000,35.69,65.98
171217,2018-06-29 10:14:02.531250,16.38,65.93
171218,2018-06-29 10:14:02.562500,-5.3,65.93
171219,2018-06-29 10:14:02.593750,-28.87,65.93
171220,2018-06-29 10:14:02.625000,-52.71,65.93
171221,2018-06-29 10:14:02.656250,-74.68,65.93
171222,2018-06-29 10:14:02.687500,-91.59,65.93
171223,2018-06-29 10:14:02.718750,-101.88,65.93
171224,2018-06-29 10:14:02.750000,-108.49,65.93
171225,2018-06-29 10:14:02.781250,-114.04,65.93
171226,2018-06-29 10:14:02.812500,-113.52,65.93
171227,2018-06-29 10:14:02.843750,-100.25,65.93
171228,2018-06-29 10:14:02.875000,-79.24,65.93
171229,2018-06-29 10:14:02.906250,-63.36,65.93
171230,2018-06-29 10:14:02.937500,-56.47,65.93
171231,2018-06-29 10:14:02.968750,-52.73,65.93
171232,2018-06-29 10:14:03.000000,-51.75,65.93
171233,2018-06-29 10:14:03.031250,-59.66,65.93
171234,2018-06-29 10:14:03.062500,-74.82,65.93
171235,2018-06-29 10:14:03.093750,-86.87,65.93
171236,2018-06-29 10:14:03.125000,-92.3,65.93
171237,2018-06-29 10:14:03.156250,-100.2,65.93
171238,2018-06-29 10:14:03.187500,-119.84,65.93
171239,2018-06-29 10:14:03.218750,-150.48,65.93
171240,2018-06-29 10:14:03.250000,-181.01,65.93
171241,2018-06-29 10:14:03.281250,-196.36,65.93
171242,2018-06-29 10:14:03.312500,-191.49,65.93
171243,2018-06-29 10:14:03.343750,-176.68,65.93
171244,2018-06-29 10:14:03.375000,-159.36,65.93
171245,2018-06-29 10:14:03.406250,-130.4,65.93
171246,2018-06-29 10:14:03.437500,-84.78,65.93
171247,2018-06-29 10:14:03.468750,-45.9,65.93
171248,2018-06-29 10:14:03.500000,-51.67,65.93
171249,2018-06-29 10:14:03.531250,-117.27,65.9
171250,2018-06-29 10:14:03.562500,-218.62,65.9
171251,2018-06-29 10:14:03.593750,-317.99,65.9
171252,2018-06-29 10:14:03.625000,-396.5,65.9
171253,2018-06-29 10:14:03.656250,-449.59,65.9
171254,2018-06-29 10:14:03.687500,-472.41,65.9
171255,2018-06-29 10:14:03.718750,-471.09,65.9
171256,2018-06-29 10:14:03.750000,-461.69,65.9
171257,2018-06-29 10:14:03.781250,-441.09,65.9
171258,2018-06-29 10:14:03.812500,-391.1,65.9
171259,2018-06-29 10:14:03.843750,-314.6,65.9
171260,2018-06-29 10:14:03.875000,-232.49,65.9
171261,2018-06-29 10:14:03.906250,-152.59,65.9
171262,2018-06-29 10:14:03.937500,-70.4,65.9
171263,2018-06-29 10:14:03.968750,12.62,65.9
171264,2018-06-29 10:14:04.000000,91.28,65.9
171265,2018-06-29 10:14:04.031250,164.01,65.9
171266,2018-06-29 10:14:04.062500,226.81,65.9
171267,2018-06-29 10:14:04.093750,272.21,65.9
171268,2018-06-29 10:14:04.125000,298.48,65.9
171269,2018-06-29 10:14:04.156250,310.54,65.9
171270,2018-06-29 10:14:04.187500,312.02,65.9
171271,2018-06-29 10:14:04.218750,305.17,65.9
171272,2018-06-29 10:14:04.250000,293.97,65.9
171273,2018-06-29 10:14:04.281250,279.93,65.9
171274,2018-06-29 10:14:04.312500,260.6,65.9
171275,2018-06-29 10:14:04.343750,236.46,65.9
171276,2018-06-29 10:14:04.375000,212.29,65.9
171277,2018-06-29 10:14:04.406250,189.67,65.9
171278,2018-06-29 10:14:04.437500,164.14,65.9
171279,2018-06-29 10:14:04.468750,132.28,65.9
171280,2018-06-29 10:14:04.500000,97.83,65.9
171281,2018-06-29 10:14:04.531250,67.41,65.9
171282,2018-06-29 10:14:04.562500,42.37,65.9
171283,2018-06-29 10:14:04.593750,17.96,65.9
171284,2018-06-29 10:14:04.625000,-9.91,65.9
171285,2018-06-29 10:14:04.656250,-37.55,65.9
171286,2018-06-29 10:14:04.687500,-51.87,65.9
171287,2018-06-29 10:14:04.718750,-40.57,65.9
171288,2018-06-29 10:14:04.750000,-6.23,65.9
171289,2018-06-29 10:14:04.781250,35.57,65.9
171290,2018-06-29 10:14:04.812500,72.91,65.9
171291,2018-06-29 10:14:04.843750,104.07,65.9
171292,2018-06-29 10:14:04.875000,129.07,65.9
171293,2018-06-29 10:14:04.906250,144.78,65.9
171294,2018-06-29 10:14:04.937500,149.07,65.9
171295,2018-06-29 10:14:04.968750,144.24,65.9
171296,2018-06-29 10:14:05.000000,135.89,65.9
171297,2018-06-29 10:14:05.031250,128.7,65.9
171298,2018-06-29 10:14:05.062500,123.59,65.9
171299,2018-06-29 10:14:05.093750,119.53,65.9
171300,2018-06-29 10:14:05.125000,115.45,65.9
171301,2018-06-29 10:14:05.156250,109.74,65.9
171302,2018-06-29 10:14:05.187500,101.21,65.9
171303,2018-06-29 10:14:05.218750,90.94,65.9
171304,2018-06-29 10:14:05.250000,80.25,65.9
171305,2018-06-29 10:14:05.281250,68.54,65.9
171306,2018-06-29 10:14:05.312500,55.78,65.9
171307,2018-06-29 10:14:05.343750,43.9,65.9
171308,2018-06-29 10:14:05.375000,33.57,65.9
171309,2018-06-29 10:14:05.406250,22.97,65.9
171310,2018-06-29 10:14:05.437500,10.94,65.9
171311,2018-06-29 10:14:05.468750,-1.33,65.9
171312,2018-06-29 10:14:05.500000,-12.68,65.9
171313,2018-06-29 10:14:05.531250,-24.64,65.93
171314,2018-06-29 10:14:05.562500,-40.56,65.93
171315,2018-06-29 10:14:05.593750,-59.85,65.93
171316,2018-06-29 10:14:05.625000,-72.82,65.93
171317,2018-06-29 10:14:05.656250,-67.13,65.93
171318,2018-06-29 10:14:05.687500,-42.11,65.93
171319,2018-06-29 10:14:05.718750,-9.92,65.93
171320,2018-06-29 10:14:05.750000,18.72,65.93
171321,2018-06-29 10:14:05.781250,41.92,65.93
171322,2018-06-29 10:14:05.812500,59.98,65.93
171323,2018-06-29 10:14:05.843750,70.76,65.93
171324,2018-06-29 10:14:05.875000,72.87,65.93
171325,2018-06-29 10:14:05.906250,68.25,65.93
171326,2018-06-29 10:14:05.937500,60.91,65.93
171327,2018-06-29 10:14:05.968750,54.77,65.93
171328,2018-06-29 10:14:06.000000,51.65,65.93
171329,2018-06-29 10:14:06.031250,50.42,65.93
171330,2018-06-29 10:14:06.062500,48.15,65.93
171331,2018-06-29 10:14:06.093750,42.38,65.93
171332,2018-06-29 10:14:06.125000,32.8,65.93
171333,2018-06-29 10:14:06.156250,21.02,65.93
171334,2018-06-29 10:14:06.187500,8.58,65.93
171335,2018-06-29 10:14:06.218750,-4.01,65.93
171336,2018-06-29 10:14:06.250000,-16.42,65.93
171337,2018-06-29 10:14:06.281250,-28.12,65.93
171338,2018-06-29 10:14:06.312500,-38.62,65.93
171339,2018-06-29 10:14:06.343750,-47.47,65.93
171340,2018-06-29 10:14:06.375000,-54.51,65.93
171341,2018-06-29 10:14:06.406250,-60.84,65.93
171342,2018-06-29 10:14:06.437500,-68.33,65.93
171343,2018-06-29 10:14:06.468750,-78.11,65.93
171344,2018-06-29 10:14:06.500000,-88.23,65.93
171345,2018-06-29 10:14:06.531250,-90.85,65.97
171346,2018-06-29 10:14:06.562500,-76.57,65.97
171347,2018-06-29 10:14:06.593750,-46.13,65.97
171348,2018-06-29 10:14:06.625000,-11.81,65.97
171349,2018-06-29 10:14:06.656250,16.51,65.97
171350,2018-06-29 10:14:06.687500,38.49,65.97
171351,2018-06-29 10:14:06.718750,55.42,65.97
171352,2018-06-29 10:14:06.750000,65.04,65.97
171353,2018-06-29 10:14:06.781250,66.46,65.97
171354,2018-06-29 10:14:06.812500,63.39,65.97
171355,2018-06-29 10:14:06.843750,60.53,65.97
171356,2018-06-29 10:14:06.875000,59.35,65.97
171357,2018-06-29 10:14:06.906250,58.31,65.97
171358,2018-06-29 10:14:06.937500,55.78,65.97
171359,2018-06-29 10:14:06.968750,51.32,65.97
171360,2018-06-29 10:14:07.000000,44.21,65.97
171361,2018-06-29 10:14:07.031250,33.82,65.97
171362,2018-06-29 10:14:07.062500,21.24,65.97
171363,2018-06-29 10:14:07.093750,7.65,65.97
171364,2018-06-29 10:14:07.125000,-8.49,65.97
171365,2018-06-29 10:14:07.156250,-28.73,65.97
171366,2018-06-29 10:14:07.187500,-49.97,65.97
171367,2018-06-29 10:14:07.218750,-66.13,65.97
171368,2018-06-29 10:14:07.250000,-75.32,65.97
171369,2018-06-29 10:14:07.281250,-82.04,65.97
171370,2018-06-29 10:14:07.312500,-91.93,65.97
171371,2018-06-29 10:14:07.343750,-105.16,65.97
171372,2018-06-29 10:14:07.375000,-113.66,65.97
171373,2018-06-29 10:14:07.406250,-107.13,65.97
171374,2018-06-29 10:14:07.437500,-84.56,65.97
171375,2018-06-29 10:14:07.468750,-56.19,65.97
171376,2018-06-29 10:14:07.500000,-31.89,65.97
171377,2018-06-29 10:14:07.531250,-12.62,65.97
171378,2018-06-29 10:14:07.562500,5.16,65.97
171379,2018-06-29 10:14:07.593750,22.96,65.97
171380,2018-06-29 10:14:07.625000,39.84,65.97
171381,2018-06-29 10:14:07.656250,54.33,65.97
171382,2018-06-29 10:14:07.687500,65.59,65.97
171383,2018-06-29 10:14:07.718750,73.26,65.97
171384,2018-06-29 10:14:07.750000,77.65,65.97
171385,2018-06-29 10:14:07.781250,79.71,65.97
171386,2018-06-29 10:14:07.812500,79.69,65.97
171387,2018-06-29 10:14:07.843750,76.3,65.97
171388,2018-06-29 10:14:07.875000,68.67,65.97
171389,2018-06-29 10:14:07.906250,58.02,65.97
171390,2018-06-29 10:14:07.937500,46.06,65.97
171391,2018-06-29 10:14:07.968750,33.34,65.97
171392,2018-06-29 10:14:08.000000,19.78,65.97
171393,2018-06-29 10:14:08.031250,5.69,65.97
171394,2018-06-29 10:14:08.062500,-8.31,65.97
171395,2018-06-29 10:14:08.093750,-21.8,65.97
171396,2018-06-29 10:14:08.125000,-35.49,65.97
171397,2018-06-29 10:14:08.156250,-49.82,65.97
171398,2018-06-29 10:14:08.187500,-60.29,65.97
171399,2018-06-29 10:14:08.218750,-58.31,65.97
171400,2018-06-29 10:14:08.250000,-41.14,65.97
171401,2018-06-29 10:14:08.281250,-16.7,65.97
171402,2018-06-29 10:14:08.312500,5.85,65.97
171403,2018-06-29 10:14:08.343750,24.25,65.97
171404,2018-06-29 10:14:08.375000,39.38,65.97
171405,2018-06-29 10:14:08.406250,50.08,65.97
171406,2018-06-29 10:14:08.437500,54.9,65.97
171407,2018-06-29 10:14:08.468750,54.49,65.97
171408,2018-06-29 10:14:08.500000,50.52,65.97
171409,2018-06-29 10:14:08.531250,43.96,66.08
171410,2018-06-29 10:14:08.562500,35.14,66.08
171411,2018-06-29 10:14:08.593750,24.86,66.08
171412,2018-06-29 10:14:08.625000,14.53,66.08
171413,2018-06-29 10:14:08.656250,4.93,66.08
171414,2018-06-29 10:14:08.687500,-4.39,66.08
171415,2018-06-29 10:14:08.718750,-14.48,66.08
171416,2018-06-29 10:14:08.750000,-25.86,66.08
171417,2018-06-29 10:14:08.781250,-37.76,66.08
171418,2018-06-29 10:14:08.812500,-48.75,66.08
171419,2018-06-29 10:14:08.843750,-58.42,66.08
171420,2018-06-29 10:14:08.875000,-67.8,66.08
171421,2018-06-29 10:14:08.906250,-77.89,66.08
171422,2018-06-29 10:14:08.937500,-88.23,66.08
171423,2018-06-29 10:14:08.968750,-94.85,66.08
171424,2018-06-29 10:14:09.000000,-91.44,66.08
171425,2018-06-29 10:14:09.031250,-76.44,66.08
171426,2018-06-29 10:14:09.062500,-56.32,66.08
171427,2018-06-29 10:14:09.093750,-38.4,66.08
171428,2018-06-29 10:14:09.125000,-23.86,66.08
171429,2018-06-29 10:14:09.156250,-10.81,66.08
171430,2018-06-29 10:14:09.187500,0.23,66.08
171431,2018-06-29 10:14:09.218750,7.26,66.08
171432,2018-06-29 10:14:09.250000,10.39,66.08
171433,2018-06-29 10:14:09.281250,12.01,66.08
171434,2018-06-29 10:14:09.312500,14.17,66.08
171435,2018-06-29 10:14:09.343750,17.41,66.08
171436,2018-06-29 10:14:09.375000,21.21,66.08
171437,2018-06-29 10:14:09.406250,24.32,66.08
171438,2018-06-29 10:14:09.437500,25.29,66.08
171439,2018-06-29 10:14:09.468750,23.32,66.08
171440,2018-06-29 10:14:09.500000,19.08,66.08
171441,2018-06-29 10:14:09.531250,13.9,66.17
171442,2018-06-29 10:14:09.562500,8.02,66.17
171443,2018-06-29 10:14:09.593750,0.57,66.17
171444,2018-06-29 10:14:09.625000,-8.81,66.17
171445,2018-06-29 10:14:09.656250,-19.93,66.17
171446,2018-06-29 10:14:09.687500,-32.34,66.17
171447,2018-06-29 10:14:09.718750,-42.78,66.17
171448,2018-06-29 10:14:09.750000,-44.5,66.17
171449,2018-06-29 10:14:09.781250,-34.1,66.17
171450,2018-06-29 10:14:09.812500,-16.56,66.17
171451,2018-06-29 10:14:09.843750,0.24,66.17
171452,2018-06-29 10:14:09.875000,12.85,66.17
171453,2018-06-29 10:14:09.906250,21.07,66.17
171454,2018-06-29 10:14:09.937500,24.33,66.17
171455,2018-06-29 10:14:09.968750,22.85,66.17
171456,2018-06-29 10:14:10.000000,19.55,66.17
171457,2018-06-29 10:14:10.031250,17.57,66.17
171458,2018-06-29 10:14:10.062500,17.33,66.17
171459,2018-06-29 10:14:10.093750,17.47,66.17
171460,2018-06-29 10:14:10.125000,17.75,66.17
171461,2018-06-29 10:14:10.156250,18.81,66.17
171462,2018-06-29 10:14:10.187500,18.97,66.17
171463,2018-06-29 10:14:10.218750,14.69,66.17
171464,2018-06-29 10:14:10.250000,5.44,66.17
171465,2018-06-29 10:14:10.281250,-5.08,66.17
171466,2018-06-29 10:14:10.312500,-14.53,66.17
171467,2018-06-29 10:14:10.343750,-25.06,66.17
171468,2018-06-29 10:14:10.375000,-39.14,66.17
171469,2018-06-29 10:14:10.406250,-55.82,66.17
171470,2018-06-29 10:14:10.437500,-72.15,66.17
171471,2018-06-29 10:14:10.468750,-83.98,66.17
171472,2018-06-29 10:14:10.500000,-86.81,66.17
171473,2018-06-29 10:14:10.531250,-80.42,66.27
171474,2018-06-29 10:14:10.562500,-67.56,66.27
171475,2018-06-29 10:14:10.593750,-45.94,66.27
171476,2018-06-29 10:14:10.625000,-11.39,66.27
171477,2018-06-29 10:14:10.656250,28.7,66.27
171478,2018-06-29 10:14:10.687500,58.52,66.27
171479,2018-06-29 10:14:10.718750,72.37,66.27
171480,2018-06-29 10:14:10.750000,76.43,66.27
171481,2018-06-29 10:14:10.781250,73.82,66.27
171482,2018-06-29 10:14:10.812500,62.58,66.27
171483,2018-06-29 10:14:10.843750,45.93,66.27
171484,2018-06-29 10:14:10.875000,32.55,66.27
171485,2018-06-29 10:14:10.906250,31.53,66.27
171486,2018-06-29 10:14:10.937500,52.79,66.27
171487,2018-06-29 10:14:10.968750,103.41,66.27
171488,2018-06-29 10:14:11.000000,179.15,66.27
171489,2018-06-29 10:14:11.031250,265.55,66.27
171490,2018-06-29 10:14:11.062500,343.97,66.27
171491,2018-06-29 10:14:11.093750,392.86,66.27
171492,2018-06-29 10:14:11.125000,397.08,66.27
171493,2018-06-29 10:14:11.156250,363.81,66.27
171494,2018-06-29 10:14:11.187500,316.77,66.27
171495,2018-06-29 10:14:11.218750,272.23,66.27
171496,2018-06-29 10:14:11.250000,231.68,66.27
171497,2018-06-29 10:14:11.281250,193.36,66.27
171498,2018-06-29 10:14:11.312500,155.48,66.27
171499,2018-06-29 10:14:11.343750,111.42,66.27
171500,2018-06-29 10:14:11.375000,56.24,66.27
171501,2018-06-29 10:14:11.406250,-0.5,66.27
171502,2018-06-29 10:14:11.437500,-40.88,66.27
171503,2018-06-29 10:14:11.468750,-58.0,66.27
171504,2018-06-29 10:14:11.500000,-60.49,66.27
171505,2018-06-29 10:14:11.531250,-63.12,66.35
171506,2018-06-29 10:14:11.562500,-80.26,66.35
171507,2018-06-29 10:14:11.593750,-118.55,66.35
171508,2018-06-29 10:14:11.625000,-169.54,66.35
171509,2018-06-29 10:14:11.656250,-218.58,66.35
171510,2018-06-29 10:14:11.687500,-261.01,66.35
171511,2018-06-29 10:14:11.718750,-302.99,66.35
171512,2018-06-29 10:14:11.750000,-354.23,66.35
171513,2018-06-29 10:14:11.781250,-422.49,66.35
171514,2018-06-29 10:14:11.812500,-498.14,66.35
171515,2018-06-29 10:14:11.843750,-546.97,66.35
171516,2018-06-29 10:14:11.875000,-539.83,66.35
171517,2018-06-29 10:14:11.906250,-483.84,66.35
171518,2018-06-29 10:14:11.937500,-408.06,66.35
171519,2018-06-29 10:14:11.968750,-332.43,66.35
171520,2018-06-29 10:14:12.000000,-263.49,66.35
171521,2018-06-29 10:14:12.031250,-202.54,66.35
171522,2018-06-29 10:14:12.062500,-145.35,66.35
171523,2018-06-29 10:14:12.093750,-87.29,66.35
171524,2018-06-29 10:14:12.125000,-34.13,66.35
171525,2018-06-29 10:14:12.156250,0.9,66.35
171526,2018-06-29 10:14:12.187500,14.94,66.35
171527,2018-06-29 10:14:12.218750,22.05,66.35
171528,2018-06-29 10:14:12.250000,35.46,66.35
171529,2018-06-29 10:14:12.281250,53.45,66.35
171530,2018-06-29 10:14:12.312500,69.18,66.35
171531,2018-06-29 10:14:12.343750,81.48,66.35
171532,2018-06-29 10:14:12.375000,90.71,66.35
171533,2018-06-29 10:14:12.406250,96.2,66.35
171534,2018-06-29 10:14:12.437500,99.3,66.35
171535,2018-06-29 10:14:12.468750,101.45,66.35
171536,2018-06-29 10:14:12.500000,104.43,66.35
171537,2018-06-29 10:14:12.531250,115.9,66.47
171538,2018-06-29 10:14:12.562500,143.39,66.47
171539,2018-06-29 10:14:12.593750,181.34,66.47
171540,2018-06-29 10:14:12.625000,214.56,66.47
171541,2018-06-29 10:14:12.656250,231.38,66.47
171542,2018-06-29 10:14:12.687500,226.44,66.47
171543,2018-06-29 10:14:12.718750,201.99,66.47
171544,2018-06-29 10:14:12.750000,173.69,66.47
171545,2018-06-29 10:14:12.781250,162.3,66.47
171546,2018-06-29 10:14:12.812500,171.19,66.47
171547,2018-06-29 10:14:12.843750,179.77,66.47
171548,2018-06-29 10:14:12.875000,165.8,66.47
171549,2018-06-29 10:14:12.906250,126.9,66.47
171550,2018-06-29 10:14:12.937500,74.38,66.47
171551,2018-06-29 10:14:12.968750,16.29,66.47
171552,2018-06-29 10:14:13.000000,-44.93,66.47
171553,2018-06-29 10:14:13.031250,-106.41,66.47
171554,2018-06-29 10:14:13.062500,-162.66,66.47
171555,2018-06-29 10:14:13.093750,-204.04,66.47
171556,2018-06-29 10:14:13.125000,-218.61,66.47
171557,2018-06-29 10:14:13.156250,-199.7,66.47
171558,2018-06-29 10:14:13.187500,-152.62,66.47
171559,2018-06-29 10:14:13.218750,-95.65,66.47
171560,2018-06-29 10:14:13.250000,-50.34,66.47
171561,2018-06-29 10:14:13.281250,-23.8,66.47
171562,2018-06-29 10:14:13.312500,-5.35,66.47
171563,2018-06-29 10:14:13.343750,16.36,66.47
171564,2018-06-29 10:14:13.375000,40.15,66.47
171565,2018-06-29 10:14:13.406250,57.59,66.47
171566,2018-06-29 10:14:13.437500,62.96,66.47
171567,2018-06-29 10:14:13.468750,55.69,66.47
171568,2018-06-29 10:14:13.500000,38.61,66.47
171569,2018-06-29 10:14:13.531250,17.2,66.62
171570,2018-06-29 10:14:13.562500,-3.03,66.62
171571,2018-06-29 10:14:13.593750,-18.66,66.62
171572,2018-06-29 10:14:13.625000,-26.19,66.62
171573,2018-06-29 10:14:13.656250,-23.8,66.62
171574,2018-06-29 10:14:13.687500,-18.14,66.62
171575,2018-06-29 10:14:13.718750,-19.28,66.62
171576,2018-06-29 10:14:13.750000,-28.53,66.62
171577,2018-06-29 10:14:13.781250,-41.39,66.62
171578,2018-06-29 10:14:13.812500,-58.5,66.62
171579,2018-06-29 10:14:13.843750,-84.11,66.62
171580,2018-06-29 10:14:13.875000,-113.94,66.62
171581,2018-06-29 10:14:13.906250,-126.45,66.62
171582,2018-06-29 10:14:13.937500,-94.31,66.62
171583,2018-06-29 10:14:13.968750,-17.1,66.62
171584,2018-06-29 10:14:14.000000,67.38,66.62
171585,2018-06-29 10:14:14.031250,119.6,66.62
171586,2018-06-29 10:14:14.062500,134.38,66.62
171587,2018-06-29 10:14:14.093750,130.2,66.62
171588,2018-06-29 10:14:14.125000,121.51,66.62
171589,2018-06-29 10:14:14.156250,115.21,66.62
171590,2018-06-29 10:14:14.187500,119.0,66.62
171591,2018-06-29 10:14:14.218750,138.09,66.62
171592,2018-06-29 10:14:14.250000,167.19,66.62
171593,2018-06-29 10:14:14.281250,193.6,66.62
171594,2018-06-29 10:14:14.312500,207.57,66.62
171595,2018-06-29 10:14:14.343750,209.93,66.62
171596,2018-06-29 10:14:14.375000,213.82,66.62
171597,2018-06-29 10:14:14.406250,235.06,66.62
171598,2018-06-29 10:14:14.437500,270.53,66.62
171599,2018-06-29 10:14:14.468750,290.81,66.62
171600,2018-06-29 10:14:14.500000,269.65,66.62
171601,2018-06-29 10:14:14.531250,215.01,66.8
171602,2018-06-29 10:14:14.562500,156.61,66.8
171603,2018-06-29 10:14:14.593750,112.68,66.8
171604,2018-06-29 10:14:14.625000,82.54,66.8
171605,2018-06-29 10:14:14.656250,59.37,66.8
171606,2018-06-29 10:14:14.687500,36.18,66.8
171607,2018-06-29 10:14:14.718750,7.49,66.8
171608,2018-06-29 10:14:14.750000,-26.87,66.8
171609,2018-06-29 10:14:14.781250,-63.05,66.8
171610,2018-06-29 10:14:14.812500,-98.45,66.8
171611,2018-06-29 10:14:14.843750,-133.45,66.8
171612,2018-06-29 10:14:14.875000,-168.79,66.8
171613,2018-06-29 10:14:14.906250,-203.94,66.8
171614,2018-06-29 10:14:14.937500,-240.85,66.8
171615,2018-06-29 10:14:14.968750,-286.65,66.8
171616,2018-06-29 10:14:15.000000,-338.48,66.8
171617,2018-06-29 10:14:15.031250,-369.12,66.8
171618,2018-06-29 10:14:15.062500,-353.63,66.8
171619,2018-06-29 10:14:15.093750,-307.11,66.8
171620,2018-06-29 10:14:15.125000,-269.44,66.8
171621,2018-06-29 10:14:15.156250,-260.04,66.8
171622,2018-06-29 10:14:15.187500,-269.59,66.8
171623,2018-06-29 10:14:15.218750,-280.03,66.8
171624,2018-06-29 10:14:15.250000,-273.99,66.8
171625,2018-06-29 10:14:15.281250,-242.29,66.8
171626,2018-06-29 10:14:15.312500,-194.37,66.8
171627,2018-06-29 10:14:15.343750,-148.62,66.8
171628,2018-06-29 10:14:15.375000,-109.43,66.8
171629,2018-06-29 10:14:15.406250,-67.6,66.8
171630,2018-06-29 10:14:15.437500,-24.39,66.8
171631,2018-06-29 10:14:15.468750,0.26,66.8
171632,2018-06-29 10:14:15.500000,-9.85,66.8
171633,2018-06-29 10:14:15.531250,-46.75,66.95
171634,2018-06-29 10:14:15.562500,-86.76,66.95
171635,2018-06-29 10:14:15.593750,-111.57,66.95
171636,2018-06-29 10:14:15.625000,-114.03,66.95
171637,2018-06-29 10:14:15.656250,-93.57,66.95
171638,2018-06-29 10:14:15.687500,-60.6,66.95
171639,2018-06-29 10:14:15.718750,-38.03,66.95
171640,2018-06-29 10:14:15.750000,-41.47,66.95
171641,2018-06-29 10:14:15.781250,-63.45,66.95
171642,2018-06-29 10:14:15.812500,-86.89,66.95
171643,2018-06-29 10:14:15.843750,-101.82,66.95
171644,2018-06-29 10:14:15.875000,-102.53,66.95
171645,2018-06-29 10:14:15.906250,-86.29,66.95
171646,2018-06-29 10:14:15.937500,-62.1,66.95
171647,2018-06-29 10:14:15.968750,-45.56,66.95
171648,2018-06-29 10:14:16.000000,-40.64,66.95
171649,2018-06-29 10:14:16.031250,-38.67,66.95
171650,2018-06-29 10:14:16.062500,-36.25,66.95
171651,2018-06-29 10:14:16.093750,-41.26,66.95
171652,2018-06-29 10:14:16.125000,-56.81,66.95
171653,2018-06-29 10:14:16.156250,-68.37,66.95
171654,2018-06-29 10:14:16.187500,-55.17,66.95
171655,2018-06-29 10:14:16.218750,-11.94,66.95
171656,2018-06-29 10:14:16.250000,47.86,66.95
171657,2018-06-29 10:14:16.281250,107.86,66.95
171658,2018-06-29 10:14:16.312500,157.57,66.95
171659,2018-06-29 10:14:16.343750,187.83,66.95
171660,2018-06-29 10:14:16.375000,191.01,66.95
171661,2018-06-29 10:14:16.406250,168.43,66.95
171662,2018-06-29 10:14:16.437500,130.76,66.95
171663,2018-06-29 10:14:16.468750,90.21,66.95
171664,2018-06-29 10:14:16.500000,56.49,66.95
171665,2018-06-29 10:14:16.531250,36.58,67.07
171666,2018-06-29 10:14:16.562500,31.64,67.07
171667,2018-06-29 10:14:16.593750,35.33,67.07
171668,2018-06-29 10:14:16.625000,40.45,67.07
171669,2018-06-29 10:14:16.656250,45.45,67.07
171670,2018-06-29 10:14:16.687500,50.5,67.07
171671,2018-06-29 10:14:16.718750,52.33,67.07
171672,2018-06-29 10:14:16.750000,47.63,67.07
171673,2018-06-29 10:14:16.781250,34.96,67.07
171674,2018-06-29 10:14:16.812500,12.46,67.07
171675,2018-06-29 10:14:16.843750,-17.86,67.07
171676,2018-06-29 10:14:16.875000,-46.83,67.07
171677,2018-06-29 10:14:16.906250,-69.65,67.07
171678,2018-06-29 10:14:16.937500,-91.93,67.07
171679,2018-06-29 10:14:16.968750,-114.28,67.07
171680,2018-06-29 10:14:17.000000,-127.6,67.07
171681,2018-06-29 10:14:17.031250,-131.18,67.07
171682,2018-06-29 10:14:17.062500,-132.85,67.07
171683,2018-06-29 10:14:17.093750,-127.33,67.07
171684,2018-06-29 10:14:17.125000,-99.92,67.07
171685,2018-06-29 10:14:17.156250,-52.23,67.07
171686,2018-06-29 10:14:17.187500,-2.46,67.07
171687,2018-06-29 10:14:17.218750,36.74,67.07
171688,2018-06-29 10:14:17.250000,64.9,67.07
171689,2018-06-29 10:14:17.281250,84.02,67.07
171690,2018-06-29 10:14:17.312500,97.12,67.07
171691,2018-06-29 10:14:17.343750,110.4,67.07
171692,2018-06-29 10:14:17.375000,126.62,67.07
171693,2018-06-29 10:14:17.406250,139.72,67.07
171694,2018-06-29 10:14:17.437500,144.47,67.07
171695,2018-06-29 10:14:17.468750,144.48,67.07
171696,2018-06-29 10:14:17.500000,142.18,67.07
171697,2018-06-29 10:14:17.531250,130.77,67.15
171698,2018-06-29 10:14:17.562500,105.95,67.15
171699,2018-06-29 10:14:17.593750,74.95,67.15
171700,2018-06-29 10:14:17.625000,46.36,67.15
171701,2018-06-29 10:14:17.656250,21.61,67.15
171702,2018-06-29 10:14:17.687500,1.0,67.15
171703,2018-06-29 10:14:17.718750,-13.24,67.15
171704,2018-06-29 10:14:17.750000,-22.52,67.15
171705,2018-06-29 10:14:17.781250,-32.35,67.15
171706,2018-06-29 10:14:17.812500,-45.71,67.15
171707,2018-06-29 10:14:17.843750,-58.7,67.15
171708,2018-06-29 10:14:17.875000,-61.83,67.15
171709,2018-06-29 10:14:17.906250,-45.05,67.15
171710,2018-06-29 10:14:17.937500,-8.08,67.15
171711,2018-06-29 10:14:17.968750,35.64,67.15
171712,2018-06-29 10:14:18.000000,71.1,67.15
171713,2018-06-29 10:14:18.031250,93.57,67.15
171714,2018-06-29 10:14:18.062500,103.9,67.15
171715,2018-06-29 10:14:18.093750,102.24,67.15
171716,2018-06-29 10:14:18.125000,93.14,67.15
171717,2018-06-29 10:14:18.156250,86.65,67.15
171718,2018-06-29 10:14:18.187500,87.67,67.15
171719,2018-06-29 10:14:18.218750,91.78,67.15
171720,2018-06-29 10:14:18.250000,93.22,67.15
171721,2018-06-29 10:14:18.281250,90.33,67.15
171722,2018-06-29 10:14:18.312500,83.32,67.15
171723,2018-06-29 10:14:18.343750,72.6,67.15
171724,2018-06-29 10:14:18.375000,59.02,67.15
171725,2018-06-29 10:14:18.406250,43.16,67.15
171726,2018-06-29 10:14:18.437500,25.49,67.15
171727,2018-06-29 10:14:18.468750,7.66,67.15
171728,2018-06-29 10:14:18.500000,-8.84,67.15
171729,2018-06-29 10:14:18.531250,-25.25,67.23
171730,2018-06-29 10:14:18.562500,-44.37,67.23
171731,2018-06-29 10:14:18.593750,-64.68,67.23
171732,2018-06-29 10:14:18.625000,-76.92,67.23
171733,2018-06-29 10:14:18.656250,-70.18,67.23
171734,2018-06-29 10:14:18.687500,-43.39,67.23
171735,2018-06-29 10:14:18.718750,-7.67,67.23
171736,2018-06-29 10:14:18.750000,24.71,67.23
171737,2018-06-29 10:14:18.781250,49.97,67.23
171738,2018-06-29 10:14:18.812500,68.9,67.23
171739,2018-06-29 10:14:18.843750,80.32,67.23
171740,2018-06-29 10:14:18.875000,83.69,67.23
171741,2018-06-29 10:14:18.906250,82.79,67.23
171742,2018-06-29 10:14:18.937500,80.89,67.23
171743,2018-06-29 10:14:18.968750,76.65,67.23
171744,2018-06-29 10:14:19.000000,68.86,67.23
171745,2018-06-29 10:14:19.031250,60.33,67.23
171746,2018-06-29 10:14:19.062500,53.78,67.23
171747,2018-06-29 10:14:19.093750,48.04,67.23
171748,2018-06-29 10:14:19.125000,39.86,67.23
171749,2018-06-29 10:14:19.156250,27.11,67.23
171750,2018-06-29 10:14:19.187500,10.44,67.23
171751,2018-06-29 10:14:19.218750,-7.89,67.23
171752,2018-06-29 10:14:19.250000,-26.62,67.23
171753,2018-06-29 10:14:19.281250,-45.74,67.23
171754,2018-06-29 10:14:19.312500,-64.05,67.23
171755,2018-06-29 10:14:19.343750,-76.47,67.23
171756,2018-06-29 10:14:19.375000,-74.1,67.23
171757,2018-06-29 10:14:19.406250,-51.7,67.23
171758,2018-06-29 10:14:19.437500,-16.12,67.23
171759,2018-06-29 10:14:19.468750,18.99,67.23
171760,2018-06-29 10:14:19.500000,46.25,67.23
171761,2018-06-29 10:14:19.531250,65.6,67.35
171762,2018-06-29 10:14:19.562500,76.58,67.35
171763,2018-06-29 10:14:19.593750,78.19,67.35
171764,2018-06-29 10:14:19.625000,73.56,67.35
171765,2018-06-29 10:14:19.656250,68.33,67.35
171766,2018-06-29 10:14:19.687500,65.14,67.35
171767,2018-06-29 10:14:19.718750,61.87,67.35
171768,2018-06-29 10:14:19.750000,55.68,67.35
171769,2018-06-29 10:14:19.781250,47.23,67.35
171770,2018-06-29 10:14:19.812500,39.18,67.35
171771,2018-06-29 10:14:19.843750,31.81,67.35
171772,2018-06-29 10:14:19.875000,23.22,67.35
171773,2018-06-29 10:14:19.906250,13.34,67.35
171774,2018-06-29 10:14:19.937500,3.93,67.35
171775,2018-06-29 10:14:19.968750,-4.98,67.35
171776,2018-06-29 10:14:20.000000,-15.77,67.35
171777,2018-06-29 10:14:20.031250,-30.83,67.35
171778,2018-06-29 10:14:20.062500,-50.09,67.35
171779,2018-06-29 10:14:20.093750,-67.92,67.35
171780,2018-06-29 10:14:20.125000,-72.97,67.35
171781,2018-06-29 10:14:20.156250,-57.76,67.35
171782,2018-06-29 10:14:20.187500,-28.31,67.35
171783,2018-06-29 10:14:20.218750,1.83,67.35
171784,2018-06-29 10:14:20.250000,24.28,67.35
171785,2018-06-29 10:14:20.281250,37.02,67.35
171786,2018-06-29 10:14:20.312500,39.56,67.35
171787,2018-06-29 10:14:20.343750,34.88,67.35
171788,2018-06-29 10:14:20.375000,30.42,67.35
171789,2018-06-29 10:14:20.406250,30.9,67.35
171790,2018-06-29 10:14:20.437500,33.84,67.35
171791,2018-06-29 10:14:20.468750,35.99,67.35
171792,2018-06-29 10:14:20.500000,38.42,67.35
171793,2018-06-29 10:14:20.531250,41.31,67.5
171794,2018-06-29 10:14:20.562500,39.78,67.5
171795,2018-06-29 10:14:20.593750,30.02,67.5
171796,2018-06-29 10:14:20.625000,15.19,67.5
171797,2018-06-29 10:14:20.656250,0.94,67.5
171798,2018-06-29 10:14:20.687500,-11.11,67.5
171799,2018-06-29 10:14:20.718750,-22.97,67.5
171800,2018-06-29 10:14:20.750000,-36.91,67.5
171801,2018-06-29 10:14:20.781250,-51.35,67.5
171802,2018-06-29 10:14:20.812500,-58.54,67.5
171803,2018-06-29 10:14:20.843750,-51.75,67.5
171804,2018-06-29 10:14:20.875000,-35.45,67.5
171805,2018-06-29 10:14:20.906250,-20.75,67.5
171806,2018-06-29 10:14:20.937500,-10.84,67.5
171807,2018-06-29 10:14:20.968750,0.4,67.5
171808,2018-06-29 10:14:21.000000,17.11,67.5
171809,2018-06-29 10:14:21.031250,36.33,67.5
171810,2018-06-29 10:14:21.062500,52.36,67.5
171811,2018-06-29 10:14:21.093750,61.17,67.5
171812,2018-06-29 10:14:21.125000,61.6,67.5
171813,2018-06-29 10:14:21.156250,55.48,67.5
171814,2018-06-29 10:14:21.187500,46.31,67.5
171815,2018-06-29 10:14:21.218750,36.86,67.5
171816,2018-06-29 10:14:21.250000,28.02,67.5
171817,2018-06-29 10:14:21.281250,19.21,67.5
171818,2018-06-29 10:14:21.312500,9.57,67.5
171819,2018-06-29 10:14:21.343750,-0.3,67.5
171820,2018-06-29 10:14:21.375000,-8.46,67.5
171821,2018-06-29 10:14:21.406250,-13.67,67.5
171822,2018-06-29 10:14:21.437500,-17.28,67.5
171823,2018-06-29 10:14:21.468750,-22.57,67.5
171824,2018-06-29 10:14:21.500000,-31.22,67.5
171825,2018-06-29 10:14:21.531250,-38.62,67.52
171826,2018-06-29 10:14:21.562500,-34.84,67.52
171827,2018-06-29 10:14:21.593750,-13.21,67.52
171828,2018-06-29 10:14:21.625000,20.31,67.52
171829,2018-06-29 10:14:21.656250,47.35,67.52
171830,2018-06-29 10:14:21.687500,50.67,67.52
171831,2018-06-29 10:14:21.718750,29.64,67.52
171832,2018-06-29 10:14:21.750000,-1.14,67.52
171833,2018-06-29 10:14:21.781250,-26.89,67.52
171834,2018-06-29 10:14:21.812500,-40.15,67.52
171835,2018-06-29 10:14:21.843750,-36.83,67.52
171836,2018-06-29 10:14:21.875000,-16.15,67.52
171837,2018-06-29 10:14:21.906250,13.94,67.52
171838,2018-06-29 10:14:21.937500,37.65,67.52
171839,2018-06-29 10:14:21.968750,40.52,67.52
171840,2018-06-29 10:14:22.000000,18.56,67.52
171841,2018-06-29 10:14:22.031250,-19.31,67.52
171842,2018-06-29 10:14:22.062500,-57.14,67.52
171843,2018-06-29 10:14:22.093750,-82.29,67.52
171844,2018-06-29 10:14:22.125000,-91.35,67.52
171845,2018-06-29 10:14:22.156250,-87.66,67.52
171846,2018-06-29 10:14:22.187500,-76.02,67.52
171847,2018-06-29 10:14:22.218750,-60.94,67.52
171848,2018-06-29 10:14:22.250000,-46.92,67.52
171849,2018-06-29 10:14:22.281250,-37.82,67.52
171850,2018-06-29 10:14:22.312500,-34.48,67.52
171851,2018-06-29 10:14:22.343750,-31.37,67.52
171852,2018-06-29 10:14:22.375000,-19.62,67.52
171853,2018-06-29 10:14:22.406250,2.79,67.52
171854,2018-06-29 10:14:22.437500,27.63,67.52
171855,2018-06-29 10:14:22.468750,46.83,67.52
171856,2018-06-29 10:14:22.500000,59.84,67.52
171857,2018-06-29 10:14:22.531250,67.74,67.5
171858,2018-06-29 10:14:22.562500,68.29,67.5
171859,2018-06-29 10:14:22.593750,61.36,67.5
171860,2018-06-29 10:14:22.625000,52.02,67.5
171861,2018-06-29 10:14:22.656250,44.73,67.5
171862,2018-06-29 10:14:22.687500,39.43,67.5
171863,2018-06-29 10:14:22.718750,34.87,67.5
171864,2018-06-29 10:14:22.750000,30.49,67.5
171865,2018-06-29 10:14:22.781250,23.91,67.5
171866,2018-06-29 10:14:22.812500,12.6,67.5
171867,2018-06-29 10:14:22.843750,-0.9,67.5
171868,2018-06-29 10:14:22.875000,-10.63,67.5
171869,2018-06-29 10:14:22.906250,-15.14,67.5
171870,2018-06-29 10:14:22.937500,-18.84,67.5
171871,2018-06-29 10:14:22.968750,-25.52,67.5
171872,2018-06-29 10:14:23.000000,-34.26,67.5
171873,2018-06-29 10:14:23.031250,-42.62,67.5
171874,2018-06-29 10:14:23.062500,-50.13,67.5
171875,2018-06-29 10:14:23.093750,-58.34,67.5
171876,2018-06-29 10:14:23.125000,-68.55,67.5
171877,2018-06-29 10:14:23.156250,-79.17,67.5
171878,2018-06-29 10:14:23.187500,-83.9,67.5
171879,2018-06-29 10:14:23.218750,-75.53,67.5
171880,2018-06-29 10:14:23.250000,-54.18,67.5
171881,2018-06-29 10:14:23.281250,-28.46,67.5
171882,2018-06-29 10:14:23.312500,-6.73,67.5
171883,2018-06-29 10:14:23.343750,8.85,67.5
171884,2018-06-29 10:14:23.375000,18.98,67.5
171885,2018-06-29 10:14:23.406250,23.56,67.5
171886,2018-06-29 10:14:23.437500,23.82,67.5
171887,2018-06-29 10:14:23.468750,23.17,67.5
171888,2018-06-29 10:14:23.500000,23.76,67.5
171889,2018-06-29 10:14:23.531250,24.34,67.53
171890,2018-06-29 10:14:23.562500,23.29,67.53
171891,2018-06-29 10:14:23.593750,20.99,67.53
171892,2018-06-29 10:14:23.625000,18.05,67.53
171893,2018-06-29 10:14:23.656250,13.51,67.53
171894,2018-06-29 10:14:23.687500,6.62,67.53
171895,2018-06-29 10:14:23.718750,-0.94,67.53
171896,2018-06-29 10:14:23.750000,-7.11,67.53
171897,2018-06-29 10:14:23.781250,-12.9,67.53
171898,2018-06-29 10:14:23.812500,-20.65,67.53
171899,2018-06-29 10:14:23.843750,-29.61,67.53
171900,2018-06-29 10:14:23.875000,-37.07,67.53
171901,2018-06-29 10:14:23.906250,-43.24,67.53
171902,2018-06-29 10:14:23.937500,-51.37,67.53
171903,2018-06-29 10:14:23.968750,-63.44,67.53
171904,2018-06-29 10:14:24.000000,-76.84,67.53
171905,2018-06-29 10:14:24.031250,-83.88,67.53
171906,2018-06-29 10:14:24.062500,-77.06,67.53
171907,2018-06-29 10:14:24.093750,-57.58,67.53
171908,2018-06-29 10:14:24.125000,-34.69,67.53
171909,2018-06-29 10:14:24.156250,-15.88,67.53
171910,2018-06-29 10:14:24.187500,-2.02,67.53
171911,2018-06-29 10:14:24.218750,8.17,67.53
171912,2018-06-29 10:14:24.250000,14.16,67.53
171913,2018-06-29 10:14:24.281250,15.37,67.53
171914,2018-06-29 10:14:24.312500,14.6,67.53
171915,2018-06-29 10:14:24.343750,16.51,67.53
171916,2018-06-29 10:14:24.375000,21.94,67.53
171917,2018-06-29 10:14:24.406250,27.71,67.53
171918,2018-06-29 10:14:24.437500,32.33,67.53
171919,2018-06-29 10:14:24.468750,36.71,67.53
171920,2018-06-29 10:14:24.500000,39.72,67.53
171921,2018-06-29 10:14:24.531250,38.74,67.57
171922,2018-06-29 10:14:24.562500,33.99,67.57
171923,2018-06-29 10:14:24.593750,27.89,67.57
171924,2018-06-29 10:14:24.625000,21.15,67.57
171925,2018-06-29 10:14:24.656250,12.71,67.57
171926,2018-06-29 10:14:24.687500,2.98,67.57
171927,2018-06-29 10:14:24.718750,-5.93,67.57
171928,2018-06-29 10:14:24.750000,-13.22,67.57
171929,2018-06-29 10:14:24.781250,-20.72,67.57
171930,2018-06-29 10:14:24.812500,-30.92,67.57
171931,2018-06-29 10:14:24.843750,-44.29,67.57
171932,2018-06-29 10:14:24.875000,-57.1,67.57
171933,2018-06-29 10:14:24.906250,-61.46,67.57
171934,2018-06-29 10:14:24.937500,-51.22,67.57
171935,2018-06-29 10:14:24.968750,-28.52,67.57
171936,2018-06-29 10:14:25.000000,-1.74,67.57
171937,2018-06-29 10:14:25.031250,22.0,67.57
171938,2018-06-29 10:14:25.062500,39.76,67.57
171939,2018-06-29 10:14:25.093750,50.55,67.57
171940,2018-06-29 10:14:25.125000,54.11,67.57
171941,2018-06-29 10:14:25.156250,52.23,67.57
171942,2018-06-29 10:14:25.187500,47.76,67.57
171943,2018-06-29 10:14:25.218750,41.45,67.57
171944,2018-06-29 10:14:25.250000,32.74,67.57
171945,2018-06-29 10:14:25.281250,23.72,67.57
171946,2018-06-29 10:14:25.312500,18.29,67.57
171947,2018-06-29 10:14:25.343750,17.44,67.57
171948,2018-06-29 10:14:25.375000,18.91,67.57
171949,2018-06-29 10:14:25.406250,20.42,67.57
171950,2018-06-29 10:14:25.437500,19.67,67.57
171951,2018-06-29 10:14:25.468750,13.34,67.57
171952,2018-06-29 10:14:25.500000,-1.54,67.57
171953,2018-06-29 10:14:25.531250,-24.25,67.6
171954,2018-06-29 10:14:25.562500,-49.47,67.6
171955,2018-06-29 10:14:25.593750,-72.6,67.6
171956,2018-06-29 10:14:25.625000,-94.68,67.6
171957,2018-06-29 10:14:25.656250,-118.64,67.6
171958,2018-06-29 10:14:25.687500,-143.86,67.6
171959,2018-06-29 10:14:25.718750,-165.45,67.6
171960,2018-06-29 10:14:25.750000,-172.67,67.6
171961,2018-06-29 10:14:25.781250,-153.08,67.6
171962,2018-06-29 10:14:25.812500,-107.58,67.6
171963,2018-06-29 10:14:25.843750,-52.57,67.6
171964,2018-06-29 10:14:25.875000,-1.17,67.6
171965,2018-06-29 10:14:25.906250,45.03,67.6
171966,2018-06-29 10:14:25.937500,84.83,67.6
171967,2018-06-29 10:14:25.968750,114.31,67.6
171968,2018-06-29 10:14:26.000000,135.09,67.6
171969,2018-06-29 10:14:26.031250,152.3,67.6
171970,2018-06-29 10:14:26.062500,165.31,67.6
171971,2018-06-29 10:14:26.093750,168.98,67.6
171972,2018-06-29 10:14:26.125000,162.84,67.6
171973,2018-06-29 10:14:26.156250,151.67,67.6
171974,2018-06-29 10:14:26.187500,139.04,67.6
171975,2018-06-29 10:14:26.218750,125.61,67.6
171976,2018-06-29 10:14:26.250000,112.73,67.6
171977,2018-06-29 10:14:26.281250,104.0,67.6
171978,2018-06-29 10:14:26.312500,102.22,67.6
171979,2018-06-29 10:14:26.343750,106.44,67.6
171980,2018-06-29 10:14:26.375000,113.65,67.6
171981,2018-06-29 10:14:26.406250,123.07,67.6
171982,2018-06-29 10:14:26.437500,135.54,67.6
171983,2018-06-29 10:14:26.468750,148.96,67.6
171984,2018-06-29 10:14:26.500000,159.27,67.6
171985,2018-06-29 10:14:26.531250,168.19,67.63
171986,2018-06-29 10:14:26.562500,183.63,67.63
171987,2018-06-29 10:14:26.593750,206.54,67.63
171988,2018-06-29 10:14:26.625000,223.17,67.63
171989,2018-06-29 10:14:26.656250,217.1,67.63
171990,2018-06-29 10:14:26.687500,183.35,67.63
171991,2018-06-29 10:14:26.718750,127.77,67.63
171992,2018-06-29 10:14:26.750000,61.58,67.63
171993,2018-06-29 10:14:26.781250,-0.64,67.63
171994,2018-06-29 10:14:26.812500,-46.37,67.63
171995,2018-06-29 10:14:26.843750,-72.9,67.63
171996,2018-06-29 10:14:26.875000,-87.8,67.63
171997,2018-06-29 10:14:26.906250,-100.87,67.63
171998,2018-06-29 10:14:26.937500,-118.23,67.63
171999,2018-06-29 10:14:26.968750,-141.89,67.63
172000,2018-06-29 10:14:27.000000,-166.15,67.63
172001,2018-06-29 10:14:27.031250,-176.24,67.63
172002,2018-06-29 10:14:27.062500,-161.51,67.63
172003,2018-06-29 10:14:27.093750,-129.68,67.63
172004,2018-06-29 10:14:27.125000,-95.66,67.63
172005,2018-06-29 10:14:27.156250,-65.4,67.63
172006,2018-06-29 10:14:27.187500,-42.46,67.63
172007,2018-06-29 10:14:27.218750,-34.24,67.63
172008,2018-06-29 10:14:27.250000,-39.12,67.63
172009,2018-06-29 10:14:27.281250,-43.99,67.63
172010,2018-06-29 10:14:27.312500,-42.71,67.63
172011,2018-06-29 10:14:27.343750,-40.04,67.63
172012,2018-06-29 10:14:27.375000,-39.42,67.63
172013,2018-06-29 10:14:27.406250,-47.69,67.63
172014,2018-06-29 10:14:27.437500,-82.48,67.63
172015,2018-06-29 10:14:27.468750,-149.53,67.63
172016,2018-06-29 10:14:27.500000,-225.54,67.63
172017,2018-06-29 10:14:27.531250,-285.72,67.72
172018,2018-06-29 10:14:27.562500,-332.25,67.72
172019,2018-06-29 10:14:27.593750,-380.08,67.72
172020,2018-06-29 10:14:27.625000,-432.73,67.72
172021,2018-06-29 10:14:27.656250,-472.47,67.72
172022,2018-06-29 10:14:27.687500,-461.34,67.72
172023,2018-06-29 10:14:27.718750,-373.59,67.72
172024,2018-06-29 10:14:27.750000,-237.76,67.72
172025,2018-06-29 10:14:27.781250,-116.69,67.72
172026,2018-06-29 10:14:27.812500,-43.23,67.72
172027,2018-06-29 10:14:27.843750,-3.98,67.72
172028,2018-06-29 10:14:27.875000,23.03,67.72
172029,2018-06-29 10:14:27.906250,46.56,67.72
172030,2018-06-29 10:14:27.937500,68.42,67.72
172031,2018-06-29 10:14:27.968750,85.62,67.72
172032,2018-06-29 10:14:28.000000,89.71,67.72
172033,2018-06-29 10:14:28.031250,76.86,67.72
172034,2018-06-29 10:14:28.062500,55.0,67.72
172035,2018-06-29 10:14:28.093750,31.08,67.72
172036,2018-06-29 10:14:28.125000,-0.94,67.72
172037,2018-06-29 10:14:28.156250,-45.54,67.72
172038,2018-06-29 10:14:28.187500,-84.37,67.72
172039,2018-06-29 10:14:28.218750,-89.12,67.72
172040,2018-06-29 10:14:28.250000,-56.39,67.72
172041,2018-06-29 10:14:28.281250,-10.64,67.72
172042,2018-06-29 10:14:28.312500,27.01,67.72
172043,2018-06-29 10:14:28.343750,53.94,67.72
172044,2018-06-29 10:14:28.375000,72.9,67.72
172045,2018-06-29 10:14:28.406250,85.53,67.72
172046,2018-06-29 10:14:28.437500,95.66,67.72
172047,2018-06-29 10:14:28.468750,103.99,67.72
172048,2018-06-29 10:14:28.500000,104.75,67.72
172049,2018-06-29 10:14:28.531250,95.83,67.77
172050,2018-06-29 10:14:28.562500,83.77,67.77
172051,2018-06-29 10:14:28.593750,73.95,67.77
172052,2018-06-29 10:14:28.625000,64.3,67.77
172053,2018-06-29 10:14:28.656250,50.77,67.77
172054,2018-06-29 10:14:28.687500,33.35,67.77
172055,2018-06-29 10:14:28.718750,15.54,67.77
172056,2018-06-29 10:14:28.750000,-0.01,67.77
172057,2018-06-29 10:14:28.781250,-13.8,67.77
172058,2018-06-29 10:14:28.812500,-27.45,67.77
172059,2018-06-29 10:14:28.843750,-40.94,67.77
172060,2018-06-29 10:14:28.875000,-53.39,67.77
172061,2018-06-29 10:14:28.906250,-65.29,67.77
172062,2018-06-29 10:14:28.937500,-78.51,67.77
172063,2018-06-29 10:14:28.968750,-95.11,67.77
172064,2018-06-29 10:14:29.000000,-114.1,67.77
172065,2018-06-29 10:14:29.031250,-126.28,67.77
172066,2018-06-29 10:14:29.062500,-117.77,67.77
172067,2018-06-29 10:14:29.093750,-84.92,67.77
172068,2018-06-29 10:14:29.125000,-40.22,67.77
172069,2018-06-29 10:14:29.156250,1.4,67.77
172070,2018-06-29 10:14:29.187500,35.41,67.77
172071,2018-06-29 10:14:29.218750,63.65,67.77
172072,2018-06-29 10:14:29.250000,85.37,67.77
172073,2018-06-29 10:14:29.281250,98.01,67.77
172074,2018-06-29 10:14:29.312500,103.26,67.77
172075,2018-06-29 10:14:29.343750,105.97,67.77
172076,2018-06-29 10:14:29.375000,108.29,67.77
172077,2018-06-29 10:14:29.406250,109.7,67.77
172078,2018-06-29 10:14:29.437500,110.27,67.77
172079,2018-06-29 10:14:29.468750,108.87,67.77
172080,2018-06-29 10:14:29.500000,102.09,67.77
172081,2018-06-29 10:14:29.531250,89.59,67.83
172082,2018-06-29 10:14:29.562500,76.17,67.83
172083,2018-06-29 10:14:29.593750,65.79,67.83
172084,2018-06-29 10:14:29.625000,56.33,67.83
172085,2018-06-29 10:14:29.656250,43.07,67.83
172086,2018-06-29 10:14:29.687500,25.45,67.83
172087,2018-06-29 10:14:29.718750,7.51,67.83
172088,2018-06-29 10:14:29.750000,-8.17,67.83
172089,2018-06-29 10:14:29.781250,-24.35,67.83
172090,2018-06-29 10:14:29.812500,-45.83,67.83
172091,2018-06-29 10:14:29.843750,-72.24,67.83
172092,2018-06-29 10:14:29.875000,-92.95,67.83
172093,2018-06-29 10:14:29.906250,-92.71,67.83
172094,2018-06-29 10:14:29.937500,-67.74,67.83
172095,2018-06-29 10:14:29.968750,-31.51,67.83
172096,2018-06-29 10:14:30.000000,1.13,67.83
172097,2018-06-29 10:14:30.031250,27.67,67.83
172098,2018-06-29 10:14:30.062500,50.85,67.83
172099,2018-06-29 10:14:30.093750,68.84,67.83
172100,2018-06-29 10:14:30.125000,79.07,67.83
172101,2018-06-29 10:14:30.156250,83.06,67.83
172102,2018-06-29 10:14:30.187500,83.32,67.83
172103,2018-06-29 10:14:30.218750,80.98,67.83
172104,2018-06-29 10:14:30.250000,78.2,67.83
172105,2018-06-29 10:14:30.281250,77.52,67.83
172106,2018-06-29 10:14:30.312500,77.68,67.83
172107,2018-06-29 10:14:30.343750,74.11,67.83
172108,2018-06-29 10:14:30.375000,65.53,67.83
172109,2018-06-29 10:14:30.406250,55.89,67.83
172110,2018-06-29 10:14:30.437500,48.39,67.83
172111,2018-06-29 10:14:30.468750,41.05,67.83
172112,2018-06-29 10:14:30.500000,30.28,67.83
172113,2018-06-29 10:14:30.531250,16.27,67.95
172114,2018-06-29 10:14:30.562500,2.3,67.95
172115,2018-06-29 10:14:30.593750,-9.85,67.95
172116,2018-06-29 10:14:30.625000,-22.0,67.95
172117,2018-06-29 10:14:30.656250,-36.51,67.95
172118,2018-06-29 10:14:30.687500,-50.71,67.95
172119,2018-06-29 10:14:30.718750,-55.55,67.95
172120,2018-06-29 10:14:30.750000,-42.61,67.95
172121,2018-06-29 10:14:30.781250,-12.96,67.95
172122,2018-06-29 10:14:30.812500,22.85,67.95
172123,2018-06-29 10:14:30.843750,53.55,67.95
172124,2018-06-29 10:14:30.875000,74.93,67.95
172125,2018-06-29 10:14:30.906250,88.37,67.95
172126,2018-06-29 10:14:30.937500,93.18,67.95
172127,2018-06-29 10:14:30.968750,86.88,67.95
172128,2018-06-29 10:14:31.000000,74.1,67.95
172129,2018-06-29 10:14:31.031250,66.26,67.95
172130,2018-06-29 10:14:31.062500,69.32,67.95
172131,2018-06-29 10:14:31.093750,79.09,67.95
172132,2018-06-29 10:14:31.125000,88.13,67.95
172133,2018-06-29 10:14:31.156250,89.59,67.95
172134,2018-06-29 10:14:31.187500,78.34,67.95
172135,2018-06-29 10:14:31.218750,55.3,67.95
172136,2018-06-29 10:14:31.250000,26.67,67.95
172137,2018-06-29 10:14:31.281250,-4.48,67.95
172138,2018-06-29 10:14:31.312500,-36.89,67.95
172139,2018-06-29 10:14:31.343750,-61.9,67.95
172140,2018-06-29 10:14:31.375000,-68.77,67.95
172141,2018-06-29 10:14:31.406250,-59.78,67.95
172142,2018-06-29 10:14:31.437500,-47.62,67.95
172143,2018-06-29 10:14:31.468750,-38.48,67.95
172144,2018-06-29 10:14:31.500000,-27.4,67.95
172145,2018-06-29 10:14:31.531250,-8.3,68.07
172146,2018-06-29 10:14:31.562500,18.58,68.07
172147,2018-06-29 10:14:31.593750,47.93,68.07
172148,2018-06-29 10:14:31.625000,74.07,68.07
172149,2018-06-29 10:14:31.656250,93.29,68.07
172150,2018-06-29 10:14:31.687500,102.14,68.07
172151,2018-06-29 10:14:31.718750,96.69,68.07
172152,2018-06-29 10:14:31.750000,78.19,68.07
172153,2018-06-29 10:14:31.781250,56.44,68.07
172154,2018-06-29 10:14:31.812500,41.36,68.07
172155,2018-06-29 10:14:31.843750,32.11,68.07
172156,2018-06-29 10:14:31.875000,19.52,68.07
172157,2018-06-29 10:14:31.906250,-2.66,68.07
172158,2018-06-29 10:14:31.937500,-32.84,68.07
172159,2018-06-29 10:14:31.968750,-64.36,68.07
172160,2018-06-29 10:14:32.000000,-89.04,68.07
172161,2018-06-29 10:14:32.031250,-101.48,68.07
172162,2018-06-29 10:14:32.062500,-102.91,68.07
172163,2018-06-29 10:14:32.093750,-97.59,68.07
172164,2018-06-29 10:14:32.125000,-87.05,68.07
172165,2018-06-29 10:14:32.156250,-74.5,68.07
172166,2018-06-29 10:14:32.187500,-68.96,68.07
172167,2018-06-29 10:14:32.218750,-75.79,68.07
172168,2018-06-29 10:14:32.250000,-88.61,68.07
172169,2018-06-29 10:14:32.281250,-94.77,68.07
172170,2018-06-29 10:14:32.312500,-83.51,68.07
172171,2018-06-29 10:14:32.343750,-51.74,68.07
172172,2018-06-29 10:14:32.375000,-7.6,68.07
172173,2018-06-29 10:14:32.406250,36.31,68.07
172174,2018-06-29 10:14:32.437500,73.94,68.07
172175,2018-06-29 10:14:32.468750,104.74,68.07
172176,2018-06-29 10:14:32.500000,126.7,68.07
172177,2018-06-29 10:14:32.531250,135.99,68.23
172178,2018-06-29 10:14:32.562500,130.76,68.23
172179,2018-06-29 10:14:32.593750,112.66,68.23
172180,2018-06-29 10:14:32.625000,84.74,68.23
172181,2018-06-29 10:14:32.656250,48.46,68.23
172182,2018-06-29 10:14:32.687500,5.8,68.23
172183,2018-06-29 10:14:32.718750,-35.51,68.23
172184,2018-06-29 10:14:32.750000,-64.83,68.23
172185,2018-06-29 10:14:32.781250,-77.26,68.23
172186,2018-06-29 10:14:32.812500,-77.41,68.23
172187,2018-06-29 10:14:32.843750,-75.87,68.23
172188,2018-06-29 10:14:32.875000,-83.1,68.23
172189,2018-06-29 10:14:32.906250,-104.23,68.23
172190,2018-06-29 10:14:32.937500,-136.13,68.23
172191,2018-06-29 10:14:32.968750,-168.81,68.23
