,Time,ppg,hr
176000,2018-06-29 10:16:32.000000,-83.32,68.67
176001,2018-06-29 10:16:32.031250,-63.6,68.67
176002,2018-06-29 10:16:32.062500,-44.21,68.67
176003,2018-06-29 10:16:32.093750,-25.06,68.67
176004,2018-06-29 10:16:32.125000,-5.74,68.67
176005,2018-06-29 10:16:32.156250,13.13,68.67
176006,2018-06-29 10:16:32.187500,30.41,68.67
176007,2018-06-29 10:16:32.218750,44.45,68.67
176008,2018-06-29 10:16:32.250000,54.18,68.67
176009,2018-06-29 10:16:32.281250,60.27,68.67
176010,2018-06-29 10:16:32.312500,64.54,68.67
176011,2018-06-29 10:16:32.343750,67.57,68.67
176012,2018-06-29 10:16:32.375000,68.05,68.67
176013,2018-06-29 10:16:32.406250,64.76,68.67
176014,2018-06-29 10:16:32.437500,58.2,68.67
176015,2018-06-29 10:16:32.468750,49.77,68.67
176016,2018-06-29 10:16:32.500000,40.89,68.67
176017,2018-06-29 10:16:32.531250,32.92,68.63
176018,2018-06-29 10:16:32.562500,26.38,68.63
176019,2018-06-29 10:16:32.593750,19.93,68.63
176020,2018-06-29 10:16:32.625000,11.59,68.63
176021,2018-06-29 10:16:32.656250,0.86,68.63
176022,2018-06-29 10:16:32.687500,-10.9,68.63
176023,2018-06-29 10:16:32.718750,-21.51,68.63
176024,2018-06-29 10:16:32.750000,-29.87,68.63
176025,2018-06-29 10:16:32.781250,-38.15,68.63
176026,2018-06-29 10:16:32.812500,-50.14,68.63
176027,2018-06-29 10:16:32.843750,-64.75,68.63
176028,2018-06-29 10:16:32.875000,-72.92,68.63
176029,2018-06-29 10:16:32.906250,-65.93,68.63
176030,2018-06-29 10:16:32.937500,-45.85,68.63
176031,2018-06-29 10:16:32.968750,-22.85,68.63
176032,2018-06-29 10:16:33.000000,-4.17,68.63
176033,2018-06-29 10:16:33.031250,9.39,68.63
176034,2018-06-29 10:16:33.062500,19.0,68.63
176035,2018-06-29 10:16:33.093750,25.23,68.63
176036,2018-06-29 10:16:33.125000,28.7,68.63
176037,2018-06-29 10:16:33.156250,30.43,68.63
176038,2018-06-29 10:16:33.187500,31.46,68.63
176039,2018-06-29 10:16:33.218750,32.38,68.63
176040,2018-06-29 10:16:33.250000,33.52,68.63
176041,2018-06-29 10:16:33.281250,34.6,68.63
176042,2018-06-29 10:16:33.312500,33.97,68.63
176043,2018-06-29 10:16:33.343750,30.35,68.63
176044,2018-06-29 10:16:33.375000,25.11,68.63
176045,2018-06-29 10:16:33.406250,20.67,68.63
176046,2018-06-29 10:16:33.437500,17.26,68.63
176047,2018-06-29 10:16:33.468750,13.19,68.63
176048,2018-06-29 10:16:33.500000,7.57,68.63
176049,2018-06-29 10:16:33.531250,1.63,68.53
176050,2018-06-29 10:16:33.562500,-3.04,68.53
176051,2018-06-29 10:16:33.593750,-6.89,68.53
176052,2018-06-29 10:16:33.625000,-11.3,68.53
176053,2018-06-29 10:16:33.656250,-16.3,68.53
176054,2018-06-29 10:16:33.687500,-21.57,68.53
176055,2018-06-29 10:16:33.718750,-28.27,68.53
176056,2018-06-29 10:16:33.750000,-38.18,68.53
176057,2018-06-29 10:16:33.781250,-50.63,68.53
176058,2018-06-29 10:16:33.812500,-60.0,68.53
176059,2018-06-29 10:16:33.843750,-57.69,68.53
176060,2018-06-29 10:16:33.875000,-40.8,68.53
176061,2018-06-29 10:16:33.906250,-16.87,68.53
176062,2018-06-29 10:16:33.937500,4.3,68.53
176063,2018-06-29 10:16:33.968750,19.34,68.53
176064,2018-06-29 10:16:34.000000,28.78,68.53
176065,2018-06-29 10:16:34.031250,32.52,68.53
176066,2018-06-29 10:16:34.062500,31.64,68.53
176067,2018-06-29 10:16:34.093750,29.94,68.53
176068,2018-06-29 10:16:34.125000,30.36,68.53
176069,2018-06-29 10:16:34.156250,32.43,68.53
176070,2018-06-29 10:16:34.187500,34.36,68.53
176071,2018-06-29 10:16:34.218750,35.36,68.53
176072,2018-06-29 10:16:34.250000,35.37,68.53
176073,2018-06-29 10:16:34.281250,34.29,68.53
176074,2018-06-29 10:16:34.312500,32.43,68.53
176075,2018-06-29 10:16:34.343750,29.89,68.53
176076,2018-06-29 10:16:34.375000,25.83,68.53
176077,2018-06-29 10:16:34.406250,19.83,68.53
176078,2018-06-29 10:16:34.437500,13.15,68.53
176079,2018-06-29 10:16:34.468750,6.84,68.53
176080,2018-06-29 10:16:34.500000,0.23,68.53
176081,2018-06-29 10:16:34.531250,-7.41,68.42
176082,2018-06-29 10:16:34.562500,-15.55,68.42
176083,2018-06-29 10:16:34.593750,-23.51,68.42
176084,2018-06-29 10:16:34.625000,-31.09,68.42
176085,2018-06-29 10:16:34.656250,-38.37,68.42
176086,2018-06-29 10:16:34.687500,-46.29,68.42
176087,2018-06-29 10:16:34.718750,-53.9,68.42
176088,2018-06-29 10:16:34.750000,-54.73,68.42
176089,2018-06-29 10:16:34.781250,-42.08,68.42
176090,2018-06-29 10:16:34.812500,-18.83,68.42
176091,2018-06-29 10:16:34.843750,5.06,68.42
176092,2018-06-29 10:16:34.875000,24.1,68.42
176093,2018-06-29 10:16:34.906250,39.54,68.42
176094,2018-06-29 10:16:34.937500,51.48,68.42
176095,2018-06-29 10:16:34.968750,56.87,68.42
176096,2018-06-29 10:16:35.000000,56.12,68.42
176097,2018-06-29 10:16:35.031250,54.69,68.42
176098,2018-06-29 10:16:35.062500,55.91,68.42
176099,2018-06-29 10:16:35.093750,57.75,68.42
176100,2018-06-29 10:16:35.125000,57.92,68.42
176101,2018-06-29 10:16:35.156250,57.11,68.42
176102,2018-06-29 10:16:35.187500,55.93,68.42
176103,2018-06-29 10:16:35.218750,52.03,68.42
176104,2018-06-29 10:16:35.250000,42.31,68.42
176105,2018-06-29 10:16:35.281250,26.6,68.42
176106,2018-06-29 10:16:35.312500,7.41,68.42
176107,2018-06-29 10:16:35.343750,-12.77,68.42
176108,2018-06-29 10:16:35.375000,-31.72,68.42
176109,2018-06-29 10:16:35.406250,-46.84,68.42
176110,2018-06-29 10:16:35.437500,-57.68,68.42
176111,2018-06-29 10:16:35.468750,-66.68,68.42
176112,2018-06-29 10:16:35.500000,-75.24,68.42
176113,2018-06-29 10:16:35.531250,-82.64,68.28
176114,2018-06-29 10:16:35.562500,-89.48,68.28
176115,2018-06-29 10:16:35.593750,-96.73,68.28
176116,2018-06-29 10:16:35.625000,-99.82,68.28
176117,2018-06-29 10:16:35.656250,-91.14,68.28
176118,2018-06-29 10:16:35.687500,-70.82,68.28
176119,2018-06-29 10:16:35.718750,-47.78,68.28
176120,2018-06-29 10:16:35.750000,-28.6,68.28
176121,2018-06-29 10:16:35.781250,-13.51,68.28
176122,2018-06-29 10:16:35.812500,-2.81,68.28
176123,2018-06-29 10:16:35.843750,1.5,68.28
176124,2018-06-29 10:16:35.875000,1.32,68.28
176125,2018-06-29 10:16:35.906250,2.55,68.28
176126,2018-06-29 10:16:35.937500,8.5,68.28
176127,2018-06-29 10:16:35.968750,16.52,68.28
176128,2018-06-29 10:16:36.000000,22.62,68.28
176129,2018-06-29 10:16:36.031250,25.86,68.28
176130,2018-06-29 10:16:36.062500,26.27,68.28
176131,2018-06-29 10:16:36.093750,22.69,68.28
176132,2018-06-29 10:16:36.125000,15.46,68.28
176133,2018-06-29 10:16:36.156250,7.95,68.28
176134,2018-06-29 10:16:36.187500,2.89,68.28
176135,2018-06-29 10:16:36.218750,-0.21,68.28
176136,2018-06-29 10:16:36.250000,-3.01,68.28
176137,2018-06-29 10:16:36.281250,-5.81,68.28
176138,2018-06-29 10:16:36.312500,-7.85,68.28
176139,2018-06-29 10:16:36.343750,-9.32,68.28
176140,2018-06-29 10:16:36.375000,-12.63,68.28
176141,2018-06-29 10:16:36.406250,-20.6,68.28
176142,2018-06-29 10:16:36.437500,-32.19,68.28
176143,2018-06-29 10:16:36.468750,-40.17,68.28
176144,2018-06-29 10:16:36.500000,-35.94,68.28
176145,2018-06-29 10:16:36.531250,-18.55,68.15
176146,2018-06-29 10:16:36.562500,3.01,68.15
176147,2018-06-29 10:16:36.593750,18.31,68.15
176148,2018-06-29 10:16:36.625000,23.95,68.15
176149,2018-06-29 10:16:36.656250,22.48,68.15
176150,2018-06-29 10:16:36.687500,17.03,68.15
176151,2018-06-29 10:16:36.718750,10.71,68.15
176152,2018-06-29 10:16:36.750000,7.5,68.15
176153,2018-06-29 10:16:36.781250,8.37,68.15
176154,2018-06-29 10:16:36.812500,8.87,68.15
176155,2018-06-29 10:16:36.843750,5.11,68.15
176156,2018-06-29 10:16:36.875000,-0.19,68.15
176157,2018-06-29 10:16:36.906250,-1.44,68.15
176158,2018-06-29 10:16:36.937500,2.62,68.15
176159,2018-06-29 10:16:36.968750,8.33,68.15
176160,2018-06-29 10:16:37.000000,11.56,68.15
176161,2018-06-29 10:16:37.031250,11.07,68.15
176162,2018-06-29 10:16:37.062500,8.77,68.15
176163,2018-06-29 10:16:37.093750,6.79,68.15
176164,2018-06-29 10:16:37.125000,4.11,68.15
176165,2018-06-29 10:16:37.156250,-2.85,68.15
176166,2018-06-29 10:16:37.187500,-15.44,68.15
176167,2018-06-29 10:16:37.218750,-28.1,68.15
176168,2018-06-29 10:16:37.250000,-30.3,68.15
176169,2018-06-29 10:16:37.281250,-16.78,68.15
176170,2018-06-29 10:16:37.312500,6.09,68.15
176171,2018-06-29 10:16:37.343750,27.48,68.15
176172,2018-06-29 10:16:37.375000,41.95,68.15
176173,2018-06-29 10:16:37.406250,48.44,68.15
176174,2018-06-29 10:16:37.437500,46.27,68.15
176175,2018-06-29 10:16:37.468750,38.26,68.15
176176,2018-06-29 10:16:37.500000,31.31,68.15
176177,2018-06-29 10:16:37.531250,28.93,68.05
176178,2018-06-29 10:16:37.562500,27.73,68.05
176179,2018-06-29 10:16:37.593750,23.63,68.05
176180,2018-06-29 10:16:37.625000,16.61,68.05
176181,2018-06-29 10:16:37.656250,8.44,68.05
176182,2018-06-29 10:16:37.687500,-0.47,68.05
176183,2018-06-29 10:16:37.718750,-10.65,68.05
176184,2018-06-29 10:16:37.750000,-21.94,68.05
176185,2018-06-29 10:16:37.781250,-33.0,68.05
176186,2018-06-29 10:16:37.812500,-42.57,68.05
176187,2018-06-29 10:16:37.843750,-50.65,68.05
176188,2018-06-29 10:16:37.875000,-58.38,68.05
176189,2018-06-29 10:16:37.906250,-67.87,68.05
176190,2018-06-29 10:16:37.937500,-80.0,68.05
176191,2018-06-29 10:16:37.968750,-89.34,68.05
176192,2018-06-29 10:16:38.000000,-85.68,68.05
176193,2018-06-29 10:16:38.031250,-65.42,68.05
176194,2018-06-29 10:16:38.062500,-37.12,68.05
176195,2018-06-29 10:16:38.093750,-11.63,68.05
176196,2018-06-29 10:16:38.125000,7.85,68.05
176197,2018-06-29 10:16:38.156250,22.22,68.05
176198,2018-06-29 10:16:38.187500,31.2,68.05
176199,2018-06-29 10:16:38.218750,36.45,68.05
176200,2018-06-29 10:16:38.250000,43.31,68.05
176201,2018-06-29 10:16:38.281250,54.34,68.05
176202,2018-06-29 10:16:38.312500,65.16,68.05
176203,2018-06-29 10:16:38.343750,70.35,68.05
176204,2018-06-29 10:16:38.375000,69.95,68.05
176205,2018-06-29 10:16:38.406250,66.91,68.05
176206,2018-06-29 10:16:38.437500,61.45,68.05
176207,2018-06-29 10:16:38.468750,51.73,68.05
176208,2018-06-29 10:16:38.500000,38.12,68.05
176209,2018-06-29 10:16:38.531250,23.51,67.97
176210,2018-06-29 10:16:38.562500,10.38,67.97
176211,2018-06-29 10:16:38.593750,-0.92,67.97
176212,2018-06-29 10:16:38.625000,-11.6,67.97
176213,2018-06-29 10:16:38.656250,-23.33,67.97
176214,2018-06-29 10:16:38.687500,-36.66,67.97
176215,2018-06-29 10:16:38.718750,-48.5,67.97
176216,2018-06-29 10:16:38.750000,-51.7,67.97
176217,2018-06-29 10:16:38.781250,-40.73,67.97
176218,2018-06-29 10:16:38.812500,-18.7,67.97
176219,2018-06-29 10:16:38.843750,4.33,67.97
176220,2018-06-29 10:16:38.875000,20.73,67.97
176221,2018-06-29 10:16:38.906250,29.84,67.97
176222,2018-06-29 10:16:38.937500,34.28,67.97
176223,2018-06-29 10:16:38.968750,35.87,67.97
176224,2018-06-29 10:16:39.000000,35.99,67.97
176225,2018-06-29 10:16:39.031250,36.43,67.97
176226,2018-06-29 10:16:39.062500,37.75,67.97
176227,2018-06-29 10:16:39.093750,38.1,67.97
176228,2018-06-29 10:16:39.125000,35.49,67.97
176229,2018-06-29 10:16:39.156250,29.62,67.97
176230,2018-06-29 10:16:39.187500,21.14,67.97
176231,2018-06-29 10:16:39.218750,11.39,67.97
176232,2018-06-29 10:16:39.250000,2.67,67.97
176233,2018-06-29 10:16:39.281250,-4.27,67.97
176234,2018-06-29 10:16:39.312500,-11.94,67.97
176235,2018-06-29 10:16:39.343750,-22.36,67.97
176236,2018-06-29 10:16:39.375000,-34.02,67.97
176237,2018-06-29 10:16:39.406250,-44.26,67.97
176238,2018-06-29 10:16:39.437500,-52.7,67.97
176239,2018-06-29 10:16:39.468750,-61.61,67.97
176240,2018-06-29 10:16:39.500000,-72.03,67.97
176241,2018-06-29 10:16:39.531250,-78.32,67.88
176242,2018-06-29 10:16:39.562500,-70.83,67.88
176243,2018-06-29 10:16:39.593750,-47.92,67.88
176244,2018-06-29 10:16:39.625000,-19.63,67.88
176245,2018-06-29 10:16:39.656250,4.21,67.88
176246,2018-06-29 10:16:39.687500,21.97,67.88
176247,2018-06-29 10:16:39.718750,34.75,67.88
176248,2018-06-29 10:16:39.750000,41.65,67.88
176249,2018-06-29 10:16:39.781250,42.7,67.88
176250,2018-06-29 10:16:39.812500,40.78,67.88
176251,2018-06-29 10:16:39.843750,38.58,67.88
176252,2018-06-29 10:16:39.875000,36.39,67.88
176253,2018-06-29 10:16:39.906250,33.59,67.88
176254,2018-06-29 10:16:39.937500,30.53,67.88
176255,2018-06-29 10:16:39.968750,27.69,67.88
176256,2018-06-29 10:16:40.000000,23.85,67.88
176257,2018-06-29 10:16:40.031250,17.46,67.88
176258,2018-06-29 10:16:40.062500,9.78,67.88
176259,2018-06-29 10:16:40.093750,3.64,67.88
176260,2018-06-29 10:16:40.125000,-1.02,67.88
176261,2018-06-29 10:16:40.156250,-6.88,67.88
176262,2018-06-29 10:16:40.187500,-14.43,67.88
176263,2018-06-29 10:16:40.218750,-21.4,67.88
176264,2018-06-29 10:16:40.250000,-27.15,67.88
176265,2018-06-29 10:16:40.281250,-34.28,67.88
176266,2018-06-29 10:16:40.312500,-45.32,67.88
176267,2018-06-29 10:16:40.343750,-59.17,67.88
176268,2018-06-29 10:16:40.375000,-69.17,67.88
176269,2018-06-29 10:16:40.406250,-65.93,67.88
176270,2018-06-29 10:16:40.437500,-45.82,67.88
176271,2018-06-29 10:16:40.468750,-16.06,67.88
176272,2018-06-29 10:16:40.500000,11.81,67.88
176273,2018-06-29 10:16:40.531250,31.76,67.8
176274,2018-06-29 10:16:40.562500,44.49,67.8
176275,2018-06-29 10:16:40.593750,52.06,67.8
176276,2018-06-29 10:16:40.625000,54.92,67.8
176277,2018-06-29 10:16:40.656250,53.97,67.8
176278,2018-06-29 10:16:40.687500,52.23,67.8
176279,2018-06-29 10:16:40.718750,52.07,67.8
176280,2018-06-29 10:16:40.750000,52.67,67.8
176281,2018-06-29 10:16:40.781250,52.44,67.8
176282,2018-06-29 10:16:40.812500,51.16,67.8
176283,2018-06-29 10:16:40.843750,48.68,67.8
176284,2018-06-29 10:16:40.875000,44.12,67.8
176285,2018-06-29 10:16:40.906250,37.52,67.8
176286,2018-06-29 10:16:40.937500,30.53,67.8
176287,2018-06-29 10:16:40.968750,24.68,67.8
176288,2018-06-29 10:16:41.000000,19.86,67.8
176289,2018-06-29 10:16:41.031250,15.13,67.8
176290,2018-06-29 10:16:41.062500,10.38,67.8
176291,2018-06-29 10:16:41.093750,6.26,67.8
176292,2018-06-29 10:16:41.125000,2.64,67.8
176293,2018-06-29 10:16:41.156250,-1.25,67.8
176294,2018-06-29 10:16:41.187500,-5.29,67.8
176295,2018-06-29 10:16:41.218750,-8.21,67.8
176296,2018-06-29 10:16:41.250000,-9.39,67.8
176297,2018-06-29 10:16:41.281250,-7.93,67.8
176298,2018-06-29 10:16:41.312500,1.14,67.8
176299,2018-06-29 10:16:41.343750,24.38,67.8
176300,2018-06-29 10:16:41.375000,60.73,67.8
176301,2018-06-29 10:16:41.406250,100.32,67.8
176302,2018-06-29 10:16:41.437500,134.31,67.8
176303,2018-06-29 10:16:41.468750,160.74,67.8
176304,2018-06-29 10:16:41.500000,179.83,67.8
176305,2018-06-29 10:16:41.531250,190.75,67.77
176306,2018-06-29 10:16:41.562500,193.84,67.77
176307,2018-06-29 10:16:41.593750,188.83,67.77
176308,2018-06-29 10:16:41.625000,170.79,67.77
176309,2018-06-29 10:16:41.656250,137.02,67.77
176310,2018-06-29 10:16:41.687500,96.36,67.77
176311,2018-06-29 10:16:41.718750,60.86,67.77
176312,2018-06-29 10:16:41.750000,31.26,67.77
176313,2018-06-29 10:16:41.781250,2.47,67.77
176314,2018-06-29 10:16:41.812500,-22.49,67.77
176315,2018-06-29 10:16:41.843750,-36.72,67.77
176316,2018-06-29 10:16:41.875000,-41.93,67.77
176317,2018-06-29 10:16:41.906250,-46.4,67.77
176318,2018-06-29 10:16:41.937500,-54.46,67.77
176319,2018-06-29 10:16:41.968750,-65.25,67.77
176320,2018-06-29 10:16:42.000000,-78.05,67.77
176321,2018-06-29 10:16:42.031250,-93.0,67.77
176322,2018-06-29 10:16:42.062500,-108.42,67.77
176323,2018-06-29 10:16:42.093750,-121.85,67.77
176324,2018-06-29 10:16:42.125000,-133.31,67.77
176325,2018-06-29 10:16:42.156250,-144.03,67.77
176326,2018-06-29 10:16:42.187500,-149.65,67.77
176327,2018-06-29 10:16:42.218750,-140.11,67.77
176328,2018-06-29 10:16:42.250000,-112.78,67.77
176329,2018-06-29 10:16:42.281250,-79.46,67.77
176330,2018-06-29 10:16:42.312500,-53.36,67.77
176331,2018-06-29 10:16:42.343750,-36.27,67.77
176332,2018-06-29 10:16:42.375000,-24.33,67.77
176333,2018-06-29 10:16:42.406250,-17.42,67.77
176334,2018-06-29 10:16:42.437500,-16.12,67.77
176335,2018-06-29 10:16:42.468750,-16.48,67.77
176336,2018-06-29 10:16:42.500000,-13.99,67.77
176337,2018-06-29 10:16:42.531250,-9.99,67.73
176338,2018-06-29 10:16:42.562500,-8.94,67.73
176339,2018-06-29 10:16:42.593750,-10.91,67.73
176340,2018-06-29 10:16:42.625000,-12.72,67.73
176341,2018-06-29 10:16:42.656250,-14.3,67.73
176342,2018-06-29 10:16:42.687500,-17.87,67.73
176343,2018-06-29 10:16:42.718750,-22.8,67.73
176344,2018-06-29 10:16:42.750000,-26.98,67.73
176345,2018-06-29 10:16:42.781250,-31.33,67.73
176346,2018-06-29 10:16:42.812500,-38.08,67.73
176347,2018-06-29 10:16:42.843750,-46.62,67.73
176348,2018-06-29 10:16:42.875000,-54.2,67.73
176349,2018-06-29 10:16:42.906250,-59.58,67.73
176350,2018-06-29 10:16:42.937500,-64.52,67.73
176351,2018-06-29 10:16:42.968750,-72.24,67.73
176352,2018-06-29 10:16:43.000000,-84.25,67.73
176353,2018-06-29 10:16:43.031250,-97.05,67.73
176354,2018-06-29 10:16:43.062500,-101.97,67.73
176355,2018-06-29 10:16:43.093750,-91.91,67.73
176356,2018-06-29 10:16:43.125000,-70.08,67.73
176357,2018-06-29 10:16:43.156250,-48.01,67.73
176358,2018-06-29 10:16:43.187500,-33.91,67.73
176359,2018-06-29 10:16:43.218750,-27.56,67.73
176360,2018-06-29 10:16:43.250000,-26.52,67.73
176361,2018-06-29 10:16:43.281250,-30.14,67.73
176362,2018-06-29 10:16:43.312500,-35.19,67.73
176363,2018-06-29 10:16:43.343750,-34.49,67.73
176364,2018-06-29 10:16:43.375000,-24.01,67.73
176365,2018-06-29 10:16:43.406250,-7.85,67.73
176366,2018-06-29 10:16:43.437500,7.6,67.73
176367,2018-06-29 10:16:43.468750,20.01,67.73
176368,2018-06-29 10:16:43.500000,28.44,67.73
176369,2018-06-29 10:16:43.531250,29.56,67.7
176370,2018-06-29 10:16:43.562500,21.76,67.7
176371,2018-06-29 10:16:43.593750,10.32,67.7
176372,2018-06-29 10:16:43.625000,3.91,67.7
176373,2018-06-29 10:16:43.656250,4.93,67.7
176374,2018-06-29 10:16:43.687500,7.31,67.7
176375,2018-06-29 10:16:43.718750,5.32,67.7
176376,2018-06-29 10:16:43.750000,0.66,67.7
176377,2018-06-29 10:16:43.781250,-2.09,67.7
176378,2018-06-29 10:16:43.812500,-4.1,67.7
176379,2018-06-29 10:16:43.843750,-11.76,67.7
176380,2018-06-29 10:16:43.875000,-27.0,67.7
176381,2018-06-29 10:16:43.906250,-39.96,67.7
176382,2018-06-29 10:16:43.937500,-34.91,67.7
176383,2018-06-29 10:16:43.968750,-5.55,67.7
176384,2018-06-29 10:16:44.000000,38.03,67.7
176385,2018-06-29 10:16:44.031250,78.26,67.7
176386,2018-06-29 10:16:44.062500,103.84,67.7
176387,2018-06-29 10:16:44.093750,116.42,67.7
176388,2018-06-29 10:16:44.125000,126.68,67.7
176389,2018-06-29 10:16:44.156250,142.21,67.7
176390,2018-06-29 10:16:44.187500,159.86,67.7
176391,2018-06-29 10:16:44.218750,172.16,67.7
176392,2018-06-29 10:16:44.250000,173.66,67.7
176393,2018-06-29 10:16:44.281250,157.42,67.7
176394,2018-06-29 10:16:44.312500,118.5,67.7
176395,2018-06-29 10:16:44.343750,65.35,67.7
176396,2018-06-29 10:16:44.375000,14.35,67.7
176397,2018-06-29 10:16:44.406250,-28.55,67.7
176398,2018-06-29 10:16:44.437500,-67.7,67.7
176399,2018-06-29 10:16:44.468750,-103.47,67.7
176400,2018-06-29 10:16:44.500000,-132.29,67.7
176401,2018-06-29 10:16:44.531250,-154.94,67.67
176402,2018-06-29 10:16:44.562500,-172.97,67.67
176403,2018-06-29 10:16:44.593750,-185.67,67.67
176404,2018-06-29 10:16:44.625000,-196.91,67.67
176405,2018-06-29 10:16:44.656250,-210.81,67.67
176406,2018-06-29 10:16:44.687500,-211.99,67.67
176407,2018-06-29 10:16:44.718750,-168.59,67.67
176408,2018-06-29 10:16:44.750000,-69.47,67.67
176409,2018-06-29 10:16:44.781250,56.01,67.67
176410,2018-06-29 10:16:44.812500,165.82,67.67
176411,2018-06-29 10:16:44.843750,237.4,67.67
176412,2018-06-29 10:16:44.875000,267.64,67.67
176413,2018-06-29 10:16:44.906250,263.73,67.67
176414,2018-06-29 10:16:44.937500,241.83,67.67
176415,2018-06-29 10:16:44.968750,216.41,67.67
176416,2018-06-29 10:16:45.000000,184.95,67.67
176417,2018-06-29 10:16:45.031250,133.88,67.67
176418,2018-06-29 10:16:45.062500,61.15,67.67
176419,2018-06-29 10:16:45.093750,-16.0,67.67
176420,2018-06-29 10:16:45.125000,-78.88,67.67
176421,2018-06-29 10:16:45.156250,-123.54,67.67
176422,2018-06-29 10:16:45.187500,-153.35,67.67
176423,2018-06-29 10:16:45.218750,-165.49,67.67
176424,2018-06-29 10:16:45.250000,-155.35,67.67
176425,2018-06-29 10:16:45.281250,-128.68,67.67
176426,2018-06-29 10:16:45.312500,-100.04,67.67
176427,2018-06-29 10:16:45.343750,-80.55,67.67
176428,2018-06-29 10:16:45.375000,-72.56,67.67
176429,2018-06-29 10:16:45.406250,-77.99,67.67
176430,2018-06-29 10:16:45.437500,-101.68,67.67
176431,2018-06-29 10:16:45.468750,-137.96,67.67
176432,2018-06-29 10:16:45.500000,-169.19,67.67
176433,2018-06-29 10:16:45.531250,-193.1,67.52
176434,2018-06-29 10:16:45.562500,-229.84,67.52
176435,2018-06-29 10:16:45.593750,-285.99,67.52
176436,2018-06-29 10:16:45.625000,-336.99,67.52
176437,2018-06-29 10:16:45.656250,-355.1,67.52
176438,2018-06-29 10:16:45.687500,-332.1,67.52
176439,2018-06-29 10:16:45.718750,-277.45,67.52
176440,2018-06-29 10:16:45.750000,-214.08,67.52
176441,2018-06-29 10:16:45.781250,-165.48,67.52
176442,2018-06-29 10:16:45.812500,-136.77,67.52
176443,2018-06-29 10:16:45.843750,-121.6,67.52
176444,2018-06-29 10:16:45.875000,-117.77,67.52
176445,2018-06-29 10:16:45.906250,-122.89,67.52
176446,2018-06-29 10:16:45.937500,-130.95,67.52
176447,2018-06-29 10:16:45.968750,-137.28,67.52
176448,2018-06-29 10:16:46.000000,-133.27,67.52
176449,2018-06-29 10:16:46.031250,-106.9,67.52
176450,2018-06-29 10:16:46.062500,-60.49,67.52
176451,2018-06-29 10:16:46.093750,-11.75,67.52
176452,2018-06-29 10:16:46.125000,27.37,67.52
176453,2018-06-29 10:16:46.156250,55.96,67.52
176454,2018-06-29 10:16:46.187500,71.23,67.52
176455,2018-06-29 10:16:46.218750,67.38,67.52
176456,2018-06-29 10:16:46.250000,48.18,67.52
176457,2018-06-29 10:16:46.281250,28.45,67.52
176458,2018-06-29 10:16:46.312500,22.06,67.52
176459,2018-06-29 10:16:46.343750,36.68,67.52
176460,2018-06-29 10:16:46.375000,76.17,67.52
176461,2018-06-29 10:16:46.406250,135.25,67.52
176462,2018-06-29 10:16:46.437500,194.69,67.52
176463,2018-06-29 10:16:46.468750,236.22,67.52
176464,2018-06-29 10:16:46.500000,260.44,67.52
176465,2018-06-29 10:16:46.531250,279.42,67.47
176466,2018-06-29 10:16:46.562500,295.72,67.47
176467,2018-06-29 10:16:46.593750,301.52,67.47
176468,2018-06-29 10:16:46.625000,294.43,67.47
176469,2018-06-29 10:16:46.656250,280.92,67.47
176470,2018-06-29 10:16:46.687500,265.49,67.47
176471,2018-06-29 10:16:46.718750,246.67,67.47
176472,2018-06-29 10:16:46.750000,223.39,67.47
176473,2018-06-29 10:16:46.781250,197.51,67.47
176474,2018-06-29 10:16:46.812500,170.01,67.47
176475,2018-06-29 10:16:46.843750,140.16,67.47
176476,2018-06-29 10:16:46.875000,108.55,67.47
176477,2018-06-29 10:16:46.906250,78.26,67.47
176478,2018-06-29 10:16:46.937500,52.74,67.47
176479,2018-06-29 10:16:46.968750,32.96,67.47
176480,2018-06-29 10:16:47.000000,17.02,67.47
176481,2018-06-29 10:16:47.031250,3.03,67.47
176482,2018-06-29 10:16:47.062500,-8.96,67.47
176483,2018-06-29 10:16:47.093750,-18.97,67.47
176484,2018-06-29 10:16:47.125000,-29.18,67.47
176485,2018-06-29 10:16:47.156250,-43.03,67.47
176486,2018-06-29 10:16:47.187500,-62.59,67.47
176487,2018-06-29 10:16:47.218750,-84.46,67.47
176488,2018-06-29 10:16:47.250000,-96.37,67.47
176489,2018-06-29 10:16:47.281250,-84.69,67.47
176490,2018-06-29 10:16:47.312500,-49.79,67.47
176491,2018-06-29 10:16:47.343750,-7.36,67.47
176492,2018-06-29 10:16:47.375000,27.98,67.47
176493,2018-06-29 10:16:47.406250,52.2,67.47
176494,2018-06-29 10:16:47.437500,65.87,67.47
176495,2018-06-29 10:16:47.468750,69.61,67.47
176496,2018-06-29 10:16:47.500000,66.58,67.47
176497,2018-06-29 10:16:47.531250,61.68,67.43
176498,2018-06-29 10:16:47.562500,57.38,67.43
176499,2018-06-29 10:16:47.593750,53.53,67.43
176500,2018-06-29 10:16:47.625000,51.05,67.43
176501,2018-06-29 10:16:47.656250,52.86,67.43
176502,2018-06-29 10:16:47.687500,59.29,67.43
176503,2018-06-29 10:16:47.718750,64.57,67.43
176504,2018-06-29 10:16:47.750000,61.96,67.43
176505,2018-06-29 10:16:47.781250,50.66,67.43
176506,2018-06-29 10:16:47.812500,34.19,67.43
176507,2018-06-29 10:16:47.843750,15.22,67.43
176508,2018-06-29 10:16:47.875000,-3.58,67.43
176509,2018-06-29 10:16:47.906250,-17.18,67.43
176510,2018-06-29 10:16:47.937500,-21.18,67.43
176511,2018-06-29 10:16:47.968750,-16.32,67.43
176512,2018-06-29 10:16:48.000000,-8.02,67.43
176513,2018-06-29 10:16:48.031250,-3.13,67.43
176514,2018-06-29 10:16:48.062500,-6.01,67.43
176515,2018-06-29 10:16:48.093750,-13.37,67.43
176516,2018-06-29 10:16:48.125000,-15.06,67.43
176517,2018-06-29 10:16:48.156250,-5.44,67.43
176518,2018-06-29 10:16:48.187500,9.32,67.43
176519,2018-06-29 10:16:48.218750,20.04,67.43
176520,2018-06-29 10:16:48.250000,25.89,67.43
176521,2018-06-29 10:16:48.281250,31.57,67.43
176522,2018-06-29 10:16:48.312500,39.45,67.43
176523,2018-06-29 10:16:48.343750,48.92,67.43
176524,2018-06-29 10:16:48.375000,59.28,67.43
176525,2018-06-29 10:16:48.406250,69.53,67.43
176526,2018-06-29 10:16:48.437500,79.36,67.43
176527,2018-06-29 10:16:48.468750,92.09,67.43
176528,2018-06-29 10:16:48.500000,111.33,67.43
176529,2018-06-29 10:16:48.531250,132.89,67.38
176530,2018-06-29 10:16:48.562500,145.69,67.38
176531,2018-06-29 10:16:48.593750,142.54,67.38
176532,2018-06-29 10:16:48.625000,125.99,67.38
176533,2018-06-29 10:16:48.656250,102.39,67.38
176534,2018-06-29 10:16:48.687500,73.95,67.38
176535,2018-06-29 10:16:48.718750,37.92,67.38
176536,2018-06-29 10:16:48.750000,-8.44,67.38
176537,2018-06-29 10:16:48.781250,-64.19,67.38
176538,2018-06-29 10:16:48.812500,-125.21,67.38
176539,2018-06-29 10:16:48.843750,-184.93,67.38
176540,2018-06-29 10:16:48.875000,-233.22,67.38
176541,2018-06-29 10:16:48.906250,-256.3,67.38
176542,2018-06-29 10:16:48.937500,-244.75,67.38
176543,2018-06-29 10:16:48.968750,-204.15,67.38
176544,2018-06-29 10:16:49.000000,-152.35,67.38
176545,2018-06-29 10:16:49.031250,-104.11,67.38
176546,2018-06-29 10:16:49.062500,-64.11,67.38
176547,2018-06-29 10:16:49.093750,-33.3,67.38
176548,2018-06-29 10:16:49.125000,-12.86,67.38
176549,2018-06-29 10:16:49.156250,-0.7,67.38
176550,2018-06-29 10:16:49.187500,9.46,67.38
176551,2018-06-29 10:16:49.218750,23.4,67.38
176552,2018-06-29 10:16:49.250000,41.09,67.38
176553,2018-06-29 10:16:49.281250,57.52,67.38
176554,2018-06-29 10:16:49.312500,68.41,67.38
176555,2018-06-29 10:16:49.343750,72.49,67.38
176556,2018-06-29 10:16:49.375000,68.66,67.38
176557,2018-06-29 10:16:49.406250,55.62,67.38
176558,2018-06-29 10:16:49.437500,35.66,67.38
176559,2018-06-29 10:16:49.468750,14.42,67.38
176560,2018-06-29 10:16:49.500000,-4.28,67.38
176561,2018-06-29 10:16:49.531250,-20.28,67.35
176562,2018-06-29 10:16:49.562500,-34.04,67.35
176563,2018-06-29 10:16:49.593750,-45.76,67.35
176564,2018-06-29 10:16:49.625000,-55.28,67.35
176565,2018-06-29 10:16:49.656250,-58.02,67.35
176566,2018-06-29 10:16:49.687500,-45.68,67.35
176567,2018-06-29 10:16:49.718750,-17.38,67.35
176568,2018-06-29 10:16:49.750000,15.6,67.35
176569,2018-06-29 10:16:49.781250,41.34,67.35
176570,2018-06-29 10:16:49.812500,57.75,67.35
176571,2018-06-29 10:16:49.843750,68.01,67.35
176572,2018-06-29 10:16:49.875000,73.09,67.35
176573,2018-06-29 10:16:49.906250,73.16,67.35
176574,2018-06-29 10:16:49.937500,71.84,67.35
176575,2018-06-29 10:16:49.968750,73.94,67.35
176576,2018-06-29 10:16:50.000000,79.89,67.35
176577,2018-06-29 10:16:50.031250,85.81,67.35
176578,2018-06-29 10:16:50.062500,88.62,67.35
176579,2018-06-29 10:16:50.093750,87.34,67.35
176580,2018-06-29 10:16:50.125000,80.31,67.35
176581,2018-06-29 10:16:50.156250,66.04,67.35
176582,2018-06-29 10:16:50.187500,45.73,67.35
176583,2018-06-29 10:16:50.218750,22.12,67.35
176584,2018-06-29 10:16:50.250000,-2.69,67.35
176585,2018-06-29 10:16:50.281250,-27.93,67.35
176586,2018-06-29 10:16:50.312500,-54.58,67.35
176587,2018-06-29 10:16:50.343750,-84.33,67.35
176588,2018-06-29 10:16:50.375000,-114.63,67.35
176589,2018-06-29 10:16:50.406250,-135.1,67.35
176590,2018-06-29 10:16:50.437500,-133.95,67.35
176591,2018-06-29 10:16:50.468750,-110.4,67.35
176592,2018-06-29 10:16:50.500000,-77.12,67.35
176593,2018-06-29 10:16:50.531250,-47.97,67.32
176594,2018-06-29 10:16:50.562500,-27.83,67.32
176595,2018-06-29 10:16:50.593750,-15.78,67.32
176596,2018-06-29 10:16:50.625000,-11.28,67.32
176597,2018-06-29 10:16:50.656250,-13.6,67.32
176598,2018-06-29 10:16:50.687500,-20.13,67.32
176599,2018-06-29 10:16:50.718750,-29.01,67.32
176600,2018-06-29 10:16:50.750000,-40.97,67.32
176601,2018-06-29 10:16:50.781250,-56.82,67.32
176602,2018-06-29 10:16:50.812500,-75.57,67.32
176603,2018-06-29 10:16:50.843750,-96.09,67.32
176604,2018-06-29 10:16:50.875000,-117.61,67.32
176605,2018-06-29 10:16:50.906250,-138.18,67.32
176606,2018-06-29 10:16:50.937500,-155.1,67.32
176607,2018-06-29 10:16:50.968750,-165.38,67.32
176608,2018-06-29 10:16:51.000000,-165.22,67.32
176609,2018-06-29 10:16:51.031250,-152.65,67.32
176610,2018-06-29 10:16:51.062500,-130.34,67.32
176611,2018-06-29 10:16:51.093750,-103.1,67.32
176612,2018-06-29 10:16:51.125000,-74.53,67.32
176613,2018-06-29 10:16:51.156250,-46.08,67.32
176614,2018-06-29 10:16:51.187500,-14.94,67.32
176615,2018-06-29 10:16:51.218750,24.72,67.32
176616,2018-06-29 10:16:51.250000,73.24,67.32
176617,2018-06-29 10:16:51.281250,121.88,67.32
176618,2018-06-29 10:16:51.312500,161.24,67.32
176619,2018-06-29 10:16:51.343750,187.75,67.32
176620,2018-06-29 10:16:51.375000,200.93,67.32
176621,2018-06-29 10:16:51.406250,201.18,67.32
176622,2018-06-29 10:16:51.437500,191.36,67.32
176623,2018-06-29 10:16:51.468750,175.94,67.32
176624,2018-06-29 10:16:51.500000,157.97,67.32
176625,2018-06-29 10:16:51.531250,138.78,67.37
176626,2018-06-29 10:16:51.562500,119.54,67.37
176627,2018-06-29 10:16:51.593750,100.77,67.37
176628,2018-06-29 10:16:51.625000,81.37,67.37
176629,2018-06-29 10:16:51.656250,60.75,67.37
176630,2018-06-29 10:16:51.687500,41.49,67.37
176631,2018-06-29 10:16:51.718750,27.24,67.37
176632,2018-06-29 10:16:51.750000,18.81,67.37
176633,2018-06-29 10:16:51.781250,14.89,67.37
176634,2018-06-29 10:16:51.812500,15.82,67.37
176635,2018-06-29 10:16:51.843750,24.24,67.37
176636,2018-06-29 10:16:51.875000,41.17,67.37
176637,2018-06-29 10:16:51.906250,62.76,67.37
176638,2018-06-29 10:16:51.937500,81.64,67.37
176639,2018-06-29 10:16:51.968750,90.97,67.37
176640,2018-06-29 10:16:52.000000,89.71,67.37
176641,2018-06-29 10:16:52.031250,84.83,67.37
176642,2018-06-29 10:16:52.062500,83.76,67.37
176643,2018-06-29 10:16:52.093750,85.08,67.37
176644,2018-06-29 10:16:52.125000,81.88,67.37
176645,2018-06-29 10:16:52.156250,71.12,67.37
176646,2018-06-29 10:16:52.187500,52.82,67.37
176647,2018-06-29 10:16:52.218750,25.2,67.37
176648,2018-06-29 10:16:52.250000,-11.09,67.37
176649,2018-06-29 10:16:52.281250,-47.59,67.37
176650,2018-06-29 10:16:52.312500,-73.8,67.37
176651,2018-06-29 10:16:52.343750,-85.71,67.37
176652,2018-06-29 10:16:52.375000,-85.51,67.37
176653,2018-06-29 10:16:52.406250,-77.32,67.37
176654,2018-06-29 10:16:52.437500,-66.69,67.37
176655,2018-06-29 10:16:52.468750,-60.14,67.37
176656,2018-06-29 10:16:52.500000,-60.13,67.37
176657,2018-06-29 10:16:52.531250,-63.44,67.5
176658,2018-06-29 10:16:52.562500,-67.1,67.5
176659,2018-06-29 10:16:52.593750,-72.57,67.5
176660,2018-06-29 10:16:52.625000,-81.93,67.5
176661,2018-06-29 10:16:52.656250,-93.34,67.5
176662,2018-06-29 10:16:52.687500,-103.35,67.5
176663,2018-06-29 10:16:52.718750,-111.85,67.5
176664,2018-06-29 10:16:52.750000,-121.77,67.5
176665,2018-06-29 10:16:52.781250,-133.94,67.5
176666,2018-06-29 10:16:52.812500,-142.56,67.5
176667,2018-06-29 10:16:52.843750,-138.09,67.5
176668,2018-06-29 10:16:52.875000,-117.51,67.5
176669,2018-06-29 10:16:52.906250,-88.71,67.5
176670,2018-06-29 10:16:52.937500,-61.61,67.5
176671,2018-06-29 10:16:52.968750,-39.38,67.5
176672,2018-06-29 10:16:53.000000,-21.58,67.5
176673,2018-06-29 10:16:53.031250,-9.37,67.5
176674,2018-06-29 10:16:53.062500,-3.19,67.5
176675,2018-06-29 10:16:53.093750,-0.13,67.5
176676,2018-06-29 10:16:53.125000,2.7,67.5
176677,2018-06-29 10:16:53.156250,5.25,67.5
176678,2018-06-29 10:16:53.187500,7.16,67.5
176679,2018-06-29 10:16:53.218750,9.93,67.5
176680,2018-06-29 10:16:53.250000,13.52,67.5
176681,2018-06-29 10:16:53.281250,13.98,67.5
176682,2018-06-29 10:16:53.312500,8.28,67.5
176683,2018-06-29 10:16:53.343750,-0.79,67.5
176684,2018-06-29 10:16:53.375000,-8.21,67.5
176685,2018-06-29 10:16:53.406250,-13.05,67.5
176686,2018-06-29 10:16:53.437500,-18.02,67.5
176687,2018-06-29 10:16:53.468750,-24.75,67.5
176688,2018-06-29 10:16:53.500000,-32.25,67.5
176689,2018-06-29 10:16:53.531250,-39.25,67.63
176690,2018-06-29 10:16:53.562500,-46.56,67.63
176691,2018-06-29 10:16:53.593750,-56.93,67.63
176692,2018-06-29 10:16:53.625000,-71.14,67.63
176693,2018-06-29 10:16:53.656250,-82.79,67.63
176694,2018-06-29 10:16:53.687500,-80.99,67.63
176695,2018-06-29 10:16:53.718750,-61.71,67.63
176696,2018-06-29 10:16:53.750000,-32.56,67.63
176697,2018-06-29 10:16:53.781250,-4.32,67.63
176698,2018-06-29 10:16:53.812500,18.07,67.63
176699,2018-06-29 10:16:53.843750,33.98,67.63
176700,2018-06-29 10:16:53.875000,42.26,67.63
176701,2018-06-29 10:16:53.906250,42.41,67.63
176702,2018-06-29 10:16:53.937500,37.72,67.63
176703,2018-06-29 10:16:53.968750,32.52,67.63
176704,2018-06-29 10:16:54.000000,28.27,67.63
176705,2018-06-29 10:16:54.031250,24.59,67.63
176706,2018-06-29 10:16:54.062500,21.51,67.63
176707,2018-06-29 10:16:54.093750,18.07,67.63
176708,2018-06-29 10:16:54.125000,12.92,67.63
176709,2018-06-29 10:16:54.156250,7.56,67.63
176710,2018-06-29 10:16:54.187500,5.31,67.63
176711,2018-06-29 10:16:54.218750,6.36,67.63
176712,2018-06-29 10:16:54.250000,6.88,67.63
176713,2018-06-29 10:16:54.281250,2.96,67.63
176714,2018-06-29 10:16:54.312500,-6.1,67.63
176715,2018-06-29 10:16:54.343750,-18.53,67.63
176716,2018-06-29 10:16:54.375000,-33.12,67.63
176717,2018-06-29 10:16:54.406250,-50.75,67.63
176718,2018-06-29 10:16:54.437500,-71.63,67.63
176719,2018-06-29 10:16:54.468750,-90.24,67.63
176720,2018-06-29 10:16:54.500000,-95.29,67.63
176721,2018-06-29 10:16:54.531250,-78.79,67.83
176722,2018-06-29 10:16:54.562500,-45.47,67.83
176723,2018-06-29 10:16:54.593750,-8.96,67.83
176724,2018-06-29 10:16:54.625000,21.21,67.83
176725,2018-06-29 10:16:54.656250,44.25,67.83
176726,2018-06-29 10:16:54.687500,61.22,67.83
176727,2018-06-29 10:16:54.718750,70.86,67.83
176728,2018-06-29 10:16:54.750000,73.52,67.83
176729,2018-06-29 10:16:54.781250,73.59,67.83
176730,2018-06-29 10:16:54.812500,75.17,67.83
176731,2018-06-29 10:16:54.843750,78.84,67.83
176732,2018-06-29 10:16:54.875000,83.88,67.83
176733,2018-06-29 10:16:54.906250,89.43,67.83
176734,2018-06-29 10:16:54.937500,92.88,67.83
176735,2018-06-29 10:16:54.968750,92.12,67.83
176736,2018-06-29 10:16:55.000000,89.09,67.83
176737,2018-06-29 10:16:55.031250,87.03,67.83
176738,2018-06-29 10:16:55.062500,85.51,67.83
176739,2018-06-29 10:16:55.093750,82.21,67.83
176740,2018-06-29 10:16:55.125000,77.55,67.83
176741,2018-06-29 10:16:55.156250,73.35,67.83
176742,2018-06-29 10:16:55.187500,68.65,67.83
176743,2018-06-29 10:16:55.218750,59.14,67.83
176744,2018-06-29 10:16:55.250000,40.53,67.83
176745,2018-06-29 10:16:55.281250,13.79,67.83
176746,2018-06-29 10:16:55.312500,-11.76,67.83
176747,2018-06-29 10:16:55.343750,-24.97,67.83
176748,2018-06-29 10:16:55.375000,-23.63,67.83
176749,2018-06-29 10:16:55.406250,-15.0,67.83
176750,2018-06-29 10:16:55.437500,-6.42,67.83
176751,2018-06-29 10:16:55.468750,-0.46,67.83
176752,2018-06-29 10:16:55.500000,2.71,67.83
176753,2018-06-29 10:16:55.531250,3.38,68.02
176754,2018-06-29 10:16:55.562500,3.55,68.02
176755,2018-06-29 10:16:55.593750,6.07,68.02
176756,2018-06-29 10:16:55.625000,10.62,68.02
176757,2018-06-29 10:16:55.656250,13.37,68.02
176758,2018-06-29 10:16:55.687500,11.89,68.02
176759,2018-06-29 10:16:55.718750,7.48,68.02
176760,2018-06-29 10:16:55.750000,2.19,68.02
176761,2018-06-29 10:16:55.781250,-3.28,68.02
176762,2018-06-29 10:16:55.812500,-8.87,68.02
176763,2018-06-29 10:16:55.843750,-15.08,68.02
176764,2018-06-29 10:16:55.875000,-23.06,68.02
176765,2018-06-29 10:16:55.906250,-33.03,68.02
176766,2018-06-29 10:16:55.937500,-42.33,68.02
176767,2018-06-29 10:16:55.968750,-46.8,68.02
176768,2018-06-29 10:16:56.000000,-45.05,68.02
176769,2018-06-29 10:16:56.031250,-40.65,68.02
176770,2018-06-29 10:16:56.062500,-39.3,68.02
176771,2018-06-29 10:16:56.093750,-42.78,68.02
176772,2018-06-29 10:16:56.125000,-45.69,68.02
176773,2018-06-29 10:16:56.156250,-41.62,68.02
176774,2018-06-29 10:16:56.187500,-32.88,68.02
176775,2018-06-29 10:16:56.218750,-28.0,68.02
176776,2018-06-29 10:16:56.250000,-30.34,68.02
176777,2018-06-29 10:16:56.281250,-36.22,68.02
176778,2018-06-29 10:16:56.312500,-43.05,68.02
176779,2018-06-29 10:16:56.343750,-51.36,68.02
176780,2018-06-29 10:16:56.375000,-59.52,68.02
176781,2018-06-29 10:16:56.406250,-62.93,68.02
176782,2018-06-29 10:16:56.437500,-59.93,68.02
176783,2018-06-29 10:16:56.468750,-53.8,68.02
176784,2018-06-29 10:16:56.500000,-48.04,68.02
176785,2018-06-29 10:16:56.531250,-43.97,68.23
176786,2018-06-29 10:16:56.562500,-42.8,68.23
176787,2018-06-29 10:16:56.593750,-44.91,68.23
176788,2018-06-29 10:16:56.625000,-48.28,68.23
176789,2018-06-29 10:16:56.656250,-51.4,68.23
176790,2018-06-29 10:16:56.687500,-55.02,68.23
176791,2018-06-29 10:16:56.718750,-59.22,68.23
176792,2018-06-29 10:16:56.750000,-62.55,68.23
176793,2018-06-29 10:16:56.781250,-64.7,68.23
176794,2018-06-29 10:16:56.812500,-68.01,68.23
176795,2018-06-29 10:16:56.843750,-75.33,68.23
176796,2018-06-29 10:16:56.875000,-84.19,68.23
176797,2018-06-29 10:16:56.906250,-84.12,68.23
176798,2018-06-29 10:16:56.937500,-65.94,68.23
176799,2018-06-29 10:16:56.968750,-33.96,68.23
176800,2018-06-29 10:16:57.000000,-1.39,68.23
176801,2018-06-29 10:16:57.031250,24.27,68.23
176802,2018-06-29 10:16:57.062500,43.18,68.23
176803,2018-06-29 10:16:57.093750,54.97,68.23
176804,2018-06-29 10:16:57.125000,58.27,68.23
176805,2018-06-29 10:16:57.156250,55.54,68.23
176806,2018-06-29 10:16:57.187500,51.3,68.23
176807,2018-06-29 10:16:57.218750,48.03,68.23
176808,2018-06-29 10:16:57.250000,45.97,68.23
176809,2018-06-29 10:16:57.281250,44.11,68.23
176810,2018-06-29 10:16:57.312500,40.65,68.23
176811,2018-06-29 10:16:57.343750,34.34,68.23
176812,2018-06-29 10:16:57.375000,25.51,68.23
176813,2018-06-29 10:16:57.406250,15.52,68.23
176814,2018-06-29 10:16:57.437500,5.4,68.23
176815,2018-06-29 10:16:57.468750,-4.46,68.23
176816,2018-06-29 10:16:57.500000,-13.84,68.23
176817,2018-06-29 10:16:57.531250,-22.69,68.48
176818,2018-06-29 10:16:57.562500,-31.61,68.48
176819,2018-06-29 10:16:57.593750,-42.04,68.48
176820,2018-06-29 10:16:57.625000,-55.03,68.48
176821,2018-06-29 10:16:57.656250,-66.9,68.48
176822,2018-06-29 10:16:57.687500,-67.11,68.48
176823,2018-06-29 10:16:57.718750,-47.46,68.48
176824,2018-06-29 10:16:57.750000,-13.64,68.48
176825,2018-06-29 10:16:57.781250,19.84,68.48
176826,2018-06-29 10:16:57.812500,44.17,68.48
176827,2018-06-29 10:16:57.843750,59.11,68.48
176828,2018-06-29 10:16:57.875000,65.75,68.48
176829,2018-06-29 10:16:57.906250,64.9,68.48
176830,2018-06-29 10:16:57.937500,59.98,68.48
176831,2018-06-29 10:16:57.968750,55.85,68.48
176832,2018-06-29 10:16:58.000000,54.68,68.48
176833,2018-06-29 10:16:58.031250,55.19,68.48
176834,2018-06-29 10:16:58.062500,54.86,68.48
176835,2018-06-29 10:16:58.093750,51.65,68.48
176836,2018-06-29 10:16:58.125000,45.04,68.48
176837,2018-06-29 10:16:58.156250,36.1,68.48
176838,2018-06-29 10:16:58.187500,26.05,68.48
176839,2018-06-29 10:16:58.218750,15.06,68.48
176840,2018-06-29 10:16:58.250000,3.12,68.48
176841,2018-06-29 10:16:58.281250,-9.17,68.48
176842,2018-06-29 10:16:58.312500,-21.46,68.48
176843,2018-06-29 10:16:58.343750,-33.99,68.48
176844,2018-06-29 10:16:58.375000,-47.95,68.48
176845,2018-06-29 10:16:58.406250,-64.86,68.48
176846,2018-06-29 10:16:58.437500,-81.09,68.48
176847,2018-06-29 10:16:58.468750,-84.73,68.48
176848,2018-06-29 10:16:58.500000,-66.02,68.48
176849,2018-06-29 10:16:58.531250,-30.33,68.72
176850,2018-06-29 10:16:58.562500,6.94,68.72
176851,2018-06-29 10:16:58.593750,35.99,68.72
176852,2018-06-29 10:16:58.625000,56.22,68.72
176853,2018-06-29 10:16:58.656250,68.95,68.72
176854,2018-06-29 10:16:58.687500,74.51,68.72
176855,2018-06-29 10:16:58.718750,74.55,68.72
176856,2018-06-29 10:16:58.750000,72.55,68.72
176857,2018-06-29 10:16:58.781250,71.12,68.72
176858,2018-06-29 10:16:58.812500,70.1,68.72
176859,2018-06-29 10:16:58.843750,68.45,68.72
176860,2018-06-29 10:16:58.875000,66.43,68.72
176861,2018-06-29 10:16:58.906250,63.64,68.72
176862,2018-06-29 10:16:58.937500,57.72,68.72
176863,2018-06-29 10:16:58.968750,48.01,68.72
176864,2018-06-29 10:16:59.000000,37.62,68.72
176865,2018-06-29 10:16:59.031250,28.69,68.72
176866,2018-06-29 10:16:59.062500,18.87,68.72
176867,2018-06-29 10:16:59.093750,5.39,68.72
176868,2018-06-29 10:16:59.125000,-10.1,68.72
176869,2018-06-29 10:16:59.156250,-23.31,68.72
176870,2018-06-29 10:16:59.187500,-33.18,68.72
176871,2018-06-29 10:16:59.218750,-43.1,68.72
176872,2018-06-29 10:16:59.250000,-56.7,68.72
176873,2018-06-29 10:16:59.281250,-73.35,68.72
176874,2018-06-29 10:16:59.312500,-85.32,68.72
176875,2018-06-29 10:16:59.343750,-81.08,68.72
176876,2018-06-29 10:16:59.375000,-57.04,68.72
176877,2018-06-29 10:16:59.406250,-23.7,68.72
176878,2018-06-29 10:16:59.437500,5.34,68.72
176879,2018-06-29 10:16:59.468750,25.62,68.72
176880,2018-06-29 10:16:59.500000,38.6,68.72
176881,2018-06-29 10:16:59.531250,44.28,68.93
176882,2018-06-29 10:16:59.562500,42.77,68.93
176883,2018-06-29 10:16:59.593750,37.15,68.93
176884,2018-06-29 10:16:59.625000,30.73,68.93
176885,2018-06-29 10:16:59.656250,24.64,68.93
176886,2018-06-29 10:16:59.687500,19.82,68.93
176887,2018-06-29 10:16:59.718750,17.8,68.93
176888,2018-06-29 10:16:59.750000,18.43,68.93
176889,2018-06-29 10:16:59.781250,19.79,68.93
176890,2018-06-29 10:16:59.812500,21.18,68.93
176891,2018-06-29 10:16:59.843750,23.74,68.93
176892,2018-06-29 10:16:59.875000,27.26,68.93
176893,2018-06-29 10:16:59.906250,28.53,68.93
176894,2018-06-29 10:16:59.937500,24.46,68.93
176895,2018-06-29 10:16:59.968750,15.99,68.93
176896,2018-06-29 10:17:00.000000,6.46,68.93
176897,2018-06-29 10:17:00.031250,-3.24,68.93
176898,2018-06-29 10:17:00.062500,-15.71,68.93
176899,2018-06-29 10:17:00.093750,-33.47,68.93
176900,2018-06-29 10:17:00.125000,-54.76,68.93
176901,2018-06-29 10:17:00.156250,-71.36,68.93
176902,2018-06-29 10:17:00.187500,-72.78,68.93
176903,2018-06-29 10:17:00.218750,-56.76,68.93
176904,2018-06-29 10:17:00.250000,-32.72,68.93
176905,2018-06-29 10:17:00.281250,-11.36,68.93
176906,2018-06-29 10:17:00.312500,6.55,68.93
176907,2018-06-29 10:17:00.343750,26.0,68.93
176908,2018-06-29 10:17:00.375000,47.2,68.93
176909,2018-06-29 10:17:00.406250,65.69,68.93
176910,2018-06-29 10:17:00.437500,78.44,68.93
176911,2018-06-29 10:17:00.468750,86.36,68.93
176912,2018-06-29 10:17:00.500000,90.21,68.93
176913,2018-06-29 10:17:00.531250,89.51,69.15
176914,2018-06-29 10:17:00.562500,84.09,69.15
176915,2018-06-29 10:17:00.593750,75.02,69.15
176916,2018-06-29 10:17:00.625000,63.25,69.15
176917,2018-06-29 10:17:00.656250,49.45,69.15
176918,2018-06-29 10:17:00.687500,36.31,69.15
176919,2018-06-29 10:17:00.718750,25.73,69.15
176920,2018-06-29 10:17:00.750000,19.31,69.15
176921,2018-06-29 10:17:00.781250,13.87,69.15
176922,2018-06-29 10:17:00.812500,7.36,69.15
176923,2018-06-29 10:17:00.843750,1.27,69.15
176924,2018-06-29 10:17:00.875000,1.04,69.15
176925,2018-06-29 10:17:00.906250,6.25,69.15
176926,2018-06-29 10:17:00.937500,6.86,69.15
176927,2018-06-29 10:17:00.968750,5.29,69.15
176928,2018-06-29 10:17:01.000000,13.91,69.15
176929,2018-06-29 10:17:01.031250,44.52,69.15
176930,2018-06-29 10:17:01.062500,79.58,69.15
176931,2018-06-29 10:17:01.093750,99.11,69.15
176932,2018-06-29 10:17:01.125000,103.46,69.15
176933,2018-06-29 10:17:01.156250,111.32,69.15
176934,2018-06-29 10:17:01.187500,132.86,69.15
176935,2018-06-29 10:17:01.218750,154.22,69.15
176936,2018-06-29 10:17:01.250000,173.29,69.15
176937,2018-06-29 10:17:01.281250,130.93,69.15
176938,2018-06-29 10:17:01.312500,14.08,69.15
176939,2018-06-29 10:17:01.343750,-77.08,69.15
176940,2018-06-29 10:17:01.375000,-115.55,69.15
176941,2018-06-29 10:17:01.406250,-126.22,69.15
176942,2018-06-29 10:17:01.437500,-118.78,69.15
176943,2018-06-29 10:17:01.468750,-90.76,69.15
176944,2018-06-29 10:17:01.500000,-57.03,69.15
176945,2018-06-29 10:17:01.531250,-30.23,69.38
176946,2018-06-29 10:17:01.562500,-15.42,69.38
176947,2018-06-29 10:17:01.593750,-2.53,69.38
176948,2018-06-29 10:17:01.625000,4.81,69.38
176949,2018-06-29 10:17:01.656250,2.13,69.38
176950,2018-06-29 10:17:01.687500,-6.15,69.38
176951,2018-06-29 10:17:01.718750,-13.21,69.38
176952,2018-06-29 10:17:01.750000,-19.49,69.38
176953,2018-06-29 10:17:01.781250,-39.29,69.38
176954,2018-06-29 10:17:01.812500,-69.53,69.38
176955,2018-06-29 10:17:01.843750,-101.48,69.38
176956,2018-06-29 10:17:01.875000,-133.73,69.38
176957,2018-06-29 10:17:01.906250,-172.87,69.38
176958,2018-06-29 10:17:01.937500,-219.1,69.38
176959,2018-06-29 10:17:01.968750,-258.0,69.38
176960,2018-06-29 10:17:02.000000,-271.84,69.38
176961,2018-06-29 10:17:02.031250,-257.26,69.38
176962,2018-06-29 10:17:02.062500,-224.1,69.38
176963,2018-06-29 10:17:02.093750,-173.86,69.38
176964,2018-06-29 10:17:02.125000,-102.61,69.38
176965,2018-06-29 10:17:02.156250,-17.22,69.38
176966,2018-06-29 10:17:02.187500,62.2,69.38
176967,2018-06-29 10:17:02.218750,119.25,69.38
176968,2018-06-29 10:17:02.250000,148.89,69.38
176969,2018-06-29 10:17:02.281250,155.69,69.38
176970,2018-06-29 10:17:02.312500,152.92,69.38
176971,2018-06-29 10:17:02.343750,155.6,69.38
176972,2018-06-29 10:17:02.375000,167.4,69.38
176973,2018-06-29 10:17:02.406250,181.63,69.38
176974,2018-06-29 10:17:02.437500,197.99,69.38
176975,2018-06-29 10:17:02.468750,223.06,69.38
176976,2018-06-29 10:17:02.500000,255.7,69.38
176977,2018-06-29 10:17:02.531250,284.18,69.57
176978,2018-06-29 10:17:02.562500,294.44,69.57
176979,2018-06-29 10:17:02.593750,277.05,69.57
176980,2018-06-29 10:17:02.625000,239.2,69.57
176981,2018-06-29 10:17:02.656250,207.61,69.57
176982,2018-06-29 10:17:02.687500,196.43,69.57
176983,2018-06-29 10:17:02.718750,182.48,69.57
176984,2018-06-29 10:17:02.750000,139.06,69.57
176985,2018-06-29 10:17:02.781250,74.97,69.57
176986,2018-06-29 10:17:02.812500,12.54,69.57
176987,2018-06-29 10:17:02.843750,-45.96,69.57
176988,2018-06-29 10:17:02.875000,-104.63,69.57
176989,2018-06-29 10:17:02.906250,-155.16,69.57
176990,2018-06-29 10:17:02.937500,-192.67,69.57
176991,2018-06-29 10:17:02.968750,-227.55,69.57
176992,2018-06-29 10:17:03.000000,-271.96,69.57
176993,2018-06-29 10:17:03.031250,-327.25,69.57
176994,2018-06-29 10:17:03.062500,-374.57,69.57
176995,2018-06-29 10:17:03.093750,-377.09,69.57
176996,2018-06-29 10:17:03.125000,-317.51,69.57
176997,2018-06-29 10:17:03.156250,-224.87,69.57
176998,2018-06-29 10:17:03.187500,-137.84,69.57
176999,2018-06-29 10:17:03.218750,-62.44,69.57
177000,2018-06-29 10:17:03.250000,12.16,69.57
177001,2018-06-29 10:17:03.281250,88.47,69.57
177002,2018-06-29 10:17:03.312500,164.93,69.57
177003,2018-06-29 10:17:03.343750,233.18,69.57
177004,2018-06-29 10:17:03.375000,270.02,69.57
177005,2018-06-29 10:17:03.406250,257.2,69.57
177006,2018-06-29 10:17:03.437500,200.63,69.57
177007,2018-06-29 10:17:03.468750,116.21,69.57
177008,2018-06-29 10:17:03.500000,17.19,69.57
177009,2018-06-29 10:17:03.531250,-84.7,69.62
177010,2018-06-29 10:17:03.562500,-166.53,69.62
177011,2018-06-29 10:17:03.593750,-198.8,69.62
177012,2018-06-29 10:17:03.625000,-166.38,69.62
177013,2018-06-29 10:17:03.656250,-86.1,69.62
177014,2018-06-29 10:17:03.687500,1.7,69.62
177015,2018-06-29 10:17:03.718750,66.41,69.62
177016,2018-06-29 10:17:03.750000,103.39,69.62
177017,2018-06-29 10:17:03.781250,131.95,69.62
177018,2018-06-29 10:17:03.812500,155.65,69.62
177019,2018-06-29 10:17:03.843750,156.81,69.62
177020,2018-06-29 10:17:03.875000,115.48,69.62
177021,2018-06-29 10:17:03.906250,44.71,69.62
177022,2018-06-29 10:17:03.937500,-25.02,69.62
177023,2018-06-29 10:17:03.968750,-91.64,69.62
177024,2018-06-29 10:17:04.000000,-168.37,69.62
177025,2018-06-29 10:17:04.031250,-278.55,69.62
177026,2018-06-29 10:17:04.062500,-384.27,69.62
177027,2018-06-29 10:17:04.093750,-462.97,69.62
177028,2018-06-29 10:17:04.125000,-526.18,69.62
177029,2018-06-29 10:17:04.156250,-626.15,69.62
177030,2018-06-29 10:17:04.187500,-767.35,69.62
177031,2018-06-29 10:17:04.218750,-876.23,69.62
177032,2018-06-29 10:17:04.250000,-903.31,69.62
177033,2018-06-29 10:17:04.281250,-842.0,69.62
177034,2018-06-29 10:17:04.312500,-772.33,69.62
177035,2018-06-29 10:17:04.343750,-685.8,69.62
177036,2018-06-29 10:17:04.375000,-574.63,69.62
177037,2018-06-29 10:17:04.406250,-370.85,69.62
177038,2018-06-29 10:17:04.437500,162.55,69.62
177039,2018-06-29 10:17:04.468750,589.6,69.62
177040,2018-06-29 10:17:04.500000,748.15,69.62
177041,2018-06-29 10:17:04.531250,771.88,69.65
177042,2018-06-29 10:17:04.562500,724.98,69.65
177043,2018-06-29 10:17:04.593750,581.12,69.65
177044,2018-06-29 10:17:04.625000,436.14,69.65
177045,2018-06-29 10:17:04.656250,358.48,69.65
177046,2018-06-29 10:17:04.687500,326.66,69.65
177047,2018-06-29 10:17:04.718750,271.68,69.65
177048,2018-06-29 10:17:04.750000,195.52,69.65
177049,2018-06-29 10:17:04.781250,152.39,69.65
177050,2018-06-29 10:17:04.812500,125.23,69.65
177051,2018-06-29 10:17:04.843750,82.54,69.65
177052,2018-06-29 10:17:04.875000,9.77,69.65
177053,2018-06-29 10:17:04.906250,-42.12,69.65
177054,2018-06-29 10:17:04.937500,-54.24,69.65
177055,2018-06-29 10:17:04.968750,-43.74,69.65
177056,2018-06-29 10:17:05.000000,-29.82,69.65
177057,2018-06-29 10:17:05.031250,-22.68,69.65
177058,2018-06-29 10:17:05.062500,-15.4,69.65
177059,2018-06-29 10:17:05.093750,-6.66,69.65
177060,2018-06-29 10:17:05.125000,6.87,69.65
177061,2018-06-29 10:17:05.156250,21.68,69.65
177062,2018-06-29 10:17:05.187500,41.01,69.65
177063,2018-06-29 10:17:05.218750,65.76,69.65
177064,2018-06-29 10:17:05.250000,90.61,69.65
177065,2018-06-29 10:17:05.281250,109.62,69.65
177066,2018-06-29 10:17:05.312500,116.7,69.65
177067,2018-06-29 10:17:05.343750,107.08,69.65
177068,2018-06-29 10:17:05.375000,83.29,69.65
177069,2018-06-29 10:17:05.406250,59.14,69.65
177070,2018-06-29 10:17:05.437500,47.11,69.65
177071,2018-06-29 10:17:05.468750,50.79,69.65
177072,2018-06-29 10:17:05.500000,63.29,69.65
177073,2018-06-29 10:17:05.531250,73.91,69.55
177074,2018-06-29 10:17:05.562500,83.14,69.55
177075,2018-06-29 10:17:05.593750,99.64,69.55
177076,2018-06-29 10:17:05.625000,128.2,69.55
177077,2018-06-29 10:17:05.656250,157.86,69.55
177078,2018-06-29 10:17:05.687500,187.43,69.55
177079,2018-06-29 10:17:05.718750,217.74,69.55
177080,2018-06-29 10:17:05.750000,242.55,69.55
177081,2018-06-29 10:17:05.781250,250.67,69.55
177082,2018-06-29 10:17:05.812500,242.0,69.55
177083,2018-06-29 10:17:05.843750,224.33,69.55
177084,2018-06-29 10:17:05.875000,181.31,69.55
177085,2018-06-29 10:17:05.906250,117.58,69.55
177086,2018-06-29 10:17:05.937500,59.77,69.55
177087,2018-06-29 10:17:05.968750,38.97,69.55
177088,2018-06-29 10:17:06.000000,29.06,69.55
177089,2018-06-29 10:17:06.031250,-10.79,69.55
177090,2018-06-29 10:17:06.062500,-82.42,69.55
177091,2018-06-29 10:17:06.093750,-209.01,69.55
177092,2018-06-29 10:17:06.125000,-299.59,69.55
177093,2018-06-29 10:17:06.156250,-330.89,69.55
177094,2018-06-29 10:17:06.187500,-321.45,69.55
177095,2018-06-29 10:17:06.218750,-290.54,69.55
177096,2018-06-29 10:17:06.250000,-252.87,69.55
177097,2018-06-29 10:17:06.281250,-217.28,69.55
177098,2018-06-29 10:17:06.312500,-165.82,69.55
177099,2018-06-29 10:17:06.343750,-95.27,69.55
177100,2018-06-29 10:17:06.375000,-36.06,69.55
177101,2018-06-29 10:17:06.406250,-5.2,69.55
177102,2018-06-29 10:17:06.437500,-3.28,69.55
177103,2018-06-29 10:17:06.468750,-10.64,69.55
177104,2018-06-29 10:17:06.500000,-17.17,69.55
177105,2018-06-29 10:17:06.531250,-10.03,69.45
177106,2018-06-29 10:17:06.562500,10.53,69.45
177107,2018-06-29 10:17:06.593750,36.99,69.45
177108,2018-06-29 10:17:06.625000,65.73,69.45
177109,2018-06-29 10:17:06.656250,97.9,69.45
177110,2018-06-29 10:17:06.687500,135.26,69.45
177111,2018-06-29 10:17:06.718750,170.69,69.45
177112,2018-06-29 10:17:06.750000,196.49,69.45
177113,2018-06-29 10:17:06.781250,206.03,69.45
177114,2018-06-29 10:17:06.812500,205.4,69.45
177115,2018-06-29 10:17:06.843750,208.6,69.45
177116,2018-06-29 10:17:06.875000,221.41,69.45
177117,2018-06-29 10:17:06.906250,232.7,69.45
177118,2018-06-29 10:17:06.937500,228.72,69.45
177119,2018-06-29 10:17:06.968750,208.84,69.45
177120,2018-06-29 10:17:07.000000,184.67,69.45
177121,2018-06-29 10:17:07.031250,170.76,69.45
177122,2018-06-29 10:17:07.062500,173.03,69.45
177123,2018-06-29 10:17:07.093750,179.45,69.45
177124,2018-06-29 10:17:07.125000,165.66,69.45
177125,2018-06-29 10:17:07.156250,118.32,69.45
177126,2018-06-29 10:17:07.187500,47.35,69.45
177127,2018-06-29 10:17:07.218750,-23.12,69.45
177128,2018-06-29 10:17:07.250000,-76.71,69.45
177129,2018-06-29 10:17:07.281250,-117.84,69.45
177130,2018-06-29 10:17:07.312500,-164.6,69.45
177131,2018-06-29 10:17:07.343750,-228.8,69.45
177132,2018-06-29 10:17:07.375000,-296.84,69.45
177133,2018-06-29 10:17:07.406250,-344.54,69.45
177134,2018-06-29 10:17:07.437500,-361.58,69.45
177135,2018-06-29 10:17:07.468750,-365.53,69.45
177136,2018-06-29 10:17:07.500000,-376.2,69.45
177137,2018-06-29 10:17:07.531250,-391.26,69.62
177138,2018-06-29 10:17:07.562500,-386.76,69.62
177139,2018-06-29 10:17:07.593750,-338.62,69.62
177140,2018-06-29 10:17:07.625000,-248.55,69.62
177141,2018-06-29 10:17:07.656250,-131.81,69.62
177142,2018-06-29 10:17:07.687500,-8.76,69.62
177143,2018-06-29 10:17:07.718750,107.2,69.62
177144,2018-06-29 10:17:07.750000,180.67,69.62
177145,2018-06-29 10:17:07.781250,159.76,69.62
177146,2018-06-29 10:17:07.812500,92.76,69.62
177147,2018-06-29 10:17:07.843750,25.2,69.62
177148,2018-06-29 10:17:07.875000,-35.96,69.62
177149,2018-06-29 10:17:07.906250,-84.38,69.62
177150,2018-06-29 10:17:07.937500,-107.25,69.62
177151,2018-06-29 10:17:07.968750,-110.24,69.62
177152,2018-06-29 10:17:08.000000,-105.42,69.62
177153,2018-06-29 10:17:08.031250,-94.76,69.62
177154,2018-06-29 10:17:08.062500,-62.84,69.62
177155,2018-06-29 10:17:08.093750,-2.92,69.62
177156,2018-06-29 10:17:08.125000,66.12,69.62
177157,2018-06-29 10:17:08.156250,124.39,69.62
177158,2018-06-29 10:17:08.187500,167.28,69.62
177159,2018-06-29 10:17:08.218750,204.83,69.62
177160,2018-06-29 10:17:08.250000,236.33,69.62
177161,2018-06-29 10:17:08.281250,251.64,69.62
177162,2018-06-29 10:17:08.312500,248.52,69.62
177163,2018-06-29 10:17:08.343750,239.43,69.62
177164,2018-06-29 10:17:08.375000,234.75,69.62
177165,2018-06-29 10:17:08.406250,230.02,69.62
177166,2018-06-29 10:17:08.437500,210.27,69.62
177167,2018-06-29 10:17:08.468750,161.82,69.62
177168,2018-06-29 10:17:08.500000,84.39,69.62
177169,2018-06-29 10:17:08.531250,-7.74,69.93
177170,2018-06-29 10:17:08.562500,-93.48,69.93
177171,2018-06-29 10:17:08.593750,-152.75,69.93
177172,2018-06-29 10:17:08.625000,-172.45,69.93
177173,2018-06-29 10:17:08.656250,-156.92,69.93
177174,2018-06-29 10:17:08.687500,-127.64,69.93
177175,2018-06-29 10:17:08.718750,-102.6,69.93
177176,2018-06-29 10:17:08.750000,-83.03,69.93
177177,2018-06-29 10:17:08.781250,-65.36,69.93
177178,2018-06-29 10:17:08.812500,-51.88,69.93
177179,2018-06-29 10:17:08.843750,-42.99,69.93
177180,2018-06-29 10:17:08.875000,-32.31,69.93
177181,2018-06-29 10:17:08.906250,-15.9,69.93
177182,2018-06-29 10:17:08.937500,1.63,69.93
177183,2018-06-29 10:17:08.968750,14.14,69.93
177184,2018-06-29 10:17:09.000000,21.06,69.93
177185,2018-06-29 10:17:09.031250,23.19,69.93
177186,2018-06-29 10:17:09.062500,18.07,69.93
177187,2018-06-29 10:17:09.093750,4.95,69.93
177188,2018-06-29 10:17:09.125000,-11.1,69.93
177189,2018-06-29 10:17:09.156250,-24.51,69.93
177190,2018-06-29 10:17:09.187500,-35.1,69.93
177191,2018-06-29 10:17:09.218750,-46.38,69.93
177192,2018-06-29 10:17:09.250000,-60.23,69.93
177193,2018-06-29 10:17:09.281250,-74.88,69.93
177194,2018-06-29 10:17:09.312500,-87.98,69.93
177195,2018-06-29 10:17:09.343750,-100.07,69.93
177196,2018-06-29 10:17:09.375000,-113.73,69.93
177197,2018-06-29 10:17:09.406250,-128.68,69.93
177198,2018-06-29 10:17:09.437500,-136.41,69.93
177199,2018-06-29 10:17:09.468750,-123.66,69.93
177200,2018-06-29 10:17:09.500000,-86.41,69.93
177201,2018-06-29 10:17:09.531250,-36.47,70.3
177202,2018-06-29 10:17:09.562500,10.63,70.3
177203,2018-06-29 10:17:09.593750,47.99,70.3
177204,2018-06-29 10:17:09.625000,73.84,70.3
177205,2018-06-29 10:17:09.656250,86.06,70.3
177206,2018-06-29 10:17:09.687500,86.81,70.3
177207,2018-06-29 10:17:09.718750,84.35,70.3
177208,2018-06-29 10:17:09.750000,84.21,70.3
177209,2018-06-29 10:17:09.781250,84.43,70.3
177210,2018-06-29 10:17:09.812500,82.87,70.3
177211,2018-06-29 10:17:09.843750,81.7,70.3
177212,2018-06-29 10:17:09.875000,80.99,70.3
177213,2018-06-29 10:17:09.906250,75.54,70.3
177214,2018-06-29 10:17:09.937500,62.21,70.3
177215,2018-06-29 10:17:09.968750,45.4,70.3
177216,2018-06-29 10:17:10.000000,31.57,70.3
177217,2018-06-29 10:17:10.031250,21.89,70.3
177218,2018-06-29 10:17:10.062500,13.34,70.3
177219,2018-06-29 10:17:10.093750,4.13,70.3
177220,2018-06-29 10:17:10.125000,-4.91,70.3
177221,2018-06-29 10:17:10.156250,-13.77,70.3
177222,2018-06-29 10:17:10.187500,-25.45,70.3
177223,2018-06-29 10:17:10.218750,-43.81,70.3
177224,2018-06-29 10:17:10.250000,-68.26,70.3
177225,2018-06-29 10:17:10.281250,-88.49,70.3
177226,2018-06-29 10:17:10.312500,-88.5,70.3
177227,2018-06-29 10:17:10.343750,-61.91,70.3
177228,2018-06-29 10:17:10.375000,-19.5,70.3
177229,2018-06-29 10:17:10.406250,22.94,70.3
177230,2018-06-29 10:17:10.437500,58.02,70.3
177231,2018-06-29 10:17:10.468750,84.38,70.3
177232,2018-06-29 10:17:10.500000,100.28,70.3
177233,2018-06-29 10:17:10.531250,106.0,70.63
177234,2018-06-29 10:17:10.562500,105.98,70.63
177235,2018-06-29 10:17:10.593750,105.18,70.63
177236,2018-06-29 10:17:10.625000,105.48,70.63
177237,2018-06-29 10:17:10.656250,106.29,70.63
177238,2018-06-29 10:17:10.687500,106.55,70.63
177239,2018-06-29 10:17:10.718750,105.31,70.63
177240,2018-06-29 10:17:10.750000,101.55,70.63
177241,2018-06-29 10:17:10.781250,94.78,70.63
177242,2018-06-29 10:17:10.812500,86.35,70.63
177243,2018-06-29 10:17:10.843750,78.85,70.63
177244,2018-06-29 10:17:10.875000,73.27,70.63
177245,2018-06-29 10:17:10.906250,67.18,70.63
177246,2018-06-29 10:17:10.937500,56.5,70.63
177247,2018-06-29 10:17:10.968750,39.53,70.63
177248,2018-06-29 10:17:11.000000,18.68,70.63
177249,2018-06-29 10:17:11.031250,-2.76,70.63
177250,2018-06-29 10:17:11.062500,-24.58,70.63
177251,2018-06-29 10:17:11.093750,-47.88,70.63
177252,2018-06-29 10:17:11.125000,-70.5,70.63
177253,2018-06-29 10:17:11.156250,-88.18,70.63
177254,2018-06-29 10:17:11.187500,-99.62,70.63
177255,2018-06-29 10:17:11.218750,-107.3,70.63
177256,2018-06-29 10:17:11.250000,-114.58,70.63
177257,2018-06-29 10:17:11.281250,-122.79,70.63
177258,2018-06-29 10:17:11.312500,-127.23,70.63
177259,2018-06-29 10:17:11.343750,-118.07,70.63
177260,2018-06-29 10:17:11.375000,-91.46,70.63
177261,2018-06-29 10:17:11.406250,-56.92,70.63
177262,2018-06-29 10:17:11.437500,-27.1,70.63
177263,2018-06-29 10:17:11.468750,-5.19,70.63
177264,2018-06-29 10:17:11.500000,12.28,70.63
177265,2018-06-29 10:17:11.531250,27.18,70.95
177266,2018-06-29 10:17:11.562500,39.03,70.95
177267,2018-06-29 10:17:11.593750,48.08,70.95
177268,2018-06-29 10:17:11.625000,55.8,70.95
177269,2018-06-29 10:17:11.656250,62.85,70.95
177270,2018-06-29 10:17:11.687500,68.19,70.95
177271,2018-06-29 10:17:11.718750,71.2,70.95
177272,2018-06-29 10:17:11.750000,72.57,70.95
177273,2018-06-29 10:17:11.781250,71.33,70.95
177274,2018-06-29 10:17:11.812500,64.75,70.95
177275,2018-06-29 10:17:11.843750,53.14,70.95
177276,2018-06-29 10:17:11.875000,40.99,70.95
177277,2018-06-29 10:17:11.906250,31.33,70.95
177278,2018-06-29 10:17:11.937500,22.3,70.95
177279,2018-06-29 10:17:11.968750,11.03,70.95
177280,2018-06-29 10:17:12.000000,-0.91,70.95
177281,2018-06-29 10:17:12.031250,-9.24,70.95
177282,2018-06-29 10:17:12.062500,-14.71,70.95
177283,2018-06-29 10:17:12.093750,-24.59,70.95
177284,2018-06-29 10:17:12.125000,-43.04,70.95
177285,2018-06-29 10:17:12.156250,-64.88,70.95
177286,2018-06-29 10:17:12.187500,-83.1,70.95
177287,2018-06-29 10:17:12.218750,-97.05,70.95
177288,2018-06-29 10:17:12.250000,-109.94,70.95
177289,2018-06-29 10:17:12.281250,-122.45,70.95
177290,2018-06-29 10:17:12.312500,-130.66,70.95
177291,2018-06-29 10:17:12.343750,-128.22,70.95
177292,2018-06-29 10:17:12.375000,-116.44,70.95
177293,2018-06-29 10:17:12.406250,-113.42,70.95
177294,2018-06-29 10:17:12.437500,-138.01,70.95
177295,2018-06-29 10:17:12.468750,-181.11,70.95
177296,2018-06-29 10:17:12.500000,-211.93,70.95
177297,2018-06-29 10:17:12.531250,-215.13,71.12
177298,2018-06-29 10:17:12.562500,-201.79,71.12
177299,2018-06-29 10:17:12.593750,-185.23,71.12
177300,2018-06-29 10:17:12.625000,-164.4,71.12
177301,2018-06-29 10:17:12.656250,-129.84,71.12
177302,2018-06-29 10:17:12.687500,-76.23,71.12
177303,2018-06-29 10:17:12.718750,-11.71,71.12
177304,2018-06-29 10:17:12.750000,44.44,71.12
177305,2018-06-29 10:17:12.781250,77.54,71.12
177306,2018-06-29 10:17:12.812500,88.93,71.12
177307,2018-06-29 10:17:12.843750,91.25,71.12
177308,2018-06-29 10:17:12.875000,96.01,71.12
177309,2018-06-29 10:17:12.906250,104.96,71.12
177310,2018-06-29 10:17:12.937500,112.25,71.12
177311,2018-06-29 10:17:12.968750,114.01,71.12
177312,2018-06-29 10:17:13.000000,112.65,71.12
177313,2018-06-29 10:17:13.031250,111.82,71.12
177314,2018-06-29 10:17:13.062500,112.44,71.12
177315,2018-06-29 10:17:13.093750,114.14,71.12
177316,2018-06-29 10:17:13.125000,116.05,71.12
177317,2018-06-29 10:17:13.156250,116.82,71.12
177318,2018-06-29 10:17:13.187500,116.32,71.12
177319,2018-06-29 10:17:13.218750,115.54,71.12
177320,2018-06-29 10:17:13.250000,113.76,71.12
177321,2018-06-29 10:17:13.281250,107.95,71.12
177322,2018-06-29 10:17:13.312500,95.81,71.12
177323,2018-06-29 10:17:13.343750,78.01,71.12
177324,2018-06-29 10:17:13.375000,57.42,71.12
177325,2018-06-29 10:17:13.406250,36.7,71.12
177326,2018-06-29 10:17:13.437500,16.92,71.12
177327,2018-06-29 10:17:13.468750,-2.01,71.12
177328,2018-06-29 10:17:13.500000,-22.02,71.12
177329,2018-06-29 10:17:13.531250,-44.2,71.27
177330,2018-06-29 10:17:13.562500,-60.62,71.27
177331,2018-06-29 10:17:13.593750,-57.13,71.27
177332,2018-06-29 10:17:13.625000,-32.18,71.27
177333,2018-06-29 10:17:13.656250,-2.79,71.27
177334,2018-06-29 10:17:13.687500,16.01,71.27
177335,2018-06-29 10:17:13.718750,25.96,71.27
177336,2018-06-29 10:17:13.750000,33.83,71.27
177337,2018-06-29 10:17:13.781250,38.83,71.27
177338,2018-06-29 10:17:13.812500,38.74,71.27
177339,2018-06-29 10:17:13.843750,36.76,71.27
177340,2018-06-29 10:17:13.875000,35.72,71.27
177341,2018-06-29 10:17:13.906250,33.6,71.27
177342,2018-06-29 10:17:13.937500,29.77,71.27
177343,2018-06-29 10:17:13.968750,27.99,71.27
177344,2018-06-29 10:17:14.000000,29.78,71.27
177345,2018-06-29 10:17:14.031250,31.17,71.27
177346,2018-06-29 10:17:14.062500,28.66,71.27
177347,2018-06-29 10:17:14.093750,23.56,71.27
177348,2018-06-29 10:17:14.125000,18.92,71.27
177349,2018-06-29 10:17:14.156250,15.08,71.27
177350,2018-06-29 10:17:14.187500,10.02,71.27
177351,2018-06-29 10:17:14.218750,2.97,71.27
177352,2018-06-29 10:17:14.250000,-4.49,71.27
177353,2018-06-29 10:17:14.281250,-10.45,71.27
177354,2018-06-29 10:17:14.312500,-14.57,71.27
177355,2018-06-29 10:17:14.343750,-18.26,71.27
177356,2018-06-29 10:17:14.375000,-23.91,71.27
177357,2018-06-29 10:17:14.406250,-32.88,71.27
177358,2018-06-29 10:17:14.437500,-43.94,71.27
177359,2018-06-29 10:17:14.468750,-54.3,71.27
177360,2018-06-29 10:17:14.500000,-62.2,71.27
177361,2018-06-29 10:17:14.531250,-68.45,71.35
177362,2018-06-29 10:17:14.562500,-75.24,71.35
177363,2018-06-29 10:17:14.593750,-81.34,71.35
177364,2018-06-29 10:17:14.625000,-79.45,71.35
177365,2018-06-29 10:17:14.656250,-63.04,71.35
177366,2018-06-29 10:17:14.687500,-35.82,71.35
177367,2018-06-29 10:17:14.718750,-9.36,71.35
177368,2018-06-29 10:17:14.750000,8.41,71.35
177369,2018-06-29 10:17:14.781250,18.01,71.35
177370,2018-06-29 10:17:14.812500,23.06,71.35
177371,2018-06-29 10:17:14.843750,25.26,71.35
177372,2018-06-29 10:17:14.875000,24.6,71.35
177373,2018-06-29 10:17:14.906250,20.75,71.35
177374,2018-06-29 10:17:14.937500,14.29,71.35
177375,2018-06-29 10:17:14.968750,7.46,71.35
177376,2018-06-29 10:17:15.000000,2.41,71.35
177377,2018-06-29 10:17:15.031250,-1.19,71.35
177378,2018-06-29 10:17:15.062500,-4.48,71.35
177379,2018-06-29 10:17:15.093750,-6.02,71.35
177380,2018-06-29 10:17:15.125000,-3.52,71.35
177381,2018-06-29 10:17:15.156250,1.67,71.35
177382,2018-06-29 10:17:15.187500,5.17,71.35
177383,2018-06-29 10:17:15.218750,5.58,71.35
177384,2018-06-29 10:17:15.250000,7.11,71.35
177385,2018-06-29 10:17:15.281250,14.55,71.35
177386,2018-06-29 10:17:15.312500,27.35,71.35
177387,2018-06-29 10:17:15.343750,39.26,71.35
177388,2018-06-29 10:17:15.375000,43.47,71.35
177389,2018-06-29 10:17:15.406250,38.76,71.35
177390,2018-06-29 10:17:15.437500,30.15,71.35
177391,2018-06-29 10:17:15.468750,22.64,71.35
177392,2018-06-29 10:17:15.500000,16.08,71.35
177393,2018-06-29 10:17:15.531250,7.1,71.43
177394,2018-06-29 10:17:15.562500,-4.72,71.43
177395,2018-06-29 10:17:15.593750,-12.77,71.43
177396,2018-06-29 10:17:15.625000,-8.77,71.43
177397,2018-06-29 10:17:15.656250,5.93,71.43
177398,2018-06-29 10:17:15.687500,20.56,71.43
177399,2018-06-29 10:17:15.718750,27.83,71.43
177400,2018-06-29 10:17:15.750000,29.21,71.43
177401,2018-06-29 10:17:15.781250,28.37,71.43
177402,2018-06-29 10:17:15.812500,26.67,71.43
177403,2018-06-29 10:17:15.843750,24.59,71.43
177404,2018-06-29 10:17:15.875000,22.2,71.43
177405,2018-06-29 10:17:15.906250,19.77,71.43
177406,2018-06-29 10:17:15.937500,18.21,71.43
177407,2018-06-29 10:17:15.968750,17.92,71.43
177408,2018-06-29 10:17:16.000000,17.5,71.43
177409,2018-06-29 10:17:16.031250,15.07,71.43
177410,2018-06-29 10:17:16.062500,10.28,71.43
177411,2018-06-29 10:17:16.093750,4.22,71.43
177412,2018-06-29 10:17:16.125000,-2.26,71.43
177413,2018-06-29 10:17:16.156250,-9.32,71.43
177414,2018-06-29 10:17:16.187500,-17.55,71.43
177415,2018-06-29 10:17:16.218750,-26.83,71.43
177416,2018-06-29 10:17:16.250000,-36.06,71.43
177417,2018-06-29 10:17:16.281250,-44.45,71.43
177418,2018-06-29 10:17:16.312500,-52.13,71.43
177419,2018-06-29 10:17:16.343750,-59.71,71.43
177420,2018-06-29 10:17:16.375000,-68.6,71.43
177421,2018-06-29 10:17:16.406250,-81.01,71.43
177422,2018-06-29 10:17:16.437500,-97.7,71.43
177423,2018-06-29 10:17:16.468750,-115.23,71.43
177424,2018-06-29 10:17:16.500000,-125.84,71.43
177425,2018-06-29 10:17:16.531250,-121.96,71.55
177426,2018-06-29 10:17:16.562500,-104.29,71.55
177427,2018-06-29 10:17:16.593750,-83.08,71.55
177428,2018-06-29 10:17:16.625000,-67.17,71.55
177429,2018-06-29 10:17:16.656250,-55.92,71.55
177430,2018-06-29 10:17:16.687500,-44.39,71.55
177431,2018-06-29 10:17:16.718750,-30.36,71.55
177432,2018-06-29 10:17:16.750000,-13.16,71.55
177433,2018-06-29 10:17:16.781250,8.51,71.55
177434,2018-06-29 10:17:16.812500,34.32,71.55
177435,2018-06-29 10:17:16.843750,60.64,71.55
177436,2018-06-29 10:17:16.875000,82.31,71.55
177437,2018-06-29 10:17:16.906250,95.95,71.55
177438,2018-06-29 10:17:16.937500,101.6,71.55
177439,2018-06-29 10:17:16.968750,101.47,71.55
177440,2018-06-29 10:17:17.000000,97.43,71.55
177441,2018-06-29 10:17:17.031250,89.85,71.55
177442,2018-06-29 10:17:17.062500,78.31,71.55
177443,2018-06-29 10:17:17.093750,63.67,71.55
177444,2018-06-29 10:17:17.125000,49.72,71.55
177445,2018-06-29 10:17:17.156250,40.24,71.55
177446,2018-06-29 10:17:17.187500,33.7,71.55
177447,2018-06-29 10:17:17.218750,24.37,71.55
177448,2018-06-29 10:17:17.250000,8.87,71.55
177449,2018-06-29 10:17:17.281250,-9.94,71.55
177450,2018-06-29 10:17:17.312500,-23.64,71.55
177451,2018-06-29 10:17:17.343750,-24.26,71.55
177452,2018-06-29 10:17:17.375000,-13.09,71.55
177453,2018-06-29 10:17:17.406250,-0.95,71.55
177454,2018-06-29 10:17:17.437500,3.43,71.55
177455,2018-06-29 10:17:17.468750,1.88,71.55
177456,2018-06-29 10:17:17.500000,1.04,71.55
177457,2018-06-29 10:17:17.531250,2.6,71.6
177458,2018-06-29 10:17:17.562500,3.5,71.6
177459,2018-06-29 10:17:17.593750,3.41,71.6
177460,2018-06-29 10:17:17.625000,5.69,71.6
177461,2018-06-29 10:17:17.656250,11.41,71.6
177462,2018-06-29 10:17:17.687500,18.05,71.6
177463,2018-06-29 10:17:17.718750,23.47,71.6
177464,2018-06-29 10:17:17.750000,26.56,71.6
177465,2018-06-29 10:17:17.781250,25.78,71.6
177466,2018-06-29 10:17:17.812500,20.29,71.6
177467,2018-06-29 10:17:17.843750,10.94,71.6
177468,2018-06-29 10:17:17.875000,-0.68,71.6
177469,2018-06-29 10:17:17.906250,-13.55,71.6
177470,2018-06-29 10:17:17.937500,-27.77,71.6
177471,2018-06-29 10:17:17.968750,-43.67,71.6
177472,2018-06-29 10:17:18.000000,-60.61,71.6
177473,2018-06-29 10:17:18.031250,-77.64,71.6
177474,2018-06-29 10:17:18.062500,-92.71,71.6
177475,2018-06-29 10:17:18.093750,-98.64,71.6
177476,2018-06-29 10:17:18.125000,-86.97,71.6
177477,2018-06-29 10:17:18.156250,-59.43,71.6
177478,2018-06-29 10:17:18.187500,-27.0,71.6
177479,2018-06-29 10:17:18.218750,3.89,71.6
177480,2018-06-29 10:17:18.250000,35.46,71.6
177481,2018-06-29 10:17:18.281250,70.61,71.6
177482,2018-06-29 10:17:18.312500,107.64,71.6
177483,2018-06-29 10:17:18.343750,141.36,71.6
177484,2018-06-29 10:17:18.375000,167.95,71.6
177485,2018-06-29 10:17:18.406250,189.5,71.6
177486,2018-06-29 10:17:18.437500,210.18,71.6
177487,2018-06-29 10:17:18.468750,228.67,71.6
177488,2018-06-29 10:17:18.500000,239.53,71.6
177489,2018-06-29 10:17:18.531250,240.14,71.65
177490,2018-06-29 10:17:18.562500,231.62,71.65
177491,2018-06-29 10:17:18.593750,214.84,71.65
177492,2018-06-29 10:17:18.625000,188.02,71.65
177493,2018-06-29 10:17:18.656250,148.83,71.65
177494,2018-06-29 10:17:18.687500,99.28,71.65
177495,2018-06-29 10:17:18.718750,46.66,71.65
177496,2018-06-29 10:17:18.750000,-1.98,71.65
177497,2018-06-29 10:17:18.781250,-45.72,71.65
177498,2018-06-29 10:17:18.812500,-88.04,71.65
177499,2018-06-29 10:17:18.843750,-126.52,71.65
177500,2018-06-29 10:17:18.875000,-145.25,71.65
177501,2018-06-29 10:17:18.906250,-128.59,71.65
177502,2018-06-29 10:17:18.937500,-85.8,71.65
177503,2018-06-29 10:17:18.968750,-46.3,71.65
177504,2018-06-29 10:17:19.000000,-27.45,71.65
177505,2018-06-29 10:17:19.031250,-24.37,71.65
177506,2018-06-29 10:17:19.062500,-31.3,71.65
177507,2018-06-29 10:17:19.093750,-50.84,71.65
177508,2018-06-29 10:17:19.125000,-79.57,71.65
177509,2018-06-29 10:17:19.156250,-103.6,71.65
177510,2018-06-29 10:17:19.187500,-113.41,71.65
177511,2018-06-29 10:17:19.218750,-113.46,71.65
177512,2018-06-29 10:17:19.250000,-115.12,71.65
177513,2018-06-29 10:17:19.281250,-125.7,71.65
177514,2018-06-29 10:17:19.312500,-144.42,71.65
177515,2018-06-29 10:17:19.343750,-165.14,71.65
177516,2018-06-29 10:17:19.375000,-181.13,71.65
177517,2018-06-29 10:17:19.406250,-188.17,71.65
177518,2018-06-29 10:17:19.437500,-189.63,71.65
177519,2018-06-29 10:17:19.468750,-200.88,71.65
177520,2018-06-29 10:17:19.500000,-237.47,71.65
177521,2018-06-29 10:17:19.531250,-292.34,71.73
177522,2018-06-29 10:17:19.562500,-337.88,71.73
177523,2018-06-29 10:17:19.593750,-351.26,71.73
177524,2018-06-29 10:17:19.625000,-327.35,71.73
177525,2018-06-29 10:17:19.656250,-275.61,71.73
177526,2018-06-29 10:17:19.687500,-215.44,71.73
177527,2018-06-29 10:17:19.718750,-165.83,71.73
177528,2018-06-29 10:17:19.750000,-136.05,71.73
177529,2018-06-29 10:17:19.781250,-128.27,71.73
177530,2018-06-29 10:17:19.812500,-140.39,71.73
177531,2018-06-29 10:17:19.843750,-163.23,71.73
177532,2018-06-29 10:17:19.875000,-184.18,71.73
177533,2018-06-29 10:17:19.906250,-194.3,71.73
177534,2018-06-29 10:17:19.937500,-188.19,71.73
177535,2018-06-29 10:17:19.968750,-162.46,71.73
177536,2018-06-29 10:17:20.000000,-117.64,71.73
177537,2018-06-29 10:17:20.031250,-60.52,71.73
177538,2018-06-29 10:17:20.062500,-3.14,71.73
177539,2018-06-29 10:17:20.093750,43.6,71.73
177540,2018-06-29 10:17:20.125000,75.07,71.73
177541,2018-06-29 10:17:20.156250,90.58,71.73
177542,2018-06-29 10:17:20.187500,90.75,71.73
177543,2018-06-29 10:17:20.218750,79.58,71.73
177544,2018-06-29 10:17:20.250000,63.9,71.73
177545,2018-06-29 10:17:20.281250,47.67,71.73
177546,2018-06-29 10:17:20.312500,29.15,71.73
177547,2018-06-29 10:17:20.343750,5.19,71.73
177548,2018-06-29 10:17:20.375000,-21.12,71.73
177549,2018-06-29 10:17:20.406250,-36.07,71.73
177550,2018-06-29 10:17:20.437500,-23.77,71.73
177551,2018-06-29 10:17:20.468750,17.74,71.73
177552,2018-06-29 10:17:20.500000,72.86,71.73
177553,2018-06-29 10:17:20.531250,122.74,71.82
177554,2018-06-29 10:17:20.562500,158.48,71.82
177555,2018-06-29 10:17:20.593750,180.6,71.82
177556,2018-06-29 10:17:20.625000,192.43,71.82
177557,2018-06-29 10:17:20.656250,196.5,71.82
177558,2018-06-29 10:17:20.687500,195.39,71.82
177559,2018-06-29 10:17:20.718750,192.8,71.82
177560,2018-06-29 10:17:20.750000,192.18,71.82
177561,2018-06-29 10:17:20.781250,195.01,71.82
177562,2018-06-29 10:17:20.812500,200.69,71.82
177563,2018-06-29 10:17:20.843750,206.84,71.82
177564,2018-06-29 10:17:20.875000,209.54,71.82
177565,2018-06-29 10:17:20.906250,206.08,71.82
177566,2018-06-29 10:17:20.937500,200.01,71.82
177567,2018-06-29 10:17:20.968750,200.76,71.82
177568,2018-06-29 10:17:21.000000,214.6,71.82
177569,2018-06-29 10:17:21.031250,237.72,71.82
177570,2018-06-29 10:17:21.062500,261.64,71.82
177571,2018-06-29 10:17:21.093750,280.76,71.82
177572,2018-06-29 10:17:21.125000,290.3,71.82
177573,2018-06-29 10:17:21.156250,281.98,71.82
177574,2018-06-29 10:17:21.187500,252.86,71.82
177575,2018-06-29 10:17:21.218750,216.1,71.82
177576,2018-06-29 10:17:21.250000,188.37,71.82
177577,2018-06-29 10:17:21.281250,169.25,71.82
177578,2018-06-29 10:17:21.312500,146.05,71.82
177579,2018-06-29 10:17:21.343750,112.33,71.82
177580,2018-06-29 10:17:21.375000,69.92,71.82
177581,2018-06-29 10:17:21.406250,21.62,71.82
177582,2018-06-29 10:17:21.437500,-28.71,71.82
177583,2018-06-29 10:17:21.468750,-76.62,71.82
177584,2018-06-29 10:17:21.500000,-119.75,71.82
177585,2018-06-29 10:17:21.531250,-155.92,71.85
177586,2018-06-29 10:17:21.562500,-182.97,71.85
177587,2018-06-29 10:17:21.593750,-200.0,71.85
177588,2018-06-29 10:17:21.625000,-202.65,71.85
177589,2018-06-29 10:17:21.656250,-184.57,71.85
177590,2018-06-29 10:17:21.687500,-151.44,71.85
177591,2018-06-29 10:17:21.718750,-120.88,71.85
177592,2018-06-29 10:17:21.750000,-101.27,71.85
177593,2018-06-29 10:17:21.781250,-85.74,71.85
177594,2018-06-29 10:17:21.812500,-70.07,71.85
177595,2018-06-29 10:17:21.843750,-57.79,71.85
177596,2018-06-29 10:17:21.875000,-48.69,71.85
177597,2018-06-29 10:17:21.906250,-39.39,71.85
177598,2018-06-29 10:17:21.937500,-33.09,71.85
177599,2018-06-29 10:17:21.968750,-35.97,71.85
177600,2018-06-29 10:17:22.000000,-47.54,71.85
177601,2018-06-29 10:17:22.031250,-63.13,71.85
177602,2018-06-29 10:17:22.062500,-81.46,71.85
177603,2018-06-29 10:17:22.093750,-102.06,71.85
177604,2018-06-29 10:17:22.125000,-119.33,71.85
177605,2018-06-29 10:17:22.156250,-125.78,71.85
177606,2018-06-29 10:17:22.187500,-117.3,71.85
177607,2018-06-29 10:17:22.218750,-92.26,71.85
177608,2018-06-29 10:17:22.250000,-53.26,71.85
177609,2018-06-29 10:17:22.281250,-11.63,71.85
177610,2018-06-29 10:17:22.312500,18.81,71.85
177611,2018-06-29 10:17:22.343750,33.01,71.85
177612,2018-06-29 10:17:22.375000,33.1,71.85
177613,2018-06-29 10:17:22.406250,21.39,71.85
177614,2018-06-29 10:17:22.437500,0.64,71.85
177615,2018-06-29 10:17:22.468750,-25.73,71.85
177616,2018-06-29 10:17:22.500000,-55.43,71.85
177617,2018-06-29 10:17:22.531250,-86.16,71.98
177618,2018-06-29 10:17:22.562500,-114.98,71.98
177619,2018-06-29 10:17:22.593750,-142.31,71.98
177620,2018-06-29 10:17:22.625000,-172.13,71.98
177621,2018-06-29 10:17:22.656250,-202.44,71.98
177622,2018-06-29 10:17:22.687500,-217.9,71.98
177623,2018-06-29 10:17:22.718750,-201.82,71.98
177624,2018-06-29 10:17:22.750000,-157.07,71.98
177625,2018-06-29 10:17:22.781250,-104.5,71.98
177626,2018-06-29 10:17:22.812500,-60.45,71.98
177627,2018-06-29 10:17:22.843750,-26.32,71.98
177628,2018-06-29 10:17:22.875000,2.98,71.98
177629,2018-06-29 10:17:22.906250,33.03,71.98
177630,2018-06-29 10:17:22.937500,68.55,71.98
177631,2018-06-29 10:17:22.968750,107.7,71.98
177632,2018-06-29 10:17:23.000000,141.4,71.98
177633,2018-06-29 10:17:23.031250,164.84,71.98
177634,2018-06-29 10:17:23.062500,182.47,71.98
177635,2018-06-29 10:17:23.093750,196.39,71.98
177636,2018-06-29 10:17:23.125000,199.66,71.98
177637,2018-06-29 10:17:23.156250,187.71,71.98
177638,2018-06-29 10:17:23.187500,166.95,71.98
177639,2018-06-29 10:17:23.218750,145.83,71.98
177640,2018-06-29 10:17:23.250000,125.03,71.98
177641,2018-06-29 10:17:23.281250,102.25,71.98
177642,2018-06-29 10:17:23.312500,81.4,71.98
177643,2018-06-29 10:17:23.343750,69.94,71.98
177644,2018-06-29 10:17:23.375000,67.75,71.98
177645,2018-06-29 10:17:23.406250,65.79,71.98
177646,2018-06-29 10:17:23.437500,57.83,71.98
177647,2018-06-29 10:17:23.468750,45.18,71.98
177648,2018-06-29 10:17:23.500000,28.1,71.98
177649,2018-06-29 10:17:23.531250,0.82,72.13
177650,2018-06-29 10:17:23.562500,-41.3,72.13
177651,2018-06-29 10:17:23.593750,-92.55,72.13
177652,2018-06-29 10:17:23.625000,-134.97,72.13
177653,2018-06-29 10:17:23.656250,-147.63,72.13
177654,2018-06-29 10:17:23.687500,-123.31,72.13
177655,2018-06-29 10:17:23.718750,-75.88,72.13
177656,2018-06-29 10:17:23.750000,-27.42,72.13
177657,2018-06-29 10:17:23.781250,9.35,72.13
177658,2018-06-29 10:17:23.812500,32.75,72.13
177659,2018-06-29 10:17:23.843750,43.06,72.13
177660,2018-06-29 10:17:23.875000,41.19,72.13
177661,2018-06-29 10:17:23.906250,33.28,72.13
177662,2018-06-29 10:17:23.937500,26.93,72.13
177663,2018-06-29 10:17:23.968750,22.91,72.13
177664,2018-06-29 10:17:24.000000,17.03,72.13
177665,2018-06-29 10:17:24.031250,7.6,72.13
177666,2018-06-29 10:17:24.062500,-5.22,72.13
177667,2018-06-29 10:17:24.093750,-23.02,72.13
177668,2018-06-29 10:17:24.125000,-44.89,72.13
177669,2018-06-29 10:17:24.156250,-64.39,72.13
177670,2018-06-29 10:17:24.187500,-76.02,72.13
177671,2018-06-29 10:17:24.218750,-79.79,72.13
177672,2018-06-29 10:17:24.250000,-77.15,72.13
177673,2018-06-29 10:17:24.281250,-68.24,72.13
177674,2018-06-29 10:17:24.312500,-53.66,72.13
177675,2018-06-29 10:17:24.343750,-34.43,72.13
177676,2018-06-29 10:17:24.375000,-13.82,72.13
177677,2018-06-29 10:17:24.406250,-1.96,72.13
177678,2018-06-29 10:17:24.437500,-10.47,72.13
177679,2018-06-29 10:17:24.468750,-38.93,72.13
177680,2018-06-29 10:17:24.500000,-72.81,72.13
177681,2018-06-29 10:17:24.531250,-94.83,72.28
177682,2018-06-29 10:17:24.562500,-93.68,72.28
177683,2018-06-29 10:17:24.593750,-67.4,72.28
177684,2018-06-29 10:17:24.625000,-24.52,72.28
177685,2018-06-29 10:17:24.656250,21.81,72.28
177686,2018-06-29 10:17:24.687500,63.56,72.28
177687,2018-06-29 10:17:24.718750,98.9,72.28
177688,2018-06-29 10:17:24.750000,126.0,72.28
177689,2018-06-29 10:17:24.781250,142.25,72.28
177690,2018-06-29 10:17:24.812500,148.28,72.28
177691,2018-06-29 10:17:24.843750,146.91,72.28
177692,2018-06-29 10:17:24.875000,137.95,72.28
177693,2018-06-29 10:17:24.906250,116.28,72.28
177694,2018-06-29 10:17:24.937500,77.06,72.28
177695,2018-06-29 10:17:24.968750,22.28,72.28
177696,2018-06-29 10:17:25.000000,-40.16,72.28
177697,2018-06-29 10:17:25.031250,-101.49,72.28
177698,2018-06-29 10:17:25.062500,-151.81,72.28
177699,2018-06-29 10:17:25.093750,-180.34,72.28
177700,2018-06-29 10:17:25.125000,-183.46,72.28
177701,2018-06-29 10:17:25.156250,-168.1,72.28
177702,2018-06-29 10:17:25.187500,-141.25,72.28
177703,2018-06-29 10:17:25.218750,-102.25,72.28
177704,2018-06-29 10:17:25.250000,-51.52,72.28
177705,2018-06-29 10:17:25.281250,2.0,72.28
177706,2018-06-29 10:17:25.312500,52.36,72.28
177707,2018-06-29 10:17:25.343750,103.42,72.28
177708,2018-06-29 10:17:25.375000,152.06,72.28
177709,2018-06-29 10:17:25.406250,181.39,72.28
177710,2018-06-29 10:17:25.437500,182.32,72.28
177711,2018-06-29 10:17:25.468750,164.14,72.28
177712,2018-06-29 10:17:25.500000,139.01,72.28
177713,2018-06-29 10:17:25.531250,113.2,72.43
177714,2018-06-29 10:17:25.562500,91.47,72.43
177715,2018-06-29 10:17:25.593750,75.03,72.43
177716,2018-06-29 10:17:25.625000,60.15,72.43
177717,2018-06-29 10:17:25.656250,45.12,72.43
177718,2018-06-29 10:17:25.687500,33.3,72.43
177719,2018-06-29 10:17:25.718750,28.35,72.43
177720,2018-06-29 10:17:25.750000,29.99,72.43
177721,2018-06-29 10:17:25.781250,34.84,72.43
177722,2018-06-29 10:17:25.812500,39.3,72.43
177723,2018-06-29 10:17:25.843750,41.72,72.43
177724,2018-06-29 10:17:25.875000,40.43,72.43
177725,2018-06-29 10:17:25.906250,33.08,72.43
177726,2018-06-29 10:17:25.937500,20.69,72.43
177727,2018-06-29 10:17:25.968750,6.82,72.43
177728,2018-06-29 10:17:26.000000,-5.89,72.43
177729,2018-06-29 10:17:26.031250,-17.73,72.43
177730,2018-06-29 10:17:26.062500,-28.78,72.43
177731,2018-06-29 10:17:26.093750,-39.62,72.43
177732,2018-06-29 10:17:26.125000,-51.22,72.43
177733,2018-06-29 10:17:26.156250,-63.44,72.43
177734,2018-06-29 10:17:26.187500,-72.49,72.43
177735,2018-06-29 10:17:26.218750,-69.21,72.43
177736,2018-06-29 10:17:26.250000,-48.3,72.43
177737,2018-06-29 10:17:26.281250,-10.65,72.43
177738,2018-06-29 10:17:26.312500,27.67,72.43
177739,2018-06-29 10:17:26.343750,54.13,72.43
177740,2018-06-29 10:17:26.375000,68.98,72.43
177741,2018-06-29 10:17:26.406250,85.46,72.43
177742,2018-06-29 10:17:26.437500,109.82,72.43
177743,2018-06-29 10:17:26.468750,126.74,72.43
177744,2018-06-29 10:17:26.500000,130.44,72.43
177745,2018-06-29 10:17:26.531250,130.85,72.53
177746,2018-06-29 10:17:26.562500,155.9,72.53
177747,2018-06-29 10:17:26.593750,193.2,72.53
177748,2018-06-29 10:17:26.625000,218.88,72.53
177749,2018-06-29 10:17:26.656250,233.07,72.53
177750,2018-06-29 10:17:26.687500,266.61,72.53
177751,2018-06-29 10:17:26.718750,335.38,72.53
177752,2018-06-29 10:17:26.750000,405.99,72.53
177753,2018-06-29 10:17:26.781250,461.61,72.53
177754,2018-06-29 10:17:26.812500,364.81,72.53
177755,2018-06-29 10:17:26.843750,84.71,72.53
177756,2018-06-29 10:17:26.875000,-161.42,72.53
177757,2018-06-29 10:17:26.906250,-300.71,72.53
177758,2018-06-29 10:17:26.937500,-392.49,72.53
177759,2018-06-29 10:17:26.968750,-447.76,72.53
177760,2018-06-29 10:17:27.000000,-456.9,72.53
177761,2018-06-29 10:17:27.031250,-442.13,72.53
177762,2018-06-29 10:17:27.062500,-414.44,72.53
177763,2018-06-29 10:17:27.093750,-367.59,72.53
177764,2018-06-29 10:17:27.125000,-290.82,72.53
177765,2018-06-29 10:17:27.156250,-213.05,72.53
177766,2018-06-29 10:17:27.187500,-167.8,72.53
177767,2018-06-29 10:17:27.218750,-150.72,72.53
177768,2018-06-29 10:17:27.250000,-134.71,72.53
177769,2018-06-29 10:17:27.281250,-102.09,72.53
177770,2018-06-29 10:17:27.312500,-52.04,72.53
177771,2018-06-29 10:17:27.343750,-14.74,72.53
177772,2018-06-29 10:17:27.375000,13.0,72.53
177773,2018-06-29 10:17:27.406250,55.78,72.53
177774,2018-06-29 10:17:27.437500,101.77,72.53
177775,2018-06-29 10:17:27.468750,126.42,72.53
177776,2018-06-29 10:17:27.500000,135.51,72.53
177777,2018-06-29 10:17:27.531250,142.04,72.58
177778,2018-06-29 10:17:27.562500,147.19,72.58
177779,2018-06-29 10:17:27.593750,143.72,72.58
177780,2018-06-29 10:17:27.625000,129.59,72.58
177781,2018-06-29 10:17:27.656250,106.6,72.58
177782,2018-06-29 10:17:27.687500,78.34,72.58
177783,2018-06-29 10:17:27.718750,50.84,72.58
177784,2018-06-29 10:17:27.750000,29.03,72.58
177785,2018-06-29 10:17:27.781250,20.48,72.58
177786,2018-06-29 10:17:27.812500,30.56,72.58
177787,2018-06-29 10:17:27.843750,53.22,72.58
177788,2018-06-29 10:17:27.875000,73.64,72.58
177789,2018-06-29 10:17:27.906250,85.59,72.58
177790,2018-06-29 10:17:27.937500,96.47,72.58
177791,2018-06-29 10:17:27.968750,110.67,72.58
177792,2018-06-29 10:17:28.000000,121.0,72.58
177793,2018-06-29 10:17:28.031250,116.86,72.58
177794,2018-06-29 10:17:28.062500,93.0,72.58
177795,2018-06-29 10:17:28.093750,50.96,72.58
177796,2018-06-29 10:17:28.125000,-1.38,72.58
177797,2018-06-29 10:17:28.156250,-50.11,72.58
177798,2018-06-29 10:17:28.187500,-82.18,72.58
177799,2018-06-29 10:17:28.218750,-96.57,72.58
177800,2018-06-29 10:17:28.250000,-104.36,72.58
177801,2018-06-29 10:17:28.281250,-113.46,72.58
177802,2018-06-29 10:17:28.312500,-121.56,72.58
177803,2018-06-29 10:17:28.343750,-127.47,72.58
177804,2018-06-29 10:17:28.375000,-135.76,72.58
177805,2018-06-29 10:17:28.406250,-146.3,72.58
177806,2018-06-29 10:17:28.437500,-153.28,72.58
177807,2018-06-29 10:17:28.468750,-155.19,72.58
177808,2018-06-29 10:17:28.500000,-150.67,72.58
177809,2018-06-29 10:17:28.531250,-126.74,72.87
177810,2018-06-29 10:17:28.562500,-74.33,72.87
177811,2018-06-29 10:17:28.593750,-15.22,72.87
177812,2018-06-29 10:17:28.625000,13.79,72.87
177813,2018-06-29 10:17:28.656250,5.64,72.87
177814,2018-06-29 10:17:28.687500,-14.1,72.87
177815,2018-06-29 10:17:28.718750,-26.06,72.87
177816,2018-06-29 10:17:28.750000,-31.77,72.87
177817,2018-06-29 10:17:28.781250,-33.87,72.87
177818,2018-06-29 10:17:28.812500,-28.24,72.87
177819,2018-06-29 10:17:28.843750,-16.03,72.87
177820,2018-06-29 10:17:28.875000,-5.66,72.87
177821,2018-06-29 10:17:28.906250,-2.16,72.87
177822,2018-06-29 10:17:28.937500,-2.57,72.87
177823,2018-06-29 10:17:28.968750,-1.57,72.87
177824,2018-06-29 10:17:29.000000,2.37,72.87
177825,2018-06-29 10:17:29.031250,6.8,72.87
177826,2018-06-29 10:17:29.062500,9.62,72.87
177827,2018-06-29 10:17:29.093750,11.11,72.87
177828,2018-06-29 10:17:29.125000,12.18,72.87
177829,2018-06-29 10:17:29.156250,13.52,72.87
177830,2018-06-29 10:17:29.187500,15.49,72.87
177831,2018-06-29 10:17:29.218750,15.1,72.87
177832,2018-06-29 10:17:29.250000,5.4,72.87
177833,2018-06-29 10:17:29.281250,-17.33,72.87
177834,2018-06-29 10:17:29.312500,-47.8,72.87
177835,2018-06-29 10:17:29.343750,-75.83,72.87
177836,2018-06-29 10:17:29.375000,-94.65,72.87
177837,2018-06-29 10:17:29.406250,-101.21,72.87
177838,2018-06-29 10:17:29.437500,-89.81,72.87
177839,2018-06-29 10:17:29.468750,-56.36,72.87
177840,2018-06-29 10:17:29.500000,-12.63,72.87
177841,2018-06-29 10:17:29.531250,17.86,73.12
177842,2018-06-29 10:17:29.562500,24.44,73.12
177843,2018-06-29 10:17:29.593750,17.61,73.12
177844,2018-06-29 10:17:29.625000,10.16,73.12
177845,2018-06-29 10:17:29.656250,5.17,73.12
177846,2018-06-29 10:17:29.687500,4.57,73.12
177847,2018-06-29 10:17:29.718750,12.3,73.12
177848,2018-06-29 10:17:29.750000,23.71,73.12
177849,2018-06-29 10:17:29.781250,27.25,73.12
177850,2018-06-29 10:17:29.812500,21.48,73.12
177851,2018-06-29 10:17:29.843750,15.42,73.12
177852,2018-06-29 10:17:29.875000,11.18,73.12
177853,2018-06-29 10:17:29.906250,4.82,73.12
177854,2018-06-29 10:17:29.937500,1.82,73.12
177855,2018-06-29 10:17:29.968750,11.18,73.12
177856,2018-06-29 10:17:30.000000,28.75,73.12
177857,2018-06-29 10:17:30.031250,42.01,73.12
177858,2018-06-29 10:17:30.062500,45.7,73.12
177859,2018-06-29 10:17:30.093750,43.46,73.12
177860,2018-06-29 10:17:30.125000,40.76,73.12
177861,2018-06-29 10:17:30.156250,41.46,73.12
177862,2018-06-29 10:17:30.187500,45.65,73.12
177863,2018-06-29 10:17:30.218750,48.45,73.12
177864,2018-06-29 10:17:30.250000,43.83,73.12
177865,2018-06-29 10:17:30.281250,32.09,73.12
177866,2018-06-29 10:17:30.312500,21.73,73.12
177867,2018-06-29 10:17:30.343750,17.45,73.12
177868,2018-06-29 10:17:30.375000,8.65,73.12
177869,2018-06-29 10:17:30.406250,-17.18,73.12
177870,2018-06-29 10:17:30.437500,-50.31,73.12
177871,2018-06-29 10:17:30.468750,-66.06,73.12
177872,2018-06-29 10:17:30.500000,-56.72,73.12
177873,2018-06-29 10:17:30.531250,-38.59,73.32
177874,2018-06-29 10:17:30.562500,-29.04,73.32
177875,2018-06-29 10:17:30.593750,-31.24,73.32
177876,2018-06-29 10:17:30.625000,-39.73,73.32
177877,2018-06-29 10:17:30.656250,-49.49,73.32
177878,2018-06-29 10:17:30.687500,-58.1,73.32
177879,2018-06-29 10:17:30.718750,-63.82,73.32
177880,2018-06-29 10:17:30.750000,-63.71,73.32
177881,2018-06-29 10:17:30.781250,-56.07,73.32
177882,2018-06-29 10:17:30.812500,-40.83,73.32
177883,2018-06-29 10:17:30.843750,-21.73,73.32
177884,2018-06-29 10:17:30.875000,-8.19,73.32
177885,2018-06-29 10:17:30.906250,-8.81,73.32
177886,2018-06-29 10:17:30.937500,-22.07,73.32
177887,2018-06-29 10:17:30.968750,-38.35,73.32
177888,2018-06-29 10:17:31.000000,-52.43,73.32
177889,2018-06-29 10:17:31.031250,-63.24,73.32
177890,2018-06-29 10:17:31.062500,-67.65,73.32
177891,2018-06-29 10:17:31.093750,-60.38,73.32
177892,2018-06-29 10:17:31.125000,-47.24,73.32
177893,2018-06-29 10:17:31.156250,-42.51,73.32
177894,2018-06-29 10:17:31.187500,-53.52,73.32
177895,2018-06-29 10:17:31.218750,-78.45,73.32
177896,2018-06-29 10:17:31.250000,-112.38,73.32
177897,2018-06-29 10:17:31.281250,-155.57,73.32
177898,2018-06-29 10:17:31.312500,-194.23,73.32
177899,2018-06-29 10:17:31.343750,-214.68,73.32
177900,2018-06-29 10:17:31.375000,-212.11,73.32
177901,2018-06-29 10:17:31.406250,-195.37,73.32
177902,2018-06-29 10:17:31.437500,-168.28,73.32
177903,2018-06-29 10:17:31.468750,-122.63,73.32
177904,2018-06-29 10:17:31.500000,-63.25,73.32
177905,2018-06-29 10:17:31.531250,-5.98,73.53
177906,2018-06-29 10:17:31.562500,25.49,73.53
177907,2018-06-29 10:17:31.593750,42.25,73.53
177908,2018-06-29 10:17:31.625000,58.63,73.53
177909,2018-06-29 10:17:31.656250,93.16,73.53
177910,2018-06-29 10:17:31.687500,201.65,73.53
177911,2018-06-29 10:17:31.718750,281.61,73.53
177912,2018-06-29 10:17:31.750000,287.22,73.53
177913,2018-06-29 10:17:31.781250,254.35,73.53
177914,2018-06-29 10:17:31.812500,208.94,73.53
177915,2018-06-29 10:17:31.843750,154.56,73.53
177916,2018-06-29 10:17:31.875000,104.96,73.53
177917,2018-06-29 10:17:31.906250,62.22,73.53
177918,2018-06-29 10:17:31.937500,29.05,73.53
177919,2018-06-29 10:17:31.968750,-5.12,73.53
177920,2018-06-29 10:17:32.000000,-40.12,73.53
177921,2018-06-29 10:17:32.031250,-58.9,73.53
177922,2018-06-29 10:17:32.062500,-57.61,73.53
177923,2018-06-29 10:17:32.093750,-49.09,73.53
177924,2018-06-29 10:17:32.125000,-53.67,73.53
177925,2018-06-29 10:17:32.156250,-68.39,73.53
177926,2018-06-29 10:17:32.187500,-78.77,73.53
177927,2018-06-29 10:17:32.218750,-75.8,73.53
177928,2018-06-29 10:17:32.250000,-57.9,73.53
177929,2018-06-29 10:17:32.281250,-24.19,73.53
177930,2018-06-29 10:17:32.312500,22.21,73.53
177931,2018-06-29 10:17:32.343750,65.09,73.53
177932,2018-06-29 10:17:32.375000,89.86,73.53
177933,2018-06-29 10:17:32.406250,97.44,73.53
177934,2018-06-29 10:17:32.437500,97.99,73.53
177935,2018-06-29 10:17:32.468750,94.92,73.53
177936,2018-06-29 10:17:32.500000,86.63,73.53
177937,2018-06-29 10:17:32.531250,76.34,73.77
177938,2018-06-29 10:17:32.562500,69.08,73.77
177939,2018-06-29 10:17:32.593750,64.19,73.77
177940,2018-06-29 10:17:32.625000,58.01,73.77
177941,2018-06-29 10:17:32.656250,48.62,73.77
177942,2018-06-29 10:17:32.687500,35.39,73.77
177943,2018-06-29 10:17:32.718750,17.76,73.77
177944,2018-06-29 10:17:32.750000,-3.53,73.77
177945,2018-06-29 10:17:32.781250,-26.56,73.77
177946,2018-06-29 10:17:32.812500,-49.41,73.77
177947,2018-06-29 10:17:32.843750,-70.25,73.77
177948,2018-06-29 10:17:32.875000,-87.74,73.77
177949,2018-06-29 10:17:32.906250,-103.6,73.77
177950,2018-06-29 10:17:32.937500,-123.34,73.77
177951,2018-06-29 10:17:32.968750,-150.86,73.77
177952,2018-06-29 10:17:33.000000,-180.97,73.77
177953,2018-06-29 10:17:33.031250,-201.1,73.77
177954,2018-06-29 10:17:33.062500,-203.11,73.77
177955,2018-06-29 10:17:33.093750,-190.55,73.77
177956,2018-06-29 10:17:33.125000,-174.09,73.77
177957,2018-06-29 10:17:33.156250,-162.36,73.77
177958,2018-06-29 10:17:33.187500,-157.07,73.77
177959,2018-06-29 10:17:33.218750,-156.53,73.77
177960,2018-06-29 10:17:33.250000,-160.48,73.77
177961,2018-06-29 10:17:33.281250,-165.49,73.77
177962,2018-06-29 10:17:33.312500,-160.41,73.77
177963,2018-06-29 10:17:33.343750,-137.6,73.77
177964,2018-06-29 10:17:33.375000,-103.6,73.77
177965,2018-06-29 10:17:33.406250,-68.13,73.77
177966,2018-06-29 10:17:33.437500,-29.97,73.77
177967,2018-06-29 10:17:33.468750,17.14,73.77
177968,2018-06-29 10:17:33.500000,70.7,73.77
177969,2018-06-29 10:17:33.531250,118.5,74.05
177970,2018-06-29 10:17:33.562500,148.75,74.05
177971,2018-06-29 10:17:33.593750,157.72,74.05
177972,2018-06-29 10:17:33.625000,149.74,74.05
177973,2018-06-29 10:17:33.656250,135.23,74.05
177974,2018-06-29 10:17:33.687500,127.66,74.05
177975,2018-06-29 10:17:33.718750,134.29,74.05
177976,2018-06-29 10:17:33.750000,149.49,74.05
177977,2018-06-29 10:17:33.781250,164.12,74.05
177978,2018-06-29 10:17:33.812500,179.86,74.05
177979,2018-06-29 10:17:33.843750,203.5,74.05
177980,2018-06-29 10:17:33.875000,229.74,74.05
177981,2018-06-29 10:17:33.906250,242.87,74.05
177982,2018-06-29 10:17:33.937500,234.72,74.05
177983,2018-06-29 10:17:33.968750,209.83,74.05
177984,2018-06-29 10:17:34.000000,175.11,74.05
177985,2018-06-29 10:17:34.031250,136.14,74.05
177986,2018-06-29 10:17:34.062500,101.07,74.05
177987,2018-06-29 10:17:34.093750,77.49,74.05
177988,2018-06-29 10:17:34.125000,65.97,74.05
177989,2018-06-29 10:17:34.156250,62.15,74.05
177990,2018-06-29 10:17:34.187500,63.05,74.05
177991,2018-06-29 10:17:34.218750,67.52,74.05
177992,2018-06-29 10:17:34.250000,72.6,74.05
177993,2018-06-29 10:17:34.281250,73.97,74.05
177994,2018-06-29 10:17:34.312500,69.17,74.05
177995,2018-06-29 10:17:34.343750,58.37,74.05
177996,2018-06-29 10:17:34.375000,43.12,74.05
177997,2018-06-29 10:17:34.406250,24.75,74.05
177998,2018-06-29 10:17:34.437500,3.68,74.05
177999,2018-06-29 10:17:34.468750,-19.9,74.05
178000,2018-06-29 10:17:34.500000,-44.2,74.05
178001,2018-06-29 10:17:34.531250,-63.47,74.3
178002,2018-06-29 10:17:34.562500,-67.94,74.3
178003,2018-06-29 10:17:34.593750,-51.38,74.3
178004,2018-06-29 10:17:34.625000,-19.91,74.3
178005,2018-06-29 10:17:34.656250,12.2,74.3
178006,2018-06-29 10:17:34.687500,35.78,74.3
178007,2018-06-29 10:17:34.718750,50.39,74.3
178008,2018-06-29 10:17:34.750000,57.31,74.3
178009,2018-06-29 10:17:34.781250,56.38,74.3
178010,2018-06-29 10:17:34.812500,49.34,74.3
178011,2018-06-29 10:17:34.843750,40.48,74.3
178012,2018-06-29 10:17:34.875000,33.22,74.3
178013,2018-06-29 10:17:34.906250,28.88,74.3
178014,2018-06-29 10:17:34.937500,27.81,74.3
178015,2018-06-29 10:17:34.968750,28.74,74.3
178016,2018-06-29 10:17:35.000000,28.44,74.3
178017,2018-06-29 10:17:35.031250,24.52,74.3
178018,2018-06-29 10:17:35.062500,16.36,74.3
178019,2018-06-29 10:17:35.093750,3.77,74.3
178020,2018-06-29 10:17:35.125000,-11.76,74.3
178021,2018-06-29 10:17:35.156250,-25.95,74.3
178022,2018-06-29 10:17:35.187500,-35.22,74.3
178023,2018-06-29 10:17:35.218750,-40.18,74.3
178024,2018-06-29 10:17:35.250000,-44.38,74.3
178025,2018-06-29 10:17:35.281250,-51.34,74.3
178026,2018-06-29 10:17:35.312500,-59.59,74.3
178027,2018-06-29 10:17:35.343750,-59.31,74.3
178028,2018-06-29 10:17:35.375000,-41.11,74.3
178029,2018-06-29 10:17:35.406250,-9.53,74.3
178030,2018-06-29 10:17:35.437500,20.81,74.3
178031,2018-06-29 10:17:35.468750,41.7,74.3
178032,2018-06-29 10:17:35.500000,54.31,74.3
178033,2018-06-29 10:17:35.531250,59.72,74.53
178034,2018-06-29 10:17:35.562500,57.49,74.53
178035,2018-06-29 10:17:35.593750,50.99,74.53
178036,2018-06-29 10:17:35.625000,45.7,74.53
178037,2018-06-29 10:17:35.656250,43.17,74.53
178038,2018-06-29 10:17:35.687500,42.07,74.53
178039,2018-06-29 10:17:35.718750,42.41,74.53
178040,2018-06-29 10:17:35.750000,44.02,74.53
178041,2018-06-29 10:17:35.781250,44.0,74.53
178042,2018-06-29 10:17:35.812500,39.81,74.53
178043,2018-06-29 10:17:35.843750,32.5,74.53
178044,2018-06-29 10:17:35.875000,23.89,74.53
178045,2018-06-29 10:17:35.906250,13.22,74.53
178046,2018-06-29 10:17:35.937500,-0.03,74.53
178047,2018-06-29 10:17:35.968750,-13.34,74.53
178048,2018-06-29 10:17:36.000000,-23.84,74.53
178049,2018-06-29 10:17:36.031250,-32.16,74.53
178050,2018-06-29 10:17:36.062500,-41.87,74.53
178051,2018-06-29 10:17:36.093750,-56.08,74.53
178052,2018-06-29 10:17:36.125000,-72.77,74.53
178053,2018-06-29 10:17:36.156250,-81.41,74.53
178054,2018-06-29 10:17:36.187500,-70.26,74.53
178055,2018-06-29 10:17:36.218750,-40.63,74.53
178056,2018-06-29 10:17:36.250000,-7.0,74.53
178057,2018-06-29 10:17:36.281250,19.51,74.53
178058,2018-06-29 10:17:36.312500,39.2,74.53
178059,2018-06-29 10:17:36.343750,54.85,74.53
178060,2018-06-29 10:17:36.375000,65.59,74.53
178061,2018-06-29 10:17:36.406250,71.5,74.53
178062,2018-06-29 10:17:36.437500,76.0,74.53
178063,2018-06-29 10:17:36.468750,82.29,74.53
178064,2018-06-29 10:17:36.500000,90.85,74.53
178065,2018-06-29 10:17:36.531250,100.25,74.75
178066,2018-06-29 10:17:36.562500,108.25,74.75
178067,2018-06-29 10:17:36.593750,112.85,74.75
178068,2018-06-29 10:17:36.625000,113.52,74.75
178069,2018-06-29 10:17:36.656250,110.87,74.75
178070,2018-06-29 10:17:36.687500,105.7,74.75
178071,2018-06-29 10:17:36.718750,98.81,74.75
178072,2018-06-29 10:17:36.750000,90.52,74.75
178073,2018-06-29 10:17:36.781250,79.99,74.75
178074,2018-06-29 10:17:36.812500,66.11,74.75
178075,2018-06-29 10:17:36.843750,48.16,74.75
178076,2018-06-29 10:17:36.875000,25.15,74.75
178077,2018-06-29 10:17:36.906250,-3.13,74.75
178078,2018-06-29 10:17:36.937500,-34.23,74.75
178079,2018-06-29 10:17:36.968750,-63.98,74.75
178080,2018-06-29 10:17:37.000000,-88.51,74.75
178081,2018-06-29 10:17:37.031250,-102.91,74.75
178082,2018-06-29 10:17:37.062500,-100.72,74.75
178083,2018-06-29 10:17:37.093750,-79.89,74.75
178084,2018-06-29 10:17:37.125000,-48.37,74.75
178085,2018-06-29 10:17:37.156250,-18.57,74.75
178086,2018-06-29 10:17:37.187500,3.6,74.75
178087,2018-06-29 10:17:37.218750,19.39,74.75
178088,2018-06-29 10:17:37.250000,29.32,74.75
178089,2018-06-29 10:17:37.281250,31.82,74.75
178090,2018-06-29 10:17:37.312500,28.2,74.75
178091,2018-06-29 10:17:37.343750,22.35,74.75
178092,2018-06-29 10:17:37.375000,16.79,74.75
178093,2018-06-29 10:17:37.406250,13.49,74.75
178094,2018-06-29 10:17:37.437500,14.94,74.75
178095,2018-06-29 10:17:37.468750,19.67,74.75
178096,2018-06-29 10:17:37.500000,20.01,74.75
178097,2018-06-29 10:17:37.531250,9.51,74.98
178098,2018-06-29 10:17:37.562500,-9.18,74.98
178099,2018-06-29 10:17:37.593750,-26.61,74.98
178100,2018-06-29 10:17:37.625000,-36.24,74.98
178101,2018-06-29 10:17:37.656250,-39.74,74.98
178102,2018-06-29 10:17:37.687500,-41.99,74.98
178103,2018-06-29 10:17:37.718750,-47.01,74.98
178104,2018-06-29 10:17:37.750000,-56.42,74.98
178105,2018-06-29 10:17:37.781250,-69.78,74.98
178106,2018-06-29 10:17:37.812500,-84.81,74.98
178107,2018-06-29 10:17:37.843750,-100.33,74.98
178108,2018-06-29 10:17:37.875000,-115.91,74.98
178109,2018-06-29 10:17:37.906250,-128.99,74.98
178110,2018-06-29 10:17:37.937500,-138.14,74.98
178111,2018-06-29 10:17:37.968750,-144.64,74.98
178112,2018-06-29 10:17:38.000000,-154.78,74.98
178113,2018-06-29 10:17:38.031250,-169.35,74.98
178114,2018-06-29 10:17:38.062500,-188.5,74.98
178115,2018-06-29 10:17:38.093750,-213.25,74.98
178116,2018-06-29 10:17:38.125000,-246.56,74.98
178117,2018-06-29 10:17:38.156250,-285.11,74.98
178118,2018-06-29 10:17:38.187500,-311.95,74.98
178119,2018-06-29 10:17:38.218750,-320.87,74.98
178120,2018-06-29 10:17:38.250000,-321.0,74.98
178121,2018-06-29 10:17:38.281250,-325.82,74.98
178122,2018-06-29 10:17:38.312500,-300.34,74.98
178123,2018-06-29 10:17:38.343750,-210.84,74.98
178124,2018-06-29 10:17:38.375000,-93.63,74.98
178125,2018-06-29 10:17:38.406250,-33.8,74.98
178126,2018-06-29 10:17:38.437500,-63.66,74.98
178127,2018-06-29 10:17:38.468750,-132.28,74.98
178128,2018-06-29 10:17:38.500000,-198.13,74.98
178129,2018-06-29 10:17:38.531250,-161.23,75.23
178130,2018-06-29 10:17:38.562500,5.3,75.23
178131,2018-06-29 10:17:38.593750,148.97,75.23
178132,2018-06-29 10:17:38.625000,209.52,75.23
178133,2018-06-29 10:17:38.656250,224.81,75.23
178134,2018-06-29 10:17:38.687500,222.65,75.23
178135,2018-06-29 10:17:38.718750,205.17,75.23
178136,2018-06-29 10:17:38.750000,195.92,75.23
178137,2018-06-29 10:17:38.781250,199.49,75.23
178138,2018-06-29 10:17:38.812500,207.86,75.23
178139,2018-06-29 10:17:38.843750,201.99,75.23
178140,2018-06-29 10:17:38.875000,184.35,75.23
178141,2018-06-29 10:17:38.906250,168.18,75.23
178142,2018-06-29 10:17:38.937500,157.55,75.23
178143,2018-06-29 10:17:38.968750,142.89,75.23
178144,2018-06-29 10:17:39.000000,118.64,75.23
178145,2018-06-29 10:17:39.031250,97.73,75.23
178146,2018-06-29 10:17:39.062500,85.42,75.23
178147,2018-06-29 10:17:39.093750,77.48,75.23
178148,2018-06-29 10:17:39.125000,64.94,75.23
178149,2018-06-29 10:17:39.156250,50.15,75.23
178150,2018-06-29 10:17:39.187500,37.51,75.23
178151,2018-06-29 10:17:39.218750,26.16,75.23
178152,2018-06-29 10:17:39.250000,13.63,75.23
178153,2018-06-29 10:17:39.281250,0.33,75.23
178154,2018-06-29 10:17:39.312500,-10.82,75.23
178155,2018-06-29 10:17:39.343750,-20.16,75.23
178156,2018-06-29 10:17:39.375000,-29.35,75.23
178157,2018-06-29 10:17:39.406250,-39.58,75.23
178158,2018-06-29 10:17:39.437500,-50.35,75.23
178159,2018-06-29 10:17:39.468750,-60.63,75.23
178160,2018-06-29 10:17:39.500000,-70.57,75.23
178161,2018-06-29 10:17:39.531250,-80.18,75.48
178162,2018-06-29 10:17:39.562500,-84.81,75.48
178163,2018-06-29 10:17:39.593750,-76.55,75.48
178164,2018-06-29 10:17:39.625000,-53.97,75.48
178165,2018-06-29 10:17:39.656250,-26.25,75.48
178166,2018-06-29 10:17:39.687500,-3.9,75.48
178167,2018-06-29 10:17:39.718750,10.49,75.48
178168,2018-06-29 10:17:39.750000,19.49,75.48
178169,2018-06-29 10:17:39.781250,24.46,75.48
178170,2018-06-29 10:17:39.812500,25.81,75.48
178171,2018-06-29 10:17:39.843750,25.42,75.48
178172,2018-06-29 10:17:39.875000,24.9,75.48
178173,2018-06-29 10:17:39.906250,23.81,75.48
178174,2018-06-29 10:17:39.937500,21.84,75.48
178175,2018-06-29 10:17:39.968750,19.99,75.48
178176,2018-06-29 10:17:40.000000,17.84,75.48
178177,2018-06-29 10:17:40.031250,12.8,75.48
178178,2018-06-29 10:17:40.062500,4.6,75.48
178179,2018-06-29 10:17:40.093750,-1.25,75.48
178180,2018-06-29 10:17:40.125000,1.57,75.48
178181,2018-06-29 10:17:40.156250,13.12,75.48
178182,2018-06-29 10:17:40.187500,28.28,75.48
178183,2018-06-29 10:17:40.218750,43.23,75.48
178184,2018-06-29 10:17:40.250000,57.61,75.48
178185,2018-06-29 10:17:40.281250,73.35,75.48
178186,2018-06-29 10:17:40.312500,93.48,75.48
178187,2018-06-29 10:17:40.343750,119.0,75.48
178188,2018-06-29 10:17:40.375000,147.95,75.48
178189,2018-06-29 10:17:40.406250,179.74,75.48
178190,2018-06-29 10:17:40.437500,213.6,75.48
178191,2018-06-29 10:17:40.468750,241.79,75.48
178192,2018-06-29 10:17:40.500000,253.95,75.48
178193,2018-06-29 10:17:40.531250,247.85,75.77
178194,2018-06-29 10:17:40.562500,224.35,75.77
178195,2018-06-29 10:17:40.593750,177.24,75.77
178196,2018-06-29 10:17:40.625000,105.62,75.77
178197,2018-06-29 10:17:40.656250,30.4,75.77
178198,2018-06-29 10:17:40.687500,-22.51,75.77
178199,2018-06-29 10:17:40.718750,-52.86,75.77
178200,2018-06-29 10:17:40.750000,-82.0,75.77
178201,2018-06-29 10:17:40.781250,-122.53,75.77
178202,2018-06-29 10:17:40.812500,-168.63,75.77
178203,2018-06-29 10:17:40.843750,-211.05,75.77
178204,2018-06-29 10:17:40.875000,-245.43,75.77
178205,2018-06-29 10:17:40.906250,-269.73,75.77
178206,2018-06-29 10:17:40.937500,-283.19,75.77
178207,2018-06-29 10:17:40.968750,-284.29,75.77
178208,2018-06-29 10:17:41.000000,-269.24,75.77
178209,2018-06-29 10:17:41.031250,-239.8,75.77
178210,2018-06-29 10:17:41.062500,-208.82,75.77
178211,2018-06-29 10:17:41.093750,-189.0,75.77
178212,2018-06-29 10:17:41.125000,-177.48,75.77
178213,2018-06-29 10:17:41.156250,-156.57,75.77
178214,2018-06-29 10:17:41.187500,-111.38,75.77
178215,2018-06-29 10:17:41.218750,-45.53,75.77
178216,2018-06-29 10:17:41.250000,21.39,75.77
178217,2018-06-29 10:17:41.281250,69.23,75.77
178218,2018-06-29 10:17:41.312500,88.32,75.77
178219,2018-06-29 10:17:41.343750,80.43,75.77
178220,2018-06-29 10:17:41.375000,54.12,75.77
178221,2018-06-29 10:17:41.406250,20.2,75.77
178222,2018-06-29 10:17:41.437500,-8.45,75.77
178223,2018-06-29 10:17:41.468750,-17.97,75.77
178224,2018-06-29 10:17:41.500000,-3.39,75.77
178225,2018-06-29 10:17:41.531250,25.62,76.03
178226,2018-06-29 10:17:41.562500,54.71,76.03
178227,2018-06-29 10:17:41.593750,76.04,76.03
178228,2018-06-29 10:17:41.625000,87.75,76.03
178229,2018-06-29 10:17:41.656250,89.41,76.03
178230,2018-06-29 10:17:41.687500,82.35,76.03
178231,2018-06-29 10:17:41.718750,70.11,76.03
178232,2018-06-29 10:17:41.750000,54.64,76.03
178233,2018-06-29 10:17:41.781250,33.44,76.03
178234,2018-06-29 10:17:41.812500,4.58,76.03
178235,2018-06-29 10:17:41.843750,-25.74,76.03
178236,2018-06-29 10:17:41.875000,-46.38,76.03
178237,2018-06-29 10:17:41.906250,-52.4,76.03
178238,2018-06-29 10:17:41.937500,-45.92,76.03
178239,2018-06-29 10:17:41.968750,-27.08,76.03
178240,2018-06-29 10:17:42.000000,5.14,76.03
178241,2018-06-29 10:17:42.031250,43.14,76.03
178242,2018-06-29 10:17:42.062500,75.3,76.03
178243,2018-06-29 10:17:42.093750,101.69,76.03
178244,2018-06-29 10:17:42.125000,129.36,76.03
178245,2018-06-29 10:17:42.156250,153.37,76.03
178246,2018-06-29 10:17:42.187500,159.83,76.03
178247,2018-06-29 10:17:42.218750,143.42,76.03
178248,2018-06-29 10:17:42.250000,107.12,76.03
178249,2018-06-29 10:17:42.281250,54.65,76.03
178250,2018-06-29 10:17:42.312500,-6.06,76.03
178251,2018-06-29 10:17:42.343750,-66.69,76.03
178252,2018-06-29 10:17:42.375000,-127.92,76.03
178253,2018-06-29 10:17:42.406250,-187.37,76.03
178254,2018-06-29 10:17:42.437500,-226.29,76.03
178255,2018-06-29 10:17:42.468750,-230.94,76.03
178256,2018-06-29 10:17:42.500000,-215.89,76.03
178257,2018-06-29 10:17:42.531250,-205.15,76.22
178258,2018-06-29 10:17:42.562500,-204.37,76.22
178259,2018-06-29 10:17:42.593750,-206.76,76.22
178260,2018-06-29 10:17:42.625000,-208.4,76.22
178261,2018-06-29 10:17:42.656250,-203.85,76.22
178262,2018-06-29 10:17:42.687500,-182.17,76.22
178263,2018-06-29 10:17:42.718750,-137.95,76.22
178264,2018-06-29 10:17:42.750000,-77.96,76.22
178265,2018-06-29 10:17:42.781250,-14.16,76.22
178266,2018-06-29 10:17:42.812500,44.84,76.22
178267,2018-06-29 10:17:42.843750,94.63,76.22
178268,2018-06-29 10:17:42.875000,131.94,76.22
178269,2018-06-29 10:17:42.906250,154.27,76.22
178270,2018-06-29 10:17:42.937500,163.82,76.22
178271,2018-06-29 10:17:42.968750,168.58,76.22
178272,2018-06-29 10:17:43.000000,174.7,76.22
178273,2018-06-29 10:17:43.031250,179.89,76.22
178274,2018-06-29 10:17:43.062500,177.68,76.22
178275,2018-06-29 10:17:43.093750,166.6,76.22
178276,2018-06-29 10:17:43.125000,151.32,76.22
178277,2018-06-29 10:17:43.156250,135.35,76.22
178278,2018-06-29 10:17:43.187500,117.91,76.22
178279,2018-06-29 10:17:43.218750,99.84,76.22
178280,2018-06-29 10:17:43.250000,83.55,76.22
178281,2018-06-29 10:17:43.281250,64.11,76.22
178282,2018-06-29 10:17:43.312500,33.25,76.22
178283,2018-06-29 10:17:43.343750,-6.29,76.22
178284,2018-06-29 10:17:43.375000,-43.38,76.22
178285,2018-06-29 10:17:43.406250,-70.82,76.22
178286,2018-06-29 10:17:43.437500,-82.73,76.22
178287,2018-06-29 10:17:43.468750,-71.51,76.22
178288,2018-06-29 10:17:43.500000,-39.99,76.22
178289,2018-06-29 10:17:43.531250,-3.8,76.37
178290,2018-06-29 10:17:43.562500,25.35,76.37
178291,2018-06-29 10:17:43.593750,47.21,76.37
178292,2018-06-29 10:17:43.625000,63.33,76.37
178293,2018-06-29 10:17:43.656250,71.78,76.37
178294,2018-06-29 10:17:43.687500,74.19,76.37
178295,2018-06-29 10:17:43.718750,79.21,76.37
178296,2018-06-29 10:17:43.750000,93.13,76.37
178297,2018-06-29 10:17:43.781250,110.39,76.37
178298,2018-06-29 10:17:43.812500,119.12,76.37
178299,2018-06-29 10:17:43.843750,114.01,76.37
178300,2018-06-29 10:17:43.875000,98.23,76.37
178301,2018-06-29 10:17:43.906250,76.04,76.37
178302,2018-06-29 10:17:43.937500,48.51,76.37
178303,2018-06-29 10:17:43.968750,14.68,76.37
178304,2018-06-29 10:17:44.000000,-25.5,76.37
178305,2018-06-29 10:17:44.031250,-68.04,76.37
178306,2018-06-29 10:17:44.062500,-105.48,76.37
178307,2018-06-29 10:17:44.093750,-134.48,76.37
178308,2018-06-29 10:17:44.125000,-161.03,76.37
178309,2018-06-29 10:17:44.156250,-190.56,76.37
178310,2018-06-29 10:17:44.187500,-212.76,76.37
178311,2018-06-29 10:17:44.218750,-207.7,76.37
178312,2018-06-29 10:17:44.250000,-169.08,76.37
178313,2018-06-29 10:17:44.281250,-110.44,76.37
178314,2018-06-29 10:17:44.312500,-48.96,76.37
178315,2018-06-29 10:17:44.343750,6.83,76.37
178316,2018-06-29 10:17:44.375000,55.01,76.37
178317,2018-06-29 10:17:44.406250,93.48,76.37
178318,2018-06-29 10:17:44.437500,116.43,76.37
178319,2018-06-29 10:17:44.468750,119.76,76.37
178320,2018-06-29 10:17:44.500000,108.55,76.37
178321,2018-06-29 10:17:44.531250,93.27,76.52
178322,2018-06-29 10:17:44.562500,79.71,76.52
178323,2018-06-29 10:17:44.593750,66.6,76.52
178324,2018-06-29 10:17:44.625000,52.43,76.52
178325,2018-06-29 10:17:44.656250,42.41,76.52
178326,2018-06-29 10:17:44.687500,44.91,76.52
178327,2018-06-29 10:17:44.718750,58.58,76.52
178328,2018-06-29 10:17:44.750000,70.22,76.52
178329,2018-06-29 10:17:44.781250,69.82,76.52
178330,2018-06-29 10:17:44.812500,60.51,76.52
178331,2018-06-29 10:17:44.843750,51.06,76.52
178332,2018-06-29 10:17:44.875000,46.31,76.52
178333,2018-06-29 10:17:44.906250,48.03,76.52
178334,2018-06-29 10:17:44.937500,59.05,76.52
178335,2018-06-29 10:17:44.968750,81.53,76.52
178336,2018-06-29 10:17:45.000000,111.31,76.52
178337,2018-06-29 10:17:45.031250,139.17,76.52
178338,2018-06-29 10:17:45.062500,160.56,76.52
178339,2018-06-29 10:17:45.093750,179.66,76.52
178340,2018-06-29 10:17:45.125000,198.88,76.52
178341,2018-06-29 10:17:45.156250,209.75,76.52
178342,2018-06-29 10:17:45.187500,202.75,76.52
178343,2018-06-29 10:17:45.218750,180.5,76.52
178344,2018-06-29 10:17:45.250000,151.72,76.52
178345,2018-06-29 10:17:45.281250,120.3,76.52
178346,2018-06-29 10:17:45.312500,87.26,76.52
178347,2018-06-29 10:17:45.343750,53.06,76.52
178348,2018-06-29 10:17:45.375000,13.62,76.52
178349,2018-06-29 10:17:45.406250,-36.69,76.52
178350,2018-06-29 10:17:45.437500,-98.65,76.52
178351,2018-06-29 10:17:45.468750,-170.57,76.52
178352,2018-06-29 10:17:45.500000,-250.24,76.52
178353,2018-06-29 10:17:45.531250,-326.8,76.7
178354,2018-06-29 10:17:45.562500,-382.28,76.7
178355,2018-06-29 10:17:45.593750,-414.34,76.7
178356,2018-06-29 10:17:45.625000,-440.97,76.7
178357,2018-06-29 10:17:45.656250,-461.68,76.7
178358,2018-06-29 10:17:45.687500,-438.1,76.7
178359,2018-06-29 10:17:45.718750,-341.62,76.7
178360,2018-06-29 10:17:45.750000,-199.33,76.7
178361,2018-06-29 10:17:45.781250,-63.81,76.7
178362,2018-06-29 10:17:45.812500,39.76,76.7
178363,2018-06-29 10:17:45.843750,111.76,76.7
178364,2018-06-29 10:17:45.875000,154.58,76.7
178365,2018-06-29 10:17:45.906250,171.46,76.7
178366,2018-06-29 10:17:45.937500,175.06,76.7
178367,2018-06-29 10:17:45.968750,177.87,76.7
178368,2018-06-29 10:17:46.000000,186.29,76.7
178369,2018-06-29 10:17:46.031250,203.02,76.7
178370,2018-06-29 10:17:46.062500,224.2,76.7
178371,2018-06-29 10:17:46.093750,236.67,76.7
178372,2018-06-29 10:17:46.125000,222.62,76.7
178373,2018-06-29 10:17:46.156250,182.59,76.7
178374,2018-06-29 10:17:46.187500,126.21,76.7
178375,2018-06-29 10:17:46.218750,63.04,76.7
178376,2018-06-29 10:17:46.250000,-11.68,76.7
178377,2018-06-29 10:17:46.281250,-99.85,76.7
178378,2018-06-29 10:17:46.312500,-192.21,76.7
178379,2018-06-29 10:17:46.343750,-281.42,76.7
178380,2018-06-29 10:17:46.375000,-365.77,76.7
178381,2018-06-29 10:17:46.406250,-460.32,76.7
178382,2018-06-29 10:17:46.437500,-548.09,76.7
178383,2018-06-29 10:17:46.468750,-605.64,76.7
178384,2018-06-29 10:17:46.500000,-610.54,76.7
178385,2018-06-29 10:17:46.531250,-561.82,76.98
178386,2018-06-29 10:17:46.562500,-457.56,76.98
178387,2018-06-29 10:17:46.593750,-305.67,76.98
178388,2018-06-29 10:17:46.625000,-150.64,76.98
178389,2018-06-29 10:17:46.656250,71.51,76.98
178390,2018-06-29 10:17:46.687500,294.46,76.98
178391,2018-06-29 10:17:46.718750,386.29,76.98
178392,2018-06-29 10:17:46.750000,373.46,76.98
178393,2018-06-29 10:17:46.781250,314.6,76.98
178394,2018-06-29 10:17:46.812500,237.32,76.98
178395,2018-06-29 10:17:46.843750,164.71,76.98
178396,2018-06-29 10:17:46.875000,119.79,76.98
178397,2018-06-29 10:17:46.906250,93.4,76.98
178398,2018-06-29 10:17:46.937500,69.18,76.98
178399,2018-06-29 10:17:46.968750,38.43,76.98
178400,2018-06-29 10:17:47.000000,23.21,76.98
178401,2018-06-29 10:17:47.031250,25.98,76.98
178402,2018-06-29 10:17:47.062500,32.5,76.98
178403,2018-06-29 10:17:47.093750,25.49,76.98
178404,2018-06-29 10:17:47.125000,9.21,76.98
178405,2018-06-29 10:17:47.156250,5.51,76.98
178406,2018-06-29 10:17:47.187500,22.47,76.98
178407,2018-06-29 10:17:47.218750,53.22,76.98
178408,2018-06-29 10:17:47.250000,80.89,76.98
178409,2018-06-29 10:17:47.281250,98.62,76.98
178410,2018-06-29 10:17:47.312500,105.41,76.98
178411,2018-06-29 10:17:47.343750,104.24,76.98
178412,2018-06-29 10:17:47.375000,100.96,76.98
178413,2018-06-29 10:17:47.406250,101.8,76.98
178414,2018-06-29 10:17:47.437500,109.73,76.98
178415,2018-06-29 10:17:47.468750,121.38,76.98
178416,2018-06-29 10:17:47.500000,130.56,76.98
178417,2018-06-29 10:17:47.531250,131.69,77.27
178418,2018-06-29 10:17:47.562500,124.36,77.27
178419,2018-06-29 10:17:47.593750,115.17,77.27
178420,2018-06-29 10:17:47.625000,108.87,77.27
178421,2018-06-29 10:17:47.656250,102.86,77.27
178422,2018-06-29 10:17:47.687500,94.92,77.27
178423,2018-06-29 10:17:47.718750,90.36,77.27
178424,2018-06-29 10:17:47.750000,94.79,77.27
178425,2018-06-29 10:17:47.781250,103.63,77.27
178426,2018-06-29 10:17:47.812500,105.18,77.27
178427,2018-06-29 10:17:47.843750,93.95,77.27
178428,2018-06-29 10:17:47.875000,75.41,77.27
178429,2018-06-29 10:17:47.906250,56.37,77.27
178430,2018-06-29 10:17:47.937500,37.09,77.27
178431,2018-06-29 10:17:47.968750,16.07,77.27
178432,2018-06-29 10:17:48.000000,-5.19,77.27
178433,2018-06-29 10:17:48.031250,-26.95,77.27
178434,2018-06-29 10:17:48.062500,-53.57,77.27
178435,2018-06-29 10:17:48.093750,-87.51,77.27
178436,2018-06-29 10:17:48.125000,-124.47,77.27
178437,2018-06-29 10:17:48.156250,-152.5,77.27
178438,2018-06-29 10:17:48.187500,-158.64,77.27
178439,2018-06-29 10:17:48.218750,-144.53,77.27
178440,2018-06-29 10:17:48.250000,-128.28,77.27
178441,2018-06-29 10:17:48.281250,-122.16,77.27
178442,2018-06-29 10:17:48.312500,-121.3,77.27
178443,2018-06-29 10:17:48.343750,-120.63,77.27
178444,2018-06-29 10:17:48.375000,-124.46,77.27
178445,2018-06-29 10:17:48.406250,-133.41,77.27
178446,2018-06-29 10:17:48.437500,-139.88,77.27
178447,2018-06-29 10:17:48.468750,-139.19,77.27
178448,2018-06-29 10:17:48.500000,-132.37,77.27
178449,2018-06-29 10:17:48.531250,-120.61,77.53
178450,2018-06-29 10:17:48.562500,-105.9,77.53
178451,2018-06-29 10:17:48.593750,-92.61,77.53
178452,2018-06-29 10:17:48.625000,-83.69,77.53
178453,2018-06-29 10:17:48.656250,-81.05,77.53
178454,2018-06-29 10:17:48.687500,-88.59,77.53
178455,2018-06-29 10:17:48.718750,-105.49,77.53
178456,2018-06-29 10:17:48.750000,-120.4,77.53
178457,2018-06-29 10:17:48.781250,-121.24,77.53
178458,2018-06-29 10:17:48.812500,-106.56,77.53
178459,2018-06-29 10:17:48.843750,-83.96,77.53
178460,2018-06-29 10:17:48.875000,-61.27,77.53
178461,2018-06-29 10:17:48.906250,-43.66,77.53
178462,2018-06-29 10:17:48.937500,-36.19,77.53
178463,2018-06-29 10:17:48.968750,-42.4,77.53
178464,2018-06-29 10:17:49.000000,-57.69,77.53
178465,2018-06-29 10:17:49.031250,-68.88,77.53
178466,2018-06-29 10:17:49.062500,-65.01,77.53
178467,2018-06-29 10:17:49.093750,-44.98,77.53
178468,2018-06-29 10:17:49.125000,-13.55,77.53
178469,2018-06-29 10:17:49.156250,23.94,77.53
178470,2018-06-29 10:17:49.187500,61.06,77.53
178471,2018-06-29 10:17:49.218750,90.13,77.53
178472,2018-06-29 10:17:49.250000,105.77,77.53
178473,2018-06-29 10:17:49.281250,108.52,77.53
178474,2018-06-29 10:17:49.312500,104.42,77.53
178475,2018-06-29 10:17:49.343750,100.1,77.53
178476,2018-06-29 10:17:49.375000,98.41,77.53
178477,2018-06-29 10:17:49.406250,97.76,77.53
178478,2018-06-29 10:17:49.437500,94.5,77.53
178479,2018-06-29 10:17:49.468750,86.98,77.53
178480,2018-06-29 10:17:49.500000,77.02,77.53
178481,2018-06-29 10:17:49.531250,67.9,77.62
178482,2018-06-29 10:17:49.562500,61.6,77.62
178483,2018-06-29 10:17:49.593750,57.82,77.62
178484,2018-06-29 10:17:49.625000,54.67,77.62
178485,2018-06-29 10:17:49.656250,51.17,77.62
178486,2018-06-29 10:17:49.687500,47.25,77.62
178487,2018-06-29 10:17:49.718750,41.7,77.62
178488,2018-06-29 10:17:49.750000,34.22,77.62
178489,2018-06-29 10:17:49.781250,28.38,77.62
178490,2018-06-29 10:17:49.812500,26.3,77.62
178491,2018-06-29 10:17:49.843750,23.19,77.62
178492,2018-06-29 10:17:49.875000,13.49,77.62
178493,2018-06-29 10:17:49.906250,0.42,77.62
178494,2018-06-29 10:17:49.937500,-4.16,77.62
178495,2018-06-29 10:17:49.968750,9.79,77.62
178496,2018-06-29 10:17:50.000000,39.61,77.62
178497,2018-06-29 10:17:50.031250,71.24,77.62
178498,2018-06-29 10:17:50.062500,91.67,77.62
178499,2018-06-29 10:17:50.093750,96.62,77.62
178500,2018-06-29 10:17:50.125000,87.41,77.62
178501,2018-06-29 10:17:50.156250,66.59,77.62
178502,2018-06-29 10:17:50.187500,39.16,77.62
178503,2018-06-29 10:17:50.218750,13.47,77.62
178504,2018-06-29 10:17:50.250000,-2.71,77.62
178505,2018-06-29 10:17:50.281250,-6.51,77.62
178506,2018-06-29 10:17:50.312500,1.43,77.62
178507,2018-06-29 10:17:50.343750,19.95,77.62
178508,2018-06-29 10:17:50.375000,45.61,77.62
178509,2018-06-29 10:17:50.406250,70.98,77.62
178510,2018-06-29 10:17:50.437500,88.82,77.62
178511,2018-06-29 10:17:50.468750,96.18,77.62
178512,2018-06-29 10:17:50.500000,93.76,77.62
178513,2018-06-29 10:17:50.531250,84.16,77.75
178514,2018-06-29 10:17:50.562500,71.32,77.75
178515,2018-06-29 10:17:50.593750,59.02,77.75
178516,2018-06-29 10:17:50.625000,48.56,77.75
178517,2018-06-29 10:17:50.656250,38.65,77.75
178518,2018-06-29 10:17:50.687500,27.66,77.75
178519,2018-06-29 10:17:50.718750,14.79,77.75
178520,2018-06-29 10:17:50.750000,-1.36,77.75
178521,2018-06-29 10:17:50.781250,-24.25,77.75
178522,2018-06-29 10:17:50.812500,-57.23,77.75
178523,2018-06-29 10:17:50.843750,-96.78,77.75
178524,2018-06-29 10:17:50.875000,-128.89,77.75
178525,2018-06-29 10:17:50.906250,-138.98,77.75
178526,2018-06-29 10:17:50.937500,-126.61,77.75
178527,2018-06-29 10:17:50.968750,-103.01,77.75
178528,2018-06-29 10:17:51.000000,-76.02,77.75
178529,2018-06-29 10:17:51.031250,-45.63,77.75
178530,2018-06-29 10:17:51.062500,-11.71,77.75
178531,2018-06-29 10:17:51.093750,23.02,77.75
178532,2018-06-29 10:17:51.125000,56.2,77.75
178533,2018-06-29 10:17:51.156250,86.17,77.75
178534,2018-06-29 10:17:51.187500,109.03,77.75
178535,2018-06-29 10:17:51.218750,118.74,77.75
178536,2018-06-29 10:17:51.250000,111.89,77.75
178537,2018-06-29 10:17:51.281250,90.63,77.75
178538,2018-06-29 10:17:51.312500,59.76,77.75
178539,2018-06-29 10:17:51.343750,23.57,77.75
178540,2018-06-29 10:17:51.375000,-12.19,77.75
178541,2018-06-29 10:17:51.406250,-39.56,77.75
178542,2018-06-29 10:17:51.437500,-53.63,77.75
178543,2018-06-29 10:17:51.468750,-56.27,77.75
178544,2018-06-29 10:17:51.500000,-51.79,77.75
178545,2018-06-29 10:17:51.531250,-42.04,77.83
178546,2018-06-29 10:17:51.562500,-28.8,77.83
178547,2018-06-29 10:17:51.593750,-17.81,77.83
178548,2018-06-29 10:17:51.625000,-16.28,77.83
178549,2018-06-29 10:17:51.656250,-26.17,77.83
178550,2018-06-29 10:17:51.687500,-40.58,77.83
178551,2018-06-29 10:17:51.718750,-48.17,77.83
178552,2018-06-29 10:17:51.750000,-43.93,77.83
178553,2018-06-29 10:17:51.781250,-33.74,77.83
178554,2018-06-29 10:17:51.812500,-26.55,77.83
178555,2018-06-29 10:17:51.843750,-25.02,77.83
178556,2018-06-29 10:17:51.875000,-25.09,77.83
178557,2018-06-29 10:17:51.906250,-21.25,77.83
178558,2018-06-29 10:17:51.937500,-10.02,77.83
178559,2018-06-29 10:17:51.968750,8.92,77.83
178560,2018-06-29 10:17:52.000000,32.7,77.83
178561,2018-06-29 10:17:52.031250,56.01,77.83
178562,2018-06-29 10:17:52.062500,73.05,77.83
178563,2018-06-29 10:17:52.093750,80.78,77.83
178564,2018-06-29 10:17:52.125000,79.85,77.83
178565,2018-06-29 10:17:52.156250,71.68,77.83
178566,2018-06-29 10:17:52.187500,56.57,77.83
178567,2018-06-29 10:17:52.218750,36.08,77.83
178568,2018-06-29 10:17:52.250000,14.65,77.83
178569,2018-06-29 10:17:52.281250,-3.62,77.83
178570,2018-06-29 10:17:52.312500,-18.38,77.83
178571,2018-06-29 10:17:52.343750,-31.44,77.83
178572,2018-06-29 10:17:52.375000,-43.5,77.83
178573,2018-06-29 10:17:52.406250,-53.98,77.83
178574,2018-06-29 10:17:52.437500,-60.49,77.83
178575,2018-06-29 10:17:52.468750,-57.56,77.83
178576,2018-06-29 10:17:52.500000,-41.42,77.83
178577,2018-06-29 10:17:52.531250,-17.04,77.92
178578,2018-06-29 10:17:52.562500,5.39,77.92
178579,2018-06-29 10:17:52.593750,20.26,77.92
178580,2018-06-29 10:17:52.625000,27.67,77.92
178581,2018-06-29 10:17:52.656250,28.37,77.92
