,Time,ppg,hr
179200,2018-06-29 10:18:12.000000,-45.03,80.85
179201,2018-06-29 10:18:12.031250,-39.88,80.85
179202,2018-06-29 10:18:12.062500,-34.91,80.85
179203,2018-06-29 10:18:12.093750,-23.55,80.85
179204,2018-06-29 10:18:12.125000,-7.79,80.85
179205,2018-06-29 10:18:12.156250,7.44,80.85
179206,2018-06-29 10:18:12.187500,21.0,80.85
179207,2018-06-29 10:18:12.218750,29.52,80.85
179208,2018-06-29 10:18:12.250000,25.64,80.85
179209,2018-06-29 10:18:12.281250,8.05,80.85
179210,2018-06-29 10:18:12.312500,-15.32,80.85
179211,2018-06-29 10:18:12.343750,-36.5,80.85
179212,2018-06-29 10:18:12.375000,-52.87,80.85
179213,2018-06-29 10:18:12.406250,-63.0,80.85
179214,2018-06-29 10:18:12.437500,-64.89,80.85
179215,2018-06-29 10:18:12.468750,-59.15,80.85
179216,2018-06-29 10:18:12.500000,-49.78,80.85
179217,2018-06-29 10:18:12.531250,-39.66,80.77
179218,2018-06-29 10:18:12.562500,-27.07,80.77
179219,2018-06-29 10:18:12.593750,-10.2,80.77
179220,2018-06-29 10:18:12.625000,6.84,80.77
179221,2018-06-29 10:18:12.656250,16.94,80.77
179222,2018-06-29 10:18:12.687500,17.01,80.77
179223,2018-06-29 10:18:12.718750,10.41,80.77
179224,2018-06-29 10:18:12.750000,5.57,80.77
179225,2018-06-29 10:18:12.781250,11.44,80.77
179226,2018-06-29 10:18:12.812500,28.85,80.77
179227,2018-06-29 10:18:12.843750,48.3,80.77
179228,2018-06-29 10:18:12.875000,60.15,80.77
179229,2018-06-29 10:18:12.906250,62.87,80.77
179230,2018-06-29 10:18:12.937500,59.35,80.77
179231,2018-06-29 10:18:12.968750,51.0,80.77
179232,2018-06-29 10:18:13.000000,38.51,80.77
179233,2018-06-29 10:18:13.031250,24.02,80.77
179234,2018-06-29 10:18:13.062500,10.08,80.77
179235,2018-06-29 10:18:13.093750,-1.18,80.77
179236,2018-06-29 10:18:13.125000,-8.48,80.77
179237,2018-06-29 10:18:13.156250,-12.62,80.77
179238,2018-06-29 10:18:13.187500,-15.4,80.77
179239,2018-06-29 10:18:13.218750,-16.74,80.77
179240,2018-06-29 10:18:13.250000,-15.48,80.77
179241,2018-06-29 10:18:13.281250,-13.54,80.77
179242,2018-06-29 10:18:13.312500,-15.67,80.77
179243,2018-06-29 10:18:13.343750,-23.89,80.77
179244,2018-06-29 10:18:13.375000,-34.93,80.77
179245,2018-06-29 10:18:13.406250,-43.83,80.77
179246,2018-06-29 10:18:13.437500,-48.86,80.77
179247,2018-06-29 10:18:13.468750,-52.17,80.77
179248,2018-06-29 10:18:13.500000,-55.58,80.77
179249,2018-06-29 10:18:13.531250,-55.96,80.67
179250,2018-06-29 10:18:13.562500,-46.82,80.67
179251,2018-06-29 10:18:13.593750,-26.4,80.67
179252,2018-06-29 10:18:13.625000,-1.59,80.67
179253,2018-06-29 10:18:13.656250,19.5,80.67
179254,2018-06-29 10:18:13.687500,35.55,80.67
179255,2018-06-29 10:18:13.718750,49.0,80.67
179256,2018-06-29 10:18:13.750000,59.68,80.67
179257,2018-06-29 10:18:13.781250,65.74,80.67
179258,2018-06-29 10:18:13.812500,67.64,80.67
179259,2018-06-29 10:18:13.843750,68.09,80.67
179260,2018-06-29 10:18:13.875000,69.61,80.67
179261,2018-06-29 10:18:13.906250,73.18,80.67
179262,2018-06-29 10:18:13.937500,77.48,80.67
179263,2018-06-29 10:18:13.968750,78.78,80.67
179264,2018-06-29 10:18:14.000000,72.92,80.67
179265,2018-06-29 10:18:14.031250,58.83,80.67
179266,2018-06-29 10:18:14.062500,39.49,80.67
179267,2018-06-29 10:18:14.093750,19.61,80.67
179268,2018-06-29 10:18:14.125000,2.99,80.67
179269,2018-06-29 10:18:14.156250,-9.63,80.67
179270,2018-06-29 10:18:14.187500,-21.24,80.67
179271,2018-06-29 10:18:14.218750,-35.23,80.67
179272,2018-06-29 10:18:14.250000,-51.98,80.67
179273,2018-06-29 10:18:14.281250,-70.0,80.67
179274,2018-06-29 10:18:14.312500,-85.39,80.67
179275,2018-06-29 10:18:14.343750,-90.02,80.67
179276,2018-06-29 10:18:14.375000,-77.4,80.67
179277,2018-06-29 10:18:14.406250,-51.4,80.67
179278,2018-06-29 10:18:14.437500,-22.38,80.67
179279,2018-06-29 10:18:14.468750,4.29,80.67
179280,2018-06-29 10:18:14.500000,28.41,80.67
179281,2018-06-29 10:18:14.531250,46.92,80.65
179282,2018-06-29 10:18:14.562500,54.17,80.65
179283,2018-06-29 10:18:14.593750,49.28,80.65
179284,2018-06-29 10:18:14.625000,38.21,80.65
179285,2018-06-29 10:18:14.656250,28.51,80.65
179286,2018-06-29 10:18:14.687500,24.0,80.65
179287,2018-06-29 10:18:14.718750,24.0,80.65
179288,2018-06-29 10:18:14.750000,25.94,80.65
179289,2018-06-29 10:18:14.781250,27.45,80.65
179290,2018-06-29 10:18:14.812500,26.39,80.65
179291,2018-06-29 10:18:14.843750,21.51,80.65
179292,2018-06-29 10:18:14.875000,13.09,80.65
179293,2018-06-29 10:18:14.906250,2.14,80.65
179294,2018-06-29 10:18:14.937500,-10.39,80.65
179295,2018-06-29 10:18:14.968750,-23.3,80.65
179296,2018-06-29 10:18:15.000000,-35.64,80.65
179297,2018-06-29 10:18:15.031250,-47.72,80.65
179298,2018-06-29 10:18:15.062500,-60.93,80.65
179299,2018-06-29 10:18:15.093750,-74.64,80.65
179300,2018-06-29 10:18:15.125000,-82.73,80.65
179301,2018-06-29 10:18:15.156250,-77.08,80.65
179302,2018-06-29 10:18:15.187500,-57.0,80.65
179303,2018-06-29 10:18:15.218750,-31.41,80.65
179304,2018-06-29 10:18:15.250000,-9.17,80.65
179305,2018-06-29 10:18:15.281250,7.29,80.65
179306,2018-06-29 10:18:15.312500,17.57,80.65
179307,2018-06-29 10:18:15.343750,19.84,80.65
179308,2018-06-29 10:18:15.375000,15.03,80.65
179309,2018-06-29 10:18:15.406250,8.59,80.65
179310,2018-06-29 10:18:15.437500,5.07,80.65
179311,2018-06-29 10:18:15.468750,4.43,80.65
179312,2018-06-29 10:18:15.500000,5.24,80.65
179313,2018-06-29 10:18:15.531250,7.32,80.62
179314,2018-06-29 10:18:15.562500,10.6,80.62
179315,2018-06-29 10:18:15.593750,14.1,80.62
179316,2018-06-29 10:18:15.625000,16.08,80.62
179317,2018-06-29 10:18:15.656250,14.45,80.62
179318,2018-06-29 10:18:15.687500,8.71,80.62
179319,2018-06-29 10:18:15.718750,0.41,80.62
179320,2018-06-29 10:18:15.750000,-9.32,80.62
179321,2018-06-29 10:18:15.781250,-21.18,80.62
179322,2018-06-29 10:18:15.812500,-36.03,80.62
179323,2018-06-29 10:18:15.843750,-52.78,80.62
179324,2018-06-29 10:18:15.875000,-66.48,80.62
179325,2018-06-29 10:18:15.906250,-69.04,80.62
179326,2018-06-29 10:18:15.937500,-56.42,80.62
179327,2018-06-29 10:18:15.968750,-34.52,80.62
179328,2018-06-29 10:18:16.000000,-13.77,80.62
179329,2018-06-29 10:18:16.031250,0.11,80.62
179330,2018-06-29 10:18:16.062500,6.84,80.62
179331,2018-06-29 10:18:16.093750,6.47,80.62
179332,2018-06-29 10:18:16.125000,-1.46,80.62
179333,2018-06-29 10:18:16.156250,-15.71,80.62
179334,2018-06-29 10:18:16.187500,-32.52,80.62
179335,2018-06-29 10:18:16.218750,-47.25,80.62
179336,2018-06-29 10:18:16.250000,-57.08,80.62
179337,2018-06-29 10:18:16.281250,-60.77,80.62
179338,2018-06-29 10:18:16.312500,-55.59,80.62
179339,2018-06-29 10:18:16.343750,-38.84,80.62
179340,2018-06-29 10:18:16.375000,-12.94,80.62
179341,2018-06-29 10:18:16.406250,15.81,80.62
179342,2018-06-29 10:18:16.437500,42.48,80.62
179343,2018-06-29 10:18:16.468750,63.36,80.62
179344,2018-06-29 10:18:16.500000,74.42,80.62
179345,2018-06-29 10:18:16.531250,74.38,80.53
179346,2018-06-29 10:18:16.562500,65.61,80.53
179347,2018-06-29 10:18:16.593750,50.0,80.53
179348,2018-06-29 10:18:16.625000,30.27,80.53
179349,2018-06-29 10:18:16.656250,14.68,80.53
179350,2018-06-29 10:18:16.687500,11.95,80.53
179351,2018-06-29 10:18:16.718750,21.24,80.53
179352,2018-06-29 10:18:16.750000,34.35,80.53
179353,2018-06-29 10:18:16.781250,46.54,80.53
179354,2018-06-29 10:18:16.812500,58.16,80.53
179355,2018-06-29 10:18:16.843750,68.79,80.53
179356,2018-06-29 10:18:16.875000,76.83,80.53
179357,2018-06-29 10:18:16.906250,82.48,80.53
179358,2018-06-29 10:18:16.937500,86.25,80.53
179359,2018-06-29 10:18:16.968750,85.69,80.53
179360,2018-06-29 10:18:17.000000,76.73,80.53
179361,2018-06-29 10:18:17.031250,58.53,80.53
179362,2018-06-29 10:18:17.062500,35.28,80.53
179363,2018-06-29 10:18:17.093750,12.14,80.53
179364,2018-06-29 10:18:17.125000,-9.43,80.53
179365,2018-06-29 10:18:17.156250,-30.27,80.53
179366,2018-06-29 10:18:17.187500,-50.11,80.53
179367,2018-06-29 10:18:17.218750,-68.45,80.53
179368,2018-06-29 10:18:17.250000,-84.21,80.53
179369,2018-06-29 10:18:17.281250,-93.19,80.53
179370,2018-06-29 10:18:17.312500,-92.45,80.53
179371,2018-06-29 10:18:17.343750,-86.44,80.53
179372,2018-06-29 10:18:17.375000,-80.31,80.53
179373,2018-06-29 10:18:17.406250,-70.35,80.53
179374,2018-06-29 10:18:17.437500,-50.37,80.53
179375,2018-06-29 10:18:17.468750,-22.33,80.53
179376,2018-06-29 10:18:17.500000,7.68,80.53
179377,2018-06-29 10:18:17.531250,37.63,80.53
179378,2018-06-29 10:18:17.562500,68.04,80.53
179379,2018-06-29 10:18:17.593750,97.13,80.53
179380,2018-06-29 10:18:17.625000,121.1,80.53
179381,2018-06-29 10:18:17.656250,134.24,80.53
179382,2018-06-29 10:18:17.687500,128.85,80.53
179383,2018-06-29 10:18:17.718750,101.77,80.53
179384,2018-06-29 10:18:17.750000,60.64,80.53
179385,2018-06-29 10:18:17.781250,18.45,80.53
179386,2018-06-29 10:18:17.812500,-16.55,80.53
179387,2018-06-29 10:18:17.843750,-42.35,80.53
179388,2018-06-29 10:18:17.875000,-59.75,80.53
179389,2018-06-29 10:18:17.906250,-71.51,80.53
179390,2018-06-29 10:18:17.937500,-80.13,80.53
179391,2018-06-29 10:18:17.968750,-84.83,80.53
179392,2018-06-29 10:18:18.000000,-84.13,80.53
179393,2018-06-29 10:18:18.031250,-81.02,80.53
179394,2018-06-29 10:18:18.062500,-80.7,80.53
179395,2018-06-29 10:18:18.093750,-82.78,80.53
179396,2018-06-29 10:18:18.125000,-79.27,80.53
179397,2018-06-29 10:18:18.156250,-62.45,80.53
179398,2018-06-29 10:18:18.187500,-33.67,80.53
179399,2018-06-29 10:18:18.218750,-1.89,80.53
179400,2018-06-29 10:18:18.250000,25.67,80.53
179401,2018-06-29 10:18:18.281250,47.32,80.53
179402,2018-06-29 10:18:18.312500,62.32,80.53
179403,2018-06-29 10:18:18.343750,68.58,80.53
179404,2018-06-29 10:18:18.375000,66.67,80.53
179405,2018-06-29 10:18:18.406250,61.1,80.53
179406,2018-06-29 10:18:18.437500,55.7,80.53
179407,2018-06-29 10:18:18.468750,51.11,80.53
179408,2018-06-29 10:18:18.500000,46.65,80.53
179409,2018-06-29 10:18:18.531250,41.73,80.53
179410,2018-06-29 10:18:18.562500,35.66,80.53
179411,2018-06-29 10:18:18.593750,28.05,80.53
179412,2018-06-29 10:18:18.625000,18.82,80.53
179413,2018-06-29 10:18:18.656250,8.5,80.53
179414,2018-06-29 10:18:18.687500,-1.44,80.53
179415,2018-06-29 10:18:18.718750,-9.69,80.53
179416,2018-06-29 10:18:18.750000,-16.12,80.53
179417,2018-06-29 10:18:18.781250,-21.31,80.53
179418,2018-06-29 10:18:18.812500,-26.28,80.53
179419,2018-06-29 10:18:18.843750,-32.22,80.53
179420,2018-06-29 10:18:18.875000,-38.86,80.53
179421,2018-06-29 10:18:18.906250,-44.93,80.53
179422,2018-06-29 10:18:18.937500,-50.49,80.53
179423,2018-06-29 10:18:18.968750,-57.11,80.53
179424,2018-06-29 10:18:19.000000,-65.24,80.53
179425,2018-06-29 10:18:19.031250,-71.68,80.53
179426,2018-06-29 10:18:19.062500,-69.8,80.53
179427,2018-06-29 10:18:19.093750,-55.54,80.53
179428,2018-06-29 10:18:19.125000,-33.3,80.53
179429,2018-06-29 10:18:19.156250,-11.69,80.53
179430,2018-06-29 10:18:19.187500,5.26,80.53
179431,2018-06-29 10:18:19.218750,17.94,80.53
179432,2018-06-29 10:18:19.250000,26.0,80.53
179433,2018-06-29 10:18:19.281250,29.06,80.53
179434,2018-06-29 10:18:19.312500,30.0,80.53
179435,2018-06-29 10:18:19.343750,32.44,80.53
179436,2018-06-29 10:18:19.375000,36.63,80.53
179437,2018-06-29 10:18:19.406250,40.54,80.53
179438,2018-06-29 10:18:19.437500,43.28,80.53
179439,2018-06-29 10:18:19.468750,44.58,80.53
179440,2018-06-29 10:18:19.500000,42.88,80.53
179441,2018-06-29 10:18:19.531250,37.48,80.5
179442,2018-06-29 10:18:19.562500,30.8,80.5
179443,2018-06-29 10:18:19.593750,26.04,80.5
179444,2018-06-29 10:18:19.625000,23.49,80.5
179445,2018-06-29 10:18:19.656250,21.53,80.5
179446,2018-06-29 10:18:19.687500,20.19,80.5
179447,2018-06-29 10:18:19.718750,20.84,80.5
179448,2018-06-29 10:18:19.750000,22.37,80.5
179449,2018-06-29 10:18:19.781250,20.0,80.5
179450,2018-06-29 10:18:19.812500,9.98,80.5
179451,2018-06-29 10:18:19.843750,-5.29,80.5
179452,2018-06-29 10:18:19.875000,-17.24,80.5
179453,2018-06-29 10:18:19.906250,-18.44,80.5
179454,2018-06-29 10:18:19.937500,-10.65,80.5
179455,2018-06-29 10:18:19.968750,-3.76,80.5
179456,2018-06-29 10:18:20.000000,-5.5,80.5
179457,2018-06-29 10:18:20.031250,-14.81,80.5
179458,2018-06-29 10:18:20.062500,-26.93,80.5
179459,2018-06-29 10:18:20.093750,-41.6,80.5
179460,2018-06-29 10:18:20.125000,-61.79,80.5
179461,2018-06-29 10:18:20.156250,-85.69,80.5
179462,2018-06-29 10:18:20.187500,-105.59,80.5
179463,2018-06-29 10:18:20.218750,-114.26,80.5
179464,2018-06-29 10:18:20.250000,-107.64,80.5
179465,2018-06-29 10:18:20.281250,-85.59,80.5
179466,2018-06-29 10:18:20.312500,-53.63,80.5
179467,2018-06-29 10:18:20.343750,-18.64,80.5
179468,2018-06-29 10:18:20.375000,17.19,80.5
179469,2018-06-29 10:18:20.406250,51.81,80.5
179470,2018-06-29 10:18:20.437500,77.46,80.5
179471,2018-06-29 10:18:20.468750,87.13,80.5
179472,2018-06-29 10:18:20.500000,82.05,80.5
179473,2018-06-29 10:18:20.531250,68.6,80.5
179474,2018-06-29 10:18:20.562500,51.57,80.5
179475,2018-06-29 10:18:20.593750,31.44,80.5
179476,2018-06-29 10:18:20.625000,9.86,80.5
179477,2018-06-29 10:18:20.656250,-3.83,80.5
179478,2018-06-29 10:18:20.687500,-0.16,80.5
179479,2018-06-29 10:18:20.718750,15.89,80.5
179480,2018-06-29 10:18:20.750000,29.05,80.5
179481,2018-06-29 10:18:20.781250,31.44,80.5
179482,2018-06-29 10:18:20.812500,26.21,80.5
179483,2018-06-29 10:18:20.843750,20.78,80.5
179484,2018-06-29 10:18:20.875000,23.14,80.5
179485,2018-06-29 10:18:20.906250,34.11,80.5
179486,2018-06-29 10:18:20.937500,42.82,80.5
179487,2018-06-29 10:18:20.968750,40.99,80.5
179488,2018-06-29 10:18:21.000000,34.89,80.5
179489,2018-06-29 10:18:21.031250,34.25,80.5
179490,2018-06-29 10:18:21.062500,40.28,80.5
179491,2018-06-29 10:18:21.093750,49.18,80.5
179492,2018-06-29 10:18:21.125000,57.35,80.5
179493,2018-06-29 10:18:21.156250,61.57,80.5
179494,2018-06-29 10:18:21.187500,60.32,80.5
179495,2018-06-29 10:18:21.218750,53.69,80.5
179496,2018-06-29 10:18:21.250000,40.68,80.5
179497,2018-06-29 10:18:21.281250,19.7,80.5
179498,2018-06-29 10:18:21.312500,-7.97,80.5
179499,2018-06-29 10:18:21.343750,-37.91,80.5
179500,2018-06-29 10:18:21.375000,-66.08,80.5
179501,2018-06-29 10:18:21.406250,-91.46,80.5
179502,2018-06-29 10:18:21.437500,-115.36,80.5
179503,2018-06-29 10:18:21.468750,-138.17,80.5
179504,2018-06-29 10:18:21.500000,-155.18,80.5
179505,2018-06-29 10:18:21.531250,-156.95,80.5
179506,2018-06-29 10:18:21.562500,-138.65,80.5
179507,2018-06-29 10:18:21.593750,-108.13,80.5
179508,2018-06-29 10:18:21.625000,-79.72,80.5
179509,2018-06-29 10:18:21.656250,-61.05,80.5
179510,2018-06-29 10:18:21.687500,-48.44,80.5
179511,2018-06-29 10:18:21.718750,-29.86,80.5
179512,2018-06-29 10:18:21.750000,9.57,80.5
179513,2018-06-29 10:18:21.781250,74.8,80.5
179514,2018-06-29 10:18:21.812500,145.75,80.5
179515,2018-06-29 10:18:21.843750,186.59,80.5
179516,2018-06-29 10:18:21.875000,182.31,80.5
179517,2018-06-29 10:18:21.906250,154.15,80.5
179518,2018-06-29 10:18:21.937500,130.19,80.5
179519,2018-06-29 10:18:21.968750,118.2,80.5
179520,2018-06-29 10:18:22.000000,112.19,80.5
179521,2018-06-29 10:18:22.031250,103.45,80.5
179522,2018-06-29 10:18:22.062500,82.1,80.5
179523,2018-06-29 10:18:22.093750,46.98,80.5
179524,2018-06-29 10:18:22.125000,11.67,80.5
179525,2018-06-29 10:18:22.156250,-11.83,80.5
179526,2018-06-29 10:18:22.187500,-29.63,80.5
179527,2018-06-29 10:18:22.218750,-56.57,80.5
179528,2018-06-29 10:18:22.250000,-94.04,80.5
179529,2018-06-29 10:18:22.281250,-123.53,80.5
179530,2018-06-29 10:18:22.312500,-126.26,80.5
179531,2018-06-29 10:18:22.343750,-106.41,80.5
179532,2018-06-29 10:18:22.375000,-87.04,80.5
179533,2018-06-29 10:18:22.406250,-83.91,80.5
179534,2018-06-29 10:18:22.437500,-91.49,80.5
179535,2018-06-29 10:18:22.468750,-93.85,80.5
179536,2018-06-29 10:18:22.500000,-82.5,80.5
179537,2018-06-29 10:18:22.531250,-62.85,80.42
179538,2018-06-29 10:18:22.562500,-46.46,80.42
179539,2018-06-29 10:18:22.593750,-39.45,80.42
179540,2018-06-29 10:18:22.625000,-39.38,80.42
179541,2018-06-29 10:18:22.656250,-41.59,80.42
179542,2018-06-29 10:18:22.687500,-45.1,80.42
179543,2018-06-29 10:18:22.718750,-52.38,80.42
179544,2018-06-29 10:18:22.750000,-63.77,80.42
179545,2018-06-29 10:18:22.781250,-73.69,80.42
179546,2018-06-29 10:18:22.812500,-76.72,80.42
179547,2018-06-29 10:18:22.843750,-74.0,80.42
179548,2018-06-29 10:18:22.875000,-68.07,80.42
179549,2018-06-29 10:18:22.906250,-56.49,80.42
179550,2018-06-29 10:18:22.937500,-37.04,80.42
179551,2018-06-29 10:18:22.968750,-13.9,80.42
179552,2018-06-29 10:18:23.000000,6.45,80.42
179553,2018-06-29 10:18:23.031250,22.04,80.42
179554,2018-06-29 10:18:23.062500,36.48,80.42
179555,2018-06-29 10:18:23.093750,51.36,80.42
179556,2018-06-29 10:18:23.125000,58.88,80.42
179557,2018-06-29 10:18:23.156250,50.8,80.42
179558,2018-06-29 10:18:23.187500,33.41,80.42
179559,2018-06-29 10:18:23.218750,20.92,80.42
179560,2018-06-29 10:18:23.250000,15.9,80.42
179561,2018-06-29 10:18:23.281250,7.7,80.42
179562,2018-06-29 10:18:23.312500,-13.87,80.42
179563,2018-06-29 10:18:23.343750,-49.05,80.42
179564,2018-06-29 10:18:23.375000,-85.02,80.42
179565,2018-06-29 10:18:23.406250,-102.18,80.42
179566,2018-06-29 10:18:23.437500,-90.62,80.42
179567,2018-06-29 10:18:23.468750,-59.46,80.42
179568,2018-06-29 10:18:23.500000,-25.28,80.42
179569,2018-06-29 10:18:23.531250,5.26,80.23
179570,2018-06-29 10:18:23.562500,36.42,80.23
179571,2018-06-29 10:18:23.593750,70.06,80.23
179572,2018-06-29 10:18:23.625000,96.7,80.23
179573,2018-06-29 10:18:23.656250,104.39,80.23
179574,2018-06-29 10:18:23.687500,93.92,80.23
179575,2018-06-29 10:18:23.718750,76.46,80.23
179576,2018-06-29 10:18:23.750000,59.31,80.23
179577,2018-06-29 10:18:23.781250,43.82,80.23
179578,2018-06-29 10:18:23.812500,31.92,80.23
179579,2018-06-29 10:18:23.843750,26.04,80.23
179580,2018-06-29 10:18:23.875000,25.76,80.23
179581,2018-06-29 10:18:23.906250,27.77,80.23
179582,2018-06-29 10:18:23.937500,28.28,80.23
179583,2018-06-29 10:18:23.968750,26.05,80.23
179584,2018-06-29 10:18:24.000000,22.1,80.23
179585,2018-06-29 10:18:24.031250,16.39,80.23
179586,2018-06-29 10:18:24.062500,7.49,80.23
179587,2018-06-29 10:18:24.093750,-5.8,80.23
179588,2018-06-29 10:18:24.125000,-24.0,80.23
179589,2018-06-29 10:18:24.156250,-44.97,80.23
179590,2018-06-29 10:18:24.187500,-63.09,80.23
179591,2018-06-29 10:18:24.218750,-74.6,80.23
179592,2018-06-29 10:18:24.250000,-82.28,80.23
179593,2018-06-29 10:18:24.281250,-91.1,80.23
179594,2018-06-29 10:18:24.312500,-99.19,80.23
179595,2018-06-29 10:18:24.343750,-96.46,80.23
179596,2018-06-29 10:18:24.375000,-75.72,80.23
179597,2018-06-29 10:18:24.406250,-43.19,80.23
179598,2018-06-29 10:18:24.437500,-12.83,80.23
179599,2018-06-29 10:18:24.468750,7.57,80.23
179600,2018-06-29 10:18:24.500000,19.28,80.23
179601,2018-06-29 10:18:24.531250,25.37,80.08
179602,2018-06-29 10:18:24.562500,27.52,80.08
179603,2018-06-29 10:18:24.593750,27.88,80.08
179604,2018-06-29 10:18:24.625000,28.62,80.08
179605,2018-06-29 10:18:24.656250,29.99,80.08
179606,2018-06-29 10:18:24.687500,31.05,80.08
179607,2018-06-29 10:18:24.718750,31.71,80.08
179608,2018-06-29 10:18:24.750000,31.94,80.08
179609,2018-06-29 10:18:24.781250,29.73,80.08
179610,2018-06-29 10:18:24.812500,22.37,80.08
179611,2018-06-29 10:18:24.843750,10.62,80.08
179612,2018-06-29 10:18:24.875000,-0.65,80.08
179613,2018-06-29 10:18:24.906250,-8.22,80.08
179614,2018-06-29 10:18:24.937500,-14.6,80.08
179615,2018-06-29 10:18:24.968750,-22.88,80.08
179616,2018-06-29 10:18:25.000000,-30.29,80.08
179617,2018-06-29 10:18:25.031250,-31.65,80.08
179618,2018-06-29 10:18:25.062500,-27.7,80.08
179619,2018-06-29 10:18:25.093750,-25.24,80.08
179620,2018-06-29 10:18:25.125000,-29.07,80.08
179621,2018-06-29 10:18:25.156250,-36.98,80.08
179622,2018-06-29 10:18:25.187500,-43.39,80.08
179623,2018-06-29 10:18:25.218750,-45.41,80.08
179624,2018-06-29 10:18:25.250000,-45.36,80.08
179625,2018-06-29 10:18:25.281250,-47.08,80.08
179626,2018-06-29 10:18:25.312500,-48.93,80.08
179627,2018-06-29 10:18:25.343750,-43.43,80.08
179628,2018-06-29 10:18:25.375000,-27.11,80.08
179629,2018-06-29 10:18:25.406250,-5.86,80.08
179630,2018-06-29 10:18:25.437500,12.86,80.08
179631,2018-06-29 10:18:25.468750,27.47,80.08
179632,2018-06-29 10:18:25.500000,39.72,80.08
179633,2018-06-29 10:18:25.531250,50.93,79.93
179634,2018-06-29 10:18:25.562500,62.35,79.93
179635,2018-06-29 10:18:25.593750,73.87,79.93
179636,2018-06-29 10:18:25.625000,81.64,79.93
179637,2018-06-29 10:18:25.656250,81.22,79.93
179638,2018-06-29 10:18:25.687500,73.41,79.93
179639,2018-06-29 10:18:25.718750,63.21,79.93
179640,2018-06-29 10:18:25.750000,53.21,79.93
179641,2018-06-29 10:18:25.781250,42.28,79.93
179642,2018-06-29 10:18:25.812500,30.14,79.93
179643,2018-06-29 10:18:25.843750,19.07,79.93
179644,2018-06-29 10:18:25.875000,11.06,79.93
179645,2018-06-29 10:18:25.906250,5.87,79.93
179646,2018-06-29 10:18:25.937500,1.46,79.93
179647,2018-06-29 10:18:25.968750,-3.44,79.93
179648,2018-06-29 10:18:26.000000,-3.92,79.93
179649,2018-06-29 10:18:26.031250,12.03,79.93
179650,2018-06-29 10:18:26.062500,52.52,79.93
179651,2018-06-29 10:18:26.093750,111.2,79.93
179652,2018-06-29 10:18:26.125000,170.32,79.93
179653,2018-06-29 10:18:26.156250,211.99,79.93
179654,2018-06-29 10:18:26.187500,225.87,79.93
179655,2018-06-29 10:18:26.218750,210.88,79.93
179656,2018-06-29 10:18:26.250000,173.8,79.93
179657,2018-06-29 10:18:26.281250,125.72,79.93
179658,2018-06-29 10:18:26.312500,76.57,79.93
179659,2018-06-29 10:18:26.343750,30.81,79.93
179660,2018-06-29 10:18:26.375000,-11.44,79.93
179661,2018-06-29 10:18:26.406250,-51.41,79.93
179662,2018-06-29 10:18:26.437500,-92.44,79.93
179663,2018-06-29 10:18:26.468750,-138.43,79.93
179664,2018-06-29 10:18:26.500000,-184.85,79.93
179665,2018-06-29 10:18:26.531250,-214.76,79.85
179666,2018-06-29 10:18:26.562500,-212.25,79.85
179667,2018-06-29 10:18:26.593750,-180.05,79.85
179668,2018-06-29 10:18:26.625000,-135.46,79.85
179669,2018-06-29 10:18:26.656250,-89.73,79.85
179670,2018-06-29 10:18:26.687500,-44.21,79.85
179671,2018-06-29 10:18:26.718750,-3.35,79.85
179672,2018-06-29 10:18:26.750000,24.57,79.85
179673,2018-06-29 10:18:26.781250,36.56,79.85
179674,2018-06-29 10:18:26.812500,33.25,79.85
179675,2018-06-29 10:18:26.843750,17.12,79.85
179676,2018-06-29 10:18:26.875000,-0.48,79.85
179677,2018-06-29 10:18:26.906250,-4.72,79.85
179678,2018-06-29 10:18:26.937500,4.79,79.85
179679,2018-06-29 10:18:26.968750,16.05,79.85
179680,2018-06-29 10:18:27.000000,24.45,79.85
179681,2018-06-29 10:18:27.031250,34.34,79.85
179682,2018-06-29 10:18:27.062500,44.08,79.85
179683,2018-06-29 10:18:27.093750,45.92,79.85
179684,2018-06-29 10:18:27.125000,38.42,79.85
179685,2018-06-29 10:18:27.156250,27.92,79.85
179686,2018-06-29 10:18:27.187500,20.84,79.85
179687,2018-06-29 10:18:27.218750,20.76,79.85
179688,2018-06-29 10:18:27.250000,28.05,79.85
179689,2018-06-29 10:18:27.281250,37.79,79.85
179690,2018-06-29 10:18:27.312500,42.69,79.85
179691,2018-06-29 10:18:27.343750,40.46,79.85
179692,2018-06-29 10:18:27.375000,35.65,79.85
179693,2018-06-29 10:18:27.406250,32.93,79.85
179694,2018-06-29 10:18:27.437500,32.25,79.85
179695,2018-06-29 10:18:27.468750,32.13,79.85
179696,2018-06-29 10:18:27.500000,33.58,79.85
179697,2018-06-29 10:18:27.531250,38.49,79.78
179698,2018-06-29 10:18:27.562500,45.92,79.78
179699,2018-06-29 10:18:27.593750,50.61,79.78
179700,2018-06-29 10:18:27.625000,44.37,79.78
179701,2018-06-29 10:18:27.656250,22.51,79.78
179702,2018-06-29 10:18:27.687500,-6.82,79.78
179703,2018-06-29 10:18:27.718750,-25.33,79.78
179704,2018-06-29 10:18:27.750000,-24.73,79.78
179705,2018-06-29 10:18:27.781250,-17.88,79.78
179706,2018-06-29 10:18:27.812500,-21.86,79.78
179707,2018-06-29 10:18:27.843750,-38.38,79.78
179708,2018-06-29 10:18:27.875000,-58.16,79.78
179709,2018-06-29 10:18:27.906250,-71.37,79.78
179710,2018-06-29 10:18:27.937500,-66.29,79.78
179711,2018-06-29 10:18:27.968750,-33.92,79.78
179712,2018-06-29 10:18:28.000000,17.26,79.78
179713,2018-06-29 10:18:28.031250,67.75,79.78
179714,2018-06-29 10:18:28.062500,110.91,79.78
179715,2018-06-29 10:18:28.093750,149.65,79.78
179716,2018-06-29 10:18:28.125000,172.15,79.78
179717,2018-06-29 10:18:28.156250,157.66,79.78
179718,2018-06-29 10:18:28.187500,107.02,79.78
179719,2018-06-29 10:18:28.218750,45.31,79.78
179720,2018-06-29 10:18:28.250000,-4.85,79.78
179721,2018-06-29 10:18:28.281250,-36.44,79.78
179722,2018-06-29 10:18:28.312500,-50.96,79.78
179723,2018-06-29 10:18:28.343750,-54.3,79.78
179724,2018-06-29 10:18:28.375000,-55.16,79.78
179725,2018-06-29 10:18:28.406250,-58.67,79.78
179726,2018-06-29 10:18:28.437500,-63.73,79.78
179727,2018-06-29 10:18:28.468750,-68.64,79.78
179728,2018-06-29 10:18:28.500000,-74.55,79.78
179729,2018-06-29 10:18:28.531250,-82.16,79.48
179730,2018-06-29 10:18:28.562500,-88.74,79.48
179731,2018-06-29 10:18:28.593750,-90.13,79.48
179732,2018-06-29 10:18:28.625000,-86.42,79.48
179733,2018-06-29 10:18:28.656250,-82.37,79.48
179734,2018-06-29 10:18:28.687500,-78.43,79.48
179735,2018-06-29 10:18:28.718750,-68.04,79.48
179736,2018-06-29 10:18:28.750000,-48.72,79.48
179737,2018-06-29 10:18:28.781250,-28.28,79.48
179738,2018-06-29 10:18:28.812500,-14.74,79.48
179739,2018-06-29 10:18:28.843750,-7.94,79.48
179740,2018-06-29 10:18:28.875000,-5.08,79.48
179741,2018-06-29 10:18:28.906250,-5.76,79.48
179742,2018-06-29 10:18:28.937500,-9.22,79.48
179743,2018-06-29 10:18:28.968750,-13.78,79.48
179744,2018-06-29 10:18:29.000000,-18.76,79.48
179745,2018-06-29 10:18:29.031250,-22.46,79.48
179746,2018-06-29 10:18:29.062500,-22.51,79.48
179747,2018-06-29 10:18:29.093750,-21.16,79.48
179748,2018-06-29 10:18:29.125000,-24.92,79.48
179749,2018-06-29 10:18:29.156250,-36.79,79.48
179750,2018-06-29 10:18:29.187500,-51.35,79.48
179751,2018-06-29 10:18:29.218750,-55.88,79.48
179752,2018-06-29 10:18:29.250000,-37.81,79.48
179753,2018-06-29 10:18:29.281250,3.23,79.48
179754,2018-06-29 10:18:29.312500,50.73,79.48
179755,2018-06-29 10:18:29.343750,83.35,79.48
179756,2018-06-29 10:18:29.375000,91.06,79.48
179757,2018-06-29 10:18:29.406250,77.7,79.48
179758,2018-06-29 10:18:29.437500,51.11,79.48
179759,2018-06-29 10:18:29.468750,16.28,79.48
179760,2018-06-29 10:18:29.500000,-20.96,79.48
179761,2018-06-29 10:18:29.531250,-51.47,79.25
179762,2018-06-29 10:18:29.562500,-69.92,79.25
179763,2018-06-29 10:18:29.593750,-79.7,79.25
179764,2018-06-29 10:18:29.625000,-87.54,79.25
179765,2018-06-29 10:18:29.656250,-97.38,79.25
179766,2018-06-29 10:18:29.687500,-109.44,79.25
179767,2018-06-29 10:18:29.718750,-121.4,79.25
179768,2018-06-29 10:18:29.750000,-132.56,79.25
179769,2018-06-29 10:18:29.781250,-146.42,79.25
179770,2018-06-29 10:18:29.812500,-162.88,79.25
179771,2018-06-29 10:18:29.843750,-172.02,79.25
179772,2018-06-29 10:18:29.875000,-165.73,79.25
179773,2018-06-29 10:18:29.906250,-151.21,79.25
179774,2018-06-29 10:18:29.937500,-144.32,79.25
179775,2018-06-29 10:18:29.968750,-150.72,79.25
179776,2018-06-29 10:18:30.000000,-156.73,79.25
179777,2018-06-29 10:18:30.031250,-138.96,79.25
179778,2018-06-29 10:18:30.062500,-85.43,79.25
179779,2018-06-29 10:18:30.093750,-8.31,79.25
179780,2018-06-29 10:18:30.125000,65.29,79.25
179781,2018-06-29 10:18:30.156250,113.88,79.25
179782,2018-06-29 10:18:30.187500,132.92,79.25
179783,2018-06-29 10:18:30.218750,130.75,79.25
179784,2018-06-29 10:18:30.250000,119.74,79.25
179785,2018-06-29 10:18:30.281250,111.68,79.25
179786,2018-06-29 10:18:30.312500,112.72,79.25
179787,2018-06-29 10:18:30.343750,120.03,79.25
179788,2018-06-29 10:18:30.375000,127.76,79.25
179789,2018-06-29 10:18:30.406250,133.38,79.25
179790,2018-06-29 10:18:30.437500,135.24,79.25
179791,2018-06-29 10:18:30.468750,129.99,79.25
179792,2018-06-29 10:18:30.500000,117.18,79.25
179793,2018-06-29 10:18:30.531250,101.59,79.0
179794,2018-06-29 10:18:30.562500,87.45,79.0
179795,2018-06-29 10:18:30.593750,73.13,79.0
179796,2018-06-29 10:18:30.625000,53.53,79.0
179797,2018-06-29 10:18:30.656250,26.32,79.0
179798,2018-06-29 10:18:30.687500,-5.9,79.0
179799,2018-06-29 10:18:30.718750,-38.93,79.0
179800,2018-06-29 10:18:30.750000,-71.0,79.0
179801,2018-06-29 10:18:30.781250,-100.71,79.0
179802,2018-06-29 10:18:30.812500,-119.92,79.0
179803,2018-06-29 10:18:30.843750,-114.84,79.0
179804,2018-06-29 10:18:30.875000,-81.45,79.0
179805,2018-06-29 10:18:30.906250,-33.75,79.0
179806,2018-06-29 10:18:30.937500,10.54,79.0
179807,2018-06-29 10:18:30.968750,45.33,79.0
179808,2018-06-29 10:18:31.000000,71.39,79.0
179809,2018-06-29 10:18:31.031250,86.51,79.0
179810,2018-06-29 10:18:31.062500,88.99,79.0
179811,2018-06-29 10:18:31.093750,83.83,79.0
179812,2018-06-29 10:18:31.125000,78.89,79.0
179813,2018-06-29 10:18:31.156250,78.27,79.0
179814,2018-06-29 10:18:31.187500,81.72,79.0
179815,2018-06-29 10:18:31.218750,87.45,79.0
179816,2018-06-29 10:18:31.250000,92.98,79.0
179817,2018-06-29 10:18:31.281250,94.42,79.0
179818,2018-06-29 10:18:31.312500,88.15,79.0
179819,2018-06-29 10:18:31.343750,74.72,79.0
179820,2018-06-29 10:18:31.375000,58.98,79.0
179821,2018-06-29 10:18:31.406250,45.17,79.0
179822,2018-06-29 10:18:31.437500,33.57,79.0
179823,2018-06-29 10:18:31.468750,22.42,79.0
179824,2018-06-29 10:18:31.500000,10.8,79.0
179825,2018-06-29 10:18:31.531250,-1.0,78.82
179826,2018-06-29 10:18:31.562500,-12.7,78.82
179827,2018-06-29 10:18:31.593750,-24.94,78.82
179828,2018-06-29 10:18:31.625000,-39.19,78.82
179829,2018-06-29 10:18:31.656250,-56.42,78.82
179830,2018-06-29 10:18:31.687500,-73.99,78.82
179831,2018-06-29 10:18:31.718750,-82.79,78.82
179832,2018-06-29 10:18:31.750000,-72.81,78.82
179833,2018-06-29 10:18:31.781250,-44.88,78.82
179834,2018-06-29 10:18:31.812500,-11.84,78.82
179835,2018-06-29 10:18:31.843750,15.18,78.82
179836,2018-06-29 10:18:31.875000,35.33,78.82
179837,2018-06-29 10:18:31.906250,50.69,78.82
179838,2018-06-29 10:18:31.937500,59.95,78.82
179839,2018-06-29 10:18:31.968750,63.17,78.82
179840,2018-06-29 10:18:32.000000,65.19,78.82
179841,2018-06-29 10:18:32.031250,70.31,78.82
179842,2018-06-29 10:18:32.062500,78.12,78.82
179843,2018-06-29 10:18:32.093750,86.1,78.82
179844,2018-06-29 10:18:32.125000,92.42,78.82
179845,2018-06-29 10:18:32.156250,95.4,78.82
179846,2018-06-29 10:18:32.187500,93.26,78.82
179847,2018-06-29 10:18:32.218750,85.56,78.82
179848,2018-06-29 10:18:32.250000,73.48,78.82
179849,2018-06-29 10:18:32.281250,59.08,78.82
179850,2018-06-29 10:18:32.312500,44.3,78.82
179851,2018-06-29 10:18:32.343750,29.46,78.82
179852,2018-06-29 10:18:32.375000,13.82,78.82
179853,2018-06-29 10:18:32.406250,-1.55,78.82
179854,2018-06-29 10:18:32.437500,-14.31,78.82
179855,2018-06-29 10:18:32.468750,-24.57,78.82
179856,2018-06-29 10:18:32.500000,-35.34,78.82
179857,2018-06-29 10:18:32.531250,-49.54,78.62
179858,2018-06-29 10:18:32.562500,-67.97,78.62
179859,2018-06-29 10:18:32.593750,-86.83,78.62
179860,2018-06-29 10:18:32.625000,-96.89,78.62
179861,2018-06-29 10:18:32.656250,-91.79,78.62
179862,2018-06-29 10:18:32.687500,-76.15,78.62
179863,2018-06-29 10:18:32.718750,-58.78,78.62
179864,2018-06-29 10:18:32.750000,-41.45,78.62
179865,2018-06-29 10:18:32.781250,-21.67,78.62
179866,2018-06-29 10:18:32.812500,-2.57,78.62
179867,2018-06-29 10:18:32.843750,8.57,78.62
179868,2018-06-29 10:18:32.875000,9.84,78.62
179869,2018-06-29 10:18:32.906250,6.99,78.62
179870,2018-06-29 10:18:32.937500,7.2,78.62
179871,2018-06-29 10:18:32.968750,14.36,78.62
179872,2018-06-29 10:18:33.000000,29.02,78.62
179873,2018-06-29 10:18:33.031250,47.46,78.62
179874,2018-06-29 10:18:33.062500,61.17,78.62
179875,2018-06-29 10:18:33.093750,62.07,78.62
179876,2018-06-29 10:18:33.125000,48.87,78.62
179877,2018-06-29 10:18:33.156250,26.27,78.62
179878,2018-06-29 10:18:33.187500,-1.29,78.62
179879,2018-06-29 10:18:33.218750,-30.71,78.62
179880,2018-06-29 10:18:33.250000,-56.2,78.62
179881,2018-06-29 10:18:33.281250,-70.62,78.62
179882,2018-06-29 10:18:33.312500,-72.38,78.62
179883,2018-06-29 10:18:33.343750,-66.79,78.62
179884,2018-06-29 10:18:33.375000,-59.61,78.62
179885,2018-06-29 10:18:33.406250,-51.85,78.62
179886,2018-06-29 10:18:33.437500,-39.17,78.62
179887,2018-06-29 10:18:33.468750,-16.28,78.62
179888,2018-06-29 10:18:33.500000,15.9,78.62
179889,2018-06-29 10:18:33.531250,49.48,78.4
179890,2018-06-29 10:18:33.562500,76.42,78.4
179891,2018-06-29 10:18:33.593750,93.64,78.4
179892,2018-06-29 10:18:33.625000,101.9,78.4
179893,2018-06-29 10:18:33.656250,103.11,78.4
179894,2018-06-29 10:18:33.687500,100.03,78.4
179895,2018-06-29 10:18:33.718750,96.66,78.4
179896,2018-06-29 10:18:33.750000,95.92,78.4
179897,2018-06-29 10:18:33.781250,97.5,78.4
179898,2018-06-29 10:18:33.812500,100.28,78.4
179899,2018-06-29 10:18:33.843750,104.87,78.4
179900,2018-06-29 10:18:33.875000,110.02,78.4
179901,2018-06-29 10:18:33.906250,108.76,78.4
179902,2018-06-29 10:18:33.937500,91.97,78.4
179903,2018-06-29 10:18:33.968750,57.03,78.4
179904,2018-06-29 10:18:34.000000,11.34,78.4
179905,2018-06-29 10:18:34.031250,-33.62,78.4
179906,2018-06-29 10:18:34.062500,-70.15,78.4
179907,2018-06-29 10:18:34.093750,-95.98,78.4
179908,2018-06-29 10:18:34.125000,-111.95,78.4
179909,2018-06-29 10:18:34.156250,-120.91,78.4
179910,2018-06-29 10:18:34.187500,-126.9,78.4
179911,2018-06-29 10:18:34.218750,-130.63,78.4
179912,2018-06-29 10:18:34.250000,-125.86,78.4
179913,2018-06-29 10:18:34.281250,-105.98,78.4
179914,2018-06-29 10:18:34.312500,-74.21,78.4
179915,2018-06-29 10:18:34.343750,-40.86,78.4
179916,2018-06-29 10:18:34.375000,-11.54,78.4
179917,2018-06-29 10:18:34.406250,14.57,78.4
179918,2018-06-29 10:18:34.437500,37.37,78.4
179919,2018-06-29 10:18:34.468750,54.56,78.4
179920,2018-06-29 10:18:34.500000,66.1,78.4
179921,2018-06-29 10:18:34.531250,75.55,78.22
179922,2018-06-29 10:18:34.562500,85.99,78.22
179923,2018-06-29 10:18:34.593750,94.62,78.22
179924,2018-06-29 10:18:34.625000,93.23,78.22
179925,2018-06-29 10:18:34.656250,76.26,78.22
179926,2018-06-29 10:18:34.687500,46.39,78.22
179927,2018-06-29 10:18:34.718750,10.83,78.22
179928,2018-06-29 10:18:34.750000,-23.55,78.22
179929,2018-06-29 10:18:34.781250,-51.25,78.22
179930,2018-06-29 10:18:34.812500,-70.0,78.22
179931,2018-06-29 10:18:34.843750,-82.0,78.22
179932,2018-06-29 10:18:34.875000,-90.61,78.22
179933,2018-06-29 10:18:34.906250,-97.2,78.22
179934,2018-06-29 10:18:34.937500,-102.39,78.22
179935,2018-06-29 10:18:34.968750,-108.85,78.22
179936,2018-06-29 10:18:35.000000,-119.52,78.22
179937,2018-06-29 10:18:35.031250,-130.08,78.22
179938,2018-06-29 10:18:35.062500,-128.32,78.22
179939,2018-06-29 10:18:35.093750,-107.71,78.22
179940,2018-06-29 10:18:35.125000,-76.81,78.22
179941,2018-06-29 10:18:35.156250,-48.95,78.22
179942,2018-06-29 10:18:35.187500,-28.86,78.22
179943,2018-06-29 10:18:35.218750,-15.0,78.22
179944,2018-06-29 10:18:35.250000,-6.91,78.22
179945,2018-06-29 10:18:35.281250,-3.72,78.22
179946,2018-06-29 10:18:35.312500,-1.12,78.22
179947,2018-06-29 10:18:35.343750,4.52,78.22
179948,2018-06-29 10:18:35.375000,11.44,78.22
179949,2018-06-29 10:18:35.406250,15.01,78.22
179950,2018-06-29 10:18:35.437500,13.61,78.22
179951,2018-06-29 10:18:35.468750,9.2,78.22
179952,2018-06-29 10:18:35.500000,3.95,78.22
179953,2018-06-29 10:18:35.531250,-0.75,78.05
179954,2018-06-29 10:18:35.562500,-4.28,78.05
179955,2018-06-29 10:18:35.593750,-7.65,78.05
179956,2018-06-29 10:18:35.625000,-12.15,78.05
179957,2018-06-29 10:18:35.656250,-16.51,78.05
179958,2018-06-29 10:18:35.687500,-17.84,78.05
179959,2018-06-29 10:18:35.718750,-16.31,78.05
179960,2018-06-29 10:18:35.750000,-16.55,78.05
179961,2018-06-29 10:18:35.781250,-22.49,78.05
179962,2018-06-29 10:18:35.812500,-30.06,78.05
179963,2018-06-29 10:18:35.843750,-27.78,78.05
179964,2018-06-29 10:18:35.875000,-8.59,78.05
179965,2018-06-29 10:18:35.906250,19.81,78.05
179966,2018-06-29 10:18:35.937500,40.09,78.05
179967,2018-06-29 10:18:35.968750,40.34,78.05
179968,2018-06-29 10:18:36.000000,22.28,78.05
179969,2018-06-29 10:18:36.031250,-2.9,78.05
179970,2018-06-29 10:18:36.062500,-23.53,78.05
179971,2018-06-29 10:18:36.093750,-32.94,78.05
179972,2018-06-29 10:18:36.125000,-30.72,78.05
179973,2018-06-29 10:18:36.156250,-21.09,78.05
179974,2018-06-29 10:18:36.187500,-9.03,78.05
179975,2018-06-29 10:18:36.218750,2.46,78.05
179976,2018-06-29 10:18:36.250000,11.08,78.05
179977,2018-06-29 10:18:36.281250,14.37,78.05
179978,2018-06-29 10:18:36.312500,12.24,78.05
179979,2018-06-29 10:18:36.343750,7.21,78.05
179980,2018-06-29 10:18:36.375000,1.13,78.05
179981,2018-06-29 10:18:36.406250,-5.56,78.05
179982,2018-06-29 10:18:36.437500,-12.22,78.05
179983,2018-06-29 10:18:36.468750,-18.21,78.05
179984,2018-06-29 10:18:36.500000,-24.1,78.05
179985,2018-06-29 10:18:36.531250,-31.33,77.93
179986,2018-06-29 10:18:36.562500,-40.59,77.93
179987,2018-06-29 10:18:36.593750,-49.62,77.93
179988,2018-06-29 10:18:36.625000,-52.05,77.93
179989,2018-06-29 10:18:36.656250,-42.3,77.93
179990,2018-06-29 10:18:36.687500,-23.06,77.93
179991,2018-06-29 10:18:36.718750,-3.36,77.93
179992,2018-06-29 10:18:36.750000,11.28,77.93
179993,2018-06-29 10:18:36.781250,21.25,77.93
179994,2018-06-29 10:18:36.812500,27.06,77.93
179995,2018-06-29 10:18:36.843750,28.27,77.93
179996,2018-06-29 10:18:36.875000,26.72,77.93
179997,2018-06-29 10:18:36.906250,24.86,77.93
179998,2018-06-29 10:18:36.937500,23.2,77.93
179999,2018-06-29 10:18:36.968750,22.28,77.93
180000,2018-06-29 10:18:37.000000,23.47,77.93
180001,2018-06-29 10:18:37.031250,26.01,77.93
180002,2018-06-29 10:18:37.062500,26.37,77.93
180003,2018-06-29 10:18:37.093750,22.13,77.93
180004,2018-06-29 10:18:37.125000,14.56,77.93
180005,2018-06-29 10:18:37.156250,6.95,77.93
180006,2018-06-29 10:18:37.187500,0.81,77.93
180007,2018-06-29 10:18:37.218750,-5.13,77.93
180008,2018-06-29 10:18:37.250000,-12.2,77.93
180009,2018-06-29 10:18:37.281250,-19.6,77.93
180010,2018-06-29 10:18:37.312500,-26.03,77.93
180011,2018-06-29 10:18:37.343750,-31.93,77.93
180012,2018-06-29 10:18:37.375000,-39.08,77.93
180013,2018-06-29 10:18:37.406250,-48.69,77.93
180014,2018-06-29 10:18:37.437500,-58.26,77.93
180015,2018-06-29 10:18:37.468750,-60.24,77.93
180016,2018-06-29 10:18:37.500000,-48.06,77.93
180017,2018-06-29 10:18:37.531250,-24.94,77.77
180018,2018-06-29 10:18:37.562500,-1.34,77.77
180019,2018-06-29 10:18:37.593750,16.6,77.77
180020,2018-06-29 10:18:37.625000,30.04,77.77
180021,2018-06-29 10:18:37.656250,40.22,77.77
180022,2018-06-29 10:18:37.687500,45.5,77.77
180023,2018-06-29 10:18:37.718750,45.87,77.77
180024,2018-06-29 10:18:37.750000,44.91,77.77
180025,2018-06-29 10:18:37.781250,44.98,77.77
180026,2018-06-29 10:18:37.812500,44.38,77.77
180027,2018-06-29 10:18:37.843750,40.97,77.77
180028,2018-06-29 10:18:37.875000,36.04,77.77
180029,2018-06-29 10:18:37.906250,31.14,77.77
180030,2018-06-29 10:18:37.937500,24.86,77.77
180031,2018-06-29 10:18:37.968750,15.66,77.77
180032,2018-06-29 10:18:38.000000,5.03,77.77
180033,2018-06-29 10:18:38.031250,-4.4,77.77
180034,2018-06-29 10:18:38.062500,-11.44,77.77
180035,2018-06-29 10:18:38.093750,-16.27,77.77
180036,2018-06-29 10:18:38.125000,-19.68,77.77
180037,2018-06-29 10:18:38.156250,-22.72,77.77
180038,2018-06-29 10:18:38.187500,-26.01,77.77
180039,2018-06-29 10:18:38.218750,-29.91,77.77
180040,2018-06-29 10:18:38.250000,-35.33,77.77
180041,2018-06-29 10:18:38.281250,-43.82,77.77
180042,2018-06-29 10:18:38.312500,-55.35,77.77
180043,2018-06-29 10:18:38.343750,-64.78,77.77
180044,2018-06-29 10:18:38.375000,-62.97,77.77
180045,2018-06-29 10:18:38.406250,-46.56,77.77
180046,2018-06-29 10:18:38.437500,-24.07,77.77
180047,2018-06-29 10:18:38.468750,-6.93,77.77
180048,2018-06-29 10:18:38.500000,1.48,77.77
180049,2018-06-29 10:18:38.531250,3.82,77.52
180050,2018-06-29 10:18:38.562500,2.46,77.52
180051,2018-06-29 10:18:38.593750,0.12,77.52
180052,2018-06-29 10:18:38.625000,1.38,77.52
180053,2018-06-29 10:18:38.656250,9.38,77.52
180054,2018-06-29 10:18:38.687500,22.25,77.52
180055,2018-06-29 10:18:38.718750,35.05,77.52
180056,2018-06-29 10:18:38.750000,44.28,77.52
180057,2018-06-29 10:18:38.781250,49.26,77.52
180058,2018-06-29 10:18:38.812500,50.46,77.52
180059,2018-06-29 10:18:38.843750,47.86,77.52
180060,2018-06-29 10:18:38.875000,40.97,77.52
180061,2018-06-29 10:18:38.906250,30.04,77.52
180062,2018-06-29 10:18:38.937500,17.08,77.52
180063,2018-06-29 10:18:38.968750,4.4,77.52
180064,2018-06-29 10:18:39.000000,-7.77,77.52
180065,2018-06-29 10:18:39.031250,-20.02,77.52
180066,2018-06-29 10:18:39.062500,-32.02,77.52
180067,2018-06-29 10:18:39.093750,-44.17,77.52
180068,2018-06-29 10:18:39.125000,-58.95,77.52
180069,2018-06-29 10:18:39.156250,-78.0,77.52
180070,2018-06-29 10:18:39.187500,-99.58,77.52
180071,2018-06-29 10:18:39.218750,-118.79,77.52
180072,2018-06-29 10:18:39.250000,-127.64,77.52
180073,2018-06-29 10:18:39.281250,-119.04,77.52
180074,2018-06-29 10:18:39.312500,-94.51,77.52
180075,2018-06-29 10:18:39.343750,-64.05,77.52
180076,2018-06-29 10:18:39.375000,-36.79,77.52
180077,2018-06-29 10:18:39.406250,-15.51,77.52
180078,2018-06-29 10:18:39.437500,-0.53,77.52
180079,2018-06-29 10:18:39.468750,7.18,77.52
180080,2018-06-29 10:18:39.500000,9.21,77.52
180081,2018-06-29 10:18:39.531250,11.23,77.28
180082,2018-06-29 10:18:39.562500,17.44,77.28
180083,2018-06-29 10:18:39.593750,26.61,77.28
180084,2018-06-29 10:18:39.625000,36.41,77.28
180085,2018-06-29 10:18:39.656250,47.02,77.28
180086,2018-06-29 10:18:39.687500,57.81,77.28
180087,2018-06-29 10:18:39.718750,64.5,77.28
180088,2018-06-29 10:18:39.750000,63.66,77.28
180089,2018-06-29 10:18:39.781250,57.79,77.28
180090,2018-06-29 10:18:39.812500,50.9,77.28
180091,2018-06-29 10:18:39.843750,41.34,77.28
180092,2018-06-29 10:18:39.875000,24.86,77.28
180093,2018-06-29 10:18:39.906250,2.06,77.28
180094,2018-06-29 10:18:39.937500,-24.07,77.28
180095,2018-06-29 10:18:39.968750,-53.96,77.28
180096,2018-06-29 10:18:40.000000,-88.27,77.28
180097,2018-06-29 10:18:40.031250,-122.39,77.28
180098,2018-06-29 10:18:40.062500,-144.97,77.28
180099,2018-06-29 10:18:40.093750,-140.7,77.28
180100,2018-06-29 10:18:40.125000,-101.28,77.28
180101,2018-06-29 10:18:40.156250,-37.58,77.28
180102,2018-06-29 10:18:40.187500,25.7,77.28
180103,2018-06-29 10:18:40.218750,70.38,77.28
180104,2018-06-29 10:18:40.250000,93.96,77.28
180105,2018-06-29 10:18:40.281250,101.31,77.28
180106,2018-06-29 10:18:40.312500,97.79,77.28
180107,2018-06-29 10:18:40.343750,88.53,77.28
180108,2018-06-29 10:18:40.375000,76.67,77.28
180109,2018-06-29 10:18:40.406250,62.55,77.28
180110,2018-06-29 10:18:40.437500,47.91,77.28
180111,2018-06-29 10:18:40.468750,38.11,77.28
180112,2018-06-29 10:18:40.500000,38.86,77.28
180113,2018-06-29 10:18:40.531250,53.34,76.98
180114,2018-06-29 10:18:40.562500,80.96,76.98
180115,2018-06-29 10:18:40.593750,117.89,76.98
180116,2018-06-29 10:18:40.625000,158.87,76.98
180117,2018-06-29 10:18:40.656250,197.27,76.98
180118,2018-06-29 10:18:40.687500,226.4,76.98
180119,2018-06-29 10:18:40.718750,246.4,76.98
180120,2018-06-29 10:18:40.750000,265.15,76.98
180121,2018-06-29 10:18:40.781250,286.42,76.98
180122,2018-06-29 10:18:40.812500,303.05,76.98
180123,2018-06-29 10:18:40.843750,304.2,76.98
180124,2018-06-29 10:18:40.875000,284.56,76.98
180125,2018-06-29 10:18:40.906250,251.38,76.98
180126,2018-06-29 10:18:40.937500,224.93,76.98
180127,2018-06-29 10:18:40.968750,218.74,76.98
180128,2018-06-29 10:18:41.000000,217.69,76.98
180129,2018-06-29 10:18:41.031250,192.64,76.98
180130,2018-06-29 10:18:41.062500,136.1,76.98
180131,2018-06-29 10:18:41.093750,64.97,76.98
180132,2018-06-29 10:18:41.125000,-7.45,76.98
180133,2018-06-29 10:18:41.156250,-78.57,76.98
180134,2018-06-29 10:18:41.187500,-138.12,76.98
180135,2018-06-29 10:18:41.218750,-167.51,76.98
180136,2018-06-29 10:18:41.250000,-158.92,76.98
180137,2018-06-29 10:18:41.281250,-120.05,76.98
180138,2018-06-29 10:18:41.312500,-63.77,76.98
180139,2018-06-29 10:18:41.343750,-3.35,76.98
180140,2018-06-29 10:18:41.375000,47.72,76.98
180141,2018-06-29 10:18:41.406250,79.62,76.98
180142,2018-06-29 10:18:41.437500,89.07,76.98
180143,2018-06-29 10:18:41.468750,78.19,76.98
180144,2018-06-29 10:18:41.500000,51.94,76.98
180145,2018-06-29 10:18:41.531250,14.96,76.67
180146,2018-06-29 10:18:41.562500,-30.37,76.67
180147,2018-06-29 10:18:41.593750,-83.01,76.67
180148,2018-06-29 10:18:41.625000,-141.27,76.67
180149,2018-06-29 10:18:41.656250,-204.79,76.67
180150,2018-06-29 10:18:41.687500,-275.6,76.67
180151,2018-06-29 10:18:41.718750,-348.83,76.67
180152,2018-06-29 10:18:41.750000,-408.22,76.67
180153,2018-06-29 10:18:41.781250,-446.1,76.67
180154,2018-06-29 10:18:41.812500,-474.95,76.67
180155,2018-06-29 10:18:41.843750,-502.24,76.67
180156,2018-06-29 10:18:41.875000,-507.56,76.67
180157,2018-06-29 10:18:41.906250,-460.73,76.67
180158,2018-06-29 10:18:41.937500,-356.16,76.67
180159,2018-06-29 10:18:41.968750,-223.11,76.67
180160,2018-06-29 10:18:42.000000,-102.93,76.67
180161,2018-06-29 10:18:42.031250,-19.17,76.67
180162,2018-06-29 10:18:42.062500,22.66,76.67
180163,2018-06-29 10:18:42.093750,15.25,76.67
180164,2018-06-29 10:18:42.125000,-43.38,76.67
180165,2018-06-29 10:18:42.156250,-126.85,76.67
180166,2018-06-29 10:18:42.187500,-186.93,76.67
180167,2018-06-29 10:18:42.218750,-190.73,76.67
180168,2018-06-29 10:18:42.250000,-147.15,76.67
180169,2018-06-29 10:18:42.281250,-90.09,76.67
180170,2018-06-29 10:18:42.312500,-35.78,76.67
180171,2018-06-29 10:18:42.343750,27.81,76.67
180172,2018-06-29 10:18:42.375000,108.4,76.67
180173,2018-06-29 10:18:42.406250,189.57,76.67
180174,2018-06-29 10:18:42.437500,249.28,76.67
180175,2018-06-29 10:18:42.468750,284.04,76.67
180176,2018-06-29 10:18:42.500000,309.16,76.67
180177,2018-06-29 10:18:42.531250,336.99,76.4
180178,2018-06-29 10:18:42.562500,357.4,76.4
180179,2018-06-29 10:18:42.593750,349.41,76.4
180180,2018-06-29 10:18:42.625000,309.98,76.4
180181,2018-06-29 10:18:42.656250,257.09,76.4
180182,2018-06-29 10:18:42.687500,208.4,76.4
180183,2018-06-29 10:18:42.718750,171.46,76.4
180184,2018-06-29 10:18:42.750000,148.72,76.4
180185,2018-06-29 10:18:42.781250,137.06,76.4
180186,2018-06-29 10:18:42.812500,126.33,76.4
180187,2018-06-29 10:18:42.843750,110.91,76.4
180188,2018-06-29 10:18:42.875000,95.29,76.4
180189,2018-06-29 10:18:42.906250,80.26,76.4
180190,2018-06-29 10:18:42.937500,56.93,76.4
180191,2018-06-29 10:18:42.968750,21.2,76.4
180192,2018-06-29 10:18:43.000000,-18.74,76.4
180193,2018-06-29 10:18:43.031250,-53.99,76.4
180194,2018-06-29 10:18:43.062500,-81.88,76.4
180195,2018-06-29 10:18:43.093750,-100.41,76.4
180196,2018-06-29 10:18:43.125000,-106.7,76.4
180197,2018-06-29 10:18:43.156250,-103.8,76.4
180198,2018-06-29 10:18:43.187500,-99.88,76.4
180199,2018-06-29 10:18:43.218750,-94.83,76.4
180200,2018-06-29 10:18:43.250000,-75.7,76.4
180201,2018-06-29 10:18:43.281250,-34.33,76.4
180202,2018-06-29 10:18:43.312500,17.9,76.4
180203,2018-06-29 10:18:43.343750,61.83,76.4
180204,2018-06-29 10:18:43.375000,89.05,76.4
180205,2018-06-29 10:18:43.406250,102.0,76.4
180206,2018-06-29 10:18:43.437500,106.41,76.4
180207,2018-06-29 10:18:43.468750,109.45,76.4
180208,2018-06-29 10:18:43.500000,116.41,76.4
180209,2018-06-29 10:18:43.531250,123.94,76.15
180210,2018-06-29 10:18:43.562500,121.47,76.15
180211,2018-06-29 10:18:43.593750,100.91,76.15
180212,2018-06-29 10:18:43.625000,63.02,76.15
180213,2018-06-29 10:18:43.656250,14.15,76.15
180214,2018-06-29 10:18:43.687500,-39.36,76.15
180215,2018-06-29 10:18:43.718750,-91.15,76.15
180216,2018-06-29 10:18:43.750000,-134.83,76.15
180217,2018-06-29 10:18:43.781250,-167.93,76.15
180218,2018-06-29 10:18:43.812500,-190.77,76.15
180219,2018-06-29 10:18:43.843750,-203.9,76.15
180220,2018-06-29 10:18:43.875000,-211.7,76.15
180221,2018-06-29 10:18:43.906250,-221.35,76.15
180222,2018-06-29 10:18:43.937500,-233.99,76.15
180223,2018-06-29 10:18:43.968750,-246.02,76.15
180224,2018-06-29 10:18:44.000000,-259.37,76.15
180225,2018-06-29 10:18:44.031250,-281.81,76.15
180226,2018-06-29 10:18:44.062500,-318.78,76.15
180227,2018-06-29 10:18:44.093750,-365.74,76.15
180228,2018-06-29 10:18:44.125000,-401.43,76.15
180229,2018-06-29 10:18:44.156250,-395.02,76.15
180230,2018-06-29 10:18:44.187500,-335.28,76.15
180231,2018-06-29 10:18:44.218750,-246.17,76.15
180232,2018-06-29 10:18:44.250000,-162.05,76.15
180233,2018-06-29 10:18:44.281250,-98.79,76.15
180234,2018-06-29 10:18:44.312500,-57.82,76.15
180235,2018-06-29 10:18:44.343750,-40.05,76.15
180236,2018-06-29 10:18:44.375000,-43.42,76.15
180237,2018-06-29 10:18:44.406250,-58.42,76.15
180238,2018-06-29 10:18:44.437500,-73.72,76.15
180239,2018-06-29 10:18:44.468750,-84.33,76.15
180240,2018-06-29 10:18:44.500000,-94.59,76.15
180241,2018-06-29 10:18:44.531250,-110.75,76.28
180242,2018-06-29 10:18:44.562500,-126.29,76.28
180243,2018-06-29 10:18:44.593750,-122.01,76.28
180244,2018-06-29 10:18:44.625000,-87.31,76.28
180245,2018-06-29 10:18:44.656250,-33.99,76.28
180246,2018-06-29 10:18:44.687500,17.14,76.28
180247,2018-06-29 10:18:44.718750,56.25,76.28
180248,2018-06-29 10:18:44.750000,84.0,76.28
180249,2018-06-29 10:18:44.781250,99.01,76.28
180250,2018-06-29 10:18:44.812500,97.87,76.28
180251,2018-06-29 10:18:44.843750,83.26,76.28
180252,2018-06-29 10:18:44.875000,61.3,76.28
180253,2018-06-29 10:18:44.906250,35.71,76.28
180254,2018-06-29 10:18:44.937500,14.02,76.28
180255,2018-06-29 10:18:44.968750,6.41,76.28
180256,2018-06-29 10:18:45.000000,9.41,76.28
180257,2018-06-29 10:18:45.031250,10.28,76.28
180258,2018-06-29 10:18:45.062500,8.12,76.28
180259,2018-06-29 10:18:45.093750,7.96,76.28
180260,2018-06-29 10:18:45.125000,1.5,76.28
180261,2018-06-29 10:18:45.156250,-23.28,76.28
180262,2018-06-29 10:18:45.187500,-63.98,76.28
180263,2018-06-29 10:18:45.218750,-107.91,76.28
180264,2018-06-29 10:18:45.250000,-140.4,76.28
180265,2018-06-29 10:18:45.281250,-144.44,76.28
180266,2018-06-29 10:18:45.312500,-107.92,76.28
180267,2018-06-29 10:18:45.343750,-33.69,76.28
180268,2018-06-29 10:18:45.375000,62.29,76.28
180269,2018-06-29 10:18:45.406250,162.0,76.28
180270,2018-06-29 10:18:45.437500,253.84,76.28
180271,2018-06-29 10:18:45.468750,330.74,76.28
180272,2018-06-29 10:18:45.500000,381.71,76.28
180273,2018-06-29 10:18:45.531250,394.38,76.42
180274,2018-06-29 10:18:45.562500,370.94,76.42
180275,2018-06-29 10:18:45.593750,331.92,76.42
180276,2018-06-29 10:18:45.625000,296.9,76.42
180277,2018-06-29 10:18:45.656250,270.69,76.42
180278,2018-06-29 10:18:45.687500,249.06,76.42
180279,2018-06-29 10:18:45.718750,226.48,76.42
180280,2018-06-29 10:18:45.750000,198.71,76.42
180281,2018-06-29 10:18:45.781250,166.78,76.42
180282,2018-06-29 10:18:45.812500,137.19,76.42
180283,2018-06-29 10:18:45.843750,114.74,76.42
180284,2018-06-29 10:18:45.875000,98.72,76.42
180285,2018-06-29 10:18:45.906250,85.95,76.42
180286,2018-06-29 10:18:45.937500,73.2,76.42
180287,2018-06-29 10:18:45.968750,56.63,76.42
180288,2018-06-29 10:18:46.000000,32.1,76.42
180289,2018-06-29 10:18:46.031250,-1.49,76.42
180290,2018-06-29 10:18:46.062500,-37.62,76.42
180291,2018-06-29 10:18:46.093750,-61.15,76.42
180292,2018-06-29 10:18:46.125000,-58.31,76.42
180293,2018-06-29 10:18:46.156250,-30.17,76.42
180294,2018-06-29 10:18:46.187500,7.61,76.42
180295,2018-06-29 10:18:46.218750,39.07,76.42
180296,2018-06-29 10:18:46.250000,57.29,76.42
180297,2018-06-29 10:18:46.281250,61.31,76.42
180298,2018-06-29 10:18:46.312500,53.09,76.42
180299,2018-06-29 10:18:46.343750,39.59,76.42
180300,2018-06-29 10:18:46.375000,30.02,76.42
180301,2018-06-29 10:18:46.406250,27.59,76.42
180302,2018-06-29 10:18:46.437500,28.58,76.42
180303,2018-06-29 10:18:46.468750,29.63,76.42
180304,2018-06-29 10:18:46.500000,30.17,76.42
180305,2018-06-29 10:18:46.531250,28.87,76.43
180306,2018-06-29 10:18:46.562500,24.27,76.43
180307,2018-06-29 10:18:46.593750,17.64,76.43
180308,2018-06-29 10:18:46.625000,11.82,76.43
180309,2018-06-29 10:18:46.656250,8.12,76.43
180310,2018-06-29 10:18:46.687500,5.46,76.43
180311,2018-06-29 10:18:46.718750,2.51,76.43
180312,2018-06-29 10:18:46.750000,0.96,76.43
180313,2018-06-29 10:18:46.781250,4.13,76.43
180314,2018-06-29 10:18:46.812500,12.15,76.43
180315,2018-06-29 10:18:46.843750,21.99,76.43
180316,2018-06-29 10:18:46.875000,31.4,76.43
180317,2018-06-29 10:18:46.906250,38.87,76.43
180318,2018-06-29 10:18:46.937500,41.63,76.43
180319,2018-06-29 10:18:46.968750,38.3,76.43
180320,2018-06-29 10:18:47.000000,33.39,76.43
180321,2018-06-29 10:18:47.031250,36.69,76.43
180322,2018-06-29 10:18:47.062500,53.59,76.43
180323,2018-06-29 10:18:47.093750,76.76,76.43
180324,2018-06-29 10:18:47.125000,93.11,76.43
180325,2018-06-29 10:18:47.156250,97.3,76.43
180326,2018-06-29 10:18:47.187500,92.36,76.43
180327,2018-06-29 10:18:47.218750,80.37,76.43
180328,2018-06-29 10:18:47.250000,61.17,76.43
180329,2018-06-29 10:18:47.281250,38.07,76.43
180330,2018-06-29 10:18:47.312500,17.34,76.43
180331,2018-06-29 10:18:47.343750,2.27,76.43
180332,2018-06-29 10:18:47.375000,-8.51,76.43
180333,2018-06-29 10:18:47.406250,-16.95,76.43
180334,2018-06-29 10:18:47.437500,-23.05,76.43
180335,2018-06-29 10:18:47.468750,-27.45,76.43
180336,2018-06-29 10:18:47.500000,-32.45,76.43
180337,2018-06-29 10:18:47.531250,-38.88,76.43
180338,2018-06-29 10:18:47.562500,-44.68,76.43
180339,2018-06-29 10:18:47.593750,-48.79,76.43
180340,2018-06-29 10:18:47.625000,-52.81,76.43
180341,2018-06-29 10:18:47.656250,-58.1,76.43
180342,2018-06-29 10:18:47.687500,-64.22,76.43
180343,2018-06-29 10:18:47.718750,-70.33,76.43
180344,2018-06-29 10:18:47.750000,-75.99,76.43
180345,2018-06-29 10:18:47.781250,-80.61,76.43
180346,2018-06-29 10:18:47.812500,-83.98,76.43
180347,2018-06-29 10:18:47.843750,-87.1,76.43
180348,2018-06-29 10:18:47.875000,-92.06,76.43
180349,2018-06-29 10:18:47.906250,-99.35,76.43
180350,2018-06-29 10:18:47.937500,-103.01,76.43
180351,2018-06-29 10:18:47.968750,-92.47,76.43
180352,2018-06-29 10:18:48.000000,-64.11,76.43
180353,2018-06-29 10:18:48.031250,-27.34,76.43
180354,2018-06-29 10:18:48.062500,5.27,76.43
180355,2018-06-29 10:18:48.093750,28.53,76.43
180356,2018-06-29 10:18:48.125000,42.19,76.43
180357,2018-06-29 10:18:48.156250,46.25,76.43
180358,2018-06-29 10:18:48.187500,43.12,76.43
180359,2018-06-29 10:18:48.218750,38.66,76.43
180360,2018-06-29 10:18:48.250000,37.55,76.43
180361,2018-06-29 10:18:48.281250,40.03,76.43
180362,2018-06-29 10:18:48.312500,44.11,76.43
180363,2018-06-29 10:18:48.343750,48.82,76.43
180364,2018-06-29 10:18:48.375000,53.89,76.43
180365,2018-06-29 10:18:48.406250,58.19,76.43
180366,2018-06-29 10:18:48.437500,61.7,76.43
180367,2018-06-29 10:18:48.468750,66.74,76.43
180368,2018-06-29 10:18:48.500000,74.82,76.43
180369,2018-06-29 10:18:48.531250,85.46,76.48
180370,2018-06-29 10:18:48.562500,99.13,76.48
180371,2018-06-29 10:18:48.593750,116.53,76.48
180372,2018-06-29 10:18:48.625000,133.69,76.48
180373,2018-06-29 10:18:48.656250,141.91,76.48
180374,2018-06-29 10:18:48.687500,133.11,76.48
180375,2018-06-29 10:18:48.718750,105.64,76.48
180376,2018-06-29 10:18:48.750000,67.85,76.48
180377,2018-06-29 10:18:48.781250,33.65,76.48
180378,2018-06-29 10:18:48.812500,9.95,76.48
180379,2018-06-29 10:18:48.843750,-8.64,76.48
180380,2018-06-29 10:18:48.875000,-28.92,76.48
180381,2018-06-29 10:18:48.906250,-49.06,76.48
180382,2018-06-29 10:18:48.937500,-63.31,76.48
180383,2018-06-29 10:18:48.968750,-70.11,76.48
180384,2018-06-29 10:18:49.000000,-71.69,76.48
180385,2018-06-29 10:18:49.031250,-70.04,76.48
180386,2018-06-29 10:18:49.062500,-66.2,76.48
180387,2018-06-29 10:18:49.093750,-61.13,76.48
180388,2018-06-29 10:18:49.125000,-55.98,76.48
180389,2018-06-29 10:18:49.156250,-52.51,76.48
180390,2018-06-29 10:18:49.187500,-53.61,76.48
180391,2018-06-29 10:18:49.218750,-61.07,76.48
180392,2018-06-29 10:18:49.250000,-72.26,76.48
180393,2018-06-29 10:18:49.281250,-81.54,76.48
180394,2018-06-29 10:18:49.312500,-85.68,76.48
180395,2018-06-29 10:18:49.343750,-85.6,76.48
180396,2018-06-29 10:18:49.375000,-83.9,76.48
180397,2018-06-29 10:18:49.406250,-83.3,76.48
180398,2018-06-29 10:18:49.437500,-85.9,76.48
180399,2018-06-29 10:18:49.468750,-91.38,76.48
180400,2018-06-29 10:18:49.500000,-97.35,76.48
180401,2018-06-29 10:18:49.531250,-98.83,76.67
180402,2018-06-29 10:18:49.562500,-86.86,76.67
180403,2018-06-29 10:18:49.593750,-57.06,76.67
180404,2018-06-29 10:18:49.625000,-20.28,76.67
180405,2018-06-29 10:18:49.656250,6.13,76.67
180406,2018-06-29 10:18:49.687500,16.44,76.67
180407,2018-06-29 10:18:49.718750,16.36,76.67
180408,2018-06-29 10:18:49.750000,11.19,76.67
180409,2018-06-29 10:18:49.781250,3.99,76.67
180410,2018-06-29 10:18:49.812500,-0.52,76.67
180411,2018-06-29 10:18:49.843750,1.35,76.67
180412,2018-06-29 10:18:49.875000,8.71,76.67
180413,2018-06-29 10:18:49.906250,18.64,76.67
180414,2018-06-29 10:18:49.937500,29.09,76.67
180415,2018-06-29 10:18:49.968750,37.8,76.67
180416,2018-06-29 10:18:50.000000,41.09,76.67
180417,2018-06-29 10:18:50.031250,36.35,76.67
180418,2018-06-29 10:18:50.062500,24.86,76.67
180419,2018-06-29 10:18:50.093750,9.97,76.67
180420,2018-06-29 10:18:50.125000,-6.99,76.67
180421,2018-06-29 10:18:50.156250,-25.47,76.67
180422,2018-06-29 10:18:50.187500,-40.57,76.67
180423,2018-06-29 10:18:50.218750,-45.11,76.67
180424,2018-06-29 10:18:50.250000,-38.23,76.67
180425,2018-06-29 10:18:50.281250,-27.89,76.67
180426,2018-06-29 10:18:50.312500,-23.75,76.67
180427,2018-06-29 10:18:50.343750,-28.39,76.67
180428,2018-06-29 10:18:50.375000,-34.87,76.67
180429,2018-06-29 10:18:50.406250,-33.28,76.67
180430,2018-06-29 10:18:50.437500,-21.04,76.67
180431,2018-06-29 10:18:50.468750,-4.57,76.67
180432,2018-06-29 10:18:50.500000,8.88,76.67
180433,2018-06-29 10:18:50.531250,17.22,76.78
180434,2018-06-29 10:18:50.562500,21.67,76.78
180435,2018-06-29 10:18:50.593750,22.71,76.78
180436,2018-06-29 10:18:50.625000,20.36,76.78
180437,2018-06-29 10:18:50.656250,16.35,76.78
180438,2018-06-29 10:18:50.687500,13.84,76.78
180439,2018-06-29 10:18:50.718750,14.48,76.78
180440,2018-06-29 10:18:50.750000,16.97,76.78
180441,2018-06-29 10:18:50.781250,17.75,76.78
180442,2018-06-29 10:18:50.812500,13.61,76.78
180443,2018-06-29 10:18:50.843750,5.07,76.78
180444,2018-06-29 10:18:50.875000,-4.1,76.78
180445,2018-06-29 10:18:50.906250,-11.86,76.78
180446,2018-06-29 10:18:50.937500,-20.1,76.78
180447,2018-06-29 10:18:50.968750,-31.21,76.78
180448,2018-06-29 10:18:51.000000,-44.53,76.78
180449,2018-06-29 10:18:51.031250,-57.0,76.78
180450,2018-06-29 10:18:51.062500,-66.53,76.78
180451,2018-06-29 10:18:51.093750,-74.66,76.78
180452,2018-06-29 10:18:51.125000,-84.65,76.78
180453,2018-06-29 10:18:51.156250,-94.22,76.78
180454,2018-06-29 10:18:51.187500,-92.74,76.78
180455,2018-06-29 10:18:51.218750,-73.03,76.78
180456,2018-06-29 10:18:51.250000,-42.78,76.78
180457,2018-06-29 10:18:51.281250,-16.28,76.78
180458,2018-06-29 10:18:51.312500,0.88,76.78
180459,2018-06-29 10:18:51.343750,11.12,76.78
180460,2018-06-29 10:18:51.375000,16.05,76.78
180461,2018-06-29 10:18:51.406250,15.68,76.78
180462,2018-06-29 10:18:51.437500,11.47,76.78
180463,2018-06-29 10:18:51.468750,5.74,76.78
180464,2018-06-29 10:18:51.500000,0.21,76.78
180465,2018-06-29 10:18:51.531250,-4.31,76.83
180466,2018-06-29 10:18:51.562500,-7.49,76.83
180467,2018-06-29 10:18:51.593750,-8.81,76.83
180468,2018-06-29 10:18:51.625000,-8.47,76.83
180469,2018-06-29 10:18:51.656250,-8.41,76.83
180470,2018-06-29 10:18:51.687500,-10.26,76.83
180471,2018-06-29 10:18:51.718750,-12.68,76.83
180472,2018-06-29 10:18:51.750000,-13.48,76.83
180473,2018-06-29 10:18:51.781250,-13.22,76.83
180474,2018-06-29 10:18:51.812500,-14.46,76.83
180475,2018-06-29 10:18:51.843750,-18.07,76.83
180476,2018-06-29 10:18:51.875000,-22.35,76.83
180477,2018-06-29 10:18:51.906250,-25.47,76.83
180478,2018-06-29 10:18:51.937500,-27.83,76.83
180479,2018-06-29 10:18:51.968750,-31.97,76.83
180480,2018-06-29 10:18:52.000000,-40.14,76.83
180481,2018-06-29 10:18:52.031250,-50.35,76.83
180482,2018-06-29 10:18:52.062500,-54.7,76.83
180483,2018-06-29 10:18:52.093750,-45.24,76.83
180484,2018-06-29 10:18:52.125000,-22.83,76.83
180485,2018-06-29 10:18:52.156250,2.25,76.83
180486,2018-06-29 10:18:52.187500,20.25,76.83
180487,2018-06-29 10:18:52.218750,29.9,76.83
180488,2018-06-29 10:18:52.250000,34.82,76.83
180489,2018-06-29 10:18:52.281250,36.31,76.83
180490,2018-06-29 10:18:52.312500,33.82,76.83
180491,2018-06-29 10:18:52.343750,30.0,76.83
180492,2018-06-29 10:18:52.375000,29.28,76.83
180493,2018-06-29 10:18:52.406250,32.37,76.83
180494,2018-06-29 10:18:52.437500,36.81,76.83
180495,2018-06-29 10:18:52.468750,41.08,76.83
180496,2018-06-29 10:18:52.500000,44.51,76.83
180497,2018-06-29 10:18:52.531250,45.63,76.9
180498,2018-06-29 10:18:52.562500,43.34,76.9
180499,2018-06-29 10:18:52.593750,38.58,76.9
180500,2018-06-29 10:18:52.625000,33.6,76.9
180501,2018-06-29 10:18:52.656250,29.68,76.9
180502,2018-06-29 10:18:52.687500,26.02,76.9
180503,2018-06-29 10:18:52.718750,21.2,76.9
180504,2018-06-29 10:18:52.750000,14.94,76.9
180505,2018-06-29 10:18:52.781250,7.84,76.9
180506,2018-06-29 10:18:52.812500,0.65,76.9
180507,2018-06-29 10:18:52.843750,-6.32,76.9
180508,2018-06-29 10:18:52.875000,-14.28,76.9
180509,2018-06-29 10:18:52.906250,-25.44,76.9
180510,2018-06-29 10:18:52.937500,-39.97,76.9
180511,2018-06-29 10:18:52.968750,-55.23,76.9
180512,2018-06-29 10:18:53.000000,-69.07,76.9
180513,2018-06-29 10:18:53.031250,-81.99,76.9
180514,2018-06-29 10:18:53.062500,-95.69,76.9
180515,2018-06-29 10:18:53.093750,-108.57,76.9
180516,2018-06-29 10:18:53.125000,-112.31,76.9
180517,2018-06-29 10:18:53.156250,-97.06,76.9
180518,2018-06-29 10:18:53.187500,-63.59,76.9
180519,2018-06-29 10:18:53.218750,-24.72,76.9
180520,2018-06-29 10:18:53.250000,8.08,76.9
180521,2018-06-29 10:18:53.281250,32.91,76.9
180522,2018-06-29 10:18:53.312500,51.23,76.9
180523,2018-06-29 10:18:53.343750,62.28,76.9
180524,2018-06-29 10:18:53.375000,66.31,76.9
180525,2018-06-29 10:18:53.406250,67.08,76.9
180526,2018-06-29 10:18:53.437500,68.08,76.9
180527,2018-06-29 10:18:53.468750,69.51,76.9
180528,2018-06-29 10:18:53.500000,70.27,76.9
180529,2018-06-29 10:18:53.531250,69.26,76.97
180530,2018-06-29 10:18:53.562500,64.36,76.97
180531,2018-06-29 10:18:53.593750,54.2,76.97
180532,2018-06-29 10:18:53.625000,40.85,76.97
180533,2018-06-29 10:18:53.656250,27.65,76.97
180534,2018-06-29 10:18:53.687500,15.36,76.97
180535,2018-06-29 10:18:53.718750,3.4,76.97
180536,2018-06-29 10:18:53.750000,-7.33,76.97
180537,2018-06-29 10:18:53.781250,-16.08,76.97
180538,2018-06-29 10:18:53.812500,-24.42,76.97
180539,2018-06-29 10:18:53.843750,-33.82,76.97
180540,2018-06-29 10:18:53.875000,-42.84,76.97
180541,2018-06-29 10:18:53.906250,-49.88,76.97
180542,2018-06-29 10:18:53.937500,-56.34,76.97
180543,2018-06-29 10:18:53.968750,-65.3,76.97
180544,2018-06-29 10:18:54.000000,-78.73,76.97
180545,2018-06-29 10:18:54.031250,-93.64,76.97
180546,2018-06-29 10:18:54.062500,-99.16,76.97
180547,2018-06-29 10:18:54.093750,-84.08,76.97
180548,2018-06-29 10:18:54.125000,-50.81,76.97
180549,2018-06-29 10:18:54.156250,-14.34,76.97
180550,2018-06-29 10:18:54.187500,14.09,76.97
180551,2018-06-29 10:18:54.218750,33.7,76.97
180552,2018-06-29 10:18:54.250000,46.04,76.97
180553,2018-06-29 10:18:54.281250,50.55,76.97
180554,2018-06-29 10:18:54.312500,48.47,76.97
180555,2018-06-29 10:18:54.343750,44.3,76.97
180556,2018-06-29 10:18:54.375000,42.92,76.97
180557,2018-06-29 10:18:54.406250,46.42,76.97
180558,2018-06-29 10:18:54.437500,53.03,76.97
180559,2018-06-29 10:18:54.468750,58.83,76.97
180560,2018-06-29 10:18:54.500000,60.87,76.97
180561,2018-06-29 10:18:54.531250,58.08,77.0
180562,2018-06-29 10:18:54.562500,50.66,77.0
180563,2018-06-29 10:18:54.593750,40.34,77.0
180564,2018-06-29 10:18:54.625000,29.57,77.0
180565,2018-06-29 10:18:54.656250,19.43,77.0
180566,2018-06-29 10:18:54.687500,9.81,77.0
180567,2018-06-29 10:18:54.718750,1.23,77.0
180568,2018-06-29 10:18:54.750000,-6.66,77.0
180569,2018-06-29 10:18:54.781250,-15.82,77.0
180570,2018-06-29 10:18:54.812500,-26.32,77.0
180571,2018-06-29 10:18:54.843750,-35.45,77.0
180572,2018-06-29 10:18:54.875000,-42.94,77.0
180573,2018-06-29 10:18:54.906250,-53.22,77.0
180574,2018-06-29 10:18:54.937500,-69.12,77.0
180575,2018-06-29 10:18:54.968750,-83.45,77.0
180576,2018-06-29 10:18:55.000000,-81.55,77.0
180577,2018-06-29 10:18:55.031250,-56.61,77.0
180578,2018-06-29 10:18:55.062500,-18.58,77.0
180579,2018-06-29 10:18:55.093750,17.17,77.0
180580,2018-06-29 10:18:55.125000,44.72,77.0
180581,2018-06-29 10:18:55.156250,65.4,77.0
180582,2018-06-29 10:18:55.187500,78.32,77.0
180583,2018-06-29 10:18:55.218750,81.23,77.0
180584,2018-06-29 10:18:55.250000,76.34,77.0
180585,2018-06-29 10:18:55.281250,69.24,77.0
180586,2018-06-29 10:18:55.312500,63.11,77.0
180587,2018-06-29 10:18:55.343750,57.19,77.0
180588,2018-06-29 10:18:55.375000,50.55,77.0
180589,2018-06-29 10:18:55.406250,44.0,77.0
180590,2018-06-29 10:18:55.437500,37.18,77.0
180591,2018-06-29 10:18:55.468750,28.2,77.0
180592,2018-06-29 10:18:55.500000,17.88,77.0
180593,2018-06-29 10:18:55.531250,9.65,77.07
180594,2018-06-29 10:18:55.562500,4.84,77.07
180595,2018-06-29 10:18:55.593750,2.07,77.07
180596,2018-06-29 10:18:55.625000,-0.02,77.07
180597,2018-06-29 10:18:55.656250,-3.25,77.07
180598,2018-06-29 10:18:55.687500,-9.83,77.07
180599,2018-06-29 10:18:55.718750,-19.25,77.07
180600,2018-06-29 10:18:55.750000,-29.21,77.07
180601,2018-06-29 10:18:55.781250,-40.31,77.07
180602,2018-06-29 10:18:55.812500,-57.11,77.07
180603,2018-06-29 10:18:55.843750,-83.58,77.07
180604,2018-06-29 10:18:55.875000,-116.38,77.07
180605,2018-06-29 10:18:55.906250,-142.53,77.07
180606,2018-06-29 10:18:55.937500,-149.23,77.07
180607,2018-06-29 10:18:55.968750,-136.2,77.07
180608,2018-06-29 10:18:56.000000,-111.99,77.07
180609,2018-06-29 10:18:56.031250,-80.36,77.07
180610,2018-06-29 10:18:56.062500,-39.13,77.07
180611,2018-06-29 10:18:56.093750,9.18,77.07
180612,2018-06-29 10:18:56.125000,54.95,77.07
180613,2018-06-29 10:18:56.156250,89.45,77.07
180614,2018-06-29 10:18:56.187500,109.91,77.07
180615,2018-06-29 10:18:56.218750,117.71,77.07
180616,2018-06-29 10:18:56.250000,115.61,77.07
180617,2018-06-29 10:18:56.281250,106.81,77.07
180618,2018-06-29 10:18:56.312500,93.81,77.07
180619,2018-06-29 10:18:56.343750,77.67,77.07
180620,2018-06-29 10:18:56.375000,59.63,77.07
180621,2018-06-29 10:18:56.406250,42.37,77.07
180622,2018-06-29 10:18:56.437500,28.31,77.07
180623,2018-06-29 10:18:56.468750,17.48,77.07
180624,2018-06-29 10:18:56.500000,8.73,77.07
180625,2018-06-29 10:18:56.531250,1.51,77.08
180626,2018-06-29 10:18:56.562500,-5.12,77.08
180627,2018-06-29 10:18:56.593750,-13.08,77.08
180628,2018-06-29 10:18:56.625000,-23.66,77.08
180629,2018-06-29 10:18:56.656250,-37.44,77.08
180630,2018-06-29 10:18:56.687500,-56.23,77.08
180631,2018-06-29 10:18:56.718750,-82.64,77.08
180632,2018-06-29 10:18:56.750000,-116.96,77.08
180633,2018-06-29 10:18:56.781250,-154.29,77.08
180634,2018-06-29 10:18:56.812500,-181.12,77.08
180635,2018-06-29 10:18:56.843750,-178.25,77.08
180636,2018-06-29 10:18:56.875000,-137.46,77.08
180637,2018-06-29 10:18:56.906250,-74.48,77.08
180638,2018-06-29 10:18:56.937500,-16.36,77.08
180639,2018-06-29 10:18:56.968750,21.79,77.08
180640,2018-06-29 10:18:57.000000,41.59,77.08
180641,2018-06-29 10:18:57.031250,51.3,77.08
180642,2018-06-29 10:18:57.062500,59.9,77.08
180643,2018-06-29 10:18:57.093750,76.42,77.08
180644,2018-06-29 10:18:57.125000,106.44,77.08
180645,2018-06-29 10:18:57.156250,148.02,77.08
180646,2018-06-29 10:18:57.187500,193.01,77.08
180647,2018-06-29 10:18:57.218750,231.74,77.08
180648,2018-06-29 10:18:57.250000,255.35,77.08
180649,2018-06-29 10:18:57.281250,257.58,77.08
180650,2018-06-29 10:18:57.312500,239.54,77.08
180651,2018-06-29 10:18:57.343750,210.08,77.08
180652,2018-06-29 10:18:57.375000,177.08,77.08
180653,2018-06-29 10:18:57.406250,140.6,77.08
180654,2018-06-29 10:18:57.437500,97.32,77.08
180655,2018-06-29 10:18:57.468750,48.7,77.08
180656,2018-06-29 10:18:57.500000,1.54,77.08
180657,2018-06-29 10:18:57.531250,-38.24,77.0
180658,2018-06-29 10:18:57.562500,-69.84,77.0
180659,2018-06-29 10:18:57.593750,-95.22,77.0
180660,2018-06-29 10:18:57.625000,-115.28,77.0
180661,2018-06-29 10:18:57.656250,-131.06,77.0
180662,2018-06-29 10:18:57.687500,-146.89,77.0
180663,2018-06-29 10:18:57.718750,-167.93,77.0
180664,2018-06-29 10:18:57.750000,-192.38,77.0
180665,2018-06-29 10:18:57.781250,-206.59,77.0
180666,2018-06-29 10:18:57.812500,-193.67,77.0
180667,2018-06-29 10:18:57.843750,-151.82,77.0
180668,2018-06-29 10:18:57.875000,-97.68,77.0
180669,2018-06-29 10:18:57.906250,-48.23,77.0
180670,2018-06-29 10:18:57.937500,-8.52,77.0
180671,2018-06-29 10:18:57.968750,21.79,77.0
180672,2018-06-29 10:18:58.000000,42.42,77.0
180673,2018-06-29 10:18:58.031250,55.61,77.0
180674,2018-06-29 10:18:58.062500,65.85,77.0
180675,2018-06-29 10:18:58.093750,75.35,77.0
180676,2018-06-29 10:18:58.125000,83.7,77.0
180677,2018-06-29 10:18:58.156250,90.63,77.0
180678,2018-06-29 10:18:58.187500,96.91,77.0
180679,2018-06-29 10:18:58.218750,102.69,77.0
180680,2018-06-29 10:18:58.250000,105.75,77.0
180681,2018-06-29 10:18:58.281250,102.85,77.0
180682,2018-06-29 10:18:58.312500,93.62,77.0
180683,2018-06-29 10:18:58.343750,81.09,77.0
180684,2018-06-29 10:18:58.375000,67.56,77.0
180685,2018-06-29 10:18:58.406250,51.81,77.0
180686,2018-06-29 10:18:58.437500,31.88,77.0
180687,2018-06-29 10:18:58.468750,9.15,77.0
180688,2018-06-29 10:18:58.500000,-13.01,77.0
180689,2018-06-29 10:18:58.531250,-33.93,76.87
180690,2018-06-29 10:18:58.562500,-55.19,76.87
180691,2018-06-29 10:18:58.593750,-74.86,76.87
180692,2018-06-29 10:18:58.625000,-87.57,76.87
180693,2018-06-29 10:18:58.656250,-91.29,76.87
180694,2018-06-29 10:18:58.687500,-89.75,76.87
180695,2018-06-29 10:18:58.718750,-88.71,76.87
180696,2018-06-29 10:18:58.750000,-92.26,76.87
180697,2018-06-29 10:18:58.781250,-98.35,76.87
180698,2018-06-29 10:18:58.812500,-95.62,76.87
180699,2018-06-29 10:18:58.843750,-73.14,76.87
180700,2018-06-29 10:18:58.875000,-34.8,76.87
180701,2018-06-29 10:18:58.906250,4.96,76.87
180702,2018-06-29 10:18:58.937500,36.62,76.87
180703,2018-06-29 10:18:58.968750,57.57,76.87
180704,2018-06-29 10:18:59.000000,65.62,76.87
180705,2018-06-29 10:18:59.031250,61.81,76.87
180706,2018-06-29 10:18:59.062500,54.08,76.87
180707,2018-06-29 10:18:59.093750,50.21,76.87
180708,2018-06-29 10:18:59.125000,51.07,76.87
180709,2018-06-29 10:18:59.156250,53.85,76.87
180710,2018-06-29 10:18:59.187500,56.9,76.87
180711,2018-06-29 10:18:59.218750,58.51,76.87
180712,2018-06-29 10:18:59.250000,54.94,76.87
180713,2018-06-29 10:18:59.281250,43.65,76.87
180714,2018-06-29 10:18:59.312500,27.02,76.87
180715,2018-06-29 10:18:59.343750,9.84,76.87
180716,2018-06-29 10:18:59.375000,-6.57,76.87
180717,2018-06-29 10:18:59.406250,-24.77,76.87
180718,2018-06-29 10:18:59.437500,-45.73,76.87
180719,2018-06-29 10:18:59.468750,-65.72,76.87
180720,2018-06-29 10:18:59.500000,-80.69,76.87
180721,2018-06-29 10:18:59.531250,-91.86,76.83
180722,2018-06-29 10:18:59.562500,-103.37,76.83
180723,2018-06-29 10:18:59.593750,-115.67,76.83
180724,2018-06-29 10:18:59.625000,-125.48,76.83
180725,2018-06-29 10:18:59.656250,-132.52,76.83
180726,2018-06-29 10:18:59.687500,-142.35,76.83
180727,2018-06-29 10:18:59.718750,-159.99,76.83
180728,2018-06-29 10:18:59.750000,-178.86,76.83
180729,2018-06-29 10:18:59.781250,-179.67,76.83
180730,2018-06-29 10:18:59.812500,-148.36,76.83
180731,2018-06-29 10:18:59.843750,-93.6,76.83
180732,2018-06-29 10:18:59.875000,-38.3,76.83
180733,2018-06-29 10:18:59.906250,2.59,76.83
180734,2018-06-29 10:18:59.937500,28.61,76.83
180735,2018-06-29 10:18:59.968750,44.78,76.83
180736,2018-06-29 10:19:00.000000,54.98,76.83
180737,2018-06-29 10:19:00.031250,62.09,76.83
180738,2018-06-29 10:19:00.062500,68.63,76.83
180739,2018-06-29 10:19:00.093750,75.83,76.83
180740,2018-06-29 10:19:00.125000,83.11,76.83
180741,2018-06-29 10:19:00.156250,89.21,76.83
180742,2018-06-29 10:19:00.187500,92.74,76.83
180743,2018-06-29 10:19:00.218750,92.24,76.83
180744,2018-06-29 10:19:00.250000,86.76,76.83
180745,2018-06-29 10:19:00.281250,76.71,76.83
180746,2018-06-29 10:19:00.312500,64.32,76.83
180747,2018-06-29 10:19:00.343750,52.56,76.83
180748,2018-06-29 10:19:00.375000,42.62,76.83
180749,2018-06-29 10:19:00.406250,32.87,76.83
180750,2018-06-29 10:19:00.437500,20.83,76.83
180751,2018-06-29 10:19:00.468750,5.43,76.83
180752,2018-06-29 10:19:00.500000,-12.07,76.83
180753,2018-06-29 10:19:00.531250,-28.73,76.48
180754,2018-06-29 10:19:00.562500,-42.97,76.48
180755,2018-06-29 10:19:00.593750,-57.36,76.48
180756,2018-06-29 10:19:00.625000,-76.53,76.48
180757,2018-06-29 10:19:00.656250,-100.06,76.48
180758,2018-06-29 10:19:00.687500,-116.37,76.48
180759,2018-06-29 10:19:00.718750,-108.92,76.48
180760,2018-06-29 10:19:00.750000,-74.35,76.48
180761,2018-06-29 10:19:00.781250,-28.4,76.48
180762,2018-06-29 10:19:00.812500,11.33,76.48
180763,2018-06-29 10:19:00.843750,40.22,76.48
180764,2018-06-29 10:19:00.875000,60.57,76.48
180765,2018-06-29 10:19:00.906250,72.31,76.48
180766,2018-06-29 10:19:00.937500,75.01,76.48
180767,2018-06-29 10:19:00.968750,71.69,76.48
180768,2018-06-29 10:19:01.000000,67.02,76.48
180769,2018-06-29 10:19:01.031250,63.8,76.48
180770,2018-06-29 10:19:01.062500,62.32,76.48
180771,2018-06-29 10:19:01.093750,61.82,76.48
180772,2018-06-29 10:19:01.125000,60.58,76.48
180773,2018-06-29 10:19:01.156250,55.66,76.48
180774,2018-06-29 10:19:01.187500,45.33,76.48
180775,2018-06-29 10:19:01.218750,31.63,76.48
180776,2018-06-29 10:19:01.250000,18.42,76.48
180777,2018-06-29 10:19:01.281250,7.23,76.48
180778,2018-06-29 10:19:01.312500,-3.63,76.48
180779,2018-06-29 10:19:01.343750,-15.77,76.48
180780,2018-06-29 10:19:01.375000,-27.53,76.48
180781,2018-06-29 10:19:01.406250,-35.39,76.48
180782,2018-06-29 10:19:01.437500,-38.19,76.48
180783,2018-06-29 10:19:01.468750,-39.38,76.48
180784,2018-06-29 10:19:01.500000,-44.83,76.48
180785,2018-06-29 10:19:01.531250,-55.54,76.1
180786,2018-06-29 10:19:01.562500,-62.11,76.1
180787,2018-06-29 10:19:01.593750,-52.23,76.1
180788,2018-06-29 10:19:01.625000,-25.58,76.1
180789,2018-06-29 10:19:01.656250,4.7,76.1
180790,2018-06-29 10:19:01.687500,26.16,76.1
180791,2018-06-29 10:19:01.718750,36.64,76.1
180792,2018-06-29 10:19:01.750000,41.55,76.1
180793,2018-06-29 10:19:01.781250,47.66,76.1
180794,2018-06-29 10:19:01.812500,59.14,76.1
180795,2018-06-29 10:19:01.843750,75.69,76.1
180796,2018-06-29 10:19:01.875000,93.56,76.1
180797,2018-06-29 10:19:01.906250,108.62,76.1
180798,2018-06-29 10:19:01.937500,118.52,76.1
180799,2018-06-29 10:19:01.968750,122.38,76.1
180800,2018-06-29 10:19:02.000000,119.14,76.1
180801,2018-06-29 10:19:02.031250,107.51,76.1
180802,2018-06-29 10:19:02.062500,87.98,76.1
180803,2018-06-29 10:19:02.093750,63.84,76.1
180804,2018-06-29 10:19:02.125000,38.04,76.1
180805,2018-06-29 10:19:02.156250,10.58,76.1
180806,2018-06-29 10:19:02.187500,-18.97,76.1
180807,2018-06-29 10:19:02.218750,-47.56,76.1
180808,2018-06-29 10:19:02.250000,-71.34,76.1
180809,2018-06-29 10:19:02.281250,-90.77,76.1
180810,2018-06-29 10:19:02.312500,-109.45,76.1
180811,2018-06-29 10:19:02.343750,-128.99,76.1
180812,2018-06-29 10:19:02.375000,-144.89,76.1
180813,2018-06-29 10:19:02.406250,-144.94,76.1
180814,2018-06-29 10:19:02.437500,-117.8,76.1
180815,2018-06-29 10:19:02.468750,-67.57,76.1
180816,2018-06-29 10:19:02.500000,-12.29,76.1
180817,2018-06-29 10:19:02.531250,33.96,75.72
180818,2018-06-29 10:19:02.562500,68.52,75.72
180819,2018-06-29 10:19:02.593750,90.99,75.72
180820,2018-06-29 10:19:02.625000,98.94,75.72
180821,2018-06-29 10:19:02.656250,94.21,75.72
180822,2018-06-29 10:19:02.687500,84.1,75.72
180823,2018-06-29 10:19:02.718750,74.31,75.72
180824,2018-06-29 10:19:02.750000,65.56,75.72
180825,2018-06-29 10:19:02.781250,57.03,75.72
180826,2018-06-29 10:19:02.812500,48.16,75.72
180827,2018-06-29 10:19:02.843750,37.79,75.72
180828,2018-06-29 10:19:02.875000,25.94,75.72
180829,2018-06-29 10:19:02.906250,14.64,75.72
180830,2018-06-29 10:19:02.937500,3.94,75.72
180831,2018-06-29 10:19:02.968750,-8.71,75.72
180832,2018-06-29 10:19:03.000000,-23.95,75.72
180833,2018-06-29 10:19:03.031250,-39.33,75.72
180834,2018-06-29 10:19:03.062500,-53.37,75.72
180835,2018-06-29 10:19:03.093750,-67.5,75.72
180836,2018-06-29 10:19:03.125000,-83.83,75.72
180837,2018-06-29 10:19:03.156250,-100.95,75.72
180838,2018-06-29 10:19:03.187500,-109.78,75.72
180839,2018-06-29 10:19:03.218750,-98.0,75.72
180840,2018-06-29 10:19:03.250000,-64.39,75.72
180841,2018-06-29 10:19:03.281250,-23.32,75.72
180842,2018-06-29 10:19:03.312500,10.41,75.72
180843,2018-06-29 10:19:03.343750,33.55,75.72
180844,2018-06-29 10:19:03.375000,47.89,75.72
180845,2018-06-29 10:19:03.406250,51.98,75.72
180846,2018-06-29 10:19:03.437500,45.19,75.72
180847,2018-06-29 10:19:03.468750,32.99,75.72
180848,2018-06-29 10:19:03.500000,22.92,75.72
180849,2018-06-29 10:19:03.531250,17.62,75.37
180850,2018-06-29 10:19:03.562500,14.82,75.37
180851,2018-06-29 10:19:03.593750,12.9,75.37
180852,2018-06-29 10:19:03.625000,12.85,75.37
180853,2018-06-29 10:19:03.656250,14.0,75.37
180854,2018-06-29 10:19:03.687500,12.2,75.37
180855,2018-06-29 10:19:03.718750,4.5,75.37
180856,2018-06-29 10:19:03.750000,-7.4,75.37
180857,2018-06-29 10:19:03.781250,-20.88,75.37
180858,2018-06-29 10:19:03.812500,-36.43,75.37
180859,2018-06-29 10:19:03.843750,-55.24,75.37
180860,2018-06-29 10:19:03.875000,-76.48,75.37
180861,2018-06-29 10:19:03.906250,-97.06,75.37
180862,2018-06-29 10:19:03.937500,-108.77,75.37
180863,2018-06-29 10:19:03.968750,-99.36,75.37
180864,2018-06-29 10:19:04.000000,-65.72,75.37
180865,2018-06-29 10:19:04.031250,-21.52,75.37
180866,2018-06-29 10:19:04.062500,16.29,75.37
180867,2018-06-29 10:19:04.093750,42.61,75.37
180868,2018-06-29 10:19:04.125000,59.87,75.37
180869,2018-06-29 10:19:04.156250,67.96,75.37
180870,2018-06-29 10:19:04.187500,66.84,75.37
180871,2018-06-29 10:19:04.218750,61.69,75.37
180872,2018-06-29 10:19:04.250000,58.44,75.37
180873,2018-06-29 10:19:04.281250,58.06,75.37
180874,2018-06-29 10:19:04.312500,58.02,75.37
180875,2018-06-29 10:19:04.343750,55.88,75.37
180876,2018-06-29 10:19:04.375000,50.21,75.37
180877,2018-06-29 10:19:04.406250,40.77,75.37
180878,2018-06-29 10:19:04.437500,28.21,75.37
180879,2018-06-29 10:19:04.468750,13.44,75.37
180880,2018-06-29 10:19:04.500000,-2.21,75.37
180881,2018-06-29 10:19:04.531250,-17.4,75.07
180882,2018-06-29 10:19:04.562500,-32.11,75.07
180883,2018-06-29 10:19:04.593750,-47.0,75.07
180884,2018-06-29 10:19:04.625000,-62.38,75.07
180885,2018-06-29 10:19:04.656250,-78.48,75.07
180886,2018-06-29 10:19:04.687500,-92.97,75.07
180887,2018-06-29 10:19:04.718750,-96.66,75.07
180888,2018-06-29 10:19:04.750000,-79.78,75.07
180889,2018-06-29 10:19:04.781250,-45.68,75.07
180890,2018-06-29 10:19:04.812500,-9.32,75.07
180891,2018-06-29 10:19:04.843750,18.96,75.07
180892,2018-06-29 10:19:04.875000,39.13,75.07
180893,2018-06-29 10:19:04.906250,52.14,75.07
180894,2018-06-29 10:19:04.937500,56.82,75.07
180895,2018-06-29 10:19:04.968750,55.77,75.07
180896,2018-06-29 10:19:05.000000,54.85,75.07
180897,2018-06-29 10:19:05.031250,55.54,75.07
180898,2018-06-29 10:19:05.062500,54.56,75.07
180899,2018-06-29 10:19:05.093750,50.5,75.07
180900,2018-06-29 10:19:05.125000,44.9,75.07
180901,2018-06-29 10:19:05.156250,37.64,75.07
180902,2018-06-29 10:19:05.187500,27.17,75.07
180903,2018-06-29 10:19:05.218750,14.72,75.07
180904,2018-06-29 10:19:05.250000,2.97,75.07
180905,2018-06-29 10:19:05.281250,-8.49,75.07
180906,2018-06-29 10:19:05.312500,-22.05,75.07
180907,2018-06-29 10:19:05.343750,-37.29,75.07
180908,2018-06-29 10:19:05.375000,-51.35,75.07
180909,2018-06-29 10:19:05.406250,-63.7,75.07
180910,2018-06-29 10:19:05.437500,-77.24,75.07
180911,2018-06-29 10:19:05.468750,-94.49,75.07
180912,2018-06-29 10:19:05.500000,-113.27,75.07
180913,2018-06-29 10:19:05.531250,-124.66,74.72
180914,2018-06-29 10:19:05.562500,-117.84,74.72
180915,2018-06-29 10:19:05.593750,-90.46,74.72
180916,2018-06-29 10:19:05.625000,-51.09,74.72
180917,2018-06-29 10:19:05.656250,-9.21,74.72
180918,2018-06-29 10:19:05.687500,31.52,74.72
180919,2018-06-29 10:19:05.718750,67.57,74.72
180920,2018-06-29 10:19:05.750000,91.25,74.72
180921,2018-06-29 10:19:05.781250,98.49,74.72
180922,2018-06-29 10:19:05.812500,95.99,74.72
180923,2018-06-29 10:19:05.843750,94.62,74.72
180924,2018-06-29 10:19:05.875000,99.0,74.72
180925,2018-06-29 10:19:05.906250,108.22,74.72
180926,2018-06-29 10:19:05.937500,121.62,74.72
180927,2018-06-29 10:19:05.968750,137.9,74.72
180928,2018-06-29 10:19:06.000000,152.85,74.72
180929,2018-06-29 10:19:06.031250,161.71,74.72
180930,2018-06-29 10:19:06.062500,161.9,74.72
180931,2018-06-29 10:19:06.093750,152.55,74.72
180932,2018-06-29 10:19:06.125000,134.01,74.72
180933,2018-06-29 10:19:06.156250,109.07,74.72
180934,2018-06-29 10:19:06.187500,83.81,74.72
180935,2018-06-29 10:19:06.218750,65.68,74.72
180936,2018-06-29 10:19:06.250000,58.01,74.72
180937,2018-06-29 10:19:06.281250,56.72,74.72
180938,2018-06-29 10:19:06.312500,54.65,74.72
180939,2018-06-29 10:19:06.343750,50.43,74.72
180940,2018-06-29 10:19:06.375000,51.81,74.72
180941,2018-06-29 10:19:06.406250,65.34,74.72
180942,2018-06-29 10:19:06.437500,84.23,74.72
180943,2018-06-29 10:19:06.468750,93.68,74.72
180944,2018-06-29 10:19:06.500000,86.84,74.72
180945,2018-06-29 10:19:06.531250,67.86,74.38
180946,2018-06-29 10:19:06.562500,43.08,74.38
180947,2018-06-29 10:19:06.593750,17.03,74.38
180948,2018-06-29 10:19:06.625000,-5.58,74.38
180949,2018-06-29 10:19:06.656250,-21.5,74.38
180950,2018-06-29 10:19:06.687500,-34.27,74.38
180951,2018-06-29 10:19:06.718750,-49.89,74.38
180952,2018-06-29 10:19:06.750000,-66.85,74.38
180953,2018-06-29 10:19:06.781250,-79.09,74.38
180954,2018-06-29 10:19:06.812500,-85.64,74.38
180955,2018-06-29 10:19:06.843750,-92.31,74.38
180956,2018-06-29 10:19:06.875000,-101.68,74.38
180957,2018-06-29 10:19:06.906250,-113.07,74.38
180958,2018-06-29 10:19:06.937500,-125.61,74.38
180959,2018-06-29 10:19:06.968750,-138.57,74.38
180960,2018-06-29 10:19:07.000000,-151.39,74.38
180961,2018-06-29 10:19:07.031250,-167.52,74.38
180962,2018-06-29 10:19:07.062500,-194.76,74.38
180963,2018-06-29 10:19:07.093750,-233.88,74.38
180964,2018-06-29 10:19:07.125000,-282.38,74.38
180965,2018-06-29 10:19:07.156250,-326.46,74.38
180966,2018-06-29 10:19:07.187500,-358.68,74.38
180967,2018-06-29 10:19:07.218750,-385.39,74.38
180968,2018-06-29 10:19:07.250000,-425.02,74.38
180969,2018-06-29 10:19:07.281250,-469.27,74.38
180970,2018-06-29 10:19:07.312500,-472.13,74.38
180971,2018-06-29 10:19:07.343750,-418.61,74.38
180972,2018-06-29 10:19:07.375000,-340.57,74.38
180973,2018-06-29 10:19:07.406250,-293.35,74.38
180974,2018-06-29 10:19:07.437500,-269.78,74.38
180975,2018-06-29 10:19:07.468750,-250.15,74.38
180976,2018-06-29 10:19:07.500000,-236.2,74.38
180977,2018-06-29 10:19:07.531250,-250.9,74.17
180978,2018-06-29 10:19:07.562500,-293.75,74.17
180979,2018-06-29 10:19:07.593750,-324.32,74.17
180980,2018-06-29 10:19:07.625000,-330.88,74.17
180981,2018-06-29 10:19:07.656250,-171.42,74.17
180982,2018-06-29 10:19:07.687500,140.37,74.17
180983,2018-06-29 10:19:07.718750,352.6,74.17
180984,2018-06-29 10:19:07.750000,427.5,74.17
180985,2018-06-29 10:19:07.781250,442.59,74.17
180986,2018-06-29 10:19:07.812500,420.82,74.17
180987,2018-06-29 10:19:07.843750,369.18,74.17
180988,2018-06-29 10:19:07.875000,340.7,74.17
180989,2018-06-29 10:19:07.906250,335.75,74.17
180990,2018-06-29 10:19:07.937500,321.79,74.17
180991,2018-06-29 10:19:07.968750,267.46,74.17
180992,2018-06-29 10:19:08.000000,203.79,74.17
180993,2018-06-29 10:19:08.031250,167.91,74.17
180994,2018-06-29 10:19:08.062500,163.6,74.17
180995,2018-06-29 10:19:08.093750,165.99,74.17
180996,2018-06-29 10:19:08.125000,158.63,74.17
180997,2018-06-29 10:19:08.156250,154.59,74.17
180998,2018-06-29 10:19:08.187500,155.72,74.17
180999,2018-06-29 10:19:08.218750,154.65,74.17
181000,2018-06-29 10:19:08.250000,140.91,74.17
181001,2018-06-29 10:19:08.281250,123.38,74.17
181002,2018-06-29 10:19:08.312500,111.36,74.17
181003,2018-06-29 10:19:08.343750,104.23,74.17
181004,2018-06-29 10:19:08.375000,96.78,74.17
181005,2018-06-29 10:19:08.406250,86.6,74.17
181006,2018-06-29 10:19:08.437500,77.0,74.17
181007,2018-06-29 10:19:08.468750,69.15,74.17
181008,2018-06-29 10:19:08.500000,62.64,74.17
181009,2018-06-29 10:19:08.531250,57.2,73.93
181010,2018-06-29 10:19:08.562500,54.04,73.93
181011,2018-06-29 10:19:08.593750,52.02,73.93
181012,2018-06-29 10:19:08.625000,46.72,73.93
181013,2018-06-29 10:19:08.656250,36.89,73.93
181014,2018-06-29 10:19:08.687500,26.96,73.93
181015,2018-06-29 10:19:08.718750,19.43,73.93
181016,2018-06-29 10:19:08.750000,10.28,73.93
181017,2018-06-29 10:19:08.781250,-5.59,73.93
181018,2018-06-29 10:19:08.812500,-27.73,73.93
181019,2018-06-29 10:19:08.843750,-47.27,73.93
181020,2018-06-29 10:19:08.875000,-51.46,73.93
181021,2018-06-29 10:19:08.906250,-37.07,73.93
181022,2018-06-29 10:19:08.937500,-14.93,73.93
181023,2018-06-29 10:19:08.968750,4.38,73.93
181024,2018-06-29 10:19:09.000000,20.98,73.93
181025,2018-06-29 10:19:09.031250,36.19,73.93
181026,2018-06-29 10:19:09.062500,43.02,73.93
181027,2018-06-29 10:19:09.093750,32.59,73.93
181028,2018-06-29 10:19:09.125000,4.47,73.93
181029,2018-06-29 10:19:09.156250,-31.56,73.93
181030,2018-06-29 10:19:09.187500,-60.87,73.93
181031,2018-06-29 10:19:09.218750,-70.46,73.93
181032,2018-06-29 10:19:09.250000,-56.25,73.93
181033,2018-06-29 10:19:09.281250,-28.67,73.93
181034,2018-06-29 10:19:09.312500,-5.59,73.93
181035,2018-06-29 10:19:09.343750,4.67,73.93
181036,2018-06-29 10:19:09.375000,8.56,73.93
181037,2018-06-29 10:19:09.406250,15.01,73.93
181038,2018-06-29 10:19:09.437500,24.42,73.93
181039,2018-06-29 10:19:09.468750,31.17,73.93
181040,2018-06-29 10:19:09.500000,31.57,73.93
181041,2018-06-29 10:19:09.531250,26.53,73.68
181042,2018-06-29 10:19:09.562500,16.58,73.68
181043,2018-06-29 10:19:09.593750,-3.26,73.68
181044,2018-06-29 10:19:09.625000,-39.07,73.68
181045,2018-06-29 10:19:09.656250,-87.11,73.68
181046,2018-06-29 10:19:09.687500,-128.43,73.68
181047,2018-06-29 10:19:09.718750,-137.1,73.68
181048,2018-06-29 10:19:09.750000,-99.8,73.68
181049,2018-06-29 10:19:09.781250,-29.3,73.68
181050,2018-06-29 10:19:09.812500,45.35,73.68
181051,2018-06-29 10:19:09.843750,102.19,73.68
181052,2018-06-29 10:19:09.875000,135.91,73.68
181053,2018-06-29 10:19:09.906250,150.33,73.68
181054,2018-06-29 10:19:09.937500,151.98,73.68
181055,2018-06-29 10:19:09.968750,149.22,73.68
181056,2018-06-29 10:19:10.000000,147.62,73.68
181057,2018-06-29 10:19:10.031250,145.04,73.68
181058,2018-06-29 10:19:10.062500,137.22,73.68
181059,2018-06-29 10:19:10.093750,125.18,73.68
181060,2018-06-29 10:19:10.125000,110.03,73.68
181061,2018-06-29 10:19:10.156250,85.3,73.68
181062,2018-06-29 10:19:10.187500,43.66,73.68
181063,2018-06-29 10:19:10.218750,-11.26,73.68
181064,2018-06-29 10:19:10.250000,-68.34,73.68
181065,2018-06-29 10:19:10.281250,-122.22,73.68
181066,2018-06-29 10:19:10.312500,-175.86,73.68
181067,2018-06-29 10:19:10.343750,-230.99,73.68
181068,2018-06-29 10:19:10.375000,-281.57,73.68
181069,2018-06-29 10:19:10.406250,-317.27,73.68
181070,2018-06-29 10:19:10.437500,-329.39,73.68
181071,2018-06-29 10:19:10.468750,-312.48,73.68
181072,2018-06-29 10:19:10.500000,-265.24,73.68
181073,2018-06-29 10:19:10.531250,-193.73,73.43
181074,2018-06-29 10:19:10.562500,-111.65,73.43
181075,2018-06-29 10:19:10.593750,-32.51,73.43
181076,2018-06-29 10:19:10.625000,36.54,73.43
181077,2018-06-29 10:19:10.656250,91.55,73.43
181078,2018-06-29 10:19:10.687500,128.42,73.43
181079,2018-06-29 10:19:10.718750,145.36,73.43
181080,2018-06-29 10:19:10.750000,145.8,73.43
181081,2018-06-29 10:19:10.781250,136.86,73.43
181082,2018-06-29 10:19:10.812500,124.75,73.43
181083,2018-06-29 10:19:10.843750,111.61,73.43
181084,2018-06-29 10:19:10.875000,98.11,73.43
181085,2018-06-29 10:19:10.906250,86.75,73.43
181086,2018-06-29 10:19:10.937500,78.73,73.43
181087,2018-06-29 10:19:10.968750,70.79,73.43
181088,2018-06-29 10:19:11.000000,59.53,73.43
181089,2018-06-29 10:19:11.031250,45.35,73.43
181090,2018-06-29 10:19:11.062500,29.43,73.43
181091,2018-06-29 10:19:11.093750,10.67,73.43
181092,2018-06-29 10:19:11.125000,-12.63,73.43
181093,2018-06-29 10:19:11.156250,-41.56,73.43
181094,2018-06-29 10:19:11.187500,-76.88,73.43
181095,2018-06-29 10:19:11.218750,-114.59,73.43
181096,2018-06-29 10:19:11.250000,-140.69,73.43
181097,2018-06-29 10:19:11.281250,-136.82,73.43
181098,2018-06-29 10:19:11.312500,-94.94,73.43
181099,2018-06-29 10:19:11.343750,-24.86,73.43
181100,2018-06-29 10:19:11.375000,52.62,73.43
181101,2018-06-29 10:19:11.406250,120.57,73.43
181102,2018-06-29 10:19:11.437500,174.7,73.43
181103,2018-06-29 10:19:11.468750,218.46,73.43
181104,2018-06-29 10:19:11.500000,255.61,73.43
181105,2018-06-29 10:19:11.531250,289.33,73.18
181106,2018-06-29 10:19:11.562500,320.03,73.18
181107,2018-06-29 10:19:11.593750,341.54,73.18
181108,2018-06-29 10:19:11.625000,347.45,73.18
181109,2018-06-29 10:19:11.656250,339.1,73.18
181110,2018-06-29 10:19:11.687500,322.03,73.18
181111,2018-06-29 10:19:11.718750,299.59,73.18
181112,2018-06-29 10:19:11.750000,273.38,73.18
181113,2018-06-29 10:19:11.781250,244.86,73.18
181114,2018-06-29 10:19:11.812500,214.3,73.18
181115,2018-06-29 10:19:11.843750,180.56,73.18
181116,2018-06-29 10:19:11.875000,142.9,73.18
181117,2018-06-29 10:19:11.906250,102.99,73.18
181118,2018-06-29 10:19:11.937500,64.57,73.18
181119,2018-06-29 10:19:11.968750,30.19,73.18
181120,2018-06-29 10:19:12.000000,0.2,73.18
181121,2018-06-29 10:19:12.031250,-25.31,73.18
181122,2018-06-29 10:19:12.062500,-45.95,73.18
181123,2018-06-29 10:19:12.093750,-62.59,73.18
181124,2018-06-29 10:19:12.125000,-77.07,73.18
181125,2018-06-29 10:19:12.156250,-90.33,73.18
181126,2018-06-29 10:19:12.187500,-102.22,73.18
181127,2018-06-29 10:19:12.218750,-113.35,73.18
181128,2018-06-29 10:19:12.250000,-125.48,73.18
181129,2018-06-29 10:19:12.281250,-139.66,73.18
181130,2018-06-29 10:19:12.312500,-155.57,73.18
181131,2018-06-29 10:19:12.343750,-173.76,73.18
181132,2018-06-29 10:19:12.375000,-196.99,73.18
181133,2018-06-29 10:19:12.406250,-227.74,73.18
181134,2018-06-29 10:19:12.437500,-265.53,73.18
181135,2018-06-29 10:19:12.468750,-309.0,73.18
181136,2018-06-29 10:19:12.500000,-358.59,73.18
181137,2018-06-29 10:19:12.531250,-415.17,72.92
181138,2018-06-29 10:19:12.562500,-479.47,72.92
181139,2018-06-29 10:19:12.593750,-552.45,72.92
181140,2018-06-29 10:19:12.625000,-626.72,72.92
181141,2018-06-29 10:19:12.656250,-681.32,72.92
181142,2018-06-29 10:19:12.687500,-695.85,72.92
181143,2018-06-29 10:19:12.718750,-661.57,72.92
181144,2018-06-29 10:19:12.750000,-576.74,72.92
181145,2018-06-29 10:19:12.781250,-449.86,72.92
181146,2018-06-29 10:19:12.812500,-305.87,72.92
181147,2018-06-29 10:19:12.843750,-169.13,72.92
181148,2018-06-29 10:19:12.875000,-45.9,72.92
181149,2018-06-29 10:19:12.906250,65.51,72.92
181150,2018-06-29 10:19:12.937500,163.31,72.92
181151,2018-06-29 10:19:12.968750,244.94,72.92
181152,2018-06-29 10:19:13.000000,306.08,72.92
181153,2018-06-29 10:19:13.031250,339.55,72.92
181154,2018-06-29 10:19:13.062500,344.29,72.92
181155,2018-06-29 10:19:13.093750,329.56,72.92
181156,2018-06-29 10:19:13.125000,307.83,72.92
181157,2018-06-29 10:19:13.156250,289.32,72.92
181158,2018-06-29 10:19:13.187500,277.8,72.92
181159,2018-06-29 10:19:13.218750,263.53,72.92
181160,2018-06-29 10:19:13.250000,231.39,72.92
181161,2018-06-29 10:19:13.281250,184.77,72.92
181162,2018-06-29 10:19:13.312500,146.71,72.92
181163,2018-06-29 10:19:13.343750,127.54,72.92
181164,2018-06-29 10:19:13.375000,111.02,72.92
181165,2018-06-29 10:19:13.406250,85.3,72.92
181166,2018-06-29 10:19:13.437500,61.91,72.92
181167,2018-06-29 10:19:13.468750,50.26,72.92
181168,2018-06-29 10:19:13.500000,38.26,72.92
181169,2018-06-29 10:19:13.531250,13.83,72.68
181170,2018-06-29 10:19:13.562500,-17.09,72.68
181171,2018-06-29 10:19:13.593750,-47.02,72.68
181172,2018-06-29 10:19:13.625000,-77.76,72.68
181173,2018-06-29 10:19:13.656250,-110.02,72.68
181174,2018-06-29 10:19:13.687500,-140.49,72.68
181175,2018-06-29 10:19:13.718750,-166.67,72.68
181176,2018-06-29 10:19:13.750000,-172.82,72.68
181177,2018-06-29 10:19:13.781250,-127.25,72.68
181178,2018-06-29 10:19:13.812500,-30.3,72.68
181179,2018-06-29 10:19:13.843750,64.64,72.68
181180,2018-06-29 10:19:13.875000,103.74,72.68
181181,2018-06-29 10:19:13.906250,84.82,72.68
181182,2018-06-29 10:19:13.937500,35.65,72.68
181183,2018-06-29 10:19:13.968750,-17.81,72.68
181184,2018-06-29 10:19:14.000000,-51.17,72.68
181185,2018-06-29 10:19:14.031250,-51.74,72.68
181186,2018-06-29 10:19:14.062500,-37.9,72.68
181187,2018-06-29 10:19:14.093750,-49.59,72.68
181188,2018-06-29 10:19:14.125000,-84.43,72.68
181189,2018-06-29 10:19:14.156250,-108.87,72.68
181190,2018-06-29 10:19:14.187500,-107.59,72.68
181191,2018-06-29 10:19:14.218750,-120.52,72.68
181192,2018-06-29 10:19:14.250000,-178.84,72.68
181193,2018-06-29 10:19:14.281250,-252.97,72.68
181194,2018-06-29 10:19:14.312500,-309.68,72.68
181195,2018-06-29 10:19:14.343750,-351.08,72.68
181196,2018-06-29 10:19:14.375000,-412.88,72.68
181197,2018-06-29 10:19:14.406250,-461.91,72.68
181198,2018-06-29 10:19:14.437500,-463.41,72.68
181199,2018-06-29 10:19:14.468750,-421.25,72.68
181200,2018-06-29 10:19:14.500000,-381.84,72.68
181201,2018-06-29 10:19:14.531250,-356.12,72.47
181202,2018-06-29 10:19:14.562500,-309.17,72.47
181203,2018-06-29 10:19:14.593750,-251.06,72.47
181204,2018-06-29 10:19:14.625000,-37.94,72.47
181205,2018-06-29 10:19:14.656250,265.71,72.47
181206,2018-06-29 10:19:14.687500,419.56,72.47
181207,2018-06-29 10:19:14.718750,440.57,72.47
181208,2018-06-29 10:19:14.750000,399.71,72.47
181209,2018-06-29 10:19:14.781250,310.98,72.47
181210,2018-06-29 10:19:14.812500,205.01,72.47
181211,2018-06-29 10:19:14.843750,145.8,72.47
181212,2018-06-29 10:19:14.875000,138.62,72.47
181213,2018-06-29 10:19:14.906250,156.96,72.47
181214,2018-06-29 10:19:14.937500,156.7,72.47
181215,2018-06-29 10:19:14.968750,157.87,72.47
181216,2018-06-29 10:19:15.000000,177.99,72.47
181217,2018-06-29 10:19:15.031250,208.7,72.47
181218,2018-06-29 10:19:15.062500,229.43,72.47
181219,2018-06-29 10:19:15.093750,243.25,72.47
181220,2018-06-29 10:19:15.125000,271.62,72.47
181221,2018-06-29 10:19:15.156250,304.94,72.47
181222,2018-06-29 10:19:15.187500,322.91,72.47
181223,2018-06-29 10:19:15.218750,315.58,72.47
181224,2018-06-29 10:19:15.250000,301.87,72.47
181225,2018-06-29 10:19:15.281250,291.14,72.47
181226,2018-06-29 10:19:15.312500,276.09,72.47
181227,2018-06-29 10:19:15.343750,251.02,72.47
181228,2018-06-29 10:19:15.375000,220.98,72.47
181229,2018-06-29 10:19:15.406250,191.52,72.47
181230,2018-06-29 10:19:15.437500,156.18,72.47
181231,2018-06-29 10:19:15.468750,104.66,72.47
181232,2018-06-29 10:19:15.500000,32.82,72.47
181233,2018-06-29 10:19:15.531250,-51.35,72.22
181234,2018-06-29 10:19:15.562500,-128.18,72.22
181235,2018-06-29 10:19:15.593750,-176.86,72.22
181236,2018-06-29 10:19:15.625000,-190.91,72.22
181237,2018-06-29 10:19:15.656250,-179.68,72.22
181238,2018-06-29 10:19:15.687500,-153.93,72.22
181239,2018-06-29 10:19:15.718750,-119.27,72.22
181240,2018-06-29 10:19:15.750000,-84.07,72.22
181241,2018-06-29 10:19:15.781250,-58.79,72.22
181242,2018-06-29 10:19:15.812500,-45.81,72.22
181243,2018-06-29 10:19:15.843750,-39.22,72.22
181244,2018-06-29 10:19:15.875000,-33.41,72.22
181245,2018-06-29 10:19:15.906250,-25.15,72.22
181246,2018-06-29 10:19:15.937500,-12.16,72.22
181247,2018-06-29 10:19:15.968750,5.05,72.22
181248,2018-06-29 10:19:16.000000,21.71,72.22
181249,2018-06-29 10:19:16.031250,30.61,72.22
181250,2018-06-29 10:19:16.062500,27.33,72.22
181251,2018-06-29 10:19:16.093750,14.8,72.22
181252,2018-06-29 10:19:16.125000,-0.11,72.22
181253,2018-06-29 10:19:16.156250,-14.94,72.22
181254,2018-06-29 10:19:16.187500,-32.71,72.22
181255,2018-06-29 10:19:16.218750,-54.98,72.22
181256,2018-06-29 10:19:16.250000,-78.63,72.22
181257,2018-06-29 10:19:16.281250,-100.14,72.22
181258,2018-06-29 10:19:16.312500,-119.8,72.22
181259,2018-06-29 10:19:16.343750,-138.88,72.22
181260,2018-06-29 10:19:16.375000,-151.6,72.22
181261,2018-06-29 10:19:16.406250,-144.3,72.22
181262,2018-06-29 10:19:16.437500,-108.23,72.22
181263,2018-06-29 10:19:16.468750,-50.86,72.22
181264,2018-06-29 10:19:16.500000,10.7,72.22
181265,2018-06-29 10:19:16.531250,63.31,71.97
181266,2018-06-29 10:19:16.562500,101.22,71.97
181267,2018-06-29 10:19:16.593750,122.67,71.97
181268,2018-06-29 10:19:16.625000,128.54,71.97
181269,2018-06-29 10:19:16.656250,123.33,71.97
181270,2018-06-29 10:19:16.687500,114.31,71.97
181271,2018-06-29 10:19:16.718750,107.36,71.97
181272,2018-06-29 10:19:16.750000,103.2,71.97
181273,2018-06-29 10:19:16.781250,98.99,71.97
181274,2018-06-29 10:19:16.812500,92.08,71.97
181275,2018-06-29 10:19:16.843750,81.33,71.97
181276,2018-06-29 10:19:16.875000,67.08,71.97
181277,2018-06-29 10:19:16.906250,50.78,71.97
181278,2018-06-29 10:19:16.937500,32.79,71.97
181279,2018-06-29 10:19:16.968750,12.11,71.97
181280,2018-06-29 10:19:17.000000,-10.89,71.97
181281,2018-06-29 10:19:17.031250,-33.72,71.97
181282,2018-06-29 10:19:17.062500,-54.42,71.97
181283,2018-06-29 10:19:17.093750,-72.74,71.97
181284,2018-06-29 10:19:17.125000,-88.06,71.97
181285,2018-06-29 10:19:17.156250,-99.74,71.97
181286,2018-06-29 10:19:17.187500,-109.86,71.97
181287,2018-06-29 10:19:17.218750,-123.02,71.97
181288,2018-06-29 10:19:17.250000,-141.58,71.97
181289,2018-06-29 10:19:17.281250,-158.51,71.97
181290,2018-06-29 10:19:17.312500,-157.36,71.97
181291,2018-06-29 10:19:17.343750,-126.9,71.97
181292,2018-06-29 10:19:17.375000,-75.08,71.97
181293,2018-06-29 10:19:17.406250,-20.13,71.97
181294,2018-06-29 10:19:17.437500,27.47,71.97
181295,2018-06-29 10:19:17.468750,65.79,71.97
181296,2018-06-29 10:19:17.500000,92.52,71.97
181297,2018-06-29 10:19:17.531250,105.98,71.73
181298,2018-06-29 10:19:17.562500,109.64,71.73
181299,2018-06-29 10:19:17.593750,109.68,71.73
181300,2018-06-29 10:19:17.625000,109.85,71.73
181301,2018-06-29 10:19:17.656250,109.89,71.73
181302,2018-06-29 10:19:17.687500,108.15,71.73
181303,2018-06-29 10:19:17.718750,104.6,71.73
181304,2018-06-29 10:19:17.750000,99.57,71.73
181305,2018-06-29 10:19:17.781250,91.3,71.73
181306,2018-06-29 10:19:17.812500,78.4,71.73
181307,2018-06-29 10:19:17.843750,62.84,71.73
181308,2018-06-29 10:19:17.875000,47.56,71.73
181309,2018-06-29 10:19:17.906250,33.13,71.73
181310,2018-06-29 10:19:17.937500,18.13,71.73
181311,2018-06-29 10:19:17.968750,1.74,71.73
181312,2018-06-29 10:19:18.000000,-14.8,71.73
181313,2018-06-29 10:19:18.031250,-29.69,71.73
181314,2018-06-29 10:19:18.062500,-43.58,71.73
181315,2018-06-29 10:19:18.093750,-59.93,71.73
181316,2018-06-29 10:19:18.125000,-81.42,71.73
181317,2018-06-29 10:19:18.156250,-105.21,71.73
181318,2018-06-29 10:19:18.187500,-119.84,71.73
181319,2018-06-29 10:19:18.218750,-111.28,71.73
181320,2018-06-29 10:19:18.250000,-77.87,71.73
181321,2018-06-29 10:19:18.281250,-34.22,71.73
181322,2018-06-29 10:19:18.312500,4.15,71.73
181323,2018-06-29 10:19:18.343750,32.87,71.73
181324,2018-06-29 10:19:18.375000,52.94,71.73
181325,2018-06-29 10:19:18.406250,63.71,71.73
181326,2018-06-29 10:19:18.437500,65.61,71.73
181327,2018-06-29 10:19:18.468750,63.42,71.73
181328,2018-06-29 10:19:18.500000,61.93,71.73
181329,2018-06-29 10:19:18.531250,61.81,71.5
181330,2018-06-29 10:19:18.562500,61.94,71.5
181331,2018-06-29 10:19:18.593750,61.87,71.5
181332,2018-06-29 10:19:18.625000,59.67,71.5
181333,2018-06-29 10:19:18.656250,51.77,71.5
181334,2018-06-29 10:19:18.687500,38.22,71.5
181335,2018-06-29 10:19:18.718750,23.91,71.5
181336,2018-06-29 10:19:18.750000,12.19,71.5
181337,2018-06-29 10:19:18.781250,0.8,71.5
181338,2018-06-29 10:19:18.812500,-13.89,71.5
181339,2018-06-29 10:19:18.843750,-31.32,71.5
181340,2018-06-29 10:19:18.875000,-48.18,71.5
181341,2018-06-29 10:19:18.906250,-63.64,71.5
181342,2018-06-29 10:19:18.937500,-80.78,71.5
181343,2018-06-29 10:19:18.968750,-101.09,71.5
181344,2018-06-29 10:19:19.000000,-117.31,71.5
181345,2018-06-29 10:19:19.031250,-115.54,71.5
181346,2018-06-29 10:19:19.062500,-89.76,71.5
181347,2018-06-29 10:19:19.093750,-50.4,71.5
181348,2018-06-29 10:19:19.125000,-13.0,71.5
181349,2018-06-29 10:19:19.156250,16.06,71.5
181350,2018-06-29 10:19:19.187500,37.38,71.5
181351,2018-06-29 10:19:19.218750,50.32,71.5
181352,2018-06-29 10:19:19.250000,54.34,71.5
181353,2018-06-29 10:19:19.281250,52.8,71.5
181354,2018-06-29 10:19:19.312500,50.23,71.5
181355,2018-06-29 10:19:19.343750,48.42,71.5
181356,2018-06-29 10:19:19.375000,47.1,71.5
181357,2018-06-29 10:19:19.406250,45.75,71.5
181358,2018-06-29 10:19:19.437500,43.2,71.5
181359,2018-06-29 10:19:19.468750,38.15,71.5
181360,2018-06-29 10:19:19.500000,30.78,71.5
181361,2018-06-29 10:19:19.531250,21.98,71.28
181362,2018-06-29 10:19:19.562500,11.74,71.28
181363,2018-06-29 10:19:19.593750,-0.15,71.28
181364,2018-06-29 10:19:19.625000,-12.61,71.28
181365,2018-06-29 10:19:19.656250,-24.13,71.28
181366,2018-06-29 10:19:19.687500,-35.01,71.28
181367,2018-06-29 10:19:19.718750,-48.03,71.28
181368,2018-06-29 10:19:19.750000,-65.84,71.28
181369,2018-06-29 10:19:19.781250,-85.11,71.28
181370,2018-06-29 10:19:19.812500,-94.38,71.28
181371,2018-06-29 10:19:19.843750,-83.11,71.28
181372,2018-06-29 10:19:19.875000,-53.51,71.28
181373,2018-06-29 10:19:19.906250,-18.37,71.28
181374,2018-06-29 10:19:19.937500,11.91,71.28
181375,2018-06-29 10:19:19.968750,34.89,71.28
181376,2018-06-29 10:19:20.000000,51.01,71.28
181377,2018-06-29 10:19:20.031250,59.84,71.28
181378,2018-06-29 10:19:20.062500,61.82,71.28
181379,2018-06-29 10:19:20.093750,59.92,71.28
181380,2018-06-29 10:19:20.125000,58.08,71.28
181381,2018-06-29 10:19:20.156250,57.79,71.28
181382,2018-06-29 10:19:20.187500,57.4,71.28
181383,2018-06-29 10:19:20.218750,54.86,71.28
181384,2018-06-29 10:19:20.250000,49.19,71.28
181385,2018-06-29 10:19:20.281250,39.93,71.28
181386,2018-06-29 10:19:20.312500,27.53,71.28
181387,2018-06-29 10:19:20.343750,13.37,71.28
181388,2018-06-29 10:19:20.375000,-2.04,71.28
181389,2018-06-29 10:19:20.406250,-18.89,71.28
181390,2018-06-29 10:19:20.437500,-35.23,71.28
181391,2018-06-29 10:19:20.468750,-48.01,71.28
181392,2018-06-29 10:19:20.500000,-57.43,71.28
181393,2018-06-29 10:19:20.531250,-67.4,71.12
181394,2018-06-29 10:19:20.562500,-80.62,71.12
181395,2018-06-29 10:19:20.593750,-92.15,71.12
181396,2018-06-29 10:19:20.625000,-89.65,71.12
181397,2018-06-29 10:19:20.656250,-65.9,71.12
181398,2018-06-29 10:19:20.687500,-29.53,71.12
181399,2018-06-29 10:19:20.718750,3.39,71.12
181400,2018-06-29 10:19:20.750000,25.57,71.12
181401,2018-06-29 10:19:20.781250,39.22,71.12
181402,2018-06-29 10:19:20.812500,45.75,71.12
181403,2018-06-29 10:19:20.843750,44.1,71.12
181404,2018-06-29 10:19:20.875000,37.19,71.12
181405,2018-06-29 10:19:20.906250,31.61,71.12
181406,2018-06-29 10:19:20.937500,30.03,71.12
181407,2018-06-29 10:19:20.968750,29.07,71.12
181408,2018-06-29 10:19:21.000000,25.6,71.12
181409,2018-06-29 10:19:21.031250,19.85,71.12
181410,2018-06-29 10:19:21.062500,12.14,71.12
181411,2018-06-29 10:19:21.093750,1.51,71.12
181412,2018-06-29 10:19:21.125000,-11.99,71.12
181413,2018-06-29 10:19:21.156250,-26.98,71.12
181414,2018-06-29 10:19:21.187500,-42.84,71.12
181415,2018-06-29 10:19:21.218750,-60.06,71.12
181416,2018-06-29 10:19:21.250000,-78.46,71.12
181417,2018-06-29 10:19:21.281250,-97.46,71.12
181418,2018-06-29 10:19:21.312500,-117.11,71.12
181419,2018-06-29 10:19:21.343750,-134.47,71.12
181420,2018-06-29 10:19:21.375000,-140.32,71.12
181421,2018-06-29 10:19:21.406250,-127.65,71.12
181422,2018-06-29 10:19:21.437500,-101.68,71.12
181423,2018-06-29 10:19:21.468750,-73.07,71.12
181424,2018-06-29 10:19:21.500000,-45.89,71.12
181425,2018-06-29 10:19:21.531250,-20.05,71.0
181426,2018-06-29 10:19:21.562500,1.42,71.0
181427,2018-06-29 10:19:21.593750,15.23,71.0
181428,2018-06-29 10:19:21.625000,21.7,71.0
181429,2018-06-29 10:19:21.656250,22.4,71.0
181430,2018-06-29 10:19:21.687500,18.66,71.0
181431,2018-06-29 10:19:21.718750,13.46,71.0
181432,2018-06-29 10:19:21.750000,11.14,71.0
181433,2018-06-29 10:19:21.781250,13.12,71.0
181434,2018-06-29 10:19:21.812500,16.47,71.0
181435,2018-06-29 10:19:21.843750,18.4,71.0
181436,2018-06-29 10:19:21.875000,18.94,71.0
181437,2018-06-29 10:19:21.906250,18.57,71.0
181438,2018-06-29 10:19:21.937500,17.19,71.0
181439,2018-06-29 10:19:21.968750,16.28,71.0
181440,2018-06-29 10:19:22.000000,16.88,71.0
181441,2018-06-29 10:19:22.031250,15.9,71.0
181442,2018-06-29 10:19:22.062500,9.62,71.0
181443,2018-06-29 10:19:22.093750,0.62,71.0
181444,2018-06-29 10:19:22.125000,-3.34,71.0
181445,2018-06-29 10:19:22.156250,2.68,71.0
181446,2018-06-29 10:19:22.187500,16.63,71.0
181447,2018-06-29 10:19:22.218750,31.44,71.0
181448,2018-06-29 10:19:22.250000,40.1,71.0
181449,2018-06-29 10:19:22.281250,41.35,71.0
181450,2018-06-29 10:19:22.312500,40.86,71.0
181451,2018-06-29 10:19:22.343750,45.13,71.0
181452,2018-06-29 10:19:22.375000,56.14,71.0
181453,2018-06-29 10:19:22.406250,72.57,71.0
181454,2018-06-29 10:19:22.437500,91.71,71.0
181455,2018-06-29 10:19:22.468750,109.57,71.0
181456,2018-06-29 10:19:22.500000,122.91,71.0
181457,2018-06-29 10:19:22.531250,130.02,70.92
181458,2018-06-29 10:19:22.562500,128.14,70.92
181459,2018-06-29 10:19:22.593750,113.62,70.92
181460,2018-06-29 10:19:22.625000,86.86,70.92
181461,2018-06-29 10:19:22.656250,52.84,70.92
181462,2018-06-29 10:19:22.687500,15.57,70.92
181463,2018-06-29 10:19:22.718750,-24.26,70.92
181464,2018-06-29 10:19:22.750000,-66.42,70.92
181465,2018-06-29 10:19:22.781250,-108.8,70.92
181466,2018-06-29 10:19:22.812500,-145.56,70.92
181467,2018-06-29 10:19:22.843750,-165.08,70.92
181468,2018-06-29 10:19:22.875000,-155.28,70.92
181469,2018-06-29 10:19:22.906250,-115.52,70.92
181470,2018-06-29 10:19:22.937500,-58.93,70.92
181471,2018-06-29 10:19:22.968750,-1.21,70.92
181472,2018-06-29 10:19:23.000000,47.76,70.92
181473,2018-06-29 10:19:23.031250,82.14,70.92
181474,2018-06-29 10:19:23.062500,99.16,70.92
181475,2018-06-29 10:19:23.093750,102.04,70.92
181476,2018-06-29 10:19:23.125000,98.21,70.92
181477,2018-06-29 10:19:23.156250,92.55,70.92
181478,2018-06-29 10:19:23.187500,85.23,70.92
181479,2018-06-29 10:19:23.218750,75.54,70.92
181480,2018-06-29 10:19:23.250000,64.57,70.92
181481,2018-06-29 10:19:23.281250,53.29,70.92
181482,2018-06-29 10:19:23.312500,41.34,70.92
181483,2018-06-29 10:19:23.343750,29.12,70.92
181484,2018-06-29 10:19:23.375000,18.84,70.92
181485,2018-06-29 10:19:23.406250,12.2,70.92
181486,2018-06-29 10:19:23.437500,7.78,70.92
181487,2018-06-29 10:19:23.468750,1.3,70.92
181488,2018-06-29 10:19:23.500000,-11.42,70.92
181489,2018-06-29 10:19:23.531250,-31.82,70.88
181490,2018-06-29 10:19:23.562500,-55.87,70.88
181491,2018-06-29 10:19:23.593750,-73.33,70.88
181492,2018-06-29 10:19:23.625000,-75.21,70.88
181493,2018-06-29 10:19:23.656250,-63.25,70.88
181494,2018-06-29 10:19:23.687500,-46.57,70.88
181495,2018-06-29 10:19:23.718750,-30.24,70.88
181496,2018-06-29 10:19:23.750000,-14.45,70.88
181497,2018-06-29 10:19:23.781250,-0.97,70.88
181498,2018-06-29 10:19:23.812500,8.48,70.88
181499,2018-06-29 10:19:23.843750,17.79,70.88
181500,2018-06-29 10:19:23.875000,32.37,70.88
181501,2018-06-29 10:19:23.906250,50.48,70.88
181502,2018-06-29 10:19:23.937500,63.56,70.88
181503,2018-06-29 10:19:23.968750,65.32,70.88
181504,2018-06-29 10:19:24.000000,56.56,70.88
181505,2018-06-29 10:19:24.031250,41.76,70.88
181506,2018-06-29 10:19:24.062500,24.54,70.88
181507,2018-06-29 10:19:24.093750,7.07,70.88
181508,2018-06-29 10:19:24.125000,-8.77,70.88
181509,2018-06-29 10:19:24.156250,-22.52,70.88
181510,2018-06-29 10:19:24.187500,-36.28,70.88
181511,2018-06-29 10:19:24.218750,-52.03,70.88
181512,2018-06-29 10:19:24.250000,-69.46,70.88
181513,2018-06-29 10:19:24.281250,-87.23,70.88
181514,2018-06-29 10:19:24.312500,-102.04,70.88
181515,2018-06-29 10:19:24.343750,-106.07,70.88
181516,2018-06-29 10:19:24.375000,-92.72,70.88
181517,2018-06-29 10:19:24.406250,-64.63,70.88
181518,2018-06-29 10:19:24.437500,-30.88,70.88
181519,2018-06-29 10:19:24.468750,0.65,70.88
181520,2018-06-29 10:19:24.500000,24.87,70.88
181521,2018-06-29 10:19:24.531250,39.65,71.02
181522,2018-06-29 10:19:24.562500,47.23,71.02
181523,2018-06-29 10:19:24.593750,51.79,71.02
181524,2018-06-29 10:19:24.625000,55.23,71.02
181525,2018-06-29 10:19:24.656250,57.06,71.02
181526,2018-06-29 10:19:24.687500,56.59,71.02
181527,2018-06-29 10:19:24.718750,53.89,71.02
181528,2018-06-29 10:19:24.750000,49.57,71.02
181529,2018-06-29 10:19:24.781250,43.79,71.02
181530,2018-06-29 10:19:24.812500,35.82,71.02
181531,2018-06-29 10:19:24.843750,25.1,71.02
181532,2018-06-29 10:19:24.875000,12.81,71.02
181533,2018-06-29 10:19:24.906250,0.92,71.02
181534,2018-06-29 10:19:24.937500,-10.49,71.02
181535,2018-06-29 10:19:24.968750,-23.02,71.02
181536,2018-06-29 10:19:25.000000,-37.73,71.02
181537,2018-06-29 10:19:25.031250,-53.94,71.02
181538,2018-06-29 10:19:25.062500,-67.56,71.02
181539,2018-06-29 10:19:25.093750,-70.66,71.02
181540,2018-06-29 10:19:25.125000,-58.16,71.02
181541,2018-06-29 10:19:25.156250,-34.99,71.02
181542,2018-06-29 10:19:25.187500,-11.25,71.02
181543,2018-06-29 10:19:25.218750,7.52,71.02
181544,2018-06-29 10:19:25.250000,20.75,71.02
181545,2018-06-29 10:19:25.281250,27.96,71.02
181546,2018-06-29 10:19:25.312500,29.18,71.02
181547,2018-06-29 10:19:25.343750,27.08,71.02
181548,2018-06-29 10:19:25.375000,24.89,71.02
181549,2018-06-29 10:19:25.406250,24.11,71.02
181550,2018-06-29 10:19:25.437500,24.79,71.02
181551,2018-06-29 10:19:25.468750,26.23,71.02
181552,2018-06-29 10:19:25.500000,27.06,71.02
181553,2018-06-29 10:19:25.531250,25.7,71.15
181554,2018-06-29 10:19:25.562500,21.53,71.15
181555,2018-06-29 10:19:25.593750,15.52,71.15
181556,2018-06-29 10:19:25.625000,9.1,71.15
181557,2018-06-29 10:19:25.656250,1.78,71.15
181558,2018-06-29 10:19:25.687500,-7.94,71.15
181559,2018-06-29 10:19:25.718750,-19.06,71.15
181560,2018-06-29 10:19:25.750000,-28.84,71.15
181561,2018-06-29 10:19:25.781250,-37.11,71.15
181562,2018-06-29 10:19:25.812500,-46.26,71.15
181563,2018-06-29 10:19:25.843750,-57.61,71.15
181564,2018-06-29 10:19:25.875000,-68.47,71.15
181565,2018-06-29 10:19:25.906250,-71.57,71.15
181566,2018-06-29 10:19:25.937500,-60.25,71.15
181567,2018-06-29 10:19:25.968750,-36.81,71.15
181568,2018-06-29 10:19:26.000000,-11.15,71.15
181569,2018-06-29 10:19:26.031250,9.75,71.15
181570,2018-06-29 10:19:26.062500,25.72,71.15
181571,2018-06-29 10:19:26.093750,37.61,71.15
181572,2018-06-29 10:19:26.125000,44.28,71.15
181573,2018-06-29 10:19:26.156250,45.72,71.15
181574,2018-06-29 10:19:26.187500,44.18,71.15
181575,2018-06-29 10:19:26.218750,41.52,71.15
181576,2018-06-29 10:19:26.250000,37.73,71.15
181577,2018-06-29 10:19:26.281250,32.78,71.15
181578,2018-06-29 10:19:26.312500,28.02,71.15
181579,2018-06-29 10:19:26.343750,24.56,71.15
181580,2018-06-29 10:19:26.375000,20.9,71.15
181581,2018-06-29 10:19:26.406250,14.38,71.15
181582,2018-06-29 10:19:26.437500,5.41,71.15
181583,2018-06-29 10:19:26.468750,-2.16,71.15
181584,2018-06-29 10:19:26.500000,-6.44,71.15
181585,2018-06-29 10:19:26.531250,-9.99,71.25
181586,2018-06-29 10:19:26.562500,-15.29,71.25
181587,2018-06-29 10:19:26.593750,-20.95,71.25
181588,2018-06-29 10:19:26.625000,-24.88,71.25
181589,2018-06-29 10:19:26.656250,-28.32,71.25
181590,2018-06-29 10:19:26.687500,-33.75,71.25
181591,2018-06-29 10:19:26.718750,-41.8,71.25
181592,2018-06-29 10:19:26.750000,-51.68,71.25
181593,2018-06-29 10:19:26.781250,-60.08,71.25
181594,2018-06-29 10:19:26.812500,-60.59,71.25
181595,2018-06-29 10:19:26.843750,-50.09,71.25
181596,2018-06-29 10:19:26.875000,-33.51,71.25
181597,2018-06-29 10:19:26.906250,-17.32,71.25
181598,2018-06-29 10:19:26.937500,-2.37,71.25
181599,2018-06-29 10:19:26.968750,12.43,71.25
181600,2018-06-29 10:19:27.000000,25.11,71.25
181601,2018-06-29 10:19:27.031250,33.47,71.25
181602,2018-06-29 10:19:27.062500,38.09,71.25
181603,2018-06-29 10:19:27.093750,40.42,71.25
181604,2018-06-29 10:19:27.125000,41.38,71.25
181605,2018-06-29 10:19:27.156250,42.3,71.25
181606,2018-06-29 10:19:27.187500,43.9,71.25
181607,2018-06-29 10:19:27.218750,44.44,71.25
181608,2018-06-29 10:19:27.250000,41.68,71.25
181609,2018-06-29 10:19:27.281250,35.75,71.25
181610,2018-06-29 10:19:27.312500,28.59,71.25
181611,2018-06-29 10:19:27.343750,21.73,71.25
181612,2018-06-29 10:19:27.375000,15.22,71.25
181613,2018-06-29 10:19:27.406250,8.53,71.25
181614,2018-06-29 10:19:27.437500,1.64,71.25
181615,2018-06-29 10:19:27.468750,-5.2,71.25
181616,2018-06-29 10:19:27.500000,-12.81,71.25
181617,2018-06-29 10:19:27.531250,-21.94,71.38
181618,2018-06-29 10:19:27.562500,-31.28,71.38
181619,2018-06-29 10:19:27.593750,-38.9,71.38
181620,2018-06-29 10:19:27.625000,-45.6,71.38
181621,2018-06-29 10:19:27.656250,-54.09,71.38
181622,2018-06-29 10:19:27.687500,-64.8,71.38
181623,2018-06-29 10:19:27.718750,-72.67,71.38
181624,2018-06-29 10:19:27.750000,-69.76,71.38
181625,2018-06-29 10:19:27.781250,-53.55,71.38
181626,2018-06-29 10:19:27.812500,-30.85,71.38
181627,2018-06-29 10:19:27.843750,-10.51,71.38
181628,2018-06-29 10:19:27.875000,4.28,71.38
181629,2018-06-29 10:19:27.906250,14.65,71.38
181630,2018-06-29 10:19:27.937500,21.39,71.38
181631,2018-06-29 10:19:27.968750,24.66,71.38
181632,2018-06-29 10:19:28.000000,25.72,71.38
181633,2018-06-29 10:19:28.031250,26.17,71.38
181634,2018-06-29 10:19:28.062500,26.18,71.38
181635,2018-06-29 10:19:28.093750,25.4,71.38
181636,2018-06-29 10:19:28.125000,24.57,71.38
181637,2018-06-29 10:19:28.156250,24.29,71.38
181638,2018-06-29 10:19:28.187500,22.83,71.38
181639,2018-06-29 10:19:28.218750,18.24,71.38
181640,2018-06-29 10:19:28.250000,11.72,71.38
181641,2018-06-29 10:19:28.281250,5.88,71.38
181642,2018-06-29 10:19:28.312500,0.19,71.38
181643,2018-06-29 10:19:28.343750,-7.81,71.38
181644,2018-06-29 10:19:28.375000,-17.74,71.38
181645,2018-06-29 10:19:28.406250,-26.89,71.38
181646,2018-06-29 10:19:28.437500,-34.55,71.38
181647,2018-06-29 10:19:28.468750,-42.61,71.38
181648,2018-06-29 10:19:28.500000,-52.35,71.38
181649,2018-06-29 10:19:28.531250,-61.1,71.5
181650,2018-06-29 10:19:28.562500,-62.24,71.5
181651,2018-06-29 10:19:28.593750,-50.96,71.5
181652,2018-06-29 10:19:28.625000,-30.37,71.5
181653,2018-06-29 10:19:28.656250,-8.87,71.5
181654,2018-06-29 10:19:28.687500,7.7,71.5
181655,2018-06-29 10:19:28.718750,18.47,71.5
181656,2018-06-29 10:19:28.750000,23.92,71.5
181657,2018-06-29 10:19:28.781250,24.2,71.5
181658,2018-06-29 10:19:28.812500,20.79,71.5
181659,2018-06-29 10:19:28.843750,17.08,71.5
181660,2018-06-29 10:19:28.875000,15.67,71.5
181661,2018-06-29 10:19:28.906250,15.97,71.5
181662,2018-06-29 10:19:28.937500,15.86,71.5
181663,2018-06-29 10:19:28.968750,14.63,71.5
181664,2018-06-29 10:19:29.000000,12.43,71.5
181665,2018-06-29 10:19:29.031250,8.58,71.5
181666,2018-06-29 10:19:29.062500,2.07,71.5
181667,2018-06-29 10:19:29.093750,-6.85,71.5
181668,2018-06-29 10:19:29.125000,-16.49,71.5
181669,2018-06-29 10:19:29.156250,-25.16,71.5
181670,2018-06-29 10:19:29.187500,-33.18,71.5
181671,2018-06-29 10:19:29.218750,-42.79,71.5
181672,2018-06-29 10:19:29.250000,-55.45,71.5
181673,2018-06-29 10:19:29.281250,-69.07,71.5
181674,2018-06-29 10:19:29.312500,-76.89,71.5
181675,2018-06-29 10:19:29.343750,-71.11,71.5
181676,2018-06-29 10:19:29.375000,-50.84,71.5
181677,2018-06-29 10:19:29.406250,-24.6,71.5
181678,2018-06-29 10:19:29.437500,-2.02,71.5
181679,2018-06-29 10:19:29.468750,14.25,71.5
181680,2018-06-29 10:19:29.500000,26.2,71.5
181681,2018-06-29 10:19:29.531250,34.94,71.55
181682,2018-06-29 10:19:29.562500,40.07,71.55
181683,2018-06-29 10:19:29.593750,41.78,71.55
181684,2018-06-29 10:19:29.625000,41.41,71.55
181685,2018-06-29 10:19:29.656250,40.69,71.55
181686,2018-06-29 10:19:29.687500,40.6,71.55
181687,2018-06-29 10:19:29.718750,40.17,71.55
181688,2018-06-29 10:19:29.750000,37.42,71.55
181689,2018-06-29 10:19:29.781250,31.77,71.55
181690,2018-06-29 10:19:29.812500,24.22,71.55
181691,2018-06-29 10:19:29.843750,15.27,71.55
181692,2018-06-29 10:19:29.875000,4.56,71.55
181693,2018-06-29 10:19:29.906250,-7.69,71.55
181694,2018-06-29 10:19:29.937500,-20.33,71.55
181695,2018-06-29 10:19:29.968750,-32.43,71.55
181696,2018-06-29 10:19:30.000000,-44.38,71.55
181697,2018-06-29 10:19:30.031250,-58.24,71.55
181698,2018-06-29 10:19:30.062500,-74.76,71.55
181699,2018-06-29 10:19:30.093750,-87.73,71.55
181700,2018-06-29 10:19:30.125000,-86.12,71.55
181701,2018-06-29 10:19:30.156250,-66.78,71.55
181702,2018-06-29 10:19:30.187500,-39.59,71.55
181703,2018-06-29 10:19:30.218750,-15.3,71.55
181704,2018-06-29 10:19:30.250000,4.32,71.55
181705,2018-06-29 10:19:30.281250,20.81,71.55
181706,2018-06-29 10:19:30.312500,32.47,71.55
181707,2018-06-29 10:19:30.343750,37.65,71.55
181708,2018-06-29 10:19:30.375000,38.0,71.55
181709,2018-06-29 10:19:30.406250,36.41,71.55
181710,2018-06-29 10:19:30.437500,35.35,71.55
181711,2018-06-29 10:19:30.468750,36.7,71.55
181712,2018-06-29 10:19:30.500000,40.11,71.55
181713,2018-06-29 10:19:30.531250,42.24,71.62
181714,2018-06-29 10:19:30.562500,40.01,71.62
181715,2018-06-29 10:19:30.593750,34.24,71.62
181716,2018-06-29 10:19:30.625000,27.7,71.62
181717,2018-06-29 10:19:30.656250,20.86,71.62
181718,2018-06-29 10:19:30.687500,11.88,71.62
181719,2018-06-29 10:19:30.718750,-0.2,71.62
181720,2018-06-29 10:19:30.750000,-14.07,71.62
181721,2018-06-29 10:19:30.781250,-27.9,71.62
181722,2018-06-29 10:19:30.812500,-41.59,71.62
181723,2018-06-29 10:19:30.843750,-56.5,71.62
181724,2018-06-29 10:19:30.875000,-72.11,71.62
181725,2018-06-29 10:19:30.906250,-81.92,71.62
181726,2018-06-29 10:19:30.937500,-76.38,71.62
181727,2018-06-29 10:19:30.968750,-53.11,71.62
181728,2018-06-29 10:19:31.000000,-21.17,71.62
181729,2018-06-29 10:19:31.031250,8.23,71.62
181730,2018-06-29 10:19:31.062500,31.65,71.62
181731,2018-06-29 10:19:31.093750,50.37,71.62
181732,2018-06-29 10:19:31.125000,63.32,71.62
181733,2018-06-29 10:19:31.156250,68.18,71.62
181734,2018-06-29 10:19:31.187500,66.14,71.62
181735,2018-06-29 10:19:31.218750,61.31,71.62
181736,2018-06-29 10:19:31.250000,56.81,71.62
181737,2018-06-29 10:19:31.281250,53.78,71.62
181738,2018-06-29 10:19:31.312500,52.62,71.62
181739,2018-06-29 10:19:31.343750,52.12,71.62
181740,2018-06-29 10:19:31.375000,48.93,71.62
181741,2018-06-29 10:19:31.406250,40.89,71.62
181742,2018-06-29 10:19:31.437500,29.94,71.62
181743,2018-06-29 10:19:31.468750,19.57,71.62
181744,2018-06-29 10:19:31.500000,10.53,71.62
181745,2018-06-29 10:19:31.531250,1.21,71.63
181746,2018-06-29 10:19:31.562500,-9.32,71.63
181747,2018-06-29 10:19:31.593750,-20.25,71.63
181748,2018-06-29 10:19:31.625000,-30.32,71.63
181749,2018-06-29 10:19:31.656250,-39.76,71.63
181750,2018-06-29 10:19:31.687500,-51.06,71.63
181751,2018-06-29 10:19:31.718750,-66.45,71.63
181752,2018-06-29 10:19:31.750000,-83.1,71.63
181753,2018-06-29 10:19:31.781250,-91.91,71.63
181754,2018-06-29 10:19:31.812500,-83.95,71.63
181755,2018-06-29 10:19:31.843750,-59.63,71.63
181756,2018-06-29 10:19:31.875000,-29.06,71.63
181757,2018-06-29 10:19:31.906250,-2.49,71.63
181758,2018-06-29 10:19:31.937500,17.13,71.63
181759,2018-06-29 10:19:31.968750,31.31,71.63
181760,2018-06-29 10:19:32.000000,40.46,71.63
181761,2018-06-29 10:19:32.031250,44.65,71.63
181762,2018-06-29 10:19:32.062500,46.32,71.63
181763,2018-06-29 10:19:32.093750,48.68,71.63
181764,2018-06-29 10:19:32.125000,52.53,71.63
181765,2018-06-29 10:19:32.156250,56.65,71.63
181766,2018-06-29 10:19:32.187500,59.86,71.63
181767,2018-06-29 10:19:32.218750,60.95,71.63
181768,2018-06-29 10:19:32.250000,58.38,71.63
181769,2018-06-29 10:19:32.281250,51.79,71.63
181770,2018-06-29 10:19:32.312500,42.65,71.63
181771,2018-06-29 10:19:32.343750,32.73,71.63
181772,2018-06-29 10:19:32.375000,23.04,71.63
181773,2018-06-29 10:19:32.406250,14.23,71.63
181774,2018-06-29 10:19:32.437500,5.86,71.63
181775,2018-06-29 10:19:32.468750,-3.61,71.63
181776,2018-06-29 10:19:32.500000,-14.36,71.63
181777,2018-06-29 10:19:32.531250,-24.6,71.65
181778,2018-06-29 10:19:32.562500,-33.91,71.65
181779,2018-06-29 10:19:32.593750,-43.92,71.65
181780,2018-06-29 10:19:32.625000,-55.32,71.65
181781,2018-06-29 10:19:32.656250,-66.82,71.65
181782,2018-06-29 10:19:32.687500,-74.23,71.65
181783,2018-06-29 10:19:32.718750,-69.95,71.65
181784,2018-06-29 10:19:32.750000,-49.94,71.65
181785,2018-06-29 10:19:32.781250,-21.2,71.65
181786,2018-06-29 10:19:32.812500,4.52,71.65
181787,2018-06-29 10:19:32.843750,22.75,71.65
181788,2018-06-29 10:19:32.875000,35.49,71.65
181789,2018-06-29 10:19:32.906250,43.35,71.65
181790,2018-06-29 10:19:32.937500,45.66,71.65
