,Time,ppg,hr
182400,2018-06-29 10:19:52.000000,164.56,69.78
182401,2018-06-29 10:19:52.031250,168.87,69.78
182402,2018-06-29 10:19:52.062500,167.88,69.78
182403,2018-06-29 10:19:52.093750,159.28,69.78
182404,2018-06-29 10:19:52.125000,147.99,69.78
182405,2018-06-29 10:19:52.156250,139.59,69.78
182406,2018-06-29 10:19:52.187500,133.65,69.78
182407,2018-06-29 10:19:52.218750,128.15,69.78
182408,2018-06-29 10:19:52.250000,123.8,69.78
182409,2018-06-29 10:19:52.281250,120.73,69.78
182410,2018-06-29 10:19:52.312500,116.66,69.78
182411,2018-06-29 10:19:52.343750,110.96,69.78
182412,2018-06-29 10:19:52.375000,106.0,69.78
182413,2018-06-29 10:19:52.406250,105.07,69.78
182414,2018-06-29 10:19:52.437500,110.94,69.78
182415,2018-06-29 10:19:52.468750,123.43,69.78
182416,2018-06-29 10:19:52.500000,137.39,69.78
182417,2018-06-29 10:19:52.531250,146.74,69.67
182418,2018-06-29 10:19:52.562500,149.56,69.67
182419,2018-06-29 10:19:52.593750,145.61,69.67
182420,2018-06-29 10:19:52.625000,131.98,69.67
182421,2018-06-29 10:19:52.656250,107.39,69.67
182422,2018-06-29 10:19:52.687500,77.79,69.67
182423,2018-06-29 10:19:52.718750,50.61,69.67
182424,2018-06-29 10:19:52.750000,25.35,69.67
182425,2018-06-29 10:19:52.781250,-3.42,69.67
182426,2018-06-29 10:19:52.812500,-36.14,69.67
182427,2018-06-29 10:19:52.843750,-67.79,69.67
182428,2018-06-29 10:19:52.875000,-95.63,69.67
182429,2018-06-29 10:19:52.906250,-122.55,69.67
182430,2018-06-29 10:19:52.937500,-152.85,69.67
182431,2018-06-29 10:19:52.968750,-186.72,69.67
182432,2018-06-29 10:19:53.000000,-220.76,69.67
182433,2018-06-29 10:19:53.031250,-252.82,69.67
182434,2018-06-29 10:19:53.062500,-284.42,69.67
182435,2018-06-29 10:19:53.093750,-319.0,69.67
182436,2018-06-29 10:19:53.125000,-358.4,69.67
182437,2018-06-29 10:19:53.156250,-393.09,69.67
182438,2018-06-29 10:19:53.187500,-398.92,69.67
182439,2018-06-29 10:19:53.218750,-359.34,69.67
182440,2018-06-29 10:19:53.250000,-285.99,69.67
182441,2018-06-29 10:19:53.281250,-202.96,69.67
182442,2018-06-29 10:19:53.312500,-122.93,69.67
182443,2018-06-29 10:19:53.343750,-53.6,69.67
182444,2018-06-29 10:19:53.375000,-9.05,69.67
182445,2018-06-29 10:19:53.406250,3.12,69.67
182446,2018-06-29 10:19:53.437500,-5.99,69.67
182447,2018-06-29 10:19:53.468750,-18.27,69.67
182448,2018-06-29 10:19:53.500000,-25.84,69.67
182449,2018-06-29 10:19:53.531250,-30.88,69.52
182450,2018-06-29 10:19:53.562500,-37.05,69.52
182451,2018-06-29 10:19:53.593750,-49.77,69.52
182452,2018-06-29 10:19:53.625000,-78.4,69.52
182453,2018-06-29 10:19:53.656250,-125.03,69.52
182454,2018-06-29 10:19:53.687500,-174.68,69.52
182455,2018-06-29 10:19:53.718750,-206.68,69.52
182456,2018-06-29 10:19:53.750000,-214.26,69.52
182457,2018-06-29 10:19:53.781250,-207.3,69.52
182458,2018-06-29 10:19:53.812500,-200.56,69.52
182459,2018-06-29 10:19:53.843750,-202.24,69.52
182460,2018-06-29 10:19:53.875000,-208.2,69.52
182461,2018-06-29 10:19:53.906250,-203.83,69.52
182462,2018-06-29 10:19:53.937500,-177.19,69.52
182463,2018-06-29 10:19:53.968750,-132.58,69.52
182464,2018-06-29 10:19:54.000000,-86.54,69.52
182465,2018-06-29 10:19:54.031250,-50.54,69.52
182466,2018-06-29 10:19:54.062500,-24.06,69.52
182467,2018-06-29 10:19:54.093750,-2.63,69.52
182468,2018-06-29 10:19:54.125000,15.88,69.52
182469,2018-06-29 10:19:54.156250,32.9,69.52
182470,2018-06-29 10:19:54.187500,49.93,69.52
182471,2018-06-29 10:19:54.218750,65.71,69.52
182472,2018-06-29 10:19:54.250000,77.52,69.52
182473,2018-06-29 10:19:54.281250,87.41,69.52
182474,2018-06-29 10:19:54.312500,101.67,69.52
182475,2018-06-29 10:19:54.343750,119.85,69.52
182476,2018-06-29 10:19:54.375000,133.2,69.52
182477,2018-06-29 10:19:54.406250,138.78,69.52
182478,2018-06-29 10:19:54.437500,145.38,69.52
182479,2018-06-29 10:19:54.468750,162.07,69.52
182480,2018-06-29 10:19:54.500000,190.22,69.52
182481,2018-06-29 10:19:54.531250,225.56,69.42
182482,2018-06-29 10:19:54.562500,258.07,69.42
182483,2018-06-29 10:19:54.593750,275.27,69.42
182484,2018-06-29 10:19:54.625000,276.24,69.42
182485,2018-06-29 10:19:54.656250,275.21,69.42
182486,2018-06-29 10:19:54.687500,281.28,69.42
182487,2018-06-29 10:19:54.718750,283.77,69.42
182488,2018-06-29 10:19:54.750000,269.03,69.42
182489,2018-06-29 10:19:54.781250,241.03,69.42
182490,2018-06-29 10:19:54.812500,212.86,69.42
182491,2018-06-29 10:19:54.843750,186.27,69.42
182492,2018-06-29 10:19:54.875000,152.43,69.42
182493,2018-06-29 10:19:54.906250,110.09,69.42
182494,2018-06-29 10:19:54.937500,71.74,69.42
182495,2018-06-29 10:19:54.968750,49.37,69.42
182496,2018-06-29 10:19:55.000000,40.79,69.42
182497,2018-06-29 10:19:55.031250,33.96,69.42
182498,2018-06-29 10:19:55.062500,20.37,69.42
182499,2018-06-29 10:19:55.093750,-0.82,69.42
182500,2018-06-29 10:19:55.125000,-27.38,69.42
182501,2018-06-29 10:19:55.156250,-56.68,69.42
182502,2018-06-29 10:19:55.187500,-86.43,69.42
182503,2018-06-29 10:19:55.218750,-117.02,69.42
182504,2018-06-29 10:19:55.250000,-151.33,69.42
182505,2018-06-29 10:19:55.281250,-188.69,69.42
182506,2018-06-29 10:19:55.312500,-221.17,69.42
182507,2018-06-29 10:19:55.343750,-236.81,69.42
182508,2018-06-29 10:19:55.375000,-224.72,69.42
182509,2018-06-29 10:19:55.406250,-181.76,69.42
182510,2018-06-29 10:19:55.437500,-119.99,69.42
182511,2018-06-29 10:19:55.468750,-60.02,69.42
182512,2018-06-29 10:19:55.500000,-10.99,69.42
182513,2018-06-29 10:19:55.531250,33.32,69.28
182514,2018-06-29 10:19:55.562500,74.73,69.28
182515,2018-06-29 10:19:55.593750,103.03,69.28
182516,2018-06-29 10:19:55.625000,111.93,69.28
182517,2018-06-29 10:19:55.656250,106.7,69.28
182518,2018-06-29 10:19:55.687500,94.34,69.28
182519,2018-06-29 10:19:55.718750,80.39,69.28
182520,2018-06-29 10:19:55.750000,72.92,69.28
182521,2018-06-29 10:19:55.781250,77.14,69.28
182522,2018-06-29 10:19:55.812500,86.07,69.28
182523,2018-06-29 10:19:55.843750,86.65,69.28
182524,2018-06-29 10:19:55.875000,75.42,69.28
182525,2018-06-29 10:19:55.906250,58.08,69.28
182526,2018-06-29 10:19:55.937500,33.95,69.28
182527,2018-06-29 10:19:55.968750,-0.98,69.28
182528,2018-06-29 10:19:56.000000,-39.75,69.28
182529,2018-06-29 10:19:56.031250,-76.55,69.28
182530,2018-06-29 10:19:56.062500,-123.5,69.28
182531,2018-06-29 10:19:56.093750,-192.59,69.28
182532,2018-06-29 10:19:56.125000,-269.36,69.28
182533,2018-06-29 10:19:56.156250,-313.7,69.28
182534,2018-06-29 10:19:56.187500,-288.91,69.28
182535,2018-06-29 10:19:56.218750,-200.51,69.28
182536,2018-06-29 10:19:56.250000,-98.6,69.28
182537,2018-06-29 10:19:56.281250,-26.62,69.28
182538,2018-06-29 10:19:56.312500,12.26,69.28
182539,2018-06-29 10:19:56.343750,29.63,69.28
182540,2018-06-29 10:19:56.375000,31.05,69.28
182541,2018-06-29 10:19:56.406250,27.73,69.28
182542,2018-06-29 10:19:56.437500,32.54,69.28
182543,2018-06-29 10:19:56.468750,40.33,69.28
182544,2018-06-29 10:19:56.500000,35.4,69.28
182545,2018-06-29 10:19:56.531250,17.82,69.15
182546,2018-06-29 10:19:56.562500,5.07,69.15
182547,2018-06-29 10:19:56.593750,8.58,69.15
182548,2018-06-29 10:19:56.625000,20.57,69.15
182549,2018-06-29 10:19:56.656250,26.34,69.15
182550,2018-06-29 10:19:56.687500,21.56,69.15
182551,2018-06-29 10:19:56.718750,11.98,69.15
182552,2018-06-29 10:19:56.750000,-0.32,69.15
182553,2018-06-29 10:19:56.781250,-22.0,69.15
182554,2018-06-29 10:19:56.812500,-55.23,69.15
182555,2018-06-29 10:19:56.843750,-86.34,69.15
182556,2018-06-29 10:19:56.875000,-96.64,69.15
182557,2018-06-29 10:19:56.906250,-82.3,69.15
182558,2018-06-29 10:19:56.937500,-53.89,69.15
182559,2018-06-29 10:19:56.968750,-18.52,69.15
182560,2018-06-29 10:19:57.000000,24.43,69.15
182561,2018-06-29 10:19:57.031250,71.87,69.15
182562,2018-06-29 10:19:57.062500,112.87,69.15
182563,2018-06-29 10:19:57.093750,137.12,69.15
182564,2018-06-29 10:19:57.125000,142.78,69.15
182565,2018-06-29 10:19:57.156250,136.29,69.15
182566,2018-06-29 10:19:57.187500,126.06,69.15
182567,2018-06-29 10:19:57.218750,116.63,69.15
182568,2018-06-29 10:19:57.250000,109.79,69.15
182569,2018-06-29 10:19:57.281250,107.05,69.15
182570,2018-06-29 10:19:57.312500,104.37,69.15
182571,2018-06-29 10:19:57.343750,90.49,69.15
182572,2018-06-29 10:19:57.375000,58.66,69.15
182573,2018-06-29 10:19:57.406250,14.82,69.15
182574,2018-06-29 10:19:57.437500,-30.79,69.15
182575,2018-06-29 10:19:57.468750,-73.8,69.15
182576,2018-06-29 10:19:57.500000,-115.12,69.15
182577,2018-06-29 10:19:57.531250,-155.93,69.07
182578,2018-06-29 10:19:57.562500,-191.44,69.07
182579,2018-06-29 10:19:57.593750,-207.61,69.07
182580,2018-06-29 10:19:57.625000,-194.37,69.07
182581,2018-06-29 10:19:57.656250,-165.97,69.07
182582,2018-06-29 10:19:57.687500,-153.61,69.07
182583,2018-06-29 10:19:57.718750,-169.45,69.07
182584,2018-06-29 10:19:57.750000,-191.58,69.07
182585,2018-06-29 10:19:57.781250,-191.79,69.07
182586,2018-06-29 10:19:57.812500,-162.06,69.07
182587,2018-06-29 10:19:57.843750,-107.81,69.07
182588,2018-06-29 10:19:57.875000,-37.89,69.07
182589,2018-06-29 10:19:57.906250,30.91,69.07
182590,2018-06-29 10:19:57.937500,80.8,69.07
182591,2018-06-29 10:19:57.968750,108.91,69.07
182592,2018-06-29 10:19:58.000000,120.84,69.07
182593,2018-06-29 10:19:58.031250,112.73,69.07
182594,2018-06-29 10:19:58.062500,76.81,69.07
182595,2018-06-29 10:19:58.093750,19.61,69.07
182596,2018-06-29 10:19:58.125000,-40.14,69.07
182597,2018-06-29 10:19:58.156250,-90.85,69.07
182598,2018-06-29 10:19:58.187500,-136.74,69.07
182599,2018-06-29 10:19:58.218750,-186.72,69.07
182600,2018-06-29 10:19:58.250000,-240.84,69.07
182601,2018-06-29 10:19:58.281250,-285.94,69.07
182602,2018-06-29 10:19:58.312500,-300.49,69.07
182603,2018-06-29 10:19:58.343750,-270.78,69.07
182604,2018-06-29 10:19:58.375000,-207.58,69.07
182605,2018-06-29 10:19:58.406250,-138.08,69.07
182606,2018-06-29 10:19:58.437500,-77.0,69.07
182607,2018-06-29 10:19:58.468750,-16.78,69.07
182608,2018-06-29 10:19:58.500000,45.66,69.07
182609,2018-06-29 10:19:58.531250,88.78,69.05
182610,2018-06-29 10:19:58.562500,90.17,69.05
182611,2018-06-29 10:19:58.593750,56.35,69.05
182612,2018-06-29 10:19:58.625000,13.23,69.05
182613,2018-06-29 10:19:58.656250,-19.49,69.05
182614,2018-06-29 10:19:58.687500,-32.77,69.05
182615,2018-06-29 10:19:58.718750,-26.47,69.05
182616,2018-06-29 10:19:58.750000,-14.59,69.05
182617,2018-06-29 10:19:58.781250,-15.96,69.05
182618,2018-06-29 10:19:58.812500,-33.74,69.05
182619,2018-06-29 10:19:58.843750,-55.52,69.05
182620,2018-06-29 10:19:58.875000,-73.23,69.05
182621,2018-06-29 10:19:58.906250,-92.32,69.05
182622,2018-06-29 10:19:58.937500,-120.88,69.05
182623,2018-06-29 10:19:58.968750,-156.97,69.05
182624,2018-06-29 10:19:59.000000,-185.42,69.05
182625,2018-06-29 10:19:59.031250,-187.04,69.05
182626,2018-06-29 10:19:59.062500,-156.89,69.05
182627,2018-06-29 10:19:59.093750,-109.8,69.05
182628,2018-06-29 10:19:59.125000,-63.83,69.05
182629,2018-06-29 10:19:59.156250,-26.31,69.05
182630,2018-06-29 10:19:59.187500,2.34,69.05
182631,2018-06-29 10:19:59.218750,24.17,69.05
182632,2018-06-29 10:19:59.250000,45.01,69.05
182633,2018-06-29 10:19:59.281250,69.82,69.05
182634,2018-06-29 10:19:59.312500,96.88,69.05
182635,2018-06-29 10:19:59.343750,122.38,69.05
182636,2018-06-29 10:19:59.375000,147.22,69.05
182637,2018-06-29 10:19:59.406250,173.09,69.05
182638,2018-06-29 10:19:59.437500,194.58,69.05
182639,2018-06-29 10:19:59.468750,202.02,69.05
182640,2018-06-29 10:19:59.500000,192.84,69.05
182641,2018-06-29 10:19:59.531250,177.19,68.98
182642,2018-06-29 10:19:59.562500,168.85,68.98
182643,2018-06-29 10:19:59.593750,166.92,68.98
182644,2018-06-29 10:19:59.625000,152.11,68.98
182645,2018-06-29 10:19:59.656250,111.56,68.98
182646,2018-06-29 10:19:59.687500,61.56,68.98
182647,2018-06-29 10:19:59.718750,34.2,68.98
182648,2018-06-29 10:19:59.750000,45.83,68.98
182649,2018-06-29 10:19:59.781250,86.61,68.98
182650,2018-06-29 10:19:59.812500,134.05,68.98
182651,2018-06-29 10:19:59.843750,170.52,68.98
182652,2018-06-29 10:19:59.875000,192.19,68.98
182653,2018-06-29 10:19:59.906250,202.71,68.98
182654,2018-06-29 10:19:59.937500,202.93,68.98
182655,2018-06-29 10:19:59.968750,192.79,68.98
182656,2018-06-29 10:20:00.000000,177.73,68.98
182657,2018-06-29 10:20:00.031250,164.51,68.98
182658,2018-06-29 10:20:00.062500,154.6,68.98
182659,2018-06-29 10:20:00.093750,146.01,68.98
182660,2018-06-29 10:20:00.125000,136.52,68.98
182661,2018-06-29 10:20:00.156250,123.0,68.98
182662,2018-06-29 10:20:00.187500,103.23,68.98
182663,2018-06-29 10:20:00.218750,79.07,68.98
182664,2018-06-29 10:20:00.250000,55.48,68.98
182665,2018-06-29 10:20:00.281250,35.9,68.98
182666,2018-06-29 10:20:00.312500,19.29,68.98
182667,2018-06-29 10:20:00.343750,1.63,68.98
182668,2018-06-29 10:20:00.375000,-19.42,68.98
182669,2018-06-29 10:20:00.406250,-42.93,68.98
182670,2018-06-29 10:20:00.437500,-65.76,68.98
182671,2018-06-29 10:20:00.468750,-79.84,68.98
182672,2018-06-29 10:20:00.500000,-73.04,68.98
182673,2018-06-29 10:20:00.531250,-41.55,69.28
182674,2018-06-29 10:20:00.562500,3.49,69.28
182675,2018-06-29 10:20:00.593750,48.37,69.28
182676,2018-06-29 10:20:00.625000,86.75,69.28
182677,2018-06-29 10:20:00.656250,114.07,69.28
182678,2018-06-29 10:20:00.687500,125.28,69.28
182679,2018-06-29 10:20:00.718750,122.42,69.28
182680,2018-06-29 10:20:00.750000,113.91,69.28
182681,2018-06-29 10:20:00.781250,105.45,69.28
182682,2018-06-29 10:20:00.812500,98.31,69.28
182683,2018-06-29 10:20:00.843750,93.61,69.28
182684,2018-06-29 10:20:00.875000,91.45,69.28
182685,2018-06-29 10:20:00.906250,88.39,69.28
182686,2018-06-29 10:20:00.937500,80.62,69.28
182687,2018-06-29 10:20:00.968750,68.47,69.28
182688,2018-06-29 10:20:01.000000,55.12,69.28
182689,2018-06-29 10:20:01.031250,41.72,69.28
182690,2018-06-29 10:20:01.062500,27.11,69.28
182691,2018-06-29 10:20:01.093750,11.88,69.28
182692,2018-06-29 10:20:01.125000,-0.92,69.28
182693,2018-06-29 10:20:01.156250,-10.66,69.28
182694,2018-06-29 10:20:01.187500,-21.64,69.28
182695,2018-06-29 10:20:01.218750,-39.18,69.28
182696,2018-06-29 10:20:01.250000,-62.81,69.28
182697,2018-06-29 10:20:01.281250,-81.49,69.28
182698,2018-06-29 10:20:01.312500,-81.16,69.28
182699,2018-06-29 10:20:01.343750,-60.37,69.28
182700,2018-06-29 10:20:01.375000,-31.43,69.28
182701,2018-06-29 10:20:01.406250,-5.21,69.28
182702,2018-06-29 10:20:01.437500,15.27,69.28
182703,2018-06-29 10:20:01.468750,27.79,69.28
182704,2018-06-29 10:20:01.500000,29.57,69.28
182705,2018-06-29 10:20:01.531250,23.72,69.58
182706,2018-06-29 10:20:01.562500,18.08,69.58
182707,2018-06-29 10:20:01.593750,16.82,69.58
182708,2018-06-29 10:20:01.625000,17.51,69.58
182709,2018-06-29 10:20:01.656250,16.63,69.58
182710,2018-06-29 10:20:01.687500,14.69,69.58
182711,2018-06-29 10:20:01.718750,13.8,69.58
182712,2018-06-29 10:20:01.750000,13.29,69.58
182713,2018-06-29 10:20:01.781250,10.63,69.58
182714,2018-06-29 10:20:01.812500,5.07,69.58
182715,2018-06-29 10:20:01.843750,-2.05,69.58
182716,2018-06-29 10:20:01.875000,-9.97,69.58
182717,2018-06-29 10:20:01.906250,-19.33,69.58
182718,2018-06-29 10:20:01.937500,-31.34,69.58
182719,2018-06-29 10:20:01.968750,-46.72,69.58
182720,2018-06-29 10:20:02.000000,-62.5,69.58
182721,2018-06-29 10:20:02.031250,-69.26,69.58
182722,2018-06-29 10:20:02.062500,-57.69,69.58
182723,2018-06-29 10:20:02.093750,-29.78,69.58
182724,2018-06-29 10:20:02.125000,2.05,69.58
182725,2018-06-29 10:20:02.156250,27.26,69.58
182726,2018-06-29 10:20:02.187500,43.26,69.58
182727,2018-06-29 10:20:02.218750,50.45,69.58
182728,2018-06-29 10:20:02.250000,48.74,69.58
182729,2018-06-29 10:20:02.281250,40.51,69.58
182730,2018-06-29 10:20:02.312500,31.38,69.58
182731,2018-06-29 10:20:02.343750,24.81,69.58
182732,2018-06-29 10:20:02.375000,19.66,69.58
182733,2018-06-29 10:20:02.406250,14.82,69.58
182734,2018-06-29 10:20:02.437500,11.13,69.58
182735,2018-06-29 10:20:02.468750,7.99,69.58
182736,2018-06-29 10:20:02.500000,3.23,69.58
182737,2018-06-29 10:20:02.531250,-3.48,69.88
182738,2018-06-29 10:20:02.562500,-10.77,69.88
182739,2018-06-29 10:20:02.593750,-18.02,69.88
182740,2018-06-29 10:20:02.625000,-25.39,69.88
182741,2018-06-29 10:20:02.656250,-33.34,69.88
182742,2018-06-29 10:20:02.687500,-42.68,69.88
182743,2018-06-29 10:20:02.718750,-53.92,69.88
182744,2018-06-29 10:20:02.750000,-66.13,69.88
182745,2018-06-29 10:20:02.781250,-74.56,69.88
182746,2018-06-29 10:20:02.812500,-71.1,69.88
182747,2018-06-29 10:20:02.843750,-52.49,69.88
182748,2018-06-29 10:20:02.875000,-26.06,69.88
182749,2018-06-29 10:20:02.906250,-2.32,69.88
182750,2018-06-29 10:20:02.937500,14.44,69.88
182751,2018-06-29 10:20:02.968750,24.7,69.88
182752,2018-06-29 10:20:03.000000,28.79,69.88
182753,2018-06-29 10:20:03.031250,27.56,69.88
182754,2018-06-29 10:20:03.062500,24.11,69.88
182755,2018-06-29 10:20:03.093750,21.76,69.88
182756,2018-06-29 10:20:03.125000,20.92,69.88
182757,2018-06-29 10:20:03.156250,19.82,69.88
182758,2018-06-29 10:20:03.187500,17.49,69.88
182759,2018-06-29 10:20:03.218750,14.43,69.88
182760,2018-06-29 10:20:03.250000,10.93,69.88
182761,2018-06-29 10:20:03.281250,5.95,69.88
182762,2018-06-29 10:20:03.312500,-1.59,69.88
182763,2018-06-29 10:20:03.343750,-10.49,69.88
182764,2018-06-29 10:20:03.375000,-17.86,69.88
182765,2018-06-29 10:20:03.406250,-23.04,69.88
182766,2018-06-29 10:20:03.437500,-28.53,69.88
182767,2018-06-29 10:20:03.468750,-36.75,69.88
182768,2018-06-29 10:20:03.500000,-48.27,69.88
182769,2018-06-29 10:20:03.531250,-60.27,70.17
182770,2018-06-29 10:20:03.562500,-64.73,70.17
182771,2018-06-29 10:20:03.593750,-54.25,70.17
182772,2018-06-29 10:20:03.625000,-31.61,70.17
182773,2018-06-29 10:20:03.656250,-7.84,70.17
182774,2018-06-29 10:20:03.687500,9.14,70.17
182775,2018-06-29 10:20:03.718750,18.19,70.17
182776,2018-06-29 10:20:03.750000,19.66,70.17
182777,2018-06-29 10:20:03.781250,14.46,70.17
182778,2018-06-29 10:20:03.812500,6.78,70.17
182779,2018-06-29 10:20:03.843750,2.11,70.17
182780,2018-06-29 10:20:03.875000,2.05,70.17
182781,2018-06-29 10:20:03.906250,3.28,70.17
182782,2018-06-29 10:20:03.937500,2.08,70.17
182783,2018-06-29 10:20:03.968750,-2.05,70.17
182784,2018-06-29 10:20:04.000000,-7.45,70.17
182785,2018-06-29 10:20:04.031250,-13.03,70.17
182786,2018-06-29 10:20:04.062500,-18.7,70.17
182787,2018-06-29 10:20:04.093750,-24.37,70.17
182788,2018-06-29 10:20:04.125000,-30.0,70.17
182789,2018-06-29 10:20:04.156250,-35.84,70.17
182790,2018-06-29 10:20:04.187500,-42.13,70.17
182791,2018-06-29 10:20:04.218750,-48.69,70.17
182792,2018-06-29 10:20:04.250000,-55.47,70.17
182793,2018-06-29 10:20:04.281250,-60.42,70.17
182794,2018-06-29 10:20:04.312500,-57.41,70.17
182795,2018-06-29 10:20:04.343750,-41.94,70.17
182796,2018-06-29 10:20:04.375000,-18.6,70.17
182797,2018-06-29 10:20:04.406250,2.62,70.17
182798,2018-06-29 10:20:04.437500,16.77,70.17
182799,2018-06-29 10:20:04.468750,25.37,70.17
182800,2018-06-29 10:20:04.500000,30.1,70.17
182801,2018-06-29 10:20:04.531250,30.5,70.45
182802,2018-06-29 10:20:04.562500,26.99,70.45
182803,2018-06-29 10:20:04.593750,22.2,70.45
182804,2018-06-29 10:20:04.625000,18.42,70.45
182805,2018-06-29 10:20:04.656250,15.5,70.45
182806,2018-06-29 10:20:04.687500,11.96,70.45
182807,2018-06-29 10:20:04.718750,7.3,70.45
182808,2018-06-29 10:20:04.750000,2.09,70.45
182809,2018-06-29 10:20:04.781250,-3.41,70.45
182810,2018-06-29 10:20:04.812500,-9.39,70.45
182811,2018-06-29 10:20:04.843750,-15.76,70.45
182812,2018-06-29 10:20:04.875000,-22.1,70.45
182813,2018-06-29 10:20:04.906250,-28.44,70.45
182814,2018-06-29 10:20:04.937500,-35.04,70.45
182815,2018-06-29 10:20:04.968750,-42.42,70.45
182816,2018-06-29 10:20:05.000000,-51.97,70.45
182817,2018-06-29 10:20:05.031250,-63.66,70.45
182818,2018-06-29 10:20:05.062500,-71.59,70.45
182819,2018-06-29 10:20:05.093750,-66.66,70.45
182820,2018-06-29 10:20:05.125000,-47.01,70.45
182821,2018-06-29 10:20:05.156250,-21.24,70.45
182822,2018-06-29 10:20:05.187500,1.07,70.45
182823,2018-06-29 10:20:05.218750,16.79,70.45
182824,2018-06-29 10:20:05.250000,26.14,70.45
182825,2018-06-29 10:20:05.281250,28.91,70.45
182826,2018-06-29 10:20:05.312500,26.23,70.45
182827,2018-06-29 10:20:05.343750,21.62,70.45
182828,2018-06-29 10:20:05.375000,18.5,70.45
182829,2018-06-29 10:20:05.406250,17.52,70.45
182830,2018-06-29 10:20:05.437500,17.37,70.45
182831,2018-06-29 10:20:05.468750,17.25,70.45
182832,2018-06-29 10:20:05.500000,16.51,70.45
182833,2018-06-29 10:20:05.531250,12.99,70.77
182834,2018-06-29 10:20:05.562500,5.81,70.77
182835,2018-06-29 10:20:05.593750,-2.07,70.77
182836,2018-06-29 10:20:05.625000,-7.95,70.77
182837,2018-06-29 10:20:05.656250,-13.23,70.77
182838,2018-06-29 10:20:05.687500,-19.74,70.77
182839,2018-06-29 10:20:05.718750,-26.41,70.77
182840,2018-06-29 10:20:05.750000,-32.17,70.77
182841,2018-06-29 10:20:05.781250,-38.29,70.77
182842,2018-06-29 10:20:05.812500,-46.46,70.77
182843,2018-06-29 10:20:05.843750,-56.73,70.77
182844,2018-06-29 10:20:05.875000,-65.48,70.77
182845,2018-06-29 10:20:05.906250,-65.07,70.77
182846,2018-06-29 10:20:05.937500,-50.74,70.77
182847,2018-06-29 10:20:05.968750,-27.61,70.77
182848,2018-06-29 10:20:06.000000,-5.54,70.77
182849,2018-06-29 10:20:06.031250,10.85,70.77
182850,2018-06-29 10:20:06.062500,21.79,70.77
182851,2018-06-29 10:20:06.093750,26.81,70.77
182852,2018-06-29 10:20:06.125000,26.03,70.77
182853,2018-06-29 10:20:06.156250,22.67,70.77
182854,2018-06-29 10:20:06.187500,20.0,70.77
182855,2018-06-29 10:20:06.218750,19.07,70.77
182856,2018-06-29 10:20:06.250000,20.07,70.77
182857,2018-06-29 10:20:06.281250,22.61,70.77
182858,2018-06-29 10:20:06.312500,24.71,70.77
182859,2018-06-29 10:20:06.343750,23.58,70.77
182860,2018-06-29 10:20:06.375000,17.31,70.77
182861,2018-06-29 10:20:06.406250,7.24,70.77
182862,2018-06-29 10:20:06.437500,-2.14,70.77
182863,2018-06-29 10:20:06.468750,-8.89,70.77
182864,2018-06-29 10:20:06.500000,-16.45,70.77
182865,2018-06-29 10:20:06.531250,-27.51,71.1
182866,2018-06-29 10:20:06.562500,-39.77,71.1
182867,2018-06-29 10:20:06.593750,-49.2,71.1
182868,2018-06-29 10:20:06.625000,-53.39,71.1
182869,2018-06-29 10:20:06.656250,-52.79,71.1
182870,2018-06-29 10:20:06.687500,-50.48,71.1
182871,2018-06-29 10:20:06.718750,-46.74,71.1
182872,2018-06-29 10:20:06.750000,-36.47,71.1
182873,2018-06-29 10:20:06.781250,-17.71,71.1
182874,2018-06-29 10:20:06.812500,3.4,71.1
182875,2018-06-29 10:20:06.843750,20.4,71.1
182876,2018-06-29 10:20:06.875000,32.32,71.1
182877,2018-06-29 10:20:06.906250,39.19,71.1
182878,2018-06-29 10:20:06.937500,39.36,71.1
182879,2018-06-29 10:20:06.968750,33.98,71.1
182880,2018-06-29 10:20:07.000000,27.99,71.1
182881,2018-06-29 10:20:07.031250,25.05,71.1
182882,2018-06-29 10:20:07.062500,24.53,71.1
182883,2018-06-29 10:20:07.093750,24.24,71.1
182884,2018-06-29 10:20:07.125000,23.48,71.1
182885,2018-06-29 10:20:07.156250,22.15,71.1
182886,2018-06-29 10:20:07.187500,19.49,71.1
182887,2018-06-29 10:20:07.218750,14.42,71.1
182888,2018-06-29 10:20:07.250000,6.79,71.1
182889,2018-06-29 10:20:07.281250,-2.11,71.1
182890,2018-06-29 10:20:07.312500,-10.57,71.1
182891,2018-06-29 10:20:07.343750,-17.97,71.1
182892,2018-06-29 10:20:07.375000,-25.04,71.1
182893,2018-06-29 10:20:07.406250,-33.08,71.1
182894,2018-06-29 10:20:07.437500,-42.2,71.1
182895,2018-06-29 10:20:07.468750,-49.02,71.1
182896,2018-06-29 10:20:07.500000,-46.63,71.1
182897,2018-06-29 10:20:07.531250,-31.35,71.4
182898,2018-06-29 10:20:07.562500,-8.77,71.4
182899,2018-06-29 10:20:07.593750,10.81,71.4
182900,2018-06-29 10:20:07.625000,21.76,71.4
182901,2018-06-29 10:20:07.656250,24.21,71.4
182902,2018-06-29 10:20:07.687500,20.06,71.4
182903,2018-06-29 10:20:07.718750,13.11,71.4
182904,2018-06-29 10:20:07.750000,9.22,71.4
182905,2018-06-29 10:20:07.781250,11.16,71.4
182906,2018-06-29 10:20:07.812500,15.69,71.4
182907,2018-06-29 10:20:07.843750,18.47,71.4
182908,2018-06-29 10:20:07.875000,18.85,71.4
182909,2018-06-29 10:20:07.906250,17.44,71.4
182910,2018-06-29 10:20:07.937500,13.25,71.4
182911,2018-06-29 10:20:07.968750,6.02,71.4
182912,2018-06-29 10:20:08.000000,-2.06,71.4
182913,2018-06-29 10:20:08.031250,-9.0,71.4
182914,2018-06-29 10:20:08.062500,-15.54,71.4
182915,2018-06-29 10:20:08.093750,-23.78,71.4
182916,2018-06-29 10:20:08.125000,-34.57,71.4
182917,2018-06-29 10:20:08.156250,-46.15,71.4
182918,2018-06-29 10:20:08.187500,-53.29,71.4
182919,2018-06-29 10:20:08.218750,-49.24,71.4
182920,2018-06-29 10:20:08.250000,-32.2,71.4
182921,2018-06-29 10:20:08.281250,-8.95,71.4
182922,2018-06-29 10:20:08.312500,10.92,71.4
182923,2018-06-29 10:20:08.343750,23.03,71.4
182924,2018-06-29 10:20:08.375000,28.18,71.4
182925,2018-06-29 10:20:08.406250,27.82,71.4
182926,2018-06-29 10:20:08.437500,23.86,71.4
182927,2018-06-29 10:20:08.468750,20.08,71.4
182928,2018-06-29 10:20:08.500000,19.43,71.4
182929,2018-06-29 10:20:08.531250,20.98,71.68
182930,2018-06-29 10:20:08.562500,21.59,71.68
182931,2018-06-29 10:20:08.593750,19.62,71.68
182932,2018-06-29 10:20:08.625000,15.47,71.68
182933,2018-06-29 10:20:08.656250,9.68,71.68
182934,2018-06-29 10:20:08.687500,2.4,71.68
182935,2018-06-29 10:20:08.718750,-5.83,71.68
182936,2018-06-29 10:20:08.750000,-14.23,71.68
182937,2018-06-29 10:20:08.781250,-22.4,71.68
182938,2018-06-29 10:20:08.812500,-30.48,71.68
182939,2018-06-29 10:20:08.843750,-39.16,71.68
182940,2018-06-29 10:20:08.875000,-48.23,71.68
182941,2018-06-29 10:20:08.906250,-54.92,71.68
182942,2018-06-29 10:20:08.937500,-55.63,71.68
182943,2018-06-29 10:20:08.968750,-49.79,71.68
182944,2018-06-29 10:20:09.000000,-39.6,71.68
182945,2018-06-29 10:20:09.031250,-27.44,71.68
182946,2018-06-29 10:20:09.062500,-16.06,71.68
182947,2018-06-29 10:20:09.093750,-8.78,71.68
182948,2018-06-29 10:20:09.125000,-5.89,71.68
182949,2018-06-29 10:20:09.156250,-3.61,71.68
182950,2018-06-29 10:20:09.187500,1.15,71.68
182951,2018-06-29 10:20:09.218750,7.6,71.68
182952,2018-06-29 10:20:09.250000,13.49,71.68
182953,2018-06-29 10:20:09.281250,17.1,71.68
182954,2018-06-29 10:20:09.312500,16.55,71.68
182955,2018-06-29 10:20:09.343750,10.68,71.68
182956,2018-06-29 10:20:09.375000,0.78,71.68
182957,2018-06-29 10:20:09.406250,-10.26,71.68
182958,2018-06-29 10:20:09.437500,-20.75,71.68
182959,2018-06-29 10:20:09.468750,-31.75,71.68
182960,2018-06-29 10:20:09.500000,-45.25,71.68
182961,2018-06-29 10:20:09.531250,-59.59,71.98
182962,2018-06-29 10:20:09.562500,-67.16,71.98
182963,2018-06-29 10:20:09.593750,-59.58,71.98
182964,2018-06-29 10:20:09.625000,-36.71,71.98
182965,2018-06-29 10:20:09.656250,-7.5,71.98
182966,2018-06-29 10:20:09.687500,18.71,71.98
182967,2018-06-29 10:20:09.718750,38.06,71.98
182968,2018-06-29 10:20:09.750000,49.93,71.98
182969,2018-06-29 10:20:09.781250,54.61,71.98
182970,2018-06-29 10:20:09.812500,53.71,71.98
182971,2018-06-29 10:20:09.843750,50.07,71.98
182972,2018-06-29 10:20:09.875000,46.14,71.98
182973,2018-06-29 10:20:09.906250,42.62,71.98
182974,2018-06-29 10:20:09.937500,39.15,71.98
182975,2018-06-29 10:20:09.968750,35.52,71.98
182976,2018-06-29 10:20:10.000000,30.69,71.98
182977,2018-06-29 10:20:10.031250,22.41,71.98
182978,2018-06-29 10:20:10.062500,10.45,71.98
182979,2018-06-29 10:20:10.093750,-2.42,71.98
182980,2018-06-29 10:20:10.125000,-14.67,71.98
182981,2018-06-29 10:20:10.156250,-28.13,71.98
182982,2018-06-29 10:20:10.187500,-43.93,71.98
182983,2018-06-29 10:20:10.218750,-57.33,71.98
182984,2018-06-29 10:20:10.250000,-59.31,71.98
182985,2018-06-29 10:20:10.281250,-45.03,71.98
182986,2018-06-29 10:20:10.312500,-19.23,71.98
182987,2018-06-29 10:20:10.343750,8.64,71.98
182988,2018-06-29 10:20:10.375000,32.23,71.98
182989,2018-06-29 10:20:10.406250,49.37,71.98
182990,2018-06-29 10:20:10.437500,58.91,71.98
182991,2018-06-29 10:20:10.468750,60.55,71.98
182992,2018-06-29 10:20:10.500000,56.64,71.98
182993,2018-06-29 10:20:10.531250,51.47,72.3
182994,2018-06-29 10:20:10.562500,47.72,72.3
182995,2018-06-29 10:20:10.593750,44.89,72.3
182996,2018-06-29 10:20:10.625000,41.85,72.3
182997,2018-06-29 10:20:10.656250,38.91,72.3
182998,2018-06-29 10:20:10.687500,35.31,72.3
182999,2018-06-29 10:20:10.718750,27.99,72.3
183000,2018-06-29 10:20:10.750000,15.88,72.3
183001,2018-06-29 10:20:10.781250,2.54,72.3
183002,2018-06-29 10:20:10.812500,-8.89,72.3
183003,2018-06-29 10:20:10.843750,-19.89,72.3
183004,2018-06-29 10:20:10.875000,-33.29,72.3
183005,2018-06-29 10:20:10.906250,-49.27,72.3
183006,2018-06-29 10:20:10.937500,-63.93,72.3
183007,2018-06-29 10:20:10.968750,-69.02,72.3
183008,2018-06-29 10:20:11.000000,-57.36,72.3
183009,2018-06-29 10:20:11.031250,-31.9,72.3
183010,2018-06-29 10:20:11.062500,-3.52,72.3
183011,2018-06-29 10:20:11.093750,20.32,72.3
183012,2018-06-29 10:20:11.125000,38.47,72.3
183013,2018-06-29 10:20:11.156250,49.99,72.3
183014,2018-06-29 10:20:11.187500,53.11,72.3
183015,2018-06-29 10:20:11.218750,49.72,72.3
183016,2018-06-29 10:20:11.250000,45.13,72.3
183017,2018-06-29 10:20:11.281250,42.63,72.3
183018,2018-06-29 10:20:11.312500,41.51,72.3
183019,2018-06-29 10:20:11.343750,40.33,72.3
183020,2018-06-29 10:20:11.375000,38.93,72.3
183021,2018-06-29 10:20:11.406250,36.13,72.3
183022,2018-06-29 10:20:11.437500,29.46,72.3
183023,2018-06-29 10:20:11.468750,19.06,72.3
183024,2018-06-29 10:20:11.500000,8.57,72.3
183025,2018-06-29 10:20:11.531250,0.46,72.62
183026,2018-06-29 10:20:11.562500,-6.52,72.62
183027,2018-06-29 10:20:11.593750,-14.35,72.62
183028,2018-06-29 10:20:11.625000,-22.54,72.62
183029,2018-06-29 10:20:11.656250,-29.41,72.62
183030,2018-06-29 10:20:11.687500,-35.36,72.62
183031,2018-06-29 10:20:11.718750,-43.26,72.62
183032,2018-06-29 10:20:11.750000,-55.34,72.62
183033,2018-06-29 10:20:11.781250,-68.81,72.62
183034,2018-06-29 10:20:11.812500,-74.8,72.62
183035,2018-06-29 10:20:11.843750,-64.83,72.62
183036,2018-06-29 10:20:11.875000,-39.79,72.62
183037,2018-06-29 10:20:11.906250,-9.59,72.62
183038,2018-06-29 10:20:11.937500,16.44,72.62
183039,2018-06-29 10:20:11.968750,35.22,72.62
183040,2018-06-29 10:20:12.000000,46.76,72.62
183041,2018-06-29 10:20:12.031250,51.07,72.62
183042,2018-06-29 10:20:12.062500,49.67,72.62
183043,2018-06-29 10:20:12.093750,46.19,72.62
183044,2018-06-29 10:20:12.125000,43.82,72.62
183045,2018-06-29 10:20:12.156250,43.25,72.62
183046,2018-06-29 10:20:12.187500,43.35,72.62
183047,2018-06-29 10:20:12.218750,42.5,72.62
183048,2018-06-29 10:20:12.250000,39.3,72.62
183049,2018-06-29 10:20:12.281250,33.45,72.62
183050,2018-06-29 10:20:12.312500,25.77,72.62
183051,2018-06-29 10:20:12.343750,17.32,72.62
183052,2018-06-29 10:20:12.375000,9.31,72.62
183053,2018-06-29 10:20:12.406250,2.58,72.62
183054,2018-06-29 10:20:12.437500,-3.56,72.62
183055,2018-06-29 10:20:12.468750,-10.47,72.62
183056,2018-06-29 10:20:12.500000,-18.33,72.62
183057,2018-06-29 10:20:12.531250,-26.47,72.97
183058,2018-06-29 10:20:12.562500,-34.68,72.97
183059,2018-06-29 10:20:12.593750,-43.07,72.97
183060,2018-06-29 10:20:12.625000,-51.98,72.97
183061,2018-06-29 10:20:12.656250,-62.54,72.97
183062,2018-06-29 10:20:12.687500,-74.79,72.97
183063,2018-06-29 10:20:12.718750,-83.22,72.97
183064,2018-06-29 10:20:12.750000,-78.42,72.97
183065,2018-06-29 10:20:12.781250,-57.33,72.97
183066,2018-06-29 10:20:12.812500,-27.84,72.97
183067,2018-06-29 10:20:12.843750,-0.15,72.97
183068,2018-06-29 10:20:12.875000,21.77,72.97
183069,2018-06-29 10:20:12.906250,37.74,72.97
183070,2018-06-29 10:20:12.937500,47.07,72.97
183071,2018-06-29 10:20:12.968750,49.99,72.97
183072,2018-06-29 10:20:13.000000,49.33,72.97
183073,2018-06-29 10:20:13.031250,48.16,72.97
183074,2018-06-29 10:20:13.062500,47.56,72.97
183075,2018-06-29 10:20:13.093750,47.52,72.97
183076,2018-06-29 10:20:13.125000,48.18,72.97
183077,2018-06-29 10:20:13.156250,48.58,72.97
183078,2018-06-29 10:20:13.187500,46.24,72.97
183079,2018-06-29 10:20:13.218750,40.1,72.97
183080,2018-06-29 10:20:13.250000,32.29,72.97
183081,2018-06-29 10:20:13.281250,25.27,72.97
183082,2018-06-29 10:20:13.312500,18.83,72.97
183083,2018-06-29 10:20:13.343750,11.4,72.97
183084,2018-06-29 10:20:13.375000,2.92,72.97
183085,2018-06-29 10:20:13.406250,-5.28,72.97
183086,2018-06-29 10:20:13.437500,-12.32,72.97
183087,2018-06-29 10:20:13.468750,-18.81,72.97
183088,2018-06-29 10:20:13.500000,-26.08,72.97
183089,2018-06-29 10:20:13.531250,-34.92,73.3
183090,2018-06-29 10:20:13.562500,-44.87,73.3
183091,2018-06-29 10:20:13.593750,-54.94,73.3
183092,2018-06-29 10:20:13.625000,-65.36,73.3
183093,2018-06-29 10:20:13.656250,-76.39,73.3
183094,2018-06-29 10:20:13.687500,-84.05,73.3
183095,2018-06-29 10:20:13.718750,-80.65,73.3
183096,2018-06-29 10:20:13.750000,-62.92,73.3
183097,2018-06-29 10:20:13.781250,-36.44,73.3
183098,2018-06-29 10:20:13.812500,-9.86,73.3
183099,2018-06-29 10:20:13.843750,11.85,73.3
183100,2018-06-29 10:20:13.875000,26.87,73.3
183101,2018-06-29 10:20:13.906250,34.41,73.3
183102,2018-06-29 10:20:13.937500,35.45,73.3
183103,2018-06-29 10:20:13.968750,33.24,73.3
183104,2018-06-29 10:20:14.000000,31.12,73.3
183105,2018-06-29 10:20:14.031250,30.86,73.3
183106,2018-06-29 10:20:14.062500,32.36,73.3
183107,2018-06-29 10:20:14.093750,34.26,73.3
183108,2018-06-29 10:20:14.125000,35.22,73.3
183109,2018-06-29 10:20:14.156250,34.65,73.3
183110,2018-06-29 10:20:14.187500,32.33,73.3
183111,2018-06-29 10:20:14.218750,28.01,73.3
183112,2018-06-29 10:20:14.250000,21.63,73.3
183113,2018-06-29 10:20:14.281250,13.59,73.3
183114,2018-06-29 10:20:14.312500,4.51,73.3
183115,2018-06-29 10:20:14.343750,-4.91,73.3
183116,2018-06-29 10:20:14.375000,-13.86,73.3
183117,2018-06-29 10:20:14.406250,-21.55,73.3
183118,2018-06-29 10:20:14.437500,-27.96,73.3
183119,2018-06-29 10:20:14.468750,-33.77,73.3
183120,2018-06-29 10:20:14.500000,-39.71,73.3
183121,2018-06-29 10:20:14.531250,-46.53,73.68
183122,2018-06-29 10:20:14.562500,-55.02,73.68
183123,2018-06-29 10:20:14.593750,-62.67,73.68
183124,2018-06-29 10:20:14.625000,-62.15,73.68
183125,2018-06-29 10:20:14.656250,-48.42,73.68
183126,2018-06-29 10:20:14.687500,-25.67,73.68
183127,2018-06-29 10:20:14.718750,-2.9,73.68
183128,2018-06-29 10:20:14.750000,14.79,73.68
183129,2018-06-29 10:20:14.781250,26.85,73.68
183130,2018-06-29 10:20:14.812500,33.03,73.68
183131,2018-06-29 10:20:14.843750,33.28,73.68
183132,2018-06-29 10:20:14.875000,30.16,73.68
183133,2018-06-29 10:20:14.906250,27.79,73.68
183134,2018-06-29 10:20:14.937500,28.18,73.68
183135,2018-06-29 10:20:14.968750,30.11,73.68
183136,2018-06-29 10:20:15.000000,31.68,73.68
183137,2018-06-29 10:20:15.031250,32.32,73.68
183138,2018-06-29 10:20:15.062500,31.87,73.68
183139,2018-06-29 10:20:15.093750,29.81,73.68
183140,2018-06-29 10:20:15.125000,25.87,73.68
183141,2018-06-29 10:20:15.156250,20.53,73.68
183142,2018-06-29 10:20:15.187500,14.43,73.68
183143,2018-06-29 10:20:15.218750,8.11,73.68
183144,2018-06-29 10:20:15.250000,1.86,73.68
183145,2018-06-29 10:20:15.281250,-4.86,73.68
183146,2018-06-29 10:20:15.312500,-12.63,73.68
183147,2018-06-29 10:20:15.343750,-20.3,73.68
183148,2018-06-29 10:20:15.375000,-25.87,73.68
183149,2018-06-29 10:20:15.406250,-30.0,73.68
183150,2018-06-29 10:20:15.437500,-35.79,73.68
183151,2018-06-29 10:20:15.468750,-44.71,73.68
183152,2018-06-29 10:20:15.500000,-53.69,73.68
183153,2018-06-29 10:20:15.531250,-54.85,74.08
183154,2018-06-29 10:20:15.562500,-40.94,74.08
183155,2018-06-29 10:20:15.593750,-13.97,74.08
183156,2018-06-29 10:20:15.625000,14.87,74.08
183157,2018-06-29 10:20:15.656250,36.95,74.08
183158,2018-06-29 10:20:15.687500,52.69,74.08
183159,2018-06-29 10:20:15.718750,65.04,74.08
183160,2018-06-29 10:20:15.750000,73.27,74.08
183161,2018-06-29 10:20:15.781250,75.63,74.08
183162,2018-06-29 10:20:15.812500,72.21,74.08
183163,2018-06-29 10:20:15.843750,61.0,74.08
183164,2018-06-29 10:20:15.875000,35.14,74.08
183165,2018-06-29 10:20:15.906250,-10.48,74.08
183166,2018-06-29 10:20:15.937500,-72.07,74.08
183167,2018-06-29 10:20:15.968750,-136.97,74.08
183168,2018-06-29 10:20:16.000000,-186.69,74.08
183169,2018-06-29 10:20:16.031250,-201.65,74.08
183170,2018-06-29 10:20:16.062500,-171.35,74.08
183171,2018-06-29 10:20:16.093750,-102.82,74.08
183172,2018-06-29 10:20:16.125000,-17.26,74.08
183173,2018-06-29 10:20:16.156250,61.12,74.08
183174,2018-06-29 10:20:16.187500,115.04,74.08
183175,2018-06-29 10:20:16.218750,139.16,74.08
183176,2018-06-29 10:20:16.250000,138.28,74.08
183177,2018-06-29 10:20:16.281250,120.36,74.08
183178,2018-06-29 10:20:16.312500,90.53,74.08
183179,2018-06-29 10:20:16.343750,51.86,74.08
183180,2018-06-29 10:20:16.375000,11.94,74.08
183181,2018-06-29 10:20:16.406250,-15.44,74.08
183182,2018-06-29 10:20:16.437500,-20.18,74.08
183183,2018-06-29 10:20:16.468750,-5.74,74.08
183184,2018-06-29 10:20:16.500000,14.56,74.08
183185,2018-06-29 10:20:16.531250,30.51,74.5
183186,2018-06-29 10:20:16.562500,41.45,74.5
183187,2018-06-29 10:20:16.593750,50.31,74.5
183188,2018-06-29 10:20:16.625000,57.28,74.5
183189,2018-06-29 10:20:16.656250,61.99,74.5
183190,2018-06-29 10:20:16.687500,67.1,74.5
183191,2018-06-29 10:20:16.718750,74.82,74.5
183192,2018-06-29 10:20:16.750000,81.93,74.5
183193,2018-06-29 10:20:16.781250,79.11,74.5
183194,2018-06-29 10:20:16.812500,56.03,74.5
183195,2018-06-29 10:20:16.843750,11.01,74.5
183196,2018-06-29 10:20:16.875000,-43.63,74.5
183197,2018-06-29 10:20:16.906250,-89.05,74.5
183198,2018-06-29 10:20:16.937500,-112.93,74.5
183199,2018-06-29 10:20:16.968750,-114.95,74.5
183200,2018-06-29 10:20:17.000000,-103.9,74.5
183201,2018-06-29 10:20:17.031250,-90.93,74.5
183202,2018-06-29 10:20:17.062500,-83.18,74.5
183203,2018-06-29 10:20:17.093750,-82.24,74.5
183204,2018-06-29 10:20:17.125000,-88.21,74.5
183205,2018-06-29 10:20:17.156250,-101.73,74.5
183206,2018-06-29 10:20:17.187500,-120.28,74.5
183207,2018-06-29 10:20:17.218750,-134.56,74.5
183208,2018-06-29 10:20:17.250000,-132.67,74.5
183209,2018-06-29 10:20:17.281250,-110.53,74.5
183210,2018-06-29 10:20:17.312500,-76.61,74.5
183211,2018-06-29 10:20:17.343750,-43.87,74.5
183212,2018-06-29 10:20:17.375000,-18.83,74.5
183213,2018-06-29 10:20:17.406250,-1.0,74.5
183214,2018-06-29 10:20:17.437500,10.35,74.5
183215,2018-06-29 10:20:17.468750,14.77,74.5
183216,2018-06-29 10:20:17.500000,14.66,74.5
183217,2018-06-29 10:20:17.531250,15.12,74.9
183218,2018-06-29 10:20:17.562500,18.99,74.9
183219,2018-06-29 10:20:17.593750,24.86,74.9
183220,2018-06-29 10:20:17.625000,30.34,74.9
183221,2018-06-29 10:20:17.656250,33.9,74.9
183222,2018-06-29 10:20:17.687500,34.23,74.9
183223,2018-06-29 10:20:17.718750,30.74,74.9
183224,2018-06-29 10:20:17.750000,23.81,74.9
183225,2018-06-29 10:20:17.781250,13.89,74.9
183226,2018-06-29 10:20:17.812500,1.57,74.9
183227,2018-06-29 10:20:17.843750,-11.31,74.9
183228,2018-06-29 10:20:17.875000,-22.72,74.9
183229,2018-06-29 10:20:17.906250,-33.11,74.9
183230,2018-06-29 10:20:17.937500,-45.1,74.9
183231,2018-06-29 10:20:17.968750,-59.04,74.9
183232,2018-06-29 10:20:18.000000,-68.78,74.9
183233,2018-06-29 10:20:18.031250,-64.96,74.9
183234,2018-06-29 10:20:18.062500,-44.99,74.9
183235,2018-06-29 10:20:18.093750,-17.56,74.9
183236,2018-06-29 10:20:18.125000,6.31,74.9
183237,2018-06-29 10:20:18.156250,23.17,74.9
183238,2018-06-29 10:20:18.187500,34.51,74.9
183239,2018-06-29 10:20:18.218750,40.57,74.9
183240,2018-06-29 10:20:18.250000,41.94,74.9
183241,2018-06-29 10:20:18.281250,42.21,74.9
183242,2018-06-29 10:20:18.312500,44.51,74.9
183243,2018-06-29 10:20:18.343750,48.12,74.9
183244,2018-06-29 10:20:18.375000,50.66,74.9
183245,2018-06-29 10:20:18.406250,50.68,74.9
183246,2018-06-29 10:20:18.437500,47.35,74.9
183247,2018-06-29 10:20:18.468750,39.68,74.9
183248,2018-06-29 10:20:18.500000,27.02,74.9
183249,2018-06-29 10:20:18.531250,10.05,75.3
183250,2018-06-29 10:20:18.562500,-8.76,75.3
183251,2018-06-29 10:20:18.593750,-26.68,75.3
183252,2018-06-29 10:20:18.625000,-43.38,75.3
183253,2018-06-29 10:20:18.656250,-60.69,75.3
183254,2018-06-29 10:20:18.687500,-78.9,75.3
183255,2018-06-29 10:20:18.718750,-93.11,75.3
183256,2018-06-29 10:20:18.750000,-94.05,75.3
183257,2018-06-29 10:20:18.781250,-76.03,75.3
183258,2018-06-29 10:20:18.812500,-43.92,75.3
183259,2018-06-29 10:20:18.843750,-9.63,75.3
183260,2018-06-29 10:20:18.875000,18.78,75.3
183261,2018-06-29 10:20:18.906250,41.2,75.3
183262,2018-06-29 10:20:18.937500,58.56,75.3
183263,2018-06-29 10:20:18.968750,68.32,75.3
183264,2018-06-29 10:20:19.000000,69.77,75.3
183265,2018-06-29 10:20:19.031250,68.21,75.3
183266,2018-06-29 10:20:19.062500,68.68,75.3
183267,2018-06-29 10:20:19.093750,70.09,75.3
183268,2018-06-29 10:20:19.125000,69.73,75.3
183269,2018-06-29 10:20:19.156250,67.78,75.3
183270,2018-06-29 10:20:19.187500,63.98,75.3
183271,2018-06-29 10:20:19.218750,55.37,75.3
183272,2018-06-29 10:20:19.250000,40.24,75.3
183273,2018-06-29 10:20:19.281250,21.71,75.3
183274,2018-06-29 10:20:19.312500,4.46,75.3
183275,2018-06-29 10:20:19.343750,-10.96,75.3
183276,2018-06-29 10:20:19.375000,-27.59,75.3
183277,2018-06-29 10:20:19.406250,-47.15,75.3
183278,2018-06-29 10:20:19.437500,-67.96,75.3
183279,2018-06-29 10:20:19.468750,-83.9,75.3
183280,2018-06-29 10:20:19.500000,-84.53,75.3
183281,2018-06-29 10:20:19.531250,-63.91,75.68
183282,2018-06-29 10:20:19.562500,-29.68,75.68
183283,2018-06-29 10:20:19.593750,4.49,75.68
183284,2018-06-29 10:20:19.625000,32.23,75.68
183285,2018-06-29 10:20:19.656250,53.46,75.68
183286,2018-06-29 10:20:19.687500,66.64,75.68
183287,2018-06-29 10:20:19.718750,70.44,75.68
183288,2018-06-29 10:20:19.750000,68.2,75.68
183289,2018-06-29 10:20:19.781250,65.6,75.68
183290,2018-06-29 10:20:19.812500,65.34,75.68
183291,2018-06-29 10:20:19.843750,65.92,75.68
183292,2018-06-29 10:20:19.875000,64.77,75.68
183293,2018-06-29 10:20:19.906250,60.68,75.68
183294,2018-06-29 10:20:19.937500,53.39,75.68
183295,2018-06-29 10:20:19.968750,42.7,75.68
183296,2018-06-29 10:20:20.000000,28.76,75.68
183297,2018-06-29 10:20:20.031250,12.99,75.68
183298,2018-06-29 10:20:20.062500,-2.11,75.68
183299,2018-06-29 10:20:20.093750,-14.94,75.68
183300,2018-06-29 10:20:20.125000,-26.18,75.68
183301,2018-06-29 10:20:20.156250,-37.99,75.68
183302,2018-06-29 10:20:20.187500,-52.25,75.68
183303,2018-06-29 10:20:20.218750,-66.86,75.68
183304,2018-06-29 10:20:20.250000,-72.51,75.68
183305,2018-06-29 10:20:20.281250,-59.23,75.68
183306,2018-06-29 10:20:20.312500,-28.94,75.68
183307,2018-06-29 10:20:20.343750,5.0,75.68
183308,2018-06-29 10:20:20.375000,31.98,75.68
183309,2018-06-29 10:20:20.406250,50.56,75.68
183310,2018-06-29 10:20:20.437500,61.55,75.68
183311,2018-06-29 10:20:20.468750,64.17,75.68
183312,2018-06-29 10:20:20.500000,60.36,75.68
183313,2018-06-29 10:20:20.531250,55.66,75.98
183314,2018-06-29 10:20:20.562500,53.34,75.98
183315,2018-06-29 10:20:20.593750,52.36,75.98
183316,2018-06-29 10:20:20.625000,51.94,75.98
183317,2018-06-29 10:20:20.656250,52.66,75.98
183318,2018-06-29 10:20:20.687500,52.45,75.98
183319,2018-06-29 10:20:20.718750,48.15,75.98
183320,2018-06-29 10:20:20.750000,41.06,75.98
183321,2018-06-29 10:20:20.781250,35.3,75.98
183322,2018-06-29 10:20:20.812500,31.63,75.98
183323,2018-06-29 10:20:20.843750,27.73,75.98
183324,2018-06-29 10:20:20.875000,22.8,75.98
183325,2018-06-29 10:20:20.906250,18.53,75.98
183326,2018-06-29 10:20:20.937500,16.33,75.98
183327,2018-06-29 10:20:20.968750,15.84,75.98
183328,2018-06-29 10:20:21.000000,15.88,75.98
183329,2018-06-29 10:20:21.031250,16.09,75.98
183330,2018-06-29 10:20:21.062500,19.97,75.98
183331,2018-06-29 10:20:21.093750,35.99,75.98
183332,2018-06-29 10:20:21.125000,69.53,75.98
183333,2018-06-29 10:20:21.156250,112.97,75.98
183334,2018-06-29 10:20:21.187500,151.37,75.98
183335,2018-06-29 10:20:21.218750,175.35,75.98
183336,2018-06-29 10:20:21.250000,178.78,75.98
183337,2018-06-29 10:20:21.281250,153.55,75.98
183338,2018-06-29 10:20:21.312500,99.63,75.98
183339,2018-06-29 10:20:21.343750,30.49,75.98
183340,2018-06-29 10:20:21.375000,-38.2,75.98
183341,2018-06-29 10:20:21.406250,-96.4,75.98
183342,2018-06-29 10:20:21.437500,-137.55,75.98
183343,2018-06-29 10:20:21.468750,-159.85,75.98
183344,2018-06-29 10:20:21.500000,-166.97,75.98
183345,2018-06-29 10:20:21.531250,-162.89,76.3
183346,2018-06-29 10:20:21.562500,-151.35,76.3
183347,2018-06-29 10:20:21.593750,-138.18,76.3
183348,2018-06-29 10:20:21.625000,-128.17,76.3
183349,2018-06-29 10:20:21.656250,-122.09,76.3
183350,2018-06-29 10:20:21.687500,-118.76,76.3
183351,2018-06-29 10:20:21.718750,-116.29,76.3
183352,2018-06-29 10:20:21.750000,-112.36,76.3
183353,2018-06-29 10:20:21.781250,-105.86,76.3
183354,2018-06-29 10:20:21.812500,-97.54,76.3
183355,2018-06-29 10:20:21.843750,-89.37,76.3
183356,2018-06-29 10:20:21.875000,-83.28,76.3
183357,2018-06-29 10:20:21.906250,-76.98,76.3
183358,2018-06-29 10:20:21.937500,-63.22,76.3
183359,2018-06-29 10:20:21.968750,-38.39,76.3
183360,2018-06-29 10:20:22.000000,-7.98,76.3
183361,2018-06-29 10:20:22.031250,20.31,76.3
183362,2018-06-29 10:20:22.062500,43.44,76.3
183363,2018-06-29 10:20:22.093750,60.3,76.3
183364,2018-06-29 10:20:22.125000,69.26,76.3
183365,2018-06-29 10:20:22.156250,70.16,76.3
183366,2018-06-29 10:20:22.187500,65.43,76.3
183367,2018-06-29 10:20:22.218750,58.99,76.3
183368,2018-06-29 10:20:22.250000,54.07,76.3
183369,2018-06-29 10:20:22.281250,50.89,76.3
183370,2018-06-29 10:20:22.312500,46.79,76.3
183371,2018-06-29 10:20:22.343750,40.23,76.3
183372,2018-06-29 10:20:22.375000,32.51,76.3
183373,2018-06-29 10:20:22.406250,25.43,76.3
183374,2018-06-29 10:20:22.437500,20.11,76.3
183375,2018-06-29 10:20:22.468750,17.11,76.3
183376,2018-06-29 10:20:22.500000,14.34,76.3
183377,2018-06-29 10:20:22.531250,7.04,76.53
183378,2018-06-29 10:20:22.562500,-5.88,76.53
183379,2018-06-29 10:20:22.593750,-18.95,76.53
183380,2018-06-29 10:20:22.625000,-26.58,76.53
183381,2018-06-29 10:20:22.656250,-28.44,76.53
183382,2018-06-29 10:20:22.687500,-27.1,76.53
183383,2018-06-29 10:20:22.718750,-24.96,76.53
183384,2018-06-29 10:20:22.750000,-24.83,76.53
183385,2018-06-29 10:20:22.781250,-27.92,76.53
183386,2018-06-29 10:20:22.812500,-28.96,76.53
183387,2018-06-29 10:20:22.843750,-19.3,76.53
183388,2018-06-29 10:20:22.875000,1.75,76.53
183389,2018-06-29 10:20:22.906250,24.21,76.53
183390,2018-06-29 10:20:22.937500,37.94,76.53
183391,2018-06-29 10:20:22.968750,40.93,76.53
183392,2018-06-29 10:20:23.000000,36.42,76.53
183393,2018-06-29 10:20:23.031250,27.12,76.53
183394,2018-06-29 10:20:23.062500,14.85,76.53
183395,2018-06-29 10:20:23.093750,2.88,76.53
183396,2018-06-29 10:20:23.125000,-4.97,76.53
183397,2018-06-29 10:20:23.156250,-7.86,76.53
183398,2018-06-29 10:20:23.187500,-7.67,76.53
183399,2018-06-29 10:20:23.218750,-5.6,76.53
183400,2018-06-29 10:20:23.250000,-2.44,76.53
183401,2018-06-29 10:20:23.281250,-0.49,76.53
183402,2018-06-29 10:20:23.312500,-1.8,76.53
183403,2018-06-29 10:20:23.343750,-5.88,76.53
183404,2018-06-29 10:20:23.375000,-10.78,76.53
183405,2018-06-29 10:20:23.406250,-14.76,76.53
183406,2018-06-29 10:20:23.437500,-16.92,76.53
183407,2018-06-29 10:20:23.468750,-17.75,76.53
183408,2018-06-29 10:20:23.500000,-19.55,76.53
183409,2018-06-29 10:20:23.531250,-24.15,76.88
183410,2018-06-29 10:20:23.562500,-30.26,76.88
183411,2018-06-29 10:20:23.593750,-35.41,76.88
183412,2018-06-29 10:20:23.625000,-40.22,76.88
183413,2018-06-29 10:20:23.656250,-47.76,76.88
183414,2018-06-29 10:20:23.687500,-58.64,76.88
183415,2018-06-29 10:20:23.718750,-68.11,76.88
183416,2018-06-29 10:20:23.750000,-68.45,76.88
183417,2018-06-29 10:20:23.781250,-55.88,76.88
183418,2018-06-29 10:20:23.812500,-34.91,76.88
183419,2018-06-29 10:20:23.843750,-14.4,76.88
183420,2018-06-29 10:20:23.875000,0.35,76.88
183421,2018-06-29 10:20:23.906250,9.97,76.88
183422,2018-06-29 10:20:23.937500,16.74,76.88
183423,2018-06-29 10:20:23.968750,21.01,76.88
183424,2018-06-29 10:20:24.000000,22.42,76.88
183425,2018-06-29 10:20:24.031250,22.37,76.88
183426,2018-06-29 10:20:24.062500,22.66,76.88
183427,2018-06-29 10:20:24.093750,23.37,76.88
183428,2018-06-29 10:20:24.125000,24.54,76.88
183429,2018-06-29 10:20:24.156250,26.68,76.88
183430,2018-06-29 10:20:24.187500,28.36,76.88
183431,2018-06-29 10:20:24.218750,26.75,76.88
183432,2018-06-29 10:20:24.250000,22.59,76.88
183433,2018-06-29 10:20:24.281250,19.96,76.88
183434,2018-06-29 10:20:24.312500,20.42,76.88
183435,2018-06-29 10:20:24.343750,20.99,76.88
183436,2018-06-29 10:20:24.375000,20.17,76.88
183437,2018-06-29 10:20:24.406250,19.97,76.88
183438,2018-06-29 10:20:24.437500,21.33,76.88
183439,2018-06-29 10:20:24.468750,23.07,76.88
183440,2018-06-29 10:20:24.500000,21.51,76.88
183441,2018-06-29 10:20:24.531250,10.15,76.97
183442,2018-06-29 10:20:24.562500,-13.11,76.97
183443,2018-06-29 10:20:24.593750,-40.32,76.97
183444,2018-06-29 10:20:24.625000,-63.12,76.97
183445,2018-06-29 10:20:24.656250,-80.86,76.97
183446,2018-06-29 10:20:24.687500,-93.23,76.97
183447,2018-06-29 10:20:24.718750,-93.95,76.97
183448,2018-06-29 10:20:24.750000,-76.89,76.97
183449,2018-06-29 10:20:24.781250,-43.05,76.97
183450,2018-06-29 10:20:24.812500,-0.49,76.97
183451,2018-06-29 10:20:24.843750,41.3,76.97
183452,2018-06-29 10:20:24.875000,75.07,76.97
183453,2018-06-29 10:20:24.906250,95.72,76.97
183454,2018-06-29 10:20:24.937500,99.64,76.97
183455,2018-06-29 10:20:24.968750,87.73,76.97
183456,2018-06-29 10:20:25.000000,67.01,76.97
183457,2018-06-29 10:20:25.031250,45.55,76.97
183458,2018-06-29 10:20:25.062500,27.07,76.97
183459,2018-06-29 10:20:25.093750,12.85,76.97
183460,2018-06-29 10:20:25.125000,4.34,76.97
183461,2018-06-29 10:20:25.156250,-0.66,76.97
183462,2018-06-29 10:20:25.187500,-8.18,76.97
183463,2018-06-29 10:20:25.218750,-20.57,76.97
183464,2018-06-29 10:20:25.250000,-33.76,76.97
183465,2018-06-29 10:20:25.281250,-43.41,76.97
183466,2018-06-29 10:20:25.312500,-48.03,76.97
183467,2018-06-29 10:20:25.343750,-47.27,76.97
183468,2018-06-29 10:20:25.375000,-42.82,76.97
183469,2018-06-29 10:20:25.406250,-38.95,76.97
183470,2018-06-29 10:20:25.437500,-38.39,76.97
183471,2018-06-29 10:20:25.468750,-39.52,76.97
183472,2018-06-29 10:20:25.500000,-39.57,76.97
183473,2018-06-29 10:20:25.531250,-39.22,77.05
183474,2018-06-29 10:20:25.562500,-41.88,77.05
183475,2018-06-29 10:20:25.593750,-49.47,77.05
183476,2018-06-29 10:20:25.625000,-58.15,77.05
183477,2018-06-29 10:20:25.656250,-58.54,77.05
183478,2018-06-29 10:20:25.687500,-43.89,77.05
183479,2018-06-29 10:20:25.718750,-18.7,77.05
183480,2018-06-29 10:20:25.750000,5.89,77.05
183481,2018-06-29 10:20:25.781250,23.77,77.05
183482,2018-06-29 10:20:25.812500,35.93,77.05
183483,2018-06-29 10:20:25.843750,43.66,77.05
183484,2018-06-29 10:20:25.875000,46.41,77.05
183485,2018-06-29 10:20:25.906250,44.87,77.05
183486,2018-06-29 10:20:25.937500,41.67,77.05
183487,2018-06-29 10:20:25.968750,38.96,77.05
183488,2018-06-29 10:20:26.000000,37.15,77.05
183489,2018-06-29 10:20:26.031250,36.11,77.05
183490,2018-06-29 10:20:26.062500,35.43,77.05
183491,2018-06-29 10:20:26.093750,33.17,77.05
183492,2018-06-29 10:20:26.125000,27.29,77.05
183493,2018-06-29 10:20:26.156250,18.94,77.05
183494,2018-06-29 10:20:26.187500,11.15,77.05
183495,2018-06-29 10:20:26.218750,4.31,77.05
183496,2018-06-29 10:20:26.250000,-3.31,77.05
183497,2018-06-29 10:20:26.281250,-11.82,77.05
183498,2018-06-29 10:20:26.312500,-19.65,77.05
183499,2018-06-29 10:20:26.343750,-26.0,77.05
183500,2018-06-29 10:20:26.375000,-31.32,77.05
183501,2018-06-29 10:20:26.406250,-37.13,77.05
183502,2018-06-29 10:20:26.437500,-45.0,77.05
183503,2018-06-29 10:20:26.468750,-52.74,77.05
183504,2018-06-29 10:20:26.500000,-52.43,77.05
183505,2018-06-29 10:20:26.531250,-37.04,77.1
183506,2018-06-29 10:20:26.562500,-9.27,77.1
183507,2018-06-29 10:20:26.593750,20.09,77.1
183508,2018-06-29 10:20:26.625000,42.39,77.1
183509,2018-06-29 10:20:26.656250,55.42,77.1
183510,2018-06-29 10:20:26.687500,59.52,77.1
183511,2018-06-29 10:20:26.718750,54.93,77.1
183512,2018-06-29 10:20:26.750000,44.25,77.1
183513,2018-06-29 10:20:26.781250,32.79,77.1
183514,2018-06-29 10:20:26.812500,24.39,77.1
183515,2018-06-29 10:20:26.843750,18.82,77.1
183516,2018-06-29 10:20:26.875000,14.31,77.1
183517,2018-06-29 10:20:26.906250,10.47,77.1
183518,2018-06-29 10:20:26.937500,7.38,77.1
183519,2018-06-29 10:20:26.968750,4.15,77.1
183520,2018-06-29 10:20:27.000000,-0.63,77.1
183521,2018-06-29 10:20:27.031250,-7.68,77.1
183522,2018-06-29 10:20:27.062500,-16.76,77.1
183523,2018-06-29 10:20:27.093750,-26.97,77.1
183524,2018-06-29 10:20:27.125000,-37.28,77.1
183525,2018-06-29 10:20:27.156250,-47.04,77.1
183526,2018-06-29 10:20:27.187500,-56.95,77.1
183527,2018-06-29 10:20:27.218750,-67.23,77.1
183528,2018-06-29 10:20:27.250000,-73.56,77.1
183529,2018-06-29 10:20:27.281250,-68.5,77.1
183530,2018-06-29 10:20:27.312500,-50.52,77.1
183531,2018-06-29 10:20:27.343750,-27.01,77.1
183532,2018-06-29 10:20:27.375000,-5.3,77.1
183533,2018-06-29 10:20:27.406250,13.18,77.1
183534,2018-06-29 10:20:27.437500,28.3,77.1
183535,2018-06-29 10:20:27.468750,38.28,77.1
183536,2018-06-29 10:20:27.500000,42.79,77.1
183537,2018-06-29 10:20:27.531250,43.66,77.1
183538,2018-06-29 10:20:27.562500,42.35,77.1
183539,2018-06-29 10:20:27.593750,39.51,77.1
183540,2018-06-29 10:20:27.625000,35.51,77.1
183541,2018-06-29 10:20:27.656250,30.79,77.1
183542,2018-06-29 10:20:27.687500,26.11,77.1
183543,2018-06-29 10:20:27.718750,21.48,77.1
183544,2018-06-29 10:20:27.750000,15.34,77.1
183545,2018-06-29 10:20:27.781250,6.87,77.1
183546,2018-06-29 10:20:27.812500,-1.98,77.1
183547,2018-06-29 10:20:27.843750,-9.34,77.1
183548,2018-06-29 10:20:27.875000,-16.8,77.1
183549,2018-06-29 10:20:27.906250,-27.92,77.1
183550,2018-06-29 10:20:27.937500,-43.97,77.1
183551,2018-06-29 10:20:27.968750,-61.17,77.1
183552,2018-06-29 10:20:28.000000,-71.23,77.1
183553,2018-06-29 10:20:28.031250,-66.42,77.1
183554,2018-06-29 10:20:28.062500,-46.81,77.1
183555,2018-06-29 10:20:28.093750,-21.31,77.1
183556,2018-06-29 10:20:28.125000,0.83,77.1
183557,2018-06-29 10:20:28.156250,16.71,77.1
183558,2018-06-29 10:20:28.187500,26.68,77.1
183559,2018-06-29 10:20:28.218750,29.71,77.1
183560,2018-06-29 10:20:28.250000,25.37,77.1
183561,2018-06-29 10:20:28.281250,17.83,77.1
183562,2018-06-29 10:20:28.312500,13.32,77.1
183563,2018-06-29 10:20:28.343750,14.06,77.1
183564,2018-06-29 10:20:28.375000,18.06,77.1
183565,2018-06-29 10:20:28.406250,23.34,77.1
183566,2018-06-29 10:20:28.437500,28.59,77.1
183567,2018-06-29 10:20:28.468750,31.44,77.1
183568,2018-06-29 10:20:28.500000,29.6,77.1
183569,2018-06-29 10:20:28.531250,22.86,77.12
183570,2018-06-29 10:20:28.562500,13.21,77.12
183571,2018-06-29 10:20:28.593750,3.08,77.12
183572,2018-06-29 10:20:28.625000,-7.36,77.12
183573,2018-06-29 10:20:28.656250,-20.36,77.12
183574,2018-06-29 10:20:28.687500,-37.1,77.12
183575,2018-06-29 10:20:28.718750,-54.65,77.12
183576,2018-06-29 10:20:28.750000,-66.13,77.12
183577,2018-06-29 10:20:28.781250,-63.93,77.12
183578,2018-06-29 10:20:28.812500,-46.25,77.12
183579,2018-06-29 10:20:28.843750,-20.28,77.12
183580,2018-06-29 10:20:28.875000,4.64,77.12
183581,2018-06-29 10:20:28.906250,25.31,77.12
183582,2018-06-29 10:20:28.937500,43.18,77.12
183583,2018-06-29 10:20:28.968750,58.41,77.12
183584,2018-06-29 10:20:29.000000,69.39,77.12
183585,2018-06-29 10:20:29.031250,75.63,77.12
183586,2018-06-29 10:20:29.062500,77.95,77.12
183587,2018-06-29 10:20:29.093750,76.6,77.12
183588,2018-06-29 10:20:29.125000,71.28,77.12
183589,2018-06-29 10:20:29.156250,62.19,77.12
183590,2018-06-29 10:20:29.187500,49.14,77.12
183591,2018-06-29 10:20:29.218750,31.02,77.12
183592,2018-06-29 10:20:29.250000,8.32,77.12
183593,2018-06-29 10:20:29.281250,-14.45,77.12
183594,2018-06-29 10:20:29.312500,-31.28,77.12
183595,2018-06-29 10:20:29.343750,-39.13,77.12
183596,2018-06-29 10:20:29.375000,-39.26,77.12
183597,2018-06-29 10:20:29.406250,-35.72,77.12
183598,2018-06-29 10:20:29.437500,-33.25,77.12
183599,2018-06-29 10:20:29.468750,-34.9,77.12
183600,2018-06-29 10:20:29.500000,-40.79,77.12
183601,2018-06-29 10:20:29.531250,-46.63,77.13
183602,2018-06-29 10:20:29.562500,-42.5,77.13
183603,2018-06-29 10:20:29.593750,-19.23,77.13
183604,2018-06-29 10:20:29.625000,21.13,77.13
183605,2018-06-29 10:20:29.656250,67.32,77.13
183606,2018-06-29 10:20:29.687500,110.8,77.13
183607,2018-06-29 10:20:29.718750,149.16,77.13
183608,2018-06-29 10:20:29.750000,180.45,77.13
183609,2018-06-29 10:20:29.781250,202.41,77.13
183610,2018-06-29 10:20:29.812500,217.33,77.13
183611,2018-06-29 10:20:29.843750,232.91,77.13
183612,2018-06-29 10:20:29.875000,254.87,77.13
183613,2018-06-29 10:20:29.906250,280.4,77.13
183614,2018-06-29 10:20:29.937500,300.92,77.13
183615,2018-06-29 10:20:29.968750,306.37,77.13
183616,2018-06-29 10:20:30.000000,285.46,77.13
183617,2018-06-29 10:20:30.031250,231.76,77.13
183618,2018-06-29 10:20:30.062500,152.54,77.13
183619,2018-06-29 10:20:30.093750,66.04,77.13
183620,2018-06-29 10:20:30.125000,-11.39,77.13
183621,2018-06-29 10:20:30.156250,-72.31,77.13
183622,2018-06-29 10:20:30.187500,-115.75,77.13
183623,2018-06-29 10:20:30.218750,-145.27,77.13
183624,2018-06-29 10:20:30.250000,-170.27,77.13
183625,2018-06-29 10:20:30.281250,-200.38,77.13
183626,2018-06-29 10:20:30.312500,-233.18,77.13
183627,2018-06-29 10:20:30.343750,-253.27,77.13
183628,2018-06-29 10:20:30.375000,-249.18,77.13
183629,2018-06-29 10:20:30.406250,-226.54,77.13
183630,2018-06-29 10:20:30.437500,-199.12,77.13
183631,2018-06-29 10:20:30.468750,-171.47,77.13
183632,2018-06-29 10:20:30.500000,-138.24,77.13
183633,2018-06-29 10:20:30.531250,-98.85,77.13
183634,2018-06-29 10:20:30.562500,-61.94,77.13
183635,2018-06-29 10:20:30.593750,-34.53,77.13
183636,2018-06-29 10:20:30.625000,-16.13,77.13
183637,2018-06-29 10:20:30.656250,-1.78,77.13
183638,2018-06-29 10:20:30.687500,13.4,77.13
183639,2018-06-29 10:20:30.718750,21.75,77.13
183640,2018-06-29 10:20:30.750000,-2.22,77.13
183641,2018-06-29 10:20:30.781250,-71.18,77.13
183642,2018-06-29 10:20:30.812500,-155.79,77.13
183643,2018-06-29 10:20:30.843750,-214.0,77.13
183644,2018-06-29 10:20:30.875000,-235.35,77.13
183645,2018-06-29 10:20:30.906250,-232.15,77.13
183646,2018-06-29 10:20:30.937500,-212.84,77.13
183647,2018-06-29 10:20:30.968750,-186.93,77.13
183648,2018-06-29 10:20:31.000000,-165.8,77.13
183649,2018-06-29 10:20:31.031250,-145.35,77.13
183650,2018-06-29 10:20:31.062500,-113.81,77.13
183651,2018-06-29 10:20:31.093750,-78.89,77.13
183652,2018-06-29 10:20:31.125000,-62.17,77.13
183653,2018-06-29 10:20:31.156250,-69.66,77.13
183654,2018-06-29 10:20:31.187500,-88.41,77.13
183655,2018-06-29 10:20:31.218750,-104.72,77.13
183656,2018-06-29 10:20:31.250000,-112.29,77.13
183657,2018-06-29 10:20:31.281250,-109.36,77.13
183658,2018-06-29 10:20:31.312500,-96.68,77.13
183659,2018-06-29 10:20:31.343750,-79.73,77.13
183660,2018-06-29 10:20:31.375000,-69.8,77.13
183661,2018-06-29 10:20:31.406250,-76.36,77.13
183662,2018-06-29 10:20:31.437500,-94.95,77.13
183663,2018-06-29 10:20:31.468750,-109.65,77.13
183664,2018-06-29 10:20:31.500000,-109.94,77.13
183665,2018-06-29 10:20:31.531250,-96.13,77.1
183666,2018-06-29 10:20:31.562500,-70.65,77.1
183667,2018-06-29 10:20:31.593750,-32.85,77.1
183668,2018-06-29 10:20:31.625000,16.64,77.1
183669,2018-06-29 10:20:31.656250,71.88,77.1
183670,2018-06-29 10:20:31.687500,125.28,77.1
183671,2018-06-29 10:20:31.718750,171.6,77.1
183672,2018-06-29 10:20:31.750000,204.19,77.1
183673,2018-06-29 10:20:31.781250,213.82,77.1
183674,2018-06-29 10:20:31.812500,198.17,77.1
183675,2018-06-29 10:20:31.843750,166.14,77.1
183676,2018-06-29 10:20:31.875000,126.29,77.1
183677,2018-06-29 10:20:31.906250,78.61,77.1
183678,2018-06-29 10:20:31.937500,20.99,77.1
183679,2018-06-29 10:20:31.968750,-42.29,77.1
183680,2018-06-29 10:20:32.000000,-99.05,77.1
183681,2018-06-29 10:20:32.031250,-133.5,77.1
183682,2018-06-29 10:20:32.062500,-133.3,77.1
183683,2018-06-29 10:20:32.093750,-95.69,77.1
183684,2018-06-29 10:20:32.125000,-29.93,77.1
183685,2018-06-29 10:20:32.156250,43.69,77.1
183686,2018-06-29 10:20:32.187500,100.47,77.1
183687,2018-06-29 10:20:32.218750,123.77,77.1
183688,2018-06-29 10:20:32.250000,113.74,77.1
183689,2018-06-29 10:20:32.281250,84.17,77.1
183690,2018-06-29 10:20:32.312500,52.35,77.1
183691,2018-06-29 10:20:32.343750,32.82,77.1
183692,2018-06-29 10:20:32.375000,36.37,77.1
183693,2018-06-29 10:20:32.406250,65.71,77.1
183694,2018-06-29 10:20:32.437500,110.16,77.1
183695,2018-06-29 10:20:32.468750,152.23,77.1
183696,2018-06-29 10:20:32.500000,180.15,77.1
183697,2018-06-29 10:20:32.531250,191.99,77.08
183698,2018-06-29 10:20:32.562500,193.45,77.08
183699,2018-06-29 10:20:32.593750,194.51,77.08
183700,2018-06-29 10:20:32.625000,203.18,77.08
183701,2018-06-29 10:20:32.656250,217.9,77.08
183702,2018-06-29 10:20:32.687500,226.79,77.08
183703,2018-06-29 10:20:32.718750,214.92,77.08
183704,2018-06-29 10:20:32.750000,175.28,77.08
183705,2018-06-29 10:20:32.781250,113.19,77.08
183706,2018-06-29 10:20:32.812500,41.09,77.08
183707,2018-06-29 10:20:32.843750,-27.52,77.08
183708,2018-06-29 10:20:32.875000,-83.21,77.08
183709,2018-06-29 10:20:32.906250,-124.78,77.08
183710,2018-06-29 10:20:32.937500,-152.65,77.08
183711,2018-06-29 10:20:32.968750,-161.84,77.08
183712,2018-06-29 10:20:33.000000,-147.96,77.08
183713,2018-06-29 10:20:33.031250,-112.35,77.08
183714,2018-06-29 10:20:33.062500,-58.9,77.08
183715,2018-06-29 10:20:33.093750,2.96,77.08
183716,2018-06-29 10:20:33.125000,57.32,77.08
183717,2018-06-29 10:20:33.156250,93.94,77.08
183718,2018-06-29 10:20:33.187500,115.23,77.08
183719,2018-06-29 10:20:33.218750,128.5,77.08
183720,2018-06-29 10:20:33.250000,136.65,77.08
183721,2018-06-29 10:20:33.281250,138.21,77.08
183722,2018-06-29 10:20:33.312500,133.01,77.08
183723,2018-06-29 10:20:33.343750,124.66,77.08
183724,2018-06-29 10:20:33.375000,116.81,77.08
183725,2018-06-29 10:20:33.406250,110.67,77.08
183726,2018-06-29 10:20:33.437500,104.5,77.08
183727,2018-06-29 10:20:33.468750,94.09,77.08
183728,2018-06-29 10:20:33.500000,78.9,77.08
183729,2018-06-29 10:20:33.531250,68.85,77.1
183730,2018-06-29 10:20:33.562500,76.48,77.1
183731,2018-06-29 10:20:33.593750,102.05,77.1
183732,2018-06-29 10:20:33.625000,134.02,77.1
183733,2018-06-29 10:20:33.656250,160.99,77.1
183734,2018-06-29 10:20:33.687500,176.93,77.1
183735,2018-06-29 10:20:33.718750,180.69,77.1
183736,2018-06-29 10:20:33.750000,175.2,77.1
183737,2018-06-29 10:20:33.781250,163.42,77.1
183738,2018-06-29 10:20:33.812500,146.21,77.1
183739,2018-06-29 10:20:33.843750,125.67,77.1
183740,2018-06-29 10:20:33.875000,101.42,77.1
183741,2018-06-29 10:20:33.906250,66.6,77.1
183742,2018-06-29 10:20:33.937500,20.93,77.1
183743,2018-06-29 10:20:33.968750,-22.52,77.1
183744,2018-06-29 10:20:34.000000,-57.79,77.1
183745,2018-06-29 10:20:34.031250,-96.55,77.1
183746,2018-06-29 10:20:34.062500,-146.97,77.1
183747,2018-06-29 10:20:34.093750,-200.16,77.1
183748,2018-06-29 10:20:34.125000,-244.59,77.1
183749,2018-06-29 10:20:34.156250,-278.32,77.1
183750,2018-06-29 10:20:34.187500,-304.46,77.1
183751,2018-06-29 10:20:34.218750,-326.69,77.1
183752,2018-06-29 10:20:34.250000,-347.34,77.1
183753,2018-06-29 10:20:34.281250,-361.74,77.1
183754,2018-06-29 10:20:34.312500,-358.54,77.1
183755,2018-06-29 10:20:34.343750,-331.83,77.1
183756,2018-06-29 10:20:34.375000,-289.6,77.1
183757,2018-06-29 10:20:34.406250,-245.44,77.1
183758,2018-06-29 10:20:34.437500,-205.61,77.1
183759,2018-06-29 10:20:34.468750,-168.51,77.1
183760,2018-06-29 10:20:34.500000,-133.97,77.1
183761,2018-06-29 10:20:34.531250,-106.17,77.18
183762,2018-06-29 10:20:34.562500,-86.59,77.18
183763,2018-06-29 10:20:34.593750,-70.63,77.18
183764,2018-06-29 10:20:34.625000,-53.4,77.18
183765,2018-06-29 10:20:34.656250,-33.59,77.18
183766,2018-06-29 10:20:34.687500,-11.8,77.18
183767,2018-06-29 10:20:34.718750,9.17,77.18
183768,2018-06-29 10:20:34.750000,23.42,77.18
183769,2018-06-29 10:20:34.781250,26.87,77.18
183770,2018-06-29 10:20:34.812500,22.47,77.18
183771,2018-06-29 10:20:34.843750,16.65,77.18
183772,2018-06-29 10:20:34.875000,11.62,77.18
183773,2018-06-29 10:20:34.906250,4.39,77.18
183774,2018-06-29 10:20:34.937500,-7.24,77.18
183775,2018-06-29 10:20:34.968750,-18.9,77.18
183776,2018-06-29 10:20:35.000000,-20.37,77.18
183777,2018-06-29 10:20:35.031250,-4.19,77.18
183778,2018-06-29 10:20:35.062500,25.77,77.18
183779,2018-06-29 10:20:35.093750,57.43,77.18
183780,2018-06-29 10:20:35.125000,81.45,77.18
183781,2018-06-29 10:20:35.156250,95.92,77.18
183782,2018-06-29 10:20:35.187500,102.16,77.18
183783,2018-06-29 10:20:35.218750,101.75,77.18
183784,2018-06-29 10:20:35.250000,97.45,77.18
183785,2018-06-29 10:20:35.281250,92.84,77.18
183786,2018-06-29 10:20:35.312500,89.08,77.18
183787,2018-06-29 10:20:35.343750,83.53,77.18
183788,2018-06-29 10:20:35.375000,73.53,77.18
183789,2018-06-29 10:20:35.406250,60.3,77.18
183790,2018-06-29 10:20:35.437500,45.93,77.18
183791,2018-06-29 10:20:35.468750,28.89,77.18
183792,2018-06-29 10:20:35.500000,7.08,77.18
183793,2018-06-29 10:20:35.531250,-16.4,77.27
183794,2018-06-29 10:20:35.562500,-36.01,77.27
183795,2018-06-29 10:20:35.593750,-50.39,77.27
183796,2018-06-29 10:20:35.625000,-62.22,77.27
183797,2018-06-29 10:20:35.656250,-73.66,77.27
183798,2018-06-29 10:20:35.687500,-83.35,77.27
183799,2018-06-29 10:20:35.718750,-84.66,77.27
183800,2018-06-29 10:20:35.750000,-68.91,77.27
183801,2018-06-29 10:20:35.781250,-34.77,77.27
183802,2018-06-29 10:20:35.812500,7.35,77.27
183803,2018-06-29 10:20:35.843750,44.63,77.27
183804,2018-06-29 10:20:35.875000,71.78,77.27
183805,2018-06-29 10:20:35.906250,88.97,77.27
183806,2018-06-29 10:20:35.937500,97.38,77.27
183807,2018-06-29 10:20:35.968750,99.81,77.27
183808,2018-06-29 10:20:36.000000,98.06,77.27
183809,2018-06-29 10:20:36.031250,88.78,77.27
183810,2018-06-29 10:20:36.062500,70.1,77.27
183811,2018-06-29 10:20:36.093750,50.28,77.27
183812,2018-06-29 10:20:36.125000,40.42,77.27
183813,2018-06-29 10:20:36.156250,40.54,77.27
183814,2018-06-29 10:20:36.187500,40.17,77.27
183815,2018-06-29 10:20:36.218750,30.48,77.27
183816,2018-06-29 10:20:36.250000,11.21,77.27
183817,2018-06-29 10:20:36.281250,-12.85,77.27
183818,2018-06-29 10:20:36.312500,-37.17,77.27
183819,2018-06-29 10:20:36.343750,-58.85,77.27
183820,2018-06-29 10:20:36.375000,-76.42,77.27
183821,2018-06-29 10:20:36.406250,-87.93,77.27
183822,2018-06-29 10:20:36.437500,-86.8,77.27
183823,2018-06-29 10:20:36.468750,-65.27,77.27
183824,2018-06-29 10:20:36.500000,-26.58,77.27
183825,2018-06-29 10:20:36.531250,13.69,77.38
183826,2018-06-29 10:20:36.562500,42.68,77.38
183827,2018-06-29 10:20:36.593750,58.55,77.38
183828,2018-06-29 10:20:36.625000,62.98,77.38
183829,2018-06-29 10:20:36.656250,56.14,77.38
183830,2018-06-29 10:20:36.687500,41.95,77.38
183831,2018-06-29 10:20:36.718750,29.04,77.38
183832,2018-06-29 10:20:36.750000,22.55,77.38
183833,2018-06-29 10:20:36.781250,20.65,77.38
183834,2018-06-29 10:20:36.812500,20.02,77.38
183835,2018-06-29 10:20:36.843750,19.95,77.38
183836,2018-06-29 10:20:36.875000,20.34,77.38
183837,2018-06-29 10:20:36.906250,19.66,77.38
183838,2018-06-29 10:20:36.937500,14.91,77.38
183839,2018-06-29 10:20:36.968750,2.46,77.38
183840,2018-06-29 10:20:37.000000,-19.78,77.38
183841,2018-06-29 10:20:37.031250,-50.27,77.38
183842,2018-06-29 10:20:37.062500,-84.52,77.38
183843,2018-06-29 10:20:37.093750,-117.71,77.38
183844,2018-06-29 10:20:37.125000,-142.46,77.38
183845,2018-06-29 10:20:37.156250,-144.59,77.38
183846,2018-06-29 10:20:37.187500,-113.49,77.38
183847,2018-06-29 10:20:37.218750,-60.2,77.38
183848,2018-06-29 10:20:37.250000,-13.47,77.38
183849,2018-06-29 10:20:37.281250,6.19,77.38
183850,2018-06-29 10:20:37.312500,3.07,77.38
183851,2018-06-29 10:20:37.343750,1.34,77.38
183852,2018-06-29 10:20:37.375000,22.15,77.38
183853,2018-06-29 10:20:37.406250,59.53,77.38
183854,2018-06-29 10:20:37.437500,90.48,77.38
183855,2018-06-29 10:20:37.468750,108.85,77.38
183856,2018-06-29 10:20:37.500000,126.6,77.38
183857,2018-06-29 10:20:37.531250,142.87,77.5
183858,2018-06-29 10:20:37.562500,138.76,77.5
183859,2018-06-29 10:20:37.593750,103.1,77.5
183860,2018-06-29 10:20:37.625000,42.2,77.5
183861,2018-06-29 10:20:37.656250,-31.19,77.5
183862,2018-06-29 10:20:37.687500,-100.68,77.5
183863,2018-06-29 10:20:37.718750,-145.42,77.5
183864,2018-06-29 10:20:37.750000,-156.92,77.5
183865,2018-06-29 10:20:37.781250,-151.34,77.5
183866,2018-06-29 10:20:37.812500,-146.16,77.5
183867,2018-06-29 10:20:37.843750,-136.51,77.5
183868,2018-06-29 10:20:37.875000,-110.19,77.5
183869,2018-06-29 10:20:37.906250,-68.08,77.5
183870,2018-06-29 10:20:37.937500,-17.39,77.5
183871,2018-06-29 10:20:37.968750,35.03,77.5
183872,2018-06-29 10:20:38.000000,78.26,77.5
183873,2018-06-29 10:20:38.031250,104.99,77.5
183874,2018-06-29 10:20:38.062500,121.51,77.5
183875,2018-06-29 10:20:38.093750,137.61,77.5
183876,2018-06-29 10:20:38.125000,155.12,77.5
183877,2018-06-29 10:20:38.156250,171.91,77.5
183878,2018-06-29 10:20:38.187500,184.78,77.5
183879,2018-06-29 10:20:38.218750,186.08,77.5
183880,2018-06-29 10:20:38.250000,168.11,77.5
183881,2018-06-29 10:20:38.281250,131.22,77.5
183882,2018-06-29 10:20:38.312500,83.23,77.5
183883,2018-06-29 10:20:38.343750,34.2,77.5
183884,2018-06-29 10:20:38.375000,-6.55,77.5
183885,2018-06-29 10:20:38.406250,-34.2,77.5
183886,2018-06-29 10:20:38.437500,-52.03,77.5
183887,2018-06-29 10:20:38.468750,-67.59,77.5
183888,2018-06-29 10:20:38.500000,-82.96,77.5
183889,2018-06-29 10:20:38.531250,-91.47,77.63
183890,2018-06-29 10:20:38.562500,-87.0,77.63
183891,2018-06-29 10:20:38.593750,-75.91,77.63
183892,2018-06-29 10:20:38.625000,-73.89,77.63
183893,2018-06-29 10:20:38.656250,-88.41,77.63
183894,2018-06-29 10:20:38.687500,-108.23,77.63
183895,2018-06-29 10:20:38.718750,-113.8,77.63
183896,2018-06-29 10:20:38.750000,-95.66,77.63
183897,2018-06-29 10:20:38.781250,-61.16,77.63
183898,2018-06-29 10:20:38.812500,-24.86,77.63
183899,2018-06-29 10:20:38.843750,3.94,77.63
183900,2018-06-29 10:20:38.875000,23.45,77.63
183901,2018-06-29 10:20:38.906250,34.69,77.63
183902,2018-06-29 10:20:38.937500,39.96,77.63
183903,2018-06-29 10:20:38.968750,42.61,77.63
183904,2018-06-29 10:20:39.000000,44.66,77.63
183905,2018-06-29 10:20:39.031250,46.26,77.63
183906,2018-06-29 10:20:39.062500,48.0,77.63
183907,2018-06-29 10:20:39.093750,50.27,77.63
183908,2018-06-29 10:20:39.125000,51.21,77.63
183909,2018-06-29 10:20:39.156250,48.46,77.63
183910,2018-06-29 10:20:39.187500,42.06,77.63
183911,2018-06-29 10:20:39.218750,34.51,77.63
183912,2018-06-29 10:20:39.250000,28.29,77.63
183913,2018-06-29 10:20:39.281250,23.61,77.63
183914,2018-06-29 10:20:39.312500,18.74,77.63
183915,2018-06-29 10:20:39.343750,13.07,77.63
183916,2018-06-29 10:20:39.375000,7.9,77.63
183917,2018-06-29 10:20:39.406250,3.41,77.63
183918,2018-06-29 10:20:39.437500,-2.18,77.63
183919,2018-06-29 10:20:39.468750,-10.51,77.63
183920,2018-06-29 10:20:39.500000,-21.54,77.63
183921,2018-06-29 10:20:39.531250,-31.41,77.88
183922,2018-06-29 10:20:39.562500,-31.47,77.88
183923,2018-06-29 10:20:39.593750,-15.76,77.88
183924,2018-06-29 10:20:39.625000,9.83,77.88
183925,2018-06-29 10:20:39.656250,32.44,77.88
183926,2018-06-29 10:20:39.687500,45.09,77.88
183927,2018-06-29 10:20:39.718750,48.9,77.88
183928,2018-06-29 10:20:39.750000,46.17,77.88
183929,2018-06-29 10:20:39.781250,37.91,77.88
183930,2018-06-29 10:20:39.812500,25.77,77.88
183931,2018-06-29 10:20:39.843750,11.39,77.88
183932,2018-06-29 10:20:39.875000,-5.05,77.88
183933,2018-06-29 10:20:39.906250,-23.2,77.88
183934,2018-06-29 10:20:39.937500,-41.43,77.88
183935,2018-06-29 10:20:39.968750,-58.04,77.88
183936,2018-06-29 10:20:40.000000,-70.52,77.88
183937,2018-06-29 10:20:40.031250,-73.47,77.88
183938,2018-06-29 10:20:40.062500,-62.34,77.88
183939,2018-06-29 10:20:40.093750,-39.91,77.88
183940,2018-06-29 10:20:40.125000,-15.38,77.88
183941,2018-06-29 10:20:40.156250,2.44,77.88
183942,2018-06-29 10:20:40.187500,9.1,77.88
183943,2018-06-29 10:20:40.218750,3.92,77.88
183944,2018-06-29 10:20:40.250000,-11.7,77.88
183945,2018-06-29 10:20:40.281250,-35.46,77.88
183946,2018-06-29 10:20:40.312500,-62.03,77.88
183947,2018-06-29 10:20:40.343750,-80.55,77.88
183948,2018-06-29 10:20:40.375000,-79.98,77.88
183949,2018-06-29 10:20:40.406250,-59.48,77.88
183950,2018-06-29 10:20:40.437500,-29.85,77.88
183951,2018-06-29 10:20:40.468750,-3.77,77.88
183952,2018-06-29 10:20:40.500000,12.01,77.88
183953,2018-06-29 10:20:40.531250,15.82,78.08
183954,2018-06-29 10:20:40.562500,7.74,78.08
183955,2018-06-29 10:20:40.593750,-9.35,78.08
183956,2018-06-29 10:20:40.625000,-27.34,78.08
183957,2018-06-29 10:20:40.656250,-35.81,78.08
183958,2018-06-29 10:20:40.687500,-29.32,78.08
183959,2018-06-29 10:20:40.718750,-10.14,78.08
183960,2018-06-29 10:20:40.750000,15.91,78.08
183961,2018-06-29 10:20:40.781250,42.66,78.08
183962,2018-06-29 10:20:40.812500,63.24,78.08
183963,2018-06-29 10:20:40.843750,72.55,78.08
183964,2018-06-29 10:20:40.875000,70.46,78.08
183965,2018-06-29 10:20:40.906250,59.67,78.08
183966,2018-06-29 10:20:40.937500,42.11,78.08
183967,2018-06-29 10:20:40.968750,20.78,78.08
183968,2018-06-29 10:20:41.000000,0.07,78.08
183969,2018-06-29 10:20:41.031250,-19.42,78.08
183970,2018-06-29 10:20:41.062500,-41.24,78.08
183971,2018-06-29 10:20:41.093750,-64.89,78.08
183972,2018-06-29 10:20:41.125000,-82.32,78.08
183973,2018-06-29 10:20:41.156250,-83.67,78.08
183974,2018-06-29 10:20:41.187500,-64.08,78.08
183975,2018-06-29 10:20:41.218750,-28.07,78.08
183976,2018-06-29 10:20:41.250000,12.2,78.08
183977,2018-06-29 10:20:41.281250,46.15,78.08
183978,2018-06-29 10:20:41.312500,70.94,78.08
183979,2018-06-29 10:20:41.343750,87.66,78.08
183980,2018-06-29 10:20:41.375000,96.79,78.08
183981,2018-06-29 10:20:41.406250,98.9,78.08
183982,2018-06-29 10:20:41.437500,95.07,78.08
183983,2018-06-29 10:20:41.468750,86.26,78.08
183984,2018-06-29 10:20:41.500000,74.48,78.08
183985,2018-06-29 10:20:41.531250,62.92,78.28
183986,2018-06-29 10:20:41.562500,53.53,78.28
183987,2018-06-29 10:20:41.593750,45.81,78.28
183988,2018-06-29 10:20:41.625000,39.21,78.28
183989,2018-06-29 10:20:41.656250,34.34,78.28
183990,2018-06-29 10:20:41.687500,31.13,78.28
183991,2018-06-29 10:20:41.718750,28.72,78.28
183992,2018-06-29 10:20:41.750000,27.92,78.28
183993,2018-06-29 10:20:41.781250,30.08,78.28
183994,2018-06-29 10:20:41.812500,31.83,78.28
183995,2018-06-29 10:20:41.843750,24.56,78.28
183996,2018-06-29 10:20:41.875000,2.27,78.28
183997,2018-06-29 10:20:41.906250,-30.87,78.28
183998,2018-06-29 10:20:41.937500,-62.32,78.28
183999,2018-06-29 10:20:41.968750,-81.31,78.28
184000,2018-06-29 10:20:42.000000,-88.02,78.28
184001,2018-06-29 10:20:42.031250,-91.27,78.28
184002,2018-06-29 10:20:42.062500,-96.04,78.28
184003,2018-06-29 10:20:42.093750,-97.19,78.28
184004,2018-06-29 10:20:42.125000,-88.85,78.28
184005,2018-06-29 10:20:42.156250,-73.42,78.28
184006,2018-06-29 10:20:42.187500,-56.29,78.28
184007,2018-06-29 10:20:42.218750,-39.86,78.28
184008,2018-06-29 10:20:42.250000,-26.94,78.28
184009,2018-06-29 10:20:42.281250,-21.35,78.28
184010,2018-06-29 10:20:42.312500,-21.91,78.28
184011,2018-06-29 10:20:42.343750,-22.64,78.28
184012,2018-06-29 10:20:42.375000,-19.3,78.28
184013,2018-06-29 10:20:42.406250,-11.62,78.28
184014,2018-06-29 10:20:42.437500,-2.02,78.28
184015,2018-06-29 10:20:42.468750,6.04,78.28
184016,2018-06-29 10:20:42.500000,11.33,78.28
184017,2018-06-29 10:20:42.531250,16.15,78.47
184018,2018-06-29 10:20:42.562500,21.76,78.47
184019,2018-06-29 10:20:42.593750,24.6,78.47
184020,2018-06-29 10:20:42.625000,20.66,78.47
184021,2018-06-29 10:20:42.656250,13.0,78.47
184022,2018-06-29 10:20:42.687500,10.86,78.47
184023,2018-06-29 10:20:42.718750,19.6,78.47
184024,2018-06-29 10:20:42.750000,34.93,78.47
184025,2018-06-29 10:20:42.781250,48.38,78.47
184026,2018-06-29 10:20:42.812500,55.63,78.47
184027,2018-06-29 10:20:42.843750,57.3,78.47
184028,2018-06-29 10:20:42.875000,54.23,78.47
184029,2018-06-29 10:20:42.906250,46.39,78.47
184030,2018-06-29 10:20:42.937500,35.26,78.47
184031,2018-06-29 10:20:42.968750,23.69,78.47
184032,2018-06-29 10:20:43.000000,13.17,78.47
184033,2018-06-29 10:20:43.031250,3.71,78.47
184034,2018-06-29 10:20:43.062500,-4.48,78.47
184035,2018-06-29 10:20:43.093750,-11.43,78.47
184036,2018-06-29 10:20:43.125000,-17.75,78.47
184037,2018-06-29 10:20:43.156250,-23.5,78.47
184038,2018-06-29 10:20:43.187500,-28.46,78.47
184039,2018-06-29 10:20:43.218750,-33.28,78.47
184040,2018-06-29 10:20:43.250000,-38.83,78.47
184041,2018-06-29 10:20:43.281250,-44.95,78.47
184042,2018-06-29 10:20:43.312500,-51.06,78.47
184043,2018-06-29 10:20:43.343750,-57.13,78.47
184044,2018-06-29 10:20:43.375000,-63.42,78.47
184045,2018-06-29 10:20:43.406250,-70.17,78.47
184046,2018-06-29 10:20:43.437500,-77.1,78.47
184047,2018-06-29 10:20:43.468750,-81.13,78.47
184048,2018-06-29 10:20:43.500000,-77.14,78.47
184049,2018-06-29 10:20:43.531250,-64.6,78.63
184050,2018-06-29 10:20:43.562500,-50.19,78.63
184051,2018-06-29 10:20:43.593750,-40.03,78.63
184052,2018-06-29 10:20:43.625000,-33.43,78.63
184053,2018-06-29 10:20:43.656250,-27.27,78.63
184054,2018-06-29 10:20:43.687500,-21.15,78.63
184055,2018-06-29 10:20:43.718750,-15.23,78.63
184056,2018-06-29 10:20:43.750000,-7.43,78.63
184057,2018-06-29 10:20:43.781250,4.46,78.63
184058,2018-06-29 10:20:43.812500,19.62,78.63
184059,2018-06-29 10:20:43.843750,35.21,78.63
184060,2018-06-29 10:20:43.875000,49.04,78.63
184061,2018-06-29 10:20:43.906250,60.24,78.63
184062,2018-06-29 10:20:43.937500,67.93,78.63
184063,2018-06-29 10:20:43.968750,71.04,78.63
184064,2018-06-29 10:20:44.000000,69.59,78.63
184065,2018-06-29 10:20:44.031250,64.41,78.63
184066,2018-06-29 10:20:44.062500,55.46,78.63
184067,2018-06-29 10:20:44.093750,43.05,78.63
184068,2018-06-29 10:20:44.125000,29.79,78.63
184069,2018-06-29 10:20:44.156250,17.94,78.63
184070,2018-06-29 10:20:44.187500,5.57,78.63
184071,2018-06-29 10:20:44.218750,-10.12,78.63
184072,2018-06-29 10:20:44.250000,-26.35,78.63
184073,2018-06-29 10:20:44.281250,-35.89,78.63
184074,2018-06-29 10:20:44.312500,-34.82,78.63
184075,2018-06-29 10:20:44.343750,-25.88,78.63
184076,2018-06-29 10:20:44.375000,-14.41,78.63
184077,2018-06-29 10:20:44.406250,-3.7,78.63
184078,2018-06-29 10:20:44.437500,5.79,78.63
184079,2018-06-29 10:20:44.468750,14.26,78.63
184080,2018-06-29 10:20:44.500000,20.98,78.63
184081,2018-06-29 10:20:44.531250,25.34,78.82
184082,2018-06-29 10:20:44.562500,28.15,78.82
184083,2018-06-29 10:20:44.593750,30.29,78.82
184084,2018-06-29 10:20:44.625000,30.83,78.82
184085,2018-06-29 10:20:44.656250,28.42,78.82
184086,2018-06-29 10:20:44.687500,23.27,78.82
184087,2018-06-29 10:20:44.718750,16.36,78.82
184088,2018-06-29 10:20:44.750000,8.5,78.82
184089,2018-06-29 10:20:44.781250,0.87,78.82
184090,2018-06-29 10:20:44.812500,-5.51,78.82
184091,2018-06-29 10:20:44.843750,-11.22,78.82
184092,2018-06-29 10:20:44.875000,-17.81,78.82
184093,2018-06-29 10:20:44.906250,-25.79,78.82
184094,2018-06-29 10:20:44.937500,-34.82,78.82
184095,2018-06-29 10:20:44.968750,-44.93,78.82
184096,2018-06-29 10:20:45.000000,-56.37,78.82
184097,2018-06-29 10:20:45.031250,-68.39,78.82
184098,2018-06-29 10:20:45.062500,-78.44,78.82
184099,2018-06-29 10:20:45.093750,-82.43,78.82
184100,2018-06-29 10:20:45.125000,-76.15,78.82
184101,2018-06-29 10:20:45.156250,-57.81,78.82
184102,2018-06-29 10:20:45.187500,-30.68,78.82
184103,2018-06-29 10:20:45.218750,-2.28,78.82
184104,2018-06-29 10:20:45.250000,20.5,78.82
184105,2018-06-29 10:20:45.281250,35.4,78.82
184106,2018-06-29 10:20:45.312500,43.77,78.82
184107,2018-06-29 10:20:45.343750,47.28,78.82
184108,2018-06-29 10:20:45.375000,47.18,78.82
184109,2018-06-29 10:20:45.406250,45.3,78.82
184110,2018-06-29 10:20:45.437500,43.66,78.82
184111,2018-06-29 10:20:45.468750,43.26,78.82
184112,2018-06-29 10:20:45.500000,43.62,78.82
184113,2018-06-29 10:20:45.531250,43.04,79.02
184114,2018-06-29 10:20:45.562500,39.47,79.02
184115,2018-06-29 10:20:45.593750,32.49,79.02
184116,2018-06-29 10:20:45.625000,24.12,79.02
184117,2018-06-29 10:20:45.656250,16.84,79.02
184118,2018-06-29 10:20:45.687500,11.16,79.02
184119,2018-06-29 10:20:45.718750,6.21,79.02
184120,2018-06-29 10:20:45.750000,1.66,79.02
184121,2018-06-29 10:20:45.781250,-2.0,79.02
184122,2018-06-29 10:20:45.812500,-4.85,79.02
184123,2018-06-29 10:20:45.843750,-8.07,79.02
184124,2018-06-29 10:20:45.875000,-12.07,79.02
184125,2018-06-29 10:20:45.906250,-15.49,79.02
184126,2018-06-29 10:20:45.937500,-17.4,79.02
184127,2018-06-29 10:20:45.968750,-19.97,79.02
184128,2018-06-29 10:20:46.000000,-26.25,79.02
184129,2018-06-29 10:20:46.031250,-35.77,79.02
184130,2018-06-29 10:20:46.062500,-43.26,79.02
184131,2018-06-29 10:20:46.093750,-42.23,79.02
184132,2018-06-29 10:20:46.125000,-31.49,79.02
184133,2018-06-29 10:20:46.156250,-16.85,79.02
184134,2018-06-29 10:20:46.187500,-4.19,79.02
184135,2018-06-29 10:20:46.218750,5.79,79.02
184136,2018-06-29 10:20:46.250000,13.8,79.02
184137,2018-06-29 10:20:46.281250,18.01,79.02
184138,2018-06-29 10:20:46.312500,17.1,79.02
184139,2018-06-29 10:20:46.343750,12.75,79.02
184140,2018-06-29 10:20:46.375000,7.52,79.02
184141,2018-06-29 10:20:46.406250,3.26,79.02
184142,2018-06-29 10:20:46.437500,1.13,79.02
184143,2018-06-29 10:20:46.468750,1.19,79.02
184144,2018-06-29 10:20:46.500000,2.52,79.02
184145,2018-06-29 10:20:46.531250,4.51,79.22
184146,2018-06-29 10:20:46.562500,6.92,79.22
184147,2018-06-29 10:20:46.593750,9.15,79.22
184148,2018-06-29 10:20:46.625000,10.59,79.22
184149,2018-06-29 10:20:46.656250,10.56,79.22
184150,2018-06-29 10:20:46.687500,7.62,79.22
184151,2018-06-29 10:20:46.718750,0.72,79.22
184152,2018-06-29 10:20:46.750000,-8.49,79.22
184153,2018-06-29 10:20:46.781250,-16.83,79.22
184154,2018-06-29 10:20:46.812500,-22.92,79.22
184155,2018-06-29 10:20:46.843750,-27.59,79.22
184156,2018-06-29 10:20:46.875000,-31.81,79.22
184157,2018-06-29 10:20:46.906250,-36.45,79.22
184158,2018-06-29 10:20:46.937500,-42.13,79.22
184159,2018-06-29 10:20:46.968750,-46.34,79.22
184160,2018-06-29 10:20:47.000000,-43.54,79.22
184161,2018-06-29 10:20:47.031250,-31.26,79.22
184162,2018-06-29 10:20:47.062500,-13.8,79.22
184163,2018-06-29 10:20:47.093750,2.43,79.22
184164,2018-06-29 10:20:47.125000,14.75,79.22
184165,2018-06-29 10:20:47.156250,23.86,79.22
184166,2018-06-29 10:20:47.187500,30.07,79.22
184167,2018-06-29 10:20:47.218750,32.53,79.22
184168,2018-06-29 10:20:47.250000,31.74,79.22
184169,2018-06-29 10:20:47.281250,29.84,79.22
184170,2018-06-29 10:20:47.312500,28.39,79.22
184171,2018-06-29 10:20:47.343750,27.46,79.22
184172,2018-06-29 10:20:47.375000,26.53,79.22
184173,2018-06-29 10:20:47.406250,25.06,79.22
184174,2018-06-29 10:20:47.437500,22.25,79.22
184175,2018-06-29 10:20:47.468750,17.65,79.22
184176,2018-06-29 10:20:47.500000,11.44,79.22
184177,2018-06-29 10:20:47.531250,4.38,79.43
184178,2018-06-29 10:20:47.562500,-2.06,79.43
184179,2018-06-29 10:20:47.593750,-6.56,79.43
184180,2018-06-29 10:20:47.625000,-9.53,79.43
184181,2018-06-29 10:20:47.656250,-12.9,79.43
184182,2018-06-29 10:20:47.687500,-18.32,79.43
184183,2018-06-29 10:20:47.718750,-25.91,79.43
184184,2018-06-29 10:20:47.750000,-34.69,79.43
184185,2018-06-29 10:20:47.781250,-43.03,79.43
184186,2018-06-29 10:20:47.812500,-49.43,79.43
184187,2018-06-29 10:20:47.843750,-53.68,79.43
184188,2018-06-29 10:20:47.875000,-54.74,79.43
184189,2018-06-29 10:20:47.906250,-48.49,79.43
184190,2018-06-29 10:20:47.937500,-32.11,79.43
184191,2018-06-29 10:20:47.968750,-10.08,79.43
184192,2018-06-29 10:20:48.000000,9.87,79.43
184193,2018-06-29 10:20:48.031250,24.48,79.43
184194,2018-06-29 10:20:48.062500,34.43,79.43
184195,2018-06-29 10:20:48.093750,39.9,79.43
184196,2018-06-29 10:20:48.125000,41.08,79.43
184197,2018-06-29 10:20:48.156250,39.76,79.43
184198,2018-06-29 10:20:48.187500,38.1,79.43
184199,2018-06-29 10:20:48.218750,36.9,79.43
184200,2018-06-29 10:20:48.250000,36.0,79.43
184201,2018-06-29 10:20:48.281250,34.56,79.43
184202,2018-06-29 10:20:48.312500,31.63,79.43
184203,2018-06-29 10:20:48.343750,27.35,79.43
184204,2018-06-29 10:20:48.375000,22.52,79.43
184205,2018-06-29 10:20:48.406250,17.17,79.43
184206,2018-06-29 10:20:48.437500,11.35,79.43
184207,2018-06-29 10:20:48.468750,6.46,79.43
184208,2018-06-29 10:20:48.500000,3.32,79.43
184209,2018-06-29 10:20:48.531250,0.13,79.57
184210,2018-06-29 10:20:48.562500,-4.89,79.57
184211,2018-06-29 10:20:48.593750,-10.72,79.57
184212,2018-06-29 10:20:48.625000,-15.43,79.57
184213,2018-06-29 10:20:48.656250,-18.89,79.57
184214,2018-06-29 10:20:48.687500,-22.74,79.57
184215,2018-06-29 10:20:48.718750,-28.53,79.57
184216,2018-06-29 10:20:48.750000,-34.85,79.57
184217,2018-06-29 10:20:48.781250,-36.06,79.57
184218,2018-06-29 10:20:48.812500,-26.86,79.57
184219,2018-06-29 10:20:48.843750,-8.82,79.57
184220,2018-06-29 10:20:48.875000,9.83,79.57
184221,2018-06-29 10:20:48.906250,21.7,79.57
184222,2018-06-29 10:20:48.937500,24.86,79.57
184223,2018-06-29 10:20:48.968750,20.93,79.57
184224,2018-06-29 10:20:49.000000,11.83,79.57
184225,2018-06-29 10:20:49.031250,0.0,79.57
184226,2018-06-29 10:20:49.062500,-11.0,79.57
184227,2018-06-29 10:20:49.093750,-18.42,79.57
184228,2018-06-29 10:20:49.125000,-21.58,79.57
184229,2018-06-29 10:20:49.156250,-19.53,79.57
184230,2018-06-29 10:20:49.187500,-9.27,79.57
184231,2018-06-29 10:20:49.218750,10.4,79.57
184232,2018-06-29 10:20:49.250000,35.27,79.57
184233,2018-06-29 10:20:49.281250,58.4,79.57
184234,2018-06-29 10:20:49.312500,74.35,79.57
184235,2018-06-29 10:20:49.343750,79.28,79.57
184236,2018-06-29 10:20:49.375000,72.38,79.57
184237,2018-06-29 10:20:49.406250,57.77,79.57
184238,2018-06-29 10:20:49.437500,40.19,79.57
184239,2018-06-29 10:20:49.468750,21.72,79.57
184240,2018-06-29 10:20:49.500000,5.19,79.57
184241,2018-06-29 10:20:49.531250,-6.29,79.68
184242,2018-06-29 10:20:49.562500,-13.12,79.68
184243,2018-06-29 10:20:49.593750,-14.81,79.68
184244,2018-06-29 10:20:49.625000,-5.35,79.68
184245,2018-06-29 10:20:49.656250,18.49,79.68
184246,2018-06-29 10:20:49.687500,50.79,79.68
184247,2018-06-29 10:20:49.718750,83.13,79.68
184248,2018-06-29 10:20:49.750000,111.0,79.68
184249,2018-06-29 10:20:49.781250,130.62,79.68
184250,2018-06-29 10:20:49.812500,138.61,79.68
184251,2018-06-29 10:20:49.843750,138.15,79.68
184252,2018-06-29 10:20:49.875000,135.81,79.68
184253,2018-06-29 10:20:49.906250,130.51,79.68
184254,2018-06-29 10:20:49.937500,115.95,79.68
184255,2018-06-29 10:20:49.968750,93.21,79.68
184256,2018-06-29 10:20:50.000000,69.37,79.68
184257,2018-06-29 10:20:50.031250,46.22,79.68
184258,2018-06-29 10:20:50.062500,21.02,79.68
184259,2018-06-29 10:20:50.093750,-5.3,79.68
184260,2018-06-29 10:20:50.125000,-29.53,79.68
184261,2018-06-29 10:20:50.156250,-51.87,79.68
184262,2018-06-29 10:20:50.187500,-74.76,79.68
184263,2018-06-29 10:20:50.218750,-99.22,79.68
184264,2018-06-29 10:20:50.250000,-123.09,79.68
184265,2018-06-29 10:20:50.281250,-140.86,79.68
184266,2018-06-29 10:20:50.312500,-147.43,79.68
184267,2018-06-29 10:20:50.343750,-142.49,79.68
184268,2018-06-29 10:20:50.375000,-130.23,79.68
184269,2018-06-29 10:20:50.406250,-116.2,79.68
184270,2018-06-29 10:20:50.437500,-103.97,79.68
184271,2018-06-29 10:20:50.468750,-92.72,79.68
184272,2018-06-29 10:20:50.500000,-79.33,79.68
184273,2018-06-29 10:20:50.531250,-62.05,79.75
184274,2018-06-29 10:20:50.562500,-39.18,79.75
184275,2018-06-29 10:20:50.593750,-8.06,79.75
184276,2018-06-29 10:20:50.625000,31.55,79.75
184277,2018-06-29 10:20:50.656250,78.07,79.75
184278,2018-06-29 10:20:50.687500,131.45,79.75
184279,2018-06-29 10:20:50.718750,188.15,79.75
184280,2018-06-29 10:20:50.750000,233.3,79.75
184281,2018-06-29 10:20:50.781250,244.57,79.75
184282,2018-06-29 10:20:50.812500,206.53,79.75
184283,2018-06-29 10:20:50.843750,123.28,79.75
184284,2018-06-29 10:20:50.875000,17.09,79.75
184285,2018-06-29 10:20:50.906250,-88.68,79.75
184286,2018-06-29 10:20:50.937500,-182.78,79.75
184287,2018-06-29 10:20:50.968750,-259.79,79.75
184288,2018-06-29 10:20:51.000000,-309.02,79.75
184289,2018-06-29 10:20:51.031250,-317.7,79.75
184290,2018-06-29 10:20:51.062500,-286.17,79.75
184291,2018-06-29 10:20:51.093750,-234.85,79.75
184292,2018-06-29 10:20:51.125000,-187.57,79.75
184293,2018-06-29 10:20:51.156250,-149.77,79.75
184294,2018-06-29 10:20:51.187500,-114.88,79.75
184295,2018-06-29 10:20:51.218750,-85.76,79.75
184296,2018-06-29 10:20:51.250000,-71.55,79.75
184297,2018-06-29 10:20:51.281250,-71.57,79.75
184298,2018-06-29 10:20:51.312500,-77.99,79.75
184299,2018-06-29 10:20:51.343750,-85.39,79.75
184300,2018-06-29 10:20:51.375000,-90.14,79.75
184301,2018-06-29 10:20:51.406250,-89.24,79.75
184302,2018-06-29 10:20:51.437500,-82.33,79.75
184303,2018-06-29 10:20:51.468750,-69.06,79.75
184304,2018-06-29 10:20:51.500000,-48.58,79.75
184305,2018-06-29 10:20:51.531250,-25.07,79.82
184306,2018-06-29 10:20:51.562500,-7.08,79.82
184307,2018-06-29 10:20:51.593750,1.39,79.82
184308,2018-06-29 10:20:51.625000,2.86,79.82
184309,2018-06-29 10:20:51.656250,0.2,79.82
184310,2018-06-29 10:20:51.687500,-6.41,79.82
184311,2018-06-29 10:20:51.718750,-16.06,79.82
184312,2018-06-29 10:20:51.750000,-23.87,79.82
184313,2018-06-29 10:20:51.781250,-23.11,79.82
184314,2018-06-29 10:20:51.812500,-10.37,79.82
184315,2018-06-29 10:20:51.843750,11.76,79.82
184316,2018-06-29 10:20:51.875000,36.64,79.82
184317,2018-06-29 10:20:51.906250,59.32,79.82
184318,2018-06-29 10:20:51.937500,78.42,79.82
184319,2018-06-29 10:20:51.968750,92.9,79.82
184320,2018-06-29 10:20:52.000000,100.98,79.82
184321,2018-06-29 10:20:52.031250,103.54,79.82
184322,2018-06-29 10:20:52.062500,104.46,79.82
184323,2018-06-29 10:20:52.093750,106.46,79.82
184324,2018-06-29 10:20:52.125000,110.17,79.82
184325,2018-06-29 10:20:52.156250,115.71,79.82
184326,2018-06-29 10:20:52.187500,121.75,79.82
184327,2018-06-29 10:20:52.218750,125.15,79.82
184328,2018-06-29 10:20:52.250000,123.82,79.82
184329,2018-06-29 10:20:52.281250,117.47,79.82
184330,2018-06-29 10:20:52.312500,105.13,79.82
184331,2018-06-29 10:20:52.343750,85.13,79.82
184332,2018-06-29 10:20:52.375000,57.33,79.82
184333,2018-06-29 10:20:52.406250,23.58,79.82
184334,2018-06-29 10:20:52.437500,-13.46,79.82
184335,2018-06-29 10:20:52.468750,-50.62,79.82
184336,2018-06-29 10:20:52.500000,-84.25,79.82
184337,2018-06-29 10:20:52.531250,-109.25,79.87
184338,2018-06-29 10:20:52.562500,-118.76,79.87
184339,2018-06-29 10:20:52.593750,-108.48,79.87
184340,2018-06-29 10:20:52.625000,-81.9,79.87
184341,2018-06-29 10:20:52.656250,-47.79,79.87
184342,2018-06-29 10:20:52.687500,-12.73,79.87
184343,2018-06-29 10:20:52.718750,20.35,79.87
184344,2018-06-29 10:20:52.750000,47.95,79.87
184345,2018-06-29 10:20:52.781250,65.81,79.87
184346,2018-06-29 10:20:52.812500,73.19,79.87
184347,2018-06-29 10:20:52.843750,74.23,79.87
184348,2018-06-29 10:20:52.875000,73.18,79.87
184349,2018-06-29 10:20:52.906250,70.86,79.87
184350,2018-06-29 10:20:52.937500,67.09,79.87
184351,2018-06-29 10:20:52.968750,62.71,79.87
184352,2018-06-29 10:20:53.000000,57.02,79.87
184353,2018-06-29 10:20:53.031250,47.71,79.87
184354,2018-06-29 10:20:53.062500,35.09,79.87
184355,2018-06-29 10:20:53.093750,22.47,79.87
184356,2018-06-29 10:20:53.125000,11.79,79.87
184357,2018-06-29 10:20:53.156250,1.67,79.87
184358,2018-06-29 10:20:53.187500,-9.5,79.87
184359,2018-06-29 10:20:53.218750,-20.95,79.87
184360,2018-06-29 10:20:53.250000,-31.51,79.87
184361,2018-06-29 10:20:53.281250,-42.61,79.87
184362,2018-06-29 10:20:53.312500,-57.17,79.87
184363,2018-06-29 10:20:53.343750,-75.46,79.87
184364,2018-06-29 10:20:53.375000,-92.71,79.87
184365,2018-06-29 10:20:53.406250,-100.13,79.87
184366,2018-06-29 10:20:53.437500,-90.24,79.87
184367,2018-06-29 10:20:53.468750,-64.29,79.87
184368,2018-06-29 10:20:53.500000,-32.16,79.87
184369,2018-06-29 10:20:53.531250,-2.72,79.93
184370,2018-06-29 10:20:53.562500,21.87,79.93
184371,2018-06-29 10:20:53.593750,41.34,79.93
184372,2018-06-29 10:20:53.625000,53.52,79.93
184373,2018-06-29 10:20:53.656250,57.45,79.93
184374,2018-06-29 10:20:53.687500,56.09,79.93
184375,2018-06-29 10:20:53.718750,52.88,79.93
184376,2018-06-29 10:20:53.750000,48.36,79.93
184377,2018-06-29 10:20:53.781250,42.24,79.93
184378,2018-06-29 10:20:53.812500,36.07,79.93
184379,2018-06-29 10:20:53.843750,30.6,79.93
184380,2018-06-29 10:20:53.875000,23.02,79.93
184381,2018-06-29 10:20:53.906250,10.54,79.93
184382,2018-06-29 10:20:53.937500,-4.98,79.93
184383,2018-06-29 10:20:53.968750,-17.84,79.93
184384,2018-06-29 10:20:54.000000,-24.35,79.93
184385,2018-06-29 10:20:54.031250,-26.4,79.93
184386,2018-06-29 10:20:54.062500,-27.47,79.93
184387,2018-06-29 10:20:54.093750,-27.26,79.93
184388,2018-06-29 10:20:54.125000,-24.04,79.93
184389,2018-06-29 10:20:54.156250,-20.22,79.93
184390,2018-06-29 10:20:54.187500,-21.05,79.93
184391,2018-06-29 10:20:54.218750,-30.08,79.93
184392,2018-06-29 10:20:54.250000,-46.7,79.93
184393,2018-06-29 10:20:54.281250,-64.0,79.93
184394,2018-06-29 10:20:54.312500,-70.18,79.93
184395,2018-06-29 10:20:54.343750,-58.44,79.93
184396,2018-06-29 10:20:54.375000,-34.63,79.93
184397,2018-06-29 10:20:54.406250,-10.22,79.93
184398,2018-06-29 10:20:54.437500,9.92,79.93
184399,2018-06-29 10:20:54.468750,27.59,79.93
184400,2018-06-29 10:20:54.500000,42.91,79.93
184401,2018-06-29 10:20:54.531250,53.54,79.97
184402,2018-06-29 10:20:54.562500,60.9,79.97
184403,2018-06-29 10:20:54.593750,69.53,79.97
184404,2018-06-29 10:20:54.625000,79.95,79.97
184405,2018-06-29 10:20:54.656250,87.67,79.97
184406,2018-06-29 10:20:54.687500,88.67,79.97
184407,2018-06-29 10:20:54.718750,81.71,79.97
184408,2018-06-29 10:20:54.750000,66.7,79.97
184409,2018-06-29 10:20:54.781250,45.38,79.97
184410,2018-06-29 10:20:54.812500,21.92,79.97
184411,2018-06-29 10:20:54.843750,0.37,79.97
184412,2018-06-29 10:20:54.875000,-18.39,79.97
184413,2018-06-29 10:20:54.906250,-35.77,79.97
184414,2018-06-29 10:20:54.937500,-49.9,79.97
184415,2018-06-29 10:20:54.968750,-54.37,79.97
184416,2018-06-29 10:20:55.000000,-47.52,79.97
184417,2018-06-29 10:20:55.031250,-38.47,79.97
184418,2018-06-29 10:20:55.062500,-37.11,79.97
184419,2018-06-29 10:20:55.093750,-43.45,79.97
184420,2018-06-29 10:20:55.125000,-50.43,79.97
184421,2018-06-29 10:20:55.156250,-48.07,79.97
184422,2018-06-29 10:20:55.187500,-26.25,79.97
184423,2018-06-29 10:20:55.218750,15.58,79.97
184424,2018-06-29 10:20:55.250000,63.17,79.97
184425,2018-06-29 10:20:55.281250,99.96,79.97
184426,2018-06-29 10:20:55.312500,119.3,79.97
184427,2018-06-29 10:20:55.343750,123.96,79.97
184428,2018-06-29 10:20:55.375000,123.83,79.97
184429,2018-06-29 10:20:55.406250,131.55,79.97
184430,2018-06-29 10:20:55.437500,151.03,79.97
184431,2018-06-29 10:20:55.468750,173.19,79.97
184432,2018-06-29 10:20:55.500000,186.2,79.97
184433,2018-06-29 10:20:55.531250,185.68,79.93
184434,2018-06-29 10:20:55.562500,174.94,79.93
184435,2018-06-29 10:20:55.593750,159.42,79.93
184436,2018-06-29 10:20:55.625000,139.64,79.93
184437,2018-06-29 10:20:55.656250,109.67,79.93
184438,2018-06-29 10:20:55.687500,67.53,79.93
184439,2018-06-29 10:20:55.718750,25.08,79.93
184440,2018-06-29 10:20:55.750000,-0.84,79.93
184441,2018-06-29 10:20:55.781250,-7.04,79.93
184442,2018-06-29 10:20:55.812500,-7.72,79.93
184443,2018-06-29 10:20:55.843750,-19.89,79.93
184444,2018-06-29 10:20:55.875000,-46.39,79.93
184445,2018-06-29 10:20:55.906250,-71.75,79.93
184446,2018-06-29 10:20:55.937500,-77.08,79.93
184447,2018-06-29 10:20:55.968750,-59.57,79.93
184448,2018-06-29 10:20:56.000000,-30.83,79.93
184449,2018-06-29 10:20:56.031250,-0.14,79.93
184450,2018-06-29 10:20:56.062500,28.86,79.93
184451,2018-06-29 10:20:56.093750,50.53,79.93
184452,2018-06-29 10:20:56.125000,60.52,79.93
184453,2018-06-29 10:20:56.156250,62.43,79.93
184454,2018-06-29 10:20:56.187500,61.7,79.93
184455,2018-06-29 10:20:56.218750,57.63,79.93
184456,2018-06-29 10:20:56.250000,46.17,79.93
184457,2018-06-29 10:20:56.281250,29.47,79.93
184458,2018-06-29 10:20:56.312500,18.82,79.93
184459,2018-06-29 10:20:56.343750,22.69,79.93
184460,2018-06-29 10:20:56.375000,33.38,79.93
184461,2018-06-29 10:20:56.406250,34.4,79.93
184462,2018-06-29 10:20:56.437500,16.02,79.93
184463,2018-06-29 10:20:56.468750,-24.88,79.93
184464,2018-06-29 10:20:56.500000,-88.96,79.93
184465,2018-06-29 10:20:56.531250,-169.03,79.9
184466,2018-06-29 10:20:56.562500,-251.14,79.9
184467,2018-06-29 10:20:56.593750,-323.3,79.9
184468,2018-06-29 10:20:56.625000,-373.35,79.9
184469,2018-06-29 10:20:56.656250,-386.69,79.9
184470,2018-06-29 10:20:56.687500,-359.53,79.9
184471,2018-06-29 10:20:56.718750,-308.85,79.9
184472,2018-06-29 10:20:56.750000,-258.96,79.9
184473,2018-06-29 10:20:56.781250,-221.21,79.9
184474,2018-06-29 10:20:56.812500,-191.39,79.9
184475,2018-06-29 10:20:56.843750,-161.31,79.9
184476,2018-06-29 10:20:56.875000,-127.01,79.9
184477,2018-06-29 10:20:56.906250,-90.04,79.9
184478,2018-06-29 10:20:56.937500,-55.7,79.9
184479,2018-06-29 10:20:56.968750,-28.31,79.9
184480,2018-06-29 10:20:57.000000,-6.32,79.9
184481,2018-06-29 10:20:57.031250,16.34,79.9
184482,2018-06-29 10:20:57.062500,45.05,79.9
184483,2018-06-29 10:20:57.093750,81.52,79.9
184484,2018-06-29 10:20:57.125000,123.01,79.9
184485,2018-06-29 10:20:57.156250,163.41,79.9
184486,2018-06-29 10:20:57.187500,197.62,79.9
184487,2018-06-29 10:20:57.218750,225.1,79.9
184488,2018-06-29 10:20:57.250000,248.1,79.9
184489,2018-06-29 10:20:57.281250,267.91,79.9
184490,2018-06-29 10:20:57.312500,281.9,79.9
184491,2018-06-29 10:20:57.343750,284.74,79.9
184492,2018-06-29 10:20:57.375000,273.81,79.9
184493,2018-06-29 10:20:57.406250,250.2,79.9
184494,2018-06-29 10:20:57.437500,214.4,79.9
184495,2018-06-29 10:20:57.468750,168.54,79.9
184496,2018-06-29 10:20:57.500000,121.96,79.9
184497,2018-06-29 10:20:57.531250,82.92,79.82
184498,2018-06-29 10:20:57.562500,45.37,79.82
184499,2018-06-29 10:20:57.593750,-5.62,79.82
184500,2018-06-29 10:20:57.625000,-76.1,79.82
184501,2018-06-29 10:20:57.656250,-157.27,79.82
184502,2018-06-29 10:20:57.687500,-236.29,79.82
184503,2018-06-29 10:20:57.718750,-309.51,79.82
184504,2018-06-29 10:20:57.750000,-384.7,79.82
184505,2018-06-29 10:20:57.781250,-466.1,79.82
184506,2018-06-29 10:20:57.812500,-533.76,79.82
184507,2018-06-29 10:20:57.843750,-547.66,79.82
184508,2018-06-29 10:20:57.875000,-484.33,79.82
184509,2018-06-29 10:20:57.906250,-361.93,79.82
184510,2018-06-29 10:20:57.937500,-219.07,79.82
184511,2018-06-29 10:20:57.968750,-83.23,79.82
184512,2018-06-29 10:20:58.000000,28.77,79.82
184513,2018-06-29 10:20:58.031250,100.63,79.82
184514,2018-06-29 10:20:58.062500,127.0,79.82
184515,2018-06-29 10:20:58.093750,122.35,79.82
184516,2018-06-29 10:20:58.125000,105.08,79.82
184517,2018-06-29 10:20:58.156250,82.66,79.82
184518,2018-06-29 10:20:58.187500,59.53,79.82
184519,2018-06-29 10:20:58.218750,43.76,79.82
184520,2018-06-29 10:20:58.250000,36.67,79.82
184521,2018-06-29 10:20:58.281250,28.57,79.82
184522,2018-06-29 10:20:58.312500,11.92,79.82
184523,2018-06-29 10:20:58.343750,-7.33,79.82
184524,2018-06-29 10:20:58.375000,-14.86,79.82
184525,2018-06-29 10:20:58.406250,-3.02,79.82
184526,2018-06-29 10:20:58.437500,20.94,79.82
184527,2018-06-29 10:20:58.468750,44.79,79.82
184528,2018-06-29 10:20:58.500000,65.34,79.82
184529,2018-06-29 10:20:58.531250,86.9,79.73
184530,2018-06-29 10:20:58.562500,110.85,79.73
184531,2018-06-29 10:20:58.593750,133.17,79.73
184532,2018-06-29 10:20:58.625000,147.13,79.73
184533,2018-06-29 10:20:58.656250,145.9,79.73
184534,2018-06-29 10:20:58.687500,128.37,79.73
184535,2018-06-29 10:20:58.718750,101.96,79.73
184536,2018-06-29 10:20:58.750000,73.77,79.73
184537,2018-06-29 10:20:58.781250,44.54,79.73
184538,2018-06-29 10:20:58.812500,16.02,79.73
184539,2018-06-29 10:20:58.843750,-5.93,79.73
184540,2018-06-29 10:20:58.875000,-20.05,79.73
184541,2018-06-29 10:20:58.906250,-30.42,79.73
184542,2018-06-29 10:20:58.937500,-36.9,79.73
184543,2018-06-29 10:20:58.968750,-36.48,79.73
184544,2018-06-29 10:20:59.000000,-32.15,79.73
184545,2018-06-29 10:20:59.031250,-31.41,79.73
184546,2018-06-29 10:20:59.062500,-38.56,79.73
184547,2018-06-29 10:20:59.093750,-51.52,79.73
184548,2018-06-29 10:20:59.125000,-59.37,79.73
184549,2018-06-29 10:20:59.156250,-45.55,79.73
184550,2018-06-29 10:20:59.187500,-6.38,79.73
184551,2018-06-29 10:20:59.218750,36.9,79.73
184552,2018-06-29 10:20:59.250000,59.11,79.73
184553,2018-06-29 10:20:59.281250,58.95,79.73
184554,2018-06-29 10:20:59.312500,51.61,79.73
184555,2018-06-29 10:20:59.343750,45.75,79.73
184556,2018-06-29 10:20:59.375000,44.36,79.73
184557,2018-06-29 10:20:59.406250,53.23,79.73
184558,2018-06-29 10:20:59.437500,71.68,79.73
184559,2018-06-29 10:20:59.468750,89.16,79.73
184560,2018-06-29 10:20:59.500000,99.66,79.73
184561,2018-06-29 10:20:59.531250,105.91,79.62
184562,2018-06-29 10:20:59.562500,106.57,79.62
184563,2018-06-29 10:20:59.593750,94.88,79.62
184564,2018-06-29 10:20:59.625000,72.31,79.62
184565,2018-06-29 10:20:59.656250,51.04,79.62
184566,2018-06-29 10:20:59.687500,39.9,79.62
184567,2018-06-29 10:20:59.718750,36.49,79.62
184568,2018-06-29 10:20:59.750000,38.05,79.62
184569,2018-06-29 10:20:59.781250,53.23,79.62
184570,2018-06-29 10:20:59.812500,94.96,79.62
184571,2018-06-29 10:20:59.843750,161.45,79.62
184572,2018-06-29 10:20:59.875000,230.62,79.62
184573,2018-06-29 10:20:59.906250,276.81,79.62
184574,2018-06-29 10:20:59.937500,287.63,79.62
184575,2018-06-29 10:20:59.968750,263.25,79.62
184576,2018-06-29 10:21:00.000000,210.53,79.62
184577,2018-06-29 10:21:00.031250,141.07,79.62
184578,2018-06-29 10:21:00.062500,65.99,79.62
184579,2018-06-29 10:21:00.093750,-7.77,79.62
184580,2018-06-29 10:21:00.125000,-73.41,79.62
184581,2018-06-29 10:21:00.156250,-125.69,79.62
184582,2018-06-29 10:21:00.187500,-167.51,79.62
184583,2018-06-29 10:21:00.218750,-205.77,79.62
184584,2018-06-29 10:21:00.250000,-241.28,79.62
184585,2018-06-29 10:21:00.281250,-269.88,79.62
184586,2018-06-29 10:21:00.312500,-289.43,79.62
184587,2018-06-29 10:21:00.343750,-300.61,79.62
184588,2018-06-29 10:21:00.375000,-304.01,79.62
184589,2018-06-29 10:21:00.406250,-297.96,79.62
184590,2018-06-29 10:21:00.437500,-278.98,79.62
184591,2018-06-29 10:21:00.468750,-245.0,79.62
184592,2018-06-29 10:21:00.500000,-197.73,79.62
184593,2018-06-29 10:21:00.531250,-141.05,79.42
184594,2018-06-29 10:21:00.562500,-79.61,79.42
184595,2018-06-29 10:21:00.593750,-18.97,79.42
184596,2018-06-29 10:21:00.625000,36.65,79.42
184597,2018-06-29 10:21:00.656250,85.38,79.42
184598,2018-06-29 10:21:00.687500,123.6,79.42
184599,2018-06-29 10:21:00.718750,145.56,79.42
184600,2018-06-29 10:21:00.750000,150.52,79.42
184601,2018-06-29 10:21:00.781250,146.35,79.42
184602,2018-06-29 10:21:00.812500,143.38,79.42
184603,2018-06-29 10:21:00.843750,144.13,79.42
184604,2018-06-29 10:21:00.875000,139.35,79.42
184605,2018-06-29 10:21:00.906250,119.42,79.42
184606,2018-06-29 10:21:00.937500,89.92,79.42
184607,2018-06-29 10:21:00.968750,63.76,79.42
184608,2018-06-29 10:21:01.000000,38.36,79.42
184609,2018-06-29 10:21:01.031250,-0.8,79.42
184610,2018-06-29 10:21:01.062500,-55.86,79.42
184611,2018-06-29 10:21:01.093750,-114.03,79.42
184612,2018-06-29 10:21:01.125000,-162.31,79.42
184613,2018-06-29 10:21:01.156250,-191.93,79.42
184614,2018-06-29 10:21:01.187500,-200.04,79.42
184615,2018-06-29 10:21:01.218750,-195.57,79.42
184616,2018-06-29 10:21:01.250000,-192.87,79.42
184617,2018-06-29 10:21:01.281250,-198.74,79.42
184618,2018-06-29 10:21:01.312500,-212.6,79.42
184619,2018-06-29 10:21:01.343750,-232.85,79.42
184620,2018-06-29 10:21:01.375000,-255.38,79.42
184621,2018-06-29 10:21:01.406250,-269.08,79.42
184622,2018-06-29 10:21:01.437500,-258.57,79.42
184623,2018-06-29 10:21:01.468750,-216.07,79.42
184624,2018-06-29 10:21:01.500000,-150.84,79.42
184625,2018-06-29 10:21:01.531250,-81.19,79.2
184626,2018-06-29 10:21:01.562500,-19.12,79.2
184627,2018-06-29 10:21:01.593750,31.01,79.2
184628,2018-06-29 10:21:01.625000,66.41,79.2
184629,2018-06-29 10:21:01.656250,89.76,79.2
184630,2018-06-29 10:21:01.687500,112.05,79.2
184631,2018-06-29 10:21:01.718750,139.01,79.2
184632,2018-06-29 10:21:01.750000,159.74,79.2
184633,2018-06-29 10:21:01.781250,161.0,79.2
184634,2018-06-29 10:21:01.812500,147.44,79.2
184635,2018-06-29 10:21:01.843750,133.65,79.2
184636,2018-06-29 10:21:01.875000,121.84,79.2
184637,2018-06-29 10:21:01.906250,102.75,79.2
184638,2018-06-29 10:21:01.937500,75.47,79.2
184639,2018-06-29 10:21:01.968750,48.88,79.2
184640,2018-06-29 10:21:02.000000,24.95,79.2
184641,2018-06-29 10:21:02.031250,-3.38,79.2
184642,2018-06-29 10:21:02.062500,-36.81,79.2
184643,2018-06-29 10:21:02.093750,-65.47,79.2
184644,2018-06-29 10:21:02.125000,-79.76,79.2
184645,2018-06-29 10:21:02.156250,-74.84,79.2
184646,2018-06-29 10:21:02.187500,-50.02,79.2
184647,2018-06-29 10:21:02.218750,-13.29,79.2
184648,2018-06-29 10:21:02.250000,23.32,79.2
184649,2018-06-29 10:21:02.281250,54.83,79.2
184650,2018-06-29 10:21:02.312500,79.77,79.2
184651,2018-06-29 10:21:02.343750,91.85,79.2
184652,2018-06-29 10:21:02.375000,89.96,79.2
184653,2018-06-29 10:21:02.406250,86.41,79.2
184654,2018-06-29 10:21:02.437500,92.79,79.2
184655,2018-06-29 10:21:02.468750,106.41,79.2
184656,2018-06-29 10:21:02.500000,117.28,79.2
184657,2018-06-29 10:21:02.531250,119.45,78.97
184658,2018-06-29 10:21:02.562500,112.7,78.97
184659,2018-06-29 10:21:02.593750,99.32,78.97
184660,2018-06-29 10:21:02.625000,82.55,78.97
184661,2018-06-29 10:21:02.656250,65.21,78.97
184662,2018-06-29 10:21:02.687500,48.22,78.97
184663,2018-06-29 10:21:02.718750,30.86,78.97
184664,2018-06-29 10:21:02.750000,12.97,78.97
184665,2018-06-29 10:21:02.781250,-3.82,78.97
184666,2018-06-29 10:21:02.812500,-19.91,78.97
184667,2018-06-29 10:21:02.843750,-38.42,78.97
184668,2018-06-29 10:21:02.875000,-56.61,78.97
184669,2018-06-29 10:21:02.906250,-64.74,78.97
184670,2018-06-29 10:21:02.937500,-60.19,78.97
184671,2018-06-29 10:21:02.968750,-52.5,78.97
184672,2018-06-29 10:21:03.000000,-46.52,78.97
184673,2018-06-29 10:21:03.031250,-31.84,78.97
184674,2018-06-29 10:21:03.062500,1.12,78.97
184675,2018-06-29 10:21:03.093750,44.74,78.97
184676,2018-06-29 10:21:03.125000,82.05,78.97
184677,2018-06-29 10:21:03.156250,102.81,78.97
184678,2018-06-29 10:21:03.187500,106.24,78.97
184679,2018-06-29 10:21:03.218750,96.13,78.97
184680,2018-06-29 10:21:03.250000,78.78,78.97
184681,2018-06-29 10:21:03.281250,60.65,78.97
184682,2018-06-29 10:21:03.312500,45.04,78.97
184683,2018-06-29 10:21:03.343750,31.65,78.97
184684,2018-06-29 10:21:03.375000,19.98,78.97
184685,2018-06-29 10:21:03.406250,13.75,78.97
184686,2018-06-29 10:21:03.437500,18.86,78.97
184687,2018-06-29 10:21:03.468750,33.5,78.97
184688,2018-06-29 10:21:03.500000,46.14,78.97
184689,2018-06-29 10:21:03.531250,47.37,78.73
184690,2018-06-29 10:21:03.562500,38.42,78.73
184691,2018-06-29 10:21:03.593750,25.45,78.73
184692,2018-06-29 10:21:03.625000,11.74,78.73
184693,2018-06-29 10:21:03.656250,-1.54,78.73
184694,2018-06-29 10:21:03.687500,-11.67,78.73
184695,2018-06-29 10:21:03.718750,-15.91,78.73
184696,2018-06-29 10:21:03.750000,-15.18,78.73
184697,2018-06-29 10:21:03.781250,-13.7,78.73
184698,2018-06-29 10:21:03.812500,-14.23,78.73
184699,2018-06-29 10:21:03.843750,-12.98,78.73
184700,2018-06-29 10:21:03.875000,-1.51,78.73
184701,2018-06-29 10:21:03.906250,23.07,78.73
184702,2018-06-29 10:21:03.937500,52.45,78.73
184703,2018-06-29 10:21:03.968750,75.68,78.73
184704,2018-06-29 10:21:04.000000,89.29,78.73
184705,2018-06-29 10:21:04.031250,95.94,78.73
184706,2018-06-29 10:21:04.062500,98.71,78.73
184707,2018-06-29 10:21:04.093750,100.81,78.73
184708,2018-06-29 10:21:04.125000,107.0,78.73
184709,2018-06-29 10:21:04.156250,121.38,78.73
184710,2018-06-29 10:21:04.187500,143.38,78.73
184711,2018-06-29 10:21:04.218750,168.43,78.73
184712,2018-06-29 10:21:04.250000,192.66,78.73
184713,2018-06-29 10:21:04.281250,213.6,78.73
184714,2018-06-29 10:21:04.312500,226.27,78.73
184715,2018-06-29 10:21:04.343750,223.5,78.73
184716,2018-06-29 10:21:04.375000,201.88,78.73
184717,2018-06-29 10:21:04.406250,165.0,78.73
184718,2018-06-29 10:21:04.437500,120.88,78.73
184719,2018-06-29 10:21:04.468750,78.19,78.73
184720,2018-06-29 10:21:04.500000,44.07,78.73
184721,2018-06-29 10:21:04.531250,22.74,78.5
184722,2018-06-29 10:21:04.562500,13.69,78.5
184723,2018-06-29 10:21:04.593750,11.89,78.5
184724,2018-06-29 10:21:04.625000,12.1,78.5
184725,2018-06-29 10:21:04.656250,12.46,78.5
184726,2018-06-29 10:21:04.687500,12.22,78.5
184727,2018-06-29 10:21:04.718750,9.09,78.5
184728,2018-06-29 10:21:04.750000,1.02,78.5
184729,2018-06-29 10:21:04.781250,-12.6,78.5
184730,2018-06-29 10:21:04.812500,-34.38,78.5
184731,2018-06-29 10:21:04.843750,-66.94,78.5
184732,2018-06-29 10:21:04.875000,-103.8,78.5
184733,2018-06-29 10:21:04.906250,-131.45,78.5
184734,2018-06-29 10:21:04.937500,-145.15,78.5
184735,2018-06-29 10:21:04.968750,-152.94,78.5
184736,2018-06-29 10:21:05.000000,-161.94,78.5
184737,2018-06-29 10:21:05.031250,-171.54,78.5
184738,2018-06-29 10:21:05.062500,-178.25,78.5
184739,2018-06-29 10:21:05.093750,-179.5,78.5
184740,2018-06-29 10:21:05.125000,-175.41,78.5
184741,2018-06-29 10:21:05.156250,-168.97,78.5
184742,2018-06-29 10:21:05.187500,-159.75,78.5
184743,2018-06-29 10:21:05.218750,-145.51,78.5
184744,2018-06-29 10:21:05.250000,-137.16,78.5
184745,2018-06-29 10:21:05.281250,-156.7,78.5
184746,2018-06-29 10:21:05.312500,-210.18,78.5
184747,2018-06-29 10:21:05.343750,-276.97,78.5
184748,2018-06-29 10:21:05.375000,-331.61,78.5
184749,2018-06-29 10:21:05.406250,-363.42,78.5
184750,2018-06-29 10:21:05.437500,-373.68,78.5
184751,2018-06-29 10:21:05.468750,-366.76,78.5
184752,2018-06-29 10:21:05.500000,-345.72,78.5
184753,2018-06-29 10:21:05.531250,-311.8,78.3
184754,2018-06-29 10:21:05.562500,-266.2,78.3
184755,2018-06-29 10:21:05.593750,-210.91,78.3
184756,2018-06-29 10:21:05.625000,-149.47,78.3
184757,2018-06-29 10:21:05.656250,-87.96,78.3
184758,2018-06-29 10:21:05.687500,-30.84,78.3
184759,2018-06-29 10:21:05.718750,21.49,78.3
184760,2018-06-29 10:21:05.750000,67.3,78.3
184761,2018-06-29 10:21:05.781250,102.43,78.3
184762,2018-06-29 10:21:05.812500,126.84,78.3
184763,2018-06-29 10:21:05.843750,143.53,78.3
184764,2018-06-29 10:21:05.875000,152.53,78.3
184765,2018-06-29 10:21:05.906250,152.7,78.3
184766,2018-06-29 10:21:05.937500,145.73,78.3
184767,2018-06-29 10:21:05.968750,134.21,78.3
184768,2018-06-29 10:21:06.000000,119.21,78.3
184769,2018-06-29 10:21:06.031250,100.91,78.3
184770,2018-06-29 10:21:06.062500,80.16,78.3
184771,2018-06-29 10:21:06.093750,61.1,78.3
184772,2018-06-29 10:21:06.125000,51.91,78.3
184773,2018-06-29 10:21:06.156250,58.01,78.3
184774,2018-06-29 10:21:06.187500,74.69,78.3
184775,2018-06-29 10:21:06.218750,91.47,78.3
184776,2018-06-29 10:21:06.250000,101.58,78.3
184777,2018-06-29 10:21:06.281250,103.65,78.3
184778,2018-06-29 10:21:06.312500,98.24,78.3
184779,2018-06-29 10:21:06.343750,87.36,78.3
184780,2018-06-29 10:21:06.375000,74.46,78.3
184781,2018-06-29 10:21:06.406250,62.64,78.3
184782,2018-06-29 10:21:06.437500,53.36,78.3
184783,2018-06-29 10:21:06.468750,46.22,78.3
184784,2018-06-29 10:21:06.500000,39.69,78.3
184785,2018-06-29 10:21:06.531250,32.89,78.12
184786,2018-06-29 10:21:06.562500,26.74,78.12
184787,2018-06-29 10:21:06.593750,22.43,78.12
184788,2018-06-29 10:21:06.625000,19.67,78.12
184789,2018-06-29 10:21:06.656250,17.17,78.12
184790,2018-06-29 10:21:06.687500,14.21,78.12
184791,2018-06-29 10:21:06.718750,11.03,78.12
184792,2018-06-29 10:21:06.750000,8.06,78.12
184793,2018-06-29 10:21:06.781250,4.53,78.12
184794,2018-06-29 10:21:06.812500,-2.31,78.12
184795,2018-06-29 10:21:06.843750,-14.01,78.12
184796,2018-06-29 10:21:06.875000,-25.29,78.12
184797,2018-06-29 10:21:06.906250,-25.71,78.12
184798,2018-06-29 10:21:06.937500,-10.57,78.12
184799,2018-06-29 10:21:06.968750,13.34,78.12
184800,2018-06-29 10:21:07.000000,35.88,78.12
184801,2018-06-29 10:21:07.031250,52.92,78.12
184802,2018-06-29 10:21:07.062500,64.87,78.12
184803,2018-06-29 10:21:07.093750,70.69,78.12
184804,2018-06-29 10:21:07.125000,68.76,78.12
184805,2018-06-29 10:21:07.156250,61.44,78.12
184806,2018-06-29 10:21:07.187500,53.89,78.12
184807,2018-06-29 10:21:07.218750,49.04,78.12
184808,2018-06-29 10:21:07.250000,46.77,78.12
184809,2018-06-29 10:21:07.281250,46.48,78.12
184810,2018-06-29 10:21:07.312500,46.67,78.12
184811,2018-06-29 10:21:07.343750,44.46,78.12
184812,2018-06-29 10:21:07.375000,38.26,78.12
184813,2018-06-29 10:21:07.406250,29.51,78.12
184814,2018-06-29 10:21:07.437500,20.17,78.12
184815,2018-06-29 10:21:07.468750,10.29,78.12
184816,2018-06-29 10:21:07.500000,-1.23,78.12
184817,2018-06-29 10:21:07.531250,-14.54,77.98
184818,2018-06-29 10:21:07.562500,-27.44,77.98
184819,2018-06-29 10:21:07.593750,-37.01,77.98
184820,2018-06-29 10:21:07.625000,-43.84,77.98
184821,2018-06-29 10:21:07.656250,-53.17,77.98
184822,2018-06-29 10:21:07.687500,-68.57,77.98
184823,2018-06-29 10:21:07.718750,-83.95,77.98
184824,2018-06-29 10:21:07.750000,-86.4,77.98
184825,2018-06-29 10:21:07.781250,-69.95,77.98
184826,2018-06-29 10:21:07.812500,-42.51,77.98
184827,2018-06-29 10:21:07.843750,-15.96,77.98
184828,2018-06-29 10:21:07.875000,5.25,77.98
184829,2018-06-29 10:21:07.906250,21.86,77.98
184830,2018-06-29 10:21:07.937500,33.09,77.98
184831,2018-06-29 10:21:07.968750,37.96,77.98
184832,2018-06-29 10:21:08.000000,38.79,77.98
184833,2018-06-29 10:21:08.031250,39.06,77.98
184834,2018-06-29 10:21:08.062500,39.54,77.98
184835,2018-06-29 10:21:08.093750,39.18,77.98
184836,2018-06-29 10:21:08.125000,38.16,77.98
184837,2018-06-29 10:21:08.156250,37.49,77.98
184838,2018-06-29 10:21:08.187500,36.94,77.98
184839,2018-06-29 10:21:08.218750,35.61,77.98
184840,2018-06-29 10:21:08.250000,33.37,77.98
184841,2018-06-29 10:21:08.281250,30.3,77.98
184842,2018-06-29 10:21:08.312500,25.39,77.98
184843,2018-06-29 10:21:08.343750,17.07,77.98
184844,2018-06-29 10:21:08.375000,4.67,77.98
184845,2018-06-29 10:21:08.406250,-10.25,77.98
184846,2018-06-29 10:21:08.437500,-24.05,77.98
184847,2018-06-29 10:21:08.468750,-34.5,77.98
184848,2018-06-29 10:21:08.500000,-43.49,77.98
184849,2018-06-29 10:21:08.531250,-54.71,77.9
184850,2018-06-29 10:21:08.562500,-68.67,77.9
184851,2018-06-29 10:21:08.593750,-79.48,77.9
184852,2018-06-29 10:21:08.625000,-78.13,77.9
184853,2018-06-29 10:21:08.656250,-61.26,77.9
184854,2018-06-29 10:21:08.687500,-35.33,77.9
184855,2018-06-29 10:21:08.718750,-9.49,77.9
184856,2018-06-29 10:21:08.750000,12.47,77.9
184857,2018-06-29 10:21:08.781250,30.01,77.9
184858,2018-06-29 10:21:08.812500,41.08,77.9
184859,2018-06-29 10:21:08.843750,44.63,77.9
184860,2018-06-29 10:21:08.875000,44.53,77.9
184861,2018-06-29 10:21:08.906250,45.9,77.9
184862,2018-06-29 10:21:08.937500,48.92,77.9
184863,2018-06-29 10:21:08.968750,50.04,77.9
184864,2018-06-29 10:21:09.000000,47.91,77.9
184865,2018-06-29 10:21:09.031250,43.77,77.9
184866,2018-06-29 10:21:09.062500,37.36,77.9
184867,2018-06-29 10:21:09.093750,26.78,77.9
184868,2018-06-29 10:21:09.125000,12.65,77.9
184869,2018-06-29 10:21:09.156250,-1.68,77.9
184870,2018-06-29 10:21:09.187500,-14.65,77.9
184871,2018-06-29 10:21:09.218750,-27.08,77.9
184872,2018-06-29 10:21:09.250000,-38.57,77.9
184873,2018-06-29 10:21:09.281250,-47.76,77.9
184874,2018-06-29 10:21:09.312500,-54.97,77.9
184875,2018-06-29 10:21:09.343750,-61.23,77.9
184876,2018-06-29 10:21:09.375000,-67.14,77.9
184877,2018-06-29 10:21:09.406250,-72.6,77.9
184878,2018-06-29 10:21:09.437500,-73.49,77.9
184879,2018-06-29 10:21:09.468750,-61.51,77.9
184880,2018-06-29 10:21:09.500000,-33.95,77.9
184881,2018-06-29 10:21:09.531250,-0.02,77.83
184882,2018-06-29 10:21:09.562500,28.62,77.83
184883,2018-06-29 10:21:09.593750,49.37,77.83
184884,2018-06-29 10:21:09.625000,65.46,77.83
184885,2018-06-29 10:21:09.656250,76.66,77.83
184886,2018-06-29 10:21:09.687500,79.5,77.83
184887,2018-06-29 10:21:09.718750,74.6,77.83
184888,2018-06-29 10:21:09.750000,67.06,77.83
184889,2018-06-29 10:21:09.781250,60.48,77.83
184890,2018-06-29 10:21:09.812500,54.44,77.83
184891,2018-06-29 10:21:09.843750,48.14,77.83
184892,2018-06-29 10:21:09.875000,42.01,77.83
184893,2018-06-29 10:21:09.906250,35.41,77.83
184894,2018-06-29 10:21:09.937500,26.38,77.83
184895,2018-06-29 10:21:09.968750,15.29,77.83
184896,2018-06-29 10:21:10.000000,5.81,77.83
184897,2018-06-29 10:21:10.031250,-0.44,77.83
184898,2018-06-29 10:21:10.062500,-6.36,77.83
184899,2018-06-29 10:21:10.093750,-14.15,77.83
184900,2018-06-29 10:21:10.125000,-21.85,77.83
184901,2018-06-29 10:21:10.156250,-27.99,77.83
184902,2018-06-29 10:21:10.187500,-34.96,77.83
184903,2018-06-29 10:21:10.218750,-45.06,77.83
184904,2018-06-29 10:21:10.250000,-57.01,77.83
184905,2018-06-29 10:21:10.281250,-66.01,77.83
184906,2018-06-29 10:21:10.312500,-64.93,77.83
184907,2018-06-29 10:21:10.343750,-49.06,77.83
184908,2018-06-29 10:21:10.375000,-22.26,77.83
184909,2018-06-29 10:21:10.406250,5.46,77.83
184910,2018-06-29 10:21:10.437500,26.85,77.83
184911,2018-06-29 10:21:10.468750,40.92,77.83
184912,2018-06-29 10:21:10.500000,49.51,77.83
184913,2018-06-29 10:21:10.531250,54.59,77.75
184914,2018-06-29 10:21:10.562500,58.16,77.75
184915,2018-06-29 10:21:10.593750,61.84,77.75
184916,2018-06-29 10:21:10.625000,66.25,77.75
184917,2018-06-29 10:21:10.656250,71.06,77.75
184918,2018-06-29 10:21:10.687500,75.36,77.75
184919,2018-06-29 10:21:10.718750,76.15,77.75
184920,2018-06-29 10:21:10.750000,68.14,77.75
184921,2018-06-29 10:21:10.781250,49.45,77.75
184922,2018-06-29 10:21:10.812500,26.56,77.75
184923,2018-06-29 10:21:10.843750,8.83,77.75
184924,2018-06-29 10:21:10.875000,-0.97,77.75
184925,2018-06-29 10:21:10.906250,-6.79,77.75
184926,2018-06-29 10:21:10.937500,-11.36,77.75
184927,2018-06-29 10:21:10.968750,-12.38,77.75
184928,2018-06-29 10:21:11.000000,-7.43,77.75
184929,2018-06-29 10:21:11.031250,0.33,77.75
184930,2018-06-29 10:21:11.062500,2.96,77.75
184931,2018-06-29 10:21:11.093750,-5.06,77.75
184932,2018-06-29 10:21:11.125000,-19.45,77.75
184933,2018-06-29 10:21:11.156250,-29.65,77.75
184934,2018-06-29 10:21:11.187500,-32.51,77.75
184935,2018-06-29 10:21:11.218750,-34.37,77.75
184936,2018-06-29 10:21:11.250000,-36.53,77.75
184937,2018-06-29 10:21:11.281250,-32.17,77.75
184938,2018-06-29 10:21:11.312500,-19.79,77.75
184939,2018-06-29 10:21:11.343750,-5.39,77.75
184940,2018-06-29 10:21:11.375000,8.36,77.75
184941,2018-06-29 10:21:11.406250,23.3,77.75
184942,2018-06-29 10:21:11.437500,38.27,77.75
184943,2018-06-29 10:21:11.468750,49.73,77.75
184944,2018-06-29 10:21:11.500000,55.47,77.75
184945,2018-06-29 10:21:11.531250,52.82,77.67
184946,2018-06-29 10:21:11.562500,39.14,77.67
184947,2018-06-29 10:21:11.593750,17.93,77.67
184948,2018-06-29 10:21:11.625000,-0.54,77.67
184949,2018-06-29 10:21:11.656250,-8.75,77.67
184950,2018-06-29 10:21:11.687500,-9.47,77.67
184951,2018-06-29 10:21:11.718750,-12.63,77.67
184952,2018-06-29 10:21:11.750000,-25.72,77.67
184953,2018-06-29 10:21:11.781250,-46.67,77.67
184954,2018-06-29 10:21:11.812500,-66.38,77.67
184955,2018-06-29 10:21:11.843750,-79.27,77.67
184956,2018-06-29 10:21:11.875000,-88.32,77.67
184957,2018-06-29 10:21:11.906250,-98.23,77.67
184958,2018-06-29 10:21:11.937500,-105.12,77.67
184959,2018-06-29 10:21:11.968750,-97.72,77.67
184960,2018-06-29 10:21:12.000000,-70.43,77.67
184961,2018-06-29 10:21:12.031250,-31.98,77.67
184962,2018-06-29 10:21:12.062500,3.88,77.67
184963,2018-06-29 10:21:12.093750,32.12,77.67
184964,2018-06-29 10:21:12.125000,54.67,77.67
184965,2018-06-29 10:21:12.156250,71.02,77.67
184966,2018-06-29 10:21:12.187500,79.71,77.67
184967,2018-06-29 10:21:12.218750,83.03,77.67
184968,2018-06-29 10:21:12.250000,83.5,77.67
184969,2018-06-29 10:21:12.281250,80.4,77.67
184970,2018-06-29 10:21:12.312500,72.61,77.67
184971,2018-06-29 10:21:12.343750,60.43,77.67
184972,2018-06-29 10:21:12.375000,44.84,77.67
184973,2018-06-29 10:21:12.406250,29.47,77.67
184974,2018-06-29 10:21:12.437500,20.18,77.67
184975,2018-06-29 10:21:12.468750,18.68,77.67
184976,2018-06-29 10:21:12.500000,20.76,77.67
184977,2018-06-29 10:21:12.531250,22.21,77.58
184978,2018-06-29 10:21:12.562500,21.55,77.58
184979,2018-06-29 10:21:12.593750,15.94,77.58
184980,2018-06-29 10:21:12.625000,1.02,77.58
184981,2018-06-29 10:21:12.656250,-22.25,77.58
184982,2018-06-29 10:21:12.687500,-43.78,77.58
184983,2018-06-29 10:21:12.718750,-50.16,77.58
184984,2018-06-29 10:21:12.750000,-37.62,77.58
184985,2018-06-29 10:21:12.781250,-16.09,77.58
184986,2018-06-29 10:21:12.812500,2.55,77.58
184987,2018-06-29 10:21:12.843750,13.35,77.58
184988,2018-06-29 10:21:12.875000,12.11,77.58
184989,2018-06-29 10:21:12.906250,-5.73,77.58
184990,2018-06-29 10:21:12.937500,-37.04,77.58
184991,2018-06-29 10:21:12.968750,-73.02,77.58
184992,2018-06-29 10:21:13.000000,-108.46,77.58
184993,2018-06-29 10:21:13.031250,-145.97,77.58
184994,2018-06-29 10:21:13.062500,-196.53,77.58
