,Time,ppg,hr
185600,2018-06-29 10:21:32.000000,-7.03,76.17
185601,2018-06-29 10:21:32.031250,-15.43,76.17
185602,2018-06-29 10:21:32.062500,-23.75,76.17
185603,2018-06-29 10:21:32.093750,-34.34,76.17
185604,2018-06-29 10:21:32.125000,-45.62,76.17
185605,2018-06-29 10:21:32.156250,-49.69,76.17
185606,2018-06-29 10:21:32.187500,-39.43,76.17
185607,2018-06-29 10:21:32.218750,-17.76,76.17
185608,2018-06-29 10:21:32.250000,5.21,76.17
185609,2018-06-29 10:21:32.281250,22.85,76.17
185610,2018-06-29 10:21:32.312500,34.63,76.17
185611,2018-06-29 10:21:32.343750,41.12,76.17
185612,2018-06-29 10:21:32.375000,42.54,76.17
185613,2018-06-29 10:21:32.406250,40.77,76.17
185614,2018-06-29 10:21:32.437500,38.52,76.17
185615,2018-06-29 10:21:32.468750,37.17,76.17
185616,2018-06-29 10:21:32.500000,36.54,76.17
185617,2018-06-29 10:21:32.531250,35.97,76.25
185618,2018-06-29 10:21:32.562500,35.12,76.25
185619,2018-06-29 10:21:32.593750,33.52,76.25
185620,2018-06-29 10:21:32.625000,30.25,76.25
185621,2018-06-29 10:21:32.656250,25.06,76.25
185622,2018-06-29 10:21:32.687500,19.48,76.25
185623,2018-06-29 10:21:32.718750,14.74,76.25
185624,2018-06-29 10:21:32.750000,9.46,76.25
185625,2018-06-29 10:21:32.781250,1.97,76.25
185626,2018-06-29 10:21:32.812500,-6.38,76.25
185627,2018-06-29 10:21:32.843750,-13.01,76.25
185628,2018-06-29 10:21:32.875000,-18.15,76.25
185629,2018-06-29 10:21:32.906250,-24.3,76.25
185630,2018-06-29 10:21:32.937500,-32.61,76.25
185631,2018-06-29 10:21:32.968750,-41.55,76.25
185632,2018-06-29 10:21:33.000000,-48.57,76.25
185633,2018-06-29 10:21:33.031250,-52.88,76.25
185634,2018-06-29 10:21:33.062500,-56.9,76.25
185635,2018-06-29 10:21:33.093750,-64.17,76.25
185636,2018-06-29 10:21:33.125000,-74.54,76.25
185637,2018-06-29 10:21:33.156250,-80.86,76.25
185638,2018-06-29 10:21:33.187500,-73.45,76.25
185639,2018-06-29 10:21:33.218750,-50.68,76.25
185640,2018-06-29 10:21:33.250000,-22.24,76.25
185641,2018-06-29 10:21:33.281250,0.88,76.25
185642,2018-06-29 10:21:33.312500,16.39,76.25
185643,2018-06-29 10:21:33.343750,27.86,76.25
185644,2018-06-29 10:21:33.375000,36.51,76.25
185645,2018-06-29 10:21:33.406250,40.82,76.25
185646,2018-06-29 10:21:33.437500,41.58,76.25
185647,2018-06-29 10:21:33.468750,42.09,76.25
185648,2018-06-29 10:21:33.500000,43.5,76.25
185649,2018-06-29 10:21:33.531250,44.29,76.35
185650,2018-06-29 10:21:33.562500,43.62,76.35
185651,2018-06-29 10:21:33.593750,42.03,76.35
185652,2018-06-29 10:21:33.625000,39.25,76.35
185653,2018-06-29 10:21:33.656250,34.42,76.35
185654,2018-06-29 10:21:33.687500,27.9,76.35
185655,2018-06-29 10:21:33.718750,21.46,76.35
185656,2018-06-29 10:21:33.750000,16.19,76.35
185657,2018-06-29 10:21:33.781250,11.21,76.35
185658,2018-06-29 10:21:33.812500,4.9,76.35
185659,2018-06-29 10:21:33.843750,-2.64,76.35
185660,2018-06-29 10:21:33.875000,-9.28,76.35
185661,2018-06-29 10:21:33.906250,-13.83,76.35
185662,2018-06-29 10:21:33.937500,-17.92,76.35
185663,2018-06-29 10:21:33.968750,-23.57,76.35
185664,2018-06-29 10:21:34.000000,-30.89,76.35
185665,2018-06-29 10:21:34.031250,-39.12,76.35
185666,2018-06-29 10:21:34.062500,-47.77,76.35
185667,2018-06-29 10:21:34.093750,-56.24,76.35
185668,2018-06-29 10:21:34.125000,-64.61,76.35
185669,2018-06-29 10:21:34.156250,-72.83,76.35
185670,2018-06-29 10:21:34.187500,-76.39,76.35
185671,2018-06-29 10:21:34.218750,-67.48,76.35
185672,2018-06-29 10:21:34.250000,-44.89,76.35
185673,2018-06-29 10:21:34.281250,-17.21,76.35
185674,2018-06-29 10:21:34.312500,6.75,76.35
185675,2018-06-29 10:21:34.343750,24.81,76.35
185676,2018-06-29 10:21:34.375000,37.49,76.35
185677,2018-06-29 10:21:34.406250,43.85,76.35
185678,2018-06-29 10:21:34.437500,44.09,76.35
185679,2018-06-29 10:21:34.468750,41.56,76.35
185680,2018-06-29 10:21:34.500000,39.41,76.35
185681,2018-06-29 10:21:34.531250,37.79,76.3
185682,2018-06-29 10:21:34.562500,36.19,76.3
185683,2018-06-29 10:21:34.593750,35.19,76.3
185684,2018-06-29 10:21:34.625000,34.45,76.3
185685,2018-06-29 10:21:34.656250,31.87,76.3
185686,2018-06-29 10:21:34.687500,26.48,76.3
185687,2018-06-29 10:21:34.718750,20.0,76.3
185688,2018-06-29 10:21:34.750000,13.92,76.3
185689,2018-06-29 10:21:34.781250,7.0,76.3
185690,2018-06-29 10:21:34.812500,-2.47,76.3
185691,2018-06-29 10:21:34.843750,-13.33,76.3
185692,2018-06-29 10:21:34.875000,-22.9,76.3
185693,2018-06-29 10:21:34.906250,-30.25,76.3
185694,2018-06-29 10:21:34.937500,-35.53,76.3
185695,2018-06-29 10:21:34.968750,-38.42,76.3
185696,2018-06-29 10:21:35.000000,-39.21,76.3
185697,2018-06-29 10:21:35.031250,-39.46,76.3
185698,2018-06-29 10:21:35.062500,-40.95,76.3
185699,2018-06-29 10:21:35.093750,-45.14,76.3
185700,2018-06-29 10:21:35.125000,-51.74,76.3
185701,2018-06-29 10:21:35.156250,-55.38,76.3
185702,2018-06-29 10:21:35.187500,-48.26,76.3
185703,2018-06-29 10:21:35.218750,-29.22,76.3
185704,2018-06-29 10:21:35.250000,-5.83,76.3
185705,2018-06-29 10:21:35.281250,14.12,76.3
185706,2018-06-29 10:21:35.312500,28.29,76.3
185707,2018-06-29 10:21:35.343750,36.54,76.3
185708,2018-06-29 10:21:35.375000,39.0,76.3
185709,2018-06-29 10:21:35.406250,38.04,76.3
185710,2018-06-29 10:21:35.437500,37.3,76.3
185711,2018-06-29 10:21:35.468750,37.77,76.3
185712,2018-06-29 10:21:35.500000,37.32,76.3
185713,2018-06-29 10:21:35.531250,34.05,76.25
185714,2018-06-29 10:21:35.562500,28.42,76.25
185715,2018-06-29 10:21:35.593750,21.45,76.25
185716,2018-06-29 10:21:35.625000,12.97,76.25
185717,2018-06-29 10:21:35.656250,3.04,76.25
185718,2018-06-29 10:21:35.687500,-6.45,76.25
185719,2018-06-29 10:21:35.718750,-13.41,76.25
185720,2018-06-29 10:21:35.750000,-17.82,76.25
185721,2018-06-29 10:21:35.781250,-21.57,76.25
185722,2018-06-29 10:21:35.812500,-26.22,76.25
185723,2018-06-29 10:21:35.843750,-31.5,76.25
185724,2018-06-29 10:21:35.875000,-36.23,76.25
185725,2018-06-29 10:21:35.906250,-40.68,76.25
185726,2018-06-29 10:21:35.937500,-46.56,76.25
185727,2018-06-29 10:21:35.968750,-54.86,76.25
185728,2018-06-29 10:21:36.000000,-63.77,76.25
185729,2018-06-29 10:21:36.031250,-67.5,76.25
185730,2018-06-29 10:21:36.062500,-58.78,76.25
185731,2018-06-29 10:21:36.093750,-36.64,76.25
185732,2018-06-29 10:21:36.125000,-9.33,76.25
185733,2018-06-29 10:21:36.156250,13.68,76.25
185734,2018-06-29 10:21:36.187500,29.17,76.25
185735,2018-06-29 10:21:36.218750,38.59,76.25
185736,2018-06-29 10:21:36.250000,43.47,76.25
185737,2018-06-29 10:21:36.281250,44.62,76.25
185738,2018-06-29 10:21:36.312500,43.33,76.25
185739,2018-06-29 10:21:36.343750,41.58,76.25
185740,2018-06-29 10:21:36.375000,40.51,76.25
185741,2018-06-29 10:21:36.406250,39.34,76.25
185742,2018-06-29 10:21:36.437500,37.37,76.25
185743,2018-06-29 10:21:36.468750,35.31,76.25
185744,2018-06-29 10:21:36.500000,33.02,76.25
185745,2018-06-29 10:21:36.531250,28.89,76.15
185746,2018-06-29 10:21:36.562500,22.48,76.15
185747,2018-06-29 10:21:36.593750,15.34,76.15
185748,2018-06-29 10:21:36.625000,9.04,76.15
185749,2018-06-29 10:21:36.656250,4.12,76.15
185750,2018-06-29 10:21:36.687500,0.11,76.15
185751,2018-06-29 10:21:36.718750,-4.18,76.15
185752,2018-06-29 10:21:36.750000,-8.94,76.15
185753,2018-06-29 10:21:36.781250,-12.68,76.15
185754,2018-06-29 10:21:36.812500,-14.75,76.15
185755,2018-06-29 10:21:36.843750,-17.19,76.15
185756,2018-06-29 10:21:36.875000,-22.81,76.15
185757,2018-06-29 10:21:36.906250,-32.02,76.15
185758,2018-06-29 10:21:36.937500,-40.57,76.15
185759,2018-06-29 10:21:36.968750,-40.64,76.15
185760,2018-06-29 10:21:37.000000,-27.75,76.15
185761,2018-06-29 10:21:37.031250,-6.57,76.15
185762,2018-06-29 10:21:37.062500,14.17,76.15
185763,2018-06-29 10:21:37.093750,31.03,76.15
185764,2018-06-29 10:21:37.125000,45.16,76.15
185765,2018-06-29 10:21:37.156250,56.42,76.15
185766,2018-06-29 10:21:37.187500,63.33,76.15
185767,2018-06-29 10:21:37.218750,65.89,76.15
185768,2018-06-29 10:21:37.250000,64.0,76.15
185769,2018-06-29 10:21:37.281250,55.42,76.15
185770,2018-06-29 10:21:37.312500,38.8,76.15
185771,2018-06-29 10:21:37.343750,17.3,76.15
185772,2018-06-29 10:21:37.375000,-3.44,76.15
185773,2018-06-29 10:21:37.406250,-19.95,76.15
185774,2018-06-29 10:21:37.437500,-31.53,76.15
185775,2018-06-29 10:21:37.468750,-37.31,76.15
185776,2018-06-29 10:21:37.500000,-35.76,76.15
185777,2018-06-29 10:21:37.531250,-27.64,75.97
185778,2018-06-29 10:21:37.562500,-17.01,75.97
185779,2018-06-29 10:21:37.593750,-8.54,75.97
185780,2018-06-29 10:21:37.625000,-4.48,75.97
185781,2018-06-29 10:21:37.656250,-4.52,75.97
185782,2018-06-29 10:21:37.687500,-7.83,75.97
185783,2018-06-29 10:21:37.718750,-14.85,75.97
185784,2018-06-29 10:21:37.750000,-27.08,75.97
185785,2018-06-29 10:21:37.781250,-43.56,75.97
185786,2018-06-29 10:21:37.812500,-56.92,75.97
185787,2018-06-29 10:21:37.843750,-56.71,75.97
185788,2018-06-29 10:21:37.875000,-40.18,75.97
185789,2018-06-29 10:21:37.906250,-16.11,75.97
185790,2018-06-29 10:21:37.937500,5.06,75.97
185791,2018-06-29 10:21:37.968750,20.49,75.97
185792,2018-06-29 10:21:38.000000,31.75,75.97
185793,2018-06-29 10:21:38.031250,38.36,75.97
185794,2018-06-29 10:21:38.062500,39.38,75.97
185795,2018-06-29 10:21:38.093750,37.56,75.97
185796,2018-06-29 10:21:38.125000,36.37,75.97
185797,2018-06-29 10:21:38.156250,35.03,75.97
185798,2018-06-29 10:21:38.187500,31.07,75.97
185799,2018-06-29 10:21:38.218750,25.63,75.97
185800,2018-06-29 10:21:38.250000,21.57,75.97
185801,2018-06-29 10:21:38.281250,18.5,75.97
185802,2018-06-29 10:21:38.312500,14.07,75.97
185803,2018-06-29 10:21:38.343750,8.12,75.97
185804,2018-06-29 10:21:38.375000,2.52,75.97
185805,2018-06-29 10:21:38.406250,-2.21,75.97
185806,2018-06-29 10:21:38.437500,-7.73,75.97
185807,2018-06-29 10:21:38.468750,-15.25,75.97
185808,2018-06-29 10:21:38.500000,-23.7,75.97
185809,2018-06-29 10:21:38.531250,-31.61,75.73
185810,2018-06-29 10:21:38.562500,-39.21,75.73
185811,2018-06-29 10:21:38.593750,-47.4,75.73
185812,2018-06-29 10:21:38.625000,-56.76,75.73
185813,2018-06-29 10:21:38.656250,-67.06,75.73
185814,2018-06-29 10:21:38.687500,-74.02,75.73
185815,2018-06-29 10:21:38.718750,-69.48,75.73
185816,2018-06-29 10:21:38.750000,-50.31,75.73
185817,2018-06-29 10:21:38.781250,-23.9,75.73
185818,2018-06-29 10:21:38.812500,-0.3,75.73
185819,2018-06-29 10:21:38.843750,17.06,75.73
185820,2018-06-29 10:21:38.875000,29.61,75.73
185821,2018-06-29 10:21:38.906250,38.17,75.73
185822,2018-06-29 10:21:38.937500,42.58,75.73
185823,2018-06-29 10:21:38.968750,43.84,75.73
185824,2018-06-29 10:21:39.000000,43.74,75.73
185825,2018-06-29 10:21:39.031250,42.7,75.73
185826,2018-06-29 10:21:39.062500,40.24,75.73
185827,2018-06-29 10:21:39.093750,37.35,75.73
185828,2018-06-29 10:21:39.125000,35.5,75.73
185829,2018-06-29 10:21:39.156250,34.16,75.73
185830,2018-06-29 10:21:39.187500,31.44,75.73
185831,2018-06-29 10:21:39.218750,27.03,75.73
185832,2018-06-29 10:21:39.250000,22.79,75.73
185833,2018-06-29 10:21:39.281250,20.05,75.73
185834,2018-06-29 10:21:39.312500,17.97,75.73
185835,2018-06-29 10:21:39.343750,15.36,75.73
185836,2018-06-29 10:21:39.375000,11.72,75.73
185837,2018-06-29 10:21:39.406250,6.41,75.73
185838,2018-06-29 10:21:39.437500,-1.09,75.73
185839,2018-06-29 10:21:39.468750,-10.15,75.73
185840,2018-06-29 10:21:39.500000,-20.52,75.73
185841,2018-06-29 10:21:39.531250,-33.57,75.38
185842,2018-06-29 10:21:39.562500,-50.17,75.38
185843,2018-06-29 10:21:39.593750,-67.55,75.38
185844,2018-06-29 10:21:39.625000,-78.69,75.38
185845,2018-06-29 10:21:39.656250,-76.27,75.38
185846,2018-06-29 10:21:39.687500,-60.16,75.38
185847,2018-06-29 10:21:39.718750,-38.86,75.38
185848,2018-06-29 10:21:39.750000,-20.81,75.38
185849,2018-06-29 10:21:39.781250,-7.25,75.38
185850,2018-06-29 10:21:39.812500,3.7,75.38
185851,2018-06-29 10:21:39.843750,11.25,75.38
185852,2018-06-29 10:21:39.875000,13.75,75.38
185853,2018-06-29 10:21:39.906250,12.65,75.38
185854,2018-06-29 10:21:39.937500,11.53,75.38
185855,2018-06-29 10:21:39.968750,12.3,75.38
185856,2018-06-29 10:21:40.000000,14.1,75.38
185857,2018-06-29 10:21:40.031250,15.69,75.38
185858,2018-06-29 10:21:40.062500,16.98,75.38
185859,2018-06-29 10:21:40.093750,17.86,75.38
185860,2018-06-29 10:21:40.125000,17.5,75.38
185861,2018-06-29 10:21:40.156250,14.98,75.38
185862,2018-06-29 10:21:40.187500,10.27,75.38
185863,2018-06-29 10:21:40.218750,4.72,75.38
185864,2018-06-29 10:21:40.250000,-0.14,75.38
185865,2018-06-29 10:21:40.281250,-4.8,75.38
185866,2018-06-29 10:21:40.312500,-10.95,75.38
185867,2018-06-29 10:21:40.343750,-18.43,75.38
185868,2018-06-29 10:21:40.375000,-24.88,75.38
185869,2018-06-29 10:21:40.406250,-28.26,75.38
185870,2018-06-29 10:21:40.437500,-28.91,75.38
185871,2018-06-29 10:21:40.468750,-29.78,75.38
185872,2018-06-29 10:21:40.500000,-32.9,75.38
185873,2018-06-29 10:21:40.531250,-34.3,75.05
185874,2018-06-29 10:21:40.562500,-27.22,75.05
185875,2018-06-29 10:21:40.593750,-11.64,75.05
185876,2018-06-29 10:21:40.625000,5.32,75.05
185877,2018-06-29 10:21:40.656250,18.69,75.05
185878,2018-06-29 10:21:40.687500,28.62,75.05
185879,2018-06-29 10:21:40.718750,35.03,75.05
185880,2018-06-29 10:21:40.750000,36.82,75.05
185881,2018-06-29 10:21:40.781250,36.07,75.05
185882,2018-06-29 10:21:40.812500,36.93,75.05
185883,2018-06-29 10:21:40.843750,40.54,75.05
185884,2018-06-29 10:21:40.875000,44.5,75.05
185885,2018-06-29 10:21:40.906250,46.57,75.05
185886,2018-06-29 10:21:40.937500,46.39,75.05
185887,2018-06-29 10:21:40.968750,44.14,75.05
185888,2018-06-29 10:21:41.000000,39.81,75.05
185889,2018-06-29 10:21:41.031250,33.47,75.05
185890,2018-06-29 10:21:41.062500,25.97,75.05
185891,2018-06-29 10:21:41.093750,18.79,75.05
185892,2018-06-29 10:21:41.125000,12.87,75.05
185893,2018-06-29 10:21:41.156250,7.86,75.05
185894,2018-06-29 10:21:41.187500,2.85,75.05
185895,2018-06-29 10:21:41.218750,-2.62,75.05
185896,2018-06-29 10:21:41.250000,-8.38,75.05
185897,2018-06-29 10:21:41.281250,-14.61,75.05
185898,2018-06-29 10:21:41.312500,-22.49,75.05
185899,2018-06-29 10:21:41.343750,-33.02,75.05
185900,2018-06-29 10:21:41.375000,-45.25,75.05
185901,2018-06-29 10:21:41.406250,-55.68,75.05
185902,2018-06-29 10:21:41.437500,-58.47,75.05
185903,2018-06-29 10:21:41.468750,-49.06,75.05
185904,2018-06-29 10:21:41.500000,-29.87,75.05
185905,2018-06-29 10:21:41.531250,-9.1,74.7
185906,2018-06-29 10:21:41.562500,7.41,74.7
185907,2018-06-29 10:21:41.593750,19.56,74.7
185908,2018-06-29 10:21:41.625000,28.22,74.7
185909,2018-06-29 10:21:41.656250,32.74,74.7
185910,2018-06-29 10:21:41.687500,33.67,74.7
185911,2018-06-29 10:21:41.718750,33.66,74.7
185912,2018-06-29 10:21:41.750000,34.56,74.7
185913,2018-06-29 10:21:41.781250,35.86,74.7
185914,2018-06-29 10:21:41.812500,36.46,74.7
185915,2018-06-29 10:21:41.843750,35.95,74.7
185916,2018-06-29 10:21:41.875000,34.07,74.7
185917,2018-06-29 10:21:41.906250,30.66,74.7
185918,2018-06-29 10:21:41.937500,26.34,74.7
185919,2018-06-29 10:21:41.968750,22.17,74.7
185920,2018-06-29 10:21:42.000000,18.64,74.7
185921,2018-06-29 10:21:42.031250,15.5,74.7
185922,2018-06-29 10:21:42.062500,12.2,74.7
185923,2018-06-29 10:21:42.093750,8.53,74.7
185924,2018-06-29 10:21:42.125000,4.87,74.7
185925,2018-06-29 10:21:42.156250,1.2,74.7
185926,2018-06-29 10:21:42.187500,-4.28,74.7
185927,2018-06-29 10:21:42.218750,-13.03,74.7
185928,2018-06-29 10:21:42.250000,-23.05,74.7
185929,2018-06-29 10:21:42.281250,-30.69,74.7
185930,2018-06-29 10:21:42.312500,-35.21,74.7
185931,2018-06-29 10:21:42.343750,-39.05,74.7
185932,2018-06-29 10:21:42.375000,-44.44,74.7
185933,2018-06-29 10:21:42.406250,-51.13,74.7
185934,2018-06-29 10:21:42.437500,-55.03,74.7
185935,2018-06-29 10:21:42.468750,-50.01,74.7
185936,2018-06-29 10:21:42.500000,-35.26,74.7
185937,2018-06-29 10:21:42.531250,-18.45,74.37
185938,2018-06-29 10:21:42.562500,-7.15,74.37
185939,2018-06-29 10:21:42.593750,-0.99,74.37
185940,2018-06-29 10:21:42.625000,3.8,74.37
185941,2018-06-29 10:21:42.656250,7.47,74.37
185942,2018-06-29 10:21:42.687500,9.19,74.37
185943,2018-06-29 10:21:42.718750,11.11,74.37
185944,2018-06-29 10:21:42.750000,15.27,74.37
185945,2018-06-29 10:21:42.781250,19.81,74.37
185946,2018-06-29 10:21:42.812500,22.01,74.37
185947,2018-06-29 10:21:42.843750,22.22,74.37
185948,2018-06-29 10:21:42.875000,21.65,74.37
185949,2018-06-29 10:21:42.906250,19.34,74.37
185950,2018-06-29 10:21:42.937500,14.56,74.37
185951,2018-06-29 10:21:42.968750,9.22,74.37
185952,2018-06-29 10:21:43.000000,5.21,74.37
185953,2018-06-29 10:21:43.031250,1.46,74.37
185954,2018-06-29 10:21:43.062500,-4.15,74.37
185955,2018-06-29 10:21:43.093750,-11.37,74.37
185956,2018-06-29 10:21:43.125000,-18.06,74.37
185957,2018-06-29 10:21:43.156250,-23.22,74.37
185958,2018-06-29 10:21:43.187500,-28.24,74.37
185959,2018-06-29 10:21:43.218750,-35.18,74.37
185960,2018-06-29 10:21:43.250000,-44.84,74.37
185961,2018-06-29 10:21:43.281250,-54.77,74.37
185962,2018-06-29 10:21:43.312500,-58.63,74.37
185963,2018-06-29 10:21:43.343750,-50.87,74.37
185964,2018-06-29 10:21:43.375000,-33.44,74.37
185965,2018-06-29 10:21:43.406250,-14.55,74.37
185966,2018-06-29 10:21:43.437500,-0.21,74.37
185967,2018-06-29 10:21:43.468750,9.54,74.37
185968,2018-06-29 10:21:43.500000,16.68,74.37
185969,2018-06-29 10:21:43.531250,21.36,74.05
185970,2018-06-29 10:21:43.562500,22.79,74.05
185971,2018-06-29 10:21:43.593750,21.95,74.05
185972,2018-06-29 10:21:43.625000,21.04,74.05
185973,2018-06-29 10:21:43.656250,20.59,74.05
185974,2018-06-29 10:21:43.687500,19.35,74.05
185975,2018-06-29 10:21:43.718750,17.05,74.05
185976,2018-06-29 10:21:43.750000,14.74,74.05
185977,2018-06-29 10:21:43.781250,12.25,74.05
185978,2018-06-29 10:21:43.812500,8.16,74.05
185979,2018-06-29 10:21:43.843750,2.15,74.05
185980,2018-06-29 10:21:43.875000,-4.45,74.05
185981,2018-06-29 10:21:43.906250,-10.34,74.05
185982,2018-06-29 10:21:43.937500,-15.22,74.05
185983,2018-06-29 10:21:43.968750,-19.12,74.05
185984,2018-06-29 10:21:44.000000,-22.01,74.05
185985,2018-06-29 10:21:44.031250,-23.73,74.05
185986,2018-06-29 10:21:44.062500,-23.97,74.05
185987,2018-06-29 10:21:44.093750,-23.5,74.05
185988,2018-06-29 10:21:44.125000,-24.91,74.05
185989,2018-06-29 10:21:44.156250,-30.61,74.05
185990,2018-06-29 10:21:44.187500,-39.0,74.05
185991,2018-06-29 10:21:44.218750,-43.68,74.05
185992,2018-06-29 10:21:44.250000,-38.81,74.05
185993,2018-06-29 10:21:44.281250,-25.08,74.05
185994,2018-06-29 10:21:44.312500,-8.84,74.05
185995,2018-06-29 10:21:44.343750,4.63,74.05
185996,2018-06-29 10:21:44.375000,14.06,74.05
185997,2018-06-29 10:21:44.406250,19.8,74.05
185998,2018-06-29 10:21:44.437500,22.73,74.05
185999,2018-06-29 10:21:44.468750,24.67,74.05
186000,2018-06-29 10:21:44.500000,26.71,74.05
186001,2018-06-29 10:21:44.531250,28.41,73.73
186002,2018-06-29 10:21:44.562500,29.38,73.73
186003,2018-06-29 10:21:44.593750,29.41,73.73
186004,2018-06-29 10:21:44.625000,27.94,73.73
186005,2018-06-29 10:21:44.656250,24.96,73.73
186006,2018-06-29 10:21:44.687500,21.17,73.73
186007,2018-06-29 10:21:44.718750,16.98,73.73
186008,2018-06-29 10:21:44.750000,12.5,73.73
186009,2018-06-29 10:21:44.781250,8.12,73.73
186010,2018-06-29 10:21:44.812500,4.46,73.73
186011,2018-06-29 10:21:44.843750,1.64,73.73
186012,2018-06-29 10:21:44.875000,-0.92,73.73
186013,2018-06-29 10:21:44.906250,-3.55,73.73
186014,2018-06-29 10:21:44.937500,-5.48,73.73
186015,2018-06-29 10:21:44.968750,-5.76,73.73
186016,2018-06-29 10:21:45.000000,-4.69,73.73
186017,2018-06-29 10:21:45.031250,-4.27,73.73
186018,2018-06-29 10:21:45.062500,-7.58,73.73
186019,2018-06-29 10:21:45.093750,-15.79,73.73
186020,2018-06-29 10:21:45.125000,-24.34,73.73
186021,2018-06-29 10:21:45.156250,-24.94,73.73
186022,2018-06-29 10:21:45.187500,-14.33,73.73
186023,2018-06-29 10:21:45.218750,1.9,73.73
186024,2018-06-29 10:21:45.250000,15.81,73.73
186025,2018-06-29 10:21:45.281250,24.0,73.73
186026,2018-06-29 10:21:45.312500,26.7,73.73
186027,2018-06-29 10:21:45.343750,25.18,73.73
186028,2018-06-29 10:21:45.375000,21.78,73.73
186029,2018-06-29 10:21:45.406250,19.42,73.73
186030,2018-06-29 10:21:45.437500,19.28,73.73
186031,2018-06-29 10:21:45.468750,20.64,73.73
186032,2018-06-29 10:21:45.500000,22.65,73.73
186033,2018-06-29 10:21:45.531250,24.61,73.43
186034,2018-06-29 10:21:45.562500,25.23,73.43
186035,2018-06-29 10:21:45.593750,23.48,73.43
186036,2018-06-29 10:21:45.625000,19.93,73.43
186037,2018-06-29 10:21:45.656250,15.67,73.43
186038,2018-06-29 10:21:45.687500,10.92,73.43
186039,2018-06-29 10:21:45.718750,5.65,73.43
186040,2018-06-29 10:21:45.750000,0.56,73.43
186041,2018-06-29 10:21:45.781250,-3.49,73.43
186042,2018-06-29 10:21:45.812500,-6.47,73.43
186043,2018-06-29 10:21:45.843750,-9.42,73.43
186044,2018-06-29 10:21:45.875000,-13.39,73.43
186045,2018-06-29 10:21:45.906250,-18.57,73.43
186046,2018-06-29 10:21:45.937500,-25.13,73.43
186047,2018-06-29 10:21:45.968750,-34.08,73.43
186048,2018-06-29 10:21:46.000000,-45.35,73.43
186049,2018-06-29 10:21:46.031250,-55.13,73.43
186050,2018-06-29 10:21:46.062500,-57.17,73.43
186051,2018-06-29 10:21:46.093750,-48.96,73.43
186052,2018-06-29 10:21:46.125000,-35.01,73.43
186053,2018-06-29 10:21:46.156250,-21.88,73.43
186054,2018-06-29 10:21:46.187500,-11.92,73.43
186055,2018-06-29 10:21:46.218750,-4.08,73.43
186056,2018-06-29 10:21:46.250000,1.86,73.43
186057,2018-06-29 10:21:46.281250,5.64,73.43
186058,2018-06-29 10:21:46.312500,8.49,73.43
186059,2018-06-29 10:21:46.343750,11.61,73.43
186060,2018-06-29 10:21:46.375000,14.25,73.43
186061,2018-06-29 10:21:46.406250,15.22,73.43
186062,2018-06-29 10:21:46.437500,15.15,73.43
186063,2018-06-29 10:21:46.468750,15.37,73.43
186064,2018-06-29 10:21:46.500000,15.74,73.43
186065,2018-06-29 10:21:46.531250,15.07,73.12
186066,2018-06-29 10:21:46.562500,13.24,73.12
186067,2018-06-29 10:21:46.593750,11.95,73.12
186068,2018-06-29 10:21:46.625000,12.62,73.12
186069,2018-06-29 10:21:46.656250,14.65,73.12
186070,2018-06-29 10:21:46.687500,16.19,73.12
186071,2018-06-29 10:21:46.718750,15.93,73.12
186072,2018-06-29 10:21:46.750000,13.41,73.12
186073,2018-06-29 10:21:46.781250,8.01,73.12
186074,2018-06-29 10:21:46.812500,-0.89,73.12
186075,2018-06-29 10:21:46.843750,-12.57,73.12
186076,2018-06-29 10:21:46.875000,-24.66,73.12
186077,2018-06-29 10:21:46.906250,-33.19,73.12
186078,2018-06-29 10:21:46.937500,-34.32,73.12
186079,2018-06-29 10:21:46.968750,-27.92,73.12
186080,2018-06-29 10:21:47.000000,-18.58,73.12
186081,2018-06-29 10:21:47.031250,-10.77,73.12
186082,2018-06-29 10:21:47.062500,-4.83,73.12
186083,2018-06-29 10:21:47.093750,0.74,73.12
186084,2018-06-29 10:21:47.125000,5.34,73.12
186085,2018-06-29 10:21:47.156250,7.46,73.12
186086,2018-06-29 10:21:47.187500,8.59,73.12
186087,2018-06-29 10:21:47.218750,11.84,73.12
186088,2018-06-29 10:21:47.250000,16.74,73.12
186089,2018-06-29 10:21:47.281250,20.01,73.12
186090,2018-06-29 10:21:47.312500,21.44,73.12
186091,2018-06-29 10:21:47.343750,23.53,73.12
186092,2018-06-29 10:21:47.375000,25.74,73.12
186093,2018-06-29 10:21:47.406250,24.69,73.12
186094,2018-06-29 10:21:47.437500,19.52,73.12
186095,2018-06-29 10:21:47.468750,12.66,73.12
186096,2018-06-29 10:21:47.500000,5.8,73.12
186097,2018-06-29 10:21:47.531250,-1.44,72.8
186098,2018-06-29 10:21:47.562500,-8.79,72.8
186099,2018-06-29 10:21:47.593750,-14.03,72.8
186100,2018-06-29 10:21:47.625000,-15.45,72.8
186101,2018-06-29 10:21:47.656250,-14.66,72.8
186102,2018-06-29 10:21:47.687500,-15.37,72.8
186103,2018-06-29 10:21:47.718750,-19.35,72.8
186104,2018-06-29 10:21:47.750000,-23.66,72.8
186105,2018-06-29 10:21:47.781250,-22.08,72.8
186106,2018-06-29 10:21:47.812500,-10.26,72.8
186107,2018-06-29 10:21:47.843750,9.61,72.8
186108,2018-06-29 10:21:47.875000,30.2,72.8
186109,2018-06-29 10:21:47.906250,45.26,72.8
186110,2018-06-29 10:21:47.937500,53.05,72.8
186111,2018-06-29 10:21:47.968750,54.59,72.8
186112,2018-06-29 10:21:48.000000,50.86,72.8
186113,2018-06-29 10:21:48.031250,42.66,72.8
186114,2018-06-29 10:21:48.062500,31.62,72.8
186115,2018-06-29 10:21:48.093750,18.58,72.8
186116,2018-06-29 10:21:48.125000,1.71,72.8
186117,2018-06-29 10:21:48.156250,-20.25,72.8
186118,2018-06-29 10:21:48.187500,-44.24,72.8
186119,2018-06-29 10:21:48.218750,-66.23,72.8
186120,2018-06-29 10:21:48.250000,-85.48,72.8
186121,2018-06-29 10:21:48.281250,-103.98,72.8
186122,2018-06-29 10:21:48.312500,-121.82,72.8
186123,2018-06-29 10:21:48.343750,-134.81,72.8
186124,2018-06-29 10:21:48.375000,-137.25,72.8
186125,2018-06-29 10:21:48.406250,-125.49,72.8
186126,2018-06-29 10:21:48.437500,-99.53,72.8
186127,2018-06-29 10:21:48.468750,-62.41,72.8
186128,2018-06-29 10:21:48.500000,-21.87,72.8
186129,2018-06-29 10:21:48.531250,12.65,72.62
186130,2018-06-29 10:21:48.562500,34.43,72.62
186131,2018-06-29 10:21:48.593750,42.2,72.62
186132,2018-06-29 10:21:48.625000,39.77,72.62
186133,2018-06-29 10:21:48.656250,36.49,72.62
186134,2018-06-29 10:21:48.687500,45.74,72.62
186135,2018-06-29 10:21:48.718750,70.73,72.62
186136,2018-06-29 10:21:48.750000,104.16,72.62
186137,2018-06-29 10:21:48.781250,134.16,72.62
186138,2018-06-29 10:21:48.812500,159.13,72.62
186139,2018-06-29 10:21:48.843750,181.15,72.62
186140,2018-06-29 10:21:48.875000,197.14,72.62
186141,2018-06-29 10:21:48.906250,197.03,72.62
186142,2018-06-29 10:21:48.937500,171.26,72.62
186143,2018-06-29 10:21:48.968750,129.82,72.62
186144,2018-06-29 10:21:49.000000,81.75,72.62
186145,2018-06-29 10:21:49.031250,23.43,72.62
186146,2018-06-29 10:21:49.062500,-62.3,72.62
186147,2018-06-29 10:21:49.093750,-168.52,72.62
186148,2018-06-29 10:21:49.125000,-272.54,72.62
186149,2018-06-29 10:21:49.156250,-350.34,72.62
186150,2018-06-29 10:21:49.187500,-315.71,72.62
186151,2018-06-29 10:21:49.218750,-196.63,72.62
186152,2018-06-29 10:21:49.250000,-82.84,72.62
186153,2018-06-29 10:21:49.281250,2.57,72.62
186154,2018-06-29 10:21:49.312500,63.63,72.62
186155,2018-06-29 10:21:49.343750,93.05,72.62
186156,2018-06-29 10:21:49.375000,97.58,72.62
186157,2018-06-29 10:21:49.406250,91.78,72.62
186158,2018-06-29 10:21:49.437500,84.83,72.62
186159,2018-06-29 10:21:49.468750,74.93,72.62
186160,2018-06-29 10:21:49.500000,58.51,72.62
186161,2018-06-29 10:21:49.531250,47.27,72.45
186162,2018-06-29 10:21:49.562500,43.76,72.45
186163,2018-06-29 10:21:49.593750,41.6,72.45
186164,2018-06-29 10:21:49.625000,29.88,72.45
186165,2018-06-29 10:21:49.656250,11.31,72.45
186166,2018-06-29 10:21:49.687500,-3.49,72.45
186167,2018-06-29 10:21:49.718750,-11.01,72.45
186168,2018-06-29 10:21:49.750000,-15.82,72.45
186169,2018-06-29 10:21:49.781250,-22.81,72.45
186170,2018-06-29 10:21:49.812500,-28.36,72.45
186171,2018-06-29 10:21:49.843750,-26.71,72.45
186172,2018-06-29 10:21:49.875000,-16.46,72.45
186173,2018-06-29 10:21:49.906250,-1.27,72.45
186174,2018-06-29 10:21:49.937500,15.12,72.45
186175,2018-06-29 10:21:49.968750,30.24,72.45
186176,2018-06-29 10:21:50.000000,42.24,72.45
186177,2018-06-29 10:21:50.031250,50.99,72.45
186178,2018-06-29 10:21:50.062500,57.67,72.45
186179,2018-06-29 10:21:50.093750,61.37,72.45
186180,2018-06-29 10:21:50.125000,58.7,72.45
186181,2018-06-29 10:21:50.156250,48.64,72.45
186182,2018-06-29 10:21:50.187500,35.17,72.45
186183,2018-06-29 10:21:50.218750,21.83,72.45
186184,2018-06-29 10:21:50.250000,5.87,72.45
186185,2018-06-29 10:21:50.281250,-17.39,72.45
186186,2018-06-29 10:21:50.312500,-44.51,72.45
186187,2018-06-29 10:21:50.343750,-61.59,72.45
186188,2018-06-29 10:21:50.375000,-55.78,72.45
186189,2018-06-29 10:21:50.406250,-27.93,72.45
186190,2018-06-29 10:21:50.437500,10.37,72.45
186191,2018-06-29 10:21:50.468750,50.15,72.45
186192,2018-06-29 10:21:50.500000,90.02,72.45
186193,2018-06-29 10:21:50.531250,131.05,72.3
186194,2018-06-29 10:21:50.562500,171.79,72.3
186195,2018-06-29 10:21:50.593750,205.9,72.3
186196,2018-06-29 10:21:50.625000,223.65,72.3
186197,2018-06-29 10:21:50.656250,217.93,72.3
186198,2018-06-29 10:21:50.687500,188.96,72.3
186199,2018-06-29 10:21:50.718750,145.45,72.3
186200,2018-06-29 10:21:50.750000,101.41,72.3
186201,2018-06-29 10:21:50.781250,65.29,72.3
186202,2018-06-29 10:21:50.812500,33.17,72.3
186203,2018-06-29 10:21:50.843750,-1.69,72.3
186204,2018-06-29 10:21:50.875000,-37.02,72.3
186205,2018-06-29 10:21:50.906250,-65.11,72.3
186206,2018-06-29 10:21:50.937500,-82.71,72.3
186207,2018-06-29 10:21:50.968750,-93.72,72.3
186208,2018-06-29 10:21:51.000000,-105.18,72.3
186209,2018-06-29 10:21:51.031250,-120.99,72.3
186210,2018-06-29 10:21:51.062500,-137.47,72.3
186211,2018-06-29 10:21:51.093750,-147.06,72.3
186212,2018-06-29 10:21:51.125000,-149.45,72.3
186213,2018-06-29 10:21:51.156250,-152.98,72.3
186214,2018-06-29 10:21:51.187500,-158.01,72.3
186215,2018-06-29 10:21:51.218750,-149.47,72.3
186216,2018-06-29 10:21:51.250000,-118.85,72.3
186217,2018-06-29 10:21:51.281250,-81.57,72.3
186218,2018-06-29 10:21:51.312500,-57.4,72.3
186219,2018-06-29 10:21:51.343750,-47.26,72.3
186220,2018-06-29 10:21:51.375000,-41.73,72.3
186221,2018-06-29 10:21:51.406250,-37.61,72.3
186222,2018-06-29 10:21:51.437500,-37.52,72.3
186223,2018-06-29 10:21:51.468750,-44.37,72.3
186224,2018-06-29 10:21:51.500000,-59.22,72.3
186225,2018-06-29 10:21:51.531250,-80.17,72.15
186226,2018-06-29 10:21:51.562500,-105.15,72.15
186227,2018-06-29 10:21:51.593750,-132.63,72.15
186228,2018-06-29 10:21:51.625000,-154.73,72.15
186229,2018-06-29 10:21:51.656250,-160.91,72.15
186230,2018-06-29 10:21:51.687500,-152.85,72.15
186231,2018-06-29 10:21:51.718750,-140.34,72.15
186232,2018-06-29 10:21:51.750000,-123.7,72.15
186233,2018-06-29 10:21:51.781250,-97.04,72.15
186234,2018-06-29 10:21:51.812500,-63.21,72.15
186235,2018-06-29 10:21:51.843750,-29.63,72.15
186236,2018-06-29 10:21:51.875000,1.35,72.15
186237,2018-06-29 10:21:51.906250,27.94,72.15
186238,2018-06-29 10:21:51.937500,46.61,72.15
186239,2018-06-29 10:21:51.968750,58.98,72.15
186240,2018-06-29 10:21:52.000000,69.86,72.15
186241,2018-06-29 10:21:52.031250,78.84,72.15
186242,2018-06-29 10:21:52.062500,84.85,72.15
186243,2018-06-29 10:21:52.093750,94.83,72.15
186244,2018-06-29 10:21:52.125000,116.41,72.15
186245,2018-06-29 10:21:52.156250,145.27,72.15
186246,2018-06-29 10:21:52.187500,170.49,72.15
186247,2018-06-29 10:21:52.218750,188.88,72.15
186248,2018-06-29 10:21:52.250000,201.11,72.15
186249,2018-06-29 10:21:52.281250,198.54,72.15
186250,2018-06-29 10:21:52.312500,170.21,72.15
186251,2018-06-29 10:21:52.343750,120.41,72.15
186252,2018-06-29 10:21:52.375000,65.26,72.15
186253,2018-06-29 10:21:52.406250,15.22,72.15
186254,2018-06-29 10:21:52.437500,-29.13,72.15
186255,2018-06-29 10:21:52.468750,-69.58,72.15
186256,2018-06-29 10:21:52.500000,-104.36,72.15
186257,2018-06-29 10:21:52.531250,-126.58,72.0
186258,2018-06-29 10:21:52.562500,-130.41,72.0
186259,2018-06-29 10:21:52.593750,-121.82,72.0
186260,2018-06-29 10:21:52.625000,-115.57,72.0
186261,2018-06-29 10:21:52.656250,-117.77,72.0
186262,2018-06-29 10:21:52.687500,-121.15,72.0
186263,2018-06-29 10:21:52.718750,-120.87,72.0
186264,2018-06-29 10:21:52.750000,-122.0,72.0
186265,2018-06-29 10:21:52.781250,-128.07,72.0
186266,2018-06-29 10:21:52.812500,-135.65,72.0
186267,2018-06-29 10:21:52.843750,-142.67,72.0
186268,2018-06-29 10:21:52.875000,-150.76,72.0
186269,2018-06-29 10:21:52.906250,-159.47,72.0
186270,2018-06-29 10:21:52.937500,-165.89,72.0
186271,2018-06-29 10:21:52.968750,-166.51,72.0
186272,2018-06-29 10:21:53.000000,-155.98,72.0
186273,2018-06-29 10:21:53.031250,-129.79,72.0
186274,2018-06-29 10:21:53.062500,-90.24,72.0
186275,2018-06-29 10:21:53.093750,-44.55,72.0
186276,2018-06-29 10:21:53.125000,3.77,72.0
186277,2018-06-29 10:21:53.156250,55.15,72.0
186278,2018-06-29 10:21:53.187500,104.03,72.0
186279,2018-06-29 10:21:53.218750,137.08,72.0
186280,2018-06-29 10:21:53.250000,147.05,72.0
186281,2018-06-29 10:21:53.281250,140.92,72.0
186282,2018-06-29 10:21:53.312500,130.63,72.0
186283,2018-06-29 10:21:53.343750,123.31,72.0
186284,2018-06-29 10:21:53.375000,120.05,72.0
186285,2018-06-29 10:21:53.406250,115.52,72.0
186286,2018-06-29 10:21:53.437500,102.57,72.0
186287,2018-06-29 10:21:53.468750,82.39,72.0
186288,2018-06-29 10:21:53.500000,63.04,72.0
186289,2018-06-29 10:21:53.531250,48.33,71.83
186290,2018-06-29 10:21:53.562500,37.38,71.83
186291,2018-06-29 10:21:53.593750,30.93,71.83
186292,2018-06-29 10:21:53.625000,29.65,71.83
186293,2018-06-29 10:21:53.656250,31.61,71.83
186294,2018-06-29 10:21:53.687500,35.54,71.83
186295,2018-06-29 10:21:53.718750,40.11,71.83
186296,2018-06-29 10:21:53.750000,40.21,71.83
186297,2018-06-29 10:21:53.781250,33.19,71.83
186298,2018-06-29 10:21:53.812500,26.91,71.83
186299,2018-06-29 10:21:53.843750,31.26,71.83
186300,2018-06-29 10:21:53.875000,44.38,71.83
186301,2018-06-29 10:21:53.906250,55.39,71.83
186302,2018-06-29 10:21:53.937500,57.5,71.83
186303,2018-06-29 10:21:53.968750,51.51,71.83
186304,2018-06-29 10:21:54.000000,39.4,71.83
186305,2018-06-29 10:21:54.031250,20.77,71.83
186306,2018-06-29 10:21:54.062500,-3.14,71.83
186307,2018-06-29 10:21:54.093750,-25.93,71.83
186308,2018-06-29 10:21:54.125000,-40.7,71.83
186309,2018-06-29 10:21:54.156250,-47.02,71.83
186310,2018-06-29 10:21:54.187500,-49.35,71.83
186311,2018-06-29 10:21:54.218750,-51.24,71.83
186312,2018-06-29 10:21:54.250000,-55.08,71.83
186313,2018-06-29 10:21:54.281250,-63.57,71.83
186314,2018-06-29 10:21:54.312500,-77.41,71.83
186315,2018-06-29 10:21:54.343750,-94.46,71.83
186316,2018-06-29 10:21:54.375000,-113.26,71.83
186317,2018-06-29 10:21:54.406250,-133.32,71.83
186318,2018-06-29 10:21:54.437500,-152.19,71.83
186319,2018-06-29 10:21:54.468750,-166.82,71.83
186320,2018-06-29 10:21:54.500000,-178.17,71.83
186321,2018-06-29 10:21:54.531250,-190.21,71.68
186322,2018-06-29 10:21:54.562500,-202.31,71.68
186323,2018-06-29 10:21:54.593750,-203.82,71.68
186324,2018-06-29 10:21:54.625000,-181.19,71.68
186325,2018-06-29 10:21:54.656250,-132.76,71.68
186326,2018-06-29 10:21:54.687500,-71.05,71.68
186327,2018-06-29 10:21:54.718750,-8.84,71.68
186328,2018-06-29 10:21:54.750000,49.06,71.68
186329,2018-06-29 10:21:54.781250,100.37,71.68
186330,2018-06-29 10:21:54.812500,141.19,71.68
186331,2018-06-29 10:21:54.843750,169.95,71.68
186332,2018-06-29 10:21:54.875000,190.32,71.68
186333,2018-06-29 10:21:54.906250,206.84,71.68
186334,2018-06-29 10:21:54.937500,219.33,71.68
186335,2018-06-29 10:21:54.968750,225.1,71.68
186336,2018-06-29 10:21:55.000000,223.95,71.68
186337,2018-06-29 10:21:55.031250,215.68,71.68
186338,2018-06-29 10:21:55.062500,196.29,71.68
186339,2018-06-29 10:21:55.093750,162.85,71.68
186340,2018-06-29 10:21:55.125000,119.57,71.68
186341,2018-06-29 10:21:55.156250,74.01,71.68
186342,2018-06-29 10:21:55.187500,30.69,71.68
186343,2018-06-29 10:21:55.218750,-8.45,71.68
186344,2018-06-29 10:21:55.250000,-40.82,71.68
186345,2018-06-29 10:21:55.281250,-64.37,71.68
186346,2018-06-29 10:21:55.312500,-77.87,71.68
186347,2018-06-29 10:21:55.343750,-77.44,71.68
186348,2018-06-29 10:21:55.375000,-59.76,71.68
186349,2018-06-29 10:21:55.406250,-31.12,71.68
186350,2018-06-29 10:21:55.437500,-4.71,71.68
186351,2018-06-29 10:21:55.468750,12.48,71.68
186352,2018-06-29 10:21:55.500000,22.01,71.68
186353,2018-06-29 10:21:55.531250,25.48,71.57
186354,2018-06-29 10:21:55.562500,21.98,71.57
186355,2018-06-29 10:21:55.593750,11.97,71.57
186356,2018-06-29 10:21:55.625000,-1.64,71.57
186357,2018-06-29 10:21:55.656250,-15.56,71.57
186358,2018-06-29 10:21:55.687500,-27.36,71.57
186359,2018-06-29 10:21:55.718750,-34.26,71.57
186360,2018-06-29 10:21:55.750000,-33.27,71.57
186361,2018-06-29 10:21:55.781250,-24.5,71.57
186362,2018-06-29 10:21:55.812500,-12.55,71.57
186363,2018-06-29 10:21:55.843750,-1.44,71.57
186364,2018-06-29 10:21:55.875000,9.81,71.57
186365,2018-06-29 10:21:55.906250,23.59,71.57
186366,2018-06-29 10:21:55.937500,38.03,71.57
186367,2018-06-29 10:21:55.968750,47.83,71.57
186368,2018-06-29 10:21:56.000000,48.23,71.57
186369,2018-06-29 10:21:56.031250,36.47,71.57
186370,2018-06-29 10:21:56.062500,14.38,71.57
186371,2018-06-29 10:21:56.093750,-7.09,71.57
186372,2018-06-29 10:21:56.125000,-12.11,71.57
186373,2018-06-29 10:21:56.156250,6.05,71.57
186374,2018-06-29 10:21:56.187500,39.57,71.57
186375,2018-06-29 10:21:56.218750,75.58,71.57
186376,2018-06-29 10:21:56.250000,104.71,71.57
186377,2018-06-29 10:21:56.281250,120.9,71.57
186378,2018-06-29 10:21:56.312500,121.56,71.57
186379,2018-06-29 10:21:56.343750,110.42,71.57
186380,2018-06-29 10:21:56.375000,95.56,71.57
186381,2018-06-29 10:21:56.406250,83.78,71.57
186382,2018-06-29 10:21:56.437500,77.52,71.57
186383,2018-06-29 10:21:56.468750,75.69,71.57
186384,2018-06-29 10:21:56.500000,76.62,71.57
186385,2018-06-29 10:21:56.531250,79.39,71.47
186386,2018-06-29 10:21:56.562500,81.61,71.47
186387,2018-06-29 10:21:56.593750,78.76,71.47
186388,2018-06-29 10:21:56.625000,68.43,71.47
186389,2018-06-29 10:21:56.656250,52.46,71.47
186390,2018-06-29 10:21:56.687500,33.5,71.47
186391,2018-06-29 10:21:56.718750,12.29,71.47
186392,2018-06-29 10:21:56.750000,-11.0,71.47
186393,2018-06-29 10:21:56.781250,-34.56,71.47
186394,2018-06-29 10:21:56.812500,-54.94,71.47
186395,2018-06-29 10:21:56.843750,-69.89,71.47
186396,2018-06-29 10:21:56.875000,-80.85,71.47
186397,2018-06-29 10:21:56.906250,-91.23,71.47
186398,2018-06-29 10:21:56.937500,-101.16,71.47
186399,2018-06-29 10:21:56.968750,-103.03,71.47
186400,2018-06-29 10:21:57.000000,-85.73,71.47
186401,2018-06-29 10:21:57.031250,-47.82,71.47
186402,2018-06-29 10:21:57.062500,-2.94,71.47
186403,2018-06-29 10:21:57.093750,33.01,71.47
186404,2018-06-29 10:21:57.125000,55.21,71.47
186405,2018-06-29 10:21:57.156250,66.59,71.47
186406,2018-06-29 10:21:57.187500,69.35,71.47
186407,2018-06-29 10:21:57.218750,65.22,71.47
186408,2018-06-29 10:21:57.250000,58.54,71.47
186409,2018-06-29 10:21:57.281250,53.8,71.47
186410,2018-06-29 10:21:57.312500,51.2,71.47
186411,2018-06-29 10:21:57.343750,48.19,71.47
186412,2018-06-29 10:21:57.375000,43.72,71.47
186413,2018-06-29 10:21:57.406250,38.05,71.47
186414,2018-06-29 10:21:57.437500,30.04,71.47
186415,2018-06-29 10:21:57.468750,18.41,71.47
186416,2018-06-29 10:21:57.500000,4.3,71.47
186417,2018-06-29 10:21:57.531250,-9.46,71.42
186418,2018-06-29 10:21:57.562500,-20.81,71.42
186419,2018-06-29 10:21:57.593750,-29.55,71.42
186420,2018-06-29 10:21:57.625000,-36.39,71.42
186421,2018-06-29 10:21:57.656250,-41.73,71.42
186422,2018-06-29 10:21:57.687500,-45.1,71.42
186423,2018-06-29 10:21:57.718750,-46.16,71.42
186424,2018-06-29 10:21:57.750000,-46.58,71.42
186425,2018-06-29 10:21:57.781250,-49.93,71.42
186426,2018-06-29 10:21:57.812500,-58.06,71.42
186427,2018-06-29 10:21:57.843750,-66.44,71.42
186428,2018-06-29 10:21:57.875000,-65.31,71.42
186429,2018-06-29 10:21:57.906250,-49.39,71.42
186430,2018-06-29 10:21:57.937500,-24.37,71.42
186431,2018-06-29 10:21:57.968750,-1.16,71.42
186432,2018-06-29 10:21:58.000000,13.72,71.42
186433,2018-06-29 10:21:58.031250,19.07,71.42
186434,2018-06-29 10:21:58.062500,17.47,71.42
186435,2018-06-29 10:21:58.093750,13.45,71.42
186436,2018-06-29 10:21:58.125000,9.96,71.42
186437,2018-06-29 10:21:58.156250,6.8,71.42
186438,2018-06-29 10:21:58.187500,4.34,71.42
186439,2018-06-29 10:21:58.218750,5.94,71.42
186440,2018-06-29 10:21:58.250000,13.61,71.42
186441,2018-06-29 10:21:58.281250,27.61,71.42
186442,2018-06-29 10:21:58.312500,41.85,71.42
186443,2018-06-29 10:21:58.343750,47.1,71.42
186444,2018-06-29 10:21:58.375000,40.03,71.42
186445,2018-06-29 10:21:58.406250,30.81,71.42
186446,2018-06-29 10:21:58.437500,30.03,71.42
186447,2018-06-29 10:21:58.468750,32.03,71.42
186448,2018-06-29 10:21:58.500000,26.56,71.42
186449,2018-06-29 10:21:58.531250,12.78,71.35
186450,2018-06-29 10:21:58.562500,1.96,71.35
186451,2018-06-29 10:21:58.593750,-1.83,71.35
186452,2018-06-29 10:21:58.625000,-2.4,71.35
186453,2018-06-29 10:21:58.656250,-11.11,71.35
186454,2018-06-29 10:21:58.687500,-51.16,71.35
186455,2018-06-29 10:21:58.718750,-89.46,71.35
186456,2018-06-29 10:21:58.750000,-100.15,71.35
186457,2018-06-29 10:21:58.781250,-94.68,71.35
186458,2018-06-29 10:21:58.812500,-82.73,71.35
186459,2018-06-29 10:21:58.843750,-61.18,71.35
186460,2018-06-29 10:21:58.875000,-34.96,71.35
186461,2018-06-29 10:21:58.906250,-11.52,71.35
186462,2018-06-29 10:21:58.937500,6.94,71.35
186463,2018-06-29 10:21:58.968750,21.93,71.35
186464,2018-06-29 10:21:59.000000,34.41,71.35
186465,2018-06-29 10:21:59.031250,42.22,71.35
186466,2018-06-29 10:21:59.062500,45.33,71.35
186467,2018-06-29 10:21:59.093750,44.41,71.35
186468,2018-06-29 10:21:59.125000,42.4,71.35
186469,2018-06-29 10:21:59.156250,39.14,71.35
186470,2018-06-29 10:21:59.187500,32.55,71.35
186471,2018-06-29 10:21:59.218750,22.29,71.35
186472,2018-06-29 10:21:59.250000,14.09,71.35
186473,2018-06-29 10:21:59.281250,16.08,71.35
186474,2018-06-29 10:21:59.312500,27.19,71.35
186475,2018-06-29 10:21:59.343750,36.93,71.35
186476,2018-06-29 10:21:59.375000,38.89,71.35
186477,2018-06-29 10:21:59.406250,42.47,71.35
186478,2018-06-29 10:21:59.437500,63.46,71.35
186479,2018-06-29 10:21:59.468750,101.47,71.35
186480,2018-06-29 10:21:59.500000,132.59,71.35
186481,2018-06-29 10:21:59.531250,132.5,71.33
186482,2018-06-29 10:21:59.562500,104.54,71.33
186483,2018-06-29 10:21:59.593750,74.52,71.33
186484,2018-06-29 10:21:59.625000,61.73,71.33
186485,2018-06-29 10:21:59.656250,63.45,71.33
186486,2018-06-29 10:21:59.687500,63.98,71.33
186487,2018-06-29 10:21:59.718750,56.45,71.33
186488,2018-06-29 10:21:59.750000,53.81,71.33
186489,2018-06-29 10:21:59.781250,68.71,71.33
186490,2018-06-29 10:21:59.812500,91.79,71.33
186491,2018-06-29 10:21:59.843750,106.02,71.33
186492,2018-06-29 10:21:59.875000,106.28,71.33
186493,2018-06-29 10:21:59.906250,88.97,71.33
186494,2018-06-29 10:21:59.937500,45.42,71.33
186495,2018-06-29 10:21:59.968750,-18.77,71.33
186496,2018-06-29 10:22:00.000000,-78.97,71.33
186497,2018-06-29 10:22:00.031250,-118.93,71.33
186498,2018-06-29 10:22:00.062500,-146.9,71.33
186499,2018-06-29 10:22:00.093750,-177.43,71.33
186500,2018-06-29 10:22:00.125000,-211.44,71.33
186501,2018-06-29 10:22:00.156250,-236.97,71.33
186502,2018-06-29 10:22:00.187500,-235.92,71.33
186503,2018-06-29 10:22:00.218750,-194.66,71.33
186504,2018-06-29 10:22:00.250000,-124.18,71.33
186505,2018-06-29 10:22:00.281250,-56.35,71.33
186506,2018-06-29 10:22:00.312500,-10.7,71.33
186507,2018-06-29 10:22:00.343750,16.81,71.33
186508,2018-06-29 10:22:00.375000,36.8,71.33
186509,2018-06-29 10:22:00.406250,58.85,71.33
186510,2018-06-29 10:22:00.437500,88.54,71.33
186511,2018-06-29 10:22:00.468750,113.57,71.33
186512,2018-06-29 10:22:00.500000,106.12,71.33
186513,2018-06-29 10:22:00.531250,52.25,71.43
186514,2018-06-29 10:22:00.562500,-30.77,71.43
186515,2018-06-29 10:22:00.593750,-112.18,71.43
186516,2018-06-29 10:22:00.625000,-176.4,71.43
186517,2018-06-29 10:22:00.656250,-229.6,71.43
186518,2018-06-29 10:22:00.687500,-287.14,71.43
186519,2018-06-29 10:22:00.718750,-361.67,71.43
186520,2018-06-29 10:22:00.750000,-438.39,71.43
186521,2018-06-29 10:22:00.781250,-465.56,71.43
186522,2018-06-29 10:22:00.812500,-397.59,71.43
186523,2018-06-29 10:22:00.843750,-252.34,71.43
186524,2018-06-29 10:22:00.875000,-89.65,71.43
186525,2018-06-29 10:22:00.906250,50.99,71.43
186526,2018-06-29 10:22:00.937500,154.93,71.43
186527,2018-06-29 10:22:00.968750,208.18,71.43
186528,2018-06-29 10:22:01.000000,205.75,71.43
186529,2018-06-29 10:22:01.031250,177.02,71.43
186530,2018-06-29 10:22:01.062500,152.83,71.43
186531,2018-06-29 10:22:01.093750,136.46,71.43
186532,2018-06-29 10:22:01.125000,109.09,71.43
186533,2018-06-29 10:22:01.156250,75.68,71.43
186534,2018-06-29 10:22:01.187500,67.13,71.43
186535,2018-06-29 10:22:01.218750,82.84,71.43
186536,2018-06-29 10:22:01.250000,81.12,71.43
186537,2018-06-29 10:22:01.281250,10.92,71.43
186538,2018-06-29 10:22:01.312500,-91.72,71.43
186539,2018-06-29 10:22:01.343750,-176.9,71.43
186540,2018-06-29 10:22:01.375000,-238.09,71.43
186541,2018-06-29 10:22:01.406250,-321.52,71.43
186542,2018-06-29 10:22:01.437500,-439.83,71.43
186543,2018-06-29 10:22:01.468750,-552.94,71.43
186544,2018-06-29 10:22:01.500000,-637.01,71.43
186545,2018-06-29 10:22:01.531250,-661.93,71.57
186546,2018-06-29 10:22:01.562500,-649.04,71.57
186547,2018-06-29 10:22:01.593750,-592.03,71.57
186548,2018-06-29 10:22:01.625000,-511.52,71.57
186549,2018-06-29 10:22:01.656250,-354.94,71.57
186550,2018-06-29 10:22:01.687500,80.27,71.57
186551,2018-06-29 10:22:01.718750,438.34,71.57
186552,2018-06-29 10:22:01.750000,565.01,71.57
186553,2018-06-29 10:22:01.781250,565.0,71.57
186554,2018-06-29 10:22:01.812500,503.96,71.57
186555,2018-06-29 10:22:01.843750,382.84,71.57
186556,2018-06-29 10:22:01.875000,286.61,71.57
186557,2018-06-29 10:22:01.906250,253.21,71.57
186558,2018-06-29 10:22:01.937500,253.84,71.57
186559,2018-06-29 10:22:01.968750,238.52,71.57
186560,2018-06-29 10:22:02.000000,198.05,71.57
186561,2018-06-29 10:22:02.031250,171.46,71.57
186562,2018-06-29 10:22:02.062500,163.32,71.57
186563,2018-06-29 10:22:02.093750,163.11,71.57
186564,2018-06-29 10:22:02.125000,146.01,71.57
186565,2018-06-29 10:22:02.156250,133.68,71.57
186566,2018-06-29 10:22:02.187500,137.81,71.57
186567,2018-06-29 10:22:02.218750,151.33,71.57
186568,2018-06-29 10:22:02.250000,154.65,71.57
186569,2018-06-29 10:22:02.281250,139.67,71.57
186570,2018-06-29 10:22:02.312500,117.58,71.57
186571,2018-06-29 10:22:02.343750,93.43,71.57
186572,2018-06-29 10:22:02.375000,68.03,71.57
186573,2018-06-29 10:22:02.406250,38.4,71.57
186574,2018-06-29 10:22:02.437500,7.77,71.57
186575,2018-06-29 10:22:02.468750,-23.13,71.57
186576,2018-06-29 10:22:02.500000,-52.94,71.57
186577,2018-06-29 10:22:02.531250,-72.2,71.72
186578,2018-06-29 10:22:02.562500,-70.81,71.72
186579,2018-06-29 10:22:02.593750,-50.42,71.72
186580,2018-06-29 10:22:02.625000,-19.81,71.72
186581,2018-06-29 10:22:02.656250,14.17,71.72
186582,2018-06-29 10:22:02.687500,43.24,71.72
186583,2018-06-29 10:22:02.718750,57.24,71.72
186584,2018-06-29 10:22:02.750000,55.69,71.72
186585,2018-06-29 10:22:02.781250,49.51,71.72
186586,2018-06-29 10:22:02.812500,46.72,71.72
186587,2018-06-29 10:22:02.843750,42.43,71.72
186588,2018-06-29 10:22:02.875000,24.04,71.72
186589,2018-06-29 10:22:02.906250,-16.72,71.72
186590,2018-06-29 10:22:02.937500,-77.51,71.72
186591,2018-06-29 10:22:02.968750,-148.3,71.72
186592,2018-06-29 10:22:03.000000,-215.02,71.72
186593,2018-06-29 10:22:03.031250,-262.92,71.72
186594,2018-06-29 10:22:03.062500,-284.84,71.72
186595,2018-06-29 10:22:03.093750,-286.96,71.72
186596,2018-06-29 10:22:03.125000,-282.59,71.72
186597,2018-06-29 10:22:03.156250,-281.97,71.72
186598,2018-06-29 10:22:03.187500,-286.86,71.72
186599,2018-06-29 10:22:03.218750,-287.36,71.72
186600,2018-06-29 10:22:03.250000,-264.33,71.72
186601,2018-06-29 10:22:03.281250,-205.64,71.72
186602,2018-06-29 10:22:03.312500,-121.71,71.72
186603,2018-06-29 10:22:03.343750,-36.4,71.72
186604,2018-06-29 10:22:03.375000,33.85,71.72
186605,2018-06-29 10:22:03.406250,83.96,71.72
186606,2018-06-29 10:22:03.437500,111.87,71.72
186607,2018-06-29 10:22:03.468750,119.13,71.72
186608,2018-06-29 10:22:03.500000,114.33,71.72
186609,2018-06-29 10:22:03.531250,108.53,71.87
186610,2018-06-29 10:22:03.562500,107.84,71.87
186611,2018-06-29 10:22:03.593750,112.07,71.87
186612,2018-06-29 10:22:03.625000,117.74,71.87
186613,2018-06-29 10:22:03.656250,120.89,71.87
186614,2018-06-29 10:22:03.687500,118.24,71.87
186615,2018-06-29 10:22:03.718750,109.07,71.87
186616,2018-06-29 10:22:03.750000,95.66,71.87
186617,2018-06-29 10:22:03.781250,80.22,71.87
186618,2018-06-29 10:22:03.812500,63.59,71.87
186619,2018-06-29 10:22:03.843750,47.38,71.87
186620,2018-06-29 10:22:03.875000,33.97,71.87
186621,2018-06-29 10:22:03.906250,23.88,71.87
186622,2018-06-29 10:22:03.937500,14.43,71.87
186623,2018-06-29 10:22:03.968750,2.2,71.87
186624,2018-06-29 10:22:04.000000,-10.01,71.87
186625,2018-06-29 10:22:04.031250,-8.85,71.87
186626,2018-06-29 10:22:04.062500,18.51,71.87
186627,2018-06-29 10:22:04.093750,68.04,71.87
186628,2018-06-29 10:22:04.125000,122.8,71.87
186629,2018-06-29 10:22:04.156250,170.61,71.87
186630,2018-06-29 10:22:04.187500,207.89,71.87
186631,2018-06-29 10:22:04.218750,231.96,71.87
186632,2018-06-29 10:22:04.250000,242.11,71.87
186633,2018-06-29 10:22:04.281250,243.94,71.87
186634,2018-06-29 10:22:04.312500,242.59,71.87
186635,2018-06-29 10:22:04.343750,234.1,71.87
186636,2018-06-29 10:22:04.375000,211.16,71.87
186637,2018-06-29 10:22:04.406250,176.73,71.87
186638,2018-06-29 10:22:04.437500,143.6,71.87
186639,2018-06-29 10:22:04.468750,119.16,71.87
186640,2018-06-29 10:22:04.500000,99.2,71.87
186641,2018-06-29 10:22:04.531250,78.64,72.03
186642,2018-06-29 10:22:04.562500,60.02,72.03
186643,2018-06-29 10:22:04.593750,50.07,72.03
186644,2018-06-29 10:22:04.625000,52.51,72.03
186645,2018-06-29 10:22:04.656250,63.95,72.03
186646,2018-06-29 10:22:04.687500,76.16,72.03
186647,2018-06-29 10:22:04.718750,84.7,72.03
186648,2018-06-29 10:22:04.750000,91.77,72.03
186649,2018-06-29 10:22:04.781250,97.76,72.03
186650,2018-06-29 10:22:04.812500,97.42,72.03
186651,2018-06-29 10:22:04.843750,86.85,72.03
186652,2018-06-29 10:22:04.875000,67.57,72.03
186653,2018-06-29 10:22:04.906250,42.7,72.03
186654,2018-06-29 10:22:04.937500,13.77,72.03
186655,2018-06-29 10:22:04.968750,-19.78,72.03
186656,2018-06-29 10:22:05.000000,-58.34,72.03
186657,2018-06-29 10:22:05.031250,-96.35,72.03
186658,2018-06-29 10:22:05.062500,-123.17,72.03
186659,2018-06-29 10:22:05.093750,-135.08,72.03
186660,2018-06-29 10:22:05.125000,-140.94,72.03
186661,2018-06-29 10:22:05.156250,-153.19,72.03
186662,2018-06-29 10:22:05.187500,-179.94,72.03
186663,2018-06-29 10:22:05.218750,-222.03,72.03
186664,2018-06-29 10:22:05.250000,-268.08,72.03
186665,2018-06-29 10:22:05.281250,-295.27,72.03
186666,2018-06-29 10:22:05.312500,-286.76,72.03
186667,2018-06-29 10:22:05.343750,-246.82,72.03
186668,2018-06-29 10:22:05.375000,-191.17,72.03
186669,2018-06-29 10:22:05.406250,-128.97,72.03
186670,2018-06-29 10:22:05.437500,-64.21,72.03
186671,2018-06-29 10:22:05.468750,-5.61,72.03
186672,2018-06-29 10:22:05.500000,38.4,72.03
186673,2018-06-29 10:22:05.531250,67.73,72.18
186674,2018-06-29 10:22:05.562500,84.54,72.18
186675,2018-06-29 10:22:05.593750,87.39,72.18
186676,2018-06-29 10:22:05.625000,75.45,72.18
186677,2018-06-29 10:22:05.656250,50.45,72.18
186678,2018-06-29 10:22:05.687500,13.35,72.18
186679,2018-06-29 10:22:05.718750,-33.98,72.18
186680,2018-06-29 10:22:05.750000,-83.26,72.18
186681,2018-06-29 10:22:05.781250,-120.81,72.18
186682,2018-06-29 10:22:05.812500,-136.79,72.18
186683,2018-06-29 10:22:05.843750,-130.98,72.18
186684,2018-06-29 10:22:05.875000,-106.06,72.18
186685,2018-06-29 10:22:05.906250,-65.29,72.18
186686,2018-06-29 10:22:05.937500,-22.27,72.18
186687,2018-06-29 10:22:05.968750,6.79,72.18
186688,2018-06-29 10:22:06.000000,28.41,72.18
186689,2018-06-29 10:22:06.031250,64.37,72.18
186690,2018-06-29 10:22:06.062500,114.22,72.18
186691,2018-06-29 10:22:06.093750,152.13,72.18
186692,2018-06-29 10:22:06.125000,161.27,72.18
186693,2018-06-29 10:22:06.156250,146.97,72.18
186694,2018-06-29 10:22:06.187500,118.67,72.18
186695,2018-06-29 10:22:06.218750,79.67,72.18
186696,2018-06-29 10:22:06.250000,36.05,72.18
186697,2018-06-29 10:22:06.281250,-1.62,72.18
186698,2018-06-29 10:22:06.312500,-28.04,72.18
186699,2018-06-29 10:22:06.343750,-44.15,72.18
186700,2018-06-29 10:22:06.375000,-49.24,72.18
186701,2018-06-29 10:22:06.406250,-42.37,72.18
186702,2018-06-29 10:22:06.437500,-29.97,72.18
186703,2018-06-29 10:22:06.468750,-22.72,72.18
186704,2018-06-29 10:22:06.500000,-24.28,72.18
186705,2018-06-29 10:22:06.531250,-27.42,72.38
186706,2018-06-29 10:22:06.562500,-20.99,72.38
186707,2018-06-29 10:22:06.593750,0.64,72.38
186708,2018-06-29 10:22:06.625000,34.05,72.38
186709,2018-06-29 10:22:06.656250,70.09,72.38
186710,2018-06-29 10:22:06.687500,100.5,72.38
186711,2018-06-29 10:22:06.718750,123.95,72.38
186712,2018-06-29 10:22:06.750000,145.71,72.38
186713,2018-06-29 10:22:06.781250,167.96,72.38
186714,2018-06-29 10:22:06.812500,181.71,72.38
186715,2018-06-29 10:22:06.843750,173.75,72.38
186716,2018-06-29 10:22:06.875000,141.69,72.38
186717,2018-06-29 10:22:06.906250,98.5,72.38
186718,2018-06-29 10:22:06.937500,61.35,72.38
186719,2018-06-29 10:22:06.968750,36.25,72.38
186720,2018-06-29 10:22:07.000000,12.93,72.38
186721,2018-06-29 10:22:07.031250,-22.35,72.38
186722,2018-06-29 10:22:07.062500,-69.57,72.38
186723,2018-06-29 10:22:07.093750,-116.88,72.38
186724,2018-06-29 10:22:07.125000,-155.6,72.38
186725,2018-06-29 10:22:07.156250,-181.16,72.38
186726,2018-06-29 10:22:07.187500,-184.63,72.38
186727,2018-06-29 10:22:07.218750,-158.96,72.38
186728,2018-06-29 10:22:07.250000,-109.94,72.38
186729,2018-06-29 10:22:07.281250,-50.54,72.38
186730,2018-06-29 10:22:07.312500,9.5,72.38
186731,2018-06-29 10:22:07.343750,61.89,72.38
186732,2018-06-29 10:22:07.375000,98.68,72.38
186733,2018-06-29 10:22:07.406250,119.2,72.38
186734,2018-06-29 10:22:07.437500,130.27,72.38
186735,2018-06-29 10:22:07.468750,136.51,72.38
186736,2018-06-29 10:22:07.500000,136.48,72.38
186737,2018-06-29 10:22:07.531250,128.26,72.58
186738,2018-06-29 10:22:07.562500,113.14,72.58
186739,2018-06-29 10:22:07.593750,95.75,72.58
186740,2018-06-29 10:22:07.625000,83.29,72.58
186741,2018-06-29 10:22:07.656250,80.68,72.58
186742,2018-06-29 10:22:07.687500,84.29,72.58
186743,2018-06-29 10:22:07.718750,84.25,72.58
186744,2018-06-29 10:22:07.750000,77.23,72.58
186745,2018-06-29 10:22:07.781250,74.91,72.58
186746,2018-06-29 10:22:07.812500,92.32,72.58
186747,2018-06-29 10:22:07.843750,127.4,72.58
186748,2018-06-29 10:22:07.875000,162.59,72.58
186749,2018-06-29 10:22:07.906250,186.72,72.58
186750,2018-06-29 10:22:07.937500,201.05,72.58
186751,2018-06-29 10:22:07.968750,205.91,72.58
186752,2018-06-29 10:22:08.000000,196.17,72.58
186753,2018-06-29 10:22:08.031250,168.79,72.58
186754,2018-06-29 10:22:08.062500,126.73,72.58
186755,2018-06-29 10:22:08.093750,76.63,72.58
186756,2018-06-29 10:22:08.125000,24.4,72.58
186757,2018-06-29 10:22:08.156250,-28.28,72.58
186758,2018-06-29 10:22:08.187500,-81.76,72.58
186759,2018-06-29 10:22:08.218750,-134.56,72.58
186760,2018-06-29 10:22:08.250000,-186.16,72.58
186761,2018-06-29 10:22:08.281250,-239.62,72.58
186762,2018-06-29 10:22:08.312500,-298.25,72.58
186763,2018-06-29 10:22:08.343750,-362.44,72.58
186764,2018-06-29 10:22:08.375000,-424.44,72.58
186765,2018-06-29 10:22:08.406250,-465.46,72.58
186766,2018-06-29 10:22:08.437500,-469.55,72.58
186767,2018-06-29 10:22:08.468750,-441.23,72.58
186768,2018-06-29 10:22:08.500000,-399.22,72.58
186769,2018-06-29 10:22:08.531250,-358.08,72.78
186770,2018-06-29 10:22:08.562500,-324.57,72.78
186771,2018-06-29 10:22:08.593750,-298.92,72.78
186772,2018-06-29 10:22:08.625000,-269.56,72.78
186773,2018-06-29 10:22:08.656250,-220.56,72.78
186774,2018-06-29 10:22:08.687500,-152.45,72.78
186775,2018-06-29 10:22:08.718750,-86.29,72.78
186776,2018-06-29 10:22:08.750000,-41.03,72.78
186777,2018-06-29 10:22:08.781250,-15.32,72.78
186778,2018-06-29 10:22:08.812500,3.12,72.78
186779,2018-06-29 10:22:08.843750,18.77,72.78
186780,2018-06-29 10:22:08.875000,28.62,72.78
186781,2018-06-29 10:22:08.906250,34.59,72.78
186782,2018-06-29 10:22:08.937500,42.5,72.78
186783,2018-06-29 10:22:08.968750,53.3,72.78
186784,2018-06-29 10:22:09.000000,65.85,72.78
186785,2018-06-29 10:22:09.031250,82.63,72.78
186786,2018-06-29 10:22:09.062500,104.57,72.78
186787,2018-06-29 10:22:09.093750,126.05,72.78
186788,2018-06-29 10:22:09.125000,139.08,72.78
186789,2018-06-29 10:22:09.156250,137.27,72.78
186790,2018-06-29 10:22:09.187500,118.42,72.78
186791,2018-06-29 10:22:09.218750,87.73,72.78
186792,2018-06-29 10:22:09.250000,55.58,72.78
186793,2018-06-29 10:22:09.281250,29.71,72.78
186794,2018-06-29 10:22:09.312500,11.31,72.78
186795,2018-06-29 10:22:09.343750,-4.29,72.78
186796,2018-06-29 10:22:09.375000,-24.77,72.78
186797,2018-06-29 10:22:09.406250,-52.54,72.78
186798,2018-06-29 10:22:09.437500,-78.07,72.78
186799,2018-06-29 10:22:09.468750,-87.95,72.78
186800,2018-06-29 10:22:09.500000,-77.41,72.78
186801,2018-06-29 10:22:09.531250,-50.17,72.93
186802,2018-06-29 10:22:09.562500,-13.15,72.93
186803,2018-06-29 10:22:09.593750,27.44,72.93
186804,2018-06-29 10:22:09.625000,63.97,72.93
186805,2018-06-29 10:22:09.656250,88.3,72.93
186806,2018-06-29 10:22:09.687500,96.26,72.93
186807,2018-06-29 10:22:09.718750,92.94,72.93
186808,2018-06-29 10:22:09.750000,88.66,72.93
186809,2018-06-29 10:22:09.781250,89.99,72.93
186810,2018-06-29 10:22:09.812500,102.61,72.93
186811,2018-06-29 10:22:09.843750,132.07,72.93
186812,2018-06-29 10:22:09.875000,181.96,72.93
186813,2018-06-29 10:22:09.906250,234.74,72.93
186814,2018-06-29 10:22:09.937500,268.05,72.93
186815,2018-06-29 10:22:09.968750,274.01,72.93
186816,2018-06-29 10:22:10.000000,264.54,72.93
186817,2018-06-29 10:22:10.031250,251.02,72.93
186818,2018-06-29 10:22:10.062500,226.53,72.93
186819,2018-06-29 10:22:10.093750,193.96,72.93
186820,2018-06-29 10:22:10.125000,161.54,72.93
186821,2018-06-29 10:22:10.156250,147.77,72.93
186822,2018-06-29 10:22:10.187500,132.98,72.93
186823,2018-06-29 10:22:10.218750,94.89,72.93
186824,2018-06-29 10:22:10.250000,45.95,72.93
186825,2018-06-29 10:22:10.281250,35.18,72.93
186826,2018-06-29 10:22:10.312500,93.61,72.93
186827,2018-06-29 10:22:10.343750,184.42,72.93
186828,2018-06-29 10:22:10.375000,278.74,72.93
186829,2018-06-29 10:22:10.406250,250.23,72.93
186830,2018-06-29 10:22:10.437500,67.53,72.93
186831,2018-06-29 10:22:10.468750,-79.69,72.93
186832,2018-06-29 10:22:10.500000,-148.35,72.93
186833,2018-06-29 10:22:10.531250,-170.7,73.1
186834,2018-06-29 10:22:10.562500,-163.48,73.1
186835,2018-06-29 10:22:10.593750,-128.16,73.1
186836,2018-06-29 10:22:10.625000,-99.59,73.1
186837,2018-06-29 10:22:10.656250,-94.88,73.1
186838,2018-06-29 10:22:10.687500,-112.39,73.1
186839,2018-06-29 10:22:10.718750,-132.01,73.1
186840,2018-06-29 10:22:10.750000,-167.31,73.1
186841,2018-06-29 10:22:10.781250,-232.01,73.1
186842,2018-06-29 10:22:10.812500,-306.97,73.1
186843,2018-06-29 10:22:10.843750,-351.5,73.1
186844,2018-06-29 10:22:10.875000,-340.41,73.1
186845,2018-06-29 10:22:10.906250,-295.16,73.1
186846,2018-06-29 10:22:10.937500,-241.01,73.1
186847,2018-06-29 10:22:10.968750,-186.38,73.1
186848,2018-06-29 10:22:11.000000,-123.76,73.1
186849,2018-06-29 10:22:11.031250,-61.08,73.1
186850,2018-06-29 10:22:11.062500,-14.09,73.1
186851,2018-06-29 10:22:11.093750,18.41,73.1
186852,2018-06-29 10:22:11.125000,52.39,73.1
186853,2018-06-29 10:22:11.156250,93.5,73.1
186854,2018-06-29 10:22:11.187500,126.21,73.1
186855,2018-06-29 10:22:11.218750,138.65,73.1
186856,2018-06-29 10:22:11.250000,136.88,73.1
186857,2018-06-29 10:22:11.281250,135.65,73.1
186858,2018-06-29 10:22:11.312500,142.97,73.1
186859,2018-06-29 10:22:11.343750,155.27,73.1
186860,2018-06-29 10:22:11.375000,165.12,73.1
186861,2018-06-29 10:22:11.406250,170.77,73.1
186862,2018-06-29 10:22:11.437500,175.2,73.1
186863,2018-06-29 10:22:11.468750,177.17,73.1
186864,2018-06-29 10:22:11.500000,167.17,73.1
186865,2018-06-29 10:22:11.531250,131.96,73.27
186866,2018-06-29 10:22:11.562500,64.09,73.27
186867,2018-06-29 10:22:11.593750,-31.03,73.27
186868,2018-06-29 10:22:11.625000,-138.99,73.27
186869,2018-06-29 10:22:11.656250,-245.72,73.27
186870,2018-06-29 10:22:11.687500,-336.19,73.27
186871,2018-06-29 10:22:11.718750,-389.99,73.27
186872,2018-06-29 10:22:11.750000,-393.09,73.27
186873,2018-06-29 10:22:11.781250,-353.54,73.27
186874,2018-06-29 10:22:11.812500,-294.8,73.27
186875,2018-06-29 10:22:11.843750,-234.07,73.27
186876,2018-06-29 10:22:11.875000,-171.96,73.27
186877,2018-06-29 10:22:11.906250,-101.54,73.27
186878,2018-06-29 10:22:11.937500,-24.08,73.27
186879,2018-06-29 10:22:11.968750,49.16,73.27
186880,2018-06-29 10:22:12.000000,114.09,73.27
186881,2018-06-29 10:22:12.031250,179.82,73.27
186882,2018-06-29 10:22:12.062500,247.34,73.27
186883,2018-06-29 10:22:12.093750,297.02,73.27
186884,2018-06-29 10:22:12.125000,309.0,73.27
186885,2018-06-29 10:22:12.156250,284.83,73.27
186886,2018-06-29 10:22:12.187500,242.43,73.27
186887,2018-06-29 10:22:12.218750,201.99,73.27
186888,2018-06-29 10:22:12.250000,178.04,73.27
186889,2018-06-29 10:22:12.281250,173.69,73.27
186890,2018-06-29 10:22:12.312500,179.56,73.27
186891,2018-06-29 10:22:12.343750,182.35,73.27
186892,2018-06-29 10:22:12.375000,175.25,73.27
186893,2018-06-29 10:22:12.406250,160.74,73.27
186894,2018-06-29 10:22:12.437500,144.54,73.27
186895,2018-06-29 10:22:12.468750,130.55,73.27
186896,2018-06-29 10:22:12.500000,117.63,73.27
186897,2018-06-29 10:22:12.531250,97.27,73.43
186898,2018-06-29 10:22:12.562500,64.11,73.43
186899,2018-06-29 10:22:12.593750,30.76,73.43
186900,2018-06-29 10:22:12.625000,14.43,73.43
186901,2018-06-29 10:22:12.656250,9.57,73.43
186902,2018-06-29 10:22:12.687500,-4.98,73.43
186903,2018-06-29 10:22:12.718750,-36.81,73.43
186904,2018-06-29 10:22:12.750000,-78.78,73.43
186905,2018-06-29 10:22:12.781250,-124.95,73.43
186906,2018-06-29 10:22:12.812500,-170.28,73.43
186907,2018-06-29 10:22:12.843750,-203.87,73.43
186908,2018-06-29 10:22:12.875000,-212.39,73.43
186909,2018-06-29 10:22:12.906250,-188.12,73.43
186910,2018-06-29 10:22:12.937500,-133.46,73.43
186911,2018-06-29 10:22:12.968750,-61.29,73.43
186912,2018-06-29 10:22:13.000000,9.69,73.43
186913,2018-06-29 10:22:13.031250,64.15,73.43
186914,2018-06-29 10:22:13.062500,100.6,73.43
186915,2018-06-29 10:22:13.093750,129.11,73.43
186916,2018-06-29 10:22:13.125000,151.69,73.43
186917,2018-06-29 10:22:13.156250,152.0,73.43
186918,2018-06-29 10:22:13.187500,114.22,73.43
186919,2018-06-29 10:22:13.218750,43.86,73.43
186920,2018-06-29 10:22:13.250000,-39.38,73.43
186921,2018-06-29 10:22:13.281250,-121.44,73.43
186922,2018-06-29 10:22:13.312500,-198.13,73.43
186923,2018-06-29 10:22:13.343750,-266.76,73.43
186924,2018-06-29 10:22:13.375000,-325.69,73.43
186925,2018-06-29 10:22:13.406250,-381.59,73.43
186926,2018-06-29 10:22:13.437500,-444.42,73.43
186927,2018-06-29 10:22:13.468750,-511.77,73.43
186928,2018-06-29 10:22:13.500000,-566.36,73.43
186929,2018-06-29 10:22:13.531250,-590.44,73.68
186930,2018-06-29 10:22:13.562500,-574.31,73.68
186931,2018-06-29 10:22:13.593750,-515.71,73.68
186932,2018-06-29 10:22:13.625000,-424.03,73.68
186933,2018-06-29 10:22:13.656250,-320.76,73.68
186934,2018-06-29 10:22:13.687500,-224.53,73.68
186935,2018-06-29 10:22:13.718750,-139.83,73.68
186936,2018-06-29 10:22:13.750000,-64.42,73.68
186937,2018-06-29 10:22:13.781250,2.37,73.68
186938,2018-06-29 10:22:13.812500,62.57,73.68
186939,2018-06-29 10:22:13.843750,119.34,73.68
186940,2018-06-29 10:22:13.875000,170.44,73.68
186941,2018-06-29 10:22:13.906250,210.44,73.68
186942,2018-06-29 10:22:13.937500,240.02,73.68
186943,2018-06-29 10:22:13.968750,263.65,73.68
186944,2018-06-29 10:22:14.000000,279.11,73.68
186945,2018-06-29 10:22:14.031250,280.42,73.68
186946,2018-06-29 10:22:14.062500,269.96,73.68
186947,2018-06-29 10:22:14.093750,256.48,73.68
186948,2018-06-29 10:22:14.125000,242.74,73.68
186949,2018-06-29 10:22:14.156250,224.6,73.68
186950,2018-06-29 10:22:14.187500,199.5,73.68
186951,2018-06-29 10:22:14.218750,170.27,73.68
186952,2018-06-29 10:22:14.250000,141.52,73.68
186953,2018-06-29 10:22:14.281250,113.88,73.68
186954,2018-06-29 10:22:14.312500,82.03,73.68
186955,2018-06-29 10:22:14.343750,41.16,73.68
186956,2018-06-29 10:22:14.375000,-5.61,73.68
186957,2018-06-29 10:22:14.406250,-49.42,73.68
186958,2018-06-29 10:22:14.437500,-84.2,73.68
186959,2018-06-29 10:22:14.468750,-111.82,73.68
186960,2018-06-29 10:22:14.500000,-140.56,73.68
186961,2018-06-29 10:22:14.531250,-173.38,73.93
186962,2018-06-29 10:22:14.562500,-196.32,73.93
186963,2018-06-29 10:22:14.593750,-188.09,73.93
186964,2018-06-29 10:22:14.625000,-142.97,73.93
186965,2018-06-29 10:22:14.656250,-79.88,73.93
186966,2018-06-29 10:22:14.687500,-30.86,73.93
186967,2018-06-29 10:22:14.718750,-19.44,73.93
186968,2018-06-29 10:22:14.750000,-44.09,73.93
186969,2018-06-29 10:22:14.781250,-82.71,73.93
186970,2018-06-29 10:22:14.812500,-113.18,73.93
186971,2018-06-29 10:22:14.843750,-125.11,73.93
186972,2018-06-29 10:22:14.875000,-118.07,73.93
186973,2018-06-29 10:22:14.906250,-98.3,73.93
186974,2018-06-29 10:22:14.937500,-74.31,73.93
186975,2018-06-29 10:22:14.968750,-51.73,73.93
186976,2018-06-29 10:22:15.000000,-32.87,73.93
186977,2018-06-29 10:22:15.031250,-17.06,73.93
186978,2018-06-29 10:22:15.062500,0.19,73.93
186979,2018-06-29 10:22:15.093750,24.09,73.93
186980,2018-06-29 10:22:15.125000,55.17,73.93
186981,2018-06-29 10:22:15.156250,88.51,73.93
186982,2018-06-29 10:22:15.187500,118.25,73.93
186983,2018-06-29 10:22:15.218750,138.38,73.93
186984,2018-06-29 10:22:15.250000,145.01,73.93
186985,2018-06-29 10:22:15.281250,140.95,73.93
186986,2018-06-29 10:22:15.312500,133.37,73.93
186987,2018-06-29 10:22:15.343750,127.04,73.93
186988,2018-06-29 10:22:15.375000,121.03,73.93
186989,2018-06-29 10:22:15.406250,112.07,73.93
186990,2018-06-29 10:22:15.437500,95.47,73.93
186991,2018-06-29 10:22:15.468750,71.66,73.93
186992,2018-06-29 10:22:15.500000,49.91,73.93
186993,2018-06-29 10:22:15.531250,46.32,74.17
186994,2018-06-29 10:22:15.562500,68.22,74.17
186995,2018-06-29 10:22:15.593750,104.73,74.17
186996,2018-06-29 10:22:15.625000,143.77,74.17
186997,2018-06-29 10:22:15.656250,185.22,74.17
186998,2018-06-29 10:22:15.687500,239.24,74.17
186999,2018-06-29 10:22:15.718750,295.35,74.17
187000,2018-06-29 10:22:15.750000,335.24,74.17
187001,2018-06-29 10:22:15.781250,350.77,74.17
187002,2018-06-29 10:22:15.812500,350.76,74.17
187003,2018-06-29 10:22:15.843750,340.35,74.17
187004,2018-06-29 10:22:15.875000,309.75,74.17
187005,2018-06-29 10:22:15.906250,261.1,74.17
187006,2018-06-29 10:22:15.937500,204.64,74.17
187007,2018-06-29 10:22:15.968750,158.7,74.17
187008,2018-06-29 10:22:16.000000,116.08,74.17
187009,2018-06-29 10:22:16.031250,73.55,74.17
187010,2018-06-29 10:22:16.062500,24.07,74.17
187011,2018-06-29 10:22:16.093750,-98.23,74.17
187012,2018-06-29 10:22:16.125000,-202.56,74.17
187013,2018-06-29 10:22:16.156250,-229.7,74.17
187014,2018-06-29 10:22:16.187500,-219.07,74.17
187015,2018-06-29 10:22:16.218750,-208.25,74.17
187016,2018-06-29 10:22:16.250000,-195.64,74.17
187017,2018-06-29 10:22:16.281250,-187.13,74.17
187018,2018-06-29 10:22:16.312500,-187.48,74.17
187019,2018-06-29 10:22:16.343750,-190.7,74.17
187020,2018-06-29 10:22:16.375000,-181.64,74.17
187021,2018-06-29 10:22:16.406250,-163.23,74.17
187022,2018-06-29 10:22:16.437500,-157.12,74.17
187023,2018-06-29 10:22:16.468750,-162.62,74.17
187024,2018-06-29 10:22:16.500000,-162.96,74.17
187025,2018-06-29 10:22:16.531250,-141.77,74.52
187026,2018-06-29 10:22:16.562500,-112.91,74.52
187027,2018-06-29 10:22:16.593750,-93.67,74.52
187028,2018-06-29 10:22:16.625000,-81.47,74.52
187029,2018-06-29 10:22:16.656250,-64.63,74.52
187030,2018-06-29 10:22:16.687500,-43.27,74.52
187031,2018-06-29 10:22:16.718750,-29.64,74.52
187032,2018-06-29 10:22:16.750000,-26.36,74.52
187033,2018-06-29 10:22:16.781250,-23.85,74.52
187034,2018-06-29 10:22:16.812500,-13.59,74.52
187035,2018-06-29 10:22:16.843750,1.99,74.52
187036,2018-06-29 10:22:16.875000,17.92,74.52
187037,2018-06-29 10:22:16.906250,33.2,74.52
187038,2018-06-29 10:22:16.937500,46.75,74.52
187039,2018-06-29 10:22:16.968750,54.68,74.52
187040,2018-06-29 10:22:17.000000,55.28,74.52
187041,2018-06-29 10:22:17.031250,52.0,74.52
187042,2018-06-29 10:22:17.062500,48.61,74.52
187043,2018-06-29 10:22:17.093750,44.74,74.52
187044,2018-06-29 10:22:17.125000,41.01,74.52
187045,2018-06-29 10:22:17.156250,41.7,74.52
187046,2018-06-29 10:22:17.187500,49.56,74.52
187047,2018-06-29 10:22:17.218750,65.53,74.52
187048,2018-06-29 10:22:17.250000,89.8,74.52
187049,2018-06-29 10:22:17.281250,115.24,74.52
187050,2018-06-29 10:22:17.312500,127.1,74.52
187051,2018-06-29 10:22:17.343750,116.78,74.52
187052,2018-06-29 10:22:17.375000,90.34,74.52
187053,2018-06-29 10:22:17.406250,62.62,74.52
187054,2018-06-29 10:22:17.437500,45.45,74.52
187055,2018-06-29 10:22:17.468750,39.82,74.52
187056,2018-06-29 10:22:17.500000,39.36,74.52
187057,2018-06-29 10:22:17.531250,41.02,74.87
187058,2018-06-29 10:22:17.562500,46.15,74.87
187059,2018-06-29 10:22:17.593750,51.87,74.87
187060,2018-06-29 10:22:17.625000,50.93,74.87
187061,2018-06-29 10:22:17.656250,41.86,74.87
187062,2018-06-29 10:22:17.687500,30.67,74.87
187063,2018-06-29 10:22:17.718750,20.85,74.87
187064,2018-06-29 10:22:17.750000,9.47,74.87
187065,2018-06-29 10:22:17.781250,-4.52,74.87
187066,2018-06-29 10:22:17.812500,-16.8,74.87
187067,2018-06-29 10:22:17.843750,-25.8,74.87
187068,2018-06-29 10:22:17.875000,-38.19,74.87
187069,2018-06-29 10:22:17.906250,-62.48,74.87
187070,2018-06-29 10:22:17.937500,-97.47,74.87
187071,2018-06-29 10:22:17.968750,-130.88,74.87
187072,2018-06-29 10:22:18.000000,-151.66,74.87
187073,2018-06-29 10:22:18.031250,-159.94,74.87
187074,2018-06-29 10:22:18.062500,-161.7,74.87
187075,2018-06-29 10:22:18.093750,-159.88,74.87
187076,2018-06-29 10:22:18.125000,-155.04,74.87
187077,2018-06-29 10:22:18.156250,-147.93,74.87
187078,2018-06-29 10:22:18.187500,-137.01,74.87
187079,2018-06-29 10:22:18.218750,-117.84,74.87
187080,2018-06-29 10:22:18.250000,-87.66,74.87
187081,2018-06-29 10:22:18.281250,-49.34,74.87
187082,2018-06-29 10:22:18.312500,-9.99,74.87
187083,2018-06-29 10:22:18.343750,24.73,74.87
187084,2018-06-29 10:22:18.375000,53.99,74.87
187085,2018-06-29 10:22:18.406250,78.69,74.87
187086,2018-06-29 10:22:18.437500,96.98,74.87
187087,2018-06-29 10:22:18.468750,106.24,74.87
187088,2018-06-29 10:22:18.500000,108.37,74.87
187089,2018-06-29 10:22:18.531250,110.3,75.17
187090,2018-06-29 10:22:18.562500,117.69,75.17
187091,2018-06-29 10:22:18.593750,130.29,75.17
187092,2018-06-29 10:22:18.625000,144.36,75.17
187093,2018-06-29 10:22:18.656250,155.72,75.17
187094,2018-06-29 10:22:18.687500,159.23,75.17
187095,2018-06-29 10:22:18.718750,149.9,75.17
187096,2018-06-29 10:22:18.750000,125.98,75.17
187097,2018-06-29 10:22:18.781250,89.43,75.17
187098,2018-06-29 10:22:18.812500,44.02,75.17
187099,2018-06-29 10:22:18.843750,-5.94,75.17
187100,2018-06-29 10:22:18.875000,-57.63,75.17
187101,2018-06-29 10:22:18.906250,-111.18,75.17
187102,2018-06-29 10:22:18.937500,-164.62,75.17
187103,2018-06-29 10:22:18.968750,-208.47,75.17
187104,2018-06-29 10:22:19.000000,-231.22,75.17
187105,2018-06-29 10:22:19.031250,-229.61,75.17
187106,2018-06-29 10:22:19.062500,-207.69,75.17
187107,2018-06-29 10:22:19.093750,-170.37,75.17
187108,2018-06-29 10:22:19.125000,-126.06,75.17
187109,2018-06-29 10:22:19.156250,-89.38,75.17
187110,2018-06-29 10:22:19.187500,-70.52,75.17
187111,2018-06-29 10:22:19.218750,-66.0,75.17
187112,2018-06-29 10:22:19.250000,-65.72,75.17
187113,2018-06-29 10:22:19.281250,-62.01,75.17
187114,2018-06-29 10:22:19.312500,-49.18,75.17
187115,2018-06-29 10:22:19.343750,-25.26,75.17
187116,2018-06-29 10:22:19.375000,4.08,75.17
187117,2018-06-29 10:22:19.406250,29.7,75.17
187118,2018-06-29 10:22:19.437500,46.85,75.17
187119,2018-06-29 10:22:19.468750,56.66,75.17
187120,2018-06-29 10:22:19.500000,63.06,75.17
187121,2018-06-29 10:22:19.531250,69.15,75.4
187122,2018-06-29 10:22:19.562500,73.8,75.4
187123,2018-06-29 10:22:19.593750,72.31,75.4
187124,2018-06-29 10:22:19.625000,61.42,75.4
187125,2018-06-29 10:22:19.656250,42.89,75.4
187126,2018-06-29 10:22:19.687500,21.46,75.4
187127,2018-06-29 10:22:19.718750,-0.49,75.4
187128,2018-06-29 10:22:19.750000,-24.91,75.4
187129,2018-06-29 10:22:19.781250,-53.56,75.4
187130,2018-06-29 10:22:19.812500,-82.18,75.4
187131,2018-06-29 10:22:19.843750,-100.75,75.4
187132,2018-06-29 10:22:19.875000,-101.45,75.4
187133,2018-06-29 10:22:19.906250,-85.59,75.4
187134,2018-06-29 10:22:19.937500,-60.19,75.4
187135,2018-06-29 10:22:19.968750,-29.65,75.4
187136,2018-06-29 10:22:20.000000,4.86,75.4
187137,2018-06-29 10:22:20.031250,38.92,75.4
187138,2018-06-29 10:22:20.062500,64.18,75.4
187139,2018-06-29 10:22:20.093750,76.72,75.4
187140,2018-06-29 10:22:20.125000,81.57,75.4
187141,2018-06-29 10:22:20.156250,86.23,75.4
187142,2018-06-29 10:22:20.187500,93.4,75.4
187143,2018-06-29 10:22:20.218750,102.45,75.4
187144,2018-06-29 10:22:20.250000,112.49,75.4
187145,2018-06-29 10:22:20.281250,121.4,75.4
187146,2018-06-29 10:22:20.312500,125.67,75.4
187147,2018-06-29 10:22:20.343750,122.85,75.4
187148,2018-06-29 10:22:20.375000,112.61,75.4
187149,2018-06-29 10:22:20.406250,96.48,75.4
187150,2018-06-29 10:22:20.437500,76.36,75.4
187151,2018-06-29 10:22:20.468750,53.16,75.4
187152,2018-06-29 10:22:20.500000,27.79,75.4
187153,2018-06-29 10:22:20.531250,3.14,75.68
187154,2018-06-29 10:22:20.562500,-15.99,75.68
187155,2018-06-29 10:22:20.593750,-23.52,75.68
187156,2018-06-29 10:22:20.625000,-15.17,75.68
187157,2018-06-29 10:22:20.656250,5.16,75.68
187158,2018-06-29 10:22:20.687500,25.66,75.68
187159,2018-06-29 10:22:20.718750,36.93,75.68
187160,2018-06-29 10:22:20.750000,39.08,75.68
187161,2018-06-29 10:22:20.781250,37.15,75.68
187162,2018-06-29 10:22:20.812500,34.16,75.68
187163,2018-06-29 10:22:20.843750,31.77,75.68
187164,2018-06-29 10:22:20.875000,33.67,75.68
187165,2018-06-29 10:22:20.906250,41.98,75.68
187166,2018-06-29 10:22:20.937500,52.2,75.68
187167,2018-06-29 10:22:20.968750,58.17,75.68
187168,2018-06-29 10:22:21.000000,58.99,75.68
187169,2018-06-29 10:22:21.031250,55.98,75.68
187170,2018-06-29 10:22:21.062500,49.29,75.68
187171,2018-06-29 10:22:21.093750,41.55,75.68
187172,2018-06-29 10:22:21.125000,37.56,75.68
187173,2018-06-29 10:22:21.156250,38.12,75.68
187174,2018-06-29 10:22:21.187500,39.81,75.68
187175,2018-06-29 10:22:21.218750,40.2,75.68
187176,2018-06-29 10:22:21.250000,38.68,75.68
187177,2018-06-29 10:22:21.281250,33.25,75.68
187178,2018-06-29 10:22:21.312500,19.64,75.68
187179,2018-06-29 10:22:21.343750,-5.63,75.68
187180,2018-06-29 10:22:21.375000,-42.04,75.68
187181,2018-06-29 10:22:21.406250,-83.33,75.68
187182,2018-06-29 10:22:21.437500,-117.54,75.68
187183,2018-06-29 10:22:21.468750,-134.32,75.68
187184,2018-06-29 10:22:21.500000,-136.25,75.68
187185,2018-06-29 10:22:21.531250,-136.21,75.8
187186,2018-06-29 10:22:21.562500,-139.78,75.8
187187,2018-06-29 10:22:21.593750,-138.95,75.8
187188,2018-06-29 10:22:21.625000,-125.44,75.8
187189,2018-06-29 10:22:21.656250,-100.82,75.8
187190,2018-06-29 10:22:21.687500,-72.2,75.8
187191,2018-06-29 10:22:21.718750,-45.59,75.8
187192,2018-06-29 10:22:21.750000,-25.66,75.8
187193,2018-06-29 10:22:21.781250,-15.69,75.8
187194,2018-06-29 10:22:21.812500,-14.37,75.8
187195,2018-06-29 10:22:21.843750,-16.19,75.8
187196,2018-06-29 10:22:21.875000,-16.77,75.8
187197,2018-06-29 10:22:21.906250,-15.63,75.8
187198,2018-06-29 10:22:21.937500,-13.72,75.8
187199,2018-06-29 10:22:21.968750,-11.75,75.8
187200,2018-06-29 10:22:22.000000,-10.71,75.8
187201,2018-06-29 10:22:22.031250,-12.37,75.8
187202,2018-06-29 10:22:22.062500,-18.92,75.8
187203,2018-06-29 10:22:22.093750,-31.15,75.8
187204,2018-06-29 10:22:22.125000,-47.28,75.8
187205,2018-06-29 10:22:22.156250,-64.46,75.8
187206,2018-06-29 10:22:22.187500,-78.79,75.8
187207,2018-06-29 10:22:22.218750,-82.69,75.8
187208,2018-06-29 10:22:22.250000,-68.42,75.8
187209,2018-06-29 10:22:22.281250,-37.7,75.8
187210,2018-06-29 10:22:22.312500,-2.21,75.8
187211,2018-06-29 10:22:22.343750,27.49,75.8
187212,2018-06-29 10:22:22.375000,48.13,75.8
187213,2018-06-29 10:22:22.406250,59.28,75.8
187214,2018-06-29 10:22:22.437500,60.13,75.8
187215,2018-06-29 10:22:22.468750,52.92,75.8
187216,2018-06-29 10:22:22.500000,44.08,75.8
187217,2018-06-29 10:22:22.531250,39.05,75.88
187218,2018-06-29 10:22:22.562500,38.0,75.88
187219,2018-06-29 10:22:22.593750,37.83,75.88
187220,2018-06-29 10:22:22.625000,35.94,75.88
187221,2018-06-29 10:22:22.656250,31.08,75.88
187222,2018-06-29 10:22:22.687500,23.33,75.88
187223,2018-06-29 10:22:22.718750,13.94,75.88
187224,2018-06-29 10:22:22.750000,4.38,75.88
187225,2018-06-29 10:22:22.781250,-4.81,75.88
187226,2018-06-29 10:22:22.812500,-13.79,75.88
187227,2018-06-29 10:22:22.843750,-22.88,75.88
187228,2018-06-29 10:22:22.875000,-32.78,75.88
187229,2018-06-29 10:22:22.906250,-44.88,75.88
187230,2018-06-29 10:22:22.937500,-59.33,75.88
187231,2018-06-29 10:22:22.968750,-70.87,75.88
187232,2018-06-29 10:22:23.000000,-69.86,75.88
187233,2018-06-29 10:22:23.031250,-52.17,75.88
187234,2018-06-29 10:22:23.062500,-25.12,75.88
187235,2018-06-29 10:22:23.093750,0.6,75.88
187236,2018-06-29 10:22:23.125000,20.88,75.88
187237,2018-06-29 10:22:23.156250,36.0,75.88
187238,2018-06-29 10:22:23.187500,45.09,75.88
187239,2018-06-29 10:22:23.218750,47.76,75.88
187240,2018-06-29 10:22:23.250000,46.97,75.88
187241,2018-06-29 10:22:23.281250,46.04,75.88
187242,2018-06-29 10:22:23.312500,44.66,75.88
187243,2018-06-29 10:22:23.343750,40.72,75.88
187244,2018-06-29 10:22:23.375000,34.59,75.88
187245,2018-06-29 10:22:23.406250,28.01,75.88
187246,2018-06-29 10:22:23.437500,20.25,75.88
187247,2018-06-29 10:22:23.468750,9.82,75.88
187248,2018-06-29 10:22:23.500000,-1.1,75.88
187249,2018-06-29 10:22:23.531250,-8.68,75.9
187250,2018-06-29 10:22:23.562500,-13.24,75.9
187251,2018-06-29 10:22:23.593750,-18.32,75.9
187252,2018-06-29 10:22:23.625000,-24.89,75.9
187253,2018-06-29 10:22:23.656250,-31.12,75.9
187254,2018-06-29 10:22:23.687500,-37.01,75.9
187255,2018-06-29 10:22:23.718750,-45.01,75.9
187256,2018-06-29 10:22:23.750000,-55.85,75.9
187257,2018-06-29 10:22:23.781250,-64.34,75.9
187258,2018-06-29 10:22:23.812500,-60.26,75.9
187259,2018-06-29 10:22:23.843750,-37.67,75.9
187260,2018-06-29 10:22:23.875000,-3.8,75.9
187261,2018-06-29 10:22:23.906250,27.21,75.9
187262,2018-06-29 10:22:23.937500,48.39,75.9
187263,2018-06-29 10:22:23.968750,62.0,75.9
187264,2018-06-29 10:22:24.000000,70.54,75.9
187265,2018-06-29 10:22:24.031250,73.37,75.9
187266,2018-06-29 10:22:24.062500,71.13,75.9
187267,2018-06-29 10:22:24.093750,67.48,75.9
187268,2018-06-29 10:22:24.125000,65.2,75.9
187269,2018-06-29 10:22:24.156250,62.88,75.9
187270,2018-06-29 10:22:24.187500,57.83,75.9
187271,2018-06-29 10:22:24.218750,50.04,75.9
187272,2018-06-29 10:22:24.250000,41.06,75.9
187273,2018-06-29 10:22:24.281250,30.71,75.9
187274,2018-06-29 10:22:24.312500,18.58,75.9
187275,2018-06-29 10:22:24.343750,7.18,75.9
187276,2018-06-29 10:22:24.375000,-0.51,75.9
187277,2018-06-29 10:22:24.406250,-5.38,75.9
187278,2018-06-29 10:22:24.437500,-10.78,75.9
187279,2018-06-29 10:22:24.468750,-17.38,75.9
187280,2018-06-29 10:22:24.500000,-22.78,75.9
187281,2018-06-29 10:22:24.531250,-25.4,75.93
187282,2018-06-29 10:22:24.562500,-26.74,75.93
187283,2018-06-29 10:22:24.593750,-30.33,75.93
187284,2018-06-29 10:22:24.625000,-39.16,75.93
187285,2018-06-29 10:22:24.656250,-51.27,75.93
187286,2018-06-29 10:22:24.687500,-57.8,75.93
187287,2018-06-29 10:22:24.718750,-50.24,75.93
187288,2018-06-29 10:22:24.750000,-30.16,75.93
187289,2018-06-29 10:22:24.781250,-7.43,75.93
187290,2018-06-29 10:22:24.812500,11.0,75.93
187291,2018-06-29 10:22:24.843750,25.37,75.93
187292,2018-06-29 10:22:24.875000,37.21,75.93
187293,2018-06-29 10:22:24.906250,45.53,75.93
187294,2018-06-29 10:22:24.937500,50.21,75.93
187295,2018-06-29 10:22:24.968750,54.01,75.93
187296,2018-06-29 10:22:25.000000,58.88,75.93
187297,2018-06-29 10:22:25.031250,63.11,75.93
187298,2018-06-29 10:22:25.062500,64.09,75.93
187299,2018-06-29 10:22:25.093750,61.4,75.93
187300,2018-06-29 10:22:25.125000,55.63,75.93
187301,2018-06-29 10:22:25.156250,45.79,75.93
187302,2018-06-29 10:22:25.187500,30.2,75.93
187303,2018-06-29 10:22:25.218750,9.74,75.93
187304,2018-06-29 10:22:25.250000,-12.93,75.93
187305,2018-06-29 10:22:25.281250,-36.62,75.93
187306,2018-06-29 10:22:25.312500,-60.29,75.93
187307,2018-06-29 10:22:25.343750,-80.36,75.93
187308,2018-06-29 10:22:25.375000,-94.24,75.93
187309,2018-06-29 10:22:25.406250,-103.29,75.93
187310,2018-06-29 10:22:25.437500,-110.51,75.93
187311,2018-06-29 10:22:25.468750,-117.86,75.93
187312,2018-06-29 10:22:25.500000,-123.32,75.93
187313,2018-06-29 10:22:25.531250,-118.15,75.83
187314,2018-06-29 10:22:25.562500,-94.49,75.83
187315,2018-06-29 10:22:25.593750,-57.44,75.83
187316,2018-06-29 10:22:25.625000,-21.02,75.83
187317,2018-06-29 10:22:25.656250,6.84,75.83
187318,2018-06-29 10:22:25.687500,27.22,75.83
187319,2018-06-29 10:22:25.718750,41.76,75.83
187320,2018-06-29 10:22:25.750000,50.16,75.83
187321,2018-06-29 10:22:25.781250,54.33,75.83
187322,2018-06-29 10:22:25.812500,58.72,75.83
187323,2018-06-29 10:22:25.843750,66.14,75.83
187324,2018-06-29 10:22:25.875000,75.38,75.83
187325,2018-06-29 10:22:25.906250,82.09,75.83
187326,2018-06-29 10:22:25.937500,81.76,75.83
187327,2018-06-29 10:22:25.968750,72.45,75.83
187328,2018-06-29 10:22:26.000000,55.64,75.83
187329,2018-06-29 10:22:26.031250,35.06,75.83
187330,2018-06-29 10:22:26.062500,14.97,75.83
187331,2018-06-29 10:22:26.093750,-1.51,75.83
187332,2018-06-29 10:22:26.125000,-13.69,75.83
187333,2018-06-29 10:22:26.156250,-22.99,75.83
187334,2018-06-29 10:22:26.187500,-30.44,75.83
187335,2018-06-29 10:22:26.218750,-35.43,75.83
187336,2018-06-29 10:22:26.250000,-37.71,75.83
187337,2018-06-29 10:22:26.281250,-36.86,75.83
187338,2018-06-29 10:22:26.312500,-28.95,75.83
187339,2018-06-29 10:22:26.343750,-10.15,75.83
187340,2018-06-29 10:22:26.375000,15.08,75.83
187341,2018-06-29 10:22:26.406250,36.73,75.83
187342,2018-06-29 10:22:26.437500,49.31,75.83
187343,2018-06-29 10:22:26.468750,52.28,75.83
187344,2018-06-29 10:22:26.500000,44.58,75.83
187345,2018-06-29 10:22:26.531250,25.85,75.72
187346,2018-06-29 10:22:26.562500,0.08,75.72
187347,2018-06-29 10:22:26.593750,-25.45,75.72
187348,2018-06-29 10:22:26.625000,-43.58,75.72
187349,2018-06-29 10:22:26.656250,-50.26,75.72
187350,2018-06-29 10:22:26.687500,-46.05,75.72
187351,2018-06-29 10:22:26.718750,-35.37,75.72
187352,2018-06-29 10:22:26.750000,-24.44,75.72
187353,2018-06-29 10:22:26.781250,-18.68,75.72
187354,2018-06-29 10:22:26.812500,-19.65,75.72
187355,2018-06-29 10:22:26.843750,-23.94,75.72
187356,2018-06-29 10:22:26.875000,-26.64,75.72
187357,2018-06-29 10:22:26.906250,-26.29,75.72
187358,2018-06-29 10:22:26.937500,-26.24,75.72
187359,2018-06-29 10:22:26.968750,-31.34,75.72
187360,2018-06-29 10:22:27.000000,-44.18,75.72
187361,2018-06-29 10:22:27.031250,-62.44,75.72
187362,2018-06-29 10:22:27.062500,-76.79,75.72
187363,2018-06-29 10:22:27.093750,-75.49,75.72
187364,2018-06-29 10:22:27.125000,-55.41,75.72
187365,2018-06-29 10:22:27.156250,-25.83,75.72
187366,2018-06-29 10:22:27.187500,2.05,75.72
187367,2018-06-29 10:22:27.218750,24.46,75.72
187368,2018-06-29 10:22:27.250000,41.6,75.72
187369,2018-06-29 10:22:27.281250,52.02,75.72
187370,2018-06-29 10:22:27.312500,54.28,75.72
187371,2018-06-29 10:22:27.343750,50.35,75.72
187372,2018-06-29 10:22:27.375000,44.5,75.72
187373,2018-06-29 10:22:27.406250,40.24,75.72
187374,2018-06-29 10:22:27.437500,38.85,75.72
187375,2018-06-29 10:22:27.468750,39.55,75.72
187376,2018-06-29 10:22:27.500000,39.96,75.72
187377,2018-06-29 10:22:27.531250,37.36,75.65
187378,2018-06-29 10:22:27.562500,30.89,75.65
187379,2018-06-29 10:22:27.593750,21.82,75.65
187380,2018-06-29 10:22:27.625000,11.39,75.65
187381,2018-06-29 10:22:27.656250,-1.11,75.65
187382,2018-06-29 10:22:27.687500,-16.79,75.65
187383,2018-06-29 10:22:27.718750,-34.34,75.65
187384,2018-06-29 10:22:27.750000,-50.45,75.65
187385,2018-06-29 10:22:27.781250,-63.81,75.65
187386,2018-06-29 10:22:27.812500,-76.72,75.65
187387,2018-06-29 10:22:27.843750,-89.12,75.65
187388,2018-06-29 10:22:27.875000,-93.05,75.65
187389,2018-06-29 10:22:27.906250,-78.06,75.65
187390,2018-06-29 10:22:27.937500,-44.02,75.65
187391,2018-06-29 10:22:27.968750,-3.8,75.65
187392,2018-06-29 10:22:28.000000,29.29,75.65
187393,2018-06-29 10:22:28.031250,51.96,75.65
187394,2018-06-29 10:22:28.062500,66.92,75.65
187395,2018-06-29 10:22:28.093750,74.76,75.65
187396,2018-06-29 10:22:28.125000,74.35,75.65
187397,2018-06-29 10:22:28.156250,67.42,75.65
187398,2018-06-29 10:22:28.187500,57.93,75.65
187399,2018-06-29 10:22:28.218750,49.33,75.65
187400,2018-06-29 10:22:28.250000,45.07,75.65
187401,2018-06-29 10:22:28.281250,48.36,75.65
187402,2018-06-29 10:22:28.312500,59.27,75.65
187403,2018-06-29 10:22:28.343750,74.09,75.65
187404,2018-06-29 10:22:28.375000,89.24,75.65
187405,2018-06-29 10:22:28.406250,103.04,75.65
187406,2018-06-29 10:22:28.437500,113.11,75.65
187407,2018-06-29 10:22:28.468750,114.94,75.65
187408,2018-06-29 10:22:28.500000,105.49,75.65
187409,2018-06-29 10:22:28.531250,85.7,75.57
187410,2018-06-29 10:22:28.562500,57.88,75.57
187411,2018-06-29 10:22:28.593750,23.28,75.57
187412,2018-06-29 10:22:28.625000,-15.51,75.57
187413,2018-06-29 10:22:28.656250,-52.72,75.57
187414,2018-06-29 10:22:28.687500,-83.41,75.57
187415,2018-06-29 10:22:28.718750,-108.26,75.57
187416,2018-06-29 10:22:28.750000,-131.53,75.57
187417,2018-06-29 10:22:28.781250,-155.06,75.57
187418,2018-06-29 10:22:28.812500,-176.26,75.57
187419,2018-06-29 10:22:28.843750,-188.86,75.57
187420,2018-06-29 10:22:28.875000,-184.87,75.57
187421,2018-06-29 10:22:28.906250,-160.85,75.57
187422,2018-06-29 10:22:28.937500,-121.7,75.57
187423,2018-06-29 10:22:28.968750,-73.92,75.57
187424,2018-06-29 10:22:29.000000,-19.67,75.57
187425,2018-06-29 10:22:29.031250,38.38,75.57
187426,2018-06-29 10:22:29.062500,93.06,75.57
187427,2018-06-29 10:22:29.093750,138.66,75.57
187428,2018-06-29 10:22:29.125000,175.56,75.57
187429,2018-06-29 10:22:29.156250,205.57,75.57
187430,2018-06-29 10:22:29.187500,225.28,75.57
187431,2018-06-29 10:22:29.218750,226.87,75.57
187432,2018-06-29 10:22:29.250000,205.97,75.57
187433,2018-06-29 10:22:29.281250,165.82,75.57
187434,2018-06-29 10:22:29.312500,112.4,75.57
187435,2018-06-29 10:22:29.343750,49.8,75.57
187436,2018-06-29 10:22:29.375000,-17.06,75.57
187437,2018-06-29 10:22:29.406250,-80.69,75.57
187438,2018-06-29 10:22:29.437500,-134.26,75.57
187439,2018-06-29 10:22:29.468750,-172.72,75.57
187440,2018-06-29 10:22:29.500000,-191.44,75.57
187441,2018-06-29 10:22:29.531250,-188.7,75.45
187442,2018-06-29 10:22:29.562500,-169.82,75.45
187443,2018-06-29 10:22:29.593750,-143.56,75.45
187444,2018-06-29 10:22:29.625000,-114.47,75.45
187445,2018-06-29 10:22:29.656250,-83.43,75.45
187446,2018-06-29 10:22:29.687500,-54.68,75.45
187447,2018-06-29 10:22:29.718750,-35.8,75.45
187448,2018-06-29 10:22:29.750000,-31.08,75.45
187449,2018-06-29 10:22:29.781250,-37.46,75.45
187450,2018-06-29 10:22:29.812500,-44.31,75.45
187451,2018-06-29 10:22:29.843750,-39.45,75.45
187452,2018-06-29 10:22:29.875000,-20.83,75.45
187453,2018-06-29 10:22:29.906250,1.47,75.45
187454,2018-06-29 10:22:29.937500,17.97,75.45
187455,2018-06-29 10:22:29.968750,28.91,75.45
187456,2018-06-29 10:22:30.000000,38.21,75.45
187457,2018-06-29 10:22:30.031250,46.27,75.45
187458,2018-06-29 10:22:30.062500,52.11,75.45
187459,2018-06-29 10:22:30.093750,56.85,75.45
187460,2018-06-29 10:22:30.125000,61.99,75.45
187461,2018-06-29 10:22:30.156250,67.62,75.45
187462,2018-06-29 10:22:30.187500,73.55,75.45
187463,2018-06-29 10:22:30.218750,79.14,75.45
187464,2018-06-29 10:22:30.250000,82.28,75.45
187465,2018-06-29 10:22:30.281250,81.03,75.45
187466,2018-06-29 10:22:30.312500,76.06,75.45
187467,2018-06-29 10:22:30.343750,69.79,75.45
187468,2018-06-29 10:22:30.375000,63.38,75.45
187469,2018-06-29 10:22:30.406250,55.35,75.45
187470,2018-06-29 10:22:30.437500,43.83,75.45
187471,2018-06-29 10:22:30.468750,29.04,75.45
187472,2018-06-29 10:22:30.500000,12.1,75.45
187473,2018-06-29 10:22:30.531250,-6.57,75.35
187474,2018-06-29 10:22:30.562500,-25.86,75.35
187475,2018-06-29 10:22:30.593750,-43.32,75.35
187476,2018-06-29 10:22:30.625000,-57.6,75.35
187477,2018-06-29 10:22:30.656250,-70.4,75.35
187478,2018-06-29 10:22:30.687500,-84.26,75.35
187479,2018-06-29 10:22:30.718750,-97.01,75.35
187480,2018-06-29 10:22:30.750000,-99.71,75.35
187481,2018-06-29 10:22:30.781250,-84.64,75.35
187482,2018-06-29 10:22:30.812500,-55.07,75.35
187483,2018-06-29 10:22:30.843750,-22.74,75.35
187484,2018-06-29 10:22:30.875000,3.49,75.35
187485,2018-06-29 10:22:30.906250,21.56,75.35
187486,2018-06-29 10:22:30.937500,31.69,75.35
187487,2018-06-29 10:22:30.968750,34.86,75.35
187488,2018-06-29 10:22:31.000000,34.87,75.35
187489,2018-06-29 10:22:31.031250,35.89,75.35
187490,2018-06-29 10:22:31.062500,37.53,75.35
187491,2018-06-29 10:22:31.093750,36.51,75.35
187492,2018-06-29 10:22:31.125000,32.19,75.35
187493,2018-06-29 10:22:31.156250,26.29,75.35
187494,2018-06-29 10:22:31.187500,18.7,75.35
187495,2018-06-29 10:22:31.218750,7.68,75.35
187496,2018-06-29 10:22:31.250000,-5.84,75.35
187497,2018-06-29 10:22:31.281250,-17.51,75.35
187498,2018-06-29 10:22:31.312500,-24.91,75.35
187499,2018-06-29 10:22:31.343750,-30.52,75.35
187500,2018-06-29 10:22:31.375000,-37.49,75.35
187501,2018-06-29 10:22:31.406250,-45.24,75.35
187502,2018-06-29 10:22:31.437500,-51.6,75.35
187503,2018-06-29 10:22:31.468750,-56.88,75.35
187504,2018-06-29 10:22:31.500000,-63.92,75.35
187505,2018-06-29 10:22:31.531250,-74.97,75.22
187506,2018-06-29 10:22:31.562500,-86.45,75.22
187507,2018-06-29 10:22:31.593750,-87.6,75.22
187508,2018-06-29 10:22:31.625000,-70.07,75.22
187509,2018-06-29 10:22:31.656250,-38.79,75.22
187510,2018-06-29 10:22:31.687500,-6.95,75.22
187511,2018-06-29 10:22:31.718750,17.61,75.22
187512,2018-06-29 10:22:31.750000,34.72,75.22
187513,2018-06-29 10:22:31.781250,44.85,75.22
187514,2018-06-29 10:22:31.812500,47.64,75.22
187515,2018-06-29 10:22:31.843750,45.84,75.22
187516,2018-06-29 10:22:31.875000,44.1,75.22
187517,2018-06-29 10:22:31.906250,43.69,75.22
187518,2018-06-29 10:22:31.937500,43.02,75.22
187519,2018-06-29 10:22:31.968750,42.19,75.22
187520,2018-06-29 10:22:32.000000,41.61,75.22
187521,2018-06-29 10:22:32.031250,38.26,75.22
187522,2018-06-29 10:22:32.062500,29.47,75.22
187523,2018-06-29 10:22:32.093750,18.04,75.22
187524,2018-06-29 10:22:32.125000,8.23,75.22
187525,2018-06-29 10:22:32.156250,-0.33,75.22
187526,2018-06-29 10:22:32.187500,-10.54,75.22
187527,2018-06-29 10:22:32.218750,-22.57,75.22
187528,2018-06-29 10:22:32.250000,-34.19,75.22
187529,2018-06-29 10:22:32.281250,-44.57,75.22
187530,2018-06-29 10:22:32.312500,-55.89,75.22
187531,2018-06-29 10:22:32.343750,-70.92,75.22
187532,2018-06-29 10:22:32.375000,-87.57,75.22
187533,2018-06-29 10:22:32.406250,-95.34,75.22
187534,2018-06-29 10:22:32.437500,-82.89,75.22
187535,2018-06-29 10:22:32.468750,-51.61,75.22
187536,2018-06-29 10:22:32.500000,-15.4,75.22
187537,2018-06-29 10:22:32.531250,14.29,75.08
187538,2018-06-29 10:22:32.562500,35.67,75.08
187539,2018-06-29 10:22:32.593750,49.64,75.08
187540,2018-06-29 10:22:32.625000,55.36,75.08
187541,2018-06-29 10:22:32.656250,54.25,75.08
187542,2018-06-29 10:22:32.687500,51.15,75.08
187543,2018-06-29 10:22:32.718750,50.12,75.08
187544,2018-06-29 10:22:32.750000,51.99,75.08
187545,2018-06-29 10:22:32.781250,55.1,75.08
187546,2018-06-29 10:22:32.812500,56.8,75.08
187547,2018-06-29 10:22:32.843750,54.44,75.08
187548,2018-06-29 10:22:32.875000,46.93,75.08
187549,2018-06-29 10:22:32.906250,36.09,75.08
187550,2018-06-29 10:22:32.937500,25.03,75.08
187551,2018-06-29 10:22:32.968750,14.43,75.08
187552,2018-06-29 10:22:33.000000,2.55,75.08
187553,2018-06-29 10:22:33.031250,-11.06,75.08
187554,2018-06-29 10:22:33.062500,-24.75,75.08
187555,2018-06-29 10:22:33.093750,-37.61,75.08
187556,2018-06-29 10:22:33.125000,-51.07,75.08
187557,2018-06-29 10:22:33.156250,-67.63,75.08
187558,2018-06-29 10:22:33.187500,-85.0,75.08
187559,2018-06-29 10:22:33.218750,-91.65,75.08
187560,2018-06-29 10:22:33.250000,-75.84,75.08
187561,2018-06-29 10:22:33.281250,-41.15,75.08
187562,2018-06-29 10:22:33.312500,-4.1,75.08
187563,2018-06-29 10:22:33.343750,23.78,75.08
187564,2018-06-29 10:22:33.375000,42.49,75.08
187565,2018-06-29 10:22:33.406250,54.35,75.08
187566,2018-06-29 10:22:33.437500,58.83,75.08
187567,2018-06-29 10:22:33.468750,56.77,75.08
187568,2018-06-29 10:22:33.500000,52.28,75.08
187569,2018-06-29 10:22:33.531250,49.33,74.93
187570,2018-06-29 10:22:33.562500,48.94,74.93
187571,2018-06-29 10:22:33.593750,49.29,74.93
187572,2018-06-29 10:22:33.625000,47.45,74.93
187573,2018-06-29 10:22:33.656250,41.36,74.93
187574,2018-06-29 10:22:33.687500,31.25,74.93
187575,2018-06-29 10:22:33.718750,19.09,74.93
187576,2018-06-29 10:22:33.750000,6.41,74.93
187577,2018-06-29 10:22:33.781250,-6.9,74.93
187578,2018-06-29 10:22:33.812500,-21.2,74.93
187579,2018-06-29 10:22:33.843750,-35.4,74.93
187580,2018-06-29 10:22:33.875000,-48.48,74.93
187581,2018-06-29 10:22:33.906250,-61.81,74.93
187582,2018-06-29 10:22:33.937500,-77.67,74.93
187583,2018-06-29 10:22:33.968750,-93.63,74.93
187584,2018-06-29 10:22:34.000000,-99.41,74.93
187585,2018-06-29 10:22:34.031250,-84.26,74.93
187586,2018-06-29 10:22:34.062500,-50.09,74.93
187587,2018-06-29 10:22:34.093750,-11.64,74.93
187588,2018-06-29 10:22:34.125000,18.63,74.93
187589,2018-06-29 10:22:34.156250,39.58,74.93
187590,2018-06-29 10:22:34.187500,54.17,74.93
187591,2018-06-29 10:22:34.218750,61.74,74.93
187592,2018-06-29 10:22:34.250000,61.68,74.93
187593,2018-06-29 10:22:34.281250,58.11,74.93
187594,2018-06-29 10:22:34.312500,56.03,74.93
187595,2018-06-29 10:22:34.343750,56.08,74.93
187596,2018-06-29 10:22:34.375000,56.1,74.93
187597,2018-06-29 10:22:34.406250,54.59,74.93
187598,2018-06-29 10:22:34.437500,50.49,74.93
187599,2018-06-29 10:22:34.468750,42.39,74.93
187600,2018-06-29 10:22:34.500000,29.91,74.93
187601,2018-06-29 10:22:34.531250,14.26,74.88
187602,2018-06-29 10:22:34.562500,-2.47,74.88
187603,2018-06-29 10:22:34.593750,-18.24,74.88
187604,2018-06-29 10:22:34.625000,-32.45,74.88
187605,2018-06-29 10:22:34.656250,-46.44,74.88
187606,2018-06-29 10:22:34.687500,-62.07,74.88
187607,2018-06-29 10:22:34.718750,-79.09,74.88
187608,2018-06-29 10:22:34.750000,-91.76,74.88
187609,2018-06-29 10:22:34.781250,-88.9,74.88
187610,2018-06-29 10:22:34.812500,-64.48,74.88
187611,2018-06-29 10:22:34.843750,-27.18,74.88
187612,2018-06-29 10:22:34.875000,7.72,74.88
187613,2018-06-29 10:22:34.906250,33.12,74.88
187614,2018-06-29 10:22:34.937500,50.32,74.88
187615,2018-06-29 10:22:34.968750,59.98,74.88
187616,2018-06-29 10:22:35.000000,61.42,74.88
187617,2018-06-29 10:22:35.031250,57.79,74.88
187618,2018-06-29 10:22:35.062500,54.71,74.88
187619,2018-06-29 10:22:35.093750,54.3,74.88
187620,2018-06-29 10:22:35.125000,54.71,74.88
187621,2018-06-29 10:22:35.156250,54.1,74.88
187622,2018-06-29 10:22:35.187500,51.33,74.88
187623,2018-06-29 10:22:35.218750,44.76,74.88
187624,2018-06-29 10:22:35.250000,33.8,74.88
187625,2018-06-29 10:22:35.281250,20.54,74.88
187626,2018-06-29 10:22:35.312500,7.33,74.88
187627,2018-06-29 10:22:35.343750,-5.75,74.88
187628,2018-06-29 10:22:35.375000,-19.45,74.88
187629,2018-06-29 10:22:35.406250,-32.79,74.88
187630,2018-06-29 10:22:35.437500,-44.64,74.88
187631,2018-06-29 10:22:35.468750,-56.4,74.88
187632,2018-06-29 10:22:35.500000,-70.65,74.88
187633,2018-06-29 10:22:35.531250,-85.79,74.83
187634,2018-06-29 10:22:35.562500,-93.03,74.83
187635,2018-06-29 10:22:35.593750,-83.01,74.83
187636,2018-06-29 10:22:35.625000,-57.55,74.83
187637,2018-06-29 10:22:35.656250,-29.41,74.83
187638,2018-06-29 10:22:35.687500,-8.88,74.83
187639,2018-06-29 10:22:35.718750,2.66,74.83
187640,2018-06-29 10:22:35.750000,6.09,74.83
187641,2018-06-29 10:22:35.781250,-0.3,74.83
187642,2018-06-29 10:22:35.812500,-16.96,74.83
187643,2018-06-29 10:22:35.843750,-41.44,74.83
187644,2018-06-29 10:22:35.875000,-70.73,74.83
187645,2018-06-29 10:22:35.906250,-98.88,74.83
187646,2018-06-29 10:22:35.937500,-112.62,74.83
187647,2018-06-29 10:22:35.968750,-96.05,74.83
187648,2018-06-29 10:22:36.000000,-43.11,74.83
187649,2018-06-29 10:22:36.031250,37.4,74.83
187650,2018-06-29 10:22:36.062500,128.14,74.83
187651,2018-06-29 10:22:36.093750,210.46,74.83
187652,2018-06-29 10:22:36.125000,268.26,74.83
187653,2018-06-29 10:22:36.156250,291.89,74.83
187654,2018-06-29 10:22:36.187500,281.04,74.83
187655,2018-06-29 10:22:36.218750,242.22,74.83
187656,2018-06-29 10:22:36.250000,184.07,74.83
187657,2018-06-29 10:22:36.281250,115.04,74.83
187658,2018-06-29 10:22:36.312500,44.07,74.83
187659,2018-06-29 10:22:36.343750,-17.12,74.83
187660,2018-06-29 10:22:36.375000,-57.42,74.83
187661,2018-06-29 10:22:36.406250,-75.45,74.83
187662,2018-06-29 10:22:36.437500,-80.41,74.83
187663,2018-06-29 10:22:36.468750,-80.51,74.83
187664,2018-06-29 10:22:36.500000,-75.68,74.83
187665,2018-06-29 10:22:36.531250,-64.22,74.8
187666,2018-06-29 10:22:36.562500,-49.91,74.8
187667,2018-06-29 10:22:36.593750,-37.94,74.8
187668,2018-06-29 10:22:36.625000,-28.87,74.8
187669,2018-06-29 10:22:36.656250,-21.1,74.8
187670,2018-06-29 10:22:36.687500,-14.74,74.8
187671,2018-06-29 10:22:36.718750,-9.66,74.8
187672,2018-06-29 10:22:36.750000,-4.22,74.8
187673,2018-06-29 10:22:36.781250,0.74,74.8
187674,2018-06-29 10:22:36.812500,1.31,74.8
187675,2018-06-29 10:22:36.843750,-3.86,74.8
187676,2018-06-29 10:22:36.875000,-11.19,74.8
187677,2018-06-29 10:22:36.906250,-17.28,74.8
187678,2018-06-29 10:22:36.937500,-23.33,74.8
187679,2018-06-29 10:22:36.968750,-32.08,74.8
187680,2018-06-29 10:22:37.000000,-42.73,74.8
187681,2018-06-29 10:22:37.031250,-52.27,74.8
187682,2018-06-29 10:22:37.062500,-60.36,74.8
187683,2018-06-29 10:22:37.093750,-69.47,74.8
187684,2018-06-29 10:22:37.125000,-80.55,74.8
187685,2018-06-29 10:22:37.156250,-88.89,74.8
187686,2018-06-29 10:22:37.187500,-85.54,74.8
187687,2018-06-29 10:22:37.218750,-65.73,74.8
187688,2018-06-29 10:22:37.250000,-35.49,74.8
187689,2018-06-29 10:22:37.281250,-5.68,74.8
187690,2018-06-29 10:22:37.312500,18.2,74.8
187691,2018-06-29 10:22:37.343750,36.79,74.8
187692,2018-06-29 10:22:37.375000,50.95,74.8
187693,2018-06-29 10:22:37.406250,59.86,74.8
187694,2018-06-29 10:22:37.437500,63.49,74.8
187695,2018-06-29 10:22:37.468750,64.1,74.8
187696,2018-06-29 10:22:37.500000,64.39,74.8
187697,2018-06-29 10:22:37.531250,65.22,74.85
187698,2018-06-29 10:22:37.562500,66.54,74.85
187699,2018-06-29 10:22:37.593750,68.28,74.85
187700,2018-06-29 10:22:37.625000,67.37,74.85
187701,2018-06-29 10:22:37.656250,56.49,74.85
187702,2018-06-29 10:22:37.687500,30.77,74.85
187703,2018-06-29 10:22:37.718750,-6.56,74.85
187704,2018-06-29 10:22:37.750000,-47.84,74.85
187705,2018-06-29 10:22:37.781250,-86.05,74.85
187706,2018-06-29 10:22:37.812500,-115.42,74.85
187707,2018-06-29 10:22:37.843750,-132.48,74.85
187708,2018-06-29 10:22:37.875000,-137.2,74.85
187709,2018-06-29 10:22:37.906250,-129.27,74.85
187710,2018-06-29 10:22:37.937500,-109.95,74.85
187711,2018-06-29 10:22:37.968750,-89.66,74.85
187712,2018-06-29 10:22:38.000000,-81.35,74.85
187713,2018-06-29 10:22:38.031250,-85.43,74.85
187714,2018-06-29 10:22:38.062500,-93.11,74.85
187715,2018-06-29 10:22:38.093750,-100.67,74.85
187716,2018-06-29 10:22:38.125000,-109.26,74.85
187717,2018-06-29 10:22:38.156250,-117.59,74.85
187718,2018-06-29 10:22:38.187500,-120.48,74.85
187719,2018-06-29 10:22:38.218750,-109.86,74.85
187720,2018-06-29 10:22:38.250000,-80.79,74.85
187721,2018-06-29 10:22:38.281250,-39.51,74.85
187722,2018-06-29 10:22:38.312500,0.98,74.85
187723,2018-06-29 10:22:38.343750,33.41,74.85
187724,2018-06-29 10:22:38.375000,57.69,74.85
187725,2018-06-29 10:22:38.406250,74.82,74.85
187726,2018-06-29 10:22:38.437500,86.37,74.85
187727,2018-06-29 10:22:38.468750,95.12,74.85
187728,2018-06-29 10:22:38.500000,102.21,74.85
187729,2018-06-29 10:22:38.531250,105.87,74.95
187730,2018-06-29 10:22:38.562500,104.82,74.95
187731,2018-06-29 10:22:38.593750,100.34,74.95
187732,2018-06-29 10:22:38.625000,94.14,74.95
187733,2018-06-29 10:22:38.656250,85.46,74.95
187734,2018-06-29 10:22:38.687500,72.42,74.95
187735,2018-06-29 10:22:38.718750,56.15,74.95
187736,2018-06-29 10:22:38.750000,40.27,74.95
187737,2018-06-29 10:22:38.781250,26.57,74.95
187738,2018-06-29 10:22:38.812500,13.42,74.95
187739,2018-06-29 10:22:38.843750,-1.26,74.95
187740,2018-06-29 10:22:38.875000,-16.91,74.95
187741,2018-06-29 10:22:38.906250,-30.94,74.95
187742,2018-06-29 10:22:38.937500,-42.08,74.95
187743,2018-06-29 10:22:38.968750,-52.41,74.95
187744,2018-06-29 10:22:39.000000,-64.68,74.95
187745,2018-06-29 10:22:39.031250,-77.3,74.95
187746,2018-06-29 10:22:39.062500,-81.17,74.95
187747,2018-06-29 10:22:39.093750,-65.27,74.95
187748,2018-06-29 10:22:39.125000,-28.98,74.95
187749,2018-06-29 10:22:39.156250,14.37,74.95
187750,2018-06-29 10:22:39.187500,49.52,74.95
187751,2018-06-29 10:22:39.218750,70.62,74.95
187752,2018-06-29 10:22:39.250000,79.24,74.95
187753,2018-06-29 10:22:39.281250,78.74,74.95
187754,2018-06-29 10:22:39.312500,73.78,74.95
187755,2018-06-29 10:22:39.343750,69.48,74.95
187756,2018-06-29 10:22:39.375000,67.87,74.95
187757,2018-06-29 10:22:39.406250,67.24,74.95
187758,2018-06-29 10:22:39.437500,65.53,74.95
187759,2018-06-29 10:22:39.468750,61.97,74.95
187760,2018-06-29 10:22:39.500000,55.4,74.95
187761,2018-06-29 10:22:39.531250,44.23,75.07
187762,2018-06-29 10:22:39.562500,29.49,75.07
187763,2018-06-29 10:22:39.593750,15.24,75.07
187764,2018-06-29 10:22:39.625000,3.92,75.07
187765,2018-06-29 10:22:39.656250,-6.53,75.07
187766,2018-06-29 10:22:39.687500,-18.59,75.07
187767,2018-06-29 10:22:39.718750,-31.15,75.07
187768,2018-06-29 10:22:39.750000,-42.06,75.07
187769,2018-06-29 10:22:39.781250,-52.25,75.07
187770,2018-06-29 10:22:39.812500,-64.78,75.07
187771,2018-06-29 10:22:39.843750,-80.14,75.07
187772,2018-06-29 10:22:39.875000,-91.08,75.07
187773,2018-06-29 10:22:39.906250,-84.93,75.07
187774,2018-06-29 10:22:39.937500,-57.09,75.07
187775,2018-06-29 10:22:39.968750,-18.56,75.07
187776,2018-06-29 10:22:40.000000,15.25,75.07
187777,2018-06-29 10:22:40.031250,38.18,75.07
187778,2018-06-29 10:22:40.062500,52.32,75.07
187779,2018-06-29 10:22:40.093750,60.4,75.07
187780,2018-06-29 10:22:40.125000,63.61,75.07
187781,2018-06-29 10:22:40.156250,63.21,75.07
187782,2018-06-29 10:22:40.187500,60.99,75.07
187783,2018-06-29 10:22:40.218750,58.56,75.07
187784,2018-06-29 10:22:40.250000,57.03,75.07
187785,2018-06-29 10:22:40.281250,56.38,75.07
187786,2018-06-29 10:22:40.312500,54.8,75.07
187787,2018-06-29 10:22:40.343750,50.18,75.07
187788,2018-06-29 10:22:40.375000,42.23,75.07
187789,2018-06-29 10:22:40.406250,31.91,75.07
187790,2018-06-29 10:22:40.437500,20.22,75.07
187791,2018-06-29 10:22:40.468750,8.6,75.07
187792,2018-06-29 10:22:40.500000,-1.76,75.07
187793,2018-06-29 10:22:40.531250,-11.29,75.2
187794,2018-06-29 10:22:40.562500,-21.33,75.2
187795,2018-06-29 10:22:40.593750,-32.47,75.2
187796,2018-06-29 10:22:40.625000,-43.56,75.2
187797,2018-06-29 10:22:40.656250,-52.82,75.2
187798,2018-06-29 10:22:40.687500,-60.32,75.2
187799,2018-06-29 10:22:40.718750,-69.2,75.2
187800,2018-06-29 10:22:40.750000,-83.0,75.2
187801,2018-06-29 10:22:40.781250,-99.82,75.2
187802,2018-06-29 10:22:40.812500,-108.51,75.2
187803,2018-06-29 10:22:40.843750,-95.89,75.2
187804,2018-06-29 10:22:40.875000,-61.55,75.2
187805,2018-06-29 10:22:40.906250,-20.17,75.2
187806,2018-06-29 10:22:40.937500,13.93,75.2
187807,2018-06-29 10:22:40.968750,37.95,75.2
187808,2018-06-29 10:22:41.000000,55.35,75.2
187809,2018-06-29 10:22:41.031250,67.43,75.2
187810,2018-06-29 10:22:41.062500,73.39,75.2
187811,2018-06-29 10:22:41.093750,73.99,75.2
187812,2018-06-29 10:22:41.125000,72.35,75.2
187813,2018-06-29 10:22:41.156250,71.05,75.2
187814,2018-06-29 10:22:41.187500,70.06,75.2
187815,2018-06-29 10:22:41.218750,68.37,75.2
187816,2018-06-29 10:22:41.250000,65.61,75.2
187817,2018-06-29 10:22:41.281250,61.09,75.2
187818,2018-06-29 10:22:41.312500,53.82,75.2
187819,2018-06-29 10:22:41.343750,44.53,75.2
187820,2018-06-29 10:22:41.375000,35.46,75.2
187821,2018-06-29 10:22:41.406250,27.57,75.2
187822,2018-06-29 10:22:41.437500,19.72,75.2
187823,2018-06-29 10:22:41.468750,10.81,75.2
187824,2018-06-29 10:22:41.500000,0.96,75.2
187825,2018-06-29 10:22:41.531250,-9.15,75.32
187826,2018-06-29 10:22:41.562500,-18.63,75.32
187827,2018-06-29 10:22:41.593750,-27.38,75.32
187828,2018-06-29 10:22:41.625000,-37.14,75.32
187829,2018-06-29 10:22:41.656250,-49.25,75.32
187830,2018-06-29 10:22:41.687500,-62.06,75.32
187831,2018-06-29 10:22:41.718750,-73.47,75.32
187832,2018-06-29 10:22:41.750000,-84.3,75.32
187833,2018-06-29 10:22:41.781250,-97.56,75.32
187834,2018-06-29 10:22:41.812500,-114.82,75.32
187835,2018-06-29 10:22:41.843750,-130.13,75.32
187836,2018-06-29 10:22:41.875000,-129.44,75.32
187837,2018-06-29 10:22:41.906250,-104.82,75.32
187838,2018-06-29 10:22:41.937500,-67.02,75.32
187839,2018-06-29 10:22:41.968750,-34.68,75.32
187840,2018-06-29 10:22:42.000000,-16.56,75.32
187841,2018-06-29 10:22:42.031250,-11.79,75.32
187842,2018-06-29 10:22:42.062500,-19.08,75.32
187843,2018-06-29 10:22:42.093750,-37.06,75.32
187844,2018-06-29 10:22:42.125000,-61.73,75.32
187845,2018-06-29 10:22:42.156250,-86.6,75.32
187846,2018-06-29 10:22:42.187500,-101.54,75.32
187847,2018-06-29 10:22:42.218750,-94.82,75.32
187848,2018-06-29 10:22:42.250000,-62.69,75.32
187849,2018-06-29 10:22:42.281250,-14.55,75.32
187850,2018-06-29 10:22:42.312500,35.14,75.32
187851,2018-06-29 10:22:42.343750,75.6,75.32
187852,2018-06-29 10:22:42.375000,101.21,75.32
187853,2018-06-29 10:22:42.406250,112.42,75.32
187854,2018-06-29 10:22:42.437500,114.93,75.32
187855,2018-06-29 10:22:42.468750,113.68,75.32
187856,2018-06-29 10:22:42.500000,109.91,75.32
187857,2018-06-29 10:22:42.531250,105.17,75.43
187858,2018-06-29 10:22:42.562500,101.71,75.43
187859,2018-06-29 10:22:42.593750,97.84,75.43
187860,2018-06-29 10:22:42.625000,89.51,75.43
187861,2018-06-29 10:22:42.656250,77.29,75.43
187862,2018-06-29 10:22:42.687500,66.15,75.43
187863,2018-06-29 10:22:42.718750,57.69,75.43
187864,2018-06-29 10:22:42.750000,46.95,75.43
187865,2018-06-29 10:22:42.781250,28.07,75.43
187866,2018-06-29 10:22:42.812500,-0.23,75.43
187867,2018-06-29 10:22:42.843750,-32.88,75.43
187868,2018-06-29 10:22:42.875000,-57.98,75.43
187869,2018-06-29 10:22:42.906250,-61.8,75.43
187870,2018-06-29 10:22:42.937500,-41.68,75.43
187871,2018-06-29 10:22:42.968750,-10.49,75.43
187872,2018-06-29 10:22:43.000000,16.73,75.43
187873,2018-06-29 10:22:43.031250,35.52,75.43
187874,2018-06-29 10:22:43.062500,48.04,75.43
187875,2018-06-29 10:22:43.093750,54.73,75.43
187876,2018-06-29 10:22:43.125000,55.37,75.43
187877,2018-06-29 10:22:43.156250,52.76,75.43
187878,2018-06-29 10:22:43.187500,50.5,75.43
187879,2018-06-29 10:22:43.218750,49.14,75.43
187880,2018-06-29 10:22:43.250000,47.1,75.43
187881,2018-06-29 10:22:43.281250,43.91,75.43
187882,2018-06-29 10:22:43.312500,39.85,75.43
187883,2018-06-29 10:22:43.343750,33.76,75.43
187884,2018-06-29 10:22:43.375000,24.54,75.43
187885,2018-06-29 10:22:43.406250,13.86,75.43
187886,2018-06-29 10:22:43.437500,4.4,75.43
187887,2018-06-29 10:22:43.468750,-3.69,75.43
187888,2018-06-29 10:22:43.500000,-12.45,75.43
187889,2018-06-29 10:22:43.531250,-22.31,75.57
187890,2018-06-29 10:22:43.562500,-31.23,75.57
187891,2018-06-29 10:22:43.593750,-38.2,75.57
187892,2018-06-29 10:22:43.625000,-44.93,75.57
187893,2018-06-29 10:22:43.656250,-53.07,75.57
187894,2018-06-29 10:22:43.687500,-61.43,75.57
187895,2018-06-29 10:22:43.718750,-68.08,75.57
187896,2018-06-29 10:22:43.750000,-73.4,75.57
187897,2018-06-29 10:22:43.781250,-80.09,75.57
187898,2018-06-29 10:22:43.812500,-90.45,75.57
187899,2018-06-29 10:22:43.843750,-101.01,75.57
187900,2018-06-29 10:22:43.875000,-100.68,75.57
187901,2018-06-29 10:22:43.906250,-80.49,75.57
187902,2018-06-29 10:22:43.937500,-45.46,75.57
187903,2018-06-29 10:22:43.968750,-9.98,75.57
187904,2018-06-29 10:22:44.000000,16.75,75.57
187905,2018-06-29 10:22:44.031250,34.38,75.57
187906,2018-06-29 10:22:44.062500,44.51,75.57
187907,2018-06-29 10:22:44.093750,47.8,75.57
187908,2018-06-29 10:22:44.125000,46.53,75.57
187909,2018-06-29 10:22:44.156250,44.3,75.57
187910,2018-06-29 10:22:44.187500,43.06,75.57
187911,2018-06-29 10:22:44.218750,42.87,75.57
187912,2018-06-29 10:22:44.250000,43.45,75.57
187913,2018-06-29 10:22:44.281250,43.66,75.57
187914,2018-06-29 10:22:44.312500,41.19,75.57
187915,2018-06-29 10:22:44.343750,35.03,75.57
187916,2018-06-29 10:22:44.375000,26.48,75.57
187917,2018-06-29 10:22:44.406250,17.08,75.57
187918,2018-06-29 10:22:44.437500,7.71,75.57
187919,2018-06-29 10:22:44.468750,-0.75,75.57
187920,2018-06-29 10:22:44.500000,-8.06,75.57
187921,2018-06-29 10:22:44.531250,-15.53,75.72
187922,2018-06-29 10:22:44.562500,-24.49,75.72
187923,2018-06-29 10:22:44.593750,-34.04,75.72
187924,2018-06-29 10:22:44.625000,-42.21,75.72
187925,2018-06-29 10:22:44.656250,-49.45,75.72
187926,2018-06-29 10:22:44.687500,-58.64,75.72
187927,2018-06-29 10:22:44.718750,-71.21,75.72
187928,2018-06-29 10:22:44.750000,-83.62,75.72
187929,2018-06-29 10:22:44.781250,-86.58,75.72
187930,2018-06-29 10:22:44.812500,-71.3,75.72
187931,2018-06-29 10:22:44.843750,-40.13,75.72
187932,2018-06-29 10:22:44.875000,-6.35,75.72
187933,2018-06-29 10:22:44.906250,19.09,75.72
187934,2018-06-29 10:22:44.937500,35.05,75.72
187935,2018-06-29 10:22:44.968750,44.15,75.72
187936,2018-06-29 10:22:45.000000,47.29,75.72
187937,2018-06-29 10:22:45.031250,45.65,75.72
187938,2018-06-29 10:22:45.062500,42.43,75.72
187939,2018-06-29 10:22:45.093750,40.44,75.72
187940,2018-06-29 10:22:45.125000,39.92,75.72
187941,2018-06-29 10:22:45.156250,40.05,75.72
187942,2018-06-29 10:22:45.187500,40.27,75.72
187943,2018-06-29 10:22:45.218750,39.24,75.72
187944,2018-06-29 10:22:45.250000,34.35,75.72
187945,2018-06-29 10:22:45.281250,24.87,75.72
187946,2018-06-29 10:22:45.312500,13.93,75.72
187947,2018-06-29 10:22:45.343750,5.21,75.72
187948,2018-06-29 10:22:45.375000,-1.56,75.72
187949,2018-06-29 10:22:45.406250,-9.69,75.72
187950,2018-06-29 10:22:45.437500,-20.5,75.72
187951,2018-06-29 10:22:45.468750,-31.54,75.72
187952,2018-06-29 10:22:45.500000,-40.08,75.72
187953,2018-06-29 10:22:45.531250,-47.08,75.85
187954,2018-06-29 10:22:45.562500,-56.52,75.85
187955,2018-06-29 10:22:45.593750,-70.1,75.85
187956,2018-06-29 10:22:45.625000,-81.62,75.85
187957,2018-06-29 10:22:45.656250,-79.02,75.85
187958,2018-06-29 10:22:45.687500,-56.6,75.85
187959,2018-06-29 10:22:45.718750,-23.17,75.85
187960,2018-06-29 10:22:45.750000,6.55,75.85
187961,2018-06-29 10:22:45.781250,25.71,75.85
187962,2018-06-29 10:22:45.812500,36.21,75.85
187963,2018-06-29 10:22:45.843750,40.65,75.85
187964,2018-06-29 10:22:45.875000,39.77,75.85
187965,2018-06-29 10:22:45.906250,35.31,75.85
187966,2018-06-29 10:22:45.937500,30.72,75.85
187967,2018-06-29 10:22:45.968750,28.45,75.85
187968,2018-06-29 10:22:46.000000,28.04,75.85
187969,2018-06-29 10:22:46.031250,27.31,75.85
187970,2018-06-29 10:22:46.062500,24.75,75.85
187971,2018-06-29 10:22:46.093750,20.28,75.85
187972,2018-06-29 10:22:46.125000,13.93,75.85
187973,2018-06-29 10:22:46.156250,5.44,75.85
187974,2018-06-29 10:22:46.187500,-4.68,75.85
187975,2018-06-29 10:22:46.218750,-14.99,75.85
187976,2018-06-29 10:22:46.250000,-24.63,75.85
187977,2018-06-29 10:22:46.281250,-33.98,75.85
187978,2018-06-29 10:22:46.312500,-44.0,75.85
187979,2018-06-29 10:22:46.343750,-55.49,75.85
187980,2018-06-29 10:22:46.375000,-67.01,75.85
187981,2018-06-29 10:22:46.406250,-72.14,75.85
187982,2018-06-29 10:22:46.437500,-63.35,75.85
187983,2018-06-29 10:22:46.468750,-40.96,75.85
187984,2018-06-29 10:22:46.500000,-14.22,75.85
187985,2018-06-29 10:22:46.531250,8.41,75.98
187986,2018-06-29 10:22:46.562500,25.15,75.98
187987,2018-06-29 10:22:46.593750,36.55,75.98
187988,2018-06-29 10:22:46.625000,42.52,75.98
187989,2018-06-29 10:22:46.656250,46.23,75.98
187990,2018-06-29 10:22:46.687500,54.55,75.98
187991,2018-06-29 10:22:46.718750,69.36,75.98
187992,2018-06-29 10:22:46.750000,82.54,75.98
187993,2018-06-29 10:22:46.781250,84.3,75.98
187994,2018-06-29 10:22:46.812500,73.47,75.98
187995,2018-06-29 10:22:46.843750,56.22,75.98
187996,2018-06-29 10:22:46.875000,37.25,75.98
187997,2018-06-29 10:22:46.906250,16.57,75.98
187998,2018-06-29 10:22:46.937500,-5.73,75.98
187999,2018-06-29 10:22:46.968750,-25.6,75.98
188000,2018-06-29 10:22:47.000000,-38.9,75.98
188001,2018-06-29 10:22:47.031250,-46.66,75.98
188002,2018-06-29 10:22:47.062500,-53.64,75.98
188003,2018-06-29 10:22:47.093750,-62.62,75.98
188004,2018-06-29 10:22:47.125000,-69.79,75.98
188005,2018-06-29 10:22:47.156250,-65.49,75.98
188006,2018-06-29 10:22:47.187500,-44.17,75.98
188007,2018-06-29 10:22:47.218750,-13.91,75.98
188008,2018-06-29 10:22:47.250000,10.11,75.98
188009,2018-06-29 10:22:47.281250,20.79,75.98
188010,2018-06-29 10:22:47.312500,24.29,75.98
188011,2018-06-29 10:22:47.343750,30.91,75.98
188012,2018-06-29 10:22:47.375000,44.35,75.98
188013,2018-06-29 10:22:47.406250,61.3,75.98
188014,2018-06-29 10:22:47.437500,78.88,75.98
188015,2018-06-29 10:22:47.468750,96.56,75.98
188016,2018-06-29 10:22:47.500000,111.03,75.98
188017,2018-06-29 10:22:47.531250,116.68,76.13
188018,2018-06-29 10:22:47.562500,111.22,76.13
188019,2018-06-29 10:22:47.593750,95.61,76.13
188020,2018-06-29 10:22:47.625000,72.5,76.13
188021,2018-06-29 10:22:47.656250,46.91,76.13
188022,2018-06-29 10:22:47.687500,22.96,76.13
188023,2018-06-29 10:22:47.718750,-1.5,76.13
188024,2018-06-29 10:22:47.750000,-31.67,76.13
188025,2018-06-29 10:22:47.781250,-66.46,76.13
188026,2018-06-29 10:22:47.812500,-97.01,76.13
188027,2018-06-29 10:22:47.843750,-115.63,76.13
188028,2018-06-29 10:22:47.875000,-123.49,76.13
188029,2018-06-29 10:22:47.906250,-128.08,76.13
188030,2018-06-29 10:22:47.937500,-131.89,76.13
188031,2018-06-29 10:22:47.968750,-126.65,76.13
188032,2018-06-29 10:22:48.000000,-104.11,76.13
188033,2018-06-29 10:22:48.031250,-69.7,76.13
188034,2018-06-29 10:22:48.062500,-37.09,76.13
188035,2018-06-29 10:22:48.093750,-12.61,76.13
188036,2018-06-29 10:22:48.125000,6.8,76.13
188037,2018-06-29 10:22:48.156250,23.05,76.13
188038,2018-06-29 10:22:48.187500,33.58,76.13
188039,2018-06-29 10:22:48.218750,37.67,76.13
188040,2018-06-29 10:22:48.250000,38.71,76.13
188041,2018-06-29 10:22:48.281250,38.82,76.13
188042,2018-06-29 10:22:48.312500,36.72,76.13
188043,2018-06-29 10:22:48.343750,32.25,76.13
188044,2018-06-29 10:22:48.375000,27.84,76.13
188045,2018-06-29 10:22:48.406250,25.39,76.13
188046,2018-06-29 10:22:48.437500,26.05,76.13
188047,2018-06-29 10:22:48.468750,29.64,76.13
188048,2018-06-29 10:22:48.500000,32.38,76.13
188049,2018-06-29 10:22:48.531250,29.83,76.23
188050,2018-06-29 10:22:48.562500,23.09,76.23
188051,2018-06-29 10:22:48.593750,17.89,76.23
188052,2018-06-29 10:22:48.625000,17.62,76.23
188053,2018-06-29 10:22:48.656250,20.57,76.23
188054,2018-06-29 10:22:48.687500,23.4,76.23
188055,2018-06-29 10:22:48.718750,24.13,76.23
188056,2018-06-29 10:22:48.750000,21.7,76.23
188057,2018-06-29 10:22:48.781250,14.39,76.23
188058,2018-06-29 10:22:48.812500,1.33,76.23
188059,2018-06-29 10:22:48.843750,-15.63,76.23
188060,2018-06-29 10:22:48.875000,-33.05,76.23
188061,2018-06-29 10:22:48.906250,-49.1,76.23
188062,2018-06-29 10:22:48.937500,-65.02,76.23
188063,2018-06-29 10:22:48.968750,-83.11,76.23
188064,2018-06-29 10:22:49.000000,-101.77,76.23
188065,2018-06-29 10:22:49.031250,-111.73,76.23
188066,2018-06-29 10:22:49.062500,-102.0,76.23
188067,2018-06-29 10:22:49.093750,-73.1,76.23
188068,2018-06-29 10:22:49.125000,-39.16,76.23
188069,2018-06-29 10:22:49.156250,-13.6,76.23
188070,2018-06-29 10:22:49.187500,1.98,76.23
188071,2018-06-29 10:22:49.218750,12.09,76.23
188072,2018-06-29 10:22:49.250000,18.37,76.23
188073,2018-06-29 10:22:49.281250,20.29,76.23
188074,2018-06-29 10:22:49.312500,19.55,76.23
188075,2018-06-29 10:22:49.343750,19.28,76.23
188076,2018-06-29 10:22:49.375000,19.97,76.23
188077,2018-06-29 10:22:49.406250,19.7,76.23
188078,2018-06-29 10:22:49.437500,17.87,76.23
188079,2018-06-29 10:22:49.468750,15.88,76.23
188080,2018-06-29 10:22:49.500000,14.99,76.23
188081,2018-06-29 10:22:49.531250,15.37,76.28
188082,2018-06-29 10:22:49.562500,16.45,76.28
188083,2018-06-29 10:22:49.593750,16.65,76.28
188084,2018-06-29 10:22:49.625000,14.12,76.28
188085,2018-06-29 10:22:49.656250,9.12,76.28
188086,2018-06-29 10:22:49.687500,3.69,76.28
188087,2018-06-29 10:22:49.718750,-1.66,76.28
188088,2018-06-29 10:22:49.750000,-8.35,76.28
188089,2018-06-29 10:22:49.781250,-16.92,76.28
188090,2018-06-29 10:22:49.812500,-26.35,76.28
188091,2018-06-29 10:22:49.843750,-36.07,76.28
188092,2018-06-29 10:22:49.875000,-46.79,76.28
188093,2018-06-29 10:22:49.906250,-59.5,76.28
188094,2018-06-29 10:22:49.937500,-72.0,76.28
188095,2018-06-29 10:22:49.968750,-75.63,76.28
188096,2018-06-29 10:22:50.000000,-61.25,76.28
188097,2018-06-29 10:22:50.031250,-31.29,76.28
188098,2018-06-29 10:22:50.062500,0.67,76.28
188099,2018-06-29 10:22:50.093750,24.5,76.28
188100,2018-06-29 10:22:50.125000,40.6,76.28
188101,2018-06-29 10:22:50.156250,51.65,76.28
188102,2018-06-29 10:22:50.187500,56.81,76.28
188103,2018-06-29 10:22:50.218750,56.24,76.28
188104,2018-06-29 10:22:50.250000,53.87,76.28
188105,2018-06-29 10:22:50.281250,52.7,76.28
188106,2018-06-29 10:22:50.312500,52.1,76.28
188107,2018-06-29 10:22:50.343750,51.18,76.28
188108,2018-06-29 10:22:50.375000,50.44,76.28
188109,2018-06-29 10:22:50.406250,49.16,76.28
188110,2018-06-29 10:22:50.437500,45.0,76.28
188111,2018-06-29 10:22:50.468750,37.42,76.28
188112,2018-06-29 10:22:50.500000,28.98,76.28
188113,2018-06-29 10:22:50.531250,22.08,76.27
188114,2018-06-29 10:22:50.562500,16.06,76.27
188115,2018-06-29 10:22:50.593750,8.65,76.27
188116,2018-06-29 10:22:50.625000,-0.65,76.27
188117,2018-06-29 10:22:50.656250,-10.08,76.27
188118,2018-06-29 10:22:50.687500,-18.43,76.27
188119,2018-06-29 10:22:50.718750,-27.08,76.27
188120,2018-06-29 10:22:50.750000,-37.69,76.27
188121,2018-06-29 10:22:50.781250,-49.27,76.27
188122,2018-06-29 10:22:50.812500,-59.7,76.27
188123,2018-06-29 10:22:50.843750,-69.37,76.27
188124,2018-06-29 10:22:50.875000,-80.88,76.27
188125,2018-06-29 10:22:50.906250,-96.32,76.27
188126,2018-06-29 10:22:50.937500,-114.07,76.27
188127,2018-06-29 10:22:50.968750,-125.9,76.27
188128,2018-06-29 10:22:51.000000,-122.0,76.27
188129,2018-06-29 10:22:51.031250,-102.46,76.27
188130,2018-06-29 10:22:51.062500,-77.89,76.27
188131,2018-06-29 10:22:51.093750,-55.79,76.27
188132,2018-06-29 10:22:51.125000,-33.44,76.27
188133,2018-06-29 10:22:51.156250,-6.62,76.27
188134,2018-06-29 10:22:51.187500,21.76,76.27
188135,2018-06-29 10:22:51.218750,45.73,76.27
188136,2018-06-29 10:22:51.250000,64.08,76.27
188137,2018-06-29 10:22:51.281250,79.76,76.27
188138,2018-06-29 10:22:51.312500,94.17,76.27
188139,2018-06-29 10:22:51.343750,106.1,76.27
188140,2018-06-29 10:22:51.375000,113.7,76.27
188141,2018-06-29 10:22:51.406250,114.25,76.27
188142,2018-06-29 10:22:51.437500,105.73,76.27
188143,2018-06-29 10:22:51.468750,90.01,76.27
188144,2018-06-29 10:22:51.500000,70.83,76.27
188145,2018-06-29 10:22:51.531250,49.65,76.23
188146,2018-06-29 10:22:51.562500,28.26,76.23
188147,2018-06-29 10:22:51.593750,11.33,76.23
188148,2018-06-29 10:22:51.625000,0.14,76.23
188149,2018-06-29 10:22:51.656250,-11.29,76.23
188150,2018-06-29 10:22:51.687500,-27.18,76.23
188151,2018-06-29 10:22:51.718750,-42.94,76.23
188152,2018-06-29 10:22:51.750000,-52.71,76.23
188153,2018-06-29 10:22:51.781250,-58.23,76.23
188154,2018-06-29 10:22:51.812500,-65.27,76.23
188155,2018-06-29 10:22:51.843750,-73.07,76.23
188156,2018-06-29 10:22:51.875000,-67.99,76.23
188157,2018-06-29 10:22:51.906250,-31.05,76.23
188158,2018-06-29 10:22:51.937500,39.04,76.23
188159,2018-06-29 10:22:51.968750,112.08,76.23
188160,2018-06-29 10:22:52.000000,150.39,76.23
188161,2018-06-29 10:22:52.031250,147.76,76.23
188162,2018-06-29 10:22:52.062500,128.91,76.23
188163,2018-06-29 10:22:52.093750,111.47,76.23
188164,2018-06-29 10:22:52.125000,90.5,76.23
188165,2018-06-29 10:22:52.156250,60.44,76.23
188166,2018-06-29 10:22:52.187500,27.35,76.23
188167,2018-06-29 10:22:52.218750,-3.96,76.23
188168,2018-06-29 10:22:52.250000,-33.25,76.23
188169,2018-06-29 10:22:52.281250,-54.48,76.23
188170,2018-06-29 10:22:52.312500,-59.3,76.23
188171,2018-06-29 10:22:52.343750,-51.04,76.23
188172,2018-06-29 10:22:52.375000,-41.41,76.23
188173,2018-06-29 10:22:52.406250,-34.15,76.23
188174,2018-06-29 10:22:52.437500,-22.8,76.23
188175,2018-06-29 10:22:52.468750,-3.88,76.23
188176,2018-06-29 10:22:52.500000,19.95,76.23
188177,2018-06-29 10:22:52.531250,48.7,76.18
188178,2018-06-29 10:22:52.562500,83.89,76.18
188179,2018-06-29 10:22:52.593750,119.6,76.18
188180,2018-06-29 10:22:52.625000,145.65,76.18
188181,2018-06-29 10:22:52.656250,155.75,76.18
188182,2018-06-29 10:22:52.687500,147.62,76.18
188183,2018-06-29 10:22:52.718750,120.84,76.18
188184,2018-06-29 10:22:52.750000,78.44,76.18
188185,2018-06-29 10:22:52.781250,26.32,76.18
188186,2018-06-29 10:22:52.812500,-30.13,76.18
188187,2018-06-29 10:22:52.843750,-84.07,76.18
