,Time,ppg,hr
188800,2018-06-29 10:23:12.000000,55.56,73.22
188801,2018-06-29 10:23:12.031250,53.83,73.22
188802,2018-06-29 10:23:12.062500,51.91,73.22
188803,2018-06-29 10:23:12.093750,49.71,73.22
188804,2018-06-29 10:23:12.125000,48.45,73.22
188805,2018-06-29 10:23:12.156250,48.81,73.22
188806,2018-06-29 10:23:12.187500,47.96,73.22
188807,2018-06-29 10:23:12.218750,42.92,73.22
188808,2018-06-29 10:23:12.250000,34.39,73.22
188809,2018-06-29 10:23:12.281250,24.94,73.22
188810,2018-06-29 10:23:12.312500,15.99,73.22
188811,2018-06-29 10:23:12.343750,6.88,73.22
188812,2018-06-29 10:23:12.375000,-3.48,73.22
188813,2018-06-29 10:23:12.406250,-14.21,73.22
188814,2018-06-29 10:23:12.437500,-23.35,73.22
188815,2018-06-29 10:23:12.468750,-31.6,73.22
188816,2018-06-29 10:23:12.500000,-42.41,73.22
188817,2018-06-29 10:23:12.531250,-57.39,72.87
188818,2018-06-29 10:23:12.562500,-71.58,72.87
188819,2018-06-29 10:23:12.593750,-74.21,72.87
188820,2018-06-29 10:23:12.625000,-58.02,72.87
188821,2018-06-29 10:23:12.656250,-28.41,72.87
188822,2018-06-29 10:23:12.687500,1.83,72.87
188823,2018-06-29 10:23:12.718750,25.44,72.87
188824,2018-06-29 10:23:12.750000,42.4,72.87
188825,2018-06-29 10:23:12.781250,52.86,72.87
188826,2018-06-29 10:23:12.812500,55.82,72.87
188827,2018-06-29 10:23:12.843750,52.92,72.87
188828,2018-06-29 10:23:12.875000,48.18,72.87
188829,2018-06-29 10:23:12.906250,44.73,72.87
188830,2018-06-29 10:23:12.937500,43.45,72.87
188831,2018-06-29 10:23:12.968750,43.76,72.87
188832,2018-06-29 10:23:13.000000,43.92,72.87
188833,2018-06-29 10:23:13.031250,41.27,72.87
188834,2018-06-29 10:23:13.062500,34.15,72.87
188835,2018-06-29 10:23:13.093750,24.0,72.87
188836,2018-06-29 10:23:13.125000,13.31,72.87
188837,2018-06-29 10:23:13.156250,2.37,72.87
188838,2018-06-29 10:23:13.187500,-9.7,72.87
188839,2018-06-29 10:23:13.218750,-21.92,72.87
188840,2018-06-29 10:23:13.250000,-32.47,72.87
188841,2018-06-29 10:23:13.281250,-41.96,72.87
188842,2018-06-29 10:23:13.312500,-53.62,72.87
188843,2018-06-29 10:23:13.343750,-67.9,72.87
188844,2018-06-29 10:23:13.375000,-76.43,72.87
188845,2018-06-29 10:23:13.406250,-67.06,72.87
188846,2018-06-29 10:23:13.437500,-38.1,72.87
188847,2018-06-29 10:23:13.468750,-2.13,72.87
188848,2018-06-29 10:23:13.500000,27.39,72.87
188849,2018-06-29 10:23:13.531250,46.78,72.45
188850,2018-06-29 10:23:13.562500,57.95,72.45
188851,2018-06-29 10:23:13.593750,61.89,72.45
188852,2018-06-29 10:23:13.625000,60.07,72.45
188853,2018-06-29 10:23:13.656250,56.54,72.45
188854,2018-06-29 10:23:13.687500,54.63,72.45
188855,2018-06-29 10:23:13.718750,54.01,72.45
188856,2018-06-29 10:23:13.750000,53.0,72.45
188857,2018-06-29 10:23:13.781250,50.95,72.45
188858,2018-06-29 10:23:13.812500,47.27,72.45
188859,2018-06-29 10:23:13.843750,40.79,72.45
188860,2018-06-29 10:23:13.875000,30.96,72.45
188861,2018-06-29 10:23:13.906250,19.2,72.45
188862,2018-06-29 10:23:13.937500,8.15,72.45
188863,2018-06-29 10:23:13.968750,-1.46,72.45
188864,2018-06-29 10:23:14.000000,-11.9,72.45
188865,2018-06-29 10:23:14.031250,-24.2,72.45
188866,2018-06-29 10:23:14.062500,-36.22,72.45
188867,2018-06-29 10:23:14.093750,-46.87,72.45
188868,2018-06-29 10:23:14.125000,-57.8,72.45
188869,2018-06-29 10:23:14.156250,-70.62,72.45
188870,2018-06-29 10:23:14.187500,-86.07,72.45
188871,2018-06-29 10:23:14.218750,-102.26,72.45
188872,2018-06-29 10:23:14.250000,-109.83,72.45
188873,2018-06-29 10:23:14.281250,-96.93,72.45
188874,2018-06-29 10:23:14.312500,-64.18,72.45
188875,2018-06-29 10:23:14.343750,-27.04,72.45
188876,2018-06-29 10:23:14.375000,0.66,72.45
188877,2018-06-29 10:23:14.406250,17.66,72.45
188878,2018-06-29 10:23:14.437500,30.75,72.45
188879,2018-06-29 10:23:14.468750,48.52,72.45
188880,2018-06-29 10:23:14.500000,77.82,72.45
188881,2018-06-29 10:23:14.531250,117.59,72.12
188882,2018-06-29 10:23:14.562500,157.39,72.12
188883,2018-06-29 10:23:14.593750,187.03,72.12
188884,2018-06-29 10:23:14.625000,203.94,72.12
188885,2018-06-29 10:23:14.656250,207.19,72.12
188886,2018-06-29 10:23:14.687500,192.46,72.12
188887,2018-06-29 10:23:14.718750,158.33,72.12
188888,2018-06-29 10:23:14.750000,111.04,72.12
188889,2018-06-29 10:23:14.781250,59.61,72.12
188890,2018-06-29 10:23:14.812500,11.91,72.12
188891,2018-06-29 10:23:14.843750,-25.06,72.12
188892,2018-06-29 10:23:14.875000,-47.39,72.12
188893,2018-06-29 10:23:14.906250,-57.26,72.12
188894,2018-06-29 10:23:14.937500,-60.64,72.12
188895,2018-06-29 10:23:14.968750,-62.1,72.12
188896,2018-06-29 10:23:15.000000,-62.35,72.12
188897,2018-06-29 10:23:15.031250,-60.53,72.12
188898,2018-06-29 10:23:15.062500,-58.15,72.12
188899,2018-06-29 10:23:15.093750,-59.45,72.12
188900,2018-06-29 10:23:15.125000,-66.52,72.12
188901,2018-06-29 10:23:15.156250,-73.03,72.12
188902,2018-06-29 10:23:15.187500,-66.03,72.12
188903,2018-06-29 10:23:15.218750,-36.08,72.12
188904,2018-06-29 10:23:15.250000,14.72,72.12
188905,2018-06-29 10:23:15.281250,75.49,72.12
188906,2018-06-29 10:23:15.312500,134.89,72.12
188907,2018-06-29 10:23:15.343750,185.71,72.12
188908,2018-06-29 10:23:15.375000,224.02,72.12
188909,2018-06-29 10:23:15.406250,244.61,72.12
188910,2018-06-29 10:23:15.437500,241.48,72.12
188911,2018-06-29 10:23:15.468750,217.4,72.12
188912,2018-06-29 10:23:15.500000,184.2,72.12
188913,2018-06-29 10:23:15.531250,146.06,71.78
188914,2018-06-29 10:23:15.562500,96.24,71.78
188915,2018-06-29 10:23:15.593750,36.8,71.78
188916,2018-06-29 10:23:15.625000,-17.37,71.78
188917,2018-06-29 10:23:15.656250,-59.81,71.78
188918,2018-06-29 10:23:15.687500,-98.49,71.78
188919,2018-06-29 10:23:15.718750,-139.17,71.78
188920,2018-06-29 10:23:15.750000,-179.74,71.78
188921,2018-06-29 10:23:15.781250,-218.92,71.78
188922,2018-06-29 10:23:15.812500,-257.91,71.78
188923,2018-06-29 10:23:15.843750,-295.9,71.78
188924,2018-06-29 10:23:15.875000,-331.95,71.78
188925,2018-06-29 10:23:15.906250,-365.9,71.78
188926,2018-06-29 10:23:15.937500,-391.6,71.78
188927,2018-06-29 10:23:15.968750,-395.6,71.78
188928,2018-06-29 10:23:16.000000,-368.76,71.78
188929,2018-06-29 10:23:16.031250,-314.37,71.78
188930,2018-06-29 10:23:16.062500,-243.92,71.78
188931,2018-06-29 10:23:16.093750,-168.5,71.78
188932,2018-06-29 10:23:16.125000,-91.59,71.78
188933,2018-06-29 10:23:16.156250,-6.95,71.78
188934,2018-06-29 10:23:16.187500,90.59,71.78
188935,2018-06-29 10:23:16.218750,189.85,71.78
188936,2018-06-29 10:23:16.250000,267.14,71.78
188937,2018-06-29 10:23:16.281250,307.54,71.78
188938,2018-06-29 10:23:16.312500,314.33,71.78
188939,2018-06-29 10:23:16.343750,296.21,71.78
188940,2018-06-29 10:23:16.375000,255.68,71.78
188941,2018-06-29 10:23:16.406250,194.65,71.78
188942,2018-06-29 10:23:16.437500,121.52,71.78
188943,2018-06-29 10:23:16.468750,48.62,71.78
188944,2018-06-29 10:23:16.500000,-10.82,71.78
188945,2018-06-29 10:23:16.531250,-44.13,71.35
188946,2018-06-29 10:23:16.562500,-46.39,71.35
188947,2018-06-29 10:23:16.593750,-28.06,71.35
188948,2018-06-29 10:23:16.625000,-7.89,71.35
188949,2018-06-29 10:23:16.656250,3.5,71.35
188950,2018-06-29 10:23:16.687500,7.48,71.35
188951,2018-06-29 10:23:16.718750,7.97,71.35
188952,2018-06-29 10:23:16.750000,7.18,71.35
188953,2018-06-29 10:23:16.781250,7.83,71.35
188954,2018-06-29 10:23:16.812500,9.08,71.35
188955,2018-06-29 10:23:16.843750,1.61,71.35
188956,2018-06-29 10:23:16.875000,-22.9,71.35
188957,2018-06-29 10:23:16.906250,-56.96,71.35
188958,2018-06-29 10:23:16.937500,-83.63,71.35
188959,2018-06-29 10:23:16.968750,-99.43,71.35
188960,2018-06-29 10:23:17.000000,-116.85,71.35
188961,2018-06-29 10:23:17.031250,-141.26,71.35
188962,2018-06-29 10:23:17.062500,-161.9,71.35
188963,2018-06-29 10:23:17.093750,-166.32,71.35
188964,2018-06-29 10:23:17.125000,-148.01,71.35
188965,2018-06-29 10:23:17.156250,-105.0,71.35
188966,2018-06-29 10:23:17.187500,-46.08,71.35
188967,2018-06-29 10:23:17.218750,8.77,71.35
188968,2018-06-29 10:23:17.250000,44.33,71.35
188969,2018-06-29 10:23:17.281250,61.65,71.35
188970,2018-06-29 10:23:17.312500,69.59,71.35
188971,2018-06-29 10:23:17.343750,72.54,71.35
188972,2018-06-29 10:23:17.375000,70.74,71.35
188973,2018-06-29 10:23:17.406250,66.59,71.35
188974,2018-06-29 10:23:17.437500,64.82,71.35
188975,2018-06-29 10:23:17.468750,66.94,71.35
188976,2018-06-29 10:23:17.500000,68.99,71.35
188977,2018-06-29 10:23:17.531250,65.51,70.93
188978,2018-06-29 10:23:17.562500,54.37,70.93
188979,2018-06-29 10:23:17.593750,37.69,70.93
188980,2018-06-29 10:23:17.625000,19.84,70.93
188981,2018-06-29 10:23:17.656250,5.42,70.93
188982,2018-06-29 10:23:17.687500,-2.75,70.93
188983,2018-06-29 10:23:17.718750,-5.61,70.93
188984,2018-06-29 10:23:17.750000,-7.15,70.93
188985,2018-06-29 10:23:17.781250,-10.94,70.93
188986,2018-06-29 10:23:17.812500,-17.35,70.93
188987,2018-06-29 10:23:17.843750,-24.62,70.93
188988,2018-06-29 10:23:17.875000,-31.88,70.93
188989,2018-06-29 10:23:17.906250,-40.37,70.93
188990,2018-06-29 10:23:17.937500,-51.38,70.93
188991,2018-06-29 10:23:17.968750,-63.86,70.93
188992,2018-06-29 10:23:18.000000,-72.55,70.93
188993,2018-06-29 10:23:18.031250,-69.36,70.93
188994,2018-06-29 10:23:18.062500,-51.12,70.93
188995,2018-06-29 10:23:18.093750,-24.65,70.93
188996,2018-06-29 10:23:18.125000,0.33,70.93
188997,2018-06-29 10:23:18.156250,19.97,70.93
188998,2018-06-29 10:23:18.187500,34.78,70.93
188999,2018-06-29 10:23:18.218750,44.43,70.93
189000,2018-06-29 10:23:18.250000,48.12,70.93
189001,2018-06-29 10:23:18.281250,47.21,70.93
189002,2018-06-29 10:23:18.312500,44.93,70.93
189003,2018-06-29 10:23:18.343750,43.61,70.93
189004,2018-06-29 10:23:18.375000,43.37,70.93
189005,2018-06-29 10:23:18.406250,43.24,70.93
189006,2018-06-29 10:23:18.437500,41.8,70.93
189007,2018-06-29 10:23:18.468750,37.47,70.93
189008,2018-06-29 10:23:18.500000,29.97,70.93
189009,2018-06-29 10:23:18.531250,20.82,70.53
189010,2018-06-29 10:23:18.562500,11.39,70.53
189011,2018-06-29 10:23:18.593750,1.82,70.53
189012,2018-06-29 10:23:18.625000,-8.03,70.53
189013,2018-06-29 10:23:18.656250,-17.81,70.53
189014,2018-06-29 10:23:18.687500,-26.83,70.53
189015,2018-06-29 10:23:18.718750,-35.24,70.53
189016,2018-06-29 10:23:18.750000,-44.77,70.53
189017,2018-06-29 10:23:18.781250,-56.47,70.53
189018,2018-06-29 10:23:18.812500,-66.69,70.53
189019,2018-06-29 10:23:18.843750,-67.13,70.53
189020,2018-06-29 10:23:18.875000,-52.11,70.53
189021,2018-06-29 10:23:18.906250,-25.35,70.53
189022,2018-06-29 10:23:18.937500,3.28,70.53
189023,2018-06-29 10:23:18.968750,26.71,70.53
189024,2018-06-29 10:23:19.000000,43.7,70.53
189025,2018-06-29 10:23:19.031250,54.4,70.53
189026,2018-06-29 10:23:19.062500,58.26,70.53
189027,2018-06-29 10:23:19.093750,56.6,70.53
189028,2018-06-29 10:23:19.125000,53.13,70.53
189029,2018-06-29 10:23:19.156250,50.37,70.53
189030,2018-06-29 10:23:19.187500,48.27,70.53
189031,2018-06-29 10:23:19.218750,46.59,70.53
189032,2018-06-29 10:23:19.250000,45.06,70.53
189033,2018-06-29 10:23:19.281250,41.27,70.53
189034,2018-06-29 10:23:19.312500,32.74,70.53
189035,2018-06-29 10:23:19.343750,21.07,70.53
189036,2018-06-29 10:23:19.375000,10.31,70.53
189037,2018-06-29 10:23:19.406250,1.33,70.53
189038,2018-06-29 10:23:19.437500,-8.64,70.53
189039,2018-06-29 10:23:19.468750,-20.58,70.53
189040,2018-06-29 10:23:19.500000,-31.74,70.53
189041,2018-06-29 10:23:19.531250,-40.52,70.1
189042,2018-06-29 10:23:19.562500,-49.34,70.1
189043,2018-06-29 10:23:19.593750,-61.35,70.1
189044,2018-06-29 10:23:19.625000,-75.74,70.1
189045,2018-06-29 10:23:19.656250,-85.19,70.1
189046,2018-06-29 10:23:19.687500,-79.7,70.1
189047,2018-06-29 10:23:19.718750,-56.59,70.1
189048,2018-06-29 10:23:19.750000,-24.96,70.1
189049,2018-06-29 10:23:19.781250,4.11,70.1
189050,2018-06-29 10:23:19.812500,26.86,70.1
189051,2018-06-29 10:23:19.843750,43.75,70.1
189052,2018-06-29 10:23:19.875000,54.01,70.1
189053,2018-06-29 10:23:19.906250,57.08,70.1
189054,2018-06-29 10:23:19.937500,55.33,70.1
189055,2018-06-29 10:23:19.968750,52.73,70.1
189056,2018-06-29 10:23:20.000000,51.97,70.1
189057,2018-06-29 10:23:20.031250,52.73,70.1
189058,2018-06-29 10:23:20.062500,52.83,70.1
189059,2018-06-29 10:23:20.093750,50.92,70.1
189060,2018-06-29 10:23:20.125000,46.97,70.1
189061,2018-06-29 10:23:20.156250,40.93,70.1
189062,2018-06-29 10:23:20.187500,32.59,70.1
189063,2018-06-29 10:23:20.218750,22.73,70.1
189064,2018-06-29 10:23:20.250000,12.78,70.1
189065,2018-06-29 10:23:20.281250,3.41,70.1
189066,2018-06-29 10:23:20.312500,-5.98,70.1
189067,2018-06-29 10:23:20.343750,-16.56,70.1
189068,2018-06-29 10:23:20.375000,-28.3,70.1
189069,2018-06-29 10:23:20.406250,-39.55,70.1
189070,2018-06-29 10:23:20.437500,-49.45,70.1
189071,2018-06-29 10:23:20.468750,-59.54,70.1
189072,2018-06-29 10:23:20.500000,-72.16,70.1
189073,2018-06-29 10:23:20.531250,-86.98,69.63
189074,2018-06-29 10:23:20.562500,-97.6,69.63
189075,2018-06-29 10:23:20.593750,-93.46,69.63
189076,2018-06-29 10:23:20.625000,-70.07,69.63
189077,2018-06-29 10:23:20.656250,-35.63,69.63
189078,2018-06-29 10:23:20.687500,-2.79,69.63
189079,2018-06-29 10:23:20.718750,22.56,69.63
189080,2018-06-29 10:23:20.750000,40.9,69.63
189081,2018-06-29 10:23:20.781250,52.96,69.63
189082,2018-06-29 10:23:20.812500,58.68,69.63
189083,2018-06-29 10:23:20.843750,59.62,69.63
189084,2018-06-29 10:23:20.875000,58.79,69.63
189085,2018-06-29 10:23:20.906250,58.11,69.63
189086,2018-06-29 10:23:20.937500,57.8,69.63
189087,2018-06-29 10:23:20.968750,58.06,69.63
189088,2018-06-29 10:23:21.000000,58.31,69.63
189089,2018-06-29 10:23:21.031250,55.86,69.63
189090,2018-06-29 10:23:21.062500,49.0,69.63
189091,2018-06-29 10:23:21.093750,39.91,69.63
189092,2018-06-29 10:23:21.125000,31.5,69.63
189093,2018-06-29 10:23:21.156250,23.41,69.63
189094,2018-06-29 10:23:21.187500,13.72,69.63
189095,2018-06-29 10:23:21.218750,2.73,69.63
189096,2018-06-29 10:23:21.250000,-7.28,69.63
189097,2018-06-29 10:23:21.281250,-15.98,69.63
189098,2018-06-29 10:23:21.312500,-25.44,69.63
189099,2018-06-29 10:23:21.343750,-36.35,69.63
189100,2018-06-29 10:23:21.375000,-46.98,69.63
189101,2018-06-29 10:23:21.406250,-56.56,69.63
189102,2018-06-29 10:23:21.437500,-66.86,69.63
189103,2018-06-29 10:23:21.468750,-80.05,69.63
189104,2018-06-29 10:23:21.500000,-95.38,69.63
189105,2018-06-29 10:23:21.531250,-105.27,69.3
189106,2018-06-29 10:23:21.562500,-98.38,69.3
189107,2018-06-29 10:23:21.593750,-71.38,69.3
189108,2018-06-29 10:23:21.625000,-34.31,69.3
189109,2018-06-29 10:23:21.656250,-0.28,69.3
189110,2018-06-29 10:23:21.687500,25.54,69.3
189111,2018-06-29 10:23:21.718750,44.15,69.3
189112,2018-06-29 10:23:21.750000,55.69,69.3
189113,2018-06-29 10:23:21.781250,59.2,69.3
189114,2018-06-29 10:23:21.812500,57.01,69.3
189115,2018-06-29 10:23:21.843750,54.45,69.3
189116,2018-06-29 10:23:21.875000,53.98,69.3
189117,2018-06-29 10:23:21.906250,53.85,69.3
189118,2018-06-29 10:23:21.937500,52.77,69.3
189119,2018-06-29 10:23:21.968750,51.28,69.3
189120,2018-06-29 10:23:22.000000,48.4,69.3
189121,2018-06-29 10:23:22.031250,41.67,69.3
189122,2018-06-29 10:23:22.062500,30.95,69.3
189123,2018-06-29 10:23:22.093750,18.92,69.3
189124,2018-06-29 10:23:22.125000,7.89,69.3
189125,2018-06-29 10:23:22.156250,-2.16,69.3
189126,2018-06-29 10:23:22.187500,-12.57,69.3
189127,2018-06-29 10:23:22.218750,-23.83,69.3
189128,2018-06-29 10:23:22.250000,-34.58,69.3
189129,2018-06-29 10:23:22.281250,-43.28,69.3
189130,2018-06-29 10:23:22.312500,-50.06,69.3
189131,2018-06-29 10:23:22.343750,-57.17,69.3
189132,2018-06-29 10:23:22.375000,-67.94,69.3
189133,2018-06-29 10:23:22.406250,-82.4,69.3
189134,2018-06-29 10:23:22.437500,-91.87,69.3
189135,2018-06-29 10:23:22.468750,-83.7,69.3
189136,2018-06-29 10:23:22.500000,-55.13,69.3
189137,2018-06-29 10:23:22.531250,-17.51,68.98
189138,2018-06-29 10:23:22.562500,15.94,68.98
189139,2018-06-29 10:23:22.593750,40.54,68.98
189140,2018-06-29 10:23:22.625000,57.29,68.98
189141,2018-06-29 10:23:22.656250,66.62,68.98
189142,2018-06-29 10:23:22.687500,68.43,68.98
189143,2018-06-29 10:23:22.718750,65.22,68.98
189144,2018-06-29 10:23:22.750000,61.06,68.98
189145,2018-06-29 10:23:22.781250,58.05,68.98
189146,2018-06-29 10:23:22.812500,55.71,68.98
189147,2018-06-29 10:23:22.843750,52.91,68.98
189148,2018-06-29 10:23:22.875000,48.9,68.98
189149,2018-06-29 10:23:22.906250,43.45,68.98
189150,2018-06-29 10:23:22.937500,37.08,68.98
189151,2018-06-29 10:23:22.968750,30.34,68.98
189152,2018-06-29 10:23:23.000000,23.06,68.98
189153,2018-06-29 10:23:23.031250,14.98,68.98
189154,2018-06-29 10:23:23.062500,6.02,68.98
189155,2018-06-29 10:23:23.093750,-3.75,68.98
189156,2018-06-29 10:23:23.125000,-14.42,68.98
189157,2018-06-29 10:23:23.156250,-25.88,68.98
189158,2018-06-29 10:23:23.187500,-37.32,68.98
189159,2018-06-29 10:23:23.218750,-47.63,68.98
189160,2018-06-29 10:23:23.250000,-57.26,68.98
189161,2018-06-29 10:23:23.281250,-69.26,68.98
189162,2018-06-29 10:23:23.312500,-85.75,68.98
189163,2018-06-29 10:23:23.343750,-101.28,68.98
189164,2018-06-29 10:23:23.375000,-102.69,68.98
189165,2018-06-29 10:23:23.406250,-81.51,68.98
189166,2018-06-29 10:23:23.437500,-44.52,68.98
189167,2018-06-29 10:23:23.468750,-6.77,68.98
189168,2018-06-29 10:23:23.500000,23.16,68.98
189169,2018-06-29 10:23:23.531250,45.35,68.75
189170,2018-06-29 10:23:23.562500,60.76,68.75
189171,2018-06-29 10:23:23.593750,68.46,68.75
189172,2018-06-29 10:23:23.625000,69.52,68.75
189173,2018-06-29 10:23:23.656250,68.11,68.75
189174,2018-06-29 10:23:23.687500,67.72,68.75
189175,2018-06-29 10:23:23.718750,68.57,68.75
189176,2018-06-29 10:23:23.750000,69.51,68.75
189177,2018-06-29 10:23:23.781250,69.61,68.75
189178,2018-06-29 10:23:23.812500,67.31,68.75
189179,2018-06-29 10:23:23.843750,60.6,68.75
189180,2018-06-29 10:23:23.875000,49.28,68.75
189181,2018-06-29 10:23:23.906250,35.76,68.75
189182,2018-06-29 10:23:23.937500,22.88,68.75
189183,2018-06-29 10:23:23.968750,11.35,68.75
189184,2018-06-29 10:23:24.000000,-0.48,68.75
189185,2018-06-29 10:23:24.031250,-13.94,68.75
189186,2018-06-29 10:23:24.062500,-27.68,68.75
189187,2018-06-29 10:23:24.093750,-39.29,68.75
189188,2018-06-29 10:23:24.125000,-49.24,68.75
189189,2018-06-29 10:23:24.156250,-61.1,68.75
189190,2018-06-29 10:23:24.187500,-76.87,68.75
189191,2018-06-29 10:23:24.218750,-91.97,68.75
189192,2018-06-29 10:23:24.250000,-95.39,68.75
189193,2018-06-29 10:23:24.281250,-78.66,68.75
189194,2018-06-29 10:23:24.312500,-45.85,68.75
189195,2018-06-29 10:23:24.343750,-10.58,68.75
189196,2018-06-29 10:23:24.375000,16.68,68.75
189197,2018-06-29 10:23:24.406250,33.77,68.75
189198,2018-06-29 10:23:24.437500,42.1,68.75
189199,2018-06-29 10:23:24.468750,43.04,68.75
189200,2018-06-29 10:23:24.500000,39.18,68.75
189201,2018-06-29 10:23:24.531250,34.44,68.52
189202,2018-06-29 10:23:24.562500,31.39,68.52
189203,2018-06-29 10:23:24.593750,29.85,68.52
189204,2018-06-29 10:23:24.625000,28.61,68.52
189205,2018-06-29 10:23:24.656250,26.89,68.52
189206,2018-06-29 10:23:24.687500,24.03,68.52
189207,2018-06-29 10:23:24.718750,19.16,68.52
189208,2018-06-29 10:23:24.750000,11.92,68.52
189209,2018-06-29 10:23:24.781250,2.54,68.52
189210,2018-06-29 10:23:24.812500,-8.4,68.52
189211,2018-06-29 10:23:24.843750,-19.97,68.52
189212,2018-06-29 10:23:24.875000,-31.01,68.52
189213,2018-06-29 10:23:24.906250,-40.71,68.52
189214,2018-06-29 10:23:24.937500,-49.66,68.52
189215,2018-06-29 10:23:24.968750,-59.86,68.52
189216,2018-06-29 10:23:25.000000,-71.07,68.52
189217,2018-06-29 10:23:25.031250,-75.76,68.52
189218,2018-06-29 10:23:25.062500,-63.75,68.52
189219,2018-06-29 10:23:25.093750,-34.77,68.52
189220,2018-06-29 10:23:25.125000,-1.23,68.52
189221,2018-06-29 10:23:25.156250,24.5,68.52
189222,2018-06-29 10:23:25.187500,39.8,68.52
189223,2018-06-29 10:23:25.218750,47.55,68.52
189224,2018-06-29 10:23:25.250000,49.1,68.52
189225,2018-06-29 10:23:25.281250,45.1,68.52
189226,2018-06-29 10:23:25.312500,38.89,68.52
189227,2018-06-29 10:23:25.343750,34.36,68.52
189228,2018-06-29 10:23:25.375000,31.86,68.52
189229,2018-06-29 10:23:25.406250,29.3,68.52
189230,2018-06-29 10:23:25.437500,25.71,68.52
189231,2018-06-29 10:23:25.468750,21.08,68.52
189232,2018-06-29 10:23:25.500000,14.7,68.52
189233,2018-06-29 10:23:25.531250,5.53,68.38
189234,2018-06-29 10:23:25.562500,-6.39,68.38
189235,2018-06-29 10:23:25.593750,-19.53,68.38
189236,2018-06-29 10:23:25.625000,-31.93,68.38
189237,2018-06-29 10:23:25.656250,-42.93,68.38
189238,2018-06-29 10:23:25.687500,-53.51,68.38
189239,2018-06-29 10:23:25.718750,-65.35,68.38
189240,2018-06-29 10:23:25.750000,-79.44,68.38
189241,2018-06-29 10:23:25.781250,-92.8,68.38
189242,2018-06-29 10:23:25.812500,-95.69,68.38
189243,2018-06-29 10:23:25.843750,-78.77,68.38
189244,2018-06-29 10:23:25.875000,-44.94,68.38
189245,2018-06-29 10:23:25.906250,-8.03,68.38
189246,2018-06-29 10:23:25.937500,21.16,68.38
189247,2018-06-29 10:23:25.968750,41.26,68.38
189248,2018-06-29 10:23:26.000000,54.45,68.38
189249,2018-06-29 10:23:26.031250,61.23,68.38
189250,2018-06-29 10:23:26.062500,61.96,68.38
189251,2018-06-29 10:23:26.093750,58.94,68.38
189252,2018-06-29 10:23:26.125000,55.0,68.38
189253,2018-06-29 10:23:26.156250,51.21,68.38
189254,2018-06-29 10:23:26.187500,47.57,68.38
189255,2018-06-29 10:23:26.218750,44.21,68.38
189256,2018-06-29 10:23:26.250000,39.92,68.38
189257,2018-06-29 10:23:26.281250,32.64,68.38
189258,2018-06-29 10:23:26.312500,22.57,68.38
189259,2018-06-29 10:23:26.343750,11.59,68.38
189260,2018-06-29 10:23:26.375000,0.2,68.38
189261,2018-06-29 10:23:26.406250,-11.92,68.38
189262,2018-06-29 10:23:26.437500,-23.88,68.38
189263,2018-06-29 10:23:26.468750,-34.51,68.38
189264,2018-06-29 10:23:26.500000,-44.29,68.38
189265,2018-06-29 10:23:26.531250,-55.62,68.28
189266,2018-06-29 10:23:26.562500,-70.18,68.28
189267,2018-06-29 10:23:26.593750,-83.43,68.28
189268,2018-06-29 10:23:26.625000,-83.98,68.28
189269,2018-06-29 10:23:26.656250,-64.35,68.28
189270,2018-06-29 10:23:26.687500,-30.67,68.28
189271,2018-06-29 10:23:26.718750,3.31,68.28
189272,2018-06-29 10:23:26.750000,29.36,68.28
189273,2018-06-29 10:23:26.781250,47.43,68.28
189274,2018-06-29 10:23:26.812500,59.15,68.28
189275,2018-06-29 10:23:26.843750,64.43,68.28
189276,2018-06-29 10:23:26.875000,63.85,68.28
189277,2018-06-29 10:23:26.906250,60.04,68.28
189278,2018-06-29 10:23:26.937500,55.71,68.28
189279,2018-06-29 10:23:26.968750,52.16,68.28
189280,2018-06-29 10:23:27.000000,50.04,68.28
189281,2018-06-29 10:23:27.031250,49.22,68.28
189282,2018-06-29 10:23:27.062500,47.37,68.28
189283,2018-06-29 10:23:27.093750,41.59,68.28
189284,2018-06-29 10:23:27.125000,32.48,68.28
189285,2018-06-29 10:23:27.156250,23.5,68.28
189286,2018-06-29 10:23:27.187500,15.74,68.28
189287,2018-06-29 10:23:27.218750,7.19,68.28
189288,2018-06-29 10:23:27.250000,-2.68,68.28
189289,2018-06-29 10:23:27.281250,-12.01,68.28
189290,2018-06-29 10:23:27.312500,-20.4,68.28
189291,2018-06-29 10:23:27.343750,-29.57,68.28
189292,2018-06-29 10:23:27.375000,-39.96,68.28
189293,2018-06-29 10:23:27.406250,-49.98,68.28
189294,2018-06-29 10:23:27.437500,-58.81,68.28
189295,2018-06-29 10:23:27.468750,-67.8,68.28
189296,2018-06-29 10:23:27.500000,-79.02,68.28
189297,2018-06-29 10:23:27.531250,-92.06,68.18
189298,2018-06-29 10:23:27.562500,-100.2,68.18
189299,2018-06-29 10:23:27.593750,-92.69,68.18
189300,2018-06-29 10:23:27.625000,-65.94,68.18
189301,2018-06-29 10:23:27.656250,-29.79,68.18
189302,2018-06-29 10:23:27.687500,2.48,68.18
189303,2018-06-29 10:23:27.718750,25.97,68.18
189304,2018-06-29 10:23:27.750000,42.18,68.18
189305,2018-06-29 10:23:27.781250,52.24,68.18
189306,2018-06-29 10:23:27.812500,56.42,68.18
189307,2018-06-29 10:23:27.843750,56.15,68.18
189308,2018-06-29 10:23:27.875000,53.64,68.18
189309,2018-06-29 10:23:27.906250,50.71,68.18
189310,2018-06-29 10:23:27.937500,48.56,68.18
189311,2018-06-29 10:23:27.968750,47.32,68.18
189312,2018-06-29 10:23:28.000000,45.8,68.18
189313,2018-06-29 10:23:28.031250,42.27,68.18
189314,2018-06-29 10:23:28.062500,36.2,68.18
189315,2018-06-29 10:23:28.093750,28.66,68.18
189316,2018-06-29 10:23:28.125000,20.72,68.18
189317,2018-06-29 10:23:28.156250,12.34,68.18
189318,2018-06-29 10:23:28.187500,3.39,68.18
189319,2018-06-29 10:23:28.218750,-5.17,68.18
189320,2018-06-29 10:23:28.250000,-12.65,68.18
189321,2018-06-29 10:23:28.281250,-20.47,68.18
189322,2018-06-29 10:23:28.312500,-30.66,68.18
189323,2018-06-29 10:23:28.343750,-42.38,68.18
189324,2018-06-29 10:23:28.375000,-52.98,68.18
189325,2018-06-29 10:23:28.406250,-62.24,68.18
189326,2018-06-29 10:23:28.437500,-72.74,68.18
189327,2018-06-29 10:23:28.468750,-85.21,68.18
189328,2018-06-29 10:23:28.500000,-93.98,68.18
189329,2018-06-29 10:23:28.531250,-89.09,68.08
189330,2018-06-29 10:23:28.562500,-65.87,68.08
189331,2018-06-29 10:23:28.593750,-31.58,68.08
189332,2018-06-29 10:23:28.625000,1.1,68.08
189333,2018-06-29 10:23:28.656250,25.26,68.08
189334,2018-06-29 10:23:28.687500,41.01,68.08
189335,2018-06-29 10:23:28.718750,50.08,68.08
189336,2018-06-29 10:23:28.750000,53.74,68.08
189337,2018-06-29 10:23:28.781250,53.94,68.08
189338,2018-06-29 10:23:28.812500,52.91,68.08
189339,2018-06-29 10:23:28.843750,51.72,68.08
189340,2018-06-29 10:23:28.875000,50.35,68.08
189341,2018-06-29 10:23:28.906250,49.04,68.08
189342,2018-06-29 10:23:28.937500,47.74,68.08
189343,2018-06-29 10:23:28.968750,44.86,68.08
189344,2018-06-29 10:23:29.000000,38.92,68.08
189345,2018-06-29 10:23:29.031250,31.06,68.08
189346,2018-06-29 10:23:29.062500,23.33,68.08
189347,2018-06-29 10:23:29.093750,15.6,68.08
189348,2018-06-29 10:23:29.125000,6.53,68.08
189349,2018-06-29 10:23:29.156250,-3.11,68.08
189350,2018-06-29 10:23:29.187500,-11.18,68.08
189351,2018-06-29 10:23:29.218750,-17.72,68.08
189352,2018-06-29 10:23:29.250000,-25.0,68.08
189353,2018-06-29 10:23:29.281250,-34.07,68.08
189354,2018-06-29 10:23:29.312500,-43.55,68.08
189355,2018-06-29 10:23:29.343750,-51.84,68.08
189356,2018-06-29 10:23:29.375000,-59.72,68.08
189357,2018-06-29 10:23:29.406250,-70.32,68.08
189358,2018-06-29 10:23:29.437500,-84.32,68.08
189359,2018-06-29 10:23:29.468750,-94.16,68.08
189360,2018-06-29 10:23:29.500000,-87.84,68.08
189361,2018-06-29 10:23:29.531250,-62.16,68.0
189362,2018-06-29 10:23:29.562500,-27.57,68.0
189363,2018-06-29 10:23:29.593750,2.92,68.0
189364,2018-06-29 10:23:29.625000,24.72,68.0
189365,2018-06-29 10:23:29.656250,39.4,68.0
189366,2018-06-29 10:23:29.687500,48.1,68.0
189367,2018-06-29 10:23:29.718750,51.07,68.0
189368,2018-06-29 10:23:29.750000,50.2,68.0
189369,2018-06-29 10:23:29.781250,48.3,68.0
189370,2018-06-29 10:23:29.812500,46.97,68.0
189371,2018-06-29 10:23:29.843750,46.17,68.0
189372,2018-06-29 10:23:29.875000,45.22,68.0
189373,2018-06-29 10:23:29.906250,43.37,68.0
189374,2018-06-29 10:23:29.937500,39.85,68.0
189375,2018-06-29 10:23:29.968750,33.78,68.0
189376,2018-06-29 10:23:30.000000,24.88,68.0
189377,2018-06-29 10:23:30.031250,14.54,68.0
189378,2018-06-29 10:23:30.062500,5.04,68.0
189379,2018-06-29 10:23:30.093750,-2.87,68.0
189380,2018-06-29 10:23:30.125000,-10.54,68.0
189381,2018-06-29 10:23:30.156250,-19.38,68.0
189382,2018-06-29 10:23:30.187500,-29.15,68.0
189383,2018-06-29 10:23:30.218750,-38.45,68.0
189384,2018-06-29 10:23:30.250000,-46.35,68.0
189385,2018-06-29 10:23:30.281250,-54.15,68.0
189386,2018-06-29 10:23:30.312500,-65.1,68.0
189387,2018-06-29 10:23:30.343750,-79.13,68.0
189388,2018-06-29 10:23:30.375000,-87.65,68.0
189389,2018-06-29 10:23:30.406250,-79.53,68.0
189390,2018-06-29 10:23:30.437500,-53.97,68.0
189391,2018-06-29 10:23:30.468750,-21.83,68.0
189392,2018-06-29 10:23:30.500000,6.32,68.0
189393,2018-06-29 10:23:30.531250,27.32,67.92
189394,2018-06-29 10:23:30.562500,41.68,67.92
189395,2018-06-29 10:23:30.593750,49.43,67.92
189396,2018-06-29 10:23:30.625000,50.71,67.92
189397,2018-06-29 10:23:30.656250,47.51,67.92
189398,2018-06-29 10:23:30.687500,43.36,67.92
189399,2018-06-29 10:23:30.718750,40.98,67.92
189400,2018-06-29 10:23:30.750000,40.63,67.92
189401,2018-06-29 10:23:30.781250,40.58,67.92
189402,2018-06-29 10:23:30.812500,38.16,67.92
189403,2018-06-29 10:23:30.843750,31.33,67.92
189404,2018-06-29 10:23:30.875000,20.94,67.92
189405,2018-06-29 10:23:30.906250,10.54,67.92
189406,2018-06-29 10:23:30.937500,2.12,67.92
189407,2018-06-29 10:23:30.968750,-6.27,67.92
189408,2018-06-29 10:23:31.000000,-16.74,67.92
189409,2018-06-29 10:23:31.031250,-28.14,67.92
189410,2018-06-29 10:23:31.062500,-38.35,67.92
189411,2018-06-29 10:23:31.093750,-47.86,67.92
189412,2018-06-29 10:23:31.125000,-59.19,67.92
189413,2018-06-29 10:23:31.156250,-72.35,67.92
189414,2018-06-29 10:23:31.187500,-80.63,67.92
189415,2018-06-29 10:23:31.218750,-73.86,67.92
189416,2018-06-29 10:23:31.250000,-49.49,67.92
189417,2018-06-29 10:23:31.281250,-16.81,67.92
189418,2018-06-29 10:23:31.312500,12.23,67.92
189419,2018-06-29 10:23:31.343750,32.48,67.92
189420,2018-06-29 10:23:31.375000,44.85,67.92
189421,2018-06-29 10:23:31.406250,51.16,67.92
189422,2018-06-29 10:23:31.437500,52.35,67.92
189423,2018-06-29 10:23:31.468750,49.79,67.92
189424,2018-06-29 10:23:31.500000,46.03,67.92
189425,2018-06-29 10:23:31.531250,43.28,67.88
189426,2018-06-29 10:23:31.562500,42.01,67.88
189427,2018-06-29 10:23:31.593750,41.33,67.88
189428,2018-06-29 10:23:31.625000,39.51,67.88
189429,2018-06-29 10:23:31.656250,33.98,67.88
189430,2018-06-29 10:23:31.687500,23.59,67.88
189431,2018-06-29 10:23:31.718750,11.16,67.88
189432,2018-06-29 10:23:31.750000,0.81,67.88
189433,2018-06-29 10:23:31.781250,-7.33,67.88
189434,2018-06-29 10:23:31.812500,-16.65,67.88
189435,2018-06-29 10:23:31.843750,-28.11,67.88
189436,2018-06-29 10:23:31.875000,-38.81,67.88
189437,2018-06-29 10:23:31.906250,-47.32,67.88
189438,2018-06-29 10:23:31.937500,-56.68,67.88
189439,2018-06-29 10:23:31.968750,-69.85,67.88
189440,2018-06-29 10:23:32.000000,-83.22,67.88
189441,2018-06-29 10:23:32.031250,-86.01,67.88
189442,2018-06-29 10:23:32.062500,-69.54,67.88
189443,2018-06-29 10:23:32.093750,-37.43,67.88
189444,2018-06-29 10:23:32.125000,-2.92,67.88
189445,2018-06-29 10:23:32.156250,23.87,67.88
189446,2018-06-29 10:23:32.187500,41.52,67.88
189447,2018-06-29 10:23:32.218750,52.05,67.88
189448,2018-06-29 10:23:32.250000,56.39,67.88
189449,2018-06-29 10:23:32.281250,55.79,67.88
189450,2018-06-29 10:23:32.312500,53.31,67.88
189451,2018-06-29 10:23:32.343750,51.97,67.88
189452,2018-06-29 10:23:32.375000,52.17,67.88
189453,2018-06-29 10:23:32.406250,52.39,67.88
189454,2018-06-29 10:23:32.437500,51.26,67.88
189455,2018-06-29 10:23:32.468750,47.82,67.88
189456,2018-06-29 10:23:32.500000,41.7,67.88
189457,2018-06-29 10:23:32.531250,33.85,67.88
189458,2018-06-29 10:23:32.562500,25.55,67.88
189459,2018-06-29 10:23:32.593750,16.87,67.88
189460,2018-06-29 10:23:32.625000,7.47,67.88
189461,2018-06-29 10:23:32.656250,-2.09,67.88
189462,2018-06-29 10:23:32.687500,-11.44,67.88
189463,2018-06-29 10:23:32.718750,-21.14,67.88
189464,2018-06-29 10:23:32.750000,-31.38,67.88
189465,2018-06-29 10:23:32.781250,-41.22,67.88
189466,2018-06-29 10:23:32.812500,-49.88,67.88
189467,2018-06-29 10:23:32.843750,-58.43,67.88
189468,2018-06-29 10:23:32.875000,-69.45,67.88
189469,2018-06-29 10:23:32.906250,-83.9,67.88
189470,2018-06-29 10:23:32.937500,-96.15,67.88
189471,2018-06-29 10:23:32.968750,-94.71,67.88
189472,2018-06-29 10:23:33.000000,-72.7,67.88
189473,2018-06-29 10:23:33.031250,-36.78,67.88
189474,2018-06-29 10:23:33.062500,-0.86,67.88
189475,2018-06-29 10:23:33.093750,26.44,67.88
189476,2018-06-29 10:23:33.125000,44.76,67.88
189477,2018-06-29 10:23:33.156250,55.68,67.88
189478,2018-06-29 10:23:33.187500,59.54,67.88
189479,2018-06-29 10:23:33.218750,57.97,67.88
189480,2018-06-29 10:23:33.250000,54.98,67.88
189481,2018-06-29 10:23:33.281250,53.53,67.88
189482,2018-06-29 10:23:33.312500,53.49,67.88
189483,2018-06-29 10:23:33.343750,53.95,67.88
189484,2018-06-29 10:23:33.375000,54.5,67.88
189485,2018-06-29 10:23:33.406250,53.27,67.88
189486,2018-06-29 10:23:33.437500,47.65,67.88
189487,2018-06-29 10:23:33.468750,38.15,67.88
189488,2018-06-29 10:23:33.500000,28.79,67.88
189489,2018-06-29 10:23:33.531250,22.14,67.87
189490,2018-06-29 10:23:33.562500,16.34,67.87
189491,2018-06-29 10:23:33.593750,8.61,67.87
189492,2018-06-29 10:23:33.625000,-0.58,67.87
189493,2018-06-29 10:23:33.656250,-8.81,67.87
189494,2018-06-29 10:23:33.687500,-15.79,67.87
189495,2018-06-29 10:23:33.718750,-23.74,67.87
189496,2018-06-29 10:23:33.750000,-33.6,67.87
189497,2018-06-29 10:23:33.781250,-43.44,67.87
189498,2018-06-29 10:23:33.812500,-51.5,67.87
189499,2018-06-29 10:23:33.843750,-58.72,67.87
189500,2018-06-29 10:23:33.875000,-68.1,67.87
189501,2018-06-29 10:23:33.906250,-81.79,67.87
189502,2018-06-29 10:23:33.937500,-95.97,67.87
189503,2018-06-29 10:23:33.968750,-98.85,67.87
189504,2018-06-29 10:23:34.000000,-80.78,67.87
189505,2018-06-29 10:23:34.031250,-46.55,67.87
189506,2018-06-29 10:23:34.062500,-10.63,67.87
189507,2018-06-29 10:23:34.093750,17.8,67.87
189508,2018-06-29 10:23:34.125000,38.05,67.87
189509,2018-06-29 10:23:34.156250,50.76,67.87
189510,2018-06-29 10:23:34.187500,56.08,67.87
189511,2018-06-29 10:23:34.218750,56.26,67.87
189512,2018-06-29 10:23:34.250000,54.63,67.87
189513,2018-06-29 10:23:34.281250,53.25,67.87
189514,2018-06-29 10:23:34.312500,53.01,67.87
189515,2018-06-29 10:23:34.343750,54.0,67.87
189516,2018-06-29 10:23:34.375000,55.02,67.87
189517,2018-06-29 10:23:34.406250,54.14,67.87
189518,2018-06-29 10:23:34.437500,50.47,67.87
189519,2018-06-29 10:23:34.468750,44.6,67.87
189520,2018-06-29 10:23:34.500000,37.69,67.87
189521,2018-06-29 10:23:34.531250,30.57,67.82
189522,2018-06-29 10:23:34.562500,23.25,67.82
189523,2018-06-29 10:23:34.593750,15.49,67.82
189524,2018-06-29 10:23:34.625000,7.82,67.82
189525,2018-06-29 10:23:34.656250,0.8,67.82
189526,2018-06-29 10:23:34.687500,-6.15,67.82
189527,2018-06-29 10:23:34.718750,-13.51,67.82
189528,2018-06-29 10:23:34.750000,-20.83,67.82
189529,2018-06-29 10:23:34.781250,-28.47,67.82
189530,2018-06-29 10:23:34.812500,-37.44,67.82
189531,2018-06-29 10:23:34.843750,-47.24,67.82
189532,2018-06-29 10:23:34.875000,-56.05,67.82
189533,2018-06-29 10:23:34.906250,-63.74,67.82
189534,2018-06-29 10:23:34.937500,-72.72,67.82
189535,2018-06-29 10:23:34.968750,-84.97,67.82
189536,2018-06-29 10:23:35.000000,-97.18,67.82
189537,2018-06-29 10:23:35.031250,-99.24,67.82
189538,2018-06-29 10:23:35.062500,-82.07,67.82
189539,2018-06-29 10:23:35.093750,-48.39,67.82
189540,2018-06-29 10:23:35.125000,-11.48,67.82
189541,2018-06-29 10:23:35.156250,17.45,67.82
189542,2018-06-29 10:23:35.187500,36.46,67.82
189543,2018-06-29 10:23:35.218750,48.45,67.82
189544,2018-06-29 10:23:35.250000,54.8,67.82
189545,2018-06-29 10:23:35.281250,55.78,67.82
189546,2018-06-29 10:23:35.312500,53.68,67.82
189547,2018-06-29 10:23:35.343750,51.91,67.82
189548,2018-06-29 10:23:35.375000,51.66,67.82
189549,2018-06-29 10:23:35.406250,52.05,67.82
189550,2018-06-29 10:23:35.437500,52.36,67.82
189551,2018-06-29 10:23:35.468750,52.12,67.82
189552,2018-06-29 10:23:35.500000,49.96,67.82
189553,2018-06-29 10:23:35.531250,44.56,67.75
189554,2018-06-29 10:23:35.562500,36.52,67.75
189555,2018-06-29 10:23:35.593750,27.98,67.75
189556,2018-06-29 10:23:35.625000,20.49,67.75
189557,2018-06-29 10:23:35.656250,13.84,67.75
189558,2018-06-29 10:23:35.687500,6.91,67.75
189559,2018-06-29 10:23:35.718750,-0.5,67.75
189560,2018-06-29 10:23:35.750000,-7.48,67.75
189561,2018-06-29 10:23:35.781250,-13.72,67.75
189562,2018-06-29 10:23:35.812500,-20.53,67.75
189563,2018-06-29 10:23:35.843750,-29.29,67.75
189564,2018-06-29 10:23:35.875000,-39.51,67.75
189565,2018-06-29 10:23:35.906250,-49.24,67.75
189566,2018-06-29 10:23:35.937500,-57.47,67.75
189567,2018-06-29 10:23:35.968750,-65.53,67.75
189568,2018-06-29 10:23:36.000000,-76.09,67.75
189569,2018-06-29 10:23:36.031250,-89.18,67.75
189570,2018-06-29 10:23:36.062500,-97.76,67.75
189571,2018-06-29 10:23:36.093750,-90.53,67.75
189572,2018-06-29 10:23:36.125000,-63.84,67.75
189573,2018-06-29 10:23:36.156250,-27.7,67.75
189574,2018-06-29 10:23:36.187500,4.64,67.75
189575,2018-06-29 10:23:36.218750,28.06,67.75
189576,2018-06-29 10:23:36.250000,43.51,67.75
189577,2018-06-29 10:23:36.281250,51.77,67.75
189578,2018-06-29 10:23:36.312500,53.65,67.75
189579,2018-06-29 10:23:36.343750,52.02,67.75
189580,2018-06-29 10:23:36.375000,50.1,67.75
189581,2018-06-29 10:23:36.406250,49.33,67.75
189582,2018-06-29 10:23:36.437500,49.7,67.75
189583,2018-06-29 10:23:36.468750,50.87,67.75
189584,2018-06-29 10:23:36.500000,51.83,67.75
189585,2018-06-29 10:23:36.531250,50.77,67.65
189586,2018-06-29 10:23:36.562500,46.61,67.65
189587,2018-06-29 10:23:36.593750,39.78,67.65
189588,2018-06-29 10:23:36.625000,31.74,67.65
189589,2018-06-29 10:23:36.656250,24.14,67.65
189590,2018-06-29 10:23:36.687500,17.41,67.65
189591,2018-06-29 10:23:36.718750,10.32,67.65
189592,2018-06-29 10:23:36.750000,2.12,67.65
189593,2018-06-29 10:23:36.781250,-6.06,67.65
189594,2018-06-29 10:23:36.812500,-12.92,67.65
189595,2018-06-29 10:23:36.843750,-19.04,67.65
189596,2018-06-29 10:23:36.875000,-26.17,67.65
189597,2018-06-29 10:23:36.906250,-34.9,67.65
189598,2018-06-29 10:23:36.937500,-43.93,67.65
189599,2018-06-29 10:23:36.968750,-52.09,67.65
189600,2018-06-29 10:23:37.000000,-60.07,67.65
189601,2018-06-29 10:23:37.031250,-69.89,67.65
189602,2018-06-29 10:23:37.062500,-82.83,67.65
189603,2018-06-29 10:23:37.093750,-95.37,67.65
189604,2018-06-29 10:23:37.125000,-96.98,67.65
189605,2018-06-29 10:23:37.156250,-78.88,67.65
189606,2018-06-29 10:23:37.187500,-45.21,67.65
189607,2018-06-29 10:23:37.218750,-9.3,67.65
189608,2018-06-29 10:23:37.250000,19.25,67.65
189609,2018-06-29 10:23:37.281250,38.24,67.65
189610,2018-06-29 10:23:37.312500,48.31,67.65
189611,2018-06-29 10:23:37.343750,51.24,67.65
189612,2018-06-29 10:23:37.375000,50.23,67.65
189613,2018-06-29 10:23:37.406250,48.67,67.65
189614,2018-06-29 10:23:37.437500,48.57,67.65
189615,2018-06-29 10:23:37.468750,49.86,67.65
189616,2018-06-29 10:23:37.500000,51.28,67.65
189617,2018-06-29 10:23:37.531250,51.83,67.53
189618,2018-06-29 10:23:37.562500,50.39,67.53
189619,2018-06-29 10:23:37.593750,46.07,67.53
189620,2018-06-29 10:23:37.625000,39.51,67.53
189621,2018-06-29 10:23:37.656250,32.26,67.53
189622,2018-06-29 10:23:37.687500,25.07,67.53
189623,2018-06-29 10:23:37.718750,17.88,67.53
189624,2018-06-29 10:23:37.750000,10.36,67.53
189625,2018-06-29 10:23:37.781250,2.42,67.53
189626,2018-06-29 10:23:37.812500,-5.41,67.53
189627,2018-06-29 10:23:37.843750,-12.8,67.53
189628,2018-06-29 10:23:37.875000,-20.88,67.53
189629,2018-06-29 10:23:37.906250,-30.69,67.53
189630,2018-06-29 10:23:37.937500,-41.15,67.53
189631,2018-06-29 10:23:37.968750,-50.09,67.53
189632,2018-06-29 10:23:38.000000,-57.38,67.53
189633,2018-06-29 10:23:38.031250,-66.08,67.53
189634,2018-06-29 10:23:38.062500,-79.18,67.53
189635,2018-06-29 10:23:38.093750,-93.13,67.53
189636,2018-06-29 10:23:38.125000,-95.99,67.53
189637,2018-06-29 10:23:38.156250,-77.98,67.53
189638,2018-06-29 10:23:38.187500,-43.92,67.53
189639,2018-06-29 10:23:38.218750,-8.75,67.53
189640,2018-06-29 10:23:38.250000,18.03,67.53
189641,2018-06-29 10:23:38.281250,36.67,67.53
189642,2018-06-29 10:23:38.312500,48.91,67.53
189643,2018-06-29 10:23:38.343750,54.5,67.53
189644,2018-06-29 10:23:38.375000,54.67,67.53
189645,2018-06-29 10:23:38.406250,52.9,67.53
189646,2018-06-29 10:23:38.437500,51.82,67.53
189647,2018-06-29 10:23:38.468750,52.2,67.53
189648,2018-06-29 10:23:38.500000,53.71,67.53
189649,2018-06-29 10:23:38.531250,55.17,67.4
189650,2018-06-29 10:23:38.562500,54.72,67.4
189651,2018-06-29 10:23:38.593750,51.03,67.4
189652,2018-06-29 10:23:38.625000,44.38,67.4
189653,2018-06-29 10:23:38.656250,36.15,67.4
189654,2018-06-29 10:23:38.687500,27.58,67.4
189655,2018-06-29 10:23:38.718750,19.71,67.4
189656,2018-06-29 10:23:38.750000,13.41,67.4
189657,2018-06-29 10:23:38.781250,7.99,67.4
189658,2018-06-29 10:23:38.812500,1.6,67.4
189659,2018-06-29 10:23:38.843750,-5.94,67.4
189660,2018-06-29 10:23:38.875000,-13.02,67.4
189661,2018-06-29 10:23:38.906250,-19.55,67.4
189662,2018-06-29 10:23:38.937500,-27.33,67.4
189663,2018-06-29 10:23:38.968750,-36.97,67.4
189664,2018-06-29 10:23:39.000000,-47.07,67.4
189665,2018-06-29 10:23:39.031250,-56.42,67.4
189666,2018-06-29 10:23:39.062500,-65.4,67.4
189667,2018-06-29 10:23:39.093750,-75.47,67.4
189668,2018-06-29 10:23:39.125000,-87.58,67.4
189669,2018-06-29 10:23:39.156250,-98.98,67.4
189670,2018-06-29 10:23:39.187500,-100.66,67.4
189671,2018-06-29 10:23:39.218750,-83.11,67.4
189672,2018-06-29 10:23:39.250000,-48.33,67.4
189673,2018-06-29 10:23:39.281250,-10.76,67.4
189674,2018-06-29 10:23:39.312500,17.21,67.4
189675,2018-06-29 10:23:39.343750,34.88,67.4
189676,2018-06-29 10:23:39.375000,46.58,67.4
189677,2018-06-29 10:23:39.406250,53.79,67.4
189678,2018-06-29 10:23:39.437500,56.62,67.4
189679,2018-06-29 10:23:39.468750,56.68,67.4
189680,2018-06-29 10:23:39.500000,55.8,67.4
189681,2018-06-29 10:23:39.531250,55.24,67.22
189682,2018-06-29 10:23:39.562500,56.02,67.22
189683,2018-06-29 10:23:39.593750,57.74,67.22
189684,2018-06-29 10:23:39.625000,58.01,67.22
189685,2018-06-29 10:23:39.656250,54.9,67.22
189686,2018-06-29 10:23:39.687500,49.1,67.22
189687,2018-06-29 10:23:39.718750,42.48,67.22
189688,2018-06-29 10:23:39.750000,35.8,67.22
189689,2018-06-29 10:23:39.781250,28.81,67.22
189690,2018-06-29 10:23:39.812500,21.53,67.22
189691,2018-06-29 10:23:39.843750,14.6,67.22
189692,2018-06-29 10:23:39.875000,8.52,67.22
189693,2018-06-29 10:23:39.906250,2.73,67.22
189694,2018-06-29 10:23:39.937500,-3.95,67.22
189695,2018-06-29 10:23:39.968750,-11.59,67.22
189696,2018-06-29 10:23:40.000000,-19.13,67.22
189697,2018-06-29 10:23:40.031250,-26.81,67.22
189698,2018-06-29 10:23:40.062500,-36.09,67.22
189699,2018-06-29 10:23:40.093750,-46.8,67.22
189700,2018-06-29 10:23:40.125000,-56.68,67.22
189701,2018-06-29 10:23:40.156250,-64.72,67.22
189702,2018-06-29 10:23:40.187500,-72.84,67.22
189703,2018-06-29 10:23:40.218750,-83.99,67.22
189704,2018-06-29 10:23:40.250000,-97.12,67.22
189705,2018-06-29 10:23:40.281250,-103.1,67.22
189706,2018-06-29 10:23:40.312500,-90.71,67.22
189707,2018-06-29 10:23:40.343750,-59.88,67.22
189708,2018-06-29 10:23:40.375000,-23.14,67.22
189709,2018-06-29 10:23:40.406250,7.66,67.22
189710,2018-06-29 10:23:40.437500,29.14,67.22
189711,2018-06-29 10:23:40.468750,42.54,67.22
189712,2018-06-29 10:23:40.500000,49.74,67.22
189713,2018-06-29 10:23:40.531250,52.49,67.02
189714,2018-06-29 10:23:40.562500,52.26,67.02
189715,2018-06-29 10:23:40.593750,50.86,67.02
189716,2018-06-29 10:23:40.625000,50.33,67.02
189717,2018-06-29 10:23:40.656250,51.29,67.02
189718,2018-06-29 10:23:40.687500,52.7,67.02
189719,2018-06-29 10:23:40.718750,53.05,67.02
189720,2018-06-29 10:23:40.750000,50.79,67.02
189721,2018-06-29 10:23:40.781250,45.35,67.02
189722,2018-06-29 10:23:40.812500,38.16,67.02
189723,2018-06-29 10:23:40.843750,31.08,67.02
189724,2018-06-29 10:23:40.875000,24.06,67.02
189725,2018-06-29 10:23:40.906250,15.39,67.02
189726,2018-06-29 10:23:40.937500,5.03,67.02
189727,2018-06-29 10:23:40.968750,-4.26,67.02
189728,2018-06-29 10:23:41.000000,-10.94,67.02
189729,2018-06-29 10:23:41.031250,-17.62,67.02
189730,2018-06-29 10:23:41.062500,-27.16,67.02
189731,2018-06-29 10:23:41.093750,-38.1,67.02
189732,2018-06-29 10:23:41.125000,-47.27,67.02
189733,2018-06-29 10:23:41.156250,-55.48,67.02
189734,2018-06-29 10:23:41.187500,-66.55,67.02
189735,2018-06-29 10:23:41.218750,-80.74,67.02
189736,2018-06-29 10:23:41.250000,-90.24,67.02
189737,2018-06-29 10:23:41.281250,-83.74,67.02
189738,2018-06-29 10:23:41.312500,-58.14,67.02
189739,2018-06-29 10:23:41.343750,-23.28,67.02
189740,2018-06-29 10:23:41.375000,7.72,67.02
189741,2018-06-29 10:23:41.406250,29.43,67.02
189742,2018-06-29 10:23:41.437500,43.24,67.02
189743,2018-06-29 10:23:41.468750,50.79,67.02
189744,2018-06-29 10:23:41.500000,52.8,67.02
189745,2018-06-29 10:23:41.531250,51.32,66.82
189746,2018-06-29 10:23:41.562500,49.54,66.82
189747,2018-06-29 10:23:41.593750,49.2,66.82
189748,2018-06-29 10:23:41.625000,49.86,66.82
189749,2018-06-29 10:23:41.656250,50.39,66.82
189750,2018-06-29 10:23:41.687500,49.62,66.82
189751,2018-06-29 10:23:41.718750,45.92,66.82
189752,2018-06-29 10:23:41.750000,38.58,66.82
189753,2018-06-29 10:23:41.781250,29.33,66.82
189754,2018-06-29 10:23:41.812500,20.63,66.82
189755,2018-06-29 10:23:41.843750,12.33,66.82
189756,2018-06-29 10:23:41.875000,2.8,66.82
189757,2018-06-29 10:23:41.906250,-7.41,66.82
189758,2018-06-29 10:23:41.937500,-16.42,66.82
189759,2018-06-29 10:23:41.968750,-24.82,66.82
189760,2018-06-29 10:23:42.000000,-34.8,66.82
189761,2018-06-29 10:23:42.031250,-46.15,66.82
189762,2018-06-29 10:23:42.062500,-56.03,66.82
189763,2018-06-29 10:23:42.093750,-62.25,66.82
189764,2018-06-29 10:23:42.125000,-65.77,66.82
189765,2018-06-29 10:23:42.156250,-70.66,66.82
189766,2018-06-29 10:23:42.187500,-79.81,66.82
189767,2018-06-29 10:23:42.218750,-87.72,66.82
189768,2018-06-29 10:23:42.250000,-82.01,66.82
189769,2018-06-29 10:23:42.281250,-57.07,66.82
189770,2018-06-29 10:23:42.312500,-21.88,66.82
189771,2018-06-29 10:23:42.343750,10.33,66.82
189772,2018-06-29 10:23:42.375000,34.06,66.82
189773,2018-06-29 10:23:42.406250,50.05,66.82
189774,2018-06-29 10:23:42.437500,59.09,66.82
189775,2018-06-29 10:23:42.468750,61.75,66.82
189776,2018-06-29 10:23:42.500000,60.15,66.82
189777,2018-06-29 10:23:42.531250,57.52,66.58
189778,2018-06-29 10:23:42.562500,56.06,66.58
189779,2018-06-29 10:23:42.593750,55.65,66.58
189780,2018-06-29 10:23:42.625000,55.3,66.58
189781,2018-06-29 10:23:42.656250,54.32,66.58
189782,2018-06-29 10:23:42.687500,50.94,66.58
189783,2018-06-29 10:23:42.718750,43.4,66.58
189784,2018-06-29 10:23:42.750000,33.48,66.58
189785,2018-06-29 10:23:42.781250,24.69,66.58
189786,2018-06-29 10:23:42.812500,17.3,66.58
189787,2018-06-29 10:23:42.843750,9.13,66.58
189788,2018-06-29 10:23:42.875000,0.31,66.58
189789,2018-06-29 10:23:42.906250,-6.26,66.58
189790,2018-06-29 10:23:42.937500,-9.03,66.58
189791,2018-06-29 10:23:42.968750,-10.4,66.58
189792,2018-06-29 10:23:43.000000,-14.56,66.58
189793,2018-06-29 10:23:43.031250,-23.21,66.58
189794,2018-06-29 10:23:43.062500,-34.89,66.58
189795,2018-06-29 10:23:43.093750,-47.44,66.58
189796,2018-06-29 10:23:43.125000,-60.14,66.58
189797,2018-06-29 10:23:43.156250,-74.13,66.58
189798,2018-06-29 10:23:43.187500,-89.49,66.58
189799,2018-06-29 10:23:43.218750,-99.45,66.58
189800,2018-06-29 10:23:43.250000,-92.12,66.58
189801,2018-06-29 10:23:43.281250,-63.91,66.58
189802,2018-06-29 10:23:43.312500,-26.01,66.58
189803,2018-06-29 10:23:43.343750,7.18,66.58
189804,2018-06-29 10:23:43.375000,30.15,66.58
189805,2018-06-29 10:23:43.406250,44.49,66.58
189806,2018-06-29 10:23:43.437500,52.14,66.58
189807,2018-06-29 10:23:43.468750,54.21,66.58
189808,2018-06-29 10:23:43.500000,53.04,66.58
189809,2018-06-29 10:23:43.531250,52.01,66.33
189810,2018-06-29 10:23:43.562500,52.44,66.33
189811,2018-06-29 10:23:43.593750,52.92,66.33
189812,2018-06-29 10:23:43.625000,52.7,66.33
189813,2018-06-29 10:23:43.656250,52.14,66.33
189814,2018-06-29 10:23:43.687500,49.56,66.33
189815,2018-06-29 10:23:43.718750,42.82,66.33
189816,2018-06-29 10:23:43.750000,33.77,66.33
189817,2018-06-29 10:23:43.781250,25.92,66.33
189818,2018-06-29 10:23:43.812500,19.06,66.33
189819,2018-06-29 10:23:43.843750,10.71,66.33
189820,2018-06-29 10:23:43.875000,1.36,66.33
189821,2018-06-29 10:23:43.906250,-6.01,66.33
189822,2018-06-29 10:23:43.937500,-10.81,66.33
189823,2018-06-29 10:23:43.968750,-16.04,66.33
189824,2018-06-29 10:23:44.000000,-24.42,66.33
189825,2018-06-29 10:23:44.031250,-35.16,66.33
189826,2018-06-29 10:23:44.062500,-45.54,66.33
189827,2018-06-29 10:23:44.093750,-55.05,66.33
189828,2018-06-29 10:23:44.125000,-66.27,66.33
189829,2018-06-29 10:23:44.156250,-80.61,66.33
189830,2018-06-29 10:23:44.187500,-93.03,66.33
189831,2018-06-29 10:23:44.218750,-92.84,66.33
189832,2018-06-29 10:23:44.250000,-73.2,66.33
189833,2018-06-29 10:23:44.281250,-39.7,66.33
189834,2018-06-29 10:23:44.312500,-5.92,66.33
189835,2018-06-29 10:23:44.343750,19.47,66.33
189836,2018-06-29 10:23:44.375000,36.74,66.33
189837,2018-06-29 10:23:44.406250,48.24,66.33
189838,2018-06-29 10:23:44.437500,53.88,66.33
189839,2018-06-29 10:23:44.468750,54.05,66.33
189840,2018-06-29 10:23:44.500000,51.78,66.33
189841,2018-06-29 10:23:44.531250,50.15,66.08
189842,2018-06-29 10:23:44.562500,49.82,66.08
189843,2018-06-29 10:23:44.593750,50.13,66.08
189844,2018-06-29 10:23:44.625000,50.21,66.08
189845,2018-06-29 10:23:44.656250,48.55,66.08
189846,2018-06-29 10:23:44.687500,43.41,66.08
189847,2018-06-29 10:23:44.718750,35.06,66.08
189848,2018-06-29 10:23:44.750000,25.84,66.08
189849,2018-06-29 10:23:44.781250,17.26,66.08
189850,2018-06-29 10:23:44.812500,9.21,66.08
189851,2018-06-29 10:23:44.843750,1.61,66.08
189852,2018-06-29 10:23:44.875000,-5.4,66.08
189853,2018-06-29 10:23:44.906250,-12.61,66.08
189854,2018-06-29 10:23:44.937500,-20.82,66.08
189855,2018-06-29 10:23:44.968750,-29.48,66.08
189856,2018-06-29 10:23:45.000000,-37.89,66.08
189857,2018-06-29 10:23:45.031250,-46.79,66.08
189858,2018-06-29 10:23:45.062500,-57.84,66.08
189859,2018-06-29 10:23:45.093750,-70.46,66.08
189860,2018-06-29 10:23:45.125000,-78.41,66.08
189861,2018-06-29 10:23:45.156250,-72.44,66.08
189862,2018-06-29 10:23:45.187500,-49.69,66.08
189863,2018-06-29 10:23:45.218750,-18.56,66.08
189864,2018-06-29 10:23:45.250000,9.54,66.08
189865,2018-06-29 10:23:45.281250,29.74,66.08
189866,2018-06-29 10:23:45.312500,42.45,66.08
189867,2018-06-29 10:23:45.343750,47.45,66.08
189868,2018-06-29 10:23:45.375000,44.83,66.08
189869,2018-06-29 10:23:45.406250,38.88,66.08
189870,2018-06-29 10:23:45.437500,35.25,66.08
189871,2018-06-29 10:23:45.468750,34.99,66.08
189872,2018-06-29 10:23:45.500000,35.15,66.08
189873,2018-06-29 10:23:45.531250,34.16,65.87
189874,2018-06-29 10:23:45.562500,32.33,65.87
189875,2018-06-29 10:23:45.593750,28.4,65.87
189876,2018-06-29 10:23:45.625000,20.52,65.87
189877,2018-06-29 10:23:45.656250,10.17,65.87
189878,2018-06-29 10:23:45.687500,0.72,65.87
189879,2018-06-29 10:23:45.718750,-7.44,65.87
189880,2018-06-29 10:23:45.750000,-16.6,65.87
189881,2018-06-29 10:23:45.781250,-27.21,65.87
189882,2018-06-29 10:23:45.812500,-37.05,65.87
189883,2018-06-29 10:23:45.843750,-44.98,65.87
189884,2018-06-29 10:23:45.875000,-53.15,65.87
189885,2018-06-29 10:23:45.906250,-64.63,65.87
189886,2018-06-29 10:23:45.937500,-79.0,65.87
189887,2018-06-29 10:23:45.968750,-89.12,65.87
189888,2018-06-29 10:23:46.000000,-84.31,65.87
189889,2018-06-29 10:23:46.031250,-60.91,65.87
189890,2018-06-29 10:23:46.062500,-28.02,65.87
189891,2018-06-29 10:23:46.093750,1.36,65.87
189892,2018-06-29 10:23:46.125000,22.51,65.87
189893,2018-06-29 10:23:46.156250,38.18,65.87
189894,2018-06-29 10:23:46.187500,49.86,65.87
189895,2018-06-29 10:23:46.218750,55.88,65.87
189896,2018-06-29 10:23:46.250000,56.15,65.87
189897,2018-06-29 10:23:46.281250,53.61,65.87
189898,2018-06-29 10:23:46.312500,50.68,65.87
189899,2018-06-29 10:23:46.343750,47.76,65.87
189900,2018-06-29 10:23:46.375000,45.15,65.87
189901,2018-06-29 10:23:46.406250,43.17,65.87
189902,2018-06-29 10:23:46.437500,40.38,65.87
189903,2018-06-29 10:23:46.468750,34.11,65.87
189904,2018-06-29 10:23:46.500000,23.98,65.87
189905,2018-06-29 10:23:46.531250,12.99,65.67
189906,2018-06-29 10:23:46.562500,3.82,65.67
189907,2018-06-29 10:23:46.593750,-4.65,65.67
189908,2018-06-29 10:23:46.625000,-14.98,65.67
189909,2018-06-29 10:23:46.656250,-26.61,65.67
189910,2018-06-29 10:23:46.687500,-36.72,65.67
189911,2018-06-29 10:23:46.718750,-44.73,65.67
189912,2018-06-29 10:23:46.750000,-52.83,65.67
189913,2018-06-29 10:23:46.781250,-63.05,65.67
189914,2018-06-29 10:23:46.812500,-74.85,65.67
189915,2018-06-29 10:23:46.843750,-82.48,65.67
189916,2018-06-29 10:23:46.875000,-75.84,65.67
189917,2018-06-29 10:23:46.906250,-51.0,65.67
189918,2018-06-29 10:23:46.937500,-18.03,65.67
189919,2018-06-29 10:23:46.968750,9.05,65.67
189920,2018-06-29 10:23:47.000000,26.5,65.67
189921,2018-06-29 10:23:47.031250,38.77,65.67
189922,2018-06-29 10:23:47.062500,48.3,65.67
189923,2018-06-29 10:23:47.093750,54.46,65.67
189924,2018-06-29 10:23:47.125000,57.58,65.67
189925,2018-06-29 10:23:47.156250,58.68,65.67
189926,2018-06-29 10:23:47.187500,57.77,65.67
189927,2018-06-29 10:23:47.218750,55.1,65.67
189928,2018-06-29 10:23:47.250000,52.18,65.67
189929,2018-06-29 10:23:47.281250,49.79,65.67
189930,2018-06-29 10:23:47.312500,46.97,65.67
189931,2018-06-29 10:23:47.343750,42.44,65.67
189932,2018-06-29 10:23:47.375000,35.9,65.67
189933,2018-06-29 10:23:47.406250,28.14,65.67
189934,2018-06-29 10:23:47.437500,20.49,65.67
189935,2018-06-29 10:23:47.468750,13.79,65.67
189936,2018-06-29 10:23:47.500000,7.51,65.67
189937,2018-06-29 10:23:47.531250,0.66,65.45
189938,2018-06-29 10:23:47.562500,-6.58,65.45
189939,2018-06-29 10:23:47.593750,-13.33,65.45
189940,2018-06-29 10:23:47.625000,-19.97,65.45
189941,2018-06-29 10:23:47.656250,-28.07,65.45
189942,2018-06-29 10:23:47.687500,-37.56,65.45
189943,2018-06-29 10:23:47.718750,-46.28,65.45
189944,2018-06-29 10:23:47.750000,-53.29,65.45
189945,2018-06-29 10:23:47.781250,-60.3,65.45
189946,2018-06-29 10:23:47.812500,-69.71,65.45
189947,2018-06-29 10:23:47.843750,-81.22,65.45
189948,2018-06-29 10:23:47.875000,-88.74,65.45
189949,2018-06-29 10:23:47.906250,-82.29,65.45
189950,2018-06-29 10:23:47.937500,-58.67,65.45
189951,2018-06-29 10:23:47.968750,-26.73,65.45
189952,2018-06-29 10:23:48.000000,1.86,65.45
189953,2018-06-29 10:23:48.031250,22.3,65.45
189954,2018-06-29 10:23:48.062500,35.26,65.45
189955,2018-06-29 10:23:48.093750,42.04,65.45
189956,2018-06-29 10:23:48.125000,43.79,65.45
189957,2018-06-29 10:23:48.156250,42.47,65.45
189958,2018-06-29 10:23:48.187500,41.01,65.45
189959,2018-06-29 10:23:48.218750,41.13,65.45
189960,2018-06-29 10:23:48.250000,41.72,65.45
189961,2018-06-29 10:23:48.281250,40.98,65.45
189962,2018-06-29 10:23:48.312500,38.69,65.45
189963,2018-06-29 10:23:48.343750,34.68,65.45
189964,2018-06-29 10:23:48.375000,27.95,65.45
189965,2018-06-29 10:23:48.406250,18.53,65.45
189966,2018-06-29 10:23:48.437500,8.41,65.45
189967,2018-06-29 10:23:48.468750,-0.35,65.45
189968,2018-06-29 10:23:48.500000,-7.67,65.45
189969,2018-06-29 10:23:48.531250,-15.55,65.25
189970,2018-06-29 10:23:48.562500,-25.7,65.25
189971,2018-06-29 10:23:48.593750,-36.98,65.25
189972,2018-06-29 10:23:48.625000,-46.74,65.25
189973,2018-06-29 10:23:48.656250,-54.75,65.25
189974,2018-06-29 10:23:48.687500,-64.28,65.25
189975,2018-06-29 10:23:48.718750,-77.21,65.25
189976,2018-06-29 10:23:48.750000,-88.22,65.25
189977,2018-06-29 10:23:48.781250,-86.62,65.25
189978,2018-06-29 10:23:48.812500,-66.88,65.25
189979,2018-06-29 10:23:48.843750,-35.76,65.25
189980,2018-06-29 10:23:48.875000,-5.92,65.25
189981,2018-06-29 10:23:48.906250,15.32,65.25
189982,2018-06-29 10:23:48.937500,29.23,65.25
189983,2018-06-29 10:23:48.968750,39.72,65.25
189984,2018-06-29 10:23:49.000000,47.74,65.25
189985,2018-06-29 10:23:49.031250,51.68,65.25
189986,2018-06-29 10:23:49.062500,51.81,65.25
189987,2018-06-29 10:23:49.093750,51.69,65.25
189988,2018-06-29 10:23:49.125000,54.52,65.25
189989,2018-06-29 10:23:49.156250,59.52,65.25
189990,2018-06-29 10:23:49.187500,62.94,65.25
189991,2018-06-29 10:23:49.218750,61.61,65.25
189992,2018-06-29 10:23:49.250000,54.96,65.25
189993,2018-06-29 10:23:49.281250,44.7,65.25
189994,2018-06-29 10:23:49.312500,33.28,65.25
189995,2018-06-29 10:23:49.343750,21.88,65.25
189996,2018-06-29 10:23:49.375000,10.47,65.25
189997,2018-06-29 10:23:49.406250,-0.19,65.25
189998,2018-06-29 10:23:49.437500,-8.38,65.25
189999,2018-06-29 10:23:49.468750,-13.76,65.25
190000,2018-06-29 10:23:49.500000,-18.12,65.25
190001,2018-06-29 10:23:49.531250,-23.49,65.1
190002,2018-06-29 10:23:49.562500,-30.91,65.1
190003,2018-06-29 10:23:49.593750,-40.69,65.1
190004,2018-06-29 10:23:49.625000,-53.05,65.1
190005,2018-06-29 10:23:49.656250,-67.96,65.1
190006,2018-06-29 10:23:49.687500,-82.43,65.1
190007,2018-06-29 10:23:49.718750,-87.67,65.1
190008,2018-06-29 10:23:49.750000,-74.96,65.1
190009,2018-06-29 10:23:49.781250,-46.57,65.1
190010,2018-06-29 10:23:49.812500,-14.4,65.1
190011,2018-06-29 10:23:49.843750,12.71,65.1
190012,2018-06-29 10:23:49.875000,33.13,65.1
190013,2018-06-29 10:23:49.906250,46.57,65.1
190014,2018-06-29 10:23:49.937500,52.36,65.1
190015,2018-06-29 10:23:49.968750,52.2,65.1
190016,2018-06-29 10:23:50.000000,49.48,65.1
190017,2018-06-29 10:23:50.031250,46.7,65.1
190018,2018-06-29 10:23:50.062500,44.87,65.1
190019,2018-06-29 10:23:50.093750,44.27,65.1
190020,2018-06-29 10:23:50.125000,44.74,65.1
190021,2018-06-29 10:23:50.156250,44.51,65.1
190022,2018-06-29 10:23:50.187500,40.78,65.1
190023,2018-06-29 10:23:50.218750,33.46,65.1
190024,2018-06-29 10:23:50.250000,25.56,65.1
190025,2018-06-29 10:23:50.281250,18.44,65.1
190026,2018-06-29 10:23:50.312500,10.5,65.1
190027,2018-06-29 10:23:50.343750,1.15,65.1
190028,2018-06-29 10:23:50.375000,-7.6,65.1
190029,2018-06-29 10:23:50.406250,-14.15,65.1
190030,2018-06-29 10:23:50.437500,-19.55,65.1
190031,2018-06-29 10:23:50.468750,-26.26,65.1
190032,2018-06-29 10:23:50.500000,-35.12,65.1
190033,2018-06-29 10:23:50.531250,-44.17,65.02
190034,2018-06-29 10:23:50.562500,-51.83,65.02
190035,2018-06-29 10:23:50.593750,-60.13,65.02
190036,2018-06-29 10:23:50.625000,-71.77,65.02
190037,2018-06-29 10:23:50.656250,-83.24,65.02
190038,2018-06-29 10:23:50.687500,-84.15,65.02
190039,2018-06-29 10:23:50.718750,-67.53,65.02
190040,2018-06-29 10:23:50.750000,-38.62,65.02
190041,2018-06-29 10:23:50.781250,-9.41,65.02
190042,2018-06-29 10:23:50.812500,12.61,65.02
190043,2018-06-29 10:23:50.843750,26.89,65.02
190044,2018-06-29 10:23:50.875000,34.84,65.02
190045,2018-06-29 10:23:50.906250,37.57,65.02
190046,2018-06-29 10:23:50.937500,36.86,65.02
190047,2018-06-29 10:23:50.968750,35.35,65.02
190048,2018-06-29 10:23:51.000000,34.82,65.02
190049,2018-06-29 10:23:51.031250,34.98,65.02
190050,2018-06-29 10:23:51.062500,35.01,65.02
190051,2018-06-29 10:23:51.093750,34.95,65.02
190052,2018-06-29 10:23:51.125000,33.89,65.02
190053,2018-06-29 10:23:51.156250,29.38,65.02
190054,2018-06-29 10:23:51.187500,20.86,65.02
190055,2018-06-29 10:23:51.218750,11.45,65.02
190056,2018-06-29 10:23:51.250000,3.83,65.02
190057,2018-06-29 10:23:51.281250,-3.45,65.02
190058,2018-06-29 10:23:51.312500,-13.12,65.02
190059,2018-06-29 10:23:51.343750,-24.49,65.02
190060,2018-06-29 10:23:51.375000,-34.73,65.02
190061,2018-06-29 10:23:51.406250,-43.07,65.02
190062,2018-06-29 10:23:51.437500,-51.56,65.02
190063,2018-06-29 10:23:51.468750,-62.58,65.02
190064,2018-06-29 10:23:51.500000,-75.19,65.02
190065,2018-06-29 10:23:51.531250,-81.98,64.95
190066,2018-06-29 10:23:51.562500,-73.23,64.95
190067,2018-06-29 10:23:51.593750,-48.16,64.95
190068,2018-06-29 10:23:51.625000,-17.4,64.95
190069,2018-06-29 10:23:51.656250,8.27,64.95
190070,2018-06-29 10:23:51.687500,26.4,64.95
190071,2018-06-29 10:23:51.718750,38.76,64.95
190072,2018-06-29 10:23:51.750000,45.58,64.95
190073,2018-06-29 10:23:51.781250,46.99,64.95
190074,2018-06-29 10:23:51.812500,45.29,64.95
190075,2018-06-29 10:23:51.843750,43.39,64.95
190076,2018-06-29 10:23:51.875000,42.48,64.95
190077,2018-06-29 10:23:51.906250,42.5,64.95
190078,2018-06-29 10:23:51.937500,43.15,64.95
190079,2018-06-29 10:23:51.968750,43.01,64.95
190080,2018-06-29 10:23:52.000000,39.49,64.95
190081,2018-06-29 10:23:52.031250,31.45,64.95
190082,2018-06-29 10:23:52.062500,21.0,64.95
190083,2018-06-29 10:23:52.093750,11.22,64.95
190084,2018-06-29 10:23:52.125000,2.3,64.95
190085,2018-06-29 10:23:52.156250,-7.97,64.95
190086,2018-06-29 10:23:52.187500,-19.87,64.95
190087,2018-06-29 10:23:52.218750,-30.68,64.95
190088,2018-06-29 10:23:52.250000,-39.05,64.95
190089,2018-06-29 10:23:52.281250,-47.6,64.95
190090,2018-06-29 10:23:52.312500,-59.54,64.95
190091,2018-06-29 10:23:52.343750,-73.02,64.95
190092,2018-06-29 10:23:52.375000,-79.12,64.95
190093,2018-06-29 10:23:52.406250,-68.42,64.95
190094,2018-06-29 10:23:52.437500,-41.59,64.95
190095,2018-06-29 10:23:52.468750,-10.05,64.95
190096,2018-06-29 10:23:52.500000,15.62,64.95
190097,2018-06-29 10:23:52.531250,33.27,64.92
190098,2018-06-29 10:23:52.562500,44.92,64.92
190099,2018-06-29 10:23:52.593750,51.27,64.92
190100,2018-06-29 10:23:52.625000,52.41,64.92
190101,2018-06-29 10:23:52.656250,50.0,64.92
190102,2018-06-29 10:23:52.687500,46.44,64.92
190103,2018-06-29 10:23:52.718750,43.4,64.92
190104,2018-06-29 10:23:52.750000,41.5,64.92
190105,2018-06-29 10:23:52.781250,39.97,64.92
190106,2018-06-29 10:23:52.812500,36.32,64.92
190107,2018-06-29 10:23:52.843750,28.76,64.92
190108,2018-06-29 10:23:52.875000,18.57,64.92
190109,2018-06-29 10:23:52.906250,8.52,64.92
190110,2018-06-29 10:23:52.937500,-0.8,64.92
190111,2018-06-29 10:23:52.968750,-10.7,64.92
190112,2018-06-29 10:23:53.000000,-21.71,64.92
190113,2018-06-29 10:23:53.031250,-32.91,64.92
190114,2018-06-29 10:23:53.062500,-43.67,64.92
190115,2018-06-29 10:23:53.093750,-54.97,64.92
190116,2018-06-29 10:23:53.125000,-67.99,64.92
190117,2018-06-29 10:23:53.156250,-79.33,64.92
190118,2018-06-29 10:23:53.187500,-79.49,64.92
190119,2018-06-29 10:23:53.218750,-61.55,64.92
190120,2018-06-29 10:23:53.250000,-30.55,64.92
190121,2018-06-29 10:23:53.281250,0.93,64.92
190122,2018-06-29 10:23:53.312500,24.95,64.92
190123,2018-06-29 10:23:53.343750,41.27,64.92
190124,2018-06-29 10:23:53.375000,50.88,64.92
190125,2018-06-29 10:23:53.406250,53.45,64.92
190126,2018-06-29 10:23:53.437500,50.9,64.92
190127,2018-06-29 10:23:53.468750,47.47,64.92
190128,2018-06-29 10:23:53.500000,45.49,64.92
190129,2018-06-29 10:23:53.531250,44.39,64.88
190130,2018-06-29 10:23:53.562500,43.59,64.88
190131,2018-06-29 10:23:53.593750,42.12,64.88
190132,2018-06-29 10:23:53.625000,37.52,64.88
190133,2018-06-29 10:23:53.656250,28.54,64.88
190134,2018-06-29 10:23:53.687500,17.24,64.88
190135,2018-06-29 10:23:53.718750,6.28,64.88
190136,2018-06-29 10:23:53.750000,-3.85,64.88
190137,2018-06-29 10:23:53.781250,-13.98,64.88
190138,2018-06-29 10:23:53.812500,-24.46,64.88
190139,2018-06-29 10:23:53.843750,-34.81,64.88
190140,2018-06-29 10:23:53.875000,-44.49,64.88
190141,2018-06-29 10:23:53.906250,-54.44,64.88
190142,2018-06-29 10:23:53.937500,-67.03,64.88
190143,2018-06-29 10:23:53.968750,-80.63,64.88
190144,2018-06-29 10:23:54.000000,-85.19,64.88
190145,2018-06-29 10:23:54.031250,-70.59,64.88
190146,2018-06-29 10:23:54.062500,-39.6,64.88
190147,2018-06-29 10:23:54.093750,-5.39,64.88
190148,2018-06-29 10:23:54.125000,22.21,64.88
190149,2018-06-29 10:23:54.156250,41.63,64.88
190150,2018-06-29 10:23:54.187500,53.66,64.88
190151,2018-06-29 10:23:54.218750,58.56,64.88
190152,2018-06-29 10:23:54.250000,58.14,64.88
190153,2018-06-29 10:23:54.281250,56.0,64.88
190154,2018-06-29 10:23:54.312500,54.69,64.88
190155,2018-06-29 10:23:54.343750,54.12,64.88
190156,2018-06-29 10:23:54.375000,53.48,64.88
190157,2018-06-29 10:23:54.406250,52.64,64.88
190158,2018-06-29 10:23:54.437500,50.86,64.88
190159,2018-06-29 10:23:54.468750,46.92,64.88
190160,2018-06-29 10:23:54.500000,40.92,64.88
190161,2018-06-29 10:23:54.531250,33.97,64.87
190162,2018-06-29 10:23:54.562500,26.41,64.87
190163,2018-06-29 10:23:54.593750,18.33,64.87
190164,2018-06-29 10:23:54.625000,10.96,64.87
190165,2018-06-29 10:23:54.656250,5.27,64.87
190166,2018-06-29 10:23:54.687500,0.15,64.87
190167,2018-06-29 10:23:54.718750,-6.2,64.87
190168,2018-06-29 10:23:54.750000,-13.52,64.87
190169,2018-06-29 10:23:54.781250,-20.2,64.87
190170,2018-06-29 10:23:54.812500,-26.35,64.87
190171,2018-06-29 10:23:54.843750,-33.99,64.87
190172,2018-06-29 10:23:54.875000,-43.87,64.87
190173,2018-06-29 10:23:54.906250,-54.02,64.87
190174,2018-06-29 10:23:54.937500,-62.62,64.87
190175,2018-06-29 10:23:54.968750,-70.61,64.87
190176,2018-06-29 10:23:55.000000,-80.7,64.87
190177,2018-06-29 10:23:55.031250,-93.64,64.87
190178,2018-06-29 10:23:55.062500,-104.05,64.87
190179,2018-06-29 10:23:55.093750,-100.85,64.87
190180,2018-06-29 10:23:55.125000,-77.47,64.87
190181,2018-06-29 10:23:55.156250,-41.38,64.87
190182,2018-06-29 10:23:55.187500,-7.44,64.87
190183,2018-06-29 10:23:55.218750,16.27,64.87
190184,2018-06-29 10:23:55.250000,31.27,64.87
190185,2018-06-29 10:23:55.281250,41.18,64.87
190186,2018-06-29 10:23:55.312500,47.23,64.87
190187,2018-06-29 10:23:55.343750,49.96,64.87
190188,2018-06-29 10:23:55.375000,51.23,64.87
190189,2018-06-29 10:23:55.406250,52.67,64.87
190190,2018-06-29 10:23:55.437500,53.89,64.87
190191,2018-06-29 10:23:55.468750,54.33,64.87
190192,2018-06-29 10:23:55.500000,54.42,64.87
190193,2018-06-29 10:23:55.531250,53.09,64.87
190194,2018-06-29 10:23:55.562500,48.29,64.87
190195,2018-06-29 10:23:55.593750,40.73,64.87
190196,2018-06-29 10:23:55.625000,33.29,64.87
190197,2018-06-29 10:23:55.656250,26.38,64.87
190198,2018-06-29 10:23:55.687500,17.81,64.87
190199,2018-06-29 10:23:55.718750,7.02,64.87
190200,2018-06-29 10:23:55.750000,-3.52,64.87
190201,2018-06-29 10:23:55.781250,-11.76,64.87
190202,2018-06-29 10:23:55.812500,-19.1,64.87
190203,2018-06-29 10:23:55.843750,-28.35,64.87
190204,2018-06-29 10:23:55.875000,-39.77,64.87
190205,2018-06-29 10:23:55.906250,-51.05,64.87
190206,2018-06-29 10:23:55.937500,-60.48,64.87
190207,2018-06-29 10:23:55.968750,-69.62,64.87
190208,2018-06-29 10:23:56.000000,-81.83,64.87
190209,2018-06-29 10:23:56.031250,-96.11,64.87
190210,2018-06-29 10:23:56.062500,-102.32,64.87
190211,2018-06-29 10:23:56.093750,-88.54,64.87
190212,2018-06-29 10:23:56.125000,-55.0,64.87
190213,2018-06-29 10:23:56.156250,-15.16,64.87
190214,2018-06-29 10:23:56.187500,17.86,64.87
190215,2018-06-29 10:23:56.218750,40.17,64.87
190216,2018-06-29 10:23:56.250000,53.53,64.87
190217,2018-06-29 10:23:56.281250,59.7,64.87
190218,2018-06-29 10:23:56.312500,60.53,64.87
190219,2018-06-29 10:23:56.343750,59.92,64.87
190220,2018-06-29 10:23:56.375000,61.64,64.87
190221,2018-06-29 10:23:56.406250,66.51,64.87
190222,2018-06-29 10:23:56.437500,76.17,64.87
190223,2018-06-29 10:23:56.468750,94.43,64.87
190224,2018-06-29 10:23:56.500000,118.94,64.87
190225,2018-06-29 10:23:56.531250,139.36,64.87
190226,2018-06-29 10:23:56.562500,146.9,64.87
190227,2018-06-29 10:23:56.593750,137.25,64.87
190228,2018-06-29 10:23:56.625000,107.64,64.87
190229,2018-06-29 10:23:56.656250,61.61,64.87
190230,2018-06-29 10:23:56.687500,10.0,64.87
190231,2018-06-29 10:23:56.718750,-38.52,64.87
190232,2018-06-29 10:23:56.750000,-79.6,64.87
190233,2018-06-29 10:23:56.781250,-108.89,64.87
190234,2018-06-29 10:23:56.812500,-125.15,64.87
190235,2018-06-29 10:23:56.843750,-132.63,64.87
190236,2018-06-29 10:23:56.875000,-134.51,64.87
190237,2018-06-29 10:23:56.906250,-131.16,64.87
190238,2018-06-29 10:23:56.937500,-126.59,64.87
190239,2018-06-29 10:23:56.968750,-128.39,64.87
190240,2018-06-29 10:23:57.000000,-138.95,64.87
190241,2018-06-29 10:23:57.031250,-148.93,64.87
190242,2018-06-29 10:23:57.062500,-143.36,64.87
190243,2018-06-29 10:23:57.093750,-116.51,64.87
190244,2018-06-29 10:23:57.125000,-76.43,64.87
190245,2018-06-29 10:23:57.156250,-34.16,64.87
190246,2018-06-29 10:23:57.187500,4.42,64.87
190247,2018-06-29 10:23:57.218750,36.53,64.87
190248,2018-06-29 10:23:57.250000,60.53,64.87
190249,2018-06-29 10:23:57.281250,77.11,64.87
190250,2018-06-29 10:23:57.312500,88.38,64.87
190251,2018-06-29 10:23:57.343750,96.1,64.87
190252,2018-06-29 10:23:57.375000,100.6,64.87
190253,2018-06-29 10:23:57.406250,101.63,64.87
190254,2018-06-29 10:23:57.437500,100.75,64.87
190255,2018-06-29 10:23:57.468750,100.32,64.87
190256,2018-06-29 10:23:57.500000,99.26,64.87
190257,2018-06-29 10:23:57.531250,93.31,64.85
190258,2018-06-29 10:23:57.562500,80.08,64.85
190259,2018-06-29 10:23:57.593750,60.98,64.85
190260,2018-06-29 10:23:57.625000,38.35,64.85
190261,2018-06-29 10:23:57.656250,13.74,64.85
190262,2018-06-29 10:23:57.687500,-10.96,64.85
190263,2018-06-29 10:23:57.718750,-32.74,64.85
190264,2018-06-29 10:23:57.750000,-48.42,64.85
190265,2018-06-29 10:23:57.781250,-56.7,64.85
190266,2018-06-29 10:23:57.812500,-59.44,64.85
190267,2018-06-29 10:23:57.843750,-60.89,64.85
190268,2018-06-29 10:23:57.875000,-64.59,64.85
190269,2018-06-29 10:23:57.906250,-69.66,64.85
190270,2018-06-29 10:23:57.937500,-69.45,64.85
190271,2018-06-29 10:23:57.968750,-56.94,64.85
190272,2018-06-29 10:23:58.000000,-33.22,64.85
190273,2018-06-29 10:23:58.031250,-7.81,64.85
190274,2018-06-29 10:23:58.062500,10.34,64.85
190275,2018-06-29 10:23:58.093750,19.52,64.85
190276,2018-06-29 10:23:58.125000,22.19,64.85
190277,2018-06-29 10:23:58.156250,20.12,64.85
190278,2018-06-29 10:23:58.187500,15.13,64.85
190279,2018-06-29 10:23:58.218750,10.96,64.85
190280,2018-06-29 10:23:58.250000,10.55,64.85
190281,2018-06-29 10:23:58.281250,12.72,64.85
190282,2018-06-29 10:23:58.312500,14.62,64.85
190283,2018-06-29 10:23:58.343750,15.24,64.85
190284,2018-06-29 10:23:58.375000,14.48,64.85
190285,2018-06-29 10:23:58.406250,11.74,64.85
190286,2018-06-29 10:23:58.437500,7.12,64.85
190287,2018-06-29 10:23:58.468750,1.59,64.85
190288,2018-06-29 10:23:58.500000,-4.9,64.85
190289,2018-06-29 10:23:58.531250,-13.17,64.82
190290,2018-06-29 10:23:58.562500,-22.26,64.82
190291,2018-06-29 10:23:58.593750,-29.62,64.82
190292,2018-06-29 10:23:58.625000,-34.77,64.82
190293,2018-06-29 10:23:58.656250,-40.93,64.82
190294,2018-06-29 10:23:58.687500,-50.15,64.82
190295,2018-06-29 10:23:58.718750,-56.48,64.82
190296,2018-06-29 10:23:58.750000,-48.69,64.82
190297,2018-06-29 10:23:58.781250,-23.93,64.82
190298,2018-06-29 10:23:58.812500,7.16,64.82
190299,2018-06-29 10:23:58.843750,31.74,64.82
190300,2018-06-29 10:23:58.875000,45.12,64.82
190301,2018-06-29 10:23:58.906250,47.92,64.82
190302,2018-06-29 10:23:58.937500,41.69,64.82
190303,2018-06-29 10:23:58.968750,30.55,64.82
190304,2018-06-29 10:23:59.000000,20.89,64.82
190305,2018-06-29 10:23:59.031250,16.57,64.82
190306,2018-06-29 10:23:59.062500,16.81,64.82
190307,2018-06-29 10:23:59.093750,18.79,64.82
190308,2018-06-29 10:23:59.125000,19.95,64.82
190309,2018-06-29 10:23:59.156250,18.69,64.82
190310,2018-06-29 10:23:59.187500,14.21,64.82
190311,2018-06-29 10:23:59.218750,7.25,64.82
190312,2018-06-29 10:23:59.250000,1.19,64.82
190313,2018-06-29 10:23:59.281250,-1.08,64.82
190314,2018-06-29 10:23:59.312500,-3.07,64.82
190315,2018-06-29 10:23:59.343750,-12.12,64.82
190316,2018-06-29 10:23:59.375000,-30.7,64.82
190317,2018-06-29 10:23:59.406250,-56.11,64.82
190318,2018-06-29 10:23:59.437500,-83.59,64.82
190319,2018-06-29 10:23:59.468750,-102.79,64.82
190320,2018-06-29 10:23:59.500000,-101.35,64.82
190321,2018-06-29 10:23:59.531250,-79.37,64.8
190322,2018-06-29 10:23:59.562500,-49.5,64.8
190323,2018-06-29 10:23:59.593750,-19.94,64.8
190324,2018-06-29 10:23:59.625000,11.08,64.8
190325,2018-06-29 10:23:59.656250,43.75,64.8
190326,2018-06-29 10:23:59.687500,72.26,64.8
190327,2018-06-29 10:23:59.718750,92.27,64.8
190328,2018-06-29 10:23:59.750000,103.43,64.8
190329,2018-06-29 10:23:59.781250,104.28,64.8
190330,2018-06-29 10:23:59.812500,93.36,64.8
190331,2018-06-29 10:23:59.843750,75.09,64.8
190332,2018-06-29 10:23:59.875000,56.77,64.8
190333,2018-06-29 10:23:59.906250,39.76,64.8
190334,2018-06-29 10:23:59.937500,19.92,64.8
190335,2018-06-29 10:23:59.968750,-5.1,64.8
190336,2018-06-29 10:24:00.000000,-33.1,64.8
190337,2018-06-29 10:24:00.031250,-59.74,64.8
190338,2018-06-29 10:24:00.062500,-81.13,64.8
190339,2018-06-29 10:24:00.093750,-96.01,64.8
190340,2018-06-29 10:24:00.125000,-106.47,64.8
190341,2018-06-29 10:24:00.156250,-113.52,64.8
190342,2018-06-29 10:24:00.187500,-111.55,64.8
190343,2018-06-29 10:24:00.218750,-92.09,64.8
190344,2018-06-29 10:24:00.250000,-55.69,64.8
190345,2018-06-29 10:24:00.281250,-14.66,64.8
190346,2018-06-29 10:24:00.312500,18.73,64.8
190347,2018-06-29 10:24:00.343750,41.6,64.8
190348,2018-06-29 10:24:00.375000,56.45,64.8
190349,2018-06-29 10:24:00.406250,64.79,64.8
190350,2018-06-29 10:24:00.437500,67.43,64.8
190351,2018-06-29 10:24:00.468750,67.01,64.8
190352,2018-06-29 10:24:00.500000,67.1,64.8
190353,2018-06-29 10:24:00.531250,69.22,64.78
190354,2018-06-29 10:24:00.562500,71.61,64.78
190355,2018-06-29 10:24:00.593750,71.48,64.78
190356,2018-06-29 10:24:00.625000,66.74,64.78
190357,2018-06-29 10:24:00.656250,55.11,64.78
190358,2018-06-29 10:24:00.687500,34.15,64.78
190359,2018-06-29 10:24:00.718750,3.77,64.78
190360,2018-06-29 10:24:00.750000,-32.39,64.78
190361,2018-06-29 10:24:00.781250,-68.97,64.78
190362,2018-06-29 10:24:00.812500,-102.05,64.78
190363,2018-06-29 10:24:00.843750,-130.99,64.78
190364,2018-06-29 10:24:00.875000,-156.81,64.78
190365,2018-06-29 10:24:00.906250,-178.33,64.78
190366,2018-06-29 10:24:00.937500,-188.68,64.78
190367,2018-06-29 10:24:00.968750,-176.68,64.78
190368,2018-06-29 10:24:01.000000,-137.08,64.78
190369,2018-06-29 10:24:01.031250,-80.18,64.78
190370,2018-06-29 10:24:01.062500,-25.26,64.78
190371,2018-06-29 10:24:01.093750,15.7,64.78
190372,2018-06-29 10:24:01.125000,43.44,64.78
190373,2018-06-29 10:24:01.156250,64.88,64.78
190374,2018-06-29 10:24:01.187500,85.96,64.78
190375,2018-06-29 10:24:01.218750,108.42,64.78
190376,2018-06-29 10:24:01.250000,131.0,64.78
190377,2018-06-29 10:24:01.281250,152.55,64.78
190378,2018-06-29 10:24:01.312500,171.47,64.78
190379,2018-06-29 10:24:01.343750,184.17,64.78
190380,2018-06-29 10:24:01.375000,187.64,64.78
190381,2018-06-29 10:24:01.406250,181.36,64.78
190382,2018-06-29 10:24:01.437500,165.03,64.78
190383,2018-06-29 10:24:01.468750,139.48,64.78
190384,2018-06-29 10:24:01.500000,110.01,64.78
190385,2018-06-29 10:24:01.531250,83.56,64.8
190386,2018-06-29 10:24:01.562500,62.03,64.8
190387,2018-06-29 10:24:01.593750,41.6,64.8
190388,2018-06-29 10:24:01.625000,18.29,64.8
190389,2018-06-29 10:24:01.656250,-7.77,64.8
190390,2018-06-29 10:24:01.687500,-33.25,64.8
190391,2018-06-29 10:24:01.718750,-55.32,64.8
190392,2018-06-29 10:24:01.750000,-73.58,64.8
190393,2018-06-29 10:24:01.781250,-89.4,64.8
190394,2018-06-29 10:24:01.812500,-104.4,64.8
190395,2018-06-29 10:24:01.843750,-116.86,64.8
190396,2018-06-29 10:24:01.875000,-118.06,64.8
190397,2018-06-29 10:24:01.906250,-98.42,64.8
190398,2018-06-29 10:24:01.937500,-60.48,64.8
190399,2018-06-29 10:24:01.968750,-18.73,64.8
190400,2018-06-29 10:24:02.000000,14.81,64.8
190401,2018-06-29 10:24:02.031250,38.3,64.8
190402,2018-06-29 10:24:02.062500,54.31,64.8
190403,2018-06-29 10:24:02.093750,63.65,64.8
190404,2018-06-29 10:24:02.125000,66.1,64.8
190405,2018-06-29 10:24:02.156250,63.03,64.8
190406,2018-06-29 10:24:02.187500,57.59,64.8
190407,2018-06-29 10:24:02.218750,52.91,64.8
190408,2018-06-29 10:24:02.250000,50.36,64.8
190409,2018-06-29 10:24:02.281250,49.43,64.8
190410,2018-06-29 10:24:02.312500,48.14,64.8
190411,2018-06-29 10:24:02.343750,44.4,64.8
190412,2018-06-29 10:24:02.375000,38.1,64.8
190413,2018-06-29 10:24:02.406250,31.11,64.8
190414,2018-06-29 10:24:02.437500,24.84,64.8
190415,2018-06-29 10:24:02.468750,18.93,64.8
190416,2018-06-29 10:24:02.500000,12.83,64.8
190417,2018-06-29 10:24:02.531250,6.94,64.92
190418,2018-06-29 10:24:02.562500,1.52,64.92
190419,2018-06-29 10:24:02.593750,-4.08,64.92
190420,2018-06-29 10:24:02.625000,-10.22,64.92
190421,2018-06-29 10:24:02.656250,-15.95,64.92
190422,2018-06-29 10:24:02.687500,-20.9,64.92
190423,2018-06-29 10:24:02.718750,-26.86,64.92
190424,2018-06-29 10:24:02.750000,-35.4,64.92
190425,2018-06-29 10:24:02.781250,-45.53,64.92
190426,2018-06-29 10:24:02.812500,-54.88,64.92
190427,2018-06-29 10:24:02.843750,-63.21,64.92
190428,2018-06-29 10:24:02.875000,-73.0,64.92
190429,2018-06-29 10:24:02.906250,-85.7,64.92
190430,2018-06-29 10:24:02.937500,-96.59,64.92
190431,2018-06-29 10:24:02.968750,-95.28,64.92
190432,2018-06-29 10:24:03.000000,-76.52,64.92
190433,2018-06-29 10:24:03.031250,-47.09,64.92
190434,2018-06-29 10:24:03.062500,-19.96,64.92
190435,2018-06-29 10:24:03.093750,-0.46,64.92
190436,2018-06-29 10:24:03.125000,11.6,64.92
190437,2018-06-29 10:24:03.156250,16.14,64.92
190438,2018-06-29 10:24:03.187500,12.14,64.92
190439,2018-06-29 10:24:03.218750,3.62,64.92
190440,2018-06-29 10:24:03.250000,-1.63,64.92
190441,2018-06-29 10:24:03.281250,-5.12,64.92
190442,2018-06-29 10:24:03.312500,-11.26,64.92
190443,2018-06-29 10:24:03.343750,-21.22,64.92
190444,2018-06-29 10:24:03.375000,-27.77,64.92
190445,2018-06-29 10:24:03.406250,-31.26,64.92
190446,2018-06-29 10:24:03.437500,-30.62,64.92
190447,2018-06-29 10:24:03.468750,-13.01,64.92
190448,2018-06-29 10:24:03.500000,36.41,64.92
190449,2018-06-29 10:24:03.531250,119.42,65.07
190450,2018-06-29 10:24:03.562500,213.29,65.07
190451,2018-06-29 10:24:03.593750,300.52,65.07
190452,2018-06-29 10:24:03.625000,327.82,65.07
190453,2018-06-29 10:24:03.656250,252.32,65.07
190454,2018-06-29 10:24:03.687500,134.88,65.07
190455,2018-06-29 10:24:03.718750,24.19,65.07
190456,2018-06-29 10:24:03.750000,-76.61,65.07
190457,2018-06-29 10:24:03.781250,-157.53,65.07
190458,2018-06-29 10:24:03.812500,-198.99,65.07
190459,2018-06-29 10:24:03.843750,-199.59,65.07
190460,2018-06-29 10:24:03.875000,-175.8,65.07
190461,2018-06-29 10:24:03.906250,-144.7,65.07
190462,2018-06-29 10:24:03.937500,-115.52,65.07
190463,2018-06-29 10:24:03.968750,-104.27,65.07
190464,2018-06-29 10:24:04.000000,-124.44,65.07
190465,2018-06-29 10:24:04.031250,-166.43,65.07
190466,2018-06-29 10:24:04.062500,-204.21,65.07
190467,2018-06-29 10:24:04.093750,-215.87,65.07
190468,2018-06-29 10:24:04.125000,-199.27,65.07
190469,2018-06-29 10:24:04.156250,-155.81,65.07
190470,2018-06-29 10:24:04.187500,-88.14,65.07
190471,2018-06-29 10:24:04.218750,-8.24,65.07
190472,2018-06-29 10:24:04.250000,62.54,65.07
190473,2018-06-29 10:24:04.281250,110.09,65.07
190474,2018-06-29 10:24:04.312500,135.76,65.07
190475,2018-06-29 10:24:04.343750,145.87,65.07
190476,2018-06-29 10:24:04.375000,145.47,65.07
190477,2018-06-29 10:24:04.406250,137.73,65.07
190478,2018-06-29 10:24:04.437500,125.12,65.07
190479,2018-06-29 10:24:04.468750,108.28,65.07
190480,2018-06-29 10:24:04.500000,88.23,65.07
190481,2018-06-29 10:24:04.531250,68.47,65.18
190482,2018-06-29 10:24:04.562500,52.27,65.18
190483,2018-06-29 10:24:04.593750,39.83,65.18
190484,2018-06-29 10:24:04.625000,29.99,65.18
190485,2018-06-29 10:24:04.656250,22.55,65.18
190486,2018-06-29 10:24:04.687500,17.18,65.18
190487,2018-06-29 10:24:04.718750,12.38,65.18
190488,2018-06-29 10:24:04.750000,6.47,65.18
190489,2018-06-29 10:24:04.781250,-1.5,65.18
190490,2018-06-29 10:24:04.812500,-11.02,65.18
190491,2018-06-29 10:24:04.843750,-20.66,65.18
190492,2018-06-29 10:24:04.875000,-29.68,65.18
190493,2018-06-29 10:24:04.906250,-38.26,65.18
190494,2018-06-29 10:24:04.937500,-45.8,65.18
190495,2018-06-29 10:24:04.968750,-51.16,65.18
190496,2018-06-29 10:24:05.000000,-55.29,65.18
190497,2018-06-29 10:24:05.031250,-61.34,65.18
190498,2018-06-29 10:24:05.062500,-70.53,65.18
190499,2018-06-29 10:24:05.093750,-77.74,65.18
190500,2018-06-29 10:24:05.125000,-73.86,65.18
190501,2018-06-29 10:24:05.156250,-55.19,65.18
190502,2018-06-29 10:24:05.187500,-28.47,65.18
190503,2018-06-29 10:24:05.218750,-4.2,65.18
190504,2018-06-29 10:24:05.250000,12.58,65.18
190505,2018-06-29 10:24:05.281250,23.02,65.18
190506,2018-06-29 10:24:05.312500,29.51,65.18
190507,2018-06-29 10:24:05.343750,33.25,65.18
190508,2018-06-29 10:24:05.375000,34.84,65.18
190509,2018-06-29 10:24:05.406250,35.05,65.18
190510,2018-06-29 10:24:05.437500,35.14,65.18
190511,2018-06-29 10:24:05.468750,36.69,65.18
190512,2018-06-29 10:24:05.500000,40.16,65.18
190513,2018-06-29 10:24:05.531250,43.53,65.32
190514,2018-06-29 10:24:05.562500,43.62,65.32
190515,2018-06-29 10:24:05.593750,39.26,65.32
190516,2018-06-29 10:24:05.625000,32.38,65.32
190517,2018-06-29 10:24:05.656250,25.38,65.32
190518,2018-06-29 10:24:05.687500,18.64,65.32
190519,2018-06-29 10:24:05.718750,12.01,65.32
190520,2018-06-29 10:24:05.750000,6.62,65.32
190521,2018-06-29 10:24:05.781250,3.18,65.32
190522,2018-06-29 10:24:05.812500,0.39,65.32
190523,2018-06-29 10:24:05.843750,-3.04,65.32
190524,2018-06-29 10:24:05.875000,-6.53,65.32
190525,2018-06-29 10:24:05.906250,-9.05,65.32
190526,2018-06-29 10:24:05.937500,-11.03,65.32
190527,2018-06-29 10:24:05.968750,-14.53,65.32
190528,2018-06-29 10:24:06.000000,-22.68,65.32
190529,2018-06-29 10:24:06.031250,-37.9,65.32
190530,2018-06-29 10:24:06.062500,-58.6,65.32
190531,2018-06-29 10:24:06.093750,-80.03,65.32
190532,2018-06-29 10:24:06.125000,-100.34,65.32
190533,2018-06-29 10:24:06.156250,-121.22,65.32
190534,2018-06-29 10:24:06.187500,-140.29,65.32
190535,2018-06-29 10:24:06.218750,-148.18,65.32
190536,2018-06-29 10:24:06.250000,-134.43,65.32
190537,2018-06-29 10:24:06.281250,-94.9,65.32
190538,2018-06-29 10:24:06.312500,-36.17,65.32
190539,2018-06-29 10:24:06.343750,26.82,65.32
190540,2018-06-29 10:24:06.375000,80.17,65.32
190541,2018-06-29 10:24:06.406250,118.22,65.32
190542,2018-06-29 10:24:06.437500,142.64,65.32
190543,2018-06-29 10:24:06.468750,157.38,65.32
190544,2018-06-29 10:24:06.500000,161.61,65.32
190545,2018-06-29 10:24:06.531250,148.82,65.48
190546,2018-06-29 10:24:06.562500,118.21,65.48
190547,2018-06-29 10:24:06.593750,82.1,65.48
190548,2018-06-29 10:24:06.625000,54.1,65.48
190549,2018-06-29 10:24:06.656250,35.91,65.48
190550,2018-06-29 10:24:06.687500,22.21,65.48
190551,2018-06-29 10:24:06.718750,10.34,65.48
190552,2018-06-29 10:24:06.750000,-1.3,65.48
190553,2018-06-29 10:24:06.781250,-16.52,65.48
190554,2018-06-29 10:24:06.812500,-36.25,65.48
190555,2018-06-29 10:24:06.843750,-54.68,65.48
190556,2018-06-29 10:24:06.875000,-64.67,65.48
190557,2018-06-29 10:24:06.906250,-63.95,65.48
190558,2018-06-29 10:24:06.937500,-54.4,65.48
190559,2018-06-29 10:24:06.968750,-38.33,65.48
190560,2018-06-29 10:24:07.000000,-15.87,65.48
190561,2018-06-29 10:24:07.031250,13.29,65.48
190562,2018-06-29 10:24:07.062500,44.11,65.48
190563,2018-06-29 10:24:07.093750,65.96,65.48
190564,2018-06-29 10:24:07.125000,72.1,65.48
190565,2018-06-29 10:24:07.156250,65.23,65.48
190566,2018-06-29 10:24:07.187500,51.09,65.48
190567,2018-06-29 10:24:07.218750,31.53,65.48
190568,2018-06-29 10:24:07.250000,6.16,65.48
190569,2018-06-29 10:24:07.281250,-23.98,65.48
190570,2018-06-29 10:24:07.312500,-54.83,65.48
190571,2018-06-29 10:24:07.343750,-78.46,65.48
190572,2018-06-29 10:24:07.375000,-86.37,65.48
190573,2018-06-29 10:24:07.406250,-76.88,65.48
190574,2018-06-29 10:24:07.437500,-57.4,65.48
190575,2018-06-29 10:24:07.468750,-37.66,65.48
190576,2018-06-29 10:24:07.500000,-22.57,65.48
190577,2018-06-29 10:24:07.531250,-11.98,65.73
190578,2018-06-29 10:24:07.562500,-4.76,65.73
190579,2018-06-29 10:24:07.593750,-0.66,65.73
190580,2018-06-29 10:24:07.625000,1.43,65.73
190581,2018-06-29 10:24:07.656250,4.51,65.73
190582,2018-06-29 10:24:07.687500,10.75,65.73
190583,2018-06-29 10:24:07.718750,19.36,65.73
190584,2018-06-29 10:24:07.750000,27.46,65.73
190585,2018-06-29 10:24:07.781250,32.11,65.73
190586,2018-06-29 10:24:07.812500,31.93,65.73
190587,2018-06-29 10:24:07.843750,27.8,65.73
190588,2018-06-29 10:24:07.875000,21.79,65.73
190589,2018-06-29 10:24:07.906250,15.61,65.73
190590,2018-06-29 10:24:07.937500,10.28,65.73
190591,2018-06-29 10:24:07.968750,6.18,65.73
190592,2018-06-29 10:24:08.000000,2.79,65.73
190593,2018-06-29 10:24:08.031250,-0.71,65.73
190594,2018-06-29 10:24:08.062500,-4.74,65.73
190595,2018-06-29 10:24:08.093750,-9.51,65.73
190596,2018-06-29 10:24:08.125000,-15.21,65.73
190597,2018-06-29 10:24:08.156250,-21.84,65.73
190598,2018-06-29 10:24:08.187500,-28.78,65.73
190599,2018-06-29 10:24:08.218750,-34.69,65.73
190600,2018-06-29 10:24:08.250000,-38.7,65.73
190601,2018-06-29 10:24:08.281250,-42.74,65.73
190602,2018-06-29 10:24:08.312500,-50.81,65.73
190603,2018-06-29 10:24:08.343750,-63.89,65.73
190604,2018-06-29 10:24:08.375000,-75.25,65.73
190605,2018-06-29 10:24:08.406250,-73.89,65.73
190606,2018-06-29 10:24:08.437500,-54.95,65.73
190607,2018-06-29 10:24:08.468750,-24.35,65.73
190608,2018-06-29 10:24:08.500000,7.29,65.73
190609,2018-06-29 10:24:08.531250,32.73,66.0
190610,2018-06-29 10:24:08.562500,49.34,66.0
190611,2018-06-29 10:24:08.593750,57.01,66.0
190612,2018-06-29 10:24:08.625000,57.31,66.0
190613,2018-06-29 10:24:08.656250,53.14,66.0
190614,2018-06-29 10:24:08.687500,48.07,66.0
190615,2018-06-29 10:24:08.718750,44.84,66.0
190616,2018-06-29 10:24:08.750000,43.72,66.0
190617,2018-06-29 10:24:08.781250,43.6,66.0
190618,2018-06-29 10:24:08.812500,43.44,66.0
190619,2018-06-29 10:24:08.843750,41.7,66.0
190620,2018-06-29 10:24:08.875000,36.57,66.0
190621,2018-06-29 10:24:08.906250,28.27,66.0
190622,2018-06-29 10:24:08.937500,19.19,66.0
190623,2018-06-29 10:24:08.968750,11.17,66.0
190624,2018-06-29 10:24:09.000000,4.02,66.0
190625,2018-06-29 10:24:09.031250,-3.01,66.0
190626,2018-06-29 10:24:09.062500,-9.29,66.0
190627,2018-06-29 10:24:09.093750,-13.65,66.0
190628,2018-06-29 10:24:09.125000,-16.57,66.0
190629,2018-06-29 10:24:09.156250,-19.83,66.0
190630,2018-06-29 10:24:09.187500,-24.02,66.0
190631,2018-06-29 10:24:09.218750,-28.56,66.0
190632,2018-06-29 10:24:09.250000,-33.02,66.0
190633,2018-06-29 10:24:09.281250,-37.52,66.0
190634,2018-06-29 10:24:09.312500,-42.97,66.0
190635,2018-06-29 10:24:09.343750,-50.75,66.0
190636,2018-06-29 10:24:09.375000,-58.37,66.0
190637,2018-06-29 10:24:09.406250,-57.01,66.0
190638,2018-06-29 10:24:09.437500,-39.5,66.0
190639,2018-06-29 10:24:09.468750,-10.47,66.0
190640,2018-06-29 10:24:09.500000,17.54,66.0
190641,2018-06-29 10:24:09.531250,36.23,66.25
190642,2018-06-29 10:24:09.562500,44.8,66.25
190643,2018-06-29 10:24:09.593750,45.32,66.25
190644,2018-06-29 10:24:09.625000,40.65,66.25
190645,2018-06-29 10:24:09.656250,34.87,66.25
190646,2018-06-29 10:24:09.687500,31.51,66.25
190647,2018-06-29 10:24:09.718750,31.27,66.25
190648,2018-06-29 10:24:09.750000,32.26,66.25
190649,2018-06-29 10:24:09.781250,32.56,66.25
190650,2018-06-29 10:24:09.812500,31.68,66.25
190651,2018-06-29 10:24:09.843750,29.39,66.25
190652,2018-06-29 10:24:09.875000,24.58,66.25
190653,2018-06-29 10:24:09.906250,16.94,66.25
190654,2018-06-29 10:24:09.937500,7.97,66.25
190655,2018-06-29 10:24:09.968750,-0.45,66.25
190656,2018-06-29 10:24:10.000000,-7.83,66.25
190657,2018-06-29 10:24:10.031250,-15.37,66.25
190658,2018-06-29 10:24:10.062500,-24.48,66.25
190659,2018-06-29 10:24:10.093750,-34.43,66.25
190660,2018-06-29 10:24:10.125000,-42.8,66.25
190661,2018-06-29 10:24:10.156250,-49.07,66.25
190662,2018-06-29 10:24:10.187500,-55.91,66.25
190663,2018-06-29 10:24:10.218750,-66.47,66.25
190664,2018-06-29 10:24:10.250000,-80.23,66.25
190665,2018-06-29 10:24:10.281250,-89.6,66.25
190666,2018-06-29 10:24:10.312500,-82.95,66.25
190667,2018-06-29 10:24:10.343750,-56.28,66.25
190668,2018-06-29 10:24:10.375000,-19.33,66.25
190669,2018-06-29 10:24:10.406250,13.71,66.25
190670,2018-06-29 10:24:10.437500,36.06,66.25
190671,2018-06-29 10:24:10.468750,48.84,66.25
190672,2018-06-29 10:24:10.500000,55.0,66.25
190673,2018-06-29 10:24:10.531250,56.17,66.58
190674,2018-06-29 10:24:10.562500,53.81,66.58
190675,2018-06-29 10:24:10.593750,50.41,66.58
190676,2018-06-29 10:24:10.625000,48.31,66.58
190677,2018-06-29 10:24:10.656250,48.08,66.58
190678,2018-06-29 10:24:10.687500,48.45,66.58
190679,2018-06-29 10:24:10.718750,47.8,66.58
190680,2018-06-29 10:24:10.750000,44.98,66.58
190681,2018-06-29 10:24:10.781250,39.68,66.58
190682,2018-06-29 10:24:10.812500,32.49,66.58
190683,2018-06-29 10:24:10.843750,24.51,66.58
190684,2018-06-29 10:24:10.875000,16.73,66.58
190685,2018-06-29 10:24:10.906250,9.61,66.58
190686,2018-06-29 10:24:10.937500,2.58,66.58
190687,2018-06-29 10:24:10.968750,-6.35,66.58
190688,2018-06-29 10:24:11.000000,-19.01,66.58
190689,2018-06-29 10:24:11.031250,-35.36,66.58
190690,2018-06-29 10:24:11.062500,-54.51,66.58
190691,2018-06-29 10:24:11.093750,-75.22,66.58
190692,2018-06-29 10:24:11.125000,-95.02,66.58
190693,2018-06-29 10:24:11.156250,-109.91,66.58
190694,2018-06-29 10:24:11.187500,-113.45,66.58
190695,2018-06-29 10:24:11.218750,-97.74,66.58
190696,2018-06-29 10:24:11.250000,-62.14,66.58
190697,2018-06-29 10:24:11.281250,-18.83,66.58
190698,2018-06-29 10:24:11.312500,17.1,66.58
190699,2018-06-29 10:24:11.343750,40.26,66.58
190700,2018-06-29 10:24:11.375000,53.37,66.58
190701,2018-06-29 10:24:11.406250,59.64,66.58
190702,2018-06-29 10:24:11.437500,61.09,66.58
190703,2018-06-29 10:24:11.468750,60.21,66.58
190704,2018-06-29 10:24:11.500000,59.5,66.58
190705,2018-06-29 10:24:11.531250,59.86,66.93
190706,2018-06-29 10:24:11.562500,60.79,66.93
190707,2018-06-29 10:24:11.593750,61.57,66.93
190708,2018-06-29 10:24:11.625000,61.22,66.93
190709,2018-06-29 10:24:11.656250,58.0,66.93
190710,2018-06-29 10:24:11.687500,50.95,66.93
190711,2018-06-29 10:24:11.718750,41.19,66.93
190712,2018-06-29 10:24:11.750000,30.2,66.93
190713,2018-06-29 10:24:11.781250,18.22,66.93
190714,2018-06-29 10:24:11.812500,5.1,66.93
190715,2018-06-29 10:24:11.843750,-8.48,66.93
190716,2018-06-29 10:24:11.875000,-21.41,66.93
190717,2018-06-29 10:24:11.906250,-32.7,66.93
190718,2018-06-29 10:24:11.937500,-41.55,66.93
190719,2018-06-29 10:24:11.968750,-47.97,66.93
190720,2018-06-29 10:24:12.000000,-53.4,66.93
190721,2018-06-29 10:24:12.031250,-60.55,66.93
190722,2018-06-29 10:24:12.062500,-71.71,66.93
190723,2018-06-29 10:24:12.093750,-84.19,66.93
190724,2018-06-29 10:24:12.125000,-87.8,66.93
190725,2018-06-29 10:24:12.156250,-72.32,66.93
190726,2018-06-29 10:24:12.187500,-39.13,66.93
190727,2018-06-29 10:24:12.218750,-1.07,66.93
190728,2018-06-29 10:24:12.250000,29.47,66.93
190729,2018-06-29 10:24:12.281250,48.21,66.93
190730,2018-06-29 10:24:12.312500,56.45,66.93
190731,2018-06-29 10:24:12.343750,56.58,66.93
190732,2018-06-29 10:24:12.375000,51.8,66.93
190733,2018-06-29 10:24:12.406250,46.46,66.93
190734,2018-06-29 10:24:12.437500,42.91,66.93
190735,2018-06-29 10:24:12.468750,40.14,66.93
190736,2018-06-29 10:24:12.500000,37.24,66.93
190737,2018-06-29 10:24:12.531250,35.14,67.25
190738,2018-06-29 10:24:12.562500,32.97,67.25
190739,2018-06-29 10:24:12.593750,27.52,67.25
190740,2018-06-29 10:24:12.625000,17.9,67.25
190741,2018-06-29 10:24:12.656250,7.04,67.25
190742,2018-06-29 10:24:12.687500,-2.1,67.25
190743,2018-06-29 10:24:12.718750,-9.56,67.25
190744,2018-06-29 10:24:12.750000,-17.41,67.25
190745,2018-06-29 10:24:12.781250,-26.52,67.25
190746,2018-06-29 10:24:12.812500,-35.24,67.25
190747,2018-06-29 10:24:12.843750,-41.63,67.25
190748,2018-06-29 10:24:12.875000,-46.35,67.25
190749,2018-06-29 10:24:12.906250,-52.53,67.25
190750,2018-06-29 10:24:12.937500,-61.86,67.25
190751,2018-06-29 10:24:12.968750,-69.24,67.25
190752,2018-06-29 10:24:13.000000,-63.68,67.25
190753,2018-06-29 10:24:13.031250,-39.69,67.25
190754,2018-06-29 10:24:13.062500,-5.32,67.25
190755,2018-06-29 10:24:13.093750,25.31,67.25
190756,2018-06-29 10:24:13.125000,44.23,67.25
190757,2018-06-29 10:24:13.156250,51.26,67.25
190758,2018-06-29 10:24:13.187500,48.8,67.25
190759,2018-06-29 10:24:13.218750,40.42,67.25
190760,2018-06-29 10:24:13.250000,31.6,67.25
190761,2018-06-29 10:24:13.281250,27.05,67.25
190762,2018-06-29 10:24:13.312500,26.91,67.25
190763,2018-06-29 10:24:13.343750,27.53,67.25
190764,2018-06-29 10:24:13.375000,25.81,67.25
190765,2018-06-29 10:24:13.406250,21.01,67.25
190766,2018-06-29 10:24:13.437500,13.16,67.25
190767,2018-06-29 10:24:13.468750,1.91,67.25
190768,2018-06-29 10:24:13.500000,-13.62,67.25
190769,2018-06-29 10:24:13.531250,-34.56,67.58
190770,2018-06-29 10:24:13.562500,-59.19,67.58
190771,2018-06-29 10:24:13.593750,-81.2,67.58
190772,2018-06-29 10:24:13.625000,-95.29,67.58
190773,2018-06-29 10:24:13.656250,-102.04,67.58
190774,2018-06-29 10:24:13.687500,-103.66,67.58
190775,2018-06-29 10:24:13.718750,-98.79,67.58
190776,2018-06-29 10:24:13.750000,-82.98,67.58
190777,2018-06-29 10:24:13.781250,-52.19,67.58
190778,2018-06-29 10:24:13.812500,-8.67,67.58
190779,2018-06-29 10:24:13.843750,35.86,67.58
190780,2018-06-29 10:24:13.875000,68.16,67.58
190781,2018-06-29 10:24:13.906250,84.41,67.58
190782,2018-06-29 10:24:13.937500,88.15,67.58
190783,2018-06-29 10:24:13.968750,80.15,67.58
190784,2018-06-29 10:24:14.000000,59.14,67.58
190785,2018-06-29 10:24:14.031250,32.57,67.58
190786,2018-06-29 10:24:14.062500,16.7,67.58
190787,2018-06-29 10:24:14.093750,20.8,67.58
190788,2018-06-29 10:24:14.125000,40.03,67.58
190789,2018-06-29 10:24:14.156250,68.33,67.58
190790,2018-06-29 10:24:14.187500,107.15,67.58
190791,2018-06-29 10:24:14.218750,156.56,67.58
190792,2018-06-29 10:24:14.250000,206.65,67.58
190793,2018-06-29 10:24:14.281250,240.94,67.58
190794,2018-06-29 10:24:14.312500,244.47,67.58
190795,2018-06-29 10:24:14.343750,211.34,67.58
190796,2018-06-29 10:24:14.375000,148.42,67.58
190797,2018-06-29 10:24:14.406250,70.89,67.58
190798,2018-06-29 10:24:14.437500,-8.33,67.58
190799,2018-06-29 10:24:14.468750,-84.62,67.58
190800,2018-06-29 10:24:14.500000,-155.69,67.58
190801,2018-06-29 10:24:14.531250,-212.8,67.8
190802,2018-06-29 10:24:14.562500,-246.54,67.8
190803,2018-06-29 10:24:14.593750,-259.09,67.8
190804,2018-06-29 10:24:14.625000,-259.17,67.8
190805,2018-06-29 10:24:14.656250,-248.16,67.8
190806,2018-06-29 10:24:14.687500,-217.3,67.8
190807,2018-06-29 10:24:14.718750,-161.5,67.8
190808,2018-06-29 10:24:14.750000,-88.49,67.8
190809,2018-06-29 10:24:14.781250,-16.77,67.8
190810,2018-06-29 10:24:14.812500,35.81,67.8
190811,2018-06-29 10:24:14.843750,61.32,67.8
190812,2018-06-29 10:24:14.875000,63.55,67.8
190813,2018-06-29 10:24:14.906250,54.8,67.8
190814,2018-06-29 10:24:14.937500,45.71,67.8
190815,2018-06-29 10:24:14.968750,43.17,67.8
190816,2018-06-29 10:24:15.000000,43.11,67.8
190817,2018-06-29 10:24:15.031250,42.19,67.8
190818,2018-06-29 10:24:15.062500,39.1,67.8
190819,2018-06-29 10:24:15.093750,36.92,67.8
190820,2018-06-29 10:24:15.125000,36.72,67.8
190821,2018-06-29 10:24:15.156250,33.09,67.8
190822,2018-06-29 10:24:15.187500,31.56,67.8
190823,2018-06-29 10:24:15.218750,36.27,67.8
190824,2018-06-29 10:24:15.250000,53.39,67.8
190825,2018-06-29 10:24:15.281250,66.05,67.8
190826,2018-06-29 10:24:15.312500,71.35,67.8
190827,2018-06-29 10:24:15.343750,82.61,67.8
190828,2018-06-29 10:24:15.375000,119.48,67.8
190829,2018-06-29 10:24:15.406250,179.91,67.8
190830,2018-06-29 10:24:15.437500,237.35,67.8
190831,2018-06-29 10:24:15.468750,285.06,67.8
190832,2018-06-29 10:24:15.500000,251.69,67.8
190833,2018-06-29 10:24:15.531250,126.5,68.05
190834,2018-06-29 10:24:15.562500,13.47,68.05
190835,2018-06-29 10:24:15.593750,-99.46,68.05
190836,2018-06-29 10:24:15.625000,-204.81,68.05
190837,2018-06-29 10:24:15.656250,-274.84,68.05
190838,2018-06-29 10:24:15.687500,-306.5,68.05
190839,2018-06-29 10:24:15.718750,-317.68,68.05
190840,2018-06-29 10:24:15.750000,-308.48,68.05
190841,2018-06-29 10:24:15.781250,-268.63,68.05
190842,2018-06-29 10:24:15.812500,-155.6,68.05
190843,2018-06-29 10:24:15.843750,-41.54,68.05
190844,2018-06-29 10:24:15.875000,27.71,68.05
190845,2018-06-29 10:24:15.906250,67.75,68.05
190846,2018-06-29 10:24:15.937500,96.7,68.05
190847,2018-06-29 10:24:15.968750,109.67,68.05
190848,2018-06-29 10:24:16.000000,110.0,68.05
190849,2018-06-29 10:24:16.031250,112.4,68.05
190850,2018-06-29 10:24:16.062500,111.97,68.05
190851,2018-06-29 10:24:16.093750,102.42,68.05
190852,2018-06-29 10:24:16.125000,79.84,68.05
190853,2018-06-29 10:24:16.156250,50.41,68.05
190854,2018-06-29 10:24:16.187500,15.86,68.05
190855,2018-06-29 10:24:16.218750,-21.2,68.05
190856,2018-06-29 10:24:16.250000,-56.01,68.05
190857,2018-06-29 10:24:16.281250,-79.24,68.05
190858,2018-06-29 10:24:16.312500,-87.1,68.05
190859,2018-06-29 10:24:16.343750,-82.74,68.05
190860,2018-06-29 10:24:16.375000,-70.52,68.05
190861,2018-06-29 10:24:16.406250,-52.42,68.05
190862,2018-06-29 10:24:16.437500,-29.13,68.05
190863,2018-06-29 10:24:16.468750,-4.62,68.05
190864,2018-06-29 10:24:16.500000,16.9,68.05
190865,2018-06-29 10:24:16.531250,33.04,68.28
190866,2018-06-29 10:24:16.562500,45.08,68.28
190867,2018-06-29 10:24:16.593750,54.26,68.28
190868,2018-06-29 10:24:16.625000,61.11,68.28
190869,2018-06-29 10:24:16.656250,65.8,68.28
190870,2018-06-29 10:24:16.687500,66.7,68.28
190871,2018-06-29 10:24:16.718750,61.68,68.28
190872,2018-06-29 10:24:16.750000,51.71,68.28
190873,2018-06-29 10:24:16.781250,40.0,68.28
190874,2018-06-29 10:24:16.812500,28.54,68.28
190875,2018-06-29 10:24:16.843750,17.61,68.28
190876,2018-06-29 10:24:16.875000,6.75,68.28
190877,2018-06-29 10:24:16.906250,-4.31,68.28
190878,2018-06-29 10:24:16.937500,-14.73,68.28
190879,2018-06-29 10:24:16.968750,-23.55,68.28
190880,2018-06-29 10:24:17.000000,-31.52,68.28
190881,2018-06-29 10:24:17.031250,-39.74,68.28
190882,2018-06-29 10:24:17.062500,-47.67,68.28
190883,2018-06-29 10:24:17.093750,-54.38,68.28
190884,2018-06-29 10:24:17.125000,-60.37,68.28
190885,2018-06-29 10:24:17.156250,-66.51,68.28
190886,2018-06-29 10:24:17.187500,-71.99,68.28
190887,2018-06-29 10:24:17.218750,-74.58,68.28
190888,2018-06-29 10:24:17.250000,-73.63,68.28
190889,2018-06-29 10:24:17.281250,-72.2,68.28
190890,2018-06-29 10:24:17.312500,-74.66,68.28
190891,2018-06-29 10:24:17.343750,-80.42,68.28
190892,2018-06-29 10:24:17.375000,-81.03,68.28
190893,2018-06-29 10:24:17.406250,-67.07,68.28
190894,2018-06-29 10:24:17.437500,-39.03,68.28
190895,2018-06-29 10:24:17.468750,-6.81,68.28
190896,2018-06-29 10:24:17.500000,21.07,68.28
190897,2018-06-29 10:24:17.531250,42.81,68.5
190898,2018-06-29 10:24:17.562500,59.34,68.5
190899,2018-06-29 10:24:17.593750,70.89,68.5
190900,2018-06-29 10:24:17.625000,77.65,68.5
190901,2018-06-29 10:24:17.656250,80.2,68.5
190902,2018-06-29 10:24:17.687500,79.84,68.5
190903,2018-06-29 10:24:17.718750,78.72,68.5
190904,2018-06-29 10:24:17.750000,78.78,68.5
190905,2018-06-29 10:24:17.781250,80.08,68.5
190906,2018-06-29 10:24:17.812500,80.55,68.5
190907,2018-06-29 10:24:17.843750,78.1,68.5
190908,2018-06-29 10:24:17.875000,73.47,68.5
190909,2018-06-29 10:24:17.906250,69.42,68.5
190910,2018-06-29 10:24:17.937500,66.93,68.5
190911,2018-06-29 10:24:17.968750,64.35,68.5
190912,2018-06-29 10:24:18.000000,60.6,68.5
190913,2018-06-29 10:24:18.031250,56.21,68.5
190914,2018-06-29 10:24:18.062500,50.83,68.5
190915,2018-06-29 10:24:18.093750,41.2,68.5
190916,2018-06-29 10:24:18.125000,23.13,68.5
190917,2018-06-29 10:24:18.156250,-4.06,68.5
190918,2018-06-29 10:24:18.187500,-34.77,68.5
190919,2018-06-29 10:24:18.218750,-60.08,68.5
190920,2018-06-29 10:24:18.250000,-75.53,68.5
190921,2018-06-29 10:24:18.281250,-84.5,68.5
190922,2018-06-29 10:24:18.312500,-91.19,68.5
190923,2018-06-29 10:24:18.343750,-92.99,68.5
190924,2018-06-29 10:24:18.375000,-84.03,68.5
190925,2018-06-29 10:24:18.406250,-64.44,68.5
190926,2018-06-29 10:24:18.437500,-42.43,68.5
190927,2018-06-29 10:24:18.468750,-28.25,68.5
190928,2018-06-29 10:24:18.500000,-28.07,68.5
190929,2018-06-29 10:24:18.531250,-41.02,68.5
190930,2018-06-29 10:24:18.562500,-58.59,68.5
190931,2018-06-29 10:24:18.593750,-68.2,68.5
190932,2018-06-29 10:24:18.625000,-62.85,68.5
190933,2018-06-29 10:24:18.656250,-47.27,68.5
190934,2018-06-29 10:24:18.687500,-31.1,68.5
190935,2018-06-29 10:24:18.718750,-18.18,68.5
190936,2018-06-29 10:24:18.750000,-6.77,68.5
190937,2018-06-29 10:24:18.781250,3.23,68.5
190938,2018-06-29 10:24:18.812500,8.94,68.5
190939,2018-06-29 10:24:18.843750,9.26,68.5
190940,2018-06-29 10:24:18.875000,7.68,68.5
190941,2018-06-29 10:24:18.906250,9.6,68.5
190942,2018-06-29 10:24:18.937500,17.59,68.5
190943,2018-06-29 10:24:18.968750,29.72,68.5
190944,2018-06-29 10:24:19.000000,42.01,68.5
190945,2018-06-29 10:24:19.031250,50.52,68.5
190946,2018-06-29 10:24:19.062500,52.75,68.5
190947,2018-06-29 10:24:19.093750,49.41,68.5
190948,2018-06-29 10:24:19.125000,43.48,68.5
190949,2018-06-29 10:24:19.156250,36.03,68.5
190950,2018-06-29 10:24:19.187500,25.4,68.5
190951,2018-06-29 10:24:19.218750,11.19,68.5
190952,2018-06-29 10:24:19.250000,-5.13,68.5
190953,2018-06-29 10:24:19.281250,-23.7,68.5
190954,2018-06-29 10:24:19.312500,-46.68,68.5
190955,2018-06-29 10:24:19.343750,-73.95,68.5
190956,2018-06-29 10:24:19.375000,-100.22,68.5
190957,2018-06-29 10:24:19.406250,-118.27,68.5
190958,2018-06-29 10:24:19.437500,-124.96,68.5
190959,2018-06-29 10:24:19.468750,-123.42,68.5
190960,2018-06-29 10:24:19.500000,-120.04,68.5
190961,2018-06-29 10:24:19.531250,-118.34,68.45
190962,2018-06-29 10:24:19.562500,-113.07,68.45
190963,2018-06-29 10:24:19.593750,-93.18,68.45
190964,2018-06-29 10:24:19.625000,-55.13,68.45
190965,2018-06-29 10:24:19.656250,-8.71,68.45
190966,2018-06-29 10:24:19.687500,34.15,68.45
190967,2018-06-29 10:24:19.718750,69.33,68.45
190968,2018-06-29 10:24:19.750000,96.22,68.45
190969,2018-06-29 10:24:19.781250,112.42,68.45
190970,2018-06-29 10:24:19.812500,116.89,68.45
190971,2018-06-29 10:24:19.843750,112.49,68.45
190972,2018-06-29 10:24:19.875000,103.18,68.45
190973,2018-06-29 10:24:19.906250,91.79,68.45
190974,2018-06-29 10:24:19.937500,81.81,68.45
190975,2018-06-29 10:24:19.968750,77.05,68.45
190976,2018-06-29 10:24:20.000000,77.68,68.45
190977,2018-06-29 10:24:20.031250,80.37,68.45
190978,2018-06-29 10:24:20.062500,83.78,68.45
190979,2018-06-29 10:24:20.093750,89.06,68.45
190980,2018-06-29 10:24:20.125000,95.13,68.45
190981,2018-06-29 10:24:20.156250,97.84,68.45
190982,2018-06-29 10:24:20.187500,92.98,68.45
190983,2018-06-29 10:24:20.218750,78.15,68.45
190984,2018-06-29 10:24:20.250000,54.53,68.45
190985,2018-06-29 10:24:20.281250,26.23,68.45
190986,2018-06-29 10:24:20.312500,-3.75,68.45
190987,2018-06-29 10:24:20.343750,-34.35,68.45
190988,2018-06-29 10:24:20.375000,-63.06,68.45
190989,2018-06-29 10:24:20.406250,-86.22,68.45
190990,2018-06-29 10:24:20.437500,-102.47,68.45
190991,2018-06-29 10:24:20.468750,-112.89,68.45
190992,2018-06-29 10:24:20.500000,-119.38,68.45
190993,2018-06-29 10:24:20.531250,-123.63,68.4
190994,2018-06-29 10:24:20.562500,-125.25,68.4
190995,2018-06-29 10:24:20.593750,-121.24,68.4
190996,2018-06-29 10:24:20.625000,-110.82,68.4
190997,2018-06-29 10:24:20.656250,-99.52,68.4
190998,2018-06-29 10:24:20.687500,-94.14,68.4
190999,2018-06-29 10:24:20.718750,-94.61,68.4
191000,2018-06-29 10:24:20.750000,-94.89,68.4
191001,2018-06-29 10:24:20.781250,-89.84,68.4
191002,2018-06-29 10:24:20.812500,-77.36,68.4
191003,2018-06-29 10:24:20.843750,-56.26,68.4
191004,2018-06-29 10:24:20.875000,-26.54,68.4
191005,2018-06-29 10:24:20.906250,8.96,68.4
191006,2018-06-29 10:24:20.937500,45.8,68.4
191007,2018-06-29 10:24:20.968750,80.49,68.4
191008,2018-06-29 10:24:21.000000,109.69,68.4
191009,2018-06-29 10:24:21.031250,129.21,68.4
191010,2018-06-29 10:24:21.062500,137.14,68.4
191011,2018-06-29 10:24:21.093750,136.98,68.4
191012,2018-06-29 10:24:21.125000,134.59,68.4
191013,2018-06-29 10:24:21.156250,132.69,68.4
191014,2018-06-29 10:24:21.187500,129.76,68.4
191015,2018-06-29 10:24:21.218750,122.84,68.4
191016,2018-06-29 10:24:21.250000,110.21,68.4
191017,2018-06-29 10:24:21.281250,91.68,68.4
191018,2018-06-29 10:24:21.312500,67.14,68.4
191019,2018-06-29 10:24:21.343750,36.38,68.4
191020,2018-06-29 10:24:21.375000,1.62,68.4
191021,2018-06-29 10:24:21.406250,-31.74,68.4
191022,2018-06-29 10:24:21.437500,-59.39,68.4
191023,2018-06-29 10:24:21.468750,-81.81,68.4
191024,2018-06-29 10:24:21.500000,-101.97,68.4
191025,2018-06-29 10:24:21.531250,-120.61,68.33
191026,2018-06-29 10:24:21.562500,-133.24,68.33
191027,2018-06-29 10:24:21.593750,-131.07,68.33
191028,2018-06-29 10:24:21.625000,-110.22,68.33
191029,2018-06-29 10:24:21.656250,-78.83,68.33
191030,2018-06-29 10:24:21.687500,-49.26,68.33
191031,2018-06-29 10:24:21.718750,-25.94,68.33
191032,2018-06-29 10:24:21.750000,-7.07,68.33
191033,2018-06-29 10:24:21.781250,7.36,68.33
191034,2018-06-29 10:24:21.812500,16.19,68.33
191035,2018-06-29 10:24:21.843750,20.73,68.33
191036,2018-06-29 10:24:21.875000,23.4,68.33
191037,2018-06-29 10:24:21.906250,25.58,68.33
191038,2018-06-29 10:24:21.937500,28.47,68.33
191039,2018-06-29 10:24:21.968750,32.84,68.33
191040,2018-06-29 10:24:22.000000,37.1,68.33
191041,2018-06-29 10:24:22.031250,38.12,68.33
191042,2018-06-29 10:24:22.062500,34.98,68.33
191043,2018-06-29 10:24:22.093750,29.84,68.33
191044,2018-06-29 10:24:22.125000,25.82,68.33
191045,2018-06-29 10:24:22.156250,24.9,68.33
191046,2018-06-29 10:24:22.187500,26.04,68.33
191047,2018-06-29 10:24:22.218750,25.62,68.33
191048,2018-06-29 10:24:22.250000,22.12,68.33
191049,2018-06-29 10:24:22.281250,16.83,68.33
191050,2018-06-29 10:24:22.312500,8.53,68.33
191051,2018-06-29 10:24:22.343750,-5.88,68.33
191052,2018-06-29 10:24:22.375000,-25.69,68.33
191053,2018-06-29 10:24:22.406250,-46.54,68.33
191054,2018-06-29 10:24:22.437500,-65.07,68.33
191055,2018-06-29 10:24:22.468750,-80.84,68.33
191056,2018-06-29 10:24:22.500000,-94.05,68.33
191057,2018-06-29 10:24:22.531250,-99.86,68.25
191058,2018-06-29 10:24:22.562500,-88.8,68.25
191059,2018-06-29 10:24:22.593750,-59.1,68.25
191060,2018-06-29 10:24:22.625000,-22.16,68.25
191061,2018-06-29 10:24:22.656250,8.95,68.25
191062,2018-06-29 10:24:22.687500,29.29,68.25
191063,2018-06-29 10:24:22.718750,38.98,68.25
191064,2018-06-29 10:24:22.750000,39.16,68.25
191065,2018-06-29 10:24:22.781250,33.45,68.25
191066,2018-06-29 10:24:22.812500,27.49,68.25
191067,2018-06-29 10:24:22.843750,25.13,68.25
191068,2018-06-29 10:24:22.875000,27.01,68.25
191069,2018-06-29 10:24:22.906250,32.53,68.25
191070,2018-06-29 10:24:22.937500,41.2,68.25
191071,2018-06-29 10:24:22.968750,51.3,68.25
191072,2018-06-29 10:24:23.000000,59.39,68.25
191073,2018-06-29 10:24:23.031250,62.62,68.25
191074,2018-06-29 10:24:23.062500,61.51,68.25
191075,2018-06-29 10:24:23.093750,58.92,68.25
191076,2018-06-29 10:24:23.125000,55.47,68.25
191077,2018-06-29 10:24:23.156250,48.07,68.25
191078,2018-06-29 10:24:23.187500,34.61,68.25
191079,2018-06-29 10:24:23.218750,17.64,68.25
191080,2018-06-29 10:24:23.250000,0.13,68.25
191081,2018-06-29 10:24:23.281250,-18.73,68.25
191082,2018-06-29 10:24:23.312500,-40.64,68.25
191083,2018-06-29 10:24:23.343750,-65.51,68.25
191084,2018-06-29 10:24:23.375000,-91.6,68.25
191085,2018-06-29 10:24:23.406250,-111.29,68.25
191086,2018-06-29 10:24:23.437500,-111.6,68.25
191087,2018-06-29 10:24:23.468750,-89.11,68.25
191088,2018-06-29 10:24:23.500000,-57.34,68.25
191089,2018-06-29 10:24:23.531250,-31.71,68.18
191090,2018-06-29 10:24:23.562500,-15.9,68.18
191091,2018-06-29 10:24:23.593750,-6.47,68.18
191092,2018-06-29 10:24:23.625000,0.35,68.18
191093,2018-06-29 10:24:23.656250,9.75,68.18
191094,2018-06-29 10:24:23.687500,26.19,68.18
191095,2018-06-29 10:24:23.718750,47.28,68.18
191096,2018-06-29 10:24:23.750000,64.4,68.18
191097,2018-06-29 10:24:23.781250,70.59,68.18
191098,2018-06-29 10:24:23.812500,65.71,68.18
191099,2018-06-29 10:24:23.843750,53.98,68.18
191100,2018-06-29 10:24:23.875000,39.1,68.18
191101,2018-06-29 10:24:23.906250,22.52,68.18
191102,2018-06-29 10:24:23.937500,4.95,68.18
191103,2018-06-29 10:24:23.968750,-11.78,68.18
191104,2018-06-29 10:24:24.000000,-25.54,68.18
191105,2018-06-29 10:24:24.031250,-36.27,68.18
191106,2018-06-29 10:24:24.062500,-46.34,68.18
191107,2018-06-29 10:24:24.093750,-58.96,68.18
191108,2018-06-29 10:24:24.125000,-76.43,68.18
191109,2018-06-29 10:24:24.156250,-96.17,68.18
191110,2018-06-29 10:24:24.187500,-107.38,68.18
191111,2018-06-29 10:24:24.218750,-99.86,68.18
191112,2018-06-29 10:24:24.250000,-76.51,68.18
191113,2018-06-29 10:24:24.281250,-48.4,68.18
191114,2018-06-29 10:24:24.312500,-20.03,68.18
191115,2018-06-29 10:24:24.343750,10.26,68.18
191116,2018-06-29 10:24:24.375000,39.46,68.18
191117,2018-06-29 10:24:24.406250,61.26,68.18
191118,2018-06-29 10:24:24.437500,75.7,68.18
191119,2018-06-29 10:24:24.468750,88.99,68.18
191120,2018-06-29 10:24:24.500000,104.74,68.18
191121,2018-06-29 10:24:24.531250,121.42,68.13
191122,2018-06-29 10:24:24.562500,137.75,68.13
191123,2018-06-29 10:24:24.593750,153.68,68.13
191124,2018-06-29 10:24:24.625000,164.35,68.13
191125,2018-06-29 10:24:24.656250,159.14,68.13
191126,2018-06-29 10:24:24.687500,130.94,68.13
191127,2018-06-29 10:24:24.718750,84.29,68.13
191128,2018-06-29 10:24:24.750000,31.44,68.13
191129,2018-06-29 10:24:24.781250,-17.36,68.13
191130,2018-06-29 10:24:24.812500,-57.01,68.13
191131,2018-06-29 10:24:24.843750,-86.93,68.13
191132,2018-06-29 10:24:24.875000,-111.35,68.13
191133,2018-06-29 10:24:24.906250,-131.09,68.13
191134,2018-06-29 10:24:24.937500,-133.08,68.13
191135,2018-06-29 10:24:24.968750,-103.52,68.13
191136,2018-06-29 10:24:25.000000,-50.55,68.13
191137,2018-06-29 10:24:25.031250,2.19,68.13
191138,2018-06-29 10:24:25.062500,39.46,68.13
191139,2018-06-29 10:24:25.093750,58.53,68.13
191140,2018-06-29 10:24:25.125000,60.74,68.13
191141,2018-06-29 10:24:25.156250,51.4,68.13
191142,2018-06-29 10:24:25.187500,38.33,68.13
191143,2018-06-29 10:24:25.218750,24.55,68.13
191144,2018-06-29 10:24:25.250000,8.72,68.13
191145,2018-06-29 10:24:25.281250,-9.46,68.13
191146,2018-06-29 10:24:25.312500,-31.23,68.13
191147,2018-06-29 10:24:25.343750,-61.75,68.13
191148,2018-06-29 10:24:25.375000,-103.62,68.13
191149,2018-06-29 10:24:25.406250,-151.32,68.13
191150,2018-06-29 10:24:25.437500,-196.62,68.13
191151,2018-06-29 10:24:25.468750,-232.82,68.13
191152,2018-06-29 10:24:25.500000,-251.95,68.13
191153,2018-06-29 10:24:25.531250,-246.65,68.0
191154,2018-06-29 10:24:25.562500,-218.56,68.0
191155,2018-06-29 10:24:25.593750,-181.45,68.0
191156,2018-06-29 10:24:25.625000,-154.19,68.0
191157,2018-06-29 10:24:25.656250,-150.09,68.0
191158,2018-06-29 10:24:25.687500,-168.16,68.0
191159,2018-06-29 10:24:25.718750,-191.24,68.0
191160,2018-06-29 10:24:25.750000,-196.29,68.0
191161,2018-06-29 10:24:25.781250,-171.76,68.0
191162,2018-06-29 10:24:25.812500,-122.66,68.0
191163,2018-06-29 10:24:25.843750,-57.63,68.0
191164,2018-06-29 10:24:25.875000,16.6,68.0
191165,2018-06-29 10:24:25.906250,85.18,68.0
191166,2018-06-29 10:24:25.937500,125.58,68.0
191167,2018-06-29 10:24:25.968750,124.22,68.0
191168,2018-06-29 10:24:26.000000,88.44,68.0
191169,2018-06-29 10:24:26.031250,42.54,68.0
191170,2018-06-29 10:24:26.062500,11.97,68.0
191171,2018-06-29 10:24:26.093750,7.81,68.0
191172,2018-06-29 10:24:26.125000,26.74,68.0
191173,2018-06-29 10:24:26.156250,59.9,68.0
191174,2018-06-29 10:24:26.187500,94.77,68.0
191175,2018-06-29 10:24:26.218750,120.83,68.0
191176,2018-06-29 10:24:26.250000,140.85,68.0
191177,2018-06-29 10:24:26.281250,164.1,68.0
191178,2018-06-29 10:24:26.312500,186.39,68.0
191179,2018-06-29 10:24:26.343750,195.43,68.0
191180,2018-06-29 10:24:26.375000,194.72,68.0
191181,2018-06-29 10:24:26.406250,197.41,68.0
191182,2018-06-29 10:24:26.437500,197.41,68.0
191183,2018-06-29 10:24:26.468750,174.01,68.0
191184,2018-06-29 10:24:26.500000,124.17,68.0
191185,2018-06-29 10:24:26.531250,66.26,67.8
191186,2018-06-29 10:24:26.562500,14.93,67.8
191187,2018-06-29 10:24:26.593750,-27.84,67.8
191188,2018-06-29 10:24:26.625000,-63.87,67.8
191189,2018-06-29 10:24:26.656250,-96.79,67.8
191190,2018-06-29 10:24:26.687500,-129.28,67.8
191191,2018-06-29 10:24:26.718750,-153.3,67.8
191192,2018-06-29 10:24:26.750000,-155.78,67.8
191193,2018-06-29 10:24:26.781250,-137.42,67.8
191194,2018-06-29 10:24:26.812500,-110.98,67.8
191195,2018-06-29 10:24:26.843750,-82.57,67.8
191196,2018-06-29 10:24:26.875000,-50.26,67.8
191197,2018-06-29 10:24:26.906250,-16.7,67.8
191198,2018-06-29 10:24:26.937500,10.63,67.8
191199,2018-06-29 10:24:26.968750,29.24,67.8
191200,2018-06-29 10:24:27.000000,42.84,67.8
191201,2018-06-29 10:24:27.031250,53.95,67.8
191202,2018-06-29 10:24:27.062500,62.55,67.8
191203,2018-06-29 10:24:27.093750,71.26,67.8
191204,2018-06-29 10:24:27.125000,85.48,67.8
191205,2018-06-29 10:24:27.156250,106.82,67.8
191206,2018-06-29 10:24:27.187500,131.22,67.8
191207,2018-06-29 10:24:27.218750,151.81,67.8
191208,2018-06-29 10:24:27.250000,160.72,67.8
191209,2018-06-29 10:24:27.281250,152.34,67.8
191210,2018-06-29 10:24:27.312500,128.87,67.8
191211,2018-06-29 10:24:27.343750,99.62,67.8
191212,2018-06-29 10:24:27.375000,73.07,67.8
191213,2018-06-29 10:24:27.406250,52.69,67.8
191214,2018-06-29 10:24:27.437500,39.7,67.8
191215,2018-06-29 10:24:27.468750,34.04,67.8
191216,2018-06-29 10:24:27.500000,32.04,67.8
191217,2018-06-29 10:24:27.531250,27.6,67.62
191218,2018-06-29 10:24:27.562500,18.47,67.62
191219,2018-06-29 10:24:27.593750,8.81,67.62
191220,2018-06-29 10:24:27.625000,3.19,67.62
191221,2018-06-29 10:24:27.656250,-0.63,67.62
191222,2018-06-29 10:24:27.687500,-10.95,67.62
191223,2018-06-29 10:24:27.718750,-31.94,67.62
191224,2018-06-29 10:24:27.750000,-50.96,67.62
191225,2018-06-29 10:24:27.781250,-41.35,67.62
191226,2018-06-29 10:24:27.812500,10.34,67.62
191227,2018-06-29 10:24:27.843750,85.38,67.62
191228,2018-06-29 10:24:27.875000,153.96,67.62
191229,2018-06-29 10:24:27.906250,205.1,67.62
191230,2018-06-29 10:24:27.937500,240.34,67.62
191231,2018-06-29 10:24:27.968750,252.31,67.62
191232,2018-06-29 10:24:28.000000,230.23,67.62
191233,2018-06-29 10:24:28.031250,177.08,67.62
191234,2018-06-29 10:24:28.062500,110.16,67.62
191235,2018-06-29 10:24:28.093750,52.04,67.62
191236,2018-06-29 10:24:28.125000,22.13,67.62
191237,2018-06-29 10:24:28.156250,24.5,67.62
191238,2018-06-29 10:24:28.187500,42.7,67.62
191239,2018-06-29 10:24:28.218750,51.88,67.62
191240,2018-06-29 10:24:28.250000,33.61,67.62
191241,2018-06-29 10:24:28.281250,-16.8,67.62
191242,2018-06-29 10:24:28.312500,-85.72,67.62
191243,2018-06-29 10:24:28.343750,-146.27,67.62
191244,2018-06-29 10:24:28.375000,-176.24,67.62
191245,2018-06-29 10:24:28.406250,-171.69,67.62
191246,2018-06-29 10:24:28.437500,-144.42,67.62
191247,2018-06-29 10:24:28.468750,-113.18,67.62
191248,2018-06-29 10:24:28.500000,-94.4,67.62
191249,2018-06-29 10:24:28.531250,-93.98,67.45
191250,2018-06-29 10:24:28.562500,-104.08,67.45
191251,2018-06-29 10:24:28.593750,-108.44,67.45
191252,2018-06-29 10:24:28.625000,-96.43,67.45
191253,2018-06-29 10:24:28.656250,-72.72,67.45
191254,2018-06-29 10:24:28.687500,-47.43,67.45
191255,2018-06-29 10:24:28.718750,-20.17,67.45
191256,2018-06-29 10:24:28.750000,12.19,67.45
191257,2018-06-29 10:24:28.781250,38.95,67.45
191258,2018-06-29 10:24:28.812500,45.93,67.45
191259,2018-06-29 10:24:28.843750,35.25,67.45
191260,2018-06-29 10:24:28.875000,19.17,67.45
191261,2018-06-29 10:24:28.906250,4.99,67.45
191262,2018-06-29 10:24:28.937500,-4.22,67.45
191263,2018-06-29 10:24:28.968750,-6.26,67.45
191264,2018-06-29 10:24:29.000000,-4.13,67.45
191265,2018-06-29 10:24:29.031250,-4.13,67.45
191266,2018-06-29 10:24:29.062500,-7.06,67.45
191267,2018-06-29 10:24:29.093750,-7.16,67.45
191268,2018-06-29 10:24:29.125000,-1.15,67.45
191269,2018-06-29 10:24:29.156250,6.97,67.45
191270,2018-06-29 10:24:29.187500,11.5,67.45
191271,2018-06-29 10:24:29.218750,10.91,67.45
191272,2018-06-29 10:24:29.250000,7.16,67.45
191273,2018-06-29 10:24:29.281250,3.15,67.45
191274,2018-06-29 10:24:29.312500,0.25,67.45
191275,2018-06-29 10:24:29.343750,-2.32,67.45
191276,2018-06-29 10:24:29.375000,-4.46,67.45
191277,2018-06-29 10:24:29.406250,-2.47,67.45
191278,2018-06-29 10:24:29.437500,8.37,67.45
191279,2018-06-29 10:24:29.468750,27.95,67.45
191280,2018-06-29 10:24:29.500000,48.56,67.45
191281,2018-06-29 10:24:29.531250,60.78,67.32
191282,2018-06-29 10:24:29.562500,61.97,67.32
191283,2018-06-29 10:24:29.593750,55.34,67.32
191284,2018-06-29 10:24:29.625000,41.64,67.32
191285,2018-06-29 10:24:29.656250,17.74,67.32
191286,2018-06-29 10:24:29.687500,-15.74,67.32
191287,2018-06-29 10:24:29.718750,-48.21,67.32
191288,2018-06-29 10:24:29.750000,-63.29,67.32
191289,2018-06-29 10:24:29.781250,-54.61,67.32
191290,2018-06-29 10:24:29.812500,-34.27,67.32
191291,2018-06-29 10:24:29.843750,-18.29,67.32
191292,2018-06-29 10:24:29.875000,-11.61,67.32
191293,2018-06-29 10:24:29.906250,-13.7,67.32
191294,2018-06-29 10:24:29.937500,-24.5,67.32
191295,2018-06-29 10:24:29.968750,-37.89,67.32
191296,2018-06-29 10:24:30.000000,-44.33,67.32
191297,2018-06-29 10:24:30.031250,-42.69,67.32
191298,2018-06-29 10:24:30.062500,-38.08,67.32
191299,2018-06-29 10:24:30.093750,-30.67,67.32
191300,2018-06-29 10:24:30.125000,-17.32,67.32
191301,2018-06-29 10:24:30.156250,-1.22,67.32
191302,2018-06-29 10:24:30.187500,9.67,67.32
191303,2018-06-29 10:24:30.218750,12.86,67.32
191304,2018-06-29 10:24:30.250000,13.45,67.32
191305,2018-06-29 10:24:30.281250,14.61,67.32
191306,2018-06-29 10:24:30.312500,11.04,67.32
191307,2018-06-29 10:24:30.343750,-4.6,67.32
191308,2018-06-29 10:24:30.375000,-30.83,67.32
191309,2018-06-29 10:24:30.406250,-58.19,67.32
191310,2018-06-29 10:24:30.437500,-80.28,67.32
191311,2018-06-29 10:24:30.468750,-98.62,67.32
191312,2018-06-29 10:24:30.500000,-117.12,67.32
191313,2018-06-29 10:24:30.531250,-136.04,67.2
191314,2018-06-29 10:24:30.562500,-149.75,67.2
191315,2018-06-29 10:24:30.593750,-147.67,67.2
191316,2018-06-29 10:24:30.625000,-122.43,67.2
191317,2018-06-29 10:24:30.656250,-79.92,67.2
191318,2018-06-29 10:24:30.687500,-36.38,67.2
191319,2018-06-29 10:24:30.718750,-4.26,67.2
191320,2018-06-29 10:24:30.750000,15.74,67.2
191321,2018-06-29 10:24:30.781250,29.69,67.2
191322,2018-06-29 10:24:30.812500,42.02,67.2
191323,2018-06-29 10:24:30.843750,53.44,67.2
191324,2018-06-29 10:24:30.875000,63.48,67.2
191325,2018-06-29 10:24:30.906250,72.31,67.2
191326,2018-06-29 10:24:30.937500,81.25,67.2
191327,2018-06-29 10:24:30.968750,93.21,67.2
191328,2018-06-29 10:24:31.000000,107.43,67.2
191329,2018-06-29 10:24:31.031250,113.52,67.2
191330,2018-06-29 10:24:31.062500,99.46,67.2
191331,2018-06-29 10:24:31.093750,66.64,67.2
191332,2018-06-29 10:24:31.125000,29.24,67.2
191333,2018-06-29 10:24:31.156250,-1.06,67.2
191334,2018-06-29 10:24:31.187500,-23.54,67.2
191335,2018-06-29 10:24:31.218750,-43.8,67.2
191336,2018-06-29 10:24:31.250000,-66.11,67.2
191337,2018-06-29 10:24:31.281250,-90.2,67.2
191338,2018-06-29 10:24:31.312500,-113.28,67.2
191339,2018-06-29 10:24:31.343750,-133.9,67.2
191340,2018-06-29 10:24:31.375000,-154.1,67.2
191341,2018-06-29 10:24:31.406250,-175.97,67.2
191342,2018-06-29 10:24:31.437500,-193.33,67.2
191343,2018-06-29 10:24:31.468750,-192.08,67.2
191344,2018-06-29 10:24:31.500000,-165.05,67.2
191345,2018-06-29 10:24:31.531250,-121.82,67.07
191346,2018-06-29 10:24:31.562500,-77.77,67.07
191347,2018-06-29 10:24:31.593750,-39.7,67.07
191348,2018-06-29 10:24:31.625000,-7.23,67.07
191349,2018-06-29 10:24:31.656250,18.93,67.07
191350,2018-06-29 10:24:31.687500,35.95,67.07
191351,2018-06-29 10:24:31.718750,43.3,67.07
191352,2018-06-29 10:24:31.750000,44.54,67.07
191353,2018-06-29 10:24:31.781250,44.62,67.07
191354,2018-06-29 10:24:31.812500,46.75,67.07
191355,2018-06-29 10:24:31.843750,51.75,67.07
191356,2018-06-29 10:24:31.875000,58.83,67.07
191357,2018-06-29 10:24:31.906250,65.8,67.07
191358,2018-06-29 10:24:31.937500,69.68,67.07
191359,2018-06-29 10:24:31.968750,68.68,67.07
191360,2018-06-29 10:24:32.000000,63.85,67.07
191361,2018-06-29 10:24:32.031250,56.83,67.07
191362,2018-06-29 10:24:32.062500,45.92,67.07
191363,2018-06-29 10:24:32.093750,27.35,67.07
191364,2018-06-29 10:24:32.125000,0.85,67.07
191365,2018-06-29 10:24:32.156250,-28.67,67.07
191366,2018-06-29 10:24:32.187500,-55.57,67.07
191367,2018-06-29 10:24:32.218750,-77.36,67.07
191368,2018-06-29 10:24:32.250000,-94.34,67.07
191369,2018-06-29 10:24:32.281250,-107.67,67.07
191370,2018-06-29 10:24:32.312500,-114.87,67.07
191371,2018-06-29 10:24:32.343750,-105.82,67.07
191372,2018-06-29 10:24:32.375000,-70.6,67.07
191373,2018-06-29 10:24:32.406250,-14.71,67.07
191374,2018-06-29 10:24:32.437500,42.71,67.07
191375,2018-06-29 10:24:32.468750,87.2,67.07
191376,2018-06-29 10:24:32.500000,116.78,67.07
191377,2018-06-29 10:24:32.531250,133.77,66.98
191378,2018-06-29 10:24:32.562500,139.52,66.98
191379,2018-06-29 10:24:32.593750,136.22,66.98
191380,2018-06-29 10:24:32.625000,128.08,66.98
191381,2018-06-29 10:24:32.656250,119.44,66.98
191382,2018-06-29 10:24:32.687500,112.74,66.98
191383,2018-06-29 10:24:32.718750,108.03,66.98
191384,2018-06-29 10:24:32.750000,103.86,66.98
191385,2018-06-29 10:24:32.781250,97.61,66.98
191386,2018-06-29 10:24:32.812500,86.9,66.98
191387,2018-06-29 10:24:32.843750,72.08,66.98
191388,2018-06-29 10:24:32.875000,55.52,66.98
191389,2018-06-29 10:24:32.906250,38.75,66.98
191390,2018-06-29 10:24:32.937500,22.41,66.98
191391,2018-06-29 10:24:32.968750,7.3,66.98
191392,2018-06-29 10:24:33.000000,-6.16,66.98
191393,2018-06-29 10:24:33.031250,-18.85,66.98
191394,2018-06-29 10:24:33.062500,-31.94,66.98
191395,2018-06-29 10:24:33.093750,-45.21,66.98
191396,2018-06-29 10:24:33.125000,-56.68,66.98
191397,2018-06-29 10:24:33.156250,-65.63,66.98
