,Time,ppg,hr
19200,2018-06-29 08:54:52.000000,54.43,50.32
19201,2018-06-29 08:54:52.031250,53.07,50.32
19202,2018-06-29 08:54:52.062500,49.5,50.32
19203,2018-06-29 08:54:52.093750,43.96,50.32
19204,2018-06-29 08:54:52.125000,36.87,50.32
19205,2018-06-29 08:54:52.156250,29.36,50.32
19206,2018-06-29 08:54:52.187500,22.33,50.32
19207,2018-06-29 08:54:52.218750,15.74,50.32
19208,2018-06-29 08:54:52.250000,9.37,50.32
19209,2018-06-29 08:54:52.281250,3.1,50.32
19210,2018-06-29 08:54:52.312500,-3.53,50.32
19211,2018-06-29 08:54:52.343750,-11.39,50.32
19212,2018-06-29 08:54:52.375000,-20.65,50.32
19213,2018-06-29 08:54:52.406250,-30.37,50.32
19214,2018-06-29 08:54:52.437500,-40.48,50.32
19215,2018-06-29 08:54:52.468750,-52.61,50.32
19216,2018-06-29 08:54:52.500000,-65.81,50.32
19217,2018-06-29 08:54:52.531250,-72.88,50.48
19218,2018-06-29 08:54:52.562500,-66.4,50.48
19219,2018-06-29 08:54:52.593750,-47.55,50.48
19220,2018-06-29 08:54:52.625000,-24.42,50.48
19221,2018-06-29 08:54:52.656250,-3.33,50.48
19222,2018-06-29 08:54:52.687500,13.84,50.48
19223,2018-06-29 08:54:52.718750,26.02,50.48
19224,2018-06-29 08:54:52.750000,32.32,50.48
19225,2018-06-29 08:54:52.781250,34.62,50.48
19226,2018-06-29 08:54:52.812500,36.29,50.48
19227,2018-06-29 08:54:52.843750,38.41,50.48
19228,2018-06-29 08:54:52.875000,40.29,50.48
19229,2018-06-29 08:54:52.906250,41.93,50.48
19230,2018-06-29 08:54:52.937500,43.23,50.48
19231,2018-06-29 08:54:52.968750,42.73,50.48
19232,2018-06-29 08:54:53.000000,39.72,50.48
19233,2018-06-29 08:54:53.031250,35.56,50.48
19234,2018-06-29 08:54:53.062500,31.81,50.48
19235,2018-06-29 08:54:53.093750,28.74,50.48
19236,2018-06-29 08:54:53.125000,25.77,50.48
19237,2018-06-29 08:54:53.156250,22.05,50.48
19238,2018-06-29 08:54:53.187500,17.66,50.48
19239,2018-06-29 08:54:53.218750,14.01,50.48
19240,2018-06-29 08:54:53.250000,12.09,50.48
19241,2018-06-29 08:54:53.281250,10.71,50.48
19242,2018-06-29 08:54:53.312500,8.36,50.48
19243,2018-06-29 08:54:53.343750,5.55,50.48
19244,2018-06-29 08:54:53.375000,3.31,50.48
19245,2018-06-29 08:54:53.406250,1.25,50.48
19246,2018-06-29 08:54:53.437500,-1.31,50.48
19247,2018-06-29 08:54:53.468750,-4.03,50.48
19248,2018-06-29 08:54:53.500000,-6.31,50.48
19249,2018-06-29 08:54:53.531250,-7.95,50.67
19250,2018-06-29 08:54:53.562500,-9.72,50.67
19251,2018-06-29 08:54:53.593750,-13.0,50.67
19252,2018-06-29 08:54:53.625000,-17.84,50.67
19253,2018-06-29 08:54:53.656250,-22.49,50.67
19254,2018-06-29 08:54:53.687500,-26.1,50.67
19255,2018-06-29 08:54:53.718750,-29.71,50.67
19256,2018-06-29 08:54:53.750000,-34.28,50.67
19257,2018-06-29 08:54:53.781250,-39.65,50.67
19258,2018-06-29 08:54:53.812500,-44.99,50.67
19259,2018-06-29 08:54:53.843750,-49.66,50.67
19260,2018-06-29 08:54:53.875000,-54.71,50.67
19261,2018-06-29 08:54:53.906250,-62.76,50.67
19262,2018-06-29 08:54:53.937500,-73.72,50.67
19263,2018-06-29 08:54:53.968750,-81.23,50.67
19264,2018-06-29 08:54:54.000000,-77.21,50.67
19265,2018-06-29 08:54:54.031250,-60.87,50.67
19266,2018-06-29 08:54:54.062500,-39.65,50.67
19267,2018-06-29 08:54:54.093750,-21.06,50.67
19268,2018-06-29 08:54:54.125000,-7.2,50.67
19269,2018-06-29 08:54:54.156250,3.03,50.67
19270,2018-06-29 08:54:54.187500,10.44,50.67
19271,2018-06-29 08:54:54.218750,15.54,50.67
19272,2018-06-29 08:54:54.250000,19.21,50.67
19273,2018-06-29 08:54:54.281250,22.03,50.67
19274,2018-06-29 08:54:54.312500,24.09,50.67
19275,2018-06-29 08:54:54.343750,25.85,50.67
19276,2018-06-29 08:54:54.375000,27.94,50.67
19277,2018-06-29 08:54:54.406250,29.72,50.67
19278,2018-06-29 08:54:54.437500,29.85,50.67
19279,2018-06-29 08:54:54.468750,28.01,50.67
19280,2018-06-29 08:54:54.500000,25.21,50.67
19281,2018-06-29 08:54:54.531250,22.73,50.83
19282,2018-06-29 08:54:54.562500,21.01,50.83
19283,2018-06-29 08:54:54.593750,19.41,50.83
19284,2018-06-29 08:54:54.625000,17.38,50.83
19285,2018-06-29 08:54:54.656250,15.32,50.83
19286,2018-06-29 08:54:54.687500,13.63,50.83
19287,2018-06-29 08:54:54.718750,12.26,50.83
19288,2018-06-29 08:54:54.750000,10.96,50.83
19289,2018-06-29 08:54:54.781250,9.33,50.83
19290,2018-06-29 08:54:54.812500,7.02,50.83
19291,2018-06-29 08:54:54.843750,4.25,50.83
19292,2018-06-29 08:54:54.875000,1.38,50.83
19293,2018-06-29 08:54:54.906250,-1.47,50.83
19294,2018-06-29 08:54:54.937500,-4.28,50.83
19295,2018-06-29 08:54:54.968750,-7.16,50.83
19296,2018-06-29 08:54:55.000000,-9.96,50.83
19297,2018-06-29 08:54:55.031250,-12.17,50.83
19298,2018-06-29 08:54:55.062500,-14.1,50.83
19299,2018-06-29 08:54:55.093750,-17.18,50.83
19300,2018-06-29 08:54:55.125000,-21.66,50.83
19301,2018-06-29 08:54:55.156250,-25.83,50.83
19302,2018-06-29 08:54:55.187500,-28.83,50.83
19303,2018-06-29 08:54:55.218750,-32.24,50.83
19304,2018-06-29 08:54:55.250000,-37.86,50.83
19305,2018-06-29 08:54:55.281250,-45.32,50.83
19306,2018-06-29 08:54:55.312500,-51.31,50.83
19307,2018-06-29 08:54:55.343750,-50.73,50.83
19308,2018-06-29 08:54:55.375000,-40.91,50.83
19309,2018-06-29 08:54:55.406250,-25.21,50.83
19310,2018-06-29 08:54:55.437500,-10.36,50.83
19311,2018-06-29 08:54:55.468750,-0.26,50.83
19312,2018-06-29 08:54:55.500000,5.49,50.83
19313,2018-06-29 08:54:55.531250,8.16,50.98
19314,2018-06-29 08:54:55.562500,8.37,50.98
19315,2018-06-29 08:54:55.593750,7.59,50.98
19316,2018-06-29 08:54:55.625000,8.05,50.98
19317,2018-06-29 08:54:55.656250,10.06,50.98
19318,2018-06-29 08:54:55.687500,11.99,50.98
19319,2018-06-29 08:54:55.718750,13.23,50.98
19320,2018-06-29 08:54:55.750000,14.72,50.98
19321,2018-06-29 08:54:55.781250,16.05,50.98
19322,2018-06-29 08:54:55.812500,15.11,50.98
19323,2018-06-29 08:54:55.843750,11.67,50.98
19324,2018-06-29 08:54:55.875000,8.63,50.98
19325,2018-06-29 08:54:55.906250,8.0,50.98
19326,2018-06-29 08:54:55.937500,8.07,50.98
19327,2018-06-29 08:54:55.968750,6.6,50.98
19328,2018-06-29 08:54:56.000000,4.3,50.98
19329,2018-06-29 08:54:56.031250,2.68,50.98
19330,2018-06-29 08:54:56.062500,1.01,50.98
19331,2018-06-29 08:54:56.093750,-1.76,50.98
19332,2018-06-29 08:54:56.125000,-4.77,50.98
19333,2018-06-29 08:54:56.156250,-7.02,50.98
19334,2018-06-29 08:54:56.187500,-8.84,50.98
19335,2018-06-29 08:54:56.218750,-10.84,50.98
19336,2018-06-29 08:54:56.250000,-13.28,50.98
19337,2018-06-29 08:54:56.281250,-16.36,50.98
19338,2018-06-29 08:54:56.312500,-19.82,50.98
19339,2018-06-29 08:54:56.343750,-22.99,50.98
19340,2018-06-29 08:54:56.375000,-25.74,50.98
19341,2018-06-29 08:54:56.406250,-29.18,50.98
19342,2018-06-29 08:54:56.437500,-35.23,50.98
19343,2018-06-29 08:54:56.468750,-44.2,50.98
19344,2018-06-29 08:54:56.500000,-51.85,50.98
19345,2018-06-29 08:54:56.531250,-51.7,51.13
19346,2018-06-29 08:54:56.562500,-41.92,51.13
19347,2018-06-29 08:54:56.593750,-27.25,51.13
19348,2018-06-29 08:54:56.625000,-13.49,51.13
19349,2018-06-29 08:54:56.656250,-3.11,51.13
19350,2018-06-29 08:54:56.687500,3.77,51.13
19351,2018-06-29 08:54:56.718750,8.02,51.13
19352,2018-06-29 08:54:56.750000,10.87,51.13
19353,2018-06-29 08:54:56.781250,12.77,51.13
19354,2018-06-29 08:54:56.812500,13.99,51.13
19355,2018-06-29 08:54:56.843750,15.65,51.13
19356,2018-06-29 08:54:56.875000,18.31,51.13
19357,2018-06-29 08:54:56.906250,20.95,51.13
19358,2018-06-29 08:54:56.937500,22.58,51.13
19359,2018-06-29 08:54:56.968750,22.99,51.13
19360,2018-06-29 08:54:57.000000,21.86,51.13
19361,2018-06-29 08:54:57.031250,19.11,51.13
19362,2018-06-29 08:54:57.062500,15.87,51.13
19363,2018-06-29 08:54:57.093750,13.83,51.13
19364,2018-06-29 08:54:57.125000,13.27,51.13
19365,2018-06-29 08:54:57.156250,12.86,51.13
19366,2018-06-29 08:54:57.187500,11.41,51.13
19367,2018-06-29 08:54:57.218750,9.46,51.13
19368,2018-06-29 08:54:57.250000,8.12,51.13
19369,2018-06-29 08:54:57.281250,7.08,51.13
19370,2018-06-29 08:54:57.312500,5.15,51.13
19371,2018-06-29 08:54:57.343750,2.32,51.13
19372,2018-06-29 08:54:57.375000,-0.46,51.13
19373,2018-06-29 08:54:57.406250,-2.89,51.13
19374,2018-06-29 08:54:57.437500,-5.58,51.13
19375,2018-06-29 08:54:57.468750,-8.53,51.13
19376,2018-06-29 08:54:57.500000,-10.52,51.13
19377,2018-06-29 08:54:57.531250,-11.28,51.27
19378,2018-06-29 08:54:57.562500,-12.74,51.27
19379,2018-06-29 08:54:57.593750,-16.24,51.27
19380,2018-06-29 08:54:57.625000,-20.4,51.27
19381,2018-06-29 08:54:57.656250,-23.62,51.27
19382,2018-06-29 08:54:57.687500,-26.64,51.27
19383,2018-06-29 08:54:57.718750,-31.25,51.27
19384,2018-06-29 08:54:57.750000,-38.25,51.27
19385,2018-06-29 08:54:57.781250,-46.31,51.27
19386,2018-06-29 08:54:57.812500,-50.87,51.27
19387,2018-06-29 08:54:57.843750,-46.76,51.27
19388,2018-06-29 08:54:57.875000,-33.79,51.27
19389,2018-06-29 08:54:57.906250,-17.83,51.27
19390,2018-06-29 08:54:57.937500,-4.84,51.27
19391,2018-06-29 08:54:57.968750,3.73,51.27
19392,2018-06-29 08:54:58.000000,9.15,51.27
19393,2018-06-29 08:54:58.031250,12.4,51.27
19394,2018-06-29 08:54:58.062500,14.18,51.27
19395,2018-06-29 08:54:58.093750,15.52,51.27
19396,2018-06-29 08:54:58.125000,17.07,51.27
19397,2018-06-29 08:54:58.156250,18.71,51.27
19398,2018-06-29 08:54:58.187500,20.36,51.27
19399,2018-06-29 08:54:58.218750,22.39,51.27
19400,2018-06-29 08:54:58.250000,24.54,51.27
19401,2018-06-29 08:54:58.281250,25.44,51.27
19402,2018-06-29 08:54:58.312500,23.94,51.27
19403,2018-06-29 08:54:58.343750,20.6,51.27
19404,2018-06-29 08:54:58.375000,17.55,51.27
19405,2018-06-29 08:54:58.406250,16.43,51.27
19406,2018-06-29 08:54:58.437500,16.59,51.27
19407,2018-06-29 08:54:58.468750,16.03,51.27
19408,2018-06-29 08:54:58.500000,13.95,51.27
19409,2018-06-29 08:54:58.531250,11.28,51.38
19410,2018-06-29 08:54:58.562500,8.92,51.38
19411,2018-06-29 08:54:58.593750,6.81,51.38
19412,2018-06-29 08:54:58.625000,4.88,51.38
19413,2018-06-29 08:54:58.656250,3.66,51.38
19414,2018-06-29 08:54:58.687500,2.86,51.38
19415,2018-06-29 08:54:58.718750,1.33,51.38
19416,2018-06-29 08:54:58.750000,-1.01,51.38
19417,2018-06-29 08:54:58.781250,-3.12,51.38
19418,2018-06-29 08:54:58.812500,-5.01,51.38
19419,2018-06-29 08:54:58.843750,-7.41,51.38
19420,2018-06-29 08:54:58.875000,-10.34,51.38
19421,2018-06-29 08:54:58.906250,-13.88,51.38
19422,2018-06-29 08:54:58.937500,-18.29,51.38
19423,2018-06-29 08:54:58.968750,-22.74,51.38
19424,2018-06-29 08:54:59.000000,-26.39,51.38
19425,2018-06-29 08:54:59.031250,-30.39,51.38
19426,2018-06-29 08:54:59.062500,-37.08,51.38
19427,2018-06-29 08:54:59.093750,-46.12,51.38
19428,2018-06-29 08:54:59.125000,-52.23,51.38
19429,2018-06-29 08:54:59.156250,-49.13,51.38
19430,2018-06-29 08:54:59.187500,-36.4,51.38
19431,2018-06-29 08:54:59.218750,-20.11,51.38
19432,2018-06-29 08:54:59.250000,-6.73,51.38
19433,2018-06-29 08:54:59.281250,1.53,51.38
19434,2018-06-29 08:54:59.312500,6.04,51.38
19435,2018-06-29 08:54:59.343750,8.75,51.38
19436,2018-06-29 08:54:59.375000,10.48,51.38
19437,2018-06-29 08:54:59.406250,11.51,51.38
19438,2018-06-29 08:54:59.437500,12.76,51.38
19439,2018-06-29 08:54:59.468750,14.94,51.38
19440,2018-06-29 08:54:59.500000,17.75,51.38
19441,2018-06-29 08:54:59.531250,20.43,51.48
19442,2018-06-29 08:54:59.562500,22.16,51.48
19443,2018-06-29 08:54:59.593750,22.19,51.48
19444,2018-06-29 08:54:59.625000,20.74,51.48
19445,2018-06-29 08:54:59.656250,19.11,51.48
19446,2018-06-29 08:54:59.687500,18.06,51.48
19447,2018-06-29 08:54:59.718750,16.92,51.48
19448,2018-06-29 08:54:59.750000,15.22,51.48
19449,2018-06-29 08:54:59.781250,13.65,51.48
19450,2018-06-29 08:54:59.812500,12.88,51.48
19451,2018-06-29 08:54:59.843750,12.39,51.48
19452,2018-06-29 08:54:59.875000,11.06,51.48
19453,2018-06-29 08:54:59.906250,8.45,51.48
19454,2018-06-29 08:54:59.937500,5.4,51.48
19455,2018-06-29 08:54:59.968750,2.99,51.48
19456,2018-06-29 08:55:00.000000,1.13,51.48
19457,2018-06-29 08:55:00.031250,-1.1,51.48
19458,2018-06-29 08:55:00.062500,-4.0,51.48
19459,2018-06-29 08:55:00.093750,-7.07,51.48
19460,2018-06-29 08:55:00.125000,-10.26,51.48
19461,2018-06-29 08:55:00.156250,-14.23,51.48
19462,2018-06-29 08:55:00.187500,-19.12,51.48
19463,2018-06-29 08:55:00.218750,-23.76,51.48
19464,2018-06-29 08:55:00.250000,-27.1,51.48
19465,2018-06-29 08:55:00.281250,-30.42,51.48
19466,2018-06-29 08:55:00.312500,-36.57,51.48
19467,2018-06-29 08:55:00.343750,-45.65,51.48
19468,2018-06-29 08:55:00.375000,-52.4,51.48
19469,2018-06-29 08:55:00.406250,-50.17,51.48
19470,2018-06-29 08:55:00.437500,-37.9,51.48
19471,2018-06-29 08:55:00.468750,-21.38,51.48
19472,2018-06-29 08:55:00.500000,-6.92,51.48
19473,2018-06-29 08:55:00.531250,3.44,51.55
19474,2018-06-29 08:55:00.562500,10.05,51.55
19475,2018-06-29 08:55:00.593750,13.19,51.55
19476,2018-06-29 08:55:00.625000,14.03,51.55
19477,2018-06-29 08:55:00.656250,14.73,51.55
19478,2018-06-29 08:55:00.687500,16.38,51.55
19479,2018-06-29 08:55:00.718750,18.86,51.55
19480,2018-06-29 08:55:00.750000,22.23,51.55
19481,2018-06-29 08:55:00.781250,26.03,51.55
19482,2018-06-29 08:55:00.812500,28.23,51.55
19483,2018-06-29 08:55:00.843750,27.31,51.55
19484,2018-06-29 08:55:00.875000,24.24,51.55
19485,2018-06-29 08:55:00.906250,21.08,51.55
19486,2018-06-29 08:55:00.937500,18.83,51.55
19487,2018-06-29 08:55:00.968750,17.32,51.55
19488,2018-06-29 08:55:01.000000,16.09,51.55
19489,2018-06-29 08:55:01.031250,14.8,51.55
19490,2018-06-29 08:55:01.062500,13.62,51.55
19491,2018-06-29 08:55:01.093750,12.83,51.55
19492,2018-06-29 08:55:01.125000,11.98,51.55
19493,2018-06-29 08:55:01.156250,10.31,51.55
19494,2018-06-29 08:55:01.187500,7.95,51.55
19495,2018-06-29 08:55:01.218750,5.59,51.55
19496,2018-06-29 08:55:01.250000,3.27,51.55
19497,2018-06-29 08:55:01.281250,0.36,51.55
19498,2018-06-29 08:55:01.312500,-3.08,51.55
19499,2018-06-29 08:55:01.343750,-6.27,51.55
19500,2018-06-29 08:55:01.375000,-9.03,51.55
19501,2018-06-29 08:55:01.406250,-12.29,51.55
19502,2018-06-29 08:55:01.437500,-17.08,51.55
19503,2018-06-29 08:55:01.468750,-22.93,51.55
19504,2018-06-29 08:55:01.500000,-28.12,51.55
19505,2018-06-29 08:55:01.531250,-32.26,51.58
19506,2018-06-29 08:55:01.562500,-37.69,51.58
19507,2018-06-29 08:55:01.593750,-46.92,51.58
19508,2018-06-29 08:55:01.625000,-57.87,51.58
19509,2018-06-29 08:55:01.656250,-63.27,51.58
19510,2018-06-29 08:55:01.687500,-57.17,51.58
19511,2018-06-29 08:55:01.718750,-41.45,51.58
19512,2018-06-29 08:55:01.750000,-23.52,51.58
19513,2018-06-29 08:55:01.781250,-8.8,51.58
19514,2018-06-29 08:55:01.812500,1.91,51.58
19515,2018-06-29 08:55:01.843750,9.41,51.58
19516,2018-06-29 08:55:01.875000,14.17,51.58
19517,2018-06-29 08:55:01.906250,16.79,51.58
19518,2018-06-29 08:55:01.937500,18.54,51.58
19519,2018-06-29 08:55:01.968750,20.65,51.58
19520,2018-06-29 08:55:02.000000,23.8,51.58
19521,2018-06-29 08:55:02.031250,27.68,51.58
19522,2018-06-29 08:55:02.062500,31.04,51.58
19523,2018-06-29 08:55:02.093750,32.68,51.58
19524,2018-06-29 08:55:02.125000,32.46,51.58
19525,2018-06-29 08:55:02.156250,30.95,51.58
19526,2018-06-29 08:55:02.187500,28.88,51.58
19527,2018-06-29 08:55:02.218750,27.11,51.58
19528,2018-06-29 08:55:02.250000,25.9,51.58
19529,2018-06-29 08:55:02.281250,24.62,51.58
19530,2018-06-29 08:55:02.312500,22.91,51.58
19531,2018-06-29 08:55:02.343750,21.33,51.58
19532,2018-06-29 08:55:02.375000,20.22,51.58
19533,2018-06-29 08:55:02.406250,18.83,51.58
19534,2018-06-29 08:55:02.437500,16.41,51.58
19535,2018-06-29 08:55:02.468750,13.23,51.58
19536,2018-06-29 08:55:02.500000,9.81,51.58
19537,2018-06-29 08:55:02.531250,6.16,51.58
19538,2018-06-29 08:55:02.562500,2.3,51.58
19539,2018-06-29 08:55:02.593750,-1.41,51.58
19540,2018-06-29 08:55:02.625000,-5.08,51.58
19541,2018-06-29 08:55:02.656250,-9.52,51.58
19542,2018-06-29 08:55:02.687500,-15.23,51.58
19543,2018-06-29 08:55:02.718750,-21.57,51.58
19544,2018-06-29 08:55:02.750000,-27.25,51.58
19545,2018-06-29 08:55:02.781250,-32.22,51.58
19546,2018-06-29 08:55:02.812500,-38.65,51.58
19547,2018-06-29 08:55:02.843750,-49.21,51.58
19548,2018-06-29 08:55:02.875000,-62.9,51.58
19549,2018-06-29 08:55:02.906250,-73.15,51.58
19550,2018-06-29 08:55:02.937500,-72.37,51.58
19551,2018-06-29 08:55:02.968750,-59.37,51.58
19552,2018-06-29 08:55:03.000000,-40.52,51.58
19553,2018-06-29 08:55:03.031250,-23.44,51.58
19554,2018-06-29 08:55:03.062500,-11.83,51.58
19555,2018-06-29 08:55:03.093750,-5.53,51.58
19556,2018-06-29 08:55:03.125000,-2.66,51.58
19557,2018-06-29 08:55:03.156250,-1.23,51.58
19558,2018-06-29 08:55:03.187500,0.56,51.58
19559,2018-06-29 08:55:03.218750,4.85,51.58
19560,2018-06-29 08:55:03.250000,12.77,51.58
19561,2018-06-29 08:55:03.281250,22.6,51.58
19562,2018-06-29 08:55:03.312500,31.48,51.58
19563,2018-06-29 08:55:03.343750,37.93,51.58
19564,2018-06-29 08:55:03.375000,41.33,51.58
19565,2018-06-29 08:55:03.406250,41.41,51.58
19566,2018-06-29 08:55:03.437500,39.46,51.58
19567,2018-06-29 08:55:03.468750,37.79,51.58
19568,2018-06-29 08:55:03.500000,37.55,51.58
19569,2018-06-29 08:55:03.531250,38.15,51.57
19570,2018-06-29 08:55:03.562500,38.4,51.57
19571,2018-06-29 08:55:03.593750,37.86,51.57
19572,2018-06-29 08:55:03.625000,36.95,51.57
19573,2018-06-29 08:55:03.656250,35.72,51.57
19574,2018-06-29 08:55:03.687500,33.26,51.57
19575,2018-06-29 08:55:03.718750,28.98,51.57
19576,2018-06-29 08:55:03.750000,23.26,51.57
19577,2018-06-29 08:55:03.781250,16.22,51.57
19578,2018-06-29 08:55:03.812500,7.99,51.57
19579,2018-06-29 08:55:03.843750,0.09,51.57
19580,2018-06-29 08:55:03.875000,-6.31,51.57
19581,2018-06-29 08:55:03.906250,-13.8,51.57
19582,2018-06-29 08:55:03.937500,-27.23,51.57
19583,2018-06-29 08:55:03.968750,-48.52,51.57
19584,2018-06-29 08:55:04.000000,-73.62,51.57
19585,2018-06-29 08:55:04.031250,-92.52,51.57
19586,2018-06-29 08:55:04.062500,-93.84,51.57
19587,2018-06-29 08:55:04.093750,-74.93,51.57
19588,2018-06-29 08:55:04.125000,-45.82,51.57
19589,2018-06-29 08:55:04.156250,-19.51,51.57
19590,2018-06-29 08:55:04.187500,-1.02,51.57
19591,2018-06-29 08:55:04.218750,11.69,51.57
19592,2018-06-29 08:55:04.250000,21.1,51.57
19593,2018-06-29 08:55:04.281250,27.46,51.57
19594,2018-06-29 08:55:04.312500,30.55,51.57
19595,2018-06-29 08:55:04.343750,31.91,51.57
19596,2018-06-29 08:55:04.375000,34.2,51.57
19597,2018-06-29 08:55:04.406250,38.18,51.57
19598,2018-06-29 08:55:04.437500,42.11,51.57
19599,2018-06-29 08:55:04.468750,44.36,51.57
19600,2018-06-29 08:55:04.500000,44.4,51.57
19601,2018-06-29 08:55:04.531250,41.97,51.55
19602,2018-06-29 08:55:04.562500,37.87,51.55
19603,2018-06-29 08:55:04.593750,34.16,51.55
19604,2018-06-29 08:55:04.625000,31.84,51.55
19605,2018-06-29 08:55:04.656250,30.04,51.55
19606,2018-06-29 08:55:04.687500,27.98,51.55
19607,2018-06-29 08:55:04.718750,25.67,51.55
19608,2018-06-29 08:55:04.750000,23.0,51.55
19609,2018-06-29 08:55:04.781250,20.03,51.55
19610,2018-06-29 08:55:04.812500,16.98,51.55
19611,2018-06-29 08:55:04.843750,13.49,51.55
19612,2018-06-29 08:55:04.875000,8.95,51.55
19613,2018-06-29 08:55:04.906250,3.39,51.55
19614,2018-06-29 08:55:04.937500,-2.63,51.55
19615,2018-06-29 08:55:04.968750,-8.63,51.55
19616,2018-06-29 08:55:05.000000,-14.34,51.55
19617,2018-06-29 08:55:05.031250,-20.06,51.55
19618,2018-06-29 08:55:05.062500,-26.38,51.55
19619,2018-06-29 08:55:05.093750,-33.16,51.55
19620,2018-06-29 08:55:05.125000,-39.95,51.55
19621,2018-06-29 08:55:05.156250,-47.98,51.55
19622,2018-06-29 08:55:05.187500,-59.51,51.55
19623,2018-06-29 08:55:05.218750,-72.87,51.55
19624,2018-06-29 08:55:05.250000,-79.93,51.55
19625,2018-06-29 08:55:05.281250,-72.71,51.55
19626,2018-06-29 08:55:05.312500,-52.86,51.55
19627,2018-06-29 08:55:05.343750,-30.1,51.55
19628,2018-06-29 08:55:05.375000,-11.39,51.55
19629,2018-06-29 08:55:05.406250,3.12,51.55
19630,2018-06-29 08:55:05.437500,14.62,51.55
19631,2018-06-29 08:55:05.468750,22.71,51.55
19632,2018-06-29 08:55:05.500000,27.8,51.55
19633,2018-06-29 08:55:05.531250,31.69,51.55
19634,2018-06-29 08:55:05.562500,35.63,51.55
19635,2018-06-29 08:55:05.593750,39.68,51.55
19636,2018-06-29 08:55:05.625000,43.43,51.55
19637,2018-06-29 08:55:05.656250,46.41,51.55
19638,2018-06-29 08:55:05.687500,48.07,51.55
19639,2018-06-29 08:55:05.718750,47.7,51.55
19640,2018-06-29 08:55:05.750000,45.29,51.55
19641,2018-06-29 08:55:05.781250,42.17,51.55
19642,2018-06-29 08:55:05.812500,39.48,51.55
19643,2018-06-29 08:55:05.843750,36.84,51.55
19644,2018-06-29 08:55:05.875000,33.84,51.55
19645,2018-06-29 08:55:05.906250,31.28,51.55
19646,2018-06-29 08:55:05.937500,29.45,51.55
19647,2018-06-29 08:55:05.968750,27.19,51.55
19648,2018-06-29 08:55:06.000000,23.97,51.55
19649,2018-06-29 08:55:06.031250,20.89,51.55
19650,2018-06-29 08:55:06.062500,18.66,51.55
19651,2018-06-29 08:55:06.093750,16.29,51.55
19652,2018-06-29 08:55:06.125000,12.93,51.55
19653,2018-06-29 08:55:06.156250,9.14,51.55
19654,2018-06-29 08:55:06.187500,5.39,51.55
19655,2018-06-29 08:55:06.218750,1.16,51.55
19656,2018-06-29 08:55:06.250000,-3.6,51.55
19657,2018-06-29 08:55:06.281250,-7.82,51.55
19658,2018-06-29 08:55:06.312500,-11.13,51.55
19659,2018-06-29 08:55:06.343750,-14.87,51.55
19660,2018-06-29 08:55:06.375000,-20.66,51.55
19661,2018-06-29 08:55:06.406250,-28.36,51.55
19662,2018-06-29 08:55:06.437500,-36.15,51.55
19663,2018-06-29 08:55:06.468750,-42.92,51.55
19664,2018-06-29 08:55:06.500000,-49.82,51.55
19665,2018-06-29 08:55:06.531250,-59.18,51.55
19666,2018-06-29 08:55:06.562500,-71.6,51.55
19667,2018-06-29 08:55:06.593750,-82.17,51.55
19668,2018-06-29 08:55:06.625000,-81.77,51.55
19669,2018-06-29 08:55:06.656250,-66.44,51.55
19670,2018-06-29 08:55:06.687500,-43.0,51.55
19671,2018-06-29 08:55:06.718750,-21.3,51.55
19672,2018-06-29 08:55:06.750000,-4.93,51.55
19673,2018-06-29 08:55:06.781250,7.37,51.55
19674,2018-06-29 08:55:06.812500,16.44,51.55
19675,2018-06-29 08:55:06.843750,22.46,51.55
19676,2018-06-29 08:55:06.875000,26.41,51.55
19677,2018-06-29 08:55:06.906250,29.63,51.55
19678,2018-06-29 08:55:06.937500,32.84,51.55
19679,2018-06-29 08:55:06.968750,36.29,51.55
19680,2018-06-29 08:55:07.000000,39.91,51.55
19681,2018-06-29 08:55:07.031250,42.77,51.55
19682,2018-06-29 08:55:07.062500,43.25,51.55
19683,2018-06-29 08:55:07.093750,40.74,51.55
19684,2018-06-29 08:55:07.125000,37.01,51.55
19685,2018-06-29 08:55:07.156250,34.21,51.55
19686,2018-06-29 08:55:07.187500,32.16,51.55
19687,2018-06-29 08:55:07.218750,29.47,51.55
19688,2018-06-29 08:55:07.250000,26.32,51.55
19689,2018-06-29 08:55:07.281250,23.86,51.55
19690,2018-06-29 08:55:07.312500,22.16,51.55
19691,2018-06-29 08:55:07.343750,20.35,51.55
19692,2018-06-29 08:55:07.375000,17.72,51.55
19693,2018-06-29 08:55:07.406250,13.95,51.55
19694,2018-06-29 08:55:07.437500,9.22,51.55
19695,2018-06-29 08:55:07.468750,4.28,51.55
19696,2018-06-29 08:55:07.500000,0.06,51.55
19697,2018-06-29 08:55:07.531250,-3.34,51.55
19698,2018-06-29 08:55:07.562500,-6.88,51.55
19699,2018-06-29 08:55:07.593750,-11.29,51.55
19700,2018-06-29 08:55:07.625000,-16.28,51.55
19701,2018-06-29 08:55:07.656250,-21.31,51.55
19702,2018-06-29 08:55:07.687500,-26.4,51.55
19703,2018-06-29 08:55:07.718750,-31.97,51.55
19704,2018-06-29 08:55:07.750000,-39.02,51.55
19705,2018-06-29 08:55:07.781250,-48.67,51.55
19706,2018-06-29 08:55:07.812500,-59.04,51.55
19707,2018-06-29 08:55:07.843750,-63.41,51.55
19708,2018-06-29 08:55:07.875000,-55.58,51.55
19709,2018-06-29 08:55:07.906250,-37.29,51.55
19710,2018-06-29 08:55:07.937500,-16.66,51.55
19711,2018-06-29 08:55:07.968750,-0.22,51.55
19712,2018-06-29 08:55:08.000000,10.33,51.55
19713,2018-06-29 08:55:08.031250,15.63,51.55
19714,2018-06-29 08:55:08.062500,16.69,51.55
19715,2018-06-29 08:55:08.093750,15.67,51.55
19716,2018-06-29 08:55:08.125000,15.87,51.55
19717,2018-06-29 08:55:08.156250,18.87,51.55
19718,2018-06-29 08:55:08.187500,22.86,51.55
19719,2018-06-29 08:55:08.218750,25.88,51.55
19720,2018-06-29 08:55:08.250000,28.26,51.55
19721,2018-06-29 08:55:08.281250,29.94,51.55
19722,2018-06-29 08:55:08.312500,29.1,51.55
19723,2018-06-29 08:55:08.343750,25.77,51.55
19724,2018-06-29 08:55:08.375000,22.79,51.55
19725,2018-06-29 08:55:08.406250,21.56,51.55
19726,2018-06-29 08:55:08.437500,20.22,51.55
19727,2018-06-29 08:55:08.468750,17.35,51.55
19728,2018-06-29 08:55:08.500000,14.16,51.55
19729,2018-06-29 08:55:08.531250,11.69,51.55
19730,2018-06-29 08:55:08.562500,8.84,51.55
19731,2018-06-29 08:55:08.593750,4.65,51.55
19732,2018-06-29 08:55:08.625000,-0.36,51.55
19733,2018-06-29 08:55:08.656250,-5.57,51.55
19734,2018-06-29 08:55:08.687500,-11.07,51.55
19735,2018-06-29 08:55:08.718750,-17.08,51.55
19736,2018-06-29 08:55:08.750000,-23.3,51.55
19737,2018-06-29 08:55:08.781250,-29.14,51.55
19738,2018-06-29 08:55:08.812500,-34.83,51.55
19739,2018-06-29 08:55:08.843750,-41.92,51.55
19740,2018-06-29 08:55:08.875000,-52.08,51.55
19741,2018-06-29 08:55:08.906250,-64.42,51.55
19742,2018-06-29 08:55:08.937500,-73.2,51.55
19743,2018-06-29 08:55:08.968750,-70.5,51.55
19744,2018-06-29 08:55:09.000000,-54.36,51.55
19745,2018-06-29 08:55:09.031250,-32.19,51.55
19746,2018-06-29 08:55:09.062500,-13.34,51.55
19747,2018-06-29 08:55:09.093750,-0.78,51.55
19748,2018-06-29 08:55:09.125000,8.21,51.55
19749,2018-06-29 08:55:09.156250,16.26,51.55
19750,2018-06-29 08:55:09.187500,23.04,51.55
19751,2018-06-29 08:55:09.218750,27.27,51.55
19752,2018-06-29 08:55:09.250000,29.46,51.55
19753,2018-06-29 08:55:09.281250,31.29,51.55
19754,2018-06-29 08:55:09.312500,33.73,51.55
19755,2018-06-29 08:55:09.343750,36.85,51.55
19756,2018-06-29 08:55:09.375000,39.62,51.55
19757,2018-06-29 08:55:09.406250,40.07,51.55
19758,2018-06-29 08:55:09.437500,37.51,51.55
19759,2018-06-29 08:55:09.468750,33.88,51.55
19760,2018-06-29 08:55:09.500000,31.38,51.55
19761,2018-06-29 08:55:09.531250,30.07,51.53
19762,2018-06-29 08:55:09.562500,28.53,51.53
19763,2018-06-29 08:55:09.593750,26.03,51.53
19764,2018-06-29 08:55:09.625000,23.26,51.53
19765,2018-06-29 08:55:09.656250,21.16,51.53
19766,2018-06-29 08:55:09.687500,19.23,51.53
19767,2018-06-29 08:55:09.718750,16.34,51.53
19768,2018-06-29 08:55:09.750000,12.76,51.53
19769,2018-06-29 08:55:09.781250,9.3,51.53
19770,2018-06-29 08:55:09.812500,5.38,51.53
19771,2018-06-29 08:55:09.843750,0.06,51.53
19772,2018-06-29 08:55:09.875000,-6.05,51.53
19773,2018-06-29 08:55:09.906250,-11.34,51.53
19774,2018-06-29 08:55:09.937500,-15.46,51.53
19775,2018-06-29 08:55:09.968750,-19.53,51.53
19776,2018-06-29 08:55:10.000000,-24.19,51.53
19777,2018-06-29 08:55:10.031250,-28.99,51.53
19778,2018-06-29 08:55:10.062500,-33.87,51.53
19779,2018-06-29 08:55:10.093750,-39.69,51.53
19780,2018-06-29 08:55:10.125000,-47.4,51.53
19781,2018-06-29 08:55:10.156250,-57.68,51.53
19782,2018-06-29 08:55:10.187500,-68.14,51.53
19783,2018-06-29 08:55:10.218750,-71.06,51.53
19784,2018-06-29 08:55:10.250000,-60.34,51.53
19785,2018-06-29 08:55:10.281250,-39.94,51.53
19786,2018-06-29 08:55:10.312500,-19.44,51.53
19787,2018-06-29 08:55:10.343750,-3.88,51.53
19788,2018-06-29 08:55:10.375000,6.96,51.53
19789,2018-06-29 08:55:10.406250,13.88,51.53
19790,2018-06-29 08:55:10.437500,17.28,51.53
19791,2018-06-29 08:55:10.468750,18.62,51.53
19792,2018-06-29 08:55:10.500000,20.22,51.53
19793,2018-06-29 08:55:10.531250,23.45,51.52
19794,2018-06-29 08:55:10.562500,27.52,51.52
19795,2018-06-29 08:55:10.593750,30.87,51.52
19796,2018-06-29 08:55:10.625000,32.96,51.52
19797,2018-06-29 08:55:10.656250,33.69,51.52
19798,2018-06-29 08:55:10.687500,32.16,51.52
19799,2018-06-29 08:55:10.718750,28.36,51.52
19800,2018-06-29 08:55:10.750000,24.6,51.52
19801,2018-06-29 08:55:10.781250,22.77,51.52
19802,2018-06-29 08:55:10.812500,21.53,51.52
19803,2018-06-29 08:55:10.843750,18.89,51.52
19804,2018-06-29 08:55:10.875000,15.7,51.52
19805,2018-06-29 08:55:10.906250,13.3,51.52
19806,2018-06-29 08:55:10.937500,10.86,51.52
19807,2018-06-29 08:55:10.968750,7.23,51.52
19808,2018-06-29 08:55:11.000000,2.82,51.52
19809,2018-06-29 08:55:11.031250,-1.45,51.52
19810,2018-06-29 08:55:11.062500,-5.55,51.52
19811,2018-06-29 08:55:11.093750,-10.3,51.52
19812,2018-06-29 08:55:11.125000,-16.39,51.52
19813,2018-06-29 08:55:11.156250,-23.37,51.52
19814,2018-06-29 08:55:11.187500,-29.95,51.52
19815,2018-06-29 08:55:11.218750,-35.44,51.52
19816,2018-06-29 08:55:11.250000,-41.29,51.52
19817,2018-06-29 08:55:11.281250,-50.5,51.52
19818,2018-06-29 08:55:11.312500,-63.18,51.52
19819,2018-06-29 08:55:11.343750,-72.75,51.52
19820,2018-06-29 08:55:11.375000,-70.85,51.52
19821,2018-06-29 08:55:11.406250,-56.77,51.52
19822,2018-06-29 08:55:11.437500,-37.96,51.52
19823,2018-06-29 08:55:11.468750,-21.5,51.52
19824,2018-06-29 08:55:11.500000,-9.04,51.52
19825,2018-06-29 08:55:11.531250,0.58,51.48
19826,2018-06-29 08:55:11.562500,7.72,51.48
19827,2018-06-29 08:55:11.593750,11.82,51.48
19828,2018-06-29 08:55:11.625000,13.31,51.48
19829,2018-06-29 08:55:11.656250,14.81,51.48
19830,2018-06-29 08:55:11.687500,19.54,51.48
19831,2018-06-29 08:55:11.718750,28.19,51.48
19832,2018-06-29 08:55:11.750000,38.27,51.48
19833,2018-06-29 08:55:11.781250,46.2,51.48
19834,2018-06-29 08:55:11.812500,49.31,51.48
19835,2018-06-29 08:55:11.843750,47.16,51.48
19836,2018-06-29 08:55:11.875000,42.17,51.48
19837,2018-06-29 08:55:11.906250,37.65,51.48
19838,2018-06-29 08:55:11.937500,34.31,51.48
19839,2018-06-29 08:55:11.968750,30.61,51.48
19840,2018-06-29 08:55:12.000000,26.46,51.48
19841,2018-06-29 08:55:12.031250,23.35,51.48
19842,2018-06-29 08:55:12.062500,21.61,51.48
19843,2018-06-29 08:55:12.093750,20.24,51.48
19844,2018-06-29 08:55:12.125000,18.88,51.48
19845,2018-06-29 08:55:12.156250,17.7,51.48
19846,2018-06-29 08:55:12.187500,16.71,51.48
19847,2018-06-29 08:55:12.218750,15.88,51.48
19848,2018-06-29 08:55:12.250000,14.35,51.48
19849,2018-06-29 08:55:12.281250,10.66,51.48
19850,2018-06-29 08:55:12.312500,5.25,51.48
19851,2018-06-29 08:55:12.343750,0.36,51.48
19852,2018-06-29 08:55:12.375000,-3.66,51.48
19853,2018-06-29 08:55:12.406250,-9.23,51.48
19854,2018-06-29 08:55:12.437500,-17.39,51.48
19855,2018-06-29 08:55:12.468750,-25.91,51.48
19856,2018-06-29 08:55:12.500000,-33.14,51.48
19857,2018-06-29 08:55:12.531250,-40.67,51.47
19858,2018-06-29 08:55:12.562500,-50.52,51.47
19859,2018-06-29 08:55:12.593750,-61.89,51.47
19860,2018-06-29 08:55:12.625000,-70.44,51.47
19861,2018-06-29 08:55:12.656250,-69.93,51.47
19862,2018-06-29 08:55:12.687500,-57.49,51.47
19863,2018-06-29 08:55:12.718750,-37.6,51.47
19864,2018-06-29 08:55:12.750000,-18.14,51.47
19865,2018-06-29 08:55:12.781250,-3.33,51.47
19866,2018-06-29 08:55:12.812500,7.29,51.47
19867,2018-06-29 08:55:12.843750,15.39,51.47
19868,2018-06-29 08:55:12.875000,21.7,51.47
19869,2018-06-29 08:55:12.906250,26.15,51.47
19870,2018-06-29 08:55:12.937500,29.12,51.47
19871,2018-06-29 08:55:12.968750,31.66,51.47
19872,2018-06-29 08:55:13.000000,34.32,51.47
19873,2018-06-29 08:55:13.031250,36.92,51.47
19874,2018-06-29 08:55:13.062500,39.1,51.47
19875,2018-06-29 08:55:13.093750,39.87,51.47
19876,2018-06-29 08:55:13.125000,38.18,51.47
19877,2018-06-29 08:55:13.156250,34.73,51.47
19878,2018-06-29 08:55:13.187500,31.62,51.47
19879,2018-06-29 08:55:13.218750,29.61,51.47
19880,2018-06-29 08:55:13.250000,27.51,51.47
19881,2018-06-29 08:55:13.281250,24.42,51.47
19882,2018-06-29 08:55:13.312500,20.79,51.47
19883,2018-06-29 08:55:13.343750,17.64,51.47
19884,2018-06-29 08:55:13.375000,15.97,51.47
19885,2018-06-29 08:55:13.406250,15.56,51.47
19886,2018-06-29 08:55:13.437500,14.47,51.47
19887,2018-06-29 08:55:13.468750,11.39,51.47
19888,2018-06-29 08:55:13.500000,7.71,51.47
19889,2018-06-29 08:55:13.531250,5.21,51.47
19890,2018-06-29 08:55:13.562500,3.01,51.47
19891,2018-06-29 08:55:13.593750,-0.87,51.47
19892,2018-06-29 08:55:13.625000,-6.17,51.47
19893,2018-06-29 08:55:13.656250,-10.64,51.47
19894,2018-06-29 08:55:13.687500,-13.46,51.47
19895,2018-06-29 08:55:13.718750,-16.42,51.47
19896,2018-06-29 08:55:13.750000,-20.9,51.47
19897,2018-06-29 08:55:13.781250,-26.04,51.47
19898,2018-06-29 08:55:13.812500,-30.81,51.47
19899,2018-06-29 08:55:13.843750,-35.43,51.47
19900,2018-06-29 08:55:13.875000,-41.05,51.47
19901,2018-06-29 08:55:13.906250,-49.32,51.47
19902,2018-06-29 08:55:13.937500,-59.05,51.47
19903,2018-06-29 08:55:13.968750,-63.02,51.47
19904,2018-06-29 08:55:14.000000,-54.17,51.47
19905,2018-06-29 08:55:14.031250,-35.36,51.47
19906,2018-06-29 08:55:14.062500,-16.41,51.47
19907,2018-06-29 08:55:14.093750,-3.02,51.47
19908,2018-06-29 08:55:14.125000,5.77,51.47
19909,2018-06-29 08:55:14.156250,11.6,51.47
19910,2018-06-29 08:55:14.187500,14.61,51.47
19911,2018-06-29 08:55:14.218750,15.91,51.47
19912,2018-06-29 08:55:14.250000,17.87,51.47
19913,2018-06-29 08:55:14.281250,21.12,51.47
19914,2018-06-29 08:55:14.312500,24.14,51.47
19915,2018-06-29 08:55:14.343750,26.07,51.47
19916,2018-06-29 08:55:14.375000,27.58,51.47
19917,2018-06-29 08:55:14.406250,28.38,51.47
19918,2018-06-29 08:55:14.437500,26.96,51.47
19919,2018-06-29 08:55:14.468750,23.47,51.47
19920,2018-06-29 08:55:14.500000,20.38,51.47
19921,2018-06-29 08:55:14.531250,19.03,51.48
19922,2018-06-29 08:55:14.562500,17.67,51.48
19923,2018-06-29 08:55:14.593750,14.37,51.48
19924,2018-06-29 08:55:14.625000,10.22,51.48
19925,2018-06-29 08:55:14.656250,7.68,51.48
19926,2018-06-29 08:55:14.687500,6.57,51.48
19927,2018-06-29 08:55:14.718750,4.4,51.48
19928,2018-06-29 08:55:14.750000,0.47,51.48
19929,2018-06-29 08:55:14.781250,-3.64,51.48
19930,2018-06-29 08:55:14.812500,-7.25,51.48
19931,2018-06-29 08:55:14.843750,-11.41,51.48
19932,2018-06-29 08:55:14.875000,-16.45,51.48
19933,2018-06-29 08:55:14.906250,-21.32,51.48
19934,2018-06-29 08:55:14.937500,-25.57,51.48
19935,2018-06-29 08:55:14.968750,-30.05,51.48
19936,2018-06-29 08:55:15.000000,-36.07,51.48
19937,2018-06-29 08:55:15.031250,-44.57,51.48
19938,2018-06-29 08:55:15.062500,-54.02,51.48
19939,2018-06-29 08:55:15.093750,-58.63,51.48
19940,2018-06-29 08:55:15.125000,-52.52,51.48
19941,2018-06-29 08:55:15.156250,-36.75,51.48
19942,2018-06-29 08:55:15.187500,-18.65,51.48
19943,2018-06-29 08:55:15.218750,-3.88,51.48
19944,2018-06-29 08:55:15.250000,6.84,51.48
19945,2018-06-29 08:55:15.281250,13.97,51.48
19946,2018-06-29 08:55:15.312500,17.28,51.48
19947,2018-06-29 08:55:15.343750,17.96,51.48
19948,2018-06-29 08:55:15.375000,18.6,51.48
19949,2018-06-29 08:55:15.406250,20.47,51.48
19950,2018-06-29 08:55:15.437500,22.96,51.48
19951,2018-06-29 08:55:15.468750,25.68,51.48
19952,2018-06-29 08:55:15.500000,28.69,51.48
19953,2018-06-29 08:55:15.531250,30.98,51.5
19954,2018-06-29 08:55:15.562500,30.9,51.5
19955,2018-06-29 08:55:15.593750,28.3,51.5
19956,2018-06-29 08:55:15.625000,24.76,51.5
19957,2018-06-29 08:55:15.656250,21.51,51.5
19958,2018-06-29 08:55:15.687500,18.54,51.5
19959,2018-06-29 08:55:15.718750,15.81,51.5
19960,2018-06-29 08:55:15.750000,13.93,51.5
19961,2018-06-29 08:55:15.781250,13.03,51.5
19962,2018-06-29 08:55:15.812500,12.13,51.5
19963,2018-06-29 08:55:15.843750,10.15,51.5
19964,2018-06-29 08:55:15.875000,7.33,51.5
19965,2018-06-29 08:55:15.906250,4.54,51.5
19966,2018-06-29 08:55:15.937500,1.81,51.5
19967,2018-06-29 08:55:15.968750,-1.64,51.5
19968,2018-06-29 08:55:16.000000,-5.84,51.5
19969,2018-06-29 08:55:16.031250,-9.98,51.5
19970,2018-06-29 08:55:16.062500,-13.66,51.5
19971,2018-06-29 08:55:16.093750,-17.49,51.5
19972,2018-06-29 08:55:16.125000,-22.09,51.5
19973,2018-06-29 08:55:16.156250,-27.1,51.5
19974,2018-06-29 08:55:16.187500,-31.91,51.5
19975,2018-06-29 08:55:16.218750,-37.26,51.5
19976,2018-06-29 08:55:16.250000,-45.05,51.5
19977,2018-06-29 08:55:16.281250,-55.31,51.5
19978,2018-06-29 08:55:16.312500,-63.6,51.5
19979,2018-06-29 08:55:16.343750,-63.23,51.5
19980,2018-06-29 08:55:16.375000,-51.51,51.5
19981,2018-06-29 08:55:16.406250,-33.13,51.5
19982,2018-06-29 08:55:16.437500,-16.21,51.5
19983,2018-06-29 08:55:16.468750,-4.76,51.5
19984,2018-06-29 08:55:16.500000,3.25,51.5
19985,2018-06-29 08:55:16.531250,10.72,51.5
19986,2018-06-29 08:55:16.562500,17.26,51.5
19987,2018-06-29 08:55:16.593750,21.51,51.5
19988,2018-06-29 08:55:16.625000,24.24,51.5
19989,2018-06-29 08:55:16.656250,26.61,51.5
19990,2018-06-29 08:55:16.687500,28.47,51.5
19991,2018-06-29 08:55:16.718750,30.05,51.5
19992,2018-06-29 08:55:16.750000,32.02,51.5
19993,2018-06-29 08:55:16.781250,33.22,51.5
19994,2018-06-29 08:55:16.812500,31.84,51.5
19995,2018-06-29 08:55:16.843750,28.56,51.5
19996,2018-06-29 08:55:16.875000,25.46,51.5
19997,2018-06-29 08:55:16.906250,23.09,51.5
19998,2018-06-29 08:55:16.937500,21.02,51.5
19999,2018-06-29 08:55:16.968750,19.26,51.5
20000,2018-06-29 08:55:17.000000,18.04,51.5
20001,2018-06-29 08:55:17.031250,17.19,51.5
20002,2018-06-29 08:55:17.062500,16.03,51.5
20003,2018-06-29 08:55:17.093750,13.82,51.5
20004,2018-06-29 08:55:17.125000,10.66,51.5
20005,2018-06-29 08:55:17.156250,7.49,51.5
20006,2018-06-29 08:55:17.187500,4.54,51.5
20007,2018-06-29 08:55:17.218750,1.03,51.5
20008,2018-06-29 08:55:17.250000,-3.28,51.5
20009,2018-06-29 08:55:17.281250,-7.73,51.5
20010,2018-06-29 08:55:17.312500,-12.27,51.5
20011,2018-06-29 08:55:17.343750,-17.77,51.5
20012,2018-06-29 08:55:17.375000,-24.24,51.5
20013,2018-06-29 08:55:17.406250,-30.49,51.5
20014,2018-06-29 08:55:17.437500,-36.12,51.5
20015,2018-06-29 08:55:17.468750,-41.9,51.5
20016,2018-06-29 08:55:17.500000,-48.6,51.5
20017,2018-06-29 08:55:17.531250,-57.58,51.5
20018,2018-06-29 08:55:17.562500,-69.41,51.5
20019,2018-06-29 08:55:17.593750,-79.15,51.5
20020,2018-06-29 08:55:17.625000,-78.29,51.5
20021,2018-06-29 08:55:17.656250,-64.25,51.5
20022,2018-06-29 08:55:17.687500,-43.59,51.5
20023,2018-06-29 08:55:17.718750,-24.41,51.5
20024,2018-06-29 08:55:17.750000,-9.42,51.5
20025,2018-06-29 08:55:17.781250,2.83,51.5
20026,2018-06-29 08:55:17.812500,13.3,51.5
20027,2018-06-29 08:55:17.843750,21.02,51.5
20028,2018-06-29 08:55:17.875000,25.57,51.5
20029,2018-06-29 08:55:17.906250,28.25,51.5
20030,2018-06-29 08:55:17.937500,30.39,51.5
20031,2018-06-29 08:55:17.968750,32.84,51.5
20032,2018-06-29 08:55:18.000000,36.49,51.5
20033,2018-06-29 08:55:18.031250,40.66,51.5
20034,2018-06-29 08:55:18.062500,42.46,51.5
20035,2018-06-29 08:55:18.093750,40.6,51.5
20036,2018-06-29 08:55:18.125000,37.33,51.5
20037,2018-06-29 08:55:18.156250,35.11,51.5
20038,2018-06-29 08:55:18.187500,33.84,51.5
20039,2018-06-29 08:55:18.218750,32.6,51.5
20040,2018-06-29 08:55:18.250000,30.96,51.5
20041,2018-06-29 08:55:18.281250,28.19,51.5
20042,2018-06-29 08:55:18.312500,23.61,51.5
20043,2018-06-29 08:55:18.343750,17.67,51.5
20044,2018-06-29 08:55:18.375000,11.64,51.5
20045,2018-06-29 08:55:18.406250,6.78,51.5
20046,2018-06-29 08:55:18.437500,3.37,51.5
20047,2018-06-29 08:55:18.468750,0.85,51.5
20048,2018-06-29 08:55:18.500000,-1.12,51.5
20049,2018-06-29 08:55:18.531250,-2.59,51.48
20050,2018-06-29 08:55:18.562500,-4.22,51.48
20051,2018-06-29 08:55:18.593750,-6.63,51.48
20052,2018-06-29 08:55:18.625000,-9.65,51.48
20053,2018-06-29 08:55:18.656250,-13.25,51.48
20054,2018-06-29 08:55:18.687500,-17.86,51.48
20055,2018-06-29 08:55:18.718750,-23.4,51.48
20056,2018-06-29 08:55:18.750000,-30.13,51.48
20057,2018-06-29 08:55:18.781250,-39.31,51.48
20058,2018-06-29 08:55:18.812500,-50.45,51.48
20059,2018-06-29 08:55:18.843750,-58.4,51.48
20060,2018-06-29 08:55:18.875000,-56.54,51.48
20061,2018-06-29 08:55:18.906250,-43.72,51.48
20062,2018-06-29 08:55:18.937500,-25.79,51.48
20063,2018-06-29 08:55:18.968750,-9.5,51.48
20064,2018-06-29 08:55:19.000000,2.65,51.48
20065,2018-06-29 08:55:19.031250,10.93,51.48
20066,2018-06-29 08:55:19.062500,15.75,51.48
20067,2018-06-29 08:55:19.093750,18.02,51.48
20068,2018-06-29 08:55:19.125000,19.37,51.48
20069,2018-06-29 08:55:19.156250,21.14,51.48
20070,2018-06-29 08:55:19.187500,23.69,51.48
20071,2018-06-29 08:55:19.218750,26.48,51.48
20072,2018-06-29 08:55:19.250000,28.75,51.48
20073,2018-06-29 08:55:19.281250,30.0,51.48
20074,2018-06-29 08:55:19.312500,29.99,51.48
20075,2018-06-29 08:55:19.343750,28.58,51.48
20076,2018-06-29 08:55:19.375000,25.91,51.48
20077,2018-06-29 08:55:19.406250,22.65,51.48
20078,2018-06-29 08:55:19.437500,19.78,51.48
20079,2018-06-29 08:55:19.468750,17.85,51.48
20080,2018-06-29 08:55:19.500000,16.33,51.48
20081,2018-06-29 08:55:19.531250,14.01,51.32
20082,2018-06-29 08:55:19.562500,10.37,51.32
20083,2018-06-29 08:55:19.593750,6.21,51.32
20084,2018-06-29 08:55:19.625000,2.35,51.32
20085,2018-06-29 08:55:19.656250,-1.84,51.32
20086,2018-06-29 08:55:19.687500,-7.57,51.32
20087,2018-06-29 08:55:19.718750,-14.72,51.32
20088,2018-06-29 08:55:19.750000,-21.84,51.32
20089,2018-06-29 08:55:19.781250,-27.91,51.32
20090,2018-06-29 08:55:19.812500,-34.22,51.32
20091,2018-06-29 08:55:19.843750,-43.52,51.32
20092,2018-06-29 08:55:19.875000,-55.47,51.32
20093,2018-06-29 08:55:19.906250,-63.84,51.32
20094,2018-06-29 08:55:19.937500,-61.43,51.32
20095,2018-06-29 08:55:19.968750,-47.52,51.32
20096,2018-06-29 08:55:20.000000,-28.24,51.32
20097,2018-06-29 08:55:20.031250,-10.56,51.32
20098,2018-06-29 08:55:20.062500,2.31,51.32
20099,2018-06-29 08:55:20.093750,11.18,51.32
20100,2018-06-29 08:55:20.125000,17.82,51.32
20101,2018-06-29 08:55:20.156250,22.47,51.32
20102,2018-06-29 08:55:20.187500,24.81,51.32
20103,2018-06-29 08:55:20.218750,25.88,51.32
20104,2018-06-29 08:55:20.250000,27.18,51.32
20105,2018-06-29 08:55:20.281250,28.81,51.32
20106,2018-06-29 08:55:20.312500,29.72,51.32
20107,2018-06-29 08:55:20.343750,28.5,51.32
20108,2018-06-29 08:55:20.375000,24.28,51.32
20109,2018-06-29 08:55:20.406250,18.26,51.32
20110,2018-06-29 08:55:20.437500,12.96,51.32
20111,2018-06-29 08:55:20.468750,9.42,51.32
20112,2018-06-29 08:55:20.500000,6.58,51.32
20113,2018-06-29 08:55:20.531250,3.51,51.18
20114,2018-06-29 08:55:20.562500,0.49,51.18
20115,2018-06-29 08:55:20.593750,-1.56,51.18
20116,2018-06-29 08:55:20.625000,-2.06,51.18
20117,2018-06-29 08:55:20.656250,-1.56,51.18
20118,2018-06-29 08:55:20.687500,-1.45,51.18
20119,2018-06-29 08:55:20.718750,-2.39,51.18
20120,2018-06-29 08:55:20.750000,-3.99,51.18
20121,2018-06-29 08:55:20.781250,-6.38,51.18
20122,2018-06-29 08:55:20.812500,-10.54,51.18
20123,2018-06-29 08:55:20.843750,-16.59,51.18
20124,2018-06-29 08:55:20.875000,-22.9,51.18
20125,2018-06-29 08:55:20.906250,-28.1,51.18
20126,2018-06-29 08:55:20.937500,-32.89,51.18
20127,2018-06-29 08:55:20.968750,-38.88,51.18
20128,2018-06-29 08:55:21.000000,-46.46,51.18
20129,2018-06-29 08:55:21.031250,-54.21,51.18
20130,2018-06-29 08:55:21.062500,-58.1,51.18
20131,2018-06-29 08:55:21.093750,-52.34,51.18
20132,2018-06-29 08:55:21.125000,-35.21,51.18
20133,2018-06-29 08:55:21.156250,-13.13,51.18
20134,2018-06-29 08:55:21.187500,4.93,51.18
20135,2018-06-29 08:55:21.218750,15.93,51.18
20136,2018-06-29 08:55:21.250000,22.86,51.18
20137,2018-06-29 08:55:21.281250,28.54,51.18
20138,2018-06-29 08:55:21.312500,33.44,51.18
20139,2018-06-29 08:55:21.343750,39.17,51.18
20140,2018-06-29 08:55:21.375000,49.35,51.18
20141,2018-06-29 08:55:21.406250,64.94,51.18
20142,2018-06-29 08:55:21.437500,81.56,51.18
20143,2018-06-29 08:55:21.468750,94.0,51.18
20144,2018-06-29 08:55:21.500000,100.95,51.18
20145,2018-06-29 08:55:21.531250,104.13,51.1
20146,2018-06-29 08:55:21.562500,105.81,51.1
20147,2018-06-29 08:55:21.593750,106.44,51.1
20148,2018-06-29 08:55:21.625000,99.42,51.1
20149,2018-06-29 08:55:21.656250,73.73,51.1
20150,2018-06-29 08:55:21.687500,28.49,51.1
20151,2018-06-29 08:55:21.718750,-22.95,51.1
20152,2018-06-29 08:55:21.750000,-68.24,51.1
20153,2018-06-29 08:55:21.781250,-103.8,51.1
20154,2018-06-29 08:55:21.812500,-124.95,51.1
20155,2018-06-29 08:55:21.843750,-122.82,51.1
20156,2018-06-29 08:55:21.875000,-97.61,51.1
20157,2018-06-29 08:55:21.906250,-66.74,51.1
20158,2018-06-29 08:55:21.937500,-50.25,51.1
20159,2018-06-29 08:55:21.968750,-48.53,51.1
20160,2018-06-29 08:55:22.000000,-44.62,51.1
20161,2018-06-29 08:55:22.031250,-28.01,51.1
20162,2018-06-29 08:55:22.062500,-2.1,51.1
20163,2018-06-29 08:55:22.093750,28.43,51.1
20164,2018-06-29 08:55:22.125000,59.75,51.1
20165,2018-06-29 08:55:22.156250,82.79,51.1
20166,2018-06-29 08:55:22.187500,90.51,51.1
20167,2018-06-29 08:55:22.218750,86.5,51.1
20168,2018-06-29 08:55:22.250000,76.86,51.1
20169,2018-06-29 08:55:22.281250,61.76,51.1
20170,2018-06-29 08:55:22.312500,41.79,51.1
20171,2018-06-29 08:55:22.343750,23.12,51.1
20172,2018-06-29 08:55:22.375000,9.03,51.1
20173,2018-06-29 08:55:22.406250,-6.56,51.1
20174,2018-06-29 08:55:22.437500,-30.49,51.1
20175,2018-06-29 08:55:22.468750,-59.77,51.1
20176,2018-06-29 08:55:22.500000,-83.7,51.1
20177,2018-06-29 08:55:22.531250,-92.3,51.0
20178,2018-06-29 08:55:22.562500,-82.09,51.0
20179,2018-06-29 08:55:22.593750,-58.88,51.0
20180,2018-06-29 08:55:22.625000,-34.07,51.0
20181,2018-06-29 08:55:22.656250,-14.9,51.0
20182,2018-06-29 08:55:22.687500,-1.11,51.0
20183,2018-06-29 08:55:22.718750,9.24,51.0
20184,2018-06-29 08:55:22.750000,16.69,51.0
20185,2018-06-29 08:55:22.781250,22.7,51.0
20186,2018-06-29 08:55:22.812500,29.05,51.0
20187,2018-06-29 08:55:22.843750,34.89,51.0
20188,2018-06-29 08:55:22.875000,38.24,51.0
20189,2018-06-29 08:55:22.906250,39.28,51.0
20190,2018-06-29 08:55:22.937500,39.38,51.0
20191,2018-06-29 08:55:22.968750,38.56,51.0
20192,2018-06-29 08:55:23.000000,35.89,51.0
20193,2018-06-29 08:55:23.031250,31.06,51.0
20194,2018-06-29 08:55:23.062500,24.64,51.0
20195,2018-06-29 08:55:23.093750,17.39,51.0
20196,2018-06-29 08:55:23.125000,9.31,51.0
20197,2018-06-29 08:55:23.156250,-0.29,51.0
20198,2018-06-29 08:55:23.187500,-11.16,51.0
20199,2018-06-29 08:55:23.218750,-21.75,51.0
20200,2018-06-29 08:55:23.250000,-31.27,51.0
20201,2018-06-29 08:55:23.281250,-40.88,51.0
20202,2018-06-29 08:55:23.312500,-51.97,51.0
20203,2018-06-29 08:55:23.343750,-63.96,51.0
20204,2018-06-29 08:55:23.375000,-72.81,51.0
20205,2018-06-29 08:55:23.406250,-72.72,51.0
20206,2018-06-29 08:55:23.437500,-61.77,51.0
20207,2018-06-29 08:55:23.468750,-45.18,51.0
20208,2018-06-29 08:55:23.500000,-30.25,51.0
20209,2018-06-29 08:55:23.531250,-19.72,50.9
20210,2018-06-29 08:55:23.562500,-12.25,50.9
20211,2018-06-29 08:55:23.593750,-5.97,50.9
20212,2018-06-29 08:55:23.625000,0.68,50.9
20213,2018-06-29 08:55:23.656250,8.47,50.9
20214,2018-06-29 08:55:23.687500,16.29,50.9
20215,2018-06-29 08:55:23.718750,23.06,50.9
20216,2018-06-29 08:55:23.750000,29.73,50.9
20217,2018-06-29 08:55:23.781250,37.11,50.9
20218,2018-06-29 08:55:23.812500,43.31,50.9
20219,2018-06-29 08:55:23.843750,46.16,50.9
20220,2018-06-29 08:55:23.875000,46.06,50.9
20221,2018-06-29 08:55:23.906250,44.64,50.9
20222,2018-06-29 08:55:23.937500,42.77,50.9
20223,2018-06-29 08:55:23.968750,41.06,50.9
20224,2018-06-29 08:55:24.000000,40.47,50.9
20225,2018-06-29 08:55:24.031250,41.36,50.9
20226,2018-06-29 08:55:24.062500,42.63,50.9
20227,2018-06-29 08:55:24.093750,42.62,50.9
20228,2018-06-29 08:55:24.125000,40.26,50.9
20229,2018-06-29 08:55:24.156250,34.89,50.9
20230,2018-06-29 08:55:24.187500,27.55,50.9
20231,2018-06-29 08:55:24.218750,22.32,50.9
20232,2018-06-29 08:55:24.250000,21.73,50.9
20233,2018-06-29 08:55:24.281250,21.08,50.9
20234,2018-06-29 08:55:24.312500,13.69,50.9
20235,2018-06-29 08:55:24.343750,0.27,50.9
20236,2018-06-29 08:55:24.375000,-13.01,50.9
20237,2018-06-29 08:55:24.406250,-23.77,50.9
20238,2018-06-29 08:55:24.437500,-34.6,50.9
20239,2018-06-29 08:55:24.468750,-47.34,50.9
20240,2018-06-29 08:55:24.500000,-61.05,50.9
20241,2018-06-29 08:55:24.531250,-73.09,50.82
20242,2018-06-29 08:55:24.562500,-78.58,50.82
20243,2018-06-29 08:55:24.593750,-72.32,50.82
20244,2018-06-29 08:55:24.625000,-55.44,50.82
20245,2018-06-29 08:55:24.656250,-36.38,50.82
20246,2018-06-29 08:55:24.687500,-22.11,50.82
20247,2018-06-29 08:55:24.718750,-12.4,50.82
20248,2018-06-29 08:55:24.750000,-4.75,50.82
20249,2018-06-29 08:55:24.781250,0.89,50.82
20250,2018-06-29 08:55:24.812500,4.26,50.82
20251,2018-06-29 08:55:24.843750,6.83,50.82
20252,2018-06-29 08:55:24.875000,10.04,50.82
20253,2018-06-29 08:55:24.906250,14.25,50.82
20254,2018-06-29 08:55:24.937500,19.23,50.82
20255,2018-06-29 08:55:24.968750,24.07,50.82
20256,2018-06-29 08:55:25.000000,27.0,50.82
20257,2018-06-29 08:55:25.031250,26.67,50.82
20258,2018-06-29 08:55:25.062500,23.9,50.82
20259,2018-06-29 08:55:25.093750,21.33,50.82
20260,2018-06-29 08:55:25.125000,20.46,50.82
20261,2018-06-29 08:55:25.156250,20.02,50.82
20262,2018-06-29 08:55:25.187500,18.51,50.82
20263,2018-06-29 08:55:25.218750,16.63,50.82
20264,2018-06-29 08:55:25.250000,15.86,50.82
20265,2018-06-29 08:55:25.281250,15.94,50.82
20266,2018-06-29 08:55:25.312500,15.25,50.82
20267,2018-06-29 08:55:25.343750,12.92,50.82
20268,2018-06-29 08:55:25.375000,9.68,50.82
20269,2018-06-29 08:55:25.406250,6.56,50.82
20270,2018-06-29 08:55:25.437500,3.53,50.82
20271,2018-06-29 08:55:25.468750,0.14,50.82
20272,2018-06-29 08:55:25.500000,-3.56,50.82
20273,2018-06-29 08:55:25.531250,-7.31,50.73
20274,2018-06-29 08:55:25.562500,-11.04,50.73
20275,2018-06-29 08:55:25.593750,-14.99,50.73
20276,2018-06-29 08:55:25.625000,-19.74,50.73
20277,2018-06-29 08:55:25.656250,-25.37,50.73
20278,2018-06-29 08:55:25.687500,-30.63,50.73
20279,2018-06-29 08:55:25.718750,-34.95,50.73
20280,2018-06-29 08:55:25.750000,-40.54,50.73
20281,2018-06-29 08:55:25.781250,-50.31,50.73
20282,2018-06-29 08:55:25.812500,-63.53,50.73
20283,2018-06-29 08:55:25.843750,-74.09,50.73
20284,2018-06-29 08:55:25.875000,-74.2,50.73
20285,2018-06-29 08:55:25.906250,-61.47,50.73
20286,2018-06-29 08:55:25.937500,-41.91,50.73
20287,2018-06-29 08:55:25.968750,-23.73,50.73
20288,2018-06-29 08:55:26.000000,-10.08,50.73
20289,2018-06-29 08:55:26.031250,0.32,50.73
20290,2018-06-29 08:55:26.062500,8.38,50.73
20291,2018-06-29 08:55:26.093750,13.97,50.73
20292,2018-06-29 08:55:26.125000,17.84,50.73
20293,2018-06-29 08:55:26.156250,21.39,50.73
20294,2018-06-29 08:55:26.187500,24.86,50.73
20295,2018-06-29 08:55:26.218750,27.87,50.73
20296,2018-06-29 08:55:26.250000,30.88,50.73
20297,2018-06-29 08:55:26.281250,34.02,50.73
20298,2018-06-29 08:55:26.312500,35.9,50.73
20299,2018-06-29 08:55:26.343750,35.05,50.73
20300,2018-06-29 08:55:26.375000,31.88,50.73
20301,2018-06-29 08:55:26.406250,28.08,50.73
20302,2018-06-29 08:55:26.437500,25.05,50.73
20303,2018-06-29 08:55:26.468750,22.99,50.73
20304,2018-06-29 08:55:26.500000,21.13,50.73
20305,2018-06-29 08:55:26.531250,18.9,50.67
20306,2018-06-29 08:55:26.562500,16.66,50.67
20307,2018-06-29 08:55:26.593750,14.85,50.67
20308,2018-06-29 08:55:26.625000,12.88,50.67
20309,2018-06-29 08:55:26.656250,9.74,50.67
20310,2018-06-29 08:55:26.687500,5.63,50.67
20311,2018-06-29 08:55:26.718750,1.52,50.67
20312,2018-06-29 08:55:26.750000,-2.55,50.67
20313,2018-06-29 08:55:26.781250,-7.2,50.67
20314,2018-06-29 08:55:26.812500,-12.29,50.67
20315,2018-06-29 08:55:26.843750,-17.44,50.67
20316,2018-06-29 08:55:26.875000,-22.72,50.67
20317,2018-06-29 08:55:26.906250,-28.59,50.67
20318,2018-06-29 08:55:26.937500,-35.96,50.67
20319,2018-06-29 08:55:26.968750,-45.22,50.67
20320,2018-06-29 08:55:27.000000,-53.43,50.67
20321,2018-06-29 08:55:27.031250,-54.38,50.67
20322,2018-06-29 08:55:27.062500,-44.3,50.67
20323,2018-06-29 08:55:27.093750,-26.72,50.67
20324,2018-06-29 08:55:27.125000,-9.04,50.67
20325,2018-06-29 08:55:27.156250,4.1,50.67
20326,2018-06-29 08:55:27.187500,12.44,50.67
20327,2018-06-29 08:55:27.218750,16.92,50.67
20328,2018-06-29 08:55:27.250000,18.25,50.67
20329,2018-06-29 08:55:27.281250,18.01,50.67
20330,2018-06-29 08:55:27.312500,18.67,50.67
20331,2018-06-29 08:55:27.343750,21.39,50.67
20332,2018-06-29 08:55:27.375000,25.26,50.67
20333,2018-06-29 08:55:27.406250,29.09,50.67
20334,2018-06-29 08:55:27.437500,32.24,50.67
20335,2018-06-29 08:55:27.468750,33.39,50.67
20336,2018-06-29 08:55:27.500000,31.24,50.67
20337,2018-06-29 08:55:27.531250,26.79,50.62
20338,2018-06-29 08:55:27.562500,22.84,50.62
20339,2018-06-29 08:55:27.593750,20.86,50.62
20340,2018-06-29 08:55:27.625000,19.82,50.62
20341,2018-06-29 08:55:27.656250,18.1,50.62
20342,2018-06-29 08:55:27.687500,15.66,50.62
20343,2018-06-29 08:55:27.718750,13.54,50.62
20344,2018-06-29 08:55:27.750000,11.72,50.62
20345,2018-06-29 08:55:27.781250,9.03,50.62
20346,2018-06-29 08:55:27.812500,5.05,50.62
20347,2018-06-29 08:55:27.843750,0.21,50.62
20348,2018-06-29 08:55:27.875000,-5.0,50.62
20349,2018-06-29 08:55:27.906250,-9.94,50.62
20350,2018-06-29 08:55:27.937500,-14.61,50.62
20351,2018-06-29 08:55:27.968750,-20.32,50.62
20352,2018-06-29 08:55:28.000000,-27.38,50.62
20353,2018-06-29 08:55:28.031250,-34.01,50.62
20354,2018-06-29 08:55:28.062500,-39.79,50.62
20355,2018-06-29 08:55:28.093750,-47.49,50.62
20356,2018-06-29 08:55:28.125000,-59.21,50.62
20357,2018-06-29 08:55:28.156250,-71.61,50.62
20358,2018-06-29 08:55:28.187500,-76.87,50.62
20359,2018-06-29 08:55:28.218750,-69.37,50.62
20360,2018-06-29 08:55:28.250000,-51.57,50.62
20361,2018-06-29 08:55:28.281250,-31.73,50.62
20362,2018-06-29 08:55:28.312500,-15.44,50.62
20363,2018-06-29 08:55:28.343750,-2.58,50.62
20364,2018-06-29 08:55:28.375000,8.28,50.62
20365,2018-06-29 08:55:28.406250,17.17,50.62
20366,2018-06-29 08:55:28.437500,24.13,50.62
20367,2018-06-29 08:55:28.468750,29.84,50.62
20368,2018-06-29 08:55:28.500000,34.45,50.62
20369,2018-06-29 08:55:28.531250,37.61,50.57
20370,2018-06-29 08:55:28.562500,39.64,50.57
20371,2018-06-29 08:55:28.593750,41.24,50.57
20372,2018-06-29 08:55:28.625000,42.24,50.57
20373,2018-06-29 08:55:28.656250,41.5,50.57
20374,2018-06-29 08:55:28.687500,38.32,50.57
20375,2018-06-29 08:55:28.718750,33.6,50.57
20376,2018-06-29 08:55:28.750000,29.2,50.57
20377,2018-06-29 08:55:28.781250,26.27,50.57
20378,2018-06-29 08:55:28.812500,24.3,50.57
20379,2018-06-29 08:55:28.843750,22.47,50.57
20380,2018-06-29 08:55:28.875000,20.81,50.57
20381,2018-06-29 08:55:28.906250,19.34,50.57
20382,2018-06-29 08:55:28.937500,17.43,50.57
20383,2018-06-29 08:55:28.968750,15.02,50.57
20384,2018-06-29 08:55:29.000000,12.65,50.57
20385,2018-06-29 08:55:29.031250,10.33,50.57
20386,2018-06-29 08:55:29.062500,7.7,50.57
20387,2018-06-29 08:55:29.093750,4.85,50.57
20388,2018-06-29 08:55:29.125000,1.66,50.57
20389,2018-06-29 08:55:29.156250,-2.39,50.57
20390,2018-06-29 08:55:29.187500,-6.9,50.57
20391,2018-06-29 08:55:29.218750,-10.83,50.57
20392,2018-06-29 08:55:29.250000,-14.7,50.57
20393,2018-06-29 08:55:29.281250,-20.0,50.57
20394,2018-06-29 08:55:29.312500,-26.49,50.57
20395,2018-06-29 08:55:29.343750,-32.66,50.57
20396,2018-06-29 08:55:29.375000,-38.34,50.57
20397,2018-06-29 08:55:29.406250,-45.2,50.57
20398,2018-06-29 08:55:29.437500,-55.2,50.57
20399,2018-06-29 08:55:29.468750,-67.78,50.57
20400,2018-06-29 08:55:29.500000,-76.87,50.57
20401,2018-06-29 08:55:29.531250,-73.82,50.48
20402,2018-06-29 08:55:29.562500,-57.1,50.48
20403,2018-06-29 08:55:29.593750,-35.1,50.48
20404,2018-06-29 08:55:29.625000,-17.21,50.48
20405,2018-06-29 08:55:29.656250,-5.54,50.48
20406,2018-06-29 08:55:29.687500,3.18,50.48
20407,2018-06-29 08:55:29.718750,11.37,50.48
20408,2018-06-29 08:55:29.750000,18.51,50.48
20409,2018-06-29 08:55:29.781250,23.43,50.48
20410,2018-06-29 08:55:29.812500,26.49,50.48
20411,2018-06-29 08:55:29.843750,29.1,50.48
20412,2018-06-29 08:55:29.875000,32.25,50.48
20413,2018-06-29 08:55:29.906250,36.12,50.48
20414,2018-06-29 08:55:29.937500,39.69,50.48
20415,2018-06-29 08:55:29.968750,40.87,50.48
20416,2018-06-29 08:55:30.000000,38.72,50.48
20417,2018-06-29 08:55:30.031250,35.04,50.48
20418,2018-06-29 08:55:30.062500,32.14,50.48
20419,2018-06-29 08:55:30.093750,30.08,50.48
20420,2018-06-29 08:55:30.125000,27.94,50.48
20421,2018-06-29 08:55:30.156250,25.83,50.48
20422,2018-06-29 08:55:30.187500,24.05,50.48
20423,2018-06-29 08:55:30.218750,22.32,50.48
20424,2018-06-29 08:55:30.250000,20.48,50.48
20425,2018-06-29 08:55:30.281250,18.37,50.48
20426,2018-06-29 08:55:30.312500,15.54,50.48
20427,2018-06-29 08:55:30.343750,12.15,50.48
20428,2018-06-29 08:55:30.375000,8.94,50.48
20429,2018-06-29 08:55:30.406250,5.64,50.48
20430,2018-06-29 08:55:30.437500,1.11,50.48
20431,2018-06-29 08:55:30.468750,-4.34,50.48
20432,2018-06-29 08:55:30.500000,-8.93,50.48
20433,2018-06-29 08:55:30.531250,-12.3,50.5
20434,2018-06-29 08:55:30.562500,-16.31,50.5
20435,2018-06-29 08:55:30.593750,-22.13,50.5
20436,2018-06-29 08:55:30.625000,-28.3,50.5
20437,2018-06-29 08:55:30.656250,-33.31,50.5
20438,2018-06-29 08:55:30.687500,-38.41,50.5
20439,2018-06-29 08:55:30.718750,-46.43,50.5
20440,2018-06-29 08:55:30.750000,-58.17,50.5
20441,2018-06-29 08:55:30.781250,-69.47,50.5
20442,2018-06-29 08:55:30.812500,-72.27,50.5
20443,2018-06-29 08:55:30.843750,-61.58,50.5
20444,2018-06-29 08:55:30.875000,-41.69,50.5
20445,2018-06-29 08:55:30.906250,-21.9,50.5
20446,2018-06-29 08:55:30.937500,-7.1,50.5
20447,2018-06-29 08:55:30.968750,3.53,50.5
20448,2018-06-29 08:55:31.000000,11.51,50.5
20449,2018-06-29 08:55:31.031250,17.2,50.5
20450,2018-06-29 08:55:31.062500,21.03,50.5
20451,2018-06-29 08:55:31.093750,23.71,50.5
20452,2018-06-29 08:55:31.125000,25.93,50.5
20453,2018-06-29 08:55:31.156250,28.56,50.5
20454,2018-06-29 08:55:31.187500,32.03,50.5
20455,2018-06-29 08:55:31.218750,35.43,50.5
20456,2018-06-29 08:55:31.250000,37.22,50.5
20457,2018-06-29 08:55:31.281250,36.47,50.5
20458,2018-06-29 08:55:31.312500,33.67,50.5
20459,2018-06-29 08:55:31.343750,30.56,50.5
20460,2018-06-29 08:55:31.375000,28.56,50.5
20461,2018-06-29 08:55:31.406250,27.19,50.5
20462,2018-06-29 08:55:31.437500,25.02,50.5
20463,2018-06-29 08:55:31.468750,21.96,50.5
20464,2018-06-29 08:55:31.500000,19.43,50.5
20465,2018-06-29 08:55:31.531250,18.01,50.5
20466,2018-06-29 08:55:31.562500,16.62,50.5
20467,2018-06-29 08:55:31.593750,14.21,50.5
20468,2018-06-29 08:55:31.625000,11.13,50.5
20469,2018-06-29 08:55:31.656250,8.08,50.5
20470,2018-06-29 08:55:31.687500,4.87,50.5
20471,2018-06-29 08:55:31.718750,1.18,50.5
20472,2018-06-29 08:55:31.750000,-2.66,50.5
20473,2018-06-29 08:55:31.781250,-6.41,50.5
20474,2018-06-29 08:55:31.812500,-10.24,50.5
20475,2018-06-29 08:55:31.843750,-14.53,50.5
20476,2018-06-29 08:55:31.875000,-19.56,50.5
20477,2018-06-29 08:55:31.906250,-25.07,50.5
20478,2018-06-29 08:55:31.937500,-30.46,50.5
20479,2018-06-29 08:55:31.968750,-35.9,50.5
20480,2018-06-29 08:55:32.000000,-42.89,50.5
20481,2018-06-29 08:55:32.031250,-52.55,50.5
20482,2018-06-29 08:55:32.062500,-61.44,50.5
20483,2018-06-29 08:55:32.093750,-61.65,50.5
20484,2018-06-29 08:55:32.125000,-49.26,50.5
20485,2018-06-29 08:55:32.156250,-30.11,50.5
20486,2018-06-29 08:55:32.187500,-12.99,50.5
20487,2018-06-29 08:55:32.218750,-0.9,50.5
20488,2018-06-29 08:55:32.250000,7.39,50.5
20489,2018-06-29 08:55:32.281250,12.6,50.5
20490,2018-06-29 08:55:32.312500,15.14,50.5
20491,2018-06-29 08:55:32.343750,16.68,50.5
20492,2018-06-29 08:55:32.375000,18.73,50.5
20493,2018-06-29 08:55:32.406250,21.4,50.5
20494,2018-06-29 08:55:32.437500,24.35,50.5
20495,2018-06-29 08:55:32.468750,27.45,50.5
20496,2018-06-29 08:55:32.500000,30.25,50.5
20497,2018-06-29 08:55:32.531250,31.52,50.48
20498,2018-06-29 08:55:32.562500,30.16,50.48
20499,2018-06-29 08:55:32.593750,26.47,50.48
20500,2018-06-29 08:55:32.625000,22.58,50.48
20501,2018-06-29 08:55:32.656250,20.35,50.48
20502,2018-06-29 08:55:32.687500,19.02,50.48
20503,2018-06-29 08:55:32.718750,16.94,50.48
20504,2018-06-29 08:55:32.750000,14.37,50.48
20505,2018-06-29 08:55:32.781250,12.53,50.48
20506,2018-06-29 08:55:32.812500,10.87,50.48
20507,2018-06-29 08:55:32.843750,7.78,50.48
20508,2018-06-29 08:55:32.875000,3.35,50.48
20509,2018-06-29 08:55:32.906250,-1.0,50.48
20510,2018-06-29 08:55:32.937500,-4.81,50.48
20511,2018-06-29 08:55:32.968750,-8.92,50.48
20512,2018-06-29 08:55:33.000000,-14.08,50.48
20513,2018-06-29 08:55:33.031250,-20.09,50.48
20514,2018-06-29 08:55:33.062500,-25.81,50.48
20515,2018-06-29 08:55:33.093750,-30.61,50.48
20516,2018-06-29 08:55:33.125000,-35.73,50.48
20517,2018-06-29 08:55:33.156250,-43.56,50.48
20518,2018-06-29 08:55:33.187500,-54.5,50.48
20519,2018-06-29 08:55:33.218750,-63.56,50.48
20520,2018-06-29 08:55:33.250000,-62.56,50.48
20521,2018-06-29 08:55:33.281250,-48.9,50.48
20522,2018-06-29 08:55:33.312500,-29.48,50.48
20523,2018-06-29 08:55:33.343750,-12.53,50.48
20524,2018-06-29 08:55:33.375000,-0.04,50.48
20525,2018-06-29 08:55:33.406250,9.02,50.48
20526,2018-06-29 08:55:33.437500,14.8,50.48
20527,2018-06-29 08:55:33.468750,18.32,50.48
20528,2018-06-29 08:55:33.500000,21.35,50.48
20529,2018-06-29 08:55:33.531250,24.07,50.43
20530,2018-06-29 08:55:33.562500,26.43,50.43
20531,2018-06-29 08:55:33.593750,29.5,50.43
20532,2018-06-29 08:55:33.625000,33.27,50.43
20533,2018-06-29 08:55:33.656250,35.95,50.43
20534,2018-06-29 08:55:33.687500,36.31,50.43
20535,2018-06-29 08:55:33.718750,34.45,50.43
20536,2018-06-29 08:55:33.750000,31.08,50.43
20537,2018-06-29 08:55:33.781250,27.5,50.43
20538,2018-06-29 08:55:33.812500,24.87,50.43
20539,2018-06-29 08:55:33.843750,23.1,50.43
20540,2018-06-29 08:55:33.875000,21.47,50.43
20541,2018-06-29 08:55:33.906250,19.63,50.43
20542,2018-06-29 08:55:33.937500,17.56,50.43
20543,2018-06-29 08:55:33.968750,15.37,50.43
20544,2018-06-29 08:55:34.000000,12.88,50.43
20545,2018-06-29 08:55:34.031250,9.36,50.43
20546,2018-06-29 08:55:34.062500,4.51,50.43
20547,2018-06-29 08:55:34.093750,-0.65,50.43
20548,2018-06-29 08:55:34.125000,-5.14,50.43
20549,2018-06-29 08:55:34.156250,-9.37,50.43
20550,2018-06-29 08:55:34.187500,-14.62,50.43
20551,2018-06-29 08:55:34.218750,-21.16,50.43
20552,2018-06-29 08:55:34.250000,-27.74,50.43
20553,2018-06-29 08:55:34.281250,-33.27,50.43
20554,2018-06-29 08:55:34.312500,-38.69,50.43
20555,2018-06-29 08:55:34.343750,-46.36,50.43
20556,2018-06-29 08:55:34.375000,-56.82,50.43
20557,2018-06-29 08:55:34.406250,-66.09,50.43
20558,2018-06-29 08:55:34.437500,-67.47,50.43
20559,2018-06-29 08:55:34.468750,-57.37,50.43
20560,2018-06-29 08:55:34.500000,-39.01,50.43
20561,2018-06-29 08:55:34.531250,-19.83,50.38
20562,2018-06-29 08:55:34.562500,-5.07,50.38
20563,2018-06-29 08:55:34.593750,5.09,50.38
20564,2018-06-29 08:55:34.625000,12.6,50.38
20565,2018-06-29 08:55:34.656250,18.13,50.38
20566,2018-06-29 08:55:34.687500,21.81,50.38
20567,2018-06-29 08:55:34.718750,24.47,50.38
20568,2018-06-29 08:55:34.750000,26.99,50.38
20569,2018-06-29 08:55:34.781250,30.11,50.38
20570,2018-06-29 08:55:34.812500,34.02,50.38
20571,2018-06-29 08:55:34.843750,37.44,50.38
20572,2018-06-29 08:55:34.875000,38.6,50.38
20573,2018-06-29 08:55:34.906250,37.23,50.38
20574,2018-06-29 08:55:34.937500,34.43,50.38
20575,2018-06-29 08:55:34.968750,31.68,50.38
20576,2018-06-29 08:55:35.000000,29.95,50.38
20577,2018-06-29 08:55:35.031250,28.63,50.38
20578,2018-06-29 08:55:35.062500,26.28,50.38
20579,2018-06-29 08:55:35.093750,23.08,50.38
20580,2018-06-29 08:55:35.125000,20.55,50.38
20581,2018-06-29 08:55:35.156250,18.89,50.38
20582,2018-06-29 08:55:35.187500,16.92,50.38
20583,2018-06-29 08:55:35.218750,14.23,50.38
20584,2018-06-29 08:55:35.250000,11.43,50.38
20585,2018-06-29 08:55:35.281250,8.41,50.38
20586,2018-06-29 08:55:35.312500,4.45,50.38
20587,2018-06-29 08:55:35.343750,-0.22,50.38
20588,2018-06-29 08:55:35.375000,-4.46,50.38
20589,2018-06-29 08:55:35.406250,-8.2,50.38
20590,2018-06-29 08:55:35.437500,-12.71,50.38
20591,2018-06-29 08:55:35.468750,-18.2,50.38
20592,2018-06-29 08:55:35.500000,-23.12,50.38
20593,2018-06-29 08:55:35.531250,-27.36,50.33
20594,2018-06-29 08:55:35.562500,-33.22,50.33
20595,2018-06-29 08:55:35.593750,-41.67,50.33
20596,2018-06-29 08:55:35.625000,-50.73,50.33
20597,2018-06-29 08:55:35.656250,-58.82,50.33
20598,2018-06-29 08:55:35.687500,-66.99,50.33
20599,2018-06-29 08:55:35.718750,-77.04,50.33
20600,2018-06-29 08:55:35.750000,-88.6,50.33
20601,2018-06-29 08:55:35.781250,-97.19,50.33
20602,2018-06-29 08:55:35.812500,-95.53,50.33
20603,2018-06-29 08:55:35.843750,-80.17,50.33
20604,2018-06-29 08:55:35.875000,-56.17,50.33
20605,2018-06-29 08:55:35.906250,-32.21,50.33
20606,2018-06-29 08:55:35.937500,-12.39,50.33
20607,2018-06-29 08:55:35.968750,4.43,50.33
20608,2018-06-29 08:55:36.000000,19.32,50.33
20609,2018-06-29 08:55:36.031250,31.16,50.33
20610,2018-06-29 08:55:36.062500,39.94,50.33
20611,2018-06-29 08:55:36.093750,48.29,50.33
20612,2018-06-29 08:55:36.125000,57.91,50.33
20613,2018-06-29 08:55:36.156250,66.47,50.33
20614,2018-06-29 08:55:36.187500,70.21,50.33
20615,2018-06-29 08:55:36.218750,67.91,50.33
20616,2018-06-29 08:55:36.250000,62.35,50.33
20617,2018-06-29 08:55:36.281250,59.36,50.33
20618,2018-06-29 08:55:36.312500,62.15,50.33
20619,2018-06-29 08:55:36.343750,65.77,50.33
20620,2018-06-29 08:55:36.375000,62.22,50.33
20621,2018-06-29 08:55:36.406250,50.51,50.33
20622,2018-06-29 08:55:36.437500,36.86,50.33
20623,2018-06-29 08:55:36.468750,27.07,50.33
20624,2018-06-29 08:55:36.500000,22.92,50.33
20625,2018-06-29 08:55:36.531250,22.92,51.08
20626,2018-06-29 08:55:36.562500,23.49,51.08
20627,2018-06-29 08:55:36.593750,21.54,51.08
20628,2018-06-29 08:55:36.625000,17.38,51.08
20629,2018-06-29 08:55:36.656250,13.26,51.08
20630,2018-06-29 08:55:36.687500,9.71,51.08
20631,2018-06-29 08:55:36.718750,5.61,51.08
20632,2018-06-29 08:55:36.750000,0.83,51.08
20633,2018-06-29 08:55:36.781250,-3.9,51.08
20634,2018-06-29 08:55:36.812500,-8.55,51.08
20635,2018-06-29 08:55:36.843750,-13.52,51.08
20636,2018-06-29 08:55:36.875000,-19.07,51.08
20637,2018-06-29 08:55:36.906250,-25.17,51.08
20638,2018-06-29 08:55:36.937500,-31.13,51.08
20639,2018-06-29 08:55:36.968750,-36.69,51.08
20640,2018-06-29 08:55:37.000000,-43.46,51.08
20641,2018-06-29 08:55:37.031250,-52.41,51.08
20642,2018-06-29 08:55:37.062500,-59.83,51.08
20643,2018-06-29 08:55:37.093750,-59.29,51.08
20644,2018-06-29 08:55:37.125000,-48.59,51.08
20645,2018-06-29 08:55:37.156250,-32.69,51.08
20646,2018-06-29 08:55:37.187500,-18.34,51.08
20647,2018-06-29 08:55:37.218750,-8.03,51.08
20648,2018-06-29 08:55:37.250000,-0.83,51.08
20649,2018-06-29 08:55:37.281250,3.92,51.08
20650,2018-06-29 08:55:37.312500,6.79,51.08
20651,2018-06-29 08:55:37.343750,9.53,51.08
20652,2018-06-29 08:55:37.375000,13.48,51.08
20653,2018-06-29 08:55:37.406250,17.97,51.08
20654,2018-06-29 08:55:37.437500,21.73,51.08
20655,2018-06-29 08:55:37.468750,24.85,51.08
20656,2018-06-29 08:55:37.500000,28.0,51.08
20657,2018-06-29 08:55:37.531250,30.02,51.83
20658,2018-06-29 08:55:37.562500,28.45,51.83
20659,2018-06-29 08:55:37.593750,23.59,51.83
20660,2018-06-29 08:55:37.625000,18.76,51.83
20661,2018-06-29 08:55:37.656250,15.54,51.83
20662,2018-06-29 08:55:37.687500,12.2,51.83
20663,2018-06-29 08:55:37.718750,7.17,51.83
20664,2018-06-29 08:55:37.750000,1.47,51.83
20665,2018-06-29 08:55:37.781250,-3.15,51.83
20666,2018-06-29 08:55:37.812500,-6.59,51.83
20667,2018-06-29 08:55:37.843750,-10.09,51.83
20668,2018-06-29 08:55:37.875000,-15.24,51.83
20669,2018-06-29 08:55:37.906250,-23.53,51.83
20670,2018-06-29 08:55:37.937500,-33.23,51.83
20671,2018-06-29 08:55:37.968750,-37.97,51.83
20672,2018-06-29 08:55:38.000000,-34.17,51.83
20673,2018-06-29 08:55:38.031250,-27.05,51.83
20674,2018-06-29 08:55:38.062500,-23.74,51.83
20675,2018-06-29 08:55:38.093750,-25.78,51.83
20676,2018-06-29 08:55:38.125000,-31.55,51.83
20677,2018-06-29 08:55:38.156250,-37.94,51.83
20678,2018-06-29 08:55:38.187500,-38.51,51.83
20679,2018-06-29 08:55:38.218750,-28.39,51.83
20680,2018-06-29 08:55:38.250000,-11.22,51.83
20681,2018-06-29 08:55:38.281250,4.33,51.83
20682,2018-06-29 08:55:38.312500,13.79,51.83
20683,2018-06-29 08:55:38.343750,19.29,51.83
20684,2018-06-29 08:55:38.375000,23.72,51.83
20685,2018-06-29 08:55:38.406250,26.97,51.83
20686,2018-06-29 08:55:38.437500,28.34,51.83
20687,2018-06-29 08:55:38.468750,29.27,51.83
20688,2018-06-29 08:55:38.500000,31.78,51.83
20689,2018-06-29 08:55:38.531250,35.95,51.83
20690,2018-06-29 08:55:38.562500,40.34,51.83
20691,2018-06-29 08:55:38.593750,43.24,51.83
20692,2018-06-29 08:55:38.625000,42.5,51.83
20693,2018-06-29 08:55:38.656250,36.2,51.83
20694,2018-06-29 08:55:38.687500,26.55,51.83
20695,2018-06-29 08:55:38.718750,21.51,51.83
20696,2018-06-29 08:55:38.750000,25.23,51.83
20697,2018-06-29 08:55:38.781250,29.58,51.83
20698,2018-06-29 08:55:38.812500,24.1,51.83
20699,2018-06-29 08:55:38.843750,10.61,51.83
20700,2018-06-29 08:55:38.875000,-0.48,51.83
20701,2018-06-29 08:55:38.906250,-3.46,51.83
20702,2018-06-29 08:55:38.937500,-0.04,51.83
20703,2018-06-29 08:55:38.968750,5.67,51.83
20704,2018-06-29 08:55:39.000000,9.83,51.83
20705,2018-06-29 08:55:39.031250,10.19,51.83
20706,2018-06-29 08:55:39.062500,6.89,51.83
20707,2018-06-29 08:55:39.093750,1.54,51.83
20708,2018-06-29 08:55:39.125000,-4.25,51.83
20709,2018-06-29 08:55:39.156250,-9.9,51.83
20710,2018-06-29 08:55:39.187500,-16.21,51.83
20711,2018-06-29 08:55:39.218750,-24.12,51.83
20712,2018-06-29 08:55:39.250000,-33.66,51.83
20713,2018-06-29 08:55:39.281250,-44.74,51.83
20714,2018-06-29 08:55:39.312500,-56.48,51.83
20715,2018-06-29 08:55:39.343750,-63.96,51.83
20716,2018-06-29 08:55:39.375000,-60.76,51.83
20717,2018-06-29 08:55:39.406250,-47.07,51.83
20718,2018-06-29 08:55:39.437500,-30.4,51.83
20719,2018-06-29 08:55:39.468750,-17.26,51.83
20720,2018-06-29 08:55:39.500000,-8.3,51.83
20721,2018-06-29 08:55:39.531250,-1.34,51.8
20722,2018-06-29 08:55:39.562500,4.6,51.8
20723,2018-06-29 08:55:39.593750,9.1,51.8
20724,2018-06-29 08:55:39.625000,12.27,51.8
20725,2018-06-29 08:55:39.656250,15.35,51.8
20726,2018-06-29 08:55:39.687500,19.33,51.8
20727,2018-06-29 08:55:39.718750,23.94,51.8
20728,2018-06-29 08:55:39.750000,28.03,51.8
20729,2018-06-29 08:55:39.781250,30.71,51.8
20730,2018-06-29 08:55:39.812500,31.93,51.8
20731,2018-06-29 08:55:39.843750,31.9,51.8
20732,2018-06-29 08:55:39.875000,30.62,51.8
20733,2018-06-29 08:55:39.906250,28.46,51.8
20734,2018-06-29 08:55:39.937500,26.19,51.8
20735,2018-06-29 08:55:39.968750,24.04,51.8
20736,2018-06-29 08:55:40.000000,21.69,51.8
20737,2018-06-29 08:55:40.031250,19.3,51.8
20738,2018-06-29 08:55:40.062500,17.3,51.8
20739,2018-06-29 08:55:40.093750,15.33,51.8
20740,2018-06-29 08:55:40.125000,12.58,51.8
20741,2018-06-29 08:55:40.156250,9.42,51.8
20742,2018-06-29 08:55:40.187500,7.11,51.8
20743,2018-06-29 08:55:40.218750,5.58,51.8
20744,2018-06-29 08:55:40.250000,3.15,51.8
20745,2018-06-29 08:55:40.281250,-1.13,51.8
20746,2018-06-29 08:55:40.312500,-6.08,51.8
20747,2018-06-29 08:55:40.343750,-10.16,51.8
20748,2018-06-29 08:55:40.375000,-13.44,51.8
20749,2018-06-29 08:55:40.406250,-17.24,51.8
20750,2018-06-29 08:55:40.437500,-22.11,51.8
20751,2018-06-29 08:55:40.468750,-27.27,51.8
20752,2018-06-29 08:55:40.500000,-32.0,51.8
20753,2018-06-29 08:55:40.531250,-37.33,51.77
20754,2018-06-29 08:55:40.562500,-45.81,51.77
20755,2018-06-29 08:55:40.593750,-57.71,51.77
20756,2018-06-29 08:55:40.625000,-67.59,51.77
20757,2018-06-29 08:55:40.656250,-67.71,51.77
20758,2018-06-29 08:55:40.687500,-56.17,51.77
20759,2018-06-29 08:55:40.718750,-38.77,51.77
20760,2018-06-29 08:55:40.750000,-22.36,51.77
20761,2018-06-29 08:55:40.781250,-9.68,51.77
20762,2018-06-29 08:55:40.812500,-0.27,51.77
20763,2018-06-29 08:55:40.843750,6.64,51.77
20764,2018-06-29 08:55:40.875000,11.44,51.77
20765,2018-06-29 08:55:40.906250,14.95,51.77
20766,2018-06-29 08:55:40.937500,18.51,51.77
20767,2018-06-29 08:55:40.968750,22.82,51.77
20768,2018-06-29 08:55:41.000000,27.1,51.77
20769,2018-06-29 08:55:41.031250,30.13,51.77
20770,2018-06-29 08:55:41.062500,31.86,51.77
20771,2018-06-29 08:55:41.093750,32.99,51.77
20772,2018-06-29 08:55:41.125000,33.09,51.77
20773,2018-06-29 08:55:41.156250,31.23,51.77
20774,2018-06-29 08:55:41.187500,28.28,51.77
20775,2018-06-29 08:55:41.218750,26.2,51.77
20776,2018-06-29 08:55:41.250000,25.21,51.77
20777,2018-06-29 08:55:41.281250,23.88,51.77
20778,2018-06-29 08:55:41.312500,21.85,51.77
20779,2018-06-29 08:55:41.343750,19.93,51.77
20780,2018-06-29 08:55:41.375000,18.21,51.77
20781,2018-06-29 08:55:41.406250,16.07,51.77
20782,2018-06-29 08:55:41.437500,13.54,51.77
20783,2018-06-29 08:55:41.468750,10.9,51.77
20784,2018-06-29 08:55:41.500000,7.95,51.77
20785,2018-06-29 08:55:41.531250,4.82,51.73
20786,2018-06-29 08:55:41.562500,1.97,51.73
20787,2018-06-29 08:55:41.593750,-1.02,51.73
20788,2018-06-29 08:55:41.625000,-4.77,51.73
20789,2018-06-29 08:55:41.656250,-8.88,51.73
20790,2018-06-29 08:55:41.687500,-12.79,51.73
20791,2018-06-29 08:55:41.718750,-16.85,51.73
20792,2018-06-29 08:55:41.750000,-21.4,51.73
20793,2018-06-29 08:55:41.781250,-26.27,51.73
20794,2018-06-29 08:55:41.812500,-31.67,51.73
20795,2018-06-29 08:55:41.843750,-38.75,51.73
20796,2018-06-29 08:55:41.875000,-47.72,51.73
20797,2018-06-29 08:55:41.906250,-54.85,51.73
20798,2018-06-29 08:55:41.937500,-53.74,51.73
20799,2018-06-29 08:55:41.968750,-42.17,51.73
20800,2018-06-29 08:55:42.000000,-25.44,51.73
20801,2018-06-29 08:55:42.031250,-10.5,51.73
20802,2018-06-29 08:55:42.062500,0.34,51.73
20803,2018-06-29 08:55:42.093750,7.57,51.73
20804,2018-06-29 08:55:42.125000,10.89,51.73
20805,2018-06-29 08:55:42.156250,11.03,51.73
20806,2018-06-29 08:55:42.187500,11.36,51.73
20807,2018-06-29 08:55:42.218750,14.18,51.73
20808,2018-06-29 08:55:42.250000,18.17,51.73
20809,2018-06-29 08:55:42.281250,21.54,51.73
20810,2018-06-29 08:55:42.312500,24.72,51.73
20811,2018-06-29 08:55:42.343750,27.55,51.73
20812,2018-06-29 08:55:42.375000,27.97,51.73
20813,2018-06-29 08:55:42.406250,25.49,51.73
20814,2018-06-29 08:55:42.437500,22.54,51.73
20815,2018-06-29 08:55:42.468750,20.95,51.73
20816,2018-06-29 08:55:42.500000,20.02,51.73
20817,2018-06-29 08:55:42.531250,18.6,51.7
20818,2018-06-29 08:55:42.562500,16.74,51.7
20819,2018-06-29 08:55:42.593750,14.69,51.7
20820,2018-06-29 08:55:42.625000,12.29,51.7
20821,2018-06-29 08:55:42.656250,9.52,51.7
20822,2018-06-29 08:55:42.687500,6.64,51.7
20823,2018-06-29 08:55:42.718750,3.44,51.7
20824,2018-06-29 08:55:42.750000,-0.57,51.7
20825,2018-06-29 08:55:42.781250,-5.19,51.7
20826,2018-06-29 08:55:42.812500,-9.66,51.7
20827,2018-06-29 08:55:42.843750,-13.7,51.7
20828,2018-06-29 08:55:42.875000,-17.78,51.7
20829,2018-06-29 08:55:42.906250,-22.47,51.7
20830,2018-06-29 08:55:42.937500,-27.61,51.7
20831,2018-06-29 08:55:42.968750,-32.71,51.7
20832,2018-06-29 08:55:43.000000,-38.09,51.7
20833,2018-06-29 08:55:43.031250,-45.34,51.7
20834,2018-06-29 08:55:43.062500,-55.0,51.7
20835,2018-06-29 08:55:43.093750,-63.53,51.7
20836,2018-06-29 08:55:43.125000,-64.16,51.7
20837,2018-06-29 08:55:43.156250,-53.4,51.7
20838,2018-06-29 08:55:43.187500,-35.4,51.7
20839,2018-06-29 08:55:43.218750,-17.85,51.7
20840,2018-06-29 08:55:43.250000,-4.88,51.7
20841,2018-06-29 08:55:43.281250,4.02,51.7
20842,2018-06-29 08:55:43.312500,10.42,51.7
20843,2018-06-29 08:55:43.343750,15.07,51.7
20844,2018-06-29 08:55:43.375000,18.61,51.7
20845,2018-06-29 08:55:43.406250,21.79,51.7
20846,2018-06-29 08:55:43.437500,24.82,51.7
20847,2018-06-29 08:55:43.468750,27.41,51.7
20848,2018-06-29 08:55:43.500000,29.81,51.7
20849,2018-06-29 08:55:43.531250,32.47,51.68
20850,2018-06-29 08:55:43.562500,34.34,51.68
20851,2018-06-29 08:55:43.593750,33.55,51.68
20852,2018-06-29 08:55:43.625000,30.67,51.68
20853,2018-06-29 08:55:43.656250,28.4,51.68
20854,2018-06-29 08:55:43.687500,27.59,51.68
20855,2018-06-29 08:55:43.718750,26.59,51.68
20856,2018-06-29 08:55:43.750000,24.38,51.68
20857,2018-06-29 08:55:43.781250,21.69,51.68
20858,2018-06-29 08:55:43.812500,19.23,51.68
20859,2018-06-29 08:55:43.843750,16.96,51.68
20860,2018-06-29 08:55:43.875000,14.71,51.68
20861,2018-06-29 08:55:43.906250,12.32,51.68
20862,2018-06-29 08:55:43.937500,9.69,51.68
20863,2018-06-29 08:55:43.968750,7.21,51.68
20864,2018-06-29 08:55:44.000000,5.2,51.68
20865,2018-06-29 08:55:44.031250,3.1,51.68
20866,2018-06-29 08:55:44.062500,-0.01,51.68
20867,2018-06-29 08:55:44.093750,-4.5,51.68
20868,2018-06-29 08:55:44.125000,-9.79,51.68
20869,2018-06-29 08:55:44.156250,-14.84,51.68
20870,2018-06-29 08:55:44.187500,-19.25,51.68
20871,2018-06-29 08:55:44.218750,-23.55,51.68
20872,2018-06-29 08:55:44.250000,-28.13,51.68
20873,2018-06-29 08:55:44.281250,-33.06,51.68
20874,2018-06-29 08:55:44.312500,-38.95,51.68
20875,2018-06-29 08:55:44.343750,-46.94,51.68
20876,2018-06-29 08:55:44.375000,-57.22,51.68
20877,2018-06-29 08:55:44.406250,-66.18,51.68
20878,2018-06-29 08:55:44.437500,-66.81,51.68
20879,2018-06-29 08:55:44.468750,-55.42,51.68
20880,2018-06-29 08:55:44.500000,-36.95,51.68
20881,2018-06-29 08:55:44.531250,-19.91,51.65
20882,2018-06-29 08:55:44.562500,-8.03,51.65
20883,2018-06-29 08:55:44.593750,0.45,51.65
20884,2018-06-29 08:55:44.625000,7.73,51.65
20885,2018-06-29 08:55:44.656250,13.89,51.65
20886,2018-06-29 08:55:44.687500,18.41,51.65
20887,2018-06-29 08:55:44.718750,21.8,51.65
20888,2018-06-29 08:55:44.750000,24.91,51.65
20889,2018-06-29 08:55:44.781250,28.2,51.65
20890,2018-06-29 08:55:44.812500,31.61,51.65
20891,2018-06-29 08:55:44.843750,34.54,51.65
20892,2018-06-29 08:55:44.875000,35.73,51.65
20893,2018-06-29 08:55:44.906250,34.52,51.65
20894,2018-06-29 08:55:44.937500,31.79,51.65
20895,2018-06-29 08:55:44.968750,28.99,51.65
20896,2018-06-29 08:55:45.000000,26.8,51.65
20897,2018-06-29 08:55:45.031250,25.1,51.65
20898,2018-06-29 08:55:45.062500,23.33,51.65
20899,2018-06-29 08:55:45.093750,21.14,51.65
20900,2018-06-29 08:55:45.125000,19.16,51.65
20901,2018-06-29 08:55:45.156250,17.81,51.65
20902,2018-06-29 08:55:45.187500,16.13,51.65
20903,2018-06-29 08:55:45.218750,13.81,51.65
20904,2018-06-29 08:55:45.250000,12.08,51.65
20905,2018-06-29 08:55:45.281250,10.94,51.65
20906,2018-06-29 08:55:45.312500,8.56,51.65
20907,2018-06-29 08:55:45.343750,4.45,51.65
20908,2018-06-29 08:55:45.375000,0.19,51.65
20909,2018-06-29 08:55:45.406250,-3.37,51.65
20910,2018-06-29 08:55:45.437500,-6.79,51.65
20911,2018-06-29 08:55:45.468750,-10.72,51.65
20912,2018-06-29 08:55:45.500000,-15.4,51.65
20913,2018-06-29 08:55:45.531250,-20.76,51.62
20914,2018-06-29 08:55:45.562500,-26.32,51.62
20915,2018-06-29 08:55:45.593750,-31.83,51.62
20916,2018-06-29 08:55:45.625000,-38.43,51.62
20917,2018-06-29 08:55:45.656250,-47.63,51.62
20918,2018-06-29 08:55:45.687500,-57.51,51.62
20919,2018-06-29 08:55:45.718750,-61.2,51.62
20920,2018-06-29 08:55:45.750000,-53.34,51.62
20921,2018-06-29 08:55:45.781250,-37.04,51.62
20922,2018-06-29 08:55:45.812500,-20.49,51.62
20923,2018-06-29 08:55:45.843750,-8.12,51.62
20924,2018-06-29 08:55:45.875000,0.91,51.62
20925,2018-06-29 08:55:45.906250,7.77,51.62
20926,2018-06-29 08:55:45.937500,12.17,51.62
20927,2018-06-29 08:55:45.968750,14.31,51.62
20928,2018-06-29 08:55:46.000000,15.84,51.62
20929,2018-06-29 08:55:46.031250,18.4,51.62
20930,2018-06-29 08:55:46.062500,22.0,51.62
20931,2018-06-29 08:55:46.093750,25.66,51.62
20932,2018-06-29 08:55:46.125000,28.75,51.62
20933,2018-06-29 08:55:46.156250,30.48,51.62
20934,2018-06-29 08:55:46.187500,29.72,51.62
20935,2018-06-29 08:55:46.218750,27.12,51.62
20936,2018-06-29 08:55:46.250000,24.83,51.62
20937,2018-06-29 08:55:46.281250,23.2,51.62
20938,2018-06-29 08:55:46.312500,20.66,51.62
20939,2018-06-29 08:55:46.343750,17.06,51.62
20940,2018-06-29 08:55:46.375000,14.09,51.62
20941,2018-06-29 08:55:46.406250,12.4,51.62
20942,2018-06-29 08:55:46.437500,10.83,51.62
20943,2018-06-29 08:55:46.468750,8.12,51.62
20944,2018-06-29 08:55:46.500000,4.31,51.62
20945,2018-06-29 08:55:46.531250,0.08,51.58
20946,2018-06-29 08:55:46.562500,-4.4,51.58
20947,2018-06-29 08:55:46.593750,-9.58,51.58
20948,2018-06-29 08:55:46.625000,-15.58,51.58
20949,2018-06-29 08:55:46.656250,-21.79,51.58
20950,2018-06-29 08:55:46.687500,-27.66,51.58
20951,2018-06-29 08:55:46.718750,-33.87,51.58
20952,2018-06-29 08:55:46.750000,-42.02,51.58
20953,2018-06-29 08:55:46.781250,-51.95,51.58
20954,2018-06-29 08:55:46.812500,-58.86,51.58
20955,2018-06-29 08:55:46.843750,-56.1,51.58
20956,2018-06-29 08:55:46.875000,-42.82,51.58
20957,2018-06-29 08:55:46.906250,-25.54,51.58
20958,2018-06-29 08:55:46.937500,-10.76,51.58
20959,2018-06-29 08:55:46.968750,0.17,51.58
20960,2018-06-29 08:55:47.000000,8.34,51.58
20961,2018-06-29 08:55:47.031250,14.07,51.58
20962,2018-06-29 08:55:47.062500,17.72,51.58
20963,2018-06-29 08:55:47.093750,20.3,51.58
20964,2018-06-29 08:55:47.125000,22.6,51.58
20965,2018-06-29 08:55:47.156250,24.88,51.58
20966,2018-06-29 08:55:47.187500,27.36,51.58
20967,2018-06-29 08:55:47.218750,30.43,51.58
20968,2018-06-29 08:55:47.250000,33.63,51.58
20969,2018-06-29 08:55:47.281250,35.14,51.58
20970,2018-06-29 08:55:47.312500,33.73,51.58
20971,2018-06-29 08:55:47.343750,30.58,51.58
20972,2018-06-29 08:55:47.375000,27.67,51.58
20973,2018-06-29 08:55:47.406250,25.35,51.58
20974,2018-06-29 08:55:47.437500,23.01,51.58
20975,2018-06-29 08:55:47.468750,20.58,51.58
20976,2018-06-29 08:55:47.500000,18.29,51.58
20977,2018-06-29 08:55:47.531250,16.09,51.57
20978,2018-06-29 08:55:47.562500,13.89,51.57
20979,2018-06-29 08:55:47.593750,11.01,51.57
20980,2018-06-29 08:55:47.625000,6.53,51.57
20981,2018-06-29 08:55:47.656250,0.8,51.57
20982,2018-06-29 08:55:47.687500,-4.82,51.57
20983,2018-06-29 08:55:47.718750,-9.97,51.57
20984,2018-06-29 08:55:47.750000,-15.44,51.57
20985,2018-06-29 08:55:47.781250,-21.42,51.57
20986,2018-06-29 08:55:47.812500,-27.24,51.57
20987,2018-06-29 08:55:47.843750,-32.85,51.57
20988,2018-06-29 08:55:47.875000,-39.14,51.57
20989,2018-06-29 08:55:47.906250,-47.39,51.57
20990,2018-06-29 08:55:47.937500,-58.23,51.57
20991,2018-06-29 08:55:47.968750,-68.16,51.57
20992,2018-06-29 08:55:48.000000,-69.54,51.57
20993,2018-06-29 08:55:48.031250,-58.64,51.57
20994,2018-06-29 08:55:48.062500,-40.95,51.57
20995,2018-06-29 08:55:48.093750,-24.53,51.57
20996,2018-06-29 08:55:48.125000,-12.21,51.57
20997,2018-06-29 08:55:48.156250,-3.13,51.57
20998,2018-06-29 08:55:48.187500,3.34,51.57
20999,2018-06-29 08:55:48.218750,7.61,51.57
21000,2018-06-29 08:55:48.250000,10.68,51.57
21001,2018-06-29 08:55:48.281250,13.5,51.57
21002,2018-06-29 08:55:48.312500,16.73,51.57
21003,2018-06-29 08:55:48.343750,20.99,51.57
21004,2018-06-29 08:55:48.375000,26.15,51.57
21005,2018-06-29 08:55:48.406250,30.82,51.57
21006,2018-06-29 08:55:48.437500,33.8,51.57
21007,2018-06-29 08:55:48.468750,35.83,51.57
21008,2018-06-29 08:55:48.500000,38.49,51.57
21009,2018-06-29 08:55:48.531250,42.35,51.55
21010,2018-06-29 08:55:48.562500,46.71,51.55
21011,2018-06-29 08:55:48.593750,50.13,51.55
21012,2018-06-29 08:55:48.625000,51.04,51.55
21013,2018-06-29 08:55:48.656250,48.96,51.55
21014,2018-06-29 08:55:48.687500,45.07,51.55
21015,2018-06-29 08:55:48.718750,40.61,51.55
21016,2018-06-29 08:55:48.750000,35.3,51.55
21017,2018-06-29 08:55:48.781250,28.48,51.55
21018,2018-06-29 08:55:48.812500,20.79,51.55
21019,2018-06-29 08:55:48.843750,13.32,51.55
21020,2018-06-29 08:55:48.875000,5.56,51.55
21021,2018-06-29 08:55:48.906250,-3.9,51.55
21022,2018-06-29 08:55:48.937500,-14.61,51.55
21023,2018-06-29 08:55:48.968750,-24.18,51.55
21024,2018-06-29 08:55:49.000000,-31.86,51.55
21025,2018-06-29 08:55:49.031250,-40.13,51.55
21026,2018-06-29 08:55:49.062500,-51.58,51.55
21027,2018-06-29 08:55:49.093750,-64.1,51.55
21028,2018-06-29 08:55:49.125000,-70.57,51.55
21029,2018-06-29 08:55:49.156250,-65.16,51.55
21030,2018-06-29 08:55:49.187500,-49.83,51.55
21031,2018-06-29 08:55:49.218750,-31.85,51.55
21032,2018-06-29 08:55:49.250000,-16.06,51.55
21033,2018-06-29 08:55:49.281250,-3.27,51.55
21034,2018-06-29 08:55:49.312500,6.25,51.55
21035,2018-06-29 08:55:49.343750,12.2,51.55
21036,2018-06-29 08:55:49.375000,15.7,51.55
21037,2018-06-29 08:55:49.406250,18.53,51.55
21038,2018-06-29 08:55:49.437500,21.66,51.55
21039,2018-06-29 08:55:49.468750,25.18,51.55
21040,2018-06-29 08:55:49.500000,28.63,51.55
21041,2018-06-29 08:55:49.531250,31.06,51.55
21042,2018-06-29 08:55:49.562500,31.69,51.55
21043,2018-06-29 08:55:49.593750,30.56,51.55
21044,2018-06-29 08:55:49.625000,28.17,51.55
21045,2018-06-29 08:55:49.656250,25.08,51.55
21046,2018-06-29 08:55:49.687500,21.56,51.55
21047,2018-06-29 08:55:49.718750,17.7,51.55
21048,2018-06-29 08:55:49.750000,13.66,51.55
21049,2018-06-29 08:55:49.781250,9.86,51.55
21050,2018-06-29 08:55:49.812500,6.52,51.55
21051,2018-06-29 08:55:49.843750,2.94,51.55
21052,2018-06-29 08:55:49.875000,-1.7,51.55
21053,2018-06-29 08:55:49.906250,-7.0,51.55
21054,2018-06-29 08:55:49.937500,-12.1,51.55
21055,2018-06-29 08:55:49.968750,-17.16,51.55
21056,2018-06-29 08:55:50.000000,-23.18,51.55
21057,2018-06-29 08:55:50.031250,-31.01,51.55
21058,2018-06-29 08:55:50.062500,-40.08,51.55
21059,2018-06-29 08:55:50.093750,-46.53,51.55
21060,2018-06-29 08:55:50.125000,-44.59,51.55
21061,2018-06-29 08:55:50.156250,-33.11,51.55
21062,2018-06-29 08:55:50.187500,-17.71,51.55
21063,2018-06-29 08:55:50.218750,-4.29,51.55
21064,2018-06-29 08:55:50.250000,5.83,51.55
21065,2018-06-29 08:55:50.281250,13.02,51.55
21066,2018-06-29 08:55:50.312500,16.55,51.55
21067,2018-06-29 08:55:50.343750,17.09,51.55
21068,2018-06-29 08:55:50.375000,17.55,51.55
21069,2018-06-29 08:55:50.406250,19.86,51.55
21070,2018-06-29 08:55:50.437500,23.38,51.55
21071,2018-06-29 08:55:50.468750,26.85,51.55
21072,2018-06-29 08:55:50.500000,29.66,51.55
21073,2018-06-29 08:55:50.531250,31.31,51.37
21074,2018-06-29 08:55:50.562500,30.88,51.37
21075,2018-06-29 08:55:50.593750,27.97,51.37
21076,2018-06-29 08:55:50.625000,24.16,51.37
21077,2018-06-29 08:55:50.656250,21.72,51.37
21078,2018-06-29 08:55:50.687500,20.37,51.37
21079,2018-06-29 08:55:50.718750,18.04,51.37
21080,2018-06-29 08:55:50.750000,14.57,51.37
21081,2018-06-29 08:55:50.781250,11.36,51.37
21082,2018-06-29 08:55:50.812500,8.31,51.37
21083,2018-06-29 08:55:50.843750,4.46,51.37
21084,2018-06-29 08:55:50.875000,0.32,51.37
21085,2018-06-29 08:55:50.906250,-3.32,51.37
21086,2018-06-29 08:55:50.937500,-7.58,51.37
21087,2018-06-29 08:55:50.968750,-13.47,51.37
21088,2018-06-29 08:55:51.000000,-19.67,51.37
21089,2018-06-29 08:55:51.031250,-24.95,51.37
21090,2018-06-29 08:55:51.062500,-30.6,51.37
21091,2018-06-29 08:55:51.093750,-38.55,51.37
21092,2018-06-29 08:55:51.125000,-48.68,51.37
21093,2018-06-29 08:55:51.156250,-57.2,51.37
21094,2018-06-29 08:55:51.187500,-57.55,51.37
21095,2018-06-29 08:55:51.218750,-46.47,51.37
21096,2018-06-29 08:55:51.250000,-28.78,51.37
21097,2018-06-29 08:55:51.281250,-12.13,51.37
21098,2018-06-29 08:55:51.312500,0.51,51.37
21099,2018-06-29 08:55:51.343750,9.72,51.37
21100,2018-06-29 08:55:51.375000,15.59,51.37
21101,2018-06-29 08:55:51.406250,18.52,51.37
21102,2018-06-29 08:55:51.437500,20.19,51.37
21103,2018-06-29 08:55:51.468750,21.93,51.37
21104,2018-06-29 08:55:51.500000,23.82,51.37
21105,2018-06-29 08:55:51.531250,25.7,51.27
21106,2018-06-29 08:55:51.562500,27.71,51.27
21107,2018-06-29 08:55:51.593750,29.46,51.27
21108,2018-06-29 08:55:51.625000,29.78,51.27
21109,2018-06-29 08:55:51.656250,28.01,51.27
21110,2018-06-29 08:55:51.687500,25.13,51.27
21111,2018-06-29 08:55:51.718750,22.79,51.27
21112,2018-06-29 08:55:51.750000,21.35,51.27
21113,2018-06-29 08:55:51.781250,19.93,51.27
21114,2018-06-29 08:55:51.812500,18.0,51.27
21115,2018-06-29 08:55:51.843750,15.74,51.27
21116,2018-06-29 08:55:51.875000,13.23,51.27
21117,2018-06-29 08:55:51.906250,9.98,51.27
21118,2018-06-29 08:55:51.937500,5.75,51.27
21119,2018-06-29 08:55:51.968750,1.37,51.27
21120,2018-06-29 08:55:52.000000,-2.21,51.27
21121,2018-06-29 08:55:52.031250,-5.58,51.27
21122,2018-06-29 08:55:52.062500,-10.07,51.27
21123,2018-06-29 08:55:52.093750,-15.59,51.27
21124,2018-06-29 08:55:52.125000,-20.82,51.27
21125,2018-06-29 08:55:52.156250,-25.89,51.27
21126,2018-06-29 08:55:52.187500,-32.87,51.27
21127,2018-06-29 08:55:52.218750,-41.95,51.27
21128,2018-06-29 08:55:52.250000,-48.4,51.27
21129,2018-06-29 08:55:52.281250,-46.13,51.27
21130,2018-06-29 08:55:52.312500,-34.36,51.27
21131,2018-06-29 08:55:52.343750,-18.2,51.27
21132,2018-06-29 08:55:52.375000,-3.57,51.27
21133,2018-06-29 08:55:52.406250,6.37,51.27
21134,2018-06-29 08:55:52.437500,11.08,51.27
21135,2018-06-29 08:55:52.468750,11.65,51.27
21136,2018-06-29 08:55:52.500000,10.57,51.27
21137,2018-06-29 08:55:52.531250,10.91,51.18
21138,2018-06-29 08:55:52.562500,14.02,51.18
21139,2018-06-29 08:55:52.593750,18.04,51.18
21140,2018-06-29 08:55:52.625000,20.5,51.18
21141,2018-06-29 08:55:52.656250,21.37,51.18
21142,2018-06-29 08:55:52.687500,21.58,51.18
21143,2018-06-29 08:55:52.718750,20.7,51.18
21144,2018-06-29 08:55:52.750000,18.28,51.18
21145,2018-06-29 08:55:52.781250,15.15,51.18
21146,2018-06-29 08:55:52.812500,12.28,51.18
21147,2018-06-29 08:55:52.843750,9.76,51.18
21148,2018-06-29 08:55:52.875000,7.23,51.18
21149,2018-06-29 08:55:52.906250,4.36,51.18
21150,2018-06-29 08:55:52.937500,1.17,51.18
21151,2018-06-29 08:55:52.968750,-2.17,51.18
21152,2018-06-29 08:55:53.000000,-6.02,51.18
21153,2018-06-29 08:55:53.031250,-11.04,51.18
21154,2018-06-29 08:55:53.062500,-17.16,51.18
21155,2018-06-29 08:55:53.093750,-23.34,51.18
21156,2018-06-29 08:55:53.125000,-29.0,51.18
21157,2018-06-29 08:55:53.156250,-35.44,51.18
21158,2018-06-29 08:55:53.187500,-44.51,51.18
21159,2018-06-29 08:55:53.218750,-54.67,51.18
21160,2018-06-29 08:55:53.250000,-59.67,51.18
21161,2018-06-29 08:55:53.281250,-54.0,51.18
21162,2018-06-29 08:55:53.312500,-39.17,51.18
21163,2018-06-29 08:55:53.343750,-22.14,51.18
21164,2018-06-29 08:55:53.375000,-7.9,51.18
21165,2018-06-29 08:55:53.406250,3.3,51.18
21166,2018-06-29 08:55:53.437500,12.29,51.18
21167,2018-06-29 08:55:53.468750,18.32,51.18
21168,2018-06-29 08:55:53.500000,20.97,51.18
21169,2018-06-29 08:55:53.531250,21.93,51.1
21170,2018-06-29 08:55:53.562500,23.43,51.1
21171,2018-06-29 08:55:53.593750,26.08,51.1
21172,2018-06-29 08:55:53.625000,28.98,51.1
21173,2018-06-29 08:55:53.656250,31.2,51.1
21174,2018-06-29 08:55:53.687500,32.15,51.1
21175,2018-06-29 08:55:53.718750,31.29,51.1
21176,2018-06-29 08:55:53.750000,28.78,51.1
21177,2018-06-29 08:55:53.781250,25.8,51.1
21178,2018-06-29 08:55:53.812500,23.15,51.1
21179,2018-06-29 08:55:53.843750,20.65,51.1
21180,2018-06-29 08:55:53.875000,18.31,51.1
21181,2018-06-29 08:55:53.906250,16.36,51.1
21182,2018-06-29 08:55:53.937500,14.59,51.1
21183,2018-06-29 08:55:53.968750,12.54,51.1
21184,2018-06-29 08:55:54.000000,10.06,51.1
21185,2018-06-29 08:55:54.031250,7.12,51.1
21186,2018-06-29 08:55:54.062500,3.49,51.1
21187,2018-06-29 08:55:54.093750,-0.98,51.1
21188,2018-06-29 08:55:54.125000,-5.92,51.1
21189,2018-06-29 08:55:54.156250,-10.54,51.1
21190,2018-06-29 08:55:54.187500,-14.77,51.1
21191,2018-06-29 08:55:54.218750,-19.56,51.1
21192,2018-06-29 08:55:54.250000,-25.34,51.1
21193,2018-06-29 08:55:54.281250,-31.35,51.1
21194,2018-06-29 08:55:54.312500,-37.24,51.1
21195,2018-06-29 08:55:54.343750,-44.14,51.1
21196,2018-06-29 08:55:54.375000,-53.56,51.1
21197,2018-06-29 08:55:54.406250,-65.13,51.1
21198,2018-06-29 08:55:54.437500,-74.47,51.1
21199,2018-06-29 08:55:54.468750,-75.08,51.1
21200,2018-06-29 08:55:54.500000,-64.83,51.1
21201,2018-06-29 08:55:54.531250,-48.56,51.03
21202,2018-06-29 08:55:54.562500,-32.82,51.03
21203,2018-06-29 08:55:54.593750,-20.56,51.03
21204,2018-06-29 08:55:54.625000,-11.58,51.03
21205,2018-06-29 08:55:54.656250,-4.9,51.03
21206,2018-06-29 08:55:54.687500,0.5,51.03
21207,2018-06-29 08:55:54.718750,5.69,51.03
21208,2018-06-29 08:55:54.750000,11.32,51.03
21209,2018-06-29 08:55:54.781250,16.78,51.03
21210,2018-06-29 08:55:54.812500,21.08,51.03
21211,2018-06-29 08:55:54.843750,25.0,51.03
21212,2018-06-29 08:55:54.875000,30.07,51.03
21213,2018-06-29 08:55:54.906250,35.96,51.03
21214,2018-06-29 08:55:54.937500,40.97,51.03
21215,2018-06-29 08:55:54.968750,44.64,51.03
21216,2018-06-29 08:55:55.000000,47.85,51.03
21217,2018-06-29 08:55:55.031250,50.38,51.03
21218,2018-06-29 08:55:55.062500,50.04,51.03
21219,2018-06-29 08:55:55.093750,45.93,51.03
21220,2018-06-29 08:55:55.125000,41.33,51.03
21221,2018-06-29 08:55:55.156250,40.07,51.03
21222,2018-06-29 08:55:55.187500,41.22,51.03
21223,2018-06-29 08:55:55.218750,41.06,51.03
21224,2018-06-29 08:55:55.250000,38.34,51.03
21225,2018-06-29 08:55:55.281250,34.13,51.03
21226,2018-06-29 08:55:55.312500,29.18,51.03
21227,2018-06-29 08:55:55.343750,24.37,51.03
21228,2018-06-29 08:55:55.375000,20.42,51.03
21229,2018-06-29 08:55:55.406250,15.29,51.03
21230,2018-06-29 08:55:55.437500,5.9,51.03
21231,2018-06-29 08:55:55.468750,-7.02,51.03
21232,2018-06-29 08:55:55.500000,-19.52,51.03
21233,2018-06-29 08:55:55.531250,-29.48,51.0
21234,2018-06-29 08:55:55.562500,-37.75,51.0
21235,2018-06-29 08:55:55.593750,-45.99,51.0
21236,2018-06-29 08:55:55.625000,-55.5,51.0
21237,2018-06-29 08:55:55.656250,-64.78,51.0
21238,2018-06-29 08:55:55.687500,-67.66,51.0
21239,2018-06-29 08:55:55.718750,-58.81,51.0
21240,2018-06-29 08:55:55.750000,-41.16,51.0
21241,2018-06-29 08:55:55.781250,-23.51,51.0
21242,2018-06-29 08:55:55.812500,-11.14,51.0
21243,2018-06-29 08:55:55.843750,-2.83,51.0
21244,2018-06-29 08:55:55.875000,3.89,51.0
21245,2018-06-29 08:55:55.906250,9.0,51.0
21246,2018-06-29 08:55:55.937500,12.11,51.0
21247,2018-06-29 08:55:55.968750,14.37,51.0
21248,2018-06-29 08:55:56.000000,16.85,51.0
21249,2018-06-29 08:55:56.031250,19.38,51.0
21250,2018-06-29 08:55:56.062500,21.92,51.0
21251,2018-06-29 08:55:56.093750,24.58,51.0
21252,2018-06-29 08:55:56.125000,26.28,51.0
21253,2018-06-29 08:55:56.156250,25.88,51.0
21254,2018-06-29 08:55:56.187500,23.9,51.0
21255,2018-06-29 08:55:56.218750,21.73,51.0
21256,2018-06-29 08:55:56.250000,19.9,51.0
21257,2018-06-29 08:55:56.281250,18.18,51.0
21258,2018-06-29 08:55:56.312500,16.43,51.0
21259,2018-06-29 08:55:56.343750,14.6,51.0
21260,2018-06-29 08:55:56.375000,12.48,51.0
21261,2018-06-29 08:55:56.406250,10.2,51.0
21262,2018-06-29 08:55:56.437500,8.46,51.0
21263,2018-06-29 08:55:56.468750,7.3,51.0
21264,2018-06-29 08:55:56.500000,5.75,51.0
21265,2018-06-29 08:55:56.531250,3.23,50.95
21266,2018-06-29 08:55:56.562500,-0.11,50.95
21267,2018-06-29 08:55:56.593750,-4.25,50.95
21268,2018-06-29 08:55:56.625000,-8.74,50.95
21269,2018-06-29 08:55:56.656250,-12.66,50.95
21270,2018-06-29 08:55:56.687500,-16.13,50.95
21271,2018-06-29 08:55:56.718750,-19.78,50.95
21272,2018-06-29 08:55:56.750000,-23.56,50.95
21273,2018-06-29 08:55:56.781250,-27.98,50.95
21274,2018-06-29 08:55:56.812500,-34.66,50.95
21275,2018-06-29 08:55:56.843750,-43.07,50.95
21276,2018-06-29 08:55:56.875000,-48.72,50.95
21277,2018-06-29 08:55:56.906250,-46.54,50.95
21278,2018-06-29 08:55:56.937500,-35.56,50.95
21279,2018-06-29 08:55:56.968750,-19.89,50.95
21280,2018-06-29 08:55:57.000000,-5.42,50.95
21281,2018-06-29 08:55:57.031250,4.36,50.95
21282,2018-06-29 08:55:57.062500,9.2,50.95
21283,2018-06-29 08:55:57.093750,10.33,50.95
21284,2018-06-29 08:55:57.125000,9.56,50.95
21285,2018-06-29 08:55:57.156250,9.38,50.95
21286,2018-06-29 08:55:57.187500,11.12,50.95
21287,2018-06-29 08:55:57.218750,13.99,50.95
21288,2018-06-29 08:55:57.250000,16.98,50.95
21289,2018-06-29 08:55:57.281250,19.83,50.95
21290,2018-06-29 08:55:57.312500,21.54,50.95
21291,2018-06-29 08:55:57.343750,20.85,50.95
21292,2018-06-29 08:55:57.375000,18.4,50.95
21293,2018-06-29 08:55:57.406250,15.83,50.95
21294,2018-06-29 08:55:57.437500,13.65,50.95
21295,2018-06-29 08:55:57.468750,11.46,50.95
21296,2018-06-29 08:55:57.500000,9.11,50.95
21297,2018-06-29 08:55:57.531250,6.84,50.93
21298,2018-06-29 08:55:57.562500,5.3,50.93
21299,2018-06-29 08:55:57.593750,4.62,50.93
21300,2018-06-29 08:55:57.625000,3.45,50.93
21301,2018-06-29 08:55:57.656250,0.46,50.93
21302,2018-06-29 08:55:57.687500,-4.16,50.93
21303,2018-06-29 08:55:57.718750,-9.49,50.93
21304,2018-06-29 08:55:57.750000,-14.58,50.93
21305,2018-06-29 08:55:57.781250,-18.96,50.93
21306,2018-06-29 08:55:57.812500,-23.37,50.93
21307,2018-06-29 08:55:57.843750,-29.27,50.93
21308,2018-06-29 08:55:57.875000,-37.4,50.93
21309,2018-06-29 08:55:57.906250,-46.84,50.93
21310,2018-06-29 08:55:57.937500,-53.65,50.93
21311,2018-06-29 08:55:57.968750,-51.79,50.93
21312,2018-06-29 08:55:58.000000,-39.56,50.93
21313,2018-06-29 08:55:58.031250,-22.73,50.93
21314,2018-06-29 08:55:58.062500,-8.27,50.93
21315,2018-06-29 08:55:58.093750,1.87,50.93
21316,2018-06-29 08:55:58.125000,8.82,50.93
21317,2018-06-29 08:55:58.156250,13.1,50.93
21318,2018-06-29 08:55:58.187500,15.01,50.93
21319,2018-06-29 08:55:58.218750,15.94,50.93
21320,2018-06-29 08:55:58.250000,17.58,50.93
21321,2018-06-29 08:55:58.281250,20.39,50.93
21322,2018-06-29 08:55:58.312500,23.31,50.93
21323,2018-06-29 08:55:58.343750,25.33,50.93
21324,2018-06-29 08:55:58.375000,26.64,50.93
21325,2018-06-29 08:55:58.406250,27.11,50.93
21326,2018-06-29 08:55:58.437500,25.72,50.93
21327,2018-06-29 08:55:58.468750,22.76,50.93
21328,2018-06-29 08:55:58.500000,20.17,50.93
21329,2018-06-29 08:55:58.531250,18.42,50.95
21330,2018-06-29 08:55:58.562500,16.17,50.95
21331,2018-06-29 08:55:58.593750,13.42,50.95
21332,2018-06-29 08:55:58.625000,11.39,50.95
21333,2018-06-29 08:55:58.656250,9.84,50.95
21334,2018-06-29 08:55:58.687500,7.5,50.95
21335,2018-06-29 08:55:58.718750,4.18,50.95
21336,2018-06-29 08:55:58.750000,0.45,50.95
21337,2018-06-29 08:55:58.781250,-3.4,50.95
21338,2018-06-29 08:55:58.812500,-7.08,50.95
21339,2018-06-29 08:55:58.843750,-10.72,50.95
21340,2018-06-29 08:55:58.875000,-15.11,50.95
21341,2018-06-29 08:55:58.906250,-20.34,50.95
21342,2018-06-29 08:55:58.937500,-25.49,50.95
21343,2018-06-29 08:55:58.968750,-30.22,50.95
21344,2018-06-29 08:55:59.000000,-35.8,50.95
21345,2018-06-29 08:55:59.031250,-44.07,50.95
21346,2018-06-29 08:55:59.062500,-54.8,50.95
21347,2018-06-29 08:55:59.093750,-62.97,50.95
21348,2018-06-29 08:55:59.125000,-61.27,50.95
21349,2018-06-29 08:55:59.156250,-48.05,50.95
21350,2018-06-29 08:55:59.187500,-29.93,50.95
21351,2018-06-29 08:55:59.218750,-14.44,50.95
21352,2018-06-29 08:55:59.250000,-3.55,50.95
21353,2018-06-29 08:55:59.281250,4.58,50.95
21354,2018-06-29 08:55:59.312500,10.84,50.95
21355,2018-06-29 08:55:59.343750,14.52,50.95
21356,2018-06-29 08:55:59.375000,15.9,50.95
21357,2018-06-29 08:55:59.406250,16.94,50.95
21358,2018-06-29 08:55:59.437500,18.81,50.95
21359,2018-06-29 08:55:59.468750,21.04,50.95
21360,2018-06-29 08:55:59.500000,23.27,50.95
21361,2018-06-29 08:55:59.531250,25.31,50.98
21362,2018-06-29 08:55:59.562500,25.76,50.98
21363,2018-06-29 08:55:59.593750,23.39,50.98
21364,2018-06-29 08:55:59.625000,19.49,50.98
21365,2018-06-29 08:55:59.656250,16.11,50.98
21366,2018-06-29 08:55:59.687500,12.92,50.98
21367,2018-06-29 08:55:59.718750,8.82,50.98
21368,2018-06-29 08:55:59.750000,5.09,50.98
21369,2018-06-29 08:55:59.781250,3.16,50.98
21370,2018-06-29 08:55:59.812500,1.78,50.98
21371,2018-06-29 08:55:59.843750,-0.57,50.98
21372,2018-06-29 08:55:59.875000,-3.22,50.98
21373,2018-06-29 08:55:59.906250,-4.95,50.98
21374,2018-06-29 08:55:59.937500,-5.35,50.98
21375,2018-06-29 08:55:59.968750,-4.19,50.98
21376,2018-06-29 08:56:00.000000,-1.3,50.98
21377,2018-06-29 08:56:00.031250,2.53,50.98
21378,2018-06-29 08:56:00.062500,5.38,50.98
21379,2018-06-29 08:56:00.093750,5.67,50.98
21380,2018-06-29 08:56:00.125000,3.32,50.98
21381,2018-06-29 08:56:00.156250,-1.59,50.98
21382,2018-06-29 08:56:00.187500,-9.49,50.98
21383,2018-06-29 08:56:00.218750,-19.64,50.98
21384,2018-06-29 08:56:00.250000,-29.41,50.98
21385,2018-06-29 08:56:00.281250,-35.68,50.98
21386,2018-06-29 08:56:00.312500,-35.88,50.98
21387,2018-06-29 08:56:00.343750,-29.41,50.98
21388,2018-06-29 08:56:00.375000,-19.05,50.98
21389,2018-06-29 08:56:00.406250,-8.82,50.98
21390,2018-06-29 08:56:00.437500,-0.38,50.98
21391,2018-06-29 08:56:00.468750,6.98,50.98
21392,2018-06-29 08:56:00.500000,13.53,50.98
21393,2018-06-29 08:56:00.531250,18.26,51.03
21394,2018-06-29 08:56:00.562500,20.78,51.03
21395,2018-06-29 08:56:00.593750,22.48,51.03
21396,2018-06-29 08:56:00.625000,24.78,51.03
21397,2018-06-29 08:56:00.656250,27.5,51.03
21398,2018-06-29 08:56:00.687500,29.81,51.03
21399,2018-06-29 08:56:00.718750,31.64,51.03
21400,2018-06-29 08:56:00.750000,32.79,51.03
21401,2018-06-29 08:56:00.781250,32.34,51.03
21402,2018-06-29 08:56:00.812500,30.05,51.03
21403,2018-06-29 08:56:00.843750,27.2,51.03
21404,2018-06-29 08:56:00.875000,24.93,51.03
21405,2018-06-29 08:56:00.906250,22.99,51.03
21406,2018-06-29 08:56:00.937500,20.83,51.03
21407,2018-06-29 08:56:00.968750,18.45,51.03
21408,2018-06-29 08:56:01.000000,16.15,51.03
21409,2018-06-29 08:56:01.031250,14.35,51.03
21410,2018-06-29 08:56:01.062500,12.84,51.03
21411,2018-06-29 08:56:01.093750,10.29,51.03
21412,2018-06-29 08:56:01.125000,5.89,51.03
21413,2018-06-29 08:56:01.156250,0.88,51.03
21414,2018-06-29 08:56:01.187500,-3.43,51.03
21415,2018-06-29 08:56:01.218750,-7.42,51.03
21416,2018-06-29 08:56:01.250000,-11.74,51.03
21417,2018-06-29 08:56:01.281250,-15.99,51.03
21418,2018-06-29 08:56:01.312500,-19.78,51.03
21419,2018-06-29 08:56:01.343750,-23.9,51.03
21420,2018-06-29 08:56:01.375000,-29.65,51.03
21421,2018-06-29 08:56:01.406250,-38.03,51.03
21422,2018-06-29 08:56:01.437500,-47.58,51.03
21423,2018-06-29 08:56:01.468750,-52.66,51.03
21424,2018-06-29 08:56:01.500000,-47.64,51.03
21425,2018-06-29 08:56:01.531250,-33.49,51.12
21426,2018-06-29 08:56:01.562500,-16.91,51.12
21427,2018-06-29 08:56:01.593750,-3.3,51.12
21428,2018-06-29 08:56:01.625000,5.96,51.12
21429,2018-06-29 08:56:01.656250,11.2,51.12
21430,2018-06-29 08:56:01.687500,13.3,51.12
21431,2018-06-29 08:56:01.718750,13.85,51.12
21432,2018-06-29 08:56:01.750000,14.44,51.12
21433,2018-06-29 08:56:01.781250,16.21,51.12
21434,2018-06-29 08:56:01.812500,19.52,51.12
21435,2018-06-29 08:56:01.843750,23.5,51.12
21436,2018-06-29 08:56:01.875000,26.6,51.12
21437,2018-06-29 08:56:01.906250,27.94,51.12
21438,2018-06-29 08:56:01.937500,27.2,51.12
21439,2018-06-29 08:56:01.968750,24.22,51.12
21440,2018-06-29 08:56:02.000000,20.06,51.12
21441,2018-06-29 08:56:02.031250,16.88,51.12
21442,2018-06-29 08:56:02.062500,15.25,51.12
21443,2018-06-29 08:56:02.093750,13.36,51.12
21444,2018-06-29 08:56:02.125000,9.91,51.12
21445,2018-06-29 08:56:02.156250,5.88,51.12
21446,2018-06-29 08:56:02.187500,2.59,51.12
21447,2018-06-29 08:56:02.218750,-0.27,51.12
21448,2018-06-29 08:56:02.250000,-4.01,51.12
21449,2018-06-29 08:56:02.281250,-9.36,51.12
21450,2018-06-29 08:56:02.312500,-15.94,51.12
21451,2018-06-29 08:56:02.343750,-22.63,51.12
21452,2018-06-29 08:56:02.375000,-28.92,51.12
21453,2018-06-29 08:56:02.406250,-36.31,51.12
21454,2018-06-29 08:56:02.437500,-46.5,51.12
21455,2018-06-29 08:56:02.468750,-56.74,51.12
21456,2018-06-29 08:56:02.500000,-59.67,51.12
21457,2018-06-29 08:56:02.531250,-51.03,51.2
21458,2018-06-29 08:56:02.562500,-34.69,51.2
21459,2018-06-29 08:56:02.593750,-17.74,51.2
21460,2018-06-29 08:56:02.625000,-3.93,51.2
21461,2018-06-29 08:56:02.656250,6.56,51.2
21462,2018-06-29 08:56:02.687500,14.06,51.2
21463,2018-06-29 08:56:02.718750,18.58,51.2
21464,2018-06-29 08:56:02.750000,20.91,51.2
21465,2018-06-29 08:56:02.781250,22.75,51.2
21466,2018-06-29 08:56:02.812500,25.22,51.2
21467,2018-06-29 08:56:02.843750,28.11,51.2
21468,2018-06-29 08:56:02.875000,30.91,51.2
21469,2018-06-29 08:56:02.906250,33.27,51.2
21470,2018-06-29 08:56:02.937500,34.22,51.2
21471,2018-06-29 08:56:02.968750,32.93,51.2
21472,2018-06-29 08:56:03.000000,30.02,51.2
21473,2018-06-29 08:56:03.031250,26.93,51.2
21474,2018-06-29 08:56:03.062500,24.34,51.2
21475,2018-06-29 08:56:03.093750,21.76,51.2
21476,2018-06-29 08:56:03.125000,18.59,51.2
21477,2018-06-29 08:56:03.156250,14.9,51.2
21478,2018-06-29 08:56:03.187500,11.22,51.2
21479,2018-06-29 08:56:03.218750,7.78,51.2
21480,2018-06-29 08:56:03.250000,4.03,51.2
21481,2018-06-29 08:56:03.281250,-0.67,51.2
21482,2018-06-29 08:56:03.312500,-6.07,51.2
21483,2018-06-29 08:56:03.343750,-11.5,51.2
21484,2018-06-29 08:56:03.375000,-17.02,51.2
21485,2018-06-29 08:56:03.406250,-23.15,51.2
21486,2018-06-29 08:56:03.437500,-29.75,51.2
21487,2018-06-29 08:56:03.468750,-36.45,51.2
21488,2018-06-29 08:56:03.500000,-43.82,51.2
21489,2018-06-29 08:56:03.531250,-52.99,51.3
21490,2018-06-29 08:56:03.562500,-62.08,51.3
21491,2018-06-29 08:56:03.593750,-64.73,51.3
21492,2018-06-29 08:56:03.625000,-55.88,51.3
21493,2018-06-29 08:56:03.656250,-38.46,51.3
21494,2018-06-29 08:56:03.687500,-20.47,51.3
21495,2018-06-29 08:56:03.718750,-6.45,51.3
21496,2018-06-29 08:56:03.750000,4.32,51.3
21497,2018-06-29 08:56:03.781250,12.78,51.3
21498,2018-06-29 08:56:03.812500,18.28,51.3
21499,2018-06-29 08:56:03.843750,21.41,51.3
21500,2018-06-29 08:56:03.875000,24.49,51.3
21501,2018-06-29 08:56:03.906250,28.48,51.3
21502,2018-06-29 08:56:03.937500,32.22,51.3
21503,2018-06-29 08:56:03.968750,35.06,51.3
21504,2018-06-29 08:56:04.000000,37.41,51.3
21505,2018-06-29 08:56:04.031250,38.57,51.3
21506,2018-06-29 08:56:04.062500,37.11,51.3
21507,2018-06-29 08:56:04.093750,33.47,51.3
21508,2018-06-29 08:56:04.125000,29.93,51.3
21509,2018-06-29 08:56:04.156250,27.88,51.3
21510,2018-06-29 08:56:04.187500,26.8,51.3
21511,2018-06-29 08:56:04.218750,25.58,51.3
21512,2018-06-29 08:56:04.250000,23.46,51.3
21513,2018-06-29 08:56:04.281250,20.56,51.3
21514,2018-06-29 08:56:04.312500,17.91,51.3
21515,2018-06-29 08:56:04.343750,16.01,51.3
21516,2018-06-29 08:56:04.375000,13.84,51.3
21517,2018-06-29 08:56:04.406250,10.56,51.3
21518,2018-06-29 08:56:04.437500,6.81,51.3
21519,2018-06-29 08:56:04.468750,3.39,51.3
21520,2018-06-29 08:56:04.500000,0.29,51.3
21521,2018-06-29 08:56:04.531250,-2.81,51.4
21522,2018-06-29 08:56:04.562500,-6.04,51.4
21523,2018-06-29 08:56:04.593750,-9.64,51.4
21524,2018-06-29 08:56:04.625000,-13.95,51.4
21525,2018-06-29 08:56:04.656250,-19.06,51.4
21526,2018-06-29 08:56:04.687500,-24.4,51.4
21527,2018-06-29 08:56:04.718750,-29.24,51.4
21528,2018-06-29 08:56:04.750000,-34.11,51.4
21529,2018-06-29 08:56:04.781250,-41.2,51.4
21530,2018-06-29 08:56:04.812500,-52.13,51.4
21531,2018-06-29 08:56:04.843750,-64.52,51.4
21532,2018-06-29 08:56:04.875000,-71.37,51.4
21533,2018-06-29 08:56:04.906250,-66.3,51.4
21534,2018-06-29 08:56:04.937500,-50.28,51.4
21535,2018-06-29 08:56:04.968750,-30.84,51.4
21536,2018-06-29 08:56:05.000000,-14.25,51.4
21537,2018-06-29 08:56:05.031250,-1.45,51.4
21538,2018-06-29 08:56:05.062500,8.76,51.4
21539,2018-06-29 08:56:05.093750,16.27,51.4
21540,2018-06-29 08:56:05.125000,20.66,51.4
21541,2018-06-29 08:56:05.156250,23.17,51.4
21542,2018-06-29 08:56:05.187500,25.88,51.4
21543,2018-06-29 08:56:05.218750,29.59,51.4
21544,2018-06-29 08:56:05.250000,33.51,51.4
21545,2018-06-29 08:56:05.281250,36.44,51.4
21546,2018-06-29 08:56:05.312500,37.88,51.4
21547,2018-06-29 08:56:05.343750,37.69,51.4
21548,2018-06-29 08:56:05.375000,35.82,51.4
21549,2018-06-29 08:56:05.406250,32.9,51.4
21550,2018-06-29 08:56:05.437500,30.23,51.4
21551,2018-06-29 08:56:05.468750,28.28,51.4
21552,2018-06-29 08:56:05.500000,26.44,51.4
21553,2018-06-29 08:56:05.531250,24.52,51.48
21554,2018-06-29 08:56:05.562500,23.11,51.48
21555,2018-06-29 08:56:05.593750,22.16,51.48
21556,2018-06-29 08:56:05.625000,20.66,51.48
21557,2018-06-29 08:56:05.656250,17.9,51.48
21558,2018-06-29 08:56:05.687500,14.43,51.48
21559,2018-06-29 08:56:05.718750,11.43,51.48
21560,2018-06-29 08:56:05.750000,9.25,51.48
21561,2018-06-29 08:56:05.781250,7.11,51.48
21562,2018-06-29 08:56:05.812500,4.07,51.48
21563,2018-06-29 08:56:05.843750,-0.06,51.48
21564,2018-06-29 08:56:05.875000,-4.68,51.48
21565,2018-06-29 08:56:05.906250,-9.1,51.48
21566,2018-06-29 08:56:05.937500,-13.2,51.48
21567,2018-06-29 08:56:05.968750,-17.53,51.48
21568,2018-06-29 08:56:06.000000,-22.27,51.48
21569,2018-06-29 08:56:06.031250,-27.1,51.48
21570,2018-06-29 08:56:06.062500,-32.48,51.48
21571,2018-06-29 08:56:06.093750,-40.0,51.48
21572,2018-06-29 08:56:06.125000,-49.71,51.48
21573,2018-06-29 08:56:06.156250,-57.33,51.48
21574,2018-06-29 08:56:06.187500,-56.55,51.48
21575,2018-06-29 08:56:06.218750,-45.24,51.48
21576,2018-06-29 08:56:06.250000,-27.98,51.48
21577,2018-06-29 08:56:06.281250,-11.31,51.48
21578,2018-06-29 08:56:06.312500,1.4,51.48
21579,2018-06-29 08:56:06.343750,9.89,51.48
21580,2018-06-29 08:56:06.375000,14.71,51.48
21581,2018-06-29 08:56:06.406250,16.73,51.48
21582,2018-06-29 08:56:06.437500,17.64,51.48
21583,2018-06-29 08:56:06.468750,19.26,51.48
21584,2018-06-29 08:56:06.500000,22.09,51.48
21585,2018-06-29 08:56:06.531250,25.02,51.57
21586,2018-06-29 08:56:06.562500,27.18,51.57
21587,2018-06-29 08:56:06.593750,28.51,51.57
21588,2018-06-29 08:56:06.625000,28.64,51.57
21589,2018-06-29 08:56:06.656250,26.84,51.57
21590,2018-06-29 08:56:06.687500,23.45,51.57
21591,2018-06-29 08:56:06.718750,20.25,51.57
21592,2018-06-29 08:56:06.750000,18.56,51.57
21593,2018-06-29 08:56:06.781250,17.83,51.57
21594,2018-06-29 08:56:06.812500,16.6,51.57
21595,2018-06-29 08:56:06.843750,14.44,51.57
21596,2018-06-29 08:56:06.875000,12.08,51.57
21597,2018-06-29 08:56:06.906250,10.21,51.57
21598,2018-06-29 08:56:06.937500,8.65,51.57
21599,2018-06-29 08:56:06.968750,6.34,51.57
21600,2018-06-29 08:56:07.000000,2.58,51.57
21601,2018-06-29 08:56:07.031250,-1.78,51.57
21602,2018-06-29 08:56:07.062500,-5.78,51.57
21603,2018-06-29 08:56:07.093750,-10.18,51.57
21604,2018-06-29 08:56:07.125000,-15.86,51.57
21605,2018-06-29 08:56:07.156250,-21.87,51.57
21606,2018-06-29 08:56:07.187500,-27.01,51.57
21607,2018-06-29 08:56:07.218750,-31.65,51.57
21608,2018-06-29 08:56:07.250000,-37.14,51.57
21609,2018-06-29 08:56:07.281250,-45.02,51.57
21610,2018-06-29 08:56:07.312500,-55.3,51.57
21611,2018-06-29 08:56:07.343750,-63.61,51.57
21612,2018-06-29 08:56:07.375000,-62.86,51.57
21613,2018-06-29 08:56:07.406250,-50.43,51.57
21614,2018-06-29 08:56:07.437500,-31.84,51.57
21615,2018-06-29 08:56:07.468750,-15.24,51.57
21616,2018-06-29 08:56:07.500000,-3.72,51.57
21617,2018-06-29 08:56:07.531250,4.94,51.62
21618,2018-06-29 08:56:07.562500,12.43,51.62
21619,2018-06-29 08:56:07.593750,17.83,51.62
21620,2018-06-29 08:56:07.625000,20.98,51.62
21621,2018-06-29 08:56:07.656250,23.57,51.62
21622,2018-06-29 08:56:07.687500,26.29,51.62
21623,2018-06-29 08:56:07.718750,28.7,51.62
21624,2018-06-29 08:56:07.750000,31.24,51.62
21625,2018-06-29 08:56:07.781250,33.92,51.62
21626,2018-06-29 08:56:07.812500,34.92,51.62
21627,2018-06-29 08:56:07.843750,32.92,51.62
21628,2018-06-29 08:56:07.875000,29.24,51.62
21629,2018-06-29 08:56:07.906250,25.85,51.62
21630,2018-06-29 08:56:07.937500,23.22,51.62
21631,2018-06-29 08:56:07.968750,21.02,51.62
21632,2018-06-29 08:56:08.000000,19.07,51.62
21633,2018-06-29 08:56:08.031250,17.21,51.62
21634,2018-06-29 08:56:08.062500,15.39,51.62
21635,2018-06-29 08:56:08.093750,13.41,51.62
21636,2018-06-29 08:56:08.125000,10.81,51.62
21637,2018-06-29 08:56:08.156250,7.55,51.62
21638,2018-06-29 08:56:08.187500,4.37,51.62
21639,2018-06-29 08:56:08.218750,1.72,51.62
21640,2018-06-29 08:56:08.250000,-0.85,51.62
21641,2018-06-29 08:56:08.281250,-3.78,51.62
21642,2018-06-29 08:56:08.312500,-6.97,51.62
21643,2018-06-29 08:56:08.343750,-10.42,51.62
21644,2018-06-29 08:56:08.375000,-14.38,51.62
21645,2018-06-29 08:56:08.406250,-18.92,51.62
21646,2018-06-29 08:56:08.437500,-23.71,51.62
21647,2018-06-29 08:56:08.468750,-28.5,51.62
21648,2018-06-29 08:56:08.500000,-34.11,51.62
21649,2018-06-29 08:56:08.531250,-42.24,51.67
21650,2018-06-29 08:56:08.562500,-52.65,51.67
21651,2018-06-29 08:56:08.593750,-60.35,51.67
21652,2018-06-29 08:56:08.625000,-58.46,51.67
21653,2018-06-29 08:56:08.656250,-45.64,51.67
21654,2018-06-29 08:56:08.687500,-28.01,51.67
21655,2018-06-29 08:56:08.718750,-12.8,51.67
21656,2018-06-29 08:56:08.750000,-2.4,51.67
21657,2018-06-29 08:56:08.781250,4.79,51.67
21658,2018-06-29 08:56:08.812500,10.58,51.67
21659,2018-06-29 08:56:08.843750,15.32,51.67
21660,2018-06-29 08:56:08.875000,18.75,51.67
21661,2018-06-29 08:56:08.906250,21.2,51.67
21662,2018-06-29 08:56:08.937500,23.51,51.67
21663,2018-06-29 08:56:08.968750,26.31,51.67
21664,2018-06-29 08:56:09.000000,29.41,51.67
21665,2018-06-29 08:56:09.031250,31.65,51.67
21666,2018-06-29 08:56:09.062500,31.71,51.67
21667,2018-06-29 08:56:09.093750,29.42,51.67
21668,2018-06-29 08:56:09.125000,26.11,51.67
21669,2018-06-29 08:56:09.156250,23.44,51.67
21670,2018-06-29 08:56:09.187500,21.83,51.67
21671,2018-06-29 08:56:09.218750,20.54,51.67
21672,2018-06-29 08:56:09.250000,18.7,51.67
21673,2018-06-29 08:56:09.281250,16.37,51.67
21674,2018-06-29 08:56:09.312500,14.52,51.67
21675,2018-06-29 08:56:09.343750,13.69,51.67
21676,2018-06-29 08:56:09.375000,12.9,51.67
21677,2018-06-29 08:56:09.406250,10.77,51.67
21678,2018-06-29 08:56:09.437500,7.4,51.67
21679,2018-06-29 08:56:09.468750,3.8,51.67
21680,2018-06-29 08:56:09.500000,0.26,51.67
21681,2018-06-29 08:56:09.531250,-3.17,51.7
21682,2018-06-29 08:56:09.562500,-6.08,51.7
21683,2018-06-29 08:56:09.593750,-8.9,51.7
21684,2018-06-29 08:56:09.625000,-12.8,51.7
21685,2018-06-29 08:56:09.656250,-17.64,51.7
21686,2018-06-29 08:56:09.687500,-22.16,51.7
21687,2018-06-29 08:56:09.718750,-26.22,51.7
21688,2018-06-29 08:56:09.750000,-31.04,51.7
21689,2018-06-29 08:56:09.781250,-37.7,51.7
21690,2018-06-29 08:56:09.812500,-46.42,51.7
21691,2018-06-29 08:56:09.843750,-54.8,51.7
21692,2018-06-29 08:56:09.875000,-56.59,51.7
21693,2018-06-29 08:56:09.906250,-47.28,51.7
21694,2018-06-29 08:56:09.937500,-30.64,51.7
21695,2018-06-29 08:56:09.968750,-14.8,51.7
21696,2018-06-29 08:56:10.000000,-3.31,51.7
21697,2018-06-29 08:56:10.031250,4.93,51.7
21698,2018-06-29 08:56:10.062500,10.41,51.7
21699,2018-06-29 08:56:10.093750,13.01,51.7
21700,2018-06-29 08:56:10.125000,14.39,51.7
21701,2018-06-29 08:56:10.156250,16.25,51.7
21702,2018-06-29 08:56:10.187500,18.43,51.7
21703,2018-06-29 08:56:10.218750,20.84,51.7
21704,2018-06-29 08:56:10.250000,24.02,51.7
21705,2018-06-29 08:56:10.281250,27.05,51.7
21706,2018-06-29 08:56:10.312500,28.16,51.7
21707,2018-06-29 08:56:10.343750,27.08,51.7
21708,2018-06-29 08:56:10.375000,24.67,51.7
21709,2018-06-29 08:56:10.406250,21.49,51.7
21710,2018-06-29 08:56:10.437500,18.18,51.7
21711,2018-06-29 08:56:10.468750,15.45,51.7
21712,2018-06-29 08:56:10.500000,13.35,51.7
21713,2018-06-29 08:56:10.531250,11.46,51.73
21714,2018-06-29 08:56:10.562500,9.36,51.73
21715,2018-06-29 08:56:10.593750,6.98,51.73
21716,2018-06-29 08:56:10.625000,4.34,51.73
21717,2018-06-29 08:56:10.656250,1.27,51.73
21718,2018-06-29 08:56:10.687500,-2.38,51.73
21719,2018-06-29 08:56:10.718750,-6.43,51.73
21720,2018-06-29 08:56:10.750000,-10.89,51.73
21721,2018-06-29 08:56:10.781250,-15.89,51.73
21722,2018-06-29 08:56:10.812500,-20.98,51.73
21723,2018-06-29 08:56:10.843750,-25.65,51.73
21724,2018-06-29 08:56:10.875000,-30.74,51.73
21725,2018-06-29 08:56:10.906250,-38.07,51.73
21726,2018-06-29 08:56:10.937500,-47.2,51.73
21727,2018-06-29 08:56:10.968750,-53.06,51.73
21728,2018-06-29 08:56:11.000000,-49.6,51.73
21729,2018-06-29 08:56:11.031250,-36.38,51.73
21730,2018-06-29 08:56:11.062500,-19.45,51.73
21731,2018-06-29 08:56:11.093750,-5.11,51.73
21732,2018-06-29 08:56:11.125000,4.61,51.73
21733,2018-06-29 08:56:11.156250,10.83,51.73
21734,2018-06-29 08:56:11.187500,14.56,51.73
21735,2018-06-29 08:56:11.218750,15.94,51.73
21736,2018-06-29 08:56:11.250000,15.98,51.73
21737,2018-06-29 08:56:11.281250,16.87,51.73
21738,2018-06-29 08:56:11.312500,19.39,51.73
21739,2018-06-29 08:56:11.343750,22.43,51.73
21740,2018-06-29 08:56:11.375000,25.35,51.73
21741,2018-06-29 08:56:11.406250,27.89,51.73
21742,2018-06-29 08:56:11.437500,28.41,51.73
21743,2018-06-29 08:56:11.468750,26.2,51.73
21744,2018-06-29 08:56:11.500000,23.2,51.73
21745,2018-06-29 08:56:11.531250,21.09,51.77
21746,2018-06-29 08:56:11.562500,19.1,51.77
21747,2018-06-29 08:56:11.593750,16.29,51.77
21748,2018-06-29 08:56:11.625000,13.23,51.77
21749,2018-06-29 08:56:11.656250,10.62,51.77
21750,2018-06-29 08:56:11.687500,8.6,51.77
21751,2018-06-29 08:56:11.718750,6.8,51.77
21752,2018-06-29 08:56:11.750000,4.11,51.77
21753,2018-06-29 08:56:11.781250,-0.25,51.77
21754,2018-06-29 08:56:11.812500,-5.19,51.77
21755,2018-06-29 08:56:11.843750,-9.28,51.77
21756,2018-06-29 08:56:11.875000,-13.14,51.77
21757,2018-06-29 08:56:11.906250,-18.06,51.77
21758,2018-06-29 08:56:11.937500,-23.74,51.77
21759,2018-06-29 08:56:11.968750,-29.16,51.77
21760,2018-06-29 08:56:12.000000,-34.5,51.77
21761,2018-06-29 08:56:12.031250,-41.21,51.77
21762,2018-06-29 08:56:12.062500,-50.34,51.77
21763,2018-06-29 08:56:12.093750,-60.09,51.77
21764,2018-06-29 08:56:12.125000,-64.68,51.77
21765,2018-06-29 08:56:12.156250,-58.56,51.77
21766,2018-06-29 08:56:12.187500,-42.92,51.77
21767,2018-06-29 08:56:12.218750,-24.8,51.77
21768,2018-06-29 08:56:12.250000,-9.88,51.77
21769,2018-06-29 08:56:12.281250,0.92,51.77
21770,2018-06-29 08:56:12.312500,8.62,51.77
21771,2018-06-29 08:56:12.343750,13.91,51.77
21772,2018-06-29 08:56:12.375000,17.67,51.77
21773,2018-06-29 08:56:12.406250,20.84,51.77
21774,2018-06-29 08:56:12.437500,23.71,51.77
21775,2018-06-29 08:56:12.468750,26.38,51.77
21776,2018-06-29 08:56:12.500000,29.45,51.77
21777,2018-06-29 08:56:12.531250,33.17,51.78
21778,2018-06-29 08:56:12.562500,35.99,51.78
21779,2018-06-29 08:56:12.593750,35.85,51.78
21780,2018-06-29 08:56:12.625000,33.06,51.78
21781,2018-06-29 08:56:12.656250,29.86,51.78
21782,2018-06-29 08:56:12.687500,27.37,51.78
21783,2018-06-29 08:56:12.718750,25.23,51.78
21784,2018-06-29 08:56:12.750000,23.33,51.78
21785,2018-06-29 08:56:12.781250,21.81,51.78
21786,2018-06-29 08:56:12.812500,20.47,51.78
21787,2018-06-29 08:56:12.843750,18.79,51.78
21788,2018-06-29 08:56:12.875000,16.14,51.78
21789,2018-06-29 08:56:12.906250,12.62,51.78
21790,2018-06-29 08:56:12.937500,9.42,51.78
21791,2018-06-29 08:56:12.968750,7.19,51.78
21792,2018-06-29 08:56:13.000000,4.73,51.78
21793,2018-06-29 08:56:13.031250,0.98,51.78
21794,2018-06-29 08:56:13.062500,-3.16,51.78
21795,2018-06-29 08:56:13.093750,-6.75,51.78
21796,2018-06-29 08:56:13.125000,-11.03,51.78
21797,2018-06-29 08:56:13.156250,-17.21,51.78
21798,2018-06-29 08:56:13.187500,-23.97,51.78
21799,2018-06-29 08:56:13.218750,-29.65,51.78
21800,2018-06-29 08:56:13.250000,-34.75,51.78
21801,2018-06-29 08:56:13.281250,-40.8,51.78
21802,2018-06-29 08:56:13.312500,-49.35,51.78
21803,2018-06-29 08:56:13.343750,-60.92,51.78
21804,2018-06-29 08:56:13.375000,-70.89,51.78
21805,2018-06-29 08:56:13.406250,-70.39,51.78
21806,2018-06-29 08:56:13.437500,-55.95,51.78
21807,2018-06-29 08:56:13.468750,-34.29,51.78
21808,2018-06-29 08:56:13.500000,-14.78,51.78
21809,2018-06-29 08:56:13.531250,-1.49,51.78
21810,2018-06-29 08:56:13.562500,6.51,51.78
21811,2018-06-29 08:56:13.593750,11.85,51.78
21812,2018-06-29 08:56:13.625000,16.45,51.78
21813,2018-06-29 08:56:13.656250,20.42,51.78
21814,2018-06-29 08:56:13.687500,23.43,51.78
21815,2018-06-29 08:56:13.718750,26.19,51.78
21816,2018-06-29 08:56:13.750000,29.39,51.78
21817,2018-06-29 08:56:13.781250,32.86,51.78
21818,2018-06-29 08:56:13.812500,36.04,51.78
21819,2018-06-29 08:56:13.843750,37.75,51.78
21820,2018-06-29 08:56:13.875000,36.69,51.78
21821,2018-06-29 08:56:13.906250,33.29,51.78
21822,2018-06-29 08:56:13.937500,29.73,51.78
21823,2018-06-29 08:56:13.968750,27.53,51.78
21824,2018-06-29 08:56:14.000000,26.31,51.78
21825,2018-06-29 08:56:14.031250,24.73,51.78
21826,2018-06-29 08:56:14.062500,22.1,51.78
21827,2018-06-29 08:56:14.093750,18.94,51.78
21828,2018-06-29 08:56:14.125000,16.17,51.78
21829,2018-06-29 08:56:14.156250,14.1,51.78
21830,2018-06-29 08:56:14.187500,12.44,51.78
21831,2018-06-29 08:56:14.218750,10.68,51.78
21832,2018-06-29 08:56:14.250000,7.85,51.78
21833,2018-06-29 08:56:14.281250,3.3,51.78
21834,2018-06-29 08:56:14.312500,-1.55,51.78
21835,2018-06-29 08:56:14.343750,-5.01,51.78
21836,2018-06-29 08:56:14.375000,-8.56,51.78
21837,2018-06-29 08:56:14.406250,-14.41,51.78
21838,2018-06-29 08:56:14.437500,-21.14,51.78
21839,2018-06-29 08:56:14.468750,-26.42,51.78
21840,2018-06-29 08:56:14.500000,-31.13,51.78
21841,2018-06-29 08:56:14.531250,-37.83,51.78
21842,2018-06-29 08:56:14.562500,-47.83,51.78
21843,2018-06-29 08:56:14.593750,-59.32,51.78
21844,2018-06-29 08:56:14.625000,-65.95,51.78
21845,2018-06-29 08:56:14.656250,-60.79,51.78
21846,2018-06-29 08:56:14.687500,-44.13,51.78
21847,2018-06-29 08:56:14.718750,-23.79,51.78
21848,2018-06-29 08:56:14.750000,-7.28,51.78
21849,2018-06-29 08:56:14.781250,3.54,51.78
21850,2018-06-29 08:56:14.812500,10.35,51.78
21851,2018-06-29 08:56:14.843750,14.2,51.78
21852,2018-06-29 08:56:14.875000,15.43,51.78
21853,2018-06-29 08:56:14.906250,15.95,51.78
21854,2018-06-29 08:56:14.937500,18.33,51.78
21855,2018-06-29 08:56:14.968750,22.74,51.78
21856,2018-06-29 08:56:15.000000,27.5,51.78
21857,2018-06-29 08:56:15.031250,31.6,51.78
21858,2018-06-29 08:56:15.062500,34.2,51.78
21859,2018-06-29 08:56:15.093750,34.03,51.78
21860,2018-06-29 08:56:15.125000,31.37,51.78
21861,2018-06-29 08:56:15.156250,28.34,51.78
21862,2018-06-29 08:56:15.187500,26.16,51.78
21863,2018-06-29 08:56:15.218750,23.97,51.78
21864,2018-06-29 08:56:15.250000,20.88,51.78
21865,2018-06-29 08:56:15.281250,17.48,51.78
21866,2018-06-29 08:56:15.312500,14.71,51.78
21867,2018-06-29 08:56:15.343750,12.38,51.78
21868,2018-06-29 08:56:15.375000,9.36,51.78
21869,2018-06-29 08:56:15.406250,5.21,51.78
21870,2018-06-29 08:56:15.437500,0.5,51.78
