,Time,ppg,hr
195200,2018-06-29 10:26:32.000000,60.45,64.47
195201,2018-06-29 10:26:32.031250,67.18,64.47
195202,2018-06-29 10:26:32.062500,62.85,64.47
195203,2018-06-29 10:26:32.093750,51.49,64.47
195204,2018-06-29 10:26:32.125000,40.77,64.47
195205,2018-06-29 10:26:32.156250,35.6,64.47
195206,2018-06-29 10:26:32.187500,34.91,64.47
195207,2018-06-29 10:26:32.218750,35.64,64.47
195208,2018-06-29 10:26:32.250000,36.81,64.47
195209,2018-06-29 10:26:32.281250,37.37,64.47
195210,2018-06-29 10:26:32.312500,34.05,64.47
195211,2018-06-29 10:26:32.343750,24.78,64.47
195212,2018-06-29 10:26:32.375000,12.1,64.47
195213,2018-06-29 10:26:32.406250,-0.53,64.47
195214,2018-06-29 10:26:32.437500,-14.25,64.47
195215,2018-06-29 10:26:32.468750,-32.77,64.47
195216,2018-06-29 10:26:32.500000,-57.68,64.47
195217,2018-06-29 10:26:32.531250,-87.46,64.58
195218,2018-06-29 10:26:32.562500,-117.52,64.58
195219,2018-06-29 10:26:32.593750,-138.47,64.58
195220,2018-06-29 10:26:32.625000,-139.75,64.58
195221,2018-06-29 10:26:32.656250,-118.89,64.58
195222,2018-06-29 10:26:32.687500,-83.4,64.58
195223,2018-06-29 10:26:32.718750,-43.05,64.58
195224,2018-06-29 10:26:32.750000,-5.18,64.58
195225,2018-06-29 10:26:32.781250,23.27,64.58
195226,2018-06-29 10:26:32.812500,36.21,64.58
195227,2018-06-29 10:26:32.843750,33.95,64.58
195228,2018-06-29 10:26:32.875000,24.38,64.58
195229,2018-06-29 10:26:32.906250,16.4,64.58
195230,2018-06-29 10:26:32.937500,11.28,64.58
195231,2018-06-29 10:26:32.968750,2.46,64.58
195232,2018-06-29 10:26:33.000000,-16.27,64.58
195233,2018-06-29 10:26:33.031250,-44.61,64.58
195234,2018-06-29 10:26:33.062500,-75.71,64.58
195235,2018-06-29 10:26:33.093750,-98.66,64.58
195236,2018-06-29 10:26:33.125000,-101.81,64.58
195237,2018-06-29 10:26:33.156250,-79.84,64.58
195238,2018-06-29 10:26:33.187500,-38.31,64.58
195239,2018-06-29 10:26:33.218750,12.69,64.58
195240,2018-06-29 10:26:33.250000,64.35,64.58
195241,2018-06-29 10:26:33.281250,105.91,64.58
195242,2018-06-29 10:26:33.312500,127.72,64.58
195243,2018-06-29 10:26:33.343750,134.59,64.58
195244,2018-06-29 10:26:33.375000,142.88,64.58
195245,2018-06-29 10:26:33.406250,158.08,64.58
195246,2018-06-29 10:26:33.437500,168.57,64.58
195247,2018-06-29 10:26:33.468750,163.83,64.58
195248,2018-06-29 10:26:33.500000,145.86,64.58
195249,2018-06-29 10:26:33.531250,121.23,64.75
195250,2018-06-29 10:26:33.562500,92.95,64.75
195251,2018-06-29 10:26:33.593750,62.11,64.75
195252,2018-06-29 10:26:33.625000,32.78,64.75
195253,2018-06-29 10:26:33.656250,10.8,64.75
195254,2018-06-29 10:26:33.687500,-2.35,64.75
195255,2018-06-29 10:26:33.718750,-11.7,64.75
195256,2018-06-29 10:26:33.750000,-24.24,64.75
195257,2018-06-29 10:26:33.781250,-44.41,64.75
195258,2018-06-29 10:26:33.812500,-73.96,64.75
195259,2018-06-29 10:26:33.843750,-111.79,64.75
195260,2018-06-29 10:26:33.875000,-152.15,64.75
195261,2018-06-29 10:26:33.906250,-184.93,64.75
195262,2018-06-29 10:26:33.937500,-199.66,64.75
195263,2018-06-29 10:26:33.968750,-190.31,64.75
195264,2018-06-29 10:26:34.000000,-157.45,64.75
195265,2018-06-29 10:26:34.031250,-110.64,64.75
195266,2018-06-29 10:26:34.062500,-67.01,64.75
195267,2018-06-29 10:26:34.093750,-38.91,64.75
195268,2018-06-29 10:26:34.125000,-23.28,64.75
195269,2018-06-29 10:26:34.156250,-10.45,64.75
195270,2018-06-29 10:26:34.187500,2.05,64.75
195271,2018-06-29 10:26:34.218750,12.33,64.75
195272,2018-06-29 10:26:34.250000,21.51,64.75
195273,2018-06-29 10:26:34.281250,30.23,64.75
195274,2018-06-29 10:26:34.312500,35.86,64.75
195275,2018-06-29 10:26:34.343750,37.68,64.75
195276,2018-06-29 10:26:34.375000,38.61,64.75
195277,2018-06-29 10:26:34.406250,40.39,64.75
195278,2018-06-29 10:26:34.437500,41.64,64.75
195279,2018-06-29 10:26:34.468750,40.9,64.75
195280,2018-06-29 10:26:34.500000,38.55,64.75
195281,2018-06-29 10:26:34.531250,34.94,64.95
195282,2018-06-29 10:26:34.562500,29.07,64.95
195283,2018-06-29 10:26:34.593750,20.35,64.95
195284,2018-06-29 10:26:34.625000,10.44,64.95
195285,2018-06-29 10:26:34.656250,0.96,64.95
195286,2018-06-29 10:26:34.687500,-9.8,64.95
195287,2018-06-29 10:26:34.718750,-24.12,64.95
195288,2018-06-29 10:26:34.750000,-40.5,64.95
195289,2018-06-29 10:26:34.781250,-55.15,64.95
195290,2018-06-29 10:26:34.812500,-66.85,64.95
195291,2018-06-29 10:26:34.843750,-77.4,64.95
195292,2018-06-29 10:26:34.875000,-88.48,64.95
195293,2018-06-29 10:26:34.906250,-98.83,64.95
195294,2018-06-29 10:26:34.937500,-102.68,64.95
195295,2018-06-29 10:26:34.968750,-92.34,64.95
195296,2018-06-29 10:26:35.000000,-65.48,64.95
195297,2018-06-29 10:26:35.031250,-28.28,64.95
195298,2018-06-29 10:26:35.062500,11.0,64.95
195299,2018-06-29 10:26:35.093750,49.01,64.95
195300,2018-06-29 10:26:35.125000,86.17,64.95
195301,2018-06-29 10:26:35.156250,122.43,64.95
195302,2018-06-29 10:26:35.187500,154.63,64.95
195303,2018-06-29 10:26:35.218750,178.93,64.95
195304,2018-06-29 10:26:35.250000,196.4,64.95
195305,2018-06-29 10:26:35.281250,211.14,64.95
195306,2018-06-29 10:26:35.312500,221.41,64.95
195307,2018-06-29 10:26:35.343750,219.14,64.95
195308,2018-06-29 10:26:35.375000,198.76,64.95
195309,2018-06-29 10:26:35.406250,159.32,64.95
195310,2018-06-29 10:26:35.437500,102.12,64.95
195311,2018-06-29 10:26:35.468750,33.99,64.95
195312,2018-06-29 10:26:35.500000,-32.15,64.95
195313,2018-06-29 10:26:35.531250,-83.61,65.17
195314,2018-06-29 10:26:35.562500,-114.52,65.17
195315,2018-06-29 10:26:35.593750,-127.09,65.17
195316,2018-06-29 10:26:35.625000,-129.15,65.17
195317,2018-06-29 10:26:35.656250,-127.57,65.17
195318,2018-06-29 10:26:35.687500,-122.9,65.17
195319,2018-06-29 10:26:35.718750,-113.63,65.17
195320,2018-06-29 10:26:35.750000,-103.97,65.17
195321,2018-06-29 10:26:35.781250,-101.27,65.17
195322,2018-06-29 10:26:35.812500,-106.94,65.17
195323,2018-06-29 10:26:35.843750,-114.59,65.17
195324,2018-06-29 10:26:35.875000,-115.0,65.17
195325,2018-06-29 10:26:35.906250,-100.83,65.17
195326,2018-06-29 10:26:35.937500,-71.7,65.17
195327,2018-06-29 10:26:35.968750,-36.47,65.17
195328,2018-06-29 10:26:36.000000,-6.47,65.17
195329,2018-06-29 10:26:36.031250,13.88,65.17
195330,2018-06-29 10:26:36.062500,26.51,65.17
195331,2018-06-29 10:26:36.093750,33.38,65.17
195332,2018-06-29 10:26:36.125000,35.65,65.17
195333,2018-06-29 10:26:36.156250,36.0,65.17
195334,2018-06-29 10:26:36.187500,36.83,65.17
195335,2018-06-29 10:26:36.218750,38.04,65.17
195336,2018-06-29 10:26:36.250000,38.88,65.17
195337,2018-06-29 10:26:36.281250,39.68,65.17
195338,2018-06-29 10:26:36.312500,40.17,65.17
195339,2018-06-29 10:26:36.343750,38.46,65.17
195340,2018-06-29 10:26:36.375000,33.38,65.17
195341,2018-06-29 10:26:36.406250,26.06,65.17
195342,2018-06-29 10:26:36.437500,18.42,65.17
195343,2018-06-29 10:26:36.468750,10.73,65.17
195344,2018-06-29 10:26:36.500000,1.84,65.17
195345,2018-06-29 10:26:36.531250,-8.61,65.4
195346,2018-06-29 10:26:36.562500,-19.46,65.4
195347,2018-06-29 10:26:36.593750,-29.46,65.4
195348,2018-06-29 10:26:36.625000,-38.5,65.4
195349,2018-06-29 10:26:36.656250,-47.48,65.4
195350,2018-06-29 10:26:36.687500,-57.33,65.4
195351,2018-06-29 10:26:36.718750,-65.59,65.4
195352,2018-06-29 10:26:36.750000,-64.82,65.4
195353,2018-06-29 10:26:36.781250,-49.73,65.4
195354,2018-06-29 10:26:36.812500,-24.93,65.4
195355,2018-06-29 10:26:36.843750,-0.15,65.4
195356,2018-06-29 10:26:36.875000,19.64,65.4
195357,2018-06-29 10:26:36.906250,33.94,65.4
195358,2018-06-29 10:26:36.937500,41.44,65.4
195359,2018-06-29 10:26:36.968750,41.36,65.4
195360,2018-06-29 10:26:37.000000,36.83,65.4
195361,2018-06-29 10:26:37.031250,32.38,65.4
195362,2018-06-29 10:26:37.062500,29.43,65.4
195363,2018-06-29 10:26:37.093750,26.63,65.4
195364,2018-06-29 10:26:37.125000,23.33,65.4
195365,2018-06-29 10:26:37.156250,20.17,65.4
195366,2018-06-29 10:26:37.187500,16.75,65.4
195367,2018-06-29 10:26:37.218750,11.66,65.4
195368,2018-06-29 10:26:37.250000,4.89,65.4
195369,2018-06-29 10:26:37.281250,-1.57,65.4
195370,2018-06-29 10:26:37.312500,-6.37,65.4
195371,2018-06-29 10:26:37.343750,-10.69,65.4
195372,2018-06-29 10:26:37.375000,-16.67,65.4
195373,2018-06-29 10:26:37.406250,-24.54,65.4
195374,2018-06-29 10:26:37.437500,-32.56,65.4
195375,2018-06-29 10:26:37.468750,-39.46,65.4
195376,2018-06-29 10:26:37.500000,-46.63,65.4
195377,2018-06-29 10:26:37.531250,-56.96,65.65
195378,2018-06-29 10:26:37.562500,-70.52,65.65
195379,2018-06-29 10:26:37.593750,-80.46,65.65
195380,2018-06-29 10:26:37.625000,-76.66,65.65
195381,2018-06-29 10:26:37.656250,-56.27,65.65
195382,2018-06-29 10:26:37.687500,-27.64,65.65
195383,2018-06-29 10:26:37.718750,-1.29,65.65
195384,2018-06-29 10:26:37.750000,19.29,65.65
195385,2018-06-29 10:26:37.781250,35.05,65.65
195386,2018-06-29 10:26:37.812500,45.3,65.65
195387,2018-06-29 10:26:37.843750,48.9,65.65
195388,2018-06-29 10:26:37.875000,47.95,65.65
195389,2018-06-29 10:26:37.906250,46.02,65.65
195390,2018-06-29 10:26:37.937500,44.59,65.65
195391,2018-06-29 10:26:37.968750,43.66,65.65
195392,2018-06-29 10:26:38.000000,43.16,65.65
195393,2018-06-29 10:26:38.031250,42.41,65.65
195394,2018-06-29 10:26:38.062500,39.34,65.65
195395,2018-06-29 10:26:38.093750,31.99,65.65
195396,2018-06-29 10:26:38.125000,21.25,65.65
195397,2018-06-29 10:26:38.156250,10.85,65.65
195398,2018-06-29 10:26:38.187500,2.82,65.65
195399,2018-06-29 10:26:38.218750,-5.1,65.65
195400,2018-06-29 10:26:38.250000,-15.21,65.65
195401,2018-06-29 10:26:38.281250,-26.2,65.65
195402,2018-06-29 10:26:38.312500,-35.87,65.65
195403,2018-06-29 10:26:38.343750,-44.72,65.65
195404,2018-06-29 10:26:38.375000,-55.26,65.65
195405,2018-06-29 10:26:38.406250,-69.4,65.65
195406,2018-06-29 10:26:38.437500,-85.17,65.65
195407,2018-06-29 10:26:38.468750,-94.58,65.65
195408,2018-06-29 10:26:38.500000,-88.21,65.65
195409,2018-06-29 10:26:38.531250,-64.85,66.02
195410,2018-06-29 10:26:38.562500,-33.68,66.02
195411,2018-06-29 10:26:38.593750,-5.0,66.02
195412,2018-06-29 10:26:38.625000,17.9,66.02
195413,2018-06-29 10:26:38.656250,35.96,66.02
195414,2018-06-29 10:26:38.687500,48.2,66.02
195415,2018-06-29 10:26:38.718750,52.65,66.02
195416,2018-06-29 10:26:38.750000,51.32,66.02
195417,2018-06-29 10:26:38.781250,48.72,66.02
195418,2018-06-29 10:26:38.812500,46.06,66.02
195419,2018-06-29 10:26:38.843750,41.54,66.02
195420,2018-06-29 10:26:38.875000,34.61,66.02
195421,2018-06-29 10:26:38.906250,25.12,66.02
195422,2018-06-29 10:26:38.937500,10.62,66.02
195423,2018-06-29 10:26:38.968750,-11.25,66.02
195424,2018-06-29 10:26:39.000000,-39.24,66.02
195425,2018-06-29 10:26:39.031250,-70.18,66.02
195426,2018-06-29 10:26:39.062500,-102.46,66.02
195427,2018-06-29 10:26:39.093750,-136.27,66.02
195428,2018-06-29 10:26:39.125000,-171.66,66.02
195429,2018-06-29 10:26:39.156250,-205.67,66.02
195430,2018-06-29 10:26:39.187500,-230.18,66.02
195431,2018-06-29 10:26:39.218750,-236.37,66.02
195432,2018-06-29 10:26:39.250000,-224.99,66.02
195433,2018-06-29 10:26:39.281250,-201.71,66.02
195434,2018-06-29 10:26:39.312500,-161.41,66.02
195435,2018-06-29 10:26:39.343750,-93.47,66.02
195436,2018-06-29 10:26:39.375000,0.72,66.02
195437,2018-06-29 10:26:39.406250,109.5,66.02
195438,2018-06-29 10:26:39.437500,216.27,66.02
195439,2018-06-29 10:26:39.468750,296.82,66.02
195440,2018-06-29 10:26:39.500000,333.41,66.02
195441,2018-06-29 10:26:39.531250,332.72,66.42
195442,2018-06-29 10:26:39.562500,311.91,66.42
195443,2018-06-29 10:26:39.593750,278.0,66.42
195444,2018-06-29 10:26:39.625000,234.83,66.42
195445,2018-06-29 10:26:39.656250,192.83,66.42
195446,2018-06-29 10:26:39.687500,159.63,66.42
195447,2018-06-29 10:26:39.718750,133.55,66.42
195448,2018-06-29 10:26:39.750000,112.36,66.42
195449,2018-06-29 10:26:39.781250,98.13,66.42
195450,2018-06-29 10:26:39.812500,90.06,66.42
195451,2018-06-29 10:26:39.843750,81.87,66.42
195452,2018-06-29 10:26:39.875000,69.59,66.42
195453,2018-06-29 10:26:39.906250,55.33,66.42
195454,2018-06-29 10:26:39.937500,42.1,66.42
195455,2018-06-29 10:26:39.968750,29.92,66.42
195456,2018-06-29 10:26:40.000000,18.03,66.42
195457,2018-06-29 10:26:40.031250,6.69,66.42
195458,2018-06-29 10:26:40.062500,-4.74,66.42
195459,2018-06-29 10:26:40.093750,-18.88,66.42
195460,2018-06-29 10:26:40.125000,-37.12,66.42
195461,2018-06-29 10:26:40.156250,-57.06,66.42
195462,2018-06-29 10:26:40.187500,-74.03,66.42
195463,2018-06-29 10:26:40.218750,-84.65,66.42
195464,2018-06-29 10:26:40.250000,-88.13,66.42
195465,2018-06-29 10:26:40.281250,-84.27,66.42
195466,2018-06-29 10:26:40.312500,-72.37,66.42
195467,2018-06-29 10:26:40.343750,-54.0,66.42
195468,2018-06-29 10:26:40.375000,-33.67,66.42
195469,2018-06-29 10:26:40.406250,-15.0,66.42
195470,2018-06-29 10:26:40.437500,0.6,66.42
195471,2018-06-29 10:26:40.468750,10.25,66.42
195472,2018-06-29 10:26:40.500000,7.85,66.42
195473,2018-06-29 10:26:40.531250,-11.99,66.78
195474,2018-06-29 10:26:40.562500,-45.98,66.78
195475,2018-06-29 10:26:40.593750,-79.4,66.78
195476,2018-06-29 10:26:40.625000,-96.42,66.78
195477,2018-06-29 10:26:40.656250,-91.59,66.78
195478,2018-06-29 10:26:40.687500,-69.44,66.78
195479,2018-06-29 10:26:40.718750,-39.88,66.78
195480,2018-06-29 10:26:40.750000,-15.63,66.78
195481,2018-06-29 10:26:40.781250,-4.98,66.78
195482,2018-06-29 10:26:40.812500,-6.0,66.78
195483,2018-06-29 10:26:40.843750,-11.83,66.78
195484,2018-06-29 10:26:40.875000,-17.78,66.78
195485,2018-06-29 10:26:40.906250,-21.9,66.78
195486,2018-06-29 10:26:40.937500,-23.94,66.78
195487,2018-06-29 10:26:40.968750,-25.39,66.78
195488,2018-06-29 10:26:41.000000,-28.79,66.78
195489,2018-06-29 10:26:41.031250,-35.87,66.78
195490,2018-06-29 10:26:41.062500,-45.63,66.78
195491,2018-06-29 10:26:41.093750,-54.79,66.78
195492,2018-06-29 10:26:41.125000,-61.51,66.78
195493,2018-06-29 10:26:41.156250,-66.94,66.78
195494,2018-06-29 10:26:41.187500,-72.84,66.78
195495,2018-06-29 10:26:41.218750,-78.09,66.78
195496,2018-06-29 10:26:41.250000,-76.28,66.78
195497,2018-06-29 10:26:41.281250,-58.55,66.78
195498,2018-06-29 10:26:41.312500,-24.11,66.78
195499,2018-06-29 10:26:41.343750,14.53,66.78
195500,2018-06-29 10:26:41.375000,43.1,66.78
195501,2018-06-29 10:26:41.406250,58.81,66.78
195502,2018-06-29 10:26:41.437500,66.96,66.78
195503,2018-06-29 10:26:41.468750,70.92,66.78
195504,2018-06-29 10:26:41.500000,71.31,66.78
195505,2018-06-29 10:26:41.531250,69.83,67.17
195506,2018-06-29 10:26:41.562500,68.44,67.17
195507,2018-06-29 10:26:41.593750,66.95,67.17
195508,2018-06-29 10:26:41.625000,64.16,67.17
195509,2018-06-29 10:26:41.656250,60.24,67.17
195510,2018-06-29 10:26:41.687500,55.75,67.17
195511,2018-06-29 10:26:41.718750,49.1,67.17
195512,2018-06-29 10:26:41.750000,38.07,67.17
195513,2018-06-29 10:26:41.781250,23.97,67.17
195514,2018-06-29 10:26:41.812500,10.84,67.17
195515,2018-06-29 10:26:41.843750,0.66,67.17
195516,2018-06-29 10:26:41.875000,-6.66,67.17
195517,2018-06-29 10:26:41.906250,-10.23,67.17
195518,2018-06-29 10:26:41.937500,-9.26,67.17
195519,2018-06-29 10:26:41.968750,-5.76,67.17
195520,2018-06-29 10:26:42.000000,-3.22,67.17
195521,2018-06-29 10:26:42.031250,-3.88,67.17
195522,2018-06-29 10:26:42.062500,-8.35,67.17
195523,2018-06-29 10:26:42.093750,-15.87,67.17
195524,2018-06-29 10:26:42.125000,-25.42,67.17
195525,2018-06-29 10:26:42.156250,-37.4,67.17
195526,2018-06-29 10:26:42.187500,-52.49,67.17
195527,2018-06-29 10:26:42.218750,-66.53,67.17
195528,2018-06-29 10:26:42.250000,-69.55,67.17
195529,2018-06-29 10:26:42.281250,-54.68,67.17
195530,2018-06-29 10:26:42.312500,-26.78,67.17
195531,2018-06-29 10:26:42.343750,2.32,67.17
195532,2018-06-29 10:26:42.375000,25.21,67.17
195533,2018-06-29 10:26:42.406250,41.35,67.17
195534,2018-06-29 10:26:42.437500,51.62,67.17
195535,2018-06-29 10:26:42.468750,56.0,67.17
195536,2018-06-29 10:26:42.500000,55.44,67.17
195537,2018-06-29 10:26:42.531250,52.39,67.52
195538,2018-06-29 10:26:42.562500,49.58,67.52
195539,2018-06-29 10:26:42.593750,48.91,67.52
195540,2018-06-29 10:26:42.625000,50.43,67.52
195541,2018-06-29 10:26:42.656250,52.02,67.52
195542,2018-06-29 10:26:42.687500,51.04,67.52
195543,2018-06-29 10:26:42.718750,46.57,67.52
195544,2018-06-29 10:26:42.750000,39.6,67.52
195545,2018-06-29 10:26:42.781250,31.28,67.52
195546,2018-06-29 10:26:42.812500,21.64,67.52
195547,2018-06-29 10:26:42.843750,10.3,67.52
195548,2018-06-29 10:26:42.875000,-2.08,67.52
195549,2018-06-29 10:26:42.906250,-13.89,67.52
195550,2018-06-29 10:26:42.937500,-24.0,67.52
195551,2018-06-29 10:26:42.968750,-32.31,67.52
195552,2018-06-29 10:26:43.000000,-39.74,67.52
195553,2018-06-29 10:26:43.031250,-47.93,67.52
195554,2018-06-29 10:26:43.062500,-58.5,67.52
195555,2018-06-29 10:26:43.093750,-72.53,67.52
195556,2018-06-29 10:26:43.125000,-88.08,67.52
195557,2018-06-29 10:26:43.156250,-96.77,67.52
195558,2018-06-29 10:26:43.187500,-88.3,67.52
195559,2018-06-29 10:26:43.218750,-61.76,67.52
195560,2018-06-29 10:26:43.250000,-28.16,67.52
195561,2018-06-29 10:26:43.281250,0.85,67.52
195562,2018-06-29 10:26:43.312500,21.84,67.52
195563,2018-06-29 10:26:43.343750,36.21,67.52
195564,2018-06-29 10:26:43.375000,44.07,67.52
195565,2018-06-29 10:26:43.406250,45.07,67.52
195566,2018-06-29 10:26:43.437500,42.21,67.52
195567,2018-06-29 10:26:43.468750,40.36,67.52
195568,2018-06-29 10:26:43.500000,41.01,67.52
195569,2018-06-29 10:26:43.531250,41.65,67.93
195570,2018-06-29 10:26:43.562500,40.68,67.93
195571,2018-06-29 10:26:43.593750,39.0,67.93
195572,2018-06-29 10:26:43.625000,36.78,67.93
195573,2018-06-29 10:26:43.656250,32.56,67.93
195574,2018-06-29 10:26:43.687500,25.86,67.93
195575,2018-06-29 10:26:43.718750,17.37,67.93
195576,2018-06-29 10:26:43.750000,7.88,67.93
195577,2018-06-29 10:26:43.781250,-1.02,67.93
195578,2018-06-29 10:26:43.812500,-7.27,67.93
195579,2018-06-29 10:26:43.843750,-11.96,67.93
195580,2018-06-29 10:26:43.875000,-19.8,67.93
195581,2018-06-29 10:26:43.906250,-33.63,67.93
195582,2018-06-29 10:26:43.937500,-51.75,67.93
195583,2018-06-29 10:26:43.968750,-72.45,67.93
195584,2018-06-29 10:26:44.000000,-94.27,67.93
195585,2018-06-29 10:26:44.031250,-109.17,67.93
195586,2018-06-29 10:26:44.062500,-103.67,67.93
195587,2018-06-29 10:26:44.093750,-70.94,67.93
195588,2018-06-29 10:26:44.125000,-18.77,67.93
195589,2018-06-29 10:26:44.156250,32.24,67.93
195590,2018-06-29 10:26:44.187500,59.54,67.93
195591,2018-06-29 10:26:44.218750,56.64,67.93
195592,2018-06-29 10:26:44.250000,38.97,67.93
195593,2018-06-29 10:26:44.281250,25.06,67.93
195594,2018-06-29 10:26:44.312500,16.8,67.93
195595,2018-06-29 10:26:44.343750,4.17,67.93
195596,2018-06-29 10:26:44.375000,-19.57,67.93
195597,2018-06-29 10:26:44.406250,-52.29,67.93
195598,2018-06-29 10:26:44.437500,-86.11,67.93
195599,2018-06-29 10:26:44.468750,-110.16,67.93
195600,2018-06-29 10:26:44.500000,-113.59,67.93
195601,2018-06-29 10:26:44.531250,-93.05,68.38
195602,2018-06-29 10:26:44.562500,-59.62,68.38
195603,2018-06-29 10:26:44.593750,-32.68,68.38
195604,2018-06-29 10:26:44.625000,-22.16,68.38
195605,2018-06-29 10:26:44.656250,-21.38,68.38
195606,2018-06-29 10:26:44.687500,-18.38,68.38
195607,2018-06-29 10:26:44.718750,-8.03,68.38
195608,2018-06-29 10:26:44.750000,9.53,68.38
195609,2018-06-29 10:26:44.781250,34.31,68.38
195610,2018-06-29 10:26:44.812500,64.94,68.38
195611,2018-06-29 10:26:44.843750,95.39,68.38
195612,2018-06-29 10:26:44.875000,117.88,68.38
195613,2018-06-29 10:26:44.906250,127.49,68.38
195614,2018-06-29 10:26:44.937500,123.63,68.38
195615,2018-06-29 10:26:44.968750,107.04,68.38
195616,2018-06-29 10:26:45.000000,80.98,68.38
195617,2018-06-29 10:26:45.031250,55.55,68.38
195618,2018-06-29 10:26:45.062500,40.22,68.38
195619,2018-06-29 10:26:45.093750,31.09,68.38
195620,2018-06-29 10:26:45.125000,17.49,68.38
195621,2018-06-29 10:26:45.156250,-0.76,68.38
195622,2018-06-29 10:26:45.187500,-13.75,68.38
195623,2018-06-29 10:26:45.218750,-15.58,68.38
195624,2018-06-29 10:26:45.250000,-9.2,68.38
195625,2018-06-29 10:26:45.281250,-0.65,68.38
195626,2018-06-29 10:26:45.312500,5.42,68.38
195627,2018-06-29 10:26:45.343750,7.96,68.38
195628,2018-06-29 10:26:45.375000,10.09,68.38
195629,2018-06-29 10:26:45.406250,15.3,68.38
195630,2018-06-29 10:26:45.437500,22.26,68.38
195631,2018-06-29 10:26:45.468750,26.09,68.38
195632,2018-06-29 10:26:45.500000,22.87,68.38
195633,2018-06-29 10:26:45.531250,11.46,68.83
195634,2018-06-29 10:26:45.562500,-4.92,68.83
195635,2018-06-29 10:26:45.593750,-21.34,68.83
195636,2018-06-29 10:26:45.625000,-40.32,68.83
195637,2018-06-29 10:26:45.656250,-70.47,68.83
195638,2018-06-29 10:26:45.687500,-109.67,68.83
195639,2018-06-29 10:26:45.718750,-139.91,68.83
195640,2018-06-29 10:26:45.750000,-143.3,68.83
195641,2018-06-29 10:26:45.781250,-114.92,68.83
195642,2018-06-29 10:26:45.812500,-60.82,68.83
195643,2018-06-29 10:26:45.843750,6.23,68.83
195644,2018-06-29 10:26:45.875000,70.03,68.83
195645,2018-06-29 10:26:45.906250,118.34,68.83
195646,2018-06-29 10:26:45.937500,149.35,68.83
195647,2018-06-29 10:26:45.968750,167.38,68.83
195648,2018-06-29 10:26:46.000000,171.33,68.83
195649,2018-06-29 10:26:46.031250,151.21,68.83
195650,2018-06-29 10:26:46.062500,99.43,68.83
195651,2018-06-29 10:26:46.093750,23.52,68.83
195652,2018-06-29 10:26:46.125000,-54.91,68.83
195653,2018-06-29 10:26:46.156250,-112.18,68.83
195654,2018-06-29 10:26:46.187500,-134.63,68.83
195655,2018-06-29 10:26:46.218750,-125.28,68.83
195656,2018-06-29 10:26:46.250000,-100.65,68.83
195657,2018-06-29 10:26:46.281250,-77.36,68.83
195658,2018-06-29 10:26:46.312500,-60.25,68.83
195659,2018-06-29 10:26:46.343750,-46.44,68.83
195660,2018-06-29 10:26:46.375000,-37.26,68.83
195661,2018-06-29 10:26:46.406250,-37.73,68.83
195662,2018-06-29 10:26:46.437500,-46.96,68.83
195663,2018-06-29 10:26:46.468750,-56.93,68.83
195664,2018-06-29 10:26:46.500000,-59.76,68.83
195665,2018-06-29 10:26:46.531250,-51.41,69.28
195666,2018-06-29 10:26:46.562500,-30.96,69.28
195667,2018-06-29 10:26:46.593750,-0.42,69.28
195668,2018-06-29 10:26:46.625000,33.09,69.28
195669,2018-06-29 10:26:46.656250,56.28,69.28
195670,2018-06-29 10:26:46.687500,55.18,69.28
195671,2018-06-29 10:26:46.718750,25.89,69.28
195672,2018-06-29 10:26:46.750000,-20.5,69.28
195673,2018-06-29 10:26:46.781250,-65.63,69.28
195674,2018-06-29 10:26:46.812500,-97.87,69.28
195675,2018-06-29 10:26:46.843750,-119.11,69.28
195676,2018-06-29 10:26:46.875000,-137.72,69.28
195677,2018-06-29 10:26:46.906250,-158.52,69.28
195678,2018-06-29 10:26:46.937500,-179.92,69.28
195679,2018-06-29 10:26:46.968750,-194.27,69.28
195680,2018-06-29 10:26:47.000000,-188.38,69.28
195681,2018-06-29 10:26:47.031250,-153.0,69.28
195682,2018-06-29 10:26:47.062500,-94.59,69.28
195683,2018-06-29 10:26:47.093750,-27.04,69.28
195684,2018-06-29 10:26:47.125000,45.92,69.28
195685,2018-06-29 10:26:47.156250,128.21,69.28
195686,2018-06-29 10:26:47.187500,218.36,69.28
195687,2018-06-29 10:26:47.218750,306.73,69.28
195688,2018-06-29 10:26:47.250000,380.28,69.28
195689,2018-06-29 10:26:47.281250,425.42,69.28
195690,2018-06-29 10:26:47.312500,432.62,69.28
195691,2018-06-29 10:26:47.343750,403.09,69.28
195692,2018-06-29 10:26:47.375000,349.53,69.28
195693,2018-06-29 10:26:47.406250,285.58,69.28
195694,2018-06-29 10:26:47.437500,212.81,69.28
195695,2018-06-29 10:26:47.468750,124.57,69.28
195696,2018-06-29 10:26:47.500000,20.5,69.28
195697,2018-06-29 10:26:47.531250,-89.72,69.7
195698,2018-06-29 10:26:47.562500,-189.52,69.7
195699,2018-06-29 10:26:47.593750,-260.52,69.7
195700,2018-06-29 10:26:47.625000,-294.98,69.7
195701,2018-06-29 10:26:47.656250,-299.78,69.7
195702,2018-06-29 10:26:47.687500,-280.09,69.7
195703,2018-06-29 10:26:47.718750,-232.96,69.7
195704,2018-06-29 10:26:47.750000,-164.15,69.7
195705,2018-06-29 10:26:47.781250,-92.17,69.7
195706,2018-06-29 10:26:47.812500,-30.05,69.7
195707,2018-06-29 10:26:47.843750,17.98,69.7
195708,2018-06-29 10:26:47.875000,43.79,69.7
195709,2018-06-29 10:26:47.906250,42.88,69.7
195710,2018-06-29 10:26:47.937500,31.15,69.7
195711,2018-06-29 10:26:47.968750,29.62,69.7
195712,2018-06-29 10:26:48.000000,37.28,69.7
195713,2018-06-29 10:26:48.031250,38.61,69.7
195714,2018-06-29 10:26:48.062500,28.55,69.7
195715,2018-06-29 10:26:48.093750,12.85,69.7
195716,2018-06-29 10:26:48.125000,-4.61,69.7
195717,2018-06-29 10:26:48.156250,-22.28,69.7
195718,2018-06-29 10:26:48.187500,-36.7,69.7
195719,2018-06-29 10:26:48.218750,-47.3,69.7
195720,2018-06-29 10:26:48.250000,-61.53,69.7
195721,2018-06-29 10:26:48.281250,-88.68,69.7
195722,2018-06-29 10:26:48.312500,-127.83,69.7
195723,2018-06-29 10:26:48.343750,-162.91,69.7
195724,2018-06-29 10:26:48.375000,-173.65,69.7
195725,2018-06-29 10:26:48.406250,-154.28,69.7
195726,2018-06-29 10:26:48.437500,-116.7,69.7
195727,2018-06-29 10:26:48.468750,-72.64,69.7
195728,2018-06-29 10:26:48.500000,-22.4,69.7
195729,2018-06-29 10:26:48.531250,35.04,70.1
195730,2018-06-29 10:26:48.562500,92.88,70.1
195731,2018-06-29 10:26:48.593750,143.89,70.1
195732,2018-06-29 10:26:48.625000,188.33,70.1
195733,2018-06-29 10:26:48.656250,228.56,70.1
195734,2018-06-29 10:26:48.687500,262.46,70.1
195735,2018-06-29 10:26:48.718750,286.85,70.1
195736,2018-06-29 10:26:48.750000,301.09,70.1
195737,2018-06-29 10:26:48.781250,303.03,70.1
195738,2018-06-29 10:26:48.812500,287.1,70.1
195739,2018-06-29 10:26:48.843750,251.95,70.1
195740,2018-06-29 10:26:48.875000,206.66,70.1
195741,2018-06-29 10:26:48.906250,163.22,70.1
195742,2018-06-29 10:26:48.937500,124.42,70.1
195743,2018-06-29 10:26:48.968750,84.96,70.1
195744,2018-06-29 10:26:49.000000,42.85,70.1
195745,2018-06-29 10:26:49.031250,1.1,70.1
195746,2018-06-29 10:26:49.062500,-38.43,70.1
195747,2018-06-29 10:26:49.093750,-75.55,70.1
195748,2018-06-29 10:26:49.125000,-112.46,70.1
195749,2018-06-29 10:26:49.156250,-155.45,70.1
195750,2018-06-29 10:26:49.187500,-203.84,70.1
195751,2018-06-29 10:26:49.218750,-239.26,70.1
195752,2018-06-29 10:26:49.250000,-243.18,70.1
195753,2018-06-29 10:26:49.281250,-221.38,70.1
195754,2018-06-29 10:26:49.312500,-195.24,70.1
195755,2018-06-29 10:26:49.343750,-175.58,70.1
195756,2018-06-29 10:26:49.375000,-158.38,70.1
195757,2018-06-29 10:26:49.406250,-138.73,70.1
195758,2018-06-29 10:26:49.437500,-117.47,70.1
195759,2018-06-29 10:26:49.468750,-97.36,70.1
195760,2018-06-29 10:26:49.500000,-79.47,70.1
195761,2018-06-29 10:26:49.531250,-61.94,70.53
195762,2018-06-29 10:26:49.562500,-40.53,70.53
195763,2018-06-29 10:26:49.593750,-12.68,70.53
195764,2018-06-29 10:26:49.625000,17.49,70.53
195765,2018-06-29 10:26:49.656250,40.28,70.53
195766,2018-06-29 10:26:49.687500,48.12,70.53
195767,2018-06-29 10:26:49.718750,42.39,70.53
195768,2018-06-29 10:26:49.750000,32.49,70.53
195769,2018-06-29 10:26:49.781250,27.49,70.53
195770,2018-06-29 10:26:49.812500,28.33,70.53
195771,2018-06-29 10:26:49.843750,28.91,70.53
195772,2018-06-29 10:26:49.875000,23.81,70.53
195773,2018-06-29 10:26:49.906250,12.3,70.53
195774,2018-06-29 10:26:49.937500,-4.3,70.53
195775,2018-06-29 10:26:49.968750,-23.35,70.53
195776,2018-06-29 10:26:50.000000,-35.91,70.53
195777,2018-06-29 10:26:50.031250,-28.39,70.53
195778,2018-06-29 10:26:50.062500,3.22,70.53
195779,2018-06-29 10:26:50.093750,46.36,70.53
195780,2018-06-29 10:26:50.125000,84.72,70.53
195781,2018-06-29 10:26:50.156250,111.66,70.53
195782,2018-06-29 10:26:50.187500,126.81,70.53
195783,2018-06-29 10:26:50.218750,128.79,70.53
195784,2018-06-29 10:26:50.250000,117.25,70.53
195785,2018-06-29 10:26:50.281250,96.69,70.53
195786,2018-06-29 10:26:50.312500,74.12,70.53
195787,2018-06-29 10:26:50.343750,54.66,70.53
195788,2018-06-29 10:26:50.375000,40.01,70.53
195789,2018-06-29 10:26:50.406250,29.37,70.53
195790,2018-06-29 10:26:50.437500,20.96,70.53
195791,2018-06-29 10:26:50.468750,12.65,70.53
195792,2018-06-29 10:26:50.500000,1.89,70.53
195793,2018-06-29 10:26:50.531250,-12.51,70.97
195794,2018-06-29 10:26:50.562500,-27.45,70.97
195795,2018-06-29 10:26:50.593750,-37.42,70.97
195796,2018-06-29 10:26:50.625000,-41.09,70.97
195797,2018-06-29 10:26:50.656250,-43.61,70.97
195798,2018-06-29 10:26:50.687500,-50.27,70.97
195799,2018-06-29 10:26:50.718750,-60.31,70.97
195800,2018-06-29 10:26:50.750000,-69.63,70.97
195801,2018-06-29 10:26:50.781250,-77.27,70.97
195802,2018-06-29 10:26:50.812500,-85.77,70.97
195803,2018-06-29 10:26:50.843750,-96.37,70.97
195804,2018-06-29 10:26:50.875000,-104.64,70.97
195805,2018-06-29 10:26:50.906250,-100.54,70.97
195806,2018-06-29 10:26:50.937500,-77.03,70.97
195807,2018-06-29 10:26:50.968750,-39.78,70.97
195808,2018-06-29 10:26:51.000000,-3.0,70.97
195809,2018-06-29 10:26:51.031250,25.33,70.97
195810,2018-06-29 10:26:51.062500,47.64,70.97
195811,2018-06-29 10:26:51.093750,67.58,70.97
195812,2018-06-29 10:26:51.125000,83.99,70.97
195813,2018-06-29 10:26:51.156250,94.08,70.97
195814,2018-06-29 10:26:51.187500,97.89,70.97
195815,2018-06-29 10:26:51.218750,98.46,70.97
195816,2018-06-29 10:26:51.250000,98.86,70.97
195817,2018-06-29 10:26:51.281250,99.92,70.97
195818,2018-06-29 10:26:51.312500,101.18,70.97
195819,2018-06-29 10:26:51.343750,101.3,70.97
195820,2018-06-29 10:26:51.375000,97.15,70.97
195821,2018-06-29 10:26:51.406250,86.01,70.97
195822,2018-06-29 10:26:51.437500,69.59,70.97
195823,2018-06-29 10:26:51.468750,52.05,70.97
195824,2018-06-29 10:26:51.500000,34.34,70.97
195825,2018-06-29 10:26:51.531250,14.87,71.35
195826,2018-06-29 10:26:51.562500,-5.72,71.35
195827,2018-06-29 10:26:51.593750,-24.44,71.35
195828,2018-06-29 10:26:51.625000,-39.4,71.35
195829,2018-06-29 10:26:51.656250,-50.88,71.35
195830,2018-06-29 10:26:51.687500,-60.57,71.35
195831,2018-06-29 10:26:51.718750,-70.7,71.35
195832,2018-06-29 10:26:51.750000,-82.78,71.35
195833,2018-06-29 10:26:51.781250,-96.26,71.35
195834,2018-06-29 10:26:51.812500,-106.15,71.35
195835,2018-06-29 10:26:51.843750,-103.89,71.35
195836,2018-06-29 10:26:51.875000,-86.66,71.35
195837,2018-06-29 10:26:51.906250,-62.87,71.35
195838,2018-06-29 10:26:51.937500,-43.06,71.35
195839,2018-06-29 10:26:51.968750,-30.89,71.35
195840,2018-06-29 10:26:52.000000,-27.08,71.35
195841,2018-06-29 10:26:52.031250,-32.56,71.35
195842,2018-06-29 10:26:52.062500,-43.21,71.35
195843,2018-06-29 10:26:52.093750,-50.65,71.35
195844,2018-06-29 10:26:52.125000,-50.89,71.35
195845,2018-06-29 10:26:52.156250,-45.86,71.35
195846,2018-06-29 10:26:52.187500,-37.21,71.35
195847,2018-06-29 10:26:52.218750,-24.21,71.35
195848,2018-06-29 10:26:52.250000,-8.15,71.35
195849,2018-06-29 10:26:52.281250,5.97,71.35
195850,2018-06-29 10:26:52.312500,14.09,71.35
195851,2018-06-29 10:26:52.343750,16.81,71.35
195852,2018-06-29 10:26:52.375000,16.31,71.35
195853,2018-06-29 10:26:52.406250,12.28,71.35
195854,2018-06-29 10:26:52.437500,3.91,71.35
195855,2018-06-29 10:26:52.468750,-6.89,71.35
195856,2018-06-29 10:26:52.500000,-17.24,71.35
195857,2018-06-29 10:26:52.531250,-26.65,71.83
195858,2018-06-29 10:26:52.562500,-36.77,71.83
195859,2018-06-29 10:26:52.593750,-48.17,71.83
195860,2018-06-29 10:26:52.625000,-56.05,71.83
195861,2018-06-29 10:26:52.656250,-51.42,71.83
195862,2018-06-29 10:26:52.687500,-31.12,71.83
195863,2018-06-29 10:26:52.718750,-3.28,71.83
195864,2018-06-29 10:26:52.750000,20.93,71.83
195865,2018-06-29 10:26:52.781250,37.03,71.83
195866,2018-06-29 10:26:52.812500,45.92,71.83
195867,2018-06-29 10:26:52.843750,48.78,71.83
195868,2018-06-29 10:26:52.875000,47.72,71.83
195869,2018-06-29 10:26:52.906250,46.79,71.83
195870,2018-06-29 10:26:52.937500,48.65,71.83
195871,2018-06-29 10:26:52.968750,52.18,71.83
195872,2018-06-29 10:26:53.000000,55.16,71.83
195873,2018-06-29 10:26:53.031250,56.6,71.83
195874,2018-06-29 10:26:53.062500,54.47,71.83
195875,2018-06-29 10:26:53.093750,45.43,71.83
195876,2018-06-29 10:26:53.125000,30.06,71.83
195877,2018-06-29 10:26:53.156250,13.37,71.83
195878,2018-06-29 10:26:53.187500,-1.36,71.83
195879,2018-06-29 10:26:53.218750,-15.96,71.83
195880,2018-06-29 10:26:53.250000,-33.49,71.83
195881,2018-06-29 10:26:53.281250,-54.56,71.83
195882,2018-06-29 10:26:53.312500,-77.15,71.83
195883,2018-06-29 10:26:53.343750,-98.21,71.83
195884,2018-06-29 10:26:53.375000,-116.44,71.83
195885,2018-06-29 10:26:53.406250,-132.62,71.83
195886,2018-06-29 10:26:53.437500,-144.21,71.83
195887,2018-06-29 10:26:53.468750,-142.64,71.83
195888,2018-06-29 10:26:53.500000,-122.72,71.83
195889,2018-06-29 10:26:53.531250,-92.05,72.28
195890,2018-06-29 10:26:53.562500,-63.34,72.28
195891,2018-06-29 10:26:53.593750,-40.42,72.28
195892,2018-06-29 10:26:53.625000,-19.06,72.28
195893,2018-06-29 10:26:53.656250,3.54,72.28
195894,2018-06-29 10:26:53.687500,27.03,72.28
195895,2018-06-29 10:26:53.718750,52.23,72.28
195896,2018-06-29 10:26:53.750000,80.55,72.28
195897,2018-06-29 10:26:53.781250,109.92,72.28
195898,2018-06-29 10:26:53.812500,134.67,72.28
195899,2018-06-29 10:26:53.843750,150.3,72.28
195900,2018-06-29 10:26:53.875000,155.8,72.28
195901,2018-06-29 10:26:53.906250,150.3,72.28
195902,2018-06-29 10:26:53.937500,131.75,72.28
195903,2018-06-29 10:26:53.968750,102.6,72.28
195904,2018-06-29 10:26:54.000000,71.95,72.28
195905,2018-06-29 10:26:54.031250,46.76,72.28
195906,2018-06-29 10:26:54.062500,25.56,72.28
195907,2018-06-29 10:26:54.093750,4.97,72.28
195908,2018-06-29 10:26:54.125000,-13.65,72.28
195909,2018-06-29 10:26:54.156250,-28.45,72.28
195910,2018-06-29 10:26:54.187500,-41.55,72.28
195911,2018-06-29 10:26:54.218750,-56.03,72.28
195912,2018-06-29 10:26:54.250000,-72.71,72.28
195913,2018-06-29 10:26:54.281250,-88.31,72.28
195914,2018-06-29 10:26:54.312500,-94.27,72.28
195915,2018-06-29 10:26:54.343750,-82.68,72.28
195916,2018-06-29 10:26:54.375000,-56.75,72.28
195917,2018-06-29 10:26:54.406250,-29.57,72.28
195918,2018-06-29 10:26:54.437500,-10.91,72.28
195919,2018-06-29 10:26:54.468750,-1.2,72.28
195920,2018-06-29 10:26:54.500000,2.08,72.28
195921,2018-06-29 10:26:54.531250,-0.27,72.73
195922,2018-06-29 10:26:54.562500,-6.58,72.73
195923,2018-06-29 10:26:54.593750,-12.59,72.73
195924,2018-06-29 10:26:54.625000,-15.44,72.73
195925,2018-06-29 10:26:54.656250,-16.4,72.73
195926,2018-06-29 10:26:54.687500,-18.21,72.73
195927,2018-06-29 10:26:54.718750,-21.8,72.73
195928,2018-06-29 10:26:54.750000,-26.1,72.73
195929,2018-06-29 10:26:54.781250,-29.1,72.73
195930,2018-06-29 10:26:54.812500,-27.99,72.73
195931,2018-06-29 10:26:54.843750,-19.97,72.73
195932,2018-06-29 10:26:54.875000,-4.5,72.73
195933,2018-06-29 10:26:54.906250,15.38,72.73
195934,2018-06-29 10:26:54.937500,35.25,72.73
195935,2018-06-29 10:26:54.968750,53.85,72.73
195936,2018-06-29 10:26:55.000000,72.51,72.73
195937,2018-06-29 10:26:55.031250,88.01,72.73
195938,2018-06-29 10:26:55.062500,91.63,72.73
195939,2018-06-29 10:26:55.093750,79.53,72.73
195940,2018-06-29 10:26:55.125000,57.35,72.73
195941,2018-06-29 10:26:55.156250,31.48,72.73
195942,2018-06-29 10:26:55.187500,2.78,72.73
195943,2018-06-29 10:26:55.218750,-28.36,72.73
195944,2018-06-29 10:26:55.250000,-55.47,72.73
195945,2018-06-29 10:26:55.281250,-66.18,72.73
195946,2018-06-29 10:26:55.312500,-51.04,72.73
195947,2018-06-29 10:26:55.343750,-14.79,72.73
195948,2018-06-29 10:26:55.375000,24.63,72.73
195949,2018-06-29 10:26:55.406250,50.98,72.73
195950,2018-06-29 10:26:55.437500,60.15,72.73
195951,2018-06-29 10:26:55.468750,56.43,72.73
195952,2018-06-29 10:26:55.500000,45.93,72.73
195953,2018-06-29 10:26:55.531250,34.54,73.25
195954,2018-06-29 10:26:55.562500,26.16,73.25
195955,2018-06-29 10:26:55.593750,21.2,73.25
195956,2018-06-29 10:26:55.625000,19.01,73.25
195957,2018-06-29 10:26:55.656250,20.42,73.25
195958,2018-06-29 10:26:55.687500,24.55,73.25
195959,2018-06-29 10:26:55.718750,26.59,73.25
195960,2018-06-29 10:26:55.750000,22.74,73.25
195961,2018-06-29 10:26:55.781250,14.67,73.25
195962,2018-06-29 10:26:55.812500,6.61,73.25
195963,2018-06-29 10:26:55.843750,1.47,73.25
195964,2018-06-29 10:26:55.875000,0.67,73.25
195965,2018-06-29 10:26:55.906250,4.9,73.25
195966,2018-06-29 10:26:55.937500,13.29,73.25
195967,2018-06-29 10:26:55.968750,23.46,73.25
195968,2018-06-29 10:26:56.000000,32.12,73.25
195969,2018-06-29 10:26:56.031250,35.86,73.25
195970,2018-06-29 10:26:56.062500,32.54,73.25
195971,2018-06-29 10:26:56.093750,22.94,73.25
195972,2018-06-29 10:26:56.125000,8.79,73.25
195973,2018-06-29 10:26:56.156250,-11.44,73.25
195974,2018-06-29 10:26:56.187500,-41.61,73.25
195975,2018-06-29 10:26:56.218750,-80.31,73.25
195976,2018-06-29 10:26:56.250000,-115.72,73.25
195977,2018-06-29 10:26:56.281250,-132.66,73.25
195978,2018-06-29 10:26:56.312500,-126.12,73.25
195979,2018-06-29 10:26:56.343750,-104.95,73.25
195980,2018-06-29 10:26:56.375000,-82.09,73.25
195981,2018-06-29 10:26:56.406250,-64.56,73.25
195982,2018-06-29 10:26:56.437500,-51.58,73.25
195983,2018-06-29 10:26:56.468750,-38.15,73.25
195984,2018-06-29 10:26:56.500000,-19.84,73.25
195985,2018-06-29 10:26:56.531250,4.0,73.77
195986,2018-06-29 10:26:56.562500,30.48,73.77
195987,2018-06-29 10:26:56.593750,54.95,73.77
195988,2018-06-29 10:26:56.625000,72.85,73.77
195989,2018-06-29 10:26:56.656250,82.15,73.77
195990,2018-06-29 10:26:56.687500,83.86,73.77
195991,2018-06-29 10:26:56.718750,79.58,73.77
195992,2018-06-29 10:26:56.750000,70.61,73.77
195993,2018-06-29 10:26:56.781250,59.32,73.77
195994,2018-06-29 10:26:56.812500,48.69,73.77
195995,2018-06-29 10:26:56.843750,39.55,73.77
195996,2018-06-29 10:26:56.875000,30.65,73.77
195997,2018-06-29 10:26:56.906250,21.27,73.77
195998,2018-06-29 10:26:56.937500,11.78,73.77
195999,2018-06-29 10:26:56.968750,2.02,73.77
196000,2018-06-29 10:26:57.000000,-8.69,73.77
196001,2018-06-29 10:26:57.031250,-19.7,73.77
196002,2018-06-29 10:26:57.062500,-29.67,73.77
196003,2018-06-29 10:26:57.093750,-39.06,73.77
196004,2018-06-29 10:26:57.125000,-49.98,73.77
196005,2018-06-29 10:26:57.156250,-63.75,73.77
196006,2018-06-29 10:26:57.187500,-79.13,73.77
196007,2018-06-29 10:26:57.218750,-89.69,73.77
196008,2018-06-29 10:26:57.250000,-84.99,73.77
196009,2018-06-29 10:26:57.281250,-60.49,73.77
196010,2018-06-29 10:26:57.312500,-25.33,73.77
196011,2018-06-29 10:26:57.343750,6.2,73.77
196012,2018-06-29 10:26:57.375000,27.66,73.77
196013,2018-06-29 10:26:57.406250,40.17,73.77
196014,2018-06-29 10:26:57.437500,44.88,73.77
196015,2018-06-29 10:26:57.468750,42.61,73.77
196016,2018-06-29 10:26:57.500000,37.43,73.77
196017,2018-06-29 10:26:57.531250,35.02,74.43
196018,2018-06-29 10:26:57.562500,37.47,74.43
196019,2018-06-29 10:26:57.593750,42.23,74.43
196020,2018-06-29 10:26:57.625000,45.84,74.43
196021,2018-06-29 10:26:57.656250,47.04,74.43
196022,2018-06-29 10:26:57.687500,46.02,74.43
196023,2018-06-29 10:26:57.718750,42.67,74.43
196024,2018-06-29 10:26:57.750000,36.62,74.43
196025,2018-06-29 10:26:57.781250,28.14,74.43
196026,2018-06-29 10:26:57.812500,18.67,74.43
196027,2018-06-29 10:26:57.843750,9.68,74.43
196028,2018-06-29 10:26:57.875000,1.24,74.43
196029,2018-06-29 10:26:57.906250,-7.92,74.43
196030,2018-06-29 10:26:57.937500,-18.15,74.43
196031,2018-06-29 10:26:57.968750,-27.72,74.43
196032,2018-06-29 10:26:58.000000,-34.83,74.43
196033,2018-06-29 10:26:58.031250,-40.83,74.43
196034,2018-06-29 10:26:58.062500,-49.46,74.43
196035,2018-06-29 10:26:58.093750,-61.17,74.43
196036,2018-06-29 10:26:58.125000,-67.78,74.43
196037,2018-06-29 10:26:58.156250,-57.46,74.43
196038,2018-06-29 10:26:58.187500,-27.81,74.43
196039,2018-06-29 10:26:58.218750,9.62,74.43
196040,2018-06-29 10:26:58.250000,40.98,74.43
196041,2018-06-29 10:26:58.281250,61.2,74.43
196042,2018-06-29 10:26:58.312500,71.13,74.43
196043,2018-06-29 10:26:58.343750,71.09,74.43
196044,2018-06-29 10:26:58.375000,62.25,74.43
196045,2018-06-29 10:26:58.406250,49.21,74.43
196046,2018-06-29 10:26:58.437500,36.67,74.43
196047,2018-06-29 10:26:58.468750,26.3,74.43
196048,2018-06-29 10:26:58.500000,18.28,74.43
196049,2018-06-29 10:26:58.531250,12.63,75.07
196050,2018-06-29 10:26:58.562500,7.47,75.07
196051,2018-06-29 10:26:58.593750,-0.83,75.07
196052,2018-06-29 10:26:58.625000,-12.89,75.07
196053,2018-06-29 10:26:58.656250,-23.85,75.07
196054,2018-06-29 10:26:58.687500,-28.58,75.07
196055,2018-06-29 10:26:58.718750,-27.94,75.07
196056,2018-06-29 10:26:58.750000,-26.74,75.07
196057,2018-06-29 10:26:58.781250,-27.26,75.07
196058,2018-06-29 10:26:58.812500,-28.85,75.07
196059,2018-06-29 10:26:58.843750,-32.16,75.07
196060,2018-06-29 10:26:58.875000,-39.59,75.07
196061,2018-06-29 10:26:58.906250,-52.33,75.07
196062,2018-06-29 10:26:58.937500,-66.71,75.07
196063,2018-06-29 10:26:58.968750,-72.44,75.07
196064,2018-06-29 10:26:59.000000,-59.39,75.07
196065,2018-06-29 10:26:59.031250,-29.04,75.07
196066,2018-06-29 10:26:59.062500,5.42,75.07
196067,2018-06-29 10:26:59.093750,32.2,75.07
196068,2018-06-29 10:26:59.125000,48.97,75.07
196069,2018-06-29 10:26:59.156250,58.62,75.07
196070,2018-06-29 10:26:59.187500,62.97,75.07
196071,2018-06-29 10:26:59.218750,62.16,75.07
196072,2018-06-29 10:26:59.250000,57.3,75.07
196073,2018-06-29 10:26:59.281250,50.58,75.07
196074,2018-06-29 10:26:59.312500,42.8,75.07
196075,2018-06-29 10:26:59.343750,33.74,75.07
196076,2018-06-29 10:26:59.375000,23.96,75.07
196077,2018-06-29 10:26:59.406250,13.27,75.07
196078,2018-06-29 10:26:59.437500,-0.18,75.07
196079,2018-06-29 10:26:59.468750,-15.4,75.07
196080,2018-06-29 10:26:59.500000,-27.14,75.07
196081,2018-06-29 10:26:59.531250,-32.66,75.68
196082,2018-06-29 10:26:59.562500,-35.58,75.68
196083,2018-06-29 10:26:59.593750,-40.24,75.68
196084,2018-06-29 10:26:59.625000,-46.63,75.68
196085,2018-06-29 10:26:59.656250,-53.09,75.68
196086,2018-06-29 10:26:59.687500,-60.28,75.68
196087,2018-06-29 10:26:59.718750,-71.39,75.68
196088,2018-06-29 10:26:59.750000,-89.04,75.68
196089,2018-06-29 10:26:59.781250,-108.12,75.68
196090,2018-06-29 10:26:59.812500,-113.85,75.68
196091,2018-06-29 10:26:59.843750,-95.28,75.68
196092,2018-06-29 10:26:59.875000,-58.6,75.68
196093,2018-06-29 10:26:59.906250,-19.47,75.68
196094,2018-06-29 10:26:59.937500,12.76,75.68
196095,2018-06-29 10:26:59.968750,36.56,75.68
196096,2018-06-29 10:27:00.000000,51.5,75.68
196097,2018-06-29 10:27:00.031250,57.37,75.68
196098,2018-06-29 10:27:00.062500,56.45,75.68
196099,2018-06-29 10:27:00.093750,52.62,75.68
196100,2018-06-29 10:27:00.125000,48.51,75.68
196101,2018-06-29 10:27:00.156250,44.81,75.68
196102,2018-06-29 10:27:00.187500,42.55,75.68
196103,2018-06-29 10:27:00.218750,42.97,75.68
196104,2018-06-29 10:27:00.250000,44.53,75.68
196105,2018-06-29 10:27:00.281250,44.36,75.68
196106,2018-06-29 10:27:00.312500,42.62,75.68
196107,2018-06-29 10:27:00.343750,40.97,75.68
196108,2018-06-29 10:27:00.375000,37.88,75.68
196109,2018-06-29 10:27:00.406250,29.46,75.68
196110,2018-06-29 10:27:00.437500,15.12,75.68
196111,2018-06-29 10:27:00.468750,-0.29,75.68
196112,2018-06-29 10:27:00.500000,-12.34,75.68
196113,2018-06-29 10:27:00.531250,-23.64,76.37
196114,2018-06-29 10:27:00.562500,-39.92,76.37
196115,2018-06-29 10:27:00.593750,-58.43,76.37
196116,2018-06-29 10:27:00.625000,-66.19,76.37
196117,2018-06-29 10:27:00.656250,-54.03,76.37
196118,2018-06-29 10:27:00.687500,-28.22,76.37
196119,2018-06-29 10:27:00.718750,-3.72,76.37
196120,2018-06-29 10:27:00.750000,11.05,76.37
196121,2018-06-29 10:27:00.781250,18.06,76.37
196122,2018-06-29 10:27:00.812500,21.73,76.37
196123,2018-06-29 10:27:00.843750,23.73,76.37
196124,2018-06-29 10:27:00.875000,24.84,76.37
196125,2018-06-29 10:27:00.906250,26.72,76.37
196126,2018-06-29 10:27:00.937500,30.09,76.37
196127,2018-06-29 10:27:00.968750,33.88,76.37
196128,2018-06-29 10:27:01.000000,36.93,76.37
196129,2018-06-29 10:27:01.031250,37.74,76.37
196130,2018-06-29 10:27:01.062500,33.45,76.37
196131,2018-06-29 10:27:01.093750,22.54,76.37
196132,2018-06-29 10:27:01.125000,7.41,76.37
196133,2018-06-29 10:27:01.156250,-8.61,76.37
196134,2018-06-29 10:27:01.187500,-24.11,76.37
196135,2018-06-29 10:27:01.218750,-37.84,76.37
196136,2018-06-29 10:27:01.250000,-48.67,76.37
196137,2018-06-29 10:27:01.281250,-57.83,76.37
196138,2018-06-29 10:27:01.312500,-68.21,76.37
196139,2018-06-29 10:27:01.343750,-81.3,76.37
196140,2018-06-29 10:27:01.375000,-93.1,76.37
196141,2018-06-29 10:27:01.406250,-92.78,76.37
196142,2018-06-29 10:27:01.437500,-71.83,76.37
196143,2018-06-29 10:27:01.468750,-36.02,76.37
196144,2018-06-29 10:27:01.500000,-0.59,76.37
196145,2018-06-29 10:27:01.531250,26.04,77.0
196146,2018-06-29 10:27:01.562500,45.9,77.0
196147,2018-06-29 10:27:01.593750,61.1,77.0
196148,2018-06-29 10:27:01.625000,69.57,77.0
196149,2018-06-29 10:27:01.656250,70.75,77.0
196150,2018-06-29 10:27:01.687500,68.06,77.0
196151,2018-06-29 10:27:01.718750,65.16,77.0
196152,2018-06-29 10:27:01.750000,63.24,77.0
196153,2018-06-29 10:27:01.781250,61.74,77.0
196154,2018-06-29 10:27:01.812500,59.79,77.0
196155,2018-06-29 10:27:01.843750,56.83,77.0
196156,2018-06-29 10:27:01.875000,52.12,77.0
196157,2018-06-29 10:27:01.906250,43.87,77.0
196158,2018-06-29 10:27:01.937500,30.47,77.0
196159,2018-06-29 10:27:01.968750,12.7,77.0
196160,2018-06-29 10:27:02.000000,-5.89,77.0
196161,2018-06-29 10:27:02.031250,-21.34,77.0
196162,2018-06-29 10:27:02.062500,-32.7,77.0
196163,2018-06-29 10:27:02.093750,-42.15,77.0
196164,2018-06-29 10:27:02.125000,-50.59,77.0
196165,2018-06-29 10:27:02.156250,-56.09,77.0
196166,2018-06-29 10:27:02.187500,-58.12,77.0
196167,2018-06-29 10:27:02.218750,-59.34,77.0
196168,2018-06-29 10:27:02.250000,-62.02,77.0
196169,2018-06-29 10:27:02.281250,-64.38,77.0
196170,2018-06-29 10:27:02.312500,-59.05,77.0
196171,2018-06-29 10:27:02.343750,-37.84,77.0
196172,2018-06-29 10:27:02.375000,-2.36,77.0
196173,2018-06-29 10:27:02.406250,36.05,77.0
196174,2018-06-29 10:27:02.437500,69.8,77.0
196175,2018-06-29 10:27:02.468750,99.63,77.0
196176,2018-06-29 10:27:02.500000,123.99,77.0
196177,2018-06-29 10:27:02.531250,135.07,77.6
196178,2018-06-29 10:27:02.562500,128.51,77.6
196179,2018-06-29 10:27:02.593750,109.8,77.6
196180,2018-06-29 10:27:02.625000,88.02,77.6
196181,2018-06-29 10:27:02.656250,66.5,77.6
196182,2018-06-29 10:27:02.687500,43.27,77.6
196183,2018-06-29 10:27:02.718750,18.51,77.6
196184,2018-06-29 10:27:02.750000,-2.97,77.6
196185,2018-06-29 10:27:02.781250,-15.86,77.6
196186,2018-06-29 10:27:02.812500,-18.49,77.6
196187,2018-06-29 10:27:02.843750,-13.19,77.6
196188,2018-06-29 10:27:02.875000,-4.8,77.6
196189,2018-06-29 10:27:02.906250,1.96,77.6
196190,2018-06-29 10:27:02.937500,5.08,77.6
196191,2018-06-29 10:27:02.968750,5.02,77.6
196192,2018-06-29 10:27:03.000000,2.63,77.6
196193,2018-06-29 10:27:03.031250,-2.24,77.6
196194,2018-06-29 10:27:03.062500,-9.92,77.6
196195,2018-06-29 10:27:03.093750,-19.42,77.6
196196,2018-06-29 10:27:03.125000,-29.14,77.6
196197,2018-06-29 10:27:03.156250,-39.1,77.6
196198,2018-06-29 10:27:03.187500,-51.42,77.6
196199,2018-06-29 10:27:03.218750,-67.08,77.6
196200,2018-06-29 10:27:03.250000,-83.53,77.6
196201,2018-06-29 10:27:03.281250,-96.91,77.6
196202,2018-06-29 10:27:03.312500,-106.91,77.6
196203,2018-06-29 10:27:03.343750,-117.98,77.6
196204,2018-06-29 10:27:03.375000,-133.89,77.6
196205,2018-06-29 10:27:03.406250,-149.74,77.6
196206,2018-06-29 10:27:03.437500,-151.35,77.6
196207,2018-06-29 10:27:03.468750,-128.34,77.6
196208,2018-06-29 10:27:03.500000,-86.94,77.6
196209,2018-06-29 10:27:03.531250,-43.74,78.07
196210,2018-06-29 10:27:03.562500,-9.16,78.07
196211,2018-06-29 10:27:03.593750,16.28,78.07
196212,2018-06-29 10:27:03.625000,33.3,78.07
196213,2018-06-29 10:27:03.656250,40.79,78.07
196214,2018-06-29 10:27:03.687500,40.82,78.07
196215,2018-06-29 10:27:03.718750,39.88,78.07
196216,2018-06-29 10:27:03.750000,43.25,78.07
196217,2018-06-29 10:27:03.781250,50.82,78.07
196218,2018-06-29 10:27:03.812500,59.03,78.07
196219,2018-06-29 10:27:03.843750,65.78,78.07
196220,2018-06-29 10:27:03.875000,71.06,78.07
196221,2018-06-29 10:27:03.906250,73.48,78.07
196222,2018-06-29 10:27:03.937500,70.2,78.07
196223,2018-06-29 10:27:03.968750,61.73,78.07
196224,2018-06-29 10:27:04.000000,52.71,78.07
196225,2018-06-29 10:27:04.031250,46.0,78.07
196226,2018-06-29 10:27:04.062500,39.89,78.07
196227,2018-06-29 10:27:04.093750,31.69,78.07
196228,2018-06-29 10:27:04.125000,19.91,78.07
196229,2018-06-29 10:27:04.156250,3.14,78.07
196230,2018-06-29 10:27:04.187500,-19.65,78.07
196231,2018-06-29 10:27:04.218750,-47.21,78.07
196232,2018-06-29 10:27:04.250000,-75.92,78.07
196233,2018-06-29 10:27:04.281250,-100.39,78.07
196234,2018-06-29 10:27:04.312500,-115.43,78.07
196235,2018-06-29 10:27:04.343750,-120.47,78.07
196236,2018-06-29 10:27:04.375000,-121.37,78.07
196237,2018-06-29 10:27:04.406250,-125.09,78.07
196238,2018-06-29 10:27:04.437500,-131.53,78.07
196239,2018-06-29 10:27:04.468750,-130.65,78.07
196240,2018-06-29 10:27:04.500000,-110.75,78.07
196241,2018-06-29 10:27:04.531250,-72.15,78.38
196242,2018-06-29 10:27:04.562500,-28.72,78.38
196243,2018-06-29 10:27:04.593750,6.34,78.38
196244,2018-06-29 10:27:04.625000,30.6,78.38
196245,2018-06-29 10:27:04.656250,46.37,78.38
196246,2018-06-29 10:27:04.687500,53.9,78.38
196247,2018-06-29 10:27:04.718750,54.19,78.38
196248,2018-06-29 10:27:04.750000,52.06,78.38
196249,2018-06-29 10:27:04.781250,51.94,78.38
196250,2018-06-29 10:27:04.812500,53.8,78.38
196251,2018-06-29 10:27:04.843750,55.66,78.38
196252,2018-06-29 10:27:04.875000,56.91,78.38
196253,2018-06-29 10:27:04.906250,57.17,78.38
196254,2018-06-29 10:27:04.937500,54.96,78.38
196255,2018-06-29 10:27:04.968750,49.12,78.38
196256,2018-06-29 10:27:05.000000,40.41,78.38
196257,2018-06-29 10:27:05.031250,30.83,78.38
196258,2018-06-29 10:27:05.062500,22.14,78.38
196259,2018-06-29 10:27:05.093750,14.52,78.38
196260,2018-06-29 10:27:05.125000,6.67,78.38
196261,2018-06-29 10:27:05.156250,-2.28,78.38
196262,2018-06-29 10:27:05.187500,-11.08,78.38
196263,2018-06-29 10:27:05.218750,-17.84,78.38
196264,2018-06-29 10:27:05.250000,-24.15,78.38
196265,2018-06-29 10:27:05.281250,-35.52,78.38
196266,2018-06-29 10:27:05.312500,-56.27,78.38
196267,2018-06-29 10:27:05.343750,-83.95,78.38
196268,2018-06-29 10:27:05.375000,-106.72,78.38
196269,2018-06-29 10:27:05.406250,-108.84,78.38
196270,2018-06-29 10:27:05.437500,-84.92,78.38
196271,2018-06-29 10:27:05.468750,-47.1,78.38
196272,2018-06-29 10:27:05.500000,-12.29,78.38
196273,2018-06-29 10:27:05.531250,12.48,78.7
196274,2018-06-29 10:27:05.562500,28.88,78.7
196275,2018-06-29 10:27:05.593750,39.25,78.7
196276,2018-06-29 10:27:05.625000,44.47,78.7
196277,2018-06-29 10:27:05.656250,45.55,78.7
196278,2018-06-29 10:27:05.687500,44.4,78.7
196279,2018-06-29 10:27:05.718750,43.06,78.7
196280,2018-06-29 10:27:05.750000,42.69,78.7
196281,2018-06-29 10:27:05.781250,43.57,78.7
196282,2018-06-29 10:27:05.812500,45.1,78.7
196283,2018-06-29 10:27:05.843750,45.54,78.7
196284,2018-06-29 10:27:05.875000,43.68,78.7
196285,2018-06-29 10:27:05.906250,40.12,78.7
196286,2018-06-29 10:27:05.937500,35.66,78.7
196287,2018-06-29 10:27:05.968750,29.86,78.7
196288,2018-06-29 10:27:06.000000,22.45,78.7
196289,2018-06-29 10:27:06.031250,13.72,78.7
196290,2018-06-29 10:27:06.062500,3.33,78.7
196291,2018-06-29 10:27:06.093750,-9.09,78.7
196292,2018-06-29 10:27:06.125000,-22.1,78.7
196293,2018-06-29 10:27:06.156250,-33.79,78.7
196294,2018-06-29 10:27:06.187500,-44.88,78.7
196295,2018-06-29 10:27:06.218750,-58.29,78.7
196296,2018-06-29 10:27:06.250000,-76.16,78.7
196297,2018-06-29 10:27:06.281250,-95.88,78.7
196298,2018-06-29 10:27:06.312500,-106.78,78.7
196299,2018-06-29 10:27:06.343750,-96.06,78.7
196300,2018-06-29 10:27:06.375000,-63.09,78.7
196301,2018-06-29 10:27:06.406250,-22.28,78.7
196302,2018-06-29 10:27:06.437500,12.22,78.7
196303,2018-06-29 10:27:06.468750,37.42,78.7
196304,2018-06-29 10:27:06.500000,55.95,78.7
196305,2018-06-29 10:27:06.531250,68.47,79.13
196306,2018-06-29 10:27:06.562500,74.76,79.13
196307,2018-06-29 10:27:06.593750,76.47,79.13
196308,2018-06-29 10:27:06.625000,76.62,79.13
196309,2018-06-29 10:27:06.656250,77.31,79.13
196310,2018-06-29 10:27:06.687500,79.04,79.13
196311,2018-06-29 10:27:06.718750,81.37,79.13
196312,2018-06-29 10:27:06.750000,82.17,79.13
196313,2018-06-29 10:27:06.781250,77.77,79.13
196314,2018-06-29 10:27:06.812500,67.08,79.13
196315,2018-06-29 10:27:06.843750,54.28,79.13
196316,2018-06-29 10:27:06.875000,43.86,79.13
196317,2018-06-29 10:27:06.906250,34.72,79.13
196318,2018-06-29 10:27:06.937500,23.0,79.13
196319,2018-06-29 10:27:06.968750,8.68,79.13
196320,2018-06-29 10:27:07.000000,-5.0,79.13
196321,2018-06-29 10:27:07.031250,-17.5,79.13
196322,2018-06-29 10:27:07.062500,-31.59,79.13
196323,2018-06-29 10:27:07.093750,-48.85,79.13
196324,2018-06-29 10:27:07.125000,-68.08,79.13
196325,2018-06-29 10:27:07.156250,-88.01,79.13
196326,2018-06-29 10:27:07.187500,-108.97,79.13
196327,2018-06-29 10:27:07.218750,-131.61,79.13
196328,2018-06-29 10:27:07.250000,-153.84,79.13
196329,2018-06-29 10:27:07.281250,-166.66,79.13
196330,2018-06-29 10:27:07.312500,-155.04,79.13
196331,2018-06-29 10:27:07.343750,-110.1,79.13
196332,2018-06-29 10:27:07.375000,-41.88,79.13
196333,2018-06-29 10:27:07.406250,26.11,79.13
196334,2018-06-29 10:27:07.437500,76.44,79.13
196335,2018-06-29 10:27:07.468750,107.12,79.13
196336,2018-06-29 10:27:07.500000,123.28,79.13
196337,2018-06-29 10:27:07.531250,128.34,79.62
196338,2018-06-29 10:27:07.562500,124.48,79.62
196339,2018-06-29 10:27:07.593750,114.85,79.62
196340,2018-06-29 10:27:07.625000,103.24,79.62
196341,2018-06-29 10:27:07.656250,93.43,79.62
196342,2018-06-29 10:27:07.687500,87.84,79.62
196343,2018-06-29 10:27:07.718750,85.17,79.62
196344,2018-06-29 10:27:07.750000,81.31,79.62
196345,2018-06-29 10:27:07.781250,73.35,79.62
196346,2018-06-29 10:27:07.812500,61.01,79.62
196347,2018-06-29 10:27:07.843750,45.39,79.62
196348,2018-06-29 10:27:07.875000,28.56,79.62
196349,2018-06-29 10:27:07.906250,13.14,79.62
196350,2018-06-29 10:27:07.937500,1.34,79.62
196351,2018-06-29 10:27:07.968750,-5.14,79.62
196352,2018-06-29 10:27:08.000000,-5.61,79.62
196353,2018-06-29 10:27:08.031250,-1.98,79.62
196354,2018-06-29 10:27:08.062500,1.5,79.62
196355,2018-06-29 10:27:08.093750,0.98,79.62
196356,2018-06-29 10:27:08.125000,-5.91,79.62
196357,2018-06-29 10:27:08.156250,-21.32,79.62
196358,2018-06-29 10:27:08.187500,-46.58,79.62
196359,2018-06-29 10:27:08.218750,-76.93,79.62
196360,2018-06-29 10:27:08.250000,-97.96,79.62
196361,2018-06-29 10:27:08.281250,-95.12,79.62
196362,2018-06-29 10:27:08.312500,-69.11,79.62
196363,2018-06-29 10:27:08.343750,-35.21,79.62
196364,2018-06-29 10:27:08.375000,-6.85,79.62
196365,2018-06-29 10:27:08.406250,13.0,79.62
196366,2018-06-29 10:27:08.437500,26.7,79.62
196367,2018-06-29 10:27:08.468750,37.91,79.62
196368,2018-06-29 10:27:08.500000,51.89,79.62
196369,2018-06-29 10:27:08.531250,73.18,80.18
196370,2018-06-29 10:27:08.562500,101.17,80.18
196371,2018-06-29 10:27:08.593750,129.73,80.18
196372,2018-06-29 10:27:08.625000,151.27,80.18
196373,2018-06-29 10:27:08.656250,160.02,80.18
196374,2018-06-29 10:27:08.687500,152.69,80.18
196375,2018-06-29 10:27:08.718750,128.94,80.18
196376,2018-06-29 10:27:08.750000,92.45,80.18
196377,2018-06-29 10:27:08.781250,49.74,80.18
196378,2018-06-29 10:27:08.812500,6.91,80.18
196379,2018-06-29 10:27:08.843750,-31.1,80.18
196380,2018-06-29 10:27:08.875000,-59.1,80.18
196381,2018-06-29 10:27:08.906250,-73.16,80.18
196382,2018-06-29 10:27:08.937500,-74.3,80.18
196383,2018-06-29 10:27:08.968750,-67.51,80.18
196384,2018-06-29 10:27:09.000000,-57.94,80.18
196385,2018-06-29 10:27:09.031250,-50.33,80.18
196386,2018-06-29 10:27:09.062500,-47.56,80.18
196387,2018-06-29 10:27:09.093750,-44.15,80.18
196388,2018-06-29 10:27:09.125000,-28.85,80.18
196389,2018-06-29 10:27:09.156250,0.02,80.18
196390,2018-06-29 10:27:09.187500,28.97,80.18
196391,2018-06-29 10:27:09.218750,43.9,80.18
196392,2018-06-29 10:27:09.250000,43.18,80.18
196393,2018-06-29 10:27:09.281250,34.62,80.18
196394,2018-06-29 10:27:09.312500,27.17,80.18
196395,2018-06-29 10:27:09.343750,25.9,80.18
196396,2018-06-29 10:27:09.375000,29.61,80.18
196397,2018-06-29 10:27:09.406250,32.97,80.18
196398,2018-06-29 10:27:09.437500,32.63,80.18
196399,2018-06-29 10:27:09.468750,30.62,80.18
196400,2018-06-29 10:27:09.500000,29.81,80.18
196401,2018-06-29 10:27:09.531250,27.13,80.7
196402,2018-06-29 10:27:09.562500,14.74,80.7
196403,2018-06-29 10:27:09.593750,-11.51,80.7
196404,2018-06-29 10:27:09.625000,-47.12,80.7
196405,2018-06-29 10:27:09.656250,-82.26,80.7
196406,2018-06-29 10:27:09.687500,-107.81,80.7
196407,2018-06-29 10:27:09.718750,-119.77,80.7
196408,2018-06-29 10:27:09.750000,-119.58,80.7
196409,2018-06-29 10:27:09.781250,-110.81,80.7
196410,2018-06-29 10:27:09.812500,-97.45,80.7
196411,2018-06-29 10:27:09.843750,-84.62,80.7
196412,2018-06-29 10:27:09.875000,-77.38,80.7
196413,2018-06-29 10:27:09.906250,-77.46,80.7
196414,2018-06-29 10:27:09.937500,-79.89,80.7
196415,2018-06-29 10:27:09.968750,-73.79,80.7
196416,2018-06-29 10:27:10.000000,-51.78,80.7
196417,2018-06-29 10:27:10.031250,-19.79,80.7
196418,2018-06-29 10:27:10.062500,8.67,80.7
196419,2018-06-29 10:27:10.093750,26.66,80.7
196420,2018-06-29 10:27:10.125000,36.47,80.7
196421,2018-06-29 10:27:10.156250,41.07,80.7
196422,2018-06-29 10:27:10.187500,41.24,80.7
196423,2018-06-29 10:27:10.218750,38.91,80.7
196424,2018-06-29 10:27:10.250000,36.8,80.7
196425,2018-06-29 10:27:10.281250,35.43,80.7
196426,2018-06-29 10:27:10.312500,33.64,80.7
196427,2018-06-29 10:27:10.343750,30.7,80.7
196428,2018-06-29 10:27:10.375000,25.87,80.7
196429,2018-06-29 10:27:10.406250,17.99,80.7
196430,2018-06-29 10:27:10.437500,7.4,80.7
196431,2018-06-29 10:27:10.468750,-3.53,80.7
196432,2018-06-29 10:27:10.500000,-13.22,80.7
196433,2018-06-29 10:27:10.531250,-22.62,81.23
196434,2018-06-29 10:27:10.562500,-32.94,81.23
196435,2018-06-29 10:27:10.593750,-43.16,81.23
196436,2018-06-29 10:27:10.625000,-51.71,81.23
196437,2018-06-29 10:27:10.656250,-59.38,81.23
196438,2018-06-29 10:27:10.687500,-68.9,81.23
196439,2018-06-29 10:27:10.718750,-80.19,81.23
196440,2018-06-29 10:27:10.750000,-86.01,81.23
196441,2018-06-29 10:27:10.781250,-76.95,81.23
196442,2018-06-29 10:27:10.812500,-52.67,81.23
196443,2018-06-29 10:27:10.843750,-23.57,81.23
196444,2018-06-29 10:27:10.875000,0.16,81.23
196445,2018-06-29 10:27:10.906250,16.36,81.23
196446,2018-06-29 10:27:10.937500,27.12,81.23
196447,2018-06-29 10:27:10.968750,33.75,81.23
196448,2018-06-29 10:27:11.000000,36.63,81.23
196449,2018-06-29 10:27:11.031250,36.94,81.23
196450,2018-06-29 10:27:11.062500,36.56,81.23
196451,2018-06-29 10:27:11.093750,36.59,81.23
196452,2018-06-29 10:27:11.125000,36.62,81.23
196453,2018-06-29 10:27:11.156250,36.37,81.23
196454,2018-06-29 10:27:11.187500,35.76,81.23
196455,2018-06-29 10:27:11.218750,33.21,81.23
196456,2018-06-29 10:27:11.250000,26.82,81.23
196457,2018-06-29 10:27:11.281250,17.56,81.23
196458,2018-06-29 10:27:11.312500,8.04,81.23
196459,2018-06-29 10:27:11.343750,-0.74,81.23
196460,2018-06-29 10:27:11.375000,-9.73,81.23
196461,2018-06-29 10:27:11.406250,-19.99,81.23
196462,2018-06-29 10:27:11.437500,-30.96,81.23
196463,2018-06-29 10:27:11.468750,-40.5,81.23
196464,2018-06-29 10:27:11.500000,-47.75,81.23
196465,2018-06-29 10:27:11.531250,-55.3,81.72
196466,2018-06-29 10:27:11.562500,-66.62,81.72
196467,2018-06-29 10:27:11.593750,-80.54,81.72
196468,2018-06-29 10:27:11.625000,-88.55,81.72
196469,2018-06-29 10:27:11.656250,-80.62,81.72
196470,2018-06-29 10:27:11.687500,-56.19,81.72
196471,2018-06-29 10:27:11.718750,-25.69,81.72
196472,2018-06-29 10:27:11.750000,0.47,81.72
196473,2018-06-29 10:27:11.781250,19.03,81.72
196474,2018-06-29 10:27:11.812500,30.82,81.72
196475,2018-06-29 10:27:11.843750,37.14,81.72
196476,2018-06-29 10:27:11.875000,39.64,81.72
196477,2018-06-29 10:27:11.906250,39.61,81.72
196478,2018-06-29 10:27:11.937500,37.72,81.72
196479,2018-06-29 10:27:11.968750,35.27,81.72
196480,2018-06-29 10:27:12.000000,34.24,81.72
196481,2018-06-29 10:27:12.031250,35.85,81.72
196482,2018-06-29 10:27:12.062500,39.0,81.72
196483,2018-06-29 10:27:12.093750,40.68,81.72
196484,2018-06-29 10:27:12.125000,38.71,81.72
196485,2018-06-29 10:27:12.156250,33.98,81.72
196486,2018-06-29 10:27:12.187500,28.93,81.72
196487,2018-06-29 10:27:12.218750,24.39,81.72
196488,2018-06-29 10:27:12.250000,18.56,81.72
196489,2018-06-29 10:27:12.281250,9.24,81.72
196490,2018-06-29 10:27:12.312500,-2.57,81.72
196491,2018-06-29 10:27:12.343750,-12.61,81.72
196492,2018-06-29 10:27:12.375000,-18.78,81.72
196493,2018-06-29 10:27:12.406250,-24.85,81.72
196494,2018-06-29 10:27:12.437500,-35.42,81.72
196495,2018-06-29 10:27:12.468750,-49.46,81.72
196496,2018-06-29 10:27:12.500000,-61.32,81.72
196497,2018-06-29 10:27:12.531250,-67.23,82.25
196498,2018-06-29 10:27:12.562500,-69.43,82.25
196499,2018-06-29 10:27:12.593750,-74.1,82.25
196500,2018-06-29 10:27:12.625000,-83.44,82.25
196501,2018-06-29 10:27:12.656250,-89.04,82.25
196502,2018-06-29 10:27:12.687500,-77.36,82.25
196503,2018-06-29 10:27:12.718750,-44.97,82.25
196504,2018-06-29 10:27:12.750000,-4.05,82.25
196505,2018-06-29 10:27:12.781250,30.32,82.25
196506,2018-06-29 10:27:12.812500,53.79,82.25
196507,2018-06-29 10:27:12.843750,70.62,82.25
196508,2018-06-29 10:27:12.875000,83.15,82.25
196509,2018-06-29 10:27:12.906250,89.7,82.25
196510,2018-06-29 10:27:12.937500,91.1,82.25
196511,2018-06-29 10:27:12.968750,93.19,82.25
196512,2018-06-29 10:27:13.000000,99.97,82.25
196513,2018-06-29 10:27:13.031250,107.95,82.25
196514,2018-06-29 10:27:13.062500,110.57,82.25
196515,2018-06-29 10:27:13.093750,105.04,82.25
196516,2018-06-29 10:27:13.125000,92.2,82.25
196517,2018-06-29 10:27:13.156250,70.63,82.25
196518,2018-06-29 10:27:13.187500,32.92,82.25
196519,2018-06-29 10:27:13.218750,-32.61,82.25
196520,2018-06-29 10:27:13.250000,-126.18,82.25
196521,2018-06-29 10:27:13.281250,-218.99,82.25
196522,2018-06-29 10:27:13.312500,-266.31,82.25
196523,2018-06-29 10:27:13.343750,-245.23,82.25
196524,2018-06-29 10:27:13.375000,-170.26,82.25
196525,2018-06-29 10:27:13.406250,-75.64,82.25
196526,2018-06-29 10:27:13.437500,5.6,82.25
196527,2018-06-29 10:27:13.468750,53.87,82.25
196528,2018-06-29 10:27:13.500000,69.79,82.25
196529,2018-06-29 10:27:13.531250,66.25,82.8
196530,2018-06-29 10:27:13.562500,53.24,82.8
196531,2018-06-29 10:27:13.593750,32.66,82.8
196532,2018-06-29 10:27:13.625000,3.95,82.8
196533,2018-06-29 10:27:13.656250,-27.7,82.8
196534,2018-06-29 10:27:13.687500,-48.36,82.8
196535,2018-06-29 10:27:13.718750,-45.52,82.8
196536,2018-06-29 10:27:13.750000,-23.03,82.8
196537,2018-06-29 10:27:13.781250,2.39,82.8
196538,2018-06-29 10:27:13.812500,19.64,82.8
196539,2018-06-29 10:27:13.843750,31.0,82.8
196540,2018-06-29 10:27:13.875000,42.2,82.8
196541,2018-06-29 10:27:13.906250,52.34,82.8
196542,2018-06-29 10:27:13.937500,56.08,82.8
196543,2018-06-29 10:27:13.968750,51.75,82.8
196544,2018-06-29 10:27:14.000000,42.96,82.8
196545,2018-06-29 10:27:14.031250,33.94,82.8
196546,2018-06-29 10:27:14.062500,28.69,82.8
196547,2018-06-29 10:27:14.093750,31.15,82.8
196548,2018-06-29 10:27:14.125000,39.62,82.8
196549,2018-06-29 10:27:14.156250,43.84,82.8
196550,2018-06-29 10:27:14.187500,34.79,82.8
196551,2018-06-29 10:27:14.218750,15.4,82.8
196552,2018-06-29 10:27:14.250000,-3.67,82.8
196553,2018-06-29 10:27:14.281250,-16.41,82.8
196554,2018-06-29 10:27:14.312500,-24.39,82.8
196555,2018-06-29 10:27:14.343750,-30.74,82.8
196556,2018-06-29 10:27:14.375000,-36.81,82.8
196557,2018-06-29 10:27:14.406250,-42.55,82.8
196558,2018-06-29 10:27:14.437500,-46.51,82.8
196559,2018-06-29 10:27:14.468750,-47.72,82.8
196560,2018-06-29 10:27:14.500000,-50.97,82.8
196561,2018-06-29 10:27:14.531250,-67.26,83.32
196562,2018-06-29 10:27:14.562500,-102.95,83.32
196563,2018-06-29 10:27:14.593750,-147.62,83.32
196564,2018-06-29 10:27:14.625000,-178.74,83.32
196565,2018-06-29 10:27:14.656250,-180.23,83.32
196566,2018-06-29 10:27:14.687500,-152.15,83.32
196567,2018-06-29 10:27:14.718750,-105.6,83.32
196568,2018-06-29 10:27:14.750000,-55.38,83.32
196569,2018-06-29 10:27:14.781250,-13.22,83.32
196570,2018-06-29 10:27:14.812500,17.94,83.32
196571,2018-06-29 10:27:14.843750,40.85,83.32
196572,2018-06-29 10:27:14.875000,56.68,83.32
196573,2018-06-29 10:27:14.906250,65.87,83.32
196574,2018-06-29 10:27:14.937500,72.02,83.32
196575,2018-06-29 10:27:14.968750,80.93,83.32
196576,2018-06-29 10:27:15.000000,97.45,83.32
196577,2018-06-29 10:27:15.031250,121.71,83.32
196578,2018-06-29 10:27:15.062500,147.24,83.32
196579,2018-06-29 10:27:15.093750,167.23,83.32
196580,2018-06-29 10:27:15.125000,181.32,83.32
196581,2018-06-29 10:27:15.156250,191.0,83.32
196582,2018-06-29 10:27:15.187500,193.74,83.32
196583,2018-06-29 10:27:15.218750,188.17,83.32
196584,2018-06-29 10:27:15.250000,178.2,83.32
196585,2018-06-29 10:27:15.281250,167.53,83.32
196586,2018-06-29 10:27:15.312500,155.81,83.32
196587,2018-06-29 10:27:15.343750,141.0,83.32
196588,2018-06-29 10:27:15.375000,119.67,83.32
196589,2018-06-29 10:27:15.406250,86.94,83.32
196590,2018-06-29 10:27:15.437500,41.16,83.32
196591,2018-06-29 10:27:15.468750,-13.1,83.32
196592,2018-06-29 10:27:15.500000,-69.24,83.32
196593,2018-06-29 10:27:15.531250,-123.38,83.88
196594,2018-06-29 10:27:15.562500,-170.49,83.88
196595,2018-06-29 10:27:15.593750,-197.95,83.88
196596,2018-06-29 10:27:15.625000,-193.4,83.88
196597,2018-06-29 10:27:15.656250,-160.84,83.88
196598,2018-06-29 10:27:15.687500,-118.17,83.88
196599,2018-06-29 10:27:15.718750,-78.47,83.88
196600,2018-06-29 10:27:15.750000,-44.95,83.88
196601,2018-06-29 10:27:15.781250,-19.89,83.88
196602,2018-06-29 10:27:15.812500,-5.8,83.88
196603,2018-06-29 10:27:15.843750,-0.14,83.88
196604,2018-06-29 10:27:15.875000,2.92,83.88
196605,2018-06-29 10:27:15.906250,7.42,83.88
196606,2018-06-29 10:27:15.937500,14.77,83.88
196607,2018-06-29 10:27:15.968750,25.86,83.88
196608,2018-06-29 10:27:16.000000,40.43,83.88
196609,2018-06-29 10:27:16.031250,53.9,83.88
196610,2018-06-29 10:27:16.062500,59.52,83.88
196611,2018-06-29 10:27:16.093750,55.52,83.88
196612,2018-06-29 10:27:16.125000,45.07,83.88
196613,2018-06-29 10:27:16.156250,29.1,83.88
196614,2018-06-29 10:27:16.187500,5.84,83.88
196615,2018-06-29 10:27:16.218750,-22.49,83.88
196616,2018-06-29 10:27:16.250000,-48.44,83.88
196617,2018-06-29 10:27:16.281250,-65.45,83.88
196618,2018-06-29 10:27:16.312500,-73.32,83.88
196619,2018-06-29 10:27:16.343750,-78.24,83.88
196620,2018-06-29 10:27:16.375000,-86.32,83.88
196621,2018-06-29 10:27:16.406250,-96.37,83.88
196622,2018-06-29 10:27:16.437500,-102.11,83.88
196623,2018-06-29 10:27:16.468750,-101.45,83.88
196624,2018-06-29 10:27:16.500000,-100.03,83.88
196625,2018-06-29 10:27:16.531250,-104.92,84.43
196626,2018-06-29 10:27:16.562500,-114.7,84.43
196627,2018-06-29 10:27:16.593750,-116.27,84.43
196628,2018-06-29 10:27:16.625000,-96.61,84.43
196629,2018-06-29 10:27:16.656250,-58.4,84.43
196630,2018-06-29 10:27:16.687500,-17.01,84.43
196631,2018-06-29 10:27:16.718750,16.36,84.43
196632,2018-06-29 10:27:16.750000,40.56,84.43
196633,2018-06-29 10:27:16.781250,56.97,84.43
196634,2018-06-29 10:27:16.812500,65.61,84.43
196635,2018-06-29 10:27:16.843750,68.16,84.43
196636,2018-06-29 10:27:16.875000,68.46,84.43
196637,2018-06-29 10:27:16.906250,69.04,84.43
196638,2018-06-29 10:27:16.937500,70.07,84.43
196639,2018-06-29 10:27:16.968750,71.32,84.43
196640,2018-06-29 10:27:17.000000,73.44,84.43
196641,2018-06-29 10:27:17.031250,77.75,84.43
196642,2018-06-29 10:27:17.062500,85.25,84.43
196643,2018-06-29 10:27:17.093750,95.82,84.43
196644,2018-06-29 10:27:17.125000,108.03,84.43
196645,2018-06-29 10:27:17.156250,119.69,84.43
196646,2018-06-29 10:27:17.187500,128.07,84.43
196647,2018-06-29 10:27:17.218750,130.42,84.43
196648,2018-06-29 10:27:17.250000,125.34,84.43
196649,2018-06-29 10:27:17.281250,114.39,84.43
196650,2018-06-29 10:27:17.312500,101.74,84.43
196651,2018-06-29 10:27:17.343750,91.14,84.43
196652,2018-06-29 10:27:17.375000,82.7,84.43
196653,2018-06-29 10:27:17.406250,72.78,84.43
196654,2018-06-29 10:27:17.437500,55.91,84.43
196655,2018-06-29 10:27:17.468750,26.9,84.43
196656,2018-06-29 10:27:17.500000,-16.23,84.43
196657,2018-06-29 10:27:17.531250,-68.25,84.95
196658,2018-06-29 10:27:17.562500,-115.03,84.95
196659,2018-06-29 10:27:17.593750,-140.74,84.95
196660,2018-06-29 10:27:17.625000,-140.56,84.95
196661,2018-06-29 10:27:17.656250,-124.1,84.95
196662,2018-06-29 10:27:17.687500,-104.4,84.95
196663,2018-06-29 10:27:17.718750,-87.81,84.95
196664,2018-06-29 10:27:17.750000,-75.53,84.95
196665,2018-06-29 10:27:17.781250,-67.58,84.95
196666,2018-06-29 10:27:17.812500,-61.91,84.95
196667,2018-06-29 10:27:17.843750,-54.63,84.95
196668,2018-06-29 10:27:17.875000,-44.69,84.95
196669,2018-06-29 10:27:17.906250,-35.31,84.95
196670,2018-06-29 10:27:17.937500,-29.55,84.95
196671,2018-06-29 10:27:17.968750,-26.9,84.95
196672,2018-06-29 10:27:18.000000,-24.71,84.95
196673,2018-06-29 10:27:18.031250,-21.41,84.95
196674,2018-06-29 10:27:18.062500,-18.01,84.95
196675,2018-06-29 10:27:18.093750,-16.92,84.95
196676,2018-06-29 10:27:18.125000,-19.16,84.95
196677,2018-06-29 10:27:18.156250,-23.03,84.95
196678,2018-06-29 10:27:18.187500,-25.55,84.95
196679,2018-06-29 10:27:18.218750,-24.98,84.95
196680,2018-06-29 10:27:18.250000,-22.03,84.95
196681,2018-06-29 10:27:18.281250,-19.0,84.95
196682,2018-06-29 10:27:18.312500,-18.37,84.95
196683,2018-06-29 10:27:18.343750,-22.11,84.95
196684,2018-06-29 10:27:18.375000,-32.05,84.95
196685,2018-06-29 10:27:18.406250,-47.32,84.95
196686,2018-06-29 10:27:18.437500,-59.19,84.95
196687,2018-06-29 10:27:18.468750,-54.04,84.95
196688,2018-06-29 10:27:18.500000,-27.2,84.95
196689,2018-06-29 10:27:18.531250,11.39,85.47
196690,2018-06-29 10:27:18.562500,48.63,85.47
196691,2018-06-29 10:27:18.593750,78.36,85.47
196692,2018-06-29 10:27:18.625000,98.2,85.47
196693,2018-06-29 10:27:18.656250,105.54,85.47
196694,2018-06-29 10:27:18.687500,100.51,85.47
196695,2018-06-29 10:27:18.718750,87.22,85.47
196696,2018-06-29 10:27:18.750000,69.1,85.47
196697,2018-06-29 10:27:18.781250,45.43,85.47
196698,2018-06-29 10:27:18.812500,14.47,85.47
196699,2018-06-29 10:27:18.843750,-21.61,85.47
196700,2018-06-29 10:27:18.875000,-56.69,85.47
196701,2018-06-29 10:27:18.906250,-83.81,85.47
196702,2018-06-29 10:27:18.937500,-98.22,85.47
196703,2018-06-29 10:27:18.968750,-99.73,85.47
196704,2018-06-29 10:27:19.000000,-92.05,85.47
196705,2018-06-29 10:27:19.031250,-78.62,85.47
196706,2018-06-29 10:27:19.062500,-60.47,85.47
196707,2018-06-29 10:27:19.093750,-38.16,85.47
196708,2018-06-29 10:27:19.125000,-13.26,85.47
196709,2018-06-29 10:27:19.156250,11.77,85.47
196710,2018-06-29 10:27:19.187500,32.22,85.47
196711,2018-06-29 10:27:19.218750,40.05,85.47
196712,2018-06-29 10:27:19.250000,29.33,85.47
196713,2018-06-29 10:27:19.281250,5.52,85.47
196714,2018-06-29 10:27:19.312500,-14.72,85.47
196715,2018-06-29 10:27:19.343750,-18.48,85.47
196716,2018-06-29 10:27:19.375000,-9.44,85.47
196717,2018-06-29 10:27:19.406250,-1.2,85.47
196718,2018-06-29 10:27:19.437500,-0.28,85.47
196719,2018-06-29 10:27:19.468750,-0.81,85.47
196720,2018-06-29 10:27:19.500000,5.71,85.47
196721,2018-06-29 10:27:19.531250,21.32,85.93
196722,2018-06-29 10:27:19.562500,42.57,85.93
196723,2018-06-29 10:27:19.593750,65.29,85.93
196724,2018-06-29 10:27:19.625000,85.41,85.93
196725,2018-06-29 10:27:19.656250,99.06,85.93
196726,2018-06-29 10:27:19.687500,105.16,85.93
196727,2018-06-29 10:27:19.718750,104.98,85.93
196728,2018-06-29 10:27:19.750000,96.76,85.93
196729,2018-06-29 10:27:19.781250,74.97,85.93
196730,2018-06-29 10:27:19.812500,40.37,85.93
196731,2018-06-29 10:27:19.843750,4.89,85.93
196732,2018-06-29 10:27:19.875000,-19.68,85.93
196733,2018-06-29 10:27:19.906250,-31.63,85.93
196734,2018-06-29 10:27:19.937500,-34.47,85.93
196735,2018-06-29 10:27:19.968750,-31.04,85.93
196736,2018-06-29 10:27:20.000000,-26.67,85.93
196737,2018-06-29 10:27:20.031250,-28.34,85.93
196738,2018-06-29 10:27:20.062500,-38.4,85.93
196739,2018-06-29 10:27:20.093750,-54.69,85.93
196740,2018-06-29 10:27:20.125000,-73.4,85.93
196741,2018-06-29 10:27:20.156250,-86.19,85.93
196742,2018-06-29 10:27:20.187500,-81.54,85.93
196743,2018-06-29 10:27:20.218750,-56.11,85.93
196744,2018-06-29 10:27:20.250000,-18.32,85.93
196745,2018-06-29 10:27:20.281250,21.53,85.93
196746,2018-06-29 10:27:20.312500,58.49,85.93
196747,2018-06-29 10:27:20.343750,91.33,85.93
196748,2018-06-29 10:27:20.375000,119.44,85.93
196749,2018-06-29 10:27:20.406250,141.05,85.93
196750,2018-06-29 10:27:20.437500,154.3,85.93
196751,2018-06-29 10:27:20.468750,159.38,85.93
196752,2018-06-29 10:27:20.500000,157.66,85.93
196753,2018-06-29 10:27:20.531250,149.37,86.4
196754,2018-06-29 10:27:20.562500,133.29,86.4
196755,2018-06-29 10:27:20.593750,105.56,86.4
196756,2018-06-29 10:27:20.625000,61.84,86.4
196757,2018-06-29 10:27:20.656250,6.46,86.4
196758,2018-06-29 10:27:20.687500,-45.05,86.4
196759,2018-06-29 10:27:20.718750,-79.35,86.4
196760,2018-06-29 10:27:20.750000,-96.71,86.4
196761,2018-06-29 10:27:20.781250,-103.87,86.4
196762,2018-06-29 10:27:20.812500,-102.58,86.4
196763,2018-06-29 10:27:20.843750,-92.25,86.4
196764,2018-06-29 10:27:20.875000,-78.12,86.4
196765,2018-06-29 10:27:20.906250,-68.5,86.4
196766,2018-06-29 10:27:20.937500,-65.23,86.4
196767,2018-06-29 10:27:20.968750,-59.69,86.4
196768,2018-06-29 10:27:21.000000,-39.31,86.4
196769,2018-06-29 10:27:21.031250,-1.3,86.4
196770,2018-06-29 10:27:21.062500,41.64,86.4
196771,2018-06-29 10:27:21.093750,72.7,86.4
196772,2018-06-29 10:27:21.125000,83.58,86.4
196773,2018-06-29 10:27:21.156250,74.53,86.4
196774,2018-06-29 10:27:21.187500,51.08,86.4
196775,2018-06-29 10:27:21.218750,24.54,86.4
196776,2018-06-29 10:27:21.250000,5.37,86.4
196777,2018-06-29 10:27:21.281250,-4.92,86.4
196778,2018-06-29 10:27:21.312500,-7.86,86.4
196779,2018-06-29 10:27:21.343750,0.29,86.4
196780,2018-06-29 10:27:21.375000,21.48,86.4
196781,2018-06-29 10:27:21.406250,47.41,86.4
196782,2018-06-29 10:27:21.437500,67.33,86.4
196783,2018-06-29 10:27:21.468750,78.16,86.4
196784,2018-06-29 10:27:21.500000,80.54,86.4
196785,2018-06-29 10:27:21.531250,70.29,86.83
196786,2018-06-29 10:27:21.562500,39.87,86.83
196787,2018-06-29 10:27:21.593750,-11.05,86.83
196788,2018-06-29 10:27:21.625000,-68.44,86.83
196789,2018-06-29 10:27:21.656250,-111.81,86.83
196790,2018-06-29 10:27:21.687500,-131.74,86.83
196791,2018-06-29 10:27:21.718750,-136.24,86.83
196792,2018-06-29 10:27:21.750000,-138.64,86.83
196793,2018-06-29 10:27:21.781250,-143.13,86.83
196794,2018-06-29 10:27:21.812500,-141.3,86.83
196795,2018-06-29 10:27:21.843750,-120.25,86.83
196796,2018-06-29 10:27:21.875000,-76.72,86.83
196797,2018-06-29 10:27:21.906250,-23.35,86.83
196798,2018-06-29 10:27:21.937500,21.79,86.83
196799,2018-06-29 10:27:21.968750,50.02,86.83
196800,2018-06-29 10:27:22.000000,63.62,86.83
196801,2018-06-29 10:27:22.031250,66.9,86.83
196802,2018-06-29 10:27:22.062500,61.36,86.83
196803,2018-06-29 10:27:22.093750,49.78,86.83
196804,2018-06-29 10:27:22.125000,38.27,86.83
196805,2018-06-29 10:27:22.156250,30.94,86.83
196806,2018-06-29 10:27:22.187500,26.72,86.83
196807,2018-06-29 10:27:22.218750,23.86,86.83
196808,2018-06-29 10:27:22.250000,21.79,86.83
196809,2018-06-29 10:27:22.281250,18.12,86.83
196810,2018-06-29 10:27:22.312500,10.31,86.83
196811,2018-06-29 10:27:22.343750,0.01,86.83
196812,2018-06-29 10:27:22.375000,-8.68,86.83
196813,2018-06-29 10:27:22.406250,-14.26,86.83
196814,2018-06-29 10:27:22.437500,-18.07,86.83
196815,2018-06-29 10:27:22.468750,-20.97,86.83
196816,2018-06-29 10:27:22.500000,-22.52,86.83
196817,2018-06-29 10:27:22.531250,-22.44,87.25
196818,2018-06-29 10:27:22.562500,-21.85,87.25
196819,2018-06-29 10:27:22.593750,-23.05,87.25
196820,2018-06-29 10:27:22.625000,-28.79,87.25
196821,2018-06-29 10:27:22.656250,-40.88,87.25
196822,2018-06-29 10:27:22.687500,-55.98,87.25
196823,2018-06-29 10:27:22.718750,-63.99,87.25
196824,2018-06-29 10:27:22.750000,-55.78,87.25
196825,2018-06-29 10:27:22.781250,-33.63,87.25
196826,2018-06-29 10:27:22.812500,-9.01,87.25
196827,2018-06-29 10:27:22.843750,9.55,87.25
196828,2018-06-29 10:27:22.875000,21.41,87.25
196829,2018-06-29 10:27:22.906250,28.2,87.25
196830,2018-06-29 10:27:22.937500,29.73,87.25
196831,2018-06-29 10:27:22.968750,26.83,87.25
196832,2018-06-29 10:27:23.000000,23.1,87.25
196833,2018-06-29 10:27:23.031250,20.84,87.25
196834,2018-06-29 10:27:23.062500,18.77,87.25
196835,2018-06-29 10:27:23.093750,16.07,87.25
196836,2018-06-29 10:27:23.125000,15.07,87.25
196837,2018-06-29 10:27:23.156250,17.03,87.25
196838,2018-06-29 10:27:23.187500,19.03,87.25
196839,2018-06-29 10:27:23.218750,18.37,87.25
196840,2018-06-29 10:27:23.250000,16.25,87.25
196841,2018-06-29 10:27:23.281250,14.18,87.25
196842,2018-06-29 10:27:23.312500,10.03,87.25
196843,2018-06-29 10:27:23.343750,1.63,87.25
196844,2018-06-29 10:27:23.375000,-9.19,87.25
196845,2018-06-29 10:27:23.406250,-19.93,87.25
196846,2018-06-29 10:27:23.437500,-31.01,87.25
196847,2018-06-29 10:27:23.468750,-43.18,87.25
196848,2018-06-29 10:27:23.500000,-54.92,87.25
196849,2018-06-29 10:27:23.531250,-65.01,87.68
196850,2018-06-29 10:27:23.562500,-74.45,87.68
196851,2018-06-29 10:27:23.593750,-84.96,87.68
196852,2018-06-29 10:27:23.625000,-98.43,87.68
196853,2018-06-29 10:27:23.656250,-115.63,87.68
196854,2018-06-29 10:27:23.687500,-130.32,87.68
196855,2018-06-29 10:27:23.718750,-130.1,87.68
196856,2018-06-29 10:27:23.750000,-110.24,87.68
196857,2018-06-29 10:27:23.781250,-81.23,87.68
196858,2018-06-29 10:27:23.812500,-55.99,87.68
196859,2018-06-29 10:27:23.843750,-36.68,87.68
196860,2018-06-29 10:27:23.875000,-18.47,87.68
196861,2018-06-29 10:27:23.906250,1.61,87.68
196862,2018-06-29 10:27:23.937500,23.82,87.68
196863,2018-06-29 10:27:23.968750,48.86,87.68
196864,2018-06-29 10:27:24.000000,78.52,87.68
196865,2018-06-29 10:27:24.031250,113.04,87.68
196866,2018-06-29 10:27:24.062500,149.3,87.68
196867,2018-06-29 10:27:24.093750,181.7,87.68
196868,2018-06-29 10:27:24.125000,202.86,87.68
196869,2018-06-29 10:27:24.156250,203.88,87.68
196870,2018-06-29 10:27:24.187500,180.73,87.68
196871,2018-06-29 10:27:24.218750,140.99,87.68
196872,2018-06-29 10:27:24.250000,98.51,87.68
196873,2018-06-29 10:27:24.281250,63.56,87.68
196874,2018-06-29 10:27:24.312500,41.93,87.68
196875,2018-06-29 10:27:24.343750,37.71,87.68
196876,2018-06-29 10:27:24.375000,49.88,87.68
196877,2018-06-29 10:27:24.406250,70.38,87.68
196878,2018-06-29 10:27:24.437500,88.32,87.68
196879,2018-06-29 10:27:24.468750,92.84,87.68
196880,2018-06-29 10:27:24.500000,75.19,87.68
196881,2018-06-29 10:27:24.531250,34.78,88.22
196882,2018-06-29 10:27:24.562500,-17.77,88.22
196883,2018-06-29 10:27:24.593750,-68.17,88.22
196884,2018-06-29 10:27:24.625000,-107.92,88.22
196885,2018-06-29 10:27:24.656250,-134.54,88.22
196886,2018-06-29 10:27:24.687500,-146.16,88.22
196887,2018-06-29 10:27:24.718750,-139.03,88.22
196888,2018-06-29 10:27:24.750000,-111.75,88.22
196889,2018-06-29 10:27:24.781250,-71.84,88.22
196890,2018-06-29 10:27:24.812500,-33.98,88.22
196891,2018-06-29 10:27:24.843750,-9.92,88.22
196892,2018-06-29 10:27:24.875000,-1.66,88.22
196893,2018-06-29 10:27:24.906250,-4.01,88.22
196894,2018-06-29 10:27:24.937500,-11.08,88.22
196895,2018-06-29 10:27:24.968750,-19.94,88.22
196896,2018-06-29 10:27:25.000000,-29.86,88.22
196897,2018-06-29 10:27:25.031250,-39.17,88.22
196898,2018-06-29 10:27:25.062500,-43.63,88.22
196899,2018-06-29 10:27:25.093750,-39.67,88.22
196900,2018-06-29 10:27:25.125000,-28.64,88.22
196901,2018-06-29 10:27:25.156250,-15.76,88.22
196902,2018-06-29 10:27:25.187500,-6.85,88.22
196903,2018-06-29 10:27:25.218750,-5.54,88.22
196904,2018-06-29 10:27:25.250000,-10.66,88.22
196905,2018-06-29 10:27:25.281250,-15.8,88.22
196906,2018-06-29 10:27:25.312500,-15.06,88.22
196907,2018-06-29 10:27:25.343750,-7.45,88.22
196908,2018-06-29 10:27:25.375000,5.89,88.22
196909,2018-06-29 10:27:25.406250,20.33,88.22
196910,2018-06-29 10:27:25.437500,25.2,88.22
196911,2018-06-29 10:27:25.468750,10.27,88.22
196912,2018-06-29 10:27:25.500000,-26.01,88.22
196913,2018-06-29 10:27:25.531250,-77.64,88.67
196914,2018-06-29 10:27:25.562500,-134.4,88.67
196915,2018-06-29 10:27:25.593750,-183.15,88.67
196916,2018-06-29 10:27:25.625000,-212.24,88.67
196917,2018-06-29 10:27:25.656250,-212.83,88.67
196918,2018-06-29 10:27:25.687500,-177.24,88.67
196919,2018-06-29 10:27:25.718750,-101.47,88.67
196920,2018-06-29 10:27:25.750000,8.26,88.67
196921,2018-06-29 10:27:25.781250,133.87,88.67
196922,2018-06-29 10:27:25.812500,247.48,88.67
196923,2018-06-29 10:27:25.843750,323.29,88.67
196924,2018-06-29 10:27:25.875000,353.5,88.67
196925,2018-06-29 10:27:25.906250,347.23,88.67
196926,2018-06-29 10:27:25.937500,314.02,88.67
196927,2018-06-29 10:27:25.968750,258.35,88.67
196928,2018-06-29 10:27:26.000000,191.47,88.67
196929,2018-06-29 10:27:26.031250,127.07,88.67
196930,2018-06-29 10:27:26.062500,77.3,88.67
196931,2018-06-29 10:27:26.093750,44.49,88.67
196932,2018-06-29 10:27:26.125000,25.4,88.67
196933,2018-06-29 10:27:26.156250,12.49,88.67
196934,2018-06-29 10:27:26.187500,-1.29,88.67
196935,2018-06-29 10:27:26.218750,-12.27,88.67
196936,2018-06-29 10:27:26.250000,-20.7,88.67
196937,2018-06-29 10:27:26.281250,-29.88,88.67
196938,2018-06-29 10:27:26.312500,-55.55,88.67
196939,2018-06-29 10:27:26.343750,-93.24,88.67
196940,2018-06-29 10:27:26.375000,-130.64,88.67
196941,2018-06-29 10:27:26.406250,-167.74,88.67
196942,2018-06-29 10:27:26.437500,-227.52,88.67
196943,2018-06-29 10:27:26.468750,-324.81,88.67
196944,2018-06-29 10:27:26.500000,-425.5,88.67
196945,2018-06-29 10:27:26.531250,-503.75,89.07
196946,2018-06-29 10:27:26.562500,-468.96,89.07
196947,2018-06-29 10:27:26.593750,-281.61,89.07
196948,2018-06-29 10:27:26.625000,-78.22,89.07
196949,2018-06-29 10:27:26.656250,73.46,89.07
196950,2018-06-29 10:27:26.687500,167.77,89.07
196951,2018-06-29 10:27:26.718750,205.33,89.07
196952,2018-06-29 10:27:26.750000,200.55,89.07
196953,2018-06-29 10:27:26.781250,189.03,89.07
196954,2018-06-29 10:27:26.812500,178.87,89.07
196955,2018-06-29 10:27:26.843750,168.51,89.07
196956,2018-06-29 10:27:26.875000,143.52,89.07
196957,2018-06-29 10:27:26.906250,111.11,89.07
196958,2018-06-29 10:27:26.937500,87.98,89.07
196959,2018-06-29 10:27:26.968750,76.46,89.07
196960,2018-06-29 10:27:27.000000,68.9,89.07
196961,2018-06-29 10:27:27.031250,57.65,89.07
196962,2018-06-29 10:27:27.062500,47.63,89.07
196963,2018-06-29 10:27:27.093750,40.41,89.07
196964,2018-06-29 10:27:27.125000,33.87,89.07
196965,2018-06-29 10:27:27.156250,24.26,89.07
196966,2018-06-29 10:27:27.187500,16.25,89.07
196967,2018-06-29 10:27:27.218750,14.05,89.07
196968,2018-06-29 10:27:27.250000,14.68,89.07
196969,2018-06-29 10:27:27.281250,13.95,89.07
196970,2018-06-29 10:27:27.312500,9.99,89.07
196971,2018-06-29 10:27:27.343750,2.48,89.07
196972,2018-06-29 10:27:27.375000,-10.71,89.07
196973,2018-06-29 10:27:27.406250,-29.92,89.07
196974,2018-06-29 10:27:27.437500,-53.44,89.07
196975,2018-06-29 10:27:27.468750,-78.7,89.07
196976,2018-06-29 10:27:27.500000,-98.93,89.07
196977,2018-06-29 10:27:27.531250,-104.54,89.5
196978,2018-06-29 10:27:27.562500,-93.78,89.5
196979,2018-06-29 10:27:27.593750,-75.42,89.5
196980,2018-06-29 10:27:27.625000,-56.36,89.5
196981,2018-06-29 10:27:27.656250,-36.07,89.5
196982,2018-06-29 10:27:27.687500,-14.07,89.5
196983,2018-06-29 10:27:27.718750,8.26,89.5
196984,2018-06-29 10:27:27.750000,33.49,89.5
196985,2018-06-29 10:27:27.781250,64.36,89.5
196986,2018-06-29 10:27:27.812500,95.63,89.5
196987,2018-06-29 10:27:27.843750,118.57,89.5
196988,2018-06-29 10:27:27.875000,130.27,89.5
196989,2018-06-29 10:27:27.906250,131.89,89.5
196990,2018-06-29 10:27:27.937500,122.69,89.5
196991,2018-06-29 10:27:27.968750,102.28,89.5
196992,2018-06-29 10:27:28.000000,74.42,89.5
196993,2018-06-29 10:27:28.031250,44.75,89.5
196994,2018-06-29 10:27:28.062500,17.17,89.5
196995,2018-06-29 10:27:28.093750,-6.89,89.5
196996,2018-06-29 10:27:28.125000,-27.94,89.5
196997,2018-06-29 10:27:28.156250,-47.03,89.5
196998,2018-06-29 10:27:28.187500,-63.77,89.5
196999,2018-06-29 10:27:28.218750,-76.39,89.5
197000,2018-06-29 10:27:28.250000,-84.53,89.5
197001,2018-06-29 10:27:28.281250,-91.21,89.5
197002,2018-06-29 10:27:28.312500,-100.76,89.5
197003,2018-06-29 10:27:28.343750,-113.64,89.5
197004,2018-06-29 10:27:28.375000,-123.47,89.5
197005,2018-06-29 10:27:28.406250,-121.34,89.5
197006,2018-06-29 10:27:28.437500,-104.93,89.5
197007,2018-06-29 10:27:28.468750,-82.45,89.5
197008,2018-06-29 10:27:28.500000,-64.94,89.5
197009,2018-06-29 10:27:28.531250,-55.9,89.88
197010,2018-06-29 10:27:28.562500,-50.01,89.88
197011,2018-06-29 10:27:28.593750,-40.28,89.88
197012,2018-06-29 10:27:28.625000,-24.31,89.88
197013,2018-06-29 10:27:28.656250,-4.18,89.88
197014,2018-06-29 10:27:28.687500,16.65,89.88
197015,2018-06-29 10:27:28.718750,34.0,89.88
197016,2018-06-29 10:27:28.750000,43.27,89.88
197017,2018-06-29 10:27:28.781250,41.84,89.88
197018,2018-06-29 10:27:28.812500,31.18,89.88
197019,2018-06-29 10:27:28.843750,15.1,89.88
197020,2018-06-29 10:27:28.875000,-2.47,89.88
197021,2018-06-29 10:27:28.906250,-17.41,89.88
197022,2018-06-29 10:27:28.937500,-24.78,89.88
197023,2018-06-29 10:27:28.968750,-20.46,89.88
197024,2018-06-29 10:27:29.000000,-4.08,89.88
197025,2018-06-29 10:27:29.031250,21.35,89.88
197026,2018-06-29 10:27:29.062500,51.73,89.88
197027,2018-06-29 10:27:29.093750,81.56,89.88
197028,2018-06-29 10:27:29.125000,104.25,89.88
197029,2018-06-29 10:27:29.156250,116.39,89.88
197030,2018-06-29 10:27:29.187500,118.28,89.88
197031,2018-06-29 10:27:29.218750,109.89,89.88
197032,2018-06-29 10:27:29.250000,92.46,89.88
197033,2018-06-29 10:27:29.281250,73.08,89.88
197034,2018-06-29 10:27:29.312500,60.27,89.88
197035,2018-06-29 10:27:29.343750,55.6,89.88
197036,2018-06-29 10:27:29.375000,53.21,89.88
197037,2018-06-29 10:27:29.406250,45.88,89.88
197038,2018-06-29 10:27:29.437500,29.8,89.88
197039,2018-06-29 10:27:29.468750,6.2,89.88
197040,2018-06-29 10:27:29.500000,-20.49,89.88
197041,2018-06-29 10:27:29.531250,-46.61,90.25
197042,2018-06-29 10:27:29.562500,-68.67,90.25
197043,2018-06-29 10:27:29.593750,-79.84,90.25
197044,2018-06-29 10:27:29.625000,-73.56,90.25
197045,2018-06-29 10:27:29.656250,-52.22,90.25
197046,2018-06-29 10:27:29.687500,-25.96,90.25
197047,2018-06-29 10:27:29.718750,-1.96,90.25
197048,2018-06-29 10:27:29.750000,19.94,90.25
197049,2018-06-29 10:27:29.781250,40.86,90.25
197050,2018-06-29 10:27:29.812500,57.92,90.25
197051,2018-06-29 10:27:29.843750,66.93,90.25
197052,2018-06-29 10:27:29.875000,65.88,90.25
197053,2018-06-29 10:27:29.906250,55.75,90.25
197054,2018-06-29 10:27:29.937500,41.27,90.25
197055,2018-06-29 10:27:29.968750,28.67,90.25
197056,2018-06-29 10:27:30.000000,19.51,90.25
197057,2018-06-29 10:27:30.031250,9.41,90.25
197058,2018-06-29 10:27:30.062500,-4.76,90.25
197059,2018-06-29 10:27:30.093750,-21.11,90.25
197060,2018-06-29 10:27:30.125000,-38.9,90.25
197061,2018-06-29 10:27:30.156250,-60.55,90.25
197062,2018-06-29 10:27:30.187500,-83.31,90.25
197063,2018-06-29 10:27:30.218750,-97.8,90.25
197064,2018-06-29 10:27:30.250000,-99.63,90.25
197065,2018-06-29 10:27:30.281250,-93.58,90.25
197066,2018-06-29 10:27:30.312500,-83.61,90.25
197067,2018-06-29 10:27:30.343750,-68.28,90.25
197068,2018-06-29 10:27:30.375000,-47.81,90.25
197069,2018-06-29 10:27:30.406250,-28.3,90.25
197070,2018-06-29 10:27:30.437500,-16.74,90.25
197071,2018-06-29 10:27:30.468750,-15.35,90.25
197072,2018-06-29 10:27:30.500000,-21.81,90.25
197073,2018-06-29 10:27:30.531250,-31.54,90.57
197074,2018-06-29 10:27:30.562500,-38.21,90.57
197075,2018-06-29 10:27:30.593750,-35.98,90.57
197076,2018-06-29 10:27:30.625000,-23.96,90.57
197077,2018-06-29 10:27:30.656250,-7.39,90.57
197078,2018-06-29 10:27:30.687500,7.65,90.57
197079,2018-06-29 10:27:30.718750,19.46,90.57
197080,2018-06-29 10:27:30.750000,29.77,90.57
197081,2018-06-29 10:27:30.781250,39.78,90.57
197082,2018-06-29 10:27:30.812500,49.08,90.57
197083,2018-06-29 10:27:30.843750,57.55,90.57
197084,2018-06-29 10:27:30.875000,66.33,90.57
197085,2018-06-29 10:27:30.906250,76.71,90.57
197086,2018-06-29 10:27:30.937500,85.28,90.57
197087,2018-06-29 10:27:30.968750,78.89,90.57
197088,2018-06-29 10:27:31.000000,43.66,90.57
197089,2018-06-29 10:27:31.031250,-16.28,90.57
197090,2018-06-29 10:27:31.062500,-76.66,90.57
197091,2018-06-29 10:27:31.093750,-114.06,90.57
197092,2018-06-29 10:27:31.125000,-123.97,90.57
197093,2018-06-29 10:27:31.156250,-117.45,90.57
197094,2018-06-29 10:27:31.187500,-107.2,90.57
197095,2018-06-29 10:27:31.218750,-99.58,90.57
197096,2018-06-29 10:27:31.250000,-94.89,90.57
197097,2018-06-29 10:27:31.281250,-90.33,90.57
197098,2018-06-29 10:27:31.312500,-82.03,90.57
197099,2018-06-29 10:27:31.343750,-66.25,90.57
197100,2018-06-29 10:27:31.375000,-40.59,90.57
197101,2018-06-29 10:27:31.406250,-6.96,90.57
197102,2018-06-29 10:27:31.437500,28.29,90.57
197103,2018-06-29 10:27:31.468750,60.4,90.57
197104,2018-06-29 10:27:31.500000,86.9,90.57
197105,2018-06-29 10:27:31.531250,100.27,90.85
197106,2018-06-29 10:27:31.562500,90.7,90.85
197107,2018-06-29 10:27:31.593750,59.95,90.85
197108,2018-06-29 10:27:31.625000,22.52,90.85
197109,2018-06-29 10:27:31.656250,-8.38,90.85
197110,2018-06-29 10:27:31.687500,-28.45,90.85
197111,2018-06-29 10:27:31.718750,-37.24,90.85
197112,2018-06-29 10:27:31.750000,-34.04,90.85
197113,2018-06-29 10:27:31.781250,-20.99,90.85
197114,2018-06-29 10:27:31.812500,-5.47,90.85
197115,2018-06-29 10:27:31.843750,4.11,90.85
197116,2018-06-29 10:27:31.875000,3.96,90.85
197117,2018-06-29 10:27:31.906250,-3.53,90.85
197118,2018-06-29 10:27:31.937500,-10.39,90.85
197119,2018-06-29 10:27:31.968750,-6.88,90.85
197120,2018-06-29 10:27:32.000000,9.78,90.85
197121,2018-06-29 10:27:32.031250,31.8,90.85
197122,2018-06-29 10:27:32.062500,48.51,90.85
197123,2018-06-29 10:27:32.093750,54.92,90.85
197124,2018-06-29 10:27:32.125000,52.1,90.85
197125,2018-06-29 10:27:32.156250,42.86,90.85
197126,2018-06-29 10:27:32.187500,29.44,90.85
197127,2018-06-29 10:27:32.218750,15.32,90.85
197128,2018-06-29 10:27:32.250000,6.53,90.85
197129,2018-06-29 10:27:32.281250,7.63,90.85
197130,2018-06-29 10:27:32.312500,17.33,90.85
197131,2018-06-29 10:27:32.343750,30.08,90.85
197132,2018-06-29 10:27:32.375000,40.04,90.85
197133,2018-06-29 10:27:32.406250,43.22,90.85
197134,2018-06-29 10:27:32.437500,39.04,90.85
197135,2018-06-29 10:27:32.468750,30.13,90.85
197136,2018-06-29 10:27:32.500000,19.39,90.85
197137,2018-06-29 10:27:32.531250,7.83,91.07
197138,2018-06-29 10:27:32.562500,-4.79,91.07
197139,2018-06-29 10:27:32.593750,-19.03,91.07
197140,2018-06-29 10:27:32.625000,-36.36,91.07
197141,2018-06-29 10:27:32.656250,-59.47,91.07
197142,2018-06-29 10:27:32.687500,-88.26,91.07
197143,2018-06-29 10:27:32.718750,-114.0,91.07
197144,2018-06-29 10:27:32.750000,-123.78,91.07
197145,2018-06-29 10:27:32.781250,-114.65,91.07
197146,2018-06-29 10:27:32.812500,-96.16,91.07
197147,2018-06-29 10:27:32.843750,-75.62,91.07
197148,2018-06-29 10:27:32.875000,-49.59,91.07
197149,2018-06-29 10:27:32.906250,-13.02,91.07
197150,2018-06-29 10:27:32.937500,31.38,91.07
197151,2018-06-29 10:27:32.968750,75.82,91.07
197152,2018-06-29 10:27:33.000000,113.41,91.07
197153,2018-06-29 10:27:33.031250,140.45,91.07
197154,2018-06-29 10:27:33.062500,156.66,91.07
197155,2018-06-29 10:27:33.093750,163.58,91.07
197156,2018-06-29 10:27:33.125000,161.15,91.07
197157,2018-06-29 10:27:33.156250,147.41,91.07
197158,2018-06-29 10:27:33.187500,121.98,91.07
197159,2018-06-29 10:27:33.218750,88.3,91.07
197160,2018-06-29 10:27:33.250000,52.58,91.07
197161,2018-06-29 10:27:33.281250,20.68,91.07
197162,2018-06-29 10:27:33.312500,-5.49,91.07
197163,2018-06-29 10:27:33.343750,-27.17,91.07
197164,2018-06-29 10:27:33.375000,-44.38,91.07
197165,2018-06-29 10:27:33.406250,-56.68,91.07
197166,2018-06-29 10:27:33.437500,-67.92,91.07
197167,2018-06-29 10:27:33.468750,-83.8,91.07
197168,2018-06-29 10:27:33.500000,-103.12,91.07
197169,2018-06-29 10:27:33.531250,-114.19,91.22
197170,2018-06-29 10:27:33.562500,-102.57,91.22
197171,2018-06-29 10:27:33.593750,-66.05,91.22
197172,2018-06-29 10:27:33.625000,-20.1,91.22
197173,2018-06-29 10:27:33.656250,16.3,91.22
197174,2018-06-29 10:27:33.687500,37.29,91.22
197175,2018-06-29 10:27:33.718750,48.49,91.22
197176,2018-06-29 10:27:33.750000,54.8,91.22
197177,2018-06-29 10:27:33.781250,55.51,91.22
197178,2018-06-29 10:27:33.812500,49.01,91.22
197179,2018-06-29 10:27:33.843750,38.49,91.22
197180,2018-06-29 10:27:33.875000,31.29,91.22
197181,2018-06-29 10:27:33.906250,32.3,91.22
197182,2018-06-29 10:27:33.937500,40.0,91.22
197183,2018-06-29 10:27:33.968750,49.3,91.22
197184,2018-06-29 10:27:34.000000,55.64,91.22
197185,2018-06-29 10:27:34.031250,56.65,91.22
197186,2018-06-29 10:27:34.062500,52.56,91.22
197187,2018-06-29 10:27:34.093750,45.76,91.22
197188,2018-06-29 10:27:34.125000,38.73,91.22
197189,2018-06-29 10:27:34.156250,32.9,91.22
197190,2018-06-29 10:27:34.187500,28.57,91.22
197191,2018-06-29 10:27:34.218750,24.55,91.22
197192,2018-06-29 10:27:34.250000,19.18,91.22
197193,2018-06-29 10:27:34.281250,12.6,91.22
197194,2018-06-29 10:27:34.312500,6.39,91.22
197195,2018-06-29 10:27:34.343750,1.25,91.22
197196,2018-06-29 10:27:34.375000,-3.65,91.22
197197,2018-06-29 10:27:34.406250,-10.02,91.22
197198,2018-06-29 10:27:34.437500,-17.6,91.22
197199,2018-06-29 10:27:34.468750,-18.58,91.22
197200,2018-06-29 10:27:34.500000,-0.01,91.22
197201,2018-06-29 10:27:34.531250,41.29,91.35
197202,2018-06-29 10:27:34.562500,92.1,91.35
197203,2018-06-29 10:27:34.593750,135.96,91.35
197204,2018-06-29 10:27:34.625000,164.66,91.35
197205,2018-06-29 10:27:34.656250,174.15,91.35
197206,2018-06-29 10:27:34.687500,160.15,91.35
197207,2018-06-29 10:27:34.718750,123.07,91.35
197208,2018-06-29 10:27:34.750000,70.71,91.35
197209,2018-06-29 10:27:34.781250,12.91,91.35
197210,2018-06-29 10:27:34.812500,-44.16,91.35
197211,2018-06-29 10:27:34.843750,-97.59,91.35
197212,2018-06-29 10:27:34.875000,-142.73,91.35
197213,2018-06-29 10:27:34.906250,-171.39,91.35
197214,2018-06-29 10:27:34.937500,-177.97,91.35
197215,2018-06-29 10:27:34.968750,-166.53,91.35
197216,2018-06-29 10:27:35.000000,-148.99,91.35
197217,2018-06-29 10:27:35.031250,-136.38,91.35
197218,2018-06-29 10:27:35.062500,-132.91,91.35
197219,2018-06-29 10:27:35.093750,-136.07,91.35
197220,2018-06-29 10:27:35.125000,-139.15,91.35
197221,2018-06-29 10:27:35.156250,-135.98,91.35
197222,2018-06-29 10:27:35.187500,-125.79,91.35
197223,2018-06-29 10:27:35.218750,-112.02,91.35
197224,2018-06-29 10:27:35.250000,-96.98,91.35
197225,2018-06-29 10:27:35.281250,-81.13,91.35
197226,2018-06-29 10:27:35.312500,-66.29,91.35
197227,2018-06-29 10:27:35.343750,-52.64,91.35
197228,2018-06-29 10:27:35.375000,-33.16,91.35
197229,2018-06-29 10:27:35.406250,-0.76,91.35
197230,2018-06-29 10:27:35.437500,37.93,91.35
197231,2018-06-29 10:27:35.468750,66.01,91.35
197232,2018-06-29 10:27:35.500000,74.81,91.35
197233,2018-06-29 10:27:35.531250,69.41,91.48
197234,2018-06-29 10:27:35.562500,57.77,91.48
197235,2018-06-29 10:27:35.593750,43.54,91.48
197236,2018-06-29 10:27:35.625000,27.7,91.48
197237,2018-06-29 10:27:35.656250,11.25,91.48
197238,2018-06-29 10:27:35.687500,-3.88,91.48
197239,2018-06-29 10:27:35.718750,-14.67,91.48
197240,2018-06-29 10:27:35.750000,-17.89,91.48
197241,2018-06-29 10:27:35.781250,-12.27,91.48
197242,2018-06-29 10:27:35.812500,-0.49,91.48
197243,2018-06-29 10:27:35.843750,11.38,91.48
197244,2018-06-29 10:27:35.875000,18.77,91.48
197245,2018-06-29 10:27:35.906250,21.49,91.48
197246,2018-06-29 10:27:35.937500,20.86,91.48
197247,2018-06-29 10:27:35.968750,17.02,91.48
197248,2018-06-29 10:27:36.000000,10.24,91.48
197249,2018-06-29 10:27:36.031250,2.03,91.48
197250,2018-06-29 10:27:36.062500,-6.86,91.48
197251,2018-06-29 10:27:36.093750,-17.76,91.48
197252,2018-06-29 10:27:36.125000,-32.97,91.48
197253,2018-06-29 10:27:36.156250,-52.33,91.48
197254,2018-06-29 10:27:36.187500,-68.4,91.48
197255,2018-06-29 10:27:36.218750,-67.69,91.48
197256,2018-06-29 10:27:36.250000,-43.6,91.48
197257,2018-06-29 10:27:36.281250,-6.07,91.48
197258,2018-06-29 10:27:36.312500,28.83,91.48
197259,2018-06-29 10:27:36.343750,54.61,91.48
197260,2018-06-29 10:27:36.375000,72.96,91.48
197261,2018-06-29 10:27:36.406250,83.91,91.48
197262,2018-06-29 10:27:36.437500,86.07,91.48
197263,2018-06-29 10:27:36.468750,81.65,91.48
197264,2018-06-29 10:27:36.500000,74.79,91.48
197265,2018-06-29 10:27:36.531250,68.24,91.53
197266,2018-06-29 10:27:36.562500,63.5,91.53
197267,2018-06-29 10:27:36.593750,61.18,91.53
197268,2018-06-29 10:27:36.625000,59.94,91.53
197269,2018-06-29 10:27:36.656250,57.15,91.53
197270,2018-06-29 10:27:36.687500,51.33,91.53
197271,2018-06-29 10:27:36.718750,43.18,91.53
197272,2018-06-29 10:27:36.750000,34.72,91.53
197273,2018-06-29 10:27:36.781250,27.72,91.53
197274,2018-06-29 10:27:36.812500,22.04,91.53
197275,2018-06-29 10:27:36.843750,16.49,91.53
197276,2018-06-29 10:27:36.875000,10.8,91.53
197277,2018-06-29 10:27:36.906250,5.4,91.53
197278,2018-06-29 10:27:36.937500,0.21,91.53
197279,2018-06-29 10:27:36.968750,-4.71,91.53
197280,2018-06-29 10:27:37.000000,-9.07,91.53
197281,2018-06-29 10:27:37.031250,-13.94,91.53
197282,2018-06-29 10:27:37.062500,-20.73,91.53
197283,2018-06-29 10:27:37.093750,-28.59,91.53
197284,2018-06-29 10:27:37.125000,-35.6,91.53
197285,2018-06-29 10:27:37.156250,-42.38,91.53
197286,2018-06-29 10:27:37.187500,-51.43,91.53
197287,2018-06-29 10:27:37.218750,-62.87,91.53
197288,2018-06-29 10:27:37.250000,-73.84,91.53
197289,2018-06-29 10:27:37.281250,-82.69,91.53
197290,2018-06-29 10:27:37.312500,-91.5,91.53
197291,2018-06-29 10:27:37.343750,-104.26,91.53
197292,2018-06-29 10:27:37.375000,-121.29,91.53
197293,2018-06-29 10:27:37.406250,-133.09,91.53
197294,2018-06-29 10:27:37.437500,-124.11,91.53
197295,2018-06-29 10:27:37.468750,-89.07,91.53
197296,2018-06-29 10:27:37.500000,-41.68,91.53
197297,2018-06-29 10:27:37.531250,-0.2,91.55
197298,2018-06-29 10:27:37.562500,28.26,91.55
197299,2018-06-29 10:27:37.593750,46.89,91.55
197300,2018-06-29 10:27:37.625000,59.5,91.55
197301,2018-06-29 10:27:37.656250,66.89,91.55
197302,2018-06-29 10:27:37.687500,69.12,91.55
197303,2018-06-29 10:27:37.718750,68.49,91.55
197304,2018-06-29 10:27:37.750000,68.92,91.55
197305,2018-06-29 10:27:37.781250,71.13,91.55
197306,2018-06-29 10:27:37.812500,73.47,91.55
197307,2018-06-29 10:27:37.843750,73.01,91.55
197308,2018-06-29 10:27:37.875000,70.32,91.55
197309,2018-06-29 10:27:37.906250,65.95,91.55
197310,2018-06-29 10:27:37.937500,60.08,91.55
197311,2018-06-29 10:27:37.968750,52.25,91.55
197312,2018-06-29 10:27:38.000000,42.62,91.55
197313,2018-06-29 10:27:38.031250,35.05,91.55
197314,2018-06-29 10:27:38.062500,28.61,91.55
197315,2018-06-29 10:27:38.093750,23.47,91.55
197316,2018-06-29 10:27:38.125000,16.07,91.55
197317,2018-06-29 10:27:38.156250,9.89,91.55
197318,2018-06-29 10:27:38.187500,4.35,91.55
197319,2018-06-29 10:27:38.218750,-5.15,91.55
197320,2018-06-29 10:27:38.250000,-26.58,91.55
197321,2018-06-29 10:27:38.281250,-73.41,91.55
197322,2018-06-29 10:27:38.312500,-142.57,91.55
197323,2018-06-29 10:27:38.343750,-209.53,91.55
197324,2018-06-29 10:27:38.375000,-196.98,91.55
197325,2018-06-29 10:27:38.406250,-87.16,91.55
197326,2018-06-29 10:27:38.437500,30.61,91.55
197327,2018-06-29 10:27:38.468750,124.22,91.55
197328,2018-06-29 10:27:38.500000,163.5,91.55
197329,2018-06-29 10:27:38.531250,120.29,91.57
197330,2018-06-29 10:27:38.562500,43.8,91.57
197331,2018-06-29 10:27:38.593750,14.02,91.57
197332,2018-06-29 10:27:38.625000,28.16,91.57
197333,2018-06-29 10:27:38.656250,44.98,91.57
197334,2018-06-29 10:27:38.687500,44.97,91.57
197335,2018-06-29 10:27:38.718750,38.16,91.57
197336,2018-06-29 10:27:38.750000,28.44,91.57
197337,2018-06-29 10:27:38.781250,13.95,91.57
197338,2018-06-29 10:27:38.812500,-4.31,91.57
197339,2018-06-29 10:27:38.843750,-27.13,91.57
197340,2018-06-29 10:27:38.875000,-54.25,91.57
197341,2018-06-29 10:27:38.906250,-95.46,91.57
197342,2018-06-29 10:27:38.937500,-133.02,91.57
197343,2018-06-29 10:27:38.968750,-161.17,91.57
197344,2018-06-29 10:27:39.000000,-189.18,91.57
197345,2018-06-29 10:27:39.031250,-195.03,91.57
197346,2018-06-29 10:27:39.062500,-157.11,91.57
197347,2018-06-29 10:27:39.093750,-75.66,91.57
197348,2018-06-29 10:27:39.125000,2.1,91.57
197349,2018-06-29 10:27:39.156250,41.27,91.57
197350,2018-06-29 10:27:39.187500,44.17,91.57
197351,2018-06-29 10:27:39.218750,23.84,91.57
197352,2018-06-29 10:27:39.250000,-8.48,91.57
197353,2018-06-29 10:27:39.281250,-31.28,91.57
197354,2018-06-29 10:27:39.312500,-36.5,91.57
197355,2018-06-29 10:27:39.343750,-36.39,91.57
197356,2018-06-29 10:27:39.375000,-40.39,91.57
197357,2018-06-29 10:27:39.406250,-45.38,91.57
197358,2018-06-29 10:27:39.437500,-45.88,91.57
197359,2018-06-29 10:27:39.468750,-48.76,91.57
197360,2018-06-29 10:27:39.500000,-64.63,91.57
197361,2018-06-29 10:27:39.531250,-95.99,91.53
197362,2018-06-29 10:27:39.562500,-133.63,91.53
197363,2018-06-29 10:27:39.593750,-164.32,91.53
197364,2018-06-29 10:27:39.625000,-174.72,91.53
197365,2018-06-29 10:27:39.656250,-154.69,91.53
197366,2018-06-29 10:27:39.687500,-107.51,91.53
197367,2018-06-29 10:27:39.718750,-48.34,91.53
197368,2018-06-29 10:27:39.750000,10.1,91.53
197369,2018-06-29 10:27:39.781250,65.03,91.53
197370,2018-06-29 10:27:39.812500,115.73,91.53
197371,2018-06-29 10:27:39.843750,157.53,91.53
197372,2018-06-29 10:27:39.875000,186.46,91.53
197373,2018-06-29 10:27:39.906250,203.68,91.53
197374,2018-06-29 10:27:39.937500,212.56,91.53
197375,2018-06-29 10:27:39.968750,214.57,91.53
197376,2018-06-29 10:27:40.000000,211.06,91.53
197377,2018-06-29 10:27:40.031250,205.14,91.53
197378,2018-06-29 10:27:40.062500,197.98,91.53
197379,2018-06-29 10:27:40.093750,186.99,91.53
197380,2018-06-29 10:27:40.125000,170.42,91.53
197381,2018-06-29 10:27:40.156250,149.46,91.53
197382,2018-06-29 10:27:40.187500,125.13,91.53
197383,2018-06-29 10:27:40.218750,98.05,91.53
197384,2018-06-29 10:27:40.250000,71.14,91.53
197385,2018-06-29 10:27:40.281250,47.87,91.53
197386,2018-06-29 10:27:40.312500,27.67,91.53
197387,2018-06-29 10:27:40.343750,7.56,91.53
197388,2018-06-29 10:27:40.375000,-12.67,91.53
197389,2018-06-29 10:27:40.406250,-30.93,91.53
197390,2018-06-29 10:27:40.437500,-47.19,91.53
197391,2018-06-29 10:27:40.468750,-63.89,91.53
197392,2018-06-29 10:27:40.500000,-83.47,91.53
197393,2018-06-29 10:27:40.531250,-105.41,91.48
197394,2018-06-29 10:27:40.562500,-121.74,91.48
197395,2018-06-29 10:27:40.593750,-119.28,91.48
197396,2018-06-29 10:27:40.625000,-93.3,91.48
197397,2018-06-29 10:27:40.656250,-55.08,91.48
197398,2018-06-29 10:27:40.687500,-20.77,91.48
197399,2018-06-29 10:27:40.718750,2.21,91.48
197400,2018-06-29 10:27:40.750000,14.77,91.48
197401,2018-06-29 10:27:40.781250,19.44,91.48
197402,2018-06-29 10:27:40.812500,19.09,91.48
197403,2018-06-29 10:27:40.843750,17.77,91.48
197404,2018-06-29 10:27:40.875000,18.2,91.48
197405,2018-06-29 10:27:40.906250,19.96,91.48
197406,2018-06-29 10:27:40.937500,22.29,91.48
197407,2018-06-29 10:27:40.968750,25.51,91.48
197408,2018-06-29 10:27:41.000000,28.27,91.48
197409,2018-06-29 10:27:41.031250,27.35,91.48
197410,2018-06-29 10:27:41.062500,21.75,91.48
197411,2018-06-29 10:27:41.093750,14.07,91.48
197412,2018-06-29 10:27:41.125000,6.68,91.48
197413,2018-06-29 10:27:41.156250,-1.52,91.48
197414,2018-06-29 10:27:41.187500,-12.64,91.48
197415,2018-06-29 10:27:41.218750,-25.47,91.48
197416,2018-06-29 10:27:41.250000,-36.82,91.48
197417,2018-06-29 10:27:41.281250,-46.78,91.48
197418,2018-06-29 10:27:41.312500,-59.08,91.48
197419,2018-06-29 10:27:41.343750,-75.33,91.48
197420,2018-06-29 10:27:41.375000,-89.32,91.48
197421,2018-06-29 10:27:41.406250,-88.37,91.48
197422,2018-06-29 10:27:41.437500,-64.68,91.48
197423,2018-06-29 10:27:41.468750,-25.5,91.48
197424,2018-06-29 10:27:41.500000,12.81,91.48
197425,2018-06-29 10:27:41.531250,39.96,91.4
197426,2018-06-29 10:27:41.562500,55.74,91.4
197427,2018-06-29 10:27:41.593750,62.96,91.4
197428,2018-06-29 10:27:41.625000,63.56,91.4
197429,2018-06-29 10:27:41.656250,60.13,91.4
197430,2018-06-29 10:27:41.687500,55.95,91.4
197431,2018-06-29 10:27:41.718750,53.14,91.4
197432,2018-06-29 10:27:41.750000,52.34,91.4
197433,2018-06-29 10:27:41.781250,53.16,91.4
197434,2018-06-29 10:27:41.812500,53.97,91.4
197435,2018-06-29 10:27:41.843750,52.07,91.4
197436,2018-06-29 10:27:41.875000,45.73,91.4
197437,2018-06-29 10:27:41.906250,36.1,91.4
197438,2018-06-29 10:27:41.937500,26.2,91.4
197439,2018-06-29 10:27:41.968750,17.73,91.4
197440,2018-06-29 10:27:42.000000,9.88,91.4
197441,2018-06-29 10:27:42.031250,1.05,91.4
197442,2018-06-29 10:27:42.062500,-8.54,91.4
197443,2018-06-29 10:27:42.093750,-16.78,91.4
197444,2018-06-29 10:27:42.125000,-24.09,91.4
197445,2018-06-29 10:27:42.156250,-35.54,91.4
197446,2018-06-29 10:27:42.187500,-51.93,91.4
197447,2018-06-29 10:27:42.218750,-59.84,91.4
197448,2018-06-29 10:27:42.250000,-40.96,91.4
197449,2018-06-29 10:27:42.281250,7.58,91.4
197450,2018-06-29 10:27:42.312500,67.65,91.4
197451,2018-06-29 10:27:42.343750,112.62,91.4
197452,2018-06-29 10:27:42.375000,125.49,91.4
197453,2018-06-29 10:27:42.406250,109.84,91.4
197454,2018-06-29 10:27:42.437500,83.52,91.4
197455,2018-06-29 10:27:42.468750,62.76,91.4
197456,2018-06-29 10:27:42.500000,56.07,91.4
197457,2018-06-29 10:27:42.531250,65.68,91.33
197458,2018-06-29 10:27:42.562500,86.54,91.33
197459,2018-06-29 10:27:42.593750,108.27,91.33
197460,2018-06-29 10:27:42.625000,120.94,91.33
197461,2018-06-29 10:27:42.656250,120.38,91.33
197462,2018-06-29 10:27:42.687500,112.93,91.33
197463,2018-06-29 10:27:42.718750,107.44,91.33
197464,2018-06-29 10:27:42.750000,97.13,91.33
197465,2018-06-29 10:27:42.781250,64.47,91.33
197466,2018-06-29 10:27:42.812500,8.24,91.33
197467,2018-06-29 10:27:42.843750,-53.28,91.33
197468,2018-06-29 10:27:42.875000,-106.36,91.33
197469,2018-06-29 10:27:42.906250,-150.55,91.33
197470,2018-06-29 10:27:42.937500,-186.11,91.33
197471,2018-06-29 10:27:42.968750,-210.05,91.33
197472,2018-06-29 10:27:43.000000,-221.43,91.33
197473,2018-06-29 10:27:43.031250,-219.69,91.33
197474,2018-06-29 10:27:43.062500,-203.04,91.33
197475,2018-06-29 10:27:43.093750,-173.77,91.33
197476,2018-06-29 10:27:43.125000,-140.15,91.33
197477,2018-06-29 10:27:43.156250,-109.75,91.33
197478,2018-06-29 10:27:43.187500,-85.23,91.33
197479,2018-06-29 10:27:43.218750,-66.65,91.33
197480,2018-06-29 10:27:43.250000,-54.18,91.33
197481,2018-06-29 10:27:43.281250,-47.82,91.33
197482,2018-06-29 10:27:43.312500,-45.58,91.33
197483,2018-06-29 10:27:43.343750,-43.53,91.33
197484,2018-06-29 10:27:43.375000,-38.99,91.33
197485,2018-06-29 10:27:43.406250,-32.33,91.33
197486,2018-06-29 10:27:43.437500,-25.19,91.33
197487,2018-06-29 10:27:43.468750,-19.04,91.33
197488,2018-06-29 10:27:43.500000,-15.82,91.33
197489,2018-06-29 10:27:43.531250,-17.61,91.17
197490,2018-06-29 10:27:43.562500,-23.87,91.17
197491,2018-06-29 10:27:43.593750,-30.88,91.17
197492,2018-06-29 10:27:43.625000,-35.75,91.17
197493,2018-06-29 10:27:43.656250,-39.87,91.17
197494,2018-06-29 10:27:43.687500,-46.72,91.17
197495,2018-06-29 10:27:43.718750,-57.16,91.17
197496,2018-06-29 10:27:43.750000,-65.87,91.17
197497,2018-06-29 10:27:43.781250,-63.89,91.17
197498,2018-06-29 10:27:43.812500,-48.74,91.17
197499,2018-06-29 10:27:43.843750,-29.31,91.17
197500,2018-06-29 10:27:43.875000,-14.91,91.17
197501,2018-06-29 10:27:43.906250,-4.8,91.17
197502,2018-06-29 10:27:43.937500,6.48,91.17
197503,2018-06-29 10:27:43.968750,19.92,91.17
197504,2018-06-29 10:27:44.000000,33.79,91.17
197505,2018-06-29 10:27:44.031250,48.53,91.17
197506,2018-06-29 10:27:44.062500,65.41,91.17
197507,2018-06-29 10:27:44.093750,82.94,91.17
197508,2018-06-29 10:27:44.125000,98.09,91.17
197509,2018-06-29 10:27:44.156250,108.9,91.17
197510,2018-06-29 10:27:44.187500,113.18,91.17
197511,2018-06-29 10:27:44.218750,107.62,91.17
197512,2018-06-29 10:27:44.250000,90.93,91.17
197513,2018-06-29 10:27:44.281250,66.3,91.17
197514,2018-06-29 10:27:44.312500,38.5,91.17
197515,2018-06-29 10:27:44.343750,9.5,91.17
197516,2018-06-29 10:27:44.375000,-20.35,91.17
197517,2018-06-29 10:27:44.406250,-48.18,91.17
197518,2018-06-29 10:27:44.437500,-68.19,91.17
197519,2018-06-29 10:27:44.468750,-76.3,91.17
197520,2018-06-29 10:27:44.500000,-74.37,91.17
197521,2018-06-29 10:27:44.531250,-68.9,90.95
197522,2018-06-29 10:27:44.562500,-64.33,90.95
197523,2018-06-29 10:27:44.593750,-56.67,90.95
197524,2018-06-29 10:27:44.625000,-36.49,90.95
197525,2018-06-29 10:27:44.656250,-0.2,90.95
197526,2018-06-29 10:27:44.687500,44.25,90.95
197527,2018-06-29 10:27:44.718750,84.56,90.95
197528,2018-06-29 10:27:44.750000,114.33,90.95
197529,2018-06-29 10:27:44.781250,134.15,90.95
197530,2018-06-29 10:27:44.812500,145.17,90.95
197531,2018-06-29 10:27:44.843750,145.9,90.95
197532,2018-06-29 10:27:44.875000,136.35,90.95
197533,2018-06-29 10:27:44.906250,120.86,90.95
197534,2018-06-29 10:27:44.937500,104.03,90.95
197535,2018-06-29 10:27:44.968750,87.5,90.95
197536,2018-06-29 10:27:45.000000,72.21,90.95
197537,2018-06-29 10:27:45.031250,59.53,90.95
197538,2018-06-29 10:27:45.062500,49.01,90.95
197539,2018-06-29 10:27:45.093750,38.94,90.95
197540,2018-06-29 10:27:45.125000,29.23,90.95
197541,2018-06-29 10:27:45.156250,20.98,90.95
197542,2018-06-29 10:27:45.187500,13.61,90.95
197543,2018-06-29 10:27:45.218750,5.0,90.95
197544,2018-06-29 10:27:45.250000,-5.65,90.95
197545,2018-06-29 10:27:45.281250,-16.65,90.95
197546,2018-06-29 10:27:45.312500,-25.89,90.95
197547,2018-06-29 10:27:45.343750,-33.57,90.95
197548,2018-06-29 10:27:45.375000,-41.63,90.95
197549,2018-06-29 10:27:45.406250,-51.47,90.95
197550,2018-06-29 10:27:45.437500,-62.68,90.95
197551,2018-06-29 10:27:45.468750,-73.7,90.95
197552,2018-06-29 10:27:45.500000,-82.99,90.95
197553,2018-06-29 10:27:45.531250,-89.16,90.68
197554,2018-06-29 10:27:45.562500,-90.06,90.68
197555,2018-06-29 10:27:45.593750,-82.57,90.68
197556,2018-06-29 10:27:45.625000,-65.37,90.68
197557,2018-06-29 10:27:45.656250,-41.96,90.68
197558,2018-06-29 10:27:45.687500,-18.82,90.68
197559,2018-06-29 10:27:45.718750,0.83,90.68
197560,2018-06-29 10:27:45.750000,18.66,90.68
197561,2018-06-29 10:27:45.781250,33.73,90.68
197562,2018-06-29 10:27:45.812500,39.23,90.68
197563,2018-06-29 10:27:45.843750,34.3,90.68
197564,2018-06-29 10:27:45.875000,32.97,90.68
197565,2018-06-29 10:27:45.906250,50.33,90.68
197566,2018-06-29 10:27:45.937500,84.35,90.68
197567,2018-06-29 10:27:45.968750,118.87,90.68
197568,2018-06-29 10:27:46.000000,138.12,90.68
197569,2018-06-29 10:27:46.031250,135.35,90.68
197570,2018-06-29 10:27:46.062500,116.29,90.68
197571,2018-06-29 10:27:46.093750,96.49,90.68
197572,2018-06-29 10:27:46.125000,87.92,90.68
197573,2018-06-29 10:27:46.156250,88.55,90.68
197574,2018-06-29 10:27:46.187500,89.66,90.68
197575,2018-06-29 10:27:46.218750,89.25,90.68
197576,2018-06-29 10:27:46.250000,91.7,90.68
197577,2018-06-29 10:27:46.281250,97.91,90.68
197578,2018-06-29 10:27:46.312500,102.73,90.68
197579,2018-06-29 10:27:46.343750,99.52,90.68
197580,2018-06-29 10:27:46.375000,83.33,90.68
197581,2018-06-29 10:27:46.406250,53.92,90.68
197582,2018-06-29 10:27:46.437500,17.5,90.68
197583,2018-06-29 10:27:46.468750,-18.47,90.68
197584,2018-06-29 10:27:46.500000,-50.99,90.68
197585,2018-06-29 10:27:46.531250,-79.62,90.4
197586,2018-06-29 10:27:46.562500,-103.8,90.4
197587,2018-06-29 10:27:46.593750,-123.7,90.4
197588,2018-06-29 10:27:46.625000,-139.97,90.4
197589,2018-06-29 10:27:46.656250,-152.39,90.4
197590,2018-06-29 10:27:46.687500,-161.25,90.4
197591,2018-06-29 10:27:46.718750,-167.47,90.4
197592,2018-06-29 10:27:46.750000,-170.15,90.4
197593,2018-06-29 10:27:46.781250,-167.78,90.4
197594,2018-06-29 10:27:46.812500,-162.68,90.4
197595,2018-06-29 10:27:46.843750,-159.59,90.4
197596,2018-06-29 10:27:46.875000,-158.37,90.4
197597,2018-06-29 10:27:46.906250,-154.36,90.4
197598,2018-06-29 10:27:46.937500,-146.57,90.4
197599,2018-06-29 10:27:46.968750,-140.26,90.4
197600,2018-06-29 10:27:47.000000,-141.51,90.4
197601,2018-06-29 10:27:47.031250,-151.04,90.4
197602,2018-06-29 10:27:47.062500,-156.64,90.4
197603,2018-06-29 10:27:47.093750,-136.86,90.4
197604,2018-06-29 10:27:47.125000,-88.02,90.4
197605,2018-06-29 10:27:47.156250,-37.39,90.4
197606,2018-06-29 10:27:47.187500,-12.31,90.4
197607,2018-06-29 10:27:47.218750,-11.69,90.4
197608,2018-06-29 10:27:47.250000,-22.08,90.4
197609,2018-06-29 10:27:47.281250,-38.79,90.4
197610,2018-06-29 10:27:47.312500,-58.02,90.4
197611,2018-06-29 10:27:47.343750,-70.38,90.4
197612,2018-06-29 10:27:47.375000,-71.76,90.4
197613,2018-06-29 10:27:47.406250,-66.83,90.4
197614,2018-06-29 10:27:47.437500,-58.43,90.4
197615,2018-06-29 10:27:47.468750,-43.77,90.4
197616,2018-06-29 10:27:47.500000,-22.51,90.4
197617,2018-06-29 10:27:47.531250,-0.35,90.13
197618,2018-06-29 10:27:47.562500,17.43,90.13
197619,2018-06-29 10:27:47.593750,31.0,90.13
197620,2018-06-29 10:27:47.625000,42.84,90.13
197621,2018-06-29 10:27:47.656250,52.24,90.13
197622,2018-06-29 10:27:47.687500,56.05,90.13
197623,2018-06-29 10:27:47.718750,54.54,90.13
197624,2018-06-29 10:27:47.750000,52.25,90.13
197625,2018-06-29 10:27:47.781250,51.52,90.13
197626,2018-06-29 10:27:47.812500,49.48,90.13
197627,2018-06-29 10:27:47.843750,43.72,90.13
197628,2018-06-29 10:27:47.875000,36.02,90.13
197629,2018-06-29 10:27:47.906250,28.14,90.13
197630,2018-06-29 10:27:47.937500,18.11,90.13
197631,2018-06-29 10:27:47.968750,3.71,90.13
197632,2018-06-29 10:27:48.000000,-13.15,90.13
197633,2018-06-29 10:27:48.031250,-28.46,90.13
197634,2018-06-29 10:27:48.062500,-41.25,90.13
197635,2018-06-29 10:27:48.093750,-54.51,90.13
197636,2018-06-29 10:27:48.125000,-71.28,90.13
197637,2018-06-29 10:27:48.156250,-88.03,90.13
197638,2018-06-29 10:27:48.187500,-91.92,90.13
197639,2018-06-29 10:27:48.218750,-70.87,90.13
197640,2018-06-29 10:27:48.250000,-28.33,90.13
197641,2018-06-29 10:27:48.281250,18.1,90.13
197642,2018-06-29 10:27:48.312500,53.74,90.13
197643,2018-06-29 10:27:48.343750,76.08,90.13
197644,2018-06-29 10:27:48.375000,89.04,90.13
197645,2018-06-29 10:27:48.406250,95.54,90.13
197646,2018-06-29 10:27:48.437500,96.73,90.13
197647,2018-06-29 10:27:48.468750,94.55,90.13
197648,2018-06-29 10:27:48.500000,91.94,90.13
197649,2018-06-29 10:27:48.531250,90.81,89.88
197650,2018-06-29 10:27:48.562500,91.31,89.88
197651,2018-06-29 10:27:48.593750,92.62,89.88
197652,2018-06-29 10:27:48.625000,92.92,89.88
197653,2018-06-29 10:27:48.656250,89.63,89.88
197654,2018-06-29 10:27:48.687500,81.93,89.88
197655,2018-06-29 10:27:48.718750,71.79,89.88
197656,2018-06-29 10:27:48.750000,61.68,89.88
197657,2018-06-29 10:27:48.781250,52.46,89.88
197658,2018-06-29 10:27:48.812500,43.99,89.88
197659,2018-06-29 10:27:48.843750,35.63,89.88
197660,2018-06-29 10:27:48.875000,26.54,89.88
197661,2018-06-29 10:27:48.906250,16.75,89.88
197662,2018-06-29 10:27:48.937500,7.06,89.88
197663,2018-06-29 10:27:48.968750,-2.73,89.88
197664,2018-06-29 10:27:49.000000,-13.89,89.88
197665,2018-06-29 10:27:49.031250,-26.9,89.88
197666,2018-06-29 10:27:49.062500,-40.56,89.88
197667,2018-06-29 10:27:49.093750,-53.16,89.88
197668,2018-06-29 10:27:49.125000,-63.96,89.88
197669,2018-06-29 10:27:49.156250,-74.97,89.88
197670,2018-06-29 10:27:49.187500,-90.7,89.88
197671,2018-06-29 10:27:49.218750,-111.01,89.88
197672,2018-06-29 10:27:49.250000,-122.59,89.88
197673,2018-06-29 10:27:49.281250,-106.12,89.88
197674,2018-06-29 10:27:49.312500,-58.05,89.88
197675,2018-06-29 10:27:49.343750,2.46,89.88
197676,2018-06-29 10:27:49.375000,52.68,89.88
197677,2018-06-29 10:27:49.406250,84.47,89.88
197678,2018-06-29 10:27:49.437500,101.26,89.88
197679,2018-06-29 10:27:49.468750,107.89,89.88
197680,2018-06-29 10:27:49.500000,107.44,89.88
197681,2018-06-29 10:27:49.531250,102.64,89.62
197682,2018-06-29 10:27:49.562500,96.59,89.62
197683,2018-06-29 10:27:49.593750,91.75,89.62
197684,2018-06-29 10:27:49.625000,89.11,89.62
197685,2018-06-29 10:27:49.656250,88.06,89.62
197686,2018-06-29 10:27:49.687500,86.5,89.62
197687,2018-06-29 10:27:49.718750,81.52,89.62
197688,2018-06-29 10:27:49.750000,71.43,89.62
197689,2018-06-29 10:27:49.781250,56.9,89.62
197690,2018-06-29 10:27:49.812500,40.46,89.62
197691,2018-06-29 10:27:49.843750,25.32,89.62
197692,2018-06-29 10:27:49.875000,12.77,89.62
197693,2018-06-29 10:27:49.906250,0.88,89.62
197694,2018-06-29 10:27:49.937500,-12.74,89.62
197695,2018-06-29 10:27:49.968750,-27.51,89.62
197696,2018-06-29 10:27:50.000000,-40.74,89.62
197697,2018-06-29 10:27:50.031250,-51.16,89.62
197698,2018-06-29 10:27:50.062500,-60.84,89.62
197699,2018-06-29 10:27:50.093750,-74.04,89.62
197700,2018-06-29 10:27:50.125000,-92.05,89.62
197701,2018-06-29 10:27:50.156250,-106.63,89.62
197702,2018-06-29 10:27:50.187500,-101.61,89.62
197703,2018-06-29 10:27:50.218750,-67.58,89.62
197704,2018-06-29 10:27:50.250000,-14.84,89.62
197705,2018-06-29 10:27:50.281250,34.24,89.62
197706,2018-06-29 10:27:50.312500,65.47,89.62
197707,2018-06-29 10:27:50.343750,80.28,89.62
197708,2018-06-29 10:27:50.375000,85.11,89.62
197709,2018-06-29 10:27:50.406250,82.53,89.62
197710,2018-06-29 10:27:50.437500,74.69,89.62
197711,2018-06-29 10:27:50.468750,66.63,89.62
197712,2018-06-29 10:27:50.500000,61.43,89.62
197713,2018-06-29 10:27:50.531250,57.81,89.35
197714,2018-06-29 10:27:50.562500,55.1,89.35
197715,2018-06-29 10:27:50.593750,53.88,89.35
197716,2018-06-29 10:27:50.625000,51.18,89.35
197717,2018-06-29 10:27:50.656250,41.89,89.35
197718,2018-06-29 10:27:50.687500,26.42,89.35
197719,2018-06-29 10:27:50.718750,11.0,89.35
197720,2018-06-29 10:27:50.750000,-0.76,89.35
197721,2018-06-29 10:27:50.781250,-11.84,89.35
197722,2018-06-29 10:27:50.812500,-25.75,89.35
197723,2018-06-29 10:27:50.843750,-40.43,89.35
197724,2018-06-29 10:27:50.875000,-51.7,89.35
197725,2018-06-29 10:27:50.906250,-59.82,89.35
197726,2018-06-29 10:27:50.937500,-69.72,89.35
197727,2018-06-29 10:27:50.968750,-84.5,89.35
197728,2018-06-29 10:27:51.000000,-98.51,89.35
197729,2018-06-29 10:27:51.031250,-97.61,89.35
197730,2018-06-29 10:27:51.062500,-71.47,89.35
197731,2018-06-29 10:27:51.093750,-26.33,89.35
197732,2018-06-29 10:27:51.125000,19.53,89.35
197733,2018-06-29 10:27:51.156250,52.55,89.35
197734,2018-06-29 10:27:51.187500,70.91,89.35
197735,2018-06-29 10:27:51.218750,78.0,89.35
197736,2018-06-29 10:27:51.250000,76.91,89.35
197737,2018-06-29 10:27:51.281250,71.04,89.35
197738,2018-06-29 10:27:51.312500,64.76,89.35
197739,2018-06-29 10:27:51.343750,61.01,89.35
197740,2018-06-29 10:27:51.375000,59.76,89.35
197741,2018-06-29 10:27:51.406250,59.68,89.35
197742,2018-06-29 10:27:51.437500,59.19,89.35
197743,2018-06-29 10:27:51.468750,55.71,89.35
197744,2018-06-29 10:27:51.500000,47.25,89.35
197745,2018-06-29 10:27:51.531250,35.68,89.12
197746,2018-06-29 10:27:51.562500,24.92,89.12
197747,2018-06-29 10:27:51.593750,15.62,89.12
197748,2018-06-29 10:27:51.625000,5.49,89.12
197749,2018-06-29 10:27:51.656250,-5.72,89.12
197750,2018-06-29 10:27:51.687500,-15.77,89.12
197751,2018-06-29 10:27:51.718750,-24.46,89.12
197752,2018-06-29 10:27:51.750000,-34.19,89.12
197753,2018-06-29 10:27:51.781250,-45.5,89.12
197754,2018-06-29 10:27:51.812500,-56.07,89.12
197755,2018-06-29 10:27:51.843750,-65.07,89.12
197756,2018-06-29 10:27:51.875000,-74.77,89.12
197757,2018-06-29 10:27:51.906250,-87.64,89.12
197758,2018-06-29 10:27:51.937500,-102.51,89.12
197759,2018-06-29 10:27:51.968750,-110.26,89.12
197760,2018-06-29 10:27:52.000000,-97.21,89.12
197761,2018-06-29 10:27:52.031250,-60.24,89.12
197762,2018-06-29 10:27:52.062500,-14.3,89.12
197763,2018-06-29 10:27:52.093750,22.41,89.12
197764,2018-06-29 10:27:52.125000,44.87,89.12
197765,2018-06-29 10:27:52.156250,57.76,89.12
197766,2018-06-29 10:27:52.187500,63.83,89.12
197767,2018-06-29 10:27:52.218750,63.31,89.12
197768,2018-06-29 10:27:52.250000,59.09,89.12
197769,2018-06-29 10:27:52.281250,55.37,89.12
197770,2018-06-29 10:27:52.312500,53.37,89.12
197771,2018-06-29 10:27:52.343750,52.45,89.12
197772,2018-06-29 10:27:52.375000,52.51,89.12
197773,2018-06-29 10:27:52.406250,52.28,89.12
197774,2018-06-29 10:27:52.437500,48.65,89.12
197775,2018-06-29 10:27:52.468750,40.71,89.12
197776,2018-06-29 10:27:52.500000,31.35,89.12
197777,2018-06-29 10:27:52.531250,23.2,88.78
197778,2018-06-29 10:27:52.562500,16.01,88.78
197779,2018-06-29 10:27:52.593750,8.9,88.78
197780,2018-06-29 10:27:52.625000,2.33,88.78
197781,2018-06-29 10:27:52.656250,-3.1,88.78
197782,2018-06-29 10:27:52.687500,-8.31,88.78
197783,2018-06-29 10:27:52.718750,-14.68,88.78
197784,2018-06-29 10:27:52.750000,-21.73,88.78
197785,2018-06-29 10:27:52.781250,-27.83,88.78
197786,2018-06-29 10:27:52.812500,-33.34,88.78
197787,2018-06-29 10:27:52.843750,-40.43,88.78
197788,2018-06-29 10:27:52.875000,-49.45,88.78
197789,2018-06-29 10:27:52.906250,-58.52,88.78
