,Time,ppg,hr
198400,2018-06-29 10:28:12.000000,100.69,77.57
198401,2018-06-29 10:28:12.031250,124.56,77.57
198402,2018-06-29 10:28:12.062500,140.97,77.57
198403,2018-06-29 10:28:12.093750,147.12,77.57
198404,2018-06-29 10:28:12.125000,143.36,77.57
198405,2018-06-29 10:28:12.156250,134.04,77.57
198406,2018-06-29 10:28:12.187500,123.51,77.57
198407,2018-06-29 10:28:12.218750,114.42,77.57
198408,2018-06-29 10:28:12.250000,108.57,77.57
198409,2018-06-29 10:28:12.281250,105.53,77.57
198410,2018-06-29 10:28:12.312500,101.28,77.57
198411,2018-06-29 10:28:12.343750,92.65,77.57
198412,2018-06-29 10:28:12.375000,81.53,77.57
198413,2018-06-29 10:28:12.406250,71.64,77.57
198414,2018-06-29 10:28:12.437500,63.59,77.57
198415,2018-06-29 10:28:12.468750,55.45,77.57
198416,2018-06-29 10:28:12.500000,46.28,77.57
198417,2018-06-29 10:28:12.531250,37.05,76.9
198418,2018-06-29 10:28:12.562500,28.81,76.9
198419,2018-06-29 10:28:12.593750,20.92,76.9
198420,2018-06-29 10:28:12.625000,11.85,76.9
198421,2018-06-29 10:28:12.656250,1.37,76.9
198422,2018-06-29 10:28:12.687500,-9.16,76.9
198423,2018-06-29 10:28:12.718750,-19.29,76.9
198424,2018-06-29 10:28:12.750000,-30.27,76.9
198425,2018-06-29 10:28:12.781250,-42.48,76.9
198426,2018-06-29 10:28:12.812500,-54.04,76.9
198427,2018-06-29 10:28:12.843750,-63.58,76.9
198428,2018-06-29 10:28:12.875000,-72.91,76.9
198429,2018-06-29 10:28:12.906250,-85.55,76.9
198430,2018-06-29 10:28:12.937500,-101.34,76.9
198431,2018-06-29 10:28:12.968750,-111.48,76.9
198432,2018-06-29 10:28:13.000000,-103.05,76.9
198433,2018-06-29 10:28:13.031250,-72.99,76.9
198434,2018-06-29 10:28:13.062500,-32.97,76.9
198435,2018-06-29 10:28:13.093750,2.84,76.9
198436,2018-06-29 10:28:13.125000,29.3,76.9
198437,2018-06-29 10:28:13.156250,48.15,76.9
198438,2018-06-29 10:28:13.187500,60.94,76.9
198439,2018-06-29 10:28:13.218750,67.84,76.9
198440,2018-06-29 10:28:13.250000,70.01,76.9
198441,2018-06-29 10:28:13.281250,70.23,76.9
198442,2018-06-29 10:28:13.312500,70.66,76.9
198443,2018-06-29 10:28:13.343750,71.59,76.9
198444,2018-06-29 10:28:13.375000,72.66,76.9
198445,2018-06-29 10:28:13.406250,73.36,76.9
198446,2018-06-29 10:28:13.437500,72.99,76.9
198447,2018-06-29 10:28:13.468750,71.69,76.9
198448,2018-06-29 10:28:13.500000,70.45,76.9
198449,2018-06-29 10:28:13.531250,68.76,76.15
198450,2018-06-29 10:28:13.562500,63.79,76.15
198451,2018-06-29 10:28:13.593750,53.36,76.15
198452,2018-06-29 10:28:13.625000,38.64,76.15
198453,2018-06-29 10:28:13.656250,22.29,76.15
198454,2018-06-29 10:28:13.687500,5.61,76.15
198455,2018-06-29 10:28:13.718750,-10.53,76.15
198456,2018-06-29 10:28:13.750000,-24.22,76.15
198457,2018-06-29 10:28:13.781250,-34.38,76.15
198458,2018-06-29 10:28:13.812500,-41.94,76.15
198459,2018-06-29 10:28:13.843750,-48.02,76.15
198460,2018-06-29 10:28:13.875000,-53.42,76.15
198461,2018-06-29 10:28:13.906250,-59.15,76.15
198462,2018-06-29 10:28:13.937500,-65.7,76.15
198463,2018-06-29 10:28:13.968750,-72.72,76.15
198464,2018-06-29 10:28:14.000000,-80.29,76.15
198465,2018-06-29 10:28:14.031250,-88.87,76.15
198466,2018-06-29 10:28:14.062500,-96.26,76.15
198467,2018-06-29 10:28:14.093750,-95.54,76.15
198468,2018-06-29 10:28:14.125000,-80.39,76.15
198469,2018-06-29 10:28:14.156250,-53.68,76.15
198470,2018-06-29 10:28:14.187500,-26.02,76.15
198471,2018-06-29 10:28:14.218750,-4.88,76.15
198472,2018-06-29 10:28:14.250000,9.77,76.15
198473,2018-06-29 10:28:14.281250,19.9,76.15
198474,2018-06-29 10:28:14.312500,26.02,76.15
198475,2018-06-29 10:28:14.343750,29.25,76.15
198476,2018-06-29 10:28:14.375000,31.68,76.15
198477,2018-06-29 10:28:14.406250,34.19,76.15
198478,2018-06-29 10:28:14.437500,36.29,76.15
198479,2018-06-29 10:28:14.468750,37.67,76.15
198480,2018-06-29 10:28:14.500000,37.84,76.15
198481,2018-06-29 10:28:14.531250,35.76,75.43
198482,2018-06-29 10:28:14.562500,31.16,75.43
198483,2018-06-29 10:28:14.593750,25.65,75.43
198484,2018-06-29 10:28:14.625000,21.44,75.43
198485,2018-06-29 10:28:14.656250,18.99,75.43
198486,2018-06-29 10:28:14.687500,16.76,75.43
198487,2018-06-29 10:28:14.718750,13.69,75.43
198488,2018-06-29 10:28:14.750000,10.34,75.43
198489,2018-06-29 10:28:14.781250,6.99,75.43
198490,2018-06-29 10:28:14.812500,2.51,75.43
198491,2018-06-29 10:28:14.843750,-3.39,75.43
198492,2018-06-29 10:28:14.875000,-9.46,75.43
198493,2018-06-29 10:28:14.906250,-14.78,75.43
198494,2018-06-29 10:28:14.937500,-19.42,75.43
198495,2018-06-29 10:28:14.968750,-23.04,75.43
198496,2018-06-29 10:28:15.000000,-25.09,75.43
198497,2018-06-29 10:28:15.031250,-26.08,75.43
198498,2018-06-29 10:28:15.062500,-27.6,75.43
198499,2018-06-29 10:28:15.093750,-31.28,75.43
198500,2018-06-29 10:28:15.125000,-38.02,75.43
198501,2018-06-29 10:28:15.156250,-46.42,75.43
198502,2018-06-29 10:28:15.187500,-50.98,75.43
198503,2018-06-29 10:28:15.218750,-45.67,75.43
198504,2018-06-29 10:28:15.250000,-31.35,75.43
198505,2018-06-29 10:28:15.281250,-15.79,75.43
198506,2018-06-29 10:28:15.312500,-5.35,75.43
198507,2018-06-29 10:28:15.343750,-0.43,75.43
198508,2018-06-29 10:28:15.375000,1.45,75.43
198509,2018-06-29 10:28:15.406250,2.35,75.43
198510,2018-06-29 10:28:15.437500,3.28,75.43
198511,2018-06-29 10:28:15.468750,3.98,75.43
198512,2018-06-29 10:28:15.500000,3.79,75.43
198513,2018-06-29 10:28:15.531250,2.99,74.67
198514,2018-06-29 10:28:15.562500,3.12,74.67
198515,2018-06-29 10:28:15.593750,5.19,74.67
198516,2018-06-29 10:28:15.625000,8.03,74.67
198517,2018-06-29 10:28:15.656250,9.65,74.67
198518,2018-06-29 10:28:15.687500,9.48,74.67
198519,2018-06-29 10:28:15.718750,8.33,74.67
198520,2018-06-29 10:28:15.750000,6.78,74.67
198521,2018-06-29 10:28:15.781250,4.74,74.67
198522,2018-06-29 10:28:15.812500,1.72,74.67
198523,2018-06-29 10:28:15.843750,-2.5,74.67
198524,2018-06-29 10:28:15.875000,-6.93,74.67
198525,2018-06-29 10:28:15.906250,-9.76,74.67
198526,2018-06-29 10:28:15.937500,-10.4,74.67
198527,2018-06-29 10:28:15.968750,-10.11,74.67
198528,2018-06-29 10:28:16.000000,-10.6,74.67
198529,2018-06-29 10:28:16.031250,-13.9,74.67
198530,2018-06-29 10:28:16.062500,-22.38,74.67
198531,2018-06-29 10:28:16.093750,-34.84,74.67
198532,2018-06-29 10:28:16.125000,-43.96,74.67
198533,2018-06-29 10:28:16.156250,-42.43,74.67
198534,2018-06-29 10:28:16.187500,-31.03,74.67
198535,2018-06-29 10:28:16.218750,-17.24,74.67
198536,2018-06-29 10:28:16.250000,-6.81,74.67
198537,2018-06-29 10:28:16.281250,0.59,74.67
198538,2018-06-29 10:28:16.312500,7.57,74.67
198539,2018-06-29 10:28:16.343750,13.55,74.67
198540,2018-06-29 10:28:16.375000,15.57,74.67
198541,2018-06-29 10:28:16.406250,13.2,74.67
198542,2018-06-29 10:28:16.437500,9.01,74.67
198543,2018-06-29 10:28:16.468750,4.8,74.67
198544,2018-06-29 10:28:16.500000,0.5,74.67
198545,2018-06-29 10:28:16.531250,-3.94,73.92
198546,2018-06-29 10:28:16.562500,-8.45,73.92
198547,2018-06-29 10:28:16.593750,-13.48,73.92
198548,2018-06-29 10:28:16.625000,-18.97,73.92
198549,2018-06-29 10:28:16.656250,-23.55,73.92
198550,2018-06-29 10:28:16.687500,-26.17,73.92
198551,2018-06-29 10:28:16.718750,-27.93,73.92
198552,2018-06-29 10:28:16.750000,-31.04,73.92
198553,2018-06-29 10:28:16.781250,-36.33,73.92
198554,2018-06-29 10:28:16.812500,-42.18,73.92
198555,2018-06-29 10:28:16.843750,-45.6,73.92
198556,2018-06-29 10:28:16.875000,-44.31,73.92
198557,2018-06-29 10:28:16.906250,-38.22,73.92
198558,2018-06-29 10:28:16.937500,-29.23,73.92
198559,2018-06-29 10:28:16.968750,-19.99,73.92
198560,2018-06-29 10:28:17.000000,-12.1,73.92
198561,2018-06-29 10:28:17.031250,-3.88,73.92
198562,2018-06-29 10:28:17.062500,8.98,73.92
198563,2018-06-29 10:28:17.093750,27.79,73.92
198564,2018-06-29 10:28:17.125000,47.85,73.92
198565,2018-06-29 10:28:17.156250,63.04,73.92
198566,2018-06-29 10:28:17.187500,71.39,73.92
198567,2018-06-29 10:28:17.218750,74.74,73.92
198568,2018-06-29 10:28:17.250000,75.25,73.92
198569,2018-06-29 10:28:17.281250,73.55,73.92
198570,2018-06-29 10:28:17.312500,69.81,73.92
198571,2018-06-29 10:28:17.343750,65.31,73.92
198572,2018-06-29 10:28:17.375000,61.38,73.92
198573,2018-06-29 10:28:17.406250,57.33,73.92
198574,2018-06-29 10:28:17.437500,51.44,73.92
198575,2018-06-29 10:28:17.468750,43.43,73.92
198576,2018-06-29 10:28:17.500000,33.54,73.92
198577,2018-06-29 10:28:17.531250,21.17,73.22
198578,2018-06-29 10:28:17.562500,6.5,73.22
198579,2018-06-29 10:28:17.593750,-8.31,73.22
198580,2018-06-29 10:28:17.625000,-21.22,73.22
198581,2018-06-29 10:28:17.656250,-32.39,73.22
198582,2018-06-29 10:28:17.687500,-43.23,73.22
198583,2018-06-29 10:28:17.718750,-54.74,73.22
198584,2018-06-29 10:28:17.750000,-66.66,73.22
198585,2018-06-29 10:28:17.781250,-77.29,73.22
198586,2018-06-29 10:28:17.812500,-84.67,73.22
198587,2018-06-29 10:28:17.843750,-88.83,73.22
198588,2018-06-29 10:28:17.875000,-91.49,73.22
198589,2018-06-29 10:28:17.906250,-92.61,73.22
198590,2018-06-29 10:28:17.937500,-88.82,73.22
198591,2018-06-29 10:28:17.968750,-77.42,73.22
198592,2018-06-29 10:28:18.000000,-61.36,73.22
198593,2018-06-29 10:28:18.031250,-47.63,73.22
198594,2018-06-29 10:28:18.062500,-40.49,73.22
198595,2018-06-29 10:28:18.093750,-38.09,73.22
198596,2018-06-29 10:28:18.125000,-36.07,73.22
198597,2018-06-29 10:28:18.156250,-32.28,73.22
198598,2018-06-29 10:28:18.187500,-27.2,73.22
198599,2018-06-29 10:28:18.218750,-21.13,73.22
198600,2018-06-29 10:28:18.250000,-13.31,73.22
198601,2018-06-29 10:28:18.281250,-3.86,73.22
198602,2018-06-29 10:28:18.312500,4.77,73.22
198603,2018-06-29 10:28:18.343750,9.83,73.22
198604,2018-06-29 10:28:18.375000,10.75,73.22
198605,2018-06-29 10:28:18.406250,8.3,73.22
198606,2018-06-29 10:28:18.437500,2.56,73.22
198607,2018-06-29 10:28:18.468750,-5.87,73.22
198608,2018-06-29 10:28:18.500000,-14.11,73.22
198609,2018-06-29 10:28:18.531250,-19.6,72.53
198610,2018-06-29 10:28:18.562500,-22.89,72.53
198611,2018-06-29 10:28:18.593750,-25.72,72.53
198612,2018-06-29 10:28:18.625000,-28.3,72.53
198613,2018-06-29 10:28:18.656250,-30.12,72.53
198614,2018-06-29 10:28:18.687500,-32.17,72.53
198615,2018-06-29 10:28:18.718750,-36.2,72.53
198616,2018-06-29 10:28:18.750000,-42.78,72.53
198617,2018-06-29 10:28:18.781250,-50.91,72.53
198618,2018-06-29 10:28:18.812500,-56.46,72.53
198619,2018-06-29 10:28:18.843750,-52.67,72.53
198620,2018-06-29 10:28:18.875000,-36.55,72.53
198621,2018-06-29 10:28:18.906250,-13.54,72.53
198622,2018-06-29 10:28:18.937500,7.73,72.53
198623,2018-06-29 10:28:18.968750,22.82,72.53
198624,2018-06-29 10:28:19.000000,32.22,72.53
198625,2018-06-29 10:28:19.031250,38.01,72.53
198626,2018-06-29 10:28:19.062500,41.64,72.53
198627,2018-06-29 10:28:19.093750,43.35,72.53
198628,2018-06-29 10:28:19.125000,43.6,72.53
198629,2018-06-29 10:28:19.156250,43.87,72.53
198630,2018-06-29 10:28:19.187500,44.86,72.53
198631,2018-06-29 10:28:19.218750,45.77,72.53
198632,2018-06-29 10:28:19.250000,45.49,72.53
198633,2018-06-29 10:28:19.281250,43.57,72.53
198634,2018-06-29 10:28:19.312500,39.93,72.53
198635,2018-06-29 10:28:19.343750,34.7,72.53
198636,2018-06-29 10:28:19.375000,28.04,72.53
198637,2018-06-29 10:28:19.406250,20.4,72.53
198638,2018-06-29 10:28:19.437500,12.6,72.53
198639,2018-06-29 10:28:19.468750,4.82,72.53
198640,2018-06-29 10:28:19.500000,-3.26,72.53
198641,2018-06-29 10:28:19.531250,-11.28,71.98
198642,2018-06-29 10:28:19.562500,-18.5,71.98
198643,2018-06-29 10:28:19.593750,-25.01,71.98
198644,2018-06-29 10:28:19.625000,-31.11,71.98
198645,2018-06-29 10:28:19.656250,-37.37,71.98
198646,2018-06-29 10:28:19.687500,-45.3,71.98
198647,2018-06-29 10:28:19.718750,-52.93,71.98
198648,2018-06-29 10:28:19.750000,-52.01,71.98
198649,2018-06-29 10:28:19.781250,-36.88,71.98
198650,2018-06-29 10:28:19.812500,-12.58,71.98
198651,2018-06-29 10:28:19.843750,10.82,71.98
198652,2018-06-29 10:28:19.875000,27.7,71.98
198653,2018-06-29 10:28:19.906250,37.68,71.98
198654,2018-06-29 10:28:19.937500,41.79,71.98
198655,2018-06-29 10:28:19.968750,40.82,71.98
198656,2018-06-29 10:28:20.000000,36.12,71.98
198657,2018-06-29 10:28:20.031250,30.63,71.98
198658,2018-06-29 10:28:20.062500,26.88,71.98
198659,2018-06-29 10:28:20.093750,24.82,71.98
198660,2018-06-29 10:28:20.125000,23.6,71.98
198661,2018-06-29 10:28:20.156250,23.07,71.98
198662,2018-06-29 10:28:20.187500,21.82,71.98
198663,2018-06-29 10:28:20.218750,18.31,71.98
198664,2018-06-29 10:28:20.250000,13.98,71.98
198665,2018-06-29 10:28:20.281250,10.84,71.98
198666,2018-06-29 10:28:20.312500,7.19,71.98
198667,2018-06-29 10:28:20.343750,0.64,71.98
198668,2018-06-29 10:28:20.375000,-7.39,71.98
198669,2018-06-29 10:28:20.406250,-14.52,71.98
198670,2018-06-29 10:28:20.437500,-21.1,71.98
198671,2018-06-29 10:28:20.468750,-28.07,71.98
198672,2018-06-29 10:28:20.500000,-34.77,71.98
198673,2018-06-29 10:28:20.531250,-38.47,71.4
198674,2018-06-29 10:28:20.562500,-33.57,71.4
198675,2018-06-29 10:28:20.593750,-14.77,71.4
198676,2018-06-29 10:28:20.625000,15.9,71.4
198677,2018-06-29 10:28:20.656250,48.41,71.4
198678,2018-06-29 10:28:20.687500,73.06,71.4
198679,2018-06-29 10:28:20.718750,87.0,71.4
198680,2018-06-29 10:28:20.750000,92.48,71.4
198681,2018-06-29 10:28:20.781250,92.41,71.4
198682,2018-06-29 10:28:20.812500,89.69,71.4
198683,2018-06-29 10:28:20.843750,85.78,71.4
198684,2018-06-29 10:28:20.875000,75.58,71.4
198685,2018-06-29 10:28:20.906250,51.25,71.4
198686,2018-06-29 10:28:20.937500,15.8,71.4
198687,2018-06-29 10:28:20.968750,-17.89,71.4
198688,2018-06-29 10:28:21.000000,-43.4,71.4
198689,2018-06-29 10:28:21.031250,-63.29,71.4
198690,2018-06-29 10:28:21.062500,-77.85,71.4
198691,2018-06-29 10:28:21.093750,-85.98,71.4
198692,2018-06-29 10:28:21.125000,-92.02,71.4
198693,2018-06-29 10:28:21.156250,-99.43,71.4
198694,2018-06-29 10:28:21.187500,-103.45,71.4
198695,2018-06-29 10:28:21.218750,-98.62,71.4
198696,2018-06-29 10:28:21.250000,-89.11,71.4
198697,2018-06-29 10:28:21.281250,-84.64,71.4
198698,2018-06-29 10:28:21.312500,-86.21,71.4
198699,2018-06-29 10:28:21.343750,-81.5,71.4
198700,2018-06-29 10:28:21.375000,-58.95,71.4
198701,2018-06-29 10:28:21.406250,-22.13,71.4
198702,2018-06-29 10:28:21.437500,15.44,71.4
198703,2018-06-29 10:28:21.468750,45.33,71.4
198704,2018-06-29 10:28:21.500000,67.0,71.4
198705,2018-06-29 10:28:21.531250,80.62,70.88
198706,2018-06-29 10:28:21.562500,85.53,70.88
198707,2018-06-29 10:28:21.593750,83.45,70.88
198708,2018-06-29 10:28:21.625000,78.34,70.88
198709,2018-06-29 10:28:21.656250,72.94,70.88
198710,2018-06-29 10:28:21.687500,67.7,70.88
198711,2018-06-29 10:28:21.718750,62.6,70.88
198712,2018-06-29 10:28:21.750000,57.44,70.88
198713,2018-06-29 10:28:21.781250,50.25,70.88
198714,2018-06-29 10:28:21.812500,38.99,70.88
198715,2018-06-29 10:28:21.843750,25.02,70.88
198716,2018-06-29 10:28:21.875000,11.37,70.88
198717,2018-06-29 10:28:21.906250,-1.69,70.88
198718,2018-06-29 10:28:21.937500,-15.65,70.88
198719,2018-06-29 10:28:21.968750,-31.13,70.88
198720,2018-06-29 10:28:22.000000,-48.71,70.88
198721,2018-06-29 10:28:22.031250,-68.82,70.88
198722,2018-06-29 10:28:22.062500,-89.71,70.88
198723,2018-06-29 10:28:22.093750,-106.42,70.88
198724,2018-06-29 10:28:22.125000,-109.96,70.88
198725,2018-06-29 10:28:22.156250,-91.51,70.88
198726,2018-06-29 10:28:22.187500,-53.72,70.88
198727,2018-06-29 10:28:22.218750,-12.56,70.88
198728,2018-06-29 10:28:22.250000,18.24,70.88
198729,2018-06-29 10:28:22.281250,38.58,70.88
198730,2018-06-29 10:28:22.312500,54.16,70.88
198731,2018-06-29 10:28:22.343750,65.63,70.88
198732,2018-06-29 10:28:22.375000,70.67,70.88
198733,2018-06-29 10:28:22.406250,70.02,70.88
198734,2018-06-29 10:28:22.437500,66.36,70.88
198735,2018-06-29 10:28:22.468750,61.16,70.88
198736,2018-06-29 10:28:22.500000,56.03,70.88
198737,2018-06-29 10:28:22.531250,53.36,70.4
198738,2018-06-29 10:28:22.562500,52.88,70.4
198739,2018-06-29 10:28:22.593750,50.75,70.4
198740,2018-06-29 10:28:22.625000,44.35,70.4
198741,2018-06-29 10:28:22.656250,35.1,70.4
198742,2018-06-29 10:28:22.687500,25.49,70.4
198743,2018-06-29 10:28:22.718750,15.48,70.4
198744,2018-06-29 10:28:22.750000,3.43,70.4
198745,2018-06-29 10:28:22.781250,-10.45,70.4
198746,2018-06-29 10:28:22.812500,-24.12,70.4
198747,2018-06-29 10:28:22.843750,-36.36,70.4
198748,2018-06-29 10:28:22.875000,-48.1,70.4
198749,2018-06-29 10:28:22.906250,-61.72,70.4
198750,2018-06-29 10:28:22.937500,-78.13,70.4
198751,2018-06-29 10:28:22.968750,-91.06,70.4
198752,2018-06-29 10:28:23.000000,-87.77,70.4
198753,2018-06-29 10:28:23.031250,-62.13,70.4
198754,2018-06-29 10:28:23.062500,-23.96,70.4
198755,2018-06-29 10:28:23.093750,11.16,70.4
198756,2018-06-29 10:28:23.125000,36.63,70.4
198757,2018-06-29 10:28:23.156250,54.24,70.4
198758,2018-06-29 10:28:23.187500,65.66,70.4
198759,2018-06-29 10:28:23.218750,70.78,70.4
198760,2018-06-29 10:28:23.250000,71.06,70.4
198761,2018-06-29 10:28:23.281250,69.64,70.4
198762,2018-06-29 10:28:23.312500,68.98,70.4
198763,2018-06-29 10:28:23.343750,70.1,70.4
198764,2018-06-29 10:28:23.375000,72.89,70.4
198765,2018-06-29 10:28:23.406250,75.2,70.4
198766,2018-06-29 10:28:23.437500,73.75,70.4
198767,2018-06-29 10:28:23.468750,67.41,70.4
198768,2018-06-29 10:28:23.500000,57.98,70.4
198769,2018-06-29 10:28:23.531250,46.93,69.9
198770,2018-06-29 10:28:23.562500,33.85,69.9
198771,2018-06-29 10:28:23.593750,18.94,69.9
198772,2018-06-29 10:28:23.625000,4.44,69.9
198773,2018-06-29 10:28:23.656250,-8.11,69.9
198774,2018-06-29 10:28:23.687500,-20.02,69.9
198775,2018-06-29 10:28:23.718750,-33.11,69.9
198776,2018-06-29 10:28:23.750000,-46.91,69.9
198777,2018-06-29 10:28:23.781250,-59.68,69.9
198778,2018-06-29 10:28:23.812500,-70.54,69.9
198779,2018-06-29 10:28:23.843750,-80.39,69.9
198780,2018-06-29 10:28:23.875000,-91.79,69.9
198781,2018-06-29 10:28:23.906250,-104.7,69.9
198782,2018-06-29 10:28:23.937500,-110.66,69.9
198783,2018-06-29 10:28:23.968750,-98.05,69.9
198784,2018-06-29 10:28:24.000000,-66.11,69.9
198785,2018-06-29 10:28:24.031250,-27.91,69.9
198786,2018-06-29 10:28:24.062500,2.81,69.9
198787,2018-06-29 10:28:24.093750,22.75,69.9
198788,2018-06-29 10:28:24.125000,36.22,69.9
198789,2018-06-29 10:28:24.156250,46.36,69.9
198790,2018-06-29 10:28:24.187500,52.79,69.9
198791,2018-06-29 10:28:24.218750,55.92,69.9
198792,2018-06-29 10:28:24.250000,58.59,69.9
198793,2018-06-29 10:28:24.281250,62.58,69.9
198794,2018-06-29 10:28:24.312500,68.11,69.9
198795,2018-06-29 10:28:24.343750,76.01,69.9
198796,2018-06-29 10:28:24.375000,85.95,69.9
198797,2018-06-29 10:28:24.406250,93.7,69.9
198798,2018-06-29 10:28:24.437500,94.5,69.9
198799,2018-06-29 10:28:24.468750,87.89,69.9
198800,2018-06-29 10:28:24.500000,76.11,69.9
198801,2018-06-29 10:28:24.531250,60.04,69.32
198802,2018-06-29 10:28:24.562500,39.59,69.32
198803,2018-06-29 10:28:24.593750,16.92,69.32
198804,2018-06-29 10:28:24.625000,-3.66,69.32
198805,2018-06-29 10:28:24.656250,-20.07,69.32
198806,2018-06-29 10:28:24.687500,-34.13,69.32
198807,2018-06-29 10:28:24.718750,-47.47,69.32
198808,2018-06-29 10:28:24.750000,-58.75,69.32
198809,2018-06-29 10:28:24.781250,-66.65,69.32
198810,2018-06-29 10:28:24.812500,-73.04,69.32
198811,2018-06-29 10:28:24.843750,-81.7,69.32
198812,2018-06-29 10:28:24.875000,-93.6,69.32
198813,2018-06-29 10:28:24.906250,-102.64,69.32
198814,2018-06-29 10:28:24.937500,-97.84,69.32
198815,2018-06-29 10:28:24.968750,-74.26,69.32
198816,2018-06-29 10:28:25.000000,-40.15,69.32
198817,2018-06-29 10:28:25.031250,-8.63,69.32
198818,2018-06-29 10:28:25.062500,14.0,69.32
198819,2018-06-29 10:28:25.093750,28.25,69.32
198820,2018-06-29 10:28:25.125000,35.46,69.32
198821,2018-06-29 10:28:25.156250,37.01,69.32
198822,2018-06-29 10:28:25.187500,35.64,69.32
198823,2018-06-29 10:28:25.218750,34.04,69.32
198824,2018-06-29 10:28:25.250000,33.85,69.32
198825,2018-06-29 10:28:25.281250,35.94,69.32
198826,2018-06-29 10:28:25.312500,39.54,69.32
198827,2018-06-29 10:28:25.343750,41.9,69.32
198828,2018-06-29 10:28:25.375000,40.63,69.32
198829,2018-06-29 10:28:25.406250,35.87,69.32
198830,2018-06-29 10:28:25.437500,29.47,69.32
198831,2018-06-29 10:28:25.468750,23.06,69.32
198832,2018-06-29 10:28:25.500000,17.18,69.32
198833,2018-06-29 10:28:25.531250,11.39,68.82
198834,2018-06-29 10:28:25.562500,4.88,68.82
198835,2018-06-29 10:28:25.593750,-2.94,68.82
198836,2018-06-29 10:28:25.625000,-12.02,68.82
198837,2018-06-29 10:28:25.656250,-21.88,68.82
198838,2018-06-29 10:28:25.687500,-32.57,68.82
198839,2018-06-29 10:28:25.718750,-44.61,68.82
198840,2018-06-29 10:28:25.750000,-57.93,68.82
198841,2018-06-29 10:28:25.781250,-71.94,68.82
198842,2018-06-29 10:28:25.812500,-86.43,68.82
198843,2018-06-29 10:28:25.843750,-97.91,68.82
198844,2018-06-29 10:28:25.875000,-96.37,68.82
198845,2018-06-29 10:28:25.906250,-74.01,68.82
198846,2018-06-29 10:28:25.937500,-37.53,68.82
198847,2018-06-29 10:28:25.968750,-3.26,68.82
198848,2018-06-29 10:28:26.000000,18.87,68.82
198849,2018-06-29 10:28:26.031250,29.7,68.82
198850,2018-06-29 10:28:26.062500,32.9,68.82
198851,2018-06-29 10:28:26.093750,30.93,68.82
198852,2018-06-29 10:28:26.125000,26.55,68.82
198853,2018-06-29 10:28:26.156250,22.53,68.82
198854,2018-06-29 10:28:26.187500,19.94,68.82
198855,2018-06-29 10:28:26.218750,18.28,68.82
198856,2018-06-29 10:28:26.250000,17.0,68.82
198857,2018-06-29 10:28:26.281250,15.31,68.82
198858,2018-06-29 10:28:26.312500,11.52,68.82
198859,2018-06-29 10:28:26.343750,4.07,68.82
198860,2018-06-29 10:28:26.375000,-7.49,68.82
198861,2018-06-29 10:28:26.406250,-23.27,68.82
198862,2018-06-29 10:28:26.437500,-42.6,68.82
198863,2018-06-29 10:28:26.468750,-60.36,68.82
198864,2018-06-29 10:28:26.500000,-67.51,68.82
198865,2018-06-29 10:28:26.531250,-59.19,68.37
198866,2018-06-29 10:28:26.562500,-40.29,68.37
198867,2018-06-29 10:28:26.593750,-19.04,68.37
198868,2018-06-29 10:28:26.625000,0.96,68.37
198869,2018-06-29 10:28:26.656250,18.68,68.37
198870,2018-06-29 10:28:26.687500,30.64,68.37
198871,2018-06-29 10:28:26.718750,32.85,68.37
198872,2018-06-29 10:28:26.750000,25.13,68.37
198873,2018-06-29 10:28:26.781250,13.62,68.37
198874,2018-06-29 10:28:26.812500,8.83,68.37
198875,2018-06-29 10:28:26.843750,17.05,68.37
198876,2018-06-29 10:28:26.875000,33.9,68.37
198877,2018-06-29 10:28:26.906250,49.63,68.37
198878,2018-06-29 10:28:26.937500,57.9,68.37
198879,2018-06-29 10:28:26.968750,57.31,68.37
198880,2018-06-29 10:28:27.000000,49.75,68.37
198881,2018-06-29 10:28:27.031250,39.55,68.37
198882,2018-06-29 10:28:27.062500,30.95,68.37
198883,2018-06-29 10:28:27.093750,24.97,68.37
198884,2018-06-29 10:28:27.125000,20.35,68.37
198885,2018-06-29 10:28:27.156250,16.8,68.37
198886,2018-06-29 10:28:27.187500,14.83,68.37
198887,2018-06-29 10:28:27.218750,12.67,68.37
198888,2018-06-29 10:28:27.250000,6.95,68.37
198889,2018-06-29 10:28:27.281250,-2.49,68.37
198890,2018-06-29 10:28:27.312500,-12.49,68.37
198891,2018-06-29 10:28:27.343750,-21.7,68.37
198892,2018-06-29 10:28:27.375000,-31.02,68.37
198893,2018-06-29 10:28:27.406250,-39.43,68.37
198894,2018-06-29 10:28:27.437500,-44.55,68.37
198895,2018-06-29 10:28:27.468750,-46.7,68.37
198896,2018-06-29 10:28:27.500000,-48.79,68.37
198897,2018-06-29 10:28:27.531250,-53.26,67.9
198898,2018-06-29 10:28:27.562500,-59.7,67.9
198899,2018-06-29 10:28:27.593750,-62.86,67.9
198900,2018-06-29 10:28:27.625000,-54.94,67.9
198901,2018-06-29 10:28:27.656250,-34.13,67.9
198902,2018-06-29 10:28:27.687500,-8.18,67.9
198903,2018-06-29 10:28:27.718750,12.97,67.9
198904,2018-06-29 10:28:27.750000,24.69,67.9
198905,2018-06-29 10:28:27.781250,27.73,67.9
198906,2018-06-29 10:28:27.812500,24.81,67.9
198907,2018-06-29 10:28:27.843750,18.95,67.9
198908,2018-06-29 10:28:27.875000,13.69,67.9
198909,2018-06-29 10:28:27.906250,12.06,67.9
198910,2018-06-29 10:28:27.937500,13.77,67.9
198911,2018-06-29 10:28:27.968750,15.39,67.9
198912,2018-06-29 10:28:28.000000,14.85,67.9
198913,2018-06-29 10:28:28.031250,12.64,67.9
198914,2018-06-29 10:28:28.062500,8.84,67.9
198915,2018-06-29 10:28:28.093750,2.53,67.9
198916,2018-06-29 10:28:28.125000,-6.5,67.9
198917,2018-06-29 10:28:28.156250,-17.75,67.9
198918,2018-06-29 10:28:28.187500,-30.08,67.9
198919,2018-06-29 10:28:28.218750,-41.33,67.9
198920,2018-06-29 10:28:28.250000,-49.98,67.9
198921,2018-06-29 10:28:28.281250,-57.52,67.9
198922,2018-06-29 10:28:28.312500,-67.41,67.9
198923,2018-06-29 10:28:28.343750,-79.22,67.9
198924,2018-06-29 10:28:28.375000,-84.11,67.9
198925,2018-06-29 10:28:28.406250,-71.86,67.9
198926,2018-06-29 10:28:28.437500,-43.61,67.9
198927,2018-06-29 10:28:28.468750,-11.74,67.9
198928,2018-06-29 10:28:28.500000,13.06,67.9
198929,2018-06-29 10:28:28.531250,28.71,67.45
198930,2018-06-29 10:28:28.562500,37.13,67.45
198931,2018-06-29 10:28:28.593750,39.79,67.45
198932,2018-06-29 10:28:28.625000,37.94,67.45
198933,2018-06-29 10:28:28.656250,34.01,67.45
198934,2018-06-29 10:28:28.687500,31.01,67.45
198935,2018-06-29 10:28:28.718750,30.3,67.45
198936,2018-06-29 10:28:28.750000,30.73,67.45
198937,2018-06-29 10:28:28.781250,30.08,67.45
198938,2018-06-29 10:28:28.812500,26.61,67.45
198939,2018-06-29 10:28:28.843750,20.08,67.45
198940,2018-06-29 10:28:28.875000,11.58,67.45
198941,2018-06-29 10:28:28.906250,2.02,67.45
198942,2018-06-29 10:28:28.937500,-8.51,67.45
198943,2018-06-29 10:28:28.968750,-19.15,67.45
198944,2018-06-29 10:28:29.000000,-28.21,67.45
198945,2018-06-29 10:28:29.031250,-35.89,67.45
198946,2018-06-29 10:28:29.062500,-44.93,67.45
198947,2018-06-29 10:28:29.093750,-57.52,67.45
198948,2018-06-29 10:28:29.125000,-70.61,67.45
198949,2018-06-29 10:28:29.156250,-74.49,67.45
198950,2018-06-29 10:28:29.187500,-59.74,67.45
198951,2018-06-29 10:28:29.218750,-28.15,67.45
198952,2018-06-29 10:28:29.250000,6.94,67.45
198953,2018-06-29 10:28:29.281250,32.86,67.45
198954,2018-06-29 10:28:29.312500,46.81,67.45
198955,2018-06-29 10:28:29.343750,52.38,67.45
198956,2018-06-29 10:28:29.375000,52.73,67.45
198957,2018-06-29 10:28:29.406250,49.85,67.45
198958,2018-06-29 10:28:29.437500,46.12,67.45
198959,2018-06-29 10:28:29.468750,43.08,67.45
198960,2018-06-29 10:28:29.500000,41.05,67.45
198961,2018-06-29 10:28:29.531250,40.57,67.02
198962,2018-06-29 10:28:29.562500,41.29,67.02
198963,2018-06-29 10:28:29.593750,40.26,67.02
198964,2018-06-29 10:28:29.625000,34.88,67.02
198965,2018-06-29 10:28:29.656250,26.36,67.02
198966,2018-06-29 10:28:29.687500,17.34,67.02
198967,2018-06-29 10:28:29.718750,8.15,67.02
198968,2018-06-29 10:28:29.750000,-2.37,67.02
198969,2018-06-29 10:28:29.781250,-14.29,67.02
198970,2018-06-29 10:28:29.812500,-26.1,67.02
198971,2018-06-29 10:28:29.843750,-36.12,67.02
198972,2018-06-29 10:28:29.875000,-44.62,67.02
198973,2018-06-29 10:28:29.906250,-54.78,67.02
198974,2018-06-29 10:28:29.937500,-68.78,67.02
198975,2018-06-29 10:28:29.968750,-80.43,67.02
198976,2018-06-29 10:28:30.000000,-76.87,67.02
198977,2018-06-29 10:28:30.031250,-52.62,67.02
198978,2018-06-29 10:28:30.062500,-17.21,67.02
198979,2018-06-29 10:28:30.093750,15.47,67.02
198980,2018-06-29 10:28:30.125000,39.08,67.02
198981,2018-06-29 10:28:30.156250,53.05,67.02
198982,2018-06-29 10:28:30.187500,57.58,67.02
198983,2018-06-29 10:28:30.218750,55.12,67.02
198984,2018-06-29 10:28:30.250000,50.73,67.02
198985,2018-06-29 10:28:30.281250,48.08,67.02
198986,2018-06-29 10:28:30.312500,47.5,67.02
198987,2018-06-29 10:28:30.343750,47.45,67.02
198988,2018-06-29 10:28:30.375000,47.04,67.02
198989,2018-06-29 10:28:30.406250,46.74,67.02
198990,2018-06-29 10:28:30.437500,46.32,67.02
198991,2018-06-29 10:28:30.468750,43.09,67.02
198992,2018-06-29 10:28:30.500000,34.92,67.02
198993,2018-06-29 10:28:30.531250,23.86,66.63
198994,2018-06-29 10:28:30.562500,13.82,66.63
198995,2018-06-29 10:28:30.593750,5.54,66.63
198996,2018-06-29 10:28:30.625000,-3.05,66.63
198997,2018-06-29 10:28:30.656250,-12.89,66.63
198998,2018-06-29 10:28:30.687500,-22.33,66.63
198999,2018-06-29 10:28:30.718750,-30.03,66.63
199000,2018-06-29 10:28:30.750000,-37.41,66.63
199001,2018-06-29 10:28:30.781250,-47.38,66.63
199002,2018-06-29 10:28:30.812500,-61.32,66.63
199003,2018-06-29 10:28:30.843750,-75.87,66.63
199004,2018-06-29 10:28:30.875000,-81.12,66.63
199005,2018-06-29 10:28:30.906250,-67.06,66.63
199006,2018-06-29 10:28:30.937500,-35.52,66.63
199007,2018-06-29 10:28:30.968750,0.1,66.63
199008,2018-06-29 10:28:31.000000,28.85,66.63
199009,2018-06-29 10:28:31.031250,48.76,66.63
199010,2018-06-29 10:28:31.062500,60.65,66.63
199011,2018-06-29 10:28:31.093750,65.03,66.63
199012,2018-06-29 10:28:31.125000,64.61,66.63
199013,2018-06-29 10:28:31.156250,62.6,66.63
199014,2018-06-29 10:28:31.187500,59.7,66.63
199015,2018-06-29 10:28:31.218750,55.64,66.63
199016,2018-06-29 10:28:31.250000,51.12,66.63
199017,2018-06-29 10:28:31.281250,46.67,66.63
199018,2018-06-29 10:28:31.312500,41.7,66.63
199019,2018-06-29 10:28:31.343750,35.58,66.63
199020,2018-06-29 10:28:31.375000,28.33,66.63
199021,2018-06-29 10:28:31.406250,20.61,66.63
199022,2018-06-29 10:28:31.437500,13.67,66.63
199023,2018-06-29 10:28:31.468750,8.23,66.63
199024,2018-06-29 10:28:31.500000,3.45,66.63
199025,2018-06-29 10:28:31.531250,-2.22,66.27
199026,2018-06-29 10:28:31.562500,-9.48,66.27
199027,2018-06-29 10:28:31.593750,-18.13,66.27
199028,2018-06-29 10:28:31.625000,-27.8,66.27
199029,2018-06-29 10:28:31.656250,-38.69,66.27
199030,2018-06-29 10:28:31.687500,-51.87,66.27
199031,2018-06-29 10:28:31.718750,-68.27,66.27
199032,2018-06-29 10:28:31.750000,-86.26,66.27
199033,2018-06-29 10:28:31.781250,-99.22,66.27
199034,2018-06-29 10:28:31.812500,-97.15,66.27
199035,2018-06-29 10:28:31.843750,-75.23,66.27
199036,2018-06-29 10:28:31.875000,-41.19,66.27
199037,2018-06-29 10:28:31.906250,-9.42,66.27
199038,2018-06-29 10:28:31.937500,11.81,66.27
199039,2018-06-29 10:28:31.968750,23.37,66.27
199040,2018-06-29 10:28:32.000000,28.75,66.27
199041,2018-06-29 10:28:32.031250,31.6,66.27
199042,2018-06-29 10:28:32.062500,36.82,66.27
199043,2018-06-29 10:28:32.093750,45.62,66.27
199044,2018-06-29 10:28:32.125000,51.49,66.27
199045,2018-06-29 10:28:32.156250,47.78,66.27
199046,2018-06-29 10:28:32.187500,37.18,66.27
199047,2018-06-29 10:28:32.218750,28.14,66.27
199048,2018-06-29 10:28:32.250000,23.75,66.27
199049,2018-06-29 10:28:32.281250,19.81,66.27
199050,2018-06-29 10:28:32.312500,12.42,66.27
199051,2018-06-29 10:28:32.343750,1.89,66.27
199052,2018-06-29 10:28:32.375000,-10.76,66.27
199053,2018-06-29 10:28:32.406250,-25.65,66.27
199054,2018-06-29 10:28:32.437500,-41.21,66.27
199055,2018-06-29 10:28:32.468750,-54.63,66.27
199056,2018-06-29 10:28:32.500000,-65.86,66.27
199057,2018-06-29 10:28:32.531250,-77.77,65.97
199058,2018-06-29 10:28:32.562500,-91.51,65.97
199059,2018-06-29 10:28:32.593750,-101.83,65.97
199060,2018-06-29 10:28:32.625000,-98.48,65.97
199061,2018-06-29 10:28:32.656250,-76.23,65.97
199062,2018-06-29 10:28:32.687500,-42.25,65.97
199063,2018-06-29 10:28:32.718750,-9.2,65.97
199064,2018-06-29 10:28:32.750000,16.82,65.97
199065,2018-06-29 10:28:32.781250,36.83,65.97
199066,2018-06-29 10:28:32.812500,51.46,65.97
199067,2018-06-29 10:28:32.843750,59.34,65.97
199068,2018-06-29 10:28:32.875000,61.41,65.97
199069,2018-06-29 10:28:32.906250,61.08,65.97
199070,2018-06-29 10:28:32.937500,60.11,65.97
199071,2018-06-29 10:28:32.968750,57.84,65.97
199072,2018-06-29 10:28:33.000000,54.48,65.97
199073,2018-06-29 10:28:33.031250,51.51,65.97
199074,2018-06-29 10:28:33.062500,48.21,65.97
199075,2018-06-29 10:28:33.093750,41.68,65.97
199076,2018-06-29 10:28:33.125000,30.96,65.97
199077,2018-06-29 10:28:33.156250,18.84,65.97
199078,2018-06-29 10:28:33.187500,8.35,65.97
199079,2018-06-29 10:28:33.218750,-0.8,65.97
199080,2018-06-29 10:28:33.250000,-10.77,65.97
199081,2018-06-29 10:28:33.281250,-21.68,65.97
199082,2018-06-29 10:28:33.312500,-31.66,65.97
199083,2018-06-29 10:28:33.343750,-40.03,65.97
199084,2018-06-29 10:28:33.375000,-48.33,65.97
199085,2018-06-29 10:28:33.406250,-58.55,65.97
199086,2018-06-29 10:28:33.437500,-69.86,65.97
199087,2018-06-29 10:28:33.468750,-75.18,65.97
199088,2018-06-29 10:28:33.500000,-64.98,65.97
199089,2018-06-29 10:28:33.531250,-38.53,65.73
199090,2018-06-29 10:28:33.562500,-6.76,65.73
199091,2018-06-29 10:28:33.593750,19.22,65.73
199092,2018-06-29 10:28:33.625000,36.7,65.73
199093,2018-06-29 10:28:33.656250,47.59,65.73
199094,2018-06-29 10:28:33.687500,53.06,65.73
199095,2018-06-29 10:28:33.718750,54.15,65.73
199096,2018-06-29 10:28:33.750000,53.11,65.73
199097,2018-06-29 10:28:33.781250,51.74,65.73
199098,2018-06-29 10:28:33.812500,50.06,65.73
199099,2018-06-29 10:28:33.843750,47.87,65.73
199100,2018-06-29 10:28:33.875000,46.23,65.73
199101,2018-06-29 10:28:33.906250,44.96,65.73
199102,2018-06-29 10:28:33.937500,41.37,65.73
199103,2018-06-29 10:28:33.968750,34.13,65.73
199104,2018-06-29 10:28:34.000000,25.51,65.73
199105,2018-06-29 10:28:34.031250,18.04,65.73
199106,2018-06-29 10:28:34.062500,11.72,65.73
199107,2018-06-29 10:28:34.093750,4.97,65.73
199108,2018-06-29 10:28:34.125000,-2.6,65.73
199109,2018-06-29 10:28:34.156250,-9.43,65.73
199110,2018-06-29 10:28:34.187500,-14.32,65.73
199111,2018-06-29 10:28:34.218750,-18.72,65.73
199112,2018-06-29 10:28:34.250000,-24.62,65.73
199113,2018-06-29 10:28:34.281250,-31.6,65.73
199114,2018-06-29 10:28:34.312500,-38.16,65.73
199115,2018-06-29 10:28:34.343750,-44.21,65.73
199116,2018-06-29 10:28:34.375000,-51.1,65.73
199117,2018-06-29 10:28:34.406250,-60.35,65.73
199118,2018-06-29 10:28:34.437500,-70.38,65.73
199119,2018-06-29 10:28:34.468750,-73.5,65.73
199120,2018-06-29 10:28:34.500000,-60.79,65.73
199121,2018-06-29 10:28:34.531250,-32.89,65.5
199122,2018-06-29 10:28:34.562500,-1.11,65.5
199123,2018-06-29 10:28:34.593750,24.06,65.5
199124,2018-06-29 10:28:34.625000,40.47,65.5
199125,2018-06-29 10:28:34.656250,50.36,65.5
199126,2018-06-29 10:28:34.687500,54.9,65.5
199127,2018-06-29 10:28:34.718750,54.54,65.5
199128,2018-06-29 10:28:34.750000,51.18,65.5
199129,2018-06-29 10:28:34.781250,47.35,65.5
199130,2018-06-29 10:28:34.812500,44.03,65.5
199131,2018-06-29 10:28:34.843750,41.16,65.5
199132,2018-06-29 10:28:34.875000,38.92,65.5
199133,2018-06-29 10:28:34.906250,36.84,65.5
199134,2018-06-29 10:28:34.937500,33.03,65.5
199135,2018-06-29 10:28:34.968750,26.44,65.5
199136,2018-06-29 10:28:35.000000,18.51,65.5
199137,2018-06-29 10:28:35.031250,11.01,65.5
199138,2018-06-29 10:28:35.062500,3.39,65.5
199139,2018-06-29 10:28:35.093750,-5.46,65.5
199140,2018-06-29 10:28:35.125000,-14.08,65.5
199141,2018-06-29 10:28:35.156250,-20.54,65.5
199142,2018-06-29 10:28:35.187500,-26.24,65.5
199143,2018-06-29 10:28:35.218750,-33.4,65.5
199144,2018-06-29 10:28:35.250000,-40.63,65.5
199145,2018-06-29 10:28:35.281250,-45.8,65.5
199146,2018-06-29 10:28:35.312500,-50.48,65.5
199147,2018-06-29 10:28:35.343750,-57.76,65.5
199148,2018-06-29 10:28:35.375000,-67.67,65.5
199149,2018-06-29 10:28:35.406250,-75.62,65.5
199150,2018-06-29 10:28:35.437500,-73.92,65.5
199151,2018-06-29 10:28:35.468750,-58.51,65.5
199152,2018-06-29 10:28:35.500000,-34.76,65.5
199153,2018-06-29 10:28:35.531250,-12.27,65.23
199154,2018-06-29 10:28:35.562500,4.17,65.23
199155,2018-06-29 10:28:35.593750,14.94,65.23
199156,2018-06-29 10:28:35.625000,20.73,65.23
199157,2018-06-29 10:28:35.656250,21.77,65.23
199158,2018-06-29 10:28:35.687500,20.44,65.23
199159,2018-06-29 10:28:35.718750,22.16,65.23
199160,2018-06-29 10:28:35.750000,31.26,65.23
199161,2018-06-29 10:28:35.781250,45.54,65.23
199162,2018-06-29 10:28:35.812500,58.93,65.23
199163,2018-06-29 10:28:35.843750,68.3,65.23
199164,2018-06-29 10:28:35.875000,73.12,65.23
199165,2018-06-29 10:28:35.906250,72.18,65.23
199166,2018-06-29 10:28:35.937500,64.78,65.23
199167,2018-06-29 10:28:35.968750,51.3,65.23
199168,2018-06-29 10:28:36.000000,31.73,65.23
199169,2018-06-29 10:28:36.031250,7.94,65.23
199170,2018-06-29 10:28:36.062500,-14.64,65.23
199171,2018-06-29 10:28:36.093750,-31.41,65.23
199172,2018-06-29 10:28:36.125000,-41.75,65.23
199173,2018-06-29 10:28:36.156250,-47.31,65.23
199174,2018-06-29 10:28:36.187500,-50.63,65.23
199175,2018-06-29 10:28:36.218750,-54.25,65.23
199176,2018-06-29 10:28:36.250000,-59.16,65.23
199177,2018-06-29 10:28:36.281250,-66.04,65.23
199178,2018-06-29 10:28:36.312500,-74.92,65.23
199179,2018-06-29 10:28:36.343750,-80.4,65.23
199180,2018-06-29 10:28:36.375000,-72.55,65.23
199181,2018-06-29 10:28:36.406250,-47.96,65.23
199182,2018-06-29 10:28:36.437500,-14.51,65.23
199183,2018-06-29 10:28:36.468750,17.81,65.23
199184,2018-06-29 10:28:36.500000,44.97,65.23
199185,2018-06-29 10:28:36.531250,66.61,65.03
199186,2018-06-29 10:28:36.562500,82.76,65.03
199187,2018-06-29 10:28:36.593750,94.19,65.03
199188,2018-06-29 10:28:36.625000,101.45,65.03
199189,2018-06-29 10:28:36.656250,103.67,65.03
199190,2018-06-29 10:28:36.687500,100.75,65.03
199191,2018-06-29 10:28:36.718750,95.01,65.03
199192,2018-06-29 10:28:36.750000,88.4,65.03
199193,2018-06-29 10:28:36.781250,79.59,65.03
199194,2018-06-29 10:28:36.812500,65.17,65.03
199195,2018-06-29 10:28:36.843750,42.77,65.03
199196,2018-06-29 10:28:36.875000,12.59,65.03
199197,2018-06-29 10:28:36.906250,-21.67,65.03
199198,2018-06-29 10:28:36.937500,-51.87,65.03
199199,2018-06-29 10:28:36.968750,-68.73,65.03
199200,2018-06-29 10:28:37.000000,-68.98,65.03
199201,2018-06-29 10:28:37.031250,-56.96,65.03
199202,2018-06-29 10:28:37.062500,-38.93,65.03
199203,2018-06-29 10:28:37.093750,-20.74,65.03
199204,2018-06-29 10:28:37.125000,-9.72,65.03
199205,2018-06-29 10:28:37.156250,-11.09,65.03
199206,2018-06-29 10:28:37.187500,-22.78,65.03
199207,2018-06-29 10:28:37.218750,-39.03,65.03
199208,2018-06-29 10:28:37.250000,-57.48,65.03
199209,2018-06-29 10:28:37.281250,-78.5,65.03
199210,2018-06-29 10:28:37.312500,-100.01,65.03
199211,2018-06-29 10:28:37.343750,-115.64,65.03
199212,2018-06-29 10:28:37.375000,-116.56,65.03
199213,2018-06-29 10:28:37.406250,-97.44,65.03
199214,2018-06-29 10:28:37.437500,-63.15,65.03
199215,2018-06-29 10:28:37.468750,-26.59,65.03
199216,2018-06-29 10:28:37.500000,1.93,65.03
199217,2018-06-29 10:28:37.531250,20.06,64.87
199218,2018-06-29 10:28:37.562500,29.76,64.87
199219,2018-06-29 10:28:37.593750,33.21,64.87
199220,2018-06-29 10:28:37.625000,31.79,64.87
199221,2018-06-29 10:28:37.656250,26.8,64.87
199222,2018-06-29 10:28:37.687500,20.35,64.87
199223,2018-06-29 10:28:37.718750,15.1,64.87
199224,2018-06-29 10:28:37.750000,12.61,64.87
199225,2018-06-29 10:28:37.781250,12.28,64.87
199226,2018-06-29 10:28:37.812500,11.81,64.87
199227,2018-06-29 10:28:37.843750,9.72,64.87
199228,2018-06-29 10:28:37.875000,7.75,64.87
199229,2018-06-29 10:28:37.906250,8.32,64.87
199230,2018-06-29 10:28:37.937500,10.63,64.87
199231,2018-06-29 10:28:37.968750,12.18,64.87
199232,2018-06-29 10:28:38.000000,11.95,64.87
199233,2018-06-29 10:28:38.031250,10.41,64.87
199234,2018-06-29 10:28:38.062500,8.71,64.87
199235,2018-06-29 10:28:38.093750,8.64,64.87
199236,2018-06-29 10:28:38.125000,10.47,64.87
199237,2018-06-29 10:28:38.156250,11.66,64.87
199238,2018-06-29 10:28:38.187500,9.06,64.87
199239,2018-06-29 10:28:38.218750,1.4,64.87
199240,2018-06-29 10:28:38.250000,-9.38,64.87
199241,2018-06-29 10:28:38.281250,-18.15,64.87
199242,2018-06-29 10:28:38.312500,-20.15,64.87
199243,2018-06-29 10:28:38.343750,-16.1,64.87
199244,2018-06-29 10:28:38.375000,-10.47,64.87
199245,2018-06-29 10:28:38.406250,-4.96,64.87
199246,2018-06-29 10:28:38.437500,2.54,64.87
199247,2018-06-29 10:28:38.468750,14.42,64.87
199248,2018-06-29 10:28:38.500000,30.67,64.87
199249,2018-06-29 10:28:38.531250,46.77,64.68
199250,2018-06-29 10:28:38.562500,56.2,64.68
199251,2018-06-29 10:28:38.593750,61.1,64.68
199252,2018-06-29 10:28:38.625000,74.61,64.68
199253,2018-06-29 10:28:38.656250,103.49,64.68
199254,2018-06-29 10:28:38.687500,134.36,64.68
199255,2018-06-29 10:28:38.718750,144.82,64.68
199256,2018-06-29 10:28:38.750000,119.33,64.68
199257,2018-06-29 10:28:38.781250,53.89,64.68
199258,2018-06-29 10:28:38.812500,-41.04,64.68
199259,2018-06-29 10:28:38.843750,-140.11,64.68
199260,2018-06-29 10:28:38.875000,-215.26,64.68
199261,2018-06-29 10:28:38.906250,-249.3,64.68
199262,2018-06-29 10:28:38.937500,-238.85,64.68
199263,2018-06-29 10:28:38.968750,-191.36,64.68
199264,2018-06-29 10:28:39.000000,-119.53,64.68
199265,2018-06-29 10:28:39.031250,-38.23,64.68
199266,2018-06-29 10:28:39.062500,30.77,64.68
199267,2018-06-29 10:28:39.093750,64.32,64.68
199268,2018-06-29 10:28:39.125000,55.71,64.68
199269,2018-06-29 10:28:39.156250,19.43,64.68
199270,2018-06-29 10:28:39.187500,-17.36,64.68
199271,2018-06-29 10:28:39.218750,-23.15,64.68
199272,2018-06-29 10:28:39.250000,19.39,64.68
199273,2018-06-29 10:28:39.281250,91.7,64.68
199274,2018-06-29 10:28:39.312500,152.92,64.68
199275,2018-06-29 10:28:39.343750,180.01,64.68
199276,2018-06-29 10:28:39.375000,181.89,64.68
199277,2018-06-29 10:28:39.406250,179.89,64.68
199278,2018-06-29 10:28:39.437500,184.63,64.68
199279,2018-06-29 10:28:39.468750,188.63,64.68
199280,2018-06-29 10:28:39.500000,175.82,64.68
199281,2018-06-29 10:28:39.531250,137.65,64.48
199282,2018-06-29 10:28:39.562500,78.84,64.48
199283,2018-06-29 10:28:39.593750,10.01,64.48
199284,2018-06-29 10:28:39.625000,-58.37,64.48
199285,2018-06-29 10:28:39.656250,-116.63,64.48
199286,2018-06-29 10:28:39.687500,-158.35,64.48
199287,2018-06-29 10:28:39.718750,-179.98,64.48
199288,2018-06-29 10:28:39.750000,-178.58,64.48
199289,2018-06-29 10:28:39.781250,-159.28,64.48
199290,2018-06-29 10:28:39.812500,-142.58,64.48
199291,2018-06-29 10:28:39.843750,-146.11,64.48
199292,2018-06-29 10:28:39.875000,-161.46,64.48
199293,2018-06-29 10:28:39.906250,-167.75,64.48
199294,2018-06-29 10:28:39.937500,-160.73,64.48
199295,2018-06-29 10:28:39.968750,-149.85,64.48
199296,2018-06-29 10:28:40.000000,-139.13,64.48
199297,2018-06-29 10:28:40.031250,-127.45,64.48
199298,2018-06-29 10:28:40.062500,-115.56,64.48
199299,2018-06-29 10:28:40.093750,-100.96,64.48
199300,2018-06-29 10:28:40.125000,-74.81,64.48
199301,2018-06-29 10:28:40.156250,-31.93,64.48
199302,2018-06-29 10:28:40.187500,20.08,64.48
199303,2018-06-29 10:28:40.218750,66.66,64.48
199304,2018-06-29 10:28:40.250000,99.79,64.48
199305,2018-06-29 10:28:40.281250,121.22,64.48
199306,2018-06-29 10:28:40.312500,134.36,64.48
199307,2018-06-29 10:28:40.343750,138.68,64.48
199308,2018-06-29 10:28:40.375000,133.1,64.48
199309,2018-06-29 10:28:40.406250,120.81,64.48
199310,2018-06-29 10:28:40.437500,108.51,64.48
199311,2018-06-29 10:28:40.468750,100.86,64.48
199312,2018-06-29 10:28:40.500000,97.0,64.48
199313,2018-06-29 10:28:40.531250,93.53,64.28
199314,2018-06-29 10:28:40.562500,88.71,64.28
199315,2018-06-29 10:28:40.593750,81.69,64.28
199316,2018-06-29 10:28:40.625000,71.27,64.28
199317,2018-06-29 10:28:40.656250,57.75,64.28
199318,2018-06-29 10:28:40.687500,42.44,64.28
199319,2018-06-29 10:28:40.718750,25.43,64.28
199320,2018-06-29 10:28:40.750000,6.94,64.28
199321,2018-06-29 10:28:40.781250,-10.6,64.28
199322,2018-06-29 10:28:40.812500,-24.88,64.28
199323,2018-06-29 10:28:40.843750,-36.03,64.28
199324,2018-06-29 10:28:40.875000,-44.36,64.28
199325,2018-06-29 10:28:40.906250,-49.66,64.28
199326,2018-06-29 10:28:40.937500,-53.63,64.28
199327,2018-06-29 10:28:40.968750,-59.9,64.28
199328,2018-06-29 10:28:41.000000,-70.17,64.28
199329,2018-06-29 10:28:41.031250,-80.14,64.28
199330,2018-06-29 10:28:41.062500,-80.78,64.28
199331,2018-06-29 10:28:41.093750,-66.6,64.28
199332,2018-06-29 10:28:41.125000,-42.35,64.28
199333,2018-06-29 10:28:41.156250,-18.41,64.28
199334,2018-06-29 10:28:41.187500,-1.06,64.28
199335,2018-06-29 10:28:41.218750,9.39,64.28
199336,2018-06-29 10:28:41.250000,14.46,64.28
199337,2018-06-29 10:28:41.281250,15.52,64.28
199338,2018-06-29 10:28:41.312500,14.11,64.28
199339,2018-06-29 10:28:41.343750,11.63,64.28
199340,2018-06-29 10:28:41.375000,8.79,64.28
199341,2018-06-29 10:28:41.406250,6.12,64.28
199342,2018-06-29 10:28:41.437500,4.68,64.28
199343,2018-06-29 10:28:41.468750,5.01,64.28
199344,2018-06-29 10:28:41.500000,5.48,64.28
199345,2018-06-29 10:28:41.531250,3.58,64.08
199346,2018-06-29 10:28:41.562500,-1.03,64.08
199347,2018-06-29 10:28:41.593750,-6.73,64.08
199348,2018-06-29 10:28:41.625000,-13.13,64.08
199349,2018-06-29 10:28:41.656250,-21.32,64.08
199350,2018-06-29 10:28:41.687500,-30.64,64.08
199351,2018-06-29 10:28:41.718750,-38.22,64.08
199352,2018-06-29 10:28:41.750000,-42.87,64.08
199353,2018-06-29 10:28:41.781250,-47.11,64.08
199354,2018-06-29 10:28:41.812500,-53.86,64.08
199355,2018-06-29 10:28:41.843750,-61.57,64.08
199356,2018-06-29 10:28:41.875000,-62.75,64.08
199357,2018-06-29 10:28:41.906250,-50.17,64.08
199358,2018-06-29 10:28:41.937500,-25.58,64.08
199359,2018-06-29 10:28:41.968750,0.87,64.08
199360,2018-06-29 10:28:42.000000,21.06,64.08
199361,2018-06-29 10:28:42.031250,34.1,64.08
199362,2018-06-29 10:28:42.062500,41.64,64.08
199363,2018-06-29 10:28:42.093750,44.0,64.08
199364,2018-06-29 10:28:42.125000,42.14,64.08
199365,2018-06-29 10:28:42.156250,38.66,64.08
199366,2018-06-29 10:28:42.187500,35.83,64.08
199367,2018-06-29 10:28:42.218750,34.47,64.08
199368,2018-06-29 10:28:42.250000,34.57,64.08
199369,2018-06-29 10:28:42.281250,35.28,64.08
199370,2018-06-29 10:28:42.312500,34.43,64.08
199371,2018-06-29 10:28:42.343750,29.95,64.08
199372,2018-06-29 10:28:42.375000,22.26,64.08
199373,2018-06-29 10:28:42.406250,13.94,64.08
199374,2018-06-29 10:28:42.437500,6.42,64.08
199375,2018-06-29 10:28:42.468750,-1.54,64.08
199376,2018-06-29 10:28:42.500000,-11.02,64.08
199377,2018-06-29 10:28:42.531250,-20.74,63.88
199378,2018-06-29 10:28:42.562500,-28.91,63.88
199379,2018-06-29 10:28:42.593750,-36.26,63.88
199380,2018-06-29 10:28:42.625000,-45.57,63.88
199381,2018-06-29 10:28:42.656250,-57.7,63.88
199382,2018-06-29 10:28:42.687500,-67.34,63.88
199383,2018-06-29 10:28:42.718750,-64.77,63.88
199384,2018-06-29 10:28:42.750000,-45.69,63.88
199385,2018-06-29 10:28:42.781250,-17.53,63.88
199386,2018-06-29 10:28:42.812500,7.92,63.88
199387,2018-06-29 10:28:42.843750,25.35,63.88
199388,2018-06-29 10:28:42.875000,36.78,63.88
199389,2018-06-29 10:28:42.906250,45.57,63.88
199390,2018-06-29 10:28:42.937500,52.85,63.88
199391,2018-06-29 10:28:42.968750,58.7,63.88
199392,2018-06-29 10:28:43.000000,64.0,63.88
199393,2018-06-29 10:28:43.031250,69.93,63.88
199394,2018-06-29 10:28:43.062500,76.72,63.88
199395,2018-06-29 10:28:43.093750,83.8,63.88
199396,2018-06-29 10:28:43.125000,88.89,63.88
199397,2018-06-29 10:28:43.156250,88.22,63.88
199398,2018-06-29 10:28:43.187500,81.12,63.88
199399,2018-06-29 10:28:43.218750,71.27,63.88
199400,2018-06-29 10:28:43.250000,59.7,63.88
199401,2018-06-29 10:28:43.281250,41.55,63.88
199402,2018-06-29 10:28:43.312500,13.5,63.88
199403,2018-06-29 10:28:43.343750,-19.96,63.88
199404,2018-06-29 10:28:43.375000,-51.15,63.88
199405,2018-06-29 10:28:43.406250,-76.9,63.88
199406,2018-06-29 10:28:43.437500,-99.52,63.88
199407,2018-06-29 10:28:43.468750,-120.4,63.88
199408,2018-06-29 10:28:43.500000,-134.34,63.88
199409,2018-06-29 10:28:43.531250,-132.31,63.72
199410,2018-06-29 10:28:43.562500,-111.45,63.72
199411,2018-06-29 10:28:43.593750,-80.73,63.72
199412,2018-06-29 10:28:43.625000,-53.49,63.72
199413,2018-06-29 10:28:43.656250,-35.7,63.72
199414,2018-06-29 10:28:43.687500,-23.71,63.72
199415,2018-06-29 10:28:43.718750,-12.1,63.72
199416,2018-06-29 10:28:43.750000,-0.58,63.72
199417,2018-06-29 10:28:43.781250,7.49,63.72
199418,2018-06-29 10:28:43.812500,11.33,63.72
199419,2018-06-29 10:28:43.843750,13.97,63.72
199420,2018-06-29 10:28:43.875000,17.63,63.72
199421,2018-06-29 10:28:43.906250,21.38,63.72
199422,2018-06-29 10:28:43.937500,23.27,63.72
199423,2018-06-29 10:28:43.968750,22.01,63.72
199424,2018-06-29 10:28:44.000000,17.27,63.72
199425,2018-06-29 10:28:44.031250,9.41,63.72
199426,2018-06-29 10:28:44.062500,-0.77,63.72
199427,2018-06-29 10:28:44.093750,-11.54,63.72
199428,2018-06-29 10:28:44.125000,-20.85,63.72
199429,2018-06-29 10:28:44.156250,-28.9,63.72
199430,2018-06-29 10:28:44.187500,-38.17,63.72
199431,2018-06-29 10:28:44.218750,-49.87,63.72
199432,2018-06-29 10:28:44.250000,-61.81,63.72
199433,2018-06-29 10:28:44.281250,-68.08,63.72
199434,2018-06-29 10:28:44.312500,-61.01,63.72
199435,2018-06-29 10:28:44.343750,-38.8,63.72
199436,2018-06-29 10:28:44.375000,-9.74,63.72
199437,2018-06-29 10:28:44.406250,15.79,63.72
199438,2018-06-29 10:28:44.437500,34.32,63.72
199439,2018-06-29 10:28:44.468750,47.06,63.72
199440,2018-06-29 10:28:44.500000,54.61,63.72
199441,2018-06-29 10:28:44.531250,57.38,63.57
199442,2018-06-29 10:28:44.562500,57.7,63.57
199443,2018-06-29 10:28:44.593750,58.05,63.57
199444,2018-06-29 10:28:44.625000,58.88,63.57
199445,2018-06-29 10:28:44.656250,60.27,63.57
199446,2018-06-29 10:28:44.687500,63.18,63.57
199447,2018-06-29 10:28:44.718750,66.82,63.57
199448,2018-06-29 10:28:44.750000,68.32,63.57
199449,2018-06-29 10:28:44.781250,67.32,63.57
199450,2018-06-29 10:28:44.812500,66.28,63.57
199451,2018-06-29 10:28:44.843750,65.72,63.57
199452,2018-06-29 10:28:44.875000,63.82,63.57
199453,2018-06-29 10:28:44.906250,61.17,63.57
199454,2018-06-29 10:28:44.937500,61.71,63.57
199455,2018-06-29 10:28:44.968750,68.14,63.57
199456,2018-06-29 10:28:45.000000,79.15,63.57
199457,2018-06-29 10:28:45.031250,92.71,63.57
199458,2018-06-29 10:28:45.062500,111.14,63.57
199459,2018-06-29 10:28:45.093750,139.88,63.57
199460,2018-06-29 10:28:45.125000,177.05,63.57
199461,2018-06-29 10:28:45.156250,205.69,63.57
199462,2018-06-29 10:28:45.187500,204.02,63.57
199463,2018-06-29 10:28:45.218750,168.2,63.57
199464,2018-06-29 10:28:45.250000,120.67,63.57
199465,2018-06-29 10:28:45.281250,90.24,63.57
199466,2018-06-29 10:28:45.312500,84.46,63.57
199467,2018-06-29 10:28:45.343750,86.57,63.57
199468,2018-06-29 10:28:45.375000,78.4,63.57
199469,2018-06-29 10:28:45.406250,55.98,63.57
199470,2018-06-29 10:28:45.437500,23.66,63.57
199471,2018-06-29 10:28:45.468750,-12.02,63.57
199472,2018-06-29 10:28:45.500000,-42.28,63.57
199473,2018-06-29 10:28:45.531250,-62.54,63.4
199474,2018-06-29 10:28:45.562500,-77.68,63.4
199475,2018-06-29 10:28:45.593750,-92.37,63.4
199476,2018-06-29 10:28:45.625000,-101.64,63.4
199477,2018-06-29 10:28:45.656250,-96.83,63.4
199478,2018-06-29 10:28:45.687500,-76.12,63.4
199479,2018-06-29 10:28:45.718750,-44.88,63.4
199480,2018-06-29 10:28:45.750000,-10.26,63.4
199481,2018-06-29 10:28:45.781250,20.48,63.4
199482,2018-06-29 10:28:45.812500,40.28,63.4
199483,2018-06-29 10:28:45.843750,45.44,63.4
199484,2018-06-29 10:28:45.875000,37.29,63.4
199485,2018-06-29 10:28:45.906250,21.43,63.4
199486,2018-06-29 10:28:45.937500,5.27,63.4
199487,2018-06-29 10:28:45.968750,-9.79,63.4
199488,2018-06-29 10:28:46.000000,-31.56,63.4
199489,2018-06-29 10:28:46.031250,-65.08,63.4
199490,2018-06-29 10:28:46.062500,-104.82,63.4
199491,2018-06-29 10:28:46.093750,-145.02,63.4
199492,2018-06-29 10:28:46.125000,-190.16,63.4
199493,2018-06-29 10:28:46.156250,-250.59,63.4
199494,2018-06-29 10:28:46.187500,-321.7,63.4
199495,2018-06-29 10:28:46.218750,-363.74,63.4
199496,2018-06-29 10:28:46.250000,-328.11,63.4
199497,2018-06-29 10:28:46.281250,-215.68,63.4
199498,2018-06-29 10:28:46.312500,-78.77,63.4
199499,2018-06-29 10:28:46.343750,36.87,63.4
199500,2018-06-29 10:28:46.375000,116.22,63.4
199501,2018-06-29 10:28:46.406250,152.48,63.4
199502,2018-06-29 10:28:46.437500,143.9,63.4
199503,2018-06-29 10:28:46.468750,107.38,63.4
199504,2018-06-29 10:28:46.500000,68.08,63.4
199505,2018-06-29 10:28:46.531250,40.14,63.25
199506,2018-06-29 10:28:46.562500,25.78,63.25
199507,2018-06-29 10:28:46.593750,22.8,63.25
199508,2018-06-29 10:28:46.625000,25.98,63.25
199509,2018-06-29 10:28:46.656250,30.36,63.25
199510,2018-06-29 10:28:46.687500,38.34,63.25
199511,2018-06-29 10:28:46.718750,56.35,63.25
199512,2018-06-29 10:28:46.750000,82.1,63.25
199513,2018-06-29 10:28:46.781250,102.04,63.25
199514,2018-06-29 10:28:46.812500,103.46,63.25
199515,2018-06-29 10:28:46.843750,86.32,63.25
199516,2018-06-29 10:28:46.875000,61.45,63.25
199517,2018-06-29 10:28:46.906250,33.29,63.25
199518,2018-06-29 10:28:46.937500,-9.3,63.25
199519,2018-06-29 10:28:46.968750,-76.6,63.25
199520,2018-06-29 10:28:47.000000,-160.11,63.25
199521,2018-06-29 10:28:47.031250,-239.41,63.25
199522,2018-06-29 10:28:47.062500,-297.48,63.25
199523,2018-06-29 10:28:47.093750,-327.65,63.25
199524,2018-06-29 10:28:47.125000,-337.95,63.25
199525,2018-06-29 10:28:47.156250,-343.31,63.25
199526,2018-06-29 10:28:47.187500,-341.11,63.25
199527,2018-06-29 10:28:47.218750,-310.25,63.25
199528,2018-06-29 10:28:47.250000,-248.98,63.25
199529,2018-06-29 10:28:47.281250,-191.56,63.25
199530,2018-06-29 10:28:47.312500,-168.52,63.25
199531,2018-06-29 10:28:47.343750,-172.17,63.25
199532,2018-06-29 10:28:47.375000,-174.25,63.25
199533,2018-06-29 10:28:47.406250,-155.3,63.25
199534,2018-06-29 10:28:47.437500,-111.79,63.25
199535,2018-06-29 10:28:47.468750,-56.86,63.25
199536,2018-06-29 10:28:47.500000,-18.16,63.25
199537,2018-06-29 10:28:47.531250,-16.06,63.08
199538,2018-06-29 10:28:47.562500,-40.53,63.08
199539,2018-06-29 10:28:47.593750,-62.9,63.08
199540,2018-06-29 10:28:47.625000,-70.5,63.08
199541,2018-06-29 10:28:47.656250,-72.23,63.08
199542,2018-06-29 10:28:47.687500,-72.58,63.08
199543,2018-06-29 10:28:47.718750,-62.36,63.08
199544,2018-06-29 10:28:47.750000,-34.58,63.08
199545,2018-06-29 10:28:47.781250,8.08,63.08
199546,2018-06-29 10:28:47.812500,58.75,63.08
199547,2018-06-29 10:28:47.843750,108.81,63.08
199548,2018-06-29 10:28:47.875000,149.99,63.08
199549,2018-06-29 10:28:47.906250,177.69,63.08
199550,2018-06-29 10:28:47.937500,189.6,63.08
199551,2018-06-29 10:28:47.968750,185.44,63.08
199552,2018-06-29 10:28:48.000000,169.13,63.08
199553,2018-06-29 10:28:48.031250,145.49,63.08
199554,2018-06-29 10:28:48.062500,115.41,63.08
199555,2018-06-29 10:28:48.093750,77.46,63.08
199556,2018-06-29 10:28:48.125000,32.33,63.08
199557,2018-06-29 10:28:48.156250,-12.53,63.08
199558,2018-06-29 10:28:48.187500,-37.53,63.08
199559,2018-06-29 10:28:48.218750,-20.15,63.08
199560,2018-06-29 10:28:48.250000,41.76,63.08
199561,2018-06-29 10:28:48.281250,125.38,63.08
199562,2018-06-29 10:28:48.312500,201.44,63.08
199563,2018-06-29 10:28:48.343750,247.19,63.08
199564,2018-06-29 10:28:48.375000,252.05,63.08
199565,2018-06-29 10:28:48.406250,224.4,63.08
199566,2018-06-29 10:28:48.437500,185.89,63.08
199567,2018-06-29 10:28:48.468750,155.54,63.08
199568,2018-06-29 10:28:48.500000,143.46,63.08
199569,2018-06-29 10:28:48.531250,152.13,62.9
199570,2018-06-29 10:28:48.562500,175.28,62.9
199571,2018-06-29 10:28:48.593750,199.6,62.9
199572,2018-06-29 10:28:48.625000,211.27,62.9
199573,2018-06-29 10:28:48.656250,203.39,62.9
199574,2018-06-29 10:28:48.687500,180.19,62.9
199575,2018-06-29 10:28:48.718750,152.27,62.9
199576,2018-06-29 10:28:48.750000,126.75,62.9
199577,2018-06-29 10:28:48.781250,105.23,62.9
199578,2018-06-29 10:28:48.812500,89.33,62.9
199579,2018-06-29 10:28:48.843750,83.49,62.9
199580,2018-06-29 10:28:48.875000,90.72,62.9
199581,2018-06-29 10:28:48.906250,107.38,62.9
199582,2018-06-29 10:28:48.937500,124.47,62.9
199583,2018-06-29 10:28:48.968750,135.67,62.9
199584,2018-06-29 10:28:49.000000,141.67,62.9
199585,2018-06-29 10:28:49.031250,146.82,62.9
199586,2018-06-29 10:28:49.062500,153.74,62.9
199587,2018-06-29 10:28:49.093750,159.59,62.9
199588,2018-06-29 10:28:49.125000,157.82,62.9
199589,2018-06-29 10:28:49.156250,146.66,62.9
199590,2018-06-29 10:28:49.187500,128.63,62.9
199591,2018-06-29 10:28:49.218750,99.6,62.9
199592,2018-06-29 10:28:49.250000,53.39,62.9
199593,2018-06-29 10:28:49.281250,-2.49,62.9
199594,2018-06-29 10:28:49.312500,-53.15,62.9
199595,2018-06-29 10:28:49.343750,-96.83,62.9
199596,2018-06-29 10:28:49.375000,-143.27,62.9
199597,2018-06-29 10:28:49.406250,-196.3,62.9
199598,2018-06-29 10:28:49.437500,-251.59,62.9
199599,2018-06-29 10:28:49.468750,-307.55,62.9
199600,2018-06-29 10:28:49.500000,-369.87,62.9
199601,2018-06-29 10:28:49.531250,-445.45,62.77
199602,2018-06-29 10:28:49.562500,-533.33,62.77
199603,2018-06-29 10:28:49.593750,-616.41,62.77
199604,2018-06-29 10:28:49.625000,-662.23,62.77
199605,2018-06-29 10:28:49.656250,-645.29,62.77
199606,2018-06-29 10:28:49.687500,-572.52,62.77
199607,2018-06-29 10:28:49.718750,-475.21,62.77
199608,2018-06-29 10:28:49.750000,-378.87,62.77
199609,2018-06-29 10:28:49.781250,-293.54,62.77
199610,2018-06-29 10:28:49.812500,-224.2,62.77
199611,2018-06-29 10:28:49.843750,-171.44,62.77
199612,2018-06-29 10:28:49.875000,-126.68,62.77
199613,2018-06-29 10:28:49.906250,-82.49,62.77
199614,2018-06-29 10:28:49.937500,-48.77,62.77
199615,2018-06-29 10:28:49.968750,-44.74,62.77
199616,2018-06-29 10:28:50.000000,-70.36,62.77
199617,2018-06-29 10:28:50.031250,-98.62,62.77
199618,2018-06-29 10:28:50.062500,-100.61,62.77
199619,2018-06-29 10:28:50.093750,-68.13,62.77
199620,2018-06-29 10:28:50.125000,-11.88,62.77
199621,2018-06-29 10:28:50.156250,50.22,62.77
199622,2018-06-29 10:28:50.187500,101.45,62.77
199623,2018-06-29 10:28:50.218750,133.83,62.77
199624,2018-06-29 10:28:50.250000,152.7,62.77
199625,2018-06-29 10:28:50.281250,173.16,62.77
199626,2018-06-29 10:28:50.312500,207.59,62.77
199627,2018-06-29 10:28:50.343750,252.58,62.77
199628,2018-06-29 10:28:50.375000,292.97,62.77
199629,2018-06-29 10:28:50.406250,321.58,62.77
199630,2018-06-29 10:28:50.437500,346.47,62.77
199631,2018-06-29 10:28:50.468750,373.86,62.77
199632,2018-06-29 10:28:50.500000,396.95,62.77
199633,2018-06-29 10:28:50.531250,408.59,62.65
199634,2018-06-29 10:28:50.562500,412.8,62.65
199635,2018-06-29 10:28:50.593750,415.98,62.65
199636,2018-06-29 10:28:50.625000,415.74,62.65
199637,2018-06-29 10:28:50.656250,403.51,62.65
199638,2018-06-29 10:28:50.687500,374.87,62.65
199639,2018-06-29 10:28:50.718750,332.76,62.65
199640,2018-06-29 10:28:50.750000,281.07,62.65
199641,2018-06-29 10:28:50.781250,222.13,62.65
199642,2018-06-29 10:28:50.812500,162.35,62.65
199643,2018-06-29 10:28:50.843750,109.94,62.65
199644,2018-06-29 10:28:50.875000,64.74,62.65
199645,2018-06-29 10:28:50.906250,21.15,62.65
199646,2018-06-29 10:28:50.937500,-19.76,62.65
199647,2018-06-29 10:28:50.968750,-50.24,62.65
199648,2018-06-29 10:28:51.000000,-62.83,62.65
199649,2018-06-29 10:28:51.031250,-53.31,62.65
199650,2018-06-29 10:28:51.062500,-22.53,62.65
199651,2018-06-29 10:28:51.093750,23.0,62.65
199652,2018-06-29 10:28:51.125000,74.87,62.65
199653,2018-06-29 10:28:51.156250,124.39,62.65
199654,2018-06-29 10:28:51.187500,159.31,62.65
199655,2018-06-29 10:28:51.218750,167.89,62.65
199656,2018-06-29 10:28:51.250000,153.74,62.65
199657,2018-06-29 10:28:51.281250,138.99,62.65
199658,2018-06-29 10:28:51.312500,140.44,62.65
199659,2018-06-29 10:28:51.343750,147.54,62.65
199660,2018-06-29 10:28:51.375000,138.23,62.65
199661,2018-06-29 10:28:51.406250,107.97,62.65
199662,2018-06-29 10:28:51.437500,68.75,62.65
199663,2018-06-29 10:28:51.468750,31.07,62.65
199664,2018-06-29 10:28:51.500000,0.21,62.65
199665,2018-06-29 10:28:51.531250,-22.13,62.47
199666,2018-06-29 10:28:51.562500,-42.32,62.47
199667,2018-06-29 10:28:51.593750,-70.19,62.47
199668,2018-06-29 10:28:51.625000,-104.89,62.47
199669,2018-06-29 10:28:51.656250,-136.88,62.47
199670,2018-06-29 10:28:51.687500,-165.92,62.47
199671,2018-06-29 10:28:51.718750,-203.76,62.47
199672,2018-06-29 10:28:51.750000,-255.73,62.47
199673,2018-06-29 10:28:51.781250,-313.78,62.47
199674,2018-06-29 10:28:51.812500,-371.25,62.47
199675,2018-06-29 10:28:51.843750,-433.08,62.47
199676,2018-06-29 10:28:51.875000,-512.62,62.47
199677,2018-06-29 10:28:51.906250,-616.9,62.47
199678,2018-06-29 10:28:51.937500,-715.78,62.47
199679,2018-06-29 10:28:51.968750,-745.88,62.47
199680,2018-06-29 10:28:52.000000,-680.35,62.47
199681,2018-06-29 10:28:52.031250,-565.63,62.47
199682,2018-06-29 10:28:52.062500,-458.64,62.47
199683,2018-06-29 10:28:52.093750,-370.01,62.47
199684,2018-06-29 10:28:52.125000,-289.11,62.47
199685,2018-06-29 10:28:52.156250,-212.67,62.47
199686,2018-06-29 10:28:52.187500,-134.45,62.47
199687,2018-06-29 10:28:52.218750,-50.47,62.47
199688,2018-06-29 10:28:52.250000,21.82,62.47
199689,2018-06-29 10:28:52.281250,59.48,62.47
199690,2018-06-29 10:28:52.312500,66.73,62.47
199691,2018-06-29 10:28:52.343750,67.52,62.47
199692,2018-06-29 10:28:52.375000,71.51,62.47
199693,2018-06-29 10:28:52.406250,70.66,62.47
199694,2018-06-29 10:28:52.437500,62.87,62.47
199695,2018-06-29 10:28:52.468750,57.06,62.47
199696,2018-06-29 10:28:52.500000,57.16,62.47
199697,2018-06-29 10:28:52.531250,55.89,62.27
199698,2018-06-29 10:28:52.562500,47.68,62.27
199699,2018-06-29 10:28:52.593750,40.25,62.27
199700,2018-06-29 10:28:52.625000,43.68,62.27
199701,2018-06-29 10:28:52.656250,51.77,62.27
199702,2018-06-29 10:28:52.687500,46.56,62.27
199703,2018-06-29 10:28:52.718750,20.33,62.27
199704,2018-06-29 10:28:52.750000,-18.04,62.27
199705,2018-06-29 10:28:52.781250,-54.54,62.27
199706,2018-06-29 10:28:52.812500,-79.19,62.27
199707,2018-06-29 10:28:52.843750,-89.51,62.27
199708,2018-06-29 10:28:52.875000,-90.22,62.27
199709,2018-06-29 10:28:52.906250,-83.39,62.27
199710,2018-06-29 10:28:52.937500,-61.4,62.27
199711,2018-06-29 10:28:52.968750,-19.61,62.27
199712,2018-06-29 10:28:53.000000,31.42,62.27
199713,2018-06-29 10:28:53.031250,78.84,62.27
199714,2018-06-29 10:28:53.062500,124.56,62.27
199715,2018-06-29 10:28:53.093750,179.12,62.27
199716,2018-06-29 10:28:53.125000,242.51,62.27
199717,2018-06-29 10:28:53.156250,298.52,62.27
199718,2018-06-29 10:28:53.187500,330.36,62.27
199719,2018-06-29 10:28:53.218750,339.9,62.27
199720,2018-06-29 10:28:53.250000,343.35,62.27
199721,2018-06-29 10:28:53.281250,347.94,62.27
199722,2018-06-29 10:28:53.312500,344.77,62.27
199723,2018-06-29 10:28:53.343750,325.61,62.27
199724,2018-06-29 10:28:53.375000,294.11,62.27
199725,2018-06-29 10:28:53.406250,258.74,62.27
199726,2018-06-29 10:28:53.437500,224.24,62.27
199727,2018-06-29 10:28:53.468750,193.47,62.27
199728,2018-06-29 10:28:53.500000,169.66,62.27
199729,2018-06-29 10:28:53.531250,152.22,62.05
199730,2018-06-29 10:28:53.562500,136.11,62.05
199731,2018-06-29 10:28:53.593750,118.02,62.05
199732,2018-06-29 10:28:53.625000,98.53,62.05
199733,2018-06-29 10:28:53.656250,77.33,62.05
199734,2018-06-29 10:28:53.687500,52.25,62.05
199735,2018-06-29 10:28:53.718750,20.62,62.05
199736,2018-06-29 10:28:53.750000,-14.73,62.05
199737,2018-06-29 10:28:53.781250,-46.86,62.05
199738,2018-06-29 10:28:53.812500,-70.08,62.05
199739,2018-06-29 10:28:53.843750,-84.94,62.05
199740,2018-06-29 10:28:53.875000,-98.15,62.05
199741,2018-06-29 10:28:53.906250,-115.41,62.05
199742,2018-06-29 10:28:53.937500,-133.67,62.05
199743,2018-06-29 10:28:53.968750,-134.36,62.05
199744,2018-06-29 10:28:54.000000,-104.03,62.05
199745,2018-06-29 10:28:54.031250,-50.68,62.05
199746,2018-06-29 10:28:54.062500,0.26,62.05
199747,2018-06-29 10:28:54.093750,37.99,62.05
199748,2018-06-29 10:28:54.125000,67.42,62.05
199749,2018-06-29 10:28:54.156250,85.35,62.05
199750,2018-06-29 10:28:54.187500,88.5,62.05
199751,2018-06-29 10:28:54.218750,80.36,62.05
199752,2018-06-29 10:28:54.250000,85.66,62.05
199753,2018-06-29 10:28:54.281250,96.81,62.05
199754,2018-06-29 10:28:54.312500,103.64,62.05
199755,2018-06-29 10:28:54.343750,111.06,62.05
199756,2018-06-29 10:28:54.375000,144.79,62.05
199757,2018-06-29 10:28:54.406250,204.32,62.05
199758,2018-06-29 10:28:54.437500,243.77,62.05
199759,2018-06-29 10:28:54.468750,253.5,62.05
199760,2018-06-29 10:28:54.500000,253.94,62.05
199761,2018-06-29 10:28:54.531250,297.93,61.98
199762,2018-06-29 10:28:54.562500,362.41,61.98
199763,2018-06-29 10:28:54.593750,420.49,61.98
199764,2018-06-29 10:28:54.625000,423.98,61.98
199765,2018-06-29 10:28:54.656250,172.74,61.98
199766,2018-06-29 10:28:54.687500,-121.84,61.98
199767,2018-06-29 10:28:54.718750,-309.82,61.98
199768,2018-06-29 10:28:54.750000,-428.56,61.98
199769,2018-06-29 10:28:54.781250,-510.57,61.98
199770,2018-06-29 10:28:54.812500,-532.9,61.98
199771,2018-06-29 10:28:54.843750,-527.78,61.98
199772,2018-06-29 10:28:54.875000,-529.05,61.98
199773,2018-06-29 10:28:54.906250,-521.89,61.98
199774,2018-06-29 10:28:54.937500,-480.71,61.98
199775,2018-06-29 10:28:54.968750,-405.55,61.98
199776,2018-06-29 10:28:55.000000,-331.89,61.98
199777,2018-06-29 10:28:55.031250,-257.34,61.98
199778,2018-06-29 10:28:55.062500,-167.96,61.98
199779,2018-06-29 10:28:55.093750,-50.32,61.98
199780,2018-06-29 10:28:55.125000,60.23,61.98
199781,2018-06-29 10:28:55.156250,134.57,61.98
199782,2018-06-29 10:28:55.187500,172.83,61.98
199783,2018-06-29 10:28:55.218750,192.67,61.98
199784,2018-06-29 10:28:55.250000,202.67,61.98
199785,2018-06-29 10:28:55.281250,197.22,61.98
199786,2018-06-29 10:28:55.312500,178.82,61.98
199787,2018-06-29 10:28:55.343750,156.62,61.98
199788,2018-06-29 10:28:55.375000,137.75,61.98
199789,2018-06-29 10:28:55.406250,111.12,61.98
199790,2018-06-29 10:28:55.437500,74.91,61.98
199791,2018-06-29 10:28:55.468750,35.73,61.98
199792,2018-06-29 10:28:55.500000,9.57,61.98
199793,2018-06-29 10:28:55.531250,-18.55,61.87
199794,2018-06-29 10:28:55.562500,-58.04,61.87
199795,2018-06-29 10:28:55.593750,-103.76,61.87
199796,2018-06-29 10:28:55.625000,-131.07,61.87
199797,2018-06-29 10:28:55.656250,-119.56,61.87
199798,2018-06-29 10:28:55.687500,-74.42,61.87
199799,2018-06-29 10:28:55.718750,14.81,61.87
199800,2018-06-29 10:28:55.750000,135.87,61.87
199801,2018-06-29 10:28:55.781250,283.57,61.87
199802,2018-06-29 10:28:55.812500,410.5,61.87
199803,2018-06-29 10:28:55.843750,497.95,61.87
199804,2018-06-29 10:28:55.875000,516.17,61.87
199805,2018-06-29 10:28:55.906250,332.39,61.87
199806,2018-06-29 10:28:55.937500,143.57,61.87
199807,2018-06-29 10:28:55.968750,-7.74,61.87
199808,2018-06-29 10:28:56.000000,-158.51,61.87
199809,2018-06-29 10:28:56.031250,-279.71,61.87
199810,2018-06-29 10:28:56.062500,-323.34,61.87
199811,2018-06-29 10:28:56.093750,-315.0,61.87
199812,2018-06-29 10:28:56.125000,-278.03,61.87
199813,2018-06-29 10:28:56.156250,-223.01,61.87
199814,2018-06-29 10:28:56.187500,-152.99,61.87
199815,2018-06-29 10:28:56.218750,-77.94,61.87
199816,2018-06-29 10:28:56.250000,-29.45,61.87
199817,2018-06-29 10:28:56.281250,-4.78,61.87
199818,2018-06-29 10:28:56.312500,3.36,61.87
199819,2018-06-29 10:28:56.343750,11.85,61.87
199820,2018-06-29 10:28:56.375000,12.81,61.87
199821,2018-06-29 10:28:56.406250,6.07,61.87
199822,2018-06-29 10:28:56.437500,-1.73,61.87
199823,2018-06-29 10:28:56.468750,-6.73,61.87
199824,2018-06-29 10:28:56.500000,-10.26,61.87
199825,2018-06-29 10:28:56.531250,-19.01,61.72
199826,2018-06-29 10:28:56.562500,-27.54,61.72
199827,2018-06-29 10:28:56.593750,-32.57,61.72
199828,2018-06-29 10:28:56.625000,-33.89,61.72
199829,2018-06-29 10:28:56.656250,-37.14,61.72
199830,2018-06-29 10:28:56.687500,-45.28,61.72
199831,2018-06-29 10:28:56.718750,-56.37,61.72
199832,2018-06-29 10:28:56.750000,-66.22,61.72
199833,2018-06-29 10:28:56.781250,-71.85,61.72
199834,2018-06-29 10:28:56.812500,-72.24,61.72
199835,2018-06-29 10:28:56.843750,-62.95,61.72
199836,2018-06-29 10:28:56.875000,-37.92,61.72
199837,2018-06-29 10:28:56.906250,-0.27,61.72
199838,2018-06-29 10:28:56.937500,37.6,61.72
199839,2018-06-29 10:28:56.968750,67.82,61.72
199840,2018-06-29 10:28:57.000000,92.23,61.72
199841,2018-06-29 10:28:57.031250,114.16,61.72
199842,2018-06-29 10:28:57.062500,131.22,61.72
199843,2018-06-29 10:28:57.093750,136.06,61.72
199844,2018-06-29 10:28:57.125000,122.65,61.72
199845,2018-06-29 10:28:57.156250,94.82,61.72
199846,2018-06-29 10:28:57.187500,67.27,61.72
199847,2018-06-29 10:28:57.218750,53.19,61.72
199848,2018-06-29 10:28:57.250000,53.12,61.72
199849,2018-06-29 10:28:57.281250,60.74,61.72
199850,2018-06-29 10:28:57.312500,72.43,61.72
199851,2018-06-29 10:28:57.343750,82.51,61.72
199852,2018-06-29 10:28:57.375000,78.84,61.72
199853,2018-06-29 10:28:57.406250,53.54,61.72
199854,2018-06-29 10:28:57.437500,8.21,61.72
199855,2018-06-29 10:28:57.468750,-54.39,61.72
199856,2018-06-29 10:28:57.500000,-128.69,61.72
199857,2018-06-29 10:28:57.531250,-195.49,61.78
199858,2018-06-29 10:28:57.562500,-230.74,61.78
199859,2018-06-29 10:28:57.593750,-228.21,61.78
199860,2018-06-29 10:28:57.625000,-202.92,61.78
199861,2018-06-29 10:28:57.656250,-173.31,61.78
199862,2018-06-29 10:28:57.687500,-148.32,61.78
199863,2018-06-29 10:28:57.718750,-129.64,61.78
199864,2018-06-29 10:28:57.750000,-117.36,61.78
199865,2018-06-29 10:28:57.781250,-110.92,61.78
199866,2018-06-29 10:28:57.812500,-109.67,61.78
199867,2018-06-29 10:28:57.843750,-111.11,61.78
199868,2018-06-29 10:28:57.875000,-106.09,61.78
199869,2018-06-29 10:28:57.906250,-83.29,61.78
199870,2018-06-29 10:28:57.937500,-42.93,61.78
199871,2018-06-29 10:28:57.968750,0.57,61.78
199872,2018-06-29 10:28:58.000000,32.2,61.78
199873,2018-06-29 10:28:58.031250,46.45,61.78
199874,2018-06-29 10:28:58.062500,45.52,61.78
199875,2018-06-29 10:28:58.093750,35.31,61.78
199876,2018-06-29 10:28:58.125000,23.47,61.78
199877,2018-06-29 10:28:58.156250,16.98,61.78
199878,2018-06-29 10:28:58.187500,20.12,61.78
199879,2018-06-29 10:28:58.218750,32.5,61.78
199880,2018-06-29 10:28:58.250000,47.89,61.78
199881,2018-06-29 10:28:58.281250,57.15,61.78
199882,2018-06-29 10:28:58.312500,54.9,61.78
199883,2018-06-29 10:28:58.343750,43.11,61.78
199884,2018-06-29 10:28:58.375000,28.08,61.78
199885,2018-06-29 10:28:58.406250,14.72,61.78
199886,2018-06-29 10:28:58.437500,4.97,61.78
199887,2018-06-29 10:28:58.468750,-0.37,61.78
199888,2018-06-29 10:28:58.500000,-2.15,61.78
199889,2018-06-29 10:28:58.531250,-4.93,61.85
199890,2018-06-29 10:28:58.562500,-14.08,61.85
199891,2018-06-29 10:28:58.593750,-29.0,61.85
199892,2018-06-29 10:28:58.625000,-43.57,61.85
199893,2018-06-29 10:28:58.656250,-55.94,61.85
199894,2018-06-29 10:28:58.687500,-72.12,61.85
199895,2018-06-29 10:28:58.718750,-93.09,61.85
199896,2018-06-29 10:28:58.750000,-103.55,61.85
199897,2018-06-29 10:28:58.781250,-85.95,61.85
199898,2018-06-29 10:28:58.812500,-43.07,61.85
199899,2018-06-29 10:28:58.843750,5.38,61.85
199900,2018-06-29 10:28:58.875000,44.55,61.85
199901,2018-06-29 10:28:58.906250,70.91,61.85
199902,2018-06-29 10:28:58.937500,83.54,61.85
199903,2018-06-29 10:28:58.968750,82.19,61.85
199904,2018-06-29 10:28:59.000000,71.33,61.85
199905,2018-06-29 10:28:59.031250,57.63,61.85
199906,2018-06-29 10:28:59.062500,44.42,61.85
199907,2018-06-29 10:28:59.093750,31.22,61.85
199908,2018-06-29 10:28:59.125000,17.38,61.85
199909,2018-06-29 10:28:59.156250,4.35,61.85
199910,2018-06-29 10:28:59.187500,-5.77,61.85
199911,2018-06-29 10:28:59.218750,-12.05,61.85
199912,2018-06-29 10:28:59.250000,-13.03,61.85
199913,2018-06-29 10:28:59.281250,-5.59,61.85
199914,2018-06-29 10:28:59.312500,10.07,61.85
199915,2018-06-29 10:28:59.343750,28.53,61.85
199916,2018-06-29 10:28:59.375000,44.81,61.85
199917,2018-06-29 10:28:59.406250,57.58,61.85
199918,2018-06-29 10:28:59.437500,66.43,61.85
199919,2018-06-29 10:28:59.468750,72.76,61.85
199920,2018-06-29 10:28:59.500000,80.71,61.85
199921,2018-06-29 10:28:59.531250,90.54,61.93
199922,2018-06-29 10:28:59.562500,96.55,61.93
199923,2018-06-29 10:28:59.593750,95.84,61.93
199924,2018-06-29 10:28:59.625000,91.53,61.93
199925,2018-06-29 10:28:59.656250,84.13,61.93
199926,2018-06-29 10:28:59.687500,67.68,61.93
199927,2018-06-29 10:28:59.718750,38.66,61.93
199928,2018-06-29 10:28:59.750000,5.91,61.93
199929,2018-06-29 10:28:59.781250,-11.97,61.93
199930,2018-06-29 10:28:59.812500,-3.7,61.93
199931,2018-06-29 10:28:59.843750,19.55,61.93
199932,2018-06-29 10:28:59.875000,32.67,61.93
199933,2018-06-29 10:28:59.906250,20.81,61.93
199934,2018-06-29 10:28:59.937500,-11.39,61.93
199935,2018-06-29 10:28:59.968750,-48.3,61.93
199936,2018-06-29 10:29:00.000000,-71.75,61.93
199937,2018-06-29 10:29:00.031250,-69.57,61.93
199938,2018-06-29 10:29:00.062500,-46.18,61.93
199939,2018-06-29 10:29:00.093750,-19.17,61.93
199940,2018-06-29 10:29:00.125000,-0.82,61.93
199941,2018-06-29 10:29:00.156250,10.68,61.93
199942,2018-06-29 10:29:00.187500,21.44,61.93
199943,2018-06-29 10:29:00.218750,32.18,61.93
199944,2018-06-29 10:29:00.250000,40.18,61.93
199945,2018-06-29 10:29:00.281250,45.42,61.93
199946,2018-06-29 10:29:00.312500,50.77,61.93
199947,2018-06-29 10:29:00.343750,56.99,61.93
199948,2018-06-29 10:29:00.375000,61.48,61.93
199949,2018-06-29 10:29:00.406250,62.63,61.93
199950,2018-06-29 10:29:00.437500,61.71,61.93
199951,2018-06-29 10:29:00.468750,59.12,61.93
199952,2018-06-29 10:29:00.500000,53.7,61.93
199953,2018-06-29 10:29:00.531250,44.96,62.02
199954,2018-06-29 10:29:00.562500,31.87,62.02
199955,2018-06-29 10:29:00.593750,12.72,62.02
199956,2018-06-29 10:29:00.625000,-10.26,62.02
199957,2018-06-29 10:29:00.656250,-30.35,62.02
199958,2018-06-29 10:29:00.687500,-44.08,62.02
199959,2018-06-29 10:29:00.718750,-55.46,62.02
199960,2018-06-29 10:29:00.750000,-68.58,62.02
199961,2018-06-29 10:29:00.781250,-80.68,62.02
199962,2018-06-29 10:29:00.812500,-86.8,62.02
199963,2018-06-29 10:29:00.843750,-87.66,62.02
199964,2018-06-29 10:29:00.875000,-89.01,62.02
199965,2018-06-29 10:29:00.906250,-94.42,62.02
199966,2018-06-29 10:29:00.937500,-98.51,62.02
199967,2018-06-29 10:29:00.968750,-87.87,62.02
199968,2018-06-29 10:29:01.000000,-55.71,62.02
199969,2018-06-29 10:29:01.031250,-15.12,62.02
199970,2018-06-29 10:29:01.062500,11.75,62.02
199971,2018-06-29 10:29:01.093750,17.54,62.02
199972,2018-06-29 10:29:01.125000,15.02,62.02
199973,2018-06-29 10:29:01.156250,19.17,62.02
199974,2018-06-29 10:29:01.187500,32.02,62.02
199975,2018-06-29 10:29:01.218750,46.61,62.02
199976,2018-06-29 10:29:01.250000,58.22,62.02
199977,2018-06-29 10:29:01.281250,66.3,62.02
199978,2018-06-29 10:29:01.312500,69.64,62.02
199979,2018-06-29 10:29:01.343750,66.05,62.02
199980,2018-06-29 10:29:01.375000,54.92,62.02
199981,2018-06-29 10:29:01.406250,37.89,62.02
199982,2018-06-29 10:29:01.437500,19.55,62.02
199983,2018-06-29 10:29:01.468750,6.81,62.02
199984,2018-06-29 10:29:01.500000,3.73,62.02
199985,2018-06-29 10:29:01.531250,6.84,62.12
199986,2018-06-29 10:29:01.562500,8.89,62.12
199987,2018-06-29 10:29:01.593750,7.45,62.12
199988,2018-06-29 10:29:01.625000,6.41,62.12
199989,2018-06-29 10:29:01.656250,9.69,62.12
199990,2018-06-29 10:29:01.687500,15.96,62.12
199991,2018-06-29 10:29:01.718750,20.03,62.12
199992,2018-06-29 10:29:01.750000,16.79,62.12
199993,2018-06-29 10:29:01.781250,2.87,62.12
199994,2018-06-29 10:29:01.812500,-22.16,62.12
199995,2018-06-29 10:29:01.843750,-52.26,62.12
199996,2018-06-29 10:29:01.875000,-75.64,62.12
199997,2018-06-29 10:29:01.906250,-85.54,62.12
199998,2018-06-29 10:29:01.937500,-87.27,62.12
199999,2018-06-29 10:29:01.968750,-89.0,62.12
200000,2018-06-29 10:29:02.000000,-92.31,62.12
200001,2018-06-29 10:29:02.031250,-95.35,62.12
200002,2018-06-29 10:29:02.062500,-94.87,62.12
200003,2018-06-29 10:29:02.093750,-83.2,62.12
200004,2018-06-29 10:29:02.125000,-56.4,62.12
200005,2018-06-29 10:29:02.156250,-23.44,62.12
200006,2018-06-29 10:29:02.187500,4.11,62.12
200007,2018-06-29 10:29:02.218750,25.3,62.12
200008,2018-06-29 10:29:02.250000,43.57,62.12
200009,2018-06-29 10:29:02.281250,56.84,62.12
200010,2018-06-29 10:29:02.312500,61.53,62.12
200011,2018-06-29 10:29:02.343750,59.32,62.12
200012,2018-06-29 10:29:02.375000,55.47,62.12
200013,2018-06-29 10:29:02.406250,53.02,62.12
200014,2018-06-29 10:29:02.437500,50.49,62.12
200015,2018-06-29 10:29:02.468750,44.34,62.12
200016,2018-06-29 10:29:02.500000,33.42,62.12
200017,2018-06-29 10:29:02.531250,21.31,62.22
200018,2018-06-29 10:29:02.562500,13.79,62.22
200019,2018-06-29 10:29:02.593750,10.57,62.22
200020,2018-06-29 10:29:02.625000,1.69,62.22
200021,2018-06-29 10:29:02.656250,-20.33,62.22
200022,2018-06-29 10:29:02.687500,-46.78,62.22
200023,2018-06-29 10:29:02.718750,-61.45,62.22
200024,2018-06-29 10:29:02.750000,-60.49,62.22
200025,2018-06-29 10:29:02.781250,-53.45,62.22
200026,2018-06-29 10:29:02.812500,-49.56,62.22
200027,2018-06-29 10:29:02.843750,-51.66,62.22
200028,2018-06-29 10:29:02.875000,-57.43,62.22
200029,2018-06-29 10:29:02.906250,-62.8,62.22
200030,2018-06-29 10:29:02.937500,-70.36,62.22
200031,2018-06-29 10:29:02.968750,-89.98,62.22
200032,2018-06-29 10:29:03.000000,-124.59,62.22
200033,2018-06-29 10:29:03.031250,-163.9,62.22
200034,2018-06-29 10:29:03.062500,-195.66,62.22
200035,2018-06-29 10:29:03.093750,-210.53,62.22
200036,2018-06-29 10:29:03.125000,-198.77,62.22
200037,2018-06-29 10:29:03.156250,-159.18,62.22
200038,2018-06-29 10:29:03.187500,-107.29,62.22
200039,2018-06-29 10:29:03.218750,-61.6,62.22
200040,2018-06-29 10:29:03.250000,-27.12,62.22
200041,2018-06-29 10:29:03.281250,-0.01,62.22
200042,2018-06-29 10:29:03.312500,20.91,62.22
200043,2018-06-29 10:29:03.343750,34.64,62.22
200044,2018-06-29 10:29:03.375000,43.02,62.22
200045,2018-06-29 10:29:03.406250,49.75,62.22
200046,2018-06-29 10:29:03.437500,56.84,62.22
200047,2018-06-29 10:29:03.468750,64.81,62.22
200048,2018-06-29 10:29:03.500000,74.03,62.22
200049,2018-06-29 10:29:03.531250,83.1,62.32
200050,2018-06-29 10:29:03.562500,88.34,62.32
200051,2018-06-29 10:29:03.593750,87.9,62.32
200052,2018-06-29 10:29:03.625000,83.92,62.32
200053,2018-06-29 10:29:03.656250,79.1,62.32
200054,2018-06-29 10:29:03.687500,73.65,62.32
200055,2018-06-29 10:29:03.718750,66.9,62.32
200056,2018-06-29 10:29:03.750000,58.98,62.32
200057,2018-06-29 10:29:03.781250,50.05,62.32
200058,2018-06-29 10:29:03.812500,39.73,62.32
200059,2018-06-29 10:29:03.843750,28.2,62.32
200060,2018-06-29 10:29:03.875000,17.45,62.32
200061,2018-06-29 10:29:03.906250,9.12,62.32
200062,2018-06-29 10:29:03.937500,1.28,62.32
200063,2018-06-29 10:29:03.968750,-9.55,62.32
200064,2018-06-29 10:29:04.000000,-22.85,62.32
200065,2018-06-29 10:29:04.031250,-34.88,62.32
200066,2018-06-29 10:29:04.062500,-45.06,62.32
200067,2018-06-29 10:29:04.093750,-56.91,62.32
200068,2018-06-29 10:29:04.125000,-72.46,62.32
200069,2018-06-29 10:29:04.156250,-86.78,62.32
200070,2018-06-29 10:29:04.187500,-87.89,62.32
200071,2018-06-29 10:29:04.218750,-65.84,62.32
200072,2018-06-29 10:29:04.250000,-25.01,62.32
200073,2018-06-29 10:29:04.281250,17.56,62.32
200074,2018-06-29 10:29:04.312500,48.37,62.32
200075,2018-06-29 10:29:04.343750,66.57,62.32
200076,2018-06-29 10:29:04.375000,76.52,62.32
200077,2018-06-29 10:29:04.406250,79.27,62.32
200078,2018-06-29 10:29:04.437500,75.08,62.32
200079,2018-06-29 10:29:04.468750,67.79,62.32
200080,2018-06-29 10:29:04.500000,61.72,62.32
200081,2018-06-29 10:29:04.531250,57.53,62.35
200082,2018-06-29 10:29:04.562500,54.44,62.35
200083,2018-06-29 10:29:04.593750,52.98,62.35
200084,2018-06-29 10:29:04.625000,52.9,62.35
200085,2018-06-29 10:29:04.656250,51.63,62.35
200086,2018-06-29 10:29:04.687500,47.25,62.35
200087,2018-06-29 10:29:04.718750,41.19,62.35
200088,2018-06-29 10:29:04.750000,35.94,62.35
200089,2018-06-29 10:29:04.781250,31.29,62.35
200090,2018-06-29 10:29:04.812500,24.89,62.35
200091,2018-06-29 10:29:04.843750,15.95,62.35
200092,2018-06-29 10:29:04.875000,6.95,62.35
200093,2018-06-29 10:29:04.906250,0.49,62.35
200094,2018-06-29 10:29:04.937500,-5.48,62.35
200095,2018-06-29 10:29:04.968750,-16.52,62.35
200096,2018-06-29 10:29:05.000000,-34.97,62.35
200097,2018-06-29 10:29:05.031250,-57.28,62.35
200098,2018-06-29 10:29:05.062500,-78.69,62.35
200099,2018-06-29 10:29:05.093750,-97.32,62.35
200100,2018-06-29 10:29:05.125000,-114.12,62.35
200101,2018-06-29 10:29:05.156250,-130.4,62.35
200102,2018-06-29 10:29:05.187500,-142.32,62.35
200103,2018-06-29 10:29:05.218750,-137.23,62.35
200104,2018-06-29 10:29:05.250000,-103.03,62.35
200105,2018-06-29 10:29:05.281250,-43.57,62.35
200106,2018-06-29 10:29:05.312500,23.81,62.35
200107,2018-06-29 10:29:05.343750,86.32,62.35
200108,2018-06-29 10:29:05.375000,141.16,62.35
200109,2018-06-29 10:29:05.406250,185.5,62.35
200110,2018-06-29 10:29:05.437500,213.82,62.35
200111,2018-06-29 10:29:05.468750,225.37,62.35
200112,2018-06-29 10:29:05.500000,223.91,62.35
200113,2018-06-29 10:29:05.531250,208.87,62.4
200114,2018-06-29 10:29:05.562500,174.75,62.4
200115,2018-06-29 10:29:05.593750,120.36,62.4
200116,2018-06-29 10:29:05.625000,53.49,62.4
200117,2018-06-29 10:29:05.656250,-13.39,62.4
200118,2018-06-29 10:29:05.687500,-66.96,62.4
200119,2018-06-29 10:29:05.718750,-95.73,62.4
200120,2018-06-29 10:29:05.750000,-96.3,62.4
200121,2018-06-29 10:29:05.781250,-76.9,62.4
200122,2018-06-29 10:29:05.812500,-51.26,62.4
200123,2018-06-29 10:29:05.843750,-30.77,62.4
200124,2018-06-29 10:29:05.875000,-22.11,62.4
200125,2018-06-29 10:29:05.906250,-25.65,62.4
200126,2018-06-29 10:29:05.937500,-34.49,62.4
200127,2018-06-29 10:29:05.968750,-39.17,62.4
200128,2018-06-29 10:29:06.000000,-35.03,62.4
200129,2018-06-29 10:29:06.031250,-24.6,62.4
200130,2018-06-29 10:29:06.062500,-15.12,62.4
200131,2018-06-29 10:29:06.093750,-14.72,62.4
200132,2018-06-29 10:29:06.125000,-27.0,62.4
200133,2018-06-29 10:29:06.156250,-44.43,62.4
200134,2018-06-29 10:29:06.187500,-50.0,62.4
200135,2018-06-29 10:29:06.218750,-32.3,62.4
200136,2018-06-29 10:29:06.250000,2.1,62.4
200137,2018-06-29 10:29:06.281250,37.12,62.4
200138,2018-06-29 10:29:06.312500,63.34,62.4
200139,2018-06-29 10:29:06.343750,79.83,62.4
200140,2018-06-29 10:29:06.375000,86.44,62.4
200141,2018-06-29 10:29:06.406250,82.8,62.4
200142,2018-06-29 10:29:06.437500,72.55,62.4
200143,2018-06-29 10:29:06.468750,61.82,62.4
200144,2018-06-29 10:29:06.500000,53.7,62.4
200145,2018-06-29 10:29:06.531250,47.33,62.45
200146,2018-06-29 10:29:06.562500,41.61,62.45
200147,2018-06-29 10:29:06.593750,35.88,62.45
200148,2018-06-29 10:29:06.625000,28.72,62.45
200149,2018-06-29 10:29:06.656250,19.72,62.45
200150,2018-06-29 10:29:06.687500,10.69,62.45
200151,2018-06-29 10:29:06.718750,3.32,62.45
200152,2018-06-29 10:29:06.750000,-2.14,62.45
200153,2018-06-29 10:29:06.781250,-5.89,62.45
200154,2018-06-29 10:29:06.812500,-9.14,62.45
200155,2018-06-29 10:29:06.843750,-14.59,62.45
200156,2018-06-29 10:29:06.875000,-23.22,62.45
200157,2018-06-29 10:29:06.906250,-32.87,62.45
200158,2018-06-29 10:29:06.937500,-41.6,62.45
200159,2018-06-29 10:29:06.968750,-49.82,62.45
200160,2018-06-29 10:29:07.000000,-59.23,62.45
200161,2018-06-29 10:29:07.031250,-71.23,62.45
200162,2018-06-29 10:29:07.062500,-82.91,62.45
200163,2018-06-29 10:29:07.093750,-84.3,62.45
200164,2018-06-29 10:29:07.125000,-66.66,62.45
200165,2018-06-29 10:29:07.156250,-34.18,62.45
200166,2018-06-29 10:29:07.187500,-0.78,62.45
200167,2018-06-29 10:29:07.218750,23.84,62.45
200168,2018-06-29 10:29:07.250000,39.68,62.45
200169,2018-06-29 10:29:07.281250,50.07,62.45
200170,2018-06-29 10:29:07.312500,55.79,62.45
200171,2018-06-29 10:29:07.343750,56.59,62.45
200172,2018-06-29 10:29:07.375000,54.82,62.45
200173,2018-06-29 10:29:07.406250,54.08,62.45
200174,2018-06-29 10:29:07.437500,55.03,62.45
200175,2018-06-29 10:29:07.468750,55.75,62.45
200176,2018-06-29 10:29:07.500000,54.88,62.45
200177,2018-06-29 10:29:07.531250,51.67,62.52
200178,2018-06-29 10:29:07.562500,44.78,62.52
200179,2018-06-29 10:29:07.593750,33.55,62.52
200180,2018-06-29 10:29:07.625000,19.72,62.52
200181,2018-06-29 10:29:07.656250,6.42,62.52
200182,2018-06-29 10:29:07.687500,-4.5,62.52
200183,2018-06-29 10:29:07.718750,-13.74,62.52
200184,2018-06-29 10:29:07.750000,-23.2,62.52
200185,2018-06-29 10:29:07.781250,-33.26,62.52
200186,2018-06-29 10:29:07.812500,-42.31,62.52
200187,2018-06-29 10:29:07.843750,-49.51,62.52
200188,2018-06-29 10:29:07.875000,-56.67,62.52
200189,2018-06-29 10:29:07.906250,-66.07,62.52
200190,2018-06-29 10:29:07.937500,-77.38,62.52
200191,2018-06-29 10:29:07.968750,-85.04,62.52
200192,2018-06-29 10:29:08.000000,-79.4,62.52
200193,2018-06-29 10:29:08.031250,-55.98,62.52
200194,2018-06-29 10:29:08.062500,-22.67,62.52
200195,2018-06-29 10:29:08.093750,7.53,62.52
200196,2018-06-29 10:29:08.125000,28.27,62.52
200197,2018-06-29 10:29:08.156250,40.29,62.52
200198,2018-06-29 10:29:08.187500,45.65,62.52
200199,2018-06-29 10:29:08.218750,46.19,62.52
200200,2018-06-29 10:29:08.250000,44.14,62.52
200201,2018-06-29 10:29:08.281250,41.31,62.52
200202,2018-06-29 10:29:08.312500,38.61,62.52
200203,2018-06-29 10:29:08.343750,36.39,62.52
200204,2018-06-29 10:29:08.375000,34.64,62.52
200205,2018-06-29 10:29:08.406250,32.46,62.52
200206,2018-06-29 10:29:08.437500,27.95,62.52
200207,2018-06-29 10:29:08.468750,20.34,62.52
200208,2018-06-29 10:29:08.500000,11.45,62.52
200209,2018-06-29 10:29:08.531250,2.99,62.58
200210,2018-06-29 10:29:08.562500,-6.05,62.58
200211,2018-06-29 10:29:08.593750,-16.75,62.58
200212,2018-06-29 10:29:08.625000,-27.35,62.58
200213,2018-06-29 10:29:08.656250,-35.51,62.58
200214,2018-06-29 10:29:08.687500,-42.03,62.58
200215,2018-06-29 10:29:08.718750,-50.41,62.58
200216,2018-06-29 10:29:08.750000,-62.32,62.58
200217,2018-06-29 10:29:08.781250,-72.55,62.58
200218,2018-06-29 10:29:08.812500,-70.54,62.58
200219,2018-06-29 10:29:08.843750,-51.17,62.58
200220,2018-06-29 10:29:08.875000,-21.55,62.58
200221,2018-06-29 10:29:08.906250,6.28,62.58
200222,2018-06-29 10:29:08.937500,26.21,62.58
200223,2018-06-29 10:29:08.968750,38.55,62.58
200224,2018-06-29 10:29:09.000000,44.86,62.58
200225,2018-06-29 10:29:09.031250,46.22,62.58
200226,2018-06-29 10:29:09.062500,44.13,62.58
200227,2018-06-29 10:29:09.093750,40.58,62.58
200228,2018-06-29 10:29:09.125000,37.14,62.58
200229,2018-06-29 10:29:09.156250,34.93,62.58
200230,2018-06-29 10:29:09.187500,34.22,62.58
200231,2018-06-29 10:29:09.218750,33.75,62.58
200232,2018-06-29 10:29:09.250000,31.08,62.58
200233,2018-06-29 10:29:09.281250,24.49,62.58
200234,2018-06-29 10:29:09.312500,14.85,62.58
200235,2018-06-29 10:29:09.343750,5.11,62.58
200236,2018-06-29 10:29:09.375000,-2.77,62.58
200237,2018-06-29 10:29:09.406250,-9.94,62.58
200238,2018-06-29 10:29:09.437500,-18.45,62.58
200239,2018-06-29 10:29:09.468750,-27.74,62.58
200240,2018-06-29 10:29:09.500000,-35.79,62.58
200241,2018-06-29 10:29:09.531250,-43.16,62.63
200242,2018-06-29 10:29:09.562500,-52.48,62.63
200243,2018-06-29 10:29:09.593750,-64.06,62.63
200244,2018-06-29 10:29:09.625000,-73.09,62.63
200245,2018-06-29 10:29:09.656250,-71.49,62.63
200246,2018-06-29 10:29:09.687500,-54.64,62.63
200247,2018-06-29 10:29:09.718750,-27.2,62.63
200248,2018-06-29 10:29:09.750000,0.5,62.63
200249,2018-06-29 10:29:09.781250,20.9,62.63
200250,2018-06-29 10:29:09.812500,31.35,62.63
200251,2018-06-29 10:29:09.843750,31.17,62.63
200252,2018-06-29 10:29:09.875000,21.74,62.63
200253,2018-06-29 10:29:09.906250,7.74,62.63
200254,2018-06-29 10:29:09.937500,-4.65,62.63
200255,2018-06-29 10:29:09.968750,-10.57,62.63
200256,2018-06-29 10:29:10.000000,-8.16,62.63
200257,2018-06-29 10:29:10.031250,2.29,62.63
200258,2018-06-29 10:29:10.062500,18.86,62.63
200259,2018-06-29 10:29:10.093750,37.53,62.63
200260,2018-06-29 10:29:10.125000,53.61,62.63
200261,2018-06-29 10:29:10.156250,64.9,62.63
200262,2018-06-29 10:29:10.187500,72.05,62.63
200263,2018-06-29 10:29:10.218750,75.84,62.63
200264,2018-06-29 10:29:10.250000,75.7,62.63
200265,2018-06-29 10:29:10.281250,70.0,62.63
200266,2018-06-29 10:29:10.312500,57.65,62.63
200267,2018-06-29 10:29:10.343750,40.23,62.63
200268,2018-06-29 10:29:10.375000,21.58,62.63
200269,2018-06-29 10:29:10.406250,4.56,62.63
200270,2018-06-29 10:29:10.437500,-10.12,62.63
200271,2018-06-29 10:29:10.468750,-22.29,62.63
200272,2018-06-29 10:29:10.500000,-31.65,62.63
200273,2018-06-29 10:29:10.531250,-38.89,62.68
200274,2018-06-29 10:29:10.562500,-45.94,62.68
200275,2018-06-29 10:29:10.593750,-54.38,62.68
200276,2018-06-29 10:29:10.625000,-63.23,62.68
200277,2018-06-29 10:29:10.656250,-70.05,62.68
200278,2018-06-29 10:29:10.687500,-74.86,62.68
200279,2018-06-29 10:29:10.718750,-80.88,62.68
200280,2018-06-29 10:29:10.750000,-90.11,62.68
200281,2018-06-29 10:29:10.781250,-98.03,62.68
200282,2018-06-29 10:29:10.812500,-94.56,62.68
200283,2018-06-29 10:29:10.843750,-74.04,62.68
200284,2018-06-29 10:29:10.875000,-43.21,62.68
200285,2018-06-29 10:29:10.906250,-15.13,62.68
200286,2018-06-29 10:29:10.937500,4.06,62.68
200287,2018-06-29 10:29:10.968750,16.97,62.68
200288,2018-06-29 10:29:11.000000,26.85,62.68
200289,2018-06-29 10:29:11.031250,34.84,62.68
200290,2018-06-29 10:29:11.062500,42.23,62.68
200291,2018-06-29 10:29:11.093750,50.08,62.68
200292,2018-06-29 10:29:11.125000,57.72,62.68
200293,2018-06-29 10:29:11.156250,63.86,62.68
200294,2018-06-29 10:29:11.187500,67.79,62.68
200295,2018-06-29 10:29:11.218750,68.73,62.68
200296,2018-06-29 10:29:11.250000,65.15,62.68
200297,2018-06-29 10:29:11.281250,55.96,62.68
200298,2018-06-29 10:29:11.312500,42.46,62.68
200299,2018-06-29 10:29:11.343750,27.9,62.68
200300,2018-06-29 10:29:11.375000,14.68,62.68
200301,2018-06-29 10:29:11.406250,3.55,62.68
200302,2018-06-29 10:29:11.437500,-4.97,62.68
200303,2018-06-29 10:29:11.468750,-10.5,62.68
200304,2018-06-29 10:29:11.500000,-13.65,62.68
200305,2018-06-29 10:29:11.531250,-15.38,62.75
200306,2018-06-29 10:29:11.562500,-16.48,62.75
200307,2018-06-29 10:29:11.593750,-17.8,62.75
200308,2018-06-29 10:29:11.625000,-19.79,62.75
200309,2018-06-29 10:29:11.656250,-21.83,62.75
200310,2018-06-29 10:29:11.687500,-23.12,62.75
200311,2018-06-29 10:29:11.718750,-23.9,62.75
200312,2018-06-29 10:29:11.750000,-24.82,62.75
200313,2018-06-29 10:29:11.781250,-25.61,62.75
200314,2018-06-29 10:29:11.812500,-26.21,62.75
200315,2018-06-29 10:29:11.843750,-28.26,62.75
200316,2018-06-29 10:29:11.875000,-34.36,62.75
200317,2018-06-29 10:29:11.906250,-45.93,62.75
200318,2018-06-29 10:29:11.937500,-60.82,62.75
200319,2018-06-29 10:29:11.968750,-71.04,62.75
200320,2018-06-29 10:29:12.000000,-66.72,62.75
200321,2018-06-29 10:29:12.031250,-46.34,62.75
200322,2018-06-29 10:29:12.062500,-19.86,62.75
200323,2018-06-29 10:29:12.093750,1.58,62.75
200324,2018-06-29 10:29:12.125000,14.88,62.75
200325,2018-06-29 10:29:12.156250,22.79,62.75
200326,2018-06-29 10:29:12.187500,27.52,62.75
200327,2018-06-29 10:29:12.218750,29.44,62.75
200328,2018-06-29 10:29:12.250000,29.08,62.75
200329,2018-06-29 10:29:12.281250,28.13,62.75
200330,2018-06-29 10:29:12.312500,28.73,62.75
200331,2018-06-29 10:29:12.343750,31.63,62.75
200332,2018-06-29 10:29:12.375000,35.36,62.75
200333,2018-06-29 10:29:12.406250,37.12,62.75
200334,2018-06-29 10:29:12.437500,34.78,62.75
200335,2018-06-29 10:29:12.468750,28.35,62.75
200336,2018-06-29 10:29:12.500000,19.72,62.75
200337,2018-06-29 10:29:12.531250,9.95,62.83
200338,2018-06-29 10:29:12.562500,-2.74,62.83
200339,2018-06-29 10:29:12.593750,-20.6,62.83
200340,2018-06-29 10:29:12.625000,-42.54,62.83
200341,2018-06-29 10:29:12.656250,-64.68,62.83
200342,2018-06-29 10:29:12.687500,-83.07,62.83
200343,2018-06-29 10:29:12.718750,-93.68,62.83
200344,2018-06-29 10:29:12.750000,-92.05,62.83
200345,2018-06-29 10:29:12.781250,-76.27,62.83
200346,2018-06-29 10:29:12.812500,-49.99,62.83
200347,2018-06-29 10:29:12.843750,-21.3,62.83
200348,2018-06-29 10:29:12.875000,1.54,62.83
200349,2018-06-29 10:29:12.906250,13.49,62.83
200350,2018-06-29 10:29:12.937500,13.32,62.83
200351,2018-06-29 10:29:12.968750,2.97,62.83
200352,2018-06-29 10:29:13.000000,-12.65,62.83
200353,2018-06-29 10:29:13.031250,-24.61,62.83
200354,2018-06-29 10:29:13.062500,-22.33,62.83
200355,2018-06-29 10:29:13.093750,-1.96,62.83
200356,2018-06-29 10:29:13.125000,27.74,62.83
200357,2018-06-29 10:29:13.156250,52.32,62.83
200358,2018-06-29 10:29:13.187500,64.4,62.83
200359,2018-06-29 10:29:13.218750,66.31,62.83
200360,2018-06-29 10:29:13.250000,63.23,62.83
200361,2018-06-29 10:29:13.281250,57.89,62.83
200362,2018-06-29 10:29:13.312500,51.29,62.83
200363,2018-06-29 10:29:13.343750,44.92,62.83
200364,2018-06-29 10:29:13.375000,40.14,62.83
200365,2018-06-29 10:29:13.406250,36.69,62.83
200366,2018-06-29 10:29:13.437500,33.93,62.83
200367,2018-06-29 10:29:13.468750,32.31,62.83
200368,2018-06-29 10:29:13.500000,31.55,62.83
200369,2018-06-29 10:29:13.531250,29.4,62.93
200370,2018-06-29 10:29:13.562500,24.31,62.93
200371,2018-06-29 10:29:13.593750,17.81,62.93
200372,2018-06-29 10:29:13.625000,12.13,62.93
200373,2018-06-29 10:29:13.656250,7.25,62.93
200374,2018-06-29 10:29:13.687500,1.81,62.93
200375,2018-06-29 10:29:13.718750,-4.56,62.93
200376,2018-06-29 10:29:13.750000,-10.87,62.93
200377,2018-06-29 10:29:13.781250,-16.08,62.93
200378,2018-06-29 10:29:13.812500,-20.46,62.93
200379,2018-06-29 10:29:13.843750,-25.49,62.93
200380,2018-06-29 10:29:13.875000,-32.18,62.93
200381,2018-06-29 10:29:13.906250,-39.83,62.93
200382,2018-06-29 10:29:13.937500,-47.13,62.93
200383,2018-06-29 10:29:13.968750,-53.58,62.93
200384,2018-06-29 10:29:14.000000,-60.37,62.93
200385,2018-06-29 10:29:14.031250,-69.65,62.93
200386,2018-06-29 10:29:14.062500,-80.17,62.93
200387,2018-06-29 10:29:14.093750,-83.91,62.93
200388,2018-06-29 10:29:14.125000,-72.18,62.93
200389,2018-06-29 10:29:14.156250,-46.19,62.93
200390,2018-06-29 10:29:14.187500,-17.1,62.93
200391,2018-06-29 10:29:14.218750,5.48,62.93
200392,2018-06-29 10:29:14.250000,20.13,62.93
200393,2018-06-29 10:29:14.281250,29.24,62.93
200394,2018-06-29 10:29:14.312500,34.25,62.93
200395,2018-06-29 10:29:14.343750,36.42,62.93
200396,2018-06-29 10:29:14.375000,37.59,62.93
200397,2018-06-29 10:29:14.406250,38.73,62.93
200398,2018-06-29 10:29:14.437500,39.85,62.93
200399,2018-06-29 10:29:14.468750,40.99,62.93
200400,2018-06-29 10:29:14.500000,42.1,62.93
200401,2018-06-29 10:29:14.531250,42.25,63.03
200402,2018-06-29 10:29:14.562500,40.11,63.03
200403,2018-06-29 10:29:14.593750,35.24,63.03
200404,2018-06-29 10:29:14.625000,28.85,63.03
200405,2018-06-29 10:29:14.656250,22.98,63.03
200406,2018-06-29 10:29:14.687500,18.39,63.03
200407,2018-06-29 10:29:14.718750,13.75,63.03
200408,2018-06-29 10:29:14.750000,7.29,63.03
200409,2018-06-29 10:29:14.781250,-0.74,63.03
200410,2018-06-29 10:29:14.812500,-8.17,63.03
200411,2018-06-29 10:29:14.843750,-13.72,63.03
200412,2018-06-29 10:29:14.875000,-18.6,63.03
200413,2018-06-29 10:29:14.906250,-24.91,63.03
200414,2018-06-29 10:29:14.937500,-33.13,63.03
200415,2018-06-29 10:29:14.968750,-41.78,63.03
200416,2018-06-29 10:29:15.000000,-49.52,63.03
200417,2018-06-29 10:29:15.031250,-57.28,63.03
200418,2018-06-29 10:29:15.062500,-67.48,63.03
200419,2018-06-29 10:29:15.093750,-79.59,63.03
200420,2018-06-29 10:29:15.125000,-85.78,63.03
200421,2018-06-29 10:29:15.156250,-75.36,63.03
200422,2018-06-29 10:29:15.187500,-46.98,63.03
200423,2018-06-29 10:29:15.218750,-12.53,63.03
200424,2018-06-29 10:29:15.250000,14.65,63.03
200425,2018-06-29 10:29:15.281250,30.94,63.03
200426,2018-06-29 10:29:15.312500,39.82,63.03
200427,2018-06-29 10:29:15.343750,44.58,63.03
200428,2018-06-29 10:29:15.375000,46.45,63.03
200429,2018-06-29 10:29:15.406250,46.09,63.03
200430,2018-06-29 10:29:15.437500,44.79,63.03
200431,2018-06-29 10:29:15.468750,44.18,63.03
200432,2018-06-29 10:29:15.500000,45.18,63.03
200433,2018-06-29 10:29:15.531250,47.28,63.13
200434,2018-06-29 10:29:15.562500,48.66,63.13
200435,2018-06-29 10:29:15.593750,47.03,63.13
200436,2018-06-29 10:29:15.625000,41.66,63.13
200437,2018-06-29 10:29:15.656250,34.31,63.13
200438,2018-06-29 10:29:15.687500,27.2,63.13
200439,2018-06-29 10:29:15.718750,20.59,63.13
200440,2018-06-29 10:29:15.750000,13.41,63.13
200441,2018-06-29 10:29:15.781250,5.59,63.13
200442,2018-06-29 10:29:15.812500,-2.02,63.13
200443,2018-06-29 10:29:15.843750,-9.65,63.13
200444,2018-06-29 10:29:15.875000,-18.64,63.13
200445,2018-06-29 10:29:15.906250,-30.59,63.13
200446,2018-06-29 10:29:15.937500,-48.27,63.13
200447,2018-06-29 10:29:15.968750,-74.75,63.13
200448,2018-06-29 10:29:16.000000,-110.03,63.13
200449,2018-06-29 10:29:16.031250,-149.93,63.13
200450,2018-06-29 10:29:16.062500,-186.42,63.13
200451,2018-06-29 10:29:16.093750,-207.9,63.13
200452,2018-06-29 10:29:16.125000,-204.37,63.13
200453,2018-06-29 10:29:16.156250,-173.83,63.13
200454,2018-06-29 10:29:16.187500,-119.18,63.13
200455,2018-06-29 10:29:16.218750,-43.83,63.13
200456,2018-06-29 10:29:16.250000,41.14,63.13
200457,2018-06-29 10:29:16.281250,114.41,63.13
200458,2018-06-29 10:29:16.312500,159.26,63.13
200459,2018-06-29 10:29:16.343750,175.53,63.13
200460,2018-06-29 10:29:16.375000,172.24,63.13
200461,2018-06-29 10:29:16.406250,157.27,63.13
200462,2018-06-29 10:29:16.437500,137.25,63.13
200463,2018-06-29 10:29:16.468750,118.97,63.13
200464,2018-06-29 10:29:16.500000,106.88,63.13
200465,2018-06-29 10:29:16.531250,101.42,63.22
200466,2018-06-29 10:29:16.562500,100.33,63.22
200467,2018-06-29 10:29:16.593750,100.85,63.22
200468,2018-06-29 10:29:16.625000,101.0,63.22
200469,2018-06-29 10:29:16.656250,99.05,63.22
200470,2018-06-29 10:29:16.687500,92.79,63.22
200471,2018-06-29 10:29:16.718750,81.19,63.22
200472,2018-06-29 10:29:16.750000,65.3,63.22
200473,2018-06-29 10:29:16.781250,46.16,63.22
200474,2018-06-29 10:29:16.812500,23.58,63.22
200475,2018-06-29 10:29:16.843750,-1.68,63.22
200476,2018-06-29 10:29:16.875000,-26.47,63.22
200477,2018-06-29 10:29:16.906250,-47.43,63.22
200478,2018-06-29 10:29:16.937500,-64.01,63.22
200479,2018-06-29 10:29:16.968750,-77.97,63.22
200480,2018-06-29 10:29:17.000000,-90.07,63.22
200481,2018-06-29 10:29:17.031250,-98.97,63.22
200482,2018-06-29 10:29:17.062500,-104.06,63.22
200483,2018-06-29 10:29:17.093750,-107.58,63.22
200484,2018-06-29 10:29:17.125000,-112.72,63.22
200485,2018-06-29 10:29:17.156250,-119.61,63.22
200486,2018-06-29 10:29:17.187500,-121.94,63.22
200487,2018-06-29 10:29:17.218750,-109.59,63.22
200488,2018-06-29 10:29:17.250000,-79.29,63.22
200489,2018-06-29 10:29:17.281250,-40.88,63.22
200490,2018-06-29 10:29:17.312500,-7.91,63.22
200491,2018-06-29 10:29:17.343750,14.96,63.22
200492,2018-06-29 10:29:17.375000,30.48,63.22
200493,2018-06-29 10:29:17.406250,40.59,63.22
200494,2018-06-29 10:29:17.437500,45.53,63.22
200495,2018-06-29 10:29:17.468750,47.19,63.22
200496,2018-06-29 10:29:17.500000,48.27,63.22
200497,2018-06-29 10:29:17.531250,49.36,63.27
200498,2018-06-29 10:29:17.562500,49.83,63.27
200499,2018-06-29 10:29:17.593750,50.57,63.27
200500,2018-06-29 10:29:17.625000,52.02,63.27
200501,2018-06-29 10:29:17.656250,50.94,63.27
200502,2018-06-29 10:29:17.687500,43.86,63.27
200503,2018-06-29 10:29:17.718750,32.62,63.27
200504,2018-06-29 10:29:17.750000,21.98,63.27
200505,2018-06-29 10:29:17.781250,13.46,63.27
200506,2018-06-29 10:29:17.812500,4.41,63.27
200507,2018-06-29 10:29:17.843750,-7.52,63.27
200508,2018-06-29 10:29:17.875000,-21.85,63.27
200509,2018-06-29 10:29:17.906250,-38.15,63.27
200510,2018-06-29 10:29:17.937500,-60.15,63.27
200511,2018-06-29 10:29:17.968750,-93.94,63.27
200512,2018-06-29 10:29:18.000000,-139.76,63.27
200513,2018-06-29 10:29:18.031250,-185.58,63.27
200514,2018-06-29 10:29:18.062500,-211.06,63.27
200515,2018-06-29 10:29:18.093750,-201.61,63.27
200516,2018-06-29 10:29:18.125000,-160.16,63.27
200517,2018-06-29 10:29:18.156250,-101.89,63.27
200518,2018-06-29 10:29:18.187500,-37.71,63.27
200519,2018-06-29 10:29:18.218750,30.41,63.27
200520,2018-06-29 10:29:18.250000,97.86,63.27
200521,2018-06-29 10:29:18.281250,152.24,63.27
200522,2018-06-29 10:29:18.312500,183.68,63.27
200523,2018-06-29 10:29:18.343750,193.09,63.27
200524,2018-06-29 10:29:18.375000,187.51,63.27
200525,2018-06-29 10:29:18.406250,172.86,63.27
200526,2018-06-29 10:29:18.437500,153.16,63.27
200527,2018-06-29 10:29:18.468750,132.12,63.27
200528,2018-06-29 10:29:18.500000,112.92,63.27
200529,2018-06-29 10:29:18.531250,96.56,63.3
200530,2018-06-29 10:29:18.562500,81.3,63.3
200531,2018-06-29 10:29:18.593750,64.62,63.3
200532,2018-06-29 10:29:18.625000,46.01,63.3
200533,2018-06-29 10:29:18.656250,27.39,63.3
200534,2018-06-29 10:29:18.687500,10.83,63.3
200535,2018-06-29 10:29:18.718750,-2.8,63.3
200536,2018-06-29 10:29:18.750000,-13.69,63.3
200537,2018-06-29 10:29:18.781250,-22.75,63.3
200538,2018-06-29 10:29:18.812500,-30.6,63.3
200539,2018-06-29 10:29:18.843750,-37.18,63.3
200540,2018-06-29 10:29:18.875000,-42.76,63.3
200541,2018-06-29 10:29:18.906250,-48.19,63.3
200542,2018-06-29 10:29:18.937500,-53.68,63.3
200543,2018-06-29 10:29:18.968750,-59.07,63.3
200544,2018-06-29 10:29:19.000000,-65.03,63.3
200545,2018-06-29 10:29:19.031250,-72.45,63.3
200546,2018-06-29 10:29:19.062500,-81.59,63.3
200547,2018-06-29 10:29:19.093750,-91.33,63.3
200548,2018-06-29 10:29:19.125000,-96.37,63.3
200549,2018-06-29 10:29:19.156250,-88.01,63.3
200550,2018-06-29 10:29:19.187500,-63.36,63.3
200551,2018-06-29 10:29:19.218750,-31.29,63.3
200552,2018-06-29 10:29:19.250000,-3.8,63.3
200553,2018-06-29 10:29:19.281250,14.93,63.3
200554,2018-06-29 10:29:19.312500,26.49,63.3
200555,2018-06-29 10:29:19.343750,31.54,63.3
200556,2018-06-29 10:29:19.375000,31.19,63.3
200557,2018-06-29 10:29:19.406250,29.98,63.3
200558,2018-06-29 10:29:19.437500,31.81,63.3
200559,2018-06-29 10:29:19.468750,35.29,63.3
200560,2018-06-29 10:29:19.500000,36.95,63.3
200561,2018-06-29 10:29:19.531250,36.42,63.23
200562,2018-06-29 10:29:19.562500,34.82,63.23
200563,2018-06-29 10:29:19.593750,30.86,63.23
200564,2018-06-29 10:29:19.625000,22.63,63.23
200565,2018-06-29 10:29:19.656250,11.86,63.23
200566,2018-06-29 10:29:19.687500,2.65,63.23
200567,2018-06-29 10:29:19.718750,-3.66,63.23
200568,2018-06-29 10:29:19.750000,-9.55,63.23
200569,2018-06-29 10:29:19.781250,-16.81,63.23
200570,2018-06-29 10:29:19.812500,-23.73,63.23
200571,2018-06-29 10:29:19.843750,-28.18,63.23
200572,2018-06-29 10:29:19.875000,-31.58,63.23
200573,2018-06-29 10:29:19.906250,-38.03,63.23
200574,2018-06-29 10:29:19.937500,-49.28,63.23
200575,2018-06-29 10:29:19.968750,-60.01,63.23
200576,2018-06-29 10:29:20.000000,-59.32,63.23
200577,2018-06-29 10:29:20.031250,-41.51,63.23
200578,2018-06-29 10:29:20.062500,-13.88,63.23
200579,2018-06-29 10:29:20.093750,10.99,63.23
200580,2018-06-29 10:29:20.125000,27.91,63.23
200581,2018-06-29 10:29:20.156250,39.09,63.23
200582,2018-06-29 10:29:20.187500,46.22,63.23
200583,2018-06-29 10:29:20.218750,48.96,63.23
200584,2018-06-29 10:29:20.250000,47.91,63.23
200585,2018-06-29 10:29:20.281250,45.08,63.23
200586,2018-06-29 10:29:20.312500,42.43,63.23
200587,2018-06-29 10:29:20.343750,40.61,63.23
200588,2018-06-29 10:29:20.375000,38.96,63.23
200589,2018-06-29 10:29:20.406250,36.49,63.23
200590,2018-06-29 10:29:20.437500,32.31,63.23
200591,2018-06-29 10:29:20.468750,25.48,63.23
200592,2018-06-29 10:29:20.500000,16.01,63.23
200593,2018-06-29 10:29:20.531250,5.86,63.2
200594,2018-06-29 10:29:20.562500,-2.6,63.2
200595,2018-06-29 10:29:20.593750,-9.37,63.2
200596,2018-06-29 10:29:20.625000,-16.66,63.2
200597,2018-06-29 10:29:20.656250,-25.54,63.2
200598,2018-06-29 10:29:20.687500,-34.3,63.2
200599,2018-06-29 10:29:20.718750,-41.2,63.2
200600,2018-06-29 10:29:20.750000,-47.33,63.2
200601,2018-06-29 10:29:20.781250,-55.29,63.2
200602,2018-06-29 10:29:20.812500,-66.34,63.2
200603,2018-06-29 10:29:20.843750,-77.37,63.2
200604,2018-06-29 10:29:20.875000,-79.23,63.2
200605,2018-06-29 10:29:20.906250,-63.58,63.2
200606,2018-06-29 10:29:20.937500,-33.89,63.2
200607,2018-06-29 10:29:20.968750,-3.45,63.2
200608,2018-06-29 10:29:21.000000,18.68,63.2
200609,2018-06-29 10:29:21.031250,33.16,63.2
200610,2018-06-29 10:29:21.062500,42.97,63.2
200611,2018-06-29 10:29:21.093750,48.55,63.2
200612,2018-06-29 10:29:21.125000,50.19,63.2
200613,2018-06-29 10:29:21.156250,49.69,63.2
200614,2018-06-29 10:29:21.187500,48.62,63.2
200615,2018-06-29 10:29:21.218750,47.66,63.2
200616,2018-06-29 10:29:21.250000,47.21,63.2
200617,2018-06-29 10:29:21.281250,46.75,63.2
200618,2018-06-29 10:29:21.312500,44.64,63.2
200619,2018-06-29 10:29:21.343750,39.61,63.2
200620,2018-06-29 10:29:21.375000,31.88,63.2
200621,2018-06-29 10:29:21.406250,22.46,63.2
200622,2018-06-29 10:29:21.437500,12.15,63.2
200623,2018-06-29 10:29:21.468750,1.52,63.2
200624,2018-06-29 10:29:21.500000,-8.72,63.2
200625,2018-06-29 10:29:21.531250,-17.23,63.13
200626,2018-06-29 10:29:21.562500,-23.18,63.13
200627,2018-06-29 10:29:21.593750,-27.33,63.13
200628,2018-06-29 10:29:21.625000,-30.88,63.13
200629,2018-06-29 10:29:21.656250,-34.39,63.13
200630,2018-06-29 10:29:21.687500,-38.62,63.13
200631,2018-06-29 10:29:21.718750,-45.2,63.13
200632,2018-06-29 10:29:21.750000,-55.55,63.13
200633,2018-06-29 10:29:21.781250,-68.14,63.13
200634,2018-06-29 10:29:21.812500,-75.53,63.13
200635,2018-06-29 10:29:21.843750,-67.56,63.13
200636,2018-06-29 10:29:21.875000,-42.02,63.13
200637,2018-06-29 10:29:21.906250,-9.25,63.13
200638,2018-06-29 10:29:21.937500,17.95,63.13
200639,2018-06-29 10:29:21.968750,35.57,63.13
200640,2018-06-29 10:29:22.000000,46.42,63.13
200641,2018-06-29 10:29:22.031250,52.55,63.13
200642,2018-06-29 10:29:22.062500,54.14,63.13
200643,2018-06-29 10:29:22.093750,52.99,63.13
200644,2018-06-29 10:29:22.125000,52.28,63.13
200645,2018-06-29 10:29:22.156250,52.81,63.13
200646,2018-06-29 10:29:22.187500,52.98,63.13
200647,2018-06-29 10:29:22.218750,52.14,63.13
200648,2018-06-29 10:29:22.250000,50.52,63.13
200649,2018-06-29 10:29:22.281250,46.8,63.13
200650,2018-06-29 10:29:22.312500,39.59,63.13
200651,2018-06-29 10:29:22.343750,30.35,63.13
200652,2018-06-29 10:29:22.375000,21.94,63.13
200653,2018-06-29 10:29:22.406250,15.13,63.13
200654,2018-06-29 10:29:22.437500,8.7,63.13
200655,2018-06-29 10:29:22.468750,1.68,63.13
200656,2018-06-29 10:29:22.500000,-5.55,63.13
200657,2018-06-29 10:29:22.531250,-12.05,63.03
200658,2018-06-29 10:29:22.562500,-17.74,63.03
200659,2018-06-29 10:29:22.593750,-24.29,63.03
200660,2018-06-29 10:29:22.625000,-33.15,63.03
200661,2018-06-29 10:29:22.656250,-43.04,63.03
200662,2018-06-29 10:29:22.687500,-51.76,63.03
200663,2018-06-29 10:29:22.718750,-59.82,63.03
200664,2018-06-29 10:29:22.750000,-69.91,63.03
200665,2018-06-29 10:29:22.781250,-83.1,63.03
200666,2018-06-29 10:29:22.812500,-95.03,63.03
200667,2018-06-29 10:29:22.843750,-95.74,63.03
200668,2018-06-29 10:29:22.875000,-77.92,63.03
200669,2018-06-29 10:29:22.906250,-46.7,63.03
200670,2018-06-29 10:29:22.937500,-15.47,63.03
200671,2018-06-29 10:29:22.968750,8.1,63.03
200672,2018-06-29 10:29:23.000000,25.49,63.03
200673,2018-06-29 10:29:23.031250,39.49,63.03
200674,2018-06-29 10:29:23.062500,49.76,63.03
200675,2018-06-29 10:29:23.093750,55.0,63.03
200676,2018-06-29 10:29:23.125000,55.62,63.03
200677,2018-06-29 10:29:23.156250,53.7,63.03
200678,2018-06-29 10:29:23.187500,51.29,63.03
200679,2018-06-29 10:29:23.218750,49.44,63.03
200680,2018-06-29 10:29:23.250000,48.36,63.03
200681,2018-06-29 10:29:23.281250,47.19,63.03
200682,2018-06-29 10:29:23.312500,44.26,63.03
200683,2018-06-29 10:29:23.343750,39.09,63.03
200684,2018-06-29 10:29:23.375000,33.06,63.03
200685,2018-06-29 10:29:23.406250,27.5,63.03
200686,2018-06-29 10:29:23.437500,22.25,63.03
200687,2018-06-29 10:29:23.468750,16.48,63.03
200688,2018-06-29 10:29:23.500000,10.24,63.03
200689,2018-06-29 10:29:23.531250,4.44,62.93
200690,2018-06-29 10:29:23.562500,-0.56,62.93
200691,2018-06-29 10:29:23.593750,-5.82,62.93
200692,2018-06-29 10:29:23.625000,-12.03,62.93
200693,2018-06-29 10:29:23.656250,-18.11,62.93
200694,2018-06-29 10:29:23.687500,-23.78,62.93
200695,2018-06-29 10:29:23.718750,-30.78,62.93
200696,2018-06-29 10:29:23.750000,-39.69,62.93
200697,2018-06-29 10:29:23.781250,-48.23,62.93
200698,2018-06-29 10:29:23.812500,-54.95,62.93
200699,2018-06-29 10:29:23.843750,-61.84,62.93
200700,2018-06-29 10:29:23.875000,-71.71,62.93
200701,2018-06-29 10:29:23.906250,-82.91,62.93
200702,2018-06-29 10:29:23.937500,-86.98,62.93
200703,2018-06-29 10:29:23.968750,-75.21,62.93
200704,2018-06-29 10:29:24.000000,-48.9,62.93
200705,2018-06-29 10:29:24.031250,-19.02,62.93
200706,2018-06-29 10:29:24.062500,4.98,62.93
200707,2018-06-29 10:29:24.093750,21.49,62.93
200708,2018-06-29 10:29:24.125000,32.88,62.93
200709,2018-06-29 10:29:24.156250,40.72,62.93
200710,2018-06-29 10:29:24.187500,45.2,62.93
200711,2018-06-29 10:29:24.218750,46.48,62.93
200712,2018-06-29 10:29:24.250000,45.61,62.93
200713,2018-06-29 10:29:24.281250,44.05,62.93
200714,2018-06-29 10:29:24.312500,42.74,62.93
200715,2018-06-29 10:29:24.343750,42.24,62.93
200716,2018-06-29 10:29:24.375000,42.19,62.93
200717,2018-06-29 10:29:24.406250,40.5,62.93
200718,2018-06-29 10:29:24.437500,35.46,62.93
200719,2018-06-29 10:29:24.468750,28.56,62.93
200720,2018-06-29 10:29:24.500000,22.31,62.93
200721,2018-06-29 10:29:24.531250,16.61,62.8
200722,2018-06-29 10:29:24.562500,9.91,62.8
200723,2018-06-29 10:29:24.593750,2.37,62.8
200724,2018-06-29 10:29:24.625000,-4.47,62.8
200725,2018-06-29 10:29:24.656250,-10.21,62.8
200726,2018-06-29 10:29:24.687500,-16.07,62.8
200727,2018-06-29 10:29:24.718750,-23.24,62.8
200728,2018-06-29 10:29:24.750000,-31.17,62.8
200729,2018-06-29 10:29:24.781250,-38.12,62.8
200730,2018-06-29 10:29:24.812500,-43.94,62.8
200731,2018-06-29 10:29:24.843750,-51.08,62.8
200732,2018-06-29 10:29:24.875000,-61.4,62.8
200733,2018-06-29 10:29:24.906250,-71.36,62.8
200734,2018-06-29 10:29:24.937500,-71.8,62.8
200735,2018-06-29 10:29:24.968750,-56.17,62.8
200736,2018-06-29 10:29:25.000000,-29.37,62.8
200737,2018-06-29 10:29:25.031250,-3.73,62.8
200738,2018-06-29 10:29:25.062500,13.93,62.8
200739,2018-06-29 10:29:25.093750,25.59,62.8
200740,2018-06-29 10:29:25.125000,34.13,62.8
200741,2018-06-29 10:29:25.156250,39.11,62.8
200742,2018-06-29 10:29:25.187500,40.14,62.8
200743,2018-06-29 10:29:25.218750,38.91,62.8
200744,2018-06-29 10:29:25.250000,37.08,62.8
200745,2018-06-29 10:29:25.281250,35.46,62.8
200746,2018-06-29 10:29:25.312500,34.53,62.8
200747,2018-06-29 10:29:25.343750,33.89,62.8
200748,2018-06-29 10:29:25.375000,31.95,62.8
200749,2018-06-29 10:29:25.406250,27.54,62.8
200750,2018-06-29 10:29:25.437500,21.32,62.8
200751,2018-06-29 10:29:25.468750,14.67,62.8
200752,2018-06-29 10:29:25.500000,8.4,62.8
200753,2018-06-29 10:29:25.531250,2.62,62.68
200754,2018-06-29 10:29:25.562500,-3.68,62.68
200755,2018-06-29 10:29:25.593750,-11.78,62.68
200756,2018-06-29 10:29:25.625000,-20.63,62.68
200757,2018-06-29 10:29:25.656250,-27.62,62.68
200758,2018-06-29 10:29:25.687500,-32.89,62.68
200759,2018-06-29 10:29:25.718750,-39.39,62.68
200760,2018-06-29 10:29:25.750000,-48.46,62.68
200761,2018-06-29 10:29:25.781250,-57.94,62.68
200762,2018-06-29 10:29:25.812500,-62.54,62.68
200763,2018-06-29 10:29:25.843750,-55.89,62.68
200764,2018-06-29 10:29:25.875000,-36.98,62.68
200765,2018-06-29 10:29:25.906250,-13.52,62.68
200766,2018-06-29 10:29:25.937500,5.72,62.68
200767,2018-06-29 10:29:25.968750,18.7,62.68
200768,2018-06-29 10:29:26.000000,27.48,62.68
200769,2018-06-29 10:29:26.031250,32.65,62.68
200770,2018-06-29 10:29:26.062500,33.97,62.68
200771,2018-06-29 10:29:26.093750,33.0,62.68
200772,2018-06-29 10:29:26.125000,31.9,62.68
200773,2018-06-29 10:29:26.156250,31.31,62.68
200774,2018-06-29 10:29:26.187500,30.91,62.68
200775,2018-06-29 10:29:26.218750,30.79,62.68
200776,2018-06-29 10:29:26.250000,30.48,62.68
200777,2018-06-29 10:29:26.281250,28.32,62.68
200778,2018-06-29 10:29:26.312500,23.58,62.68
200779,2018-06-29 10:29:26.343750,17.65,62.68
200780,2018-06-29 10:29:26.375000,11.91,62.68
200781,2018-06-29 10:29:26.406250,6.2,62.68
200782,2018-06-29 10:29:26.437500,0.09,62.68
200783,2018-06-29 10:29:26.468750,-5.71,62.68
200784,2018-06-29 10:29:26.500000,-10.28,62.68
200785,2018-06-29 10:29:26.531250,-14.55,62.57
200786,2018-06-29 10:29:26.562500,-20.78,62.57
200787,2018-06-29 10:29:26.593750,-29.01,62.57
200788,2018-06-29 10:29:26.625000,-36.43,62.57
200789,2018-06-29 10:29:26.656250,-41.45,62.57
200790,2018-06-29 10:29:26.687500,-46.04,62.57
200791,2018-06-29 10:29:26.718750,-53.31,62.57
200792,2018-06-29 10:29:26.750000,-63.28,62.57
200793,2018-06-29 10:29:26.781250,-69.55,62.57
200794,2018-06-29 10:29:26.812500,-62.37,62.57
200795,2018-06-29 10:29:26.843750,-39.72,62.57
200796,2018-06-29 10:29:26.875000,-11.85,62.57
200797,2018-06-29 10:29:26.906250,10.06,62.57
200798,2018-06-29 10:29:26.937500,23.99,62.57
200799,2018-06-29 10:29:26.968750,33.03,62.57
200800,2018-06-29 10:29:27.000000,38.46,62.57
200801,2018-06-29 10:29:27.031250,40.58,62.57
200802,2018-06-29 10:29:27.062500,40.51,62.57
200803,2018-06-29 10:29:27.093750,39.24,62.57
200804,2018-06-29 10:29:27.125000,37.55,62.57
200805,2018-06-29 10:29:27.156250,36.65,62.57
200806,2018-06-29 10:29:27.187500,37.18,62.57
200807,2018-06-29 10:29:27.218750,37.62,62.57
200808,2018-06-29 10:29:27.250000,35.31,62.57
200809,2018-06-29 10:29:27.281250,29.5,62.57
200810,2018-06-29 10:29:27.312500,22.47,62.57
200811,2018-06-29 10:29:27.343750,16.61,62.57
200812,2018-06-29 10:29:27.375000,11.54,62.57
200813,2018-06-29 10:29:27.406250,5.6,62.57
200814,2018-06-29 10:29:27.437500,-1.19,62.57
200815,2018-06-29 10:29:27.468750,-7.39,62.57
200816,2018-06-29 10:29:27.500000,-12.44,62.57
200817,2018-06-29 10:29:27.531250,-17.43,62.45
200818,2018-06-29 10:29:27.562500,-23.5,62.45
200819,2018-06-29 10:29:27.593750,-30.32,62.45
200820,2018-06-29 10:29:27.625000,-36.84,62.45
200821,2018-06-29 10:29:27.656250,-43.55,62.45
200822,2018-06-29 10:29:27.687500,-52.16,62.45
200823,2018-06-29 10:29:27.718750,-61.43,62.45
200824,2018-06-29 10:29:27.750000,-64.49,62.45
200825,2018-06-29 10:29:27.781250,-54.15,62.45
200826,2018-06-29 10:29:27.812500,-31.76,62.45
200827,2018-06-29 10:29:27.843750,-6.96,62.45
200828,2018-06-29 10:29:27.875000,12.04,62.45
200829,2018-06-29 10:29:27.906250,23.97,62.45
200830,2018-06-29 10:29:27.937500,30.56,62.45
200831,2018-06-29 10:29:27.968750,32.67,62.45
200832,2018-06-29 10:29:28.000000,31.74,62.45
200833,2018-06-29 10:29:28.031250,30.49,62.45
200834,2018-06-29 10:29:28.062500,30.29,62.45
200835,2018-06-29 10:29:28.093750,30.51,62.45
200836,2018-06-29 10:29:28.125000,31.33,62.45
200837,2018-06-29 10:29:28.156250,33.26,62.45
200838,2018-06-29 10:29:28.187500,34.36,62.45
200839,2018-06-29 10:29:28.218750,31.71,62.45
200840,2018-06-29 10:29:28.250000,25.59,62.45
200841,2018-06-29 10:29:28.281250,19.21,62.45
200842,2018-06-29 10:29:28.312500,14.5,62.45
200843,2018-06-29 10:29:28.343750,9.93,62.45
200844,2018-06-29 10:29:28.375000,3.37,62.45
200845,2018-06-29 10:29:28.406250,-4.33,62.45
200846,2018-06-29 10:29:28.437500,-10.73,62.45
200847,2018-06-29 10:29:28.468750,-15.53,62.45
200848,2018-06-29 10:29:28.500000,-20.53,62.45
200849,2018-06-29 10:29:28.531250,-26.64,62.35
200850,2018-06-29 10:29:28.562500,-33.0,62.35
200851,2018-06-29 10:29:28.593750,-38.92,62.35
200852,2018-06-29 10:29:28.625000,-45.13,62.35
200853,2018-06-29 10:29:28.656250,-53.22,62.35
200854,2018-06-29 10:29:28.687500,-62.6,62.35
200855,2018-06-29 10:29:28.718750,-67.13,62.35
200856,2018-06-29 10:29:28.750000,-58.5,62.35
200857,2018-06-29 10:29:28.781250,-36.13,62.35
200858,2018-06-29 10:29:28.812500,-9.71,62.35
200859,2018-06-29 10:29:28.843750,11.0,62.35
200860,2018-06-29 10:29:28.875000,23.8,62.35
200861,2018-06-29 10:29:28.906250,30.86,62.35
200862,2018-06-29 10:29:28.937500,33.62,62.35
200863,2018-06-29 10:29:28.968750,33.06,62.35
200864,2018-06-29 10:29:29.000000,31.4,62.35
200865,2018-06-29 10:29:29.031250,30.98,62.35
200866,2018-06-29 10:29:29.062500,32.07,62.35
200867,2018-06-29 10:29:29.093750,33.39,62.35
200868,2018-06-29 10:29:29.125000,34.13,62.35
200869,2018-06-29 10:29:29.156250,33.73,62.35
200870,2018-06-29 10:29:29.187500,30.65,62.35
200871,2018-06-29 10:29:29.218750,24.28,62.35
200872,2018-06-29 10:29:29.250000,16.54,62.35
200873,2018-06-29 10:29:29.281250,9.28,62.35
200874,2018-06-29 10:29:29.312500,1.86,62.35
200875,2018-06-29 10:29:29.343750,-6.93,62.35
200876,2018-06-29 10:29:29.375000,-16.55,62.35
200877,2018-06-29 10:29:29.406250,-26.12,62.35
200878,2018-06-29 10:29:29.437500,-36.9,62.35
200879,2018-06-29 10:29:29.468750,-52.5,62.35
200880,2018-06-29 10:29:29.500000,-76.18,62.35
200881,2018-06-29 10:29:29.531250,-107.36,62.23
200882,2018-06-29 10:29:29.562500,-139.34,62.23
200883,2018-06-29 10:29:29.593750,-160.32,62.23
200884,2018-06-29 10:29:29.625000,-159.71,62.23
200885,2018-06-29 10:29:29.656250,-134.55,62.23
200886,2018-06-29 10:29:29.687500,-88.37,62.23
200887,2018-06-29 10:29:29.718750,-27.58,62.23
200888,2018-06-29 10:29:29.750000,37.66,62.23
200889,2018-06-29 10:29:29.781250,94.01,62.23
200890,2018-06-29 10:29:29.812500,131.33,62.23
200891,2018-06-29 10:29:29.843750,147.81,62.23
200892,2018-06-29 10:29:29.875000,148.63,62.23
200893,2018-06-29 10:29:29.906250,140.44,62.23
200894,2018-06-29 10:29:29.937500,127.01,62.23
200895,2018-06-29 10:29:29.968750,110.49,62.23
200896,2018-06-29 10:29:30.000000,94.63,62.23
200897,2018-06-29 10:29:30.031250,82.97,62.23
200898,2018-06-29 10:29:30.062500,75.13,62.23
200899,2018-06-29 10:29:30.093750,68.28,62.23
200900,2018-06-29 10:29:30.125000,60.53,62.23
200901,2018-06-29 10:29:30.156250,51.12,62.23
200902,2018-06-29 10:29:30.187500,39.22,62.23
200903,2018-06-29 10:29:30.218750,24.48,62.23
200904,2018-06-29 10:29:30.250000,8.21,62.23
200905,2018-06-29 10:29:30.281250,-7.1,62.23
200906,2018-06-29 10:29:30.312500,-19.91,62.23
200907,2018-06-29 10:29:30.343750,-30.99,62.23
200908,2018-06-29 10:29:30.375000,-41.99,62.23
200909,2018-06-29 10:29:30.406250,-52.9,62.23
200910,2018-06-29 10:29:30.437500,-62.09,62.23
200911,2018-06-29 10:29:30.468750,-68.93,62.23
200912,2018-06-29 10:29:30.500000,-75.12,62.23
200913,2018-06-29 10:29:30.531250,-83.36,62.12
200914,2018-06-29 10:29:30.562500,-93.75,62.12
200915,2018-06-29 10:29:30.593750,-99.69,62.12
200916,2018-06-29 10:29:30.625000,-91.42,62.12
200917,2018-06-29 10:29:30.656250,-67.63,62.12
200918,2018-06-29 10:29:30.687500,-38.54,62.12
200919,2018-06-29 10:29:30.718750,-14.57,62.12
200920,2018-06-29 10:29:30.750000,2.25,62.12
200921,2018-06-29 10:29:30.781250,13.91,62.12
200922,2018-06-29 10:29:30.812500,21.24,62.12
200923,2018-06-29 10:29:30.843750,24.93,62.12
200924,2018-06-29 10:29:30.875000,26.76,62.12
200925,2018-06-29 10:29:30.906250,28.15,62.12
200926,2018-06-29 10:29:30.937500,29.26,62.12
200927,2018-06-29 10:29:30.968750,30.0,62.12
200928,2018-06-29 10:29:31.000000,30.69,62.12
200929,2018-06-29 10:29:31.031250,31.01,62.12
200930,2018-06-29 10:29:31.062500,29.58,62.12
200931,2018-06-29 10:29:31.093750,25.38,62.12
200932,2018-06-29 10:29:31.125000,18.69,62.12
200933,2018-06-29 10:29:31.156250,10.59,62.12
200934,2018-06-29 10:29:31.187500,2.29,62.12
200935,2018-06-29 10:29:31.218750,-5.54,62.12
200936,2018-06-29 10:29:31.250000,-13.33,62.12
200937,2018-06-29 10:29:31.281250,-22.16,62.12
200938,2018-06-29 10:29:31.312500,-31.74,62.12
200939,2018-06-29 10:29:31.343750,-39.99,62.12
200940,2018-06-29 10:29:31.375000,-45.81,62.12
200941,2018-06-29 10:29:31.406250,-51.28,62.12
200942,2018-06-29 10:29:31.437500,-59.93,62.12
200943,2018-06-29 10:29:31.468750,-72.14,62.12
200944,2018-06-29 10:29:31.500000,-81.29,62.12
200945,2018-06-29 10:29:31.531250,-76.53,62.02
200946,2018-06-29 10:29:31.562500,-53.72,62.02
200947,2018-06-29 10:29:31.593750,-21.63,62.02
200948,2018-06-29 10:29:31.625000,6.74,62.02
200949,2018-06-29 10:29:31.656250,25.98,62.02
200950,2018-06-29 10:29:31.687500,37.95,62.02
200951,2018-06-29 10:29:31.718750,44.54,62.02
200952,2018-06-29 10:29:31.750000,45.24,62.02
200953,2018-06-29 10:29:31.781250,39.93,62.02
200954,2018-06-29 10:29:31.812500,30.64,62.02
200955,2018-06-29 10:29:31.843750,20.34,62.02
200956,2018-06-29 10:29:31.875000,11.23,62.02
200957,2018-06-29 10:29:31.906250,5.07,62.02
200958,2018-06-29 10:29:31.937500,3.16,62.02
200959,2018-06-29 10:29:31.968750,5.69,62.02
200960,2018-06-29 10:29:32.000000,12.85,62.02
200961,2018-06-29 10:29:32.031250,24.79,62.02
200962,2018-06-29 10:29:32.062500,39.44,62.02
200963,2018-06-29 10:29:32.093750,52.86,62.02
200964,2018-06-29 10:29:32.125000,61.61,62.02
200965,2018-06-29 10:29:32.156250,64.1,62.02
200966,2018-06-29 10:29:32.187500,60.52,62.02
200967,2018-06-29 10:29:32.218750,52.65,62.02
200968,2018-06-29 10:29:32.250000,42.28,62.02
200969,2018-06-29 10:29:32.281250,30.28,62.02
200970,2018-06-29 10:29:32.312500,17.57,62.02
200971,2018-06-29 10:29:32.343750,5.51,62.02
200972,2018-06-29 10:29:32.375000,-5.83,62.02
200973,2018-06-29 10:29:32.406250,-16.66,62.02
200974,2018-06-29 10:29:32.437500,-22.62,62.02
200975,2018-06-29 10:29:32.468750,-16.08,62.02
200976,2018-06-29 10:29:32.500000,3.58,62.02
200977,2018-06-29 10:29:32.531250,26.58,61.9
200978,2018-06-29 10:29:32.562500,43.58,61.9
200979,2018-06-29 10:29:32.593750,53.46,61.9
200980,2018-06-29 10:29:32.625000,57.87,61.9
200981,2018-06-29 10:29:32.656250,56.18,61.9
200982,2018-06-29 10:29:32.687500,49.03,61.9
200983,2018-06-29 10:29:32.718750,40.78,61.9
200984,2018-06-29 10:29:32.750000,35.53,61.9
200985,2018-06-29 10:29:32.781250,33.97,61.9
200986,2018-06-29 10:29:32.812500,34.52,61.9
200987,2018-06-29 10:29:32.843750,34.47,61.9
200988,2018-06-29 10:29:32.875000,31.01,61.9
200989,2018-06-29 10:29:32.906250,22.89,61.9
200990,2018-06-29 10:29:32.937500,11.04,61.9
200991,2018-06-29 10:29:32.968750,-2.51,61.9
200992,2018-06-29 10:29:33.000000,-15.54,61.9
200993,2018-06-29 10:29:33.031250,-26.68,61.9
200994,2018-06-29 10:29:33.062500,-36.02,61.9
