,Time,ppg,hr
208000,2018-06-29 10:33:12.000000,266.67,65.92
208001,2018-06-29 10:33:12.031250,244.26,65.92
208002,2018-06-29 10:33:12.062500,204.27,65.92
208003,2018-06-29 10:33:12.093750,158.18,65.92
208004,2018-06-29 10:33:12.125000,112.29,65.92
208005,2018-06-29 10:33:12.156250,67.71,65.92
208006,2018-06-29 10:33:12.187500,25.64,65.92
208007,2018-06-29 10:33:12.218750,-11.4,65.92
208008,2018-06-29 10:33:12.250000,-43.39,65.92
208009,2018-06-29 10:33:12.281250,-74.17,65.92
208010,2018-06-29 10:33:12.312500,-103.84,65.92
208011,2018-06-29 10:33:12.343750,-121.34,65.92
208012,2018-06-29 10:33:12.375000,-114.41,65.92
208013,2018-06-29 10:33:12.406250,-89.12,65.92
208014,2018-06-29 10:33:12.437500,-65.19,65.92
208015,2018-06-29 10:33:12.468750,-52.91,65.92
208016,2018-06-29 10:33:12.500000,-51.43,65.92
208017,2018-06-29 10:33:12.531250,-62.04,65.5
208018,2018-06-29 10:33:12.562500,-83.34,65.5
208019,2018-06-29 10:33:12.593750,-101.88,65.5
208020,2018-06-29 10:33:12.625000,-105.27,65.5
208021,2018-06-29 10:33:12.656250,-93.88,65.5
208022,2018-06-29 10:33:12.687500,-70.29,65.5
208023,2018-06-29 10:33:12.718750,-33.21,65.5
208024,2018-06-29 10:33:12.750000,11.71,65.5
208025,2018-06-29 10:33:12.781250,49.71,65.5
208026,2018-06-29 10:33:12.812500,70.83,65.5
208027,2018-06-29 10:33:12.843750,76.92,65.5
208028,2018-06-29 10:33:12.875000,73.42,65.5
208029,2018-06-29 10:33:12.906250,63.24,65.5
208030,2018-06-29 10:33:12.937500,47.9,65.5
208031,2018-06-29 10:33:12.968750,29.4,65.5
208032,2018-06-29 10:33:13.000000,8.91,65.5
208033,2018-06-29 10:33:13.031250,-16.14,65.5
208034,2018-06-29 10:33:13.062500,-50.69,65.5
208035,2018-06-29 10:33:13.093750,-94.43,65.5
208036,2018-06-29 10:33:13.125000,-136.9,65.5
208037,2018-06-29 10:33:13.156250,-164.12,65.5
208038,2018-06-29 10:33:13.187500,-170.07,65.5
208039,2018-06-29 10:33:13.218750,-158.86,65.5
208040,2018-06-29 10:33:13.250000,-136.99,65.5
208041,2018-06-29 10:33:13.281250,-106.82,65.5
208042,2018-06-29 10:33:13.312500,-68.33,65.5
208043,2018-06-29 10:33:13.343750,-25.56,65.5
208044,2018-06-29 10:33:13.375000,13.74,65.5
208045,2018-06-29 10:33:13.406250,46.85,65.5
208046,2018-06-29 10:33:13.437500,78.93,65.5
208047,2018-06-29 10:33:13.468750,112.67,65.5
208048,2018-06-29 10:33:13.500000,141.69,65.5
208049,2018-06-29 10:33:13.531250,158.49,65.18
208050,2018-06-29 10:33:13.562500,161.91,65.18
208051,2018-06-29 10:33:13.593750,152.57,65.18
208052,2018-06-29 10:33:13.625000,128.05,65.18
208053,2018-06-29 10:33:13.656250,88.74,65.18
208054,2018-06-29 10:33:13.687500,43.83,65.18
208055,2018-06-29 10:33:13.718750,5.96,65.18
208056,2018-06-29 10:33:13.750000,-16.66,65.18
208057,2018-06-29 10:33:13.781250,-20.16,65.18
208058,2018-06-29 10:33:13.812500,-4.0,65.18
208059,2018-06-29 10:33:13.843750,24.25,65.18
208060,2018-06-29 10:33:13.875000,47.6,65.18
208061,2018-06-29 10:33:13.906250,49.48,65.18
208062,2018-06-29 10:33:13.937500,23.44,65.18
208063,2018-06-29 10:33:13.968750,-24.26,65.18
208064,2018-06-29 10:33:14.000000,-74.64,65.18
208065,2018-06-29 10:33:14.031250,-103.23,65.18
208066,2018-06-29 10:33:14.062500,-98.45,65.18
208067,2018-06-29 10:33:14.093750,-69.8,65.18
208068,2018-06-29 10:33:14.125000,-32.49,65.18
208069,2018-06-29 10:33:14.156250,7.43,65.18
208070,2018-06-29 10:33:14.187500,47.61,65.18
208071,2018-06-29 10:33:14.218750,81.07,65.18
208072,2018-06-29 10:33:14.250000,101.5,65.18
208073,2018-06-29 10:33:14.281250,111.24,65.18
208074,2018-06-29 10:33:14.312500,116.83,65.18
208075,2018-06-29 10:33:14.343750,118.43,65.18
208076,2018-06-29 10:33:14.375000,110.03,65.18
208077,2018-06-29 10:33:14.406250,91.04,65.18
208078,2018-06-29 10:33:14.437500,71.43,65.18
208079,2018-06-29 10:33:14.468750,61.32,65.18
208080,2018-06-29 10:33:14.500000,59.82,65.18
208081,2018-06-29 10:33:14.531250,57.99,64.92
208082,2018-06-29 10:33:14.562500,49.57,64.92
208083,2018-06-29 10:33:14.593750,34.28,64.92
208084,2018-06-29 10:33:14.625000,13.59,64.92
208085,2018-06-29 10:33:14.656250,-11.39,64.92
208086,2018-06-29 10:33:14.687500,-38.28,64.92
208087,2018-06-29 10:33:14.718750,-63.95,64.92
208088,2018-06-29 10:33:14.750000,-86.9,64.92
208089,2018-06-29 10:33:14.781250,-105.9,64.92
208090,2018-06-29 10:33:14.812500,-117.69,64.92
208091,2018-06-29 10:33:14.843750,-119.8,64.92
208092,2018-06-29 10:33:14.875000,-113.64,64.92
208093,2018-06-29 10:33:14.906250,-99.7,64.92
208094,2018-06-29 10:33:14.937500,-74.24,64.92
208095,2018-06-29 10:33:14.968750,-37.36,64.92
208096,2018-06-29 10:33:15.000000,0.85,64.92
208097,2018-06-29 10:33:15.031250,29.21,64.92
208098,2018-06-29 10:33:15.062500,45.79,64.92
208099,2018-06-29 10:33:15.093750,54.21,64.92
208100,2018-06-29 10:33:15.125000,56.76,64.92
208101,2018-06-29 10:33:15.156250,56.06,64.92
208102,2018-06-29 10:33:15.187500,56.44,64.92
208103,2018-06-29 10:33:15.218750,59.18,64.92
208104,2018-06-29 10:33:15.250000,61.23,64.92
208105,2018-06-29 10:33:15.281250,60.41,64.92
208106,2018-06-29 10:33:15.312500,57.59,64.92
208107,2018-06-29 10:33:15.343750,53.22,64.92
208108,2018-06-29 10:33:15.375000,45.9,64.92
208109,2018-06-29 10:33:15.406250,35.02,64.92
208110,2018-06-29 10:33:15.437500,22.28,64.92
208111,2018-06-29 10:33:15.468750,10.39,64.92
208112,2018-06-29 10:33:15.500000,0.74,64.92
208113,2018-06-29 10:33:15.531250,-7.73,64.68
208114,2018-06-29 10:33:15.562500,-17.3,64.68
208115,2018-06-29 10:33:15.593750,-29.64,64.68
208116,2018-06-29 10:33:15.625000,-45.51,64.68
208117,2018-06-29 10:33:15.656250,-64.81,64.68
208118,2018-06-29 10:33:15.687500,-85.74,64.68
208119,2018-06-29 10:33:15.718750,-104.15,64.68
208120,2018-06-29 10:33:15.750000,-112.92,64.68
208121,2018-06-29 10:33:15.781250,-104.28,64.68
208122,2018-06-29 10:33:15.812500,-77.48,64.68
208123,2018-06-29 10:33:15.843750,-42.84,64.68
208124,2018-06-29 10:33:15.875000,-13.02,64.68
208125,2018-06-29 10:33:15.906250,7.79,64.68
208126,2018-06-29 10:33:15.937500,22.09,64.68
208127,2018-06-29 10:33:15.968750,31.36,64.68
208128,2018-06-29 10:33:16.000000,35.42,64.68
208129,2018-06-29 10:33:16.031250,35.56,64.68
208130,2018-06-29 10:33:16.062500,31.98,64.68
208131,2018-06-29 10:33:16.093750,21.92,64.68
208132,2018-06-29 10:33:16.125000,6.24,64.68
208133,2018-06-29 10:33:16.156250,-6.23,64.68
208134,2018-06-29 10:33:16.187500,-6.74,64.68
208135,2018-06-29 10:33:16.218750,5.69,64.68
208136,2018-06-29 10:33:16.250000,27.03,64.68
208137,2018-06-29 10:33:16.281250,53.06,64.68
208138,2018-06-29 10:33:16.312500,79.84,64.68
208139,2018-06-29 10:33:16.343750,102.14,64.68
208140,2018-06-29 10:33:16.375000,112.38,64.68
208141,2018-06-29 10:33:16.406250,100.96,64.68
208142,2018-06-29 10:33:16.437500,62.33,64.68
208143,2018-06-29 10:33:16.468750,7.03,64.68
208144,2018-06-29 10:33:16.500000,-38.43,64.68
208145,2018-06-29 10:33:16.531250,-54.09,64.42
208146,2018-06-29 10:33:16.562500,-43.88,64.42
208147,2018-06-29 10:33:16.593750,-23.34,64.42
208148,2018-06-29 10:33:16.625000,-2.79,64.42
208149,2018-06-29 10:33:16.656250,13.5,64.42
208150,2018-06-29 10:33:16.687500,27.63,64.42
208151,2018-06-29 10:33:16.718750,48.83,64.42
208152,2018-06-29 10:33:16.750000,79.96,64.42
208153,2018-06-29 10:33:16.781250,108.44,64.42
208154,2018-06-29 10:33:16.812500,120.59,64.42
208155,2018-06-29 10:33:16.843750,115.98,64.42
208156,2018-06-29 10:33:16.875000,98.7,64.42
208157,2018-06-29 10:33:16.906250,65.59,64.42
208158,2018-06-29 10:33:16.937500,13.62,64.42
208159,2018-06-29 10:33:16.968750,-48.31,64.42
208160,2018-06-29 10:33:17.000000,-105.11,64.42
208161,2018-06-29 10:33:17.031250,-148.35,64.42
208162,2018-06-29 10:33:17.062500,-177.48,64.42
208163,2018-06-29 10:33:17.093750,-193.82,64.42
208164,2018-06-29 10:33:17.125000,-198.8,64.42
208165,2018-06-29 10:33:17.156250,-195.99,64.42
208166,2018-06-29 10:33:17.187500,-190.47,64.42
208167,2018-06-29 10:33:17.218750,-185.98,64.42
208168,2018-06-29 10:33:17.250000,-183.33,64.42
208169,2018-06-29 10:33:17.281250,-179.06,64.42
208170,2018-06-29 10:33:17.312500,-165.37,64.42
208171,2018-06-29 10:33:17.343750,-136.52,64.42
208172,2018-06-29 10:33:17.375000,-97.06,64.42
208173,2018-06-29 10:33:17.406250,-58.75,64.42
208174,2018-06-29 10:33:17.437500,-29.2,64.42
208175,2018-06-29 10:33:17.468750,-8.62,64.42
208176,2018-06-29 10:33:17.500000,3.4,64.42
208177,2018-06-29 10:33:17.531250,4.95,64.17
208178,2018-06-29 10:33:17.562500,-2.54,64.17
208179,2018-06-29 10:33:17.593750,-11.25,64.17
208180,2018-06-29 10:33:17.625000,-13.78,64.17
208181,2018-06-29 10:33:17.656250,-10.47,64.17
208182,2018-06-29 10:33:17.687500,-6.09,64.17
208183,2018-06-29 10:33:17.718750,-2.98,64.17
208184,2018-06-29 10:33:17.750000,-1.19,64.17
208185,2018-06-29 10:33:17.781250,-2.31,64.17
208186,2018-06-29 10:33:17.812500,-8.32,64.17
208187,2018-06-29 10:33:17.843750,-18.0,64.17
208188,2018-06-29 10:33:17.875000,-27.77,64.17
208189,2018-06-29 10:33:17.906250,-34.79,64.17
208190,2018-06-29 10:33:17.937500,-37.46,64.17
208191,2018-06-29 10:33:17.968750,-35.3,64.17
208192,2018-06-29 10:33:18.000000,-29.58,64.17
208193,2018-06-29 10:33:18.031250,-19.48,64.17
208194,2018-06-29 10:33:18.062500,2.82,64.17
208195,2018-06-29 10:33:18.093750,45.69,64.17
208196,2018-06-29 10:33:18.125000,104.76,64.17
208197,2018-06-29 10:33:18.156250,162.96,64.17
208198,2018-06-29 10:33:18.187500,204.96,64.17
208199,2018-06-29 10:33:18.218750,225.44,64.17
208200,2018-06-29 10:33:18.250000,224.46,64.17
208201,2018-06-29 10:33:18.281250,202.91,64.17
208202,2018-06-29 10:33:18.312500,164.64,64.17
208203,2018-06-29 10:33:18.343750,117.67,64.17
208204,2018-06-29 10:33:18.375000,70.07,64.17
208205,2018-06-29 10:33:18.406250,26.37,64.17
208206,2018-06-29 10:33:18.437500,-10.68,64.17
208207,2018-06-29 10:33:18.468750,-37.97,64.17
208208,2018-06-29 10:33:18.500000,-54.18,64.17
208209,2018-06-29 10:33:18.531250,-60.27,63.8
208210,2018-06-29 10:33:18.562500,-55.66,63.8
208211,2018-06-29 10:33:18.593750,-38.34,63.8
208212,2018-06-29 10:33:18.625000,-10.5,63.8
208213,2018-06-29 10:33:18.656250,19.96,63.8
208214,2018-06-29 10:33:18.687500,44.91,63.8
208215,2018-06-29 10:33:18.718750,60.48,63.8
208216,2018-06-29 10:33:18.750000,66.08,63.8
208217,2018-06-29 10:33:18.781250,62.89,63.8
208218,2018-06-29 10:33:18.812500,53.53,63.8
208219,2018-06-29 10:33:18.843750,41.83,63.8
208220,2018-06-29 10:33:18.875000,32.35,63.8
208221,2018-06-29 10:33:18.906250,28.46,63.8
208222,2018-06-29 10:33:18.937500,29.8,63.8
208223,2018-06-29 10:33:18.968750,32.04,63.8
208224,2018-06-29 10:33:19.000000,31.09,63.8
208225,2018-06-29 10:33:19.031250,26.79,63.8
208226,2018-06-29 10:33:19.062500,22.01,63.8
208227,2018-06-29 10:33:19.093750,17.76,63.8
208228,2018-06-29 10:33:19.125000,10.33,63.8
208229,2018-06-29 10:33:19.156250,-2.54,63.8
208230,2018-06-29 10:33:19.187500,-12.04,63.8
208231,2018-06-29 10:33:19.218750,-3.75,63.8
208232,2018-06-29 10:33:19.250000,24.38,63.8
208233,2018-06-29 10:33:19.281250,57.8,63.8
208234,2018-06-29 10:33:19.312500,82.21,63.8
208235,2018-06-29 10:33:19.343750,94.68,63.8
208236,2018-06-29 10:33:19.375000,98.22,63.8
208237,2018-06-29 10:33:19.406250,92.9,63.8
208238,2018-06-29 10:33:19.437500,73.38,63.8
208239,2018-06-29 10:33:19.468750,36.28,63.8
208240,2018-06-29 10:33:19.500000,-4.34,63.8
208241,2018-06-29 10:33:19.531250,-15.35,63.5
208242,2018-06-29 10:33:19.562500,24.63,63.5
208243,2018-06-29 10:33:19.593750,96.12,63.5
208244,2018-06-29 10:33:19.625000,158.03,63.5
208245,2018-06-29 10:33:19.656250,190.08,63.5
208246,2018-06-29 10:33:19.687500,198.77,63.5
208247,2018-06-29 10:33:19.718750,191.51,63.5
208248,2018-06-29 10:33:19.750000,167.6,63.5
208249,2018-06-29 10:33:19.781250,129.79,63.5
208250,2018-06-29 10:33:19.812500,86.15,63.5
208251,2018-06-29 10:33:19.843750,40.49,63.5
208252,2018-06-29 10:33:19.875000,-8.67,63.5
208253,2018-06-29 10:33:19.906250,-60.34,63.5
208254,2018-06-29 10:33:19.937500,-111.97,63.5
208255,2018-06-29 10:33:19.968750,-168.88,63.5
208256,2018-06-29 10:33:20.000000,-243.77,63.5
208257,2018-06-29 10:33:20.031250,-342.94,63.5
208258,2018-06-29 10:33:20.062500,-461.49,63.5
208259,2018-06-29 10:33:20.093750,-580.36,63.5
208260,2018-06-29 10:33:20.125000,-662.9,63.5
208261,2018-06-29 10:33:20.156250,-675.99,63.5
208262,2018-06-29 10:33:20.187500,-626.91,63.5
208263,2018-06-29 10:33:20.218750,-553.24,63.5
208264,2018-06-29 10:33:20.250000,-476.99,63.5
208265,2018-06-29 10:33:20.281250,-398.88,63.5
208266,2018-06-29 10:33:20.312500,-317.06,63.5
208267,2018-06-29 10:33:20.343750,-229.09,63.5
208268,2018-06-29 10:33:20.375000,-126.19,63.5
208269,2018-06-29 10:33:20.406250,-14.62,63.5
208270,2018-06-29 10:33:20.437500,87.13,63.5
208271,2018-06-29 10:33:20.468750,171.82,63.5
208272,2018-06-29 10:33:20.500000,248.56,63.5
208273,2018-06-29 10:33:20.531250,323.58,63.17
208274,2018-06-29 10:33:20.562500,385.92,63.17
208275,2018-06-29 10:33:20.593750,425.42,63.17
208276,2018-06-29 10:33:20.625000,424.17,63.17
208277,2018-06-29 10:33:20.656250,378.68,63.17
208278,2018-06-29 10:33:20.687500,320.92,63.17
208279,2018-06-29 10:33:20.718750,256.48,63.17
208280,2018-06-29 10:33:20.750000,178.94,63.17
208281,2018-06-29 10:33:20.781250,101.71,63.17
208282,2018-06-29 10:33:20.812500,52.17,63.17
208283,2018-06-29 10:33:20.843750,32.89,63.17
208284,2018-06-29 10:33:20.875000,28.81,63.17
208285,2018-06-29 10:33:20.906250,25.1,63.17
208286,2018-06-29 10:33:20.937500,17.26,63.17
208287,2018-06-29 10:33:20.968750,1.77,63.17
208288,2018-06-29 10:33:21.000000,-22.2,63.17
208289,2018-06-29 10:33:21.031250,-48.82,63.17
208290,2018-06-29 10:33:21.062500,-64.24,63.17
208291,2018-06-29 10:33:21.093750,-51.77,63.17
208292,2018-06-29 10:33:21.125000,-10.47,63.17
208293,2018-06-29 10:33:21.156250,41.27,63.17
208294,2018-06-29 10:33:21.187500,80.38,63.17
208295,2018-06-29 10:33:21.218750,99.62,63.17
208296,2018-06-29 10:33:21.250000,104.54,63.17
208297,2018-06-29 10:33:21.281250,99.06,63.17
208298,2018-06-29 10:33:21.312500,83.05,63.17
208299,2018-06-29 10:33:21.343750,62.07,63.17
208300,2018-06-29 10:33:21.375000,47.86,63.17
208301,2018-06-29 10:33:21.406250,45.18,63.17
208302,2018-06-29 10:33:21.437500,48.49,63.17
208303,2018-06-29 10:33:21.468750,51.14,63.17
208304,2018-06-29 10:33:21.500000,51.38,63.17
208305,2018-06-29 10:33:21.531250,49.0,62.87
208306,2018-06-29 10:33:21.562500,42.21,62.87
208307,2018-06-29 10:33:21.593750,30.55,62.87
208308,2018-06-29 10:33:21.625000,16.49,62.87
208309,2018-06-29 10:33:21.656250,1.78,62.87
208310,2018-06-29 10:33:21.687500,-14.4,62.87
208311,2018-06-29 10:33:21.718750,-33.13,62.87
208312,2018-06-29 10:33:21.750000,-54.56,62.87
208313,2018-06-29 10:33:21.781250,-78.12,62.87
208314,2018-06-29 10:33:21.812500,-101.2,62.87
208315,2018-06-29 10:33:21.843750,-119.42,62.87
208316,2018-06-29 10:33:21.875000,-129.33,62.87
208317,2018-06-29 10:33:21.906250,-130.27,62.87
208318,2018-06-29 10:33:21.937500,-126.95,62.87
208319,2018-06-29 10:33:21.968750,-134.0,62.87
208320,2018-06-29 10:33:22.000000,-167.1,62.87
208321,2018-06-29 10:33:22.031250,-222.81,62.87
208322,2018-06-29 10:33:22.062500,-277.04,62.87
208323,2018-06-29 10:33:22.093750,-306.65,62.87
208324,2018-06-29 10:33:22.125000,-311.27,62.87
208325,2018-06-29 10:33:22.156250,-303.46,62.87
208326,2018-06-29 10:33:22.187500,-290.42,62.87
208327,2018-06-29 10:33:22.218750,-268.66,62.87
208328,2018-06-29 10:33:22.250000,-234.09,62.87
208329,2018-06-29 10:33:22.281250,-184.09,62.87
208330,2018-06-29 10:33:22.312500,-114.71,62.87
208331,2018-06-29 10:33:22.343750,-31.28,62.87
208332,2018-06-29 10:33:22.375000,54.4,62.87
208333,2018-06-29 10:33:22.406250,121.95,62.87
208334,2018-06-29 10:33:22.437500,170.32,62.87
208335,2018-06-29 10:33:22.468750,210.66,62.87
208336,2018-06-29 10:33:22.500000,259.47,62.87
208337,2018-06-29 10:33:22.531250,313.67,62.6
208338,2018-06-29 10:33:22.562500,353.37,62.6
208339,2018-06-29 10:33:22.593750,377.44,62.6
208340,2018-06-29 10:33:22.625000,393.75,62.6
208341,2018-06-29 10:33:22.656250,425.65,62.6
208342,2018-06-29 10:33:22.687500,453.48,62.6
208343,2018-06-29 10:33:22.718750,469.4,62.6
208344,2018-06-29 10:33:22.750000,479.97,62.6
208345,2018-06-29 10:33:22.781250,508.45,62.6
208346,2018-06-29 10:33:22.812500,544.24,62.6
208347,2018-06-29 10:33:22.843750,537.95,62.6
208348,2018-06-29 10:33:22.875000,484.37,62.6
208349,2018-06-29 10:33:22.906250,258.19,62.6
208350,2018-06-29 10:33:22.937500,-57.23,62.6
208351,2018-06-29 10:33:22.968750,-244.27,62.6
208352,2018-06-29 10:33:23.000000,-344.32,62.6
208353,2018-06-29 10:33:23.031250,-407.67,62.6
208354,2018-06-29 10:33:23.062500,-401.9,62.6
208355,2018-06-29 10:33:23.093750,-338.9,62.6
208356,2018-06-29 10:33:23.125000,-287.51,62.6
208357,2018-06-29 10:33:23.156250,-255.36,62.6
208358,2018-06-29 10:33:23.187500,-222.14,62.6
208359,2018-06-29 10:33:23.218750,-161.94,62.6
208360,2018-06-29 10:33:23.250000,-106.0,62.6
208361,2018-06-29 10:33:23.281250,-70.62,62.6
208362,2018-06-29 10:33:23.312500,-49.23,62.6
208363,2018-06-29 10:33:23.343750,-30.36,62.6
208364,2018-06-29 10:33:23.375000,-17.46,62.6
208365,2018-06-29 10:33:23.406250,-21.52,62.6
208366,2018-06-29 10:33:23.437500,-30.05,62.6
208367,2018-06-29 10:33:23.468750,-30.36,62.6
208368,2018-06-29 10:33:23.500000,-17.64,62.6
208369,2018-06-29 10:33:23.531250,-6.37,62.3
208370,2018-06-29 10:33:23.562500,-3.97,62.3
208371,2018-06-29 10:33:23.593750,-7.89,62.3
208372,2018-06-29 10:33:23.625000,-12.58,62.3
208373,2018-06-29 10:33:23.656250,-17.91,62.3
208374,2018-06-29 10:33:23.687500,-28.93,62.3
208375,2018-06-29 10:33:23.718750,-45.94,62.3
208376,2018-06-29 10:33:23.750000,-65.22,62.3
208377,2018-06-29 10:33:23.781250,-80.77,62.3
208378,2018-06-29 10:33:23.812500,-88.96,62.3
208379,2018-06-29 10:33:23.843750,-90.45,62.3
208380,2018-06-29 10:33:23.875000,-89.4,62.3
208381,2018-06-29 10:33:23.906250,-81.0,62.3
208382,2018-06-29 10:33:23.937500,-53.44,62.3
208383,2018-06-29 10:33:23.968750,-7.02,62.3
208384,2018-06-29 10:33:24.000000,39.02,62.3
208385,2018-06-29 10:33:24.031250,66.72,62.3
208386,2018-06-29 10:33:24.062500,79.26,62.3
208387,2018-06-29 10:33:24.093750,81.86,62.3
208388,2018-06-29 10:33:24.125000,68.45,62.3
208389,2018-06-29 10:33:24.156250,29.76,62.3
208390,2018-06-29 10:33:24.187500,-25.39,62.3
208391,2018-06-29 10:33:24.218750,-79.24,62.3
208392,2018-06-29 10:33:24.250000,-116.75,62.3
208393,2018-06-29 10:33:24.281250,-99.15,62.3
208394,2018-06-29 10:33:24.312500,-36.55,62.3
208395,2018-06-29 10:33:24.343750,24.71,62.3
208396,2018-06-29 10:33:24.375000,68.37,62.3
208397,2018-06-29 10:33:24.406250,100.36,62.3
208398,2018-06-29 10:33:24.437500,116.11,62.3
208399,2018-06-29 10:33:24.468750,103.01,62.3
208400,2018-06-29 10:33:24.500000,66.12,62.3
208401,2018-06-29 10:33:24.531250,31.62,61.98
208402,2018-06-29 10:33:24.562500,16.41,61.98
208403,2018-06-29 10:33:24.593750,14.86,61.98
208404,2018-06-29 10:33:24.625000,24.9,61.98
208405,2018-06-29 10:33:24.656250,46.38,61.98
208406,2018-06-29 10:33:24.687500,64.17,61.98
208407,2018-06-29 10:33:24.718750,60.22,61.98
208408,2018-06-29 10:33:24.750000,41.97,61.98
208409,2018-06-29 10:33:24.781250,31.89,61.98
208410,2018-06-29 10:33:24.812500,40.82,61.98
208411,2018-06-29 10:33:24.843750,65.16,61.98
208412,2018-06-29 10:33:24.875000,91.08,61.98
208413,2018-06-29 10:33:24.906250,101.91,61.98
208414,2018-06-29 10:33:24.937500,89.22,61.98
208415,2018-06-29 10:33:24.968750,68.54,61.98
208416,2018-06-29 10:33:25.000000,51.77,61.98
208417,2018-06-29 10:33:25.031250,29.13,61.98
208418,2018-06-29 10:33:25.062500,-6.11,61.98
208419,2018-06-29 10:33:25.093750,-43.16,61.98
208420,2018-06-29 10:33:25.125000,-73.69,61.98
208421,2018-06-29 10:33:25.156250,-97.81,61.98
208422,2018-06-29 10:33:25.187500,-112.82,61.98
208423,2018-06-29 10:33:25.218750,-116.19,61.98
208424,2018-06-29 10:33:25.250000,-112.85,61.98
208425,2018-06-29 10:33:25.281250,-109.89,61.98
208426,2018-06-29 10:33:25.312500,-107.13,61.98
208427,2018-06-29 10:33:25.343750,-100.61,61.98
208428,2018-06-29 10:33:25.375000,-89.97,61.98
208429,2018-06-29 10:33:25.406250,-79.48,61.98
208430,2018-06-29 10:33:25.437500,-72.09,61.98
208431,2018-06-29 10:33:25.468750,-67.28,61.98
208432,2018-06-29 10:33:25.500000,-64.19,61.98
208433,2018-06-29 10:33:25.531250,-63.16,61.7
208434,2018-06-29 10:33:25.562500,-61.55,61.7
208435,2018-06-29 10:33:25.593750,-51.77,61.7
208436,2018-06-29 10:33:25.625000,-29.65,61.7
208437,2018-06-29 10:33:25.656250,-1.69,61.7
208438,2018-06-29 10:33:25.687500,21.75,61.7
208439,2018-06-29 10:33:25.718750,37.64,61.7
208440,2018-06-29 10:33:25.750000,49.42,61.7
208441,2018-06-29 10:33:25.781250,58.99,61.7
208442,2018-06-29 10:33:25.812500,65.31,61.7
208443,2018-06-29 10:33:25.843750,68.95,61.7
208444,2018-06-29 10:33:25.875000,73.31,61.7
208445,2018-06-29 10:33:25.906250,80.25,61.7
208446,2018-06-29 10:33:25.937500,87.32,61.7
208447,2018-06-29 10:33:25.968750,91.35,61.7
208448,2018-06-29 10:33:26.000000,93.14,61.7
208449,2018-06-29 10:33:26.031250,95.44,61.7
208450,2018-06-29 10:33:26.062500,97.89,61.7
208451,2018-06-29 10:33:26.093750,97.64,61.7
208452,2018-06-29 10:33:26.125000,94.25,61.7
208453,2018-06-29 10:33:26.156250,90.82,61.7
208454,2018-06-29 10:33:26.187500,91.11,61.7
208455,2018-06-29 10:33:26.218750,95.02,61.7
208456,2018-06-29 10:33:26.250000,93.15,61.7
208457,2018-06-29 10:33:26.281250,69.83,61.7
208458,2018-06-29 10:33:26.312500,20.46,61.7
208459,2018-06-29 10:33:26.343750,-39.55,61.7
208460,2018-06-29 10:33:26.375000,-91.07,61.7
208461,2018-06-29 10:33:26.406250,-128.23,61.7
208462,2018-06-29 10:33:26.437500,-152.95,61.7
208463,2018-06-29 10:33:26.468750,-162.5,61.7
208464,2018-06-29 10:33:26.500000,-150.05,61.7
208465,2018-06-29 10:33:26.531250,-113.73,61.43
208466,2018-06-29 10:33:26.562500,-63.69,61.43
208467,2018-06-29 10:33:26.593750,-18.92,61.43
208468,2018-06-29 10:33:26.625000,6.28,61.43
208469,2018-06-29 10:33:26.656250,10.81,61.43
208470,2018-06-29 10:33:26.687500,2.13,61.43
208471,2018-06-29 10:33:26.718750,-10.98,61.43
208472,2018-06-29 10:33:26.750000,-22.39,61.43
208473,2018-06-29 10:33:26.781250,-31.91,61.43
208474,2018-06-29 10:33:26.812500,-43.44,61.43
208475,2018-06-29 10:33:26.843750,-58.5,61.43
208476,2018-06-29 10:33:26.875000,-75.62,61.43
208477,2018-06-29 10:33:26.906250,-94.52,61.43
208478,2018-06-29 10:33:26.937500,-115.64,61.43
208479,2018-06-29 10:33:26.968750,-135.49,61.43
208480,2018-06-29 10:33:27.000000,-144.96,61.43
208481,2018-06-29 10:33:27.031250,-132.45,61.43
208482,2018-06-29 10:33:27.062500,-92.8,61.43
208483,2018-06-29 10:33:27.093750,-36.4,61.43
208484,2018-06-29 10:33:27.125000,17.1,61.43
208485,2018-06-29 10:33:27.156250,55.32,61.43
208486,2018-06-29 10:33:27.187500,76.89,61.43
208487,2018-06-29 10:33:27.218750,82.65,61.43
208488,2018-06-29 10:33:27.250000,74.53,61.43
208489,2018-06-29 10:33:27.281250,58.81,61.43
208490,2018-06-29 10:33:27.312500,40.95,61.43
208491,2018-06-29 10:33:27.343750,21.07,61.43
208492,2018-06-29 10:33:27.375000,-1.02,61.43
208493,2018-06-29 10:33:27.406250,-21.13,61.43
208494,2018-06-29 10:33:27.437500,-32.27,61.43
208495,2018-06-29 10:33:27.468750,-29.92,61.43
208496,2018-06-29 10:33:27.500000,-16.7,61.43
208497,2018-06-29 10:33:27.531250,-0.52,61.55
208498,2018-06-29 10:33:27.562500,12.31,61.55
208499,2018-06-29 10:33:27.593750,20.01,61.55
208500,2018-06-29 10:33:27.625000,22.29,61.55
208501,2018-06-29 10:33:27.656250,19.19,61.55
208502,2018-06-29 10:33:27.687500,13.27,61.55
208503,2018-06-29 10:33:27.718750,8.56,61.55
208504,2018-06-29 10:33:27.750000,6.29,61.55
208505,2018-06-29 10:33:27.781250,4.77,61.55
208506,2018-06-29 10:33:27.812500,2.42,61.55
208507,2018-06-29 10:33:27.843750,0.63,61.55
208508,2018-06-29 10:33:27.875000,0.31,61.55
208509,2018-06-29 10:33:27.906250,-0.67,61.55
208510,2018-06-29 10:33:27.937500,-4.21,61.55
208511,2018-06-29 10:33:27.968750,-7.62,61.55
208512,2018-06-29 10:33:28.000000,-7.82,61.55
208513,2018-06-29 10:33:28.031250,-8.99,61.55
208514,2018-06-29 10:33:28.062500,-17.5,61.55
208515,2018-06-29 10:33:28.093750,-32.37,61.55
208516,2018-06-29 10:33:28.125000,-43.03,61.55
208517,2018-06-29 10:33:28.156250,-47.72,61.55
208518,2018-06-29 10:33:28.187500,-55.89,61.55
208519,2018-06-29 10:33:28.218750,-74.91,61.55
208520,2018-06-29 10:33:28.250000,-93.74,61.55
208521,2018-06-29 10:33:28.281250,-92.41,61.55
208522,2018-06-29 10:33:28.312500,-69.84,61.55
208523,2018-06-29 10:33:28.343750,-39.25,61.55
208524,2018-06-29 10:33:28.375000,-12.69,61.55
208525,2018-06-29 10:33:28.406250,21.12,61.55
208526,2018-06-29 10:33:28.437500,68.11,61.55
208527,2018-06-29 10:33:28.468750,125.42,61.55
208528,2018-06-29 10:33:28.500000,185.61,61.55
208529,2018-06-29 10:33:28.531250,239.87,61.8
208530,2018-06-29 10:33:28.562500,283.15,61.8
208531,2018-06-29 10:33:28.593750,314.63,61.8
208532,2018-06-29 10:33:28.625000,353.28,61.8
208533,2018-06-29 10:33:28.656250,334.31,61.8
208534,2018-06-29 10:33:28.687500,212.45,61.8
208535,2018-06-29 10:33:28.718750,82.58,61.8
208536,2018-06-29 10:33:28.750000,-13.75,61.8
208537,2018-06-29 10:33:28.781250,-85.51,61.8
208538,2018-06-29 10:33:28.812500,-132.59,61.8
208539,2018-06-29 10:33:28.843750,-149.72,61.8
208540,2018-06-29 10:33:28.875000,-148.85,61.8
208541,2018-06-29 10:33:28.906250,-142.62,61.8
208542,2018-06-29 10:33:28.937500,-134.55,61.8
208543,2018-06-29 10:33:28.968750,-114.8,61.8
208544,2018-06-29 10:33:29.000000,-79.46,61.8
208545,2018-06-29 10:33:29.031250,-41.67,61.8
208546,2018-06-29 10:33:29.062500,-14.32,61.8
208547,2018-06-29 10:33:29.093750,2.67,61.8
208548,2018-06-29 10:33:29.125000,11.16,61.8
208549,2018-06-29 10:33:29.156250,-0.64,61.8
208550,2018-06-29 10:33:29.187500,-30.88,61.8
208551,2018-06-29 10:33:29.218750,-59.33,61.8
208552,2018-06-29 10:33:29.250000,-67.83,61.8
208553,2018-06-29 10:33:29.281250,-59.38,61.8
208554,2018-06-29 10:33:29.312500,-45.35,61.8
208555,2018-06-29 10:33:29.343750,-28.64,61.8
208556,2018-06-29 10:33:29.375000,-11.26,61.8
208557,2018-06-29 10:33:29.406250,1.36,61.8
208558,2018-06-29 10:33:29.437500,5.53,61.8
208559,2018-06-29 10:33:29.468750,6.45,61.8
208560,2018-06-29 10:33:29.500000,8.37,61.8
208561,2018-06-29 10:33:29.531250,5.28,62.05
208562,2018-06-29 10:33:29.562500,-9.87,62.05
208563,2018-06-29 10:33:29.593750,-31.45,62.05
208564,2018-06-29 10:33:29.625000,-40.25,62.05
208565,2018-06-29 10:33:29.656250,-18.55,62.05
208566,2018-06-29 10:33:29.687500,30.5,62.05
208567,2018-06-29 10:33:29.718750,77.62,62.05
208568,2018-06-29 10:33:29.750000,94.27,62.05
208569,2018-06-29 10:33:29.781250,82.03,62.05
208570,2018-06-29 10:33:29.812500,61.66,62.05
208571,2018-06-29 10:33:29.843750,43.66,62.05
208572,2018-06-29 10:33:29.875000,26.14,62.05
208573,2018-06-29 10:33:29.906250,7.8,62.05
208574,2018-06-29 10:33:29.937500,-9.18,62.05
208575,2018-06-29 10:33:29.968750,-18.24,62.05
208576,2018-06-29 10:33:30.000000,-9.93,62.05
208577,2018-06-29 10:33:30.031250,15.96,62.05
208578,2018-06-29 10:33:30.062500,45.09,62.05
208579,2018-06-29 10:33:30.093750,62.0,62.05
208580,2018-06-29 10:33:30.125000,64.15,62.05
208581,2018-06-29 10:33:30.156250,59.75,62.05
208582,2018-06-29 10:33:30.187500,55.66,62.05
208583,2018-06-29 10:33:30.218750,51.56,62.05
208584,2018-06-29 10:33:30.250000,46.51,62.05
208585,2018-06-29 10:33:30.281250,44.77,62.05
208586,2018-06-29 10:33:30.312500,51.71,62.05
208587,2018-06-29 10:33:30.343750,67.05,62.05
208588,2018-06-29 10:33:30.375000,81.6,62.05
208589,2018-06-29 10:33:30.406250,82.18,62.05
208590,2018-06-29 10:33:30.437500,67.08,62.05
208591,2018-06-29 10:33:30.468750,53.15,62.05
208592,2018-06-29 10:33:30.500000,56.8,62.05
208593,2018-06-29 10:33:30.531250,74.32,62.3
208594,2018-06-29 10:33:30.562500,91.37,62.3
208595,2018-06-29 10:33:30.593750,100.7,62.3
208596,2018-06-29 10:33:30.625000,99.14,62.3
208597,2018-06-29 10:33:30.656250,81.19,62.3
208598,2018-06-29 10:33:30.687500,47.82,62.3
208599,2018-06-29 10:33:30.718750,9.0,62.3
208600,2018-06-29 10:33:30.750000,-30.1,62.3
208601,2018-06-29 10:33:30.781250,-72.55,62.3
208602,2018-06-29 10:33:30.812500,-117.57,62.3
208603,2018-06-29 10:33:30.843750,-157.64,62.3
208604,2018-06-29 10:33:30.875000,-183.58,62.3
208605,2018-06-29 10:33:30.906250,-183.56,62.3
208606,2018-06-29 10:33:30.937500,-151.25,62.3
208607,2018-06-29 10:33:30.968750,-101.99,62.3
208608,2018-06-29 10:33:31.000000,-64.94,62.3
208609,2018-06-29 10:33:31.031250,-56.13,62.3
208610,2018-06-29 10:33:31.062500,-73.11,62.3
208611,2018-06-29 10:33:31.093750,-108.73,62.3
208612,2018-06-29 10:33:31.125000,-149.76,62.3
208613,2018-06-29 10:33:31.156250,-171.96,62.3
208614,2018-06-29 10:33:31.187500,-158.42,62.3
208615,2018-06-29 10:33:31.218750,-116.54,62.3
208616,2018-06-29 10:33:31.250000,-67.19,62.3
208617,2018-06-29 10:33:31.281250,-27.78,62.3
208618,2018-06-29 10:33:31.312500,-8.66,62.3
208619,2018-06-29 10:33:31.343750,-11.07,62.3
208620,2018-06-29 10:33:31.375000,-23.95,62.3
208621,2018-06-29 10:33:31.406250,-32.5,62.3
208622,2018-06-29 10:33:31.437500,-31.47,62.3
208623,2018-06-29 10:33:31.468750,-25.65,62.3
208624,2018-06-29 10:33:31.500000,-20.72,62.3
208625,2018-06-29 10:33:31.531250,-19.15,62.57
208626,2018-06-29 10:33:31.562500,-22.32,62.57
208627,2018-06-29 10:33:31.593750,-30.2,62.57
208628,2018-06-29 10:33:31.625000,-40.02,62.57
208629,2018-06-29 10:33:31.656250,-48.59,62.57
208630,2018-06-29 10:33:31.687500,-53.31,62.57
208631,2018-06-29 10:33:31.718750,-50.15,62.57
208632,2018-06-29 10:33:31.750000,-36.46,62.57
208633,2018-06-29 10:33:31.781250,-17.46,62.57
208634,2018-06-29 10:33:31.812500,-2.93,62.57
208635,2018-06-29 10:33:31.843750,5.24,62.57
208636,2018-06-29 10:33:31.875000,15.27,62.57
208637,2018-06-29 10:33:31.906250,34.99,62.57
208638,2018-06-29 10:33:31.937500,62.43,62.57
208639,2018-06-29 10:33:31.968750,86.15,62.57
208640,2018-06-29 10:33:32.000000,95.62,62.57
208641,2018-06-29 10:33:32.031250,91.68,62.57
208642,2018-06-29 10:33:32.062500,83.76,62.57
208643,2018-06-29 10:33:32.093750,79.01,62.57
208644,2018-06-29 10:33:32.125000,78.9,62.57
208645,2018-06-29 10:33:32.156250,81.19,62.57
208646,2018-06-29 10:33:32.187500,82.35,62.57
208647,2018-06-29 10:33:32.218750,82.11,62.57
208648,2018-06-29 10:33:32.250000,83.49,62.57
208649,2018-06-29 10:33:32.281250,86.94,62.57
208650,2018-06-29 10:33:32.312500,89.06,62.57
208651,2018-06-29 10:33:32.343750,85.76,62.57
208652,2018-06-29 10:33:32.375000,74.33,62.57
208653,2018-06-29 10:33:32.406250,56.33,62.57
208654,2018-06-29 10:33:32.437500,37.4,62.57
208655,2018-06-29 10:33:32.468750,20.27,62.57
208656,2018-06-29 10:33:32.500000,2.31,62.57
208657,2018-06-29 10:33:32.531250,-17.59,62.85
208658,2018-06-29 10:33:32.562500,-36.54,62.85
208659,2018-06-29 10:33:32.593750,-52.61,62.85
208660,2018-06-29 10:33:32.625000,-65.63,62.85
208661,2018-06-29 10:33:32.656250,-75.49,62.85
208662,2018-06-29 10:33:32.687500,-84.58,62.85
208663,2018-06-29 10:33:32.718750,-96.44,62.85
208664,2018-06-29 10:33:32.750000,-109.81,62.85
208665,2018-06-29 10:33:32.781250,-119.76,62.85
208666,2018-06-29 10:33:32.812500,-124.38,62.85
208667,2018-06-29 10:33:32.843750,-124.61,62.85
208668,2018-06-29 10:33:32.875000,-120.58,62.85
208669,2018-06-29 10:33:32.906250,-113.1,62.85
208670,2018-06-29 10:33:32.937500,-104.11,62.85
208671,2018-06-29 10:33:32.968750,-92.14,62.85
208672,2018-06-29 10:33:33.000000,-70.65,62.85
208673,2018-06-29 10:33:33.031250,-36.38,62.85
208674,2018-06-29 10:33:33.062500,3.89,62.85
208675,2018-06-29 10:33:33.093750,40.69,62.85
208676,2018-06-29 10:33:33.125000,73.26,62.85
208677,2018-06-29 10:33:33.156250,105.57,62.85
208678,2018-06-29 10:33:33.187500,134.14,62.85
208679,2018-06-29 10:33:33.218750,151.37,62.85
208680,2018-06-29 10:33:33.250000,159.08,62.85
208681,2018-06-29 10:33:33.281250,165.63,62.85
208682,2018-06-29 10:33:33.312500,169.9,62.85
208683,2018-06-29 10:33:33.343750,159.51,62.85
208684,2018-06-29 10:33:33.375000,124.52,62.85
208685,2018-06-29 10:33:33.406250,67.44,62.85
208686,2018-06-29 10:33:33.437500,5.37,62.85
208687,2018-06-29 10:33:33.468750,-38.08,62.85
208688,2018-06-29 10:33:33.500000,-53.55,62.85
208689,2018-06-29 10:33:33.531250,-53.06,63.27
208690,2018-06-29 10:33:33.562500,-45.84,63.27
208691,2018-06-29 10:33:33.593750,-23.15,63.27
208692,2018-06-29 10:33:33.625000,20.59,63.27
208693,2018-06-29 10:33:33.656250,69.05,63.27
208694,2018-06-29 10:33:33.687500,94.21,63.27
208695,2018-06-29 10:33:33.718750,74.9,63.27
208696,2018-06-29 10:33:33.750000,12.65,63.27
208697,2018-06-29 10:33:33.781250,-59.28,63.27
208698,2018-06-29 10:33:33.812500,-98.59,63.27
208699,2018-06-29 10:33:33.843750,-96.29,63.27
208700,2018-06-29 10:33:33.875000,-82.49,63.27
208701,2018-06-29 10:33:33.906250,-91.13,63.27
208702,2018-06-29 10:33:33.937500,-133.24,63.27
208703,2018-06-29 10:33:33.968750,-197.21,63.27
208704,2018-06-29 10:33:34.000000,-261.1,63.27
208705,2018-06-29 10:33:34.031250,-305.57,63.27
208706,2018-06-29 10:33:34.062500,-321.43,63.27
208707,2018-06-29 10:33:34.093750,-310.72,63.27
208708,2018-06-29 10:33:34.125000,-284.88,63.27
208709,2018-06-29 10:33:34.156250,-256.27,63.27
208710,2018-06-29 10:33:34.187500,-229.33,63.27
208711,2018-06-29 10:33:34.218750,-205.52,63.27
208712,2018-06-29 10:33:34.250000,-188.65,63.27
208713,2018-06-29 10:33:34.281250,-175.81,63.27
208714,2018-06-29 10:33:34.312500,-154.21,63.27
208715,2018-06-29 10:33:34.343750,-115.75,63.27
208716,2018-06-29 10:33:34.375000,-65.86,63.27
208717,2018-06-29 10:33:34.406250,-14.86,63.27
208718,2018-06-29 10:33:34.437500,28.24,63.27
208719,2018-06-29 10:33:34.468750,53.47,63.27
208720,2018-06-29 10:33:34.500000,56.59,63.27
208721,2018-06-29 10:33:34.531250,46.11,63.72
208722,2018-06-29 10:33:34.562500,31.24,63.72
208723,2018-06-29 10:33:34.593750,12.85,63.72
208724,2018-06-29 10:33:34.625000,-2.27,63.72
208725,2018-06-29 10:33:34.656250,4.73,63.72
208726,2018-06-29 10:33:34.687500,44.57,63.72
208727,2018-06-29 10:33:34.718750,109.35,63.72
208728,2018-06-29 10:33:34.750000,185.47,63.72
208729,2018-06-29 10:33:34.781250,261.83,63.72
208730,2018-06-29 10:33:34.812500,324.71,63.72
208731,2018-06-29 10:33:34.843750,358.53,63.72
208732,2018-06-29 10:33:34.875000,356.03,63.72
208733,2018-06-29 10:33:34.906250,323.26,63.72
208734,2018-06-29 10:33:34.937500,273.96,63.72
208735,2018-06-29 10:33:34.968750,220.2,63.72
208736,2018-06-29 10:33:35.000000,168.26,63.72
208737,2018-06-29 10:33:35.031250,121.53,63.72
208738,2018-06-29 10:33:35.062500,83.92,63.72
208739,2018-06-29 10:33:35.093750,62.62,63.72
208740,2018-06-29 10:33:35.125000,67.38,63.72
208741,2018-06-29 10:33:35.156250,99.72,63.72
208742,2018-06-29 10:33:35.187500,141.87,63.72
208743,2018-06-29 10:33:35.218750,167.31,63.72
208744,2018-06-29 10:33:35.250000,162.97,63.72
208745,2018-06-29 10:33:35.281250,133.39,63.72
208746,2018-06-29 10:33:35.312500,89.64,63.72
208747,2018-06-29 10:33:35.343750,43.7,63.72
208748,2018-06-29 10:33:35.375000,7.5,63.72
208749,2018-06-29 10:33:35.406250,-12.12,63.72
208750,2018-06-29 10:33:35.437500,-17.08,63.72
208751,2018-06-29 10:33:35.468750,-14.38,63.72
208752,2018-06-29 10:33:35.500000,-9.56,63.72
208753,2018-06-29 10:33:35.531250,-4.65,64.15
208754,2018-06-29 10:33:35.562500,-1.31,64.15
208755,2018-06-29 10:33:35.593750,-1.7,64.15
208756,2018-06-29 10:33:35.625000,-5.45,64.15
208757,2018-06-29 10:33:35.656250,-9.46,64.15
208758,2018-06-29 10:33:35.687500,-11.85,64.15
208759,2018-06-29 10:33:35.718750,-13.82,64.15
208760,2018-06-29 10:33:35.750000,-17.08,64.15
208761,2018-06-29 10:33:35.781250,-21.14,64.15
208762,2018-06-29 10:33:35.812500,-24.61,64.15
208763,2018-06-29 10:33:35.843750,-28.14,64.15
208764,2018-06-29 10:33:35.875000,-33.87,64.15
208765,2018-06-29 10:33:35.906250,-41.74,64.15
208766,2018-06-29 10:33:35.937500,-48.81,64.15
208767,2018-06-29 10:33:35.968750,-53.6,64.15
208768,2018-06-29 10:33:36.000000,-58.36,64.15
208769,2018-06-29 10:33:36.031250,-66.58,64.15
208770,2018-06-29 10:33:36.062500,-78.48,64.15
208771,2018-06-29 10:33:36.093750,-87.09,64.15
208772,2018-06-29 10:33:36.125000,-80.29,64.15
208773,2018-06-29 10:33:36.156250,-53.27,64.15
208774,2018-06-29 10:33:36.187500,-16.95,64.15
208775,2018-06-29 10:33:36.218750,13.02,64.15
208776,2018-06-29 10:33:36.250000,31.42,64.15
208777,2018-06-29 10:33:36.281250,41.53,64.15
208778,2018-06-29 10:33:36.312500,45.19,64.15
208779,2018-06-29 10:33:36.343750,42.21,64.15
208780,2018-06-29 10:33:36.375000,35.56,64.15
208781,2018-06-29 10:33:36.406250,30.65,64.15
208782,2018-06-29 10:33:36.437500,30.19,64.15
208783,2018-06-29 10:33:36.468750,32.86,64.15
208784,2018-06-29 10:33:36.500000,36.7,64.15
208785,2018-06-29 10:33:36.531250,40.48,64.57
208786,2018-06-29 10:33:36.562500,42.29,64.57
208787,2018-06-29 10:33:36.593750,40.35,64.57
208788,2018-06-29 10:33:36.625000,35.49,64.57
208789,2018-06-29 10:33:36.656250,30.13,64.57
208790,2018-06-29 10:33:36.687500,24.84,64.57
208791,2018-06-29 10:33:36.718750,18.11,64.57
208792,2018-06-29 10:33:36.750000,8.95,64.57
208793,2018-06-29 10:33:36.781250,-1.97,64.57
208794,2018-06-29 10:33:36.812500,-13.14,64.57
208795,2018-06-29 10:33:36.843750,-23.79,64.57
208796,2018-06-29 10:33:36.875000,-35.15,64.57
208797,2018-06-29 10:33:36.906250,-49.74,64.57
208798,2018-06-29 10:33:36.937500,-68.24,64.57
208799,2018-06-29 10:33:36.968750,-86.65,64.57
208800,2018-06-29 10:33:37.000000,-96.28,64.57
208801,2018-06-29 10:33:37.031250,-90.54,64.57
208802,2018-06-29 10:33:37.062500,-72.81,64.57
208803,2018-06-29 10:33:37.093750,-55.18,64.57
208804,2018-06-29 10:33:37.125000,-48.56,64.57
208805,2018-06-29 10:33:37.156250,-55.9,64.57
208806,2018-06-29 10:33:37.187500,-71.27,64.57
208807,2018-06-29 10:33:37.218750,-81.77,64.57
208808,2018-06-29 10:33:37.250000,-75.22,64.57
208809,2018-06-29 10:33:37.281250,-50.69,64.57
208810,2018-06-29 10:33:37.312500,-18.53,64.57
208811,2018-06-29 10:33:37.343750,10.44,64.57
208812,2018-06-29 10:33:37.375000,32.76,64.57
208813,2018-06-29 10:33:37.406250,49.32,64.57
208814,2018-06-29 10:33:37.437500,60.47,64.57
208815,2018-06-29 10:33:37.468750,65.46,64.57
208816,2018-06-29 10:33:37.500000,63.69,64.57
208817,2018-06-29 10:33:37.531250,55.52,64.95
208818,2018-06-29 10:33:37.562500,42.79,64.95
208819,2018-06-29 10:33:37.593750,27.88,64.95
208820,2018-06-29 10:33:37.625000,11.6,64.95
208821,2018-06-29 10:33:37.656250,-5.81,64.95
208822,2018-06-29 10:33:37.687500,-22.63,64.95
208823,2018-06-29 10:33:37.718750,-36.94,64.95
208824,2018-06-29 10:33:37.750000,-49.31,64.95
208825,2018-06-29 10:33:37.781250,-62.6,64.95
208826,2018-06-29 10:33:37.812500,-78.98,64.95
208827,2018-06-29 10:33:37.843750,-94.29,64.95
208828,2018-06-29 10:33:37.875000,-96.9,64.95
208829,2018-06-29 10:33:37.906250,-78.93,64.95
208830,2018-06-29 10:33:37.937500,-47.26,64.95
208831,2018-06-29 10:33:37.968750,-16.02,64.95
208832,2018-06-29 10:33:38.000000,8.0,64.95
208833,2018-06-29 10:33:38.031250,25.43,64.95
208834,2018-06-29 10:33:38.062500,35.86,64.95
208835,2018-06-29 10:33:38.093750,38.55,64.95
208836,2018-06-29 10:33:38.125000,36.97,64.95
208837,2018-06-29 10:33:38.156250,36.33,64.95
208838,2018-06-29 10:33:38.187500,38.36,64.95
208839,2018-06-29 10:33:38.218750,41.48,64.95
208840,2018-06-29 10:33:38.250000,44.34,64.95
208841,2018-06-29 10:33:38.281250,46.99,64.95
208842,2018-06-29 10:33:38.312500,48.22,64.95
208843,2018-06-29 10:33:38.343750,44.8,64.95
208844,2018-06-29 10:33:38.375000,35.81,64.95
208845,2018-06-29 10:33:38.406250,24.89,64.95
208846,2018-06-29 10:33:38.437500,14.8,64.95
208847,2018-06-29 10:33:38.468750,3.65,64.95
208848,2018-06-29 10:33:38.500000,-10.38,64.95
208849,2018-06-29 10:33:38.531250,-24.9,65.38
208850,2018-06-29 10:33:38.562500,-36.78,65.38
208851,2018-06-29 10:33:38.593750,-46.86,65.38
208852,2018-06-29 10:33:38.625000,-59.1,65.38
208853,2018-06-29 10:33:38.656250,-76.19,65.38
208854,2018-06-29 10:33:38.687500,-94.39,65.38
208855,2018-06-29 10:33:38.718750,-101.78,65.38
208856,2018-06-29 10:33:38.750000,-87.42,65.38
208857,2018-06-29 10:33:38.781250,-53.98,65.38
208858,2018-06-29 10:33:38.812500,-15.55,65.38
208859,2018-06-29 10:33:38.843750,16.86,65.38
208860,2018-06-29 10:33:38.875000,41.42,65.38
208861,2018-06-29 10:33:38.906250,59.59,65.38
208862,2018-06-29 10:33:38.937500,71.01,65.38
208863,2018-06-29 10:33:38.968750,75.16,65.38
208864,2018-06-29 10:33:39.000000,74.37,65.38
208865,2018-06-29 10:33:39.031250,73.02,65.38
208866,2018-06-29 10:33:39.062500,73.54,65.38
208867,2018-06-29 10:33:39.093750,75.32,65.38
208868,2018-06-29 10:33:39.125000,76.34,65.38
208869,2018-06-29 10:33:39.156250,74.07,65.38
208870,2018-06-29 10:33:39.187500,66.57,65.38
208871,2018-06-29 10:33:39.218750,54.43,65.38
208872,2018-06-29 10:33:39.250000,40.19,65.38
208873,2018-06-29 10:33:39.281250,25.1,65.38
208874,2018-06-29 10:33:39.312500,8.57,65.38
208875,2018-06-29 10:33:39.343750,-9.43,65.38
208876,2018-06-29 10:33:39.375000,-29.28,65.38
208877,2018-06-29 10:33:39.406250,-54.61,65.38
208878,2018-06-29 10:33:39.437500,-89.82,65.38
208879,2018-06-29 10:33:39.468750,-133.77,65.38
208880,2018-06-29 10:33:39.500000,-179.19,65.38
208881,2018-06-29 10:33:39.531250,-216.83,65.9
208882,2018-06-29 10:33:39.562500,-238.64,65.9
208883,2018-06-29 10:33:39.593750,-239.23,65.9
208884,2018-06-29 10:33:39.625000,-214.33,65.9
208885,2018-06-29 10:33:39.656250,-159.54,65.9
208886,2018-06-29 10:33:39.687500,-77.86,65.9
208887,2018-06-29 10:33:39.718750,13.45,65.9
208888,2018-06-29 10:33:39.750000,93.06,65.9
208889,2018-06-29 10:33:39.781250,151.35,65.9
208890,2018-06-29 10:33:39.812500,190.12,65.9
208891,2018-06-29 10:33:39.843750,211.76,65.9
208892,2018-06-29 10:33:39.875000,215.47,65.9
208893,2018-06-29 10:33:39.906250,201.42,65.9
208894,2018-06-29 10:33:39.937500,174.25,65.9
208895,2018-06-29 10:33:39.968750,140.79,65.9
208896,2018-06-29 10:33:40.000000,106.38,65.9
208897,2018-06-29 10:33:40.031250,75.05,65.9
208898,2018-06-29 10:33:40.062500,51.18,65.9
208899,2018-06-29 10:33:40.093750,37.83,65.9
208900,2018-06-29 10:33:40.125000,35.35,65.9
208901,2018-06-29 10:33:40.156250,42.04,65.9
208902,2018-06-29 10:33:40.187500,54.18,65.9
208903,2018-06-29 10:33:40.218750,67.52,65.9
208904,2018-06-29 10:33:40.250000,80.54,65.9
208905,2018-06-29 10:33:40.281250,91.89,65.9
208906,2018-06-29 10:33:40.312500,94.26,65.9
208907,2018-06-29 10:33:40.343750,77.26,65.9
208908,2018-06-29 10:33:40.375000,40.23,65.9
208909,2018-06-29 10:33:40.406250,-4.27,65.9
208910,2018-06-29 10:33:40.437500,-42.21,65.9
208911,2018-06-29 10:33:40.468750,-65.48,65.9
208912,2018-06-29 10:33:40.500000,-71.28,65.9
208913,2018-06-29 10:33:40.531250,-60.48,66.43
208914,2018-06-29 10:33:40.562500,-39.94,66.43
208915,2018-06-29 10:33:40.593750,-19.83,66.43
208916,2018-06-29 10:33:40.625000,-10.65,66.43
208917,2018-06-29 10:33:40.656250,-18.65,66.43
208918,2018-06-29 10:33:40.687500,-36.82,66.43
208919,2018-06-29 10:33:40.718750,-47.33,66.43
208920,2018-06-29 10:33:40.750000,-35.4,66.43
208921,2018-06-29 10:33:40.781250,-9.61,66.43
208922,2018-06-29 10:33:40.812500,15.02,66.43
208923,2018-06-29 10:33:40.843750,33.17,66.43
208924,2018-06-29 10:33:40.875000,53.69,66.43
208925,2018-06-29 10:33:40.906250,79.61,66.43
208926,2018-06-29 10:33:40.937500,99.89,66.43
208927,2018-06-29 10:33:40.968750,111.02,66.43
208928,2018-06-29 10:33:41.000000,118.44,66.43
208929,2018-06-29 10:33:41.031250,139.2,66.43
208930,2018-06-29 10:33:41.062500,164.56,66.43
208931,2018-06-29 10:33:41.093750,181.42,66.43
208932,2018-06-29 10:33:41.125000,183.05,66.43
208933,2018-06-29 10:33:41.156250,179.42,66.43
208934,2018-06-29 10:33:41.187500,173.73,66.43
208935,2018-06-29 10:33:41.218750,152.46,66.43
208936,2018-06-29 10:33:41.250000,129.17,66.43
208937,2018-06-29 10:33:41.281250,40.66,66.43
208938,2018-06-29 10:33:41.312500,-109.77,66.43
208939,2018-06-29 10:33:41.343750,-209.91,66.43
208940,2018-06-29 10:33:41.375000,-234.87,66.43
208941,2018-06-29 10:33:41.406250,-206.97,66.43
208942,2018-06-29 10:33:41.437500,-146.61,66.43
208943,2018-06-29 10:33:41.468750,-70.67,66.43
208944,2018-06-29 10:33:41.500000,-7.88,66.43
208945,2018-06-29 10:33:41.531250,32.7,67.0
208946,2018-06-29 10:33:41.562500,57.24,67.0
208947,2018-06-29 10:33:41.593750,85.98,67.0
208948,2018-06-29 10:33:41.625000,115.35,67.0
208949,2018-06-29 10:33:41.656250,132.39,67.0
208950,2018-06-29 10:33:41.687500,124.35,67.0
208951,2018-06-29 10:33:41.718750,95.78,67.0
208952,2018-06-29 10:33:41.750000,65.54,67.0
208953,2018-06-29 10:33:41.781250,44.01,67.0
208954,2018-06-29 10:33:41.812500,31.26,67.0
208955,2018-06-29 10:33:41.843750,17.99,67.0
208956,2018-06-29 10:33:41.875000,2.43,67.0
208957,2018-06-29 10:33:41.906250,-17.46,67.0
208958,2018-06-29 10:33:41.937500,-45.32,67.0
208959,2018-06-29 10:33:41.968750,-82.28,67.0
208960,2018-06-29 10:33:42.000000,-116.59,67.0
208961,2018-06-29 10:33:42.031250,-129.01,67.0
208962,2018-06-29 10:33:42.062500,-115.51,67.0
208963,2018-06-29 10:33:42.093750,-89.99,67.0
208964,2018-06-29 10:33:42.125000,-65.89,67.0
208965,2018-06-29 10:33:42.156250,-45.43,67.0
208966,2018-06-29 10:33:42.187500,-29.19,67.0
208967,2018-06-29 10:33:42.218750,-19.93,67.0
208968,2018-06-29 10:33:42.250000,-15.04,67.0
208969,2018-06-29 10:33:42.281250,-10.51,67.0
208970,2018-06-29 10:33:42.312500,-11.78,67.0
208971,2018-06-29 10:33:42.343750,-26.77,67.0
208972,2018-06-29 10:33:42.375000,-52.11,67.0
208973,2018-06-29 10:33:42.406250,-78.59,67.0
208974,2018-06-29 10:33:42.437500,-103.93,67.0
208975,2018-06-29 10:33:42.468750,-131.08,67.0
208976,2018-06-29 10:33:42.500000,-159.41,67.0
208977,2018-06-29 10:33:42.531250,-181.66,67.58
208978,2018-06-29 10:33:42.562500,-184.81,67.58
208979,2018-06-29 10:33:42.593750,-157.86,67.58
208980,2018-06-29 10:33:42.625000,-107.24,67.58
208981,2018-06-29 10:33:42.656250,-57.11,67.58
208982,2018-06-29 10:33:42.687500,-25.94,67.58
208983,2018-06-29 10:33:42.718750,-12.05,67.58
208984,2018-06-29 10:33:42.750000,-8.05,67.58
208985,2018-06-29 10:33:42.781250,-13.99,67.58
208986,2018-06-29 10:33:42.812500,-29.29,67.58
208987,2018-06-29 10:33:42.843750,-45.72,67.58
208988,2018-06-29 10:33:42.875000,-54.89,67.58
208989,2018-06-29 10:33:42.906250,-54.86,67.58
208990,2018-06-29 10:33:42.937500,-47.82,67.58
208991,2018-06-29 10:33:42.968750,-36.96,67.58
208992,2018-06-29 10:33:43.000000,-28.71,67.58
208993,2018-06-29 10:33:43.031250,-32.19,67.58
208994,2018-06-29 10:33:43.062500,-49.99,67.58
208995,2018-06-29 10:33:43.093750,-73.75,67.58
208996,2018-06-29 10:33:43.125000,-94.72,67.58
208997,2018-06-29 10:33:43.156250,-114.07,67.58
208998,2018-06-29 10:33:43.187500,-141.19,67.58
208999,2018-06-29 10:33:43.218750,-182.96,67.58
209000,2018-06-29 10:33:43.250000,-226.83,67.58
209001,2018-06-29 10:33:43.281250,-242.63,67.58
209002,2018-06-29 10:33:43.312500,-215.44,67.58
209003,2018-06-29 10:33:43.343750,-162.3,67.58
209004,2018-06-29 10:33:43.375000,-104.75,67.58
209005,2018-06-29 10:33:43.406250,-49.22,67.58
209006,2018-06-29 10:33:43.437500,-1.67,67.58
209007,2018-06-29 10:33:43.468750,29.13,67.58
209008,2018-06-29 10:33:43.500000,47.09,67.58
209009,2018-06-29 10:33:43.531250,62.71,68.17
209010,2018-06-29 10:33:43.562500,75.06,68.17
209011,2018-06-29 10:33:43.593750,76.52,68.17
209012,2018-06-29 10:33:43.625000,63.13,68.17
209013,2018-06-29 10:33:43.656250,34.86,68.17
209014,2018-06-29 10:33:43.687500,-2.51,68.17
209015,2018-06-29 10:33:43.718750,-32.8,68.17
209016,2018-06-29 10:33:43.750000,-45.52,68.17
209017,2018-06-29 10:33:43.781250,-51.37,68.17
209018,2018-06-29 10:33:43.812500,-62.84,68.17
209019,2018-06-29 10:33:43.843750,-73.86,68.17
209020,2018-06-29 10:33:43.875000,-68.42,68.17
209021,2018-06-29 10:33:43.906250,-45.0,68.17
209022,2018-06-29 10:33:43.937500,-10.57,68.17
209023,2018-06-29 10:33:43.968750,33.31,68.17
209024,2018-06-29 10:33:44.000000,88.1,68.17
209025,2018-06-29 10:33:44.031250,149.45,68.17
209026,2018-06-29 10:33:44.062500,206.1,68.17
209027,2018-06-29 10:33:44.093750,248.11,68.17
209028,2018-06-29 10:33:44.125000,239.66,68.17
209029,2018-06-29 10:33:44.156250,169.57,68.17
209030,2018-06-29 10:33:44.187500,79.41,68.17
209031,2018-06-29 10:33:44.218750,-11.02,68.17
209032,2018-06-29 10:33:44.250000,-103.74,68.17
209033,2018-06-29 10:33:44.281250,-191.28,68.17
209034,2018-06-29 10:33:44.312500,-262.53,68.17
209035,2018-06-29 10:33:44.343750,-292.27,68.17
209036,2018-06-29 10:33:44.375000,-272.53,68.17
209037,2018-06-29 10:33:44.406250,-211.71,68.17
209038,2018-06-29 10:33:44.437500,-127.15,68.17
209039,2018-06-29 10:33:44.468750,-36.48,68.17
209040,2018-06-29 10:33:44.500000,46.89,68.17
209041,2018-06-29 10:33:44.531250,114.01,68.77
209042,2018-06-29 10:33:44.562500,160.09,68.77
209043,2018-06-29 10:33:44.593750,187.73,68.77
209044,2018-06-29 10:33:44.625000,199.66,68.77
209045,2018-06-29 10:33:44.656250,197.83,68.77
209046,2018-06-29 10:33:44.687500,187.55,68.77
209047,2018-06-29 10:33:44.718750,178.26,68.77
209048,2018-06-29 10:33:44.750000,178.05,68.77
209049,2018-06-29 10:33:44.781250,186.92,68.77
209050,2018-06-29 10:33:44.812500,198.96,68.77
209051,2018-06-29 10:33:44.843750,208.72,68.77
209052,2018-06-29 10:33:44.875000,215.63,68.77
209053,2018-06-29 10:33:44.906250,218.84,68.77
209054,2018-06-29 10:33:44.937500,214.74,68.77
209055,2018-06-29 10:33:44.968750,201.73,68.77
209056,2018-06-29 10:33:45.000000,182.17,68.77
209057,2018-06-29 10:33:45.031250,158.79,68.77
209058,2018-06-29 10:33:45.062500,131.87,68.77
209059,2018-06-29 10:33:45.093750,102.09,68.77
209060,2018-06-29 10:33:45.125000,71.74,68.77
209061,2018-06-29 10:33:45.156250,42.84,68.77
209062,2018-06-29 10:33:45.187500,16.35,68.77
209063,2018-06-29 10:33:45.218750,-7.54,68.77
209064,2018-06-29 10:33:45.250000,-31.04,68.77
209065,2018-06-29 10:33:45.281250,-58.21,68.77
209066,2018-06-29 10:33:45.312500,-89.57,68.77
209067,2018-06-29 10:33:45.343750,-121.71,68.77
209068,2018-06-29 10:33:45.375000,-155.29,68.77
209069,2018-06-29 10:33:45.406250,-194.55,68.77
209070,2018-06-29 10:33:45.437500,-233.69,68.77
209071,2018-06-29 10:33:45.468750,-253.68,68.77
209072,2018-06-29 10:33:45.500000,-240.82,68.77
209073,2018-06-29 10:33:45.531250,-201.25,69.37
209074,2018-06-29 10:33:45.562500,-150.33,69.37
209075,2018-06-29 10:33:45.593750,-96.84,69.37
209076,2018-06-29 10:33:45.625000,-44.82,69.37
209077,2018-06-29 10:33:45.656250,-0.16,69.37
209078,2018-06-29 10:33:45.687500,33.88,69.37
209079,2018-06-29 10:33:45.718750,60.11,69.37
209080,2018-06-29 10:33:45.750000,81.94,69.37
209081,2018-06-29 10:33:45.781250,99.83,69.37
209082,2018-06-29 10:33:45.812500,113.49,69.37
209083,2018-06-29 10:33:45.843750,123.32,69.37
209084,2018-06-29 10:33:45.875000,129.66,69.37
209085,2018-06-29 10:33:45.906250,131.5,69.37
209086,2018-06-29 10:33:45.937500,125.96,69.37
209087,2018-06-29 10:33:45.968750,111.8,69.37
209088,2018-06-29 10:33:46.000000,92.87,69.37
209089,2018-06-29 10:33:46.031250,74.63,69.37
209090,2018-06-29 10:33:46.062500,59.19,69.37
209091,2018-06-29 10:33:46.093750,45.0,69.37
209092,2018-06-29 10:33:46.125000,32.02,69.37
209093,2018-06-29 10:33:46.156250,22.96,69.37
209094,2018-06-29 10:33:46.187500,19.37,69.37
209095,2018-06-29 10:33:46.218750,18.62,69.37
209096,2018-06-29 10:33:46.250000,16.74,69.37
209097,2018-06-29 10:33:46.281250,13.27,69.37
209098,2018-06-29 10:33:46.312500,8.51,69.37
209099,2018-06-29 10:33:46.343750,0.06,69.37
209100,2018-06-29 10:33:46.375000,-17.52,69.37
209101,2018-06-29 10:33:46.406250,-42.37,69.37
209102,2018-06-29 10:33:46.437500,-64.23,69.37
209103,2018-06-29 10:33:46.468750,-71.25,69.37
209104,2018-06-29 10:33:46.500000,-61.19,69.37
209105,2018-06-29 10:33:46.531250,-43.44,69.97
209106,2018-06-29 10:33:46.562500,-25.96,69.97
209107,2018-06-29 10:33:46.593750,-13.85,69.97
209108,2018-06-29 10:33:46.625000,-6.13,69.97
209109,2018-06-29 10:33:46.656250,-7.16,69.97
209110,2018-06-29 10:33:46.687500,-14.86,69.97
209111,2018-06-29 10:33:46.718750,-25.23,69.97
209112,2018-06-29 10:33:46.750000,-38.78,69.97
209113,2018-06-29 10:33:46.781250,-63.2,69.97
209114,2018-06-29 10:33:46.812500,-106.56,69.97
209115,2018-06-29 10:33:46.843750,-159.26,69.97
209116,2018-06-29 10:33:46.875000,-213.52,69.97
209117,2018-06-29 10:33:46.906250,-219.5,69.97
209118,2018-06-29 10:33:46.937500,-142.41,69.97
209119,2018-06-29 10:33:46.968750,-38.9,69.97
209120,2018-06-29 10:33:47.000000,63.91,69.97
209121,2018-06-29 10:33:47.031250,147.06,69.97
209122,2018-06-29 10:33:47.062500,188.39,69.97
209123,2018-06-29 10:33:47.093750,184.66,69.97
209124,2018-06-29 10:33:47.125000,169.27,69.97
209125,2018-06-29 10:33:47.156250,166.12,69.97
209126,2018-06-29 10:33:47.187500,167.37,69.97
209127,2018-06-29 10:33:47.218750,151.8,69.97
209128,2018-06-29 10:33:47.250000,117.53,69.97
209129,2018-06-29 10:33:47.281250,73.97,69.97
209130,2018-06-29 10:33:47.312500,28.31,69.97
209131,2018-06-29 10:33:47.343750,-11.26,69.97
209132,2018-06-29 10:33:47.375000,-34.33,69.97
209133,2018-06-29 10:33:47.406250,-29.28,69.97
209134,2018-06-29 10:33:47.437500,1.66,69.97
209135,2018-06-29 10:33:47.468750,39.07,69.97
209136,2018-06-29 10:33:47.500000,47.5,69.97
209137,2018-06-29 10:33:47.531250,4.54,70.55
209138,2018-06-29 10:33:47.562500,-69.2,70.55
209139,2018-06-29 10:33:47.593750,-126.46,70.55
209140,2018-06-29 10:33:47.625000,-138.5,70.55
209141,2018-06-29 10:33:47.656250,-111.24,70.55
209142,2018-06-29 10:33:47.687500,-63.82,70.55
209143,2018-06-29 10:33:47.718750,-16.79,70.55
209144,2018-06-29 10:33:47.750000,9.84,70.55
209145,2018-06-29 10:33:47.781250,6.26,70.55
209146,2018-06-29 10:33:47.812500,-18.9,70.55
209147,2018-06-29 10:33:47.843750,-46.55,70.55
209148,2018-06-29 10:33:47.875000,-63.34,70.55
209149,2018-06-29 10:33:47.906250,-67.39,70.55
209150,2018-06-29 10:33:47.937500,-63.17,70.55
209151,2018-06-29 10:33:47.968750,-56.23,70.55
209152,2018-06-29 10:33:48.000000,-52.35,70.55
209153,2018-06-29 10:33:48.031250,-55.54,70.55
209154,2018-06-29 10:33:48.062500,-64.08,70.55
209155,2018-06-29 10:33:48.093750,-72.19,70.55
209156,2018-06-29 10:33:48.125000,-77.33,70.55
209157,2018-06-29 10:33:48.156250,-80.32,70.55
209158,2018-06-29 10:33:48.187500,-77.17,70.55
209159,2018-06-29 10:33:48.218750,-60.69,70.55
209160,2018-06-29 10:33:48.250000,-32.87,70.55
209161,2018-06-29 10:33:48.281250,-6.0,70.55
209162,2018-06-29 10:33:48.312500,11.08,70.55
209163,2018-06-29 10:33:48.343750,19.75,70.55
209164,2018-06-29 10:33:48.375000,24.54,70.55
209165,2018-06-29 10:33:48.406250,27.17,70.55
209166,2018-06-29 10:33:48.437500,28.36,70.55
209167,2018-06-29 10:33:48.468750,29.5,70.55
209168,2018-06-29 10:33:48.500000,31.3,70.55
209169,2018-06-29 10:33:48.531250,33.04,71.12
209170,2018-06-29 10:33:48.562500,34.3,71.12
209171,2018-06-29 10:33:48.593750,34.97,71.12
209172,2018-06-29 10:33:48.625000,33.84,71.12
209173,2018-06-29 10:33:48.656250,29.65,71.12
209174,2018-06-29 10:33:48.687500,23.22,71.12
209175,2018-06-29 10:33:48.718750,16.63,71.12
209176,2018-06-29 10:33:48.750000,10.97,71.12
209177,2018-06-29 10:33:48.781250,5.85,71.12
209178,2018-06-29 10:33:48.812500,0.02,71.12
209179,2018-06-29 10:33:48.843750,-7.51,71.12
209180,2018-06-29 10:33:48.875000,-16.29,71.12
209181,2018-06-29 10:33:48.906250,-24.73,71.12
209182,2018-06-29 10:33:48.937500,-32.16,71.12
209183,2018-06-29 10:33:48.968750,-39.6,71.12
209184,2018-06-29 10:33:49.000000,-48.53,71.12
209185,2018-06-29 10:33:49.031250,-59.52,71.12
209186,2018-06-29 10:33:49.062500,-69.26,71.12
209187,2018-06-29 10:33:49.093750,-68.25,71.12
209188,2018-06-29 10:33:49.125000,-48.85,71.12
209189,2018-06-29 10:33:49.156250,-16.95,71.12
209190,2018-06-29 10:33:49.187500,13.0,71.12
209191,2018-06-29 10:33:49.218750,33.75,71.12
209192,2018-06-29 10:33:49.250000,47.23,71.12
209193,2018-06-29 10:33:49.281250,55.18,71.12
209194,2018-06-29 10:33:49.312500,57.36,71.12
209195,2018-06-29 10:33:49.343750,55.57,71.12
209196,2018-06-29 10:33:49.375000,52.71,71.12
209197,2018-06-29 10:33:49.406250,50.19,71.12
209198,2018-06-29 10:33:49.437500,48.38,71.12
209199,2018-06-29 10:33:49.468750,48.04,71.12
209200,2018-06-29 10:33:49.500000,49.87,71.12
209201,2018-06-29 10:33:49.531250,52.84,71.7
209202,2018-06-29 10:33:49.562500,54.85,71.7
209203,2018-06-29 10:33:49.593750,55.67,71.7
209204,2018-06-29 10:33:49.625000,56.62,71.7
209205,2018-06-29 10:33:49.656250,56.79,71.7
209206,2018-06-29 10:33:49.687500,52.39,71.7
209207,2018-06-29 10:33:49.718750,41.47,71.7
209208,2018-06-29 10:33:49.750000,27.59,71.7
209209,2018-06-29 10:33:49.781250,17.2,71.7
209210,2018-06-29 10:33:49.812500,13.39,71.7
209211,2018-06-29 10:33:49.843750,14.51,71.7
209212,2018-06-29 10:33:49.875000,18.85,71.7
209213,2018-06-29 10:33:49.906250,25.14,71.7
209214,2018-06-29 10:33:49.937500,27.27,71.7
209215,2018-06-29 10:33:49.968750,14.84,71.7
209216,2018-06-29 10:33:50.000000,-15.52,71.7
209217,2018-06-29 10:33:50.031250,-49.06,71.7
209218,2018-06-29 10:33:50.062500,-59.62,71.7
209219,2018-06-29 10:33:50.093750,-34.5,71.7
209220,2018-06-29 10:33:50.125000,10.33,71.7
209221,2018-06-29 10:33:50.156250,46.74,71.7
209222,2018-06-29 10:33:50.187500,61.06,71.7
209223,2018-06-29 10:33:50.218750,57.93,71.7
209224,2018-06-29 10:33:50.250000,46.19,71.7
209225,2018-06-29 10:33:50.281250,31.82,71.7
209226,2018-06-29 10:33:50.312500,19.83,71.7
209227,2018-06-29 10:33:50.343750,12.62,71.7
209228,2018-06-29 10:33:50.375000,7.07,71.7
209229,2018-06-29 10:33:50.406250,-1.38,71.7
209230,2018-06-29 10:33:50.437500,-11.96,71.7
209231,2018-06-29 10:33:50.468750,-20.15,71.7
209232,2018-06-29 10:33:50.500000,-25.39,71.7
209233,2018-06-29 10:33:50.531250,-31.69,72.28
209234,2018-06-29 10:33:50.562500,-40.36,72.28
209235,2018-06-29 10:33:50.593750,-48.49,72.28
209236,2018-06-29 10:33:50.625000,-55.07,72.28
209237,2018-06-29 10:33:50.656250,-61.9,72.28
209238,2018-06-29 10:33:50.687500,-68.14,72.28
209239,2018-06-29 10:33:50.718750,-70.44,72.28
209240,2018-06-29 10:33:50.750000,-68.23,72.28
209241,2018-06-29 10:33:50.781250,-65.09,72.28
209242,2018-06-29 10:33:50.812500,-65.76,72.28
209243,2018-06-29 10:33:50.843750,-71.11,72.28
209244,2018-06-29 10:33:50.875000,-72.34,72.28
209245,2018-06-29 10:33:50.906250,-55.89,72.28
209246,2018-06-29 10:33:50.937500,-22.29,72.28
209247,2018-06-29 10:33:50.968750,10.12,72.28
209248,2018-06-29 10:33:51.000000,28.48,72.28
209249,2018-06-29 10:33:51.031250,38.11,72.28
209250,2018-06-29 10:33:51.062500,46.21,72.28
209251,2018-06-29 10:33:51.093750,50.23,72.28
209252,2018-06-29 10:33:51.125000,48.09,72.28
209253,2018-06-29 10:33:51.156250,44.13,72.28
209254,2018-06-29 10:33:51.187500,41.33,72.28
209255,2018-06-29 10:33:51.218750,38.01,72.28
209256,2018-06-29 10:33:51.250000,32.27,72.28
209257,2018-06-29 10:33:51.281250,23.92,72.28
209258,2018-06-29 10:33:51.312500,13.41,72.28
209259,2018-06-29 10:33:51.343750,2.03,72.28
209260,2018-06-29 10:33:51.375000,-8.6,72.28
209261,2018-06-29 10:33:51.406250,-17.96,72.28
209262,2018-06-29 10:33:51.437500,-25.86,72.28
209263,2018-06-29 10:33:51.468750,-32.14,72.28
209264,2018-06-29 10:33:51.500000,-39.25,72.28
209265,2018-06-29 10:33:51.531250,-50.66,72.87
209266,2018-06-29 10:33:51.562500,-63.86,72.87
209267,2018-06-29 10:33:51.593750,-70.95,72.87
209268,2018-06-29 10:33:51.625000,-69.87,72.87
209269,2018-06-29 10:33:51.656250,-68.99,72.87
209270,2018-06-29 10:33:51.687500,-77.06,72.87
209271,2018-06-29 10:33:51.718750,-94.85,72.87
209272,2018-06-29 10:33:51.750000,-113.99,72.87
209273,2018-06-29 10:33:51.781250,-117.15,72.87
209274,2018-06-29 10:33:51.812500,-90.79,72.87
209275,2018-06-29 10:33:51.843750,-45.09,72.87
209276,2018-06-29 10:33:51.875000,-6.43,72.87
209277,2018-06-29 10:33:51.906250,12.75,72.87
209278,2018-06-29 10:33:51.937500,20.22,72.87
209279,2018-06-29 10:33:51.968750,24.5,72.87
209280,2018-06-29 10:33:52.000000,26.95,72.87
209281,2018-06-29 10:33:52.031250,29.09,72.87
209282,2018-06-29 10:33:52.062500,34.1,72.87
209283,2018-06-29 10:33:52.093750,41.99,72.87
209284,2018-06-29 10:33:52.125000,49.22,72.87
209285,2018-06-29 10:33:52.156250,53.49,72.87
209286,2018-06-29 10:33:52.187500,55.49,72.87
209287,2018-06-29 10:33:52.218750,54.96,72.87
209288,2018-06-29 10:33:52.250000,48.71,72.87
209289,2018-06-29 10:33:52.281250,35.59,72.87
209290,2018-06-29 10:33:52.312500,20.39,72.87
209291,2018-06-29 10:33:52.343750,8.87,72.87
209292,2018-06-29 10:33:52.375000,0.81,72.87
209293,2018-06-29 10:33:52.406250,-7.57,72.87
209294,2018-06-29 10:33:52.437500,-16.18,72.87
209295,2018-06-29 10:33:52.468750,-21.63,72.87
209296,2018-06-29 10:33:52.500000,-24.07,72.87
209297,2018-06-29 10:33:52.531250,-28.84,73.4
209298,2018-06-29 10:33:52.562500,-41.26,73.4
209299,2018-06-29 10:33:52.593750,-60.39,73.4
209300,2018-06-29 10:33:52.625000,-74.84,73.4
209301,2018-06-29 10:33:52.656250,-68.69,73.4
209302,2018-06-29 10:33:52.687500,-39.26,73.4
209303,2018-06-29 10:33:52.718750,-2.66,73.4
209304,2018-06-29 10:33:52.750000,24.53,73.4
209305,2018-06-29 10:33:52.781250,40.05,73.4
209306,2018-06-29 10:33:52.812500,48.68,73.4
209307,2018-06-29 10:33:52.843750,52.02,73.4
209308,2018-06-29 10:33:52.875000,50.86,73.4
209309,2018-06-29 10:33:52.906250,48.98,73.4
209310,2018-06-29 10:33:52.937500,50.45,73.4
209311,2018-06-29 10:33:52.968750,55.77,73.4
209312,2018-06-29 10:33:53.000000,62.48,73.4
209313,2018-06-29 10:33:53.031250,68.47,73.4
209314,2018-06-29 10:33:53.062500,72.4,73.4
209315,2018-06-29 10:33:53.093750,71.53,73.4
209316,2018-06-29 10:33:53.125000,63.09,73.4
209317,2018-06-29 10:33:53.156250,48.83,73.4
209318,2018-06-29 10:33:53.187500,35.49,73.4
209319,2018-06-29 10:33:53.218750,28.27,73.4
209320,2018-06-29 10:33:53.250000,25.27,73.4
209321,2018-06-29 10:33:53.281250,20.04,73.4
209322,2018-06-29 10:33:53.312500,9.5,73.4
209323,2018-06-29 10:33:53.343750,-4.28,73.4
209324,2018-06-29 10:33:53.375000,-20.49,73.4
209325,2018-06-29 10:33:53.406250,-42.56,73.4
209326,2018-06-29 10:33:53.437500,-73.44,73.4
209327,2018-06-29 10:33:53.468750,-110.97,73.4
209328,2018-06-29 10:33:53.500000,-143.96,73.4
209329,2018-06-29 10:33:53.531250,-152.32,73.9
209330,2018-06-29 10:33:53.562500,-125.26,73.9
209331,2018-06-29 10:33:53.593750,-80.08,73.9
209332,2018-06-29 10:33:53.625000,-45.81,73.9
209333,2018-06-29 10:33:53.656250,-31.49,73.9
209334,2018-06-29 10:33:53.687500,-27.41,73.9
209335,2018-06-29 10:33:53.718750,-28.06,73.9
209336,2018-06-29 10:33:53.750000,-35.88,73.9
209337,2018-06-29 10:33:53.781250,-49.98,73.9
209338,2018-06-29 10:33:53.812500,-65.24,73.9
209339,2018-06-29 10:33:53.843750,-79.44,73.9
209340,2018-06-29 10:33:53.875000,-93.86,73.9
209341,2018-06-29 10:33:53.906250,-109.6,73.9
209342,2018-06-29 10:33:53.937500,-128.91,73.9
209343,2018-06-29 10:33:53.968750,-153.83,73.9
209344,2018-06-29 10:33:54.000000,-178.4,73.9
209345,2018-06-29 10:33:54.031250,-190.99,73.9
209346,2018-06-29 10:33:54.062500,-189.45,73.9
209347,2018-06-29 10:33:54.093750,-185.54,73.9
209348,2018-06-29 10:33:54.125000,-192.32,73.9
209349,2018-06-29 10:33:54.156250,-212.01,73.9
209350,2018-06-29 10:33:54.187500,-233.22,73.9
209351,2018-06-29 10:33:54.218750,-241.75,73.9
209352,2018-06-29 10:33:54.250000,-239.02,73.9
209353,2018-06-29 10:33:54.281250,-241.4,73.9
209354,2018-06-29 10:33:54.312500,-259.28,73.9
209355,2018-06-29 10:33:54.343750,-286.63,73.9
209356,2018-06-29 10:33:54.375000,-305.07,73.9
209357,2018-06-29 10:33:54.406250,-292.09,73.9
209358,2018-06-29 10:33:54.437500,-238.67,73.9
209359,2018-06-29 10:33:54.468750,-160.93,73.9
209360,2018-06-29 10:33:54.500000,-81.91,73.9
209361,2018-06-29 10:33:54.531250,-9.55,74.37
209362,2018-06-29 10:33:54.562500,57.72,74.37
209363,2018-06-29 10:33:54.593750,118.61,74.37
209364,2018-06-29 10:33:54.625000,170.37,74.37
209365,2018-06-29 10:33:54.656250,211.8,74.37
209366,2018-06-29 10:33:54.687500,241.75,74.37
209367,2018-06-29 10:33:54.718750,259.84,74.37
209368,2018-06-29 10:33:54.750000,269.33,74.37
209369,2018-06-29 10:33:54.781250,277.1,74.37
209370,2018-06-29 10:33:54.812500,287.88,74.37
209371,2018-06-29 10:33:54.843750,296.51,74.37
209372,2018-06-29 10:33:54.875000,290.95,74.37
209373,2018-06-29 10:33:54.906250,266.21,74.37
209374,2018-06-29 10:33:54.937500,229.97,74.37
209375,2018-06-29 10:33:54.968750,192.42,74.37
209376,2018-06-29 10:33:55.000000,157.45,74.37
209377,2018-06-29 10:33:55.031250,123.86,74.37
209378,2018-06-29 10:33:55.062500,87.98,74.37
209379,2018-06-29 10:33:55.093750,47.63,74.37
209380,2018-06-29 10:33:55.125000,10.15,74.37
209381,2018-06-29 10:33:55.156250,-9.22,74.37
209382,2018-06-29 10:33:55.187500,-3.25,74.37
209383,2018-06-29 10:33:55.218750,18.9,74.37
209384,2018-06-29 10:33:55.250000,44.14,74.37
209385,2018-06-29 10:33:55.281250,68.73,74.37
209386,2018-06-29 10:33:55.312500,94.22,74.37
209387,2018-06-29 10:33:55.343750,117.47,74.37
209388,2018-06-29 10:33:55.375000,132.84,74.37
209389,2018-06-29 10:33:55.406250,141.94,74.37
209390,2018-06-29 10:33:55.437500,152.48,74.37
209391,2018-06-29 10:33:55.468750,166.57,74.37
209392,2018-06-29 10:33:55.500000,177.34,74.37
209393,2018-06-29 10:33:55.531250,178.41,74.87
209394,2018-06-29 10:33:55.562500,169.99,74.87
209395,2018-06-29 10:33:55.593750,156.42,74.87
209396,2018-06-29 10:33:55.625000,142.16,74.87
209397,2018-06-29 10:33:55.656250,128.02,74.87
209398,2018-06-29 10:33:55.687500,110.52,74.87
209399,2018-06-29 10:33:55.718750,88.03,74.87
209400,2018-06-29 10:33:55.750000,64.63,74.87
209401,2018-06-29 10:33:55.781250,44.39,74.87
209402,2018-06-29 10:33:55.812500,25.57,74.87
209403,2018-06-29 10:33:55.843750,4.02,74.87
209404,2018-06-29 10:33:55.875000,-19.51,74.87
209405,2018-06-29 10:33:55.906250,-35.83,74.87
209406,2018-06-29 10:33:55.937500,-33.26,74.87
209407,2018-06-29 10:33:55.968750,-9.97,74.87
209408,2018-06-29 10:33:56.000000,22.86,74.87
209409,2018-06-29 10:33:56.031250,52.26,74.87
209410,2018-06-29 10:33:56.062500,73.21,74.87
209411,2018-06-29 10:33:56.093750,86.62,74.87
209412,2018-06-29 10:33:56.125000,93.63,74.87
209413,2018-06-29 10:33:56.156250,95.07,74.87
209414,2018-06-29 10:33:56.187500,93.41,74.87
209415,2018-06-29 10:33:56.218750,91.93,74.87
209416,2018-06-29 10:33:56.250000,91.82,74.87
209417,2018-06-29 10:33:56.281250,92.06,74.87
209418,2018-06-29 10:33:56.312500,91.45,74.87
209419,2018-06-29 10:33:56.343750,88.05,74.87
209420,2018-06-29 10:33:56.375000,79.18,74.87
209421,2018-06-29 10:33:56.406250,64.82,74.87
209422,2018-06-29 10:33:56.437500,48.52,74.87
209423,2018-06-29 10:33:56.468750,32.66,74.87
209424,2018-06-29 10:33:56.500000,16.2,74.87
209425,2018-06-29 10:33:56.531250,-1.87,75.35
209426,2018-06-29 10:33:56.562500,-19.9,75.35
209427,2018-06-29 10:33:56.593750,-34.96,75.35
209428,2018-06-29 10:33:56.625000,-45.81,75.35
209429,2018-06-29 10:33:56.656250,-55.09,75.35
209430,2018-06-29 10:33:56.687500,-66.73,75.35
209431,2018-06-29 10:33:56.718750,-79.58,75.35
209432,2018-06-29 10:33:56.750000,-88.3,75.35
209433,2018-06-29 10:33:56.781250,-92.45,75.35
209434,2018-06-29 10:33:56.812500,-98.26,75.35
209435,2018-06-29 10:33:56.843750,-110.25,75.35
209436,2018-06-29 10:33:56.875000,-123.86,75.35
209437,2018-06-29 10:33:56.906250,-126.1,75.35
209438,2018-06-29 10:33:56.937500,-106.08,75.35
209439,2018-06-29 10:33:56.968750,-67.24,75.35
209440,2018-06-29 10:33:57.000000,-24.57,75.35
209441,2018-06-29 10:33:57.031250,10.81,75.35
209442,2018-06-29 10:33:57.062500,37.3,75.35
209443,2018-06-29 10:33:57.093750,55.73,75.35
209444,2018-06-29 10:33:57.125000,66.09,75.35
209445,2018-06-29 10:33:57.156250,70.12,75.35
209446,2018-06-29 10:33:57.187500,71.57,75.35
209447,2018-06-29 10:33:57.218750,73.17,75.35
209448,2018-06-29 10:33:57.250000,75.08,75.35
209449,2018-06-29 10:33:57.281250,76.42,75.35
209450,2018-06-29 10:33:57.312500,76.86,75.35
209451,2018-06-29 10:33:57.343750,75.22,75.35
209452,2018-06-29 10:33:57.375000,69.11,75.35
209453,2018-06-29 10:33:57.406250,58.54,75.35
209454,2018-06-29 10:33:57.437500,47.03,75.35
209455,2018-06-29 10:33:57.468750,36.79,75.35
209456,2018-06-29 10:33:57.500000,26.26,75.35
209457,2018-06-29 10:33:57.531250,14.7,75.73
209458,2018-06-29 10:33:57.562500,4.36,75.73
209459,2018-06-29 10:33:57.593750,-3.99,75.73
209460,2018-06-29 10:33:57.625000,-12.8,75.73
209461,2018-06-29 10:33:57.656250,-23.46,75.73
209462,2018-06-29 10:33:57.687500,-35.07,75.73
209463,2018-06-29 10:33:57.718750,-47.39,75.73
209464,2018-06-29 10:33:57.750000,-61.36,75.73
209465,2018-06-29 10:33:57.781250,-77.9,75.73
209466,2018-06-29 10:33:57.812500,-96.4,75.73
209467,2018-06-29 10:33:57.843750,-110.84,75.73
209468,2018-06-29 10:33:57.875000,-111.14,75.73
209469,2018-06-29 10:33:57.906250,-93.68,75.73
209470,2018-06-29 10:33:57.937500,-66.32,75.73
209471,2018-06-29 10:33:57.968750,-39.24,75.73
209472,2018-06-29 10:33:58.000000,-16.15,75.73
209473,2018-06-29 10:33:58.031250,3.62,75.73
209474,2018-06-29 10:33:58.062500,19.98,75.73
209475,2018-06-29 10:33:58.093750,30.85,75.73
209476,2018-06-29 10:33:58.125000,35.14,75.73
209477,2018-06-29 10:33:58.156250,35.08,75.73
209478,2018-06-29 10:33:58.187500,33.7,75.73
209479,2018-06-29 10:33:58.218750,31.82,75.73
209480,2018-06-29 10:33:58.250000,29.68,75.73
209481,2018-06-29 10:33:58.281250,27.86,75.73
209482,2018-06-29 10:33:58.312500,25.03,75.73
209483,2018-06-29 10:33:58.343750,18.15,75.73
209484,2018-06-29 10:33:58.375000,6.73,75.73
209485,2018-06-29 10:33:58.406250,-5.52,75.73
209486,2018-06-29 10:33:58.437500,-14.54,75.73
209487,2018-06-29 10:33:58.468750,-19.92,75.73
209488,2018-06-29 10:33:58.500000,-23.66,75.73
209489,2018-06-29 10:33:58.531250,-26.82,76.05
209490,2018-06-29 10:33:58.562500,-29.59,76.05
209491,2018-06-29 10:33:58.593750,-33.52,76.05
209492,2018-06-29 10:33:58.625000,-39.98,76.05
209493,2018-06-29 10:33:58.656250,-47.89,76.05
209494,2018-06-29 10:33:58.687500,-55.67,76.05
209495,2018-06-29 10:33:58.718750,-63.62,76.05
209496,2018-06-29 10:33:58.750000,-72.35,76.05
209497,2018-06-29 10:33:58.781250,-82.05,76.05
209498,2018-06-29 10:33:58.812500,-94.09,76.05
209499,2018-06-29 10:33:58.843750,-106.99,76.05
209500,2018-06-29 10:33:58.875000,-111.29,76.05
209501,2018-06-29 10:33:58.906250,-97.34,76.05
209502,2018-06-29 10:33:58.937500,-68.2,76.05
209503,2018-06-29 10:33:58.968750,-36.12,76.05
209504,2018-06-29 10:33:59.000000,-8.44,76.05
209505,2018-06-29 10:33:59.031250,15.16,76.05
209506,2018-06-29 10:33:59.062500,34.99,76.05
209507,2018-06-29 10:33:59.093750,49.01,76.05
209508,2018-06-29 10:33:59.125000,56.91,76.05
209509,2018-06-29 10:33:59.156250,61.33,76.05
209510,2018-06-29 10:33:59.187500,64.78,76.05
209511,2018-06-29 10:33:59.218750,67.33,76.05
209512,2018-06-29 10:33:59.250000,67.99,76.05
209513,2018-06-29 10:33:59.281250,66.45,76.05
209514,2018-06-29 10:33:59.312500,62.5,76.05
209515,2018-06-29 10:33:59.343750,55.12,76.05
209516,2018-06-29 10:33:59.375000,43.97,76.05
209517,2018-06-29 10:33:59.406250,30.57,76.05
209518,2018-06-29 10:33:59.437500,17.38,76.05
209519,2018-06-29 10:33:59.468750,6.16,76.05
209520,2018-06-29 10:33:59.500000,-3.7,76.05
209521,2018-06-29 10:33:59.531250,-14.0,76.37
209522,2018-06-29 10:33:59.562500,-24.85,76.37
209523,2018-06-29 10:33:59.593750,-34.9,76.37
209524,2018-06-29 10:33:59.625000,-43.37,76.37
209525,2018-06-29 10:33:59.656250,-49.98,76.37
209526,2018-06-29 10:33:59.687500,-54.49,76.37
209527,2018-06-29 10:33:59.718750,-58.13,76.37
209528,2018-06-29 10:33:59.750000,-63.02,76.37
209529,2018-06-29 10:33:59.781250,-70.32,76.37
209530,2018-06-29 10:33:59.812500,-80.42,76.37
209531,2018-06-29 10:33:59.843750,-91.45,76.37
209532,2018-06-29 10:33:59.875000,-96.24,76.37
209533,2018-06-29 10:33:59.906250,-86.24,76.37
209534,2018-06-29 10:33:59.937500,-61.62,76.37
209535,2018-06-29 10:33:59.968750,-32.33,76.37
209536,2018-06-29 10:34:00.000000,-7.67,76.37
209537,2018-06-29 10:34:00.031250,10.51,76.37
209538,2018-06-29 10:34:00.062500,23.84,76.37
209539,2018-06-29 10:34:00.093750,32.67,76.37
209540,2018-06-29 10:34:00.125000,37.1,76.37
209541,2018-06-29 10:34:00.156250,39.63,76.37
209542,2018-06-29 10:34:00.187500,43.61,76.37
209543,2018-06-29 10:34:00.218750,49.04,76.37
209544,2018-06-29 10:34:00.250000,52.53,76.37
209545,2018-06-29 10:34:00.281250,52.82,76.37
209546,2018-06-29 10:34:00.312500,52.03,76.37
209547,2018-06-29 10:34:00.343750,50.3,76.37
209548,2018-06-29 10:34:00.375000,45.17,76.37
209549,2018-06-29 10:34:00.406250,37.2,76.37
209550,2018-06-29 10:34:00.437500,29.2,76.37
209551,2018-06-29 10:34:00.468750,20.69,76.37
209552,2018-06-29 10:34:00.500000,9.01,76.37
209553,2018-06-29 10:34:00.531250,-5.32,76.78
209554,2018-06-29 10:34:00.562500,-18.39,76.78
209555,2018-06-29 10:34:00.593750,-27.34,76.78
209556,2018-06-29 10:34:00.625000,-32.62,76.78
209557,2018-06-29 10:34:00.656250,-36.65,76.78
209558,2018-06-29 10:34:00.687500,-41.29,76.78
209559,2018-06-29 10:34:00.718750,-46.95,76.78
209560,2018-06-29 10:34:00.750000,-53.19,76.78
209561,2018-06-29 10:34:00.781250,-59.63,76.78
209562,2018-06-29 10:34:00.812500,-66.92,76.78
209563,2018-06-29 10:34:00.843750,-74.59,76.78
209564,2018-06-29 10:34:00.875000,-76.64,76.78
209565,2018-06-29 10:34:00.906250,-64.92,76.78
209566,2018-06-29 10:34:00.937500,-39.74,76.78
209567,2018-06-29 10:34:00.968750,-11.08,76.78
209568,2018-06-29 10:34:01.000000,11.67,76.78
209569,2018-06-29 10:34:01.031250,25.93,76.78
209570,2018-06-29 10:34:01.062500,32.14,76.78
209571,2018-06-29 10:34:01.093750,30.7,76.78
209572,2018-06-29 10:34:01.125000,24.24,76.78
209573,2018-06-29 10:34:01.156250,18.44,76.78
209574,2018-06-29 10:34:01.187500,17.5,76.78
209575,2018-06-29 10:34:01.218750,20.29,76.78
209576,2018-06-29 10:34:01.250000,23.24,76.78
209577,2018-06-29 10:34:01.281250,25.4,76.78
209578,2018-06-29 10:34:01.312500,27.34,76.78
209579,2018-06-29 10:34:01.343750,27.29,76.78
209580,2018-06-29 10:34:01.375000,22.71,76.78
209581,2018-06-29 10:34:01.406250,14.71,76.78
209582,2018-06-29 10:34:01.437500,6.54,76.78
209583,2018-06-29 10:34:01.468750,-1.28,76.78
209584,2018-06-29 10:34:01.500000,-11.47,76.78
209585,2018-06-29 10:34:01.531250,-25.41,77.02
209586,2018-06-29 10:34:01.562500,-40.14,77.02
209587,2018-06-29 10:34:01.593750,-51.67,77.02
209588,2018-06-29 10:34:01.625000,-59.05,77.02
209589,2018-06-29 10:34:01.656250,-64.63,77.02
209590,2018-06-29 10:34:01.687500,-71.4,77.02
209591,2018-06-29 10:34:01.718750,-78.9,77.02
209592,2018-06-29 10:34:01.750000,-80.56,77.02
209593,2018-06-29 10:34:01.781250,-68.39,77.02
209594,2018-06-29 10:34:01.812500,-43.18,77.02
209595,2018-06-29 10:34:01.843750,-15.15,77.02
209596,2018-06-29 10:34:01.875000,7.41,77.02
209597,2018-06-29 10:34:01.906250,24.76,77.02
209598,2018-06-29 10:34:01.937500,39.39,77.02
209599,2018-06-29 10:34:01.968750,50.25,77.02
209600,2018-06-29 10:34:02.000000,56.66,77.02
209601,2018-06-29 10:34:02.031250,61.64,77.02
209602,2018-06-29 10:34:02.062500,67.25,77.02
209603,2018-06-29 10:34:02.093750,71.49,77.02
209604,2018-06-29 10:34:02.125000,72.34,77.02
209605,2018-06-29 10:34:02.156250,70.63,77.02
209606,2018-06-29 10:34:02.187500,67.11,77.02
209607,2018-06-29 10:34:02.218750,60.08,77.02
209608,2018-06-29 10:34:02.250000,47.93,77.02
209609,2018-06-29 10:34:02.281250,32.06,77.02
209610,2018-06-29 10:34:02.312500,15.36,77.02
209611,2018-06-29 10:34:02.343750,-1.32,77.02
209612,2018-06-29 10:34:02.375000,-18.61,77.02
209613,2018-06-29 10:34:02.406250,-35.89,77.02
209614,2018-06-29 10:34:02.437500,-51.75,77.02
209615,2018-06-29 10:34:02.468750,-65.83,77.02
209616,2018-06-29 10:34:02.500000,-78.89,77.02
209617,2018-06-29 10:34:02.531250,-92.36,77.28
209618,2018-06-29 10:34:02.562500,-107.47,77.28
209619,2018-06-29 10:34:02.593750,-121.47,77.28
209620,2018-06-29 10:34:02.625000,-126.31,77.28
209621,2018-06-29 10:34:02.656250,-116.53,77.28
209622,2018-06-29 10:34:02.687500,-97.53,77.28
209623,2018-06-29 10:34:02.718750,-80.18,77.28
209624,2018-06-29 10:34:02.750000,-68.17,77.28
209625,2018-06-29 10:34:02.781250,-57.76,77.28
209626,2018-06-29 10:34:02.812500,-48.38,77.28
209627,2018-06-29 10:34:02.843750,-44.49,77.28
209628,2018-06-29 10:34:02.875000,-47.93,77.28
209629,2018-06-29 10:34:02.906250,-57.9,77.28
209630,2018-06-29 10:34:02.937500,-77.43,77.28
209631,2018-06-29 10:34:02.968750,-108.58,77.28
209632,2018-06-29 10:34:03.000000,-143.57,77.28
209633,2018-06-29 10:34:03.031250,-169.81,77.28
209634,2018-06-29 10:34:03.062500,-174.17,77.28
209635,2018-06-29 10:34:03.093750,-139.38,77.28
209636,2018-06-29 10:34:03.125000,-59.24,77.28
209637,2018-06-29 10:34:03.156250,45.46,77.28
209638,2018-06-29 10:34:03.187500,150.08,77.28
209639,2018-06-29 10:34:03.218750,247.68,77.28
209640,2018-06-29 10:34:03.250000,328.12,77.28
209641,2018-06-29 10:34:03.281250,370.94,77.28
209642,2018-06-29 10:34:03.312500,375.41,77.28
209643,2018-06-29 10:34:03.343750,360.08,77.28
209644,2018-06-29 10:34:03.375000,328.22,77.28
209645,2018-06-29 10:34:03.406250,266.7,77.28
209646,2018-06-29 10:34:03.437500,172.8,77.28
209647,2018-06-29 10:34:03.468750,59.25,77.28
209648,2018-06-29 10:34:03.500000,-56.69,77.28
209649,2018-06-29 10:34:03.531250,-155.99,77.48
209650,2018-06-29 10:34:03.562500,-220.02,77.48
209651,2018-06-29 10:34:03.593750,-238.37,77.48
209652,2018-06-29 10:34:03.625000,-212.77,77.48
209653,2018-06-29 10:34:03.656250,-155.62,77.48
209654,2018-06-29 10:34:03.687500,-86.06,77.48
209655,2018-06-29 10:34:03.718750,-22.18,77.48
209656,2018-06-29 10:34:03.750000,26.16,77.48
209657,2018-06-29 10:34:03.781250,56.77,77.48
209658,2018-06-29 10:34:03.812500,69.94,77.48
209659,2018-06-29 10:34:03.843750,66.16,77.48
209660,2018-06-29 10:34:03.875000,48.68,77.48
209661,2018-06-29 10:34:03.906250,25.37,77.48
209662,2018-06-29 10:34:03.937500,5.62,77.48
209663,2018-06-29 10:34:03.968750,-5.98,77.48
209664,2018-06-29 10:34:04.000000,-13.15,77.48
209665,2018-06-29 10:34:04.031250,-22.61,77.48
209666,2018-06-29 10:34:04.062500,-35.93,77.48
209667,2018-06-29 10:34:04.093750,-50.12,77.48
209668,2018-06-29 10:34:04.125000,-63.46,77.48
209669,2018-06-29 10:34:04.156250,-73.53,77.48
209670,2018-06-29 10:34:04.187500,-73.44,77.48
209671,2018-06-29 10:34:04.218750,-57.61,77.48
209672,2018-06-29 10:34:04.250000,-30.38,77.48
209673,2018-06-29 10:34:04.281250,-4.93,77.48
209674,2018-06-29 10:34:04.312500,6.84,77.48
209675,2018-06-29 10:34:04.343750,4.33,77.48
209676,2018-06-29 10:34:04.375000,-2.51,77.48
209677,2018-06-29 10:34:04.406250,-3.84,77.48
209678,2018-06-29 10:34:04.437500,3.2,77.48
209679,2018-06-29 10:34:04.468750,17.97,77.48
209680,2018-06-29 10:34:04.500000,39.49,77.48
209681,2018-06-29 10:34:04.531250,63.79,77.7
209682,2018-06-29 10:34:04.562500,83.95,77.7
209683,2018-06-29 10:34:04.593750,96.43,77.7
209684,2018-06-29 10:34:04.625000,103.37,77.7
209685,2018-06-29 10:34:04.656250,108.03,77.7
209686,2018-06-29 10:34:04.687500,112.84,77.7
209687,2018-06-29 10:34:04.718750,121.69,77.7
209688,2018-06-29 10:34:04.750000,135.62,77.7
209689,2018-06-29 10:34:04.781250,145.81,77.7
209690,2018-06-29 10:34:04.812500,140.23,77.7
209691,2018-06-29 10:34:04.843750,119.0,77.7
209692,2018-06-29 10:34:04.875000,93.99,77.7
209693,2018-06-29 10:34:04.906250,73.06,77.7
209694,2018-06-29 10:34:04.937500,53.29,77.7
209695,2018-06-29 10:34:04.968750,29.43,77.7
209696,2018-06-29 10:34:05.000000,0.79,77.7
209697,2018-06-29 10:34:05.031250,-30.76,77.7
209698,2018-06-29 10:34:05.062500,-64.56,77.7
209699,2018-06-29 10:34:05.093750,-100.38,77.7
209700,2018-06-29 10:34:05.125000,-133.6,77.7
209701,2018-06-29 10:34:05.156250,-153.45,77.7
209702,2018-06-29 10:34:05.187500,-149.41,77.7
209703,2018-06-29 10:34:05.218750,-120.18,77.7
209704,2018-06-29 10:34:05.250000,-75.71,77.7
209705,2018-06-29 10:34:05.281250,-30.29,77.7
209706,2018-06-29 10:34:05.312500,6.67,77.7
209707,2018-06-29 10:34:05.343750,33.33,77.7
209708,2018-06-29 10:34:05.375000,49.83,77.7
209709,2018-06-29 10:34:05.406250,55.3,77.7
209710,2018-06-29 10:34:05.437500,51.81,77.7
209711,2018-06-29 10:34:05.468750,44.76,77.7
209712,2018-06-29 10:34:05.500000,37.04,77.7
209713,2018-06-29 10:34:05.531250,27.93,77.97
209714,2018-06-29 10:34:05.562500,17.34,77.97
209715,2018-06-29 10:34:05.593750,4.87,77.97
209716,2018-06-29 10:34:05.625000,-13.73,77.97
209717,2018-06-29 10:34:05.656250,-42.28,77.97
209718,2018-06-29 10:34:05.687500,-77.46,77.97
209719,2018-06-29 10:34:05.718750,-109.93,77.97
209720,2018-06-29 10:34:05.750000,-130.63,77.97
209721,2018-06-29 10:34:05.781250,-134.55,77.97
209722,2018-06-29 10:34:05.812500,-121.41,77.97
209723,2018-06-29 10:34:05.843750,-95.24,77.97
209724,2018-06-29 10:34:05.875000,-61.99,77.97
209725,2018-06-29 10:34:05.906250,-26.02,77.97
209726,2018-06-29 10:34:05.937500,12.2,77.97
209727,2018-06-29 10:34:05.968750,53.01,77.97
209728,2018-06-29 10:34:06.000000,92.17,77.97
209729,2018-06-29 10:34:06.031250,122.22,77.97
209730,2018-06-29 10:34:06.062500,138.85,77.97
209731,2018-06-29 10:34:06.093750,142.81,77.97
209732,2018-06-29 10:34:06.125000,137.52,77.97
209733,2018-06-29 10:34:06.156250,128.33,77.97
209734,2018-06-29 10:34:06.187500,119.95,77.97
209735,2018-06-29 10:34:06.218750,112.17,77.97
209736,2018-06-29 10:34:06.250000,101.69,77.97
209737,2018-06-29 10:34:06.281250,88.55,77.97
209738,2018-06-29 10:34:06.312500,76.42,77.97
209739,2018-06-29 10:34:06.343750,67.39,77.97
209740,2018-06-29 10:34:06.375000,60.03,77.97
209741,2018-06-29 10:34:06.406250,51.94,77.97
209742,2018-06-29 10:34:06.437500,44.52,77.97
209743,2018-06-29 10:34:06.468750,44.39,77.97
209744,2018-06-29 10:34:06.500000,54.73,77.97
209745,2018-06-29 10:34:06.531250,64.98,78.35
209746,2018-06-29 10:34:06.562500,55.92,78.35
209747,2018-06-29 10:34:06.593750,14.55,78.35
209748,2018-06-29 10:34:06.625000,-57.19,78.35
209749,2018-06-29 10:34:06.656250,-141.37,78.35
209750,2018-06-29 10:34:06.687500,-211.14,78.35
209751,2018-06-29 10:34:06.718750,-247.17,78.35
209752,2018-06-29 10:34:06.750000,-248.65,78.35
209753,2018-06-29 10:34:06.781250,-225.71,78.35
209754,2018-06-29 10:34:06.812500,-187.84,78.35
209755,2018-06-29 10:34:06.843750,-143.13,78.35
209756,2018-06-29 10:34:06.875000,-99.11,78.35
209757,2018-06-29 10:34:06.906250,-58.79,78.35
209758,2018-06-29 10:34:06.937500,-21.51,78.35
209759,2018-06-29 10:34:06.968750,9.84,78.35
209760,2018-06-29 10:34:07.000000,28.04,78.35
209761,2018-06-29 10:34:07.031250,29.98,78.35
209762,2018-06-29 10:34:07.062500,21.92,78.35
209763,2018-06-29 10:34:07.093750,13.79,78.35
209764,2018-06-29 10:34:07.125000,10.97,78.35
209765,2018-06-29 10:34:07.156250,13.93,78.35
209766,2018-06-29 10:34:07.187500,21.92,78.35
209767,2018-06-29 10:34:07.218750,33.15,78.35
209768,2018-06-29 10:34:07.250000,43.8,78.35
209769,2018-06-29 10:34:07.281250,49.99,78.35
209770,2018-06-29 10:34:07.312500,50.01,78.35
209771,2018-06-29 10:34:07.343750,44.45,78.35
209772,2018-06-29 10:34:07.375000,35.2,78.35
209773,2018-06-29 10:34:07.406250,23.6,78.35
209774,2018-06-29 10:34:07.437500,9.73,78.35
209775,2018-06-29 10:34:07.468750,-6.78,78.35
209776,2018-06-29 10:34:07.500000,-25.69,78.35
209777,2018-06-29 10:34:07.531250,-44.69,78.75
209778,2018-06-29 10:34:07.562500,-58.01,78.75
209779,2018-06-29 10:34:07.593750,-60.97,78.75
209780,2018-06-29 10:34:07.625000,-57.43,78.75
209781,2018-06-29 10:34:07.656250,-56.87,78.75
209782,2018-06-29 10:34:07.687500,-64.6,78.75
209783,2018-06-29 10:34:07.718750,-80.69,78.75
209784,2018-06-29 10:34:07.750000,-105.61,78.75
209785,2018-06-29 10:34:07.781250,-138.54,78.75
209786,2018-06-29 10:34:07.812500,-176.67,78.75
209787,2018-06-29 10:34:07.843750,-219.31,78.75
209788,2018-06-29 10:34:07.875000,-260.5,78.75
209789,2018-06-29 10:34:07.906250,-281.23,78.75
209790,2018-06-29 10:34:07.937500,-264.34,78.75
209791,2018-06-29 10:34:07.968750,-207.99,78.75
209792,2018-06-29 10:34:08.000000,-120.28,78.75
209793,2018-06-29 10:34:08.031250,-18.18,78.75
209794,2018-06-29 10:34:08.062500,72.96,78.75
209795,2018-06-29 10:34:08.093750,138.43,78.75
209796,2018-06-29 10:34:08.125000,181.95,78.75
209797,2018-06-29 10:34:08.156250,205.84,78.75
209798,2018-06-29 10:34:08.187500,204.2,78.75
209799,2018-06-29 10:34:08.218750,180.35,78.75
209800,2018-06-29 10:34:08.250000,152.67,78.75
209801,2018-06-29 10:34:08.281250,137.99,78.75
209802,2018-06-29 10:34:08.312500,135.57,78.75
209803,2018-06-29 10:34:08.343750,130.98,78.75
209804,2018-06-29 10:34:08.375000,113.07,78.75
209805,2018-06-29 10:34:08.406250,82.84,78.75
209806,2018-06-29 10:34:08.437500,48.22,78.75
209807,2018-06-29 10:34:08.468750,17.74,78.75
209808,2018-06-29 10:34:08.500000,-1.78,78.75
209809,2018-06-29 10:34:08.531250,-8.09,79.2
209810,2018-06-29 10:34:08.562500,-4.39,79.2
209811,2018-06-29 10:34:08.593750,3.79,79.2
209812,2018-06-29 10:34:08.625000,12.15,79.2
209813,2018-06-29 10:34:08.656250,18.43,79.2
209814,2018-06-29 10:34:08.687500,20.82,79.2
209815,2018-06-29 10:34:08.718750,18.14,79.2
209816,2018-06-29 10:34:08.750000,11.5,79.2
209817,2018-06-29 10:34:08.781250,3.44,79.2
209818,2018-06-29 10:34:08.812500,-4.06,79.2
209819,2018-06-29 10:34:08.843750,-10.29,79.2
209820,2018-06-29 10:34:08.875000,-15.6,79.2
209821,2018-06-29 10:34:08.906250,-21.42,79.2
209822,2018-06-29 10:34:08.937500,-29.52,79.2
209823,2018-06-29 10:34:08.968750,-39.27,79.2
209824,2018-06-29 10:34:09.000000,-44.43,79.2
209825,2018-06-29 10:34:09.031250,-35.95,79.2
209826,2018-06-29 10:34:09.062500,-11.94,79.2
209827,2018-06-29 10:34:09.093750,18.82,79.2
209828,2018-06-29 10:34:09.125000,46.29,79.2
209829,2018-06-29 10:34:09.156250,67.14,79.2
209830,2018-06-29 10:34:09.187500,81.57,79.2
209831,2018-06-29 10:34:09.218750,87.67,79.2
209832,2018-06-29 10:34:09.250000,83.3,79.2
209833,2018-06-29 10:34:09.281250,71.18,79.2
209834,2018-06-29 10:34:09.312500,58.31,79.2
209835,2018-06-29 10:34:09.343750,50.33,79.2
209836,2018-06-29 10:34:09.375000,47.76,79.2
209837,2018-06-29 10:34:09.406250,45.94,79.2
209838,2018-06-29 10:34:09.437500,38.07,79.2
209839,2018-06-29 10:34:09.468750,21.52,79.2
209840,2018-06-29 10:34:09.500000,1.46,79.2
209841,2018-06-29 10:34:09.531250,-15.19,79.37
209842,2018-06-29 10:34:09.562500,-27.04,79.37
209843,2018-06-29 10:34:09.593750,-37.31,79.37
209844,2018-06-29 10:34:09.625000,-49.33,79.37
209845,2018-06-29 10:34:09.656250,-64.57,79.37
209846,2018-06-29 10:34:09.687500,-82.67,79.37
209847,2018-06-29 10:34:09.718750,-102.02,79.37
209848,2018-06-29 10:34:09.750000,-120.22,79.37
209849,2018-06-29 10:34:09.781250,-131.7,79.37
209850,2018-06-29 10:34:09.812500,-127.91,79.37
209851,2018-06-29 10:34:09.843750,-105.23,79.37
209852,2018-06-29 10:34:09.875000,-70.77,79.37
209853,2018-06-29 10:34:09.906250,-35.73,79.37
209854,2018-06-29 10:34:09.937500,-5.72,79.37
209855,2018-06-29 10:34:09.968750,20.16,79.37
209856,2018-06-29 10:34:10.000000,43.63,79.37
209857,2018-06-29 10:34:10.031250,63.93,79.37
209858,2018-06-29 10:34:10.062500,79.94,79.37
209859,2018-06-29 10:34:10.093750,92.13,79.37
209860,2018-06-29 10:34:10.125000,100.29,79.37
209861,2018-06-29 10:34:10.156250,102.76,79.37
209862,2018-06-29 10:34:10.187500,99.21,79.37
209863,2018-06-29 10:34:10.218750,89.7,79.37
209864,2018-06-29 10:34:10.250000,71.85,79.37
209865,2018-06-29 10:34:10.281250,44.54,79.37
209866,2018-06-29 10:34:10.312500,12.79,79.37
209867,2018-06-29 10:34:10.343750,-15.38,79.37
209868,2018-06-29 10:34:10.375000,-34.79,79.37
209869,2018-06-29 10:34:10.406250,-44.95,79.37
209870,2018-06-29 10:34:10.437500,-48.7,79.37
209871,2018-06-29 10:34:10.468750,-50.51,79.37
209872,2018-06-29 10:34:10.500000,-53.6,79.37
209873,2018-06-29 10:34:10.531250,-57.34,79.55
209874,2018-06-29 10:34:10.562500,-59.35,79.55
209875,2018-06-29 10:34:10.593750,-60.04,79.55
209876,2018-06-29 10:34:10.625000,-63.21,79.55
209877,2018-06-29 10:34:10.656250,-72.52,79.55
209878,2018-06-29 10:34:10.687500,-87.13,79.55
209879,2018-06-29 10:34:10.718750,-97.85,79.55
209880,2018-06-29 10:34:10.750000,-91.44,79.55
209881,2018-06-29 10:34:10.781250,-65.77,79.55
209882,2018-06-29 10:34:10.812500,-34.6,79.55
209883,2018-06-29 10:34:10.843750,-10.61,79.55
209884,2018-06-29 10:34:10.875000,6.26,79.55
209885,2018-06-29 10:34:10.906250,18.87,79.55
209886,2018-06-29 10:34:10.937500,24.96,79.55
209887,2018-06-29 10:34:10.968750,24.31,79.55
209888,2018-06-29 10:34:11.000000,22.42,79.55
209889,2018-06-29 10:34:11.031250,23.48,79.55
209890,2018-06-29 10:34:11.062500,26.46,79.55
209891,2018-06-29 10:34:11.093750,29.52,79.55
209892,2018-06-29 10:34:11.125000,33.17,79.55
209893,2018-06-29 10:34:11.156250,37.08,79.55
209894,2018-06-29 10:34:11.187500,37.65,79.55
209895,2018-06-29 10:34:11.218750,32.59,79.55
209896,2018-06-29 10:34:11.250000,25.0,79.55
209897,2018-06-29 10:34:11.281250,18.64,79.55
209898,2018-06-29 10:34:11.312500,11.17,79.55
209899,2018-06-29 10:34:11.343750,-5.02,79.55
209900,2018-06-29 10:34:11.375000,-34.41,79.55
209901,2018-06-29 10:34:11.406250,-70.36,79.55
209902,2018-06-29 10:34:11.437500,-96.88,79.55
209903,2018-06-29 10:34:11.468750,-101.32,79.55
209904,2018-06-29 10:34:11.500000,-84.77,79.55
209905,2018-06-29 10:34:11.531250,-58.09,79.72
209906,2018-06-29 10:34:11.562500,-32.3,79.72
209907,2018-06-29 10:34:11.593750,-15.36,79.72
209908,2018-06-29 10:34:11.625000,-12.0,79.72
209909,2018-06-29 10:34:11.656250,-23.08,79.72
209910,2018-06-29 10:34:11.687500,-47.51,79.72
209911,2018-06-29 10:34:11.718750,-81.25,79.72
209912,2018-06-29 10:34:11.750000,-111.73,79.72
209913,2018-06-29 10:34:11.781250,-123.79,79.72
209914,2018-06-29 10:34:11.812500,-115.22,79.72
209915,2018-06-29 10:34:11.843750,-95.9,79.72
209916,2018-06-29 10:34:11.875000,-72.1,79.72
209917,2018-06-29 10:34:11.906250,-43.3,79.72
209918,2018-06-29 10:34:11.937500,-11.86,79.72
209919,2018-06-29 10:34:11.968750,16.03,79.72
209920,2018-06-29 10:34:12.000000,37.78,79.72
209921,2018-06-29 10:34:12.031250,55.91,79.72
209922,2018-06-29 10:34:12.062500,73.01,79.72
209923,2018-06-29 10:34:12.093750,88.96,79.72
209924,2018-06-29 10:34:12.125000,102.46,79.72
209925,2018-06-29 10:34:12.156250,112.23,79.72
209926,2018-06-29 10:34:12.187500,116.52,79.72
209927,2018-06-29 10:34:12.218750,113.94,79.72
209928,2018-06-29 10:34:12.250000,105.67,79.72
209929,2018-06-29 10:34:12.281250,95.02,79.72
209930,2018-06-29 10:34:12.312500,83.4,79.72
209931,2018-06-29 10:34:12.343750,68.33,79.72
209932,2018-06-29 10:34:12.375000,48.03,79.72
209933,2018-06-29 10:34:12.406250,26.2,79.72
209934,2018-06-29 10:34:12.437500,8.1,79.72
209935,2018-06-29 10:34:12.468750,-5.7,79.72
209936,2018-06-29 10:34:12.500000,-17.19,79.72
209937,2018-06-29 10:34:12.531250,-26.35,79.8
209938,2018-06-29 10:34:12.562500,-32.14,79.8
209939,2018-06-29 10:34:12.593750,-35.98,79.8
209940,2018-06-29 10:34:12.625000,-41.9,79.8
209941,2018-06-29 10:34:12.656250,-54.57,79.8
209942,2018-06-29 10:34:12.687500,-73.59,79.8
209943,2018-06-29 10:34:12.718750,-87.97,79.8
209944,2018-06-29 10:34:12.750000,-83.34,79.8
209945,2018-06-29 10:34:12.781250,-58.09,79.8
209946,2018-06-29 10:34:12.812500,-24.81,79.8
209947,2018-06-29 10:34:12.843750,5.13,79.8
209948,2018-06-29 10:34:12.875000,29.26,79.8
209949,2018-06-29 10:34:12.906250,47.39,79.8
209950,2018-06-29 10:34:12.937500,58.34,79.8
209951,2018-06-29 10:34:12.968750,62.94,79.8
209952,2018-06-29 10:34:13.000000,64.02,79.8
209953,2018-06-29 10:34:13.031250,64.2,79.8
209954,2018-06-29 10:34:13.062500,64.86,79.8
209955,2018-06-29 10:34:13.093750,65.82,79.8
209956,2018-06-29 10:34:13.125000,66.14,79.8
209957,2018-06-29 10:34:13.156250,65.03,79.8
209958,2018-06-29 10:34:13.187500,61.63,79.8
209959,2018-06-29 10:34:13.218750,55.53,79.8
209960,2018-06-29 10:34:13.250000,47.81,79.8
209961,2018-06-29 10:34:13.281250,40.21,79.8
209962,2018-06-29 10:34:13.312500,33.19,79.8
209963,2018-06-29 10:34:13.343750,25.97,79.8
209964,2018-06-29 10:34:13.375000,17.94,79.8
209965,2018-06-29 10:34:13.406250,8.92,79.8
209966,2018-06-29 10:34:13.437500,-0.89,79.8
209967,2018-06-29 10:34:13.468750,-11.03,79.8
209968,2018-06-29 10:34:13.500000,-21.9,79.8
209969,2018-06-29 10:34:13.531250,-36.55,79.83
209970,2018-06-29 10:34:13.562500,-58.56,79.83
209971,2018-06-29 10:34:13.593750,-85.67,79.83
209972,2018-06-29 10:34:13.625000,-105.72,79.83
209973,2018-06-29 10:34:13.656250,-102.94,79.83
209974,2018-06-29 10:34:13.687500,-72.42,79.83
209975,2018-06-29 10:34:13.718750,-25.67,79.83
209976,2018-06-29 10:34:13.750000,20.64,79.83
209977,2018-06-29 10:34:13.781250,56.88,79.83
209978,2018-06-29 10:34:13.812500,80.32,79.83
209979,2018-06-29 10:34:13.843750,90.46,79.83
209980,2018-06-29 10:34:13.875000,88.57,79.83
209981,2018-06-29 10:34:13.906250,78.12,79.83
209982,2018-06-29 10:34:13.937500,62.85,79.83
209983,2018-06-29 10:34:13.968750,44.99,79.83
209984,2018-06-29 10:34:14.000000,26.79,79.83
209985,2018-06-29 10:34:14.031250,13.14,79.83
209986,2018-06-29 10:34:14.062500,8.49,79.83
209987,2018-06-29 10:34:14.093750,10.15,79.83
209988,2018-06-29 10:34:14.125000,9.91,79.83
209989,2018-06-29 10:34:14.156250,4.94,79.83
209990,2018-06-29 10:34:14.187500,1.25,79.83
209991,2018-06-29 10:34:14.218750,3.38,79.83
209992,2018-06-29 10:34:14.250000,6.92,79.83
209993,2018-06-29 10:34:14.281250,4.76,79.83
209994,2018-06-29 10:34:14.312500,-3.58,79.83
209995,2018-06-29 10:34:14.343750,-12.5,79.83
209996,2018-06-29 10:34:14.375000,-17.77,79.83
209997,2018-06-29 10:34:14.406250,-20.7,79.83
209998,2018-06-29 10:34:14.437500,-26.02,79.83
209999,2018-06-29 10:34:14.468750,-35.67,79.83
210000,2018-06-29 10:34:14.500000,-42.43,79.83
210001,2018-06-29 10:34:14.531250,-33.18,79.83
210002,2018-06-29 10:34:14.562500,-4.29,79.83
210003,2018-06-29 10:34:14.593750,31.38,79.83
210004,2018-06-29 10:34:14.625000,58.84,79.83
210005,2018-06-29 10:34:14.656250,74.15,79.83
210006,2018-06-29 10:34:14.687500,79.05,79.83
210007,2018-06-29 10:34:14.718750,73.48,79.83
210008,2018-06-29 10:34:14.750000,59.33,79.83
210009,2018-06-29 10:34:14.781250,42.71,79.83
210010,2018-06-29 10:34:14.812500,26.99,79.83
210011,2018-06-29 10:34:14.843750,10.99,79.83
210012,2018-06-29 10:34:14.875000,-6.14,79.83
210013,2018-06-29 10:34:14.906250,-24.25,79.83
210014,2018-06-29 10:34:14.937500,-42.73,79.83
210015,2018-06-29 10:34:14.968750,-57.38,79.83
210016,2018-06-29 10:34:15.000000,-61.53,79.83
210017,2018-06-29 10:34:15.031250,-52.16,79.83
210018,2018-06-29 10:34:15.062500,-31.51,79.83
210019,2018-06-29 10:34:15.093750,-5.83,79.83
210020,2018-06-29 10:34:15.125000,14.34,79.83
210021,2018-06-29 10:34:15.156250,18.48,79.83
210022,2018-06-29 10:34:15.187500,3.78,79.83
210023,2018-06-29 10:34:15.218750,-24.74,79.83
210024,2018-06-29 10:34:15.250000,-62.1,79.83
210025,2018-06-29 10:34:15.281250,-106.18,79.83
210026,2018-06-29 10:34:15.312500,-148.0,79.83
210027,2018-06-29 10:34:15.343750,-167.94,79.83
210028,2018-06-29 10:34:15.375000,-153.31,79.83
210029,2018-06-29 10:34:15.406250,-114.75,79.83
210030,2018-06-29 10:34:15.437500,-72.64,79.83
210031,2018-06-29 10:34:15.468750,-35.31,79.83
210032,2018-06-29 10:34:15.500000,-1.68,79.83
210033,2018-06-29 10:34:15.531250,25.5,79.83
210034,2018-06-29 10:34:15.562500,41.58,79.83
210035,2018-06-29 10:34:15.593750,47.62,79.83
210036,2018-06-29 10:34:15.625000,47.96,79.83
210037,2018-06-29 10:34:15.656250,44.82,79.83
210038,2018-06-29 10:34:15.687500,38.76,79.83
210039,2018-06-29 10:34:15.718750,31.49,79.83
210040,2018-06-29 10:34:15.750000,24.74,79.83
210041,2018-06-29 10:34:15.781250,18.05,79.83
210042,2018-06-29 10:34:15.812500,10.62,79.83
210043,2018-06-29 10:34:15.843750,4.91,79.83
210044,2018-06-29 10:34:15.875000,4.76,79.83
210045,2018-06-29 10:34:15.906250,8.8,79.83
210046,2018-06-29 10:34:15.937500,9.87,79.83
210047,2018-06-29 10:34:15.968750,4.05,79.83
210048,2018-06-29 10:34:16.000000,-4.86,79.83
210049,2018-06-29 10:34:16.031250,-13.0,79.83
210050,2018-06-29 10:34:16.062500,-23.12,79.83
210051,2018-06-29 10:34:16.093750,-40.18,79.83
210052,2018-06-29 10:34:16.125000,-63.21,79.83
210053,2018-06-29 10:34:16.156250,-82.4,79.83
210054,2018-06-29 10:34:16.187500,-84.07,79.83
210055,2018-06-29 10:34:16.218750,-62.84,79.83
210056,2018-06-29 10:34:16.250000,-27.91,79.83
210057,2018-06-29 10:34:16.281250,6.25,79.83
210058,2018-06-29 10:34:16.312500,32.92,79.83
210059,2018-06-29 10:34:16.343750,53.73,79.83
210060,2018-06-29 10:34:16.375000,70.02,79.83
210061,2018-06-29 10:34:16.406250,80.08,79.83
210062,2018-06-29 10:34:16.437500,83.56,79.83
210063,2018-06-29 10:34:16.468750,83.55,79.83
210064,2018-06-29 10:34:16.500000,83.26,79.83
210065,2018-06-29 10:34:16.531250,83.33,79.88
210066,2018-06-29 10:34:16.562500,82.79,79.88
210067,2018-06-29 10:34:16.593750,80.9,79.88
210068,2018-06-29 10:34:16.625000,76.89,79.88
210069,2018-06-29 10:34:16.656250,69.55,79.88
210070,2018-06-29 10:34:16.687500,58.77,79.88
210071,2018-06-29 10:34:16.718750,46.52,79.88
210072,2018-06-29 10:34:16.750000,35.48,79.88
210073,2018-06-29 10:34:16.781250,26.1,79.88
210074,2018-06-29 10:34:16.812500,16.01,79.88
210075,2018-06-29 10:34:16.843750,3.17,79.88
210076,2018-06-29 10:34:16.875000,-10.87,79.88
210077,2018-06-29 10:34:16.906250,-23.27,79.88
210078,2018-06-29 10:34:16.937500,-34.45,79.88
210079,2018-06-29 10:34:16.968750,-47.64,79.88
210080,2018-06-29 10:34:17.000000,-64.81,79.88
210081,2018-06-29 10:34:17.031250,-82.67,79.88
210082,2018-06-29 10:34:17.062500,-90.56,79.88
210083,2018-06-29 10:34:17.093750,-77.65,79.88
210084,2018-06-29 10:34:17.125000,-46.02,79.88
210085,2018-06-29 10:34:17.156250,-10.69,79.88
210086,2018-06-29 10:34:17.187500,16.2,79.88
210087,2018-06-29 10:34:17.218750,34.48,79.88
210088,2018-06-29 10:34:17.250000,48.3,79.88
210089,2018-06-29 10:34:17.281250,58.11,79.88
210090,2018-06-29 10:34:17.312500,62.9,79.88
210091,2018-06-29 10:34:17.343750,63.88,79.88
210092,2018-06-29 10:34:17.375000,64.06,79.88
210093,2018-06-29 10:34:17.406250,67.71,79.88
210094,2018-06-29 10:34:17.437500,78.39,79.88
210095,2018-06-29 10:34:17.468750,92.91,79.88
210096,2018-06-29 10:34:17.500000,101.25,79.88
210097,2018-06-29 10:34:17.531250,97.21,79.97
210098,2018-06-29 10:34:17.562500,85.22,79.97
210099,2018-06-29 10:34:17.593750,73.26,79.97
210100,2018-06-29 10:34:17.625000,62.74,79.97
210101,2018-06-29 10:34:17.656250,48.4,79.97
210102,2018-06-29 10:34:17.687500,25.11,79.97
210103,2018-06-29 10:34:17.718750,-7.83,79.97
210104,2018-06-29 10:34:17.750000,-47.24,79.97
210105,2018-06-29 10:34:17.781250,-89.25,79.97
210106,2018-06-29 10:34:17.812500,-130.59,79.97
210107,2018-06-29 10:34:17.843750,-164.66,79.97
210108,2018-06-29 10:34:17.875000,-179.21,79.97
210109,2018-06-29 10:34:17.906250,-167.18,79.97
210110,2018-06-29 10:34:17.937500,-138.26,79.97
210111,2018-06-29 10:34:17.968750,-110.18,79.97
210112,2018-06-29 10:34:18.000000,-90.2,79.97
210113,2018-06-29 10:34:18.031250,-70.33,79.97
210114,2018-06-29 10:34:18.062500,-40.72,79.97
210115,2018-06-29 10:34:18.093750,-6.86,79.97
210116,2018-06-29 10:34:18.125000,11.82,79.97
210117,2018-06-29 10:34:18.156250,5.9,79.97
210118,2018-06-29 10:34:18.187500,-10.48,79.97
210119,2018-06-29 10:34:18.218750,-17.61,79.97
210120,2018-06-29 10:34:18.250000,-10.59,79.97
210121,2018-06-29 10:34:18.281250,5.44,79.97
210122,2018-06-29 10:34:18.312500,26.29,79.97
210123,2018-06-29 10:34:18.343750,46.5,79.97
210124,2018-06-29 10:34:18.375000,56.05,79.97
210125,2018-06-29 10:34:18.406250,48.42,79.97
210126,2018-06-29 10:34:18.437500,27.84,79.97
210127,2018-06-29 10:34:18.468750,4.57,79.97
210128,2018-06-29 10:34:18.500000,-13.82,79.97
210129,2018-06-29 10:34:18.531250,-26.16,80.18
210130,2018-06-29 10:34:18.562500,-35.09,80.18
210131,2018-06-29 10:34:18.593750,-40.99,80.18
210132,2018-06-29 10:34:18.625000,-40.8,80.18
210133,2018-06-29 10:34:18.656250,-33.74,80.18
210134,2018-06-29 10:34:18.687500,-23.74,80.18
210135,2018-06-29 10:34:18.718750,-16.33,80.18
210136,2018-06-29 10:34:18.750000,-16.26,80.18
210137,2018-06-29 10:34:18.781250,-26.01,80.18
210138,2018-06-29 10:34:18.812500,-44.94,80.18
210139,2018-06-29 10:34:18.843750,-68.83,80.18
210140,2018-06-29 10:34:18.875000,-89.66,80.18
210141,2018-06-29 10:34:18.906250,-103.53,80.18
210142,2018-06-29 10:34:18.937500,-118.58,80.18
210143,2018-06-29 10:34:18.968750,-140.28,80.18
210144,2018-06-29 10:34:19.000000,-153.69,80.18
210145,2018-06-29 10:34:19.031250,-140.6,80.18
210146,2018-06-29 10:34:19.062500,-104.08,80.18
210147,2018-06-29 10:34:19.093750,-58.32,80.18
210148,2018-06-29 10:34:19.125000,-9.35,80.18
210149,2018-06-29 10:34:19.156250,39.69,80.18
210150,2018-06-29 10:34:19.187500,80.42,80.18
210151,2018-06-29 10:34:19.218750,107.15,80.18
210152,2018-06-29 10:34:19.250000,123.23,80.18
210153,2018-06-29 10:34:19.281250,134.48,80.18
210154,2018-06-29 10:34:19.312500,143.1,80.18
210155,2018-06-29 10:34:19.343750,149.28,80.18
210156,2018-06-29 10:34:19.375000,153.41,80.18
210157,2018-06-29 10:34:19.406250,154.82,80.18
210158,2018-06-29 10:34:19.437500,151.24,80.18
210159,2018-06-29 10:34:19.468750,141.5,80.18
210160,2018-06-29 10:34:19.500000,128.5,80.18
210161,2018-06-29 10:34:19.531250,118.48,80.63
210162,2018-06-29 10:34:19.562500,115.79,80.63
210163,2018-06-29 10:34:19.593750,117.54,80.63
210164,2018-06-29 10:34:19.625000,115.83,80.63
210165,2018-06-29 10:34:19.656250,106.37,80.63
210166,2018-06-29 10:34:19.687500,90.52,80.63
210167,2018-06-29 10:34:19.718750,69.37,80.63
210168,2018-06-29 10:34:19.750000,41.18,80.63
210169,2018-06-29 10:34:19.781250,4.3,80.63
210170,2018-06-29 10:34:19.812500,-39.63,80.63
210171,2018-06-29 10:34:19.843750,-81.49,80.63
210172,2018-06-29 10:34:19.875000,-104.06,80.63
210173,2018-06-29 10:34:19.906250,-94.91,80.63
210174,2018-06-29 10:34:19.937500,-59.26,80.63
210175,2018-06-29 10:34:19.968750,-12.17,80.63
210176,2018-06-29 10:34:20.000000,37.37,80.63
210177,2018-06-29 10:34:20.031250,86.11,80.63
210178,2018-06-29 10:34:20.062500,127.07,80.63
210179,2018-06-29 10:34:20.093750,150.6,80.63
210180,2018-06-29 10:34:20.125000,153.11,80.63
210181,2018-06-29 10:34:20.156250,139.53,80.63
210182,2018-06-29 10:34:20.187500,117.62,80.63
210183,2018-06-29 10:34:20.218750,93.3,80.63
210184,2018-06-29 10:34:20.250000,70.87,80.63
210185,2018-06-29 10:34:20.281250,54.01,80.63
210186,2018-06-29 10:34:20.312500,44.73,80.63
210187,2018-06-29 10:34:20.343750,40.75,80.63
210188,2018-06-29 10:34:20.375000,35.15,80.63
210189,2018-06-29 10:34:20.406250,21.71,80.63
210190,2018-06-29 10:34:20.437500,1.35,80.63
210191,2018-06-29 10:34:20.468750,-20.1,80.63
210192,2018-06-29 10:34:20.500000,-39.23,80.63
210193,2018-06-29 10:34:20.531250,-56.77,81.1
210194,2018-06-29 10:34:20.562500,-74.37,81.1
210195,2018-06-29 10:34:20.593750,-92.94,81.1
210196,2018-06-29 10:34:20.625000,-111.72,81.1
210197,2018-06-29 10:34:20.656250,-124.79,81.1
210198,2018-06-29 10:34:20.687500,-122.8,81.1
210199,2018-06-29 10:34:20.718750,-103.2,81.1
210200,2018-06-29 10:34:20.750000,-75.57,81.1
210201,2018-06-29 10:34:20.781250,-51.6,81.1
210202,2018-06-29 10:34:20.812500,-33.55,81.1
210203,2018-06-29 10:34:20.843750,-17.59,81.1
210204,2018-06-29 10:34:20.875000,-3.26,81.1
210205,2018-06-29 10:34:20.906250,6.36,81.1
210206,2018-06-29 10:34:20.937500,10.01,81.1
210207,2018-06-29 10:34:20.968750,9.16,81.1
210208,2018-06-29 10:34:21.000000,5.3,81.1
210209,2018-06-29 10:34:21.031250,-0.24,81.1
210210,2018-06-29 10:34:21.062500,-5.64,81.1
210211,2018-06-29 10:34:21.093750,-10.77,81.1
210212,2018-06-29 10:34:21.125000,-16.84,81.1
210213,2018-06-29 10:34:21.156250,-23.2,81.1
210214,2018-06-29 10:34:21.187500,-27.92,81.1
210215,2018-06-29 10:34:21.218750,-31.5,81.1
210216,2018-06-29 10:34:21.250000,-37.38,81.1
210217,2018-06-29 10:34:21.281250,-48.26,81.1
210218,2018-06-29 10:34:21.312500,-62.96,81.1
210219,2018-06-29 10:34:21.343750,-77.77,81.1
210220,2018-06-29 10:34:21.375000,-89.97,81.1
210221,2018-06-29 10:34:21.406250,-100.13,81.1
210222,2018-06-29 10:34:21.437500,-113.85,81.1
210223,2018-06-29 10:34:21.468750,-136.8,81.1
210224,2018-06-29 10:34:21.500000,-162.75,81.1
210225,2018-06-29 10:34:21.531250,-175.23,81.53
210226,2018-06-29 10:34:21.562500,-167.56,81.53
210227,2018-06-29 10:34:21.593750,-149.39,81.53
210228,2018-06-29 10:34:21.625000,-130.23,81.53
210229,2018-06-29 10:34:21.656250,-110.0,81.53
210230,2018-06-29 10:34:21.687500,-87.52,81.53
210231,2018-06-29 10:34:21.718750,-66.33,81.53
210232,2018-06-29 10:34:21.750000,-50.06,81.53
210233,2018-06-29 10:34:21.781250,-37.33,81.53
210234,2018-06-29 10:34:21.812500,-22.89,81.53
210235,2018-06-29 10:34:21.843750,-3.04,81.53
210236,2018-06-29 10:34:21.875000,22.76,81.53
210237,2018-06-29 10:34:21.906250,54.58,81.53
210238,2018-06-29 10:34:21.937500,90.46,81.53
210239,2018-06-29 10:34:21.968750,124.02,81.53
210240,2018-06-29 10:34:22.000000,149.43,81.53
210241,2018-06-29 10:34:22.031250,165.48,81.53
210242,2018-06-29 10:34:22.062500,170.7,81.53
210243,2018-06-29 10:34:22.093750,160.5,81.53
210244,2018-06-29 10:34:22.125000,132.3,81.53
210245,2018-06-29 10:34:22.156250,89.62,81.53
210246,2018-06-29 10:34:22.187500,40.12,81.53
210247,2018-06-29 10:34:22.218750,-7.55,81.53
210248,2018-06-29 10:34:22.250000,-46.4,81.53
210249,2018-06-29 10:34:22.281250,-73.59,81.53
210250,2018-06-29 10:34:22.312500,-89.71,81.53
210251,2018-06-29 10:34:22.343750,-92.24,81.53
210252,2018-06-29 10:34:22.375000,-74.69,81.53
210253,2018-06-29 10:34:22.406250,-37.26,81.53
210254,2018-06-29 10:34:22.437500,7.53,81.53
210255,2018-06-29 10:34:22.468750,45.76,81.53
210256,2018-06-29 10:34:22.500000,72.84,81.53
210257,2018-06-29 10:34:22.531250,89.92,81.92
210258,2018-06-29 10:34:22.562500,97.62,81.92
210259,2018-06-29 10:34:22.593750,96.99,81.92
210260,2018-06-29 10:34:22.625000,90.99,81.92
210261,2018-06-29 10:34:22.656250,82.43,81.92
210262,2018-06-29 10:34:22.687500,72.65,81.92
210263,2018-06-29 10:34:22.718750,62.07,81.92
210264,2018-06-29 10:34:22.750000,51.45,81.92
210265,2018-06-29 10:34:22.781250,41.68,81.92
210266,2018-06-29 10:34:22.812500,32.25,81.92
210267,2018-06-29 10:34:22.843750,21.48,81.92
210268,2018-06-29 10:34:22.875000,10.12,81.92
210269,2018-06-29 10:34:22.906250,1.96,81.92
210270,2018-06-29 10:34:22.937500,-0.84,81.92
210271,2018-06-29 10:34:22.968750,-0.97,81.92
210272,2018-06-29 10:34:23.000000,-2.42,81.92
210273,2018-06-29 10:34:23.031250,-6.22,81.92
210274,2018-06-29 10:34:23.062500,-11.45,81.92
210275,2018-06-29 10:34:23.093750,-18.74,81.92
210276,2018-06-29 10:34:23.125000,-30.35,81.92
210277,2018-06-29 10:34:23.156250,-47.33,81.92
210278,2018-06-29 10:34:23.187500,-66.81,81.92
210279,2018-06-29 10:34:23.218750,-80.73,81.92
210280,2018-06-29 10:34:23.250000,-79.82,81.92
210281,2018-06-29 10:34:23.281250,-63.53,81.92
210282,2018-06-29 10:34:23.312500,-42.63,81.92
210283,2018-06-29 10:34:23.343750,-27.92,81.92
210284,2018-06-29 10:34:23.375000,-20.5,81.92
210285,2018-06-29 10:34:23.406250,-15.98,81.92
210286,2018-06-29 10:34:23.437500,-11.92,81.92
210287,2018-06-29 10:34:23.468750,-7.95,81.92
210288,2018-06-29 10:34:23.500000,-3.3,81.92
210289,2018-06-29 10:34:23.531250,2.94,82.22
210290,2018-06-29 10:34:23.562500,11.51,82.22
210291,2018-06-29 10:34:23.593750,23.6,82.22
210292,2018-06-29 10:34:23.625000,39.0,82.22
210293,2018-06-29 10:34:23.656250,53.53,82.22
210294,2018-06-29 10:34:23.687500,61.93,82.22
210295,2018-06-29 10:34:23.718750,63.27,82.22
210296,2018-06-29 10:34:23.750000,60.57,82.22
210297,2018-06-29 10:34:23.781250,54.58,82.22
210298,2018-06-29 10:34:23.812500,41.87,82.22
210299,2018-06-29 10:34:23.843750,21.12,82.22
210300,2018-06-29 10:34:23.875000,-2.12,82.22
210301,2018-06-29 10:34:23.906250,-21.1,82.22
210302,2018-06-29 10:34:23.937500,-35.34,82.22
210303,2018-06-29 10:34:23.968750,-47.0,82.22
210304,2018-06-29 10:34:24.000000,-51.82,82.22
210305,2018-06-29 10:34:24.031250,-41.7,82.22
210306,2018-06-29 10:34:24.062500,-16.84,82.22
210307,2018-06-29 10:34:24.093750,11.7,82.22
210308,2018-06-29 10:34:24.125000,32.79,82.22
210309,2018-06-29 10:34:24.156250,43.51,82.22
210310,2018-06-29 10:34:24.187500,45.87,82.22
210311,2018-06-29 10:34:24.218750,41.35,82.22
210312,2018-06-29 10:34:24.250000,31.65,82.22
210313,2018-06-29 10:34:24.281250,20.43,82.22
210314,2018-06-29 10:34:24.312500,11.56,82.22
210315,2018-06-29 10:34:24.343750,6.91,82.22
210316,2018-06-29 10:34:24.375000,7.16,82.22
210317,2018-06-29 10:34:24.406250,12.42,82.22
210318,2018-06-29 10:34:24.437500,20.49,82.22
210319,2018-06-29 10:34:24.468750,26.86,82.22
210320,2018-06-29 10:34:24.500000,28.37,82.22
210321,2018-06-29 10:34:24.531250,25.51,82.52
210322,2018-06-29 10:34:24.562500,20.02,82.52
210323,2018-06-29 10:34:24.593750,11.87,82.52
210324,2018-06-29 10:34:24.625000,0.7,82.52
210325,2018-06-29 10:34:24.656250,-11.75,82.52
210326,2018-06-29 10:34:24.687500,-22.66,82.52
210327,2018-06-29 10:34:24.718750,-31.01,82.52
210328,2018-06-29 10:34:24.750000,-38.25,82.52
210329,2018-06-29 10:34:24.781250,-46.87,82.52
210330,2018-06-29 10:34:24.812500,-57.46,82.52
210331,2018-06-29 10:34:24.843750,-65.25,82.52
210332,2018-06-29 10:34:24.875000,-61.48,82.52
210333,2018-06-29 10:34:24.906250,-42.85,82.52
210334,2018-06-29 10:34:24.937500,-17.06,82.52
210335,2018-06-29 10:34:24.968750,5.33,82.52
210336,2018-06-29 10:34:25.000000,20.76,82.52
210337,2018-06-29 10:34:25.031250,31.02,82.52
210338,2018-06-29 10:34:25.062500,36.72,82.52
210339,2018-06-29 10:34:25.093750,37.31,82.52
210340,2018-06-29 10:34:25.125000,34.58,82.52
210341,2018-06-29 10:34:25.156250,32.05,82.52
210342,2018-06-29 10:34:25.187500,31.39,82.52
210343,2018-06-29 10:34:25.218750,31.65,82.52
210344,2018-06-29 10:34:25.250000,31.85,82.52
210345,2018-06-29 10:34:25.281250,31.77,82.52
210346,2018-06-29 10:34:25.312500,30.17,82.52
210347,2018-06-29 10:34:25.343750,25.73,82.52
210348,2018-06-29 10:34:25.375000,19.57,82.52
210349,2018-06-29 10:34:25.406250,14.11,82.52
210350,2018-06-29 10:34:25.437500,9.64,82.52
210351,2018-06-29 10:34:25.468750,4.43,82.52
210352,2018-06-29 10:34:25.500000,-2.17,82.52
210353,2018-06-29 10:34:25.531250,-8.64,82.8
210354,2018-06-29 10:34:25.562500,-13.63,82.8
210355,2018-06-29 10:34:25.593750,-18.0,82.8
210356,2018-06-29 10:34:25.625000,-23.56,82.8
210357,2018-06-29 10:34:25.656250,-30.29,82.8
210358,2018-06-29 10:34:25.687500,-36.63,82.8
210359,2018-06-29 10:34:25.718750,-42.44,82.8
210360,2018-06-29 10:34:25.750000,-49.58,82.8
210361,2018-06-29 10:34:25.781250,-59.36,82.8
210362,2018-06-29 10:34:25.812500,-69.1,82.8
210363,2018-06-29 10:34:25.843750,-70.78,82.8
210364,2018-06-29 10:34:25.875000,-57.74,82.8
210365,2018-06-29 10:34:25.906250,-33.78,82.8
210366,2018-06-29 10:34:25.937500,-10.23,82.8
210367,2018-06-29 10:34:25.968750,5.82,82.8
210368,2018-06-29 10:34:26.000000,15.1,82.8
210369,2018-06-29 10:34:26.031250,20.17,82.8
210370,2018-06-29 10:34:26.062500,22.03,82.8
210371,2018-06-29 10:34:26.093750,21.78,82.8
210372,2018-06-29 10:34:26.125000,21.23,82.8
210373,2018-06-29 10:34:26.156250,21.21,82.8
210374,2018-06-29 10:34:26.187500,21.31,82.8
210375,2018-06-29 10:34:26.218750,21.73,82.8
210376,2018-06-29 10:34:26.250000,22.99,82.8
210377,2018-06-29 10:34:26.281250,23.01,82.8
210378,2018-06-29 10:34:26.312500,18.75,82.8
210379,2018-06-29 10:34:26.343750,11.05,82.8
210380,2018-06-29 10:34:26.375000,3.92,82.8
210381,2018-06-29 10:34:26.406250,-1.11,82.8
210382,2018-06-29 10:34:26.437500,-6.48,82.8
210383,2018-06-29 10:34:26.468750,-14.02,82.8
210384,2018-06-29 10:34:26.500000,-22.19,82.8
210385,2018-06-29 10:34:26.531250,-28.88,82.98
210386,2018-06-29 10:34:26.562500,-34.66,82.98
210387,2018-06-29 10:34:26.593750,-42.0,82.98
210388,2018-06-29 10:34:26.625000,-51.88,82.98
210389,2018-06-29 10:34:26.656250,-61.1,82.98
210390,2018-06-29 10:34:26.687500,-62.88,82.98
210391,2018-06-29 10:34:26.718750,-52.76,82.98
210392,2018-06-29 10:34:26.750000,-34.17,82.98
210393,2018-06-29 10:34:26.781250,-15.11,82.98
210394,2018-06-29 10:34:26.812500,-0.54,82.98
210395,2018-06-29 10:34:26.843750,8.32,82.98
210396,2018-06-29 10:34:26.875000,10.39,82.98
210397,2018-06-29 10:34:26.906250,5.36,82.98
210398,2018-06-29 10:34:26.937500,-4.54,82.98
210399,2018-06-29 10:34:26.968750,-15.42,82.98
210400,2018-06-29 10:34:27.000000,-25.36,82.98
210401,2018-06-29 10:34:27.031250,-35.73,82.98
210402,2018-06-29 10:34:27.062500,-45.75,82.98
210403,2018-06-29 10:34:27.093750,-48.84,82.98
210404,2018-06-29 10:34:27.125000,-38.81,82.98
210405,2018-06-29 10:34:27.156250,-21.34,82.98
210406,2018-06-29 10:34:27.187500,-10.59,82.98
210407,2018-06-29 10:34:27.218750,-16.07,82.98
210408,2018-06-29 10:34:27.250000,-36.75,82.98
210409,2018-06-29 10:34:27.281250,-68.86,82.98
210410,2018-06-29 10:34:27.312500,-109.06,82.98
210411,2018-06-29 10:34:27.343750,-146.83,82.98
210412,2018-06-29 10:34:27.375000,-167.27,82.98
210413,2018-06-29 10:34:27.406250,-161.88,82.98
210414,2018-06-29 10:34:27.437500,-141.78,82.98
210415,2018-06-29 10:34:27.468750,-118.42,82.98
210416,2018-06-29 10:34:27.500000,-87.85,82.98
210417,2018-06-29 10:34:27.531250,-31.18,82.83
210418,2018-06-29 10:34:27.562500,57.39,82.83
210419,2018-06-29 10:34:27.593750,152.02,82.83
210420,2018-06-29 10:34:27.625000,223.98,82.83
210421,2018-06-29 10:34:27.656250,263.41,82.83
210422,2018-06-29 10:34:27.687500,288.75,82.83
210423,2018-06-29 10:34:27.718750,301.68,82.83
210424,2018-06-29 10:34:27.750000,301.16,82.83
210425,2018-06-29 10:34:27.781250,298.4,82.83
210426,2018-06-29 10:34:27.812500,313.58,82.83
210427,2018-06-29 10:34:27.843750,344.48,82.83
210428,2018-06-29 10:34:27.875000,359.26,82.83
210429,2018-06-29 10:34:27.906250,347.45,82.83
210430,2018-06-29 10:34:27.937500,238.52,82.83
210431,2018-06-29 10:34:27.968750,51.09,82.83
210432,2018-06-29 10:34:28.000000,-89.54,82.83
210433,2018-06-29 10:34:28.031250,-190.52,82.83
210434,2018-06-29 10:34:28.062500,-290.89,82.83
210435,2018-06-29 10:34:28.093750,-372.36,82.83
210436,2018-06-29 10:34:28.125000,-408.97,82.83
210437,2018-06-29 10:34:28.156250,-408.62,82.83
210438,2018-06-29 10:34:28.187500,-370.05,82.83
210439,2018-06-29 10:34:28.218750,-292.5,82.83
210440,2018-06-29 10:34:28.250000,-182.05,82.83
210441,2018-06-29 10:34:28.281250,-80.54,82.83
210442,2018-06-29 10:34:28.312500,-20.88,82.83
210443,2018-06-29 10:34:28.343750,-0.74,82.83
210444,2018-06-29 10:34:28.375000,2.05,82.83
210445,2018-06-29 10:34:28.406250,3.22,82.83
210446,2018-06-29 10:34:28.437500,-8.08,82.83
210447,2018-06-29 10:34:28.468750,-28.95,82.83
210448,2018-06-29 10:34:28.500000,-53.62,82.83
210449,2018-06-29 10:34:28.531250,-70.65,82.67
210450,2018-06-29 10:34:28.562500,-85.65,82.67
210451,2018-06-29 10:34:28.593750,-96.45,82.67
210452,2018-06-29 10:34:28.625000,-90.96,82.67
210453,2018-06-29 10:34:28.656250,-61.97,82.67
210454,2018-06-29 10:34:28.687500,1.92,82.67
210455,2018-06-29 10:34:28.718750,78.4,82.67
210456,2018-06-29 10:34:28.750000,162.88,82.67
210457,2018-06-29 10:34:28.781250,243.75,82.67
210458,2018-06-29 10:34:28.812500,324.13,82.67
210459,2018-06-29 10:34:28.843750,387.9,82.67
210460,2018-06-29 10:34:28.875000,429.08,82.67
210461,2018-06-29 10:34:28.906250,453.94,82.67
210462,2018-06-29 10:34:28.937500,355.81,82.67
210463,2018-06-29 10:34:28.968750,219.7,82.67
210464,2018-06-29 10:34:29.000000,100.9,82.67
210465,2018-06-29 10:34:29.031250,-11.09,82.67
210466,2018-06-29 10:34:29.062500,-109.03,82.67
210467,2018-06-29 10:34:29.093750,-165.5,82.67
210468,2018-06-29 10:34:29.125000,-182.61,82.67
210469,2018-06-29 10:34:29.156250,-176.71,82.67
210470,2018-06-29 10:34:29.187500,-165.3,82.67
210471,2018-06-29 10:34:29.218750,-167.55,82.67
210472,2018-06-29 10:34:29.250000,-180.15,82.67
210473,2018-06-29 10:34:29.281250,-212.51,82.67
210474,2018-06-29 10:34:29.312500,-243.31,82.67
210475,2018-06-29 10:34:29.343750,-255.44,82.67
210476,2018-06-29 10:34:29.375000,-232.99,82.67
210477,2018-06-29 10:34:29.406250,-183.78,82.67
210478,2018-06-29 10:34:29.437500,-122.27,82.67
210479,2018-06-29 10:34:29.468750,-51.81,82.67
210480,2018-06-29 10:34:29.500000,27.0,82.67
210481,2018-06-29 10:34:29.531250,109.96,82.47
210482,2018-06-29 10:34:29.562500,177.98,82.47
210483,2018-06-29 10:34:29.593750,221.05,82.47
210484,2018-06-29 10:34:29.625000,235.1,82.47
210485,2018-06-29 10:34:29.656250,225.83,82.47
210486,2018-06-29 10:34:29.687500,200.75,82.47
210487,2018-06-29 10:34:29.718750,161.68,82.47
210488,2018-06-29 10:34:29.750000,109.83,82.47
210489,2018-06-29 10:34:29.781250,55.62,82.47
210490,2018-06-29 10:34:29.812500,11.91,82.47
210491,2018-06-29 10:34:29.843750,-19.39,82.47
210492,2018-06-29 10:34:29.875000,-42.16,82.47
210493,2018-06-29 10:34:29.906250,-56.93,82.47
210494,2018-06-29 10:34:29.937500,-64.21,82.47
210495,2018-06-29 10:34:29.968750,-68.13,82.47
210496,2018-06-29 10:34:30.000000,-71.75,82.47
210497,2018-06-29 10:34:30.031250,-74.45,82.47
210498,2018-06-29 10:34:30.062500,-75.25,82.47
210499,2018-06-29 10:34:30.093750,-74.59,82.47
210500,2018-06-29 10:34:30.125000,-72.72,82.47
210501,2018-06-29 10:34:30.156250,-69.26,82.47
210502,2018-06-29 10:34:30.187500,-64.42,82.47
210503,2018-06-29 10:34:30.218750,-57.67,82.47
210504,2018-06-29 10:34:30.250000,-44.97,82.47
210505,2018-06-29 10:34:30.281250,-22.83,82.47
210506,2018-06-29 10:34:30.312500,4.59,82.47
210507,2018-06-29 10:34:30.343750,27.5,82.47
210508,2018-06-29 10:34:30.375000,40.21,82.47
210509,2018-06-29 10:34:30.406250,45.46,82.47
210510,2018-06-29 10:34:30.437500,50.73,82.47
210511,2018-06-29 10:34:30.468750,63.01,82.47
210512,2018-06-29 10:34:30.500000,82.35,82.47
210513,2018-06-29 10:34:30.531250,99.15,82.27
210514,2018-06-29 10:34:30.562500,101.99,82.27
210515,2018-06-29 10:34:30.593750,89.11,82.27
210516,2018-06-29 10:34:30.625000,69.02,82.27
210517,2018-06-29 10:34:30.656250,50.45,82.27
210518,2018-06-29 10:34:30.687500,35.69,82.27
210519,2018-06-29 10:34:30.718750,24.04,82.27
210520,2018-06-29 10:34:30.750000,16.09,82.27
210521,2018-06-29 10:34:30.781250,11.73,82.27
210522,2018-06-29 10:34:30.812500,7.7,82.27
210523,2018-06-29 10:34:30.843750,1.41,82.27
210524,2018-06-29 10:34:30.875000,-5.87,82.27
210525,2018-06-29 10:34:30.906250,-12.85,82.27
210526,2018-06-29 10:34:30.937500,-21.76,82.27
210527,2018-06-29 10:34:30.968750,-34.39,82.27
210528,2018-06-29 10:34:31.000000,-49.26,82.27
210529,2018-06-29 10:34:31.031250,-64.67,82.27
210530,2018-06-29 10:34:31.062500,-82.44,82.27
210531,2018-06-29 10:34:31.093750,-104.93,82.27
210532,2018-06-29 10:34:31.125000,-130.61,82.27
210533,2018-06-29 10:34:31.156250,-152.72,82.27
210534,2018-06-29 10:34:31.187500,-160.94,82.27
210535,2018-06-29 10:34:31.218750,-147.9,82.27
210536,2018-06-29 10:34:31.250000,-115.94,82.27
210537,2018-06-29 10:34:31.281250,-78.11,82.27
210538,2018-06-29 10:34:31.312500,-46.51,82.27
210539,2018-06-29 10:34:31.343750,-25.05,82.27
210540,2018-06-29 10:34:31.375000,-10.38,82.27
210541,2018-06-29 10:34:31.406250,-1.21,82.27
210542,2018-06-29 10:34:31.437500,0.13,82.27
210543,2018-06-29 10:34:31.468750,-6.12,82.27
210544,2018-06-29 10:34:31.500000,-15.51,82.27
210545,2018-06-29 10:34:31.531250,-19.83,82.05
210546,2018-06-29 10:34:31.562500,-21.52,82.05
210547,2018-06-29 10:34:31.593750,-25.43,82.05
210548,2018-06-29 10:34:31.625000,-38.04,82.05
210549,2018-06-29 10:34:31.656250,-55.99,82.05
210550,2018-06-29 10:34:31.687500,-68.11,82.05
210551,2018-06-29 10:34:31.718750,-61.55,82.05
210552,2018-06-29 10:34:31.750000,-32.58,82.05
210553,2018-06-29 10:34:31.781250,9.04,82.05
210554,2018-06-29 10:34:31.812500,66.71,82.05
210555,2018-06-29 10:34:31.843750,142.01,82.05
210556,2018-06-29 10:34:31.875000,231.0,82.05
210557,2018-06-29 10:34:31.906250,298.26,82.05
210558,2018-06-29 10:34:31.937500,283.25,82.05
210559,2018-06-29 10:34:31.968750,234.49,82.05
210560,2018-06-29 10:34:32.000000,163.52,82.05
210561,2018-06-29 10:34:32.031250,87.0,82.05
210562,2018-06-29 10:34:32.062500,26.19,82.05
210563,2018-06-29 10:34:32.093750,0.09,82.05
210564,2018-06-29 10:34:32.125000,-5.71,82.05
210565,2018-06-29 10:34:32.156250,-7.93,82.05
210566,2018-06-29 10:34:32.187500,-14.43,82.05
210567,2018-06-29 10:34:32.218750,-19.17,82.05
210568,2018-06-29 10:34:32.250000,-20.74,82.05
210569,2018-06-29 10:34:32.281250,-24.61,82.05
210570,2018-06-29 10:34:32.312500,-30.46,82.05
210571,2018-06-29 10:34:32.343750,-35.33,82.05
210572,2018-06-29 10:34:32.375000,-34.65,82.05
210573,2018-06-29 10:34:32.406250,-32.71,82.05
210574,2018-06-29 10:34:32.437500,-30.99,82.05
210575,2018-06-29 10:34:32.468750,-29.51,82.05
210576,2018-06-29 10:34:32.500000,-26.19,82.05
210577,2018-06-29 10:34:32.531250,-20.79,81.82
210578,2018-06-29 10:34:32.562500,-14.75,81.82
210579,2018-06-29 10:34:32.593750,-8.93,81.82
210580,2018-06-29 10:34:32.625000,-4.84,81.82
210581,2018-06-29 10:34:32.656250,-3.99,81.82
210582,2018-06-29 10:34:32.687500,-6.55,81.82
210583,2018-06-29 10:34:32.718750,-11.54,81.82
210584,2018-06-29 10:34:32.750000,-19.09,81.82
210585,2018-06-29 10:34:32.781250,-30.62,81.82
210586,2018-06-29 10:34:32.812500,-44.9,81.82
210587,2018-06-29 10:34:32.843750,-56.05,81.82
210588,2018-06-29 10:34:32.875000,-59.57,81.82
210589,2018-06-29 10:34:32.906250,-54.17,81.82
