,Time,ppg,hr
217600,2018-06-29 10:38:12.000000,-40.71,59.92
217601,2018-06-29 10:38:12.031250,-50.41,59.92
217602,2018-06-29 10:38:12.062500,-62.95,59.92
217603,2018-06-29 10:38:12.093750,-76.25,59.92
217604,2018-06-29 10:38:12.125000,-82.72,59.92
217605,2018-06-29 10:38:12.156250,-74.26,59.92
217606,2018-06-29 10:38:12.187500,-51.87,59.92
217607,2018-06-29 10:38:12.218750,-25.6,59.92
217608,2018-06-29 10:38:12.250000,-4.0,59.92
217609,2018-06-29 10:38:12.281250,11.73,59.92
217610,2018-06-29 10:38:12.312500,23.3,59.92
217611,2018-06-29 10:38:12.343750,30.72,59.92
217612,2018-06-29 10:38:12.375000,33.84,59.92
217613,2018-06-29 10:38:12.406250,34.23,59.92
217614,2018-06-29 10:38:12.437500,33.5,59.92
217615,2018-06-29 10:38:12.468750,32.01,59.92
217616,2018-06-29 10:38:12.500000,29.97,59.92
217617,2018-06-29 10:38:12.531250,27.51,60.07
217618,2018-06-29 10:38:12.562500,23.55,60.07
217619,2018-06-29 10:38:12.593750,16.89,60.07
217620,2018-06-29 10:38:12.625000,7.68,60.07
217621,2018-06-29 10:38:12.656250,-4.48,60.07
217622,2018-06-29 10:38:12.687500,-20.93,60.07
217623,2018-06-29 10:38:12.718750,-41.56,60.07
217624,2018-06-29 10:38:12.750000,-66.32,60.07
217625,2018-06-29 10:38:12.781250,-98.11,60.07
217626,2018-06-29 10:38:12.812500,-136.11,60.07
217627,2018-06-29 10:38:12.843750,-166.65,60.07
217628,2018-06-29 10:38:12.875000,-170.75,60.07
217629,2018-06-29 10:38:12.906250,-142.98,60.07
217630,2018-06-29 10:38:12.937500,-96.75,60.07
217631,2018-06-29 10:38:12.968750,-51.24,60.07
217632,2018-06-29 10:38:13.000000,-17.39,60.07
217633,2018-06-29 10:38:13.031250,5.54,60.07
217634,2018-06-29 10:38:13.062500,23.34,60.07
217635,2018-06-29 10:38:13.093750,39.57,60.07
217636,2018-06-29 10:38:13.125000,55.59,60.07
217637,2018-06-29 10:38:13.156250,75.31,60.07
217638,2018-06-29 10:38:13.187500,109.04,60.07
217639,2018-06-29 10:38:13.218750,165.69,60.07
217640,2018-06-29 10:38:13.250000,228.67,60.07
217641,2018-06-29 10:38:13.281250,256.99,60.07
217642,2018-06-29 10:38:13.312500,234.98,60.07
217643,2018-06-29 10:38:13.343750,193.08,60.07
217644,2018-06-29 10:38:13.375000,157.25,60.07
217645,2018-06-29 10:38:13.406250,119.78,60.07
217646,2018-06-29 10:38:13.437500,75.83,60.07
217647,2018-06-29 10:38:13.468750,40.06,60.07
217648,2018-06-29 10:38:13.500000,18.27,60.07
217649,2018-06-29 10:38:13.531250,2.66,60.2
217650,2018-06-29 10:38:13.562500,-5.88,60.2
217651,2018-06-29 10:38:13.593750,-0.2,60.2
217652,2018-06-29 10:38:13.625000,14.07,60.2
217653,2018-06-29 10:38:13.656250,20.66,60.2
217654,2018-06-29 10:38:13.687500,10.86,60.2
217655,2018-06-29 10:38:13.718750,-8.93,60.2
217656,2018-06-29 10:38:13.750000,-24.38,60.2
217657,2018-06-29 10:38:13.781250,-25.67,60.2
217658,2018-06-29 10:38:13.812500,-16.35,60.2
217659,2018-06-29 10:38:13.843750,-6.13,60.2
217660,2018-06-29 10:38:13.875000,4.86,60.2
217661,2018-06-29 10:38:13.906250,20.89,60.2
217662,2018-06-29 10:38:13.937500,34.78,60.2
217663,2018-06-29 10:38:13.968750,34.44,60.2
217664,2018-06-29 10:38:14.000000,19.8,60.2
217665,2018-06-29 10:38:14.031250,3.76,60.2
217666,2018-06-29 10:38:14.062500,2.95,60.2
217667,2018-06-29 10:38:14.093750,20.22,60.2
217668,2018-06-29 10:38:14.125000,29.59,60.2
217669,2018-06-29 10:38:14.156250,2.58,60.2
217670,2018-06-29 10:38:14.187500,-52.96,60.2
217671,2018-06-29 10:38:14.218750,-107.7,60.2
217672,2018-06-29 10:38:14.250000,-148.28,60.2
217673,2018-06-29 10:38:14.281250,-172.61,60.2
217674,2018-06-29 10:38:14.312500,-173.13,60.2
217675,2018-06-29 10:38:14.343750,-150.21,60.2
217676,2018-06-29 10:38:14.375000,-121.23,60.2
217677,2018-06-29 10:38:14.406250,-100.41,60.2
217678,2018-06-29 10:38:14.437500,-83.83,60.2
217679,2018-06-29 10:38:14.468750,-62.93,60.2
217680,2018-06-29 10:38:14.500000,-42.55,60.2
217681,2018-06-29 10:38:14.531250,-33.33,60.37
217682,2018-06-29 10:38:14.562500,-33.55,60.37
217683,2018-06-29 10:38:14.593750,-30.93,60.37
217684,2018-06-29 10:38:14.625000,-20.35,60.37
217685,2018-06-29 10:38:14.656250,-8.71,60.37
217686,2018-06-29 10:38:14.687500,-1.75,60.37
217687,2018-06-29 10:38:14.718750,3.61,60.37
217688,2018-06-29 10:38:14.750000,10.15,60.37
217689,2018-06-29 10:38:14.781250,13.74,60.37
217690,2018-06-29 10:38:14.812500,11.02,60.37
217691,2018-06-29 10:38:14.843750,5.59,60.37
217692,2018-06-29 10:38:14.875000,2.33,60.37
217693,2018-06-29 10:38:14.906250,1.37,60.37
217694,2018-06-29 10:38:14.937500,0.14,60.37
217695,2018-06-29 10:38:14.968750,-3.51,60.37
217696,2018-06-29 10:38:15.000000,-10.97,60.37
217697,2018-06-29 10:38:15.031250,-21.65,60.37
217698,2018-06-29 10:38:15.062500,-32.47,60.37
217699,2018-06-29 10:38:15.093750,-41.34,60.37
217700,2018-06-29 10:38:15.125000,-50.32,60.37
217701,2018-06-29 10:38:15.156250,-63.26,60.37
217702,2018-06-29 10:38:15.187500,-79.07,60.37
217703,2018-06-29 10:38:15.218750,-88.02,60.37
217704,2018-06-29 10:38:15.250000,-79.66,60.37
217705,2018-06-29 10:38:15.281250,-55.13,60.37
217706,2018-06-29 10:38:15.312500,-25.86,60.37
217707,2018-06-29 10:38:15.343750,-0.65,60.37
217708,2018-06-29 10:38:15.375000,19.68,60.37
217709,2018-06-29 10:38:15.406250,36.62,60.37
217710,2018-06-29 10:38:15.437500,50.19,60.37
217711,2018-06-29 10:38:15.468750,59.95,60.37
217712,2018-06-29 10:38:15.500000,65.81,60.37
217713,2018-06-29 10:38:15.531250,68.56,60.53
217714,2018-06-29 10:38:15.562500,69.68,60.53
217715,2018-06-29 10:38:15.593750,70.15,60.53
217716,2018-06-29 10:38:15.625000,69.65,60.53
217717,2018-06-29 10:38:15.656250,66.89,60.53
217718,2018-06-29 10:38:15.687500,60.54,60.53
217719,2018-06-29 10:38:15.718750,50.73,60.53
217720,2018-06-29 10:38:15.750000,39.28,60.53
217721,2018-06-29 10:38:15.781250,27.93,60.53
217722,2018-06-29 10:38:15.812500,17.22,60.53
217723,2018-06-29 10:38:15.843750,6.6,60.53
217724,2018-06-29 10:38:15.875000,-5.28,60.53
217725,2018-06-29 10:38:15.906250,-19.32,60.53
217726,2018-06-29 10:38:15.937500,-34.41,60.53
217727,2018-06-29 10:38:15.968750,-48.5,60.53
217728,2018-06-29 10:38:16.000000,-61.81,60.53
217729,2018-06-29 10:38:16.031250,-77.0,60.53
217730,2018-06-29 10:38:16.062500,-95.26,60.53
217731,2018-06-29 10:38:16.093750,-111.97,60.53
217732,2018-06-29 10:38:16.125000,-116.75,60.53
217733,2018-06-29 10:38:16.156250,-101.31,60.53
217734,2018-06-29 10:38:16.187500,-68.92,60.53
217735,2018-06-29 10:38:16.218750,-32.17,60.53
217736,2018-06-29 10:38:16.250000,-1.27,60.53
217737,2018-06-29 10:38:16.281250,21.39,60.53
217738,2018-06-29 10:38:16.312500,37.03,60.53
217739,2018-06-29 10:38:16.343750,46.42,60.53
217740,2018-06-29 10:38:16.375000,49.81,60.53
217741,2018-06-29 10:38:16.406250,48.67,60.53
217742,2018-06-29 10:38:16.437500,46.89,60.53
217743,2018-06-29 10:38:16.468750,48.33,60.53
217744,2018-06-29 10:38:16.500000,52.73,60.53
217745,2018-06-29 10:38:16.531250,56.99,60.7
217746,2018-06-29 10:38:16.562500,59.52,60.7
217747,2018-06-29 10:38:16.593750,59.85,60.7
217748,2018-06-29 10:38:16.625000,56.08,60.7
217749,2018-06-29 10:38:16.656250,47.31,60.7
217750,2018-06-29 10:38:16.687500,37.65,60.7
217751,2018-06-29 10:38:16.718750,32.69,60.7
217752,2018-06-29 10:38:16.750000,30.3,60.7
217753,2018-06-29 10:38:16.781250,20.67,60.7
217754,2018-06-29 10:38:16.812500,-2.0,60.7
217755,2018-06-29 10:38:16.843750,-32.9,60.7
217756,2018-06-29 10:38:16.875000,-61.81,60.7
217757,2018-06-29 10:38:16.906250,-79.49,60.7
217758,2018-06-29 10:38:16.937500,-82.29,60.7
217759,2018-06-29 10:38:16.968750,-76.95,60.7
217760,2018-06-29 10:38:17.000000,-73.28,60.7
217761,2018-06-29 10:38:17.031250,-68.32,60.7
217762,2018-06-29 10:38:17.062500,-52.23,60.7
217763,2018-06-29 10:38:17.093750,-29.75,60.7
217764,2018-06-29 10:38:17.125000,-16.3,60.7
217765,2018-06-29 10:38:17.156250,-11.66,60.7
217766,2018-06-29 10:38:17.187500,4.23,60.7
217767,2018-06-29 10:38:17.218750,47.14,60.7
217768,2018-06-29 10:38:17.250000,112.82,60.7
217769,2018-06-29 10:38:17.281250,185.31,60.7
217770,2018-06-29 10:38:17.312500,250.62,60.7
217771,2018-06-29 10:38:17.343750,298.81,60.7
217772,2018-06-29 10:38:17.375000,321.25,60.7
217773,2018-06-29 10:38:17.406250,314.61,60.7
217774,2018-06-29 10:38:17.437500,280.7,60.7
217775,2018-06-29 10:38:17.468750,218.21,60.7
217776,2018-06-29 10:38:17.500000,126.88,60.7
217777,2018-06-29 10:38:17.531250,24.06,60.9
217778,2018-06-29 10:38:17.562500,-60.46,60.9
217779,2018-06-29 10:38:17.593750,-113.31,60.9
217780,2018-06-29 10:38:17.625000,-144.17,60.9
217781,2018-06-29 10:38:17.656250,-162.5,60.9
217782,2018-06-29 10:38:17.687500,-166.53,60.9
217783,2018-06-29 10:38:17.718750,-154.59,60.9
217784,2018-06-29 10:38:17.750000,-131.34,60.9
217785,2018-06-29 10:38:17.781250,-102.47,60.9
217786,2018-06-29 10:38:17.812500,-71.99,60.9
217787,2018-06-29 10:38:17.843750,-42.44,60.9
217788,2018-06-29 10:38:17.875000,-13.26,60.9
217789,2018-06-29 10:38:17.906250,18.94,60.9
217790,2018-06-29 10:38:17.937500,55.24,60.9
217791,2018-06-29 10:38:17.968750,89.97,60.9
217792,2018-06-29 10:38:18.000000,114.58,60.9
217793,2018-06-29 10:38:18.031250,124.66,60.9
217794,2018-06-29 10:38:18.062500,119.8,60.9
217795,2018-06-29 10:38:18.093750,99.76,60.9
217796,2018-06-29 10:38:18.125000,65.01,60.9
217797,2018-06-29 10:38:18.156250,18.66,60.9
217798,2018-06-29 10:38:18.187500,-32.27,60.9
217799,2018-06-29 10:38:18.218750,-76.37,60.9
217800,2018-06-29 10:38:18.250000,-103.31,60.9
217801,2018-06-29 10:38:18.281250,-112.35,60.9
217802,2018-06-29 10:38:18.312500,-109.82,60.9
217803,2018-06-29 10:38:18.343750,-99.33,60.9
217804,2018-06-29 10:38:18.375000,-80.97,60.9
217805,2018-06-29 10:38:18.406250,-57.33,60.9
217806,2018-06-29 10:38:18.437500,-34.12,60.9
217807,2018-06-29 10:38:18.468750,-16.64,60.9
217808,2018-06-29 10:38:18.500000,-7.87,60.9
217809,2018-06-29 10:38:18.531250,-6.91,61.12
217810,2018-06-29 10:38:18.562500,-7.75,61.12
217811,2018-06-29 10:38:18.593750,-1.85,61.12
217812,2018-06-29 10:38:18.625000,15.54,61.12
217813,2018-06-29 10:38:18.656250,41.01,61.12
217814,2018-06-29 10:38:18.687500,66.25,61.12
217815,2018-06-29 10:38:18.718750,85.39,61.12
217816,2018-06-29 10:38:18.750000,97.77,61.12
217817,2018-06-29 10:38:18.781250,103.92,61.12
217818,2018-06-29 10:38:18.812500,102.68,61.12
217819,2018-06-29 10:38:18.843750,93.23,61.12
217820,2018-06-29 10:38:18.875000,78.17,61.12
217821,2018-06-29 10:38:18.906250,61.99,61.12
217822,2018-06-29 10:38:18.937500,46.19,61.12
217823,2018-06-29 10:38:18.968750,28.48,61.12
217824,2018-06-29 10:38:19.000000,7.59,61.12
217825,2018-06-29 10:38:19.031250,-13.93,61.12
217826,2018-06-29 10:38:19.062500,-32.74,61.12
217827,2018-06-29 10:38:19.093750,-49.04,61.12
217828,2018-06-29 10:38:19.125000,-65.72,61.12
217829,2018-06-29 10:38:19.156250,-83.66,61.12
217830,2018-06-29 10:38:19.187500,-99.3,61.12
217831,2018-06-29 10:38:19.218750,-105.71,61.12
217832,2018-06-29 10:38:19.250000,-96.73,61.12
217833,2018-06-29 10:38:19.281250,-73.84,61.12
217834,2018-06-29 10:38:19.312500,-47.21,61.12
217835,2018-06-29 10:38:19.343750,-26.05,61.12
217836,2018-06-29 10:38:19.375000,-11.0,61.12
217837,2018-06-29 10:38:19.406250,0.27,61.12
217838,2018-06-29 10:38:19.437500,6.23,61.12
217839,2018-06-29 10:38:19.468750,5.35,61.12
217840,2018-06-29 10:38:19.500000,1.34,61.12
217841,2018-06-29 10:38:19.531250,-0.07,61.35
217842,2018-06-29 10:38:19.562500,2.68,61.35
217843,2018-06-29 10:38:19.593750,6.32,61.35
217844,2018-06-29 10:38:19.625000,6.52,61.35
217845,2018-06-29 10:38:19.656250,1.31,61.35
217846,2018-06-29 10:38:19.687500,-8.26,61.35
217847,2018-06-29 10:38:19.718750,-19.52,61.35
217848,2018-06-29 10:38:19.750000,-29.74,61.35
217849,2018-06-29 10:38:19.781250,-37.14,61.35
217850,2018-06-29 10:38:19.812500,-41.96,61.35
217851,2018-06-29 10:38:19.843750,-45.59,61.35
217852,2018-06-29 10:38:19.875000,-47.91,61.35
217853,2018-06-29 10:38:19.906250,-48.75,61.35
217854,2018-06-29 10:38:19.937500,-50.99,61.35
217855,2018-06-29 10:38:19.968750,-56.29,61.35
217856,2018-06-29 10:38:20.000000,-59.34,61.35
217857,2018-06-29 10:38:20.031250,-53.06,61.35
217858,2018-06-29 10:38:20.062500,-37.71,61.35
217859,2018-06-29 10:38:20.093750,-20.34,61.35
217860,2018-06-29 10:38:20.125000,-7.09,61.35
217861,2018-06-29 10:38:20.156250,2.48,61.35
217862,2018-06-29 10:38:20.187500,15.15,61.35
217863,2018-06-29 10:38:20.218750,36.77,61.35
217864,2018-06-29 10:38:20.250000,64.42,61.35
217865,2018-06-29 10:38:20.281250,90.0,61.35
217866,2018-06-29 10:38:20.312500,110.42,61.35
217867,2018-06-29 10:38:20.343750,127.43,61.35
217868,2018-06-29 10:38:20.375000,138.29,61.35
217869,2018-06-29 10:38:20.406250,136.52,61.35
217870,2018-06-29 10:38:20.437500,124.27,61.35
217871,2018-06-29 10:38:20.468750,114.46,61.35
217872,2018-06-29 10:38:20.500000,116.99,61.35
217873,2018-06-29 10:38:20.531250,129.84,61.58
217874,2018-06-29 10:38:20.562500,144.85,61.58
217875,2018-06-29 10:38:20.593750,151.91,61.58
217876,2018-06-29 10:38:20.625000,135.74,61.58
217877,2018-06-29 10:38:20.656250,85.39,61.58
217878,2018-06-29 10:38:20.687500,8.55,61.58
217879,2018-06-29 10:38:20.718750,-76.7,61.58
217880,2018-06-29 10:38:20.750000,-158.24,61.58
217881,2018-06-29 10:38:20.781250,-222.87,61.58
217882,2018-06-29 10:38:20.812500,-250.83,61.58
217883,2018-06-29 10:38:20.843750,-237.13,61.58
217884,2018-06-29 10:38:20.875000,-202.1,61.58
217885,2018-06-29 10:38:20.906250,-168.51,61.58
217886,2018-06-29 10:38:20.937500,-143.96,61.58
217887,2018-06-29 10:38:20.968750,-128.18,61.58
217888,2018-06-29 10:38:21.000000,-120.97,61.58
217889,2018-06-29 10:38:21.031250,-118.36,61.58
217890,2018-06-29 10:38:21.062500,-113.66,61.58
217891,2018-06-29 10:38:21.093750,-105.55,61.58
217892,2018-06-29 10:38:21.125000,-98.37,61.58
217893,2018-06-29 10:38:21.156250,-92.47,61.58
217894,2018-06-29 10:38:21.187500,-79.95,61.58
217895,2018-06-29 10:38:21.218750,-54.44,61.58
217896,2018-06-29 10:38:21.250000,-21.8,61.58
217897,2018-06-29 10:38:21.281250,3.57,61.58
217898,2018-06-29 10:38:21.312500,12.69,61.58
217899,2018-06-29 10:38:21.343750,9.02,61.58
217900,2018-06-29 10:38:21.375000,2.89,61.58
217901,2018-06-29 10:38:21.406250,2.66,61.58
217902,2018-06-29 10:38:21.437500,10.71,61.58
217903,2018-06-29 10:38:21.468750,23.71,61.58
217904,2018-06-29 10:38:21.500000,37.83,61.58
217905,2018-06-29 10:38:21.531250,52.94,61.83
217906,2018-06-29 10:38:21.562500,68.6,61.83
217907,2018-06-29 10:38:21.593750,80.38,61.83
217908,2018-06-29 10:38:21.625000,85.48,61.83
217909,2018-06-29 10:38:21.656250,86.07,61.83
217910,2018-06-29 10:38:21.687500,83.08,61.83
217911,2018-06-29 10:38:21.718750,75.55,61.83
217912,2018-06-29 10:38:21.750000,65.77,61.83
217913,2018-06-29 10:38:21.781250,54.12,61.83
217914,2018-06-29 10:38:21.812500,34.51,61.83
217915,2018-06-29 10:38:21.843750,6.99,61.83
217916,2018-06-29 10:38:21.875000,-14.86,61.83
217917,2018-06-29 10:38:21.906250,-20.16,61.83
217918,2018-06-29 10:38:21.937500,-14.08,61.83
217919,2018-06-29 10:38:21.968750,-7.87,61.83
217920,2018-06-29 10:38:22.000000,-6.74,61.83
217921,2018-06-29 10:38:22.031250,-11.59,61.83
217922,2018-06-29 10:38:22.062500,-22.85,61.83
217923,2018-06-29 10:38:22.093750,-38.46,61.83
217924,2018-06-29 10:38:22.125000,-53.63,61.83
217925,2018-06-29 10:38:22.156250,-66.28,61.83
217926,2018-06-29 10:38:22.187500,-79.11,61.83
217927,2018-06-29 10:38:22.218750,-91.2,61.83
217928,2018-06-29 10:38:22.250000,-93.23,61.83
217929,2018-06-29 10:38:22.281250,-79.65,61.83
217930,2018-06-29 10:38:22.312500,-58.77,61.83
217931,2018-06-29 10:38:22.343750,-41.39,61.83
217932,2018-06-29 10:38:22.375000,-27.27,61.83
217933,2018-06-29 10:38:22.406250,-11.44,61.83
217934,2018-06-29 10:38:22.437500,5.24,61.83
217935,2018-06-29 10:38:22.468750,20.05,61.83
217936,2018-06-29 10:38:22.500000,34.47,61.83
217937,2018-06-29 10:38:22.531250,50.08,62.18
217938,2018-06-29 10:38:22.562500,63.92,62.18
217939,2018-06-29 10:38:22.593750,72.32,62.18
217940,2018-06-29 10:38:22.625000,75.39,62.18
217941,2018-06-29 10:38:22.656250,74.11,62.18
217942,2018-06-29 10:38:22.687500,66.52,62.18
217943,2018-06-29 10:38:22.718750,50.49,62.18
217944,2018-06-29 10:38:22.750000,27.74,62.18
217945,2018-06-29 10:38:22.781250,3.29,62.18
217946,2018-06-29 10:38:22.812500,-17.77,62.18
217947,2018-06-29 10:38:22.843750,-32.41,62.18
217948,2018-06-29 10:38:22.875000,-40.18,62.18
217949,2018-06-29 10:38:22.906250,-42.93,62.18
217950,2018-06-29 10:38:22.937500,-44.37,62.18
217951,2018-06-29 10:38:22.968750,-47.61,62.18
217952,2018-06-29 10:38:23.000000,-51.96,62.18
217953,2018-06-29 10:38:23.031250,-54.76,62.18
217954,2018-06-29 10:38:23.062500,-56.64,62.18
217955,2018-06-29 10:38:23.093750,-61.26,62.18
217956,2018-06-29 10:38:23.125000,-70.64,62.18
217957,2018-06-29 10:38:23.156250,-83.27,62.18
217958,2018-06-29 10:38:23.187500,-93.69,62.18
217959,2018-06-29 10:38:23.218750,-92.56,62.18
217960,2018-06-29 10:38:23.250000,-74.51,62.18
217961,2018-06-29 10:38:23.281250,-46.12,62.18
217962,2018-06-29 10:38:23.312500,-18.59,62.18
217963,2018-06-29 10:38:23.343750,5.37,62.18
217964,2018-06-29 10:38:23.375000,28.94,62.18
217965,2018-06-29 10:38:23.406250,50.97,62.18
217966,2018-06-29 10:38:23.437500,67.34,62.18
217967,2018-06-29 10:38:23.468750,77.82,62.18
217968,2018-06-29 10:38:23.500000,84.58,62.18
217969,2018-06-29 10:38:23.531250,87.51,62.55
217970,2018-06-29 10:38:23.562500,85.46,62.55
217971,2018-06-29 10:38:23.593750,79.0,62.55
217972,2018-06-29 10:38:23.625000,69.4,62.55
217973,2018-06-29 10:38:23.656250,57.29,62.55
217974,2018-06-29 10:38:23.687500,43.68,62.55
217975,2018-06-29 10:38:23.718750,30.95,62.55
217976,2018-06-29 10:38:23.750000,21.74,62.55
217977,2018-06-29 10:38:23.781250,17.38,62.55
217978,2018-06-29 10:38:23.812500,16.47,62.55
217979,2018-06-29 10:38:23.843750,15.79,62.55
217980,2018-06-29 10:38:23.875000,13.29,62.55
217981,2018-06-29 10:38:23.906250,9.45,62.55
217982,2018-06-29 10:38:23.937500,4.44,62.55
217983,2018-06-29 10:38:23.968750,-3.95,62.55
217984,2018-06-29 10:38:24.000000,-18.97,62.55
217985,2018-06-29 10:38:24.031250,-42.26,62.55
217986,2018-06-29 10:38:24.062500,-69.5,62.55
217987,2018-06-29 10:38:24.093750,-88.3,62.55
217988,2018-06-29 10:38:24.125000,-87.07,62.55
217989,2018-06-29 10:38:24.156250,-68.19,62.55
217990,2018-06-29 10:38:24.187500,-45.21,62.55
217991,2018-06-29 10:38:24.218750,-26.6,62.55
217992,2018-06-29 10:38:24.250000,-10.25,62.55
217993,2018-06-29 10:38:24.281250,6.17,62.55
217994,2018-06-29 10:38:24.312500,18.35,62.55
217995,2018-06-29 10:38:24.343750,22.02,62.55
217996,2018-06-29 10:38:24.375000,20.0,62.55
217997,2018-06-29 10:38:24.406250,16.93,62.55
217998,2018-06-29 10:38:24.437500,11.18,62.55
217999,2018-06-29 10:38:24.468750,-2.98,62.55
218000,2018-06-29 10:38:24.500000,-25.34,62.55
218001,2018-06-29 10:38:24.531250,-43.93,62.87
218002,2018-06-29 10:38:24.562500,-40.57,62.87
218003,2018-06-29 10:38:24.593750,-5.55,62.87
218004,2018-06-29 10:38:24.625000,54.0,62.87
218005,2018-06-29 10:38:24.656250,120.53,62.87
218006,2018-06-29 10:38:24.687500,176.02,62.87
218007,2018-06-29 10:38:24.718750,207.4,62.87
218008,2018-06-29 10:38:24.750000,210.92,62.87
218009,2018-06-29 10:38:24.781250,191.96,62.87
218010,2018-06-29 10:38:24.812500,156.85,62.87
218011,2018-06-29 10:38:24.843750,107.89,62.87
218012,2018-06-29 10:38:24.875000,48.34,62.87
218013,2018-06-29 10:38:24.906250,-11.97,62.87
218014,2018-06-29 10:38:24.937500,-57.23,62.87
218015,2018-06-29 10:38:24.968750,-74.72,62.87
218016,2018-06-29 10:38:25.000000,-66.96,62.87
218017,2018-06-29 10:38:25.031250,-50.27,62.87
218018,2018-06-29 10:38:25.062500,-37.91,62.87
218019,2018-06-29 10:38:25.093750,-29.74,62.87
218020,2018-06-29 10:38:25.125000,-20.3,62.87
218021,2018-06-29 10:38:25.156250,-9.19,62.87
218022,2018-06-29 10:38:25.187500,0.08,62.87
218023,2018-06-29 10:38:25.218750,7.51,62.87
218024,2018-06-29 10:38:25.250000,18.19,62.87
218025,2018-06-29 10:38:25.281250,35.21,62.87
218026,2018-06-29 10:38:25.312500,54.36,62.87
218027,2018-06-29 10:38:25.343750,69.65,62.87
218028,2018-06-29 10:38:25.375000,82.3,62.87
218029,2018-06-29 10:38:25.406250,98.62,62.87
218030,2018-06-29 10:38:25.437500,118.7,62.87
218031,2018-06-29 10:38:25.468750,132.89,62.87
218032,2018-06-29 10:38:25.500000,132.49,62.87
218033,2018-06-29 10:38:25.531250,119.64,63.17
218034,2018-06-29 10:38:25.562500,103.25,63.17
218035,2018-06-29 10:38:25.593750,87.51,63.17
218036,2018-06-29 10:38:25.625000,65.48,63.17
218037,2018-06-29 10:38:25.656250,22.89,63.17
218038,2018-06-29 10:38:25.687500,-45.6,63.17
218039,2018-06-29 10:38:25.718750,-120.98,63.17
218040,2018-06-29 10:38:25.750000,-174.75,63.17
218041,2018-06-29 10:38:25.781250,-204.53,63.17
218042,2018-06-29 10:38:25.812500,-231.68,63.17
218043,2018-06-29 10:38:25.843750,-257.69,63.17
218044,2018-06-29 10:38:25.875000,-255.9,63.17
218045,2018-06-29 10:38:25.906250,-213.48,63.17
218046,2018-06-29 10:38:25.937500,-149.82,63.17
218047,2018-06-29 10:38:25.968750,-88.8,63.17
218048,2018-06-29 10:38:26.000000,-40.23,63.17
218049,2018-06-29 10:38:26.031250,-6.88,63.17
218050,2018-06-29 10:38:26.062500,12.56,63.17
218051,2018-06-29 10:38:26.093750,26.48,63.17
218052,2018-06-29 10:38:26.125000,42.43,63.17
218053,2018-06-29 10:38:26.156250,58.19,63.17
218054,2018-06-29 10:38:26.187500,67.12,63.17
218055,2018-06-29 10:38:26.218750,68.72,63.17
218056,2018-06-29 10:38:26.250000,68.55,63.17
218057,2018-06-29 10:38:26.281250,70.22,63.17
218058,2018-06-29 10:38:26.312500,71.04,63.17
218059,2018-06-29 10:38:26.343750,66.9,63.17
218060,2018-06-29 10:38:26.375000,60.44,63.17
218061,2018-06-29 10:38:26.406250,61.02,63.17
218062,2018-06-29 10:38:26.437500,75.6,63.17
218063,2018-06-29 10:38:26.468750,104.19,63.17
218064,2018-06-29 10:38:26.500000,139.82,63.17
218065,2018-06-29 10:38:26.531250,164.46,63.47
218066,2018-06-29 10:38:26.562500,156.46,63.47
218067,2018-06-29 10:38:26.593750,114.26,63.47
218068,2018-06-29 10:38:26.625000,60.58,63.47
218069,2018-06-29 10:38:26.656250,16.33,63.47
218070,2018-06-29 10:38:26.687500,-15.25,63.47
218071,2018-06-29 10:38:26.718750,-38.72,63.47
218072,2018-06-29 10:38:26.750000,-59.04,63.47
218073,2018-06-29 10:38:26.781250,-81.93,63.47
218074,2018-06-29 10:38:26.812500,-106.63,63.47
218075,2018-06-29 10:38:26.843750,-120.82,63.47
218076,2018-06-29 10:38:26.875000,-112.97,63.47
218077,2018-06-29 10:38:26.906250,-87.28,63.47
218078,2018-06-29 10:38:26.937500,-58.64,63.47
218079,2018-06-29 10:38:26.968750,-35.82,63.47
218080,2018-06-29 10:38:27.000000,-16.91,63.47
218081,2018-06-29 10:38:27.031250,0.78,63.47
218082,2018-06-29 10:38:27.062500,14.67,63.47
218083,2018-06-29 10:38:27.093750,21.54,63.47
218084,2018-06-29 10:38:27.125000,23.09,63.47
218085,2018-06-29 10:38:27.156250,23.94,63.47
218086,2018-06-29 10:38:27.187500,26.61,63.47
218087,2018-06-29 10:38:27.218750,30.9,63.47
218088,2018-06-29 10:38:27.250000,36.14,63.47
218089,2018-06-29 10:38:27.281250,41.04,63.47
218090,2018-06-29 10:38:27.312500,43.34,63.47
218091,2018-06-29 10:38:27.343750,42.09,63.47
218092,2018-06-29 10:38:27.375000,38.18,63.47
218093,2018-06-29 10:38:27.406250,32.16,63.47
218094,2018-06-29 10:38:27.437500,24.23,63.47
218095,2018-06-29 10:38:27.468750,16.49,63.47
218096,2018-06-29 10:38:27.500000,11.74,63.47
218097,2018-06-29 10:38:27.531250,10.12,63.73
218098,2018-06-29 10:38:27.562500,9.34,63.73
218099,2018-06-29 10:38:27.593750,7.77,63.73
218100,2018-06-29 10:38:27.625000,5.44,63.73
218101,2018-06-29 10:38:27.656250,2.19,63.73
218102,2018-06-29 10:38:27.687500,-3.37,63.73
218103,2018-06-29 10:38:27.718750,-12.12,63.73
218104,2018-06-29 10:38:27.750000,-22.86,63.73
218105,2018-06-29 10:38:27.781250,-34.23,63.73
218106,2018-06-29 10:38:27.812500,-47.11,63.73
218107,2018-06-29 10:38:27.843750,-62.21,63.73
218108,2018-06-29 10:38:27.875000,-76.86,63.73
218109,2018-06-29 10:38:27.906250,-87.1,63.73
218110,2018-06-29 10:38:27.937500,-92.22,63.73
218111,2018-06-29 10:38:27.968750,-94.75,63.73
218112,2018-06-29 10:38:28.000000,-96.71,63.73
218113,2018-06-29 10:38:28.031250,-96.89,63.73
218114,2018-06-29 10:38:28.062500,-90.39,63.73
218115,2018-06-29 10:38:28.093750,-72.81,63.73
218116,2018-06-29 10:38:28.125000,-46.66,63.73
218117,2018-06-29 10:38:28.156250,-21.08,63.73
218118,2018-06-29 10:38:28.187500,-2.81,63.73
218119,2018-06-29 10:38:28.218750,8.82,63.73
218120,2018-06-29 10:38:28.250000,17.05,63.73
218121,2018-06-29 10:38:28.281250,22.56,63.73
218122,2018-06-29 10:38:28.312500,24.79,63.73
218123,2018-06-29 10:38:28.343750,25.06,63.73
218124,2018-06-29 10:38:28.375000,26.87,63.73
218125,2018-06-29 10:38:28.406250,32.87,63.73
218126,2018-06-29 10:38:28.437500,42.58,63.73
218127,2018-06-29 10:38:28.468750,52.81,63.73
218128,2018-06-29 10:38:28.500000,59.82,63.73
218129,2018-06-29 10:38:28.531250,61.72,64.02
218130,2018-06-29 10:38:28.562500,59.62,64.02
218131,2018-06-29 10:38:28.593750,55.96,64.02
218132,2018-06-29 10:38:28.625000,51.76,64.02
218133,2018-06-29 10:38:28.656250,45.84,64.02
218134,2018-06-29 10:38:28.687500,36.45,64.02
218135,2018-06-29 10:38:28.718750,23.66,64.02
218136,2018-06-29 10:38:28.750000,11.04,64.02
218137,2018-06-29 10:38:28.781250,4.41,64.02
218138,2018-06-29 10:38:28.812500,7.95,64.02
218139,2018-06-29 10:38:28.843750,22.75,64.02
218140,2018-06-29 10:38:28.875000,47.47,64.02
218141,2018-06-29 10:38:28.906250,77.14,64.02
218142,2018-06-29 10:38:28.937500,103.52,64.02
218143,2018-06-29 10:38:28.968750,121.73,64.02
218144,2018-06-29 10:38:29.000000,132.49,64.02
218145,2018-06-29 10:38:29.031250,132.13,64.02
218146,2018-06-29 10:38:29.062500,107.45,64.02
218147,2018-06-29 10:38:29.093750,50.1,64.02
218148,2018-06-29 10:38:29.125000,-28.85,64.02
218149,2018-06-29 10:38:29.156250,-104.13,64.02
218150,2018-06-29 10:38:29.187500,-151.84,64.02
218151,2018-06-29 10:38:29.218750,-160.4,64.02
218152,2018-06-29 10:38:29.250000,-135.88,64.02
218153,2018-06-29 10:38:29.281250,-98.19,64.02
218154,2018-06-29 10:38:29.312500,-66.44,64.02
218155,2018-06-29 10:38:29.343750,-46.29,64.02
218156,2018-06-29 10:38:29.375000,-33.07,64.02
218157,2018-06-29 10:38:29.406250,-23.6,64.02
218158,2018-06-29 10:38:29.437500,-19.57,64.02
218159,2018-06-29 10:38:29.468750,-21.06,64.02
218160,2018-06-29 10:38:29.500000,-23.55,64.02
218161,2018-06-29 10:38:29.531250,-21.89,64.32
218162,2018-06-29 10:38:29.562500,-12.85,64.32
218163,2018-06-29 10:38:29.593750,3.58,64.32
218164,2018-06-29 10:38:29.625000,21.65,64.32
218165,2018-06-29 10:38:29.656250,32.43,64.32
218166,2018-06-29 10:38:29.687500,31.18,64.32
218167,2018-06-29 10:38:29.718750,19.86,64.32
218168,2018-06-29 10:38:29.750000,3.34,64.32
218169,2018-06-29 10:38:29.781250,-14.64,64.32
218170,2018-06-29 10:38:29.812500,-31.35,64.32
218171,2018-06-29 10:38:29.843750,-44.25,64.32
218172,2018-06-29 10:38:29.875000,-52.77,64.32
218173,2018-06-29 10:38:29.906250,-58.44,64.32
218174,2018-06-29 10:38:29.937500,-61.55,64.32
218175,2018-06-29 10:38:29.968750,-60.79,64.32
218176,2018-06-29 10:38:30.000000,-56.87,64.32
218177,2018-06-29 10:38:30.031250,-53.75,64.32
218178,2018-06-29 10:38:30.062500,-54.51,64.32
218179,2018-06-29 10:38:30.093750,-56.52,64.32
218180,2018-06-29 10:38:30.125000,-52.54,64.32
218181,2018-06-29 10:38:30.156250,-40.06,64.32
218182,2018-06-29 10:38:30.187500,-26.08,64.32
218183,2018-06-29 10:38:30.218750,-18.28,64.32
218184,2018-06-29 10:38:30.250000,-16.1,64.32
218185,2018-06-29 10:38:30.281250,-14.56,64.32
218186,2018-06-29 10:38:30.312500,-11.5,64.32
218187,2018-06-29 10:38:30.343750,-7.56,64.32
218188,2018-06-29 10:38:30.375000,-2.7,64.32
218189,2018-06-29 10:38:30.406250,3.66,64.32
218190,2018-06-29 10:38:30.437500,10.61,64.32
218191,2018-06-29 10:38:30.468750,16.44,64.32
218192,2018-06-29 10:38:30.500000,19.44,64.32
218193,2018-06-29 10:38:30.531250,16.51,64.65
218194,2018-06-29 10:38:30.562500,5.33,64.65
218195,2018-06-29 10:38:30.593750,-10.64,64.65
218196,2018-06-29 10:38:30.625000,-23.99,64.65
218197,2018-06-29 10:38:30.656250,-30.36,64.65
218198,2018-06-29 10:38:30.687500,-30.12,64.65
218199,2018-06-29 10:38:30.718750,-25.22,64.65
218200,2018-06-29 10:38:30.750000,-17.67,64.65
218201,2018-06-29 10:38:30.781250,-9.37,64.65
218202,2018-06-29 10:38:30.812500,-1.76,64.65
218203,2018-06-29 10:38:30.843750,3.6,64.65
218204,2018-06-29 10:38:30.875000,4.58,64.65
218205,2018-06-29 10:38:30.906250,0.22,64.65
218206,2018-06-29 10:38:30.937500,-7.32,64.65
218207,2018-06-29 10:38:30.968750,-14.7,64.65
218208,2018-06-29 10:38:31.000000,-21.29,64.65
218209,2018-06-29 10:38:31.031250,-29.49,64.65
218210,2018-06-29 10:38:31.062500,-40.63,64.65
218211,2018-06-29 10:38:31.093750,-50.62,64.65
218212,2018-06-29 10:38:31.125000,-51.33,64.65
218213,2018-06-29 10:38:31.156250,-39.09,64.65
218214,2018-06-29 10:38:31.187500,-20.25,64.65
218215,2018-06-29 10:38:31.218750,-4.45,64.65
218216,2018-06-29 10:38:31.250000,5.15,64.65
218217,2018-06-29 10:38:31.281250,11.61,64.65
218218,2018-06-29 10:38:31.312500,18.08,64.65
218219,2018-06-29 10:38:31.343750,25.51,64.65
218220,2018-06-29 10:38:31.375000,33.41,64.65
218221,2018-06-29 10:38:31.406250,40.66,64.65
218222,2018-06-29 10:38:31.437500,46.3,64.65
218223,2018-06-29 10:38:31.468750,50.15,64.65
218224,2018-06-29 10:38:31.500000,52.19,64.65
218225,2018-06-29 10:38:31.531250,52.15,64.88
218226,2018-06-29 10:38:31.562500,50.03,64.88
218227,2018-06-29 10:38:31.593750,46.4,64.88
218228,2018-06-29 10:38:31.625000,41.66,64.88
218229,2018-06-29 10:38:31.656250,35.48,64.88
218230,2018-06-29 10:38:31.687500,28.19,64.88
218231,2018-06-29 10:38:31.718750,21.08,64.88
218232,2018-06-29 10:38:31.750000,14.43,64.88
218233,2018-06-29 10:38:31.781250,7.29,64.88
218234,2018-06-29 10:38:31.812500,-0.46,64.88
218235,2018-06-29 10:38:31.843750,-7.88,64.88
218236,2018-06-29 10:38:31.875000,-14.97,64.88
218237,2018-06-29 10:38:31.906250,-22.55,64.88
218238,2018-06-29 10:38:31.937500,-30.85,64.88
218239,2018-06-29 10:38:31.968750,-39.84,64.88
218240,2018-06-29 10:38:32.000000,-49.39,64.88
218241,2018-06-29 10:38:32.031250,-58.77,64.88
218242,2018-06-29 10:38:32.062500,-68.1,64.88
218243,2018-06-29 10:38:32.093750,-79.25,64.88
218244,2018-06-29 10:38:32.125000,-92.77,64.88
218245,2018-06-29 10:38:32.156250,-103.23,64.88
218246,2018-06-29 10:38:32.187500,-100.29,64.88
218247,2018-06-29 10:38:32.218750,-78.35,64.88
218248,2018-06-29 10:38:32.250000,-44.18,64.88
218249,2018-06-29 10:38:32.281250,-11.02,64.88
218250,2018-06-29 10:38:32.312500,14.18,64.88
218251,2018-06-29 10:38:32.343750,34.22,64.88
218252,2018-06-29 10:38:32.375000,53.77,64.88
218253,2018-06-29 10:38:32.406250,74.55,64.88
218254,2018-06-29 10:38:32.437500,97.68,64.88
218255,2018-06-29 10:38:32.468750,123.91,64.88
218256,2018-06-29 10:38:32.500000,151.09,64.88
218257,2018-06-29 10:38:32.531250,176.67,65.15
218258,2018-06-29 10:38:32.562500,200.14,65.15
218259,2018-06-29 10:38:32.593750,216.61,65.15
218260,2018-06-29 10:38:32.625000,215.07,65.15
218261,2018-06-29 10:38:32.656250,189.81,65.15
218262,2018-06-29 10:38:32.687500,148.19,65.15
218263,2018-06-29 10:38:32.718750,106.17,65.15
218264,2018-06-29 10:38:32.750000,80.01,65.15
218265,2018-06-29 10:38:32.781250,73.71,65.15
218266,2018-06-29 10:38:32.812500,69.67,65.15
218267,2018-06-29 10:38:32.843750,44.81,65.15
218268,2018-06-29 10:38:32.875000,-1.76,65.15
218269,2018-06-29 10:38:32.906250,-49.57,65.15
218270,2018-06-29 10:38:32.937500,-81.53,65.15
218271,2018-06-29 10:38:32.968750,-93.96,65.15
218272,2018-06-29 10:38:33.000000,-87.7,65.15
218273,2018-06-29 10:38:33.031250,-65.15,65.15
218274,2018-06-29 10:38:33.062500,-34.16,65.15
218275,2018-06-29 10:38:33.093750,-4.45,65.15
218276,2018-06-29 10:38:33.125000,18.7,65.15
218277,2018-06-29 10:38:33.156250,35.72,65.15
218278,2018-06-29 10:38:33.187500,51.5,65.15
218279,2018-06-29 10:38:33.218750,74.63,65.15
218280,2018-06-29 10:38:33.250000,112.14,65.15
218281,2018-06-29 10:38:33.281250,158.0,65.15
218282,2018-06-29 10:38:33.312500,192.01,65.15
218283,2018-06-29 10:38:33.343750,197.47,65.15
218284,2018-06-29 10:38:33.375000,173.41,65.15
218285,2018-06-29 10:38:33.406250,126.03,65.15
218286,2018-06-29 10:38:33.437500,60.42,65.15
218287,2018-06-29 10:38:33.468750,-14.74,65.15
218288,2018-06-29 10:38:33.500000,-89.02,65.15
218289,2018-06-29 10:38:33.531250,-162.19,65.47
218290,2018-06-29 10:38:33.562500,-238.48,65.47
218291,2018-06-29 10:38:33.593750,-302.4,65.47
218292,2018-06-29 10:38:33.625000,-322.54,65.47
218293,2018-06-29 10:38:33.656250,-293.01,65.47
218294,2018-06-29 10:38:33.687500,-246.32,65.47
218295,2018-06-29 10:38:33.718750,-211.03,65.47
218296,2018-06-29 10:38:33.750000,-184.45,65.47
218297,2018-06-29 10:38:33.781250,-155.85,65.47
218298,2018-06-29 10:38:33.812500,-124.71,65.47
218299,2018-06-29 10:38:33.843750,-91.31,65.47
218300,2018-06-29 10:38:33.875000,-55.76,65.47
218301,2018-06-29 10:38:33.906250,-25.61,65.47
218302,2018-06-29 10:38:33.937500,-8.84,65.47
218303,2018-06-29 10:38:33.968750,-3.18,65.47
218304,2018-06-29 10:38:34.000000,-0.23,65.47
218305,2018-06-29 10:38:34.031250,4.42,65.47
218306,2018-06-29 10:38:34.062500,8.91,65.47
218307,2018-06-29 10:38:34.093750,11.41,65.47
218308,2018-06-29 10:38:34.125000,16.41,65.47
218309,2018-06-29 10:38:34.156250,28.4,65.47
218310,2018-06-29 10:38:34.187500,39.13,65.47
218311,2018-06-29 10:38:34.218750,32.76,65.47
218312,2018-06-29 10:38:34.250000,5.15,65.47
218313,2018-06-29 10:38:34.281250,-33.43,65.47
218314,2018-06-29 10:38:34.312500,-72.97,65.47
218315,2018-06-29 10:38:34.343750,-107.92,65.47
218316,2018-06-29 10:38:34.375000,-130.93,65.47
218317,2018-06-29 10:38:34.406250,-137.27,65.47
218318,2018-06-29 10:38:34.437500,-133.94,65.47
218319,2018-06-29 10:38:34.468750,-133.21,65.47
218320,2018-06-29 10:38:34.500000,-138.5,65.47
218321,2018-06-29 10:38:34.531250,-143.94,65.78
218322,2018-06-29 10:38:34.562500,-143.03,65.78
218323,2018-06-29 10:38:34.593750,-133.03,65.78
218324,2018-06-29 10:38:34.625000,-114.15,65.78
218325,2018-06-29 10:38:34.656250,-88.95,65.78
218326,2018-06-29 10:38:34.687500,-63.71,65.78
218327,2018-06-29 10:38:34.718750,-47.33,65.78
218328,2018-06-29 10:38:34.750000,-41.21,65.78
218329,2018-06-29 10:38:34.781250,-31.71,65.78
218330,2018-06-29 10:38:34.812500,-2.79,65.78
218331,2018-06-29 10:38:34.843750,47.03,65.78
218332,2018-06-29 10:38:34.875000,106.97,65.78
218333,2018-06-29 10:38:34.906250,161.88,65.78
218334,2018-06-29 10:38:34.937500,193.97,65.78
218335,2018-06-29 10:38:34.968750,191.06,65.78
218336,2018-06-29 10:38:35.000000,158.51,65.78
218337,2018-06-29 10:38:35.031250,113.06,65.78
218338,2018-06-29 10:38:35.062500,63.91,65.78
218339,2018-06-29 10:38:35.093750,7.75,65.78
218340,2018-06-29 10:38:35.125000,-53.24,65.78
218341,2018-06-29 10:38:35.156250,-93.57,65.78
218342,2018-06-29 10:38:35.187500,-83.04,65.78
218343,2018-06-29 10:38:35.218750,-25.49,65.78
218344,2018-06-29 10:38:35.250000,42.55,65.78
218345,2018-06-29 10:38:35.281250,92.11,65.78
218346,2018-06-29 10:38:35.312500,117.02,65.78
218347,2018-06-29 10:38:35.343750,117.69,65.78
218348,2018-06-29 10:38:35.375000,99.06,65.78
218349,2018-06-29 10:38:35.406250,79.0,65.78
218350,2018-06-29 10:38:35.437500,77.61,65.78
218351,2018-06-29 10:38:35.468750,102.05,65.78
218352,2018-06-29 10:38:35.500000,145.8,65.78
218353,2018-06-29 10:38:35.531250,191.62,66.08
218354,2018-06-29 10:38:35.562500,215.77,66.08
218355,2018-06-29 10:38:35.593750,201.77,66.08
218356,2018-06-29 10:38:35.625000,153.07,66.08
218357,2018-06-29 10:38:35.656250,88.82,66.08
218358,2018-06-29 10:38:35.687500,28.89,66.08
218359,2018-06-29 10:38:35.718750,-15.7,66.08
218360,2018-06-29 10:38:35.750000,-42.75,66.08
218361,2018-06-29 10:38:35.781250,-54.87,66.08
218362,2018-06-29 10:38:35.812500,-56.87,66.08
218363,2018-06-29 10:38:35.843750,-54.88,66.08
218364,2018-06-29 10:38:35.875000,-54.05,66.08
218365,2018-06-29 10:38:35.906250,-56.77,66.08
218366,2018-06-29 10:38:35.937500,-64.01,66.08
218367,2018-06-29 10:38:35.968750,-76.38,66.08
218368,2018-06-29 10:38:36.000000,-93.32,66.08
218369,2018-06-29 10:38:36.031250,-111.56,66.08
218370,2018-06-29 10:38:36.062500,-121.63,66.08
218371,2018-06-29 10:38:36.093750,-110.37,66.08
218372,2018-06-29 10:38:36.125000,-74.83,66.08
218373,2018-06-29 10:38:36.156250,-29.43,66.08
218374,2018-06-29 10:38:36.187500,7.63,66.08
218375,2018-06-29 10:38:36.218750,29.61,66.08
218376,2018-06-29 10:38:36.250000,39.79,66.08
218377,2018-06-29 10:38:36.281250,42.99,66.08
218378,2018-06-29 10:38:36.312500,43.03,66.08
218379,2018-06-29 10:38:36.343750,43.26,66.08
218380,2018-06-29 10:38:36.375000,45.66,66.08
218381,2018-06-29 10:38:36.406250,49.38,66.08
218382,2018-06-29 10:38:36.437500,52.26,66.08
218383,2018-06-29 10:38:36.468750,53.89,66.08
218384,2018-06-29 10:38:36.500000,54.74,66.08
218385,2018-06-29 10:38:36.531250,52.95,66.42
218386,2018-06-29 10:38:36.562500,46.26,66.42
218387,2018-06-29 10:38:36.593750,36.46,66.42
218388,2018-06-29 10:38:36.625000,28.11,66.42
218389,2018-06-29 10:38:36.656250,22.5,66.42
218390,2018-06-29 10:38:36.687500,15.96,66.42
218391,2018-06-29 10:38:36.718750,5.49,66.42
218392,2018-06-29 10:38:36.750000,-6.74,66.42
218393,2018-06-29 10:38:36.781250,-17.49,66.42
218394,2018-06-29 10:38:36.812500,-28.92,66.42
218395,2018-06-29 10:38:36.843750,-46.49,66.42
218396,2018-06-29 10:38:36.875000,-70.36,66.42
218397,2018-06-29 10:38:36.906250,-90.18,66.42
218398,2018-06-29 10:38:36.937500,-91.18,66.42
218399,2018-06-29 10:38:36.968750,-69.53,66.42
218400,2018-06-29 10:38:37.000000,-39.27,66.42
218401,2018-06-29 10:38:37.031250,-18.74,66.42
218402,2018-06-29 10:38:37.062500,-13.92,66.42
218403,2018-06-29 10:38:37.093750,-19.63,66.42
218404,2018-06-29 10:38:37.125000,-28.63,66.42
218405,2018-06-29 10:38:37.156250,-33.39,66.42
218406,2018-06-29 10:38:37.187500,-26.37,66.42
218407,2018-06-29 10:38:37.218750,-4.69,66.42
218408,2018-06-29 10:38:37.250000,27.7,66.42
218409,2018-06-29 10:38:37.281250,63.04,66.42
218410,2018-06-29 10:38:37.312500,92.84,66.42
218411,2018-06-29 10:38:37.343750,110.57,66.42
218412,2018-06-29 10:38:37.375000,115.17,66.42
218413,2018-06-29 10:38:37.406250,111.54,66.42
218414,2018-06-29 10:38:37.437500,106.39,66.42
218415,2018-06-29 10:38:37.468750,103.39,66.42
218416,2018-06-29 10:38:37.500000,100.36,66.42
218417,2018-06-29 10:38:37.531250,90.63,66.78
218418,2018-06-29 10:38:37.562500,68.63,66.78
218419,2018-06-29 10:38:37.593750,34.73,66.78
218420,2018-06-29 10:38:37.625000,-5.77,66.78
218421,2018-06-29 10:38:37.656250,-46.12,66.78
218422,2018-06-29 10:38:37.687500,-78.23,66.78
218423,2018-06-29 10:38:37.718750,-91.64,66.78
218424,2018-06-29 10:38:37.750000,-78.6,66.78
218425,2018-06-29 10:38:37.781250,-43.52,66.78
218426,2018-06-29 10:38:37.812500,-4.02,66.78
218427,2018-06-29 10:38:37.843750,22.39,66.78
218428,2018-06-29 10:38:37.875000,29.92,66.78
218429,2018-06-29 10:38:37.906250,21.32,66.78
218430,2018-06-29 10:38:37.937500,0.54,66.78
218431,2018-06-29 10:38:37.968750,-26.06,66.78
218432,2018-06-29 10:38:38.000000,-46.44,66.78
218433,2018-06-29 10:38:38.031250,-49.71,66.78
218434,2018-06-29 10:38:38.062500,-38.0,66.78
218435,2018-06-29 10:38:38.093750,-25.59,66.78
218436,2018-06-29 10:38:38.125000,-22.82,66.78
218437,2018-06-29 10:38:38.156250,-25.49,66.78
218438,2018-06-29 10:38:38.187500,-23.49,66.78
218439,2018-06-29 10:38:38.218750,-13.54,66.78
218440,2018-06-29 10:38:38.250000,0.5,66.78
218441,2018-06-29 10:38:38.281250,14.08,66.78
218442,2018-06-29 10:38:38.312500,23.39,66.78
218443,2018-06-29 10:38:38.343750,25.57,66.78
218444,2018-06-29 10:38:38.375000,22.93,66.78
218445,2018-06-29 10:38:38.406250,22.51,66.78
218446,2018-06-29 10:38:38.437500,26.79,66.78
218447,2018-06-29 10:38:38.468750,29.76,66.78
218448,2018-06-29 10:38:38.500000,24.88,66.78
218449,2018-06-29 10:38:38.531250,12.63,67.18
218450,2018-06-29 10:38:38.562500,0.63,67.18
218451,2018-06-29 10:38:38.593750,-2.02,67.18
218452,2018-06-29 10:38:38.625000,6.8,67.18
218453,2018-06-29 10:38:38.656250,20.12,67.18
218454,2018-06-29 10:38:38.687500,30.84,67.18
218455,2018-06-29 10:38:38.718750,38.48,67.18
218456,2018-06-29 10:38:38.750000,44.95,67.18
218457,2018-06-29 10:38:38.781250,49.74,67.18
218458,2018-06-29 10:38:38.812500,51.79,67.18
218459,2018-06-29 10:38:38.843750,52.06,67.18
218460,2018-06-29 10:38:38.875000,52.05,67.18
218461,2018-06-29 10:38:38.906250,51.73,67.18
218462,2018-06-29 10:38:38.937500,50.59,67.18
218463,2018-06-29 10:38:38.968750,48.82,67.18
218464,2018-06-29 10:38:39.000000,46.09,67.18
218465,2018-06-29 10:38:39.031250,40.57,67.18
218466,2018-06-29 10:38:39.062500,31.66,67.18
218467,2018-06-29 10:38:39.093750,22.21,67.18
218468,2018-06-29 10:38:39.125000,16.77,67.18
218469,2018-06-29 10:38:39.156250,17.66,67.18
218470,2018-06-29 10:38:39.187500,23.03,67.18
218471,2018-06-29 10:38:39.218750,28.4,67.18
218472,2018-06-29 10:38:39.250000,29.34,67.18
218473,2018-06-29 10:38:39.281250,23.31,67.18
218474,2018-06-29 10:38:39.312500,10.47,67.18
218475,2018-06-29 10:38:39.343750,-7.2,67.18
218476,2018-06-29 10:38:39.375000,-28.55,67.18
218477,2018-06-29 10:38:39.406250,-53.75,67.18
218478,2018-06-29 10:38:39.437500,-81.47,67.18
218479,2018-06-29 10:38:39.468750,-105.16,67.18
218480,2018-06-29 10:38:39.500000,-114.02,67.18
218481,2018-06-29 10:38:39.531250,-101.77,67.57
218482,2018-06-29 10:38:39.562500,-74.96,67.57
218483,2018-06-29 10:38:39.593750,-46.73,67.57
218484,2018-06-29 10:38:39.625000,-22.74,67.57
218485,2018-06-29 10:38:39.656250,-0.72,67.57
218486,2018-06-29 10:38:39.687500,19.47,67.57
218487,2018-06-29 10:38:39.718750,34.58,67.57
218488,2018-06-29 10:38:39.750000,43.82,67.57
218489,2018-06-29 10:38:39.781250,49.64,67.57
218490,2018-06-29 10:38:39.812500,54.35,67.57
218491,2018-06-29 10:38:39.843750,58.85,67.57
218492,2018-06-29 10:38:39.875000,63.22,67.57
218493,2018-06-29 10:38:39.906250,66.73,67.57
218494,2018-06-29 10:38:39.937500,67.39,67.57
218495,2018-06-29 10:38:39.968750,63.35,67.57
218496,2018-06-29 10:38:40.000000,55.71,67.57
218497,2018-06-29 10:38:40.031250,48.3,67.57
218498,2018-06-29 10:38:40.062500,43.64,67.57
218499,2018-06-29 10:38:40.093750,40.75,67.57
218500,2018-06-29 10:38:40.125000,36.3,67.57
218501,2018-06-29 10:38:40.156250,26.58,67.57
218502,2018-06-29 10:38:40.187500,11.02,67.57
218503,2018-06-29 10:38:40.218750,-6.48,67.57
218504,2018-06-29 10:38:40.250000,-21.92,67.57
218505,2018-06-29 10:38:40.281250,-34.45,67.57
218506,2018-06-29 10:38:40.312500,-43.86,67.57
218507,2018-06-29 10:38:40.343750,-49.81,67.57
218508,2018-06-29 10:38:40.375000,-54.96,67.57
218509,2018-06-29 10:38:40.406250,-64.33,67.57
218510,2018-06-29 10:38:40.437500,-81.09,67.57
218511,2018-06-29 10:38:40.468750,-102.4,67.57
218512,2018-06-29 10:38:40.500000,-116.96,67.57
218513,2018-06-29 10:38:40.531250,-111.23,67.93
218514,2018-06-29 10:38:40.562500,-83.01,67.93
218515,2018-06-29 10:38:40.593750,-44.55,67.93
218516,2018-06-29 10:38:40.625000,-9.13,67.93
218517,2018-06-29 10:38:40.656250,19.16,67.93
218518,2018-06-29 10:38:40.687500,40.78,67.93
218519,2018-06-29 10:38:40.718750,54.79,67.93
218520,2018-06-29 10:38:40.750000,61.22,67.93
218521,2018-06-29 10:38:40.781250,62.43,67.93
218522,2018-06-29 10:38:40.812500,58.26,67.93
218523,2018-06-29 10:38:40.843750,45.94,67.93
218524,2018-06-29 10:38:40.875000,28.6,67.93
218525,2018-06-29 10:38:40.906250,17.67,67.93
218526,2018-06-29 10:38:40.937500,21.37,67.93
218527,2018-06-29 10:38:40.968750,35.04,67.93
218528,2018-06-29 10:38:41.000000,46.1,67.93
218529,2018-06-29 10:38:41.031250,44.32,67.93
218530,2018-06-29 10:38:41.062500,28.29,67.93
218531,2018-06-29 10:38:41.093750,8.25,67.93
218532,2018-06-29 10:38:41.125000,-1.73,67.93
218533,2018-06-29 10:38:41.156250,-1.42,67.93
218534,2018-06-29 10:38:41.187500,-5.85,67.93
218535,2018-06-29 10:38:41.218750,-23.59,67.93
218536,2018-06-29 10:38:41.250000,-47.38,67.93
218537,2018-06-29 10:38:41.281250,-68.82,67.93
218538,2018-06-29 10:38:41.312500,-84.64,67.93
218539,2018-06-29 10:38:41.343750,-91.03,67.93
218540,2018-06-29 10:38:41.375000,-90.28,67.93
218541,2018-06-29 10:38:41.406250,-96.09,67.93
218542,2018-06-29 10:38:41.437500,-115.31,67.93
218543,2018-06-29 10:38:41.468750,-131.53,67.93
218544,2018-06-29 10:38:41.500000,-121.05,67.93
218545,2018-06-29 10:38:41.531250,-80.75,68.28
218546,2018-06-29 10:38:41.562500,-33.01,68.28
218547,2018-06-29 10:38:41.593750,-6.79,68.28
218548,2018-06-29 10:38:41.625000,-15.34,68.28
218549,2018-06-29 10:38:41.656250,-48.32,68.28
218550,2018-06-29 10:38:41.687500,-80.14,68.28
218551,2018-06-29 10:38:41.718750,-87.19,68.28
218552,2018-06-29 10:38:41.750000,-64.28,68.28
218553,2018-06-29 10:38:41.781250,-26.08,68.28
218554,2018-06-29 10:38:41.812500,9.63,68.28
218555,2018-06-29 10:38:41.843750,35.67,68.28
218556,2018-06-29 10:38:41.875000,51.19,68.28
218557,2018-06-29 10:38:41.906250,54.81,68.28
218558,2018-06-29 10:38:41.937500,48.24,68.28
218559,2018-06-29 10:38:41.968750,36.78,68.28
218560,2018-06-29 10:38:42.000000,23.3,68.28
218561,2018-06-29 10:38:42.031250,9.37,68.28
218562,2018-06-29 10:38:42.062500,-0.52,68.28
218563,2018-06-29 10:38:42.093750,-4.1,68.28
218564,2018-06-29 10:38:42.125000,-6.45,68.28
218565,2018-06-29 10:38:42.156250,-12.26,68.28
218566,2018-06-29 10:38:42.187500,-18.29,68.28
218567,2018-06-29 10:38:42.218750,-22.14,68.28
218568,2018-06-29 10:38:42.250000,-32.77,68.28
218569,2018-06-29 10:38:42.281250,-62.48,68.28
218570,2018-06-29 10:38:42.312500,-111.85,68.28
218571,2018-06-29 10:38:42.343750,-166.23,68.28
218572,2018-06-29 10:38:42.375000,-202.5,68.28
218573,2018-06-29 10:38:42.406250,-201.94,68.28
218574,2018-06-29 10:38:42.437500,-166.09,68.28
218575,2018-06-29 10:38:42.468750,-117.42,68.28
218576,2018-06-29 10:38:42.500000,-78.06,68.28
218577,2018-06-29 10:38:42.531250,-53.4,68.63
218578,2018-06-29 10:38:42.562500,-38.2,68.63
218579,2018-06-29 10:38:42.593750,-28.5,68.63
218580,2018-06-29 10:38:42.625000,-23.13,68.63
218581,2018-06-29 10:38:42.656250,-18.84,68.63
218582,2018-06-29 10:38:42.687500,-7.2,68.63
218583,2018-06-29 10:38:42.718750,22.28,68.63
218584,2018-06-29 10:38:42.750000,70.93,68.63
218585,2018-06-29 10:38:42.781250,124.02,68.63
218586,2018-06-29 10:38:42.812500,160.7,68.63
218587,2018-06-29 10:38:42.843750,170.66,68.63
218588,2018-06-29 10:38:42.875000,157.74,68.63
218589,2018-06-29 10:38:42.906250,131.37,68.63
218590,2018-06-29 10:38:42.937500,100.54,68.63
218591,2018-06-29 10:38:42.968750,72.84,68.63
218592,2018-06-29 10:38:43.000000,53.91,68.63
218593,2018-06-29 10:38:43.031250,45.64,68.63
218594,2018-06-29 10:38:43.062500,44.45,68.63
218595,2018-06-29 10:38:43.093750,42.47,68.63
218596,2018-06-29 10:38:43.125000,34.15,68.63
218597,2018-06-29 10:38:43.156250,21.51,68.63
218598,2018-06-29 10:38:43.187500,8.31,68.63
218599,2018-06-29 10:38:43.218750,-9.1,68.63
218600,2018-06-29 10:38:43.250000,-38.81,68.63
218601,2018-06-29 10:38:43.281250,-79.84,68.63
218602,2018-06-29 10:38:43.312500,-117.25,68.63
218603,2018-06-29 10:38:43.343750,-136.26,68.63
218604,2018-06-29 10:38:43.375000,-137.54,68.63
218605,2018-06-29 10:38:43.406250,-130.9,68.63
218606,2018-06-29 10:38:43.437500,-116.84,68.63
218607,2018-06-29 10:38:43.468750,-87.62,68.63
218608,2018-06-29 10:38:43.500000,-39.78,68.63
218609,2018-06-29 10:38:43.531250,17.2,68.93
218610,2018-06-29 10:38:43.562500,67.96,68.93
218611,2018-06-29 10:38:43.593750,102.59,68.93
218612,2018-06-29 10:38:43.625000,122.35,68.93
218613,2018-06-29 10:38:43.656250,130.77,68.93
218614,2018-06-29 10:38:43.687500,126.06,68.93
218615,2018-06-29 10:38:43.718750,108.53,68.93
218616,2018-06-29 10:38:43.750000,82.12,68.93
218617,2018-06-29 10:38:43.781250,55.96,68.93
218618,2018-06-29 10:38:43.812500,26.23,68.93
218619,2018-06-29 10:38:43.843750,-5.81,68.93
218620,2018-06-29 10:38:43.875000,-25.3,68.93
218621,2018-06-29 10:38:43.906250,-9.24,68.93
218622,2018-06-29 10:38:43.937500,44.46,68.93
218623,2018-06-29 10:38:43.968750,106.61,68.93
218624,2018-06-29 10:38:44.000000,163.76,68.93
218625,2018-06-29 10:38:44.031250,219.76,68.93
218626,2018-06-29 10:38:44.062500,295.72,68.93
218627,2018-06-29 10:38:44.093750,361.07,68.93
218628,2018-06-29 10:38:44.125000,383.27,68.93
218629,2018-06-29 10:38:44.156250,376.08,68.93
218630,2018-06-29 10:38:44.187500,393.7,68.93
218631,2018-06-29 10:38:44.218750,459.3,68.93
218632,2018-06-29 10:38:44.250000,522.02,68.93
218633,2018-06-29 10:38:44.281250,553.88,68.93
218634,2018-06-29 10:38:44.312500,398.26,68.93
218635,2018-06-29 10:38:44.343750,74.5,68.93
218636,2018-06-29 10:38:44.375000,-144.83,68.93
218637,2018-06-29 10:38:44.406250,-248.46,68.93
218638,2018-06-29 10:38:44.437500,-325.33,68.93
218639,2018-06-29 10:38:44.468750,-371.43,68.93
218640,2018-06-29 10:38:44.500000,-370.48,68.93
218641,2018-06-29 10:38:44.531250,-361.25,69.17
218642,2018-06-29 10:38:44.562500,-356.92,69.17
218643,2018-06-29 10:38:44.593750,-346.03,69.17
218644,2018-06-29 10:38:44.625000,-304.0,69.17
218645,2018-06-29 10:38:44.656250,-256.82,69.17
218646,2018-06-29 10:38:44.687500,-226.64,69.17
218647,2018-06-29 10:38:44.718750,-197.77,69.17
218648,2018-06-29 10:38:44.750000,-150.0,69.17
218649,2018-06-29 10:38:44.781250,-86.77,69.17
218650,2018-06-29 10:38:44.812500,-37.45,69.17
218651,2018-06-29 10:38:44.843750,-8.75,69.17
218652,2018-06-29 10:38:44.875000,7.17,69.17
218653,2018-06-29 10:38:44.906250,20.12,69.17
218654,2018-06-29 10:38:44.937500,25.41,69.17
218655,2018-06-29 10:38:44.968750,20.84,69.17
218656,2018-06-29 10:38:45.000000,15.41,69.17
218657,2018-06-29 10:38:45.031250,15.48,69.17
218658,2018-06-29 10:38:45.062500,18.2,69.17
218659,2018-06-29 10:38:45.093750,16.11,69.17
218660,2018-06-29 10:38:45.125000,11.75,69.17
218661,2018-06-29 10:38:45.156250,12.11,69.17
218662,2018-06-29 10:38:45.187500,16.43,69.17
218663,2018-06-29 10:38:45.218750,17.05,69.17
218664,2018-06-29 10:38:45.250000,9.92,69.17
218665,2018-06-29 10:38:45.281250,-0.71,69.17
218666,2018-06-29 10:38:45.312500,-8.4,69.17
218667,2018-06-29 10:38:45.343750,-9.78,69.17
218668,2018-06-29 10:38:45.375000,-3.37,69.17
218669,2018-06-29 10:38:45.406250,10.62,69.17
218670,2018-06-29 10:38:45.437500,28.34,69.17
218671,2018-06-29 10:38:45.468750,45.26,69.17
218672,2018-06-29 10:38:45.500000,60.9,69.17
218673,2018-06-29 10:38:45.531250,75.87,69.33
218674,2018-06-29 10:38:45.562500,87.71,69.33
218675,2018-06-29 10:38:45.593750,95.35,69.33
218676,2018-06-29 10:38:45.625000,103.2,69.33
218677,2018-06-29 10:38:45.656250,115.23,69.33
218678,2018-06-29 10:38:45.687500,129.36,69.33
218679,2018-06-29 10:38:45.718750,142.93,69.33
218680,2018-06-29 10:38:45.750000,157.96,69.33
218681,2018-06-29 10:38:45.781250,176.73,69.33
218682,2018-06-29 10:38:45.812500,196.3,69.33
218683,2018-06-29 10:38:45.843750,207.94,69.33
218684,2018-06-29 10:38:45.875000,199.34,69.33
218685,2018-06-29 10:38:45.906250,165.66,69.33
218686,2018-06-29 10:38:45.937500,124.09,69.33
218687,2018-06-29 10:38:45.968750,101.46,69.33
218688,2018-06-29 10:38:46.000000,97.57,69.33
218689,2018-06-29 10:38:46.031250,82.82,69.33
218690,2018-06-29 10:38:46.062500,41.58,69.33
218691,2018-06-29 10:38:46.093750,-8.25,69.33
218692,2018-06-29 10:38:46.125000,-47.0,69.33
218693,2018-06-29 10:38:46.156250,-75.22,69.33
218694,2018-06-29 10:38:46.187500,-99.38,69.33
218695,2018-06-29 10:38:46.218750,-123.55,69.33
218696,2018-06-29 10:38:46.250000,-156.56,69.33
218697,2018-06-29 10:38:46.281250,-202.38,69.33
218698,2018-06-29 10:38:46.312500,-247.53,69.33
218699,2018-06-29 10:38:46.343750,-278.86,69.33
218700,2018-06-29 10:38:46.375000,-303.29,69.33
218701,2018-06-29 10:38:46.406250,-334.53,69.33
218702,2018-06-29 10:38:46.437500,-370.47,69.33
218703,2018-06-29 10:38:46.468750,-391.91,69.33
218704,2018-06-29 10:38:46.500000,-377.27,69.33
218705,2018-06-29 10:38:46.531250,-320.45,69.45
218706,2018-06-29 10:38:46.562500,-238.99,69.45
218707,2018-06-29 10:38:46.593750,-159.45,69.45
218708,2018-06-29 10:38:46.625000,-94.68,69.45
218709,2018-06-29 10:38:46.656250,-41.38,69.45
218710,2018-06-29 10:38:46.687500,1.1,69.45
218711,2018-06-29 10:38:46.718750,17.47,69.45
218712,2018-06-29 10:38:46.750000,-11.25,69.45
218713,2018-06-29 10:38:46.781250,-81.95,69.45
218714,2018-06-29 10:38:46.812500,-163.84,69.45
218715,2018-06-29 10:38:46.843750,-222.17,69.45
218716,2018-06-29 10:38:46.875000,-243.22,69.45
218717,2018-06-29 10:38:46.906250,-234.5,69.45
218718,2018-06-29 10:38:46.937500,-207.9,69.45
218719,2018-06-29 10:38:46.968750,-169.15,69.45
218720,2018-06-29 10:38:47.000000,-121.01,69.45
218721,2018-06-29 10:38:47.031250,-67.91,69.45
218722,2018-06-29 10:38:47.062500,-14.93,69.45
218723,2018-06-29 10:38:47.093750,34.67,69.45
218724,2018-06-29 10:38:47.125000,79.12,69.45
218725,2018-06-29 10:38:47.156250,117.42,69.45
218726,2018-06-29 10:38:47.187500,150.17,69.45
218727,2018-06-29 10:38:47.218750,178.45,69.45
218728,2018-06-29 10:38:47.250000,199.21,69.45
218729,2018-06-29 10:38:47.281250,205.34,69.45
218730,2018-06-29 10:38:47.312500,192.56,69.45
218731,2018-06-29 10:38:47.343750,162.63,69.45
218732,2018-06-29 10:38:47.375000,119.43,69.45
218733,2018-06-29 10:38:47.406250,67.98,69.45
218734,2018-06-29 10:38:47.437500,17.8,69.45
218735,2018-06-29 10:38:47.468750,-19.56,69.45
218736,2018-06-29 10:38:47.500000,-37.43,69.45
218737,2018-06-29 10:38:47.531250,-36.39,69.53
218738,2018-06-29 10:38:47.562500,-23.24,69.53
218739,2018-06-29 10:38:47.593750,-9.72,69.53
218740,2018-06-29 10:38:47.625000,-7.28,69.53
218741,2018-06-29 10:38:47.656250,-19.22,69.53
218742,2018-06-29 10:38:47.687500,-36.81,69.53
218743,2018-06-29 10:38:47.718750,-44.66,69.53
218744,2018-06-29 10:38:47.750000,-34.85,69.53
218745,2018-06-29 10:38:47.781250,-15.18,69.53
218746,2018-06-29 10:38:47.812500,2.4,69.53
218747,2018-06-29 10:38:47.843750,16.46,69.53
218748,2018-06-29 10:38:47.875000,31.45,69.53
218749,2018-06-29 10:38:47.906250,45.99,69.53
218750,2018-06-29 10:38:47.937500,54.95,69.53
218751,2018-06-29 10:38:47.968750,58.53,69.53
218752,2018-06-29 10:38:48.000000,61.9,69.53
218753,2018-06-29 10:38:48.031250,67.39,69.53
218754,2018-06-29 10:38:48.062500,73.18,69.53
218755,2018-06-29 10:38:48.093750,78.75,69.53
218756,2018-06-29 10:38:48.125000,85.84,69.53
218757,2018-06-29 10:38:48.156250,92.94,69.53
218758,2018-06-29 10:38:48.187500,94.91,69.53
218759,2018-06-29 10:38:48.218750,89.89,69.53
218760,2018-06-29 10:38:48.250000,81.67,69.53
218761,2018-06-29 10:38:48.281250,73.25,69.53
218762,2018-06-29 10:38:48.312500,62.21,69.53
218763,2018-06-29 10:38:48.343750,45.46,69.53
218764,2018-06-29 10:38:48.375000,25.44,69.53
218765,2018-06-29 10:38:48.406250,7.36,69.53
218766,2018-06-29 10:38:48.437500,-9.22,69.53
218767,2018-06-29 10:38:48.468750,-31.44,69.53
218768,2018-06-29 10:38:48.500000,-63.16,69.53
218769,2018-06-29 10:38:48.531250,-96.96,69.63
218770,2018-06-29 10:38:48.562500,-119.26,69.63
218771,2018-06-29 10:38:48.593750,-122.91,69.63
218772,2018-06-29 10:38:48.625000,-111.8,69.63
218773,2018-06-29 10:38:48.656250,-94.72,69.63
218774,2018-06-29 10:38:48.687500,-77.84,69.63
218775,2018-06-29 10:38:48.718750,-63.8,69.63
218776,2018-06-29 10:38:48.750000,-60.05,69.63
218777,2018-06-29 10:38:48.781250,-83.53,69.63
218778,2018-06-29 10:38:48.812500,-140.91,69.63
218779,2018-06-29 10:38:48.843750,-203.05,69.63
218780,2018-06-29 10:38:48.875000,-222.35,69.63
218781,2018-06-29 10:38:48.906250,-182.62,69.63
218782,2018-06-29 10:38:48.937500,-112.16,69.63
218783,2018-06-29 10:38:48.968750,-47.06,69.63
218784,2018-06-29 10:38:49.000000,-2.98,69.63
218785,2018-06-29 10:38:49.031250,20.62,69.63
218786,2018-06-29 10:38:49.062500,31.91,69.63
218787,2018-06-29 10:38:49.093750,44.7,69.63
218788,2018-06-29 10:38:49.125000,69.88,69.63
218789,2018-06-29 10:38:49.156250,105.05,69.63
218790,2018-06-29 10:38:49.187500,139.97,69.63
218791,2018-06-29 10:38:49.218750,170.84,69.63
218792,2018-06-29 10:38:49.250000,200.15,69.63
218793,2018-06-29 10:38:49.281250,225.0,69.63
218794,2018-06-29 10:38:49.312500,235.81,69.63
218795,2018-06-29 10:38:49.343750,227.06,69.63
218796,2018-06-29 10:38:49.375000,205.39,69.63
218797,2018-06-29 10:38:49.406250,187.13,69.63
218798,2018-06-29 10:38:49.437500,185.02,69.63
218799,2018-06-29 10:38:49.468750,197.26,69.63
218800,2018-06-29 10:38:49.500000,215.43,69.63
218801,2018-06-29 10:38:49.531250,237.39,69.72
218802,2018-06-29 10:38:49.562500,262.4,69.72
218803,2018-06-29 10:38:49.593750,282.75,69.72
218804,2018-06-29 10:38:49.625000,291.91,69.72
218805,2018-06-29 10:38:49.656250,293.11,69.72
218806,2018-06-29 10:38:49.687500,293.76,69.72
218807,2018-06-29 10:38:49.718750,298.4,69.72
218808,2018-06-29 10:38:49.750000,305.86,69.72
218809,2018-06-29 10:38:49.781250,306.08,69.72
218810,2018-06-29 10:38:49.812500,287.75,69.72
218811,2018-06-29 10:38:49.843750,254.74,69.72
218812,2018-06-29 10:38:49.875000,222.31,69.72
218813,2018-06-29 10:38:49.906250,194.46,69.72
218814,2018-06-29 10:38:49.937500,161.37,69.72
218815,2018-06-29 10:38:49.968750,119.28,69.72
218816,2018-06-29 10:38:50.000000,76.59,69.72
218817,2018-06-29 10:38:50.031250,40.5,69.72
218818,2018-06-29 10:38:50.062500,9.34,69.72
218819,2018-06-29 10:38:50.093750,-21.76,69.72
218820,2018-06-29 10:38:50.125000,-53.17,69.72
218821,2018-06-29 10:38:50.156250,-80.0,69.72
218822,2018-06-29 10:38:50.187500,-99.4,69.72
218823,2018-06-29 10:38:50.218750,-115.89,69.72
218824,2018-06-29 10:38:50.250000,-137.16,69.72
218825,2018-06-29 10:38:50.281250,-167.94,69.72
218826,2018-06-29 10:38:50.312500,-203.39,69.72
218827,2018-06-29 10:38:50.343750,-224.06,69.72
218828,2018-06-29 10:38:50.375000,-216.5,69.72
218829,2018-06-29 10:38:50.406250,-200.27,69.72
218830,2018-06-29 10:38:50.437500,-205.52,69.72
218831,2018-06-29 10:38:50.468750,-230.96,69.72
218832,2018-06-29 10:38:50.500000,-256.42,69.72
218833,2018-06-29 10:38:50.531250,-280.43,69.63
218834,2018-06-29 10:38:50.562500,-312.94,69.63
218835,2018-06-29 10:38:50.593750,-344.41,69.63
218836,2018-06-29 10:38:50.625000,-348.41,69.63
218837,2018-06-29 10:38:50.656250,-310.87,69.63
218838,2018-06-29 10:38:50.687500,-244.75,69.63
218839,2018-06-29 10:38:50.718750,-173.49,69.63
218840,2018-06-29 10:38:50.750000,-112.72,69.63
218841,2018-06-29 10:38:50.781250,-72.32,69.63
218842,2018-06-29 10:38:50.812500,-56.46,69.63
218843,2018-06-29 10:38:50.843750,-54.26,69.63
218844,2018-06-29 10:38:50.875000,-48.74,69.63
218845,2018-06-29 10:38:50.906250,-36.61,69.63
218846,2018-06-29 10:38:50.937500,-25.25,69.63
218847,2018-06-29 10:38:50.968750,-16.34,69.63
218848,2018-06-29 10:38:51.000000,-4.21,69.63
218849,2018-06-29 10:38:51.031250,15.72,69.63
218850,2018-06-29 10:38:51.062500,40.03,69.63
218851,2018-06-29 10:38:51.093750,55.23,69.63
218852,2018-06-29 10:38:51.125000,48.53,69.63
218853,2018-06-29 10:38:51.156250,22.57,69.63
218854,2018-06-29 10:38:51.187500,-7.75,69.63
218855,2018-06-29 10:38:51.218750,-30.7,69.63
218856,2018-06-29 10:38:51.250000,-42.6,69.63
218857,2018-06-29 10:38:51.281250,-43.48,69.63
218858,2018-06-29 10:38:51.312500,-37.41,69.63
218859,2018-06-29 10:38:51.343750,-32.6,69.63
218860,2018-06-29 10:38:51.375000,-32.53,69.63
218861,2018-06-29 10:38:51.406250,-29.9,69.63
218862,2018-06-29 10:38:51.437500,-16.88,69.63
218863,2018-06-29 10:38:51.468750,3.98,69.63
218864,2018-06-29 10:38:51.500000,25.63,69.63
218865,2018-06-29 10:38:51.531250,47.2,69.55
218866,2018-06-29 10:38:51.562500,71.62,69.55
218867,2018-06-29 10:38:51.593750,97.47,69.55
218868,2018-06-29 10:38:51.625000,117.11,69.55
218869,2018-06-29 10:38:51.656250,120.82,69.55
218870,2018-06-29 10:38:51.687500,104.34,69.55
218871,2018-06-29 10:38:51.718750,75.1,69.55
218872,2018-06-29 10:38:51.750000,47.59,69.55
218873,2018-06-29 10:38:51.781250,31.51,69.55
218874,2018-06-29 10:38:51.812500,26.84,69.55
218875,2018-06-29 10:38:51.843750,27.82,69.55
218876,2018-06-29 10:38:51.875000,27.86,69.55
218877,2018-06-29 10:38:51.906250,23.65,69.55
218878,2018-06-29 10:38:51.937500,16.33,69.55
218879,2018-06-29 10:38:51.968750,7.84,69.55
218880,2018-06-29 10:38:52.000000,-2.1,69.55
218881,2018-06-29 10:38:52.031250,-13.37,69.55
218882,2018-06-29 10:38:52.062500,-22.97,69.55
218883,2018-06-29 10:38:52.093750,-29.25,69.55
218884,2018-06-29 10:38:52.125000,-35.98,69.55
218885,2018-06-29 10:38:52.156250,-47.34,69.55
218886,2018-06-29 10:38:52.187500,-60.66,69.55
218887,2018-06-29 10:38:52.218750,-70.05,69.55
218888,2018-06-29 10:38:52.250000,-74.42,69.55
218889,2018-06-29 10:38:52.281250,-77.66,69.55
218890,2018-06-29 10:38:52.312500,-84.15,69.55
218891,2018-06-29 10:38:52.343750,-96.0,69.55
218892,2018-06-29 10:38:52.375000,-109.87,69.55
218893,2018-06-29 10:38:52.406250,-117.53,69.55
218894,2018-06-29 10:38:52.437500,-112.7,69.55
218895,2018-06-29 10:38:52.468750,-95.23,69.55
218896,2018-06-29 10:38:52.500000,-68.62,69.55
218897,2018-06-29 10:38:52.531250,-39.32,69.45
218898,2018-06-29 10:38:52.562500,-16.33,69.45
218899,2018-06-29 10:38:52.593750,-4.98,69.45
218900,2018-06-29 10:38:52.625000,-3.02,69.45
218901,2018-06-29 10:38:52.656250,-3.79,69.45
218902,2018-06-29 10:38:52.687500,1.55,69.45
218903,2018-06-29 10:38:52.718750,19.56,69.45
218904,2018-06-29 10:38:52.750000,43.57,69.45
218905,2018-06-29 10:38:52.781250,56.38,69.45
218906,2018-06-29 10:38:52.812500,50.45,69.45
218907,2018-06-29 10:38:52.843750,34.05,69.45
218908,2018-06-29 10:38:52.875000,15.97,69.45
218909,2018-06-29 10:38:52.906250,-3.15,69.45
218910,2018-06-29 10:38:52.937500,-25.11,69.45
218911,2018-06-29 10:38:52.968750,-49.92,69.45
218912,2018-06-29 10:38:53.000000,-74.3,69.45
218913,2018-06-29 10:38:53.031250,-89.37,69.45
218914,2018-06-29 10:38:53.062500,-86.25,69.45
218915,2018-06-29 10:38:53.093750,-66.64,69.45
218916,2018-06-29 10:38:53.125000,-42.72,69.45
218917,2018-06-29 10:38:53.156250,-26.83,69.45
218918,2018-06-29 10:38:53.187500,-23.49,69.45
218919,2018-06-29 10:38:53.218750,-29.61,69.45
218920,2018-06-29 10:38:53.250000,-39.1,69.45
218921,2018-06-29 10:38:53.281250,-45.61,69.45
218922,2018-06-29 10:38:53.312500,-44.66,69.45
218923,2018-06-29 10:38:53.343750,-38.55,69.45
218924,2018-06-29 10:38:53.375000,-35.41,69.45
218925,2018-06-29 10:38:53.406250,-39.85,69.45
218926,2018-06-29 10:38:53.437500,-50.13,69.45
218927,2018-06-29 10:38:53.468750,-64.83,69.45
218928,2018-06-29 10:38:53.500000,-84.11,69.45
218929,2018-06-29 10:38:53.531250,-105.38,69.32
218930,2018-06-29 10:38:53.562500,-126.24,69.32
218931,2018-06-29 10:38:53.593750,-150.49,69.32
218932,2018-06-29 10:38:53.625000,-181.79,69.32
218933,2018-06-29 10:38:53.656250,-208.24,69.32
218934,2018-06-29 10:38:53.687500,-205.67,69.32
218935,2018-06-29 10:38:53.718750,-165.23,69.32
218936,2018-06-29 10:38:53.750000,-105.28,69.32
218937,2018-06-29 10:38:53.781250,-46.57,69.32
218938,2018-06-29 10:38:53.812500,7.69,69.32
218939,2018-06-29 10:38:53.843750,59.27,69.32
218940,2018-06-29 10:38:53.875000,101.45,69.32
218941,2018-06-29 10:38:53.906250,127.73,69.32
218942,2018-06-29 10:38:53.937500,141.14,69.32
218943,2018-06-29 10:38:53.968750,148.38,69.32
218944,2018-06-29 10:38:54.000000,151.34,69.32
218945,2018-06-29 10:38:54.031250,148.7,69.32
218946,2018-06-29 10:38:54.062500,142.21,69.32
218947,2018-06-29 10:38:54.093750,135.37,69.32
218948,2018-06-29 10:38:54.125000,127.93,69.32
218949,2018-06-29 10:38:54.156250,117.87,69.32
218950,2018-06-29 10:38:54.187500,106.02,69.32
218951,2018-06-29 10:38:54.218750,92.9,69.32
218952,2018-06-29 10:38:54.250000,75.14,69.32
218953,2018-06-29 10:38:54.281250,50.39,69.32
218954,2018-06-29 10:38:54.312500,21.37,69.32
218955,2018-06-29 10:38:54.343750,-8.6,69.32
218956,2018-06-29 10:38:54.375000,-38.95,69.32
218957,2018-06-29 10:38:54.406250,-70.29,69.32
218958,2018-06-29 10:38:54.437500,-103.27,69.32
218959,2018-06-29 10:38:54.468750,-137.36,69.32
218960,2018-06-29 10:38:54.500000,-169.82,69.32
218961,2018-06-29 10:38:54.531250,-198.49,69.18
218962,2018-06-29 10:38:54.562500,-222.37,69.18
218963,2018-06-29 10:38:54.593750,-238.98,69.18
218964,2018-06-29 10:38:54.625000,-245.52,69.18
218965,2018-06-29 10:38:54.656250,-240.74,69.18
218966,2018-06-29 10:38:54.687500,-223.9,69.18
218967,2018-06-29 10:38:54.718750,-198.87,69.18
218968,2018-06-29 10:38:54.750000,-176.72,69.18
218969,2018-06-29 10:38:54.781250,-162.17,69.18
218970,2018-06-29 10:38:54.812500,-144.75,69.18
218971,2018-06-29 10:38:54.843750,-115.78,69.18
218972,2018-06-29 10:38:54.875000,-82.51,69.18
218973,2018-06-29 10:38:54.906250,-55.69,69.18
218974,2018-06-29 10:38:54.937500,-35.44,69.18
218975,2018-06-29 10:38:54.968750,-16.62,69.18
218976,2018-06-29 10:38:55.000000,2.45,69.18
218977,2018-06-29 10:38:55.031250,21.87,69.18
218978,2018-06-29 10:38:55.062500,43.05,69.18
218979,2018-06-29 10:38:55.093750,67.12,69.18
218980,2018-06-29 10:38:55.125000,93.29,69.18
218981,2018-06-29 10:38:55.156250,119.88,69.18
218982,2018-06-29 10:38:55.187500,146.02,69.18
218983,2018-06-29 10:38:55.218750,172.21,69.18
218984,2018-06-29 10:38:55.250000,199.51,69.18
218985,2018-06-29 10:38:55.281250,229.47,69.18
218986,2018-06-29 10:38:55.312500,262.98,69.18
218987,2018-06-29 10:38:55.343750,294.38,69.18
218988,2018-06-29 10:38:55.375000,311.28,69.18
218989,2018-06-29 10:38:55.406250,308.17,69.18
218990,2018-06-29 10:38:55.437500,294.17,69.18
218991,2018-06-29 10:38:55.468750,281.88,69.18
218992,2018-06-29 10:38:55.500000,276.68,69.18
218993,2018-06-29 10:38:55.531250,278.83,69.0
218994,2018-06-29 10:38:55.562500,283.85,69.0
218995,2018-06-29 10:38:55.593750,280.84,69.0
218996,2018-06-29 10:38:55.625000,259.82,69.0
218997,2018-06-29 10:38:55.656250,219.92,69.0
218998,2018-06-29 10:38:55.687500,167.31,69.0
218999,2018-06-29 10:38:55.718750,108.09,69.0
219000,2018-06-29 10:38:55.750000,44.39,69.0
219001,2018-06-29 10:38:55.781250,-22.79,69.0
219002,2018-06-29 10:38:55.812500,-84.0,69.0
219003,2018-06-29 10:38:55.843750,-119.41,69.0
219004,2018-06-29 10:38:55.875000,-116.65,69.0
219005,2018-06-29 10:38:55.906250,-86.57,69.0
219006,2018-06-29 10:38:55.937500,-51.2,69.0
219007,2018-06-29 10:38:55.968750,-21.78,69.0
219008,2018-06-29 10:38:56.000000,2.54,69.0
219009,2018-06-29 10:38:56.031250,23.05,69.0
219010,2018-06-29 10:38:56.062500,39.11,69.0
219011,2018-06-29 10:38:56.093750,52.18,69.0
219012,2018-06-29 10:38:56.125000,65.26,69.0
219013,2018-06-29 10:38:56.156250,78.79,69.0
219014,2018-06-29 10:38:56.187500,90.93,69.0
219015,2018-06-29 10:38:56.218750,101.99,69.0
219016,2018-06-29 10:38:56.250000,114.28,69.0
219017,2018-06-29 10:38:56.281250,126.61,69.0
219018,2018-06-29 10:38:56.312500,135.14,69.0
219019,2018-06-29 10:38:56.343750,140.63,69.0
219020,2018-06-29 10:38:56.375000,147.15,69.0
219021,2018-06-29 10:38:56.406250,154.07,69.0
219022,2018-06-29 10:38:56.437500,156.7,69.0
219023,2018-06-29 10:38:56.468750,153.23,69.0
219024,2018-06-29 10:38:56.500000,145.1,69.0
219025,2018-06-29 10:38:56.531250,131.71,68.78
219026,2018-06-29 10:38:56.562500,108.57,68.78
219027,2018-06-29 10:38:56.593750,72.45,68.78
219028,2018-06-29 10:38:56.625000,27.76,68.78
219029,2018-06-29 10:38:56.656250,-15.61,68.78
219030,2018-06-29 10:38:56.687500,-52.76,68.78
219031,2018-06-29 10:38:56.718750,-89.61,68.78
219032,2018-06-29 10:38:56.750000,-134.67,68.78
219033,2018-06-29 10:38:56.781250,-183.31,68.78
219034,2018-06-29 10:38:56.812500,-213.36,68.78
219035,2018-06-29 10:38:56.843750,-205.42,68.78
219036,2018-06-29 10:38:56.875000,-167.1,68.78
219037,2018-06-29 10:38:56.906250,-125.1,68.78
219038,2018-06-29 10:38:56.937500,-95.08,68.78
219039,2018-06-29 10:38:56.968750,-73.51,68.78
219040,2018-06-29 10:38:57.000000,-54.57,68.78
219041,2018-06-29 10:38:57.031250,-38.68,68.78
219042,2018-06-29 10:38:57.062500,-25.89,68.78
219043,2018-06-29 10:38:57.093750,-13.71,68.78
219044,2018-06-29 10:38:57.125000,-1.91,68.78
219045,2018-06-29 10:38:57.156250,8.04,68.78
219046,2018-06-29 10:38:57.187500,17.23,68.78
219047,2018-06-29 10:38:57.218750,27.3,68.78
219048,2018-06-29 10:38:57.250000,35.48,68.78
219049,2018-06-29 10:38:57.281250,37.26,68.78
219050,2018-06-29 10:38:57.312500,32.8,68.78
219051,2018-06-29 10:38:57.343750,26.06,68.78
219052,2018-06-29 10:38:57.375000,19.25,68.78
219053,2018-06-29 10:38:57.406250,11.82,68.78
219054,2018-06-29 10:38:57.437500,3.71,68.78
219055,2018-06-29 10:38:57.468750,-3.76,68.78
219056,2018-06-29 10:38:57.500000,-10.07,68.78
219057,2018-06-29 10:38:57.531250,-15.87,68.48
219058,2018-06-29 10:38:57.562500,-21.11,68.48
219059,2018-06-29 10:38:57.593750,-25.2,68.48
219060,2018-06-29 10:38:57.625000,-28.83,68.48
219061,2018-06-29 10:38:57.656250,-33.84,68.48
219062,2018-06-29 10:38:57.687500,-40.97,68.48
219063,2018-06-29 10:38:57.718750,-46.73,68.48
219064,2018-06-29 10:38:57.750000,-42.86,68.48
219065,2018-06-29 10:38:57.781250,-23.81,68.48
219066,2018-06-29 10:38:57.812500,4.12,68.48
219067,2018-06-29 10:38:57.843750,27.89,68.48
219068,2018-06-29 10:38:57.875000,41.54,68.48
219069,2018-06-29 10:38:57.906250,47.5,68.48
219070,2018-06-29 10:38:57.937500,47.32,68.48
219071,2018-06-29 10:38:57.968750,40.71,68.48
219072,2018-06-29 10:38:58.000000,31.26,68.48
219073,2018-06-29 10:38:58.031250,25.22,68.48
219074,2018-06-29 10:38:58.062500,25.39,68.48
219075,2018-06-29 10:38:58.093750,30.35,68.48
219076,2018-06-29 10:38:58.125000,38.33,68.48
219077,2018-06-29 10:38:58.156250,48.57,68.48
219078,2018-06-29 10:38:58.187500,59.31,68.48
219079,2018-06-29 10:38:58.218750,67.51,68.48
219080,2018-06-29 10:38:58.250000,71.96,68.48
219081,2018-06-29 10:38:58.281250,75.28,68.48
219082,2018-06-29 10:38:58.312500,80.4,68.48
219083,2018-06-29 10:38:58.343750,86.79,68.48
219084,2018-06-29 10:38:58.375000,90.97,68.48
219085,2018-06-29 10:38:58.406250,89.0,68.48
219086,2018-06-29 10:38:58.437500,77.96,68.48
219087,2018-06-29 10:38:58.468750,56.43,68.48
219088,2018-06-29 10:38:58.500000,23.39,68.48
219089,2018-06-29 10:38:58.531250,-21.33,68.25
219090,2018-06-29 10:38:58.562500,-72.37,68.25
219091,2018-06-29 10:38:58.593750,-115.22,68.25
219092,2018-06-29 10:38:58.625000,-133.57,68.25
219093,2018-06-29 10:38:58.656250,-123.77,68.25
219094,2018-06-29 10:38:58.687500,-98.58,68.25
219095,2018-06-29 10:38:58.718750,-73.28,68.25
219096,2018-06-29 10:38:58.750000,-53.36,68.25
219097,2018-06-29 10:38:58.781250,-38.53,68.25
219098,2018-06-29 10:38:58.812500,-30.16,68.25
219099,2018-06-29 10:38:58.843750,-27.65,68.25
219100,2018-06-29 10:38:58.875000,-25.05,68.25
219101,2018-06-29 10:38:58.906250,-17.75,68.25
219102,2018-06-29 10:38:58.937500,-8.16,68.25
219103,2018-06-29 10:38:58.968750,-0.88,68.25
219104,2018-06-29 10:38:59.000000,3.68,68.25
219105,2018-06-29 10:38:59.031250,7.23,68.25
219106,2018-06-29 10:38:59.062500,8.82,68.25
219107,2018-06-29 10:38:59.093750,6.55,68.25
219108,2018-06-29 10:38:59.125000,1.2,68.25
219109,2018-06-29 10:38:59.156250,-4.52,68.25
219110,2018-06-29 10:38:59.187500,-8.9,68.25
219111,2018-06-29 10:38:59.218750,-12.49,68.25
219112,2018-06-29 10:38:59.250000,-17.17,68.25
219113,2018-06-29 10:38:59.281250,-24.3,68.25
219114,2018-06-29 10:38:59.312500,-32.65,68.25
219115,2018-06-29 10:38:59.343750,-38.02,68.25
219116,2018-06-29 10:38:59.375000,-34.47,68.25
219117,2018-06-29 10:38:59.406250,-18.24,68.25
219118,2018-06-29 10:38:59.437500,6.67,68.25
219119,2018-06-29 10:38:59.468750,29.45,68.25
219120,2018-06-29 10:38:59.500000,42.32,68.25
219121,2018-06-29 10:38:59.531250,46.87,68.07
219122,2018-06-29 10:38:59.562500,49.08,68.07
219123,2018-06-29 10:38:59.593750,53.21,68.07
219124,2018-06-29 10:38:59.625000,60.41,68.07
219125,2018-06-29 10:38:59.656250,65.56,68.07
219126,2018-06-29 10:38:59.687500,56.23,68.07
219127,2018-06-29 10:38:59.718750,24.11,68.07
219128,2018-06-29 10:38:59.750000,-21.73,68.07
219129,2018-06-29 10:38:59.781250,-60.29,68.07
219130,2018-06-29 10:38:59.812500,-77.21,68.07
219131,2018-06-29 10:38:59.843750,-73.33,68.07
219132,2018-06-29 10:38:59.875000,-57.89,68.07
219133,2018-06-29 10:38:59.906250,-39.44,68.07
219134,2018-06-29 10:38:59.937500,-24.59,68.07
219135,2018-06-29 10:38:59.968750,-21.63,68.07
219136,2018-06-29 10:39:00.000000,-40.45,68.07
219137,2018-06-29 10:39:00.031250,-86.57,68.07
219138,2018-06-29 10:39:00.062500,-152.23,68.07
219139,2018-06-29 10:39:00.093750,-210.35,68.07
219140,2018-06-29 10:39:00.125000,-225.87,68.07
219141,2018-06-29 10:39:00.156250,-185.76,68.07
219142,2018-06-29 10:39:00.187500,-112.19,68.07
219143,2018-06-29 10:39:00.218750,-38.26,68.07
219144,2018-06-29 10:39:00.250000,17.66,68.07
219145,2018-06-29 10:39:00.281250,50.39,68.07
219146,2018-06-29 10:39:00.312500,60.77,68.07
219147,2018-06-29 10:39:00.343750,55.43,68.07
219148,2018-06-29 10:39:00.375000,39.05,68.07
219149,2018-06-29 10:39:00.406250,7.59,68.07
219150,2018-06-29 10:39:00.437500,-39.97,68.07
219151,2018-06-29 10:39:00.468750,-89.64,68.07
219152,2018-06-29 10:39:00.500000,-123.36,68.07
219153,2018-06-29 10:39:00.531250,-136.6,67.88
219154,2018-06-29 10:39:00.562500,-137.63,67.88
219155,2018-06-29 10:39:00.593750,-135.12,67.88
219156,2018-06-29 10:39:00.625000,-134.16,67.88
219157,2018-06-29 10:39:00.656250,-139.31,67.88
219158,2018-06-29 10:39:00.687500,-153.97,67.88
219159,2018-06-29 10:39:00.718750,-177.02,67.88
219160,2018-06-29 10:39:00.750000,-204.27,67.88
219161,2018-06-29 10:39:00.781250,-232.49,67.88
219162,2018-06-29 10:39:00.812500,-258.09,67.88
219163,2018-06-29 10:39:00.843750,-272.25,67.88
219164,2018-06-29 10:39:00.875000,-263.46,67.88
219165,2018-06-29 10:39:00.906250,-226.68,67.88
219166,2018-06-29 10:39:00.937500,-166.98,67.88
219167,2018-06-29 10:39:00.968750,-96.41,67.88
219168,2018-06-29 10:39:01.000000,-29.28,67.88
219169,2018-06-29 10:39:01.031250,24.2,67.88
219170,2018-06-29 10:39:01.062500,63.05,67.88
219171,2018-06-29 10:39:01.093750,91.75,67.88
219172,2018-06-29 10:39:01.125000,112.23,67.88
219173,2018-06-29 10:39:01.156250,122.89,67.88
219174,2018-06-29 10:39:01.187500,124.47,67.88
219175,2018-06-29 10:39:01.218750,121.91,67.88
219176,2018-06-29 10:39:01.250000,119.05,67.88
219177,2018-06-29 10:39:01.281250,116.05,67.88
219178,2018-06-29 10:39:01.312500,113.57,67.88
219179,2018-06-29 10:39:01.343750,113.87,67.88
219180,2018-06-29 10:39:01.375000,117.33,67.88
219181,2018-06-29 10:39:01.406250,122.38,67.88
219182,2018-06-29 10:39:01.437500,127.39,67.88
219183,2018-06-29 10:39:01.468750,129.37,67.88
219184,2018-06-29 10:39:01.500000,124.21,67.88
219185,2018-06-29 10:39:01.531250,109.46,67.7
219186,2018-06-29 10:39:01.562500,86.25,67.7
219187,2018-06-29 10:39:01.593750,59.29,67.7
219188,2018-06-29 10:39:01.625000,35.2,67.7
219189,2018-06-29 10:39:01.656250,17.18,67.7
219190,2018-06-29 10:39:01.687500,2.36,67.7
219191,2018-06-29 10:39:01.718750,-13.15,67.7
219192,2018-06-29 10:39:01.750000,-29.09,67.7
219193,2018-06-29 10:39:01.781250,-44.3,67.7
219194,2018-06-29 10:39:01.812500,-61.57,67.7
219195,2018-06-29 10:39:01.843750,-85.87,67.7
219196,2018-06-29 10:39:01.875000,-117.49,67.7
219197,2018-06-29 10:39:01.906250,-146.63,67.7
219198,2018-06-29 10:39:01.937500,-156.13,67.7
219199,2018-06-29 10:39:01.968750,-136.1,67.7
219200,2018-06-29 10:39:02.000000,-95.4,67.7
219201,2018-06-29 10:39:02.031250,-50.79,67.7
219202,2018-06-29 10:39:02.062500,-8.48,67.7
219203,2018-06-29 10:39:02.093750,34.3,67.7
219204,2018-06-29 10:39:02.125000,74.4,67.7
219205,2018-06-29 10:39:02.156250,101.0,67.7
219206,2018-06-29 10:39:02.187500,108.28,67.7
219207,2018-06-29 10:39:02.218750,102.79,67.7
219208,2018-06-29 10:39:02.250000,96.5,67.7
219209,2018-06-29 10:39:02.281250,96.29,67.7
219210,2018-06-29 10:39:02.312500,102.23,67.7
219211,2018-06-29 10:39:02.343750,111.99,67.7
219212,2018-06-29 10:39:02.375000,122.05,67.7
219213,2018-06-29 10:39:02.406250,127.88,67.7
219214,2018-06-29 10:39:02.437500,127.83,67.7
219215,2018-06-29 10:39:02.468750,124.76,67.7
219216,2018-06-29 10:39:02.500000,121.12,67.7
219217,2018-06-29 10:39:02.531250,115.75,67.52
219218,2018-06-29 10:39:02.562500,107.95,67.52
219219,2018-06-29 10:39:02.593750,100.34,67.52
219220,2018-06-29 10:39:02.625000,94.99,67.52
219221,2018-06-29 10:39:02.656250,89.63,67.52
219222,2018-06-29 10:39:02.687500,79.8,67.52
219223,2018-06-29 10:39:02.718750,63.27,67.52
219224,2018-06-29 10:39:02.750000,41.18,67.52
219225,2018-06-29 10:39:02.781250,15.68,67.52
219226,2018-06-29 10:39:02.812500,-11.17,67.52
219227,2018-06-29 10:39:02.843750,-36.55,67.52
219228,2018-06-29 10:39:02.875000,-57.27,67.52
219229,2018-06-29 10:39:02.906250,-72.58,67.52
219230,2018-06-29 10:39:02.937500,-86.09,67.52
219231,2018-06-29 10:39:02.968750,-102.42,67.52
219232,2018-06-29 10:39:03.000000,-119.43,67.52
219233,2018-06-29 10:39:03.031250,-124.86,67.52
219234,2018-06-29 10:39:03.062500,-106.61,67.52
219235,2018-06-29 10:39:03.093750,-67.92,67.52
219236,2018-06-29 10:39:03.125000,-25.43,67.52
219237,2018-06-29 10:39:03.156250,8.09,67.52
219238,2018-06-29 10:39:03.187500,32.0,67.52
219239,2018-06-29 10:39:03.218750,49.88,67.52
219240,2018-06-29 10:39:03.250000,62.11,67.52
219241,2018-06-29 10:39:03.281250,67.91,67.52
219242,2018-06-29 10:39:03.312500,69.36,67.52
219243,2018-06-29 10:39:03.343750,71.76,67.52
219244,2018-06-29 10:39:03.375000,80.0,67.52
219245,2018-06-29 10:39:03.406250,94.82,67.52
219246,2018-06-29 10:39:03.437500,113.68,67.52
219247,2018-06-29 10:39:03.468750,133.1,67.52
219248,2018-06-29 10:39:03.500000,147.62,67.52
219249,2018-06-29 10:39:03.531250,150.91,67.32
219250,2018-06-29 10:39:03.562500,141.5,67.32
219251,2018-06-29 10:39:03.593750,124.29,67.32
219252,2018-06-29 10:39:03.625000,104.92,67.32
219253,2018-06-29 10:39:03.656250,85.57,67.32
219254,2018-06-29 10:39:03.687500,66.48,67.32
219255,2018-06-29 10:39:03.718750,48.77,67.32
219256,2018-06-29 10:39:03.750000,34.24,67.32
219257,2018-06-29 10:39:03.781250,23.28,67.32
219258,2018-06-29 10:39:03.812500,14.77,67.32
219259,2018-06-29 10:39:03.843750,7.69,67.32
219260,2018-06-29 10:39:03.875000,2.21,67.32
219261,2018-06-29 10:39:03.906250,-0.69,67.32
219262,2018-06-29 10:39:03.937500,-0.46,67.32
219263,2018-06-29 10:39:03.968750,1.54,67.32
219264,2018-06-29 10:39:04.000000,2.1,67.32
219265,2018-06-29 10:39:04.031250,-0.97,67.32
219266,2018-06-29 10:39:04.062500,-5.14,67.32
219267,2018-06-29 10:39:04.093750,-2.56,67.32
219268,2018-06-29 10:39:04.125000,13.73,67.32
219269,2018-06-29 10:39:04.156250,41.9,67.32
219270,2018-06-29 10:39:04.187500,73.11,67.32
219271,2018-06-29 10:39:04.218750,100.84,67.32
219272,2018-06-29 10:39:04.250000,124.07,67.32
219273,2018-06-29 10:39:04.281250,141.13,67.32
219274,2018-06-29 10:39:04.312500,147.36,67.32
219275,2018-06-29 10:39:04.343750,141.36,67.32
219276,2018-06-29 10:39:04.375000,127.88,67.32
219277,2018-06-29 10:39:04.406250,110.86,67.32
219278,2018-06-29 10:39:04.437500,87.38,67.32
219279,2018-06-29 10:39:04.468750,53.3,67.32
219280,2018-06-29 10:39:04.500000,12.03,67.32
219281,2018-06-29 10:39:04.531250,-26.59,67.08
219282,2018-06-29 10:39:04.562500,-54.4,67.08
219283,2018-06-29 10:39:04.593750,-69.66,67.08
219284,2018-06-29 10:39:04.625000,-76.47,67.08
219285,2018-06-29 10:39:04.656250,-81.65,67.08
219286,2018-06-29 10:39:04.687500,-89.41,67.08
219287,2018-06-29 10:39:04.718750,-98.47,67.08
219288,2018-06-29 10:39:04.750000,-106.46,67.08
219289,2018-06-29 10:39:04.781250,-113.68,67.08
219290,2018-06-29 10:39:04.812500,-120.69,67.08
219291,2018-06-29 10:39:04.843750,-126.36,67.08
219292,2018-06-29 10:39:04.875000,-130.63,67.08
219293,2018-06-29 10:39:04.906250,-135.07,67.08
219294,2018-06-29 10:39:04.937500,-140.9,67.08
219295,2018-06-29 10:39:04.968750,-148.04,67.08
219296,2018-06-29 10:39:05.000000,-151.98,67.08
219297,2018-06-29 10:39:05.031250,-141.72,67.08
219298,2018-06-29 10:39:05.062500,-111.15,67.08
219299,2018-06-29 10:39:05.093750,-71.03,67.08
219300,2018-06-29 10:39:05.125000,-38.97,67.08
219301,2018-06-29 10:39:05.156250,-20.82,67.08
219302,2018-06-29 10:39:05.187500,-10.98,67.08
219303,2018-06-29 10:39:05.218750,-4.54,67.08
219304,2018-06-29 10:39:05.250000,-0.26,67.08
219305,2018-06-29 10:39:05.281250,2.09,67.08
219306,2018-06-29 10:39:05.312500,2.39,67.08
219307,2018-06-29 10:39:05.343750,0.84,67.08
219308,2018-06-29 10:39:05.375000,-0.84,67.08
219309,2018-06-29 10:39:05.406250,-0.59,67.08
219310,2018-06-29 10:39:05.437500,1.22,67.08
219311,2018-06-29 10:39:05.468750,1.82,67.08
219312,2018-06-29 10:39:05.500000,-0.72,67.08
219313,2018-06-29 10:39:05.531250,-5.59,66.87
219314,2018-06-29 10:39:05.562500,-10.88,66.87
219315,2018-06-29 10:39:05.593750,-15.6,66.87
219316,2018-06-29 10:39:05.625000,-20.25,66.87
219317,2018-06-29 10:39:05.656250,-26.32,66.87
219318,2018-06-29 10:39:05.687500,-34.2,66.87
219319,2018-06-29 10:39:05.718750,-41.64,66.87
219320,2018-06-29 10:39:05.750000,-46.53,66.87
219321,2018-06-29 10:39:05.781250,-50.25,66.87
219322,2018-06-29 10:39:05.812500,-55.26,66.87
219323,2018-06-29 10:39:05.843750,-61.01,66.87
219324,2018-06-29 10:39:05.875000,-65.93,66.87
219325,2018-06-29 10:39:05.906250,-70.8,66.87
219326,2018-06-29 10:39:05.937500,-77.3,66.87
219327,2018-06-29 10:39:05.968750,-85.36,66.87
219328,2018-06-29 10:39:06.000000,-90.61,66.87
219329,2018-06-29 10:39:06.031250,-83.37,66.87
219330,2018-06-29 10:39:06.062500,-58.03,66.87
219331,2018-06-29 10:39:06.093750,-24.4,66.87
219332,2018-06-29 10:39:06.125000,0.51,66.87
219333,2018-06-29 10:39:06.156250,11.54,66.87
219334,2018-06-29 10:39:06.187500,15.8,66.87
219335,2018-06-29 10:39:06.218750,18.82,66.87
219336,2018-06-29 10:39:06.250000,20.32,66.87
219337,2018-06-29 10:39:06.281250,19.87,66.87
219338,2018-06-29 10:39:06.312500,19.09,66.87
219339,2018-06-29 10:39:06.343750,19.35,66.87
219340,2018-06-29 10:39:06.375000,21.16,66.87
219341,2018-06-29 10:39:06.406250,24.63,66.87
219342,2018-06-29 10:39:06.437500,28.95,66.87
219343,2018-06-29 10:39:06.468750,31.84,66.87
219344,2018-06-29 10:39:06.500000,30.8,66.87
219345,2018-06-29 10:39:06.531250,25.35,66.65
219346,2018-06-29 10:39:06.562500,18.04,66.65
219347,2018-06-29 10:39:06.593750,12.33,66.65
219348,2018-06-29 10:39:06.625000,8.62,66.65
219349,2018-06-29 10:39:06.656250,4.23,66.65
219350,2018-06-29 10:39:06.687500,-1.64,66.65
219351,2018-06-29 10:39:06.718750,-6.78,66.65
219352,2018-06-29 10:39:06.750000,-10.75,66.65
219353,2018-06-29 10:39:06.781250,-16.72,66.65
219354,2018-06-29 10:39:06.812500,-26.6,66.65
219355,2018-06-29 10:39:06.843750,-37.86,66.65
219356,2018-06-29 10:39:06.875000,-47.07,66.65
219357,2018-06-29 10:39:06.906250,-54.41,66.65
219358,2018-06-29 10:39:06.937500,-62.53,66.65
219359,2018-06-29 10:39:06.968750,-72.87,66.65
219360,2018-06-29 10:39:07.000000,-82.41,66.65
219361,2018-06-29 10:39:07.031250,-81.75,66.65
219362,2018-06-29 10:39:07.062500,-62.75,66.65
219363,2018-06-29 10:39:07.093750,-31.42,66.65
219364,2018-06-29 10:39:07.125000,-4.18,66.65
219365,2018-06-29 10:39:07.156250,10.85,66.65
219366,2018-06-29 10:39:07.187500,18.69,66.65
219367,2018-06-29 10:39:07.218750,25.1,66.65
219368,2018-06-29 10:39:07.250000,30.17,66.65
219369,2018-06-29 10:39:07.281250,32.28,66.65
219370,2018-06-29 10:39:07.312500,31.61,66.65
219371,2018-06-29 10:39:07.343750,30.0,66.65
219372,2018-06-29 10:39:07.375000,29.11,66.65
219373,2018-06-29 10:39:07.406250,29.38,66.65
219374,2018-06-29 10:39:07.437500,30.45,66.65
219375,2018-06-29 10:39:07.468750,31.01,66.65
219376,2018-06-29 10:39:07.500000,29.25,66.65
219377,2018-06-29 10:39:07.531250,24.99,66.43
219378,2018-06-29 10:39:07.562500,20.1,66.43
219379,2018-06-29 10:39:07.593750,15.97,66.43
219380,2018-06-29 10:39:07.625000,12.13,66.43
219381,2018-06-29 10:39:07.656250,7.36,66.43
219382,2018-06-29 10:39:07.687500,1.34,66.43
219383,2018-06-29 10:39:07.718750,-4.98,66.43
219384,2018-06-29 10:39:07.750000,-10.34,66.43
219385,2018-06-29 10:39:07.781250,-13.97,66.43
219386,2018-06-29 10:39:07.812500,-16.27,66.43
219387,2018-06-29 10:39:07.843750,-19.07,66.43
219388,2018-06-29 10:39:07.875000,-24.28,66.43
219389,2018-06-29 10:39:07.906250,-31.32,66.43
219390,2018-06-29 10:39:07.937500,-37.87,66.43
219391,2018-06-29 10:39:07.968750,-43.75,66.43
219392,2018-06-29 10:39:08.000000,-51.44,66.43
219393,2018-06-29 10:39:08.031250,-62.46,66.43
219394,2018-06-29 10:39:08.062500,-73.22,66.43
219395,2018-06-29 10:39:08.093750,-74.07,66.43
219396,2018-06-29 10:39:08.125000,-57.19,66.43
219397,2018-06-29 10:39:08.156250,-28.0,66.43
219398,2018-06-29 10:39:08.187500,-1.66,66.43
219399,2018-06-29 10:39:08.218750,13.79,66.43
219400,2018-06-29 10:39:08.250000,22.37,66.43
219401,2018-06-29 10:39:08.281250,28.91,66.43
219402,2018-06-29 10:39:08.312500,32.47,66.43
219403,2018-06-29 10:39:08.343750,31.41,66.43
219404,2018-06-29 10:39:08.375000,27.46,66.43
219405,2018-06-29 10:39:08.406250,23.25,66.43
219406,2018-06-29 10:39:08.437500,19.41,66.43
219407,2018-06-29 10:39:08.468750,16.0,66.43
219408,2018-06-29 10:39:08.500000,13.62,66.43
219409,2018-06-29 10:39:08.531250,10.99,66.23
219410,2018-06-29 10:39:08.562500,4.27,66.23
219411,2018-06-29 10:39:08.593750,-7.65,66.23
219412,2018-06-29 10:39:08.625000,-19.61,66.23
219413,2018-06-29 10:39:08.656250,-25.17,66.23
219414,2018-06-29 10:39:08.687500,-22.88,66.23
219415,2018-06-29 10:39:08.718750,-15.4,66.23
219416,2018-06-29 10:39:08.750000,-5.21,66.23
219417,2018-06-29 10:39:08.781250,5.02,66.23
219418,2018-06-29 10:39:08.812500,10.63,66.23
219419,2018-06-29 10:39:08.843750,8.5,66.23
219420,2018-06-29 10:39:08.875000,1.06,66.23
219421,2018-06-29 10:39:08.906250,-6.5,66.23
219422,2018-06-29 10:39:08.937500,-12.34,66.23
219423,2018-06-29 10:39:08.968750,-19.35,66.23
219424,2018-06-29 10:39:09.000000,-30.84,66.23
219425,2018-06-29 10:39:09.031250,-44.95,66.23
219426,2018-06-29 10:39:09.062500,-52.63,66.23
219427,2018-06-29 10:39:09.093750,-44.06,66.23
219428,2018-06-29 10:39:09.125000,-19.69,66.23
219429,2018-06-29 10:39:09.156250,9.02,66.23
219430,2018-06-29 10:39:09.187500,31.56,66.23
219431,2018-06-29 10:39:09.218750,45.92,66.23
219432,2018-06-29 10:39:09.250000,53.32,66.23
219433,2018-06-29 10:39:09.281250,53.44,66.23
219434,2018-06-29 10:39:09.312500,47.87,66.23
219435,2018-06-29 10:39:09.343750,42.2,66.23
219436,2018-06-29 10:39:09.375000,40.86,66.23
219437,2018-06-29 10:39:09.406250,43.23,66.23
219438,2018-06-29 10:39:09.437500,46.22,66.23
219439,2018-06-29 10:39:09.468750,47.65,66.23
219440,2018-06-29 10:39:09.500000,45.89,66.23
219441,2018-06-29 10:39:09.531250,39.27,66.03
219442,2018-06-29 10:39:09.562500,28.57,66.03
219443,2018-06-29 10:39:09.593750,17.6,66.03
219444,2018-06-29 10:39:09.625000,8.51,66.03
219445,2018-06-29 10:39:09.656250,-0.7,66.03
219446,2018-06-29 10:39:09.687500,-11.34,66.03
219447,2018-06-29 10:39:09.718750,-20.48,66.03
219448,2018-06-29 10:39:09.750000,-25.85,66.03
219449,2018-06-29 10:39:09.781250,-30.36,66.03
219450,2018-06-29 10:39:09.812500,-39.44,66.03
219451,2018-06-29 10:39:09.843750,-55.38,66.03
219452,2018-06-29 10:39:09.875000,-72.44,66.03
219453,2018-06-29 10:39:09.906250,-77.3,66.03
219454,2018-06-29 10:39:09.937500,-60.94,66.03
219455,2018-06-29 10:39:09.968750,-30.04,66.03
219456,2018-06-29 10:39:10.000000,0.27,66.03
219457,2018-06-29 10:39:10.031250,22.64,66.03
219458,2018-06-29 10:39:10.062500,39.58,66.03
219459,2018-06-29 10:39:10.093750,53.19,66.03
219460,2018-06-29 10:39:10.125000,60.99,66.03
219461,2018-06-29 10:39:10.156250,61.82,66.03
219462,2018-06-29 10:39:10.187500,59.61,66.03
219463,2018-06-29 10:39:10.218750,58.35,66.03
219464,2018-06-29 10:39:10.250000,57.53,66.03
219465,2018-06-29 10:39:10.281250,55.42,66.03
219466,2018-06-29 10:39:10.312500,52.5,66.03
219467,2018-06-29 10:39:10.343750,48.65,66.03
219468,2018-06-29 10:39:10.375000,41.75,66.03
219469,2018-06-29 10:39:10.406250,31.18,66.03
219470,2018-06-29 10:39:10.437500,19.75,66.03
219471,2018-06-29 10:39:10.468750,10.62,66.03
219472,2018-06-29 10:39:10.500000,3.01,66.03
219473,2018-06-29 10:39:10.531250,-6.89,65.87
219474,2018-06-29 10:39:10.562500,-20.14,65.87
219475,2018-06-29 10:39:10.593750,-33.38,65.87
219476,2018-06-29 10:39:10.625000,-43.69,65.87
219477,2018-06-29 10:39:10.656250,-52.53,65.87
219478,2018-06-29 10:39:10.687500,-64.1,65.87
219479,2018-06-29 10:39:10.718750,-80.49,65.87
219480,2018-06-29 10:39:10.750000,-95.17,65.87
219481,2018-06-29 10:39:10.781250,-93.53,65.87
219482,2018-06-29 10:39:10.812500,-67.87,65.87
219483,2018-06-29 10:39:10.843750,-28.95,65.87
219484,2018-06-29 10:39:10.875000,5.6,65.87
219485,2018-06-29 10:39:10.906250,29.14,65.87
219486,2018-06-29 10:39:10.937500,45.65,65.87
219487,2018-06-29 10:39:10.968750,58.8,65.87
219488,2018-06-29 10:39:11.000000,68.4,65.87
219489,2018-06-29 10:39:11.031250,73.08,65.87
219490,2018-06-29 10:39:11.062500,72.81,65.87
219491,2018-06-29 10:39:11.093750,69.74,65.87
219492,2018-06-29 10:39:11.125000,66.76,65.87
219493,2018-06-29 10:39:11.156250,65.08,65.87
219494,2018-06-29 10:39:11.187500,63.5,65.87
219495,2018-06-29 10:39:11.218750,59.41,65.87
219496,2018-06-29 10:39:11.250000,51.4,65.87
219497,2018-06-29 10:39:11.281250,41.08,65.87
219498,2018-06-29 10:39:11.312500,30.9,65.87
219499,2018-06-29 10:39:11.343750,21.19,65.87
219500,2018-06-29 10:39:11.375000,11.09,65.87
219501,2018-06-29 10:39:11.406250,1.27,65.87
219502,2018-06-29 10:39:11.437500,-7.34,65.87
219503,2018-06-29 10:39:11.468750,-16.2,65.87
219504,2018-06-29 10:39:11.500000,-26.89,65.87
219505,2018-06-29 10:39:11.531250,-38.03,65.72
219506,2018-06-29 10:39:11.562500,-47.72,65.72
219507,2018-06-29 10:39:11.593750,-58.01,65.72
219508,2018-06-29 10:39:11.625000,-73.66,65.72
219509,2018-06-29 10:39:11.656250,-94.59,65.72
219510,2018-06-29 10:39:11.687500,-109.76,65.72
219511,2018-06-29 10:39:11.718750,-103.03,65.72
219512,2018-06-29 10:39:11.750000,-70.68,65.72
219513,2018-06-29 10:39:11.781250,-28.43,65.72
219514,2018-06-29 10:39:11.812500,5.04,65.72
219515,2018-06-29 10:39:11.843750,25.95,65.72
219516,2018-06-29 10:39:11.875000,41.26,65.72
219517,2018-06-29 10:39:11.906250,54.87,65.72
219518,2018-06-29 10:39:11.937500,64.65,65.72
219519,2018-06-29 10:39:11.968750,68.13,65.72
219520,2018-06-29 10:39:12.000000,66.38,65.72
219521,2018-06-29 10:39:12.031250,63.31,65.72
219522,2018-06-29 10:39:12.062500,62.02,65.72
219523,2018-06-29 10:39:12.093750,63.01,65.72
219524,2018-06-29 10:39:12.125000,64.75,65.72
219525,2018-06-29 10:39:12.156250,63.89,65.72
219526,2018-06-29 10:39:12.187500,57.01,65.72
219527,2018-06-29 10:39:12.218750,44.97,65.72
219528,2018-06-29 10:39:12.250000,33.17,65.72
219529,2018-06-29 10:39:12.281250,25.05,65.72
219530,2018-06-29 10:39:12.312500,18.47,65.72
219531,2018-06-29 10:39:12.343750,9.96,65.72
219532,2018-06-29 10:39:12.375000,-0.62,65.72
219533,2018-06-29 10:39:12.406250,-10.63,65.72
219534,2018-06-29 10:39:12.437500,-18.51,65.72
219535,2018-06-29 10:39:12.468750,-25.92,65.72
219536,2018-06-29 10:39:12.500000,-35.3,65.72
219537,2018-06-29 10:39:12.531250,-46.07,65.57
219538,2018-06-29 10:39:12.562500,-55.75,65.57
219539,2018-06-29 10:39:12.593750,-64.71,65.57
219540,2018-06-29 10:39:12.625000,-76.47,65.57
219541,2018-06-29 10:39:12.656250,-93.29,65.57
219542,2018-06-29 10:39:12.687500,-111.06,65.57
219543,2018-06-29 10:39:12.718750,-116.52,65.57
219544,2018-06-29 10:39:12.750000,-95.97,65.57
219545,2018-06-29 10:39:12.781250,-53.17,65.57
219546,2018-06-29 10:39:12.812500,-9.7,65.57
219547,2018-06-29 10:39:12.843750,18.66,65.57
219548,2018-06-29 10:39:12.875000,34.84,65.57
219549,2018-06-29 10:39:12.906250,47.4,65.57
219550,2018-06-29 10:39:12.937500,58.03,65.57
219551,2018-06-29 10:39:12.968750,64.64,65.57
219552,2018-06-29 10:39:13.000000,66.87,65.57
219553,2018-06-29 10:39:13.031250,66.0,65.57
219554,2018-06-29 10:39:13.062500,63.93,65.57
219555,2018-06-29 10:39:13.093750,62.68,65.57
219556,2018-06-29 10:39:13.125000,63.01,65.57
219557,2018-06-29 10:39:13.156250,63.11,65.57
219558,2018-06-29 10:39:13.187500,60.36,65.57
219559,2018-06-29 10:39:13.218750,54.38,65.57
219560,2018-06-29 10:39:13.250000,47.37,65.57
219561,2018-06-29 10:39:13.281250,41.27,65.57
219562,2018-06-29 10:39:13.312500,35.63,65.57
219563,2018-06-29 10:39:13.343750,29.49,65.57
219564,2018-06-29 10:39:13.375000,23.77,65.57
219565,2018-06-29 10:39:13.406250,19.27,65.57
219566,2018-06-29 10:39:13.437500,13.71,65.57
219567,2018-06-29 10:39:13.468750,5.13,65.57
219568,2018-06-29 10:39:13.500000,-3.83,65.57
219569,2018-06-29 10:39:13.531250,-10.11,65.42
219570,2018-06-29 10:39:13.562500,-16.2,65.42
219571,2018-06-29 10:39:13.593750,-26.12,65.42
219572,2018-06-29 10:39:13.625000,-38.02,65.42
219573,2018-06-29 10:39:13.656250,-46.92,65.42
219574,2018-06-29 10:39:13.687500,-52.79,65.42
219575,2018-06-29 10:39:13.718750,-60.99,65.42
219576,2018-06-29 10:39:13.750000,-75.52,65.42
219577,2018-06-29 10:39:13.781250,-92.22,65.42
219578,2018-06-29 10:39:13.812500,-97.0,65.42
219579,2018-06-29 10:39:13.843750,-77.13,65.42
219580,2018-06-29 10:39:13.875000,-39.62,65.42
219581,2018-06-29 10:39:13.906250,-7.29,65.42
219582,2018-06-29 10:39:13.937500,9.04,65.42
219583,2018-06-29 10:39:13.968750,19.99,65.42
219584,2018-06-29 10:39:14.000000,34.95,65.42
219585,2018-06-29 10:39:14.031250,47.39,65.42
219586,2018-06-29 10:39:14.062500,49.33,65.42
219587,2018-06-29 10:39:14.093750,45.32,65.42
219588,2018-06-29 10:39:14.125000,44.22,65.42
219589,2018-06-29 10:39:14.156250,46.33,65.42
219590,2018-06-29 10:39:14.187500,46.18,65.42
219591,2018-06-29 10:39:14.218750,42.24,65.42
219592,2018-06-29 10:39:14.250000,36.46,65.42
219593,2018-06-29 10:39:14.281250,28.81,65.42
219594,2018-06-29 10:39:14.312500,19.17,65.42
219595,2018-06-29 10:39:14.343750,10.61,65.42
219596,2018-06-29 10:39:14.375000,5.72,65.42
219597,2018-06-29 10:39:14.406250,2.44,65.42
219598,2018-06-29 10:39:14.437500,-2.57,65.42
219599,2018-06-29 10:39:14.468750,-9.33,65.42
219600,2018-06-29 10:39:14.500000,-16.26,65.42
219601,2018-06-29 10:39:14.531250,-23.67,65.25
219602,2018-06-29 10:39:14.562500,-33.07,65.25
219603,2018-06-29 10:39:14.593750,-44.56,65.25
219604,2018-06-29 10:39:14.625000,-57.21,65.25
219605,2018-06-29 10:39:14.656250,-71.52,65.25
219606,2018-06-29 10:39:14.687500,-89.17,65.25
219607,2018-06-29 10:39:14.718750,-109.85,65.25
219608,2018-06-29 10:39:14.750000,-131.4,65.25
219609,2018-06-29 10:39:14.781250,-154.21,65.25
219610,2018-06-29 10:39:14.812500,-184.24,65.25
219611,2018-06-29 10:39:14.843750,-227.76,65.25
219612,2018-06-29 10:39:14.875000,-278.56,65.25
219613,2018-06-29 10:39:14.906250,-314.35,65.25
219614,2018-06-29 10:39:14.937500,-315.57,65.25
219615,2018-06-29 10:39:14.968750,-285.23,65.25
219616,2018-06-29 10:39:15.000000,-240.23,65.25
219617,2018-06-29 10:39:15.031250,-190.14,65.25
219618,2018-06-29 10:39:15.062500,-135.51,65.25
219619,2018-06-29 10:39:15.093750,-79.25,65.25
219620,2018-06-29 10:39:15.125000,-28.44,65.25
219621,2018-06-29 10:39:15.156250,12.44,65.25
219622,2018-06-29 10:39:15.187500,44.7,65.25
219623,2018-06-29 10:39:15.218750,72.32,65.25
219624,2018-06-29 10:39:15.250000,95.74,65.25
219625,2018-06-29 10:39:15.281250,110.94,65.25
219626,2018-06-29 10:39:15.312500,115.41,65.25
219627,2018-06-29 10:39:15.343750,110.46,65.25
219628,2018-06-29 10:39:15.375000,97.62,65.25
219629,2018-06-29 10:39:15.406250,77.07,65.25
219630,2018-06-29 10:39:15.437500,50.06,65.25
219631,2018-06-29 10:39:15.468750,20.09,65.25
219632,2018-06-29 10:39:15.500000,-5.43,65.25
219633,2018-06-29 10:39:15.531250,-16.65,65.05
219634,2018-06-29 10:39:15.562500,-11.05,65.05
219635,2018-06-29 10:39:15.593750,2.46,65.05
219636,2018-06-29 10:39:15.625000,13.7,65.05
219637,2018-06-29 10:39:15.656250,19.57,65.05
219638,2018-06-29 10:39:15.687500,20.3,65.05
219639,2018-06-29 10:39:15.718750,16.51,65.05
219640,2018-06-29 10:39:15.750000,10.6,65.05
219641,2018-06-29 10:39:15.781250,3.42,65.05
219642,2018-06-29 10:39:15.812500,-9.26,65.05
219643,2018-06-29 10:39:15.843750,-32.43,65.05
219644,2018-06-29 10:39:15.875000,-63.37,65.05
219645,2018-06-29 10:39:15.906250,-86.92,65.05
219646,2018-06-29 10:39:15.937500,-84.15,65.05
219647,2018-06-29 10:39:15.968750,-50.62,65.05
219648,2018-06-29 10:39:16.000000,-2.1,65.05
219649,2018-06-29 10:39:16.031250,42.75,65.05
219650,2018-06-29 10:39:16.062500,78.86,65.05
219651,2018-06-29 10:39:16.093750,108.8,65.05
219652,2018-06-29 10:39:16.125000,130.67,65.05
219653,2018-06-29 10:39:16.156250,141.54,65.05
219654,2018-06-29 10:39:16.187500,146.13,65.05
219655,2018-06-29 10:39:16.218750,152.21,65.05
219656,2018-06-29 10:39:16.250000,160.2,65.05
219657,2018-06-29 10:39:16.281250,164.95,65.05
219658,2018-06-29 10:39:16.312500,165.75,65.05
219659,2018-06-29 10:39:16.343750,165.96,65.05
219660,2018-06-29 10:39:16.375000,164.89,65.05
219661,2018-06-29 10:39:16.406250,158.67,65.05
219662,2018-06-29 10:39:16.437500,147.94,65.05
219663,2018-06-29 10:39:16.468750,138.01,65.05
219664,2018-06-29 10:39:16.500000,131.72,65.05
219665,2018-06-29 10:39:16.531250,127.13,64.85
219666,2018-06-29 10:39:16.562500,121.46,64.85
219667,2018-06-29 10:39:16.593750,113.67,64.85
219668,2018-06-29 10:39:16.625000,102.88,64.85
219669,2018-06-29 10:39:16.656250,85.36,64.85
219670,2018-06-29 10:39:16.687500,54.55,64.85
219671,2018-06-29 10:39:16.718750,7.01,64.85
219672,2018-06-29 10:39:16.750000,-49.59,64.85
219673,2018-06-29 10:39:16.781250,-96.05,64.85
219674,2018-06-29 10:39:16.812500,-114.3,64.85
219675,2018-06-29 10:39:16.843750,-101.87,64.85
219676,2018-06-29 10:39:16.875000,-70.93,64.85
219677,2018-06-29 10:39:16.906250,-33.79,64.85
219678,2018-06-29 10:39:16.937500,4.88,64.85
219679,2018-06-29 10:39:16.968750,42.16,64.85
219680,2018-06-29 10:39:17.000000,71.3,64.85
219681,2018-06-29 10:39:17.031250,87.42,64.85
219682,2018-06-29 10:39:17.062500,94.05,64.85
219683,2018-06-29 10:39:17.093750,97.85,64.85
219684,2018-06-29 10:39:17.125000,99.5,64.85
219685,2018-06-29 10:39:17.156250,95.63,64.85
219686,2018-06-29 10:39:17.187500,86.27,64.85
219687,2018-06-29 10:39:17.218750,73.98,64.85
219688,2018-06-29 10:39:17.250000,58.75,64.85
219689,2018-06-29 10:39:17.281250,40.18,64.85
219690,2018-06-29 10:39:17.312500,22.09,64.85
219691,2018-06-29 10:39:17.343750,9.02,64.85
219692,2018-06-29 10:39:17.375000,-0.59,64.85
219693,2018-06-29 10:39:17.406250,-12.05,64.85
219694,2018-06-29 10:39:17.437500,-26.43,64.85
219695,2018-06-29 10:39:17.468750,-39.84,64.85
219696,2018-06-29 10:39:17.500000,-51.04,64.85
219697,2018-06-29 10:39:17.531250,-63.34,64.63
219698,2018-06-29 10:39:17.562500,-77.6,64.63
219699,2018-06-29 10:39:17.593750,-86.37,64.63
219700,2018-06-29 10:39:17.625000,-75.79,64.63
219701,2018-06-29 10:39:17.656250,-35.67,64.63
219702,2018-06-29 10:39:17.687500,28.47,64.63
219703,2018-06-29 10:39:17.718750,96.6,64.63
219704,2018-06-29 10:39:17.750000,151.48,64.63
219705,2018-06-29 10:39:17.781250,190.45,64.63
219706,2018-06-29 10:39:17.812500,216.66,64.63
219707,2018-06-29 10:39:17.843750,226.32,64.63
219708,2018-06-29 10:39:17.875000,210.46,64.63
219709,2018-06-29 10:39:17.906250,166.24,64.63
219710,2018-06-29 10:39:17.937500,103.18,64.63
219711,2018-06-29 10:39:17.968750,39.46,64.63
219712,2018-06-29 10:39:18.000000,-6.5,64.63
219713,2018-06-29 10:39:18.031250,-25.37,64.63
219714,2018-06-29 10:39:18.062500,-21.97,64.63
219715,2018-06-29 10:39:18.093750,-10.98,64.63
219716,2018-06-29 10:39:18.125000,-6.5,64.63
219717,2018-06-29 10:39:18.156250,-13.91,64.63
219718,2018-06-29 10:39:18.187500,-29.46,64.63
219719,2018-06-29 10:39:18.218750,-47.08,64.63
219720,2018-06-29 10:39:18.250000,-63.09,64.63
219721,2018-06-29 10:39:18.281250,-75.1,64.63
219722,2018-06-29 10:39:18.312500,-81.3,64.63
219723,2018-06-29 10:39:18.343750,-82.84,64.63
219724,2018-06-29 10:39:18.375000,-84.33,64.63
219725,2018-06-29 10:39:18.406250,-89.9,64.63
219726,2018-06-29 10:39:18.437500,-97.93,64.63
219727,2018-06-29 10:39:18.468750,-99.01,64.63
219728,2018-06-29 10:39:18.500000,-83.73,64.63
219729,2018-06-29 10:39:18.531250,-54.22,64.4
219730,2018-06-29 10:39:18.562500,-22.0,64.4
219731,2018-06-29 10:39:18.593750,4.45,64.4
219732,2018-06-29 10:39:18.625000,21.92,64.4
219733,2018-06-29 10:39:18.656250,26.22,64.4
219734,2018-06-29 10:39:18.687500,14.58,64.4
219735,2018-06-29 10:39:18.718750,-7.21,64.4
219736,2018-06-29 10:39:18.750000,-27.11,64.4
219737,2018-06-29 10:39:18.781250,-35.86,64.4
219738,2018-06-29 10:39:18.812500,-31.99,64.4
219739,2018-06-29 10:39:18.843750,-18.91,64.4
219740,2018-06-29 10:39:18.875000,0.25,64.4
219741,2018-06-29 10:39:18.906250,22.4,64.4
219742,2018-06-29 10:39:18.937500,40.33,64.4
219743,2018-06-29 10:39:18.968750,43.09,64.4
219744,2018-06-29 10:39:19.000000,23.97,64.4
219745,2018-06-29 10:39:19.031250,-11.35,64.4
219746,2018-06-29 10:39:19.062500,-48.51,64.4
219747,2018-06-29 10:39:19.093750,-77.34,64.4
219748,2018-06-29 10:39:19.125000,-95.86,64.4
219749,2018-06-29 10:39:19.156250,-102.06,64.4
219750,2018-06-29 10:39:19.187500,-92.61,64.4
219751,2018-06-29 10:39:19.218750,-70.62,64.4
219752,2018-06-29 10:39:19.250000,-46.76,64.4
219753,2018-06-29 10:39:19.281250,-31.66,64.4
219754,2018-06-29 10:39:19.312500,-28.32,64.4
219755,2018-06-29 10:39:19.343750,-29.13,64.4
219756,2018-06-29 10:39:19.375000,-22.43,64.4
219757,2018-06-29 10:39:19.406250,-4.13,64.4
219758,2018-06-29 10:39:19.437500,20.67,64.4
219759,2018-06-29 10:39:19.468750,45.25,64.4
219760,2018-06-29 10:39:19.500000,64.52,64.4
219761,2018-06-29 10:39:19.531250,74.03,64.08
219762,2018-06-29 10:39:19.562500,72.36,64.08
219763,2018-06-29 10:39:19.593750,62.31,64.08
219764,2018-06-29 10:39:19.625000,47.94,64.08
219765,2018-06-29 10:39:19.656250,32.61,64.08
219766,2018-06-29 10:39:19.687500,18.45,64.08
219767,2018-06-29 10:39:19.718750,5.59,64.08
219768,2018-06-29 10:39:19.750000,-6.39,64.08
219769,2018-06-29 10:39:19.781250,-16.35,64.08
219770,2018-06-29 10:39:19.812500,-23.95,64.08
219771,2018-06-29 10:39:19.843750,-31.24,64.08
219772,2018-06-29 10:39:19.875000,-39.22,64.08
219773,2018-06-29 10:39:19.906250,-46.58,64.08
219774,2018-06-29 10:39:19.937500,-53.05,64.08
219775,2018-06-29 10:39:19.968750,-59.84,64.08
219776,2018-06-29 10:39:20.000000,-67.1,64.08
219777,2018-06-29 10:39:20.031250,-74.44,64.08
219778,2018-06-29 10:39:20.062500,-82.68,64.08
219779,2018-06-29 10:39:20.093750,-92.79,64.08
219780,2018-06-29 10:39:20.125000,-104.18,64.08
219781,2018-06-29 10:39:20.156250,-114.91,64.08
219782,2018-06-29 10:39:20.187500,-122.8,64.08
219783,2018-06-29 10:39:20.218750,-127.08,64.08
219784,2018-06-29 10:39:20.250000,-128.17,64.08
219785,2018-06-29 10:39:20.281250,-125.13,64.08
219786,2018-06-29 10:39:20.312500,-117.3,64.08
219787,2018-06-29 10:39:20.343750,-107.76,64.08
219788,2018-06-29 10:39:20.375000,-99.24,64.08
219789,2018-06-29 10:39:20.406250,-88.68,64.08
219790,2018-06-29 10:39:20.437500,-71.8,64.08
219791,2018-06-29 10:39:20.468750,-48.96,64.08
219792,2018-06-29 10:39:20.500000,-22.51,64.08
219793,2018-06-29 10:39:20.531250,6.04,63.75
219794,2018-06-29 10:39:20.562500,33.02,63.75
219795,2018-06-29 10:39:20.593750,53.77,63.75
219796,2018-06-29 10:39:20.625000,67.8,63.75
219797,2018-06-29 10:39:20.656250,76.87,63.75
219798,2018-06-29 10:39:20.687500,78.78,63.75
219799,2018-06-29 10:39:20.718750,69.8,63.75
219800,2018-06-29 10:39:20.750000,51.43,63.75
219801,2018-06-29 10:39:20.781250,29.54,63.75
219802,2018-06-29 10:39:20.812500,8.68,63.75
219803,2018-06-29 10:39:20.843750,-8.34,63.75
219804,2018-06-29 10:39:20.875000,-18.46,63.75
219805,2018-06-29 10:39:20.906250,-21.28,63.75
219806,2018-06-29 10:39:20.937500,-22.11,63.75
219807,2018-06-29 10:39:20.968750,-26.1,63.75
219808,2018-06-29 10:39:21.000000,-32.93,63.75
219809,2018-06-29 10:39:21.031250,-42.2,63.75
219810,2018-06-29 10:39:21.062500,-57.39,63.75
219811,2018-06-29 10:39:21.093750,-77.89,63.75
219812,2018-06-29 10:39:21.125000,-92.82,63.75
219813,2018-06-29 10:39:21.156250,-89.45,63.75
219814,2018-06-29 10:39:21.187500,-66.47,63.75
219815,2018-06-29 10:39:21.218750,-35.25,63.75
219816,2018-06-29 10:39:21.250000,-7.76,63.75
219817,2018-06-29 10:39:21.281250,12.52,63.75
219818,2018-06-29 10:39:21.312500,27.49,63.75
219819,2018-06-29 10:39:21.343750,38.21,63.75
219820,2018-06-29 10:39:21.375000,44.57,63.75
219821,2018-06-29 10:39:21.406250,47.42,63.75
219822,2018-06-29 10:39:21.437500,48.64,63.75
219823,2018-06-29 10:39:21.468750,49.37,63.75
219824,2018-06-29 10:39:21.500000,49.13,63.75
219825,2018-06-29 10:39:21.531250,47.61,63.43
219826,2018-06-29 10:39:21.562500,46.32,63.43
219827,2018-06-29 10:39:21.593750,47.08,63.43
219828,2018-06-29 10:39:21.625000,49.32,63.43
219829,2018-06-29 10:39:21.656250,50.74,63.43
219830,2018-06-29 10:39:21.687500,49.91,63.43
219831,2018-06-29 10:39:21.718750,46.49,63.43
219832,2018-06-29 10:39:21.750000,39.43,63.43
219833,2018-06-29 10:39:21.781250,27.77,63.43
219834,2018-06-29 10:39:21.812500,13.07,63.43
219835,2018-06-29 10:39:21.843750,-1.41,63.43
219836,2018-06-29 10:39:21.875000,-13.92,63.43
219837,2018-06-29 10:39:21.906250,-25.59,63.43
219838,2018-06-29 10:39:21.937500,-39.19,63.43
219839,2018-06-29 10:39:21.968750,-55.89,63.43
219840,2018-06-29 10:39:22.000000,-70.61,63.43
219841,2018-06-29 10:39:22.031250,-72.59,63.43
219842,2018-06-29 10:39:22.062500,-56.06,63.43
219843,2018-06-29 10:39:22.093750,-28.29,63.43
219844,2018-06-29 10:39:22.125000,-1.16,63.43
219845,2018-06-29 10:39:22.156250,20.93,63.43
219846,2018-06-29 10:39:22.187500,39.89,63.43
219847,2018-06-29 10:39:22.218750,55.84,63.43
219848,2018-06-29 10:39:22.250000,66.41,63.43
219849,2018-06-29 10:39:22.281250,71.56,63.43
219850,2018-06-29 10:39:22.312500,74.43,63.43
219851,2018-06-29 10:39:22.343750,77.16,63.43
219852,2018-06-29 10:39:22.375000,79.22,63.43
219853,2018-06-29 10:39:22.406250,80.12,63.43
219854,2018-06-29 10:39:22.437500,80.59,63.43
219855,2018-06-29 10:39:22.468750,80.13,63.43
219856,2018-06-29 10:39:22.500000,76.85,63.43
219857,2018-06-29 10:39:22.531250,70.78,63.13
219858,2018-06-29 10:39:22.562500,64.21,63.13
219859,2018-06-29 10:39:22.593750,58.45,63.13
219860,2018-06-29 10:39:22.625000,52.11,63.13
219861,2018-06-29 10:39:22.656250,43.36,63.13
219862,2018-06-29 10:39:22.687500,32.28,63.13
219863,2018-06-29 10:39:22.718750,20.67,63.13
219864,2018-06-29 10:39:22.750000,10.41,63.13
219865,2018-06-29 10:39:22.781250,1.53,63.13
219866,2018-06-29 10:39:22.812500,-8.13,63.13
219867,2018-06-29 10:39:22.843750,-19.43,63.13
219868,2018-06-29 10:39:22.875000,-29.65,63.13
219869,2018-06-29 10:39:22.906250,-36.88,63.13
219870,2018-06-29 10:39:22.937500,-44.28,63.13
219871,2018-06-29 10:39:22.968750,-57.09,63.13
219872,2018-06-29 10:39:23.000000,-76.21,63.13
219873,2018-06-29 10:39:23.031250,-93.82,63.13
219874,2018-06-29 10:39:23.062500,-96.09,63.13
219875,2018-06-29 10:39:23.093750,-76.48,63.13
219876,2018-06-29 10:39:23.125000,-44.87,63.13
219877,2018-06-29 10:39:23.156250,-16.55,63.13
219878,2018-06-29 10:39:23.187500,3.21,63.13
219879,2018-06-29 10:39:23.218750,17.57,63.13
219880,2018-06-29 10:39:23.250000,28.12,63.13
219881,2018-06-29 10:39:23.281250,33.88,63.13
219882,2018-06-29 10:39:23.312500,35.35,63.13
219883,2018-06-29 10:39:23.343750,35.07,63.13
219884,2018-06-29 10:39:23.375000,35.53,63.13
219885,2018-06-29 10:39:23.406250,38.37,63.13
219886,2018-06-29 10:39:23.437500,44.94,63.13
219887,2018-06-29 10:39:23.468750,55.41,63.13
219888,2018-06-29 10:39:23.500000,67.16,63.13
219889,2018-06-29 10:39:23.531250,76.4,62.85
219890,2018-06-29 10:39:23.562500,81.43,62.85
219891,2018-06-29 10:39:23.593750,81.97,62.85
219892,2018-06-29 10:39:23.625000,75.69,62.85
219893,2018-06-29 10:39:23.656250,60.0,62.85
219894,2018-06-29 10:39:23.687500,37.96,62.85
219895,2018-06-29 10:39:23.718750,18.21,62.85
219896,2018-06-29 10:39:23.750000,6.18,62.85
219897,2018-06-29 10:39:23.781250,-1.39,62.85
219898,2018-06-29 10:39:23.812500,-10.64,62.85
219899,2018-06-29 10:39:23.843750,-22.94,62.85
219900,2018-06-29 10:39:23.875000,-35.78,62.85
219901,2018-06-29 10:39:23.906250,-47.47,62.85
219902,2018-06-29 10:39:23.937500,-58.73,62.85
219903,2018-06-29 10:39:23.968750,-72.27,62.85
219904,2018-06-29 10:39:24.000000,-89.05,62.85
219905,2018-06-29 10:39:24.031250,-101.35,62.85
219906,2018-06-29 10:39:24.062500,-96.67,62.85
219907,2018-06-29 10:39:24.093750,-73.51,62.85
219908,2018-06-29 10:39:24.125000,-44.29,62.85
219909,2018-06-29 10:39:24.156250,-19.33,62.85
219910,2018-06-29 10:39:24.187500,1.21,62.85
219911,2018-06-29 10:39:24.218750,18.49,62.85
219912,2018-06-29 10:39:24.250000,29.54,62.85
219913,2018-06-29 10:39:24.281250,32.78,62.85
219914,2018-06-29 10:39:24.312500,31.41,62.85
219915,2018-06-29 10:39:24.343750,29.46,62.85
219916,2018-06-29 10:39:24.375000,27.72,62.85
219917,2018-06-29 10:39:24.406250,25.34,62.85
219918,2018-06-29 10:39:24.437500,22.49,62.85
219919,2018-06-29 10:39:24.468750,19.25,62.85
219920,2018-06-29 10:39:24.500000,14.81,62.85
219921,2018-06-29 10:39:24.531250,9.87,62.58
219922,2018-06-29 10:39:24.562500,6.53,62.58
219923,2018-06-29 10:39:24.593750,4.58,62.58
219924,2018-06-29 10:39:24.625000,1.76,62.58
219925,2018-06-29 10:39:24.656250,-2.56,62.58
219926,2018-06-29 10:39:24.687500,-6.55,62.58
219927,2018-06-29 10:39:24.718750,-9.14,62.58
219928,2018-06-29 10:39:24.750000,-11.47,62.58
219929,2018-06-29 10:39:24.781250,-15.08,62.58
219930,2018-06-29 10:39:24.812500,-20.75,62.58
219931,2018-06-29 10:39:24.843750,-29.59,62.58
219932,2018-06-29 10:39:24.875000,-43.4,62.58
219933,2018-06-29 10:39:24.906250,-62.6,62.58
219934,2018-06-29 10:39:24.937500,-82.72,62.58
219935,2018-06-29 10:39:24.968750,-93.47,62.58
219936,2018-06-29 10:39:25.000000,-85.5,62.58
219937,2018-06-29 10:39:25.031250,-59.95,62.58
219938,2018-06-29 10:39:25.062500,-28.24,62.58
219939,2018-06-29 10:39:25.093750,-1.42,62.58
219940,2018-06-29 10:39:25.125000,16.88,62.58
219941,2018-06-29 10:39:25.156250,27.84,62.58
219942,2018-06-29 10:39:25.187500,33.04,62.58
219943,2018-06-29 10:39:25.218750,34.01,62.58
219944,2018-06-29 10:39:25.250000,33.5,62.58
219945,2018-06-29 10:39:25.281250,34.37,62.58
219946,2018-06-29 10:39:25.312500,37.39,62.58
219947,2018-06-29 10:39:25.343750,42.23,62.58
219948,2018-06-29 10:39:25.375000,48.53,62.58
219949,2018-06-29 10:39:25.406250,53.93,62.58
219950,2018-06-29 10:39:25.437500,54.45,62.58
219951,2018-06-29 10:39:25.468750,49.6,62.58
219952,2018-06-29 10:39:25.500000,43.1,62.58
219953,2018-06-29 10:39:25.531250,37.4,62.43
219954,2018-06-29 10:39:25.562500,31.41,62.43
219955,2018-06-29 10:39:25.593750,24.08,62.43
219956,2018-06-29 10:39:25.625000,16.48,62.43
219957,2018-06-29 10:39:25.656250,9.37,62.43
219958,2018-06-29 10:39:25.687500,1.23,62.43
219959,2018-06-29 10:39:25.718750,-9.05,62.43
219960,2018-06-29 10:39:25.750000,-19.75,62.43
219961,2018-06-29 10:39:25.781250,-29.05,62.43
219962,2018-06-29 10:39:25.812500,-38.27,62.43
219963,2018-06-29 10:39:25.843750,-50.0,62.43
219964,2018-06-29 10:39:25.875000,-64.82,62.43
219965,2018-06-29 10:39:25.906250,-79.45,62.43
219966,2018-06-29 10:39:25.937500,-86.48,62.43
219967,2018-06-29 10:39:25.968750,-80.45,62.43
219968,2018-06-29 10:39:26.000000,-65.46,62.43
219969,2018-06-29 10:39:26.031250,-50.71,62.43
219970,2018-06-29 10:39:26.062500,-39.45,62.43
219971,2018-06-29 10:39:26.093750,-27.63,62.43
219972,2018-06-29 10:39:26.125000,-11.35,62.43
219973,2018-06-29 10:39:26.156250,9.25,62.43
219974,2018-06-29 10:39:26.187500,31.89,62.43
219975,2018-06-29 10:39:26.218750,54.68,62.43
219976,2018-06-29 10:39:26.250000,75.92,62.43
219977,2018-06-29 10:39:26.281250,93.25,62.43
219978,2018-06-29 10:39:26.312500,104.75,62.43
219979,2018-06-29 10:39:26.343750,109.62,62.43
219980,2018-06-29 10:39:26.375000,107.47,62.43
219981,2018-06-29 10:39:26.406250,98.16,62.43
219982,2018-06-29 10:39:26.437500,82.64,62.43
219983,2018-06-29 10:39:26.468750,63.28,62.43
219984,2018-06-29 10:39:26.500000,43.04,62.43
219985,2018-06-29 10:39:26.531250,24.52,62.27
219986,2018-06-29 10:39:26.562500,9.94,62.27
219987,2018-06-29 10:39:26.593750,1.67,62.27
219988,2018-06-29 10:39:26.625000,0.77,62.27
219989,2018-06-29 10:39:26.656250,4.04,62.27
219990,2018-06-29 10:39:26.687500,4.45,62.27
219991,2018-06-29 10:39:26.718750,-4.55,62.27
219992,2018-06-29 10:39:26.750000,-25.71,62.27
219993,2018-06-29 10:39:26.781250,-57.37,62.27
219994,2018-06-29 10:39:26.812500,-92.35,62.27
219995,2018-06-29 10:39:26.843750,-118.26,62.27
219996,2018-06-29 10:39:26.875000,-124.32,62.27
219997,2018-06-29 10:39:26.906250,-110.19,62.27
219998,2018-06-29 10:39:26.937500,-85.25,62.27
219999,2018-06-29 10:39:26.968750,-58.27,62.27
220000,2018-06-29 10:39:27.000000,-30.48,62.27
220001,2018-06-29 10:39:27.031250,0.14,62.27
220002,2018-06-29 10:39:27.062500,31.71,62.27
220003,2018-06-29 10:39:27.093750,58.54,62.27
220004,2018-06-29 10:39:27.125000,76.95,62.27
220005,2018-06-29 10:39:27.156250,87.35,62.27
220006,2018-06-29 10:39:27.187500,91.2,62.27
220007,2018-06-29 10:39:27.218750,89.55,62.27
220008,2018-06-29 10:39:27.250000,83.54,62.27
220009,2018-06-29 10:39:27.281250,73.79,62.27
220010,2018-06-29 10:39:27.312500,60.37,62.27
220011,2018-06-29 10:39:27.343750,45.04,62.27
220012,2018-06-29 10:39:27.375000,30.37,62.27
220013,2018-06-29 10:39:27.406250,16.32,62.27
220014,2018-06-29 10:39:27.437500,0.79,62.27
220015,2018-06-29 10:39:27.468750,-16.47,62.27
220016,2018-06-29 10:39:27.500000,-32.62,62.27
220017,2018-06-29 10:39:27.531250,-45.22,62.12
220018,2018-06-29 10:39:27.562500,-56.54,62.12
220019,2018-06-29 10:39:27.593750,-72.13,62.12
220020,2018-06-29 10:39:27.625000,-92.8,62.12
220021,2018-06-29 10:39:27.656250,-108.83,62.12
220022,2018-06-29 10:39:27.687500,-106.67,62.12
220023,2018-06-29 10:39:27.718750,-83.58,62.12
220024,2018-06-29 10:39:27.750000,-52.12,62.12
220025,2018-06-29 10:39:27.781250,-27.28,62.12
220026,2018-06-29 10:39:27.812500,-13.51,62.12
220027,2018-06-29 10:39:27.843750,-7.65,62.12
220028,2018-06-29 10:39:27.875000,-7.29,62.12
220029,2018-06-29 10:39:27.906250,-10.78,62.12
220030,2018-06-29 10:39:27.937500,-14.31,62.12
220031,2018-06-29 10:39:27.968750,-13.71,62.12
220032,2018-06-29 10:39:28.000000,-8.29,62.12
220033,2018-06-29 10:39:28.031250,-1.25,62.12
220034,2018-06-29 10:39:28.062500,3.36,62.12
220035,2018-06-29 10:39:28.093750,3.63,62.12
220036,2018-06-29 10:39:28.125000,-0.11,62.12
220037,2018-06-29 10:39:28.156250,-6.87,62.12
220038,2018-06-29 10:39:28.187500,-15.76,62.12
220039,2018-06-29 10:39:28.218750,-25.94,62.12
220040,2018-06-29 10:39:28.250000,-36.85,62.12
220041,2018-06-29 10:39:28.281250,-48.46,62.12
220042,2018-06-29 10:39:28.312500,-61.06,62.12
220043,2018-06-29 10:39:28.343750,-76.0,62.12
220044,2018-06-29 10:39:28.375000,-95.37,62.12
220045,2018-06-29 10:39:28.406250,-117.76,62.12
220046,2018-06-29 10:39:28.437500,-133.88,62.12
220047,2018-06-29 10:39:28.468750,-131.31,62.12
220048,2018-06-29 10:39:28.500000,-106.87,62.12
220049,2018-06-29 10:39:28.531250,-71.36,62.0
220050,2018-06-29 10:39:28.562500,-38.64,62.0
220051,2018-06-29 10:39:28.593750,-13.96,62.0
220052,2018-06-29 10:39:28.625000,4.0,62.0
220053,2018-06-29 10:39:28.656250,15.47,62.0
220054,2018-06-29 10:39:28.687500,20.03,62.0
220055,2018-06-29 10:39:28.718750,21.42,62.0
220056,2018-06-29 10:39:28.750000,25.29,62.0
220057,2018-06-29 10:39:28.781250,32.18,62.0
220058,2018-06-29 10:39:28.812500,38.32,62.0
220059,2018-06-29 10:39:28.843750,42.51,62.0
220060,2018-06-29 10:39:28.875000,45.73,62.0
220061,2018-06-29 10:39:28.906250,45.24,62.0
220062,2018-06-29 10:39:28.937500,36.12,62.0
220063,2018-06-29 10:39:28.968750,19.18,62.0
220064,2018-06-29 10:39:29.000000,1.21,62.0
220065,2018-06-29 10:39:29.031250,-14.78,62.0
220066,2018-06-29 10:39:29.062500,-34.07,62.0
220067,2018-06-29 10:39:29.093750,-61.1,62.0
220068,2018-06-29 10:39:29.125000,-90.08,62.0
220069,2018-06-29 10:39:29.156250,-109.51,62.0
220070,2018-06-29 10:39:29.187500,-112.06,62.0
220071,2018-06-29 10:39:29.218750,-98.04,62.0
220072,2018-06-29 10:39:29.250000,-75.08,62.0
220073,2018-06-29 10:39:29.281250,-51.91,62.0
220074,2018-06-29 10:39:29.312500,-26.14,62.0
220075,2018-06-29 10:39:29.343750,11.77,62.0
220076,2018-06-29 10:39:29.375000,57.29,62.0
220077,2018-06-29 10:39:29.406250,91.36,62.0
220078,2018-06-29 10:39:29.437500,106.33,62.0
220079,2018-06-29 10:39:29.468750,113.13,62.0
220080,2018-06-29 10:39:29.500000,119.95,62.0
220081,2018-06-29 10:39:29.531250,124.08,61.9
220082,2018-06-29 10:39:29.562500,124.95,61.9
220083,2018-06-29 10:39:29.593750,125.98,61.9
220084,2018-06-29 10:39:29.625000,125.47,61.9
220085,2018-06-29 10:39:29.656250,119.52,61.9
220086,2018-06-29 10:39:29.687500,111.0,61.9
220087,2018-06-29 10:39:29.718750,104.65,61.9
220088,2018-06-29 10:39:29.750000,98.58,61.9
220089,2018-06-29 10:39:29.781250,88.41,61.9
220090,2018-06-29 10:39:29.812500,75.27,61.9
220091,2018-06-29 10:39:29.843750,64.59,61.9
220092,2018-06-29 10:39:29.875000,59.51,61.9
220093,2018-06-29 10:39:29.906250,57.79,61.9
220094,2018-06-29 10:39:29.937500,54.47,61.9
220095,2018-06-29 10:39:29.968750,46.79,61.9
220096,2018-06-29 10:39:30.000000,35.93,61.9
220097,2018-06-29 10:39:30.031250,23.68,61.9
220098,2018-06-29 10:39:30.062500,10.46,61.9
220099,2018-06-29 10:39:30.093750,-1.96,61.9
220100,2018-06-29 10:39:30.125000,-9.62,61.9
220101,2018-06-29 10:39:30.156250,-12.14,61.9
220102,2018-06-29 10:39:30.187500,-15.14,61.9
220103,2018-06-29 10:39:30.218750,-22.26,61.9
220104,2018-06-29 10:39:30.250000,-28.99,61.9
220105,2018-06-29 10:39:30.281250,-29.33,61.9
220106,2018-06-29 10:39:30.312500,-25.33,61.9
220107,2018-06-29 10:39:30.343750,-26.9,61.9
220108,2018-06-29 10:39:30.375000,-42.03,61.9
220109,2018-06-29 10:39:30.406250,-65.3,61.9
220110,2018-06-29 10:39:30.437500,-77.98,61.9
220111,2018-06-29 10:39:30.468750,-66.25,61.9
220112,2018-06-29 10:39:30.500000,-38.14,61.9
220113,2018-06-29 10:39:30.531250,-16.0,61.75
220114,2018-06-29 10:39:30.562500,-12.8,61.75
220115,2018-06-29 10:39:30.593750,-21.17,61.75
220116,2018-06-29 10:39:30.625000,-25.11,61.75
220117,2018-06-29 10:39:30.656250,-17.31,61.75
220118,2018-06-29 10:39:30.687500,-1.94,61.75
220119,2018-06-29 10:39:30.718750,15.63,61.75
220120,2018-06-29 10:39:30.750000,33.57,61.75
220121,2018-06-29 10:39:30.781250,49.43,61.75
220122,2018-06-29 10:39:30.812500,59.4,61.75
220123,2018-06-29 10:39:30.843750,63.01,61.75
220124,2018-06-29 10:39:30.875000,63.38,61.75
220125,2018-06-29 10:39:30.906250,62.96,61.75
220126,2018-06-29 10:39:30.937500,62.52,61.75
220127,2018-06-29 10:39:30.968750,63.76,61.75
220128,2018-06-29 10:39:31.000000,68.52,61.75
220129,2018-06-29 10:39:31.031250,74.19,61.75
220130,2018-06-29 10:39:31.062500,74.24,61.75
220131,2018-06-29 10:39:31.093750,64.47,61.75
220132,2018-06-29 10:39:31.125000,45.34,61.75
220133,2018-06-29 10:39:31.156250,19.96,61.75
220134,2018-06-29 10:39:31.187500,-6.09,61.75
220135,2018-06-29 10:39:31.218750,-26.94,61.75
220136,2018-06-29 10:39:31.250000,-41.11,61.75
220137,2018-06-29 10:39:31.281250,-50.88,61.75
220138,2018-06-29 10:39:31.312500,-58.75,61.75
220139,2018-06-29 10:39:31.343750,-68.49,61.75
220140,2018-06-29 10:39:31.375000,-86.32,61.75
220141,2018-06-29 10:39:31.406250,-115.64,61.75
220142,2018-06-29 10:39:31.437500,-151.81,61.75
220143,2018-06-29 10:39:31.468750,-184.57,61.75
220144,2018-06-29 10:39:31.500000,-202.48,61.75
220145,2018-06-29 10:39:31.531250,-195.9,61.68
220146,2018-06-29 10:39:31.562500,-163.96,61.68
220147,2018-06-29 10:39:31.593750,-118.15,61.68
220148,2018-06-29 10:39:31.625000,-71.63,61.68
220149,2018-06-29 10:39:31.656250,-27.9,61.68
220150,2018-06-29 10:39:31.687500,13.52,61.68
220151,2018-06-29 10:39:31.718750,47.89,61.68
220152,2018-06-29 10:39:31.750000,69.04,61.68
220153,2018-06-29 10:39:31.781250,76.67,61.68
220154,2018-06-29 10:39:31.812500,75.42,61.68
220155,2018-06-29 10:39:31.843750,70.86,61.68
220156,2018-06-29 10:39:31.875000,67.79,61.68
220157,2018-06-29 10:39:31.906250,67.74,61.68
220158,2018-06-29 10:39:31.937500,67.37,61.68
220159,2018-06-29 10:39:31.968750,62.67,61.68
220160,2018-06-29 10:39:32.000000,53.71,61.68
220161,2018-06-29 10:39:32.031250,43.24,61.68
220162,2018-06-29 10:39:32.062500,33.26,61.68
220163,2018-06-29 10:39:32.093750,25.11,61.68
220164,2018-06-29 10:39:32.125000,20.34,61.68
220165,2018-06-29 10:39:32.156250,19.93,61.68
220166,2018-06-29 10:39:32.187500,23.38,61.68
220167,2018-06-29 10:39:32.218750,27.61,61.68
220168,2018-06-29 10:39:32.250000,26.78,61.68
220169,2018-06-29 10:39:32.281250,15.87,61.68
220170,2018-06-29 10:39:32.312500,-3.92,61.68
220171,2018-06-29 10:39:32.343750,-25.84,61.68
220172,2018-06-29 10:39:32.375000,-46.48,61.68
220173,2018-06-29 10:39:32.406250,-71.88,61.68
220174,2018-06-29 10:39:32.437500,-109.28,61.68
220175,2018-06-29 10:39:32.468750,-153.58,61.68
220176,2018-06-29 10:39:32.500000,-186.39,61.68
220177,2018-06-29 10:39:32.531250,-188.1,61.63
220178,2018-06-29 10:39:32.562500,-151.33,61.63
220179,2018-06-29 10:39:32.593750,-87.95,61.63
220180,2018-06-29 10:39:32.625000,-22.7,61.63
220181,2018-06-29 10:39:32.656250,25.98,61.63
220182,2018-06-29 10:39:32.687500,57.57,61.63
220183,2018-06-29 10:39:32.718750,80.85,61.63
220184,2018-06-29 10:39:32.750000,99.64,61.63
220185,2018-06-29 10:39:32.781250,111.56,61.63
