,Time,ppg,hr
230400,2018-06-29 10:44:52.000000,134.57,77.8
230401,2018-06-29 10:44:52.031250,132.49,77.8
230402,2018-06-29 10:44:52.062500,116.34,77.8
230403,2018-06-29 10:44:52.093750,90.42,77.8
230404,2018-06-29 10:44:52.125000,60.43,77.8
230405,2018-06-29 10:44:52.156250,27.86,77.8
230406,2018-06-29 10:44:52.187500,-2.26,77.8
230407,2018-06-29 10:44:52.218750,-20.86,77.8
230408,2018-06-29 10:44:52.250000,-31.55,77.8
230409,2018-06-29 10:44:52.281250,-51.8,77.8
230410,2018-06-29 10:44:52.312500,-88.72,77.8
230411,2018-06-29 10:44:52.343750,-126.51,77.8
230412,2018-06-29 10:44:52.375000,-144.6,77.8
230413,2018-06-29 10:44:52.406250,-138.63,77.8
230414,2018-06-29 10:44:52.437500,-118.28,77.8
230415,2018-06-29 10:44:52.468750,-91.76,77.8
230416,2018-06-29 10:44:52.500000,-60.73,77.8
230417,2018-06-29 10:44:52.531250,-27.85,77.77
230418,2018-06-29 10:44:52.562500,-0.69,77.77
230419,2018-06-29 10:44:52.593750,14.31,77.77
230420,2018-06-29 10:44:52.625000,20.89,77.77
230421,2018-06-29 10:44:52.656250,29.87,77.77
230422,2018-06-29 10:44:52.687500,45.34,77.77
230423,2018-06-29 10:44:52.718750,58.72,77.77
230424,2018-06-29 10:44:52.750000,61.26,77.77
230425,2018-06-29 10:44:52.781250,55.68,77.77
230426,2018-06-29 10:44:52.812500,47.72,77.77
230427,2018-06-29 10:44:52.843750,40.0,77.77
230428,2018-06-29 10:44:52.875000,30.89,77.77
230429,2018-06-29 10:44:52.906250,20.46,77.77
230430,2018-06-29 10:44:52.937500,9.59,77.77
230431,2018-06-29 10:44:52.968750,1.03,77.77
230432,2018-06-29 10:44:53.000000,-1.54,77.77
230433,2018-06-29 10:44:53.031250,3.76,77.77
230434,2018-06-29 10:44:53.062500,22.21,77.77
230435,2018-06-29 10:44:53.093750,52.38,77.77
230436,2018-06-29 10:44:53.125000,84.37,77.77
230437,2018-06-29 10:44:53.156250,101.22,77.77
230438,2018-06-29 10:44:53.187500,98.19,77.77
230439,2018-06-29 10:44:53.218750,77.49,77.77
230440,2018-06-29 10:44:53.250000,28.94,77.77
230441,2018-06-29 10:44:53.281250,-9.22,77.77
230442,2018-06-29 10:44:53.312500,-7.49,77.77
230443,2018-06-29 10:44:53.343750,28.6,77.77
230444,2018-06-29 10:44:53.375000,76.73,77.77
230445,2018-06-29 10:44:53.406250,102.94,77.77
230446,2018-06-29 10:44:53.437500,79.71,77.77
230447,2018-06-29 10:44:53.468750,12.0,77.77
230448,2018-06-29 10:44:53.500000,-73.77,77.77
230449,2018-06-29 10:44:53.531250,-154.92,77.63
230450,2018-06-29 10:44:53.562500,-217.46,77.63
230451,2018-06-29 10:44:53.593750,-251.77,77.63
230452,2018-06-29 10:44:53.625000,-250.11,77.63
230453,2018-06-29 10:44:53.656250,-218.58,77.63
230454,2018-06-29 10:44:53.687500,-174.51,77.63
230455,2018-06-29 10:44:53.718750,-135.98,77.63
230456,2018-06-29 10:44:53.750000,-100.83,77.63
230457,2018-06-29 10:44:53.781250,-43.56,77.63
230458,2018-06-29 10:44:53.812500,51.56,77.63
230459,2018-06-29 10:44:53.843750,155.07,77.63
230460,2018-06-29 10:44:53.875000,210.69,77.63
230461,2018-06-29 10:44:53.906250,194.03,77.63
230462,2018-06-29 10:44:53.937500,127.61,77.63
230463,2018-06-29 10:44:53.968750,46.84,77.63
230464,2018-06-29 10:44:54.000000,-24.5,77.63
230465,2018-06-29 10:44:54.031250,-71.96,77.63
230466,2018-06-29 10:44:54.062500,-92.44,77.63
230467,2018-06-29 10:44:54.093750,-97.16,77.63
230468,2018-06-29 10:44:54.125000,-97.0,77.63
230469,2018-06-29 10:44:54.156250,-88.78,77.63
230470,2018-06-29 10:44:54.187500,-63.23,77.63
230471,2018-06-29 10:44:54.218750,-24.59,77.63
230472,2018-06-29 10:44:54.250000,7.98,77.63
230473,2018-06-29 10:44:54.281250,22.57,77.63
230474,2018-06-29 10:44:54.312500,29.8,77.63
230475,2018-06-29 10:44:54.343750,48.8,77.63
230476,2018-06-29 10:44:54.375000,86.0,77.63
230477,2018-06-29 10:44:54.406250,133.1,77.63
230478,2018-06-29 10:44:54.437500,175.19,77.63
230479,2018-06-29 10:44:54.468750,193.9,77.63
230480,2018-06-29 10:44:54.500000,175.02,77.63
230481,2018-06-29 10:44:54.531250,120.39,77.57
230482,2018-06-29 10:44:54.562500,47.68,77.57
230483,2018-06-29 10:44:54.593750,-22.54,77.57
230484,2018-06-29 10:44:54.625000,-77.29,77.57
230485,2018-06-29 10:44:54.656250,-112.24,77.57
230486,2018-06-29 10:44:54.687500,-129.26,77.57
230487,2018-06-29 10:44:54.718750,-134.07,77.57
230488,2018-06-29 10:44:54.750000,-132.28,77.57
230489,2018-06-29 10:44:54.781250,-124.86,77.57
230490,2018-06-29 10:44:54.812500,-108.45,77.57
230491,2018-06-29 10:44:54.843750,-80.5,77.57
230492,2018-06-29 10:44:54.875000,-42.72,77.57
230493,2018-06-29 10:44:54.906250,-1.04,77.57
230494,2018-06-29 10:44:54.937500,35.8,77.57
230495,2018-06-29 10:44:54.968750,58.04,77.57
230496,2018-06-29 10:44:55.000000,58.53,77.57
230497,2018-06-29 10:44:55.031250,38.37,77.57
230498,2018-06-29 10:44:55.062500,8.47,77.57
230499,2018-06-29 10:44:55.093750,-18.33,77.57
230500,2018-06-29 10:44:55.125000,-36.27,77.57
230501,2018-06-29 10:44:55.156250,-46.36,77.57
230502,2018-06-29 10:44:55.187500,-52.37,77.57
230503,2018-06-29 10:44:55.218750,-57.52,77.57
230504,2018-06-29 10:44:55.250000,-59.46,77.57
230505,2018-06-29 10:44:55.281250,-50.5,77.57
230506,2018-06-29 10:44:55.312500,-28.42,77.57
230507,2018-06-29 10:44:55.343750,-2.39,77.57
230508,2018-06-29 10:44:55.375000,16.57,77.57
230509,2018-06-29 10:44:55.406250,26.37,77.57
230510,2018-06-29 10:44:55.437500,32.68,77.57
230511,2018-06-29 10:44:55.468750,40.85,77.57
230512,2018-06-29 10:44:55.500000,49.3,77.57
230513,2018-06-29 10:44:55.531250,51.03,77.47
230514,2018-06-29 10:44:55.562500,44.36,77.47
230515,2018-06-29 10:44:55.593750,37.06,77.47
230516,2018-06-29 10:44:55.625000,34.34,77.47
230517,2018-06-29 10:44:55.656250,31.31,77.47
230518,2018-06-29 10:44:55.687500,22.99,77.47
230519,2018-06-29 10:44:55.718750,11.48,77.47
230520,2018-06-29 10:44:55.750000,-0.37,77.47
230521,2018-06-29 10:44:55.781250,-12.14,77.47
230522,2018-06-29 10:44:55.812500,-21.05,77.47
230523,2018-06-29 10:44:55.843750,-23.15,77.47
230524,2018-06-29 10:44:55.875000,-18.53,77.47
230525,2018-06-29 10:44:55.906250,-10.87,77.47
230526,2018-06-29 10:44:55.937500,-4.12,77.47
230527,2018-06-29 10:44:55.968750,-2.63,77.47
230528,2018-06-29 10:44:56.000000,-6.86,77.47
230529,2018-06-29 10:44:56.031250,-6.87,77.47
230530,2018-06-29 10:44:56.062500,7.51,77.47
230531,2018-06-29 10:44:56.093750,30.26,77.47
230532,2018-06-29 10:44:56.125000,42.89,77.47
230533,2018-06-29 10:44:56.156250,36.13,77.47
230534,2018-06-29 10:44:56.187500,14.83,77.47
230535,2018-06-29 10:44:56.218750,-10.51,77.47
230536,2018-06-29 10:44:56.250000,-29.39,77.47
230537,2018-06-29 10:44:56.281250,-34.66,77.47
230538,2018-06-29 10:44:56.312500,-28.22,77.47
230539,2018-06-29 10:44:56.343750,-21.63,77.47
230540,2018-06-29 10:44:56.375000,-18.67,77.47
230541,2018-06-29 10:44:56.406250,-13.12,77.47
230542,2018-06-29 10:44:56.437500,1.48,77.47
230543,2018-06-29 10:44:56.468750,16.5,77.47
230544,2018-06-29 10:44:56.500000,17.31,77.47
230545,2018-06-29 10:44:56.531250,-1.36,77.52
230546,2018-06-29 10:44:56.562500,-29.79,77.52
230547,2018-06-29 10:44:56.593750,-42.02,77.52
230548,2018-06-29 10:44:56.625000,-34.9,77.52
230549,2018-06-29 10:44:56.656250,-25.05,77.52
230550,2018-06-29 10:44:56.687500,-5.04,77.52
230551,2018-06-29 10:44:56.718750,49.25,77.52
230552,2018-06-29 10:44:56.750000,124.23,77.52
230553,2018-06-29 10:44:56.781250,173.17,77.52
230554,2018-06-29 10:44:56.812500,168.42,77.52
230555,2018-06-29 10:44:56.843750,96.64,77.52
230556,2018-06-29 10:44:56.875000,6.94,77.52
230557,2018-06-29 10:44:56.906250,-65.32,77.52
230558,2018-06-29 10:44:56.937500,-126.54,77.52
230559,2018-06-29 10:44:56.968750,-169.03,77.52
230560,2018-06-29 10:44:57.000000,-173.46,77.52
230561,2018-06-29 10:44:57.031250,-140.7,77.52
230562,2018-06-29 10:44:57.062500,-84.2,77.52
230563,2018-06-29 10:44:57.093750,-15.55,77.52
230564,2018-06-29 10:44:57.125000,46.77,77.52
230565,2018-06-29 10:44:57.156250,130.39,77.52
230566,2018-06-29 10:44:57.187500,228.18,77.52
230567,2018-06-29 10:44:57.218750,299.68,77.52
230568,2018-06-29 10:44:57.250000,301.16,77.52
230569,2018-06-29 10:44:57.281250,193.46,77.52
230570,2018-06-29 10:44:57.312500,52.31,77.52
230571,2018-06-29 10:44:57.343750,-57.37,77.52
230572,2018-06-29 10:44:57.375000,-145.48,77.52
230573,2018-06-29 10:44:57.406250,-202.92,77.52
230574,2018-06-29 10:44:57.437500,-220.79,77.52
230575,2018-06-29 10:44:57.468750,-218.85,77.52
230576,2018-06-29 10:44:57.500000,-213.94,77.52
230577,2018-06-29 10:44:57.531250,-195.93,77.53
230578,2018-06-29 10:44:57.562500,-153.72,77.53
230579,2018-06-29 10:44:57.593750,-95.88,77.53
230580,2018-06-29 10:44:57.625000,-48.36,77.53
230581,2018-06-29 10:44:57.656250,-11.65,77.53
230582,2018-06-29 10:44:57.687500,30.09,77.53
230583,2018-06-29 10:44:57.718750,66.37,77.53
230584,2018-06-29 10:44:57.750000,86.73,77.53
230585,2018-06-29 10:44:57.781250,103.49,77.53
230586,2018-06-29 10:44:57.812500,138.47,77.53
230587,2018-06-29 10:44:57.843750,181.68,77.53
230588,2018-06-29 10:44:57.875000,206.7,77.53
230589,2018-06-29 10:44:57.906250,188.88,77.53
230590,2018-06-29 10:44:57.937500,103.43,77.53
230591,2018-06-29 10:44:57.968750,-6.19,77.53
230592,2018-06-29 10:44:58.000000,-88.34,77.53
230593,2018-06-29 10:44:58.031250,-141.66,77.53
230594,2018-06-29 10:44:58.062500,-174.06,77.53
230595,2018-06-29 10:44:58.093750,-181.35,77.53
230596,2018-06-29 10:44:58.125000,-171.68,77.53
230597,2018-06-29 10:44:58.156250,-144.73,77.53
230598,2018-06-29 10:44:58.187500,-105.6,77.53
230599,2018-06-29 10:44:58.218750,-52.82,77.53
230600,2018-06-29 10:44:58.250000,17.37,77.53
230601,2018-06-29 10:44:58.281250,101.24,77.53
230602,2018-06-29 10:44:58.312500,178.14,77.53
230603,2018-06-29 10:44:58.343750,219.0,77.53
230604,2018-06-29 10:44:58.375000,209.03,77.53
230605,2018-06-29 10:44:58.406250,157.63,77.53
230606,2018-06-29 10:44:58.437500,88.52,77.53
230607,2018-06-29 10:44:58.468750,22.24,77.53
230608,2018-06-29 10:44:58.500000,-27.57,77.53
230609,2018-06-29 10:44:58.531250,-54.53,77.58
230610,2018-06-29 10:44:58.562500,-60.74,77.58
230611,2018-06-29 10:44:58.593750,-55.86,77.58
230612,2018-06-29 10:44:58.625000,-51.45,77.58
230613,2018-06-29 10:44:58.656250,-50.95,77.58
230614,2018-06-29 10:44:58.687500,-52.36,77.58
230615,2018-06-29 10:44:58.718750,-48.08,77.58
230616,2018-06-29 10:44:58.750000,-34.04,77.58
230617,2018-06-29 10:44:58.781250,-13.35,77.58
230618,2018-06-29 10:44:58.812500,-3.49,77.58
230619,2018-06-29 10:44:58.843750,-21.87,77.58
230620,2018-06-29 10:44:58.875000,-38.36,77.58
230621,2018-06-29 10:44:58.906250,-12.19,77.58
230622,2018-06-29 10:44:58.937500,58.65,77.58
230623,2018-06-29 10:44:58.968750,143.26,77.58
230624,2018-06-29 10:44:59.000000,206.63,77.58
230625,2018-06-29 10:44:59.031250,215.57,77.58
230626,2018-06-29 10:44:59.062500,134.68,77.58
230627,2018-06-29 10:44:59.093750,18.47,77.58
230628,2018-06-29 10:44:59.125000,-67.62,77.58
230629,2018-06-29 10:44:59.156250,-114.04,77.58
230630,2018-06-29 10:44:59.187500,-141.18,77.58
230631,2018-06-29 10:44:59.218750,-153.12,77.58
230632,2018-06-29 10:44:59.250000,-154.14,77.58
230633,2018-06-29 10:44:59.281250,-139.81,77.58
230634,2018-06-29 10:44:59.312500,-109.61,77.58
230635,2018-06-29 10:44:59.343750,-68.22,77.58
230636,2018-06-29 10:44:59.375000,-21.21,77.58
230637,2018-06-29 10:44:59.406250,26.06,77.58
230638,2018-06-29 10:44:59.437500,70.66,77.58
230639,2018-06-29 10:44:59.468750,103.89,77.58
230640,2018-06-29 10:44:59.500000,110.79,77.58
230641,2018-06-29 10:44:59.531250,79.15,77.6
230642,2018-06-29 10:44:59.562500,21.28,77.6
230643,2018-06-29 10:44:59.593750,-33.02,77.6
230644,2018-06-29 10:44:59.625000,-61.38,77.6
230645,2018-06-29 10:44:59.656250,-62.09,77.6
230646,2018-06-29 10:44:59.687500,-45.77,77.6
230647,2018-06-29 10:44:59.718750,-22.68,77.6
230648,2018-06-29 10:44:59.750000,-3.6,77.6
230649,2018-06-29 10:44:59.781250,5.62,77.6
230650,2018-06-29 10:44:59.812500,8.33,77.6
230651,2018-06-29 10:44:59.843750,14.0,77.6
230652,2018-06-29 10:44:59.875000,25.42,77.6
230653,2018-06-29 10:44:59.906250,33.78,77.6
230654,2018-06-29 10:44:59.937500,33.96,77.6
230655,2018-06-29 10:44:59.968750,26.44,77.6
230656,2018-06-29 10:45:00.000000,27.0,77.6
230657,2018-06-29 10:45:00.031250,55.57,77.6
230658,2018-06-29 10:45:00.062500,99.91,77.6
230659,2018-06-29 10:45:00.093750,140.44,77.6
230660,2018-06-29 10:45:00.125000,158.48,77.6
230661,2018-06-29 10:45:00.156250,134.69,77.6
230662,2018-06-29 10:45:00.187500,61.84,77.6
230663,2018-06-29 10:45:00.218750,-38.43,77.6
230664,2018-06-29 10:45:00.250000,-129.68,77.6
230665,2018-06-29 10:45:00.281250,-183.1,77.6
230666,2018-06-29 10:45:00.312500,-193.67,77.6
230667,2018-06-29 10:45:00.343750,-175.13,77.6
230668,2018-06-29 10:45:00.375000,-145.56,77.6
230669,2018-06-29 10:45:00.406250,-114.47,77.6
230670,2018-06-29 10:45:00.437500,-81.51,77.6
230671,2018-06-29 10:45:00.468750,-45.86,77.6
230672,2018-06-29 10:45:00.500000,-10.51,77.6
230673,2018-06-29 10:45:00.531250,19.89,77.5
230674,2018-06-29 10:45:00.562500,45.78,77.5
230675,2018-06-29 10:45:00.593750,67.37,77.5
230676,2018-06-29 10:45:00.625000,77.7,77.5
230677,2018-06-29 10:45:00.656250,71.02,77.5
230678,2018-06-29 10:45:00.687500,52.64,77.5
230679,2018-06-29 10:45:00.718750,31.17,77.5
230680,2018-06-29 10:45:00.750000,9.02,77.5
230681,2018-06-29 10:45:00.781250,-11.25,77.5
230682,2018-06-29 10:45:00.812500,-23.84,77.5
230683,2018-06-29 10:45:00.843750,-28.35,77.5
230684,2018-06-29 10:45:00.875000,-31.5,77.5
230685,2018-06-29 10:45:00.906250,-37.56,77.5
230686,2018-06-29 10:45:00.937500,-41.53,77.5
230687,2018-06-29 10:45:00.968750,-33.09,77.5
230688,2018-06-29 10:45:01.000000,-8.09,77.5
230689,2018-06-29 10:45:01.031250,23.75,77.5
230690,2018-06-29 10:45:01.062500,49.25,77.5
230691,2018-06-29 10:45:01.093750,67.67,77.5
230692,2018-06-29 10:45:01.125000,85.27,77.5
230693,2018-06-29 10:45:01.156250,99.69,77.5
230694,2018-06-29 10:45:01.187500,104.75,77.5
230695,2018-06-29 10:45:01.218750,100.86,77.5
230696,2018-06-29 10:45:01.250000,86.63,77.5
230697,2018-06-29 10:45:01.281250,55.14,77.5
230698,2018-06-29 10:45:01.312500,10.78,77.5
230699,2018-06-29 10:45:01.343750,-28.24,77.5
230700,2018-06-29 10:45:01.375000,-51.12,77.5
230701,2018-06-29 10:45:01.406250,-64.43,77.5
230702,2018-06-29 10:45:01.437500,-77.52,77.5
230703,2018-06-29 10:45:01.468750,-88.98,77.5
230704,2018-06-29 10:45:01.500000,-90.34,77.5
230705,2018-06-29 10:45:01.531250,-78.21,77.77
230706,2018-06-29 10:45:01.562500,-61.99,77.77
230707,2018-06-29 10:45:01.593750,-55.88,77.77
230708,2018-06-29 10:45:01.625000,-61.82,77.77
230709,2018-06-29 10:45:01.656250,-62.29,77.77
230710,2018-06-29 10:45:01.687500,-40.91,77.77
230711,2018-06-29 10:45:01.718750,-5.21,77.77
230712,2018-06-29 10:45:01.750000,23.47,77.77
230713,2018-06-29 10:45:01.781250,35.78,77.77
230714,2018-06-29 10:45:01.812500,37.65,77.77
230715,2018-06-29 10:45:01.843750,32.63,77.77
230716,2018-06-29 10:45:01.875000,26.07,77.77
230717,2018-06-29 10:45:01.906250,27.68,77.77
230718,2018-06-29 10:45:01.937500,41.97,77.77
230719,2018-06-29 10:45:01.968750,58.18,77.77
230720,2018-06-29 10:45:02.000000,64.29,77.77
230721,2018-06-29 10:45:02.031250,63.94,77.77
230722,2018-06-29 10:45:02.062500,70.06,77.77
230723,2018-06-29 10:45:02.093750,88.9,77.77
230724,2018-06-29 10:45:02.125000,104.69,77.77
230725,2018-06-29 10:45:02.156250,98.17,77.77
230726,2018-06-29 10:45:02.187500,62.84,77.77
230727,2018-06-29 10:45:02.218750,5.07,77.77
230728,2018-06-29 10:45:02.250000,-26.14,77.77
230729,2018-06-29 10:45:02.281250,-19.74,77.77
230730,2018-06-29 10:45:02.312500,10.06,77.77
230731,2018-06-29 10:45:02.343750,38.68,77.77
230732,2018-06-29 10:45:02.375000,49.94,77.77
230733,2018-06-29 10:45:02.406250,33.65,77.77
230734,2018-06-29 10:45:02.437500,-4.97,77.77
230735,2018-06-29 10:45:02.468750,-50.39,77.77
230736,2018-06-29 10:45:02.500000,-85.23,77.77
230737,2018-06-29 10:45:02.531250,-102.93,78.02
230738,2018-06-29 10:45:02.562500,-106.45,78.02
230739,2018-06-29 10:45:02.593750,-97.65,78.02
230740,2018-06-29 10:45:02.625000,-77.22,78.02
230741,2018-06-29 10:45:02.656250,-52.35,78.02
230742,2018-06-29 10:45:02.687500,-36.65,78.02
230743,2018-06-29 10:45:02.718750,-29.14,78.02
230744,2018-06-29 10:45:02.750000,-14.68,78.02
230745,2018-06-29 10:45:02.781250,13.92,78.02
230746,2018-06-29 10:45:02.812500,42.35,78.02
230747,2018-06-29 10:45:02.843750,50.84,78.02
230748,2018-06-29 10:45:02.875000,35.59,78.02
230749,2018-06-29 10:45:02.906250,8.68,78.02
230750,2018-06-29 10:45:02.937500,-16.52,78.02
230751,2018-06-29 10:45:02.968750,-34.79,78.02
230752,2018-06-29 10:45:03.000000,-46.05,78.02
230753,2018-06-29 10:45:03.031250,-50.39,78.02
230754,2018-06-29 10:45:03.062500,-43.37,78.02
230755,2018-06-29 10:45:03.093750,-17.86,78.02
230756,2018-06-29 10:45:03.125000,25.54,78.02
230757,2018-06-29 10:45:03.156250,75.11,78.02
230758,2018-06-29 10:45:03.187500,116.37,78.02
230759,2018-06-29 10:45:03.218750,139.09,78.02
230760,2018-06-29 10:45:03.250000,139.26,78.02
230761,2018-06-29 10:45:03.281250,119.61,78.02
230762,2018-06-29 10:45:03.312500,86.99,78.02
230763,2018-06-29 10:45:03.343750,50.83,78.02
230764,2018-06-29 10:45:03.375000,24.51,78.02
230765,2018-06-29 10:45:03.406250,21.3,78.02
230766,2018-06-29 10:45:03.437500,43.62,78.02
230767,2018-06-29 10:45:03.468750,75.32,78.02
230768,2018-06-29 10:45:03.500000,88.14,78.02
230769,2018-06-29 10:45:03.531250,61.61,78.25
230770,2018-06-29 10:45:03.562500,-1.15,78.25
230771,2018-06-29 10:45:03.593750,-78.37,78.25
230772,2018-06-29 10:45:03.625000,-147.33,78.25
230773,2018-06-29 10:45:03.656250,-194.66,78.25
230774,2018-06-29 10:45:03.687500,-216.2,78.25
230775,2018-06-29 10:45:03.718750,-212.59,78.25
230776,2018-06-29 10:45:03.750000,-185.72,78.25
230777,2018-06-29 10:45:03.781250,-140.75,78.25
230778,2018-06-29 10:45:03.812500,-86.95,78.25
230779,2018-06-29 10:45:03.843750,-30.45,78.25
230780,2018-06-29 10:45:03.875000,26.81,78.25
230781,2018-06-29 10:45:03.906250,73.46,78.25
230782,2018-06-29 10:45:03.937500,89.56,78.25
230783,2018-06-29 10:45:03.968750,71.25,78.25
230784,2018-06-29 10:45:04.000000,37.99,78.25
230785,2018-06-29 10:45:04.031250,9.61,78.25
230786,2018-06-29 10:45:04.062500,-8.4,78.25
230787,2018-06-29 10:45:04.093750,-16.32,78.25
230788,2018-06-29 10:45:04.125000,-13.36,78.25
230789,2018-06-29 10:45:04.156250,-1.98,78.25
230790,2018-06-29 10:45:04.187500,11.54,78.25
230791,2018-06-29 10:45:04.218750,23.08,78.25
230792,2018-06-29 10:45:04.250000,32.54,78.25
230793,2018-06-29 10:45:04.281250,38.58,78.25
230794,2018-06-29 10:45:04.312500,38.47,78.25
230795,2018-06-29 10:45:04.343750,33.62,78.25
230796,2018-06-29 10:45:04.375000,27.34,78.25
230797,2018-06-29 10:45:04.406250,18.42,78.25
230798,2018-06-29 10:45:04.437500,5.68,78.25
230799,2018-06-29 10:45:04.468750,-1.99,78.25
230800,2018-06-29 10:45:04.500000,10.99,78.25
230801,2018-06-29 10:45:04.531250,52.93,78.45
230802,2018-06-29 10:45:04.562500,112.61,78.45
230803,2018-06-29 10:45:04.593750,158.68,78.45
230804,2018-06-29 10:45:04.625000,159.06,78.45
230805,2018-06-29 10:45:04.656250,106.24,78.45
230806,2018-06-29 10:45:04.687500,21.46,78.45
230807,2018-06-29 10:45:04.718750,-63.31,78.45
230808,2018-06-29 10:45:04.750000,-123.81,78.45
230809,2018-06-29 10:45:04.781250,-150.74,78.45
230810,2018-06-29 10:45:04.812500,-149.3,78.45
230811,2018-06-29 10:45:04.843750,-132.54,78.45
230812,2018-06-29 10:45:04.875000,-111.71,78.45
230813,2018-06-29 10:45:04.906250,-89.96,78.45
230814,2018-06-29 10:45:04.937500,-66.38,78.45
230815,2018-06-29 10:45:04.968750,-43.6,78.45
230816,2018-06-29 10:45:05.000000,-28.76,78.45
230817,2018-06-29 10:45:05.031250,-27.86,78.45
230818,2018-06-29 10:45:05.062500,-37.01,78.45
230819,2018-06-29 10:45:05.093750,-43.09,78.45
230820,2018-06-29 10:45:05.125000,-35.11,78.45
230821,2018-06-29 10:45:05.156250,-15.85,78.45
230822,2018-06-29 10:45:05.187500,5.51,78.45
230823,2018-06-29 10:45:05.218750,24.42,78.45
230824,2018-06-29 10:45:05.250000,41.96,78.45
230825,2018-06-29 10:45:05.281250,59.2,78.45
230826,2018-06-29 10:45:05.312500,73.34,78.45
230827,2018-06-29 10:45:05.343750,83.78,78.45
230828,2018-06-29 10:45:05.375000,92.65,78.45
230829,2018-06-29 10:45:05.406250,101.29,78.45
230830,2018-06-29 10:45:05.437500,102.32,78.45
230831,2018-06-29 10:45:05.468750,89.47,78.45
230832,2018-06-29 10:45:05.500000,65.81,78.45
230833,2018-06-29 10:45:05.531250,34.23,78.65
230834,2018-06-29 10:45:05.562500,12.9,78.65
230835,2018-06-29 10:45:05.593750,13.32,78.65
230836,2018-06-29 10:45:05.625000,38.86,78.65
230837,2018-06-29 10:45:05.656250,74.57,78.65
230838,2018-06-29 10:45:05.687500,88.81,78.65
230839,2018-06-29 10:45:05.718750,56.99,78.65
230840,2018-06-29 10:45:05.750000,-12.15,78.65
230841,2018-06-29 10:45:05.781250,-85.91,78.65
230842,2018-06-29 10:45:05.812500,-137.54,78.65
230843,2018-06-29 10:45:05.843750,-160.38,78.65
230844,2018-06-29 10:45:05.875000,-160.49,78.65
230845,2018-06-29 10:45:05.906250,-143.21,78.65
230846,2018-06-29 10:45:05.937500,-114.87,78.65
230847,2018-06-29 10:45:05.968750,-82.52,78.65
230848,2018-06-29 10:45:06.000000,-51.6,78.65
230849,2018-06-29 10:45:06.031250,-24.08,78.65
230850,2018-06-29 10:45:06.062500,-1.5,78.65
230851,2018-06-29 10:45:06.093750,14.08,78.65
230852,2018-06-29 10:45:06.125000,21.55,78.65
230853,2018-06-29 10:45:06.156250,20.69,78.65
230854,2018-06-29 10:45:06.187500,13.62,78.65
230855,2018-06-29 10:45:06.218750,3.69,78.65
230856,2018-06-29 10:45:06.250000,-5.79,78.65
230857,2018-06-29 10:45:06.281250,-12.12,78.65
230858,2018-06-29 10:45:06.312500,-13.64,78.65
230859,2018-06-29 10:45:06.343750,-10.8,78.65
230860,2018-06-29 10:45:06.375000,-5.82,78.65
230861,2018-06-29 10:45:06.406250,0.89,78.65
230862,2018-06-29 10:45:06.437500,12.99,78.65
230863,2018-06-29 10:45:06.468750,34.51,78.65
230864,2018-06-29 10:45:06.500000,63.63,78.65
230865,2018-06-29 10:45:06.531250,91.33,78.82
230866,2018-06-29 10:45:06.562500,108.69,78.82
230867,2018-06-29 10:45:06.593750,111.74,78.82
230868,2018-06-29 10:45:06.625000,100.32,78.82
230869,2018-06-29 10:45:06.656250,80.74,78.82
230870,2018-06-29 10:45:06.687500,69.36,78.82
230871,2018-06-29 10:45:06.718750,81.38,78.82
230872,2018-06-29 10:45:06.750000,109.74,78.82
230873,2018-06-29 10:45:06.781250,124.86,78.82
230874,2018-06-29 10:45:06.812500,101.93,78.82
230875,2018-06-29 10:45:06.843750,41.81,78.82
230876,2018-06-29 10:45:06.875000,-35.27,78.82
230877,2018-06-29 10:45:06.906250,-107.61,78.82
230878,2018-06-29 10:45:06.937500,-159.98,78.82
230879,2018-06-29 10:45:06.968750,-184.63,78.82
230880,2018-06-29 10:45:07.000000,-183.73,78.82
230881,2018-06-29 10:45:07.031250,-169.01,78.82
230882,2018-06-29 10:45:07.062500,-152.91,78.82
230883,2018-06-29 10:45:07.093750,-137.04,78.82
230884,2018-06-29 10:45:07.125000,-112.05,78.82
230885,2018-06-29 10:45:07.156250,-68.8,78.82
230886,2018-06-29 10:45:07.187500,-12.71,78.82
230887,2018-06-29 10:45:07.218750,36.52,78.82
230888,2018-06-29 10:45:07.250000,62.02,78.82
230889,2018-06-29 10:45:07.281250,64.4,78.82
230890,2018-06-29 10:45:07.312500,54.58,78.82
230891,2018-06-29 10:45:07.343750,39.28,78.82
230892,2018-06-29 10:45:07.375000,23.57,78.82
230893,2018-06-29 10:45:07.406250,14.5,78.82
230894,2018-06-29 10:45:07.437500,16.76,78.82
230895,2018-06-29 10:45:07.468750,23.7,78.82
230896,2018-06-29 10:45:07.500000,26.93,78.82
230897,2018-06-29 10:45:07.531250,25.43,79.0
230898,2018-06-29 10:45:07.562500,24.66,79.0
230899,2018-06-29 10:45:07.593750,29.55,79.0
230900,2018-06-29 10:45:07.625000,35.62,79.0
230901,2018-06-29 10:45:07.656250,29.77,79.0
230902,2018-06-29 10:45:07.687500,-2.19,79.0
230903,2018-06-29 10:45:07.718750,-40.87,79.0
230904,2018-06-29 10:45:07.750000,-43.85,79.0
230905,2018-06-29 10:45:07.781250,-8.32,79.0
230906,2018-06-29 10:45:07.812500,51.96,79.0
230907,2018-06-29 10:45:07.843750,114.11,79.0
230908,2018-06-29 10:45:07.875000,151.97,79.0
230909,2018-06-29 10:45:07.906250,140.91,79.0
230910,2018-06-29 10:45:07.937500,82.61,79.0
230911,2018-06-29 10:45:07.968750,6.77,79.0
230912,2018-06-29 10:45:08.000000,-53.58,79.0
230913,2018-06-29 10:45:08.031250,-89.37,79.0
230914,2018-06-29 10:45:08.062500,-106.54,79.0
230915,2018-06-29 10:45:08.093750,-109.18,79.0
230916,2018-06-29 10:45:08.125000,-97.95,79.0
230917,2018-06-29 10:45:08.156250,-77.64,79.0
230918,2018-06-29 10:45:08.187500,-56.79,79.0
230919,2018-06-29 10:45:08.218750,-38.37,79.0
230920,2018-06-29 10:45:08.250000,-21.99,79.0
230921,2018-06-29 10:45:08.281250,-6.99,79.0
230922,2018-06-29 10:45:08.312500,5.45,79.0
230923,2018-06-29 10:45:08.343750,11.77,79.0
230924,2018-06-29 10:45:08.375000,8.02,79.0
230925,2018-06-29 10:45:08.406250,-4.09,79.0
230926,2018-06-29 10:45:08.437500,-18.41,79.0
230927,2018-06-29 10:45:08.468750,-32.23,79.0
230928,2018-06-29 10:45:08.500000,-45.57,79.0
230929,2018-06-29 10:45:08.531250,-55.21,79.22
230930,2018-06-29 10:45:08.562500,-53.46,79.22
230931,2018-06-29 10:45:08.593750,-35.17,79.22
230932,2018-06-29 10:45:08.625000,-5.09,79.22
230933,2018-06-29 10:45:08.656250,25.73,79.22
230934,2018-06-29 10:45:08.687500,50.74,79.22
230935,2018-06-29 10:45:08.718750,68.96,79.22
230936,2018-06-29 10:45:08.750000,78.57,79.22
230937,2018-06-29 10:45:08.781250,78.48,79.22
230938,2018-06-29 10:45:08.812500,74.4,79.22
230939,2018-06-29 10:45:08.843750,73.53,79.22
230940,2018-06-29 10:45:08.875000,74.0,79.22
230941,2018-06-29 10:45:08.906250,68.08,79.22
230942,2018-06-29 10:45:08.937500,55.5,79.22
230943,2018-06-29 10:45:08.968750,42.04,79.22
230944,2018-06-29 10:45:09.000000,25.06,79.22
230945,2018-06-29 10:45:09.031250,-4.43,79.22
230946,2018-06-29 10:45:09.062500,-43.96,79.22
230947,2018-06-29 10:45:09.093750,-78.05,79.22
230948,2018-06-29 10:45:09.125000,-96.12,79.22
230949,2018-06-29 10:45:09.156250,-100.65,79.22
230950,2018-06-29 10:45:09.187500,-97.94,79.22
230951,2018-06-29 10:45:09.218750,-91.42,79.22
230952,2018-06-29 10:45:09.250000,-83.08,79.22
230953,2018-06-29 10:45:09.281250,-71.2,79.22
230954,2018-06-29 10:45:09.312500,-49.18,79.22
230955,2018-06-29 10:45:09.343750,-16.46,79.22
230956,2018-06-29 10:45:09.375000,16.04,79.22
230957,2018-06-29 10:45:09.406250,38.83,79.22
230958,2018-06-29 10:45:09.437500,51.77,79.22
230959,2018-06-29 10:45:09.468750,56.33,79.22
230960,2018-06-29 10:45:09.500000,52.91,79.22
230961,2018-06-29 10:45:09.531250,45.77,79.4
230962,2018-06-29 10:45:09.562500,39.37,79.4
230963,2018-06-29 10:45:09.593750,34.02,79.4
230964,2018-06-29 10:45:09.625000,31.08,79.4
230965,2018-06-29 10:45:09.656250,34.48,79.4
230966,2018-06-29 10:45:09.687500,44.62,79.4
230967,2018-06-29 10:45:09.718750,57.02,79.4
230968,2018-06-29 10:45:09.750000,67.43,79.4
230969,2018-06-29 10:45:09.781250,74.65,79.4
230970,2018-06-29 10:45:09.812500,78.25,79.4
230971,2018-06-29 10:45:09.843750,75.63,79.4
230972,2018-06-29 10:45:09.875000,63.71,79.4
230973,2018-06-29 10:45:09.906250,43.59,79.4
230974,2018-06-29 10:45:09.937500,19.86,79.4
230975,2018-06-29 10:45:09.968750,-1.38,79.4
230976,2018-06-29 10:45:10.000000,-10.27,79.4
230977,2018-06-29 10:45:10.031250,1.16,79.4
230978,2018-06-29 10:45:10.062500,23.43,79.4
230979,2018-06-29 10:45:10.093750,31.68,79.4
230980,2018-06-29 10:45:10.125000,10.88,79.4
230981,2018-06-29 10:45:10.156250,-30.96,79.4
230982,2018-06-29 10:45:10.187500,-75.32,79.4
230983,2018-06-29 10:45:10.218750,-108.34,79.4
230984,2018-06-29 10:45:10.250000,-124.02,79.4
230985,2018-06-29 10:45:10.281250,-121.5,79.4
230986,2018-06-29 10:45:10.312500,-103.56,79.4
230987,2018-06-29 10:45:10.343750,-76.63,79.4
230988,2018-06-29 10:45:10.375000,-49.48,79.4
230989,2018-06-29 10:45:10.406250,-28.94,79.4
230990,2018-06-29 10:45:10.437500,-17.2,79.4
230991,2018-06-29 10:45:10.468750,-14.19,79.4
230992,2018-06-29 10:45:10.500000,-18.66,79.4
230993,2018-06-29 10:45:10.531250,-26.14,79.52
230994,2018-06-29 10:45:10.562500,-31.65,79.52
230995,2018-06-29 10:45:10.593750,-35.97,79.52
230996,2018-06-29 10:45:10.625000,-43.23,79.52
230997,2018-06-29 10:45:10.656250,-50.64,79.52
230998,2018-06-29 10:45:10.687500,-46.43,79.52
230999,2018-06-29 10:45:10.718750,-23.34,79.52
231000,2018-06-29 10:45:10.750000,11.27,79.52
231001,2018-06-29 10:45:10.781250,43.75,79.52
231002,2018-06-29 10:45:10.812500,67.67,79.52
231003,2018-06-29 10:45:10.843750,84.84,79.52
231004,2018-06-29 10:45:10.875000,99.14,79.52
231005,2018-06-29 10:45:10.906250,111.24,79.52
231006,2018-06-29 10:45:10.937500,116.51,79.52
231007,2018-06-29 10:45:10.968750,109.95,79.52
231008,2018-06-29 10:45:11.000000,92.61,79.52
231009,2018-06-29 10:45:11.031250,69.11,79.52
231010,2018-06-29 10:45:11.062500,43.44,79.52
231011,2018-06-29 10:45:11.093750,20.78,79.52
231012,2018-06-29 10:45:11.125000,3.49,79.52
231013,2018-06-29 10:45:11.156250,-15.02,79.52
231014,2018-06-29 10:45:11.187500,-40.6,79.52
231015,2018-06-29 10:45:11.218750,-66.65,79.52
231016,2018-06-29 10:45:11.250000,-84.01,79.52
231017,2018-06-29 10:45:11.281250,-95.22,79.52
231018,2018-06-29 10:45:11.312500,-106.19,79.52
231019,2018-06-29 10:45:11.343750,-110.4,79.52
231020,2018-06-29 10:45:11.375000,-93.77,79.52
231021,2018-06-29 10:45:11.406250,-55.37,79.52
231022,2018-06-29 10:45:11.437500,-13.73,79.52
231023,2018-06-29 10:45:11.468750,11.71,79.52
231024,2018-06-29 10:45:11.500000,19.42,79.52
231025,2018-06-29 10:45:11.531250,25.88,79.63
231026,2018-06-29 10:45:11.562500,44.43,79.63
231027,2018-06-29 10:45:11.593750,65.46,79.63
231028,2018-06-29 10:45:11.625000,69.07,79.63
231029,2018-06-29 10:45:11.656250,54.1,79.63
231030,2018-06-29 10:45:11.687500,35.68,79.63
231031,2018-06-29 10:45:11.718750,20.37,79.63
231032,2018-06-29 10:45:11.750000,5.52,79.63
231033,2018-06-29 10:45:11.781250,-6.43,79.63
231034,2018-06-29 10:45:11.812500,-11.0,79.63
231035,2018-06-29 10:45:11.843750,-9.34,79.63
231036,2018-06-29 10:45:11.875000,-5.14,79.63
231037,2018-06-29 10:45:11.906250,-0.96,79.63
231038,2018-06-29 10:45:11.937500,2.79,79.63
231039,2018-06-29 10:45:11.968750,7.83,79.63
231040,2018-06-29 10:45:12.000000,13.09,79.63
231041,2018-06-29 10:45:12.031250,13.45,79.63
231042,2018-06-29 10:45:12.062500,9.87,79.63
231043,2018-06-29 10:45:12.093750,11.09,79.63
231044,2018-06-29 10:45:12.125000,23.06,79.63
231045,2018-06-29 10:45:12.156250,48.98,79.63
231046,2018-06-29 10:45:12.187500,88.78,79.63
231047,2018-06-29 10:45:12.218750,125.63,79.63
231048,2018-06-29 10:45:12.250000,131.76,79.63
231049,2018-06-29 10:45:12.281250,98.66,79.63
231050,2018-06-29 10:45:12.312500,43.1,79.63
231051,2018-06-29 10:45:12.343750,-15.96,79.63
231052,2018-06-29 10:45:12.375000,-66.76,79.63
231053,2018-06-29 10:45:12.406250,-97.84,79.63
231054,2018-06-29 10:45:12.437500,-100.86,79.63
231055,2018-06-29 10:45:12.468750,-82.84,79.63
231056,2018-06-29 10:45:12.500000,-66.2,79.63
231057,2018-06-29 10:45:12.531250,-66.38,79.75
231058,2018-06-29 10:45:12.562500,-72.56,79.75
231059,2018-06-29 10:45:12.593750,-57.35,79.75
231060,2018-06-29 10:45:12.625000,-11.62,79.75
231061,2018-06-29 10:45:12.656250,36.09,79.75
231062,2018-06-29 10:45:12.687500,46.99,79.75
231063,2018-06-29 10:45:12.718750,16.15,79.75
231064,2018-06-29 10:45:12.750000,-26.09,79.75
231065,2018-06-29 10:45:12.781250,-53.76,79.75
231066,2018-06-29 10:45:12.812500,-64.15,79.75
231067,2018-06-29 10:45:12.843750,-61.84,79.75
231068,2018-06-29 10:45:12.875000,-48.97,79.75
231069,2018-06-29 10:45:12.906250,-30.16,79.75
231070,2018-06-29 10:45:12.937500,-11.14,79.75
231071,2018-06-29 10:45:12.968750,6.14,79.75
231072,2018-06-29 10:45:13.000000,19.96,79.75
231073,2018-06-29 10:45:13.031250,27.75,79.75
231074,2018-06-29 10:45:13.062500,31.41,79.75
231075,2018-06-29 10:45:13.093750,36.64,79.75
231076,2018-06-29 10:45:13.125000,43.98,79.75
231077,2018-06-29 10:45:13.156250,45.64,79.75
231078,2018-06-29 10:45:13.187500,35.06,79.75
231079,2018-06-29 10:45:13.218750,18.99,79.75
231080,2018-06-29 10:45:13.250000,14.88,79.75
231081,2018-06-29 10:45:13.281250,27.71,79.75
231082,2018-06-29 10:45:13.312500,35.85,79.75
231083,2018-06-29 10:45:13.343750,13.66,79.75
231084,2018-06-29 10:45:13.375000,-36.45,79.75
231085,2018-06-29 10:45:13.406250,-87.8,79.75
231086,2018-06-29 10:45:13.437500,-117.96,79.75
231087,2018-06-29 10:45:13.468750,-121.9,79.75
231088,2018-06-29 10:45:13.500000,-104.94,79.75
231089,2018-06-29 10:45:13.531250,-75.39,79.82
231090,2018-06-29 10:45:13.562500,-43.01,79.82
231091,2018-06-29 10:45:13.593750,-16.49,79.82
231092,2018-06-29 10:45:13.625000,1.52,79.82
231093,2018-06-29 10:45:13.656250,13.86,79.82
231094,2018-06-29 10:45:13.687500,22.05,79.82
231095,2018-06-29 10:45:13.718750,23.52,79.82
231096,2018-06-29 10:45:13.750000,17.82,79.82
231097,2018-06-29 10:45:13.781250,10.22,79.82
231098,2018-06-29 10:45:13.812500,5.6,79.82
231099,2018-06-29 10:45:13.843750,3.48,79.82
231100,2018-06-29 10:45:13.875000,1.02,79.82
231101,2018-06-29 10:45:13.906250,-3.36,79.82
231102,2018-06-29 10:45:13.937500,-9.08,79.82
231103,2018-06-29 10:45:13.968750,-12.88,79.82
231104,2018-06-29 10:45:14.000000,-8.87,79.82
231105,2018-06-29 10:45:14.031250,8.93,79.82
231106,2018-06-29 10:45:14.062500,40.69,79.82
231107,2018-06-29 10:45:14.093750,78.64,79.82
231108,2018-06-29 10:45:14.125000,112.19,79.82
231109,2018-06-29 10:45:14.156250,132.01,79.82
231110,2018-06-29 10:45:14.187500,130.44,79.82
231111,2018-06-29 10:45:14.218750,104.92,79.82
231112,2018-06-29 10:45:14.250000,65.12,79.82
231113,2018-06-29 10:45:14.281250,32.9,79.82
231114,2018-06-29 10:45:14.312500,30.75,79.82
231115,2018-06-29 10:45:14.343750,61.42,79.82
231116,2018-06-29 10:45:14.375000,96.91,79.82
231117,2018-06-29 10:45:14.406250,99.89,79.82
231118,2018-06-29 10:45:14.437500,57.25,79.82
231119,2018-06-29 10:45:14.468750,-15.25,79.82
231120,2018-06-29 10:45:14.500000,-93.31,79.82
231121,2018-06-29 10:45:14.531250,-156.98,79.82
231122,2018-06-29 10:45:14.562500,-193.96,79.82
231123,2018-06-29 10:45:14.593750,-204.37,79.82
231124,2018-06-29 10:45:14.625000,-197.85,79.82
231125,2018-06-29 10:45:14.656250,-179.72,79.82
231126,2018-06-29 10:45:14.687500,-145.58,79.82
231127,2018-06-29 10:45:14.718750,-92.85,79.82
231128,2018-06-29 10:45:14.750000,-30.24,79.82
231129,2018-06-29 10:45:14.781250,26.53,79.82
231130,2018-06-29 10:45:14.812500,62.6,79.82
231131,2018-06-29 10:45:14.843750,71.97,79.82
231132,2018-06-29 10:45:14.875000,63.05,79.82
231133,2018-06-29 10:45:14.906250,50.15,79.82
231134,2018-06-29 10:45:14.937500,39.15,79.82
231135,2018-06-29 10:45:14.968750,29.09,79.82
231136,2018-06-29 10:45:15.000000,23.2,79.82
231137,2018-06-29 10:45:15.031250,27.4,79.82
231138,2018-06-29 10:45:15.062500,40.49,79.82
231139,2018-06-29 10:45:15.093750,54.87,79.82
231140,2018-06-29 10:45:15.125000,66.21,79.82
231141,2018-06-29 10:45:15.156250,75.95,79.82
231142,2018-06-29 10:45:15.187500,84.06,79.82
231143,2018-06-29 10:45:15.218750,83.07,79.82
231144,2018-06-29 10:45:15.250000,62.92,79.82
231145,2018-06-29 10:45:15.281250,24.17,79.82
231146,2018-06-29 10:45:15.312500,-15.1,79.82
231147,2018-06-29 10:45:15.343750,-32.28,79.82
231148,2018-06-29 10:45:15.375000,-19.21,79.82
231149,2018-06-29 10:45:15.406250,18.02,79.82
231150,2018-06-29 10:45:15.437500,65.62,79.82
231151,2018-06-29 10:45:15.468750,100.58,79.82
231152,2018-06-29 10:45:15.500000,99.21,79.82
231153,2018-06-29 10:45:15.531250,57.72,79.82
231154,2018-06-29 10:45:15.562500,-4.53,79.82
231155,2018-06-29 10:45:15.593750,-64.34,79.82
231156,2018-06-29 10:45:15.625000,-107.62,79.82
231157,2018-06-29 10:45:15.656250,-128.66,79.82
231158,2018-06-29 10:45:15.687500,-126.8,79.82
231159,2018-06-29 10:45:15.718750,-107.69,79.82
231160,2018-06-29 10:45:15.750000,-82.43,79.82
231161,2018-06-29 10:45:15.781250,-60.14,79.82
231162,2018-06-29 10:45:15.812500,-43.08,79.82
231163,2018-06-29 10:45:15.843750,-30.11,79.82
231164,2018-06-29 10:45:15.875000,-24.61,79.82
231165,2018-06-29 10:45:15.906250,-28.31,79.82
231166,2018-06-29 10:45:15.937500,-37.96,79.82
231167,2018-06-29 10:45:15.968750,-45.81,79.82
231168,2018-06-29 10:45:16.000000,-44.6,79.82
231169,2018-06-29 10:45:16.031250,-30.63,79.82
231170,2018-06-29 10:45:16.062500,-6.93,79.82
231171,2018-06-29 10:45:16.093750,19.49,79.82
231172,2018-06-29 10:45:16.125000,50.43,79.82
231173,2018-06-29 10:45:16.156250,86.17,79.82
231174,2018-06-29 10:45:16.187500,122.72,79.82
231175,2018-06-29 10:45:16.218750,149.19,79.82
231176,2018-06-29 10:45:16.250000,164.37,79.82
231177,2018-06-29 10:45:16.281250,174.3,79.82
231178,2018-06-29 10:45:16.312500,177.15,79.82
231179,2018-06-29 10:45:16.343750,159.68,79.82
231180,2018-06-29 10:45:16.375000,102.11,79.82
231181,2018-06-29 10:45:16.406250,27.86,79.82
231182,2018-06-29 10:45:16.437500,-27.66,79.82
231183,2018-06-29 10:45:16.468750,-43.69,79.82
231184,2018-06-29 10:45:16.500000,-17.16,79.82
231185,2018-06-29 10:45:16.531250,28.17,79.87
231186,2018-06-29 10:45:16.562500,46.69,79.87
231187,2018-06-29 10:45:16.593750,11.14,79.87
231188,2018-06-29 10:45:16.625000,-64.44,79.87
231189,2018-06-29 10:45:16.656250,-148.04,79.87
231190,2018-06-29 10:45:16.687500,-207.35,79.87
231191,2018-06-29 10:45:16.718750,-223.65,79.87
231192,2018-06-29 10:45:16.750000,-193.54,79.87
231193,2018-06-29 10:45:16.781250,-136.0,79.87
231194,2018-06-29 10:45:16.812500,-73.1,79.87
231195,2018-06-29 10:45:16.843750,-16.78,79.87
231196,2018-06-29 10:45:16.875000,27.58,79.87
231197,2018-06-29 10:45:16.906250,55.69,79.87
231198,2018-06-29 10:45:16.937500,66.65,79.87
231199,2018-06-29 10:45:16.968750,67.45,79.87
231200,2018-06-29 10:45:17.000000,66.6,79.87
231201,2018-06-29 10:45:17.031250,68.35,79.87
231202,2018-06-29 10:45:17.062500,66.71,79.87
231203,2018-06-29 10:45:17.093750,53.6,79.87
231204,2018-06-29 10:45:17.125000,30.22,79.87
231205,2018-06-29 10:45:17.156250,5.63,79.87
231206,2018-06-29 10:45:17.187500,-12.11,79.87
231207,2018-06-29 10:45:17.218750,-18.78,79.87
231208,2018-06-29 10:45:17.250000,-12.64,79.87
231209,2018-06-29 10:45:17.281250,3.66,79.87
231210,2018-06-29 10:45:17.312500,21.47,79.87
231211,2018-06-29 10:45:17.343750,29.4,79.87
231212,2018-06-29 10:45:17.375000,21.52,79.87
231213,2018-06-29 10:45:17.406250,4.8,79.87
231214,2018-06-29 10:45:17.437500,-6.22,79.87
231215,2018-06-29 10:45:17.468750,-5.99,79.87
231216,2018-06-29 10:45:17.500000,-2.32,79.87
231217,2018-06-29 10:45:17.531250,-2.11,79.93
231218,2018-06-29 10:45:17.562500,-2.16,79.93
231219,2018-06-29 10:45:17.593750,0.75,79.93
231220,2018-06-29 10:45:17.625000,-0.02,79.93
231221,2018-06-29 10:45:17.656250,-12.4,79.93
231222,2018-06-29 10:45:17.687500,-34.7,79.93
231223,2018-06-29 10:45:17.718750,-59.02,79.93
231224,2018-06-29 10:45:17.750000,-78.38,79.93
231225,2018-06-29 10:45:17.781250,-86.03,79.93
231226,2018-06-29 10:45:17.812500,-76.21,79.93
231227,2018-06-29 10:45:17.843750,-51.57,79.93
231228,2018-06-29 10:45:17.875000,-26.11,79.93
231229,2018-06-29 10:45:17.906250,-14.36,79.93
231230,2018-06-29 10:45:17.937500,-17.02,79.93
231231,2018-06-29 10:45:17.968750,-21.63,79.93
231232,2018-06-29 10:45:18.000000,-19.18,79.93
231233,2018-06-29 10:45:18.031250,-14.05,79.93
231234,2018-06-29 10:45:18.062500,-14.26,79.93
231235,2018-06-29 10:45:18.093750,-17.59,79.93
231236,2018-06-29 10:45:18.125000,-13.68,79.93
231237,2018-06-29 10:45:18.156250,0.4,79.93
231238,2018-06-29 10:45:18.187500,14.4,79.93
231239,2018-06-29 10:45:18.218750,20.39,79.93
231240,2018-06-29 10:45:18.250000,25.18,79.93
231241,2018-06-29 10:45:18.281250,38.3,79.93
231242,2018-06-29 10:45:18.312500,57.5,79.93
231243,2018-06-29 10:45:18.343750,76.04,79.93
231244,2018-06-29 10:45:18.375000,94.13,79.93
231245,2018-06-29 10:45:18.406250,112.47,79.93
231246,2018-06-29 10:45:18.437500,123.44,79.93
231247,2018-06-29 10:45:18.468750,117.64,79.93
231248,2018-06-29 10:45:18.500000,95.36,79.93
231249,2018-06-29 10:45:18.531250,64.98,80.0
231250,2018-06-29 10:45:18.562500,32.22,80.0
231251,2018-06-29 10:45:18.593750,-3.2,80.0
231252,2018-06-29 10:45:18.625000,-39.09,80.0
231253,2018-06-29 10:45:18.656250,-65.84,80.0
231254,2018-06-29 10:45:18.687500,-77.41,80.0
231255,2018-06-29 10:45:18.718750,-82.16,80.0
231256,2018-06-29 10:45:18.750000,-93.11,80.0
231257,2018-06-29 10:45:18.781250,-111.31,80.0
231258,2018-06-29 10:45:18.812500,-125.21,80.0
231259,2018-06-29 10:45:18.843750,-122.32,80.0
231260,2018-06-29 10:45:18.875000,-98.88,80.0
231261,2018-06-29 10:45:18.906250,-61.47,80.0
231262,2018-06-29 10:45:18.937500,-20.56,80.0
231263,2018-06-29 10:45:18.968750,15.84,80.0
231264,2018-06-29 10:45:19.000000,41.8,80.0
231265,2018-06-29 10:45:19.031250,53.79,80.0
231266,2018-06-29 10:45:19.062500,54.94,80.0
231267,2018-06-29 10:45:19.093750,53.77,80.0
231268,2018-06-29 10:45:19.125000,56.86,80.0
231269,2018-06-29 10:45:19.156250,65.57,80.0
231270,2018-06-29 10:45:19.187500,76.03,80.0
231271,2018-06-29 10:45:19.218750,78.89,80.0
231272,2018-06-29 10:45:19.250000,65.65,80.0
231273,2018-06-29 10:45:19.281250,39.24,80.0
231274,2018-06-29 10:45:19.312500,13.98,80.0
231275,2018-06-29 10:45:19.343750,2.64,80.0
231276,2018-06-29 10:45:19.375000,7.15,80.0
231277,2018-06-29 10:45:19.406250,20.02,80.0
231278,2018-06-29 10:45:19.437500,31.25,80.0
231279,2018-06-29 10:45:19.468750,37.23,80.0
231280,2018-06-29 10:45:19.500000,44.02,80.0
231281,2018-06-29 10:45:19.531250,57.23,80.1
231282,2018-06-29 10:45:19.562500,69.44,80.1
231283,2018-06-29 10:45:19.593750,67.49,80.1
231284,2018-06-29 10:45:19.625000,52.74,80.1
231285,2018-06-29 10:45:19.656250,40.83,80.1
231286,2018-06-29 10:45:19.687500,40.21,80.1
231287,2018-06-29 10:45:19.718750,46.14,80.1
231288,2018-06-29 10:45:19.750000,53.29,80.1
231289,2018-06-29 10:45:19.781250,56.72,80.1
231290,2018-06-29 10:45:19.812500,44.85,80.1
231291,2018-06-29 10:45:19.843750,9.52,80.1
231292,2018-06-29 10:45:19.875000,-41.12,80.1
231293,2018-06-29 10:45:19.906250,-90.34,80.1
231294,2018-06-29 10:45:19.937500,-127.49,80.1
231295,2018-06-29 10:45:19.968750,-150.59,80.1
231296,2018-06-29 10:45:20.000000,-160.08,80.1
231297,2018-06-29 10:45:20.031250,-156.39,80.1
231298,2018-06-29 10:45:20.062500,-142.46,80.1
231299,2018-06-29 10:45:20.093750,-123.83,80.1
231300,2018-06-29 10:45:20.125000,-105.91,80.1
231301,2018-06-29 10:45:20.156250,-92.23,80.1
231302,2018-06-29 10:45:20.187500,-83.83,80.1
231303,2018-06-29 10:45:20.218750,-75.98,80.1
231304,2018-06-29 10:45:20.250000,-60.68,80.1
231305,2018-06-29 10:45:20.281250,-36.02,80.1
231306,2018-06-29 10:45:20.312500,-10.13,80.1
231307,2018-06-29 10:45:20.343750,8.46,80.1
231308,2018-06-29 10:45:20.375000,18.4,80.1
231309,2018-06-29 10:45:20.406250,21.2,80.1
231310,2018-06-29 10:45:20.437500,20.49,80.1
231311,2018-06-29 10:45:20.468750,21.51,80.1
231312,2018-06-29 10:45:20.500000,27.95,80.1
231313,2018-06-29 10:45:20.531250,33.98,80.27
231314,2018-06-29 10:45:20.562500,34.73,80.27
231315,2018-06-29 10:45:20.593750,32.81,80.27
231316,2018-06-29 10:45:20.625000,25.88,80.27
231317,2018-06-29 10:45:20.656250,1.83,80.27
231318,2018-06-29 10:45:20.687500,-30.18,80.27
231319,2018-06-29 10:45:20.718750,-36.49,80.27
231320,2018-06-29 10:45:20.750000,-7.55,80.27
231321,2018-06-29 10:45:20.781250,41.59,80.27
231322,2018-06-29 10:45:20.812500,98.96,80.27
231323,2018-06-29 10:45:20.843750,144.72,80.27
231324,2018-06-29 10:45:20.875000,152.66,80.27
231325,2018-06-29 10:45:20.906250,104.54,80.27
231326,2018-06-29 10:45:20.937500,36.68,80.27
231327,2018-06-29 10:45:20.968750,-19.29,80.27
231328,2018-06-29 10:45:21.000000,-65.82,80.27
231329,2018-06-29 10:45:21.031250,-99.71,80.27
231330,2018-06-29 10:45:21.062500,-113.11,80.27
231331,2018-06-29 10:45:21.093750,-108.14,80.27
231332,2018-06-29 10:45:21.125000,-93.74,80.27
231333,2018-06-29 10:45:21.156250,-76.24,80.27
231334,2018-06-29 10:45:21.187500,-56.16,80.27
231335,2018-06-29 10:45:21.218750,-32.2,80.27
231336,2018-06-29 10:45:21.250000,-10.5,80.27
231337,2018-06-29 10:45:21.281250,6.77,80.27
231338,2018-06-29 10:45:21.312500,24.42,80.27
231339,2018-06-29 10:45:21.343750,42.58,80.27
231340,2018-06-29 10:45:21.375000,48.75,80.27
231341,2018-06-29 10:45:21.406250,37.31,80.27
231342,2018-06-29 10:45:21.437500,18.15,80.27
231343,2018-06-29 10:45:21.468750,-1.6,80.27
231344,2018-06-29 10:45:21.500000,-20.08,80.27
231345,2018-06-29 10:45:21.531250,-29.05,80.43
231346,2018-06-29 10:45:21.562500,-19.27,80.43
231347,2018-06-29 10:45:21.593750,4.05,80.43
231348,2018-06-29 10:45:21.625000,29.28,80.43
231349,2018-06-29 10:45:21.656250,52.98,80.43
231350,2018-06-29 10:45:21.687500,76.76,80.43
231351,2018-06-29 10:45:21.718750,95.95,80.43
231352,2018-06-29 10:45:21.750000,101.47,80.43
231353,2018-06-29 10:45:21.781250,92.56,80.43
231354,2018-06-29 10:45:21.812500,79.1,80.43
231355,2018-06-29 10:45:21.843750,67.4,80.43
231356,2018-06-29 10:45:21.875000,51.84,80.43
231357,2018-06-29 10:45:21.906250,26.64,80.43
231358,2018-06-29 10:45:21.937500,-1.78,80.43
231359,2018-06-29 10:45:21.968750,-24.33,80.43
231360,2018-06-29 10:45:22.000000,-43.81,80.43
231361,2018-06-29 10:45:22.031250,-68.69,80.43
231362,2018-06-29 10:45:22.062500,-98.46,80.43
231363,2018-06-29 10:45:22.093750,-124.93,80.43
231364,2018-06-29 10:45:22.125000,-142.62,80.43
231365,2018-06-29 10:45:22.156250,-146.92,80.43
231366,2018-06-29 10:45:22.187500,-130.14,80.43
231367,2018-06-29 10:45:22.218750,-90.21,80.43
231368,2018-06-29 10:45:22.250000,-37.63,80.43
231369,2018-06-29 10:45:22.281250,11.21,80.43
231370,2018-06-29 10:45:22.312500,44.11,80.43
231371,2018-06-29 10:45:22.343750,57.49,80.43
231372,2018-06-29 10:45:22.375000,59.14,80.43
231373,2018-06-29 10:45:22.406250,59.94,80.43
231374,2018-06-29 10:45:22.437500,63.84,80.43
231375,2018-06-29 10:45:22.468750,66.31,80.43
231376,2018-06-29 10:45:22.500000,63.65,80.43
231377,2018-06-29 10:45:22.531250,55.33,80.58
231378,2018-06-29 10:45:22.562500,38.46,80.58
231379,2018-06-29 10:45:22.593750,16.93,80.58
231380,2018-06-29 10:45:22.625000,3.71,80.58
231381,2018-06-29 10:45:22.656250,11.15,80.58
231382,2018-06-29 10:45:22.687500,28.91,80.58
231383,2018-06-29 10:45:22.718750,38.77,80.58
231384,2018-06-29 10:45:22.750000,42.74,80.58
231385,2018-06-29 10:45:22.781250,59.84,80.58
231386,2018-06-29 10:45:22.812500,96.82,80.58
231387,2018-06-29 10:45:22.843750,127.52,80.58
231388,2018-06-29 10:45:22.875000,123.32,80.58
231389,2018-06-29 10:45:22.906250,56.03,80.58
231390,2018-06-29 10:45:22.937500,-41.65,80.58
231391,2018-06-29 10:45:22.968750,-81.77,80.58
231392,2018-06-29 10:45:23.000000,-60.03,80.58
231393,2018-06-29 10:45:23.031250,-9.24,80.58
231394,2018-06-29 10:45:23.062500,49.85,80.58
231395,2018-06-29 10:45:23.093750,93.96,80.58
231396,2018-06-29 10:45:23.125000,89.96,80.58
231397,2018-06-29 10:45:23.156250,19.1,80.58
231398,2018-06-29 10:45:23.187500,-69.36,80.58
231399,2018-06-29 10:45:23.218750,-131.03,80.58
231400,2018-06-29 10:45:23.250000,-174.34,80.58
231401,2018-06-29 10:45:23.281250,-202.13,80.58
231402,2018-06-29 10:45:23.312500,-208.56,80.58
231403,2018-06-29 10:45:23.343750,-195.6,80.58
231404,2018-06-29 10:45:23.375000,-170.02,80.58
231405,2018-06-29 10:45:23.406250,-132.5,80.58
231406,2018-06-29 10:45:23.437500,-78.22,80.58
231407,2018-06-29 10:45:23.468750,-13.07,80.58
231408,2018-06-29 10:45:23.500000,41.44,80.58
231409,2018-06-29 10:45:23.531250,70.52,80.73
231410,2018-06-29 10:45:23.562500,76.94,80.73
231411,2018-06-29 10:45:23.593750,74.49,80.73
231412,2018-06-29 10:45:23.625000,70.83,80.73
231413,2018-06-29 10:45:23.656250,66.68,80.73
231414,2018-06-29 10:45:23.687500,63.13,80.73
231415,2018-06-29 10:45:23.718750,62.36,80.73
231416,2018-06-29 10:45:23.750000,65.1,80.73
231417,2018-06-29 10:45:23.781250,69.02,80.73
231418,2018-06-29 10:45:23.812500,73.51,80.73
231419,2018-06-29 10:45:23.843750,78.22,80.73
231420,2018-06-29 10:45:23.875000,79.04,80.73
231421,2018-06-29 10:45:23.906250,67.86,80.73
231422,2018-06-29 10:45:23.937500,40.43,80.73
231423,2018-06-29 10:45:23.968750,2.46,80.73
231424,2018-06-29 10:45:24.000000,-32.46,80.73
231425,2018-06-29 10:45:24.031250,-47.24,80.73
231426,2018-06-29 10:45:24.062500,-28.58,80.73
231427,2018-06-29 10:45:24.093750,21.42,80.73
231428,2018-06-29 10:45:24.125000,77.64,80.73
231429,2018-06-29 10:45:24.156250,104.31,80.73
231430,2018-06-29 10:45:24.187500,82.76,80.73
231431,2018-06-29 10:45:24.218750,24.19,80.73
231432,2018-06-29 10:45:24.250000,-44.64,80.73
231433,2018-06-29 10:45:24.281250,-101.59,80.73
231434,2018-06-29 10:45:24.312500,-134.68,80.73
231435,2018-06-29 10:45:24.343750,-141.95,80.73
231436,2018-06-29 10:45:24.375000,-130.21,80.73
231437,2018-06-29 10:45:24.406250,-108.61,80.73
231438,2018-06-29 10:45:24.437500,-82.6,80.73
231439,2018-06-29 10:45:24.468750,-54.92,80.73
231440,2018-06-29 10:45:24.500000,-30.62,80.73
231441,2018-06-29 10:45:24.531250,-12.5,80.88
231442,2018-06-29 10:45:24.562500,-1.13,80.88
231443,2018-06-29 10:45:24.593750,4.17,80.88
231444,2018-06-29 10:45:24.625000,3.91,80.88
231445,2018-06-29 10:45:24.656250,3.47,80.88
231446,2018-06-29 10:45:24.687500,8.88,80.88
231447,2018-06-29 10:45:24.718750,18.47,80.88
231448,2018-06-29 10:45:24.750000,31.04,80.88
231449,2018-06-29 10:45:24.781250,48.23,80.88
231450,2018-06-29 10:45:24.812500,76.02,80.88
231451,2018-06-29 10:45:24.843750,106.09,80.88
231452,2018-06-29 10:45:24.875000,127.83,80.88
231453,2018-06-29 10:45:24.906250,136.81,80.88
231454,2018-06-29 10:45:24.937500,140.16,80.88
231455,2018-06-29 10:45:24.968750,142.96,80.88
231456,2018-06-29 10:45:25.000000,133.33,80.88
231457,2018-06-29 10:45:25.031250,100.38,80.88
231458,2018-06-29 10:45:25.062500,20.09,80.88
231459,2018-06-29 10:45:25.093750,-71.39,80.88
231460,2018-06-29 10:45:25.125000,-105.04,80.88
231461,2018-06-29 10:45:25.156250,-85.06,80.88
231462,2018-06-29 10:45:25.187500,-32.43,80.88
231463,2018-06-29 10:45:25.218750,27.2,80.88
231464,2018-06-29 10:45:25.250000,57.98,80.88
231465,2018-06-29 10:45:25.281250,20.19,80.88
231466,2018-06-29 10:45:25.312500,-58.95,80.88
231467,2018-06-29 10:45:25.343750,-133.81,80.88
231468,2018-06-29 10:45:25.375000,-166.84,80.88
231469,2018-06-29 10:45:25.406250,-156.39,80.88
231470,2018-06-29 10:45:25.437500,-122.96,80.88
231471,2018-06-29 10:45:25.468750,-85.11,80.88
231472,2018-06-29 10:45:25.500000,-47.22,80.88
231473,2018-06-29 10:45:25.531250,-11.18,81.07
231474,2018-06-29 10:45:25.562500,15.81,81.07
231475,2018-06-29 10:45:25.593750,33.2,81.07
231476,2018-06-29 10:45:25.625000,38.85,81.07
231477,2018-06-29 10:45:25.656250,35.91,81.07
231478,2018-06-29 10:45:25.687500,32.0,81.07
231479,2018-06-29 10:45:25.718750,39.08,81.07
231480,2018-06-29 10:45:25.750000,53.71,81.07
231481,2018-06-29 10:45:25.781250,54.02,81.07
231482,2018-06-29 10:45:25.812500,27.65,81.07
231483,2018-06-29 10:45:25.843750,-7.0,81.07
231484,2018-06-29 10:45:25.875000,-20.52,81.07
231485,2018-06-29 10:45:25.906250,-9.21,81.07
231486,2018-06-29 10:45:25.937500,7.98,81.07
231487,2018-06-29 10:45:25.968750,14.69,81.07
231488,2018-06-29 10:45:26.000000,11.41,81.07
231489,2018-06-29 10:45:26.031250,11.58,81.07
231490,2018-06-29 10:45:26.062500,24.76,81.07
231491,2018-06-29 10:45:26.093750,39.93,81.07
231492,2018-06-29 10:45:26.125000,38.46,81.07
231493,2018-06-29 10:45:26.156250,25.31,81.07
231494,2018-06-29 10:45:26.187500,25.59,81.07
231495,2018-06-29 10:45:26.218750,47.83,81.07
231496,2018-06-29 10:45:26.250000,75.12,81.07
231497,2018-06-29 10:45:26.281250,91.9,81.07
231498,2018-06-29 10:45:26.312500,92.53,81.07
231499,2018-06-29 10:45:26.343750,70.01,81.07
231500,2018-06-29 10:45:26.375000,23.47,81.07
231501,2018-06-29 10:45:26.406250,-28.7,81.07
231502,2018-06-29 10:45:26.437500,-66.9,81.07
231503,2018-06-29 10:45:26.468750,-92.86,81.07
231504,2018-06-29 10:45:26.500000,-116.29,81.07
231505,2018-06-29 10:45:26.531250,-131.91,81.28
231506,2018-06-29 10:45:26.562500,-128.53,81.28
231507,2018-06-29 10:45:26.593750,-109.5,81.28
231508,2018-06-29 10:45:26.625000,-89.01,81.28
231509,2018-06-29 10:45:26.656250,-76.22,81.28
231510,2018-06-29 10:45:26.687500,-70.81,81.28
231511,2018-06-29 10:45:26.718750,-63.69,81.28
231512,2018-06-29 10:45:26.750000,-41.38,81.28
231513,2018-06-29 10:45:26.781250,-1.39,81.28
231514,2018-06-29 10:45:26.812500,40.17,81.28
231515,2018-06-29 10:45:26.843750,66.79,81.28
231516,2018-06-29 10:45:26.875000,79.0,81.28
231517,2018-06-29 10:45:26.906250,85.07,81.28
231518,2018-06-29 10:45:26.937500,86.15,81.28
231519,2018-06-29 10:45:26.968750,79.39,81.28
231520,2018-06-29 10:45:27.000000,66.87,81.28
231521,2018-06-29 10:45:27.031250,53.57,81.28
231522,2018-06-29 10:45:27.062500,41.49,81.28
231523,2018-06-29 10:45:27.093750,30.76,81.28
231524,2018-06-29 10:45:27.125000,23.84,81.28
231525,2018-06-29 10:45:27.156250,22.6,81.28
231526,2018-06-29 10:45:27.187500,24.22,81.28
231527,2018-06-29 10:45:27.218750,22.84,81.28
231528,2018-06-29 10:45:27.250000,14.43,81.28
231529,2018-06-29 10:45:27.281250,0.67,81.28
231530,2018-06-29 10:45:27.312500,-9.83,81.28
231531,2018-06-29 10:45:27.343750,-6.59,81.28
231532,2018-06-29 10:45:27.375000,11.93,81.28
231533,2018-06-29 10:45:27.406250,33.86,81.28
231534,2018-06-29 10:45:27.437500,42.27,81.28
231535,2018-06-29 10:45:27.468750,27.27,81.28
231536,2018-06-29 10:45:27.500000,-8.73,81.28
231537,2018-06-29 10:45:27.531250,-52.66,81.5
231538,2018-06-29 10:45:27.562500,-88.01,81.5
231539,2018-06-29 10:45:27.593750,-105.64,81.5
231540,2018-06-29 10:45:27.625000,-107.2,81.5
231541,2018-06-29 10:45:27.656250,-98.27,81.5
231542,2018-06-29 10:45:27.687500,-82.64,81.5
231543,2018-06-29 10:45:27.718750,-62.14,81.5
231544,2018-06-29 10:45:27.750000,-39.09,81.5
231545,2018-06-29 10:45:27.781250,-19.03,81.5
231546,2018-06-29 10:45:27.812500,-10.16,81.5
231547,2018-06-29 10:45:27.843750,-15.4,81.5
231548,2018-06-29 10:45:27.875000,-28.43,81.5
231549,2018-06-29 10:45:27.906250,-41.03,81.5
231550,2018-06-29 10:45:27.937500,-49.9,81.5
231551,2018-06-29 10:45:27.968750,-55.25,81.5
231552,2018-06-29 10:45:28.000000,-58.46,81.5
231553,2018-06-29 10:45:28.031250,-58.74,81.5
231554,2018-06-29 10:45:28.062500,-48.18,81.5
231555,2018-06-29 10:45:28.093750,-17.73,81.5
231556,2018-06-29 10:45:28.125000,28.38,81.5
231557,2018-06-29 10:45:28.156250,72.56,81.5
231558,2018-06-29 10:45:28.187500,101.59,81.5
231559,2018-06-29 10:45:28.218750,116.69,81.5
231560,2018-06-29 10:45:28.250000,124.83,81.5
231561,2018-06-29 10:45:28.281250,127.99,81.5
231562,2018-06-29 10:45:28.312500,120.94,81.5
231563,2018-06-29 10:45:28.343750,96.4,81.5
231564,2018-06-29 10:45:28.375000,57.75,81.5
231565,2018-06-29 10:45:28.406250,27.16,81.5
231566,2018-06-29 10:45:28.437500,33.13,81.5
231567,2018-06-29 10:45:28.468750,77.95,81.5
231568,2018-06-29 10:45:28.500000,125.32,81.5
231569,2018-06-29 10:45:28.531250,129.89,81.68
231570,2018-06-29 10:45:28.562500,76.2,81.68
231571,2018-06-29 10:45:28.593750,-15.54,81.68
231572,2018-06-29 10:45:28.625000,-111.99,81.68
231573,2018-06-29 10:45:28.656250,-187.92,81.68
231574,2018-06-29 10:45:28.687500,-231.18,81.68
231575,2018-06-29 10:45:28.718750,-237.66,81.68
231576,2018-06-29 10:45:28.750000,-207.94,81.68
231577,2018-06-29 10:45:28.781250,-151.85,81.68
231578,2018-06-29 10:45:28.812500,-89.71,81.68
231579,2018-06-29 10:45:28.843750,-40.57,81.68
231580,2018-06-29 10:45:28.875000,-10.91,81.68
231581,2018-06-29 10:45:28.906250,2.36,81.68
231582,2018-06-29 10:45:28.937500,4.05,81.68
231583,2018-06-29 10:45:28.968750,0.45,81.68
231584,2018-06-29 10:45:29.000000,-0.28,81.68
231585,2018-06-29 10:45:29.031250,6.01,81.68
231586,2018-06-29 10:45:29.062500,16.7,81.68
231587,2018-06-29 10:45:29.093750,27.37,81.68
231588,2018-06-29 10:45:29.125000,35.99,81.68
231589,2018-06-29 10:45:29.156250,42.2,81.68
231590,2018-06-29 10:45:29.187500,45.78,81.68
231591,2018-06-29 10:45:29.218750,45.02,81.68
231592,2018-06-29 10:45:29.250000,37.48,81.68
231593,2018-06-29 10:45:29.281250,25.26,81.68
231594,2018-06-29 10:45:29.312500,16.42,81.68
231595,2018-06-29 10:45:29.343750,16.16,81.68
231596,2018-06-29 10:45:29.375000,20.54,81.68
231597,2018-06-29 10:45:29.406250,22.24,81.68
231598,2018-06-29 10:45:29.437500,21.64,81.68
231599,2018-06-29 10:45:29.468750,31.65,81.68
231600,2018-06-29 10:45:29.500000,68.88,81.68
231601,2018-06-29 10:45:29.531250,132.81,81.9
231602,2018-06-29 10:45:29.562500,194.47,81.9
231603,2018-06-29 10:45:29.593750,215.02,81.9
231604,2018-06-29 10:45:29.625000,176.97,81.9
231605,2018-06-29 10:45:29.656250,93.31,81.9
231606,2018-06-29 10:45:29.687500,-6.95,81.9
231607,2018-06-29 10:45:29.718750,-94.61,81.9
231608,2018-06-29 10:45:29.750000,-149.95,81.9
231609,2018-06-29 10:45:29.781250,-169.89,81.9
231610,2018-06-29 10:45:29.812500,-166.1,81.9
231611,2018-06-29 10:45:29.843750,-151.77,81.9
231612,2018-06-29 10:45:29.875000,-131.23,81.9
231613,2018-06-29 10:45:29.906250,-104.39,81.9
231614,2018-06-29 10:45:29.937500,-76.75,81.9
231615,2018-06-29 10:45:29.968750,-56.57,81.9
231616,2018-06-29 10:45:30.000000,-46.04,81.9
231617,2018-06-29 10:45:30.031250,-43.44,81.9
231618,2018-06-29 10:45:30.062500,-46.91,81.9
231619,2018-06-29 10:45:30.093750,-48.41,81.9
231620,2018-06-29 10:45:30.125000,-35.7,81.9
231621,2018-06-29 10:45:30.156250,-8.26,81.9
231622,2018-06-29 10:45:30.187500,20.66,81.9
231623,2018-06-29 10:45:30.218750,41.66,81.9
231624,2018-06-29 10:45:30.250000,56.06,81.9
231625,2018-06-29 10:45:30.281250,66.0,81.9
231626,2018-06-29 10:45:30.312500,70.76,81.9
231627,2018-06-29 10:45:30.343750,72.34,81.9
231628,2018-06-29 10:45:30.375000,74.75,81.9
231629,2018-06-29 10:45:30.406250,77.8,81.9
231630,2018-06-29 10:45:30.437500,77.94,81.9
231631,2018-06-29 10:45:30.468750,74.57,81.9
231632,2018-06-29 10:45:30.500000,70.09,81.9
231633,2018-06-29 10:45:30.531250,64.48,82.12
231634,2018-06-29 10:45:30.562500,54.54,82.12
231635,2018-06-29 10:45:30.593750,38.65,82.12
231636,2018-06-29 10:45:30.625000,19.53,82.12
231637,2018-06-29 10:45:30.656250,1.58,82.12
231638,2018-06-29 10:45:30.687500,-16.09,82.12
231639,2018-06-29 10:45:30.718750,-41.37,82.12
231640,2018-06-29 10:45:30.750000,-78.12,82.12
231641,2018-06-29 10:45:30.781250,-114.26,82.12
231642,2018-06-29 10:45:30.812500,-130.3,82.12
231643,2018-06-29 10:45:30.843750,-120.56,82.12
231644,2018-06-29 10:45:30.875000,-97.06,82.12
231645,2018-06-29 10:45:30.906250,-72.38,82.12
231646,2018-06-29 10:45:30.937500,-49.02,82.12
231647,2018-06-29 10:45:30.968750,-26.21,82.12
231648,2018-06-29 10:45:31.000000,-6.4,82.12
231649,2018-06-29 10:45:31.031250,8.49,82.12
231650,2018-06-29 10:45:31.062500,19.24,82.12
231651,2018-06-29 10:45:31.093750,25.33,82.12
231652,2018-06-29 10:45:31.125000,25.28,82.12
231653,2018-06-29 10:45:31.156250,21.67,82.12
231654,2018-06-29 10:45:31.187500,19.33,82.12
231655,2018-06-29 10:45:31.218750,18.41,82.12
231656,2018-06-29 10:45:31.250000,15.2,82.12
231657,2018-06-29 10:45:31.281250,9.55,82.12
231658,2018-06-29 10:45:31.312500,6.52,82.12
231659,2018-06-29 10:45:31.343750,9.65,82.12
231660,2018-06-29 10:45:31.375000,16.51,82.12
231661,2018-06-29 10:45:31.406250,22.24,82.12
231662,2018-06-29 10:45:31.437500,25.62,82.12
231663,2018-06-29 10:45:31.468750,32.2,82.12
231664,2018-06-29 10:45:31.500000,50.63,82.12
231665,2018-06-29 10:45:31.531250,80.5,82.33
231666,2018-06-29 10:45:31.562500,106.84,82.33
231667,2018-06-29 10:45:31.593750,115.5,82.33
231668,2018-06-29 10:45:31.625000,107.3,82.33
231669,2018-06-29 10:45:31.656250,90.29,82.33
231670,2018-06-29 10:45:31.687500,70.93,82.33
231671,2018-06-29 10:45:31.718750,57.5,82.33
231672,2018-06-29 10:45:31.750000,53.71,82.33
231673,2018-06-29 10:45:31.781250,46.52,82.33
231674,2018-06-29 10:45:31.812500,19.35,82.33
231675,2018-06-29 10:45:31.843750,-25.6,82.33
231676,2018-06-29 10:45:31.875000,-71.36,82.33
231677,2018-06-29 10:45:31.906250,-105.84,82.33
231678,2018-06-29 10:45:31.937500,-126.42,82.33
231679,2018-06-29 10:45:31.968750,-132.62,82.33
231680,2018-06-29 10:45:32.000000,-125.06,82.33
231681,2018-06-29 10:45:32.031250,-108.12,82.33
231682,2018-06-29 10:45:32.062500,-89.16,82.33
231683,2018-06-29 10:45:32.093750,-74.23,82.33
231684,2018-06-29 10:45:32.125000,-66.0,82.33
231685,2018-06-29 10:45:32.156250,-58.94,82.33
231686,2018-06-29 10:45:32.187500,-42.37,82.33
231687,2018-06-29 10:45:32.218750,-11.91,82.33
231688,2018-06-29 10:45:32.250000,25.39,82.33
231689,2018-06-29 10:45:32.281250,57.77,82.33
231690,2018-06-29 10:45:32.312500,77.7,82.33
231691,2018-06-29 10:45:32.343750,79.1,82.33
231692,2018-06-29 10:45:32.375000,66.5,82.33
231693,2018-06-29 10:45:32.406250,52.26,82.33
231694,2018-06-29 10:45:32.437500,49.45,82.33
231695,2018-06-29 10:45:32.468750,57.75,82.33
231696,2018-06-29 10:45:32.500000,69.04,82.33
231697,2018-06-29 10:45:32.531250,79.93,82.55
231698,2018-06-29 10:45:32.562500,90.03,82.55
231699,2018-06-29 10:45:32.593750,100.72,82.55
231700,2018-06-29 10:45:32.625000,101.99,82.55
231701,2018-06-29 10:45:32.656250,87.44,82.55
231702,2018-06-29 10:45:32.687500,48.5,82.55
231703,2018-06-29 10:45:32.718750,-17.64,82.55
231704,2018-06-29 10:45:32.750000,-62.4,82.55
231705,2018-06-29 10:45:32.781250,-70.9,82.55
231706,2018-06-29 10:45:32.812500,-43.49,82.55
231707,2018-06-29 10:45:32.843750,9.61,82.55
231708,2018-06-29 10:45:32.875000,60.99,82.55
231709,2018-06-29 10:45:32.906250,60.58,82.55
231710,2018-06-29 10:45:32.937500,9.57,82.55
231711,2018-06-29 10:45:32.968750,-61.04,82.55
231712,2018-06-29 10:45:33.000000,-123.52,82.55
231713,2018-06-29 10:45:33.031250,-162.69,82.55
231714,2018-06-29 10:45:33.062500,-176.07,82.55
231715,2018-06-29 10:45:33.093750,-166.89,82.55
231716,2018-06-29 10:45:33.125000,-143.2,82.55
231717,2018-06-29 10:45:33.156250,-112.09,82.55
231718,2018-06-29 10:45:33.187500,-81.19,82.55
231719,2018-06-29 10:45:33.218750,-51.75,82.55
231720,2018-06-29 10:45:33.250000,-28.41,82.55
231721,2018-06-29 10:45:33.281250,-14.79,82.55
231722,2018-06-29 10:45:33.312500,-12.27,82.55
231723,2018-06-29 10:45:33.343750,-15.88,82.55
231724,2018-06-29 10:45:33.375000,-18.81,82.55
231725,2018-06-29 10:45:33.406250,-19.67,82.55
231726,2018-06-29 10:45:33.437500,-24.19,82.55
231727,2018-06-29 10:45:33.468750,-29.66,82.55
231728,2018-06-29 10:45:33.500000,-18.89,82.55
231729,2018-06-29 10:45:33.531250,19.97,82.68
231730,2018-06-29 10:45:33.562500,74.13,82.68
231731,2018-06-29 10:45:33.593750,118.81,82.68
231732,2018-06-29 10:45:33.625000,143.67,82.68
231733,2018-06-29 10:45:33.656250,155.63,82.68
231734,2018-06-29 10:45:33.687500,166.58,82.68
231735,2018-06-29 10:45:33.718750,171.55,82.68
231736,2018-06-29 10:45:33.750000,154.45,82.68
231737,2018-06-29 10:45:33.781250,102.94,82.68
231738,2018-06-29 10:45:33.812500,21.87,82.68
231739,2018-06-29 10:45:33.843750,-30.61,82.68
231740,2018-06-29 10:45:33.875000,-31.97,82.68
231741,2018-06-29 10:45:33.906250,4.8,82.68
231742,2018-06-29 10:45:33.937500,45.92,82.68
231743,2018-06-29 10:45:33.968750,63.08,82.68
231744,2018-06-29 10:45:34.000000,36.5,82.68
231745,2018-06-29 10:45:34.031250,-30.21,82.68
231746,2018-06-29 10:45:34.062500,-112.17,82.68
231747,2018-06-29 10:45:34.093750,-179.28,82.68
231748,2018-06-29 10:45:34.125000,-215.94,82.68
231749,2018-06-29 10:45:34.156250,-218.49,82.68
231750,2018-06-29 10:45:34.187500,-187.87,82.68
231751,2018-06-29 10:45:34.218750,-133.22,82.68
231752,2018-06-29 10:45:34.250000,-70.6,82.68
231753,2018-06-29 10:45:34.281250,-17.07,82.68
231754,2018-06-29 10:45:34.312500,19.88,82.68
231755,2018-06-29 10:45:34.343750,40.03,82.68
231756,2018-06-29 10:45:34.375000,47.27,82.68
231757,2018-06-29 10:45:34.406250,47.53,82.68
231758,2018-06-29 10:45:34.437500,48.07,82.68
231759,2018-06-29 10:45:34.468750,53.17,82.68
231760,2018-06-29 10:45:34.500000,58.65,82.68
231761,2018-06-29 10:45:34.531250,56.09,82.82
231762,2018-06-29 10:45:34.562500,43.94,82.82
231763,2018-06-29 10:45:34.593750,31.96,82.82
231764,2018-06-29 10:45:34.625000,30.37,82.82
231765,2018-06-29 10:45:34.656250,39.39,82.82
231766,2018-06-29 10:45:34.687500,52.32,82.82
231767,2018-06-29 10:45:34.718750,64.38,82.82
231768,2018-06-29 10:45:34.750000,73.65,82.82
231769,2018-06-29 10:45:34.781250,77.05,82.82
231770,2018-06-29 10:45:34.812500,70.62,82.82
231771,2018-06-29 10:45:34.843750,52.64,82.82
231772,2018-06-29 10:45:34.875000,25.81,82.82
231773,2018-06-29 10:45:34.906250,1.14,82.82
231774,2018-06-29 10:45:34.937500,-4.25,82.82
231775,2018-06-29 10:45:34.968750,16.48,82.82
231776,2018-06-29 10:45:35.000000,50.22,82.82
231777,2018-06-29 10:45:35.031250,75.18,82.82
231778,2018-06-29 10:45:35.062500,74.32,82.82
231779,2018-06-29 10:45:35.093750,40.6,82.82
231780,2018-06-29 10:45:35.125000,-16.33,82.82
231781,2018-06-29 10:45:35.156250,-71.25,82.82
231782,2018-06-29 10:45:35.187500,-103.39,82.82
231783,2018-06-29 10:45:35.218750,-111.25,82.82
231784,2018-06-29 10:45:35.250000,-104.56,82.82
231785,2018-06-29 10:45:35.281250,-92.12,82.82
231786,2018-06-29 10:45:35.312500,-78.13,82.82
231787,2018-06-29 10:45:35.343750,-63.75,82.82
231788,2018-06-29 10:45:35.375000,-48.16,82.82
231789,2018-06-29 10:45:35.406250,-31.79,82.82
231790,2018-06-29 10:45:35.437500,-17.64,82.82
231791,2018-06-29 10:45:35.468750,-10.43,82.82
231792,2018-06-29 10:45:35.500000,-9.37,82.82
231793,2018-06-29 10:45:35.531250,-3.35,82.93
231794,2018-06-29 10:45:35.562500,15.0,82.93
231795,2018-06-29 10:45:35.593750,36.92,82.93
231796,2018-06-29 10:45:35.625000,45.54,82.93
231797,2018-06-29 10:45:35.656250,42.31,82.93
231798,2018-06-29 10:45:35.687500,42.44,82.93
231799,2018-06-29 10:45:35.718750,56.39,82.93
231800,2018-06-29 10:45:35.750000,82.01,82.93
231801,2018-06-29 10:45:35.781250,111.07,82.93
231802,2018-06-29 10:45:35.812500,138.28,82.93
231803,2018-06-29 10:45:35.843750,158.17,82.93
231804,2018-06-29 10:45:35.875000,167.27,82.93
231805,2018-06-29 10:45:35.906250,154.38,82.93
231806,2018-06-29 10:45:35.937500,116.56,82.93
231807,2018-06-29 10:45:35.968750,60.44,82.93
231808,2018-06-29 10:45:36.000000,-11.32,82.93
231809,2018-06-29 10:45:36.031250,-57.56,82.93
231810,2018-06-29 10:45:36.062500,-69.14,82.93
231811,2018-06-29 10:45:36.093750,-56.13,82.93
231812,2018-06-29 10:45:36.125000,-27.3,82.93
231813,2018-06-29 10:45:36.156250,-4.17,82.93
231814,2018-06-29 10:45:36.187500,-13.8,82.93
231815,2018-06-29 10:45:36.218750,-58.69,82.93
231816,2018-06-29 10:45:36.250000,-122.44,82.93
231817,2018-06-29 10:45:36.281250,-187.73,82.93
231818,2018-06-29 10:45:36.312500,-239.37,82.93
231819,2018-06-29 10:45:36.343750,-259.62,82.93
231820,2018-06-29 10:45:36.375000,-233.71,82.93
231821,2018-06-29 10:45:36.406250,-170.48,82.93
231822,2018-06-29 10:45:36.437500,-96.09,82.93
231823,2018-06-29 10:45:36.468750,-34.26,82.93
231824,2018-06-29 10:45:36.500000,10.15,82.93
231825,2018-06-29 10:45:36.531250,40.83,83.0
231826,2018-06-29 10:45:36.562500,57.07,83.0
231827,2018-06-29 10:45:36.593750,58.2,83.0
231828,2018-06-29 10:45:36.625000,52.22,83.0
231829,2018-06-29 10:45:36.656250,50.3,83.0
231830,2018-06-29 10:45:36.687500,51.96,83.0
231831,2018-06-29 10:45:36.718750,49.54,83.0
231832,2018-06-29 10:45:36.750000,42.29,83.0
231833,2018-06-29 10:45:36.781250,37.68,83.0
231834,2018-06-29 10:45:36.812500,40.47,83.0
231835,2018-06-29 10:45:36.843750,48.62,83.0
231836,2018-06-29 10:45:36.875000,58.01,83.0
231837,2018-06-29 10:45:36.906250,66.03,83.0
231838,2018-06-29 10:45:36.937500,71.74,83.0
231839,2018-06-29 10:45:36.968750,74.03,83.0
231840,2018-06-29 10:45:37.000000,67.35,83.0
231841,2018-06-29 10:45:37.031250,43.55,83.0
231842,2018-06-29 10:45:37.062500,5.43,83.0
231843,2018-06-29 10:45:37.093750,-27.61,83.0
231844,2018-06-29 10:45:37.125000,-36.96,83.0
231845,2018-06-29 10:45:37.156250,-20.05,83.0
231846,2018-06-29 10:45:37.187500,14.3,83.0
231847,2018-06-29 10:45:37.218750,49.91,83.0
231848,2018-06-29 10:45:37.250000,63.74,83.0
231849,2018-06-29 10:45:37.281250,41.97,83.0
231850,2018-06-29 10:45:37.312500,-4.6,83.0
231851,2018-06-29 10:45:37.343750,-52.39,83.0
231852,2018-06-29 10:45:37.375000,-85.99,83.0
231853,2018-06-29 10:45:37.406250,-101.92,83.0
231854,2018-06-29 10:45:37.437500,-102.33,83.0
231855,2018-06-29 10:45:37.468750,-91.2,83.0
231856,2018-06-29 10:45:37.500000,-72.94,83.0
231857,2018-06-29 10:45:37.531250,-51.41,83.08
231858,2018-06-29 10:45:37.562500,-30.54,83.08
231859,2018-06-29 10:45:37.593750,-15.01,83.08
231860,2018-06-29 10:45:37.625000,-8.24,83.08
231861,2018-06-29 10:45:37.656250,-8.7,83.08
231862,2018-06-29 10:45:37.687500,-9.42,83.08
231863,2018-06-29 10:45:37.718750,-6.33,83.08
231864,2018-06-29 10:45:37.750000,-4.69,83.08
231865,2018-06-29 10:45:37.781250,-11.19,83.08
231866,2018-06-29 10:45:37.812500,-22.23,83.08
231867,2018-06-29 10:45:37.843750,-24.87,83.08
231868,2018-06-29 10:45:37.875000,-8.58,83.08
231869,2018-06-29 10:45:37.906250,26.22,83.08
231870,2018-06-29 10:45:37.937500,68.66,83.08
231871,2018-06-29 10:45:37.968750,105.49,83.08
231872,2018-06-29 10:45:38.000000,130.7,83.08
231873,2018-06-29 10:45:38.031250,146.35,83.08
231874,2018-06-29 10:45:38.062500,152.8,83.08
231875,2018-06-29 10:45:38.093750,142.48,83.08
231876,2018-06-29 10:45:38.125000,112.32,83.08
231877,2018-06-29 10:45:38.156250,75.74,83.08
231878,2018-06-29 10:45:38.187500,47.67,83.08
231879,2018-06-29 10:45:38.218750,27.19,83.08
231880,2018-06-29 10:45:38.250000,8.99,83.08
231881,2018-06-29 10:45:38.281250,-4.03,83.08
231882,2018-06-29 10:45:38.312500,-13.43,83.08
231883,2018-06-29 10:45:38.343750,-31.02,83.08
231884,2018-06-29 10:45:38.375000,-60.22,83.08
231885,2018-06-29 10:45:38.406250,-89.25,83.08
231886,2018-06-29 10:45:38.437500,-108.59,83.08
231887,2018-06-29 10:45:38.468750,-120.08,83.08
231888,2018-06-29 10:45:38.500000,-127.3,83.08
231889,2018-06-29 10:45:38.531250,-129.95,83.05
231890,2018-06-29 10:45:38.562500,-128.38,83.05
231891,2018-06-29 10:45:38.593750,-122.74,83.05
231892,2018-06-29 10:45:38.625000,-107.61,83.05
231893,2018-06-29 10:45:38.656250,-76.25,83.05
231894,2018-06-29 10:45:38.687500,-32.39,83.05
231895,2018-06-29 10:45:38.718750,8.11,83.05
231896,2018-06-29 10:45:38.750000,31.13,83.05
231897,2018-06-29 10:45:38.781250,36.85,83.05
231898,2018-06-29 10:45:38.812500,35.74,83.05
231899,2018-06-29 10:45:38.843750,34.88,83.05
231900,2018-06-29 10:45:38.875000,32.25,83.05
231901,2018-06-29 10:45:38.906250,24.45,83.05
231902,2018-06-29 10:45:38.937500,15.92,83.05
231903,2018-06-29 10:45:38.968750,16.13,83.05
231904,2018-06-29 10:45:39.000000,29.21,83.05
231905,2018-06-29 10:45:39.031250,51.16,83.05
231906,2018-06-29 10:45:39.062500,74.19,83.05
231907,2018-06-29 10:45:39.093750,89.3,83.05
231908,2018-06-29 10:45:39.125000,90.29,83.05
231909,2018-06-29 10:45:39.156250,79.99,83.05
231910,2018-06-29 10:45:39.187500,67.93,83.05
231911,2018-06-29 10:45:39.218750,58.52,83.05
231912,2018-06-29 10:45:39.250000,44.53,83.05
231913,2018-06-29 10:45:39.281250,15.04,83.05
231914,2018-06-29 10:45:39.312500,-28.82,83.05
231915,2018-06-29 10:45:39.343750,-68.1,83.05
231916,2018-06-29 10:45:39.375000,-83.04,83.05
231917,2018-06-29 10:45:39.406250,-74.86,83.05
231918,2018-06-29 10:45:39.437500,-62.55,83.05
231919,2018-06-29 10:45:39.468750,-60.14,83.05
231920,2018-06-29 10:45:39.500000,-65.74,83.05
231921,2018-06-29 10:45:39.531250,-70.7,83.15
231922,2018-06-29 10:45:39.562500,-70.42,83.15
231923,2018-06-29 10:45:39.593750,-65.06,83.15
231924,2018-06-29 10:45:39.625000,-55.78,83.15
231925,2018-06-29 10:45:39.656250,-44.01,83.15
231926,2018-06-29 10:45:39.687500,-31.99,83.15
231927,2018-06-29 10:45:39.718750,-20.71,83.15
231928,2018-06-29 10:45:39.750000,-9.67,83.15
231929,2018-06-29 10:45:39.781250,-0.37,83.15
231930,2018-06-29 10:45:39.812500,4.6,83.15
231931,2018-06-29 10:45:39.843750,6.98,83.15
231932,2018-06-29 10:45:39.875000,12.31,83.15
231933,2018-06-29 10:45:39.906250,22.38,83.15
231934,2018-06-29 10:45:39.937500,32.27,83.15
231935,2018-06-29 10:45:39.968750,36.76,83.15
231936,2018-06-29 10:45:40.000000,36.44,83.15
231937,2018-06-29 10:45:40.031250,35.36,83.15
231938,2018-06-29 10:45:40.062500,35.48,83.15
231939,2018-06-29 10:45:40.093750,38.89,83.15
231940,2018-06-29 10:45:40.125000,51.61,83.15
231941,2018-06-29 10:45:40.156250,75.91,83.15
231942,2018-06-29 10:45:40.187500,104.15,83.15
231943,2018-06-29 10:45:40.218750,127.74,83.15
231944,2018-06-29 10:45:40.250000,142.72,83.15
231945,2018-06-29 10:45:40.281250,142.32,83.15
231946,2018-06-29 10:45:40.312500,117.85,83.15
231947,2018-06-29 10:45:40.343750,73.4,83.15
231948,2018-06-29 10:45:40.375000,25.93,83.15
231949,2018-06-29 10:45:40.406250,-6.36,83.15
231950,2018-06-29 10:45:40.437500,-10.63,83.15
231951,2018-06-29 10:45:40.468750,8.1,83.15
231952,2018-06-29 10:45:40.500000,20.9,83.15
231953,2018-06-29 10:45:40.531250,0.76,83.23
231954,2018-06-29 10:45:40.562500,-49.39,83.23
231955,2018-06-29 10:45:40.593750,-107.43,83.23
231956,2018-06-29 10:45:40.625000,-154.92,83.23
231957,2018-06-29 10:45:40.656250,-178.58,83.23
231958,2018-06-29 10:45:40.687500,-171.71,83.23
231959,2018-06-29 10:45:40.718750,-142.81,83.23
231960,2018-06-29 10:45:40.750000,-110.95,83.23
231961,2018-06-29 10:45:40.781250,-89.18,83.23
231962,2018-06-29 10:45:40.812500,-75.64,83.23
231963,2018-06-29 10:45:40.843750,-57.63,83.23
231964,2018-06-29 10:45:40.875000,-23.42,83.23
231965,2018-06-29 10:45:40.906250,21.64,83.23
231966,2018-06-29 10:45:40.937500,56.79,83.23
231967,2018-06-29 10:45:40.968750,70.42,83.23
231968,2018-06-29 10:45:41.000000,72.27,83.23
231969,2018-06-29 10:45:41.031250,73.24,83.23
231970,2018-06-29 10:45:41.062500,68.85,83.23
231971,2018-06-29 10:45:41.093750,53.94,83.23
231972,2018-06-29 10:45:41.125000,38.46,83.23
231973,2018-06-29 10:45:41.156250,35.55,83.23
231974,2018-06-29 10:45:41.187500,44.13,83.23
231975,2018-06-29 10:45:41.218750,55.37,83.23
231976,2018-06-29 10:45:41.250000,68.67,83.23
231977,2018-06-29 10:45:41.281250,84.33,83.23
231978,2018-06-29 10:45:41.312500,90.53,83.23
231979,2018-06-29 10:45:41.343750,72.21,83.23
231980,2018-06-29 10:45:41.375000,31.42,83.23
231981,2018-06-29 10:45:41.406250,-10.94,83.23
231982,2018-06-29 10:45:41.437500,-33.26,83.23
231983,2018-06-29 10:45:41.468750,-30.17,83.23
231984,2018-06-29 10:45:41.500000,-16.88,83.23
231985,2018-06-29 10:45:41.531250,-17.99,83.33
231986,2018-06-29 10:45:41.562500,-45.13,83.33
231987,2018-06-29 10:45:41.593750,-82.06,83.33
231988,2018-06-29 10:45:41.625000,-101.31,83.33
231989,2018-06-29 10:45:41.656250,-98.51,83.33
231990,2018-06-29 10:45:41.687500,-88.95,83.33
231991,2018-06-29 10:45:41.718750,-74.36,83.33
231992,2018-06-29 10:45:41.750000,-45.39,83.33
231993,2018-06-29 10:45:41.781250,-10.07,83.33
231994,2018-06-29 10:45:41.812500,12.73,83.33
231995,2018-06-29 10:45:41.843750,20.47,83.33
231996,2018-06-29 10:45:41.875000,22.21,83.33
231997,2018-06-29 10:45:41.906250,20.49,83.33
231998,2018-06-29 10:45:41.937500,15.34,83.33
231999,2018-06-29 10:45:41.968750,13.98,83.33
232000,2018-06-29 10:45:42.000000,22.16,83.33
232001,2018-06-29 10:45:42.031250,32.32,83.33
232002,2018-06-29 10:45:42.062500,31.87,83.33
232003,2018-06-29 10:45:42.093750,18.82,83.33
232004,2018-06-29 10:45:42.125000,-0.34,83.33
232005,2018-06-29 10:45:42.156250,-21.07,83.33
232006,2018-06-29 10:45:42.187500,-40.21,83.33
232007,2018-06-29 10:45:42.218750,-52.91,83.33
232008,2018-06-29 10:45:42.250000,-57.54,83.33
232009,2018-06-29 10:45:42.281250,-59.31,83.33
232010,2018-06-29 10:45:42.312500,-65.19,83.33
232011,2018-06-29 10:45:42.343750,-75.58,83.33
232012,2018-06-29 10:45:42.375000,-80.32,83.33
232013,2018-06-29 10:45:42.406250,-68.55,83.33
232014,2018-06-29 10:45:42.437500,-42.44,83.33
232015,2018-06-29 10:45:42.468750,-10.29,83.33
232016,2018-06-29 10:45:42.500000,27.8,83.33
232017,2018-06-29 10:45:42.531250,72.85,83.4
232018,2018-06-29 10:45:42.562500,114.37,83.4
232019,2018-06-29 10:45:42.593750,137.24,83.4
232020,2018-06-29 10:45:42.625000,132.16,83.4
232021,2018-06-29 10:45:42.656250,97.1,83.4
232022,2018-06-29 10:45:42.687500,40.74,83.4
232023,2018-06-29 10:45:42.718750,-17.81,83.4
232024,2018-06-29 10:45:42.750000,-60.85,83.4
232025,2018-06-29 10:45:42.781250,-81.86,83.4
232026,2018-06-29 10:45:42.812500,-84.3,83.4
232027,2018-06-29 10:45:42.843750,-77.06,83.4
232028,2018-06-29 10:45:42.875000,-69.05,83.4
232029,2018-06-29 10:45:42.906250,-63.15,83.4
232030,2018-06-29 10:45:42.937500,-56.33,83.4
232031,2018-06-29 10:45:42.968750,-46.54,83.4
232032,2018-06-29 10:45:43.000000,-36.69,83.4
232033,2018-06-29 10:45:43.031250,-32.48,83.4
232034,2018-06-29 10:45:43.062500,-37.93,83.4
232035,2018-06-29 10:45:43.093750,-50.05,83.4
232036,2018-06-29 10:45:43.125000,-55.33,83.4
232037,2018-06-29 10:45:43.156250,-40.12,83.4
232038,2018-06-29 10:45:43.187500,-8.97,83.4
232039,2018-06-29 10:45:43.218750,17.85,83.4
232040,2018-06-29 10:45:43.250000,30.24,83.4
232041,2018-06-29 10:45:43.281250,38.78,83.4
232042,2018-06-29 10:45:43.312500,55.38,83.4
232043,2018-06-29 10:45:43.343750,78.6,83.4
232044,2018-06-29 10:45:43.375000,100.3,83.4
232045,2018-06-29 10:45:43.406250,114.07,83.4
232046,2018-06-29 10:45:43.437500,117.09,83.4
232047,2018-06-29 10:45:43.468750,111.28,83.4
232048,2018-06-29 10:45:43.500000,102.1,83.4
232049,2018-06-29 10:45:43.531250,91.78,83.47
232050,2018-06-29 10:45:43.562500,74.91,83.47
232051,2018-06-29 10:45:43.593750,44.4,83.47
232052,2018-06-29 10:45:43.625000,6.0,83.47
232053,2018-06-29 10:45:43.656250,-20.53,83.47
232054,2018-06-29 10:45:43.687500,-26.42,83.47
232055,2018-06-29 10:45:43.718750,-30.61,83.47
232056,2018-06-29 10:45:43.750000,-57.95,83.47
232057,2018-06-29 10:45:43.781250,-109.44,83.47
232058,2018-06-29 10:45:43.812500,-161.44,83.47
232059,2018-06-29 10:45:43.843750,-185.44,83.47
232060,2018-06-29 10:45:43.875000,-168.94,83.47
232061,2018-06-29 10:45:43.906250,-124.6,83.47
232062,2018-06-29 10:45:43.937500,-75.57,83.47
232063,2018-06-29 10:45:43.968750,-32.47,83.47
232064,2018-06-29 10:45:44.000000,7.88,83.47
232065,2018-06-29 10:45:44.031250,47.11,83.47
232066,2018-06-29 10:45:44.062500,79.51,83.47
232067,2018-06-29 10:45:44.093750,100.42,83.47
232068,2018-06-29 10:45:44.125000,111.93,83.47
232069,2018-06-29 10:45:44.156250,119.69,83.47
232070,2018-06-29 10:45:44.187500,126.41,83.47
232071,2018-06-29 10:45:44.218750,126.53,83.47
232072,2018-06-29 10:45:44.250000,107.96,83.47
232073,2018-06-29 10:45:44.281250,65.96,83.47
232074,2018-06-29 10:45:44.312500,15.09,83.47
232075,2018-06-29 10:45:44.343750,-21.17,83.47
232076,2018-06-29 10:45:44.375000,-31.67,83.47
232077,2018-06-29 10:45:44.406250,-23.35,83.47
232078,2018-06-29 10:45:44.437500,-11.59,83.47
232079,2018-06-29 10:45:44.468750,-9.19,83.47
232080,2018-06-29 10:45:44.500000,-17.53,83.47
232081,2018-06-29 10:45:44.531250,-25.61,83.52
232082,2018-06-29 10:45:44.562500,-20.89,83.52
232083,2018-06-29 10:45:44.593750,-2.12,83.52
232084,2018-06-29 10:45:44.625000,20.8,83.52
232085,2018-06-29 10:45:44.656250,37.74,83.52
232086,2018-06-29 10:45:44.687500,47.23,83.52
232087,2018-06-29 10:45:44.718750,55.1,83.52
232088,2018-06-29 10:45:44.750000,63.47,83.52
232089,2018-06-29 10:45:44.781250,63.84,83.52
232090,2018-06-29 10:45:44.812500,42.65,83.52
232091,2018-06-29 10:45:44.843750,0.15,83.52
232092,2018-06-29 10:45:44.875000,-45.31,83.52
232093,2018-06-29 10:45:44.906250,-71.64,83.52
232094,2018-06-29 10:45:44.937500,-72.33,83.52
232095,2018-06-29 10:45:44.968750,-58.87,83.52
232096,2018-06-29 10:45:45.000000,-40.31,83.52
232097,2018-06-29 10:45:45.031250,-14.4,83.52
232098,2018-06-29 10:45:45.062500,24.6,83.52
232099,2018-06-29 10:45:45.093750,65.91,83.52
232100,2018-06-29 10:45:45.125000,93.99,83.52
232101,2018-06-29 10:45:45.156250,104.58,83.52
232102,2018-06-29 10:45:45.187500,108.88,83.52
232103,2018-06-29 10:45:45.218750,117.95,83.52
232104,2018-06-29 10:45:45.250000,122.72,83.52
232105,2018-06-29 10:45:45.281250,102.35,83.52
232106,2018-06-29 10:45:45.312500,24.89,83.52
232107,2018-06-29 10:45:45.343750,-75.39,83.52
232108,2018-06-29 10:45:45.375000,-109.25,83.52
232109,2018-06-29 10:45:45.406250,-69.75,83.52
232110,2018-06-29 10:45:45.437500,-0.62,83.52
232111,2018-06-29 10:45:45.468750,70.2,83.52
232112,2018-06-29 10:45:45.500000,110.67,83.52
232113,2018-06-29 10:45:45.531250,98.3,83.58
232114,2018-06-29 10:45:45.562500,36.24,83.58
232115,2018-06-29 10:45:45.593750,-55.86,83.58
232116,2018-06-29 10:45:45.625000,-150.39,83.58
232117,2018-06-29 10:45:45.656250,-235.41,83.58
232118,2018-06-29 10:45:45.687500,-301.87,83.58
232119,2018-06-29 10:45:45.718750,-342.07,83.58
232120,2018-06-29 10:45:45.750000,-314.18,83.58
232121,2018-06-29 10:45:45.781250,-197.72,83.58
232122,2018-06-29 10:45:45.812500,-70.93,83.58
232123,2018-06-29 10:45:45.843750,32.59,83.58
232124,2018-06-29 10:45:45.875000,139.1,83.58
232125,2018-06-29 10:45:45.906250,233.9,83.58
232126,2018-06-29 10:45:45.937500,268.46,83.58
232127,2018-06-29 10:45:45.968750,197.67,83.58
232128,2018-06-29 10:45:46.000000,72.55,83.58
232129,2018-06-29 10:45:46.031250,-28.65,83.58
232130,2018-06-29 10:45:46.062500,-90.51,83.58
232131,2018-06-29 10:45:46.093750,-132.64,83.58
232132,2018-06-29 10:45:46.125000,-149.48,83.58
232133,2018-06-29 10:45:46.156250,-133.83,83.58
232134,2018-06-29 10:45:46.187500,-97.51,83.58
232135,2018-06-29 10:45:46.218750,-56.8,83.58
232136,2018-06-29 10:45:46.250000,-10.57,83.58
232137,2018-06-29 10:45:46.281250,37.68,83.58
232138,2018-06-29 10:45:46.312500,72.89,83.58
232139,2018-06-29 10:45:46.343750,82.84,83.58
232140,2018-06-29 10:45:46.375000,73.71,83.58
232141,2018-06-29 10:45:46.406250,64.34,83.58
232142,2018-06-29 10:45:46.437500,61.89,83.58
232143,2018-06-29 10:45:46.468750,56.6,83.58
232144,2018-06-29 10:45:46.500000,43.06,83.58
232145,2018-06-29 10:45:46.531250,31.56,83.65
232146,2018-06-29 10:45:46.562500,33.69,83.65
232147,2018-06-29 10:45:46.593750,45.79,83.65
232148,2018-06-29 10:45:46.625000,52.91,83.65
232149,2018-06-29 10:45:46.656250,52.51,83.65
232150,2018-06-29 10:45:46.687500,49.99,83.65
232151,2018-06-29 10:45:46.718750,54.12,83.65
232152,2018-06-29 10:45:46.750000,64.88,83.65
232153,2018-06-29 10:45:46.781250,67.93,83.65
232154,2018-06-29 10:45:46.812500,37.66,83.65
232155,2018-06-29 10:45:46.843750,-44.06,83.65
232156,2018-06-29 10:45:46.875000,-108.93,83.65
232157,2018-06-29 10:45:46.906250,-112.74,83.65
232158,2018-06-29 10:45:46.937500,-72.77,83.65
232159,2018-06-29 10:45:46.968750,-2.16,83.65
232160,2018-06-29 10:45:47.000000,82.73,83.65
232161,2018-06-29 10:45:47.031250,135.87,83.65
232162,2018-06-29 10:45:47.062500,101.59,83.65
232163,2018-06-29 10:45:47.093750,15.27,83.65
232164,2018-06-29 10:45:47.125000,-54.02,83.65
232165,2018-06-29 10:45:47.156250,-100.64,83.65
232166,2018-06-29 10:45:47.187500,-130.9,83.65
232167,2018-06-29 10:45:47.218750,-137.51,83.65
232168,2018-06-29 10:45:47.250000,-119.45,83.65
232169,2018-06-29 10:45:47.281250,-87.76,83.65
232170,2018-06-29 10:45:47.312500,-55.09,83.65
232171,2018-06-29 10:45:47.343750,-25.83,83.65
232172,2018-06-29 10:45:47.375000,4.03,83.65
232173,2018-06-29 10:45:47.406250,30.03,83.65
232174,2018-06-29 10:45:47.437500,43.45,83.65
232175,2018-06-29 10:45:47.468750,41.88,83.65
232176,2018-06-29 10:45:47.500000,36.89,83.65
232177,2018-06-29 10:45:47.531250,37.82,83.65
232178,2018-06-29 10:45:47.562500,36.36,83.65
232179,2018-06-29 10:45:47.593750,19.31,83.65
232180,2018-06-29 10:45:47.625000,-9.98,83.65
232181,2018-06-29 10:45:47.656250,-36.43,83.65
232182,2018-06-29 10:45:47.687500,-45.86,83.65
232183,2018-06-29 10:45:47.718750,-31.99,83.65
232184,2018-06-29 10:45:47.750000,6.71,83.65
232185,2018-06-29 10:45:47.781250,58.44,83.65
232186,2018-06-29 10:45:47.812500,107.08,83.65
232187,2018-06-29 10:45:47.843750,145.19,83.65
232188,2018-06-29 10:45:47.875000,162.02,83.65
232189,2018-06-29 10:45:47.906250,141.29,83.65
232190,2018-06-29 10:45:47.937500,60.9,83.65
232191,2018-06-29 10:45:47.968750,-33.43,83.65
232192,2018-06-29 10:45:48.000000,-67.47,83.65
232193,2018-06-29 10:45:48.031250,-50.73,83.65
232194,2018-06-29 10:45:48.062500,-3.71,83.65
232195,2018-06-29 10:45:48.093750,60.03,83.65
232196,2018-06-29 10:45:48.125000,100.55,83.65
232197,2018-06-29 10:45:48.156250,79.94,83.65
232198,2018-06-29 10:45:48.187500,10.6,83.65
232199,2018-06-29 10:45:48.218750,-69.16,83.65
232200,2018-06-29 10:45:48.250000,-131.3,83.65
232201,2018-06-29 10:45:48.281250,-171.5,83.65
232202,2018-06-29 10:45:48.312500,-190.11,83.65
232203,2018-06-29 10:45:48.343750,-188.05,83.65
232204,2018-06-29 10:45:48.375000,-170.5,83.65
232205,2018-06-29 10:45:48.406250,-144.81,83.65
232206,2018-06-29 10:45:48.437500,-113.62,83.65
232207,2018-06-29 10:45:48.468750,-69.31,83.65
232208,2018-06-29 10:45:48.500000,-8.84,83.65
232209,2018-06-29 10:45:48.531250,54.7,83.67
232210,2018-06-29 10:45:48.562500,99.47,83.67
232211,2018-06-29 10:45:48.593750,119.02,83.67
232212,2018-06-29 10:45:48.625000,121.95,83.67
232213,2018-06-29 10:45:48.656250,113.1,83.67
232214,2018-06-29 10:45:48.687500,87.03,83.67
232215,2018-06-29 10:45:48.718750,47.66,83.67
232216,2018-06-29 10:45:48.750000,12.69,83.67
232217,2018-06-29 10:45:48.781250,-5.52,83.67
232218,2018-06-29 10:45:48.812500,-7.49,83.67
232219,2018-06-29 10:45:48.843750,1.7,83.67
232220,2018-06-29 10:45:48.875000,19.44,83.67
232221,2018-06-29 10:45:48.906250,35.45,83.67
232222,2018-06-29 10:45:48.937500,45.36,83.67
232223,2018-06-29 10:45:48.968750,49.39,83.67
232224,2018-06-29 10:45:49.000000,39.7,83.67
232225,2018-06-29 10:45:49.031250,-2.31,83.67
232226,2018-06-29 10:45:49.062500,-72.41,83.67
232227,2018-06-29 10:45:49.093750,-108.82,83.67
232228,2018-06-29 10:45:49.125000,-85.93,83.67
232229,2018-06-29 10:45:49.156250,-14.92,83.67
232230,2018-06-29 10:45:49.187500,88.39,83.67
232231,2018-06-29 10:45:49.218750,181.8,83.67
232232,2018-06-29 10:45:49.250000,203.37,83.67
232233,2018-06-29 10:45:49.281250,120.59,83.67
232234,2018-06-29 10:45:49.312500,5.45,83.67
232235,2018-06-29 10:45:49.343750,-72.68,83.67
232236,2018-06-29 10:45:49.375000,-123.81,83.67
232237,2018-06-29 10:45:49.406250,-159.5,83.67
232238,2018-06-29 10:45:49.437500,-164.38,83.67
232239,2018-06-29 10:45:49.468750,-143.76,83.67
232240,2018-06-29 10:45:49.500000,-114.74,83.67
232241,2018-06-29 10:45:49.531250,-87.08,83.72
232242,2018-06-29 10:45:49.562500,-58.63,83.72
232243,2018-06-29 10:45:49.593750,-28.69,83.72
232244,2018-06-29 10:45:49.625000,-5.28,83.72
232245,2018-06-29 10:45:49.656250,4.82,83.72
232246,2018-06-29 10:45:49.687500,1.57,83.72
232247,2018-06-29 10:45:49.718750,-6.01,83.72
232248,2018-06-29 10:45:49.750000,-8.68,83.72
232249,2018-06-29 10:45:49.781250,0.38,83.72
232250,2018-06-29 10:45:49.812500,17.5,83.72
232251,2018-06-29 10:45:49.843750,35.8,83.72
232252,2018-06-29 10:45:49.875000,50.47,83.72
232253,2018-06-29 10:45:49.906250,64.12,83.72
232254,2018-06-29 10:45:49.937500,78.7,83.72
232255,2018-06-29 10:45:49.968750,92.25,83.72
232256,2018-06-29 10:45:50.000000,103.01,83.72
232257,2018-06-29 10:45:50.031250,110.91,83.72
232258,2018-06-29 10:45:50.062500,121.29,83.72
232259,2018-06-29 10:45:50.093750,123.94,83.72
232260,2018-06-29 10:45:50.125000,99.84,83.72
232261,2018-06-29 10:45:50.156250,33.83,83.72
232262,2018-06-29 10:45:50.187500,-57.68,83.72
232263,2018-06-29 10:45:50.218750,-100.7,83.72
232264,2018-06-29 10:45:50.250000,-85.8,83.72
232265,2018-06-29 10:45:50.281250,-30.16,83.72
232266,2018-06-29 10:45:50.312500,33.18,83.72
232267,2018-06-29 10:45:50.343750,65.01,83.72
232268,2018-06-29 10:45:50.375000,35.61,83.72
232269,2018-06-29 10:45:50.406250,-40.8,83.72
232270,2018-06-29 10:45:50.437500,-118.66,83.72
232271,2018-06-29 10:45:50.468750,-154.44,83.72
232272,2018-06-29 10:45:50.500000,-143.3,83.72
232273,2018-06-29 10:45:50.531250,-110.86,83.77
232274,2018-06-29 10:45:50.562500,-77.03,83.77
232275,2018-06-29 10:45:50.593750,-44.61,83.77
232276,2018-06-29 10:45:50.625000,-9.73,83.77
232277,2018-06-29 10:45:50.656250,21.44,83.77
232278,2018-06-29 10:45:50.687500,42.31,83.77
232279,2018-06-29 10:45:50.718750,52.73,83.77
232280,2018-06-29 10:45:50.750000,59.75,83.77
232281,2018-06-29 10:45:50.781250,67.87,83.77
232282,2018-06-29 10:45:50.812500,76.77,83.77
232283,2018-06-29 10:45:50.843750,84.68,83.77
232284,2018-06-29 10:45:50.875000,84.14,83.77
232285,2018-06-29 10:45:50.906250,64.16,83.77
232286,2018-06-29 10:45:50.937500,24.47,83.77
232287,2018-06-29 10:45:50.968750,-17.6,83.77
232288,2018-06-29 10:45:51.000000,-46.85,83.77
232289,2018-06-29 10:45:51.031250,-64.48,83.77
232290,2018-06-29 10:45:51.062500,-74.75,83.77
232291,2018-06-29 10:45:51.093750,-71.13,83.77
232292,2018-06-29 10:45:51.125000,-43.51,83.77
232293,2018-06-29 10:45:51.156250,7.01,83.77
232294,2018-06-29 10:45:51.187500,62.34,83.77
232295,2018-06-29 10:45:51.218750,94.0,83.77
232296,2018-06-29 10:45:51.250000,84.33,83.77
232297,2018-06-29 10:45:51.281250,48.48,83.77
232298,2018-06-29 10:45:51.312500,23.12,83.77
232299,2018-06-29 10:45:51.343750,26.15,83.77
232300,2018-06-29 10:45:51.375000,42.28,83.77
232301,2018-06-29 10:45:51.406250,49.72,83.77
232302,2018-06-29 10:45:51.437500,39.68,83.77
232303,2018-06-29 10:45:51.468750,9.39,83.77
232304,2018-06-29 10:45:51.500000,-39.32,83.77
232305,2018-06-29 10:45:51.531250,-91.67,83.82
232306,2018-06-29 10:45:51.562500,-127.9,83.82
232307,2018-06-29 10:45:51.593750,-141.25,83.82
232308,2018-06-29 10:45:51.625000,-139.45,83.82
232309,2018-06-29 10:45:51.656250,-131.75,83.82
232310,2018-06-29 10:45:51.687500,-120.99,83.82
232311,2018-06-29 10:45:51.718750,-102.87,83.82
232312,2018-06-29 10:45:51.750000,-70.34,83.82
232313,2018-06-29 10:45:51.781250,-23.01,83.82
232314,2018-06-29 10:45:51.812500,28.44,83.82
232315,2018-06-29 10:45:51.843750,72.45,83.82
232316,2018-06-29 10:45:51.875000,106.5,83.82
232317,2018-06-29 10:45:51.906250,132.73,83.82
232318,2018-06-29 10:45:51.937500,150.39,83.82
232319,2018-06-29 10:45:51.968750,154.0,83.82
232320,2018-06-29 10:45:52.000000,136.27,83.82
232321,2018-06-29 10:45:52.031250,96.16,83.82
232322,2018-06-29 10:45:52.062500,45.41,83.82
232323,2018-06-29 10:45:52.093750,1.63,83.82
232324,2018-06-29 10:45:52.125000,-24.23,83.82
232325,2018-06-29 10:45:52.156250,-31.29,83.82
232326,2018-06-29 10:45:52.187500,-25.62,83.82
232327,2018-06-29 10:45:52.218750,-15.48,83.82
232328,2018-06-29 10:45:52.250000,-5.14,83.82
232329,2018-06-29 10:45:52.281250,5.63,83.82
232330,2018-06-29 10:45:52.312500,11.2,83.82
232331,2018-06-29 10:45:52.343750,-1.57,83.82
232332,2018-06-29 10:45:52.375000,-33.14,83.82
232333,2018-06-29 10:45:52.406250,-59.87,83.82
232334,2018-06-29 10:45:52.437500,-57.5,83.82
232335,2018-06-29 10:45:52.468750,-25.05,83.82
232336,2018-06-29 10:45:52.500000,22.91,83.82
232337,2018-06-29 10:45:52.531250,69.15,83.98
232338,2018-06-29 10:45:52.562500,93.52,83.98
232339,2018-06-29 10:45:52.593750,80.19,83.98
232340,2018-06-29 10:45:52.625000,32.96,83.98
232341,2018-06-29 10:45:52.656250,-26.1,83.98
232342,2018-06-29 10:45:52.687500,-74.22,83.98
232343,2018-06-29 10:45:52.718750,-100.76,83.98
232344,2018-06-29 10:45:52.750000,-107.21,83.98
232345,2018-06-29 10:45:52.781250,-99.76,83.98
232346,2018-06-29 10:45:52.812500,-82.95,83.98
232347,2018-06-29 10:45:52.843750,-60.96,83.98
232348,2018-06-29 10:45:52.875000,-40.21,83.98
232349,2018-06-29 10:45:52.906250,-27.2,83.98
232350,2018-06-29 10:45:52.937500,-22.04,83.98
232351,2018-06-29 10:45:52.968750,-19.4,83.98
232352,2018-06-29 10:45:53.000000,-13.92,83.98
232353,2018-06-29 10:45:53.031250,1.01,83.98
232354,2018-06-29 10:45:53.062500,30.12,83.98
232355,2018-06-29 10:45:53.093750,64.48,83.98
232356,2018-06-29 10:45:53.125000,81.55,83.98
232357,2018-06-29 10:45:53.156250,72.37,83.98
232358,2018-06-29 10:45:53.187500,51.67,83.98
232359,2018-06-29 10:45:53.218750,37.57,83.98
232360,2018-06-29 10:45:53.250000,34.28,83.98
232361,2018-06-29 10:45:53.281250,37.36,83.98
232362,2018-06-29 10:45:53.312500,43.95,83.98
232363,2018-06-29 10:45:53.343750,52.47,83.98
232364,2018-06-29 10:45:53.375000,64.19,83.98
232365,2018-06-29 10:45:53.406250,72.22,83.98
232366,2018-06-29 10:45:53.437500,60.47,83.98
232367,2018-06-29 10:45:53.468750,19.28,83.98
232368,2018-06-29 10:45:53.500000,-38.65,83.98
232369,2018-06-29 10:45:53.531250,-72.79,84.37
232370,2018-06-29 10:45:53.562500,-72.98,84.37
232371,2018-06-29 10:45:53.593750,-46.09,84.37
232372,2018-06-29 10:45:53.625000,-7.1,84.37
232373,2018-06-29 10:45:53.656250,23.7,84.37
232374,2018-06-29 10:45:53.687500,28.66,84.37
232375,2018-06-29 10:45:53.718750,8.04,84.37
232376,2018-06-29 10:45:53.750000,-25.94,84.37
232377,2018-06-29 10:45:53.781250,-59.37,84.37
232378,2018-06-29 10:45:53.812500,-82.44,84.37
232379,2018-06-29 10:45:53.843750,-91.69,84.37
232380,2018-06-29 10:45:53.875000,-87.85,84.37
232381,2018-06-29 10:45:53.906250,-73.57,84.37
232382,2018-06-29 10:45:53.937500,-51.52,84.37
232383,2018-06-29 10:45:53.968750,-27.98,84.37
232384,2018-06-29 10:45:54.000000,-9.8,84.37
232385,2018-06-29 10:45:54.031250,3.9,84.37
232386,2018-06-29 10:45:54.062500,20.37,84.37
232387,2018-06-29 10:45:54.093750,38.07,84.37
232388,2018-06-29 10:45:54.125000,47.63,84.37
232389,2018-06-29 10:45:54.156250,46.48,84.37
232390,2018-06-29 10:45:54.187500,39.43,84.37
232391,2018-06-29 10:45:54.218750,22.25,84.37
232392,2018-06-29 10:45:54.250000,-5.27,84.37
232393,2018-06-29 10:45:54.281250,-26.36,84.37
232394,2018-06-29 10:45:54.312500,-25.07,84.37
232395,2018-06-29 10:45:54.343750,-6.45,84.37
232396,2018-06-29 10:45:54.375000,14.21,84.37
232397,2018-06-29 10:45:54.406250,36.34,84.37
232398,2018-06-29 10:45:54.437500,60.67,84.37
232399,2018-06-29 10:45:54.468750,85.68,84.37
232400,2018-06-29 10:45:54.500000,99.98,84.37
232401,2018-06-29 10:45:54.531250,88.01,84.67
232402,2018-06-29 10:45:54.562500,35.19,84.67
232403,2018-06-29 10:45:54.593750,-53.04,84.67
232404,2018-06-29 10:45:54.625000,-102.28,84.67
232405,2018-06-29 10:45:54.656250,-91.19,84.67
232406,2018-06-29 10:45:54.687500,-37.72,84.67
232407,2018-06-29 10:45:54.718750,39.96,84.67
232408,2018-06-29 10:45:54.750000,109.86,84.67
232409,2018-06-29 10:45:54.781250,124.32,84.67
232410,2018-06-29 10:45:54.812500,52.88,84.67
232411,2018-06-29 10:45:54.843750,-45.47,84.67
232412,2018-06-29 10:45:54.875000,-107.68,84.67
232413,2018-06-29 10:45:54.906250,-131.73,84.67
232414,2018-06-29 10:45:54.937500,-126.98,84.67
232415,2018-06-29 10:45:54.968750,-102.38,84.67
232416,2018-06-29 10:45:55.000000,-70.58,84.67
232417,2018-06-29 10:45:55.031250,-38.55,84.67
232418,2018-06-29 10:45:55.062500,-9.58,84.67
232419,2018-06-29 10:45:55.093750,13.54,84.67
232420,2018-06-29 10:45:55.125000,29.95,84.67
232421,2018-06-29 10:45:55.156250,38.33,84.67
232422,2018-06-29 10:45:55.187500,40.49,84.67
232423,2018-06-29 10:45:55.218750,38.86,84.67
232424,2018-06-29 10:45:55.250000,40.51,84.67
232425,2018-06-29 10:45:55.281250,48.65,84.67
232426,2018-06-29 10:45:55.312500,53.37,84.67
232427,2018-06-29 10:45:55.343750,40.96,84.67
232428,2018-06-29 10:45:55.375000,13.82,84.67
232429,2018-06-29 10:45:55.406250,-13.3,84.67
232430,2018-06-29 10:45:55.437500,-29.87,84.67
232431,2018-06-29 10:45:55.468750,-36.58,84.67
232432,2018-06-29 10:45:55.500000,-27.85,84.67
232433,2018-06-29 10:45:55.531250,3.23,85.0
232434,2018-06-29 10:45:55.562500,53.74,85.0
232435,2018-06-29 10:45:55.593750,105.22,85.0
232436,2018-06-29 10:45:55.625000,128.16,85.0
232437,2018-06-29 10:45:55.656250,102.84,85.0
232438,2018-06-29 10:45:55.687500,22.04,85.0
232439,2018-06-29 10:45:55.718750,-56.71,85.0
232440,2018-06-29 10:45:55.750000,-73.58,85.0
232441,2018-06-29 10:45:55.781250,-41.55,85.0
232442,2018-06-29 10:45:55.812500,21.39,85.0
232443,2018-06-29 10:45:55.843750,86.97,85.0
232444,2018-06-29 10:45:55.875000,113.2,85.0
232445,2018-06-29 10:45:55.906250,77.65,85.0
232446,2018-06-29 10:45:55.937500,1.47,85.0
232447,2018-06-29 10:45:55.968750,-78.64,85.0
232448,2018-06-29 10:45:56.000000,-135.76,85.0
232449,2018-06-29 10:45:56.031250,-167.01,85.0
232450,2018-06-29 10:45:56.062500,-177.29,85.0
232451,2018-06-29 10:45:56.093750,-171.86,85.0
232452,2018-06-29 10:45:56.125000,-150.61,85.0
232453,2018-06-29 10:45:56.156250,-109.39,85.0
232454,2018-06-29 10:45:56.187500,-50.66,85.0
232455,2018-06-29 10:45:56.218750,12.83,85.0
232456,2018-06-29 10:45:56.250000,63.11,85.0
232457,2018-06-29 10:45:56.281250,91.5,85.0
232458,2018-06-29 10:45:56.312500,101.68,85.0
232459,2018-06-29 10:45:56.343750,104.36,85.0
232460,2018-06-29 10:45:56.375000,104.59,85.0
232461,2018-06-29 10:45:56.406250,96.03,85.0
232462,2018-06-29 10:45:56.437500,73.44,85.0
232463,2018-06-29 10:45:56.468750,44.09,85.0
232464,2018-06-29 10:45:56.500000,17.18,85.0
232465,2018-06-29 10:45:56.531250,-3.87,85.35
232466,2018-06-29 10:45:56.562500,-16.52,85.35
232467,2018-06-29 10:45:56.593750,-15.05,85.35
232468,2018-06-29 10:45:56.625000,-3.43,85.35
232469,2018-06-29 10:45:56.656250,6.59,85.35
232470,2018-06-29 10:45:56.687500,10.15,85.35
232471,2018-06-29 10:45:56.718750,3.62,85.35
232472,2018-06-29 10:45:56.750000,-18.03,85.35
232473,2018-06-29 10:45:56.781250,-52.8,85.35
232474,2018-06-29 10:45:56.812500,-66.16,85.35
232475,2018-06-29 10:45:56.843750,-42.32,85.35
232476,2018-06-29 10:45:56.875000,3.85,85.35
232477,2018-06-29 10:45:56.906250,69.69,85.35
232478,2018-06-29 10:45:56.937500,135.54,85.35
232479,2018-06-29 10:45:56.968750,168.39,85.35
232480,2018-06-29 10:45:57.000000,132.11,85.35
232481,2018-06-29 10:45:57.031250,40.81,85.35
232482,2018-06-29 10:45:57.062500,-42.16,85.35
232483,2018-06-29 10:45:57.093750,-107.41,85.35
232484,2018-06-29 10:45:57.125000,-154.42,85.35
232485,2018-06-29 10:45:57.156250,-169.61,85.35
232486,2018-06-29 10:45:57.187500,-153.58,85.35
232487,2018-06-29 10:45:57.218750,-125.37,85.35
232488,2018-06-29 10:45:57.250000,-96.67,85.35
232489,2018-06-29 10:45:57.281250,-69.33,85.35
232490,2018-06-29 10:45:57.312500,-40.81,85.35
232491,2018-06-29 10:45:57.343750,-17.58,85.35
232492,2018-06-29 10:45:57.375000,-7.25,85.35
232493,2018-06-29 10:45:57.406250,-4.25,85.35
232494,2018-06-29 10:45:57.437500,8.38,85.35
232495,2018-06-29 10:45:57.468750,42.66,85.35
232496,2018-06-29 10:45:57.500000,86.3,85.35
232497,2018-06-29 10:45:57.531250,119.01,85.72
232498,2018-06-29 10:45:57.562500,129.62,85.72
232499,2018-06-29 10:45:57.593750,117.8,85.72
232500,2018-06-29 10:45:57.625000,90.24,85.72
232501,2018-06-29 10:45:57.656250,56.45,85.72
232502,2018-06-29 10:45:57.687500,23.12,85.72
232503,2018-06-29 10:45:57.718750,-11.28,85.72
232504,2018-06-29 10:45:57.750000,-44.06,85.72
232505,2018-06-29 10:45:57.781250,-60.14,85.72
232506,2018-06-29 10:45:57.812500,-57.56,85.72
232507,2018-06-29 10:45:57.843750,-37.88,85.72
232508,2018-06-29 10:45:57.875000,-3.74,85.72
232509,2018-06-29 10:45:57.906250,32.49,85.72
232510,2018-06-29 10:45:57.937500,57.46,85.72
232511,2018-06-29 10:45:57.968750,63.15,85.72
232512,2018-06-29 10:45:58.000000,47.97,85.72
232513,2018-06-29 10:45:58.031250,15.84,85.72
232514,2018-06-29 10:45:58.062500,-25.23,85.72
232515,2018-06-29 10:45:58.093750,-63.85,85.72
232516,2018-06-29 10:45:58.125000,-86.16,85.72
232517,2018-06-29 10:45:58.156250,-84.88,85.72
232518,2018-06-29 10:45:58.187500,-67.08,85.72
232519,2018-06-29 10:45:58.218750,-40.73,85.72
232520,2018-06-29 10:45:58.250000,-3.86,85.72
232521,2018-06-29 10:45:58.281250,32.0,85.72
232522,2018-06-29 10:45:58.312500,65.93,85.72
232523,2018-06-29 10:45:58.343750,104.05,85.72
232524,2018-06-29 10:45:58.375000,140.3,85.72
232525,2018-06-29 10:45:58.406250,166.17,85.72
232526,2018-06-29 10:45:58.437500,175.81,85.72
232527,2018-06-29 10:45:58.468750,167.31,85.72
232528,2018-06-29 10:45:58.500000,138.52,85.72
232529,2018-06-29 10:45:58.531250,87.54,86.03
232530,2018-06-29 10:45:58.562500,17.7,86.03
232531,2018-06-29 10:45:58.593750,-59.82,86.03
232532,2018-06-29 10:45:58.625000,-135.93,86.03
232533,2018-06-29 10:45:58.656250,-205.54,86.03
232534,2018-06-29 10:45:58.687500,-261.01,86.03
232535,2018-06-29 10:45:58.718750,-288.35,86.03
232536,2018-06-29 10:45:58.750000,-270.57,86.03
232537,2018-06-29 10:45:58.781250,-204.38,86.03
232538,2018-06-29 10:45:58.812500,-102.66,86.03
232539,2018-06-29 10:45:58.843750,6.19,86.03
232540,2018-06-29 10:45:58.875000,99.15,86.03
232541,2018-06-29 10:45:58.906250,163.21,86.03
232542,2018-06-29 10:45:58.937500,192.46,86.03
232543,2018-06-29 10:45:58.968750,190.61,86.03
232544,2018-06-29 10:45:59.000000,159.76,86.03
232545,2018-06-29 10:45:59.031250,112.22,86.03
232546,2018-06-29 10:45:59.062500,55.32,86.03
232547,2018-06-29 10:45:59.093750,9.17,86.03
232548,2018-06-29 10:45:59.125000,-22.27,86.03
232549,2018-06-29 10:45:59.156250,-51.53,86.03
232550,2018-06-29 10:45:59.187500,-102.75,86.03
232551,2018-06-29 10:45:59.218750,-185.06,86.03
232552,2018-06-29 10:45:59.250000,-265.92,86.03
232553,2018-06-29 10:45:59.281250,-319.23,86.03
232554,2018-06-29 10:45:59.312500,-273.86,86.03
232555,2018-06-29 10:45:59.343750,-144.62,86.03
232556,2018-06-29 10:45:59.375000,-55.35,86.03
232557,2018-06-29 10:45:59.406250,17.37,86.03
232558,2018-06-29 10:45:59.437500,96.12,86.03
232559,2018-06-29 10:45:59.468750,168.88,86.03
232560,2018-06-29 10:45:59.500000,214.12,86.03
232561,2018-06-29 10:45:59.531250,236.68,86.38
232562,2018-06-29 10:45:59.562500,238.59,86.38
232563,2018-06-29 10:45:59.593750,222.6,86.38
232564,2018-06-29 10:45:59.625000,178.79,86.38
232565,2018-06-29 10:45:59.656250,122.99,86.38
232566,2018-06-29 10:45:59.687500,74.55,86.38
232567,2018-06-29 10:45:59.718750,39.22,86.38
232568,2018-06-29 10:45:59.750000,4.23,86.38
232569,2018-06-29 10:45:59.781250,-40.42,86.38
232570,2018-06-29 10:45:59.812500,-86.66,86.38
232571,2018-06-29 10:45:59.843750,-125.39,86.38
232572,2018-06-29 10:45:59.875000,-147.17,86.38
232573,2018-06-29 10:45:59.906250,-149.43,86.38
232574,2018-06-29 10:45:59.937500,-136.52,86.38
232575,2018-06-29 10:45:59.968750,-118.47,86.38
232576,2018-06-29 10:46:00.000000,-86.23,86.38
232577,2018-06-29 10:46:00.031250,-20.61,86.38
232578,2018-06-29 10:46:00.062500,81.38,86.38
232579,2018-06-29 10:46:00.093750,164.7,86.38
232580,2018-06-29 10:46:00.125000,170.91,86.38
232581,2018-06-29 10:46:00.156250,129.35,86.38
232582,2018-06-29 10:46:00.187500,66.66,86.38
232583,2018-06-29 10:46:00.218750,-3.47,86.38
232584,2018-06-29 10:46:00.250000,-52.36,86.38
232585,2018-06-29 10:46:00.281250,-61.58,86.38
232586,2018-06-29 10:46:00.312500,-53.3,86.38
232587,2018-06-29 10:46:00.343750,-50.76,86.38
232588,2018-06-29 10:46:00.375000,-53.65,86.38
232589,2018-06-29 10:46:00.406250,-51.57,86.38
232590,2018-06-29 10:46:00.437500,-47.18,86.38
232591,2018-06-29 10:46:00.468750,-46.94,86.38
232592,2018-06-29 10:46:00.500000,-48.58,86.38
232593,2018-06-29 10:46:00.531250,-44.64,86.82
232594,2018-06-29 10:46:00.562500,-31.35,86.82
232595,2018-06-29 10:46:00.593750,-13.87,86.82
232596,2018-06-29 10:46:00.625000,3.24,86.82
232597,2018-06-29 10:46:00.656250,20.63,86.82
232598,2018-06-29 10:46:00.687500,42.8,86.82
232599,2018-06-29 10:46:00.718750,68.86,86.82
232600,2018-06-29 10:46:00.750000,89.25,86.82
232601,2018-06-29 10:46:00.781250,92.23,86.82
232602,2018-06-29 10:46:00.812500,72.94,86.82
232603,2018-06-29 10:46:00.843750,40.08,86.82
232604,2018-06-29 10:46:00.875000,4.58,86.82
232605,2018-06-29 10:46:00.906250,-29.19,86.82
232606,2018-06-29 10:46:00.937500,-57.72,86.82
232607,2018-06-29 10:46:00.968750,-77.73,86.82
232608,2018-06-29 10:46:01.000000,-87.01,86.82
232609,2018-06-29 10:46:01.031250,-88.4,86.82
232610,2018-06-29 10:46:01.062500,-86.01,86.82
232611,2018-06-29 10:46:01.093750,-78.15,86.82
232612,2018-06-29 10:46:01.125000,-59.68,86.82
232613,2018-06-29 10:46:01.156250,-33.55,86.82
232614,2018-06-29 10:46:01.187500,-11.52,86.82
232615,2018-06-29 10:46:01.218750,-4.28,86.82
232616,2018-06-29 10:46:01.250000,-12.27,86.82
232617,2018-06-29 10:46:01.281250,-24.56,86.82
232618,2018-06-29 10:46:01.312500,-30.56,86.82
232619,2018-06-29 10:46:01.343750,-34.93,86.82
232620,2018-06-29 10:46:01.375000,-48.2,86.82
232621,2018-06-29 10:46:01.406250,-63.83,86.82
232622,2018-06-29 10:46:01.437500,-62.98,86.82
232623,2018-06-29 10:46:01.468750,-40.85,86.82
232624,2018-06-29 10:46:01.500000,-11.02,86.82
232625,2018-06-29 10:46:01.531250,14.61,86.88
232626,2018-06-29 10:46:01.562500,33.63,86.88
232627,2018-06-29 10:46:01.593750,46.99,86.88
232628,2018-06-29 10:46:01.625000,54.89,86.88
232629,2018-06-29 10:46:01.656250,59.89,86.88
232630,2018-06-29 10:46:01.687500,64.82,86.88
232631,2018-06-29 10:46:01.718750,71.15,86.88
232632,2018-06-29 10:46:01.750000,78.27,86.88
232633,2018-06-29 10:46:01.781250,83.34,86.88
232634,2018-06-29 10:46:01.812500,87.0,86.88
232635,2018-06-29 10:46:01.843750,90.51,86.88
232636,2018-06-29 10:46:01.875000,93.52,86.88
232637,2018-06-29 10:46:01.906250,83.79,86.88
232638,2018-06-29 10:46:01.937500,56.93,86.88
232639,2018-06-29 10:46:01.968750,27.46,86.88
232640,2018-06-29 10:46:02.000000,14.27,86.88
232641,2018-06-29 10:46:02.031250,18.26,86.88
232642,2018-06-29 10:46:02.062500,26.73,86.88
232643,2018-06-29 10:46:02.093750,48.34,86.88
232644,2018-06-29 10:46:02.125000,97.69,86.88
232645,2018-06-29 10:46:02.156250,173.63,86.88
232646,2018-06-29 10:46:02.187500,240.11,86.88
232647,2018-06-29 10:46:02.218750,262.51,86.88
232648,2018-06-29 10:46:02.250000,218.0,86.88
232649,2018-06-29 10:46:02.281250,64.26,86.88
232650,2018-06-29 10:46:02.312500,-89.09,86.88
232651,2018-06-29 10:46:02.343750,-155.56,86.88
232652,2018-06-29 10:46:02.375000,-159.3,86.88
232653,2018-06-29 10:46:02.406250,-121.07,86.88
232654,2018-06-29 10:46:02.437500,-44.13,86.88
232655,2018-06-29 10:46:02.468750,26.87,86.88
232656,2018-06-29 10:46:02.500000,25.04,86.88
232657,2018-06-29 10:46:02.531250,-52.43,86.93
232658,2018-06-29 10:46:02.562500,-126.66,86.93
232659,2018-06-29 10:46:02.593750,-168.83,86.93
232660,2018-06-29 10:46:02.625000,-205.91,86.93
232661,2018-06-29 10:46:02.656250,-230.26,86.93
232662,2018-06-29 10:46:02.687500,-222.73,86.93
232663,2018-06-29 10:46:02.718750,-189.42,86.93
232664,2018-06-29 10:46:02.750000,-150.23,86.93
232665,2018-06-29 10:46:02.781250,-107.22,86.93
232666,2018-06-29 10:46:02.812500,-46.33,86.93
232667,2018-06-29 10:46:02.843750,31.36,86.93
232668,2018-06-29 10:46:02.875000,100.96,86.93
232669,2018-06-29 10:46:02.906250,136.15,86.93
232670,2018-06-29 10:46:02.937500,136.34,86.93
232671,2018-06-29 10:46:02.968750,119.91,86.93
232672,2018-06-29 10:46:03.000000,100.21,86.93
232673,2018-06-29 10:46:03.031250,78.56,86.93
232674,2018-06-29 10:46:03.062500,56.79,86.93
232675,2018-06-29 10:46:03.093750,40.47,86.93
232676,2018-06-29 10:46:03.125000,30.86,86.93
232677,2018-06-29 10:46:03.156250,25.96,86.93
232678,2018-06-29 10:46:03.187500,21.63,86.93
232679,2018-06-29 10:46:03.218750,15.1,86.93
232680,2018-06-29 10:46:03.250000,6.92,86.93
232681,2018-06-29 10:46:03.281250,0.68,86.93
232682,2018-06-29 10:46:03.312500,-8.35,86.93
232683,2018-06-29 10:46:03.343750,-20.23,86.93
232684,2018-06-29 10:46:03.375000,-21.49,86.93
232685,2018-06-29 10:46:03.406250,-7.42,86.93
232686,2018-06-29 10:46:03.437500,24.28,86.93
232687,2018-06-29 10:46:03.468750,70.77,86.93
232688,2018-06-29 10:46:03.500000,115.85,86.93
232689,2018-06-29 10:46:03.531250,132.54,87.02
232690,2018-06-29 10:46:03.562500,86.7,87.02
232691,2018-06-29 10:46:03.593750,5.85,87.02
232692,2018-06-29 10:46:03.625000,-63.15,87.02
232693,2018-06-29 10:46:03.656250,-107.4,87.02
232694,2018-06-29 10:46:03.687500,-131.34,87.02
232695,2018-06-29 10:46:03.718750,-138.82,87.02
232696,2018-06-29 10:46:03.750000,-131.01,87.02
232697,2018-06-29 10:46:03.781250,-112.71,87.02
232698,2018-06-29 10:46:03.812500,-86.88,87.02
232699,2018-06-29 10:46:03.843750,-58.4,87.02
232700,2018-06-29 10:46:03.875000,-36.57,87.02
232701,2018-06-29 10:46:03.906250,-30.58,87.02
232702,2018-06-29 10:46:03.937500,-32.92,87.02
232703,2018-06-29 10:46:03.968750,-27.2,87.02
232704,2018-06-29 10:46:04.000000,-10.16,87.02
232705,2018-06-29 10:46:04.031250,0.85,87.02
232706,2018-06-29 10:46:04.062500,-1.23,87.02
232707,2018-06-29 10:46:04.093750,1.65,87.02
232708,2018-06-29 10:46:04.125000,21.54,87.02
232709,2018-06-29 10:46:04.156250,45.63,87.02
232710,2018-06-29 10:46:04.187500,55.39,87.02
232711,2018-06-29 10:46:04.218750,55.21,87.02
232712,2018-06-29 10:46:04.250000,58.78,87.02
232713,2018-06-29 10:46:04.281250,71.08,87.02
232714,2018-06-29 10:46:04.312500,85.26,87.02
232715,2018-06-29 10:46:04.343750,92.76,87.02
232716,2018-06-29 10:46:04.375000,91.83,87.02
232717,2018-06-29 10:46:04.406250,79.7,87.02
232718,2018-06-29 10:46:04.437500,54.73,87.02
232719,2018-06-29 10:46:04.468750,3.13,87.02
232720,2018-06-29 10:46:04.500000,-60.95,87.02
232721,2018-06-29 10:46:04.531250,-95.08,87.08
232722,2018-06-29 10:46:04.562500,-85.27,87.08
232723,2018-06-29 10:46:04.593750,-34.46,87.08
232724,2018-06-29 10:46:04.625000,35.45,87.08
232725,2018-06-29 10:46:04.656250,83.28,87.08
232726,2018-06-29 10:46:04.687500,55.98,87.08
232727,2018-06-29 10:46:04.718750,-35.82,87.08
232728,2018-06-29 10:46:04.750000,-108.96,87.08
232729,2018-06-29 10:46:04.781250,-127.6,87.08
232730,2018-06-29 10:46:04.812500,-115.26,87.08
232731,2018-06-29 10:46:04.843750,-92.27,87.08
232732,2018-06-29 10:46:04.875000,-62.69,87.08
232733,2018-06-29 10:46:04.906250,-32.24,87.08
232734,2018-06-29 10:46:04.937500,-4.82,87.08
232735,2018-06-29 10:46:04.968750,19.92,87.08
232736,2018-06-29 10:46:05.000000,45.32,87.08
232737,2018-06-29 10:46:05.031250,65.95,87.08
232738,2018-06-29 10:46:05.062500,74.21,87.08
232739,2018-06-29 10:46:05.093750,74.15,87.08
232740,2018-06-29 10:46:05.125000,76.34,87.08
232741,2018-06-29 10:46:05.156250,80.96,87.08
232742,2018-06-29 10:46:05.187500,72.08,87.08
232743,2018-06-29 10:46:05.218750,41.12,87.08
232744,2018-06-29 10:46:05.250000,-0.78,87.08
232745,2018-06-29 10:46:05.281250,-37.49,87.08
232746,2018-06-29 10:46:05.312500,-60.4,87.08
232747,2018-06-29 10:46:05.343750,-68.96,87.08
232748,2018-06-29 10:46:05.375000,-61.6,87.08
232749,2018-06-29 10:46:05.406250,-40.1,87.08
232750,2018-06-29 10:46:05.437500,-6.84,87.08
232751,2018-06-29 10:46:05.468750,33.55,87.08
232752,2018-06-29 10:46:05.500000,69.11,87.08
232753,2018-06-29 10:46:05.531250,88.21,87.13
232754,2018-06-29 10:46:05.562500,81.65,87.13
232755,2018-06-29 10:46:05.593750,56.39,87.13
232756,2018-06-29 10:46:05.625000,26.55,87.13
232757,2018-06-29 10:46:05.656250,21.36,87.13
232758,2018-06-29 10:46:05.687500,61.08,87.13
232759,2018-06-29 10:46:05.718750,126.58,87.13
232760,2018-06-29 10:46:05.750000,165.45,87.13
232761,2018-06-29 10:46:05.781250,120.8,87.13
232762,2018-06-29 10:46:05.812500,31.12,87.13
232763,2018-06-29 10:46:05.843750,-54.15,87.13
232764,2018-06-29 10:46:05.875000,-120.73,87.13
232765,2018-06-29 10:46:05.906250,-163.73,87.13
232766,2018-06-29 10:46:05.937500,-180.69,87.13
232767,2018-06-29 10:46:05.968750,-182.45,87.13
232768,2018-06-29 10:46:06.000000,-181.2,87.13
232769,2018-06-29 10:46:06.031250,-174.98,87.13
232770,2018-06-29 10:46:06.062500,-155.39,87.13
232771,2018-06-29 10:46:06.093750,-119.96,87.13
232772,2018-06-29 10:46:06.125000,-76.13,87.13
232773,2018-06-29 10:46:06.156250,-19.49,87.13
232774,2018-06-29 10:46:06.187500,44.07,87.13
232775,2018-06-29 10:46:06.218750,92.23,87.13
232776,2018-06-29 10:46:06.250000,108.86,87.13
232777,2018-06-29 10:46:06.281250,99.39,87.13
232778,2018-06-29 10:46:06.312500,74.85,87.13
232779,2018-06-29 10:46:06.343750,45.4,87.13
232780,2018-06-29 10:46:06.375000,28.11,87.13
232781,2018-06-29 10:46:06.406250,31.55,87.13
232782,2018-06-29 10:46:06.437500,45.92,87.13
232783,2018-06-29 10:46:06.468750,55.71,87.13
232784,2018-06-29 10:46:06.500000,61.81,87.13
232785,2018-06-29 10:46:06.531250,75.41,87.15
232786,2018-06-29 10:46:06.562500,92.18,87.15
232787,2018-06-29 10:46:06.593750,86.47,87.15
232788,2018-06-29 10:46:06.625000,42.31,87.15
232789,2018-06-29 10:46:06.656250,-17.5,87.15
232790,2018-06-29 10:46:06.687500,-51.39,87.15
232791,2018-06-29 10:46:06.718750,-46.32,87.15
232792,2018-06-29 10:46:06.750000,-26.8,87.15
232793,2018-06-29 10:46:06.781250,-20.59,87.15
232794,2018-06-29 10:46:06.812500,-34.95,87.15
232795,2018-06-29 10:46:06.843750,-59.55,87.15
232796,2018-06-29 10:46:06.875000,-76.81,87.15
232797,2018-06-29 10:46:06.906250,-75.68,87.15
232798,2018-06-29 10:46:06.937500,-62.17,87.15
232799,2018-06-29 10:46:06.968750,-49.51,87.15
232800,2018-06-29 10:46:07.000000,-40.61,87.15
232801,2018-06-29 10:46:07.031250,-28.2,87.15
232802,2018-06-29 10:46:07.062500,-9.18,87.15
232803,2018-06-29 10:46:07.093750,5.72,87.15
232804,2018-06-29 10:46:07.125000,7.03,87.15
232805,2018-06-29 10:46:07.156250,6.14,87.15
232806,2018-06-29 10:46:07.187500,21.3,87.15
232807,2018-06-29 10:46:07.218750,47.48,87.15
232808,2018-06-29 10:46:07.250000,65.09,87.15
232809,2018-06-29 10:46:07.281250,71.44,87.15
232810,2018-06-29 10:46:07.312500,74.01,87.15
232811,2018-06-29 10:46:07.343750,69.01,87.15
232812,2018-06-29 10:46:07.375000,45.79,87.15
232813,2018-06-29 10:46:07.406250,12.39,87.15
232814,2018-06-29 10:46:07.437500,-12.09,87.15
232815,2018-06-29 10:46:07.468750,-24.45,87.15
232816,2018-06-29 10:46:07.500000,-37.1,87.15
232817,2018-06-29 10:46:07.531250,-53.11,87.18
232818,2018-06-29 10:46:07.562500,-53.32,87.18
232819,2018-06-29 10:46:07.593750,-27.75,87.18
232820,2018-06-29 10:46:07.625000,15.03,87.18
232821,2018-06-29 10:46:07.656250,53.13,87.18
232822,2018-06-29 10:46:07.687500,62.92,87.18
232823,2018-06-29 10:46:07.718750,25.46,87.18
232824,2018-06-29 10:46:07.750000,-47.27,87.18
232825,2018-06-29 10:46:07.781250,-82.94,87.18
232826,2018-06-29 10:46:07.812500,-68.15,87.18
232827,2018-06-29 10:46:07.843750,-25.56,87.18
232828,2018-06-29 10:46:07.875000,47.22,87.18
232829,2018-06-29 10:46:07.906250,131.51,87.18
232830,2018-06-29 10:46:07.937500,173.49,87.18
232831,2018-06-29 10:46:07.968750,125.66,87.18
232832,2018-06-29 10:46:08.000000,32.99,87.18
232833,2018-06-29 10:46:08.031250,-35.05,87.18
232834,2018-06-29 10:46:08.062500,-84.1,87.18
232835,2018-06-29 10:46:08.093750,-128.22,87.18
232836,2018-06-29 10:46:08.125000,-145.92,87.18
232837,2018-06-29 10:46:08.156250,-132.96,87.18
232838,2018-06-29 10:46:08.187500,-109.68,87.18
232839,2018-06-29 10:46:08.218750,-91.61,87.18
232840,2018-06-29 10:46:08.250000,-75.17,87.18
232841,2018-06-29 10:46:08.281250,-54.65,87.18
232842,2018-06-29 10:46:08.312500,-37.48,87.18
232843,2018-06-29 10:46:08.343750,-24.07,87.18
232844,2018-06-29 10:46:08.375000,-5.26,87.18
232845,2018-06-29 10:46:08.406250,23.69,87.18
232846,2018-06-29 10:46:08.437500,51.86,87.18
232847,2018-06-29 10:46:08.468750,66.32,87.18
232848,2018-06-29 10:46:08.500000,67.72,87.18
232849,2018-06-29 10:46:08.531250,63.63,87.13
232850,2018-06-29 10:46:08.562500,62.15,87.13
232851,2018-06-29 10:46:08.593750,62.64,87.13
232852,2018-06-29 10:46:08.625000,65.45,87.13
232853,2018-06-29 10:46:08.656250,70.59,87.13
232854,2018-06-29 10:46:08.687500,79.75,87.13
232855,2018-06-29 10:46:08.718750,92.45,87.13
232856,2018-06-29 10:46:08.750000,95.63,87.13
232857,2018-06-29 10:46:08.781250,70.45,87.13
232858,2018-06-29 10:46:08.812500,1.34,87.13
232859,2018-06-29 10:46:08.843750,-67.22,87.13
232860,2018-06-29 10:46:08.875000,-82.52,87.13
232861,2018-06-29 10:46:08.906250,-52.95,87.13
232862,2018-06-29 10:46:08.937500,5.88,87.13
232863,2018-06-29 10:46:08.968750,66.47,87.13
232864,2018-06-29 10:46:09.000000,87.85,87.13
232865,2018-06-29 10:46:09.031250,47.27,87.13
232866,2018-06-29 10:46:09.062500,-33.46,87.13
232867,2018-06-29 10:46:09.093750,-109.42,87.13
232868,2018-06-29 10:46:09.125000,-144.71,87.13
232869,2018-06-29 10:46:09.156250,-139.24,87.13
232870,2018-06-29 10:46:09.187500,-112.58,87.13
232871,2018-06-29 10:46:09.218750,-81.14,87.13
232872,2018-06-29 10:46:09.250000,-48.91,87.13
232873,2018-06-29 10:46:09.281250,-16.92,87.13
232874,2018-06-29 10:46:09.312500,10.1,87.13
232875,2018-06-29 10:46:09.343750,30.07,87.13
232876,2018-06-29 10:46:09.375000,42.41,87.13
232877,2018-06-29 10:46:09.406250,47.29,87.13
232878,2018-06-29 10:46:09.437500,44.4,87.13
232879,2018-06-29 10:46:09.468750,38.47,87.13
232880,2018-06-29 10:46:09.500000,36.22,87.13
232881,2018-06-29 10:46:09.531250,36.48,87.05
232882,2018-06-29 10:46:09.562500,30.54,87.05
232883,2018-06-29 10:46:09.593750,14.54,87.05
232884,2018-06-29 10:46:09.625000,-4.89,87.05
232885,2018-06-29 10:46:09.656250,-19.82,87.05
232886,2018-06-29 10:46:09.687500,-25.88,87.05
232887,2018-06-29 10:46:09.718750,-21.95,87.05
232888,2018-06-29 10:46:09.750000,-11.54,87.05
232889,2018-06-29 10:46:09.781250,-0.62,87.05
232890,2018-06-29 10:46:09.812500,9.15,87.05
232891,2018-06-29 10:46:09.843750,20.56,87.05
232892,2018-06-29 10:46:09.875000,33.69,87.05
232893,2018-06-29 10:46:09.906250,44.61,87.05
232894,2018-06-29 10:46:09.937500,50.22,87.05
232895,2018-06-29 10:46:09.968750,50.17,87.05
232896,2018-06-29 10:46:10.000000,46.34,87.05
232897,2018-06-29 10:46:10.031250,40.89,87.05
232898,2018-06-29 10:46:10.062500,31.41,87.05
232899,2018-06-29 10:46:10.093750,11.51,87.05
232900,2018-06-29 10:46:10.125000,-18.92,87.05
232901,2018-06-29 10:46:10.156250,-50.65,87.05
232902,2018-06-29 10:46:10.187500,-74.34,87.05
232903,2018-06-29 10:46:10.218750,-85.32,87.05
232904,2018-06-29 10:46:10.250000,-82.19,87.05
232905,2018-06-29 10:46:10.281250,-68.72,87.05
232906,2018-06-29 10:46:10.312500,-52.49,87.05
232907,2018-06-29 10:46:10.343750,-37.07,87.05
232908,2018-06-29 10:46:10.375000,-20.63,87.05
232909,2018-06-29 10:46:10.406250,-2.78,87.05
232910,2018-06-29 10:46:10.437500,12.09,87.05
232911,2018-06-29 10:46:10.468750,18.38,87.05
232912,2018-06-29 10:46:10.500000,14.95,87.05
232913,2018-06-29 10:46:10.531250,10.33,87.0
232914,2018-06-29 10:46:10.562500,19.17,87.0
232915,2018-06-29 10:46:10.593750,44.43,87.0
232916,2018-06-29 10:46:10.625000,69.37,87.0
232917,2018-06-29 10:46:10.656250,77.22,87.0
232918,2018-06-29 10:46:10.687500,69.57,87.0
232919,2018-06-29 10:46:10.718750,56.75,87.0
232920,2018-06-29 10:46:10.750000,44.39,87.0
232921,2018-06-29 10:46:10.781250,36.1,87.0
232922,2018-06-29 10:46:10.812500,34.74,87.0
232923,2018-06-29 10:46:10.843750,39.71,87.0
232924,2018-06-29 10:46:10.875000,47.09,87.0
232925,2018-06-29 10:46:10.906250,48.56,87.0
232926,2018-06-29 10:46:10.937500,35.29,87.0
232927,2018-06-29 10:46:10.968750,11.21,87.0
232928,2018-06-29 10:46:11.000000,-6.15,87.0
232929,2018-06-29 10:46:11.031250,-6.38,87.0
232930,2018-06-29 10:46:11.062500,1.82,87.0
232931,2018-06-29 10:46:11.093750,3.74,87.0
232932,2018-06-29 10:46:11.125000,-6.95,87.0
232933,2018-06-29 10:46:11.156250,-30.09,87.0
232934,2018-06-29 10:46:11.187500,-63.7,87.0
232935,2018-06-29 10:46:11.218750,-99.01,87.0
232936,2018-06-29 10:46:11.250000,-120.0,87.0
232937,2018-06-29 10:46:11.281250,-116.75,87.0
232938,2018-06-29 10:46:11.312500,-94.93,87.0
232939,2018-06-29 10:46:11.343750,-68.53,87.0
232940,2018-06-29 10:46:11.375000,-48.01,87.0
232941,2018-06-29 10:46:11.406250,-35.39,87.0
232942,2018-06-29 10:46:11.437500,-23.59,87.0
232943,2018-06-29 10:46:11.468750,-2.68,87.0
232944,2018-06-29 10:46:11.500000,27.65,87.0
232945,2018-06-29 10:46:11.531250,54.02,86.93
232946,2018-06-29 10:46:11.562500,63.75,86.93
232947,2018-06-29 10:46:11.593750,61.19,86.93
232948,2018-06-29 10:46:11.625000,63.34,86.93
232949,2018-06-29 10:46:11.656250,76.28,86.93
232950,2018-06-29 10:46:11.687500,83.46,86.93
232951,2018-06-29 10:46:11.718750,63.44,86.93
232952,2018-06-29 10:46:11.750000,17.82,86.93
232953,2018-06-29 10:46:11.781250,-29.57,86.93
232954,2018-06-29 10:46:11.812500,-61.35,86.93
232955,2018-06-29 10:46:11.843750,-79.56,86.93
232956,2018-06-29 10:46:11.875000,-93.39,86.93
232957,2018-06-29 10:46:11.906250,-104.64,86.93
232958,2018-06-29 10:46:11.937500,-107.77,86.93
232959,2018-06-29 10:46:11.968750,-94.73,86.93
232960,2018-06-29 10:46:12.000000,-62.46,86.93
232961,2018-06-29 10:46:12.031250,-23.36,86.93
232962,2018-06-29 10:46:12.062500,3.65,86.93
232963,2018-06-29 10:46:12.093750,9.99,86.93
232964,2018-06-29 10:46:12.125000,15.72,86.93
232965,2018-06-29 10:46:12.156250,31.75,86.93
232966,2018-06-29 10:46:12.187500,54.74,86.93
232967,2018-06-29 10:46:12.218750,94.82,86.93
232968,2018-06-29 10:46:12.250000,139.83,86.93
232969,2018-06-29 10:46:12.281250,160.69,86.93
232970,2018-06-29 10:46:12.312500,136.77,86.93
232971,2018-06-29 10:46:12.343750,69.25,86.93
232972,2018-06-29 10:46:12.375000,-4.64,86.93
232973,2018-06-29 10:46:12.406250,-80.34,86.93
232974,2018-06-29 10:46:12.437500,-150.59,86.93
232975,2018-06-29 10:46:12.468750,-194.97,86.93
232976,2018-06-29 10:46:12.500000,-200.83,86.93
232977,2018-06-29 10:46:12.531250,-177.89,86.85
232978,2018-06-29 10:46:12.562500,-142.72,86.85
232979,2018-06-29 10:46:12.593750,-109.77,86.85
232980,2018-06-29 10:46:12.625000,-79.43,86.85
232981,2018-06-29 10:46:12.656250,-39.74,86.85
232982,2018-06-29 10:46:12.687500,16.67,86.85
232983,2018-06-29 10:46:12.718750,76.92,86.85
232984,2018-06-29 10:46:12.750000,116.19,86.85
232985,2018-06-29 10:46:12.781250,124.63,86.85
232986,2018-06-29 10:46:12.812500,108.84,86.85
232987,2018-06-29 10:46:12.843750,81.99,86.85
232988,2018-06-29 10:46:12.875000,54.59,86.85
