,Time,ppg,hr
233600,2018-06-29 10:46:32.000000,-28.82,86.22
233601,2018-06-29 10:46:32.031250,-56.14,86.22
233602,2018-06-29 10:46:32.062500,-95.12,86.22
233603,2018-06-29 10:46:32.093750,-93.92,86.22
233604,2018-06-29 10:46:32.125000,-44.47,86.22
233605,2018-06-29 10:46:32.156250,39.08,86.22
233606,2018-06-29 10:46:32.187500,121.58,86.22
233607,2018-06-29 10:46:32.218750,163.97,86.22
233608,2018-06-29 10:46:32.250000,129.27,86.22
233609,2018-06-29 10:46:32.281250,37.65,86.22
233610,2018-06-29 10:46:32.312500,-42.36,86.22
233611,2018-06-29 10:46:32.343750,-100.83,86.22
233612,2018-06-29 10:46:32.375000,-140.24,86.22
233613,2018-06-29 10:46:32.406250,-153.54,86.22
233614,2018-06-29 10:46:32.437500,-141.21,86.22
233615,2018-06-29 10:46:32.468750,-115.44,86.22
233616,2018-06-29 10:46:32.500000,-81.51,86.22
233617,2018-06-29 10:46:32.531250,-49.07,86.13
233618,2018-06-29 10:46:32.562500,-26.46,86.13
233619,2018-06-29 10:46:32.593750,-15.41,86.13
233620,2018-06-29 10:46:32.625000,-9.13,86.13
233621,2018-06-29 10:46:32.656250,-7.01,86.13
233622,2018-06-29 10:46:32.687500,-13.09,86.13
233623,2018-06-29 10:46:32.718750,-17.26,86.13
233624,2018-06-29 10:46:32.750000,-6.8,86.13
233625,2018-06-29 10:46:32.781250,17.13,86.13
233626,2018-06-29 10:46:32.812500,39.24,86.13
233627,2018-06-29 10:46:32.843750,49.93,86.13
233628,2018-06-29 10:46:32.875000,51.27,86.13
233629,2018-06-29 10:46:32.906250,52.24,86.13
233630,2018-06-29 10:46:32.937500,60.75,86.13
233631,2018-06-29 10:46:32.968750,77.02,86.13
233632,2018-06-29 10:46:33.000000,94.86,86.13
233633,2018-06-29 10:46:33.031250,105.78,86.13
233634,2018-06-29 10:46:33.062500,107.98,86.13
233635,2018-06-29 10:46:33.093750,109.96,86.13
233636,2018-06-29 10:46:33.125000,117.7,86.13
233637,2018-06-29 10:46:33.156250,118.2,86.13
233638,2018-06-29 10:46:33.187500,89.78,86.13
233639,2018-06-29 10:46:33.218750,31.26,86.13
233640,2018-06-29 10:46:33.250000,-31.24,86.13
233641,2018-06-29 10:46:33.281250,-71.1,86.13
233642,2018-06-29 10:46:33.312500,-88.18,86.13
233643,2018-06-29 10:46:33.343750,-102.69,86.13
233644,2018-06-29 10:46:33.375000,-126.0,86.13
233645,2018-06-29 10:46:33.406250,-147.51,86.13
233646,2018-06-29 10:46:33.437500,-150.66,86.13
233647,2018-06-29 10:46:33.468750,-131.04,86.13
233648,2018-06-29 10:46:33.500000,-96.74,86.13
233649,2018-06-29 10:46:33.531250,-59.14,86.05
233650,2018-06-29 10:46:33.562500,-25.89,86.05
233651,2018-06-29 10:46:33.593750,1.01,86.05
233652,2018-06-29 10:46:33.625000,22.71,86.05
233653,2018-06-29 10:46:33.656250,40.09,86.05
233654,2018-06-29 10:46:33.687500,52.63,86.05
233655,2018-06-29 10:46:33.718750,58.81,86.05
233656,2018-06-29 10:46:33.750000,58.68,86.05
233657,2018-06-29 10:46:33.781250,58.42,86.05
233658,2018-06-29 10:46:33.812500,66.56,86.05
233659,2018-06-29 10:46:33.843750,79.7,86.05
233660,2018-06-29 10:46:33.875000,80.04,86.05
233661,2018-06-29 10:46:33.906250,56.0,86.05
233662,2018-06-29 10:46:33.937500,17.88,86.05
233663,2018-06-29 10:46:33.968750,-14.05,86.05
233664,2018-06-29 10:46:34.000000,-28.61,86.05
233665,2018-06-29 10:46:34.031250,-27.28,86.05
233666,2018-06-29 10:46:34.062500,-17.08,86.05
233667,2018-06-29 10:46:34.093750,-2.86,86.05
233668,2018-06-29 10:46:34.125000,17.49,86.05
233669,2018-06-29 10:46:34.156250,46.73,86.05
233670,2018-06-29 10:46:34.187500,76.42,86.05
233671,2018-06-29 10:46:34.218750,90.55,86.05
233672,2018-06-29 10:46:34.250000,82.67,86.05
233673,2018-06-29 10:46:34.281250,60.41,86.05
233674,2018-06-29 10:46:34.312500,36.71,86.05
233675,2018-06-29 10:46:34.343750,24.15,86.05
233676,2018-06-29 10:46:34.375000,27.18,86.05
233677,2018-06-29 10:46:34.406250,31.11,86.05
233678,2018-06-29 10:46:34.437500,13.13,86.05
233679,2018-06-29 10:46:34.468750,-29.08,86.05
233680,2018-06-29 10:46:34.500000,-74.53,86.05
233681,2018-06-29 10:46:34.531250,-104.32,85.95
233682,2018-06-29 10:46:34.562500,-115.83,85.95
233683,2018-06-29 10:46:34.593750,-114.52,85.95
233684,2018-06-29 10:46:34.625000,-105.22,85.95
233685,2018-06-29 10:46:34.656250,-90.19,85.95
233686,2018-06-29 10:46:34.687500,-68.52,85.95
233687,2018-06-29 10:46:34.718750,-41.64,85.95
233688,2018-06-29 10:46:34.750000,-20.36,85.95
233689,2018-06-29 10:46:34.781250,-15.58,85.95
233690,2018-06-29 10:46:34.812500,-20.81,85.95
233691,2018-06-29 10:46:34.843750,-16.5,85.95
233692,2018-06-29 10:46:34.875000,7.9,85.95
233693,2018-06-29 10:46:34.906250,45.97,85.95
233694,2018-06-29 10:46:34.937500,81.25,85.95
233695,2018-06-29 10:46:34.968750,95.22,85.95
233696,2018-06-29 10:46:35.000000,79.97,85.95
233697,2018-06-29 10:46:35.031250,48.8,85.95
233698,2018-06-29 10:46:35.062500,24.83,85.95
233699,2018-06-29 10:46:35.093750,18.97,85.95
233700,2018-06-29 10:46:35.125000,24.82,85.95
233701,2018-06-29 10:46:35.156250,30.05,85.95
233702,2018-06-29 10:46:35.187500,31.6,85.95
233703,2018-06-29 10:46:35.218750,38.87,85.95
233704,2018-06-29 10:46:35.250000,57.17,85.95
233705,2018-06-29 10:46:35.281250,74.18,85.95
233706,2018-06-29 10:46:35.312500,74.64,85.95
233707,2018-06-29 10:46:35.343750,61.3,85.95
233708,2018-06-29 10:46:35.375000,49.1,85.95
233709,2018-06-29 10:46:35.406250,45.83,85.95
233710,2018-06-29 10:46:35.437500,44.77,85.95
233711,2018-06-29 10:46:35.468750,31.41,85.95
233712,2018-06-29 10:46:35.500000,-1.67,85.95
233713,2018-06-29 10:46:35.531250,-44.05,85.85
233714,2018-06-29 10:46:35.562500,-76.31,85.85
233715,2018-06-29 10:46:35.593750,-90.13,85.85
233716,2018-06-29 10:46:35.625000,-93.07,85.85
233717,2018-06-29 10:46:35.656250,-95.99,85.85
233718,2018-06-29 10:46:35.687500,-102.41,85.85
233719,2018-06-29 10:46:35.718750,-107.6,85.85
233720,2018-06-29 10:46:35.750000,-103.33,85.85
233721,2018-06-29 10:46:35.781250,-85.24,85.85
233722,2018-06-29 10:46:35.812500,-57.85,85.85
233723,2018-06-29 10:46:35.843750,-31.17,85.85
233724,2018-06-29 10:46:35.875000,-12.72,85.85
233725,2018-06-29 10:46:35.906250,-3.95,85.85
233726,2018-06-29 10:46:35.937500,-2.68,85.85
233727,2018-06-29 10:46:35.968750,-5.55,85.85
233728,2018-06-29 10:46:36.000000,-8.4,85.85
233729,2018-06-29 10:46:36.031250,-8.2,85.85
233730,2018-06-29 10:46:36.062500,-5.58,85.85
233731,2018-06-29 10:46:36.093750,-4.63,85.85
233732,2018-06-29 10:46:36.125000,-8.91,85.85
233733,2018-06-29 10:46:36.156250,-18.07,85.85
233734,2018-06-29 10:46:36.187500,-27.69,85.85
233735,2018-06-29 10:46:36.218750,-31.63,85.85
233736,2018-06-29 10:46:36.250000,-25.01,85.85
233737,2018-06-29 10:46:36.281250,-5.39,85.85
233738,2018-06-29 10:46:36.312500,27.12,85.85
233739,2018-06-29 10:46:36.343750,67.13,85.85
233740,2018-06-29 10:46:36.375000,101.14,85.85
233741,2018-06-29 10:46:36.406250,114.1,85.85
233742,2018-06-29 10:46:36.437500,104.11,85.85
233743,2018-06-29 10:46:36.468750,85.88,85.85
233744,2018-06-29 10:46:36.500000,74.98,85.85
233745,2018-06-29 10:46:36.531250,75.13,85.78
233746,2018-06-29 10:46:36.562500,82.06,85.78
233747,2018-06-29 10:46:36.593750,88.11,85.78
233748,2018-06-29 10:46:36.625000,80.96,85.78
233749,2018-06-29 10:46:36.656250,51.12,85.78
233750,2018-06-29 10:46:36.687500,3.06,85.78
233751,2018-06-29 10:46:36.718750,-48.78,85.78
233752,2018-06-29 10:46:36.750000,-92.49,85.78
233753,2018-06-29 10:46:36.781250,-122.54,85.78
233754,2018-06-29 10:46:36.812500,-136.63,85.78
233755,2018-06-29 10:46:36.843750,-135.91,85.78
233756,2018-06-29 10:46:36.875000,-126.84,85.78
233757,2018-06-29 10:46:36.906250,-117.74,85.78
233758,2018-06-29 10:46:36.937500,-111.91,85.78
233759,2018-06-29 10:46:36.968750,-103.78,85.78
233760,2018-06-29 10:46:37.000000,-83.97,85.78
233761,2018-06-29 10:46:37.031250,-51.33,85.78
233762,2018-06-29 10:46:37.062500,-16.55,85.78
233763,2018-06-29 10:46:37.093750,9.43,85.78
233764,2018-06-29 10:46:37.125000,26.07,85.78
233765,2018-06-29 10:46:37.156250,39.11,85.78
233766,2018-06-29 10:46:37.187500,51.0,85.78
233767,2018-06-29 10:46:37.218750,58.72,85.78
233768,2018-06-29 10:46:37.250000,58.47,85.78
233769,2018-06-29 10:46:37.281250,50.75,85.78
233770,2018-06-29 10:46:37.312500,41.52,85.78
233771,2018-06-29 10:46:37.343750,38.9,85.78
233772,2018-06-29 10:46:37.375000,47.53,85.78
233773,2018-06-29 10:46:37.406250,64.04,85.78
233774,2018-06-29 10:46:37.437500,79.37,85.78
233775,2018-06-29 10:46:37.468750,87.0,85.78
233776,2018-06-29 10:46:37.500000,86.35,85.78
233777,2018-06-29 10:46:37.531250,78.0,85.77
233778,2018-06-29 10:46:37.562500,59.25,85.77
233779,2018-06-29 10:46:37.593750,26.94,85.77
233780,2018-06-29 10:46:37.625000,-12.44,85.77
233781,2018-06-29 10:46:37.656250,-38.65,85.77
233782,2018-06-29 10:46:37.687500,-30.06,85.77
233783,2018-06-29 10:46:37.718750,15.31,85.77
233784,2018-06-29 10:46:37.750000,71.49,85.77
233785,2018-06-29 10:46:37.781250,100.32,85.77
233786,2018-06-29 10:46:37.812500,79.84,85.77
233787,2018-06-29 10:46:37.843750,19.33,85.77
233788,2018-06-29 10:46:37.875000,-52.31,85.77
233789,2018-06-29 10:46:37.906250,-109.61,85.77
233790,2018-06-29 10:46:37.937500,-141.88,85.77
233791,2018-06-29 10:46:37.968750,-150.2,85.77
233792,2018-06-29 10:46:38.000000,-140.84,85.77
233793,2018-06-29 10:46:38.031250,-119.81,85.77
233794,2018-06-29 10:46:38.062500,-90.8,85.77
233795,2018-06-29 10:46:38.093750,-58.73,85.77
233796,2018-06-29 10:46:38.125000,-31.68,85.77
233797,2018-06-29 10:46:38.156250,-15.73,85.77
233798,2018-06-29 10:46:38.187500,-11.02,85.77
233799,2018-06-29 10:46:38.218750,-14.19,85.77
233800,2018-06-29 10:46:38.250000,-20.72,85.77
233801,2018-06-29 10:46:38.281250,-26.35,85.77
233802,2018-06-29 10:46:38.312500,-30.04,85.77
233803,2018-06-29 10:46:38.343750,-34.32,85.77
233804,2018-06-29 10:46:38.375000,-40.6,85.77
233805,2018-06-29 10:46:38.406250,-44.07,85.77
233806,2018-06-29 10:46:38.437500,-35.7,85.77
233807,2018-06-29 10:46:38.468750,-11.72,85.77
233808,2018-06-29 10:46:38.500000,21.43,85.77
233809,2018-06-29 10:46:38.531250,52.89,85.77
233810,2018-06-29 10:46:38.562500,75.58,85.77
233811,2018-06-29 10:46:38.593750,90.18,85.77
233812,2018-06-29 10:46:38.625000,103.06,85.77
233813,2018-06-29 10:46:38.656250,116.71,85.77
233814,2018-06-29 10:46:38.687500,122.9,85.77
233815,2018-06-29 10:46:38.718750,112.61,85.77
233816,2018-06-29 10:46:38.750000,90.35,85.77
233817,2018-06-29 10:46:38.781250,69.73,85.77
233818,2018-06-29 10:46:38.812500,60.66,85.77
233819,2018-06-29 10:46:38.843750,64.02,85.77
233820,2018-06-29 10:46:38.875000,68.92,85.77
233821,2018-06-29 10:46:38.906250,55.43,85.77
233822,2018-06-29 10:46:38.937500,11.94,85.77
233823,2018-06-29 10:46:38.968750,-51.03,85.77
233824,2018-06-29 10:46:39.000000,-111.2,85.77
233825,2018-06-29 10:46:39.031250,-153.9,85.77
233826,2018-06-29 10:46:39.062500,-177.54,85.77
233827,2018-06-29 10:46:39.093750,-187.27,85.77
233828,2018-06-29 10:46:39.125000,-186.58,85.77
233829,2018-06-29 10:46:39.156250,-172.42,85.77
233830,2018-06-29 10:46:39.187500,-138.29,85.77
233831,2018-06-29 10:46:39.218750,-84.59,85.77
233832,2018-06-29 10:46:39.250000,-24.29,85.77
233833,2018-06-29 10:46:39.281250,25.78,85.77
233834,2018-06-29 10:46:39.312500,57.55,85.77
233835,2018-06-29 10:46:39.343750,72.69,85.77
233836,2018-06-29 10:46:39.375000,76.46,85.77
233837,2018-06-29 10:46:39.406250,76.34,85.77
233838,2018-06-29 10:46:39.437500,79.49,85.77
233839,2018-06-29 10:46:39.468750,84.28,85.77
233840,2018-06-29 10:46:39.500000,80.58,85.77
233841,2018-06-29 10:46:39.531250,63.74,85.72
233842,2018-06-29 10:46:39.562500,41.21,85.72
233843,2018-06-29 10:46:39.593750,22.35,85.72
233844,2018-06-29 10:46:39.625000,10.12,85.72
233845,2018-06-29 10:46:39.656250,3.85,85.72
233846,2018-06-29 10:46:39.687500,3.07,85.72
233847,2018-06-29 10:46:39.718750,7.57,85.72
233848,2018-06-29 10:46:39.750000,16.84,85.72
233849,2018-06-29 10:46:39.781250,26.68,85.72
233850,2018-06-29 10:46:39.812500,26.85,85.72
233851,2018-06-29 10:46:39.843750,10.27,85.72
233852,2018-06-29 10:46:39.875000,-13.48,85.72
233853,2018-06-29 10:46:39.906250,-24.97,85.72
233854,2018-06-29 10:46:39.937500,-16.54,85.72
233855,2018-06-29 10:46:39.968750,2.64,85.72
233856,2018-06-29 10:46:40.000000,19.19,85.72
233857,2018-06-29 10:46:40.031250,21.93,85.72
233858,2018-06-29 10:46:40.062500,4.12,85.72
233859,2018-06-29 10:46:40.093750,-28.99,85.72
233860,2018-06-29 10:46:40.125000,-61.35,85.72
233861,2018-06-29 10:46:40.156250,-80.57,85.72
233862,2018-06-29 10:46:40.187500,-85.38,85.72
233863,2018-06-29 10:46:40.218750,-80.09,85.72
233864,2018-06-29 10:46:40.250000,-68.56,85.72
233865,2018-06-29 10:46:40.281250,-52.43,85.72
233866,2018-06-29 10:46:40.312500,-31.46,85.72
233867,2018-06-29 10:46:40.343750,-6.28,85.72
233868,2018-06-29 10:46:40.375000,18.53,85.72
233869,2018-06-29 10:46:40.406250,36.86,85.72
233870,2018-06-29 10:46:40.437500,46.44,85.72
233871,2018-06-29 10:46:40.468750,48.1,85.72
233872,2018-06-29 10:46:40.500000,43.27,85.72
233873,2018-06-29 10:46:40.531250,36.71,85.75
233874,2018-06-29 10:46:40.562500,35.78,85.75
233875,2018-06-29 10:46:40.593750,40.75,85.75
233876,2018-06-29 10:46:40.625000,42.51,85.75
233877,2018-06-29 10:46:40.656250,35.05,85.75
233878,2018-06-29 10:46:40.687500,23.83,85.75
233879,2018-06-29 10:46:40.718750,18.62,85.75
233880,2018-06-29 10:46:40.750000,22.5,85.75
233881,2018-06-29 10:46:40.781250,28.69,85.75
233882,2018-06-29 10:46:40.812500,29.21,85.75
233883,2018-06-29 10:46:40.843750,26.98,85.75
233884,2018-06-29 10:46:40.875000,34.24,85.75
233885,2018-06-29 10:46:40.906250,54.85,85.75
233886,2018-06-29 10:46:40.937500,71.51,85.75
233887,2018-06-29 10:46:40.968750,59.75,85.75
233888,2018-06-29 10:46:41.000000,17.5,85.75
233889,2018-06-29 10:46:41.031250,-26.57,85.75
233890,2018-06-29 10:46:41.062500,-44.79,85.75
233891,2018-06-29 10:46:41.093750,-40.72,85.75
233892,2018-06-29 10:46:41.125000,-36.89,85.75
233893,2018-06-29 10:46:41.156250,-49.16,85.75
233894,2018-06-29 10:46:41.187500,-82.54,85.75
233895,2018-06-29 10:46:41.218750,-131.05,85.75
233896,2018-06-29 10:46:41.250000,-171.12,85.75
233897,2018-06-29 10:46:41.281250,-174.08,85.75
233898,2018-06-29 10:46:41.312500,-134.84,85.75
233899,2018-06-29 10:46:41.343750,-76.66,85.75
233900,2018-06-29 10:46:41.375000,-24.8,85.75
233901,2018-06-29 10:46:41.406250,15.72,85.75
233902,2018-06-29 10:46:41.437500,52.75,85.75
233903,2018-06-29 10:46:41.468750,86.75,85.75
233904,2018-06-29 10:46:41.500000,108.72,85.75
233905,2018-06-29 10:46:41.531250,115.27,85.78
233906,2018-06-29 10:46:41.562500,115.82,85.78
233907,2018-06-29 10:46:41.593750,121.99,85.78
233908,2018-06-29 10:46:41.625000,136.4,85.78
233909,2018-06-29 10:46:41.656250,151.07,85.78
233910,2018-06-29 10:46:41.687500,151.17,85.78
233911,2018-06-29 10:46:41.718750,124.54,85.78
233912,2018-06-29 10:46:41.750000,74.32,85.78
233913,2018-06-29 10:46:41.781250,17.15,85.78
233914,2018-06-29 10:46:41.812500,-32.68,85.78
233915,2018-06-29 10:46:41.843750,-70.82,85.78
233916,2018-06-29 10:46:41.875000,-96.43,85.78
233917,2018-06-29 10:46:41.906250,-106.85,85.78
233918,2018-06-29 10:46:41.937500,-97.92,85.78
233919,2018-06-29 10:46:41.968750,-66.35,85.78
233920,2018-06-29 10:46:42.000000,-15.12,85.78
233921,2018-06-29 10:46:42.031250,41.03,85.78
233922,2018-06-29 10:46:42.062500,79.82,85.78
233923,2018-06-29 10:46:42.093750,85.2,85.78
233924,2018-06-29 10:46:42.125000,57.26,85.78
233925,2018-06-29 10:46:42.156250,12.28,85.78
233926,2018-06-29 10:46:42.187500,-23.96,85.78
233927,2018-06-29 10:46:42.218750,-29.47,85.78
233928,2018-06-29 10:46:42.250000,-6.21,85.78
233929,2018-06-29 10:46:42.281250,16.39,85.78
233930,2018-06-29 10:46:42.312500,8.99,85.78
233931,2018-06-29 10:46:42.343750,-32.07,85.78
233932,2018-06-29 10:46:42.375000,-90.63,85.78
233933,2018-06-29 10:46:42.406250,-146.19,85.78
233934,2018-06-29 10:46:42.437500,-180.08,85.78
233935,2018-06-29 10:46:42.468750,-183.88,85.78
233936,2018-06-29 10:46:42.500000,-166.2,85.78
233937,2018-06-29 10:46:42.531250,-141.38,85.87
233938,2018-06-29 10:46:42.562500,-116.36,85.87
233939,2018-06-29 10:46:42.593750,-90.53,85.87
233940,2018-06-29 10:46:42.625000,-57.45,85.87
233941,2018-06-29 10:46:42.656250,-8.39,85.87
233942,2018-06-29 10:46:42.687500,52.74,85.87
233943,2018-06-29 10:46:42.718750,107.22,85.87
233944,2018-06-29 10:46:42.750000,144.18,85.87
233945,2018-06-29 10:46:42.781250,165.56,85.87
233946,2018-06-29 10:46:42.812500,165.15,85.87
233947,2018-06-29 10:46:42.843750,132.14,85.87
233948,2018-06-29 10:46:42.875000,77.46,85.87
233949,2018-06-29 10:46:42.906250,29.2,85.87
233950,2018-06-29 10:46:42.937500,4.18,85.87
233951,2018-06-29 10:46:42.968750,0.27,85.87
233952,2018-06-29 10:46:43.000000,7.23,85.87
233953,2018-06-29 10:46:43.031250,15.82,85.87
233954,2018-06-29 10:46:43.062500,23.37,85.87
233955,2018-06-29 10:46:43.093750,32.64,85.87
233956,2018-06-29 10:46:43.125000,42.64,85.87
233957,2018-06-29 10:46:43.156250,42.8,85.87
233958,2018-06-29 10:46:43.187500,17.91,85.87
233959,2018-06-29 10:46:43.218750,-33.52,85.87
233960,2018-06-29 10:46:43.250000,-84.36,85.87
233961,2018-06-29 10:46:43.281250,-99.47,85.87
233962,2018-06-29 10:46:43.312500,-73.35,85.87
233963,2018-06-29 10:46:43.343750,-31.33,85.87
233964,2018-06-29 10:46:43.375000,-0.98,85.87
233965,2018-06-29 10:46:43.406250,3.15,85.87
233966,2018-06-29 10:46:43.437500,-17.56,85.87
233967,2018-06-29 10:46:43.468750,-45.16,85.87
233968,2018-06-29 10:46:43.500000,-59.14,85.87
233969,2018-06-29 10:46:43.531250,-54.6,85.93
233970,2018-06-29 10:46:43.562500,-40.05,85.93
233971,2018-06-29 10:46:43.593750,-21.86,85.93
233972,2018-06-29 10:46:43.625000,2.49,85.93
233973,2018-06-29 10:46:43.656250,35.48,85.93
233974,2018-06-29 10:46:43.687500,69.61,85.93
233975,2018-06-29 10:46:43.718750,94.01,85.93
233976,2018-06-29 10:46:43.750000,107.03,85.93
233977,2018-06-29 10:46:43.781250,115.81,85.93
233978,2018-06-29 10:46:43.812500,126.62,85.93
233979,2018-06-29 10:46:43.843750,135.72,85.93
233980,2018-06-29 10:46:43.875000,129.01,85.93
233981,2018-06-29 10:46:43.906250,97.94,85.93
233982,2018-06-29 10:46:43.937500,55.24,85.93
233983,2018-06-29 10:46:43.968750,22.03,85.93
233984,2018-06-29 10:46:44.000000,4.74,85.93
233985,2018-06-29 10:46:44.031250,-1.67,85.93
233986,2018-06-29 10:46:44.062500,1.04,85.93
233987,2018-06-29 10:46:44.093750,11.91,85.93
233988,2018-06-29 10:46:44.125000,21.45,85.93
233989,2018-06-29 10:46:44.156250,20.94,85.93
233990,2018-06-29 10:46:44.187500,18.04,85.93
233991,2018-06-29 10:46:44.218750,26.81,85.93
233992,2018-06-29 10:46:44.250000,39.94,85.93
233993,2018-06-29 10:46:44.281250,28.93,85.93
233994,2018-06-29 10:46:44.312500,-18.5,85.93
233995,2018-06-29 10:46:44.343750,-76.19,85.93
233996,2018-06-29 10:46:44.375000,-102.74,85.93
233997,2018-06-29 10:46:44.406250,-81.42,85.93
233998,2018-06-29 10:46:44.437500,-35.59,85.93
233999,2018-06-29 10:46:44.468750,-5.06,85.93
234000,2018-06-29 10:46:44.500000,-12.24,85.93
234001,2018-06-29 10:46:44.531250,-54.73,86.05
234002,2018-06-29 10:46:44.562500,-116.68,86.05
234003,2018-06-29 10:46:44.593750,-175.44,86.05
234004,2018-06-29 10:46:44.625000,-208.99,86.05
234005,2018-06-29 10:46:44.656250,-207.65,86.05
234006,2018-06-29 10:46:44.687500,-175.18,86.05
234007,2018-06-29 10:46:44.718750,-121.58,86.05
234008,2018-06-29 10:46:44.750000,-57.64,86.05
234009,2018-06-29 10:46:44.781250,7.75,86.05
234010,2018-06-29 10:46:44.812500,65.26,86.05
234011,2018-06-29 10:46:44.843750,105.86,86.05
234012,2018-06-29 10:46:44.875000,128.4,86.05
234013,2018-06-29 10:46:44.906250,140.69,86.05
234014,2018-06-29 10:46:44.937500,151.04,86.05
234015,2018-06-29 10:46:44.968750,162.11,86.05
234016,2018-06-29 10:46:45.000000,167.86,86.05
234017,2018-06-29 10:46:45.031250,154.96,86.05
234018,2018-06-29 10:46:45.062500,116.63,86.05
234019,2018-06-29 10:46:45.093750,63.94,86.05
234020,2018-06-29 10:46:45.125000,15.98,86.05
234021,2018-06-29 10:46:45.156250,-16.27,86.05
234022,2018-06-29 10:46:45.187500,-32.25,86.05
234023,2018-06-29 10:46:45.218750,-37.01,86.05
234024,2018-06-29 10:46:45.250000,-37.1,86.05
234025,2018-06-29 10:46:45.281250,-33.72,86.05
234026,2018-06-29 10:46:45.312500,-21.87,86.05
234027,2018-06-29 10:46:45.343750,-0.9,86.05
234028,2018-06-29 10:46:45.375000,14.78,86.05
234029,2018-06-29 10:46:45.406250,4.28,86.05
234030,2018-06-29 10:46:45.437500,-32.64,86.05
234031,2018-06-29 10:46:45.468750,-65.27,86.05
234032,2018-06-29 10:46:45.500000,-61.14,86.05
234033,2018-06-29 10:46:45.531250,-21.31,86.18
234034,2018-06-29 10:46:45.562500,24.23,86.18
234035,2018-06-29 10:46:45.593750,46.89,86.18
234036,2018-06-29 10:46:45.625000,36.38,86.18
234037,2018-06-29 10:46:45.656250,-0.26,86.18
234038,2018-06-29 10:46:45.687500,-43.48,86.18
234039,2018-06-29 10:46:45.718750,-72.43,86.18
234040,2018-06-29 10:46:45.750000,-78.87,86.18
234041,2018-06-29 10:46:45.781250,-67.55,86.18
234042,2018-06-29 10:46:45.812500,-46.45,86.18
234043,2018-06-29 10:46:45.843750,-21.72,86.18
234044,2018-06-29 10:46:45.875000,-0.92,86.18
234045,2018-06-29 10:46:45.906250,12.59,86.18
234046,2018-06-29 10:46:45.937500,23.06,86.18
234047,2018-06-29 10:46:45.968750,34.75,86.18
234048,2018-06-29 10:46:46.000000,42.01,86.18
234049,2018-06-29 10:46:46.031250,35.41,86.18
234050,2018-06-29 10:46:46.062500,11.41,86.18
234051,2018-06-29 10:46:46.093750,-32.65,86.18
234052,2018-06-29 10:46:46.125000,-77.41,86.18
234053,2018-06-29 10:46:46.156250,-93.27,86.18
234054,2018-06-29 10:46:46.187500,-79.77,86.18
234055,2018-06-29 10:46:46.218750,-52.45,86.18
234056,2018-06-29 10:46:46.250000,-24.88,86.18
234057,2018-06-29 10:46:46.281250,-5.74,86.18
234058,2018-06-29 10:46:46.312500,-0.5,86.18
234059,2018-06-29 10:46:46.343750,-5.31,86.18
234060,2018-06-29 10:46:46.375000,2.43,86.18
234061,2018-06-29 10:46:46.406250,51.11,86.18
234062,2018-06-29 10:46:46.437500,126.54,86.18
234063,2018-06-29 10:46:46.468750,167.91,86.18
234064,2018-06-29 10:46:46.500000,139.65,86.18
234065,2018-06-29 10:46:46.531250,67.23,86.35
234066,2018-06-29 10:46:46.562500,-10.36,86.35
234067,2018-06-29 10:46:46.593750,-72.72,86.35
234068,2018-06-29 10:46:46.625000,-94.74,86.35
234069,2018-06-29 10:46:46.656250,-60.67,86.35
234070,2018-06-29 10:46:46.687500,-0.01,86.35
234071,2018-06-29 10:46:46.718750,37.93,86.35
234072,2018-06-29 10:46:46.750000,21.17,86.35
234073,2018-06-29 10:46:46.781250,-31.24,86.35
234074,2018-06-29 10:46:46.812500,-78.37,86.35
234075,2018-06-29 10:46:46.843750,-104.59,86.35
234076,2018-06-29 10:46:46.875000,-106.27,86.35
234077,2018-06-29 10:46:46.906250,-83.14,86.35
234078,2018-06-29 10:46:46.937500,-54.59,86.35
234079,2018-06-29 10:46:46.968750,-35.07,86.35
234080,2018-06-29 10:46:47.000000,-24.63,86.35
234081,2018-06-29 10:46:47.031250,-12.56,86.35
234082,2018-06-29 10:46:47.062500,6.17,86.35
234083,2018-06-29 10:46:47.093750,25.02,86.35
234084,2018-06-29 10:46:47.125000,37.14,86.35
234085,2018-06-29 10:46:47.156250,39.59,86.35
234086,2018-06-29 10:46:47.187500,31.21,86.35
234087,2018-06-29 10:46:47.218750,15.11,86.35
234088,2018-06-29 10:46:47.250000,0.62,86.35
234089,2018-06-29 10:46:47.281250,-2.47,86.35
234090,2018-06-29 10:46:47.312500,3.12,86.35
234091,2018-06-29 10:46:47.343750,6.07,86.35
234092,2018-06-29 10:46:47.375000,4.23,86.35
234093,2018-06-29 10:46:47.406250,7.14,86.35
234094,2018-06-29 10:46:47.437500,19.64,86.35
234095,2018-06-29 10:46:47.468750,28.14,86.35
234096,2018-06-29 10:46:47.500000,20.44,86.35
234097,2018-06-29 10:46:47.531250,4.44,86.5
234098,2018-06-29 10:46:47.562500,3.59,86.5
234099,2018-06-29 10:46:47.593750,27.84,86.5
234100,2018-06-29 10:46:47.625000,62.55,86.5
234101,2018-06-29 10:46:47.656250,82.13,86.5
234102,2018-06-29 10:46:47.687500,51.76,86.5
234103,2018-06-29 10:46:47.718750,-2.62,86.5
234104,2018-06-29 10:46:47.750000,-22.64,86.5
234105,2018-06-29 10:46:47.781250,-10.08,86.5
234106,2018-06-29 10:46:47.812500,-4.9,86.5
234107,2018-06-29 10:46:47.843750,-11.7,86.5
234108,2018-06-29 10:46:47.875000,-7.2,86.5
234109,2018-06-29 10:46:47.906250,5.29,86.5
234110,2018-06-29 10:46:47.937500,5.7,86.5
234111,2018-06-29 10:46:47.968750,-2.89,86.5
234112,2018-06-29 10:46:48.000000,-5.76,86.5
234113,2018-06-29 10:46:48.031250,-6.28,86.5
234114,2018-06-29 10:46:48.062500,-8.74,86.5
234115,2018-06-29 10:46:48.093750,-6.15,86.5
234116,2018-06-29 10:46:48.125000,6.78,86.5
234117,2018-06-29 10:46:48.156250,22.7,86.5
234118,2018-06-29 10:46:48.187500,31.51,86.5
234119,2018-06-29 10:46:48.218750,33.88,86.5
234120,2018-06-29 10:46:48.250000,35.23,86.5
234121,2018-06-29 10:46:48.281250,36.09,86.5
234122,2018-06-29 10:46:48.312500,31.04,86.5
234123,2018-06-29 10:46:48.343750,16.54,86.5
234124,2018-06-29 10:46:48.375000,-7.78,86.5
234125,2018-06-29 10:46:48.406250,-34.56,86.5
234126,2018-06-29 10:46:48.437500,-50.31,86.5
234127,2018-06-29 10:46:48.468750,-48.95,86.5
234128,2018-06-29 10:46:48.500000,-37.05,86.5
234129,2018-06-29 10:46:48.531250,-14.79,86.63
234130,2018-06-29 10:46:48.562500,14.48,86.63
234131,2018-06-29 10:46:48.593750,28.81,86.63
234132,2018-06-29 10:46:48.625000,12.57,86.63
234133,2018-06-29 10:46:48.656250,-17.59,86.63
234134,2018-06-29 10:46:48.687500,-37.84,86.63
234135,2018-06-29 10:46:48.718750,-46.82,86.63
234136,2018-06-29 10:46:48.750000,-52.3,86.63
234137,2018-06-29 10:46:48.781250,-49.0,86.63
234138,2018-06-29 10:46:48.812500,-29.99,86.63
234139,2018-06-29 10:46:48.843750,-0.71,86.63
234140,2018-06-29 10:46:48.875000,24.97,86.63
234141,2018-06-29 10:46:48.906250,34.61,86.63
234142,2018-06-29 10:46:48.937500,22.54,86.63
234143,2018-06-29 10:46:48.968750,-8.45,86.63
234144,2018-06-29 10:46:49.000000,-44.13,86.63
234145,2018-06-29 10:46:49.031250,-63.03,86.63
234146,2018-06-29 10:46:49.062500,-54.24,86.63
234147,2018-06-29 10:46:49.093750,-29.34,86.63
234148,2018-06-29 10:46:49.125000,-9.48,86.63
234149,2018-06-29 10:46:49.156250,-1.81,86.63
234150,2018-06-29 10:46:49.187500,1.59,86.63
234151,2018-06-29 10:46:49.218750,9.14,86.63
234152,2018-06-29 10:46:49.250000,19.54,86.63
234153,2018-06-29 10:46:49.281250,26.81,86.63
234154,2018-06-29 10:46:49.312500,27.8,86.63
234155,2018-06-29 10:46:49.343750,23.08,86.63
234156,2018-06-29 10:46:49.375000,14.73,86.63
234157,2018-06-29 10:46:49.406250,5.16,86.63
234158,2018-06-29 10:46:49.437500,-3.78,86.63
234159,2018-06-29 10:46:49.468750,-10.45,86.63
234160,2018-06-29 10:46:49.500000,-13.97,86.63
234161,2018-06-29 10:46:49.531250,-15.59,86.72
234162,2018-06-29 10:46:49.562500,-19.94,86.72
234163,2018-06-29 10:46:49.593750,-29.59,86.72
234164,2018-06-29 10:46:49.625000,-41.84,86.72
234165,2018-06-29 10:46:49.656250,-52.6,86.72
234166,2018-06-29 10:46:49.687500,-61.77,86.72
234167,2018-06-29 10:46:49.718750,-72.84,86.72
234168,2018-06-29 10:46:49.750000,-84.22,86.72
234169,2018-06-29 10:46:49.781250,-84.61,86.72
234170,2018-06-29 10:46:49.812500,-62.57,86.72
234171,2018-06-29 10:46:49.843750,-24.51,86.72
234172,2018-06-29 10:46:49.875000,12.36,86.72
234173,2018-06-29 10:46:49.906250,42.18,86.72
234174,2018-06-29 10:46:49.937500,63.93,86.72
234175,2018-06-29 10:46:49.968750,81.1,86.72
234176,2018-06-29 10:46:50.000000,89.4,86.72
234177,2018-06-29 10:46:50.031250,79.86,86.72
234178,2018-06-29 10:46:50.062500,49.37,86.72
234179,2018-06-29 10:46:50.093750,7.45,86.72
234180,2018-06-29 10:46:50.125000,-32.16,86.72
234181,2018-06-29 10:46:50.156250,-60.89,86.72
234182,2018-06-29 10:46:50.187500,-75.78,86.72
234183,2018-06-29 10:46:50.218750,-75.88,86.72
234184,2018-06-29 10:46:50.250000,-66.19,86.72
234185,2018-06-29 10:46:50.281250,-58.1,86.72
234186,2018-06-29 10:46:50.312500,-56.32,86.72
234187,2018-06-29 10:46:50.343750,-53.42,86.72
234188,2018-06-29 10:46:50.375000,-41.71,86.72
234189,2018-06-29 10:46:50.406250,-25.76,86.72
234190,2018-06-29 10:46:50.437500,-17.66,86.72
234191,2018-06-29 10:46:50.468750,-23.78,86.72
234192,2018-06-29 10:46:50.500000,-34.17,86.72
234193,2018-06-29 10:46:50.531250,-27.63,86.77
234194,2018-06-29 10:46:50.562500,6.72,86.77
234195,2018-06-29 10:46:50.593750,57.48,86.77
234196,2018-06-29 10:46:50.625000,103.89,86.77
234197,2018-06-29 10:46:50.656250,131.95,86.77
234198,2018-06-29 10:46:50.687500,135.69,86.77
234199,2018-06-29 10:46:50.718750,117.57,86.77
234200,2018-06-29 10:46:50.750000,91.22,86.77
234201,2018-06-29 10:46:50.781250,73.08,86.77
234202,2018-06-29 10:46:50.812500,68.36,86.77
234203,2018-06-29 10:46:50.843750,68.84,86.77
234204,2018-06-29 10:46:50.875000,66.04,86.77
234205,2018-06-29 10:46:50.906250,63.41,86.77
234206,2018-06-29 10:46:50.937500,69.67,86.77
234207,2018-06-29 10:46:50.968750,77.33,86.77
234208,2018-06-29 10:46:51.000000,58.54,86.77
234209,2018-06-29 10:46:51.031250,-3.72,86.77
234210,2018-06-29 10:46:51.062500,-84.54,86.77
234211,2018-06-29 10:46:51.093750,-132.27,86.77
234212,2018-06-29 10:46:51.125000,-116.9,86.77
234213,2018-06-29 10:46:51.156250,-58.5,86.77
234214,2018-06-29 10:46:51.187500,-9.82,86.77
234215,2018-06-29 10:46:51.218750,-9.39,86.77
234216,2018-06-29 10:46:51.250000,-49.23,86.77
234217,2018-06-29 10:46:51.281250,-90.5,86.77
234218,2018-06-29 10:46:51.312500,-104.34,86.77
234219,2018-06-29 10:46:51.343750,-88.85,86.77
234220,2018-06-29 10:46:51.375000,-56.55,86.77
234221,2018-06-29 10:46:51.406250,-20.11,86.77
234222,2018-06-29 10:46:51.437500,11.48,86.77
234223,2018-06-29 10:46:51.468750,36.12,86.77
234224,2018-06-29 10:46:51.500000,59.93,86.77
234225,2018-06-29 10:46:51.531250,86.24,86.77
234226,2018-06-29 10:46:51.562500,107.26,86.77
234227,2018-06-29 10:46:51.593750,115.79,86.77
234228,2018-06-29 10:46:51.625000,119.06,86.77
234229,2018-06-29 10:46:51.656250,130.76,86.77
234230,2018-06-29 10:46:51.687500,153.26,86.77
234231,2018-06-29 10:46:51.718750,172.46,86.77
234232,2018-06-29 10:46:51.750000,167.62,86.77
234233,2018-06-29 10:46:51.781250,128.88,86.77
234234,2018-06-29 10:46:51.812500,67.41,86.77
234235,2018-06-29 10:46:51.843750,3.74,86.77
234236,2018-06-29 10:46:51.875000,-50.51,86.77
234237,2018-06-29 10:46:51.906250,-94.57,86.77
234238,2018-06-29 10:46:51.937500,-129.14,86.77
234239,2018-06-29 10:46:51.968750,-149.36,86.77
234240,2018-06-29 10:46:52.000000,-144.06,86.77
234241,2018-06-29 10:46:52.031250,-106.03,86.77
234242,2018-06-29 10:46:52.062500,-44.12,86.77
234243,2018-06-29 10:46:52.093750,20.29,86.77
234244,2018-06-29 10:46:52.125000,65.72,86.77
234245,2018-06-29 10:46:52.156250,79.42,86.77
234246,2018-06-29 10:46:52.187500,61.93,86.77
234247,2018-06-29 10:46:52.218750,28.0,86.77
234248,2018-06-29 10:46:52.250000,-0.07,86.77
234249,2018-06-29 10:46:52.281250,-2.84,86.77
234250,2018-06-29 10:46:52.312500,25.51,86.77
234251,2018-06-29 10:46:52.343750,68.68,86.77
234252,2018-06-29 10:46:52.375000,95.14,86.77
234253,2018-06-29 10:46:52.406250,81.91,86.77
234254,2018-06-29 10:46:52.437500,30.99,86.77
234255,2018-06-29 10:46:52.468750,-37.29,86.77
234256,2018-06-29 10:46:52.500000,-99.87,86.77
234257,2018-06-29 10:46:52.531250,-140.3,86.75
234258,2018-06-29 10:46:52.562500,-151.98,86.75
234259,2018-06-29 10:46:52.593750,-138.98,86.75
234260,2018-06-29 10:46:52.625000,-114.49,86.75
234261,2018-06-29 10:46:52.656250,-95.7,86.75
234262,2018-06-29 10:46:52.687500,-93.0,86.75
234263,2018-06-29 10:46:52.718750,-100.87,86.75
234264,2018-06-29 10:46:52.750000,-99.92,86.75
234265,2018-06-29 10:46:52.781250,-71.03,86.75
234266,2018-06-29 10:46:52.812500,-11.06,86.75
234267,2018-06-29 10:46:52.843750,64.03,86.75
234268,2018-06-29 10:46:52.875000,131.25,86.75
234269,2018-06-29 10:46:52.906250,171.41,86.75
234270,2018-06-29 10:46:52.937500,173.43,86.75
234271,2018-06-29 10:46:52.968750,140.93,86.75
234272,2018-06-29 10:46:53.000000,93.97,86.75
234273,2018-06-29 10:46:53.031250,53.33,86.75
234274,2018-06-29 10:46:53.062500,26.5,86.75
234275,2018-06-29 10:46:53.093750,14.22,86.75
234276,2018-06-29 10:46:53.125000,16.71,86.75
234277,2018-06-29 10:46:53.156250,28.98,86.75
234278,2018-06-29 10:46:53.187500,42.8,86.75
234279,2018-06-29 10:46:53.218750,54.23,86.75
234280,2018-06-29 10:46:53.250000,59.54,86.75
234281,2018-06-29 10:46:53.281250,50.55,86.75
234282,2018-06-29 10:46:53.312500,23.24,86.75
234283,2018-06-29 10:46:53.343750,-15.96,86.75
234284,2018-06-29 10:46:53.375000,-54.81,86.75
234285,2018-06-29 10:46:53.406250,-79.68,86.75
234286,2018-06-29 10:46:53.437500,-78.75,86.75
234287,2018-06-29 10:46:53.468750,-54.37,86.75
234288,2018-06-29 10:46:53.500000,-31.74,86.75
234289,2018-06-29 10:46:53.531250,-39.85,86.6
234290,2018-06-29 10:46:53.562500,-79.14,86.6
234291,2018-06-29 10:46:53.593750,-120.45,86.6
234292,2018-06-29 10:46:53.625000,-138.23,86.6
234293,2018-06-29 10:46:53.656250,-130.46,86.6
234294,2018-06-29 10:46:53.687500,-106.62,86.6
234295,2018-06-29 10:46:53.718750,-74.82,86.6
234296,2018-06-29 10:46:53.750000,-42.01,86.6
234297,2018-06-29 10:46:53.781250,-12.91,86.6
234298,2018-06-29 10:46:53.812500,13.44,86.6
234299,2018-06-29 10:46:53.843750,40.49,86.6
234300,2018-06-29 10:46:53.875000,68.51,86.6
234301,2018-06-29 10:46:53.906250,93.74,86.6
234302,2018-06-29 10:46:53.937500,112.35,86.6
234303,2018-06-29 10:46:53.968750,126.48,86.6
234304,2018-06-29 10:46:54.000000,140.8,86.6
234305,2018-06-29 10:46:54.031250,148.29,86.6
234306,2018-06-29 10:46:54.062500,130.99,86.6
234307,2018-06-29 10:46:54.093750,84.33,86.6
234308,2018-06-29 10:46:54.125000,27.43,86.6
234309,2018-06-29 10:46:54.156250,-18.09,86.6
234310,2018-06-29 10:46:54.187500,-46.38,86.6
234311,2018-06-29 10:46:54.218750,-61.09,86.6
234312,2018-06-29 10:46:54.250000,-68.03,86.6
234313,2018-06-29 10:46:54.281250,-73.1,86.6
234314,2018-06-29 10:46:54.312500,-72.03,86.6
234315,2018-06-29 10:46:54.343750,-51.05,86.6
234316,2018-06-29 10:46:54.375000,-10.39,86.6
234317,2018-06-29 10:46:54.406250,26.09,86.6
234318,2018-06-29 10:46:54.437500,36.8,86.6
234319,2018-06-29 10:46:54.468750,27.29,86.6
234320,2018-06-29 10:46:54.500000,18.96,86.6
234321,2018-06-29 10:46:54.531250,23.5,86.45
234322,2018-06-29 10:46:54.562500,37.01,86.45
234323,2018-06-29 10:46:54.593750,48.56,86.45
234324,2018-06-29 10:46:54.625000,44.55,86.45
234325,2018-06-29 10:46:54.656250,16.27,86.45
234326,2018-06-29 10:46:54.687500,-27.55,86.45
234327,2018-06-29 10:46:54.718750,-65.98,86.45
234328,2018-06-29 10:46:54.750000,-86.13,86.45
234329,2018-06-29 10:46:54.781250,-89.09,86.45
234330,2018-06-29 10:46:54.812500,-81.43,86.45
234331,2018-06-29 10:46:54.843750,-69.49,86.45
234332,2018-06-29 10:46:54.875000,-55.82,86.45
234333,2018-06-29 10:46:54.906250,-38.12,86.45
234334,2018-06-29 10:46:54.937500,-15.97,86.45
234335,2018-06-29 10:46:54.968750,5.15,86.45
234336,2018-06-29 10:46:55.000000,19.0,86.45
234337,2018-06-29 10:46:55.031250,23.4,86.45
234338,2018-06-29 10:46:55.062500,22.57,86.45
234339,2018-06-29 10:46:55.093750,28.41,86.45
234340,2018-06-29 10:46:55.125000,50.45,86.45
234341,2018-06-29 10:46:55.156250,79.44,86.45
234342,2018-06-29 10:46:55.187500,93.23,86.45
234343,2018-06-29 10:46:55.218750,81.98,86.45
234344,2018-06-29 10:46:55.250000,56.43,86.45
234345,2018-06-29 10:46:55.281250,32.68,86.45
234346,2018-06-29 10:46:55.312500,19.0,86.45
234347,2018-06-29 10:46:55.343750,17.23,86.45
234348,2018-06-29 10:46:55.375000,25.86,86.45
234349,2018-06-29 10:46:55.406250,38.11,86.45
234350,2018-06-29 10:46:55.437500,45.81,86.45
234351,2018-06-29 10:46:55.468750,48.91,86.45
234352,2018-06-29 10:46:55.500000,53.82,86.45
234353,2018-06-29 10:46:55.531250,58.35,86.3
234354,2018-06-29 10:46:55.562500,50.17,86.3
234355,2018-06-29 10:46:55.593750,22.61,86.3
234356,2018-06-29 10:46:55.625000,-16.78,86.3
234357,2018-06-29 10:46:55.656250,-50.82,86.3
234358,2018-06-29 10:46:55.687500,-59.2,86.3
234359,2018-06-29 10:46:55.718750,-31.47,86.3
234360,2018-06-29 10:46:55.750000,14.55,86.3
234361,2018-06-29 10:46:55.781250,38.09,86.3
234362,2018-06-29 10:46:55.812500,11.37,86.3
234363,2018-06-29 10:46:55.843750,-54.34,86.3
234364,2018-06-29 10:46:55.875000,-122.17,86.3
234365,2018-06-29 10:46:55.906250,-162.29,86.3
234366,2018-06-29 10:46:55.937500,-168.05,86.3
234367,2018-06-29 10:46:55.968750,-149.25,86.3
234368,2018-06-29 10:46:56.000000,-119.62,86.3
234369,2018-06-29 10:46:56.031250,-88.5,86.3
234370,2018-06-29 10:46:56.062500,-57.87,86.3
234371,2018-06-29 10:46:56.093750,-26.37,86.3
234372,2018-06-29 10:46:56.125000,3.24,86.3
234373,2018-06-29 10:46:56.156250,24.99,86.3
234374,2018-06-29 10:46:56.187500,35.45,86.3
234375,2018-06-29 10:46:56.218750,36.12,86.3
234376,2018-06-29 10:46:56.250000,33.52,86.3
234377,2018-06-29 10:46:56.281250,35.9,86.3
234378,2018-06-29 10:46:56.312500,43.29,86.3
234379,2018-06-29 10:46:56.343750,43.72,86.3
234380,2018-06-29 10:46:56.375000,27.42,86.3
234381,2018-06-29 10:46:56.406250,1.36,86.3
234382,2018-06-29 10:46:56.437500,-18.5,86.3
234383,2018-06-29 10:46:56.468750,-25.93,86.3
234384,2018-06-29 10:46:56.500000,-27.43,86.3
234385,2018-06-29 10:46:56.531250,-31.8,86.03
234386,2018-06-29 10:46:56.562500,-39.38,86.03
234387,2018-06-29 10:46:56.593750,-37.99,86.03
234388,2018-06-29 10:46:56.625000,-15.48,86.03
234389,2018-06-29 10:46:56.656250,18.67,86.03
234390,2018-06-29 10:46:56.687500,34.22,86.03
234391,2018-06-29 10:46:56.718750,14.22,86.03
234392,2018-06-29 10:46:56.750000,-16.22,86.03
234393,2018-06-29 10:46:56.781250,-11.72,86.03
234394,2018-06-29 10:46:56.812500,42.97,86.03
234395,2018-06-29 10:46:56.843750,119.9,86.03
234396,2018-06-29 10:46:56.875000,180.16,86.03
234397,2018-06-29 10:46:56.906250,198.55,86.03
234398,2018-06-29 10:46:56.937500,165.9,86.03
234399,2018-06-29 10:46:56.968750,95.05,86.03
234400,2018-06-29 10:46:57.000000,18.51,86.03
234401,2018-06-29 10:46:57.031250,-37.88,86.03
234402,2018-06-29 10:46:57.062500,-72.06,86.03
234403,2018-06-29 10:46:57.093750,-93.32,86.03
234404,2018-06-29 10:46:57.125000,-106.06,86.03
234405,2018-06-29 10:46:57.156250,-110.05,86.03
234406,2018-06-29 10:46:57.187500,-106.99,86.03
234407,2018-06-29 10:46:57.218750,-101.96,86.03
234408,2018-06-29 10:46:57.250000,-98.79,86.03
234409,2018-06-29 10:46:57.281250,-95.08,86.03
234410,2018-06-29 10:46:57.312500,-83.47,86.03
234411,2018-06-29 10:46:57.343750,-59.68,86.03
234412,2018-06-29 10:46:57.375000,-28.09,86.03
234413,2018-06-29 10:46:57.406250,2.34,86.03
234414,2018-06-29 10:46:57.437500,26.93,86.03
234415,2018-06-29 10:46:57.468750,45.43,86.03
234416,2018-06-29 10:46:57.500000,54.77,86.03
234417,2018-06-29 10:46:57.531250,50.13,85.75
234418,2018-06-29 10:46:57.562500,33.78,85.75
234419,2018-06-29 10:46:57.593750,15.4,85.75
234420,2018-06-29 10:46:57.625000,3.73,85.75
234421,2018-06-29 10:46:57.656250,3.11,85.75
234422,2018-06-29 10:46:57.687500,13.24,85.75
234423,2018-06-29 10:46:57.718750,28.21,85.75
234424,2018-06-29 10:46:57.750000,40.47,85.75
234425,2018-06-29 10:46:57.781250,47.88,85.75
234426,2018-06-29 10:46:57.812500,52.97,85.75
234427,2018-06-29 10:46:57.843750,56.3,85.75
234428,2018-06-29 10:46:57.875000,54.71,85.75
234429,2018-06-29 10:46:57.906250,44.17,85.75
234430,2018-06-29 10:46:57.937500,23.36,85.75
234431,2018-06-29 10:46:57.968750,-2.35,85.75
234432,2018-06-29 10:46:58.000000,-24.07,85.75
234433,2018-06-29 10:46:58.031250,-39.36,85.75
234434,2018-06-29 10:46:58.062500,-54.66,85.75
234435,2018-06-29 10:46:58.093750,-75.75,85.75
234436,2018-06-29 10:46:58.125000,-100.84,85.75
234437,2018-06-29 10:46:58.156250,-123.08,85.75
234438,2018-06-29 10:46:58.187500,-135.0,85.75
234439,2018-06-29 10:46:58.218750,-132.15,85.75
234440,2018-06-29 10:46:58.250000,-116.36,85.75
234441,2018-06-29 10:46:58.281250,-94.34,85.75
234442,2018-06-29 10:46:58.312500,-70.38,85.75
234443,2018-06-29 10:46:58.343750,-43.83,85.75
234444,2018-06-29 10:46:58.375000,-14.26,85.75
234445,2018-06-29 10:46:58.406250,16.36,85.75
234446,2018-06-29 10:46:58.437500,45.88,85.75
234447,2018-06-29 10:46:58.468750,69.78,85.75
234448,2018-06-29 10:46:58.500000,79.76,85.75
234449,2018-06-29 10:46:58.531250,72.02,85.48
234450,2018-06-29 10:46:58.562500,54.49,85.48
234451,2018-06-29 10:46:58.593750,39.52,85.48
234452,2018-06-29 10:46:58.625000,30.82,85.48
234453,2018-06-29 10:46:58.656250,21.67,85.48
234454,2018-06-29 10:46:58.687500,5.42,85.48
234455,2018-06-29 10:46:58.718750,-17.5,85.48
234456,2018-06-29 10:46:58.750000,-39.5,85.48
234457,2018-06-29 10:46:58.781250,-46.36,85.48
234458,2018-06-29 10:46:58.812500,-26.06,85.48
234459,2018-06-29 10:46:58.843750,16.15,85.48
234460,2018-06-29 10:46:58.875000,61.57,85.48
234461,2018-06-29 10:46:58.906250,98.63,85.48
234462,2018-06-29 10:46:58.937500,125.88,85.48
234463,2018-06-29 10:46:58.968750,137.33,85.48
234464,2018-06-29 10:46:59.000000,124.51,85.48
234465,2018-06-29 10:46:59.031250,93.75,85.48
234466,2018-06-29 10:46:59.062500,62.8,85.48
234467,2018-06-29 10:46:59.093750,41.57,85.48
234468,2018-06-29 10:46:59.125000,31.34,85.48
234469,2018-06-29 10:46:59.156250,31.78,85.48
234470,2018-06-29 10:46:59.187500,31.77,85.48
234471,2018-06-29 10:46:59.218750,9.33,85.48
234472,2018-06-29 10:46:59.250000,-42.69,85.48
234473,2018-06-29 10:46:59.281250,-106.36,85.48
234474,2018-06-29 10:46:59.312500,-159.66,85.48
234475,2018-06-29 10:46:59.343750,-191.8,85.48
234476,2018-06-29 10:46:59.375000,-199.99,85.48
234477,2018-06-29 10:46:59.406250,-187.01,85.48
234478,2018-06-29 10:46:59.437500,-161.97,85.48
234479,2018-06-29 10:46:59.468750,-133.33,85.48
234480,2018-06-29 10:46:59.500000,-101.99,85.48
234481,2018-06-29 10:46:59.531250,-62.68,85.23
234482,2018-06-29 10:46:59.562500,-8.28,85.23
234483,2018-06-29 10:46:59.593750,60.89,85.23
234484,2018-06-29 10:46:59.625000,127.29,85.23
234485,2018-06-29 10:46:59.656250,167.93,85.23
234486,2018-06-29 10:46:59.687500,179.4,85.23
234487,2018-06-29 10:46:59.718750,175.93,85.23
234488,2018-06-29 10:46:59.750000,163.99,85.23
234489,2018-06-29 10:46:59.781250,138.25,85.23
234490,2018-06-29 10:46:59.812500,99.74,85.23
234491,2018-06-29 10:46:59.843750,60.21,85.23
234492,2018-06-29 10:46:59.875000,29.03,85.23
234493,2018-06-29 10:46:59.906250,7.46,85.23
234494,2018-06-29 10:46:59.937500,-7.13,85.23
234495,2018-06-29 10:46:59.968750,-19.15,85.23
234496,2018-06-29 10:47:00.000000,-31.39,85.23
234497,2018-06-29 10:47:00.031250,-39.62,85.23
234498,2018-06-29 10:47:00.062500,-37.3,85.23
234499,2018-06-29 10:47:00.093750,-31.88,85.23
234500,2018-06-29 10:47:00.125000,-47.79,85.23
234501,2018-06-29 10:47:00.156250,-96.5,85.23
234502,2018-06-29 10:47:00.187500,-148.09,85.23
234503,2018-06-29 10:47:00.218750,-151.32,85.23
234504,2018-06-29 10:47:00.250000,-87.23,85.23
234505,2018-06-29 10:47:00.281250,9.42,85.23
234506,2018-06-29 10:47:00.312500,82.81,85.23
234507,2018-06-29 10:47:00.343750,99.98,85.23
234508,2018-06-29 10:47:00.375000,68.59,85.23
234509,2018-06-29 10:47:00.406250,22.23,85.23
234510,2018-06-29 10:47:00.437500,-9.15,85.23
234511,2018-06-29 10:47:00.468750,-17.34,85.23
234512,2018-06-29 10:47:00.500000,-9.85,85.23
234513,2018-06-29 10:47:00.531250,5.84,85.0
234514,2018-06-29 10:47:00.562500,30.98,85.0
234515,2018-06-29 10:47:00.593750,69.5,85.0
234516,2018-06-29 10:47:00.625000,109.2,85.0
234517,2018-06-29 10:47:00.656250,123.74,85.0
234518,2018-06-29 10:47:00.687500,104.98,85.0
234519,2018-06-29 10:47:00.718750,78.24,85.0
234520,2018-06-29 10:47:00.750000,70.62,85.0
234521,2018-06-29 10:47:00.781250,82.41,85.0
234522,2018-06-29 10:47:00.812500,94.1,85.0
234523,2018-06-29 10:47:00.843750,86.44,85.0
234524,2018-06-29 10:47:00.875000,51.29,85.0
234525,2018-06-29 10:47:00.906250,-4.55,85.0
234526,2018-06-29 10:47:00.937500,-61.26,85.0
234527,2018-06-29 10:47:00.968750,-97.44,85.0
234528,2018-06-29 10:47:01.000000,-99.11,85.0
234529,2018-06-29 10:47:01.031250,-71.92,85.0
234530,2018-06-29 10:47:01.062500,-36.82,85.0
234531,2018-06-29 10:47:01.093750,-11.05,85.0
234532,2018-06-29 10:47:01.125000,-1.56,85.0
234533,2018-06-29 10:47:01.156250,-20.85,85.0
234534,2018-06-29 10:47:01.187500,-81.25,85.0
234535,2018-06-29 10:47:01.218750,-139.08,85.0
234536,2018-06-29 10:47:01.250000,-141.29,85.0
234537,2018-06-29 10:47:01.281250,-104.97,85.0
234538,2018-06-29 10:47:01.312500,-64.8,85.0
234539,2018-06-29 10:47:01.343750,-25.2,85.0
234540,2018-06-29 10:47:01.375000,16.69,85.0
234541,2018-06-29 10:47:01.406250,54.14,85.0
234542,2018-06-29 10:47:01.437500,85.73,85.0
234543,2018-06-29 10:47:01.468750,113.53,85.0
234544,2018-06-29 10:47:01.500000,123.82,85.0
234545,2018-06-29 10:47:01.531250,86.52,84.75
234546,2018-06-29 10:47:01.562500,15.01,84.75
234547,2018-06-29 10:47:01.593750,-52.31,84.75
234548,2018-06-29 10:47:01.625000,-92.01,84.75
234549,2018-06-29 10:47:01.656250,-109.38,84.75
234550,2018-06-29 10:47:01.687500,-117.05,84.75
234551,2018-06-29 10:47:01.718750,-113.12,84.75
234552,2018-06-29 10:47:01.750000,-97.12,84.75
234553,2018-06-29 10:47:01.781250,-70.24,84.75
234554,2018-06-29 10:47:01.812500,-30.18,84.75
234555,2018-06-29 10:47:01.843750,20.07,84.75
234556,2018-06-29 10:47:01.875000,62.69,84.75
234557,2018-06-29 10:47:01.906250,78.26,84.75
234558,2018-06-29 10:47:01.937500,64.33,84.75
234559,2018-06-29 10:47:01.968750,31.63,84.75
234560,2018-06-29 10:47:02.000000,-1.54,84.75
234561,2018-06-29 10:47:02.031250,-22.15,84.75
234562,2018-06-29 10:47:02.062500,-28.58,84.75
234563,2018-06-29 10:47:02.093750,-22.09,84.75
234564,2018-06-29 10:47:02.125000,-3.69,84.75
234565,2018-06-29 10:47:02.156250,18.99,84.75
234566,2018-06-29 10:47:02.187500,34.4,84.75
234567,2018-06-29 10:47:02.218750,36.66,84.75
234568,2018-06-29 10:47:02.250000,27.59,84.75
234569,2018-06-29 10:47:02.281250,12.76,84.75
234570,2018-06-29 10:47:02.312500,-2.65,84.75
234571,2018-06-29 10:47:02.343750,-15.19,84.75
234572,2018-06-29 10:47:02.375000,-22.69,84.75
234573,2018-06-29 10:47:02.406250,-16.1,84.75
234574,2018-06-29 10:47:02.437500,14.99,84.75
234575,2018-06-29 10:47:02.468750,59.26,84.75
234576,2018-06-29 10:47:02.500000,84.39,84.75
234577,2018-06-29 10:47:02.531250,73.3,84.55
234578,2018-06-29 10:47:02.562500,40.29,84.55
234579,2018-06-29 10:47:02.593750,4.56,84.55
234580,2018-06-29 10:47:02.625000,-28.24,84.55
234581,2018-06-29 10:47:02.656250,-56.0,84.55
234582,2018-06-29 10:47:02.687500,-72.45,84.55
234583,2018-06-29 10:47:02.718750,-75.2,84.55
234584,2018-06-29 10:47:02.750000,-69.29,84.55
234585,2018-06-29 10:47:02.781250,-59.67,84.55
234586,2018-06-29 10:47:02.812500,-46.53,84.55
234587,2018-06-29 10:47:02.843750,-29.24,84.55
234588,2018-06-29 10:47:02.875000,-9.43,84.55
234589,2018-06-29 10:47:02.906250,11.58,84.55
234590,2018-06-29 10:47:02.937500,33.75,84.55
234591,2018-06-29 10:47:02.968750,54.71,84.55
234592,2018-06-29 10:47:03.000000,69.24,84.55
234593,2018-06-29 10:47:03.031250,73.45,84.55
234594,2018-06-29 10:47:03.062500,68.68,84.55
234595,2018-06-29 10:47:03.093750,60.49,84.55
234596,2018-06-29 10:47:03.125000,52.38,84.55
234597,2018-06-29 10:47:03.156250,40.78,84.55
234598,2018-06-29 10:47:03.187500,18.65,84.55
234599,2018-06-29 10:47:03.218750,-16.26,84.55
234600,2018-06-29 10:47:03.250000,-58.01,84.55
234601,2018-06-29 10:47:03.281250,-93.32,84.55
234602,2018-06-29 10:47:03.312500,-105.12,84.55
234603,2018-06-29 10:47:03.343750,-83.55,84.55
234604,2018-06-29 10:47:03.375000,-37.79,84.55
234605,2018-06-29 10:47:03.406250,11.44,84.55
234606,2018-06-29 10:47:03.437500,51.04,84.55
234607,2018-06-29 10:47:03.468750,77.85,84.55
234608,2018-06-29 10:47:03.500000,87.65,84.55
234609,2018-06-29 10:47:03.531250,75.88,84.33
234610,2018-06-29 10:47:03.562500,49.04,84.33
234611,2018-06-29 10:47:03.593750,29.21,84.33
234612,2018-06-29 10:47:03.625000,43.88,84.33
234613,2018-06-29 10:47:03.656250,98.42,84.33
234614,2018-06-29 10:47:03.687500,157.88,84.33
234615,2018-06-29 10:47:03.718750,175.3,84.33
234616,2018-06-29 10:47:03.750000,136.14,84.33
234617,2018-06-29 10:47:03.781250,61.27,84.33
234618,2018-06-29 10:47:03.812500,-19.01,84.33
234619,2018-06-29 10:47:03.843750,-80.01,84.33
234620,2018-06-29 10:47:03.875000,-110.01,84.33
234621,2018-06-29 10:47:03.906250,-114.88,84.33
234622,2018-06-29 10:47:03.937500,-108.2,84.33
234623,2018-06-29 10:47:03.968750,-98.22,84.33
234624,2018-06-29 10:47:04.000000,-89.48,84.33
234625,2018-06-29 10:47:04.031250,-88.71,84.33
234626,2018-06-29 10:47:04.062500,-98.96,84.33
234627,2018-06-29 10:47:04.093750,-107.04,84.33
234628,2018-06-29 10:47:04.125000,-87.26,84.33
234629,2018-06-29 10:47:04.156250,-31.53,84.33
234630,2018-06-29 10:47:04.187500,29.97,84.33
234631,2018-06-29 10:47:04.218750,57.71,84.33
234632,2018-06-29 10:47:04.250000,46.24,84.33
234633,2018-06-29 10:47:04.281250,20.27,84.33
234634,2018-06-29 10:47:04.312500,-0.35,84.33
234635,2018-06-29 10:47:04.343750,-11.66,84.33
234636,2018-06-29 10:47:04.375000,-14.29,84.33
234637,2018-06-29 10:47:04.406250,-7.67,84.33
234638,2018-06-29 10:47:04.437500,7.95,84.33
234639,2018-06-29 10:47:04.468750,28.04,84.33
234640,2018-06-29 10:47:04.500000,44.84,84.33
234641,2018-06-29 10:47:04.531250,54.73,84.13
234642,2018-06-29 10:47:04.562500,60.8,84.13
234643,2018-06-29 10:47:04.593750,64.25,84.13
234644,2018-06-29 10:47:04.625000,58.34,84.13
234645,2018-06-29 10:47:04.656250,34.61,84.13
234646,2018-06-29 10:47:04.687500,-6.3,84.13
234647,2018-06-29 10:47:04.718750,-47.27,84.13
234648,2018-06-29 10:47:04.750000,-58.0,84.13
234649,2018-06-29 10:47:04.781250,-21.26,84.13
234650,2018-06-29 10:47:04.812500,39.21,84.13
234651,2018-06-29 10:47:04.843750,76.39,84.13
234652,2018-06-29 10:47:04.875000,68.65,84.13
234653,2018-06-29 10:47:04.906250,29.92,84.13
234654,2018-06-29 10:47:04.937500,-19.71,84.13
234655,2018-06-29 10:47:04.968750,-66.69,84.13
234656,2018-06-29 10:47:05.000000,-98.2,84.13
234657,2018-06-29 10:47:05.031250,-108.53,84.13
234658,2018-06-29 10:47:05.062500,-104.97,84.13
234659,2018-06-29 10:47:05.093750,-95.85,84.13
234660,2018-06-29 10:47:05.125000,-80.14,84.13
234661,2018-06-29 10:47:05.156250,-55.07,84.13
234662,2018-06-29 10:47:05.187500,-26.97,84.13
234663,2018-06-29 10:47:05.218750,-5.88,84.13
234664,2018-06-29 10:47:05.250000,5.67,84.13
234665,2018-06-29 10:47:05.281250,11.48,84.13
234666,2018-06-29 10:47:05.312500,13.3,84.13
234667,2018-06-29 10:47:05.343750,10.59,84.13
234668,2018-06-29 10:47:05.375000,5.46,84.13
234669,2018-06-29 10:47:05.406250,2.28,84.13
234670,2018-06-29 10:47:05.437500,1.41,84.13
234671,2018-06-29 10:47:05.468750,-2.7,84.13
234672,2018-06-29 10:47:05.500000,-15.35,84.13
234673,2018-06-29 10:47:05.531250,-35.3,83.95
234674,2018-06-29 10:47:05.562500,-54.18,83.95
234675,2018-06-29 10:47:05.593750,-58.78,83.95
234676,2018-06-29 10:47:05.625000,-37.85,83.95
234677,2018-06-29 10:47:05.656250,7.07,83.95
234678,2018-06-29 10:47:05.687500,60.67,83.95
234679,2018-06-29 10:47:05.718750,106.19,83.95
234680,2018-06-29 10:47:05.750000,133.09,83.95
234681,2018-06-29 10:47:05.781250,134.76,83.95
234682,2018-06-29 10:47:05.812500,112.18,83.95
234683,2018-06-29 10:47:05.843750,81.2,83.95
234684,2018-06-29 10:47:05.875000,64.21,83.95
234685,2018-06-29 10:47:05.906250,73.15,83.95
234686,2018-06-29 10:47:05.937500,101.19,83.95
234687,2018-06-29 10:47:05.968750,125.91,83.95
234688,2018-06-29 10:47:06.000000,121.66,83.95
234689,2018-06-29 10:47:06.031250,77.61,83.95
234690,2018-06-29 10:47:06.062500,4.4,83.95
234691,2018-06-29 10:47:06.093750,-76.01,83.95
234692,2018-06-29 10:47:06.125000,-142.47,83.95
234693,2018-06-29 10:47:06.156250,-180.8,83.95
234694,2018-06-29 10:47:06.187500,-187.64,83.95
234695,2018-06-29 10:47:06.218750,-172.25,83.95
234696,2018-06-29 10:47:06.250000,-152.74,83.95
234697,2018-06-29 10:47:06.281250,-141.77,83.95
234698,2018-06-29 10:47:06.312500,-131.33,83.95
234699,2018-06-29 10:47:06.343750,-101.23,83.95
234700,2018-06-29 10:47:06.375000,-47.33,83.95
234701,2018-06-29 10:47:06.406250,8.65,83.95
234702,2018-06-29 10:47:06.437500,42.07,83.95
234703,2018-06-29 10:47:06.468750,49.57,83.95
234704,2018-06-29 10:47:06.500000,45.14,83.95
234705,2018-06-29 10:47:06.531250,42.4,83.78
234706,2018-06-29 10:47:06.562500,41.59,83.78
234707,2018-06-29 10:47:06.593750,37.09,83.78
234708,2018-06-29 10:47:06.625000,29.83,83.78
234709,2018-06-29 10:47:06.656250,26.42,83.78
234710,2018-06-29 10:47:06.687500,30.18,83.78
234711,2018-06-29 10:47:06.718750,37.81,83.78
234712,2018-06-29 10:47:06.750000,48.81,83.78
234713,2018-06-29 10:47:06.781250,63.2,83.78
234714,2018-06-29 10:47:06.812500,77.03,83.78
234715,2018-06-29 10:47:06.843750,81.66,83.78
234716,2018-06-29 10:47:06.875000,67.21,83.78
234717,2018-06-29 10:47:06.906250,23.17,83.78
234718,2018-06-29 10:47:06.937500,-47.2,83.78
234719,2018-06-29 10:47:06.968750,-86.32,83.78
234720,2018-06-29 10:47:07.000000,-77.85,83.78
234721,2018-06-29 10:47:07.031250,-53.45,83.78
234722,2018-06-29 10:47:07.062500,-8.98,83.78
234723,2018-06-29 10:47:07.093750,58.78,83.78
234724,2018-06-29 10:47:07.125000,119.42,83.78
234725,2018-06-29 10:47:07.156250,125.03,83.78
234726,2018-06-29 10:47:07.187500,67.1,83.78
234727,2018-06-29 10:47:07.218750,-4.49,83.78
234728,2018-06-29 10:47:07.250000,-57.45,83.78
234729,2018-06-29 10:47:07.281250,-101.25,83.78
234730,2018-06-29 10:47:07.312500,-131.68,83.78
234731,2018-06-29 10:47:07.343750,-134.53,83.78
234732,2018-06-29 10:47:07.375000,-113.85,83.78
234733,2018-06-29 10:47:07.406250,-86.56,83.78
234734,2018-06-29 10:47:07.437500,-57.55,83.78
234735,2018-06-29 10:47:07.468750,-20.88,83.78
234736,2018-06-29 10:47:07.500000,20.3,83.78
234737,2018-06-29 10:47:07.531250,49.77,83.62
234738,2018-06-29 10:47:07.562500,57.4,83.62
234739,2018-06-29 10:47:07.593750,50.77,83.62
234740,2018-06-29 10:47:07.625000,44.9,83.62
234741,2018-06-29 10:47:07.656250,40.04,83.62
234742,2018-06-29 10:47:07.687500,24.93,83.62
234743,2018-06-29 10:47:07.718750,0.63,83.62
234744,2018-06-29 10:47:07.750000,-20.55,83.62
234745,2018-06-29 10:47:07.781250,-29.45,83.62
234746,2018-06-29 10:47:07.812500,-25.7,83.62
234747,2018-06-29 10:47:07.843750,0.19,83.62
234748,2018-06-29 10:47:07.875000,54.09,83.62
234749,2018-06-29 10:47:07.906250,118.95,83.62
234750,2018-06-29 10:47:07.937500,166.49,83.62
234751,2018-06-29 10:47:07.968750,173.58,83.62
234752,2018-06-29 10:47:08.000000,132.29,83.62
234753,2018-06-29 10:47:08.031250,32.84,83.62
234754,2018-06-29 10:47:08.062500,-69.07,83.62
234755,2018-06-29 10:47:08.093750,-102.55,83.62
234756,2018-06-29 10:47:08.125000,-88.62,83.62
234757,2018-06-29 10:47:08.156250,-47.28,83.62
234758,2018-06-29 10:47:08.187500,26.03,83.62
234759,2018-06-29 10:47:08.218750,101.93,83.62
234760,2018-06-29 10:47:08.250000,125.81,83.62
234761,2018-06-29 10:47:08.281250,62.88,83.62
234762,2018-06-29 10:47:08.312500,-33.69,83.62
234763,2018-06-29 10:47:08.343750,-102.02,83.62
234764,2018-06-29 10:47:08.375000,-147.33,83.62
234765,2018-06-29 10:47:08.406250,-179.87,83.62
234766,2018-06-29 10:47:08.437500,-192.24,83.62
234767,2018-06-29 10:47:08.468750,-183.11,83.62
234768,2018-06-29 10:47:08.500000,-167.72,83.62
234769,2018-06-29 10:47:08.531250,-145.94,83.48
234770,2018-06-29 10:47:08.562500,-99.51,83.48
234771,2018-06-29 10:47:08.593750,-26.07,83.48
234772,2018-06-29 10:47:08.625000,46.9,83.48
234773,2018-06-29 10:47:08.656250,93.22,83.48
234774,2018-06-29 10:47:08.687500,110.09,83.48
234775,2018-06-29 10:47:08.718750,113.69,83.48
234776,2018-06-29 10:47:08.750000,115.54,83.48
234777,2018-06-29 10:47:08.781250,114.54,83.48
234778,2018-06-29 10:47:08.812500,104.52,83.48
234779,2018-06-29 10:47:08.843750,83.15,83.48
234780,2018-06-29 10:47:08.875000,58.39,83.48
234781,2018-06-29 10:47:08.906250,38.59,83.48
234782,2018-06-29 10:47:08.937500,32.59,83.48
234783,2018-06-29 10:47:08.968750,39.69,83.48
234784,2018-06-29 10:47:09.000000,52.78,83.48
234785,2018-06-29 10:47:09.031250,60.53,83.48
234786,2018-06-29 10:47:09.062500,55.85,83.48
234787,2018-06-29 10:47:09.093750,42.75,83.48
234788,2018-06-29 10:47:09.125000,22.95,83.48
234789,2018-06-29 10:47:09.156250,-6.0,83.48
234790,2018-06-29 10:47:09.187500,-55.5,83.48
234791,2018-06-29 10:47:09.218750,-110.32,83.48
234792,2018-06-29 10:47:09.250000,-119.29,83.48
234793,2018-06-29 10:47:09.281250,-68.21,83.48
234794,2018-06-29 10:47:09.312500,26.85,83.48
234795,2018-06-29 10:47:09.343750,125.54,83.48
234796,2018-06-29 10:47:09.375000,184.67,83.48
234797,2018-06-29 10:47:09.406250,141.5,83.48
234798,2018-06-29 10:47:09.437500,30.9,83.48
234799,2018-06-29 10:47:09.468750,-58.38,83.48
234800,2018-06-29 10:47:09.500000,-112.63,83.48
234801,2018-06-29 10:47:09.531250,-141.16,83.43
234802,2018-06-29 10:47:09.562500,-138.33,83.43
234803,2018-06-29 10:47:09.593750,-109.69,83.43
234804,2018-06-29 10:47:09.625000,-73.94,83.43
234805,2018-06-29 10:47:09.656250,-38.79,83.43
234806,2018-06-29 10:47:09.687500,-5.14,83.43
234807,2018-06-29 10:47:09.718750,26.17,83.43
234808,2018-06-29 10:47:09.750000,44.81,83.43
234809,2018-06-29 10:47:09.781250,49.35,83.43
234810,2018-06-29 10:47:09.812500,51.8,83.43
234811,2018-06-29 10:47:09.843750,61.73,83.43
234812,2018-06-29 10:47:09.875000,67.64,83.43
234813,2018-06-29 10:47:09.906250,48.29,83.43
234814,2018-06-29 10:47:09.937500,7.28,83.43
234815,2018-06-29 10:47:09.968750,-30.95,83.43
234816,2018-06-29 10:47:10.000000,-47.16,83.43
234817,2018-06-29 10:47:10.031250,-43.23,83.43
234818,2018-06-29 10:47:10.062500,-25.94,83.43
234819,2018-06-29 10:47:10.093750,2.97,83.43
234820,2018-06-29 10:47:10.125000,35.65,83.43
234821,2018-06-29 10:47:10.156250,61.21,83.43
234822,2018-06-29 10:47:10.187500,69.24,83.43
234823,2018-06-29 10:47:10.218750,49.16,83.43
234824,2018-06-29 10:47:10.250000,-12.48,83.43
234825,2018-06-29 10:47:10.281250,-79.42,83.43
234826,2018-06-29 10:47:10.312500,-93.35,83.43
234827,2018-06-29 10:47:10.343750,-68.32,83.43
234828,2018-06-29 10:47:10.375000,-23.13,83.43
234829,2018-06-29 10:47:10.406250,48.34,83.43
234830,2018-06-29 10:47:10.437500,121.42,83.43
234831,2018-06-29 10:47:10.468750,143.75,83.43
234832,2018-06-29 10:47:10.500000,80.87,83.43
234833,2018-06-29 10:47:10.531250,-9.49,83.38
234834,2018-06-29 10:47:10.562500,-76.71,83.38
234835,2018-06-29 10:47:10.593750,-132.43,83.38
234836,2018-06-29 10:47:10.625000,-170.98,83.38
234837,2018-06-29 10:47:10.656250,-175.62,83.38
234838,2018-06-29 10:47:10.687500,-153.83,83.38
234839,2018-06-29 10:47:10.718750,-127.89,83.38
234840,2018-06-29 10:47:10.750000,-107.38,83.38
234841,2018-06-29 10:47:10.781250,-82.8,83.38
234842,2018-06-29 10:47:10.812500,-43.08,83.38
234843,2018-06-29 10:47:10.843750,6.12,83.38
234844,2018-06-29 10:47:10.875000,54.11,83.38
234845,2018-06-29 10:47:10.906250,91.72,83.38
234846,2018-06-29 10:47:10.937500,114.36,83.38
234847,2018-06-29 10:47:10.968750,120.69,83.38
234848,2018-06-29 10:47:11.000000,115.6,83.38
234849,2018-06-29 10:47:11.031250,106.49,83.38
234850,2018-06-29 10:47:11.062500,94.03,83.38
234851,2018-06-29 10:47:11.093750,75.99,83.38
234852,2018-06-29 10:47:11.125000,54.79,83.38
234853,2018-06-29 10:47:11.156250,35.23,83.38
234854,2018-06-29 10:47:11.187500,19.78,83.38
234855,2018-06-29 10:47:11.218750,9.26,83.38
234856,2018-06-29 10:47:11.250000,9.61,83.38
234857,2018-06-29 10:47:11.281250,23.78,83.38
234858,2018-06-29 10:47:11.312500,39.22,83.38
234859,2018-06-29 10:47:11.343750,38.77,83.38
234860,2018-06-29 10:47:11.375000,18.8,83.38
234861,2018-06-29 10:47:11.406250,-10.73,83.38
234862,2018-06-29 10:47:11.437500,-52.79,83.38
234863,2018-06-29 10:47:11.468750,-92.31,83.38
234864,2018-06-29 10:47:11.500000,-105.56,83.38
234865,2018-06-29 10:47:11.531250,-89.72,83.37
234866,2018-06-29 10:47:11.562500,-31.59,83.37
234867,2018-06-29 10:47:11.593750,60.75,83.37
234868,2018-06-29 10:47:11.625000,143.33,83.37
234869,2018-06-29 10:47:11.656250,144.98,83.37
234870,2018-06-29 10:47:11.687500,55.63,83.37
234871,2018-06-29 10:47:11.718750,-40.5,83.37
234872,2018-06-29 10:47:11.750000,-98.94,83.37
234873,2018-06-29 10:47:11.781250,-135.82,83.37
234874,2018-06-29 10:47:11.812500,-151.32,83.37
234875,2018-06-29 10:47:11.843750,-135.46,83.37
234876,2018-06-29 10:47:11.875000,-101.18,83.37
234877,2018-06-29 10:47:11.906250,-65.53,83.37
234878,2018-06-29 10:47:11.937500,-30.48,83.37
234879,2018-06-29 10:47:11.968750,8.3,83.37
234880,2018-06-29 10:47:12.000000,41.62,83.37
234881,2018-06-29 10:47:12.031250,54.71,83.37
234882,2018-06-29 10:47:12.062500,45.56,83.37
234883,2018-06-29 10:47:12.093750,27.28,83.37
234884,2018-06-29 10:47:12.125000,16.75,83.37
234885,2018-06-29 10:47:12.156250,14.87,83.37
234886,2018-06-29 10:47:12.187500,9.63,83.37
234887,2018-06-29 10:47:12.218750,-9.25,83.37
234888,2018-06-29 10:47:12.250000,-36.8,83.37
234889,2018-06-29 10:47:12.281250,-55.59,83.37
234890,2018-06-29 10:47:12.312500,-48.17,83.37
234891,2018-06-29 10:47:12.343750,-9.8,83.37
234892,2018-06-29 10:47:12.375000,45.78,83.37
234893,2018-06-29 10:47:12.406250,97.36,83.37
234894,2018-06-29 10:47:12.437500,132.22,83.37
234895,2018-06-29 10:47:12.468750,149.62,83.37
234896,2018-06-29 10:47:12.500000,149.3,83.37
234897,2018-06-29 10:47:12.531250,127.33,83.35
234898,2018-06-29 10:47:12.562500,84.87,83.35
234899,2018-06-29 10:47:12.593750,35.02,83.35
234900,2018-06-29 10:47:12.625000,-0.17,83.35
234901,2018-06-29 10:47:12.656250,-0.59,83.35
234902,2018-06-29 10:47:12.687500,35.17,83.35
234903,2018-06-29 10:47:12.718750,80.23,83.35
234904,2018-06-29 10:47:12.750000,95.21,83.35
234905,2018-06-29 10:47:12.781250,58.86,83.35
234906,2018-06-29 10:47:12.812500,-18.97,83.35
234907,2018-06-29 10:47:12.843750,-108.65,83.35
234908,2018-06-29 10:47:12.875000,-180.17,83.35
234909,2018-06-29 10:47:12.906250,-217.14,83.35
234910,2018-06-29 10:47:12.937500,-220.99,83.35
234911,2018-06-29 10:47:12.968750,-204.92,83.35
234912,2018-06-29 10:47:13.000000,-182.11,83.35
234913,2018-06-29 10:47:13.031250,-155.41,83.35
234914,2018-06-29 10:47:13.062500,-114.13,83.35
234915,2018-06-29 10:47:13.093750,-49.66,83.35
234916,2018-06-29 10:47:13.125000,25.17,83.35
234917,2018-06-29 10:47:13.156250,82.05,83.35
234918,2018-06-29 10:47:13.187500,105.62,83.35
234919,2018-06-29 10:47:13.218750,107.62,83.35
234920,2018-06-29 10:47:13.250000,105.44,83.35
234921,2018-06-29 10:47:13.281250,101.98,83.35
234922,2018-06-29 10:47:13.312500,88.66,83.35
234923,2018-06-29 10:47:13.343750,65.75,83.35
234924,2018-06-29 10:47:13.375000,41.72,83.35
234925,2018-06-29 10:47:13.406250,24.35,83.35
234926,2018-06-29 10:47:13.437500,18.63,83.35
234927,2018-06-29 10:47:13.468750,25.45,83.35
234928,2018-06-29 10:47:13.500000,41.46,83.35
234929,2018-06-29 10:47:13.531250,52.84,83.3
234930,2018-06-29 10:47:13.562500,53.42,83.3
234931,2018-06-29 10:47:13.593750,44.18,83.3
234932,2018-06-29 10:47:13.625000,29.29,83.3
234933,2018-06-29 10:47:13.656250,1.6,83.3
234934,2018-06-29 10:47:13.687500,-45.18,83.3
234935,2018-06-29 10:47:13.718750,-78.93,83.3
234936,2018-06-29 10:47:13.750000,-76.96,83.3
234937,2018-06-29 10:47:13.781250,-29.9,83.3
234938,2018-06-29 10:47:13.812500,45.48,83.3
234939,2018-06-29 10:47:13.843750,114.18,83.3
234940,2018-06-29 10:47:13.875000,122.18,83.3
234941,2018-06-29 10:47:13.906250,51.06,83.3
234942,2018-06-29 10:47:13.937500,-34.21,83.3
234943,2018-06-29 10:47:13.968750,-104.46,83.3
234944,2018-06-29 10:47:14.000000,-151.17,83.3
234945,2018-06-29 10:47:14.031250,-165.1,83.3
234946,2018-06-29 10:47:14.062500,-145.55,83.3
234947,2018-06-29 10:47:14.093750,-110.64,83.3
234948,2018-06-29 10:47:14.125000,-74.17,83.3
234949,2018-06-29 10:47:14.156250,-40.37,83.3
234950,2018-06-29 10:47:14.187500,-4.87,83.3
234951,2018-06-29 10:47:14.218750,26.25,83.3
234952,2018-06-29 10:47:14.250000,37.79,83.3
234953,2018-06-29 10:47:14.281250,29.4,83.3
234954,2018-06-29 10:47:14.312500,15.39,83.3
234955,2018-06-29 10:47:14.343750,10.3,83.3
234956,2018-06-29 10:47:14.375000,11.53,83.3
234957,2018-06-29 10:47:14.406250,10.0,83.3
234958,2018-06-29 10:47:14.437500,0.35,83.3
234959,2018-06-29 10:47:14.468750,-12.43,83.3
234960,2018-06-29 10:47:14.500000,-22.04,83.3
234961,2018-06-29 10:47:14.531250,-30.37,83.23
234962,2018-06-29 10:47:14.562500,-38.06,83.23
234963,2018-06-29 10:47:14.593750,-34.96,83.23
234964,2018-06-29 10:47:14.625000,-7.92,83.23
234965,2018-06-29 10:47:14.656250,41.56,83.23
234966,2018-06-29 10:47:14.687500,90.29,83.23
234967,2018-06-29 10:47:14.718750,100.17,83.23
234968,2018-06-29 10:47:14.750000,51.47,83.23
234969,2018-06-29 10:47:14.781250,-19.41,83.23
234970,2018-06-29 10:47:14.812500,-43.49,83.23
234971,2018-06-29 10:47:14.843750,8.67,83.23
234972,2018-06-29 10:47:14.875000,100.56,83.23
234973,2018-06-29 10:47:14.906250,174.02,83.23
234974,2018-06-29 10:47:14.937500,193.99,83.23
234975,2018-06-29 10:47:14.968750,155.98,83.23
234976,2018-06-29 10:47:15.000000,79.58,83.23
234977,2018-06-29 10:47:15.031250,-0.96,83.23
234978,2018-06-29 10:47:15.062500,-56.67,83.23
234979,2018-06-29 10:47:15.093750,-81.49,83.23
234980,2018-06-29 10:47:15.125000,-87.64,83.23
234981,2018-06-29 10:47:15.156250,-85.97,83.23
234982,2018-06-29 10:47:15.187500,-77.57,83.23
234983,2018-06-29 10:47:15.218750,-62.73,83.23
234984,2018-06-29 10:47:15.250000,-47.83,83.23
234985,2018-06-29 10:47:15.281250,-38.98,83.23
234986,2018-06-29 10:47:15.312500,-36.22,83.23
234987,2018-06-29 10:47:15.343750,-35.26,83.23
234988,2018-06-29 10:47:15.375000,-28.04,83.23
234989,2018-06-29 10:47:15.406250,-6.13,83.23
234990,2018-06-29 10:47:15.437500,29.56,83.23
234991,2018-06-29 10:47:15.468750,67.21,83.23
234992,2018-06-29 10:47:15.500000,92.62,83.23
234993,2018-06-29 10:47:15.531250,95.1,83.13
234994,2018-06-29 10:47:15.562500,72.29,83.13
234995,2018-06-29 10:47:15.593750,35.08,83.13
234996,2018-06-29 10:47:15.625000,2.45,83.13
234997,2018-06-29 10:47:15.656250,-10.98,83.13
234998,2018-06-29 10:47:15.687500,-2.2,83.13
234999,2018-06-29 10:47:15.718750,21.05,83.13
235000,2018-06-29 10:47:15.750000,46.98,83.13
235001,2018-06-29 10:47:15.781250,67.97,83.13
235002,2018-06-29 10:47:15.812500,79.9,83.13
235003,2018-06-29 10:47:15.843750,77.87,83.13
235004,2018-06-29 10:47:15.875000,57.07,83.13
235005,2018-06-29 10:47:15.906250,17.96,83.13
235006,2018-06-29 10:47:15.937500,-26.57,83.13
235007,2018-06-29 10:47:15.968750,-50.13,83.13
235008,2018-06-29 10:47:16.000000,-32.78,83.13
235009,2018-06-29 10:47:16.031250,10.95,83.13
235010,2018-06-29 10:47:16.062500,36.89,83.13
235011,2018-06-29 10:47:16.093750,12.26,83.13
235012,2018-06-29 10:47:16.125000,-55.56,83.13
235013,2018-06-29 10:47:16.156250,-130.95,83.13
235014,2018-06-29 10:47:16.187500,-179.75,83.13
235015,2018-06-29 10:47:16.218750,-187.71,83.13
235016,2018-06-29 10:47:16.250000,-162.21,83.13
235017,2018-06-29 10:47:16.281250,-122.01,83.13
235018,2018-06-29 10:47:16.312500,-82.71,83.13
235019,2018-06-29 10:47:16.343750,-49.11,83.13
235020,2018-06-29 10:47:16.375000,-19.2,83.13
235021,2018-06-29 10:47:16.406250,6.4,83.13
235022,2018-06-29 10:47:16.437500,22.87,83.13
235023,2018-06-29 10:47:16.468750,27.54,83.13
235024,2018-06-29 10:47:16.500000,24.31,83.13
235025,2018-06-29 10:47:16.531250,22.46,82.98
235026,2018-06-29 10:47:16.562500,30.3,82.98
235027,2018-06-29 10:47:16.593750,45.61,82.98
235028,2018-06-29 10:47:16.625000,54.03,82.98
235029,2018-06-29 10:47:16.656250,42.99,82.98
235030,2018-06-29 10:47:16.687500,15.37,82.98
235031,2018-06-29 10:47:16.718750,-14.74,82.98
235032,2018-06-29 10:47:16.750000,-35.33,82.98
235033,2018-06-29 10:47:16.781250,-42.85,82.98
235034,2018-06-29 10:47:16.812500,-40.27,82.98
235035,2018-06-29 10:47:16.843750,-29.0,82.98
235036,2018-06-29 10:47:16.875000,-4.25,82.98
235037,2018-06-29 10:47:16.906250,36.09,82.98
235038,2018-06-29 10:47:16.937500,79.64,82.98
235039,2018-06-29 10:47:16.968750,104.64,82.98
235040,2018-06-29 10:47:17.000000,98.85,82.98
235041,2018-06-29 10:47:17.031250,70.28,82.98
235042,2018-06-29 10:47:17.062500,40.06,82.98
235043,2018-06-29 10:47:17.093750,26.21,82.98
235044,2018-06-29 10:47:17.125000,31.44,82.98
235045,2018-06-29 10:47:17.156250,41.49,82.98
235046,2018-06-29 10:47:17.187500,36.23,82.98
235047,2018-06-29 10:47:17.218750,8.12,82.98
235048,2018-06-29 10:47:17.250000,-32.22,82.98
235049,2018-06-29 10:47:17.281250,-69.91,82.98
235050,2018-06-29 10:47:17.312500,-97.45,82.98
235051,2018-06-29 10:47:17.343750,-111.72,82.98
235052,2018-06-29 10:47:17.375000,-110.08,82.98
235053,2018-06-29 10:47:17.406250,-94.54,82.98
235054,2018-06-29 10:47:17.437500,-73.51,82.98
235055,2018-06-29 10:47:17.468750,-56.37,82.98
235056,2018-06-29 10:47:17.500000,-46.23,82.98
235057,2018-06-29 10:47:17.531250,-36.66,82.85
235058,2018-06-29 10:47:17.562500,-17.07,82.85
235059,2018-06-29 10:47:17.593750,15.18,82.85
235060,2018-06-29 10:47:17.625000,50.65,82.85
235061,2018-06-29 10:47:17.656250,79.72,82.85
235062,2018-06-29 10:47:17.687500,103.15,82.85
235063,2018-06-29 10:47:17.718750,122.81,82.85
235064,2018-06-29 10:47:17.750000,129.44,82.85
235065,2018-06-29 10:47:17.781250,112.51,82.85
235066,2018-06-29 10:47:17.812500,77.06,82.85
235067,2018-06-29 10:47:17.843750,38.51,82.85
235068,2018-06-29 10:47:17.875000,8.7,82.85
235069,2018-06-29 10:47:17.906250,-5.04,82.85
235070,2018-06-29 10:47:17.937500,1.07,82.85
235071,2018-06-29 10:47:17.968750,22.36,82.85
235072,2018-06-29 10:47:18.000000,46.1,82.85
235073,2018-06-29 10:47:18.031250,60.43,82.85
235074,2018-06-29 10:47:18.062500,60.78,82.85
235075,2018-06-29 10:47:18.093750,48.48,82.85
235076,2018-06-29 10:47:18.125000,24.94,82.85
235077,2018-06-29 10:47:18.156250,-9.86,82.85
235078,2018-06-29 10:47:18.187500,-49.86,82.85
235079,2018-06-29 10:47:18.218750,-78.32,82.85
235080,2018-06-29 10:47:18.250000,-74.69,82.85
235081,2018-06-29 10:47:18.281250,-32.04,82.85
235082,2018-06-29 10:47:18.312500,27.27,82.85
235083,2018-06-29 10:47:18.343750,61.97,82.85
235084,2018-06-29 10:47:18.375000,46.65,82.85
235085,2018-06-29 10:47:18.406250,-8.27,82.85
235086,2018-06-29 10:47:18.437500,-72.45,82.85
235087,2018-06-29 10:47:18.468750,-120.08,82.85
235088,2018-06-29 10:47:18.500000,-139.2,82.85
235089,2018-06-29 10:47:18.531250,-131.69,82.67
235090,2018-06-29 10:47:18.562500,-108.87,82.67
235091,2018-06-29 10:47:18.593750,-82.9,82.67
235092,2018-06-29 10:47:18.625000,-59.18,82.67
235093,2018-06-29 10:47:18.656250,-37.38,82.67
235094,2018-06-29 10:47:18.687500,-18.72,82.67
235095,2018-06-29 10:47:18.718750,-8.99,82.67
235096,2018-06-29 10:47:18.750000,-12.63,82.67
235097,2018-06-29 10:47:18.781250,-24.41,82.67
235098,2018-06-29 10:47:18.812500,-31.02,82.67
235099,2018-06-29 10:47:18.843750,-24.55,82.67
235100,2018-06-29 10:47:18.875000,-12.91,82.67
235101,2018-06-29 10:47:18.906250,-13.13,82.67
235102,2018-06-29 10:47:18.937500,-31.63,82.67
235103,2018-06-29 10:47:18.968750,-53.54,82.67
235104,2018-06-29 10:47:19.000000,-54.82,82.67
235105,2018-06-29 10:47:19.031250,-24.83,82.67
235106,2018-06-29 10:47:19.062500,24.9,82.67
235107,2018-06-29 10:47:19.093750,73.78,82.67
235108,2018-06-29 10:47:19.125000,109.72,82.67
235109,2018-06-29 10:47:19.156250,132.03,82.67
235110,2018-06-29 10:47:19.187500,140.78,82.67
235111,2018-06-29 10:47:19.218750,131.66,82.67
235112,2018-06-29 10:47:19.250000,104.88,82.67
235113,2018-06-29 10:47:19.281250,70.72,82.67
235114,2018-06-29 10:47:19.312500,41.71,82.67
235115,2018-06-29 10:47:19.343750,25.6,82.67
235116,2018-06-29 10:47:19.375000,23.97,82.67
235117,2018-06-29 10:47:19.406250,27.84,82.67
235118,2018-06-29 10:47:19.437500,18.89,82.67
235119,2018-06-29 10:47:19.468750,-13.55,82.67
235120,2018-06-29 10:47:19.500000,-60.78,82.67
235121,2018-06-29 10:47:19.531250,-104.92,82.52
235122,2018-06-29 10:47:19.562500,-133.04,82.52
235123,2018-06-29 10:47:19.593750,-140.42,82.52
235124,2018-06-29 10:47:19.625000,-129.83,82.52
235125,2018-06-29 10:47:19.656250,-110.76,82.52
235126,2018-06-29 10:47:19.687500,-91.54,82.52
235127,2018-06-29 10:47:19.718750,-68.22,82.52
235128,2018-06-29 10:47:19.750000,-29.36,82.52
235129,2018-06-29 10:47:19.781250,26.34,82.52
235130,2018-06-29 10:47:19.812500,84.46,82.52
235131,2018-06-29 10:47:19.843750,128.74,82.52
235132,2018-06-29 10:47:19.875000,153.3,82.52
235133,2018-06-29 10:47:19.906250,163.77,82.52
235134,2018-06-29 10:47:19.937500,168.44,82.52
235135,2018-06-29 10:47:19.968750,164.63,82.52
235136,2018-06-29 10:47:20.000000,141.23,82.52
235137,2018-06-29 10:47:20.031250,96.11,82.52
235138,2018-06-29 10:47:20.062500,43.36,82.52
235139,2018-06-29 10:47:20.093750,-3.48,82.52
235140,2018-06-29 10:47:20.125000,-36.63,82.52
235141,2018-06-29 10:47:20.156250,-48.93,82.52
235142,2018-06-29 10:47:20.187500,-39.03,82.52
235143,2018-06-29 10:47:20.218750,-18.27,82.52
235144,2018-06-29 10:47:20.250000,-2.41,82.52
235145,2018-06-29 10:47:20.281250,4.77,82.52
235146,2018-06-29 10:47:20.312500,2.69,82.52
235147,2018-06-29 10:47:20.343750,-13.01,82.52
235148,2018-06-29 10:47:20.375000,-47.65,82.52
235149,2018-06-29 10:47:20.406250,-93.4,82.52
235150,2018-06-29 10:47:20.437500,-119.78,82.52
235151,2018-06-29 10:47:20.468750,-114.21,82.52
235152,2018-06-29 10:47:20.500000,-61.94,82.52
235153,2018-06-29 10:47:20.531250,26.06,82.37
235154,2018-06-29 10:47:20.562500,108.97,82.37
235155,2018-06-29 10:47:20.593750,144.56,82.37
235156,2018-06-29 10:47:20.625000,123.29,82.37
235157,2018-06-29 10:47:20.656250,62.78,82.37
235158,2018-06-29 10:47:20.687500,-8.24,82.37
235159,2018-06-29 10:47:20.718750,-64.56,82.37
235160,2018-06-29 10:47:20.750000,-92.86,82.37
235161,2018-06-29 10:47:20.781250,-93.64,82.37
235162,2018-06-29 10:47:20.812500,-78.05,82.37
235163,2018-06-29 10:47:20.843750,-56.89,82.37
235164,2018-06-29 10:47:20.875000,-37.81,82.37
235165,2018-06-29 10:47:20.906250,-25.2,82.37
235166,2018-06-29 10:47:20.937500,-23.35,82.37
235167,2018-06-29 10:47:20.968750,-32.45,82.37
235168,2018-06-29 10:47:21.000000,-46.78,82.37
235169,2018-06-29 10:47:21.031250,-58.21,82.37
235170,2018-06-29 10:47:21.062500,-61.93,82.37
235171,2018-06-29 10:47:21.093750,-59.41,82.37
235172,2018-06-29 10:47:21.125000,-54.91,82.37
235173,2018-06-29 10:47:21.156250,-50.68,82.37
235174,2018-06-29 10:47:21.187500,-43.95,82.37
235175,2018-06-29 10:47:21.218750,-29.06,82.37
235176,2018-06-29 10:47:21.250000,-1.66,82.37
235177,2018-06-29 10:47:21.281250,36.62,82.37
235178,2018-06-29 10:47:21.312500,76.84,82.37
235179,2018-06-29 10:47:21.343750,108.64,82.37
235180,2018-06-29 10:47:21.375000,127.6,82.37
235181,2018-06-29 10:47:21.406250,133.72,82.37
235182,2018-06-29 10:47:21.437500,126.18,82.37
235183,2018-06-29 10:47:21.468750,103.84,82.37
235184,2018-06-29 10:47:21.500000,68.49,82.37
235185,2018-06-29 10:47:21.531250,29.6,82.25
235186,2018-06-29 10:47:21.562500,6.75,82.25
235187,2018-06-29 10:47:21.593750,18.23,82.25
235188,2018-06-29 10:47:21.625000,58.43,82.25
235189,2018-06-29 10:47:21.656250,93.09,82.25
235190,2018-06-29 10:47:21.687500,86.86,82.25
235191,2018-06-29 10:47:21.718750,33.26,82.25
235192,2018-06-29 10:47:21.750000,-46.21,82.25
235193,2018-06-29 10:47:21.781250,-125.05,82.25
235194,2018-06-29 10:47:21.812500,-186.33,82.25
235195,2018-06-29 10:47:21.843750,-220.85,82.25
235196,2018-06-29 10:47:21.875000,-222.78,82.25
235197,2018-06-29 10:47:21.906250,-190.83,82.25
235198,2018-06-29 10:47:21.937500,-132.42,82.25
235199,2018-06-29 10:47:21.968750,-62.81,82.25
235200,2018-06-29 10:47:22.000000,1.99,82.25
235201,2018-06-29 10:47:22.031250,51.24,82.25
235202,2018-06-29 10:47:22.062500,80.7,82.25
235203,2018-06-29 10:47:22.093750,90.97,82.25
235204,2018-06-29 10:47:22.125000,86.7,82.25
235205,2018-06-29 10:47:22.156250,77.3,82.25
235206,2018-06-29 10:47:22.187500,73.67,82.25
235207,2018-06-29 10:47:22.218750,78.15,82.25
235208,2018-06-29 10:47:22.250000,80.05,82.25
235209,2018-06-29 10:47:22.281250,68.12,82.25
235210,2018-06-29 10:47:22.312500,44.17,82.25
235211,2018-06-29 10:47:22.343750,17.93,82.25
235212,2018-06-29 10:47:22.375000,-3.88,82.25
235213,2018-06-29 10:47:22.406250,-17.96,82.25
235214,2018-06-29 10:47:22.437500,-21.16,82.25
235215,2018-06-29 10:47:22.468750,-12.46,82.25
235216,2018-06-29 10:47:22.500000,2.9,82.25
235217,2018-06-29 10:47:22.531250,13.58,82.15
235218,2018-06-29 10:47:22.562500,8.91,82.15
235219,2018-06-29 10:47:22.593750,-10.48,82.15
235220,2018-06-29 10:47:22.625000,-30.75,82.15
235221,2018-06-29 10:47:22.656250,-36.13,82.15
235222,2018-06-29 10:47:22.687500,-20.35,82.15
235223,2018-06-29 10:47:22.718750,15.19,82.15
235224,2018-06-29 10:47:22.750000,64.08,82.15
235225,2018-06-29 10:47:22.781250,108.55,82.15
235226,2018-06-29 10:47:22.812500,122.82,82.15
235227,2018-06-29 10:47:22.843750,94.31,82.15
235228,2018-06-29 10:47:22.875000,34.2,82.15
235229,2018-06-29 10:47:22.906250,-34.98,82.15
235230,2018-06-29 10:47:22.937500,-92.97,82.15
235231,2018-06-29 10:47:22.968750,-125.87,82.15
235232,2018-06-29 10:47:23.000000,-129.81,82.15
235233,2018-06-29 10:47:23.031250,-112.39,82.15
235234,2018-06-29 10:47:23.062500,-87.03,82.15
235235,2018-06-29 10:47:23.093750,-64.1,82.15
235236,2018-06-29 10:47:23.125000,-46.29,82.15
235237,2018-06-29 10:47:23.156250,-32.23,82.15
235238,2018-06-29 10:47:23.187500,-23.11,82.15
235239,2018-06-29 10:47:23.218750,-23.29,82.15
235240,2018-06-29 10:47:23.250000,-33.31,82.15
235241,2018-06-29 10:47:23.281250,-46.72,82.15
235242,2018-06-29 10:47:23.312500,-53.96,82.15
235243,2018-06-29 10:47:23.343750,-47.68,82.15
235244,2018-06-29 10:47:23.375000,-27.5,82.15
235245,2018-06-29 10:47:23.406250,-1.85,82.15
235246,2018-06-29 10:47:23.437500,19.32,82.15
235247,2018-06-29 10:47:23.468750,34.07,82.15
235248,2018-06-29 10:47:23.500000,47.99,82.15
235249,2018-06-29 10:47:23.531250,65.09,82.07
235250,2018-06-29 10:47:23.562500,84.17,82.07
235251,2018-06-29 10:47:23.593750,102.44,82.07
235252,2018-06-29 10:47:23.625000,117.02,82.07
235253,2018-06-29 10:47:23.656250,123.66,82.07
235254,2018-06-29 10:47:23.687500,117.35,82.07
235255,2018-06-29 10:47:23.718750,96.54,82.07
235256,2018-06-29 10:47:23.750000,64.57,82.07
235257,2018-06-29 10:47:23.781250,27.71,82.07
235258,2018-06-29 10:47:23.812500,-4.73,82.07
235259,2018-06-29 10:47:23.843750,-18.67,82.07
235260,2018-06-29 10:47:23.875000,-4.54,82.07
235261,2018-06-29 10:47:23.906250,23.79,82.07
235262,2018-06-29 10:47:23.937500,32.55,82.07
235263,2018-06-29 10:47:23.968750,-0.59,82.07
235264,2018-06-29 10:47:24.000000,-68.34,82.07
235265,2018-06-29 10:47:24.031250,-145.06,82.07
235266,2018-06-29 10:47:24.062500,-200.7,82.07
235267,2018-06-29 10:47:24.093750,-210.37,82.07
235268,2018-06-29 10:47:24.125000,-171.0,82.07
235269,2018-06-29 10:47:24.156250,-106.85,82.07
235270,2018-06-29 10:47:24.187500,-47.88,82.07
235271,2018-06-29 10:47:24.218750,-5.18,82.07
235272,2018-06-29 10:47:24.250000,26.47,82.07
235273,2018-06-29 10:47:24.281250,49.79,82.07
235274,2018-06-29 10:47:24.312500,62.1,82.07
235275,2018-06-29 10:47:24.343750,63.33,82.07
235276,2018-06-29 10:47:24.375000,56.03,82.07
235277,2018-06-29 10:47:24.406250,45.04,82.07
235278,2018-06-29 10:47:24.437500,40.74,82.07
235279,2018-06-29 10:47:24.468750,48.82,82.07
235280,2018-06-29 10:47:24.500000,57.07,82.07
235281,2018-06-29 10:47:24.531250,47.82,81.98
235282,2018-06-29 10:47:24.562500,20.34,81.98
235283,2018-06-29 10:47:24.593750,-9.79,81.98
235284,2018-06-29 10:47:24.625000,-28.67,81.98
235285,2018-06-29 10:47:24.656250,-32.83,81.98
235286,2018-06-29 10:47:24.687500,-26.19,81.98
235287,2018-06-29 10:47:24.718750,-17.04,81.98
235288,2018-06-29 10:47:24.750000,-13.44,81.98
235289,2018-06-29 10:47:24.781250,-12.56,81.98
235290,2018-06-29 10:47:24.812500,-2.85,81.98
235291,2018-06-29 10:47:24.843750,17.64,81.98
235292,2018-06-29 10:47:24.875000,37.03,81.98
235293,2018-06-29 10:47:24.906250,46.19,81.98
235294,2018-06-29 10:47:24.937500,46.84,81.98
235295,2018-06-29 10:47:24.968750,45.07,81.98
235296,2018-06-29 10:47:25.000000,45.15,81.98
235297,2018-06-29 10:47:25.031250,44.76,81.98
235298,2018-06-29 10:47:25.062500,34.93,81.98
235299,2018-06-29 10:47:25.093750,9.3,81.98
235300,2018-06-29 10:47:25.125000,-27.55,81.98
235301,2018-06-29 10:47:25.156250,-62.3,81.98
235302,2018-06-29 10:47:25.187500,-80.36,81.98
235303,2018-06-29 10:47:25.218750,-74.52,81.98
235304,2018-06-29 10:47:25.250000,-52.91,81.98
235305,2018-06-29 10:47:25.281250,-34.85,81.98
235306,2018-06-29 10:47:25.312500,-33.63,81.98
235307,2018-06-29 10:47:25.343750,-42.39,81.98
235308,2018-06-29 10:47:25.375000,-43.18,81.98
235309,2018-06-29 10:47:25.406250,-30.53,81.98
235310,2018-06-29 10:47:25.437500,-18.01,81.98
235311,2018-06-29 10:47:25.468750,-15.29,81.98
235312,2018-06-29 10:47:25.500000,-9.82,81.98
235313,2018-06-29 10:47:25.531250,14.45,81.92
235314,2018-06-29 10:47:25.562500,53.17,81.92
235315,2018-06-29 10:47:25.593750,82.67,81.92
235316,2018-06-29 10:47:25.625000,87.52,81.92
235317,2018-06-29 10:47:25.656250,70.62,81.92
235318,2018-06-29 10:47:25.687500,43.93,81.92
235319,2018-06-29 10:47:25.718750,18.73,81.92
235320,2018-06-29 10:47:25.750000,3.9,81.92
235321,2018-06-29 10:47:25.781250,6.6,81.92
235322,2018-06-29 10:47:25.812500,21.54,81.92
235323,2018-06-29 10:47:25.843750,40.19,81.92
235324,2018-06-29 10:47:25.875000,50.69,81.92
235325,2018-06-29 10:47:25.906250,43.11,81.92
235326,2018-06-29 10:47:25.937500,7.76,81.92
235327,2018-06-29 10:47:25.968750,-54.94,81.92
235328,2018-06-29 10:47:26.000000,-94.96,81.92
235329,2018-06-29 10:47:26.031250,-88.29,81.92
235330,2018-06-29 10:47:26.062500,-35.67,81.92
235331,2018-06-29 10:47:26.093750,41.07,81.92
235332,2018-06-29 10:47:26.125000,98.21,81.92
235333,2018-06-29 10:47:26.156250,91.38,81.92
235334,2018-06-29 10:47:26.187500,9.23,81.92
235335,2018-06-29 10:47:26.218750,-77.58,81.92
235336,2018-06-29 10:47:26.250000,-116.33,81.92
235337,2018-06-29 10:47:26.281250,-121.57,81.92
235338,2018-06-29 10:47:26.312500,-112.02,81.92
235339,2018-06-29 10:47:26.343750,-85.72,81.92
235340,2018-06-29 10:47:26.375000,-49.51,81.92
235341,2018-06-29 10:47:26.406250,-10.7,81.92
235342,2018-06-29 10:47:26.437500,26.94,81.92
235343,2018-06-29 10:47:26.468750,62.05,81.92
235344,2018-06-29 10:47:26.500000,90.01,81.92
235345,2018-06-29 10:47:26.531250,103.64,81.82
235346,2018-06-29 10:47:26.562500,103.44,81.82
235347,2018-06-29 10:47:26.593750,97.11,81.82
235348,2018-06-29 10:47:26.625000,95.87,81.82
235349,2018-06-29 10:47:26.656250,97.43,81.82
235350,2018-06-29 10:47:26.687500,84.75,81.82
235351,2018-06-29 10:47:26.718750,46.58,81.82
235352,2018-06-29 10:47:26.750000,-3.77,81.82
235353,2018-06-29 10:47:26.781250,-43.33,81.82
235354,2018-06-29 10:47:26.812500,-63.72,81.82
235355,2018-06-29 10:47:26.843750,-70.16,81.82
235356,2018-06-29 10:47:26.875000,-70.4,81.82
235357,2018-06-29 10:47:26.906250,-70.11,81.82
235358,2018-06-29 10:47:26.937500,-66.66,81.82
235359,2018-06-29 10:47:26.968750,-48.33,81.82
235360,2018-06-29 10:47:27.000000,-17.47,81.82
235361,2018-06-29 10:47:27.031250,3.84,81.82
235362,2018-06-29 10:47:27.062500,4.56,81.82
235363,2018-06-29 10:47:27.093750,3.71,81.82
235364,2018-06-29 10:47:27.125000,27.12,81.82
235365,2018-06-29 10:47:27.156250,67.65,81.82
235366,2018-06-29 10:47:27.187500,108.55,81.82
235367,2018-06-29 10:47:27.218750,136.65,81.82
235368,2018-06-29 10:47:27.250000,137.7,81.82
235369,2018-06-29 10:47:27.281250,102.51,81.82
235370,2018-06-29 10:47:27.312500,41.03,81.82
235371,2018-06-29 10:47:27.343750,-26.57,81.82
235372,2018-06-29 10:47:27.375000,-85.79,81.82
235373,2018-06-29 10:47:27.406250,-131.78,81.82
235374,2018-06-29 10:47:27.437500,-162.15,81.82
235375,2018-06-29 10:47:27.468750,-173.07,81.82
235376,2018-06-29 10:47:27.500000,-163.53,81.82
235377,2018-06-29 10:47:27.531250,-138.27,81.73
235378,2018-06-29 10:47:27.562500,-106.29,81.73
235379,2018-06-29 10:47:27.593750,-76.99,81.73
235380,2018-06-29 10:47:27.625000,-56.84,81.73
235381,2018-06-29 10:47:27.656250,-43.99,81.73
235382,2018-06-29 10:47:27.687500,-23.83,81.73
235383,2018-06-29 10:47:27.718750,17.53,81.73
235384,2018-06-29 10:47:27.750000,74.01,81.73
235385,2018-06-29 10:47:27.781250,120.47,81.73
235386,2018-06-29 10:47:27.812500,136.51,81.73
235387,2018-06-29 10:47:27.843750,124.77,81.73
235388,2018-06-29 10:47:27.875000,98.65,81.73
235389,2018-06-29 10:47:27.906250,66.53,81.73
235390,2018-06-29 10:47:27.937500,30.32,81.73
235391,2018-06-29 10:47:27.968750,2.53,81.73
235392,2018-06-29 10:47:28.000000,-0.2,81.73
235393,2018-06-29 10:47:28.031250,21.44,81.73
235394,2018-06-29 10:47:28.062500,48.69,81.73
235395,2018-06-29 10:47:28.093750,55.41,81.73
235396,2018-06-29 10:47:28.125000,24.23,81.73
235397,2018-06-29 10:47:28.156250,-48.36,81.73
235398,2018-06-29 10:47:28.187500,-107.16,81.73
235399,2018-06-29 10:47:28.218750,-105.18,81.73
235400,2018-06-29 10:47:28.250000,-76.42,81.73
235401,2018-06-29 10:47:28.281250,-43.35,81.73
235402,2018-06-29 10:47:28.312500,8.76,81.73
235403,2018-06-29 10:47:28.343750,72.06,81.73
235404,2018-06-29 10:47:28.375000,103.01,81.73
235405,2018-06-29 10:47:28.406250,74.98,81.73
235406,2018-06-29 10:47:28.437500,23.0,81.73
235407,2018-06-29 10:47:28.468750,-21.21,81.73
235408,2018-06-29 10:47:28.500000,-62.59,81.73
235409,2018-06-29 10:47:28.531250,-98.83,81.63
235410,2018-06-29 10:47:28.562500,-109.01,81.63
235411,2018-06-29 10:47:28.593750,-94.49,81.63
235412,2018-06-29 10:47:28.625000,-69.21,81.63
235413,2018-06-29 10:47:28.656250,-42.11,81.63
235414,2018-06-29 10:47:28.687500,-11.56,81.63
235415,2018-06-29 10:47:28.718750,18.9,81.63
235416,2018-06-29 10:47:28.750000,41.86,81.63
235417,2018-06-29 10:47:28.781250,55.95,81.63
235418,2018-06-29 10:47:28.812500,65.98,81.63
235419,2018-06-29 10:47:28.843750,76.98,81.63
235420,2018-06-29 10:47:28.875000,85.86,81.63
235421,2018-06-29 10:47:28.906250,80.31,81.63
235422,2018-06-29 10:47:28.937500,47.42,81.63
235423,2018-06-29 10:47:28.968750,-9.49,81.63
235424,2018-06-29 10:47:29.000000,-72.61,81.63
235425,2018-06-29 10:47:29.031250,-118.87,81.63
235426,2018-06-29 10:47:29.062500,-124.26,81.63
235427,2018-06-29 10:47:29.093750,-77.85,81.63
235428,2018-06-29 10:47:29.125000,1.67,81.63
235429,2018-06-29 10:47:29.156250,78.12,81.63
235430,2018-06-29 10:47:29.187500,128.79,81.63
235431,2018-06-29 10:47:29.218750,151.09,81.63
235432,2018-06-29 10:47:29.250000,146.26,81.63
235433,2018-06-29 10:47:29.281250,114.1,81.63
235434,2018-06-29 10:47:29.312500,62.03,81.63
235435,2018-06-29 10:47:29.343750,7.34,81.63
235436,2018-06-29 10:47:29.375000,-31.32,81.63
235437,2018-06-29 10:47:29.406250,-40.62,81.63
235438,2018-06-29 10:47:29.437500,-18.15,81.63
235439,2018-06-29 10:47:29.468750,18.8,81.63
235440,2018-06-29 10:47:29.500000,38.36,81.63
235441,2018-06-29 10:47:29.531250,18.76,81.58
235442,2018-06-29 10:47:29.562500,-36.3,81.58
235443,2018-06-29 10:47:29.593750,-106.31,81.58
235444,2018-06-29 10:47:29.625000,-168.87,81.58
235445,2018-06-29 10:47:29.656250,-207.55,81.58
235446,2018-06-29 10:47:29.687500,-213.41,81.58
235447,2018-06-29 10:47:29.718750,-182.93,81.58
235448,2018-06-29 10:47:29.750000,-121.88,81.58
235449,2018-06-29 10:47:29.781250,-50.56,81.58
235450,2018-06-29 10:47:29.812500,9.58,81.58
235451,2018-06-29 10:47:29.843750,55.08,81.58
235452,2018-06-29 10:47:29.875000,94.27,81.58
235453,2018-06-29 10:47:29.906250,127.66,81.58
235454,2018-06-29 10:47:29.937500,150.04,81.58
235455,2018-06-29 10:47:29.968750,160.45,81.58
235456,2018-06-29 10:47:30.000000,155.17,81.58
235457,2018-06-29 10:47:30.031250,125.99,81.58
235458,2018-06-29 10:47:30.062500,76.55,81.58
235459,2018-06-29 10:47:30.093750,23.91,81.58
235460,2018-06-29 10:47:30.125000,-19.68,81.58
235461,2018-06-29 10:47:30.156250,-50.92,81.58
235462,2018-06-29 10:47:30.187500,-66.16,81.58
235463,2018-06-29 10:47:30.218750,-63.88,81.58
235464,2018-06-29 10:47:30.250000,-52.04,81.58
235465,2018-06-29 10:47:30.281250,-42.57,81.58
235466,2018-06-29 10:47:30.312500,-39.08,81.58
235467,2018-06-29 10:47:30.343750,-34.95,81.58
235468,2018-06-29 10:47:30.375000,-25.66,81.58
235469,2018-06-29 10:47:30.406250,-19.07,81.58
235470,2018-06-29 10:47:30.437500,-25.3,81.58
235471,2018-06-29 10:47:30.468750,-35.63,81.58
235472,2018-06-29 10:47:30.500000,-25.04,81.58
235473,2018-06-29 10:47:30.531250,21.19,81.53
235474,2018-06-29 10:47:30.562500,89.58,81.53
235475,2018-06-29 10:47:30.593750,146.87,81.53
235476,2018-06-29 10:47:30.625000,163.57,81.53
235477,2018-06-29 10:47:30.656250,132.75,81.53
235478,2018-06-29 10:47:30.687500,72.63,81.53
235479,2018-06-29 10:47:30.718750,11.27,81.53
235480,2018-06-29 10:47:30.750000,-34.3,81.53
235481,2018-06-29 10:47:30.781250,-64.35,81.53
235482,2018-06-29 10:47:30.812500,-84.48,81.53
235483,2018-06-29 10:47:30.843750,-94.2,81.53
235484,2018-06-29 10:47:30.875000,-92.12,81.53
235485,2018-06-29 10:47:30.906250,-85.44,81.53
235486,2018-06-29 10:47:30.937500,-86.06,81.53
235487,2018-06-29 10:47:30.968750,-97.32,81.53
235488,2018-06-29 10:47:31.000000,-105.34,81.53
235489,2018-06-29 10:47:31.031250,-86.54,81.53
235490,2018-06-29 10:47:31.062500,-29.11,81.53
235491,2018-06-29 10:47:31.093750,51.61,81.53
235492,2018-06-29 10:47:31.125000,120.94,81.53
235493,2018-06-29 10:47:31.156250,149.52,81.53
235494,2018-06-29 10:47:31.187500,132.97,81.53
235495,2018-06-29 10:47:31.218750,90.12,81.53
235496,2018-06-29 10:47:31.250000,44.41,81.53
235497,2018-06-29 10:47:31.281250,10.44,81.53
235498,2018-06-29 10:47:31.312500,-5.47,81.53
235499,2018-06-29 10:47:31.343750,-4.26,81.53
235500,2018-06-29 10:47:31.375000,6.09,81.53
235501,2018-06-29 10:47:31.406250,18.59,81.53
235502,2018-06-29 10:47:31.437500,31.18,81.53
235503,2018-06-29 10:47:31.468750,37.02,81.53
235504,2018-06-29 10:47:31.500000,22.58,81.53
235505,2018-06-29 10:47:31.531250,-16.43,81.55
235506,2018-06-29 10:47:31.562500,-66.05,81.55
235507,2018-06-29 10:47:31.593750,-105.07,81.55
235508,2018-06-29 10:47:31.625000,-118.67,81.55
235509,2018-06-29 10:47:31.656250,-104.09,81.55
235510,2018-06-29 10:47:31.687500,-72.23,81.55
235511,2018-06-29 10:47:31.718750,-40.04,81.55
235512,2018-06-29 10:47:31.750000,-18.25,81.55
235513,2018-06-29 10:47:31.781250,-9.4,81.55
235514,2018-06-29 10:47:31.812500,-11.46,81.55
235515,2018-06-29 10:47:31.843750,-14.34,81.55
235516,2018-06-29 10:47:31.875000,-3.28,81.55
235517,2018-06-29 10:47:31.906250,23.55,81.55
235518,2018-06-29 10:47:31.937500,50.11,81.55
235519,2018-06-29 10:47:31.968750,62.03,81.55
235520,2018-06-29 10:47:32.000000,60.94,81.55
235521,2018-06-29 10:47:32.031250,55.64,81.55
235522,2018-06-29 10:47:32.062500,49.76,81.55
235523,2018-06-29 10:47:32.093750,46.46,81.55
235524,2018-06-29 10:47:32.125000,55.03,81.55
235525,2018-06-29 10:47:32.156250,81.16,81.55
235526,2018-06-29 10:47:32.187500,115.02,81.55
235527,2018-06-29 10:47:32.218750,136.74,81.55
235528,2018-06-29 10:47:32.250000,131.03,81.55
235529,2018-06-29 10:47:32.281250,95.02,81.55
235530,2018-06-29 10:47:32.312500,37.96,81.55
235531,2018-06-29 10:47:32.343750,-24.48,81.55
235532,2018-06-29 10:47:32.375000,-80.02,81.55
235533,2018-06-29 10:47:32.406250,-123.96,81.55
235534,2018-06-29 10:47:32.437500,-150.3,81.55
235535,2018-06-29 10:47:32.468750,-145.5,81.55
235536,2018-06-29 10:47:32.500000,-100.11,81.55
235537,2018-06-29 10:47:32.531250,-25.97,81.58
235538,2018-06-29 10:47:32.562500,46.6,81.58
235539,2018-06-29 10:47:32.593750,88.6,81.58
235540,2018-06-29 10:47:32.625000,89.75,81.58
235541,2018-06-29 10:47:32.656250,63.0,81.58
235542,2018-06-29 10:47:32.687500,32.35,81.58
235543,2018-06-29 10:47:32.718750,12.88,81.58
235544,2018-06-29 10:47:32.750000,6.42,81.58
235545,2018-06-29 10:47:32.781250,12.36,81.58
235546,2018-06-29 10:47:32.812500,28.33,81.58
235547,2018-06-29 10:47:32.843750,41.88,81.58
235548,2018-06-29 10:47:32.875000,37.31,81.58
235549,2018-06-29 10:47:32.906250,11.05,81.58
235550,2018-06-29 10:47:32.937500,-26.7,81.58
235551,2018-06-29 10:47:32.968750,-61.48,81.58
235552,2018-06-29 10:47:33.000000,-82.45,81.58
235553,2018-06-29 10:47:33.031250,-86.83,81.58
235554,2018-06-29 10:47:33.062500,-81.06,81.58
235555,2018-06-29 10:47:33.093750,-75.4,81.58
235556,2018-06-29 10:47:33.125000,-77.24,81.58
235557,2018-06-29 10:47:33.156250,-88.63,81.58
235558,2018-06-29 10:47:33.187500,-105.64,81.58
235559,2018-06-29 10:47:33.218750,-113.84,81.58
235560,2018-06-29 10:47:33.250000,-92.28,81.58
235561,2018-06-29 10:47:33.281250,-34.14,81.58
235562,2018-06-29 10:47:33.312500,41.9,81.58
235563,2018-06-29 10:47:33.343750,109.8,81.58
235564,2018-06-29 10:47:33.375000,153.45,81.58
235565,2018-06-29 10:47:33.406250,162.16,81.58
235566,2018-06-29 10:47:33.437500,131.63,81.58
235567,2018-06-29 10:47:33.468750,77.0,81.58
235568,2018-06-29 10:47:33.500000,26.02,81.58
235569,2018-06-29 10:47:33.531250,-4.38,81.63
235570,2018-06-29 10:47:33.562500,-15.29,81.63
235571,2018-06-29 10:47:33.593750,-15.06,81.63
235572,2018-06-29 10:47:33.625000,-8.14,81.63
235573,2018-06-29 10:47:33.656250,5.77,81.63
235574,2018-06-29 10:47:33.687500,24.05,81.63
235575,2018-06-29 10:47:33.718750,36.02,81.63
235576,2018-06-29 10:47:33.750000,25.84,81.63
235577,2018-06-29 10:47:33.781250,-12.69,81.63
235578,2018-06-29 10:47:33.812500,-60.37,81.63
235579,2018-06-29 10:47:33.843750,-83.28,81.63
235580,2018-06-29 10:47:33.875000,-68.83,81.63
235581,2018-06-29 10:47:33.906250,-38.13,81.63
235582,2018-06-29 10:47:33.937500,-19.75,81.63
235583,2018-06-29 10:47:33.968750,-27.28,81.63
235584,2018-06-29 10:47:34.000000,-56.34,81.63
235585,2018-06-29 10:47:34.031250,-87.71,81.63
235586,2018-06-29 10:47:34.062500,-99.64,81.63
235587,2018-06-29 10:47:34.093750,-85.42,81.63
235588,2018-06-29 10:47:34.125000,-54.55,81.63
235589,2018-06-29 10:47:34.156250,-18.48,81.63
235590,2018-06-29 10:47:34.187500,16.9,81.63
235591,2018-06-29 10:47:34.218750,48.0,81.63
235592,2018-06-29 10:47:34.250000,69.88,81.63
235593,2018-06-29 10:47:34.281250,78.92,81.63
235594,2018-06-29 10:47:34.312500,77.98,81.63
235595,2018-06-29 10:47:34.343750,73.93,81.63
235596,2018-06-29 10:47:34.375000,73.63,81.63
235597,2018-06-29 10:47:34.406250,84.22,81.63
235598,2018-06-29 10:47:34.437500,108.15,81.63
235599,2018-06-29 10:47:34.468750,134.12,81.63
235600,2018-06-29 10:47:34.500000,141.62,81.63
235601,2018-06-29 10:47:34.531250,118.59,81.68
235602,2018-06-29 10:47:34.562500,71.06,81.68
235603,2018-06-29 10:47:34.593750,16.25,81.68
235604,2018-06-29 10:47:34.625000,-31.01,81.68
235605,2018-06-29 10:47:34.656250,-65.7,81.68
235606,2018-06-29 10:47:34.687500,-89.51,81.68
235607,2018-06-29 10:47:34.718750,-104.61,81.68
235608,2018-06-29 10:47:34.750000,-107.37,81.68
235609,2018-06-29 10:47:34.781250,-86.8,81.68
235610,2018-06-29 10:47:34.812500,-39.42,81.68
235611,2018-06-29 10:47:34.843750,14.42,81.68
235612,2018-06-29 10:47:34.875000,43.22,81.68
235613,2018-06-29 10:47:34.906250,37.01,81.68
235614,2018-06-29 10:47:34.937500,15.48,81.68
235615,2018-06-29 10:47:34.968750,2.56,81.68
235616,2018-06-29 10:47:35.000000,5.69,81.68
235617,2018-06-29 10:47:35.031250,18.31,81.68
235618,2018-06-29 10:47:35.062500,27.62,81.68
235619,2018-06-29 10:47:35.093750,18.53,81.68
235620,2018-06-29 10:47:35.125000,-16.09,81.68
235621,2018-06-29 10:47:35.156250,-64.98,81.68
235622,2018-06-29 10:47:35.187500,-106.95,81.68
235623,2018-06-29 10:47:35.218750,-129.72,81.68
235624,2018-06-29 10:47:35.250000,-134.81,81.68
235625,2018-06-29 10:47:35.281250,-127.63,81.68
235626,2018-06-29 10:47:35.312500,-110.51,81.68
235627,2018-06-29 10:47:35.343750,-84.88,81.68
235628,2018-06-29 10:47:35.375000,-55.12,81.68
235629,2018-06-29 10:47:35.406250,-28.63,81.68
235630,2018-06-29 10:47:35.437500,-11.45,81.68
235631,2018-06-29 10:47:35.468750,-0.75,81.68
235632,2018-06-29 10:47:35.500000,16.55,81.68
235633,2018-06-29 10:47:35.531250,50.84,81.73
235634,2018-06-29 10:47:35.562500,97.7,81.73
235635,2018-06-29 10:47:35.593750,142.59,81.73
235636,2018-06-29 10:47:35.625000,170.34,81.73
235637,2018-06-29 10:47:35.656250,168.49,81.73
235638,2018-06-29 10:47:35.687500,133.91,81.73
235639,2018-06-29 10:47:35.718750,80.06,81.73
235640,2018-06-29 10:47:35.750000,28.38,81.73
235641,2018-06-29 10:47:35.781250,-7.56,81.73
235642,2018-06-29 10:47:35.812500,-26.0,81.73
235643,2018-06-29 10:47:35.843750,-31.73,81.73
235644,2018-06-29 10:47:35.875000,-28.63,81.73
235645,2018-06-29 10:47:35.906250,-15.43,81.73
235646,2018-06-29 10:47:35.937500,7.74,81.73
235647,2018-06-29 10:47:35.968750,29.41,81.73
235648,2018-06-29 10:47:36.000000,31.42,81.73
235649,2018-06-29 10:47:36.031250,6.46,81.73
235650,2018-06-29 10:47:36.062500,-33.12,81.73
235651,2018-06-29 10:47:36.093750,-65.88,81.73
235652,2018-06-29 10:47:36.125000,-80.96,81.73
235653,2018-06-29 10:47:36.156250,-85.46,81.73
235654,2018-06-29 10:47:36.187500,-91.21,81.73
235655,2018-06-29 10:47:36.218750,-99.31,81.73
235656,2018-06-29 10:47:36.250000,-102.14,81.73
235657,2018-06-29 10:47:36.281250,-95.42,81.73
235658,2018-06-29 10:47:36.312500,-81.35,81.73
235659,2018-06-29 10:47:36.343750,-63.23,81.73
235660,2018-06-29 10:47:36.375000,-42.98,81.73
235661,2018-06-29 10:47:36.406250,-22.22,81.73
235662,2018-06-29 10:47:36.437500,-2.35,81.73
235663,2018-06-29 10:47:36.468750,16.67,81.73
235664,2018-06-29 10:47:36.500000,35.72,81.73
235665,2018-06-29 10:47:36.531250,54.42,81.73
235666,2018-06-29 10:47:36.562500,69.51,81.73
235667,2018-06-29 10:47:36.593750,78.09,81.73
235668,2018-06-29 10:47:36.625000,83.03,81.73
235669,2018-06-29 10:47:36.656250,89.8,81.73
235670,2018-06-29 10:47:36.687500,98.28,81.73
235671,2018-06-29 10:47:36.718750,105.08,81.73
235672,2018-06-29 10:47:36.750000,110.18,81.73
235673,2018-06-29 10:47:36.781250,110.71,81.73
235674,2018-06-29 10:47:36.812500,94.94,81.73
235675,2018-06-29 10:47:36.843750,54.86,81.73
235676,2018-06-29 10:47:36.875000,-1.57,81.73
235677,2018-06-29 10:47:36.906250,-57.97,81.73
235678,2018-06-29 10:47:36.937500,-98.57,81.73
235679,2018-06-29 10:47:36.968750,-108.56,81.73
235680,2018-06-29 10:47:37.000000,-82.51,81.73
235681,2018-06-29 10:47:37.031250,-34.05,81.73
235682,2018-06-29 10:47:37.062500,16.05,81.73
235683,2018-06-29 10:47:37.093750,57.16,81.73
235684,2018-06-29 10:47:37.125000,83.97,81.73
235685,2018-06-29 10:47:37.156250,86.93,81.73
235686,2018-06-29 10:47:37.187500,62.58,81.73
235687,2018-06-29 10:47:37.218750,23.55,81.73
235688,2018-06-29 10:47:37.250000,-12.3,81.73
235689,2018-06-29 10:47:37.281250,-33.74,81.73
235690,2018-06-29 10:47:37.312500,-34.12,81.73
235691,2018-06-29 10:47:37.343750,-15.1,81.73
235692,2018-06-29 10:47:37.375000,3.92,81.73
235693,2018-06-29 10:47:37.406250,-2.93,81.73
235694,2018-06-29 10:47:37.437500,-41.76,81.73
235695,2018-06-29 10:47:37.468750,-94.2,81.73
235696,2018-06-29 10:47:37.500000,-138.22,81.73
235697,2018-06-29 10:47:37.531250,-164.16,81.67
235698,2018-06-29 10:47:37.562500,-172.75,81.67
235699,2018-06-29 10:47:37.593750,-168.52,81.67
235700,2018-06-29 10:47:37.625000,-155.73,81.67
235701,2018-06-29 10:47:37.656250,-133.14,81.67
235702,2018-06-29 10:47:37.687500,-94.44,81.67
235703,2018-06-29 10:47:37.718750,-41.03,81.67
235704,2018-06-29 10:47:37.750000,13.54,81.67
235705,2018-06-29 10:47:37.781250,56.84,81.67
235706,2018-06-29 10:47:37.812500,87.35,81.67
235707,2018-06-29 10:47:37.843750,108.42,81.67
235708,2018-06-29 10:47:37.875000,123.3,81.67
235709,2018-06-29 10:47:37.906250,135.35,81.67
235710,2018-06-29 10:47:37.937500,141.77,81.67
235711,2018-06-29 10:47:37.968750,131.06,81.67
235712,2018-06-29 10:47:38.000000,98.25,81.67
235713,2018-06-29 10:47:38.031250,56.03,81.67
235714,2018-06-29 10:47:38.062500,21.67,81.67
235715,2018-06-29 10:47:38.093750,1.32,81.67
235716,2018-06-29 10:47:38.125000,-7.61,81.67
235717,2018-06-29 10:47:38.156250,-8.32,81.67
235718,2018-06-29 10:47:38.187500,-1.8,81.67
235719,2018-06-29 10:47:38.218750,10.67,81.67
235720,2018-06-29 10:47:38.250000,22.88,81.67
235721,2018-06-29 10:47:38.281250,24.47,81.67
235722,2018-06-29 10:47:38.312500,11.42,81.67
235723,2018-06-29 10:47:38.343750,-7.17,81.67
235724,2018-06-29 10:47:38.375000,-18.23,81.67
235725,2018-06-29 10:47:38.406250,-17.52,81.67
235726,2018-06-29 10:47:38.437500,-9.59,81.67
235727,2018-06-29 10:47:38.468750,2.01,81.67
235728,2018-06-29 10:47:38.500000,17.88,81.67
235729,2018-06-29 10:47:38.531250,33.6,81.63
235730,2018-06-29 10:47:38.562500,35.92,81.63
235731,2018-06-29 10:47:38.593750,14.75,81.63
235732,2018-06-29 10:47:38.625000,-25.28,81.63
235733,2018-06-29 10:47:38.656250,-67.94,81.63
235734,2018-06-29 10:47:38.687500,-95.63,81.63
235735,2018-06-29 10:47:38.718750,-97.89,81.63
235736,2018-06-29 10:47:38.750000,-79.91,81.63
235737,2018-06-29 10:47:38.781250,-61.36,81.63
235738,2018-06-29 10:47:38.812500,-57.45,81.63
235739,2018-06-29 10:47:38.843750,-62.04,81.63
235740,2018-06-29 10:47:38.875000,-57.44,81.63
235741,2018-06-29 10:47:38.906250,-38.94,81.63
235742,2018-06-29 10:47:38.937500,-21.23,81.63
235743,2018-06-29 10:47:38.968750,-19.35,81.63
235744,2018-06-29 10:47:39.000000,-28.79,81.63
235745,2018-06-29 10:47:39.031250,-26.49,81.63
235746,2018-06-29 10:47:39.062500,7.36,81.63
235747,2018-06-29 10:47:39.093750,65.54,81.63
235748,2018-06-29 10:47:39.125000,114.22,81.63
235749,2018-06-29 10:47:39.156250,124.08,81.63
235750,2018-06-29 10:47:39.187500,97.75,81.63
235751,2018-06-29 10:47:39.218750,61.91,81.63
235752,2018-06-29 10:47:39.250000,39.04,81.63
235753,2018-06-29 10:47:39.281250,32.04,81.63
235754,2018-06-29 10:47:39.312500,32.28,81.63
235755,2018-06-29 10:47:39.343750,35.85,81.63
235756,2018-06-29 10:47:39.375000,45.6,81.63
235757,2018-06-29 10:47:39.406250,58.52,81.63
235758,2018-06-29 10:47:39.437500,58.34,81.63
235759,2018-06-29 10:47:39.468750,26.5,81.63
235760,2018-06-29 10:47:39.500000,-35.42,81.63
235761,2018-06-29 10:47:39.531250,-96.03,81.62
235762,2018-06-29 10:47:39.562500,-115.58,81.62
235763,2018-06-29 10:47:39.593750,-82.64,81.62
235764,2018-06-29 10:47:39.625000,-27.48,81.62
235765,2018-06-29 10:47:39.656250,1.61,81.62
235766,2018-06-29 10:47:39.687500,-22.59,81.62
235767,2018-06-29 10:47:39.718750,-82.97,81.62
235768,2018-06-29 10:47:39.750000,-134.55,81.62
235769,2018-06-29 10:47:39.781250,-146.78,81.62
235770,2018-06-29 10:47:39.812500,-123.45,81.62
235771,2018-06-29 10:47:39.843750,-84.58,81.62
235772,2018-06-29 10:47:39.875000,-44.58,81.62
235773,2018-06-29 10:47:39.906250,-9.48,81.62
235774,2018-06-29 10:47:39.937500,21.42,81.62
235775,2018-06-29 10:47:39.968750,54.85,81.62
235776,2018-06-29 10:47:40.000000,91.85,81.62
235777,2018-06-29 10:47:40.031250,119.58,81.62
235778,2018-06-29 10:47:40.062500,127.02,81.62
235779,2018-06-29 10:47:40.093750,123.9,81.62
235780,2018-06-29 10:47:40.125000,130.14,81.62
235781,2018-06-29 10:47:40.156250,150.67,81.62
235782,2018-06-29 10:47:40.187500,170.4,81.62
235783,2018-06-29 10:47:40.218750,167.97,81.62
235784,2018-06-29 10:47:40.250000,132.24,81.62
235785,2018-06-29 10:47:40.281250,72.41,81.62
235786,2018-06-29 10:47:40.312500,8.27,81.62
235787,2018-06-29 10:47:40.343750,-51.32,81.62
235788,2018-06-29 10:47:40.375000,-107.54,81.62
235789,2018-06-29 10:47:40.406250,-150.22,81.62
235790,2018-06-29 10:47:40.437500,-157.57,81.62
235791,2018-06-29 10:47:40.468750,-121.36,81.62
235792,2018-06-29 10:47:40.500000,-56.33,81.62
235793,2018-06-29 10:47:40.531250,15.33,81.58
235794,2018-06-29 10:47:40.562500,74.56,81.58
235795,2018-06-29 10:47:40.593750,104.55,81.58
235796,2018-06-29 10:47:40.625000,94.98,81.58
235797,2018-06-29 10:47:40.656250,49.63,81.58
235798,2018-06-29 10:47:40.687500,-9.88,81.58
235799,2018-06-29 10:47:40.718750,-46.99,81.58
235800,2018-06-29 10:47:40.750000,-31.39,81.58
235801,2018-06-29 10:47:40.781250,27.42,81.58
235802,2018-06-29 10:47:40.812500,81.62,81.58
235803,2018-06-29 10:47:40.843750,90.85,81.58
235804,2018-06-29 10:47:40.875000,51.36,81.58
235805,2018-06-29 10:47:40.906250,-18.89,81.58
235806,2018-06-29 10:47:40.937500,-98.51,81.58
235807,2018-06-29 10:47:40.968750,-164.32,81.58
235808,2018-06-29 10:47:41.000000,-198.38,81.58
235809,2018-06-29 10:47:41.031250,-200.15,81.58
235810,2018-06-29 10:47:41.062500,-182.61,81.58
235811,2018-06-29 10:47:41.093750,-157.46,81.58
235812,2018-06-29 10:47:41.125000,-127.98,81.58
235813,2018-06-29 10:47:41.156250,-91.3,81.58
235814,2018-06-29 10:47:41.187500,-43.3,81.58
235815,2018-06-29 10:47:41.218750,14.47,81.58
235816,2018-06-29 10:47:41.250000,70.18,81.58
235817,2018-06-29 10:47:41.281250,110.27,81.58
235818,2018-06-29 10:47:41.312500,132.46,81.58
235819,2018-06-29 10:47:41.343750,144.68,81.58
235820,2018-06-29 10:47:41.375000,153.05,81.58
235821,2018-06-29 10:47:41.406250,154.01,81.58
235822,2018-06-29 10:47:41.437500,137.94,81.58
235823,2018-06-29 10:47:41.468750,101.5,81.58
235824,2018-06-29 10:47:41.500000,54.26,81.58
235825,2018-06-29 10:47:41.531250,11.97,81.58
235826,2018-06-29 10:47:41.562500,-13.01,81.58
235827,2018-06-29 10:47:41.593750,-17.73,81.58
235828,2018-06-29 10:47:41.625000,-11.04,81.58
235829,2018-06-29 10:47:41.656250,-3.91,81.58
235830,2018-06-29 10:47:41.687500,2.63,81.58
235831,2018-06-29 10:47:41.718750,9.92,81.58
235832,2018-06-29 10:47:41.750000,8.54,81.58
235833,2018-06-29 10:47:41.781250,-13.78,81.58
235834,2018-06-29 10:47:41.812500,-55.05,81.58
235835,2018-06-29 10:47:41.843750,-92.55,81.58
235836,2018-06-29 10:47:41.875000,-92.94,81.58
235837,2018-06-29 10:47:41.906250,-37.75,81.58
235838,2018-06-29 10:47:41.937500,52.49,81.58
235839,2018-06-29 10:47:41.968750,128.05,81.58
235840,2018-06-29 10:47:42.000000,149.94,81.58
235841,2018-06-29 10:47:42.031250,116.51,81.58
235842,2018-06-29 10:47:42.062500,53.42,81.58
235843,2018-06-29 10:47:42.093750,-11.46,81.58
235844,2018-06-29 10:47:42.125000,-61.12,81.58
235845,2018-06-29 10:47:42.156250,-88.7,81.58
235846,2018-06-29 10:47:42.187500,-93.05,81.58
235847,2018-06-29 10:47:42.218750,-77.04,81.58
235848,2018-06-29 10:47:42.250000,-51.0,81.58
235849,2018-06-29 10:47:42.281250,-31.32,81.58
235850,2018-06-29 10:47:42.312500,-29.05,81.58
235851,2018-06-29 10:47:42.343750,-39.12,81.58
235852,2018-06-29 10:47:42.375000,-44.29,81.58
235853,2018-06-29 10:47:42.406250,-34.02,81.58
235854,2018-06-29 10:47:42.437500,-19.0,81.58
235855,2018-06-29 10:47:42.468750,-20.09,81.58
235856,2018-06-29 10:47:42.500000,-39.14,81.58
235857,2018-06-29 10:47:42.531250,-51.82,81.57
235858,2018-06-29 10:47:42.562500,-35.24,81.57
235859,2018-06-29 10:47:42.593750,6.71,81.57
235860,2018-06-29 10:47:42.625000,49.3,81.57
235861,2018-06-29 10:47:42.656250,70.06,81.57
235862,2018-06-29 10:47:42.687500,64.93,81.57
235863,2018-06-29 10:47:42.718750,48.17,81.57
235864,2018-06-29 10:47:42.750000,37.23,81.57
235865,2018-06-29 10:47:42.781250,38.23,81.57
235866,2018-06-29 10:47:42.812500,46.77,81.57
235867,2018-06-29 10:47:42.843750,56.5,81.57
235868,2018-06-29 10:47:42.875000,62.72,81.57
235869,2018-06-29 10:47:42.906250,60.91,81.57
235870,2018-06-29 10:47:42.937500,44.99,81.57
235871,2018-06-29 10:47:42.968750,9.61,81.57
235872,2018-06-29 10:47:43.000000,-39.51,81.57
235873,2018-06-29 10:47:43.031250,-78.49,81.57
235874,2018-06-29 10:47:43.062500,-79.83,81.57
235875,2018-06-29 10:47:43.093750,-41.46,81.57
235876,2018-06-29 10:47:43.125000,3.82,81.57
235877,2018-06-29 10:47:43.156250,19.34,81.57
235878,2018-06-29 10:47:43.187500,0.54,81.57
235879,2018-06-29 10:47:43.218750,-32.29,81.57
235880,2018-06-29 10:47:43.250000,-64.6,81.57
235881,2018-06-29 10:47:43.281250,-91.38,81.57
235882,2018-06-29 10:47:43.312500,-104.06,81.57
235883,2018-06-29 10:47:43.343750,-95.17,81.57
235884,2018-06-29 10:47:43.375000,-69.77,81.57
235885,2018-06-29 10:47:43.406250,-41.95,81.57
235886,2018-06-29 10:47:43.437500,-22.61,81.57
235887,2018-06-29 10:47:43.468750,-11.12,81.57
235888,2018-06-29 10:47:43.500000,1.03,81.57
235889,2018-06-29 10:47:43.531250,17.48,81.6
235890,2018-06-29 10:47:43.562500,30.89,81.6
235891,2018-06-29 10:47:43.593750,33.17,81.6
235892,2018-06-29 10:47:43.625000,26.28,81.6
235893,2018-06-29 10:47:43.656250,19.46,81.6
235894,2018-06-29 10:47:43.687500,19.31,81.6
235895,2018-06-29 10:47:43.718750,21.44,81.6
235896,2018-06-29 10:47:43.750000,11.03,81.6
235897,2018-06-29 10:47:43.781250,-19.64,81.6
235898,2018-06-29 10:47:43.812500,-53.15,81.6
235899,2018-06-29 10:47:43.843750,-59.68,81.6
235900,2018-06-29 10:47:43.875000,-29.08,81.6
235901,2018-06-29 10:47:43.906250,20.75,81.6
235902,2018-06-29 10:47:43.937500,66.89,81.6
235903,2018-06-29 10:47:43.968750,99.94,81.6
235904,2018-06-29 10:47:44.000000,118.47,81.6
235905,2018-06-29 10:47:44.031250,117.1,81.6
235906,2018-06-29 10:47:44.062500,88.25,81.6
235907,2018-06-29 10:47:44.093750,35.12,81.6
235908,2018-06-29 10:47:44.125000,-20.13,81.6
235909,2018-06-29 10:47:44.156250,-48.96,81.6
235910,2018-06-29 10:47:44.187500,-38.46,81.6
235911,2018-06-29 10:47:44.218750,-2.96,81.6
235912,2018-06-29 10:47:44.250000,25.12,81.6
235913,2018-06-29 10:47:44.281250,18.64,81.6
235914,2018-06-29 10:47:44.312500,-25.82,81.6
235915,2018-06-29 10:47:44.343750,-88.67,81.6
235916,2018-06-29 10:47:44.375000,-149.91,81.6
235917,2018-06-29 10:47:44.406250,-196.09,81.6
235918,2018-06-29 10:47:44.437500,-213.5,81.6
235919,2018-06-29 10:47:44.468750,-187.29,81.6
235920,2018-06-29 10:47:44.500000,-120.18,81.6
235921,2018-06-29 10:47:44.531250,-38.38,81.62
235922,2018-06-29 10:47:44.562500,36.26,81.62
235923,2018-06-29 10:47:44.593750,98.49,81.62
235924,2018-06-29 10:47:44.625000,151.2,81.62
235925,2018-06-29 10:47:44.656250,184.28,81.62
235926,2018-06-29 10:47:44.687500,195.12,81.62
235927,2018-06-29 10:47:44.718750,197.39,81.62
235928,2018-06-29 10:47:44.750000,208.89,81.62
235929,2018-06-29 10:47:44.781250,228.03,81.62
235930,2018-06-29 10:47:44.812500,227.32,81.62
235931,2018-06-29 10:47:44.843750,184.71,81.62
235932,2018-06-29 10:47:44.875000,72.96,81.62
235933,2018-06-29 10:47:44.906250,-62.18,81.62
235934,2018-06-29 10:47:44.937500,-131.4,81.62
235935,2018-06-29 10:47:44.968750,-140.62,81.62
235936,2018-06-29 10:47:45.000000,-128.25,81.62
235937,2018-06-29 10:47:45.031250,-106.12,81.62
235938,2018-06-29 10:47:45.062500,-82.95,81.62
235939,2018-06-29 10:47:45.093750,-73.82,81.62
235940,2018-06-29 10:47:45.125000,-74.38,81.62
235941,2018-06-29 10:47:45.156250,-73.02,81.62
235942,2018-06-29 10:47:45.187500,-57.31,81.62
235943,2018-06-29 10:47:45.218750,-25.75,81.62
235944,2018-06-29 10:47:45.250000,18.7,81.62
235945,2018-06-29 10:47:45.281250,69.13,81.62
235946,2018-06-29 10:47:45.312500,114.06,81.62
235947,2018-06-29 10:47:45.343750,134.51,81.62
235948,2018-06-29 10:47:45.375000,107.75,81.62
235949,2018-06-29 10:47:45.406250,49.53,81.62
235950,2018-06-29 10:47:45.437500,-11.43,81.62
235951,2018-06-29 10:47:45.468750,-56.89,81.62
235952,2018-06-29 10:47:45.500000,-82.58,81.62
235953,2018-06-29 10:47:45.531250,-86.96,81.67
235954,2018-06-29 10:47:45.562500,-75.34,81.67
235955,2018-06-29 10:47:45.593750,-57.55,81.67
235956,2018-06-29 10:47:45.625000,-44.27,81.67
235957,2018-06-29 10:47:45.656250,-43.0,81.67
235958,2018-06-29 10:47:45.687500,-46.11,81.67
235959,2018-06-29 10:47:45.718750,-37.68,81.67
235960,2018-06-29 10:47:45.750000,-13.41,81.67
235961,2018-06-29 10:47:45.781250,13.29,81.67
235962,2018-06-29 10:47:45.812500,28.75,81.67
235963,2018-06-29 10:47:45.843750,31.97,81.67
235964,2018-06-29 10:47:45.875000,29.42,81.67
235965,2018-06-29 10:47:45.906250,24.3,81.67
235966,2018-06-29 10:47:45.937500,14.9,81.67
235967,2018-06-29 10:47:45.968750,0.91,81.67
235968,2018-06-29 10:47:46.000000,-12.96,81.67
235969,2018-06-29 10:47:46.031250,-20.72,81.67
235970,2018-06-29 10:47:46.062500,-21.02,81.67
235971,2018-06-29 10:47:46.093750,-15.15,81.67
235972,2018-06-29 10:47:46.125000,-5.76,81.67
235973,2018-06-29 10:47:46.156250,0.63,81.67
235974,2018-06-29 10:47:46.187500,-1.44,81.67
235975,2018-06-29 10:47:46.218750,-7.54,81.67
235976,2018-06-29 10:47:46.250000,-8.8,81.67
235977,2018-06-29 10:47:46.281250,-8.46,81.67
235978,2018-06-29 10:47:46.312500,-21.64,81.67
235979,2018-06-29 10:47:46.343750,-52.93,81.67
235980,2018-06-29 10:47:46.375000,-82.52,81.67
235981,2018-06-29 10:47:46.406250,-82.16,81.67
235982,2018-06-29 10:47:46.437500,-46.23,81.67
235983,2018-06-29 10:47:46.468750,6.19,81.67
235984,2018-06-29 10:47:46.500000,51.33,81.67
235985,2018-06-29 10:47:46.531250,71.39,81.7
235986,2018-06-29 10:47:46.562500,58.47,81.7
235987,2018-06-29 10:47:46.593750,22.48,81.7
235988,2018-06-29 10:47:46.625000,-12.96,81.7
235989,2018-06-29 10:47:46.656250,-29.16,81.7
235990,2018-06-29 10:47:46.687500,-24.68,81.7
235991,2018-06-29 10:47:46.718750,-8.08,81.7
235992,2018-06-29 10:47:46.750000,17.36,81.7
235993,2018-06-29 10:47:46.781250,52.31,81.7
235994,2018-06-29 10:47:46.812500,86.82,81.7
235995,2018-06-29 10:47:46.843750,102.43,81.7
235996,2018-06-29 10:47:46.875000,94.8,81.7
235997,2018-06-29 10:47:46.906250,80.19,81.7
235998,2018-06-29 10:47:46.937500,76.76,81.7
235999,2018-06-29 10:47:46.968750,89.64,81.7
236000,2018-06-29 10:47:47.000000,102.53,81.7
236001,2018-06-29 10:47:47.031250,81.23,81.7
236002,2018-06-29 10:47:47.062500,15.81,81.7
236003,2018-06-29 10:47:47.093750,-44.05,81.7
236004,2018-06-29 10:47:47.125000,-46.09,81.7
236005,2018-06-29 10:47:47.156250,-7.82,81.7
236006,2018-06-29 10:47:47.187500,15.06,81.7
236007,2018-06-29 10:47:47.218750,4.76,81.7
236008,2018-06-29 10:47:47.250000,-18.0,81.7
236009,2018-06-29 10:47:47.281250,-35.8,81.7
236010,2018-06-29 10:47:47.312500,-44.9,81.7
236011,2018-06-29 10:47:47.343750,-55.07,81.7
236012,2018-06-29 10:47:47.375000,-74.05,81.7
236013,2018-06-29 10:47:47.406250,-92.37,81.7
236014,2018-06-29 10:47:47.437500,-97.3,81.7
236015,2018-06-29 10:47:47.468750,-93.61,81.7
236016,2018-06-29 10:47:47.500000,-92.84,81.7
236017,2018-06-29 10:47:47.531250,-89.97,81.75
236018,2018-06-29 10:47:47.562500,-68.88,81.75
236019,2018-06-29 10:47:47.593750,-12.91,81.75
236020,2018-06-29 10:47:47.625000,71.81,81.75
236021,2018-06-29 10:47:47.656250,148.88,81.75
236022,2018-06-29 10:47:47.687500,149.08,81.75
236023,2018-06-29 10:47:47.718750,58.93,81.75
236024,2018-06-29 10:47:47.750000,-39.73,81.75
236025,2018-06-29 10:47:47.781250,-88.77,81.75
236026,2018-06-29 10:47:47.812500,-90.55,81.75
236027,2018-06-29 10:47:47.843750,-69.16,81.75
236028,2018-06-29 10:47:47.875000,-40.04,81.75
236029,2018-06-29 10:47:47.906250,-20.35,81.75
236030,2018-06-29 10:47:47.937500,-12.07,81.75
236031,2018-06-29 10:47:47.968750,-3.78,81.75
236032,2018-06-29 10:47:48.000000,15.13,81.75
236033,2018-06-29 10:47:48.031250,36.95,81.75
236034,2018-06-29 10:47:48.062500,48.5,81.75
236035,2018-06-29 10:47:48.093750,49.44,81.75
236036,2018-06-29 10:47:48.125000,50.93,81.75
236037,2018-06-29 10:47:48.156250,60.11,81.75
236038,2018-06-29 10:47:48.187500,73.17,81.75
236039,2018-06-29 10:47:48.218750,83.49,81.75
236040,2018-06-29 10:47:48.250000,82.2,81.75
236041,2018-06-29 10:47:48.281250,61.32,81.75
236042,2018-06-29 10:47:48.312500,21.58,81.75
236043,2018-06-29 10:47:48.343750,-25.03,81.75
236044,2018-06-29 10:47:48.375000,-67.14,81.75
236045,2018-06-29 10:47:48.406250,-98.09,81.75
236046,2018-06-29 10:47:48.437500,-109.06,81.75
236047,2018-06-29 10:47:48.468750,-91.88,81.75
236048,2018-06-29 10:47:48.500000,-47.28,81.75
236049,2018-06-29 10:47:48.531250,12.46,81.8
236050,2018-06-29 10:47:48.562500,65.37,81.8
236051,2018-06-29 10:47:48.593750,84.8,81.8
236052,2018-06-29 10:47:48.625000,56.4,81.8
236053,2018-06-29 10:47:48.656250,-1.51,81.8
236054,2018-06-29 10:47:48.687500,-43.59,81.8
236055,2018-06-29 10:47:48.718750,-33.08,81.8
236056,2018-06-29 10:47:48.750000,25.29,81.8
236057,2018-06-29 10:47:48.781250,88.51,81.8
236058,2018-06-29 10:47:48.812500,112.03,81.8
236059,2018-06-29 10:47:48.843750,81.68,81.8
236060,2018-06-29 10:47:48.875000,14.81,81.8
236061,2018-06-29 10:47:48.906250,-58.87,81.8
236062,2018-06-29 10:47:48.937500,-114.02,81.8
236063,2018-06-29 10:47:48.968750,-138.11,81.8
236064,2018-06-29 10:47:49.000000,-134.82,81.8
236065,2018-06-29 10:47:49.031250,-120.92,81.8
236066,2018-06-29 10:47:49.062500,-111.55,81.8
236067,2018-06-29 10:47:49.093750,-102.9,81.8
236068,2018-06-29 10:47:49.125000,-77.86,81.8
236069,2018-06-29 10:47:49.156250,-31.61,81.8
236070,2018-06-29 10:47:49.187500,20.75,81.8
236071,2018-06-29 10:47:49.218750,63.73,81.8
236072,2018-06-29 10:47:49.250000,94.35,81.8
236073,2018-06-29 10:47:49.281250,114.47,81.8
236074,2018-06-29 10:47:49.312500,125.32,81.8
236075,2018-06-29 10:47:49.343750,130.64,81.8
236076,2018-06-29 10:47:49.375000,131.77,81.8
236077,2018-06-29 10:47:49.406250,120.11,81.8
236078,2018-06-29 10:47:49.437500,86.59,81.8
236079,2018-06-29 10:47:49.468750,36.57,81.8
236080,2018-06-29 10:47:49.500000,-13.77,81.8
236081,2018-06-29 10:47:49.531250,-50.27,81.9
236082,2018-06-29 10:47:49.562500,-64.92,81.9
236083,2018-06-29 10:47:49.593750,-58.87,81.9
236084,2018-06-29 10:47:49.625000,-44.85,81.9
236085,2018-06-29 10:47:49.656250,-38.28,81.9
236086,2018-06-29 10:47:49.687500,-44.16,81.9
236087,2018-06-29 10:47:49.718750,-52.43,81.9
236088,2018-06-29 10:47:49.750000,-48.58,81.9
236089,2018-06-29 10:47:49.781250,-32.41,81.9
236090,2018-06-29 10:47:49.812500,-17.67,81.9
236091,2018-06-29 10:47:49.843750,-7.95,81.9
236092,2018-06-29 10:47:49.875000,11.26,81.9
236093,2018-06-29 10:47:49.906250,47.8,81.9
236094,2018-06-29 10:47:49.937500,84.76,81.9
236095,2018-06-29 10:47:49.968750,95.56,81.9
236096,2018-06-29 10:47:50.000000,70.16,81.9
236097,2018-06-29 10:47:50.031250,22.32,81.9
236098,2018-06-29 10:47:50.062500,-25.29,81.9
236099,2018-06-29 10:47:50.093750,-58.08,81.9
236100,2018-06-29 10:47:50.125000,-73.94,81.9
236101,2018-06-29 10:47:50.156250,-79.75,81.9
236102,2018-06-29 10:47:50.187500,-82.31,81.9
236103,2018-06-29 10:47:50.218750,-79.9,81.9
236104,2018-06-29 10:47:50.250000,-68.07,81.9
236105,2018-06-29 10:47:50.281250,-51.87,81.9
236106,2018-06-29 10:47:50.312500,-44.06,81.9
236107,2018-06-29 10:47:50.343750,-47.49,81.9
236108,2018-06-29 10:47:50.375000,-46.07,81.9
236109,2018-06-29 10:47:50.406250,-17.71,81.9
236110,2018-06-29 10:47:50.437500,40.14,81.9
236111,2018-06-29 10:47:50.468750,106.03,81.9
236112,2018-06-29 10:47:50.500000,155.22,81.9
236113,2018-06-29 10:47:50.531250,173.73,82.0
236114,2018-06-29 10:47:50.562500,159.04,82.0
236115,2018-06-29 10:47:50.593750,117.17,82.0
236116,2018-06-29 10:47:50.625000,65.6,82.0
236117,2018-06-29 10:47:50.656250,18.41,82.0
236118,2018-06-29 10:47:50.687500,-16.14,82.0
236119,2018-06-29 10:47:50.718750,-33.17,82.0
236120,2018-06-29 10:47:50.750000,-31.65,82.0
236121,2018-06-29 10:47:50.781250,-17.75,82.0
236122,2018-06-29 10:47:50.812500,-5.83,82.0
236123,2018-06-29 10:47:50.843750,-3.05,82.0
236124,2018-06-29 10:47:50.875000,-11.46,82.0
236125,2018-06-29 10:47:50.906250,-27.05,82.0
236126,2018-06-29 10:47:50.937500,-59.06,82.0
236127,2018-06-29 10:47:50.968750,-112.42,82.0
236128,2018-06-29 10:47:51.000000,-148.51,82.0
236129,2018-06-29 10:47:51.031250,-145.72,82.0
236130,2018-06-29 10:47:51.062500,-72.7,82.0
236131,2018-06-29 10:47:51.093750,47.98,82.0
236132,2018-06-29 10:47:51.125000,154.59,82.0
236133,2018-06-29 10:47:51.156250,193.55,82.0
236134,2018-06-29 10:47:51.187500,155.09,82.0
236135,2018-06-29 10:47:51.218750,78.16,82.0
236136,2018-06-29 10:47:51.250000,-9.04,82.0
236137,2018-06-29 10:47:51.281250,-79.88,82.0
236138,2018-06-29 10:47:51.312500,-114.59,82.0
236139,2018-06-29 10:47:51.343750,-112.86,82.0
236140,2018-06-29 10:47:51.375000,-97.82,82.0
236141,2018-06-29 10:47:51.406250,-83.99,82.0
236142,2018-06-29 10:47:51.437500,-72.88,82.0
236143,2018-06-29 10:47:51.468750,-55.87,82.0
236144,2018-06-29 10:47:51.500000,-28.13,82.0
236145,2018-06-29 10:47:51.531250,5.28,82.15
236146,2018-06-29 10:47:51.562500,25.09,82.15
236147,2018-06-29 10:47:51.593750,13.24,82.15
236148,2018-06-29 10:47:51.625000,-21.85,82.15
236149,2018-06-29 10:47:51.656250,-49.91,82.15
236150,2018-06-29 10:47:51.687500,-43.39,82.15
236151,2018-06-29 10:47:51.718750,-3.86,82.15
236152,2018-06-29 10:47:51.750000,41.83,82.15
236153,2018-06-29 10:47:51.781250,65.6,82.15
236154,2018-06-29 10:47:51.812500,60.03,82.15
236155,2018-06-29 10:47:51.843750,39.64,82.15
236156,2018-06-29 10:47:51.875000,25.45,82.15
236157,2018-06-29 10:47:51.906250,29.17,82.15
236158,2018-06-29 10:47:51.937500,48.21,82.15
236159,2018-06-29 10:47:51.968750,72.89,82.15
236160,2018-06-29 10:47:52.000000,93.8,82.15
236161,2018-06-29 10:47:52.031250,100.4,82.15
236162,2018-06-29 10:47:52.062500,81.09,82.15
236163,2018-06-29 10:47:52.093750,34.21,82.15
236164,2018-06-29 10:47:52.125000,-24.04,82.15
236165,2018-06-29 10:47:52.156250,-69.0,82.15
236166,2018-06-29 10:47:52.187500,-84.01,82.15
236167,2018-06-29 10:47:52.218750,-68.49,82.15
236168,2018-06-29 10:47:52.250000,-38.71,82.15
236169,2018-06-29 10:47:52.281250,-17.6,82.15
236170,2018-06-29 10:47:52.312500,-15.31,82.15
236171,2018-06-29 10:47:52.343750,-25.28,82.15
236172,2018-06-29 10:47:52.375000,-39.42,82.15
236173,2018-06-29 10:47:52.406250,-55.07,82.15
236174,2018-06-29 10:47:52.437500,-67.61,82.15
236175,2018-06-29 10:47:52.468750,-69.82,82.15
236176,2018-06-29 10:47:52.500000,-60.83,82.15
236177,2018-06-29 10:47:52.531250,-47.63,82.3
236178,2018-06-29 10:47:52.562500,-34.55,82.3
236179,2018-06-29 10:47:52.593750,-16.45,82.3
236180,2018-06-29 10:47:52.625000,9.78,82.3
236181,2018-06-29 10:47:52.656250,33.95,82.3
236182,2018-06-29 10:47:52.687500,43.67,82.3
236183,2018-06-29 10:47:52.718750,41.14,82.3
236184,2018-06-29 10:47:52.750000,38.38,82.3
236185,2018-06-29 10:47:52.781250,42.91,82.3
236186,2018-06-29 10:47:52.812500,51.81,82.3
