,Time,ppg,hr
249600,2018-06-29 10:54:52.000000,-87.58,101.18
249601,2018-06-29 10:54:52.031250,-103.21,101.18
249602,2018-06-29 10:54:52.062500,-125.49,101.18
249603,2018-06-29 10:54:52.093750,-159.2,101.18
249604,2018-06-29 10:54:52.125000,-201.31,101.18
249605,2018-06-29 10:54:52.156250,-234.38,101.18
249606,2018-06-29 10:54:52.187500,-234.2,101.18
249607,2018-06-29 10:54:52.218750,-192.64,101.18
249608,2018-06-29 10:54:52.250000,-125.93,101.18
249609,2018-06-29 10:54:52.281250,-52.65,101.18
249610,2018-06-29 10:54:52.312500,22.67,101.18
249611,2018-06-29 10:54:52.343750,93.87,101.18
249612,2018-06-29 10:54:52.375000,140.41,101.18
249613,2018-06-29 10:54:52.406250,148.28,101.18
249614,2018-06-29 10:54:52.437500,129.71,101.18
249615,2018-06-29 10:54:52.468750,104.33,101.18
249616,2018-06-29 10:54:52.500000,73.75,101.18
249617,2018-06-29 10:54:52.531250,36.31,101.33
249618,2018-06-29 10:54:52.562500,15.52,101.33
249619,2018-06-29 10:54:52.593750,42.62,101.33
249620,2018-06-29 10:54:52.625000,109.66,101.33
249621,2018-06-29 10:54:52.656250,167.35,101.33
249622,2018-06-29 10:54:52.687500,175.39,101.33
249623,2018-06-29 10:54:52.718750,141.13,101.33
249624,2018-06-29 10:54:52.750000,108.74,101.33
249625,2018-06-29 10:54:52.781250,118.87,101.33
249626,2018-06-29 10:54:52.812500,181.31,101.33
249627,2018-06-29 10:54:52.843750,283.96,101.33
249628,2018-06-29 10:54:52.875000,404.15,101.33
249629,2018-06-29 10:54:52.906250,493.8,101.33
249630,2018-06-29 10:54:52.937500,498.25,101.33
249631,2018-06-29 10:54:52.968750,423.26,101.33
249632,2018-06-29 10:54:53.000000,335.56,101.33
249633,2018-06-29 10:54:53.031250,276.66,101.33
249634,2018-06-29 10:54:53.062500,229.06,101.33
249635,2018-06-29 10:54:53.093750,167.36,101.33
249636,2018-06-29 10:54:53.125000,86.16,101.33
249637,2018-06-29 10:54:53.156250,-19.76,101.33
249638,2018-06-29 10:54:53.187500,-158.9,101.33
249639,2018-06-29 10:54:53.218750,-319.46,101.33
249640,2018-06-29 10:54:53.250000,-464.87,101.33
249641,2018-06-29 10:54:53.281250,-563.78,101.33
249642,2018-06-29 10:54:53.312500,-605.53,101.33
249643,2018-06-29 10:54:53.343750,-587.32,101.33
249644,2018-06-29 10:54:53.375000,-518.19,101.33
249645,2018-06-29 10:54:53.406250,-431.74,101.33
249646,2018-06-29 10:54:53.437500,-359.54,101.33
249647,2018-06-29 10:54:53.468750,-300.61,101.33
249648,2018-06-29 10:54:53.500000,-241.72,101.33
249649,2018-06-29 10:54:53.531250,-184.06,101.47
249650,2018-06-29 10:54:53.562500,-131.73,101.47
249651,2018-06-29 10:54:53.593750,-76.79,101.47
249652,2018-06-29 10:54:53.625000,-4.24,101.47
249653,2018-06-29 10:54:53.656250,85.17,101.47
249654,2018-06-29 10:54:53.687500,164.93,101.47
249655,2018-06-29 10:54:53.718750,189.55,101.47
249656,2018-06-29 10:54:53.750000,145.1,101.47
249657,2018-06-29 10:54:53.781250,77.32,101.47
249658,2018-06-29 10:54:53.812500,39.85,101.47
249659,2018-06-29 10:54:53.843750,42.14,101.47
249660,2018-06-29 10:54:53.875000,61.87,101.47
249661,2018-06-29 10:54:53.906250,85.88,101.47
249662,2018-06-29 10:54:53.937500,91.53,101.47
249663,2018-06-29 10:54:53.968750,65.11,101.47
249664,2018-06-29 10:54:54.000000,22.51,101.47
249665,2018-06-29 10:54:54.031250,12.57,101.47
249666,2018-06-29 10:54:54.062500,53.74,101.47
249667,2018-06-29 10:54:54.093750,106.17,101.47
249668,2018-06-29 10:54:54.125000,146.53,101.47
249669,2018-06-29 10:54:54.156250,179.87,101.47
249670,2018-06-29 10:54:54.187500,248.7,101.47
249671,2018-06-29 10:54:54.218750,300.45,101.47
249672,2018-06-29 10:54:54.250000,295.57,101.47
249673,2018-06-29 10:54:54.281250,260.57,101.47
249674,2018-06-29 10:54:54.312500,294.6,101.47
249675,2018-06-29 10:54:54.343750,427.41,101.47
249676,2018-06-29 10:54:54.375000,558.06,101.47
249677,2018-06-29 10:54:54.406250,661.13,101.47
249678,2018-06-29 10:54:54.437500,774.4,101.47
249679,2018-06-29 10:54:54.468750,1002.69,101.47
249680,2018-06-29 10:54:54.500000,1242.88,101.47
249681,2018-06-29 10:54:54.531250,1395.28,101.53
249682,2018-06-29 10:54:54.562500,1325.79,101.53
249683,2018-06-29 10:54:54.593750,549.0,101.53
249684,2018-06-29 10:54:54.625000,-273.23,101.53
249685,2018-06-29 10:54:54.656250,-719.73,101.53
249686,2018-06-29 10:54:54.687500,-929.84,101.53
249687,2018-06-29 10:54:54.718750,-1013.78,101.53
249688,2018-06-29 10:54:54.750000,-934.5,101.53
249689,2018-06-29 10:54:54.781250,-802.23,101.53
249690,2018-06-29 10:54:54.812500,-709.76,101.53
249691,2018-06-29 10:54:54.843750,-648.74,101.53
249692,2018-06-29 10:54:54.875000,-554.02,101.53
249693,2018-06-29 10:54:54.906250,-415.74,101.53
249694,2018-06-29 10:54:54.937500,-332.82,101.53
249695,2018-06-29 10:54:54.968750,-303.09,101.53
249696,2018-06-29 10:54:55.000000,-287.4,101.53
249697,2018-06-29 10:54:55.031250,-217.9,101.53
249698,2018-06-29 10:54:55.062500,-129.1,101.53
249699,2018-06-29 10:54:55.093750,-58.48,101.53
249700,2018-06-29 10:54:55.125000,-26.79,101.53
249701,2018-06-29 10:54:55.156250,2.98,101.53
249702,2018-06-29 10:54:55.187500,54.75,101.53
249703,2018-06-29 10:54:55.218750,103.95,101.53
249704,2018-06-29 10:54:55.250000,127.33,101.53
249705,2018-06-29 10:54:55.281250,109.82,101.53
249706,2018-06-29 10:54:55.312500,59.56,101.53
249707,2018-06-29 10:54:55.343750,-4.97,101.53
249708,2018-06-29 10:54:55.375000,-64.26,101.53
249709,2018-06-29 10:54:55.406250,-102.56,101.53
249710,2018-06-29 10:54:55.437500,-115.29,101.53
249711,2018-06-29 10:54:55.468750,-115.39,101.53
249712,2018-06-29 10:54:55.500000,-111.63,101.53
249713,2018-06-29 10:54:55.531250,-92.03,101.6
249714,2018-06-29 10:54:55.562500,-28.65,101.6
249715,2018-06-29 10:54:55.593750,64.75,101.6
249716,2018-06-29 10:54:55.625000,160.19,101.6
249717,2018-06-29 10:54:55.656250,240.68,101.6
249718,2018-06-29 10:54:55.687500,300.16,101.6
249719,2018-06-29 10:54:55.718750,326.51,101.6
249720,2018-06-29 10:54:55.750000,310.64,101.6
249721,2018-06-29 10:54:55.781250,281.43,101.6
249722,2018-06-29 10:54:55.812500,267.05,101.6
249723,2018-06-29 10:54:55.843750,292.51,101.6
249724,2018-06-29 10:54:55.875000,333.68,101.6
249725,2018-06-29 10:54:55.906250,366.44,101.6
249726,2018-06-29 10:54:55.937500,350.39,101.6
249727,2018-06-29 10:54:55.968750,151.69,101.6
249728,2018-06-29 10:54:56.000000,-87.15,101.6
249729,2018-06-29 10:54:56.031250,-242.15,101.6
249730,2018-06-29 10:54:56.062500,-314.83,101.6
249731,2018-06-29 10:54:56.093750,-317.68,101.6
249732,2018-06-29 10:54:56.125000,-244.19,101.6
249733,2018-06-29 10:54:56.156250,-146.44,101.6
249734,2018-06-29 10:54:56.187500,-88.81,101.6
249735,2018-06-29 10:54:56.218750,-90.17,101.6
249736,2018-06-29 10:54:56.250000,-130.12,101.6
249737,2018-06-29 10:54:56.281250,-174.36,101.6
249738,2018-06-29 10:54:56.312500,-220.73,101.6
249739,2018-06-29 10:54:56.343750,-265.9,101.6
249740,2018-06-29 10:54:56.375000,-267.5,101.6
249741,2018-06-29 10:54:56.406250,-208.62,101.6
249742,2018-06-29 10:54:56.437500,-131.91,101.6
249743,2018-06-29 10:54:56.468750,-75.53,101.6
249744,2018-06-29 10:54:56.500000,-46.52,101.6
249745,2018-06-29 10:54:56.531250,-31.4,101.67
249746,2018-06-29 10:54:56.562500,-16.8,101.67
249747,2018-06-29 10:54:56.593750,-3.74,101.67
249748,2018-06-29 10:54:56.625000,7.32,101.67
249749,2018-06-29 10:54:56.656250,11.05,101.67
249750,2018-06-29 10:54:56.687500,2.92,101.67
249751,2018-06-29 10:54:56.718750,0.51,101.67
249752,2018-06-29 10:54:56.750000,30.78,101.67
249753,2018-06-29 10:54:56.781250,84.34,101.67
249754,2018-06-29 10:54:56.812500,113.95,101.67
249755,2018-06-29 10:54:56.843750,96.1,101.67
249756,2018-06-29 10:54:56.875000,51.64,101.67
249757,2018-06-29 10:54:56.906250,7.62,101.67
249758,2018-06-29 10:54:56.937500,-21.86,101.67
249759,2018-06-29 10:54:56.968750,-29.13,101.67
249760,2018-06-29 10:54:57.000000,-14.93,101.67
249761,2018-06-29 10:54:57.031250,13.22,101.67
249762,2018-06-29 10:54:57.062500,45.37,101.67
249763,2018-06-29 10:54:57.093750,80.6,101.67
249764,2018-06-29 10:54:57.125000,114.18,101.67
249765,2018-06-29 10:54:57.156250,131.08,101.67
249766,2018-06-29 10:54:57.187500,127.07,101.67
249767,2018-06-29 10:54:57.218750,129.96,101.67
249768,2018-06-29 10:54:57.250000,172.13,101.67
249769,2018-06-29 10:54:57.281250,239.48,101.67
249770,2018-06-29 10:54:57.312500,292.92,101.67
249771,2018-06-29 10:54:57.343750,303.95,101.67
249772,2018-06-29 10:54:57.375000,270.21,101.67
249773,2018-06-29 10:54:57.406250,190.57,101.67
249774,2018-06-29 10:54:57.437500,82.42,101.67
249775,2018-06-29 10:54:57.468750,-19.14,101.67
249776,2018-06-29 10:54:57.500000,-103.37,101.67
249777,2018-06-29 10:54:57.531250,-182.88,101.77
249778,2018-06-29 10:54:57.562500,-279.57,101.77
249779,2018-06-29 10:54:57.593750,-366.76,101.77
249780,2018-06-29 10:54:57.625000,-433.84,101.77
249781,2018-06-29 10:54:57.656250,-498.87,101.77
249782,2018-06-29 10:54:57.687500,-587.35,101.77
249783,2018-06-29 10:54:57.718750,-657.9,101.77
249784,2018-06-29 10:54:57.750000,-633.07,101.77
249785,2018-06-29 10:54:57.781250,-513.54,101.77
249786,2018-06-29 10:54:57.812500,-235.13,101.77
249787,2018-06-29 10:54:57.843750,76.46,101.77
249788,2018-06-29 10:54:57.875000,232.17,101.77
249789,2018-06-29 10:54:57.906250,275.87,101.77
249790,2018-06-29 10:54:57.937500,278.59,101.77
249791,2018-06-29 10:54:57.968750,253.01,101.77
249792,2018-06-29 10:54:58.000000,212.19,101.77
249793,2018-06-29 10:54:58.031250,177.11,101.77
249794,2018-06-29 10:54:58.062500,143.21,101.77
249795,2018-06-29 10:54:58.093750,114.77,101.77
249796,2018-06-29 10:54:58.125000,89.5,101.77
249797,2018-06-29 10:54:58.156250,83.62,101.77
249798,2018-06-29 10:54:58.187500,90.79,101.77
249799,2018-06-29 10:54:58.218750,95.87,101.77
249800,2018-06-29 10:54:58.250000,78.37,101.77
249801,2018-06-29 10:54:58.281250,32.99,101.77
249802,2018-06-29 10:54:58.312500,-20.06,101.77
249803,2018-06-29 10:54:58.343750,-53.43,101.77
249804,2018-06-29 10:54:58.375000,-42.8,101.77
249805,2018-06-29 10:54:58.406250,1.07,101.77
249806,2018-06-29 10:54:58.437500,47.23,101.77
249807,2018-06-29 10:54:58.468750,67.04,101.77
249808,2018-06-29 10:54:58.500000,63.96,101.77
249809,2018-06-29 10:54:58.531250,58.58,101.82
249810,2018-06-29 10:54:58.562500,56.72,101.82
249811,2018-06-29 10:54:58.593750,50.65,101.82
249812,2018-06-29 10:54:58.625000,36.66,101.82
249813,2018-06-29 10:54:58.656250,16.42,101.82
249814,2018-06-29 10:54:58.687500,-10.18,101.82
249815,2018-06-29 10:54:58.718750,-27.16,101.82
249816,2018-06-29 10:54:58.750000,-7.37,101.82
249817,2018-06-29 10:54:58.781250,44.33,101.82
249818,2018-06-29 10:54:58.812500,83.0,101.82
249819,2018-06-29 10:54:58.843750,71.93,101.82
249820,2018-06-29 10:54:58.875000,17.22,101.82
249821,2018-06-29 10:54:58.906250,-42.56,101.82
249822,2018-06-29 10:54:58.937500,-68.96,101.82
249823,2018-06-29 10:54:58.968750,-53.21,101.82
249824,2018-06-29 10:54:59.000000,-21.36,101.82
249825,2018-06-29 10:54:59.031250,-7.33,101.82
249826,2018-06-29 10:54:59.062500,-20.67,101.82
249827,2018-06-29 10:54:59.093750,-46.82,101.82
249828,2018-06-29 10:54:59.125000,-69.39,101.82
249829,2018-06-29 10:54:59.156250,-79.61,101.82
249830,2018-06-29 10:54:59.187500,-73.6,101.82
249831,2018-06-29 10:54:59.218750,-52.66,101.82
249832,2018-06-29 10:54:59.250000,-26.23,101.82
249833,2018-06-29 10:54:59.281250,-3.42,101.82
249834,2018-06-29 10:54:59.312500,13.14,101.82
249835,2018-06-29 10:54:59.343750,19.68,101.82
249836,2018-06-29 10:54:59.375000,7.39,101.82
249837,2018-06-29 10:54:59.406250,-26.46,101.82
249838,2018-06-29 10:54:59.437500,-69.69,101.82
249839,2018-06-29 10:54:59.468750,-98.76,101.82
249840,2018-06-29 10:54:59.500000,-90.89,101.82
249841,2018-06-29 10:54:59.531250,-43.08,101.88
249842,2018-06-29 10:54:59.562500,19.17,101.88
249843,2018-06-29 10:54:59.593750,64.62,101.88
249844,2018-06-29 10:54:59.625000,81.65,101.88
249845,2018-06-29 10:54:59.656250,74.85,101.88
249846,2018-06-29 10:54:59.687500,52.84,101.88
249847,2018-06-29 10:54:59.718750,28.15,101.88
249848,2018-06-29 10:54:59.750000,12.52,101.88
249849,2018-06-29 10:54:59.781250,4.89,101.88
249850,2018-06-29 10:54:59.812500,-3.89,101.88
249851,2018-06-29 10:54:59.843750,-15.17,101.88
249852,2018-06-29 10:54:59.875000,-23.16,101.88
249853,2018-06-29 10:54:59.906250,-28.15,101.88
249854,2018-06-29 10:54:59.937500,-36.66,101.88
249855,2018-06-29 10:54:59.968750,-49.51,101.88
249856,2018-06-29 10:55:00.000000,-53.22,101.88
249857,2018-06-29 10:55:00.031250,-26.97,101.88
249858,2018-06-29 10:55:00.062500,33.4,101.88
249859,2018-06-29 10:55:00.093750,101.45,101.88
249860,2018-06-29 10:55:00.125000,143.61,101.88
249861,2018-06-29 10:55:00.156250,151.44,101.88
249862,2018-06-29 10:55:00.187500,137.33,101.88
249863,2018-06-29 10:55:00.218750,111.45,101.88
249864,2018-06-29 10:55:00.250000,79.3,101.88
249865,2018-06-29 10:55:00.281250,48.07,101.88
249866,2018-06-29 10:55:00.312500,20.73,101.88
249867,2018-06-29 10:55:00.343750,-7.3,101.88
249868,2018-06-29 10:55:00.375000,-39.06,101.88
249869,2018-06-29 10:55:00.406250,-67.95,101.88
249870,2018-06-29 10:55:00.437500,-86.76,101.88
249871,2018-06-29 10:55:00.468750,-97.52,101.88
249872,2018-06-29 10:55:00.500000,-109.2,101.88
249873,2018-06-29 10:55:00.531250,-124.57,101.9
249874,2018-06-29 10:55:00.562500,-129.94,101.9
249875,2018-06-29 10:55:00.593750,-103.98,101.9
249876,2018-06-29 10:55:00.625000,-42.38,101.9
249877,2018-06-29 10:55:00.656250,31.4,101.9
249878,2018-06-29 10:55:00.687500,89.68,101.9
249879,2018-06-29 10:55:00.718750,117.04,101.9
249880,2018-06-29 10:55:00.750000,114.13,101.9
249881,2018-06-29 10:55:00.781250,92.81,101.9
249882,2018-06-29 10:55:00.812500,72.01,101.9
249883,2018-06-29 10:55:00.843750,60.43,101.9
249884,2018-06-29 10:55:00.875000,44.22,101.9
249885,2018-06-29 10:55:00.906250,12.8,101.9
249886,2018-06-29 10:55:00.937500,-28.57,101.9
249887,2018-06-29 10:55:00.968750,-57.81,101.9
249888,2018-06-29 10:55:01.000000,-69.66,101.9
249889,2018-06-29 10:55:01.031250,-70.41,101.9
249890,2018-06-29 10:55:01.062500,-62.56,101.9
249891,2018-06-29 10:55:01.093750,-28.88,101.9
249892,2018-06-29 10:55:01.125000,48.24,101.9
249893,2018-06-29 10:55:01.156250,147.45,101.9
249894,2018-06-29 10:55:01.187500,228.32,101.9
249895,2018-06-29 10:55:01.218750,221.49,101.9
249896,2018-06-29 10:55:01.250000,118.23,101.9
249897,2018-06-29 10:55:01.281250,14.38,101.9
249898,2018-06-29 10:55:01.312500,-80.61,101.9
249899,2018-06-29 10:55:01.343750,-159.67,101.9
249900,2018-06-29 10:55:01.375000,-213.37,101.9
249901,2018-06-29 10:55:01.406250,-246.32,101.9
249902,2018-06-29 10:55:01.437500,-272.11,101.9
249903,2018-06-29 10:55:01.468750,-291.78,101.9
249904,2018-06-29 10:55:01.500000,-259.14,101.9
249905,2018-06-29 10:55:01.531250,-145.89,102.0
249906,2018-06-29 10:55:01.562500,-30.77,102.0
249907,2018-06-29 10:55:01.593750,60.75,102.0
249908,2018-06-29 10:55:01.625000,123.67,102.0
249909,2018-06-29 10:55:01.656250,154.77,102.0
249910,2018-06-29 10:55:01.687500,175.84,102.0
249911,2018-06-29 10:55:01.718750,206.52,102.0
249912,2018-06-29 10:55:01.750000,230.98,102.0
249913,2018-06-29 10:55:01.781250,225.43,102.0
249914,2018-06-29 10:55:01.812500,190.33,102.0
249915,2018-06-29 10:55:01.843750,141.87,102.0
249916,2018-06-29 10:55:01.875000,90.74,102.0
249917,2018-06-29 10:55:01.906250,39.56,102.0
249918,2018-06-29 10:55:01.937500,-8.89,102.0
249919,2018-06-29 10:55:01.968750,-54.97,102.0
249920,2018-06-29 10:55:02.000000,-94.76,102.0
249921,2018-06-29 10:55:02.031250,-119.4,102.0
249922,2018-06-29 10:55:02.062500,-123.89,102.0
249923,2018-06-29 10:55:02.093750,-118.26,102.0
249924,2018-06-29 10:55:02.125000,-113.81,102.0
249925,2018-06-29 10:55:02.156250,-110.91,102.0
249926,2018-06-29 10:55:02.187500,-103.33,102.0
249927,2018-06-29 10:55:02.218750,-81.03,102.0
249928,2018-06-29 10:55:02.250000,-38.41,102.0
249929,2018-06-29 10:55:02.281250,13.13,102.0
249930,2018-06-29 10:55:02.312500,50.12,102.0
249931,2018-06-29 10:55:02.343750,62.74,102.0
249932,2018-06-29 10:55:02.375000,62.41,102.0
249933,2018-06-29 10:55:02.406250,65.58,102.0
249934,2018-06-29 10:55:02.437500,80.08,102.0
249935,2018-06-29 10:55:02.468750,101.16,102.0
249936,2018-06-29 10:55:02.500000,115.15,102.0
249937,2018-06-29 10:55:02.531250,107.55,102.08
249938,2018-06-29 10:55:02.562500,73.15,102.08
249939,2018-06-29 10:55:02.593750,21.0,102.08
249940,2018-06-29 10:55:02.625000,-32.6,102.08
249941,2018-06-29 10:55:02.656250,-76.24,102.08
249942,2018-06-29 10:55:02.687500,-106.24,102.08
249943,2018-06-29 10:55:02.718750,-118.69,102.08
249944,2018-06-29 10:55:02.750000,-106.21,102.08
249945,2018-06-29 10:55:02.781250,-68.94,102.08
249946,2018-06-29 10:55:02.812500,-24.16,102.08
249947,2018-06-29 10:55:02.843750,8.24,102.08
249948,2018-06-29 10:55:02.875000,26.79,102.08
249949,2018-06-29 10:55:02.906250,40.22,102.08
249950,2018-06-29 10:55:02.937500,46.59,102.08
249951,2018-06-29 10:55:02.968750,39.97,102.08
249952,2018-06-29 10:55:03.000000,28.24,102.08
249953,2018-06-29 10:55:03.031250,22.61,102.08
249954,2018-06-29 10:55:03.062500,18.55,102.08
249955,2018-06-29 10:55:03.093750,5.96,102.08
249956,2018-06-29 10:55:03.125000,-9.74,102.08
249957,2018-06-29 10:55:03.156250,-15.54,102.08
249958,2018-06-29 10:55:03.187500,-15.07,102.08
249959,2018-06-29 10:55:03.218750,-25.65,102.08
249960,2018-06-29 10:55:03.250000,-47.94,102.08
249961,2018-06-29 10:55:03.281250,-58.85,102.08
249962,2018-06-29 10:55:03.312500,-43.66,102.08
249963,2018-06-29 10:55:03.343750,-16.39,102.08
249964,2018-06-29 10:55:03.375000,4.6,102.08
249965,2018-06-29 10:55:03.406250,18.72,102.08
249966,2018-06-29 10:55:03.437500,28.65,102.08
249967,2018-06-29 10:55:03.468750,30.03,102.08
249968,2018-06-29 10:55:03.500000,25.67,102.08
249969,2018-06-29 10:55:03.531250,26.11,102.18
249970,2018-06-29 10:55:03.562500,32.95,102.18
249971,2018-06-29 10:55:03.593750,37.35,102.18
249972,2018-06-29 10:55:03.625000,23.31,102.18
249973,2018-06-29 10:55:03.656250,-26.07,102.18
249974,2018-06-29 10:55:03.687500,-97.64,102.18
249975,2018-06-29 10:55:03.718750,-142.58,102.18
249976,2018-06-29 10:55:03.750000,-136.92,102.18
249977,2018-06-29 10:55:03.781250,-108.94,102.18
249978,2018-06-29 10:55:03.812500,-80.24,102.18
249979,2018-06-29 10:55:03.843750,-38.99,102.18
249980,2018-06-29 10:55:03.875000,12.27,102.18
249981,2018-06-29 10:55:03.906250,46.93,102.18
249982,2018-06-29 10:55:03.937500,57.15,102.18
249983,2018-06-29 10:55:03.968750,58.3,102.18
249984,2018-06-29 10:55:04.000000,56.65,102.18
249985,2018-06-29 10:55:04.031250,45.69,102.18
249986,2018-06-29 10:55:04.062500,26.21,102.18
249987,2018-06-29 10:55:04.093750,8.24,102.18
249988,2018-06-29 10:55:04.125000,-2.22,102.18
249989,2018-06-29 10:55:04.156250,-8.26,102.18
249990,2018-06-29 10:55:04.187500,-16.46,102.18
249991,2018-06-29 10:55:04.218750,-31.58,102.18
249992,2018-06-29 10:55:04.250000,-54.93,102.18
249993,2018-06-29 10:55:04.281250,-80.5,102.18
249994,2018-06-29 10:55:04.312500,-88.85,102.18
249995,2018-06-29 10:55:04.343750,-56.82,102.18
249996,2018-06-29 10:55:04.375000,12.88,102.18
249997,2018-06-29 10:55:04.406250,82.5,102.18
249998,2018-06-29 10:55:04.437500,114.58,102.18
249999,2018-06-29 10:55:04.468750,107.23,102.18
250000,2018-06-29 10:55:04.500000,84.25,102.18
250001,2018-06-29 10:55:04.531250,63.94,102.17
250002,2018-06-29 10:55:04.562500,48.99,102.17
250003,2018-06-29 10:55:04.593750,34.11,102.17
250004,2018-06-29 10:55:04.625000,14.69,102.17
250005,2018-06-29 10:55:04.656250,-7.52,102.17
250006,2018-06-29 10:55:04.687500,-25.26,102.17
250007,2018-06-29 10:55:04.718750,-31.44,102.17
250008,2018-06-29 10:55:04.750000,-25.57,102.17
250009,2018-06-29 10:55:04.781250,-13.56,102.17
250010,2018-06-29 10:55:04.812500,-1.39,102.17
250011,2018-06-29 10:55:04.843750,18.82,102.17
250012,2018-06-29 10:55:04.875000,62.08,102.17
250013,2018-06-29 10:55:04.906250,122.29,102.17
250014,2018-06-29 10:55:04.937500,169.26,102.17
250015,2018-06-29 10:55:04.968750,179.49,102.17
250016,2018-06-29 10:55:05.000000,152.09,102.17
250017,2018-06-29 10:55:05.031250,92.29,102.17
250018,2018-06-29 10:55:05.062500,15.4,102.17
250019,2018-06-29 10:55:05.093750,-48.48,102.17
250020,2018-06-29 10:55:05.125000,-81.47,102.17
250021,2018-06-29 10:55:05.156250,-92.63,102.17
250022,2018-06-29 10:55:05.187500,-105.01,102.17
250023,2018-06-29 10:55:05.218750,-107.26,102.17
250024,2018-06-29 10:55:05.250000,-88.09,102.17
250025,2018-06-29 10:55:05.281250,-64.6,102.17
250026,2018-06-29 10:55:05.312500,-50.91,102.17
250027,2018-06-29 10:55:05.343750,-40.17,102.17
250028,2018-06-29 10:55:05.375000,-29.14,102.17
250029,2018-06-29 10:55:05.406250,-24.18,102.17
250030,2018-06-29 10:55:05.437500,-26.22,102.17
250031,2018-06-29 10:55:05.468750,-26.55,102.17
250032,2018-06-29 10:55:05.500000,-19.98,102.17
250033,2018-06-29 10:55:05.531250,-12.84,102.2
250034,2018-06-29 10:55:05.562500,-10.99,102.2
250035,2018-06-29 10:55:05.593750,-10.87,102.2
250036,2018-06-29 10:55:05.625000,-5.54,102.2
250037,2018-06-29 10:55:05.656250,1.83,102.2
250038,2018-06-29 10:55:05.687500,1.46,102.2
250039,2018-06-29 10:55:05.718750,-13.92,102.2
250040,2018-06-29 10:55:05.750000,-40.24,102.2
250041,2018-06-29 10:55:05.781250,-56.31,102.2
250042,2018-06-29 10:55:05.812500,-38.87,102.2
250043,2018-06-29 10:55:05.843750,7.42,102.2
250044,2018-06-29 10:55:05.875000,51.52,102.2
250045,2018-06-29 10:55:05.906250,75.02,102.2
250046,2018-06-29 10:55:05.937500,81.48,102.2
250047,2018-06-29 10:55:05.968750,75.77,102.2
250048,2018-06-29 10:55:06.000000,61.14,102.2
250049,2018-06-29 10:55:06.031250,43.87,102.2
250050,2018-06-29 10:55:06.062500,32.32,102.2
250051,2018-06-29 10:55:06.093750,27.29,102.2
250052,2018-06-29 10:55:06.125000,23.75,102.2
250053,2018-06-29 10:55:06.156250,14.62,102.2
250054,2018-06-29 10:55:06.187500,-3.54,102.2
250055,2018-06-29 10:55:06.218750,-25.18,102.2
250056,2018-06-29 10:55:06.250000,-40.52,102.2
250057,2018-06-29 10:55:06.281250,-50.04,102.2
250058,2018-06-29 10:55:06.312500,-60.49,102.2
250059,2018-06-29 10:55:06.343750,-71.43,102.2
250060,2018-06-29 10:55:06.375000,-73.95,102.2
250061,2018-06-29 10:55:06.406250,-57.5,102.2
250062,2018-06-29 10:55:06.437500,-23.58,102.2
250063,2018-06-29 10:55:06.468750,11.75,102.2
250064,2018-06-29 10:55:06.500000,30.24,102.2
250065,2018-06-29 10:55:06.531250,28.17,102.25
250066,2018-06-29 10:55:06.562500,14.48,102.25
250067,2018-06-29 10:55:06.593750,-0.77,102.25
250068,2018-06-29 10:55:06.625000,-11.4,102.25
250069,2018-06-29 10:55:06.656250,-13.44,102.25
250070,2018-06-29 10:55:06.687500,-5.49,102.25
250071,2018-06-29 10:55:06.718750,7.78,102.25
250072,2018-06-29 10:55:06.750000,17.11,102.25
250073,2018-06-29 10:55:06.781250,17.05,102.25
250074,2018-06-29 10:55:06.812500,8.98,102.25
250075,2018-06-29 10:55:06.843750,-3.4,102.25
250076,2018-06-29 10:55:06.875000,-14.5,102.25
250077,2018-06-29 10:55:06.906250,-13.56,102.25
250078,2018-06-29 10:55:06.937500,5.0,102.25
250079,2018-06-29 10:55:06.968750,30.42,102.25
250080,2018-06-29 10:55:07.000000,47.72,102.25
250081,2018-06-29 10:55:07.031250,54.72,102.25
250082,2018-06-29 10:55:07.062500,49.32,102.25
250083,2018-06-29 10:55:07.093750,22.61,102.25
250084,2018-06-29 10:55:07.125000,-17.14,102.25
250085,2018-06-29 10:55:07.156250,-40.86,102.25
250086,2018-06-29 10:55:07.187500,-35.23,102.25
250087,2018-06-29 10:55:07.218750,-20.73,102.25
250088,2018-06-29 10:55:07.250000,-25.05,102.25
250089,2018-06-29 10:55:07.281250,-38.37,102.25
250090,2018-06-29 10:55:07.312500,-43.51,102.25
250091,2018-06-29 10:55:07.343750,-42.86,102.25
250092,2018-06-29 10:55:07.375000,-42.34,102.25
250093,2018-06-29 10:55:07.406250,-29.82,102.25
250094,2018-06-29 10:55:07.437500,9.93,102.25
250095,2018-06-29 10:55:07.468750,74.96,102.25
250096,2018-06-29 10:55:07.500000,144.48,102.25
250097,2018-06-29 10:55:07.531250,185.7,102.17
250098,2018-06-29 10:55:07.562500,182.98,102.17
250099,2018-06-29 10:55:07.593750,144.21,102.17
250100,2018-06-29 10:55:07.625000,91.2,102.17
250101,2018-06-29 10:55:07.656250,41.65,102.17
250102,2018-06-29 10:55:07.687500,-4.38,102.17
250103,2018-06-29 10:55:07.718750,-57.69,102.17
250104,2018-06-29 10:55:07.750000,-105.62,102.17
250105,2018-06-29 10:55:07.781250,-106.93,102.17
250106,2018-06-29 10:55:07.812500,-46.24,102.17
250107,2018-06-29 10:55:07.843750,29.99,102.17
250108,2018-06-29 10:55:07.875000,63.94,102.17
250109,2018-06-29 10:55:07.906250,49.19,102.17
250110,2018-06-29 10:55:07.937500,18.45,102.17
250111,2018-06-29 10:55:07.968750,1.92,102.17
250112,2018-06-29 10:55:08.000000,11.9,102.17
250113,2018-06-29 10:55:08.031250,40.04,102.17
250114,2018-06-29 10:55:08.062500,60.67,102.17
250115,2018-06-29 10:55:08.093750,54.65,102.17
250116,2018-06-29 10:55:08.125000,28.06,102.17
250117,2018-06-29 10:55:08.156250,1.32,102.17
250118,2018-06-29 10:55:08.187500,-13.89,102.17
250119,2018-06-29 10:55:08.218750,-22.43,102.17
250120,2018-06-29 10:55:08.250000,-33.33,102.17
250121,2018-06-29 10:55:08.281250,-46.49,102.17
250122,2018-06-29 10:55:08.312500,-54.65,102.17
250123,2018-06-29 10:55:08.343750,-54.85,102.17
250124,2018-06-29 10:55:08.375000,-53.54,102.17
250125,2018-06-29 10:55:08.406250,-59.93,102.17
250126,2018-06-29 10:55:08.437500,-72.27,102.17
250127,2018-06-29 10:55:08.468750,-71.76,102.17
250128,2018-06-29 10:55:08.500000,-40.63,102.17
250129,2018-06-29 10:55:08.531250,11.66,102.07
250130,2018-06-29 10:55:08.562500,54.35,102.07
250131,2018-06-29 10:55:08.593750,68.06,102.07
250132,2018-06-29 10:55:08.625000,57.1,102.07
250133,2018-06-29 10:55:08.656250,33.35,102.07
250134,2018-06-29 10:55:08.687500,4.54,102.07
250135,2018-06-29 10:55:08.718750,-24.2,102.07
250136,2018-06-29 10:55:08.750000,-50.06,102.07
250137,2018-06-29 10:55:08.781250,-73.16,102.07
250138,2018-06-29 10:55:08.812500,-93.08,102.07
250139,2018-06-29 10:55:08.843750,-108.04,102.07
250140,2018-06-29 10:55:08.875000,-119.64,102.07
250141,2018-06-29 10:55:08.906250,-134.5,102.07
250142,2018-06-29 10:55:08.937500,-158.15,102.07
250143,2018-06-29 10:55:08.968750,-182.54,102.07
250144,2018-06-29 10:55:09.000000,-182.22,102.07
250145,2018-06-29 10:55:09.031250,-138.06,102.07
250146,2018-06-29 10:55:09.062500,-64.44,102.07
250147,2018-06-29 10:55:09.093750,4.16,102.07
250148,2018-06-29 10:55:09.125000,47.86,102.07
250149,2018-06-29 10:55:09.156250,65.63,102.07
250150,2018-06-29 10:55:09.187500,60.51,102.07
250151,2018-06-29 10:55:09.218750,40.69,102.07
250152,2018-06-29 10:55:09.250000,21.66,102.07
250153,2018-06-29 10:55:09.281250,12.07,102.07
250154,2018-06-29 10:55:09.312500,6.63,102.07
250155,2018-06-29 10:55:09.343750,-1.08,102.07
250156,2018-06-29 10:55:09.375000,-8.55,102.07
250157,2018-06-29 10:55:09.406250,-13.22,102.07
250158,2018-06-29 10:55:09.437500,-23.49,102.07
250159,2018-06-29 10:55:09.468750,-52.05,102.07
250160,2018-06-29 10:55:09.500000,-95.88,102.07
250161,2018-06-29 10:55:09.531250,-127.5,101.98
250162,2018-06-29 10:55:09.562500,-116.6,101.98
250163,2018-06-29 10:55:09.593750,-63.47,101.98
250164,2018-06-29 10:55:09.625000,0.45,101.98
250165,2018-06-29 10:55:09.656250,45.8,101.98
250166,2018-06-29 10:55:09.687500,65.64,101.98
250167,2018-06-29 10:55:09.718750,66.26,101.98
250168,2018-06-29 10:55:09.750000,55.87,101.98
250169,2018-06-29 10:55:09.781250,42.33,101.98
250170,2018-06-29 10:55:09.812500,29.77,101.98
250171,2018-06-29 10:55:09.843750,16.73,101.98
250172,2018-06-29 10:55:09.875000,0.26,101.98
250173,2018-06-29 10:55:09.906250,-20.2,101.98
250174,2018-06-29 10:55:09.937500,-43.75,101.98
250175,2018-06-29 10:55:09.968750,-70.94,101.98
250176,2018-06-29 10:55:10.000000,-103.28,101.98
250177,2018-06-29 10:55:10.031250,-133.98,101.98
250178,2018-06-29 10:55:10.062500,-140.69,101.98
250179,2018-06-29 10:55:10.093750,-103.22,101.98
250180,2018-06-29 10:55:10.125000,-30.27,101.98
250181,2018-06-29 10:55:10.156250,47.23,101.98
250182,2018-06-29 10:55:10.187500,108.44,101.98
250183,2018-06-29 10:55:10.218750,152.01,101.98
250184,2018-06-29 10:55:10.250000,179.98,101.98
250185,2018-06-29 10:55:10.281250,193.07,101.98
250186,2018-06-29 10:55:10.312500,197.92,101.98
250187,2018-06-29 10:55:10.343750,201.49,101.98
250188,2018-06-29 10:55:10.375000,200.02,101.98
250189,2018-06-29 10:55:10.406250,186.21,101.98
250190,2018-06-29 10:55:10.437500,162.44,101.98
250191,2018-06-29 10:55:10.468750,135.15,101.98
250192,2018-06-29 10:55:10.500000,103.01,101.98
250193,2018-06-29 10:55:10.531250,62.39,101.9
250194,2018-06-29 10:55:10.562500,18.74,101.9
250195,2018-06-29 10:55:10.593750,-13.95,101.9
250196,2018-06-29 10:55:10.625000,-22.6,101.9
250197,2018-06-29 10:55:10.656250,-6.73,101.9
250198,2018-06-29 10:55:10.687500,18.52,101.9
250199,2018-06-29 10:55:10.718750,36.73,101.9
250200,2018-06-29 10:55:10.750000,43.24,101.9
250201,2018-06-29 10:55:10.781250,39.56,101.9
250202,2018-06-29 10:55:10.812500,25.81,101.9
250203,2018-06-29 10:55:10.843750,5.91,101.9
250204,2018-06-29 10:55:10.875000,-11.17,101.9
250205,2018-06-29 10:55:10.906250,-20.47,101.9
250206,2018-06-29 10:55:10.937500,-25.21,101.9
250207,2018-06-29 10:55:10.968750,-31.87,101.9
250208,2018-06-29 10:55:11.000000,-45.58,101.9
250209,2018-06-29 10:55:11.031250,-68.87,101.9
250210,2018-06-29 10:55:11.062500,-100.52,101.9
250211,2018-06-29 10:55:11.093750,-133.02,101.9
250212,2018-06-29 10:55:11.125000,-150.41,101.9
250213,2018-06-29 10:55:11.156250,-135.3,101.9
250214,2018-06-29 10:55:11.187500,-86.65,101.9
250215,2018-06-29 10:55:11.218750,-25.84,101.9
250216,2018-06-29 10:55:11.250000,20.69,101.9
250217,2018-06-29 10:55:11.281250,39.83,101.9
250218,2018-06-29 10:55:11.312500,33.26,101.9
250219,2018-06-29 10:55:11.343750,12.39,101.9
250220,2018-06-29 10:55:11.375000,-7.06,101.9
250221,2018-06-29 10:55:11.406250,-15.71,101.9
250222,2018-06-29 10:55:11.437500,-16.75,101.9
250223,2018-06-29 10:55:11.468750,-17.24,101.9
250224,2018-06-29 10:55:11.500000,-18.22,101.9
250225,2018-06-29 10:55:11.531250,-18.88,101.82
250226,2018-06-29 10:55:11.562500,-23.9,101.82
250227,2018-06-29 10:55:11.593750,-38.87,101.82
250228,2018-06-29 10:55:11.625000,-61.6,101.82
250229,2018-06-29 10:55:11.656250,-78.74,101.82
250230,2018-06-29 10:55:11.687500,-70.85,101.82
250231,2018-06-29 10:55:11.718750,-29.96,101.82
250232,2018-06-29 10:55:11.750000,26.61,101.82
250233,2018-06-29 10:55:11.781250,71.12,101.82
250234,2018-06-29 10:55:11.812500,90.83,101.82
250235,2018-06-29 10:55:11.843750,90.04,101.82
250236,2018-06-29 10:55:11.875000,77.48,101.82
250237,2018-06-29 10:55:11.906250,60.81,101.82
250238,2018-06-29 10:55:11.937500,44.15,101.82
250239,2018-06-29 10:55:11.968750,25.63,101.82
250240,2018-06-29 10:55:12.000000,2.61,101.82
250241,2018-06-29 10:55:12.031250,-20.65,101.82
250242,2018-06-29 10:55:12.062500,-35.01,101.82
250243,2018-06-29 10:55:12.093750,-37.42,101.82
250244,2018-06-29 10:55:12.125000,-36.27,101.82
250245,2018-06-29 10:55:12.156250,-41.3,101.82
250246,2018-06-29 10:55:12.187500,-48.84,101.82
250247,2018-06-29 10:55:12.218750,-43.06,101.82
250248,2018-06-29 10:55:12.250000,-15.83,101.82
250249,2018-06-29 10:55:12.281250,20.79,101.82
250250,2018-06-29 10:55:12.312500,48.05,101.82
250251,2018-06-29 10:55:12.343750,59.88,101.82
250252,2018-06-29 10:55:12.375000,61.34,101.82
250253,2018-06-29 10:55:12.406250,56.05,101.82
250254,2018-06-29 10:55:12.437500,45.25,101.82
250255,2018-06-29 10:55:12.468750,32.93,101.82
250256,2018-06-29 10:55:12.500000,22.86,101.82
250257,2018-06-29 10:55:12.531250,14.39,101.65
250258,2018-06-29 10:55:12.562500,6.11,101.65
250259,2018-06-29 10:55:12.593750,-0.57,101.65
250260,2018-06-29 10:55:12.625000,-5.22,101.65
250261,2018-06-29 10:55:12.656250,-11.47,101.65
250262,2018-06-29 10:55:12.687500,-21.82,101.65
250263,2018-06-29 10:55:12.718750,-31.06,101.65
250264,2018-06-29 10:55:12.750000,-28.31,101.65
250265,2018-06-29 10:55:12.781250,-10.32,101.65
250266,2018-06-29 10:55:12.812500,12.18,101.65
250267,2018-06-29 10:55:12.843750,28.2,101.65
250268,2018-06-29 10:55:12.875000,37.44,101.65
250269,2018-06-29 10:55:12.906250,39.67,101.65
250270,2018-06-29 10:55:12.937500,30.15,101.65
250271,2018-06-29 10:55:12.968750,12.84,101.65
250272,2018-06-29 10:55:13.000000,-0.09,101.65
250273,2018-06-29 10:55:13.031250,-5.17,101.65
250274,2018-06-29 10:55:13.062500,-8.96,101.65
250275,2018-06-29 10:55:13.093750,-14.88,101.65
250276,2018-06-29 10:55:13.125000,-20.2,101.65
250277,2018-06-29 10:55:13.156250,-22.92,101.65
250278,2018-06-29 10:55:13.187500,-24.92,101.65
250279,2018-06-29 10:55:13.218750,-29.22,101.65
250280,2018-06-29 10:55:13.250000,-34.05,101.65
250281,2018-06-29 10:55:13.281250,-29.53,101.65
250282,2018-06-29 10:55:13.312500,-7.85,101.65
250283,2018-06-29 10:55:13.343750,23.03,101.65
250284,2018-06-29 10:55:13.375000,45.74,101.65
250285,2018-06-29 10:55:13.406250,52.12,101.65
250286,2018-06-29 10:55:13.437500,46.82,101.65
250287,2018-06-29 10:55:13.468750,37.53,101.65
250288,2018-06-29 10:55:13.500000,29.41,101.65
250289,2018-06-29 10:55:13.531250,24.05,101.55
250290,2018-06-29 10:55:13.562500,19.01,101.55
250291,2018-06-29 10:55:13.593750,11.22,101.55
250292,2018-06-29 10:55:13.625000,1.06,101.55
250293,2018-06-29 10:55:13.656250,-8.86,101.55
250294,2018-06-29 10:55:13.687500,-16.39,101.55
250295,2018-06-29 10:55:13.718750,-21.18,101.55
250296,2018-06-29 10:55:13.750000,-25.72,101.55
250297,2018-06-29 10:55:13.781250,-31.54,101.55
250298,2018-06-29 10:55:13.812500,-32.06,101.55
250299,2018-06-29 10:55:13.843750,-17.62,101.55
250300,2018-06-29 10:55:13.875000,8.56,101.55
250301,2018-06-29 10:55:13.906250,30.89,101.55
250302,2018-06-29 10:55:13.937500,39.87,101.55
250303,2018-06-29 10:55:13.968750,38.36,101.55
250304,2018-06-29 10:55:14.000000,31.25,101.55
250305,2018-06-29 10:55:14.031250,21.13,101.55
250306,2018-06-29 10:55:14.062500,12.24,101.55
250307,2018-06-29 10:55:14.093750,8.15,101.55
250308,2018-06-29 10:55:14.125000,6.39,101.55
250309,2018-06-29 10:55:14.156250,2.13,101.55
250310,2018-06-29 10:55:14.187500,-2.15,101.55
250311,2018-06-29 10:55:14.218750,2.68,101.55
250312,2018-06-29 10:55:14.250000,18.89,101.55
250313,2018-06-29 10:55:14.281250,35.99,101.55
250314,2018-06-29 10:55:14.312500,44.79,101.55
250315,2018-06-29 10:55:14.343750,48.94,101.55
250316,2018-06-29 10:55:14.375000,53.24,101.55
250317,2018-06-29 10:55:14.406250,50.94,101.55
250318,2018-06-29 10:55:14.437500,32.75,101.55
250319,2018-06-29 10:55:14.468750,0.49,101.55
250320,2018-06-29 10:55:14.500000,-35.45,101.55
250321,2018-06-29 10:55:14.531250,-65.04,101.4
250322,2018-06-29 10:55:14.562500,-81.05,101.4
250323,2018-06-29 10:55:14.593750,-80.58,101.4
250324,2018-06-29 10:55:14.625000,-68.95,101.4
250325,2018-06-29 10:55:14.656250,-56.3,101.4
250326,2018-06-29 10:55:14.687500,-47.32,101.4
250327,2018-06-29 10:55:14.718750,-38.23,101.4
250328,2018-06-29 10:55:14.750000,-26.09,101.4
250329,2018-06-29 10:55:14.781250,-15.19,101.4
250330,2018-06-29 10:55:14.812500,-10.41,101.4
250331,2018-06-29 10:55:14.843750,-6.85,101.4
250332,2018-06-29 10:55:14.875000,6.74,101.4
250333,2018-06-29 10:55:14.906250,32.29,101.4
250334,2018-06-29 10:55:14.937500,55.47,101.4
250335,2018-06-29 10:55:14.968750,58.73,101.4
250336,2018-06-29 10:55:15.000000,38.15,101.4
250337,2018-06-29 10:55:15.031250,5.72,101.4
250338,2018-06-29 10:55:15.062500,-21.94,101.4
250339,2018-06-29 10:55:15.093750,-36.09,101.4
250340,2018-06-29 10:55:15.125000,-39.45,101.4
250341,2018-06-29 10:55:15.156250,-37.88,101.4
250342,2018-06-29 10:55:15.187500,-31.48,101.4
250343,2018-06-29 10:55:15.218750,-18.26,101.4
250344,2018-06-29 10:55:15.250000,-2.67,101.4
250345,2018-06-29 10:55:15.281250,7.63,101.4
250346,2018-06-29 10:55:15.312500,11.08,101.4
250347,2018-06-29 10:55:15.343750,13.2,101.4
250348,2018-06-29 10:55:15.375000,22.3,101.4
250349,2018-06-29 10:55:15.406250,41.98,101.4
250350,2018-06-29 10:55:15.437500,59.23,101.4
250351,2018-06-29 10:55:15.468750,51.88,101.4
250352,2018-06-29 10:55:15.500000,18.68,101.4
250353,2018-06-29 10:55:15.531250,-14.79,101.23
250354,2018-06-29 10:55:15.562500,-28.03,101.23
250355,2018-06-29 10:55:15.593750,-23.57,101.23
250356,2018-06-29 10:55:15.625000,-12.07,101.23
250357,2018-06-29 10:55:15.656250,-1.15,101.23
250358,2018-06-29 10:55:15.687500,2.85,101.23
250359,2018-06-29 10:55:15.718750,-1.17,101.23
250360,2018-06-29 10:55:15.750000,-5.34,101.23
250361,2018-06-29 10:55:15.781250,-1.6,101.23
250362,2018-06-29 10:55:15.812500,8.06,101.23
250363,2018-06-29 10:55:15.843750,13.35,101.23
250364,2018-06-29 10:55:15.875000,5.88,101.23
250365,2018-06-29 10:55:15.906250,-10.58,101.23
250366,2018-06-29 10:55:15.937500,-21.79,101.23
250367,2018-06-29 10:55:15.968750,-18.32,101.23
250368,2018-06-29 10:55:16.000000,-4.81,101.23
250369,2018-06-29 10:55:16.031250,8.92,101.23
250370,2018-06-29 10:55:16.062500,17.78,101.23
250371,2018-06-29 10:55:16.093750,19.27,101.23
250372,2018-06-29 10:55:16.125000,11.63,101.23
250373,2018-06-29 10:55:16.156250,-0.76,101.23
250374,2018-06-29 10:55:16.187500,-8.05,101.23
250375,2018-06-29 10:55:16.218750,-5.17,101.23
250376,2018-06-29 10:55:16.250000,3.92,101.23
250377,2018-06-29 10:55:16.281250,13.54,101.23
250378,2018-06-29 10:55:16.312500,20.74,101.23
250379,2018-06-29 10:55:16.343750,22.39,101.23
250380,2018-06-29 10:55:16.375000,15.73,101.23
250381,2018-06-29 10:55:16.406250,4.49,101.23
250382,2018-06-29 10:55:16.437500,-0.96,101.23
250383,2018-06-29 10:55:16.468750,5.87,101.23
250384,2018-06-29 10:55:16.500000,17.11,101.23
250385,2018-06-29 10:55:16.531250,14.81,101.03
250386,2018-06-29 10:55:16.562500,-10.38,101.03
250387,2018-06-29 10:55:16.593750,-45.63,101.03
250388,2018-06-29 10:55:16.625000,-66.77,101.03
250389,2018-06-29 10:55:16.656250,-63.24,101.03
250390,2018-06-29 10:55:16.687500,-44.79,101.03
250391,2018-06-29 10:55:16.718750,-24.11,101.03
250392,2018-06-29 10:55:16.750000,-4.45,101.03
250393,2018-06-29 10:55:16.781250,15.51,101.03
250394,2018-06-29 10:55:16.812500,37.81,101.03
250395,2018-06-29 10:55:16.843750,64.83,101.03
250396,2018-06-29 10:55:16.875000,92.16,101.03
250397,2018-06-29 10:55:16.906250,107.91,101.03
250398,2018-06-29 10:55:16.937500,108.88,101.03
250399,2018-06-29 10:55:16.968750,107.72,101.03
250400,2018-06-29 10:55:17.000000,116.38,101.03
250401,2018-06-29 10:55:17.031250,131.03,101.03
250402,2018-06-29 10:55:17.062500,137.74,101.03
250403,2018-06-29 10:55:17.093750,126.17,101.03
250404,2018-06-29 10:55:17.125000,95.78,101.03
250405,2018-06-29 10:55:17.156250,54.5,101.03
250406,2018-06-29 10:55:17.187500,12.65,101.03
250407,2018-06-29 10:55:17.218750,-22.23,101.03
250408,2018-06-29 10:55:17.250000,-42.95,101.03
250409,2018-06-29 10:55:17.281250,-41.35,101.03
250410,2018-06-29 10:55:17.312500,-17.62,101.03
250411,2018-06-29 10:55:17.343750,13.67,101.03
250412,2018-06-29 10:55:17.375000,35.87,101.03
250413,2018-06-29 10:55:17.406250,45.14,101.03
250414,2018-06-29 10:55:17.437500,48.39,101.03
250415,2018-06-29 10:55:17.468750,53.96,101.03
250416,2018-06-29 10:55:17.500000,68.73,101.03
250417,2018-06-29 10:55:17.531250,94.26,100.8
250418,2018-06-29 10:55:17.562500,119.06,100.8
250419,2018-06-29 10:55:17.593750,124.12,100.8
250420,2018-06-29 10:55:17.625000,102.86,100.8
250421,2018-06-29 10:55:17.656250,66.97,100.8
250422,2018-06-29 10:55:17.687500,30.0,100.8
250423,2018-06-29 10:55:17.718750,-3.58,100.8
250424,2018-06-29 10:55:17.750000,-32.57,100.8
250425,2018-06-29 10:55:17.781250,-53.24,100.8
250426,2018-06-29 10:55:17.812500,-63.01,100.8
250427,2018-06-29 10:55:17.843750,-65.61,100.8
250428,2018-06-29 10:55:17.875000,-67.25,100.8
250429,2018-06-29 10:55:17.906250,-69.57,100.8
250430,2018-06-29 10:55:17.937500,-70.9,100.8
250431,2018-06-29 10:55:17.968750,-69.12,100.8
250432,2018-06-29 10:55:18.000000,-58.99,100.8
250433,2018-06-29 10:55:18.031250,-36.47,100.8
250434,2018-06-29 10:55:18.062500,-9.29,100.8
250435,2018-06-29 10:55:18.093750,9.89,100.8
250436,2018-06-29 10:55:18.125000,18.22,100.8
250437,2018-06-29 10:55:18.156250,18.44,100.8
250438,2018-06-29 10:55:18.187500,8.56,100.8
250439,2018-06-29 10:55:18.218750,-12.1,100.8
250440,2018-06-29 10:55:18.250000,-35.03,100.8
250441,2018-06-29 10:55:18.281250,-49.88,100.8
250442,2018-06-29 10:55:18.312500,-54.87,100.8
250443,2018-06-29 10:55:18.343750,-55.97,100.8
250444,2018-06-29 10:55:18.375000,-58.86,100.8
250445,2018-06-29 10:55:18.406250,-64.01,100.8
250446,2018-06-29 10:55:18.437500,-69.4,100.8
250447,2018-06-29 10:55:18.468750,-73.01,100.8
250448,2018-06-29 10:55:18.500000,-69.69,100.8
250449,2018-06-29 10:55:18.531250,-54.65,100.53
250450,2018-06-29 10:55:18.562500,-33.37,100.53
250451,2018-06-29 10:55:18.593750,-18.41,100.53
250452,2018-06-29 10:55:18.625000,-15.96,100.53
250453,2018-06-29 10:55:18.656250,-23.47,100.53
250454,2018-06-29 10:55:18.687500,-36.38,100.53
250455,2018-06-29 10:55:18.718750,-50.31,100.53
250456,2018-06-29 10:55:18.750000,-61.95,100.53
250457,2018-06-29 10:55:18.781250,-71.79,100.53
250458,2018-06-29 10:55:18.812500,-83.47,100.53
250459,2018-06-29 10:55:18.843750,-100.09,100.53
250460,2018-06-29 10:55:18.875000,-118.92,100.53
250461,2018-06-29 10:55:18.906250,-130.29,100.53
250462,2018-06-29 10:55:18.937500,-126.8,100.53
250463,2018-06-29 10:55:18.968750,-112.54,100.53
250464,2018-06-29 10:55:19.000000,-95.98,100.53
250465,2018-06-29 10:55:19.031250,-77.76,100.53
250466,2018-06-29 10:55:19.062500,-55.01,100.53
250467,2018-06-29 10:55:19.093750,-31.61,100.53
250468,2018-06-29 10:55:19.125000,-15.1,100.53
250469,2018-06-29 10:55:19.156250,-7.77,100.53
250470,2018-06-29 10:55:19.187500,-7.13,100.53
250471,2018-06-29 10:55:19.218750,-10.85,100.53
250472,2018-06-29 10:55:19.250000,-17.04,100.53
250473,2018-06-29 10:55:19.281250,-23.17,100.53
250474,2018-06-29 10:55:19.312500,-27.75,100.53
250475,2018-06-29 10:55:19.343750,-31.66,100.53
250476,2018-06-29 10:55:19.375000,-35.63,100.53
250477,2018-06-29 10:55:19.406250,-38.17,100.53
250478,2018-06-29 10:55:19.437500,-38.81,100.53
250479,2018-06-29 10:55:19.468750,-41.29,100.53
250480,2018-06-29 10:55:19.500000,-48.27,100.53
250481,2018-06-29 10:55:19.531250,-53.39,100.27
250482,2018-06-29 10:55:19.562500,-45.2,100.27
250483,2018-06-29 10:55:19.593750,-20.85,100.27
250484,2018-06-29 10:55:19.625000,9.54,100.27
250485,2018-06-29 10:55:19.656250,33.44,100.27
250486,2018-06-29 10:55:19.687500,45.54,100.27
250487,2018-06-29 10:55:19.718750,47.24,100.27
250488,2018-06-29 10:55:19.750000,43.52,100.27
250489,2018-06-29 10:55:19.781250,40.46,100.27
250490,2018-06-29 10:55:19.812500,40.25,100.27
250491,2018-06-29 10:55:19.843750,42.17,100.27
250492,2018-06-29 10:55:19.875000,47.62,100.27
250493,2018-06-29 10:55:19.906250,56.7,100.27
250494,2018-06-29 10:55:19.937500,65.95,100.27
250495,2018-06-29 10:55:19.968750,70.61,100.27
250496,2018-06-29 10:55:20.000000,71.23,100.27
250497,2018-06-29 10:55:20.031250,72.35,100.27
250498,2018-06-29 10:55:20.062500,79.94,100.27
250499,2018-06-29 10:55:20.093750,96.35,100.27
250500,2018-06-29 10:55:20.125000,117.78,100.27
250501,2018-06-29 10:55:20.156250,137.29,100.27
250502,2018-06-29 10:55:20.187500,145.89,100.27
250503,2018-06-29 10:55:20.218750,139.38,100.27
250504,2018-06-29 10:55:20.250000,113.0,100.27
250505,2018-06-29 10:55:20.281250,77.1,100.27
250506,2018-06-29 10:55:20.312500,42.44,100.27
250507,2018-06-29 10:55:20.343750,12.61,100.27
250508,2018-06-29 10:55:20.375000,-23.73,100.27
250509,2018-06-29 10:55:20.406250,-73.67,100.27
250510,2018-06-29 10:55:20.437500,-118.27,100.27
250511,2018-06-29 10:55:20.468750,-156.65,100.27
250512,2018-06-29 10:55:20.500000,-208.4,100.27
250513,2018-06-29 10:55:20.531250,-302.7,99.95
250514,2018-06-29 10:55:20.562500,-388.79,99.95
250515,2018-06-29 10:55:20.593750,-409.76,99.95
250516,2018-06-29 10:55:20.625000,-382.49,99.95
250517,2018-06-29 10:55:20.656250,-384.43,99.95
250518,2018-06-29 10:55:20.687500,-452.48,99.95
250519,2018-06-29 10:55:20.718750,-531.61,99.95
250520,2018-06-29 10:55:20.750000,-593.12,99.95
250521,2018-06-29 10:55:20.781250,-461.52,99.95
250522,2018-06-29 10:55:20.812500,-106.13,99.95
250523,2018-06-29 10:55:20.843750,182.95,99.95
250524,2018-06-29 10:55:20.875000,336.28,99.95
250525,2018-06-29 10:55:20.906250,411.74,99.95
250526,2018-06-29 10:55:20.937500,421.21,99.95
250527,2018-06-29 10:55:20.968750,375.64,99.95
250528,2018-06-29 10:55:21.000000,337.01,99.95
250529,2018-06-29 10:55:21.031250,323.48,99.95
250530,2018-06-29 10:55:21.062500,318.35,99.95
250531,2018-06-29 10:55:21.093750,286.3,99.95
250532,2018-06-29 10:55:21.125000,247.86,99.95
250533,2018-06-29 10:55:21.156250,229.26,99.95
250534,2018-06-29 10:55:21.187500,224.17,99.95
250535,2018-06-29 10:55:21.218750,209.15,99.95
250536,2018-06-29 10:55:21.250000,175.56,99.95
250537,2018-06-29 10:55:21.281250,146.81,99.95
250538,2018-06-29 10:55:21.312500,130.17,99.95
250539,2018-06-29 10:55:21.343750,120.75,99.95
250540,2018-06-29 10:55:21.375000,107.85,99.95
250541,2018-06-29 10:55:21.406250,98.19,99.95
250542,2018-06-29 10:55:21.437500,98.28,99.95
250543,2018-06-29 10:55:21.468750,104.73,99.95
250544,2018-06-29 10:55:21.500000,111.28,99.95
250545,2018-06-29 10:55:21.531250,114.21,99.62
250546,2018-06-29 10:55:21.562500,111.45,99.62
250547,2018-06-29 10:55:21.593750,91.66,99.62
250548,2018-06-29 10:55:21.625000,57.34,99.62
250549,2018-06-29 10:55:21.656250,19.03,99.62
250550,2018-06-29 10:55:21.687500,-20.27,99.62
250551,2018-06-29 10:55:21.718750,-61.8,99.62
250552,2018-06-29 10:55:21.750000,-103.48,99.62
250553,2018-06-29 10:55:21.781250,-143.39,99.62
250554,2018-06-29 10:55:21.812500,-180.54,99.62
250555,2018-06-29 10:55:21.843750,-203.98,99.62
250556,2018-06-29 10:55:21.875000,-197.15,99.62
250557,2018-06-29 10:55:21.906250,-160.53,99.62
250558,2018-06-29 10:55:21.937500,-118.23,99.62
250559,2018-06-29 10:55:21.968750,-92.42,99.62
250560,2018-06-29 10:55:22.000000,-91.08,99.62
250561,2018-06-29 10:55:22.031250,-109.81,99.62
250562,2018-06-29 10:55:22.062500,-124.36,99.62
250563,2018-06-29 10:55:22.093750,-91.63,99.62
250564,2018-06-29 10:55:22.125000,7.13,99.62
250565,2018-06-29 10:55:22.156250,129.99,99.62
250566,2018-06-29 10:55:22.187500,212.81,99.62
250567,2018-06-29 10:55:22.218750,231.9,99.62
250568,2018-06-29 10:55:22.250000,205.35,99.62
250569,2018-06-29 10:55:22.281250,155.69,99.62
250570,2018-06-29 10:55:22.312500,101.97,99.62
250571,2018-06-29 10:55:22.343750,64.69,99.62
250572,2018-06-29 10:55:22.375000,53.72,99.62
250573,2018-06-29 10:55:22.406250,63.32,99.62
250574,2018-06-29 10:55:22.437500,85.72,99.62
250575,2018-06-29 10:55:22.468750,118.23,99.62
250576,2018-06-29 10:55:22.500000,150.99,99.62
250577,2018-06-29 10:55:22.531250,159.09,99.25
250578,2018-06-29 10:55:22.562500,122.14,99.25
250579,2018-06-29 10:55:22.593750,57.69,99.25
250580,2018-06-29 10:55:22.625000,18.59,99.25
250581,2018-06-29 10:55:22.656250,36.59,99.25
250582,2018-06-29 10:55:22.687500,81.7,99.25
250583,2018-06-29 10:55:22.718750,99.11,99.25
250584,2018-06-29 10:55:22.750000,68.32,99.25
250585,2018-06-29 10:55:22.781250,5.05,99.25
250586,2018-06-29 10:55:22.812500,-68.42,99.25
250587,2018-06-29 10:55:22.843750,-130.36,99.25
250588,2018-06-29 10:55:22.875000,-163.82,99.25
250589,2018-06-29 10:55:22.906250,-172.37,99.25
250590,2018-06-29 10:55:22.937500,-173.42,99.25
250591,2018-06-29 10:55:22.968750,-174.31,99.25
250592,2018-06-29 10:55:23.000000,-173.12,99.25
250593,2018-06-29 10:55:23.031250,-176.59,99.25
250594,2018-06-29 10:55:23.062500,-197.01,99.25
250595,2018-06-29 10:55:23.093750,-230.8,99.25
250596,2018-06-29 10:55:23.125000,-244.54,99.25
250597,2018-06-29 10:55:23.156250,-198.54,99.25
250598,2018-06-29 10:55:23.187500,-98.62,99.25
250599,2018-06-29 10:55:23.218750,-0.28,99.25
250600,2018-06-29 10:55:23.250000,53.85,99.25
250601,2018-06-29 10:55:23.281250,66.02,99.25
250602,2018-06-29 10:55:23.312500,47.9,99.25
250603,2018-06-29 10:55:23.343750,3.64,99.25
250604,2018-06-29 10:55:23.375000,-45.82,99.25
250605,2018-06-29 10:55:23.406250,-70.82,99.25
250606,2018-06-29 10:55:23.437500,-69.86,99.25
250607,2018-06-29 10:55:23.468750,-63.39,99.25
250608,2018-06-29 10:55:23.500000,-55.93,99.25
250609,2018-06-29 10:55:23.531250,-39.12,98.92
250610,2018-06-29 10:55:23.562500,-25.91,98.92
250611,2018-06-29 10:55:23.593750,-43.95,98.92
250612,2018-06-29 10:55:23.625000,-95.96,98.92
250613,2018-06-29 10:55:23.656250,-145.63,98.92
250614,2018-06-29 10:55:23.687500,-141.08,98.92
250615,2018-06-29 10:55:23.718750,-59.81,98.92
250616,2018-06-29 10:55:23.750000,55.99,98.92
250617,2018-06-29 10:55:23.781250,129.29,98.92
250618,2018-06-29 10:55:23.812500,124.05,98.92
250619,2018-06-29 10:55:23.843750,66.92,98.92
250620,2018-06-29 10:55:23.875000,2.01,98.92
250621,2018-06-29 10:55:23.906250,-40.61,98.92
250622,2018-06-29 10:55:23.937500,-47.2,98.92
250623,2018-06-29 10:55:23.968750,-27.98,98.92
250624,2018-06-29 10:55:24.000000,-12.18,98.92
250625,2018-06-29 10:55:24.031250,-15.31,98.92
250626,2018-06-29 10:55:24.062500,-25.49,98.92
250627,2018-06-29 10:55:24.093750,-29.32,98.92
250628,2018-06-29 10:55:24.125000,-33.87,98.92
250629,2018-06-29 10:55:24.156250,-56.47,98.92
250630,2018-06-29 10:55:24.187500,-96.87,98.92
250631,2018-06-29 10:55:24.218750,-119.77,98.92
250632,2018-06-29 10:55:24.250000,-82.74,98.92
250633,2018-06-29 10:55:24.281250,7.11,98.92
250634,2018-06-29 10:55:24.312500,92.66,98.92
250635,2018-06-29 10:55:24.343750,131.71,98.92
250636,2018-06-29 10:55:24.375000,126.12,98.92
250637,2018-06-29 10:55:24.406250,90.53,98.92
250638,2018-06-29 10:55:24.437500,39.39,98.92
250639,2018-06-29 10:55:24.468750,-4.25,98.92
250640,2018-06-29 10:55:24.500000,-28.32,98.92
250641,2018-06-29 10:55:24.531250,-47.42,98.6
250642,2018-06-29 10:55:24.562500,-75.06,98.6
250643,2018-06-29 10:55:24.593750,-101.64,98.6
250644,2018-06-29 10:55:24.625000,-116.87,98.6
250645,2018-06-29 10:55:24.656250,-132.14,98.6
250646,2018-06-29 10:55:24.687500,-166.86,98.6
250647,2018-06-29 10:55:24.718750,-220.78,98.6
250648,2018-06-29 10:55:24.750000,-260.6,98.6
250649,2018-06-29 10:55:24.781250,-241.88,98.6
250650,2018-06-29 10:55:24.812500,-160.94,98.6
250651,2018-06-29 10:55:24.843750,-70.44,98.6
250652,2018-06-29 10:55:24.875000,-20.1,98.6
250653,2018-06-29 10:55:24.906250,-9.1,98.6
250654,2018-06-29 10:55:24.937500,-21.96,98.6
250655,2018-06-29 10:55:24.968750,-65.71,98.6
250656,2018-06-29 10:55:25.000000,-136.82,98.6
250657,2018-06-29 10:55:25.031250,-201.18,98.6
250658,2018-06-29 10:55:25.062500,-230.04,98.6
250659,2018-06-29 10:55:25.093750,-220.16,98.6
250660,2018-06-29 10:55:25.125000,-180.95,98.6
250661,2018-06-29 10:55:25.156250,-125.69,98.6
250662,2018-06-29 10:55:25.187500,-78.8,98.6
250663,2018-06-29 10:55:25.218750,-60.35,98.6
250664,2018-06-29 10:55:25.250000,-73.02,98.6
250665,2018-06-29 10:55:25.281250,-97.17,98.6
250666,2018-06-29 10:55:25.312500,-104.93,98.6
250667,2018-06-29 10:55:25.343750,-86.7,98.6
250668,2018-06-29 10:55:25.375000,-54.41,98.6
250669,2018-06-29 10:55:25.406250,-22.41,98.6
250670,2018-06-29 10:55:25.437500,21.64,98.6
250671,2018-06-29 10:55:25.468750,68.31,98.6
250672,2018-06-29 10:55:25.500000,102.9,98.6
250673,2018-06-29 10:55:25.531250,124.95,98.27
250674,2018-06-29 10:55:25.562500,167.2,98.27
250675,2018-06-29 10:55:25.593750,238.15,98.27
250676,2018-06-29 10:55:25.625000,295.28,98.27
250677,2018-06-29 10:55:25.656250,329.53,98.27
250678,2018-06-29 10:55:25.687500,363.24,98.27
250679,2018-06-29 10:55:25.718750,452.82,98.27
250680,2018-06-29 10:55:25.750000,550.88,98.27
250681,2018-06-29 10:55:25.781250,614.58,98.27
250682,2018-06-29 10:55:25.812500,654.68,98.27
250683,2018-06-29 10:55:25.843750,738.81,98.27
250684,2018-06-29 10:55:25.875000,878.78,98.27
250685,2018-06-29 10:55:25.906250,988.33,98.27
250686,2018-06-29 10:55:25.937500,1050.05,98.27
250687,2018-06-29 10:55:25.968750,771.43,98.27
250688,2018-06-29 10:55:26.000000,200.37,98.27
250689,2018-06-29 10:55:26.031250,-190.57,98.27
250690,2018-06-29 10:55:26.062500,-379.11,98.27
250691,2018-06-29 10:55:26.093750,-472.95,98.27
250692,2018-06-29 10:55:26.125000,-478.23,98.27
250693,2018-06-29 10:55:26.156250,-411.64,98.27
250694,2018-06-29 10:55:26.187500,-366.58,98.27
250695,2018-06-29 10:55:26.218750,-358.81,98.27
250696,2018-06-29 10:55:26.250000,-358.41,98.27
250697,2018-06-29 10:55:26.281250,-306.57,98.27
250698,2018-06-29 10:55:26.312500,-249.15,98.27
250699,2018-06-29 10:55:26.343750,-227.13,98.27
250700,2018-06-29 10:55:26.375000,-229.65,98.27
250701,2018-06-29 10:55:26.406250,-217.44,98.27
250702,2018-06-29 10:55:26.437500,-179.1,98.27
250703,2018-06-29 10:55:26.468750,-150.95,98.27
250704,2018-06-29 10:55:26.500000,-136.9,98.27
250705,2018-06-29 10:55:26.531250,-123.85,97.9
250706,2018-06-29 10:55:26.562500,-93.42,97.9
250707,2018-06-29 10:55:26.593750,-62.46,97.9
250708,2018-06-29 10:55:26.625000,-46.5,97.9
250709,2018-06-29 10:55:26.656250,-41.68,97.9
250710,2018-06-29 10:55:26.687500,-35.07,97.9
250711,2018-06-29 10:55:26.718750,-15.84,97.9
250712,2018-06-29 10:55:26.750000,13.27,97.9
250713,2018-06-29 10:55:26.781250,44.29,97.9
250714,2018-06-29 10:55:26.812500,77.51,97.9
250715,2018-06-29 10:55:26.843750,108.72,97.9
250716,2018-06-29 10:55:26.875000,129.33,97.9
250717,2018-06-29 10:55:26.906250,131.45,97.9
250718,2018-06-29 10:55:26.937500,107.98,97.9
250719,2018-06-29 10:55:26.968750,45.19,97.9
250720,2018-06-29 10:55:27.000000,-27.53,97.9
250721,2018-06-29 10:55:27.031250,-77.55,97.9
250722,2018-06-29 10:55:27.062500,-99.82,97.9
250723,2018-06-29 10:55:27.093750,-111.22,97.9
250724,2018-06-29 10:55:27.125000,-110.14,97.9
250725,2018-06-29 10:55:27.156250,-89.57,97.9
250726,2018-06-29 10:55:27.187500,-47.19,97.9
250727,2018-06-29 10:55:27.218750,1.44,97.9
250728,2018-06-29 10:55:27.250000,43.17,97.9
250729,2018-06-29 10:55:27.281250,82.32,97.9
250730,2018-06-29 10:55:27.312500,129.97,97.9
250731,2018-06-29 10:55:27.343750,187.87,97.9
250732,2018-06-29 10:55:27.375000,224.98,97.9
250733,2018-06-29 10:55:27.406250,209.53,97.9
250734,2018-06-29 10:55:27.437500,86.11,97.9
250735,2018-06-29 10:55:27.468750,-92.87,97.9
250736,2018-06-29 10:55:27.500000,-184.97,97.9
250737,2018-06-29 10:55:27.531250,-149.78,97.55
250738,2018-06-29 10:55:27.562500,-20.9,97.55
250739,2018-06-29 10:55:27.593750,147.12,97.55
250740,2018-06-29 10:55:27.625000,297.05,97.55
250741,2018-06-29 10:55:27.656250,328.98,97.55
250742,2018-06-29 10:55:27.687500,203.83,97.55
250743,2018-06-29 10:55:27.718750,23.27,97.55
250744,2018-06-29 10:55:27.750000,-105.36,97.55
250745,2018-06-29 10:55:27.781250,-163.03,97.55
250746,2018-06-29 10:55:27.812500,-184.09,97.55
250747,2018-06-29 10:55:27.843750,-187.54,97.55
250748,2018-06-29 10:55:27.875000,-176.43,97.55
250749,2018-06-29 10:55:27.906250,-155.87,97.55
250750,2018-06-29 10:55:27.937500,-140.39,97.55
250751,2018-06-29 10:55:27.968750,-123.42,97.55
250752,2018-06-29 10:55:28.000000,-110.98,97.55
250753,2018-06-29 10:55:28.031250,-113.95,97.55
250754,2018-06-29 10:55:28.062500,-117.09,97.55
250755,2018-06-29 10:55:28.093750,-85.99,97.55
250756,2018-06-29 10:55:28.125000,-17.73,97.55
250757,2018-06-29 10:55:28.156250,50.14,97.55
250758,2018-06-29 10:55:28.187500,90.33,97.55
250759,2018-06-29 10:55:28.218750,102.04,97.55
250760,2018-06-29 10:55:28.250000,93.46,97.55
250761,2018-06-29 10:55:28.281250,69.7,97.55
250762,2018-06-29 10:55:28.312500,41.88,97.55
250763,2018-06-29 10:55:28.343750,21.56,97.55
250764,2018-06-29 10:55:28.375000,12.15,97.55
250765,2018-06-29 10:55:28.406250,7.45,97.55
250766,2018-06-29 10:55:28.437500,11.72,97.55
250767,2018-06-29 10:55:28.468750,29.4,97.55
250768,2018-06-29 10:55:28.500000,51.62,97.55
250769,2018-06-29 10:55:28.531250,58.19,97.25
250770,2018-06-29 10:55:28.562500,46.15,97.25
250771,2018-06-29 10:55:28.593750,41.07,97.25
250772,2018-06-29 10:55:28.625000,68.88,97.25
250773,2018-06-29 10:55:28.656250,131.43,97.25
250774,2018-06-29 10:55:28.687500,181.35,97.25
250775,2018-06-29 10:55:28.718750,171.2,97.25
250776,2018-06-29 10:55:28.750000,90.84,97.25
250777,2018-06-29 10:55:28.781250,-26.03,97.25
250778,2018-06-29 10:55:28.812500,-88.16,97.25
250779,2018-06-29 10:55:28.843750,-105.25,97.25
250780,2018-06-29 10:55:28.875000,-91.41,97.25
250781,2018-06-29 10:55:28.906250,-48.66,97.25
250782,2018-06-29 10:55:28.937500,-3.55,97.25
250783,2018-06-29 10:55:28.968750,-4.56,97.25
250784,2018-06-29 10:55:29.000000,-51.34,97.25
250785,2018-06-29 10:55:29.031250,-107.32,97.25
250786,2018-06-29 10:55:29.062500,-146.53,97.25
250787,2018-06-29 10:55:29.093750,-171.66,97.25
250788,2018-06-29 10:55:29.125000,-188.69,97.25
250789,2018-06-29 10:55:29.156250,-191.86,97.25
250790,2018-06-29 10:55:29.187500,-173.38,97.25
250791,2018-06-29 10:55:29.218750,-122.98,97.25
250792,2018-06-29 10:55:29.250000,-44.25,97.25
250793,2018-06-29 10:55:29.281250,41.8,97.25
250794,2018-06-29 10:55:29.312500,104.62,97.25
250795,2018-06-29 10:55:29.343750,127.77,97.25
250796,2018-06-29 10:55:29.375000,117.33,97.25
250797,2018-06-29 10:55:29.406250,91.98,97.25
250798,2018-06-29 10:55:29.437500,73.69,97.25
250799,2018-06-29 10:55:29.468750,75.97,97.25
250800,2018-06-29 10:55:29.500000,95.68,97.25
250801,2018-06-29 10:55:29.531250,117.46,96.93
250802,2018-06-29 10:55:29.562500,129.09,96.93
250803,2018-06-29 10:55:29.593750,133.01,96.93
250804,2018-06-29 10:55:29.625000,134.52,96.93
250805,2018-06-29 10:55:29.656250,131.65,96.93
250806,2018-06-29 10:55:29.687500,114.51,96.93
250807,2018-06-29 10:55:29.718750,76.09,96.93
250808,2018-06-29 10:55:29.750000,16.49,96.93
250809,2018-06-29 10:55:29.781250,-65.28,96.93
250810,2018-06-29 10:55:29.812500,-132.13,96.93
250811,2018-06-29 10:55:29.843750,-145.47,96.93
250812,2018-06-29 10:55:29.875000,-115.37,96.93
250813,2018-06-29 10:55:29.906250,-68.82,96.93
250814,2018-06-29 10:55:29.937500,-26.59,96.93
250815,2018-06-29 10:55:29.968750,-5.75,96.93
250816,2018-06-29 10:55:30.000000,-12.22,96.93
250817,2018-06-29 10:55:30.031250,-32.97,96.93
250818,2018-06-29 10:55:30.062500,-45.24,96.93
250819,2018-06-29 10:55:30.093750,-39.93,96.93
250820,2018-06-29 10:55:30.125000,-31.97,96.93
250821,2018-06-29 10:55:30.156250,-21.35,96.93
250822,2018-06-29 10:55:30.187500,3.33,96.93
250823,2018-06-29 10:55:30.218750,33.02,96.93
250824,2018-06-29 10:55:30.250000,39.81,96.93
250825,2018-06-29 10:55:30.281250,21.39,96.93
250826,2018-06-29 10:55:30.312500,5.41,96.93
250827,2018-06-29 10:55:30.343750,16.47,96.93
250828,2018-06-29 10:55:30.375000,54.69,96.93
250829,2018-06-29 10:55:30.406250,101.04,96.93
250830,2018-06-29 10:55:30.437500,133.29,96.93
250831,2018-06-29 10:55:30.468750,136.37,96.93
250832,2018-06-29 10:55:30.500000,101.16,96.93
250833,2018-06-29 10:55:30.531250,36.0,96.62
250834,2018-06-29 10:55:30.562500,-37.58,96.62
250835,2018-06-29 10:55:30.593750,-117.7,96.62
250836,2018-06-29 10:55:30.625000,-191.85,96.62
250837,2018-06-29 10:55:30.656250,-249.11,96.62
250838,2018-06-29 10:55:30.687500,-284.11,96.62
250839,2018-06-29 10:55:30.718750,-289.23,96.62
250840,2018-06-29 10:55:30.750000,-273.83,96.62
250841,2018-06-29 10:55:30.781250,-212.25,96.62
250842,2018-06-29 10:55:30.812500,-104.0,96.62
250843,2018-06-29 10:55:30.843750,-1.91,96.62
250844,2018-06-29 10:55:30.875000,78.55,96.62
250845,2018-06-29 10:55:30.906250,148.38,96.62
250846,2018-06-29 10:55:30.937500,207.48,96.62
250847,2018-06-29 10:55:30.968750,236.75,96.62
250848,2018-06-29 10:55:31.000000,235.78,96.62
250849,2018-06-29 10:55:31.031250,210.36,96.62
250850,2018-06-29 10:55:31.062500,170.28,96.62
250851,2018-06-29 10:55:31.093750,120.26,96.62
250852,2018-06-29 10:55:31.125000,72.28,96.62
250853,2018-06-29 10:55:31.156250,36.62,96.62
250854,2018-06-29 10:55:31.187500,14.08,96.62
250855,2018-06-29 10:55:31.218750,-2.58,96.62
250856,2018-06-29 10:55:31.250000,-16.49,96.62
250857,2018-06-29 10:55:31.281250,-22.23,96.62
250858,2018-06-29 10:55:31.312500,-20.81,96.62
250859,2018-06-29 10:55:31.343750,-22.05,96.62
250860,2018-06-29 10:55:31.375000,-36.05,96.62
250861,2018-06-29 10:55:31.406250,-56.86,96.62
250862,2018-06-29 10:55:31.437500,-73.42,96.62
250863,2018-06-29 10:55:31.468750,-74.98,96.62
250864,2018-06-29 10:55:31.500000,-49.68,96.62
250865,2018-06-29 10:55:31.531250,1.09,96.32
250866,2018-06-29 10:55:31.562500,52.87,96.32
250867,2018-06-29 10:55:31.593750,80.46,96.32
250868,2018-06-29 10:55:31.625000,82.54,96.32
250869,2018-06-29 10:55:31.656250,67.73,96.32
250870,2018-06-29 10:55:31.687500,41.23,96.32
250871,2018-06-29 10:55:31.718750,15.02,96.32
250872,2018-06-29 10:55:31.750000,2.45,96.32
250873,2018-06-29 10:55:31.781250,-5.64,96.32
250874,2018-06-29 10:55:31.812500,-25.52,96.32
250875,2018-06-29 10:55:31.843750,-48.43,96.32
250876,2018-06-29 10:55:31.875000,-58.93,96.32
250877,2018-06-29 10:55:31.906250,-64.22,96.32
250878,2018-06-29 10:55:31.937500,-73.51,96.32
250879,2018-06-29 10:55:31.968750,-77.43,96.32
250880,2018-06-29 10:55:32.000000,-65.53,96.32
250881,2018-06-29 10:55:32.031250,-38.93,96.32
250882,2018-06-29 10:55:32.062500,-0.5,96.32
250883,2018-06-29 10:55:32.093750,45.79,96.32
250884,2018-06-29 10:55:32.125000,89.91,96.32
250885,2018-06-29 10:55:32.156250,121.29,96.32
250886,2018-06-29 10:55:32.187500,133.81,96.32
250887,2018-06-29 10:55:32.218750,123.4,96.32
250888,2018-06-29 10:55:32.250000,90.58,96.32
250889,2018-06-29 10:55:32.281250,44.75,96.32
250890,2018-06-29 10:55:32.312500,-3.0,96.32
250891,2018-06-29 10:55:32.343750,-49.28,96.32
250892,2018-06-29 10:55:32.375000,-94.99,96.32
250893,2018-06-29 10:55:32.406250,-134.84,96.32
250894,2018-06-29 10:55:32.437500,-159.75,96.32
250895,2018-06-29 10:55:32.468750,-172.13,96.32
250896,2018-06-29 10:55:32.500000,-186.19,96.32
250897,2018-06-29 10:55:32.531250,-208.74,96.1
250898,2018-06-29 10:55:32.562500,-229.4,96.1
250899,2018-06-29 10:55:32.593750,-233.75,96.1
250900,2018-06-29 10:55:32.625000,-212.85,96.1
250901,2018-06-29 10:55:32.656250,-158.9,96.1
250902,2018-06-29 10:55:32.687500,-69.54,96.1
250903,2018-06-29 10:55:32.718750,34.84,96.1
250904,2018-06-29 10:55:32.750000,118.61,96.1
250905,2018-06-29 10:55:32.781250,167.46,96.1
250906,2018-06-29 10:55:32.812500,197.32,96.1
250907,2018-06-29 10:55:32.843750,223.67,96.1
250908,2018-06-29 10:55:32.875000,246.39,96.1
250909,2018-06-29 10:55:32.906250,261.29,96.1
250910,2018-06-29 10:55:32.937500,266.38,96.1
250911,2018-06-29 10:55:32.968750,258.72,96.1
250912,2018-06-29 10:55:33.000000,237.38,96.1
250913,2018-06-29 10:55:33.031250,204.49,96.1
250914,2018-06-29 10:55:33.062500,159.37,96.1
250915,2018-06-29 10:55:33.093750,98.47,96.1
250916,2018-06-29 10:55:33.125000,26.61,96.1
250917,2018-06-29 10:55:33.156250,-38.37,96.1
250918,2018-06-29 10:55:33.187500,-78.36,96.1
250919,2018-06-29 10:55:33.218750,-88.65,96.1
250920,2018-06-29 10:55:33.250000,-80.82,96.1
250921,2018-06-29 10:55:33.281250,-72.75,96.1
250922,2018-06-29 10:55:33.312500,-72.46,96.1
250923,2018-06-29 10:55:33.343750,-77.65,96.1
250924,2018-06-29 10:55:33.375000,-89.84,96.1
250925,2018-06-29 10:55:33.406250,-112.89,96.1
250926,2018-06-29 10:55:33.437500,-139.32,96.1
250927,2018-06-29 10:55:33.468750,-154.48,96.1
250928,2018-06-29 10:55:33.500000,-151.77,96.1
250929,2018-06-29 10:55:33.531250,-138.94,95.88
250930,2018-06-29 10:55:33.562500,-131.97,95.88
250931,2018-06-29 10:55:33.593750,-141.17,95.88
250932,2018-06-29 10:55:33.625000,-163.71,95.88
250933,2018-06-29 10:55:33.656250,-192.53,95.88
250934,2018-06-29 10:55:33.687500,-225.5,95.88
250935,2018-06-29 10:55:33.718750,-250.75,95.88
250936,2018-06-29 10:55:33.750000,-241.22,95.88
250937,2018-06-29 10:55:33.781250,-184.54,95.88
250938,2018-06-29 10:55:33.812500,-104.21,95.88
250939,2018-06-29 10:55:33.843750,-31.01,95.88
250940,2018-06-29 10:55:33.875000,25.22,95.88
250941,2018-06-29 10:55:33.906250,58.8,95.88
250942,2018-06-29 10:55:33.937500,65.92,95.88
250943,2018-06-29 10:55:33.968750,59.7,95.88
250944,2018-06-29 10:55:34.000000,65.13,95.88
250945,2018-06-29 10:55:34.031250,81.22,95.88
250946,2018-06-29 10:55:34.062500,86.27,95.88
250947,2018-06-29 10:55:34.093750,74.98,95.88
250948,2018-06-29 10:55:34.125000,64.75,95.88
250949,2018-06-29 10:55:34.156250,71.06,95.88
250950,2018-06-29 10:55:34.187500,74.91,95.88
250951,2018-06-29 10:55:34.218750,54.43,95.88
250952,2018-06-29 10:55:34.250000,16.85,95.88
250953,2018-06-29 10:55:34.281250,11.47,95.88
250954,2018-06-29 10:55:34.312500,74.12,95.88
250955,2018-06-29 10:55:34.343750,190.91,95.88
250956,2018-06-29 10:55:34.375000,309.36,95.88
250957,2018-06-29 10:55:34.406250,311.16,95.88
250958,2018-06-29 10:55:34.437500,211.41,95.88
250959,2018-06-29 10:55:34.468750,113.06,95.88
250960,2018-06-29 10:55:34.500000,46.09,95.88
250961,2018-06-29 10:55:34.531250,5.25,95.67
250962,2018-06-29 10:55:34.562500,-13.68,95.67
250963,2018-06-29 10:55:34.593750,-33.2,95.67
250964,2018-06-29 10:55:34.625000,-72.06,95.67
250965,2018-06-29 10:55:34.656250,-113.85,95.67
250966,2018-06-29 10:55:34.687500,-139.48,95.67
250967,2018-06-29 10:55:34.718750,-147.63,95.67
250968,2018-06-29 10:55:34.750000,-147.59,95.67
250969,2018-06-29 10:55:34.781250,-137.08,95.67
250970,2018-06-29 10:55:34.812500,-112.73,95.67
250971,2018-06-29 10:55:34.843750,-79.33,95.67
250972,2018-06-29 10:55:34.875000,-49.04,95.67
250973,2018-06-29 10:55:34.906250,-22.3,95.67
250974,2018-06-29 10:55:34.937500,21.4,95.67
250975,2018-06-29 10:55:34.968750,83.25,95.67
250976,2018-06-29 10:55:35.000000,140.94,95.67
250977,2018-06-29 10:55:35.031250,174.65,95.67
250978,2018-06-29 10:55:35.062500,167.41,95.67
250979,2018-06-29 10:55:35.093750,129.1,95.67
250980,2018-06-29 10:55:35.125000,77.75,95.67
250981,2018-06-29 10:55:35.156250,33.56,95.67
250982,2018-06-29 10:55:35.187500,8.78,95.67
250983,2018-06-29 10:55:35.218750,6.58,95.67
250984,2018-06-29 10:55:35.250000,10.14,95.67
250985,2018-06-29 10:55:35.281250,2.26,95.67
250986,2018-06-29 10:55:35.312500,-14.51,95.67
250987,2018-06-29 10:55:35.343750,-21.71,95.67
250988,2018-06-29 10:55:35.375000,-13.5,95.67
250989,2018-06-29 10:55:35.406250,-10.5,95.67
250990,2018-06-29 10:55:35.437500,-25.35,95.67
250991,2018-06-29 10:55:35.468750,-38.84,95.67
250992,2018-06-29 10:55:35.500000,-11.16,95.67
250993,2018-06-29 10:55:35.531250,56.63,95.47
250994,2018-06-29 10:55:35.562500,120.99,95.47
250995,2018-06-29 10:55:35.593750,137.55,95.47
250996,2018-06-29 10:55:35.625000,65.52,95.47
250997,2018-06-29 10:55:35.656250,-30.39,95.47
250998,2018-06-29 10:55:35.687500,-64.77,95.47
250999,2018-06-29 10:55:35.718750,-44.08,95.47
251000,2018-06-29 10:55:35.750000,-10.12,95.47
251001,2018-06-29 10:55:35.781250,27.9,95.47
251002,2018-06-29 10:55:35.812500,63.51,95.47
251003,2018-06-29 10:55:35.843750,79.74,95.47
251004,2018-06-29 10:55:35.875000,48.59,95.47
251005,2018-06-29 10:55:35.906250,-18.67,95.47
251006,2018-06-29 10:55:35.937500,-79.49,95.47
251007,2018-06-29 10:55:35.968750,-121.63,95.47
251008,2018-06-29 10:55:36.000000,-154.21,95.47
251009,2018-06-29 10:55:36.031250,-178.19,95.47
251010,2018-06-29 10:55:36.062500,-170.09,95.47
251011,2018-06-29 10:55:36.093750,-123.14,95.47
251012,2018-06-29 10:55:36.125000,-61.1,95.47
251013,2018-06-29 10:55:36.156250,-9.09,95.47
251014,2018-06-29 10:55:36.187500,39.59,95.47
251015,2018-06-29 10:55:36.218750,93.5,95.47
251016,2018-06-29 10:55:36.250000,138.72,95.47
251017,2018-06-29 10:55:36.281250,142.66,95.47
251018,2018-06-29 10:55:36.312500,88.39,95.47
251019,2018-06-29 10:55:36.343750,4.65,95.47
251020,2018-06-29 10:55:36.375000,-52.9,95.47
251021,2018-06-29 10:55:36.406250,-56.62,95.47
251022,2018-06-29 10:55:36.437500,-32.58,95.47
251023,2018-06-29 10:55:36.468750,-18.84,95.47
251024,2018-06-29 10:55:36.500000,-25.3,95.47
251025,2018-06-29 10:55:36.531250,-44.04,95.18
251026,2018-06-29 10:55:36.562500,-71.48,95.18
251027,2018-06-29 10:55:36.593750,-100.95,95.18
251028,2018-06-29 10:55:36.625000,-116.96,95.18
251029,2018-06-29 10:55:36.656250,-105.22,95.18
251030,2018-06-29 10:55:36.687500,-63.64,95.18
251031,2018-06-29 10:55:36.718750,-6.43,95.18
251032,2018-06-29 10:55:36.750000,44.77,95.18
251033,2018-06-29 10:55:36.781250,78.01,95.18
251034,2018-06-29 10:55:36.812500,93.37,95.18
251035,2018-06-29 10:55:36.843750,90.66,95.18
251036,2018-06-29 10:55:36.875000,71.42,95.18
251037,2018-06-29 10:55:36.906250,45.93,95.18
251038,2018-06-29 10:55:36.937500,22.74,95.18
251039,2018-06-29 10:55:36.968750,-3.38,95.18
251040,2018-06-29 10:55:37.000000,-36.89,95.18
251041,2018-06-29 10:55:37.031250,-62.66,95.18
251042,2018-06-29 10:55:37.062500,-61.29,95.18
251043,2018-06-29 10:55:37.093750,-37.16,95.18
251044,2018-06-29 10:55:37.125000,-13.17,95.18
251045,2018-06-29 10:55:37.156250,-3.77,95.18
251046,2018-06-29 10:55:37.187500,-9.52,95.18
251047,2018-06-29 10:55:37.218750,-23.95,95.18
251048,2018-06-29 10:55:37.250000,-28.8,95.18
251049,2018-06-29 10:55:37.281250,-1.14,95.18
251050,2018-06-29 10:55:37.312500,58.96,95.18
251051,2018-06-29 10:55:37.343750,122.73,95.18
251052,2018-06-29 10:55:37.375000,161.34,95.18
251053,2018-06-29 10:55:37.406250,168.01,95.18
251054,2018-06-29 10:55:37.437500,153.69,95.18
251055,2018-06-29 10:55:37.468750,133.21,95.18
251056,2018-06-29 10:55:37.500000,112.32,95.18
251057,2018-06-29 10:55:37.531250,82.15,94.92
251058,2018-06-29 10:55:37.562500,29.92,94.92
251059,2018-06-29 10:55:37.593750,-43.2,94.92
251060,2018-06-29 10:55:37.625000,-113.34,94.92
251061,2018-06-29 10:55:37.656250,-147.4,94.92
251062,2018-06-29 10:55:37.687500,-135.21,94.92
251063,2018-06-29 10:55:37.718750,-101.99,94.92
251064,2018-06-29 10:55:37.750000,-78.49,94.92
251065,2018-06-29 10:55:37.781250,-71.3,94.92
251066,2018-06-29 10:55:37.812500,-67.95,94.92
251067,2018-06-29 10:55:37.843750,-53.25,94.92
251068,2018-06-29 10:55:37.875000,-19.78,94.92
251069,2018-06-29 10:55:37.906250,23.47,94.92
251070,2018-06-29 10:55:37.937500,59.1,94.92
251071,2018-06-29 10:55:37.968750,81.9,94.92
251072,2018-06-29 10:55:38.000000,100.16,94.92
251073,2018-06-29 10:55:38.031250,119.37,94.92
251074,2018-06-29 10:55:38.062500,136.08,94.92
251075,2018-06-29 10:55:38.093750,144.65,94.92
251076,2018-06-29 10:55:38.125000,141.35,94.92
251077,2018-06-29 10:55:38.156250,121.89,94.92
251078,2018-06-29 10:55:38.187500,78.15,94.92
251079,2018-06-29 10:55:38.218750,3.72,94.92
251080,2018-06-29 10:55:38.250000,-89.23,94.92
251081,2018-06-29 10:55:38.281250,-163.78,94.92
251082,2018-06-29 10:55:38.312500,-189.39,94.92
251083,2018-06-29 10:55:38.343750,-176.26,94.92
251084,2018-06-29 10:55:38.375000,-159.18,94.92
251085,2018-06-29 10:55:38.406250,-152.34,94.92
251086,2018-06-29 10:55:38.437500,-139.12,94.92
251087,2018-06-29 10:55:38.468750,-102.23,94.92
251088,2018-06-29 10:55:38.500000,-46.46,94.92
251089,2018-06-29 10:55:38.531250,9.47,94.67
251090,2018-06-29 10:55:38.562500,53.65,94.67
251091,2018-06-29 10:55:38.593750,86.92,94.67
251092,2018-06-29 10:55:38.625000,111.74,94.67
251093,2018-06-29 10:55:38.656250,125.21,94.67
251094,2018-06-29 10:55:38.687500,121.76,94.67
251095,2018-06-29 10:55:38.718750,99.98,94.67
251096,2018-06-29 10:55:38.750000,69.86,94.67
251097,2018-06-29 10:55:38.781250,46.12,94.67
251098,2018-06-29 10:55:38.812500,28.11,94.67
251099,2018-06-29 10:55:38.843750,1.75,94.67
251100,2018-06-29 10:55:38.875000,-30.85,94.67
251101,2018-06-29 10:55:38.906250,-47.43,94.67
251102,2018-06-29 10:55:38.937500,-37.72,94.67
251103,2018-06-29 10:55:38.968750,-14.87,94.67
251104,2018-06-29 10:55:39.000000,4.0,94.67
251105,2018-06-29 10:55:39.031250,9.24,94.67
251106,2018-06-29 10:55:39.062500,2.48,94.67
251107,2018-06-29 10:55:39.093750,1.17,94.67
251108,2018-06-29 10:55:39.125000,21.68,94.67
251109,2018-06-29 10:55:39.156250,56.03,94.67
251110,2018-06-29 10:55:39.187500,82.68,94.67
251111,2018-06-29 10:55:39.218750,93.48,94.67
251112,2018-06-29 10:55:39.250000,97.63,94.67
251113,2018-06-29 10:55:39.281250,106.75,94.67
251114,2018-06-29 10:55:39.312500,121.4,94.67
251115,2018-06-29 10:55:39.343750,130.5,94.67
251116,2018-06-29 10:55:39.375000,123.92,94.67
251117,2018-06-29 10:55:39.406250,100.79,94.67
251118,2018-06-29 10:55:39.437500,63.02,94.67
251119,2018-06-29 10:55:39.468750,9.63,94.67
251120,2018-06-29 10:55:39.500000,-56.92,94.67
251121,2018-06-29 10:55:39.531250,-124.15,94.47
251122,2018-06-29 10:55:39.562500,-173.1,94.47
251123,2018-06-29 10:55:39.593750,-191.57,94.47
251124,2018-06-29 10:55:39.625000,-186.44,94.47
251125,2018-06-29 10:55:39.656250,-177.52,94.47
251126,2018-06-29 10:55:39.687500,-176.97,94.47
251127,2018-06-29 10:55:39.718750,-181.35,94.47
251128,2018-06-29 10:55:39.750000,-183.01,94.47
251129,2018-06-29 10:55:39.781250,-179.22,94.47
251130,2018-06-29 10:55:39.812500,-166.57,94.47
251131,2018-06-29 10:55:39.843750,-136.59,94.47
251132,2018-06-29 10:55:39.875000,-86.27,94.47
251133,2018-06-29 10:55:39.906250,-27.32,94.47
251134,2018-06-29 10:55:39.937500,23.31,94.47
251135,2018-06-29 10:55:39.968750,57.97,94.47
251136,2018-06-29 10:55:40.000000,79.22,94.47
251137,2018-06-29 10:55:40.031250,92.99,94.47
251138,2018-06-29 10:55:40.062500,107.24,94.47
251139,2018-06-29 10:55:40.093750,125.61,94.47
251140,2018-06-29 10:55:40.125000,134.62,94.47
251141,2018-06-29 10:55:40.156250,114.4,94.47
251142,2018-06-29 10:55:40.187500,72.25,94.47
251143,2018-06-29 10:55:40.218750,41.91,94.47
251144,2018-06-29 10:55:40.250000,40.66,94.47
251145,2018-06-29 10:55:40.281250,52.28,94.47
251146,2018-06-29 10:55:40.312500,55.34,94.47
251147,2018-06-29 10:55:40.343750,43.35,94.47
251148,2018-06-29 10:55:40.375000,19.24,94.47
251149,2018-06-29 10:55:40.406250,-9.6,94.47
251150,2018-06-29 10:55:40.437500,-33.04,94.47
251151,2018-06-29 10:55:40.468750,-44.92,94.47
251152,2018-06-29 10:55:40.500000,-43.77,94.47
251153,2018-06-29 10:55:40.531250,-27.65,94.27
251154,2018-06-29 10:55:40.562500,1.35,94.27
251155,2018-06-29 10:55:40.593750,32.13,94.27
251156,2018-06-29 10:55:40.625000,53.55,94.27
251157,2018-06-29 10:55:40.656250,61.82,94.27
251158,2018-06-29 10:55:40.687500,54.71,94.27
251159,2018-06-29 10:55:40.718750,31.05,94.27
251160,2018-06-29 10:55:40.750000,-1.91,94.27
251161,2018-06-29 10:55:40.781250,-32.36,94.27
251162,2018-06-29 10:55:40.812500,-53.35,94.27
251163,2018-06-29 10:55:40.843750,-62.42,94.27
251164,2018-06-29 10:55:40.875000,-60.39,94.27
251165,2018-06-29 10:55:40.906250,-53.32,94.27
251166,2018-06-29 10:55:40.937500,-47.86,94.27
251167,2018-06-29 10:55:40.968750,-44.6,94.27
251168,2018-06-29 10:55:41.000000,-40.93,94.27
251169,2018-06-29 10:55:41.031250,-35.86,94.27
251170,2018-06-29 10:55:41.062500,-29.16,94.27
251171,2018-06-29 10:55:41.093750,-20.89,94.27
251172,2018-06-29 10:55:41.125000,-11.85,94.27
251173,2018-06-29 10:55:41.156250,-2.46,94.27
251174,2018-06-29 10:55:41.187500,5.98,94.27
251175,2018-06-29 10:55:41.218750,11.55,94.27
251176,2018-06-29 10:55:41.250000,16.31,94.27
251177,2018-06-29 10:55:41.281250,24.61,94.27
251178,2018-06-29 10:55:41.312500,36.25,94.27
251179,2018-06-29 10:55:41.343750,47.64,94.27
251180,2018-06-29 10:55:41.375000,58.28,94.27
251181,2018-06-29 10:55:41.406250,68.91,94.27
251182,2018-06-29 10:55:41.437500,75.66,94.27
251183,2018-06-29 10:55:41.468750,71.84,94.27
251184,2018-06-29 10:55:41.500000,56.02,94.27
251185,2018-06-29 10:55:41.531250,36.86,94.08
251186,2018-06-29 10:55:41.562500,27.25,94.08
251187,2018-06-29 10:55:41.593750,33.04,94.08
251188,2018-06-29 10:55:41.625000,48.33,94.08
251189,2018-06-29 10:55:41.656250,60.63,94.08
251190,2018-06-29 10:55:41.687500,59.68,94.08
251191,2018-06-29 10:55:41.718750,42.94,94.08
251192,2018-06-29 10:55:41.750000,16.76,94.08
251193,2018-06-29 10:55:41.781250,-4.69,94.08
251194,2018-06-29 10:55:41.812500,-6.22,94.08
251195,2018-06-29 10:55:41.843750,15.16,94.08
251196,2018-06-29 10:55:41.875000,46.54,94.08
251197,2018-06-29 10:55:41.906250,74.47,94.08
251198,2018-06-29 10:55:41.937500,96.48,94.08
251199,2018-06-29 10:55:41.968750,113.0,94.08
251200,2018-06-29 10:55:42.000000,120.28,94.08
251201,2018-06-29 10:55:42.031250,116.05,94.08
251202,2018-06-29 10:55:42.062500,100.8,94.08
251203,2018-06-29 10:55:42.093750,71.51,94.08
251204,2018-06-29 10:55:42.125000,25.95,94.08
251205,2018-06-29 10:55:42.156250,-28.32,94.08
251206,2018-06-29 10:55:42.187500,-81.72,94.08
251207,2018-06-29 10:55:42.218750,-131.59,94.08
251208,2018-06-29 10:55:42.250000,-171.42,94.08
251209,2018-06-29 10:55:42.281250,-188.45,94.08
251210,2018-06-29 10:55:42.312500,-185.18,94.08
251211,2018-06-29 10:55:42.343750,-184.11,94.08
251212,2018-06-29 10:55:42.375000,-197.49,94.08
251213,2018-06-29 10:55:42.406250,-209.82,94.08
251214,2018-06-29 10:55:42.437500,-200.16,94.08
251215,2018-06-29 10:55:42.468750,-167.28,94.08
251216,2018-06-29 10:55:42.500000,-123.35,94.08
251217,2018-06-29 10:55:42.531250,-75.72,93.85
251218,2018-06-29 10:55:42.562500,-29.37,93.85
251219,2018-06-29 10:55:42.593750,4.44,93.85
251220,2018-06-29 10:55:42.625000,20.49,93.85
251221,2018-06-29 10:55:42.656250,30.32,93.85
251222,2018-06-29 10:55:42.687500,47.86,93.85
251223,2018-06-29 10:55:42.718750,73.97,93.85
251224,2018-06-29 10:55:42.750000,97.99,93.85
251225,2018-06-29 10:55:42.781250,99.01,93.85
251226,2018-06-29 10:55:42.812500,68.75,93.85
251227,2018-06-29 10:55:42.843750,38.93,93.85
251228,2018-06-29 10:55:42.875000,42.06,93.85
251229,2018-06-29 10:55:42.906250,56.59,93.85
251230,2018-06-29 10:55:42.937500,44.4,93.85
251231,2018-06-29 10:55:42.968750,11.42,93.85
251232,2018-06-29 10:55:43.000000,-16.97,93.85
251233,2018-06-29 10:55:43.031250,-36.88,93.85
251234,2018-06-29 10:55:43.062500,-48.03,93.85
251235,2018-06-29 10:55:43.093750,-40.85,93.85
251236,2018-06-29 10:55:43.125000,-18.35,93.85
251237,2018-06-29 10:55:43.156250,0.36,93.85
251238,2018-06-29 10:55:43.187500,7.16,93.85
251239,2018-06-29 10:55:43.218750,16.52,93.85
251240,2018-06-29 10:55:43.250000,40.33,93.85
251241,2018-06-29 10:55:43.281250,66.99,93.85
251242,2018-06-29 10:55:43.312500,78.41,93.85
251243,2018-06-29 10:55:43.343750,76.67,93.85
251244,2018-06-29 10:55:43.375000,79.9,93.85
251245,2018-06-29 10:55:43.406250,94.6,93.85
251246,2018-06-29 10:55:43.437500,103.42,93.85
251247,2018-06-29 10:55:43.468750,79.01,93.85
251248,2018-06-29 10:55:43.500000,13.55,93.85
251249,2018-06-29 10:55:43.531250,-60.85,93.62
251250,2018-06-29 10:55:43.562500,-99.87,93.62
251251,2018-06-29 10:55:43.593750,-97.86,93.62
251252,2018-06-29 10:55:43.625000,-85.91,93.62
251253,2018-06-29 10:55:43.656250,-84.15,93.62
251254,2018-06-29 10:55:43.687500,-86.92,93.62
251255,2018-06-29 10:55:43.718750,-84.82,93.62
251256,2018-06-29 10:55:43.750000,-73.25,93.62
251257,2018-06-29 10:55:43.781250,-49.26,93.62
251258,2018-06-29 10:55:43.812500,-17.13,93.62
251259,2018-06-29 10:55:43.843750,10.39,93.62
251260,2018-06-29 10:55:43.875000,23.89,93.62
251261,2018-06-29 10:55:43.906250,26.46,93.62
251262,2018-06-29 10:55:43.937500,27.09,93.62
251263,2018-06-29 10:55:43.968750,31.78,93.62
251264,2018-06-29 10:55:44.000000,42.94,93.62
251265,2018-06-29 10:55:44.031250,54.82,93.62
251266,2018-06-29 10:55:44.062500,53.44,93.62
251267,2018-06-29 10:55:44.093750,36.53,93.62
251268,2018-06-29 10:55:44.125000,20.18,93.62
251269,2018-06-29 10:55:44.156250,15.86,93.62
251270,2018-06-29 10:55:44.187500,19.02,93.62
251271,2018-06-29 10:55:44.218750,21.04,93.62
251272,2018-06-29 10:55:44.250000,13.44,93.62
251273,2018-06-29 10:55:44.281250,-8.37,93.62
251274,2018-06-29 10:55:44.312500,-32.59,93.62
251275,2018-06-29 10:55:44.343750,-39.69,93.62
251276,2018-06-29 10:55:44.375000,-25.86,93.62
251277,2018-06-29 10:55:44.406250,-6.69,93.62
251278,2018-06-29 10:55:44.437500,1.34,93.62
251279,2018-06-29 10:55:44.468750,0.61,93.62
251280,2018-06-29 10:55:44.500000,6.55,93.62
251281,2018-06-29 10:55:44.531250,24.67,93.35
251282,2018-06-29 10:55:44.562500,47.39,93.35
251283,2018-06-29 10:55:44.593750,71.34,93.35
251284,2018-06-29 10:55:44.625000,96.13,93.35
251285,2018-06-29 10:55:44.656250,113.32,93.35
251286,2018-06-29 10:55:44.687500,116.0,93.35
251287,2018-06-29 10:55:44.718750,111.17,93.35
251288,2018-06-29 10:55:44.750000,110.14,93.35
251289,2018-06-29 10:55:44.781250,110.75,93.35
251290,2018-06-29 10:55:44.812500,93.77,93.35
251291,2018-06-29 10:55:44.843750,41.85,93.35
251292,2018-06-29 10:55:44.875000,-38.05,93.35
251293,2018-06-29 10:55:44.906250,-115.03,93.35
251294,2018-06-29 10:55:44.937500,-159.58,93.35
251295,2018-06-29 10:55:44.968750,-167.37,93.35
251296,2018-06-29 10:55:45.000000,-154.64,93.35
251297,2018-06-29 10:55:45.031250,-135.93,93.35
251298,2018-06-29 10:55:45.062500,-116.96,93.35
251299,2018-06-29 10:55:45.093750,-102.33,93.35
251300,2018-06-29 10:55:45.125000,-93.17,93.35
251301,2018-06-29 10:55:45.156250,-82.64,93.35
251302,2018-06-29 10:55:45.187500,-67.62,93.35
251303,2018-06-29 10:55:45.218750,-54.78,93.35
251304,2018-06-29 10:55:45.250000,-47.97,93.35
251305,2018-06-29 10:55:45.281250,-42.45,93.35
251306,2018-06-29 10:55:45.312500,-33.71,93.35
251307,2018-06-29 10:55:45.343750,-22.06,93.35
251308,2018-06-29 10:55:45.375000,-9.48,93.35
251309,2018-06-29 10:55:45.406250,1.51,93.35
251310,2018-06-29 10:55:45.437500,8.07,93.35
251311,2018-06-29 10:55:45.468750,8.91,93.35
251312,2018-06-29 10:55:45.500000,4.92,93.35
251313,2018-06-29 10:55:45.531250,-1.82,93.08
251314,2018-06-29 10:55:45.562500,-8.33,93.08
251315,2018-06-29 10:55:45.593750,-11.94,93.08
251316,2018-06-29 10:55:45.625000,-11.29,93.08
251317,2018-06-29 10:55:45.656250,-4.1,93.08
251318,2018-06-29 10:55:45.687500,13.78,93.08
251319,2018-06-29 10:55:45.718750,43.89,93.08
251320,2018-06-29 10:55:45.750000,81.42,93.08
251321,2018-06-29 10:55:45.781250,119.47,93.08
251322,2018-06-29 10:55:45.812500,153.73,93.08
251323,2018-06-29 10:55:45.843750,181.87,93.08
251324,2018-06-29 10:55:45.875000,201.33,93.08
251325,2018-06-29 10:55:45.906250,208.07,93.08
251326,2018-06-29 10:55:45.937500,198.09,93.08
251327,2018-06-29 10:55:45.968750,172.28,93.08
251328,2018-06-29 10:55:46.000000,134.29,93.08
251329,2018-06-29 10:55:46.031250,83.42,93.08
251330,2018-06-29 10:55:46.062500,22.32,93.08
251331,2018-06-29 10:55:46.093750,-34.91,93.08
251332,2018-06-29 10:55:46.125000,-75.04,93.08
251333,2018-06-29 10:55:46.156250,-95.35,93.08
251334,2018-06-29 10:55:46.187500,-99.67,93.08
251335,2018-06-29 10:55:46.218750,-98.53,93.08
251336,2018-06-29 10:55:46.250000,-106.92,93.08
251337,2018-06-29 10:55:46.281250,-129.88,93.08
251338,2018-06-29 10:55:46.312500,-157.37,93.08
251339,2018-06-29 10:55:46.343750,-176.44,93.08
251340,2018-06-29 10:55:46.375000,-181.19,93.08
251341,2018-06-29 10:55:46.406250,-174.68,93.08
251342,2018-06-29 10:55:46.437500,-164.66,93.08
251343,2018-06-29 10:55:46.468750,-153.0,93.08
251344,2018-06-29 10:55:46.500000,-132.61,93.08
251345,2018-06-29 10:55:46.531250,-97.37,92.8
251346,2018-06-29 10:55:46.562500,-51.92,92.8
251347,2018-06-29 10:55:46.593750,-7.3,92.8
251348,2018-06-29 10:55:46.625000,27.83,92.8
251349,2018-06-29 10:55:46.656250,49.24,92.8
251350,2018-06-29 10:55:46.687500,56.41,92.8
251351,2018-06-29 10:55:46.718750,52.97,92.8
251352,2018-06-29 10:55:46.750000,44.12,92.8
251353,2018-06-29 10:55:46.781250,33.77,92.8
251354,2018-06-29 10:55:46.812500,24.71,92.8
251355,2018-06-29 10:55:46.843750,18.33,92.8
251356,2018-06-29 10:55:46.875000,14.0,92.8
251357,2018-06-29 10:55:46.906250,10.35,92.8
251358,2018-06-29 10:55:46.937500,7.14,92.8
251359,2018-06-29 10:55:46.968750,4.5,92.8
251360,2018-06-29 10:55:47.000000,2.21,92.8
251361,2018-06-29 10:55:47.031250,0.48,92.8
251362,2018-06-29 10:55:47.062500,-0.25,92.8
251363,2018-06-29 10:55:47.093750,-0.46,92.8
251364,2018-06-29 10:55:47.125000,-0.51,92.8
251365,2018-06-29 10:55:47.156250,-0.19,92.8
251366,2018-06-29 10:55:47.187500,-0.36,92.8
251367,2018-06-29 10:55:47.218750,-1.3,92.8
251368,2018-06-29 10:55:47.250000,0.78,92.8
251369,2018-06-29 10:55:47.281250,10.46,92.8
251370,2018-06-29 10:55:47.312500,26.32,92.8
251371,2018-06-29 10:55:47.343750,41.56,92.8
251372,2018-06-29 10:55:47.375000,50.13,92.8
251373,2018-06-29 10:55:47.406250,50.1,92.8
251374,2018-06-29 10:55:47.437500,44.21,92.8
251375,2018-06-29 10:55:47.468750,37.91,92.8
251376,2018-06-29 10:55:47.500000,34.51,92.8
251377,2018-06-29 10:55:47.531250,32.46,92.52
251378,2018-06-29 10:55:47.562500,28.58,92.52
251379,2018-06-29 10:55:47.593750,23.48,92.52
251380,2018-06-29 10:55:47.625000,21.66,92.52
251381,2018-06-29 10:55:47.656250,25.83,92.52
251382,2018-06-29 10:55:47.687500,32.77,92.52
251383,2018-06-29 10:55:47.718750,36.94,92.52
251384,2018-06-29 10:55:47.750000,35.96,92.52
251385,2018-06-29 10:55:47.781250,30.69,92.52
251386,2018-06-29 10:55:47.812500,22.65,92.52
251387,2018-06-29 10:55:47.843750,12.67,92.52
251388,2018-06-29 10:55:47.875000,0.56,92.52
251389,2018-06-29 10:55:47.906250,-12.5,92.52
251390,2018-06-29 10:55:47.937500,-21.42,92.52
251391,2018-06-29 10:55:47.968750,-21.78,92.52
251392,2018-06-29 10:55:48.000000,-16.05,92.52
251393,2018-06-29 10:55:48.031250,-10.79,92.52
251394,2018-06-29 10:55:48.062500,-9.91,92.52
251395,2018-06-29 10:55:48.093750,-12.95,92.52
251396,2018-06-29 10:55:48.125000,-16.85,92.52
251397,2018-06-29 10:55:48.156250,-18.55,92.52
251398,2018-06-29 10:55:48.187500,-16.83,92.52
251399,2018-06-29 10:55:48.218750,-13.45,92.52
251400,2018-06-29 10:55:48.250000,-10.31,92.52
251401,2018-06-29 10:55:48.281250,-6.23,92.52
251402,2018-06-29 10:55:48.312500,2.77,92.52
251403,2018-06-29 10:55:48.343750,17.91,92.52
251404,2018-06-29 10:55:48.375000,34.72,92.52
251405,2018-06-29 10:55:48.406250,49.14,92.52
251406,2018-06-29 10:55:48.437500,61.21,92.52
251407,2018-06-29 10:55:48.468750,72.12,92.52
251408,2018-06-29 10:55:48.500000,77.27,92.52
251409,2018-06-29 10:55:48.531250,75.69,92.32
251410,2018-06-29 10:55:48.562500,74.85,92.32
251411,2018-06-29 10:55:48.593750,83.46,92.32
251412,2018-06-29 10:55:48.625000,99.81,92.32
251413,2018-06-29 10:55:48.656250,112.44,92.32
251414,2018-06-29 10:55:48.687500,115.25,92.32
251415,2018-06-29 10:55:48.718750,103.72,92.32
251416,2018-06-29 10:55:48.750000,77.39,92.32
251417,2018-06-29 10:55:48.781250,33.11,92.32
251418,2018-06-29 10:55:48.812500,-20.29,92.32
251419,2018-06-29 10:55:48.843750,-69.67,92.32
251420,2018-06-29 10:55:48.875000,-111.39,92.32
251421,2018-06-29 10:55:48.906250,-155.47,92.32
251422,2018-06-29 10:55:48.937500,-218.01,92.32
251423,2018-06-29 10:55:48.968750,-293.99,92.32
251424,2018-06-29 10:55:49.000000,-372.18,92.32
251425,2018-06-29 10:55:49.031250,-381.05,92.32
251426,2018-06-29 10:55:49.062500,-268.77,92.32
251427,2018-06-29 10:55:49.093750,-127.59,92.32
251428,2018-06-29 10:55:49.125000,-17.42,92.32
251429,2018-06-29 10:55:49.156250,58.22,92.32
251430,2018-06-29 10:55:49.187500,91.71,92.32
251431,2018-06-29 10:55:49.218750,88.47,92.32
251432,2018-06-29 10:55:49.250000,84.59,92.32
251433,2018-06-29 10:55:49.281250,92.57,92.32
251434,2018-06-29 10:55:49.312500,97.52,92.32
251435,2018-06-29 10:55:49.343750,85.1,92.32
251436,2018-06-29 10:55:49.375000,66.93,92.32
251437,2018-06-29 10:55:49.406250,57.3,92.32
251438,2018-06-29 10:55:49.437500,55.03,92.32
251439,2018-06-29 10:55:49.468750,54.06,92.32
251440,2018-06-29 10:55:49.500000,49.54,92.32
251441,2018-06-29 10:55:49.531250,43.77,92.12
251442,2018-06-29 10:55:49.562500,39.31,92.12
251443,2018-06-29 10:55:49.593750,39.08,92.12
251444,2018-06-29 10:55:49.625000,42.02,92.12
251445,2018-06-29 10:55:49.656250,45.62,92.12
251446,2018-06-29 10:55:49.687500,47.56,92.12
251447,2018-06-29 10:55:49.718750,46.23,92.12
251448,2018-06-29 10:55:49.750000,40.99,92.12
251449,2018-06-29 10:55:49.781250,31.34,92.12
251450,2018-06-29 10:55:49.812500,18.23,92.12
251451,2018-06-29 10:55:49.843750,5.04,92.12
251452,2018-06-29 10:55:49.875000,-4.43,92.12
251453,2018-06-29 10:55:49.906250,-8.5,92.12
251454,2018-06-29 10:55:49.937500,-9.41,92.12
251455,2018-06-29 10:55:49.968750,-9.85,92.12
251456,2018-06-29 10:55:50.000000,-8.23,92.12
251457,2018-06-29 10:55:50.031250,-3.72,92.12
251458,2018-06-29 10:55:50.062500,2.66,92.12
251459,2018-06-29 10:55:50.093750,5.45,92.12
251460,2018-06-29 10:55:50.125000,3.46,92.12
251461,2018-06-29 10:55:50.156250,-1.44,92.12
251462,2018-06-29 10:55:50.187500,-7.82,92.12
251463,2018-06-29 10:55:50.218750,-18.26,92.12
251464,2018-06-29 10:55:50.250000,-34.8,92.12
251465,2018-06-29 10:55:50.281250,-50.07,92.12
251466,2018-06-29 10:55:50.312500,-61.82,92.12
251467,2018-06-29 10:55:50.343750,-74.37,92.12
251468,2018-06-29 10:55:50.375000,-101.81,92.12
251469,2018-06-29 10:55:50.406250,-148.51,92.12
251470,2018-06-29 10:55:50.437500,-175.36,92.12
251471,2018-06-29 10:55:50.468750,-168.83,92.12
251472,2018-06-29 10:55:50.500000,-110.55,92.12
251473,2018-06-29 10:55:50.531250,-19.15,91.92
251474,2018-06-29 10:55:50.562500,46.64,91.92
251475,2018-06-29 10:55:50.593750,57.68,91.92
251476,2018-06-29 10:55:50.625000,42.74,91.92
251477,2018-06-29 10:55:50.656250,24.6,91.92
251478,2018-06-29 10:55:50.687500,4.47,91.92
251479,2018-06-29 10:55:50.718750,-13.11,91.92
251480,2018-06-29 10:55:50.750000,-21.44,91.92
251481,2018-06-29 10:55:50.781250,-26.14,91.92
251482,2018-06-29 10:55:50.812500,-35.09,91.92
251483,2018-06-29 10:55:50.843750,-40.44,91.92
251484,2018-06-29 10:55:50.875000,-34.37,91.92
251485,2018-06-29 10:55:50.906250,-22.14,91.92
251486,2018-06-29 10:55:50.937500,-18.47,91.92
251487,2018-06-29 10:55:50.968750,-28.23,91.92
251488,2018-06-29 10:55:51.000000,-40.99,91.92
251489,2018-06-29 10:55:51.031250,-45.72,91.92
251490,2018-06-29 10:55:51.062500,-46.4,91.92
251491,2018-06-29 10:55:51.093750,-61.46,91.92
251492,2018-06-29 10:55:51.125000,-99.7,91.92
251493,2018-06-29 10:55:51.156250,-142.94,91.92
251494,2018-06-29 10:55:51.187500,-165.62,91.92
251495,2018-06-29 10:55:51.218750,-151.08,91.92
251496,2018-06-29 10:55:51.250000,-106.3,91.92
251497,2018-06-29 10:55:51.281250,-53.22,91.92
251498,2018-06-29 10:55:51.312500,-6.44,91.92
251499,2018-06-29 10:55:51.343750,33.71,91.92
251500,2018-06-29 10:55:51.375000,68.59,91.92
251501,2018-06-29 10:55:51.406250,93.76,91.92
251502,2018-06-29 10:55:51.437500,104.07,91.92
251503,2018-06-29 10:55:51.468750,101.46,91.92
251504,2018-06-29 10:55:51.500000,96.73,91.92
251505,2018-06-29 10:55:51.531250,98.9,91.7
251506,2018-06-29 10:55:51.562500,107.57,91.7
251507,2018-06-29 10:55:51.593750,113.53,91.7
251508,2018-06-29 10:55:51.625000,107.29,91.7
251509,2018-06-29 10:55:51.656250,84.5,91.7
251510,2018-06-29 10:55:51.687500,50.47,91.7
251511,2018-06-29 10:55:51.718750,15.46,91.7
251512,2018-06-29 10:55:51.750000,-14.29,91.7
251513,2018-06-29 10:55:51.781250,-39.22,91.7
251514,2018-06-29 10:55:51.812500,-64.07,91.7
251515,2018-06-29 10:55:51.843750,-87.68,91.7
251516,2018-06-29 10:55:51.875000,-94.71,91.7
251517,2018-06-29 10:55:51.906250,-65.62,91.7
251518,2018-06-29 10:55:51.937500,-2.06,91.7
251519,2018-06-29 10:55:51.968750,77.96,91.7
251520,2018-06-29 10:55:52.000000,156.34,91.7
251521,2018-06-29 10:55:52.031250,213.45,91.7
251522,2018-06-29 10:55:52.062500,228.47,91.7
251523,2018-06-29 10:55:52.093750,203.37,91.7
251524,2018-06-29 10:55:52.125000,171.6,91.7
251525,2018-06-29 10:55:52.156250,160.47,91.7
251526,2018-06-29 10:55:52.187500,178.85,91.7
251527,2018-06-29 10:55:52.218750,209.21,91.7
251528,2018-06-29 10:55:52.250000,231.73,91.7
251529,2018-06-29 10:55:52.281250,237.41,91.7
251530,2018-06-29 10:55:52.312500,238.86,91.7
251531,2018-06-29 10:55:52.343750,249.85,91.7
251532,2018-06-29 10:55:52.375000,258.53,91.7
251533,2018-06-29 10:55:52.406250,257.52,91.7
251534,2018-06-29 10:55:52.437500,251.51,91.7
251535,2018-06-29 10:55:52.468750,260.91,91.7
251536,2018-06-29 10:55:52.500000,266.75,91.7
251537,2018-06-29 10:55:52.531250,249.52,91.45
251538,2018-06-29 10:55:52.562500,197.53,91.45
251539,2018-06-29 10:55:52.593750,13.61,91.45
251540,2018-06-29 10:55:52.625000,-197.47,91.45
251541,2018-06-29 10:55:52.656250,-325.1,91.45
251542,2018-06-29 10:55:52.687500,-370.13,91.45
251543,2018-06-29 10:55:52.718750,-352.24,91.45
251544,2018-06-29 10:55:52.750000,-273.99,91.45
251545,2018-06-29 10:55:52.781250,-174.02,91.45
251546,2018-06-29 10:55:52.812500,-104.94,91.45
251547,2018-06-29 10:55:52.843750,-87.47,91.45
251548,2018-06-29 10:55:52.875000,-108.61,91.45
251549,2018-06-29 10:55:52.906250,-146.2,91.45
251550,2018-06-29 10:55:52.937500,-173.05,91.45
251551,2018-06-29 10:55:52.968750,-183.34,91.45
251552,2018-06-29 10:55:53.000000,-190.26,91.45
251553,2018-06-29 10:55:53.031250,-190.54,91.45
251554,2018-06-29 10:55:53.062500,-180.76,91.45
251555,2018-06-29 10:55:53.093750,-169.01,91.45
251556,2018-06-29 10:55:53.125000,-160.08,91.45
251557,2018-06-29 10:55:53.156250,-150.67,91.45
251558,2018-06-29 10:55:53.187500,-119.61,91.45
251559,2018-06-29 10:55:53.218750,-61.62,91.45
251560,2018-06-29 10:55:53.250000,5.93,91.45
251561,2018-06-29 10:55:53.281250,50.57,91.45
251562,2018-06-29 10:55:53.312500,43.15,91.45
251563,2018-06-29 10:55:53.343750,-2.86,91.45
251564,2018-06-29 10:55:53.375000,-40.51,91.45
251565,2018-06-29 10:55:53.406250,-15.8,91.45
251566,2018-06-29 10:55:53.437500,75.94,91.45
251567,2018-06-29 10:55:53.468750,187.01,91.45
251568,2018-06-29 10:55:53.500000,251.2,91.45
251569,2018-06-29 10:55:53.531250,185.49,91.25
251570,2018-06-29 10:55:53.562500,52.67,91.25
251571,2018-06-29 10:55:53.593750,-51.55,91.25
251572,2018-06-29 10:55:53.625000,-125.51,91.25
251573,2018-06-29 10:55:53.656250,-168.41,91.25
251574,2018-06-29 10:55:53.687500,-175.79,91.25
251575,2018-06-29 10:55:53.718750,-167.23,91.25
251576,2018-06-29 10:55:53.750000,-164.0,91.25
251577,2018-06-29 10:55:53.781250,-154.79,91.25
251578,2018-06-29 10:55:53.812500,-113.08,91.25
251579,2018-06-29 10:55:53.843750,-33.26,91.25
251580,2018-06-29 10:55:53.875000,47.31,91.25
251581,2018-06-29 10:55:53.906250,102.1,91.25
251582,2018-06-29 10:55:53.937500,134.04,91.25
251583,2018-06-29 10:55:53.968750,154.69,91.25
251584,2018-06-29 10:55:54.000000,158.91,91.25
251585,2018-06-29 10:55:54.031250,143.22,91.25
251586,2018-06-29 10:55:54.062500,123.65,91.25
251587,2018-06-29 10:55:54.093750,112.67,91.25
251588,2018-06-29 10:55:54.125000,104.84,91.25
251589,2018-06-29 10:55:54.156250,83.01,91.25
251590,2018-06-29 10:55:54.187500,39.22,91.25
251591,2018-06-29 10:55:54.218750,-17.96,91.25
251592,2018-06-29 10:55:54.250000,-66.83,91.25
251593,2018-06-29 10:55:54.281250,-93.93,91.25
251594,2018-06-29 10:55:54.312500,-108.26,91.25
251595,2018-06-29 10:55:54.343750,-125.52,91.25
251596,2018-06-29 10:55:54.375000,-150.52,91.25
251597,2018-06-29 10:55:54.406250,-177.79,91.25
251598,2018-06-29 10:55:54.437500,-192.04,91.25
251599,2018-06-29 10:55:54.468750,-170.72,91.25
251600,2018-06-29 10:55:54.500000,-109.26,91.25
251601,2018-06-29 10:55:54.531250,-34.96,91.12
251602,2018-06-29 10:55:54.562500,20.96,91.12
251603,2018-06-29 10:55:54.593750,53.09,91.12
251604,2018-06-29 10:55:54.625000,71.69,91.12
251605,2018-06-29 10:55:54.656250,82.1,91.12
251606,2018-06-29 10:55:54.687500,86.09,91.12
251607,2018-06-29 10:55:54.718750,88.57,91.12
251608,2018-06-29 10:55:54.750000,93.02,91.12
251609,2018-06-29 10:55:54.781250,97.15,91.12
251610,2018-06-29 10:55:54.812500,97.77,91.12
251611,2018-06-29 10:55:54.843750,94.3,91.12
251612,2018-06-29 10:55:54.875000,85.27,91.12
251613,2018-06-29 10:55:54.906250,66.43,91.12
251614,2018-06-29 10:55:54.937500,34.56,91.12
251615,2018-06-29 10:55:54.968750,-6.79,91.12
251616,2018-06-29 10:55:55.000000,-45.29,91.12
251617,2018-06-29 10:55:55.031250,-66.51,91.12
251618,2018-06-29 10:55:55.062500,-67.9,91.12
251619,2018-06-29 10:55:55.093750,-62.2,91.12
251620,2018-06-29 10:55:55.125000,-60.49,91.12
251621,2018-06-29 10:55:55.156250,-57.36,91.12
251622,2018-06-29 10:55:55.187500,-40.83,91.12
251623,2018-06-29 10:55:55.218750,-14.42,91.12
251624,2018-06-29 10:55:55.250000,8.58,91.12
251625,2018-06-29 10:55:55.281250,29.44,91.12
251626,2018-06-29 10:55:55.312500,59.54,91.12
251627,2018-06-29 10:55:55.343750,92.95,91.12
251628,2018-06-29 10:55:55.375000,107.68,91.12
251629,2018-06-29 10:55:55.406250,95.37,91.12
251630,2018-06-29 10:55:55.437500,68.96,91.12
251631,2018-06-29 10:55:55.468750,42.94,91.12
251632,2018-06-29 10:55:55.500000,22.96,91.12
251633,2018-06-29 10:55:55.531250,14.24,91.02
251634,2018-06-29 10:55:55.562500,24.52,91.02
251635,2018-06-29 10:55:55.593750,50.11,91.02
251636,2018-06-29 10:55:55.625000,72.39,91.02
251637,2018-06-29 10:55:55.656250,76.12,91.02
251638,2018-06-29 10:55:55.687500,61.25,91.02
251639,2018-06-29 10:55:55.718750,32.77,91.02
251640,2018-06-29 10:55:55.750000,-7.72,91.02
251641,2018-06-29 10:55:55.781250,-55.91,91.02
251642,2018-06-29 10:55:55.812500,-105.56,91.02
251643,2018-06-29 10:55:55.843750,-149.02,91.02
251644,2018-06-29 10:55:55.875000,-167.3,91.02
251645,2018-06-29 10:55:55.906250,-139.54,91.02
251646,2018-06-29 10:55:55.937500,-75.57,91.02
251647,2018-06-29 10:55:55.968750,-14.04,91.02
251648,2018-06-29 10:55:56.000000,18.47,91.02
251649,2018-06-29 10:55:56.031250,22.97,91.02
251650,2018-06-29 10:55:56.062500,9.91,91.02
251651,2018-06-29 10:55:56.093750,-7.84,91.02
251652,2018-06-29 10:55:56.125000,-13.43,91.02
251653,2018-06-29 10:55:56.156250,1.41,91.02
251654,2018-06-29 10:55:56.187500,26.76,91.02
251655,2018-06-29 10:55:56.218750,47.23,91.02
251656,2018-06-29 10:55:56.250000,57.84,91.02
251657,2018-06-29 10:55:56.281250,62.21,91.02
251658,2018-06-29 10:55:56.312500,61.43,91.02
251659,2018-06-29 10:55:56.343750,52.22,91.02
251660,2018-06-29 10:55:56.375000,33.8,91.02
251661,2018-06-29 10:55:56.406250,9.34,91.02
251662,2018-06-29 10:55:56.437500,-17.88,91.02
251663,2018-06-29 10:55:56.468750,-43.47,91.02
251664,2018-06-29 10:55:56.500000,-59.45,91.02
251665,2018-06-29 10:55:56.531250,-60.5,90.92
251666,2018-06-29 10:55:56.562500,-49.22,90.92
251667,2018-06-29 10:55:56.593750,-33.54,90.92
251668,2018-06-29 10:55:56.625000,-24.52,90.92
251669,2018-06-29 10:55:56.656250,-30.84,90.92
251670,2018-06-29 10:55:56.687500,-45.92,90.92
251671,2018-06-29 10:55:56.718750,-50.96,90.92
251672,2018-06-29 10:55:56.750000,-39.12,90.92
251673,2018-06-29 10:55:56.781250,-22.33,90.92
251674,2018-06-29 10:55:56.812500,-10.23,90.92
251675,2018-06-29 10:55:56.843750,-0.04,90.92
251676,2018-06-29 10:55:56.875000,11.85,90.92
251677,2018-06-29 10:55:56.906250,24.56,90.92
251678,2018-06-29 10:55:56.937500,37.92,90.92
251679,2018-06-29 10:55:56.968750,51.16,90.92
251680,2018-06-29 10:55:57.000000,59.06,90.92
251681,2018-06-29 10:55:57.031250,57.53,90.92
251682,2018-06-29 10:55:57.062500,50.05,90.92
251683,2018-06-29 10:55:57.093750,43.6,90.92
251684,2018-06-29 10:55:57.125000,39.81,90.92
251685,2018-06-29 10:55:57.156250,35.11,90.92
251686,2018-06-29 10:55:57.187500,32.56,90.92
251687,2018-06-29 10:55:57.218750,43.83,90.92
251688,2018-06-29 10:55:57.250000,68.84,90.92
251689,2018-06-29 10:55:57.281250,85.01,90.92
251690,2018-06-29 10:55:57.312500,69.39,90.92
251691,2018-06-29 10:55:57.343750,23.12,90.92
251692,2018-06-29 10:55:57.375000,-30.65,90.92
251693,2018-06-29 10:55:57.406250,-65.65,90.92
251694,2018-06-29 10:55:57.437500,-71.61,90.92
251695,2018-06-29 10:55:57.468750,-59.83,90.92
251696,2018-06-29 10:55:57.500000,-46.37,90.92
251697,2018-06-29 10:55:57.531250,-34.11,90.75
251698,2018-06-29 10:55:57.562500,-18.01,90.75
251699,2018-06-29 10:55:57.593750,-0.49,90.75
251700,2018-06-29 10:55:57.625000,5.45,90.75
251701,2018-06-29 10:55:57.656250,-12.54,90.75
251702,2018-06-29 10:55:57.687500,-50.18,90.75
251703,2018-06-29 10:55:57.718750,-84.23,90.75
251704,2018-06-29 10:55:57.750000,-93.54,90.75
251705,2018-06-29 10:55:57.781250,-79.56,90.75
251706,2018-06-29 10:55:57.812500,-59.26,90.75
251707,2018-06-29 10:55:57.843750,-45.57,90.75
251708,2018-06-29 10:55:57.875000,-42.84,90.75
251709,2018-06-29 10:55:57.906250,-48.81,90.75
251710,2018-06-29 10:55:57.937500,-50.28,90.75
251711,2018-06-29 10:55:57.968750,-31.84,90.75
251712,2018-06-29 10:55:58.000000,3.8,90.75
251713,2018-06-29 10:55:58.031250,38.79,90.75
251714,2018-06-29 10:55:58.062500,62.88,90.75
251715,2018-06-29 10:55:58.093750,77.38,90.75
251716,2018-06-29 10:55:58.125000,83.57,90.75
251717,2018-06-29 10:55:58.156250,82.89,90.75
251718,2018-06-29 10:55:58.187500,76.25,90.75
251719,2018-06-29 10:55:58.218750,56.32,90.75
251720,2018-06-29 10:55:58.250000,19.76,90.75
251721,2018-06-29 10:55:58.281250,-14.72,90.75
251722,2018-06-29 10:55:58.312500,-25.25,90.75
251723,2018-06-29 10:55:58.343750,-16.04,90.75
251724,2018-06-29 10:55:58.375000,-5.98,90.75
251725,2018-06-29 10:55:58.406250,-2.68,90.75
251726,2018-06-29 10:55:58.437500,-4.77,90.75
251727,2018-06-29 10:55:58.468750,-11.55,90.75
251728,2018-06-29 10:55:58.500000,-17.9,90.75
251729,2018-06-29 10:55:58.531250,-15.37,90.62
251730,2018-06-29 10:55:58.562500,-3.9,90.62
251731,2018-06-29 10:55:58.593750,7.81,90.62
251732,2018-06-29 10:55:58.625000,14.15,90.62
251733,2018-06-29 10:55:58.656250,15.8,90.62
251734,2018-06-29 10:55:58.687500,14.88,90.62
251735,2018-06-29 10:55:58.718750,15.81,90.62
251736,2018-06-29 10:55:58.750000,25.05,90.62
251737,2018-06-29 10:55:58.781250,42.82,90.62
251738,2018-06-29 10:55:58.812500,61.45,90.62
251739,2018-06-29 10:55:58.843750,75.48,90.62
251740,2018-06-29 10:55:58.875000,87.26,90.62
251741,2018-06-29 10:55:58.906250,102.75,90.62
251742,2018-06-29 10:55:58.937500,125.77,90.62
251743,2018-06-29 10:55:58.968750,153.96,90.62
251744,2018-06-29 10:55:59.000000,177.8,90.62
251745,2018-06-29 10:55:59.031250,183.56,90.62
251746,2018-06-29 10:55:59.062500,163.59,90.62
251747,2018-06-29 10:55:59.093750,130.85,90.62
251748,2018-06-29 10:55:59.125000,111.96,90.62
251749,2018-06-29 10:55:59.156250,108.91,90.62
251750,2018-06-29 10:55:59.187500,90.43,90.62
251751,2018-06-29 10:55:59.218750,44.54,90.62
251752,2018-06-29 10:55:59.250000,4.97,90.62
251753,2018-06-29 10:55:59.281250,0.85,90.62
251754,2018-06-29 10:55:59.312500,15.82,90.62
251755,2018-06-29 10:55:59.343750,11.64,90.62
251756,2018-06-29 10:55:59.375000,-41.05,90.62
251757,2018-06-29 10:55:59.406250,-149.45,90.62
251758,2018-06-29 10:55:59.437500,-280.27,90.62
251759,2018-06-29 10:55:59.468750,-370.7,90.62
251760,2018-06-29 10:55:59.500000,-383.1,90.62
251761,2018-06-29 10:55:59.531250,-335.32,90.43
251762,2018-06-29 10:55:59.562500,-270.18,90.43
251763,2018-06-29 10:55:59.593750,-215.66,90.43
251764,2018-06-29 10:55:59.625000,-177.56,90.43
251765,2018-06-29 10:55:59.656250,-149.81,90.43
251766,2018-06-29 10:55:59.687500,-124.78,90.43
251767,2018-06-29 10:55:59.718750,-100.03,90.43
251768,2018-06-29 10:55:59.750000,-76.15,90.43
251769,2018-06-29 10:55:59.781250,-53.97,90.43
251770,2018-06-29 10:55:59.812500,-35.26,90.43
251771,2018-06-29 10:55:59.843750,-21.44,90.43
251772,2018-06-29 10:55:59.875000,-11.25,90.43
251773,2018-06-29 10:55:59.906250,-3.38,90.43
251774,2018-06-29 10:55:59.937500,1.52,90.43
251775,2018-06-29 10:55:59.968750,3.84,90.43
251776,2018-06-29 10:56:00.000000,6.3,90.43
251777,2018-06-29 10:56:00.031250,10.38,90.43
251778,2018-06-29 10:56:00.062500,13.8,90.43
251779,2018-06-29 10:56:00.093750,12.73,90.43
251780,2018-06-29 10:56:00.125000,6.07,90.43
251781,2018-06-29 10:56:00.156250,-4.21,90.43
251782,2018-06-29 10:56:00.187500,-15.56,90.43
251783,2018-06-29 10:56:00.218750,-22.26,90.43
251784,2018-06-29 10:56:00.250000,-15.32,90.43
251785,2018-06-29 10:56:00.281250,7.06,90.43
251786,2018-06-29 10:56:00.312500,34.16,90.43
251787,2018-06-29 10:56:00.343750,54.62,90.43
251788,2018-06-29 10:56:00.375000,66.44,90.43
251789,2018-06-29 10:56:00.406250,71.98,90.43
251790,2018-06-29 10:56:00.437500,72.44,90.43
251791,2018-06-29 10:56:00.468750,69.43,90.43
251792,2018-06-29 10:56:00.500000,65.44,90.43
251793,2018-06-29 10:56:00.531250,61.54,90.2
251794,2018-06-29 10:56:00.562500,57.21,90.2
251795,2018-06-29 10:56:00.593750,52.18,90.2
251796,2018-06-29 10:56:00.625000,47.24,90.2
251797,2018-06-29 10:56:00.656250,43.48,90.2
251798,2018-06-29 10:56:00.687500,40.81,90.2
251799,2018-06-29 10:56:00.718750,37.63,90.2
251800,2018-06-29 10:56:00.750000,32.18,90.2
251801,2018-06-29 10:56:00.781250,24.44,90.2
251802,2018-06-29 10:56:00.812500,16.24,90.2
251803,2018-06-29 10:56:00.843750,9.95,90.2
251804,2018-06-29 10:56:00.875000,6.69,90.2
251805,2018-06-29 10:56:00.906250,4.76,90.2
251806,2018-06-29 10:56:00.937500,0.37,90.2
251807,2018-06-29 10:56:00.968750,-8.1,90.2
251808,2018-06-29 10:56:01.000000,-15.8,90.2
251809,2018-06-29 10:56:01.031250,-13.88,90.2
251810,2018-06-29 10:56:01.062500,0.37,90.2
251811,2018-06-29 10:56:01.093750,18.37,90.2
251812,2018-06-29 10:56:01.125000,29.27,90.2
251813,2018-06-29 10:56:01.156250,31.06,90.2
251814,2018-06-29 10:56:01.187500,28.16,90.2
251815,2018-06-29 10:56:01.218750,23.12,90.2
251816,2018-06-29 10:56:01.250000,16.71,90.2
251817,2018-06-29 10:56:01.281250,12.07,90.2
251818,2018-06-29 10:56:01.312500,12.63,90.2
251819,2018-06-29 10:56:01.343750,17.87,90.2
251820,2018-06-29 10:56:01.375000,23.99,90.2
251821,2018-06-29 10:56:01.406250,27.13,90.2
251822,2018-06-29 10:56:01.437500,24.4,90.2
251823,2018-06-29 10:56:01.468750,14.94,90.2
251824,2018-06-29 10:56:01.500000,1.97,90.2
251825,2018-06-29 10:56:01.531250,-8.19,89.93
251826,2018-06-29 10:56:01.562500,-11.26,89.93
251827,2018-06-29 10:56:01.593750,-8.63,89.93
251828,2018-06-29 10:56:01.625000,-5.2,89.93
251829,2018-06-29 10:56:01.656250,-4.47,89.93
251830,2018-06-29 10:56:01.687500,-5.93,89.93
251831,2018-06-29 10:56:01.718750,-6.45,89.93
251832,2018-06-29 10:56:01.750000,-4.64,89.93
251833,2018-06-29 10:56:01.781250,-2.68,89.93
251834,2018-06-29 10:56:01.812500,-1.7,89.93
251835,2018-06-29 10:56:01.843750,2.62,89.93
251836,2018-06-29 10:56:01.875000,15.67,89.93
251837,2018-06-29 10:56:01.906250,35.83,89.93
251838,2018-06-29 10:56:01.937500,55.22,89.93
251839,2018-06-29 10:56:01.968750,68.3,89.93
251840,2018-06-29 10:56:02.000000,74.29,89.93
251841,2018-06-29 10:56:02.031250,69.37,89.93
251842,2018-06-29 10:56:02.062500,46.22,89.93
251843,2018-06-29 10:56:02.093750,6.18,89.93
251844,2018-06-29 10:56:02.125000,-35.67,89.93
251845,2018-06-29 10:56:02.156250,-61.81,89.93
251846,2018-06-29 10:56:02.187500,-63.23,89.93
251847,2018-06-29 10:56:02.218750,-42.52,89.93
251848,2018-06-29 10:56:02.250000,-13.64,89.93
251849,2018-06-29 10:56:02.281250,6.25,89.93
251850,2018-06-29 10:56:02.312500,11.07,89.93
251851,2018-06-29 10:56:02.343750,8.76,89.93
251852,2018-06-29 10:56:02.375000,9.49,89.93
251853,2018-06-29 10:56:02.406250,15.21,89.93
251854,2018-06-29 10:56:02.437500,19.81,89.93
251855,2018-06-29 10:56:02.468750,14.97,89.93
251856,2018-06-29 10:56:02.500000,-3.04,89.93
251857,2018-06-29 10:56:02.531250,-28.74,89.7
251858,2018-06-29 10:56:02.562500,-51.06,89.7
251859,2018-06-29 10:56:02.593750,-63.77,89.7
251860,2018-06-29 10:56:02.625000,-69.46,89.7
251861,2018-06-29 10:56:02.656250,-71.08,89.7
251862,2018-06-29 10:56:02.687500,-65.18,89.7
251863,2018-06-29 10:56:02.718750,-47.9,89.7
251864,2018-06-29 10:56:02.750000,-23.37,89.7
251865,2018-06-29 10:56:02.781250,-1.12,89.7
251866,2018-06-29 10:56:02.812500,13.2,89.7
251867,2018-06-29 10:56:02.843750,20.02,89.7
251868,2018-06-29 10:56:02.875000,21.36,89.7
251869,2018-06-29 10:56:02.906250,19.74,89.7
251870,2018-06-29 10:56:02.937500,19.2,89.7
251871,2018-06-29 10:56:02.968750,21.76,89.7
251872,2018-06-29 10:56:03.000000,25.06,89.7
251873,2018-06-29 10:56:03.031250,26.63,89.7
251874,2018-06-29 10:56:03.062500,27.32,89.7
251875,2018-06-29 10:56:03.093750,28.52,89.7
251876,2018-06-29 10:56:03.125000,29.27,89.7
251877,2018-06-29 10:56:03.156250,27.59,89.7
251878,2018-06-29 10:56:03.187500,23.12,89.7
251879,2018-06-29 10:56:03.218750,17.25,89.7
251880,2018-06-29 10:56:03.250000,10.8,89.7
251881,2018-06-29 10:56:03.281250,3.5,89.7
251882,2018-06-29 10:56:03.312500,-3.61,89.7
251883,2018-06-29 10:56:03.343750,-8.55,89.7
251884,2018-06-29 10:56:03.375000,-12.17,89.7
251885,2018-06-29 10:56:03.406250,-17.62,89.7
251886,2018-06-29 10:56:03.437500,-24.84,89.7
251887,2018-06-29 10:56:03.468750,-28.99,89.7
251888,2018-06-29 10:56:03.500000,-25.32,89.7
251889,2018-06-29 10:56:03.531250,-13.6,89.42
251890,2018-06-29 10:56:03.562500,1.83,89.42
251891,2018-06-29 10:56:03.593750,14.94,89.42
251892,2018-06-29 10:56:03.625000,22.63,89.42
251893,2018-06-29 10:56:03.656250,27.09,89.42
251894,2018-06-29 10:56:03.687500,30.84,89.42
251895,2018-06-29 10:56:03.718750,31.8,89.42
251896,2018-06-29 10:56:03.750000,28.96,89.42
251897,2018-06-29 10:56:03.781250,27.29,89.42
251898,2018-06-29 10:56:03.812500,30.3,89.42
251899,2018-06-29 10:56:03.843750,35.42,89.42
251900,2018-06-29 10:56:03.875000,41.81,89.42
251901,2018-06-29 10:56:03.906250,52.61,89.42
251902,2018-06-29 10:56:03.937500,65.11,89.42
251903,2018-06-29 10:56:03.968750,68.9,89.42
251904,2018-06-29 10:56:04.000000,57.48,89.42
251905,2018-06-29 10:56:04.031250,34.97,89.42
251906,2018-06-29 10:56:04.062500,9.92,89.42
251907,2018-06-29 10:56:04.093750,-12.78,89.42
251908,2018-06-29 10:56:04.125000,-31.92,89.42
251909,2018-06-29 10:56:04.156250,-47.17,89.42
251910,2018-06-29 10:56:04.187500,-59.11,89.42
251911,2018-06-29 10:56:04.218750,-68.89,89.42
251912,2018-06-29 10:56:04.250000,-75.74,89.42
251913,2018-06-29 10:56:04.281250,-76.65,89.42
251914,2018-06-29 10:56:04.312500,-70.48,89.42
251915,2018-06-29 10:56:04.343750,-59.62,89.42
251916,2018-06-29 10:56:04.375000,-46.44,89.42
251917,2018-06-29 10:56:04.406250,-31.4,89.42
251918,2018-06-29 10:56:04.437500,-15.98,89.42
251919,2018-06-29 10:56:04.468750,-3.22,89.42
251920,2018-06-29 10:56:04.500000,6.56,89.42
251921,2018-06-29 10:56:04.531250,15.91,89.3
251922,2018-06-29 10:56:04.562500,24.47,89.3
251923,2018-06-29 10:56:04.593750,28.85,89.3
251924,2018-06-29 10:56:04.625000,29.1,89.3
251925,2018-06-29 10:56:04.656250,29.76,89.3
251926,2018-06-29 10:56:04.687500,32.96,89.3
251927,2018-06-29 10:56:04.718750,35.07,89.3
251928,2018-06-29 10:56:04.750000,31.09,89.3
251929,2018-06-29 10:56:04.781250,20.13,89.3
251930,2018-06-29 10:56:04.812500,6.5,89.3
251931,2018-06-29 10:56:04.843750,-3.49,89.3
251932,2018-06-29 10:56:04.875000,-6.87,89.3
251933,2018-06-29 10:56:04.906250,-7.04,89.3
251934,2018-06-29 10:56:04.937500,-10.84,89.3
251935,2018-06-29 10:56:04.968750,-22.1,89.3
251936,2018-06-29 10:56:05.000000,-37.21,89.3
251937,2018-06-29 10:56:05.031250,-48.07,89.3
251938,2018-06-29 10:56:05.062500,-49.89,89.3
251939,2018-06-29 10:56:05.093750,-44.04,89.3
251940,2018-06-29 10:56:05.125000,-33.31,89.3
251941,2018-06-29 10:56:05.156250,-18.79,89.3
251942,2018-06-29 10:56:05.187500,-2.82,89.3
251943,2018-06-29 10:56:05.218750,9.82,89.3
251944,2018-06-29 10:56:05.250000,17.03,89.3
251945,2018-06-29 10:56:05.281250,22.48,89.3
251946,2018-06-29 10:56:05.312500,29.6,89.3
251947,2018-06-29 10:56:05.343750,34.79,89.3
251948,2018-06-29 10:56:05.375000,31.47,89.3
251949,2018-06-29 10:56:05.406250,19.44,89.3
251950,2018-06-29 10:56:05.437500,5.63,89.3
251951,2018-06-29 10:56:05.468750,-3.87,89.3
251952,2018-06-29 10:56:05.500000,-9.01,89.3
251953,2018-06-29 10:56:05.531250,-13.06,89.18
251954,2018-06-29 10:56:05.562500,-18.61,89.18
251955,2018-06-29 10:56:05.593750,-26.69,89.18
251956,2018-06-29 10:56:05.625000,-36.64,89.18
251957,2018-06-29 10:56:05.656250,-45.6,89.18
251958,2018-06-29 10:56:05.687500,-50.19,89.18
251959,2018-06-29 10:56:05.718750,-48.3,89.18
251960,2018-06-29 10:56:05.750000,-38.26,89.18
251961,2018-06-29 10:56:05.781250,-19.41,89.18
251962,2018-06-29 10:56:05.812500,4.26,89.18
251963,2018-06-29 10:56:05.843750,24.78,89.18
251964,2018-06-29 10:56:05.875000,37.17,89.18
251965,2018-06-29 10:56:05.906250,43.19,89.18
251966,2018-06-29 10:56:05.937500,46.85,89.18
251967,2018-06-29 10:56:05.968750,49.06,89.18
251968,2018-06-29 10:56:06.000000,48.69,89.18
251969,2018-06-29 10:56:06.031250,46.46,89.18
251970,2018-06-29 10:56:06.062500,44.82,89.18
251971,2018-06-29 10:56:06.093750,45.05,89.18
251972,2018-06-29 10:56:06.125000,47.35,89.18
251973,2018-06-29 10:56:06.156250,52.49,89.18
251974,2018-06-29 10:56:06.187500,58.2,89.18
251975,2018-06-29 10:56:06.218750,56.61,89.18
251976,2018-06-29 10:56:06.250000,42.04,89.18
251977,2018-06-29 10:56:06.281250,19.52,89.18
251978,2018-06-29 10:56:06.312500,-1.12,89.18
251979,2018-06-29 10:56:06.343750,-16.17,89.18
251980,2018-06-29 10:56:06.375000,-27.65,89.18
251981,2018-06-29 10:56:06.406250,-36.48,89.18
251982,2018-06-29 10:56:06.437500,-41.72,89.18
251983,2018-06-29 10:56:06.468750,-42.82,89.18
251984,2018-06-29 10:56:06.500000,-38.85,89.18
251985,2018-06-29 10:56:06.531250,-27.99,89.05
251986,2018-06-29 10:56:06.562500,-9.15,89.05
251987,2018-06-29 10:56:06.593750,16.22,89.05
251988,2018-06-29 10:56:06.625000,43.09,89.05
251989,2018-06-29 10:56:06.656250,61.27,89.05
251990,2018-06-29 10:56:06.687500,58.88,89.05
251991,2018-06-29 10:56:06.718750,32.97,89.05
251992,2018-06-29 10:56:06.750000,-4.56,89.05
251993,2018-06-29 10:56:06.781250,-34.39,89.05
251994,2018-06-29 10:56:06.812500,-43.14,89.05
251995,2018-06-29 10:56:06.843750,-32.23,89.05
251996,2018-06-29 10:56:06.875000,-14.18,89.05
251997,2018-06-29 10:56:06.906250,-1.1,89.05
251998,2018-06-29 10:56:06.937500,4.65,89.05
251999,2018-06-29 10:56:06.968750,7.58,89.05
252000,2018-06-29 10:56:07.000000,11.22,89.05
252001,2018-06-29 10:56:07.031250,15.7,89.05
252002,2018-06-29 10:56:07.062500,20.83,89.05
252003,2018-06-29 10:56:07.093750,29.06,89.05
252004,2018-06-29 10:56:07.125000,41.37,89.05
252005,2018-06-29 10:56:07.156250,51.92,89.05
252006,2018-06-29 10:56:07.187500,45.96,89.05
252007,2018-06-29 10:56:07.218750,19.35,89.05
252008,2018-06-29 10:56:07.250000,-9.69,89.05
252009,2018-06-29 10:56:07.281250,-18.02,89.05
252010,2018-06-29 10:56:07.312500,-7.18,89.05
252011,2018-06-29 10:56:07.343750,-0.73,89.05
252012,2018-06-29 10:56:07.375000,-7.07,89.05
252013,2018-06-29 10:56:07.406250,-17.61,89.05
252014,2018-06-29 10:56:07.437500,-22.06,89.05
252015,2018-06-29 10:56:07.468750,-26.87,89.05
252016,2018-06-29 10:56:07.500000,-35.82,89.05
252017,2018-06-29 10:56:07.531250,-50.4,88.93
252018,2018-06-29 10:56:07.562500,-76.1,88.93
252019,2018-06-29 10:56:07.593750,-116.87,88.93
252020,2018-06-29 10:56:07.625000,-175.4,88.93
252021,2018-06-29 10:56:07.656250,-245.97,88.93
252022,2018-06-29 10:56:07.687500,-331.46,88.93
252023,2018-06-29 10:56:07.718750,-359.93,88.93
252024,2018-06-29 10:56:07.750000,-254.14,88.93
252025,2018-06-29 10:56:07.781250,-105.19,88.93
252026,2018-06-29 10:56:07.812500,6.53,88.93
252027,2018-06-29 10:56:07.843750,80.59,88.93
252028,2018-06-29 10:56:07.875000,122.73,88.93
252029,2018-06-29 10:56:07.906250,126.63,88.93
252030,2018-06-29 10:56:07.937500,112.01,88.93
252031,2018-06-29 10:56:07.968750,103.63,88.93
252032,2018-06-29 10:56:08.000000,107.65,88.93
252033,2018-06-29 10:56:08.031250,105.19,88.93
252034,2018-06-29 10:56:08.062500,90.12,88.93
252035,2018-06-29 10:56:08.093750,76.77,88.93
252036,2018-06-29 10:56:08.125000,74.45,88.93
252037,2018-06-29 10:56:08.156250,77.54,88.93
252038,2018-06-29 10:56:08.187500,75.4,88.93
252039,2018-06-29 10:56:08.218750,72.08,88.93
252040,2018-06-29 10:56:08.250000,74.22,88.93
252041,2018-06-29 10:56:08.281250,80.4,88.93
252042,2018-06-29 10:56:08.312500,81.49,88.93
252043,2018-06-29 10:56:08.343750,73.3,88.93
252044,2018-06-29 10:56:08.375000,59.37,88.93
252045,2018-06-29 10:56:08.406250,45.17,88.93
252046,2018-06-29 10:56:08.437500,34.51,88.93
252047,2018-06-29 10:56:08.468750,28.57,88.93
252048,2018-06-29 10:56:08.500000,26.71,88.93
252049,2018-06-29 10:56:08.531250,27.46,88.8
252050,2018-06-29 10:56:08.562500,31.01,88.8
252051,2018-06-29 10:56:08.593750,38.14,88.8
252052,2018-06-29 10:56:08.625000,48.15,88.8
252053,2018-06-29 10:56:08.656250,57.08,88.8
252054,2018-06-29 10:56:08.687500,65.19,88.8
252055,2018-06-29 10:56:08.718750,75.58,88.8
252056,2018-06-29 10:56:08.750000,90.02,88.8
252057,2018-06-29 10:56:08.781250,104.09,88.8
252058,2018-06-29 10:56:08.812500,111.26,88.8
252059,2018-06-29 10:56:08.843750,107.56,88.8
252060,2018-06-29 10:56:08.875000,94.91,88.8
252061,2018-06-29 10:56:08.906250,94.03,88.8
252062,2018-06-29 10:56:08.937500,114.21,88.8
252063,2018-06-29 10:56:08.968750,133.68,88.8
252064,2018-06-29 10:56:09.000000,128.59,88.8
252065,2018-06-29 10:56:09.031250,99.36,88.8
252066,2018-06-29 10:56:09.062500,59.34,88.8
252067,2018-06-29 10:56:09.093750,20.83,88.8
252068,2018-06-29 10:56:09.125000,-14.14,88.8
252069,2018-06-29 10:56:09.156250,-48.27,88.8
252070,2018-06-29 10:56:09.187500,-85.59,88.8
252071,2018-06-29 10:56:09.218750,-123.59,88.8
252072,2018-06-29 10:56:09.250000,-156.52,88.8
252073,2018-06-29 10:56:09.281250,-190.23,88.8
252074,2018-06-29 10:56:09.312500,-236.06,88.8
252075,2018-06-29 10:56:09.343750,-301.38,88.8
252076,2018-06-29 10:56:09.375000,-347.42,88.8
252077,2018-06-29 10:56:09.406250,-345.66,88.8
252078,2018-06-29 10:56:09.437500,-315.97,88.8
252079,2018-06-29 10:56:09.468750,-321.09,88.8
252080,2018-06-29 10:56:09.500000,-378.07,88.8
252081,2018-06-29 10:56:09.531250,-447.62,88.68
252082,2018-06-29 10:56:09.562500,-500.16,88.68
252083,2018-06-29 10:56:09.593750,-518.45,88.68
252084,2018-06-29 10:56:09.625000,-505.6,88.68
252085,2018-06-29 10:56:09.656250,-429.94,88.68
252086,2018-06-29 10:56:09.687500,-301.12,88.68
252087,2018-06-29 10:56:09.718750,-119.87,88.68
252088,2018-06-29 10:56:09.750000,172.33,88.68
252089,2018-06-29 10:56:09.781250,355.75,88.68
252090,2018-06-29 10:56:09.812500,396.2,88.68
252091,2018-06-29 10:56:09.843750,371.83,88.68
252092,2018-06-29 10:56:09.875000,325.09,88.68
252093,2018-06-29 10:56:09.906250,263.72,88.68
252094,2018-06-29 10:56:09.937500,233.73,88.68
252095,2018-06-29 10:56:09.968750,231.9,88.68
252096,2018-06-29 10:56:10.000000,217.62,88.68
252097,2018-06-29 10:56:10.031250,162.01,88.68
252098,2018-06-29 10:56:10.062500,88.87,88.68
252099,2018-06-29 10:56:10.093750,38.47,88.68
252100,2018-06-29 10:56:10.125000,18.69,88.68
252101,2018-06-29 10:56:10.156250,37.97,88.68
252102,2018-06-29 10:56:10.187500,88.92,88.68
252103,2018-06-29 10:56:10.218750,154.11,88.68
252104,2018-06-29 10:56:10.250000,201.3,88.68
252105,2018-06-29 10:56:10.281250,221.25,88.68
252106,2018-06-29 10:56:10.312500,221.07,88.68
252107,2018-06-29 10:56:10.343750,210.53,88.68
252108,2018-06-29 10:56:10.375000,195.34,88.68
252109,2018-06-29 10:56:10.406250,166.77,88.68
252110,2018-06-29 10:56:10.437500,117.05,88.68
252111,2018-06-29 10:56:10.468750,56.34,88.68
252112,2018-06-29 10:56:10.500000,13.61,88.68
252113,2018-06-29 10:56:10.531250,-0.04,88.58
252114,2018-06-29 10:56:10.562500,-3.53,88.58
252115,2018-06-29 10:56:10.593750,-19.63,88.58
252116,2018-06-29 10:56:10.625000,-53.84,88.58
252117,2018-06-29 10:56:10.656250,-99.88,88.58
252118,2018-06-29 10:56:10.687500,-150.31,88.58
252119,2018-06-29 10:56:10.718750,-199.13,88.58
252120,2018-06-29 10:56:10.750000,-243.1,88.58
252121,2018-06-29 10:56:10.781250,-280.04,88.58
252122,2018-06-29 10:56:10.812500,-304.73,88.58
252123,2018-06-29 10:56:10.843750,-312.11,88.58
252124,2018-06-29 10:56:10.875000,-303.05,88.58
252125,2018-06-29 10:56:10.906250,-280.25,88.58
252126,2018-06-29 10:56:10.937500,-246.11,88.58
252127,2018-06-29 10:56:10.968750,-209.58,88.58
252128,2018-06-29 10:56:11.000000,-178.71,88.58
252129,2018-06-29 10:56:11.031250,-140.64,88.58
252130,2018-06-29 10:56:11.062500,-70.68,88.58
252131,2018-06-29 10:56:11.093750,28.23,88.58
252132,2018-06-29 10:56:11.125000,114.84,88.58
252133,2018-06-29 10:56:11.156250,147.01,88.58
252134,2018-06-29 10:56:11.187500,124.27,88.58
252135,2018-06-29 10:56:11.218750,89.13,88.58
252136,2018-06-29 10:56:11.250000,78.68,88.58
252137,2018-06-29 10:56:11.281250,84.04,88.58
252138,2018-06-29 10:56:11.312500,74.2,88.58
252139,2018-06-29 10:56:11.343750,42.06,88.58
252140,2018-06-29 10:56:11.375000,1.7,88.58
252141,2018-06-29 10:56:11.406250,-37.55,88.58
252142,2018-06-29 10:56:11.437500,-69.36,88.58
252143,2018-06-29 10:56:11.468750,-83.27,88.58
252144,2018-06-29 10:56:11.500000,-77.33,88.58
252145,2018-06-29 10:56:11.531250,-63.74,88.48
252146,2018-06-29 10:56:11.562500,-55.14,88.48
252147,2018-06-29 10:56:11.593750,-53.55,88.48
252148,2018-06-29 10:56:11.625000,-54.41,88.48
252149,2018-06-29 10:56:11.656250,-49.67,88.48
252150,2018-06-29 10:56:11.687500,-28.03,88.48
252151,2018-06-29 10:56:11.718750,16.44,88.48
252152,2018-06-29 10:56:11.750000,80.74,88.48
252153,2018-06-29 10:56:11.781250,149.22,88.48
252154,2018-06-29 10:56:11.812500,199.13,88.48
252155,2018-06-29 10:56:11.843750,216.83,88.48
252156,2018-06-29 10:56:11.875000,213.58,88.48
252157,2018-06-29 10:56:11.906250,208.8,88.48
252158,2018-06-29 10:56:11.937500,204.56,88.48
252159,2018-06-29 10:56:11.968750,194.94,88.48
252160,2018-06-29 10:56:12.000000,181.38,88.48
252161,2018-06-29 10:56:12.031250,179.08,88.48
252162,2018-06-29 10:56:12.062500,181.84,88.48
252163,2018-06-29 10:56:12.093750,175.94,88.48
252164,2018-06-29 10:56:12.125000,157.94,88.48
252165,2018-06-29 10:56:12.156250,148.35,88.48
