,Time,ppg,hr
265600,2018-06-29 11:03:12.000000,-46.71,72.65
265601,2018-06-29 11:03:12.031250,18.28,72.65
265602,2018-06-29 11:03:12.062500,80.9,72.65
265603,2018-06-29 11:03:12.093750,122.12,72.65
265604,2018-06-29 11:03:12.125000,141.44,72.65
265605,2018-06-29 11:03:12.156250,144.07,72.65
265606,2018-06-29 11:03:12.187500,135.88,72.65
265607,2018-06-29 11:03:12.218750,124.99,72.65
265608,2018-06-29 11:03:12.250000,117.98,72.65
265609,2018-06-29 11:03:12.281250,115.22,72.65
265610,2018-06-29 11:03:12.312500,112.97,72.65
265611,2018-06-29 11:03:12.343750,109.1,72.65
265612,2018-06-29 11:03:12.375000,104.12,72.65
265613,2018-06-29 11:03:12.406250,97.05,72.65
265614,2018-06-29 11:03:12.437500,84.58,72.65
265615,2018-06-29 11:03:12.468750,65.82,72.65
265616,2018-06-29 11:03:12.500000,44.74,72.65
265617,2018-06-29 11:03:12.531250,26.29,72.63
265618,2018-06-29 11:03:12.562500,11.34,72.63
265619,2018-06-29 11:03:12.593750,-3.73,72.63
265620,2018-06-29 11:03:12.625000,-21.71,72.63
265621,2018-06-29 11:03:12.656250,-40.12,72.63
265622,2018-06-29 11:03:12.687500,-54.93,72.63
265623,2018-06-29 11:03:12.718750,-66.92,72.63
265624,2018-06-29 11:03:12.750000,-80.59,72.63
265625,2018-06-29 11:03:12.781250,-99.15,72.63
265626,2018-06-29 11:03:12.812500,-120.18,72.63
265627,2018-06-29 11:03:12.843750,-129.96,72.63
265628,2018-06-29 11:03:12.875000,-108.81,72.63
265629,2018-06-29 11:03:12.906250,-53.74,72.63
265630,2018-06-29 11:03:12.937500,12.02,72.63
265631,2018-06-29 11:03:12.968750,61.57,72.63
265632,2018-06-29 11:03:13.000000,86.49,72.63
265633,2018-06-29 11:03:13.031250,91.53,72.63
265634,2018-06-29 11:03:13.062500,82.94,72.63
265635,2018-06-29 11:03:13.093750,69.09,72.63
265636,2018-06-29 11:03:13.125000,60.45,72.63
265637,2018-06-29 11:03:13.156250,61.13,72.63
265638,2018-06-29 11:03:13.187500,66.24,72.63
265639,2018-06-29 11:03:13.218750,70.18,72.63
265640,2018-06-29 11:03:13.250000,71.96,72.63
265641,2018-06-29 11:03:13.281250,71.24,72.63
265642,2018-06-29 11:03:13.312500,65.88,72.63
265643,2018-06-29 11:03:13.343750,55.94,72.63
265644,2018-06-29 11:03:13.375000,45.67,72.63
265645,2018-06-29 11:03:13.406250,38.68,72.63
265646,2018-06-29 11:03:13.437500,33.08,72.63
265647,2018-06-29 11:03:13.468750,24.92,72.63
265648,2018-06-29 11:03:13.500000,15.27,72.63
265649,2018-06-29 11:03:13.531250,8.52,72.62
265650,2018-06-29 11:03:13.562500,4.98,72.62
265651,2018-06-29 11:03:13.593750,0.65,72.62
265652,2018-06-29 11:03:13.625000,-7.48,72.62
265653,2018-06-29 11:03:13.656250,-17.48,72.62
265654,2018-06-29 11:03:13.687500,-19.55,72.62
265655,2018-06-29 11:03:13.718750,-1.64,72.62
265656,2018-06-29 11:03:13.750000,35.05,72.62
265657,2018-06-29 11:03:13.781250,72.48,72.62
265658,2018-06-29 11:03:13.812500,93.12,72.62
265659,2018-06-29 11:03:13.843750,95.16,72.62
265660,2018-06-29 11:03:13.875000,88.55,72.62
265661,2018-06-29 11:03:13.906250,82.83,72.62
265662,2018-06-29 11:03:13.937500,80.67,72.62
265663,2018-06-29 11:03:13.968750,80.77,72.62
265664,2018-06-29 11:03:14.000000,82.99,72.62
265665,2018-06-29 11:03:14.031250,89.08,72.62
265666,2018-06-29 11:03:14.062500,101.06,72.62
265667,2018-06-29 11:03:14.093750,118.52,72.62
265668,2018-06-29 11:03:14.125000,131.63,72.62
265669,2018-06-29 11:03:14.156250,121.35,72.62
265670,2018-06-29 11:03:14.187500,77.71,72.62
265671,2018-06-29 11:03:14.218750,13.37,72.62
265672,2018-06-29 11:03:14.250000,-51.59,72.62
265673,2018-06-29 11:03:14.281250,-112.48,72.62
265674,2018-06-29 11:03:14.312500,-173.98,72.62
265675,2018-06-29 11:03:14.343750,-225.84,72.62
265676,2018-06-29 11:03:14.375000,-244.76,72.62
265677,2018-06-29 11:03:14.406250,-223.95,72.62
265678,2018-06-29 11:03:14.437500,-182.06,72.62
265679,2018-06-29 11:03:14.468750,-138.98,72.62
265680,2018-06-29 11:03:14.500000,-102.06,72.62
265681,2018-06-29 11:03:14.531250,-74.19,72.62
265682,2018-06-29 11:03:14.562500,-49.86,72.62
265683,2018-06-29 11:03:14.593750,-10.4,72.62
265684,2018-06-29 11:03:14.625000,50.54,72.62
265685,2018-06-29 11:03:14.656250,107.54,72.62
265686,2018-06-29 11:03:14.687500,128.61,72.62
265687,2018-06-29 11:03:14.718750,109.12,72.62
265688,2018-06-29 11:03:14.750000,68.33,72.62
265689,2018-06-29 11:03:14.781250,22.66,72.62
265690,2018-06-29 11:03:14.812500,-25.46,72.62
265691,2018-06-29 11:03:14.843750,-73.79,72.62
265692,2018-06-29 11:03:14.875000,-108.33,72.62
265693,2018-06-29 11:03:14.906250,-116.14,72.62
265694,2018-06-29 11:03:14.937500,-102.08,72.62
265695,2018-06-29 11:03:14.968750,-81.2,72.62
265696,2018-06-29 11:03:15.000000,-62.27,72.62
265697,2018-06-29 11:03:15.031250,-46.73,72.62
265698,2018-06-29 11:03:15.062500,-35.05,72.62
265699,2018-06-29 11:03:15.093750,-27.01,72.62
265700,2018-06-29 11:03:15.125000,-20.55,72.62
265701,2018-06-29 11:03:15.156250,-15.31,72.62
265702,2018-06-29 11:03:15.187500,-13.94,72.62
265703,2018-06-29 11:03:15.218750,-17.47,72.62
265704,2018-06-29 11:03:15.250000,-22.7,72.62
265705,2018-06-29 11:03:15.281250,-26.55,72.62
265706,2018-06-29 11:03:15.312500,-29.05,72.62
265707,2018-06-29 11:03:15.343750,-31.05,72.62
265708,2018-06-29 11:03:15.375000,-33.36,72.62
265709,2018-06-29 11:03:15.406250,-39.19,72.62
265710,2018-06-29 11:03:15.437500,-52.14,72.62
265711,2018-06-29 11:03:15.468750,-68.05,72.62
265712,2018-06-29 11:03:15.500000,-73.36,72.62
265713,2018-06-29 11:03:15.531250,-59.26,72.62
265714,2018-06-29 11:03:15.562500,-34.05,72.62
265715,2018-06-29 11:03:15.593750,-13.06,72.62
265716,2018-06-29 11:03:15.625000,-1.22,72.62
265717,2018-06-29 11:03:15.656250,5.35,72.62
265718,2018-06-29 11:03:15.687500,7.96,72.62
265719,2018-06-29 11:03:15.718750,5.81,72.62
265720,2018-06-29 11:03:15.750000,2.14,72.62
265721,2018-06-29 11:03:15.781250,0.97,72.62
265722,2018-06-29 11:03:15.812500,1.93,72.62
265723,2018-06-29 11:03:15.843750,3.16,72.62
265724,2018-06-29 11:03:15.875000,5.01,72.62
265725,2018-06-29 11:03:15.906250,7.53,72.62
265726,2018-06-29 11:03:15.937500,8.58,72.62
265727,2018-06-29 11:03:15.968750,6.64,72.62
265728,2018-06-29 11:03:16.000000,2.46,72.62
265729,2018-06-29 11:03:16.031250,-2.44,72.62
265730,2018-06-29 11:03:16.062500,-7.09,72.62
265731,2018-06-29 11:03:16.093750,-11.19,72.62
265732,2018-06-29 11:03:16.125000,-15.57,72.62
265733,2018-06-29 11:03:16.156250,-22.11,72.62
265734,2018-06-29 11:03:16.187500,-31.73,72.62
265735,2018-06-29 11:03:16.218750,-43.1,72.62
265736,2018-06-29 11:03:16.250000,-54.37,72.62
265737,2018-06-29 11:03:16.281250,-65.77,72.62
265738,2018-06-29 11:03:16.312500,-79.56,72.62
265739,2018-06-29 11:03:16.343750,-96.44,72.62
265740,2018-06-29 11:03:16.375000,-109.25,72.62
265741,2018-06-29 11:03:16.406250,-104.73,72.62
265742,2018-06-29 11:03:16.437500,-78.33,72.62
265743,2018-06-29 11:03:16.468750,-42.6,72.62
265744,2018-06-29 11:03:16.500000,-14.4,72.62
265745,2018-06-29 11:03:16.531250,0.01,72.6
265746,2018-06-29 11:03:16.562500,3.27,72.6
265747,2018-06-29 11:03:16.593750,-0.03,72.6
265748,2018-06-29 11:03:16.625000,-4.27,72.6
265749,2018-06-29 11:03:16.656250,-4.71,72.6
265750,2018-06-29 11:03:16.687500,-1.72,72.6
265751,2018-06-29 11:03:16.718750,0.82,72.6
265752,2018-06-29 11:03:16.750000,1.13,72.6
265753,2018-06-29 11:03:16.781250,0.65,72.6
265754,2018-06-29 11:03:16.812500,0.59,72.6
265755,2018-06-29 11:03:16.843750,-0.94,72.6
265756,2018-06-29 11:03:16.875000,-8.03,72.6
265757,2018-06-29 11:03:16.906250,-21.76,72.6
265758,2018-06-29 11:03:16.937500,-32.97,72.6
265759,2018-06-29 11:03:16.968750,-26.92,72.6
265760,2018-06-29 11:03:17.000000,-2.31,72.6
265761,2018-06-29 11:03:17.031250,22.72,72.6
265762,2018-06-29 11:03:17.062500,30.37,72.6
265763,2018-06-29 11:03:17.093750,21.71,72.6
265764,2018-06-29 11:03:17.125000,10.63,72.6
265765,2018-06-29 11:03:17.156250,6.53,72.6
265766,2018-06-29 11:03:17.187500,7.54,72.6
265767,2018-06-29 11:03:17.218750,5.18,72.6
265768,2018-06-29 11:03:17.250000,-8.28,72.6
265769,2018-06-29 11:03:17.281250,-30.47,72.6
265770,2018-06-29 11:03:17.312500,-46.44,72.6
265771,2018-06-29 11:03:17.343750,-44.89,72.6
265772,2018-06-29 11:03:17.375000,-33.31,72.6
265773,2018-06-29 11:03:17.406250,-25.74,72.6
265774,2018-06-29 11:03:17.437500,-23.86,72.6
265775,2018-06-29 11:03:17.468750,-21.9,72.6
265776,2018-06-29 11:03:17.500000,-19.49,72.6
265777,2018-06-29 11:03:17.531250,-18.62,72.57
265778,2018-06-29 11:03:17.562500,-16.65,72.57
265779,2018-06-29 11:03:17.593750,-9.69,72.57
265780,2018-06-29 11:03:17.625000,1.57,72.57
265781,2018-06-29 11:03:17.656250,13.46,72.57
265782,2018-06-29 11:03:17.687500,23.25,72.57
265783,2018-06-29 11:03:17.718750,29.03,72.57
265784,2018-06-29 11:03:17.750000,29.55,72.57
265785,2018-06-29 11:03:17.781250,25.89,72.57
265786,2018-06-29 11:03:17.812500,20.31,72.57
265787,2018-06-29 11:03:17.843750,13.01,72.57
265788,2018-06-29 11:03:17.875000,2.65,72.57
265789,2018-06-29 11:03:17.906250,-9.83,72.57
265790,2018-06-29 11:03:17.937500,-20.51,72.57
265791,2018-06-29 11:03:17.968750,-27.83,72.57
265792,2018-06-29 11:03:18.000000,-36.21,72.57
265793,2018-06-29 11:03:18.031250,-50.07,72.57
265794,2018-06-29 11:03:18.062500,-66.92,72.57
265795,2018-06-29 11:03:18.093750,-82.07,72.57
265796,2018-06-29 11:03:18.125000,-96.72,72.57
265797,2018-06-29 11:03:18.156250,-116.42,72.57
265798,2018-06-29 11:03:18.187500,-142.42,72.57
265799,2018-06-29 11:03:18.218750,-163.91,72.57
265800,2018-06-29 11:03:18.250000,-162.8,72.57
265801,2018-06-29 11:03:18.281250,-133.43,72.57
265802,2018-06-29 11:03:18.312500,-91.97,72.57
265803,2018-06-29 11:03:18.343750,-56.76,72.57
265804,2018-06-29 11:03:18.375000,-27.26,72.57
265805,2018-06-29 11:03:18.406250,5.78,72.57
265806,2018-06-29 11:03:18.437500,39.05,72.57
265807,2018-06-29 11:03:18.468750,60.65,72.57
265808,2018-06-29 11:03:18.500000,69.7,72.57
265809,2018-06-29 11:03:18.531250,77.71,72.52
265810,2018-06-29 11:03:18.562500,92.36,72.52
265811,2018-06-29 11:03:18.593750,110.97,72.52
265812,2018-06-29 11:03:18.625000,126.73,72.52
265813,2018-06-29 11:03:18.656250,133.73,72.52
265814,2018-06-29 11:03:18.687500,130.83,72.52
265815,2018-06-29 11:03:18.718750,124.22,72.52
265816,2018-06-29 11:03:18.750000,122.39,72.52
265817,2018-06-29 11:03:18.781250,128.49,72.52
265818,2018-06-29 11:03:18.812500,138.5,72.52
265819,2018-06-29 11:03:18.843750,144.43,72.52
265820,2018-06-29 11:03:18.875000,138.85,72.52
265821,2018-06-29 11:03:18.906250,119.9,72.52
265822,2018-06-29 11:03:18.937500,92.48,72.52
265823,2018-06-29 11:03:18.968750,63.9,72.52
265824,2018-06-29 11:03:19.000000,37.13,72.52
265825,2018-06-29 11:03:19.031250,6.43,72.52
265826,2018-06-29 11:03:19.062500,-40.74,72.52
265827,2018-06-29 11:03:19.093750,-110.9,72.52
265828,2018-06-29 11:03:19.125000,-187.51,72.52
265829,2018-06-29 11:03:19.156250,-236.0,72.52
265830,2018-06-29 11:03:19.187500,-236.54,72.52
265831,2018-06-29 11:03:19.218750,-203.51,72.52
265832,2018-06-29 11:03:19.250000,-166.52,72.52
265833,2018-06-29 11:03:19.281250,-144.12,72.52
265834,2018-06-29 11:03:19.312500,-138.23,72.52
265835,2018-06-29 11:03:19.343750,-139.42,72.52
265836,2018-06-29 11:03:19.375000,-133.35,72.52
265837,2018-06-29 11:03:19.406250,-111.57,72.52
265838,2018-06-29 11:03:19.437500,-78.77,72.52
265839,2018-06-29 11:03:19.468750,-46.81,72.52
265840,2018-06-29 11:03:19.500000,-22.76,72.52
265841,2018-06-29 11:03:19.531250,-4.84,72.45
265842,2018-06-29 11:03:19.562500,11.12,72.45
265843,2018-06-29 11:03:19.593750,25.38,72.45
265844,2018-06-29 11:03:19.625000,35.74,72.45
265845,2018-06-29 11:03:19.656250,42.39,72.45
265846,2018-06-29 11:03:19.687500,47.22,72.45
265847,2018-06-29 11:03:19.718750,48.79,72.45
265848,2018-06-29 11:03:19.750000,43.12,72.45
265849,2018-06-29 11:03:19.781250,30.55,72.45
265850,2018-06-29 11:03:19.812500,16.72,72.45
265851,2018-06-29 11:03:19.843750,5.64,72.45
265852,2018-06-29 11:03:19.875000,-4.41,72.45
265853,2018-06-29 11:03:19.906250,-18.12,72.45
265854,2018-06-29 11:03:19.937500,-36.52,72.45
265855,2018-06-29 11:03:19.968750,-49.12,72.45
265856,2018-06-29 11:03:20.000000,-37.61,72.45
265857,2018-06-29 11:03:20.031250,4.66,72.45
265858,2018-06-29 11:03:20.062500,62.03,72.45
265859,2018-06-29 11:03:20.093750,111.57,72.45
265860,2018-06-29 11:03:20.125000,141.4,72.45
265861,2018-06-29 11:03:20.156250,151.11,72.45
265862,2018-06-29 11:03:20.187500,144.85,72.45
265863,2018-06-29 11:03:20.218750,130.35,72.45
265864,2018-06-29 11:03:20.250000,117.56,72.45
265865,2018-06-29 11:03:20.281250,112.16,72.45
265866,2018-06-29 11:03:20.312500,112.21,72.45
265867,2018-06-29 11:03:20.343750,112.77,72.45
265868,2018-06-29 11:03:20.375000,110.98,72.45
265869,2018-06-29 11:03:20.406250,105.84,72.45
265870,2018-06-29 11:03:20.437500,96.29,72.45
265871,2018-06-29 11:03:20.468750,81.25,72.45
265872,2018-06-29 11:03:20.500000,60.95,72.45
265873,2018-06-29 11:03:20.531250,38.04,72.38
265874,2018-06-29 11:03:20.562500,16.68,72.38
265875,2018-06-29 11:03:20.593750,-0.7,72.38
265876,2018-06-29 11:03:20.625000,-15.59,72.38
265877,2018-06-29 11:03:20.656250,-32.31,72.38
265878,2018-06-29 11:03:20.687500,-53.25,72.38
265879,2018-06-29 11:03:20.718750,-71.26,72.38
265880,2018-06-29 11:03:20.750000,-69.93,72.38
265881,2018-06-29 11:03:20.781250,-39.89,72.38
265882,2018-06-29 11:03:20.812500,7.7,72.38
265883,2018-06-29 11:03:20.843750,51.46,72.38
265884,2018-06-29 11:03:20.875000,78.79,72.38
265885,2018-06-29 11:03:20.906250,87.89,72.38
265886,2018-06-29 11:03:20.937500,80.65,72.38
265887,2018-06-29 11:03:20.968750,62.94,72.38
265888,2018-06-29 11:03:21.000000,45.36,72.38
265889,2018-06-29 11:03:21.031250,35.52,72.38
265890,2018-06-29 11:03:21.062500,32.03,72.38
265891,2018-06-29 11:03:21.093750,29.63,72.38
265892,2018-06-29 11:03:21.125000,26.23,72.38
265893,2018-06-29 11:03:21.156250,22.01,72.38
265894,2018-06-29 11:03:21.187500,14.85,72.38
265895,2018-06-29 11:03:21.218750,1.56,72.38
265896,2018-06-29 11:03:21.250000,-17.02,72.38
265897,2018-06-29 11:03:21.281250,-35.58,72.38
265898,2018-06-29 11:03:21.312500,-50.42,72.38
265899,2018-06-29 11:03:21.343750,-63.71,72.38
265900,2018-06-29 11:03:21.375000,-80.52,72.38
265901,2018-06-29 11:03:21.406250,-101.98,72.38
265902,2018-06-29 11:03:21.437500,-118.62,72.38
265903,2018-06-29 11:03:21.468750,-112.6,72.38
265904,2018-06-29 11:03:21.500000,-74.85,72.38
265905,2018-06-29 11:03:21.531250,-18.26,72.27
265906,2018-06-29 11:03:21.562500,33.37,72.27
265907,2018-06-29 11:03:21.593750,66.29,72.27
265908,2018-06-29 11:03:21.625000,80.55,72.27
265909,2018-06-29 11:03:21.656250,80.49,72.27
265910,2018-06-29 11:03:21.687500,71.02,72.27
265911,2018-06-29 11:03:21.718750,59.79,72.27
265912,2018-06-29 11:03:21.750000,53.24,72.27
265913,2018-06-29 11:03:21.781250,50.55,72.27
265914,2018-06-29 11:03:21.812500,47.39,72.27
265915,2018-06-29 11:03:21.843750,43.53,72.27
265916,2018-06-29 11:03:21.875000,39.63,72.27
265917,2018-06-29 11:03:21.906250,30.55,72.27
265918,2018-06-29 11:03:21.937500,11.43,72.27
265919,2018-06-29 11:03:21.968750,-12.59,72.27
265920,2018-06-29 11:03:22.000000,-32.04,72.27
265921,2018-06-29 11:03:22.031250,-45.52,72.27
265922,2018-06-29 11:03:22.062500,-59.65,72.27
265923,2018-06-29 11:03:22.093750,-78.78,72.27
265924,2018-06-29 11:03:22.125000,-96.89,72.27
265925,2018-06-29 11:03:22.156250,-97.47,72.27
265926,2018-06-29 11:03:22.187500,-66.77,72.27
265927,2018-06-29 11:03:22.218750,-11.05,72.27
265928,2018-06-29 11:03:22.250000,46.36,72.27
265929,2018-06-29 11:03:22.281250,86.5,72.27
265930,2018-06-29 11:03:22.312500,105.88,72.27
265931,2018-06-29 11:03:22.343750,108.73,72.27
265932,2018-06-29 11:03:22.375000,99.69,72.27
265933,2018-06-29 11:03:22.406250,85.69,72.27
265934,2018-06-29 11:03:22.437500,75.06,72.27
265935,2018-06-29 11:03:22.468750,69.73,72.27
265936,2018-06-29 11:03:22.500000,64.3,72.27
265937,2018-06-29 11:03:22.531250,55.86,72.15
265938,2018-06-29 11:03:22.562500,47.14,72.15
265939,2018-06-29 11:03:22.593750,37.99,72.15
265940,2018-06-29 11:03:22.625000,23.02,72.15
265941,2018-06-29 11:03:22.656250,0.66,72.15
265942,2018-06-29 11:03:22.687500,-22.78,72.15
265943,2018-06-29 11:03:22.718750,-40.73,72.15
265944,2018-06-29 11:03:22.750000,-53.95,72.15
265945,2018-06-29 11:03:22.781250,-68.92,72.15
265946,2018-06-29 11:03:22.812500,-89.56,72.15
265947,2018-06-29 11:03:22.843750,-107.9,72.15
265948,2018-06-29 11:03:22.875000,-104.89,72.15
265949,2018-06-29 11:03:22.906250,-68.34,72.15
265950,2018-06-29 11:03:22.937500,-9.3,72.15
265951,2018-06-29 11:03:22.968750,47.12,72.15
265952,2018-06-29 11:03:23.000000,83.78,72.15
265953,2018-06-29 11:03:23.031250,98.91,72.15
265954,2018-06-29 11:03:23.062500,98.54,72.15
265955,2018-06-29 11:03:23.093750,89.98,72.15
265956,2018-06-29 11:03:23.125000,80.17,72.15
265957,2018-06-29 11:03:23.156250,73.44,72.15
265958,2018-06-29 11:03:23.187500,69.58,72.15
265959,2018-06-29 11:03:23.218750,66.07,72.15
265960,2018-06-29 11:03:23.250000,61.92,72.15
265961,2018-06-29 11:03:23.281250,56.51,72.15
265962,2018-06-29 11:03:23.312500,47.08,72.15
265963,2018-06-29 11:03:23.343750,31.89,72.15
265964,2018-06-29 11:03:23.375000,14.08,72.15
265965,2018-06-29 11:03:23.406250,-2.03,72.15
265966,2018-06-29 11:03:23.437500,-16.67,72.15
265967,2018-06-29 11:03:23.468750,-32.92,72.15
265968,2018-06-29 11:03:23.500000,-50.34,72.15
265969,2018-06-29 11:03:23.531250,-65.01,72.05
265970,2018-06-29 11:03:23.562500,-75.79,72.05
265971,2018-06-29 11:03:23.593750,-86.96,72.05
265972,2018-06-29 11:03:23.625000,-103.4,72.05
265973,2018-06-29 11:03:23.656250,-121.4,72.05
265974,2018-06-29 11:03:23.687500,-124.56,72.05
265975,2018-06-29 11:03:23.718750,-97.04,72.05
265976,2018-06-29 11:03:23.750000,-43.52,72.05
265977,2018-06-29 11:03:23.781250,13.23,72.05
265978,2018-06-29 11:03:23.812500,55.37,72.05
265979,2018-06-29 11:03:23.843750,80.12,72.05
265980,2018-06-29 11:03:23.875000,90.55,72.05
265981,2018-06-29 11:03:23.906250,89.84,72.05
265982,2018-06-29 11:03:23.937500,83.25,72.05
265983,2018-06-29 11:03:23.968750,76.81,72.05
265984,2018-06-29 11:03:24.000000,72.9,72.05
265985,2018-06-29 11:03:24.031250,70.5,72.05
265986,2018-06-29 11:03:24.062500,68.41,72.05
265987,2018-06-29 11:03:24.093750,65.99,72.05
265988,2018-06-29 11:03:24.125000,61.4,72.05
265989,2018-06-29 11:03:24.156250,52.75,72.05
265990,2018-06-29 11:03:24.187500,41.07,72.05
265991,2018-06-29 11:03:24.218750,29.02,72.05
265992,2018-06-29 11:03:24.250000,17.38,72.05
265993,2018-06-29 11:03:24.281250,5.39,72.05
265994,2018-06-29 11:03:24.312500,-6.28,72.05
265995,2018-06-29 11:03:24.343750,-16.12,72.05
265996,2018-06-29 11:03:24.375000,-25.4,72.05
265997,2018-06-29 11:03:24.406250,-36.96,72.05
265998,2018-06-29 11:03:24.437500,-50.22,72.05
265999,2018-06-29 11:03:24.468750,-61.5,72.05
266000,2018-06-29 11:03:24.500000,-69.77,72.05
266001,2018-06-29 11:03:24.531250,-78.51,71.98
266002,2018-06-29 11:03:24.562500,-91.49,71.98
266003,2018-06-29 11:03:24.593750,-106.75,71.98
266004,2018-06-29 11:03:24.625000,-112.9,71.98
266005,2018-06-29 11:03:24.656250,-96.19,71.98
266006,2018-06-29 11:03:24.687500,-56.75,71.98
266007,2018-06-29 11:03:24.718750,-11.62,71.98
266008,2018-06-29 11:03:24.750000,22.47,71.98
266009,2018-06-29 11:03:24.781250,41.9,71.98
266010,2018-06-29 11:03:24.812500,50.39,71.98
266011,2018-06-29 11:03:24.843750,50.95,71.98
266012,2018-06-29 11:03:24.875000,46.96,71.98
266013,2018-06-29 11:03:24.906250,43.46,71.98
266014,2018-06-29 11:03:24.937500,43.06,71.98
266015,2018-06-29 11:03:24.968750,43.98,71.98
266016,2018-06-29 11:03:25.000000,44.01,71.98
266017,2018-06-29 11:03:25.031250,43.23,71.98
266018,2018-06-29 11:03:25.062500,41.48,71.98
266019,2018-06-29 11:03:25.093750,36.87,71.98
266020,2018-06-29 11:03:25.125000,28.87,71.98
266021,2018-06-29 11:03:25.156250,20.09,71.98
266022,2018-06-29 11:03:25.187500,13.09,71.98
266023,2018-06-29 11:03:25.218750,7.46,71.98
266024,2018-06-29 11:03:25.250000,1.34,71.98
266025,2018-06-29 11:03:25.281250,-5.72,71.98
266026,2018-06-29 11:03:25.312500,-12.62,71.98
266027,2018-06-29 11:03:25.343750,-18.36,71.98
266028,2018-06-29 11:03:25.375000,-23.67,71.98
266029,2018-06-29 11:03:25.406250,-30.35,71.98
266030,2018-06-29 11:03:25.437500,-38.26,71.98
266031,2018-06-29 11:03:25.468750,-44.85,71.98
266032,2018-06-29 11:03:25.500000,-49.08,71.98
266033,2018-06-29 11:03:25.531250,-54.17,71.88
266034,2018-06-29 11:03:25.562500,-63.71,71.88
266035,2018-06-29 11:03:25.593750,-73.87,71.88
266036,2018-06-29 11:03:25.625000,-73.14,71.88
266037,2018-06-29 11:03:25.656250,-54.41,71.88
266038,2018-06-29 11:03:25.687500,-24.67,71.88
266039,2018-06-29 11:03:25.718750,2.54,71.88
266040,2018-06-29 11:03:25.750000,19.87,71.88
266041,2018-06-29 11:03:25.781250,27.05,71.88
266042,2018-06-29 11:03:25.812500,25.92,71.88
266043,2018-06-29 11:03:25.843750,19.79,71.88
266044,2018-06-29 11:03:25.875000,13.52,71.88
266045,2018-06-29 11:03:25.906250,10.62,71.88
266046,2018-06-29 11:03:25.937500,11.05,71.88
266047,2018-06-29 11:03:25.968750,12.18,71.88
266048,2018-06-29 11:03:26.000000,11.98,71.88
266049,2018-06-29 11:03:26.031250,11.07,71.88
266050,2018-06-29 11:03:26.062500,10.52,71.88
266051,2018-06-29 11:03:26.093750,9.54,71.88
266052,2018-06-29 11:03:26.125000,7.51,71.88
266053,2018-06-29 11:03:26.156250,5.71,71.88
266054,2018-06-29 11:03:26.187500,5.18,71.88
266055,2018-06-29 11:03:26.218750,5.29,71.88
266056,2018-06-29 11:03:26.250000,5.06,71.88
266057,2018-06-29 11:03:26.281250,4.08,71.88
266058,2018-06-29 11:03:26.312500,2.72,71.88
266059,2018-06-29 11:03:26.343750,1.48,71.88
266060,2018-06-29 11:03:26.375000,-0.67,71.88
266061,2018-06-29 11:03:26.406250,-5.35,71.88
266062,2018-06-29 11:03:26.437500,-11.68,71.88
266063,2018-06-29 11:03:26.468750,-17.37,71.88
266064,2018-06-29 11:03:26.500000,-22.57,71.88
266065,2018-06-29 11:03:26.531250,-29.45,71.8
266066,2018-06-29 11:03:26.562500,-38.86,71.8
266067,2018-06-29 11:03:26.593750,-48.45,71.8
266068,2018-06-29 11:03:26.625000,-52.32,71.8
266069,2018-06-29 11:03:26.656250,-44.63,71.8
266070,2018-06-29 11:03:26.687500,-27.14,71.8
266071,2018-06-29 11:03:26.718750,-9.46,71.8
266072,2018-06-29 11:03:26.750000,0.46,71.8
266073,2018-06-29 11:03:26.781250,2.36,71.8
266074,2018-06-29 11:03:26.812500,-0.3,71.8
266075,2018-06-29 11:03:26.843750,-4.61,71.8
266076,2018-06-29 11:03:26.875000,-7.51,71.8
266077,2018-06-29 11:03:26.906250,-6.64,71.8
266078,2018-06-29 11:03:26.937500,-2.86,71.8
266079,2018-06-29 11:03:26.968750,1.05,71.8
266080,2018-06-29 11:03:27.000000,3.71,71.8
266081,2018-06-29 11:03:27.031250,5.8,71.8
266082,2018-06-29 11:03:27.062500,7.75,71.8
266083,2018-06-29 11:03:27.093750,8.49,71.8
266084,2018-06-29 11:03:27.125000,7.2,71.8
266085,2018-06-29 11:03:27.156250,5.11,71.8
266086,2018-06-29 11:03:27.187500,3.61,71.8
266087,2018-06-29 11:03:27.218750,2.12,71.8
266088,2018-06-29 11:03:27.250000,-0.44,71.8
266089,2018-06-29 11:03:27.281250,-3.77,71.8
266090,2018-06-29 11:03:27.312500,-7.14,71.8
266091,2018-06-29 11:03:27.343750,-10.91,71.8
266092,2018-06-29 11:03:27.375000,-16.02,71.8
266093,2018-06-29 11:03:27.406250,-22.19,71.8
266094,2018-06-29 11:03:27.437500,-27.49,71.8
266095,2018-06-29 11:03:27.468750,-30.34,71.8
266096,2018-06-29 11:03:27.500000,-31.54,71.8
266097,2018-06-29 11:03:27.531250,-33.72,71.8
266098,2018-06-29 11:03:27.562500,-38.12,71.8
266099,2018-06-29 11:03:27.593750,-41.13,71.8
266100,2018-06-29 11:03:27.625000,-36.16,71.8
266101,2018-06-29 11:03:27.656250,-21.51,71.8
266102,2018-06-29 11:03:27.687500,-4.11,71.8
266103,2018-06-29 11:03:27.718750,7.57,71.8
266104,2018-06-29 11:03:27.750000,11.36,71.8
266105,2018-06-29 11:03:27.781250,10.1,71.8
266106,2018-06-29 11:03:27.812500,6.61,71.8
266107,2018-06-29 11:03:27.843750,2.93,71.8
266108,2018-06-29 11:03:27.875000,1.5,71.8
266109,2018-06-29 11:03:27.906250,3.15,71.8
266110,2018-06-29 11:03:27.937500,5.3,71.8
266111,2018-06-29 11:03:27.968750,5.26,71.8
266112,2018-06-29 11:03:28.000000,3.52,71.8
266113,2018-06-29 11:03:28.031250,1.44,71.8
266114,2018-06-29 11:03:28.062500,-1.18,71.8
266115,2018-06-29 11:03:28.093750,-4.37,71.8
266116,2018-06-29 11:03:28.125000,-6.85,71.8
266117,2018-06-29 11:03:28.156250,-8.3,71.8
266118,2018-06-29 11:03:28.187500,-9.66,71.8
266119,2018-06-29 11:03:28.218750,-10.8,71.8
266120,2018-06-29 11:03:28.250000,-11.05,71.8
266121,2018-06-29 11:03:28.281250,-11.26,71.8
266122,2018-06-29 11:03:28.312500,-12.59,71.8
266123,2018-06-29 11:03:28.343750,-14.74,71.8
266124,2018-06-29 11:03:28.375000,-16.44,71.8
266125,2018-06-29 11:03:28.406250,-17.25,71.8
266126,2018-06-29 11:03:28.437500,-18.0,71.8
266127,2018-06-29 11:03:28.468750,-20.16,71.8
266128,2018-06-29 11:03:28.500000,-23.51,71.8
266129,2018-06-29 11:03:28.531250,-23.38,71.8
266130,2018-06-29 11:03:28.562500,-14.15,71.8
266131,2018-06-29 11:03:28.593750,2.65,71.8
266132,2018-06-29 11:03:28.625000,17.98,71.8
266133,2018-06-29 11:03:28.656250,24.75,71.8
266134,2018-06-29 11:03:28.687500,23.28,71.8
266135,2018-06-29 11:03:28.718750,17.12,71.8
266136,2018-06-29 11:03:28.750000,9.47,71.8
266137,2018-06-29 11:03:28.781250,3.44,71.8
266138,2018-06-29 11:03:28.812500,1.05,71.8
266139,2018-06-29 11:03:28.843750,1.52,71.8
266140,2018-06-29 11:03:28.875000,2.89,71.8
266141,2018-06-29 11:03:28.906250,4.54,71.8
266142,2018-06-29 11:03:28.937500,6.24,71.8
266143,2018-06-29 11:03:28.968750,6.36,71.8
266144,2018-06-29 11:03:29.000000,3.46,71.8
266145,2018-06-29 11:03:29.031250,-0.75,71.8
266146,2018-06-29 11:03:29.062500,-3.4,71.8
266147,2018-06-29 11:03:29.093750,-4.82,71.8
266148,2018-06-29 11:03:29.125000,-7.86,71.8
266149,2018-06-29 11:03:29.156250,-13.36,71.8
266150,2018-06-29 11:03:29.187500,-19.31,71.8
266151,2018-06-29 11:03:29.218750,-23.79,71.8
266152,2018-06-29 11:03:29.250000,-26.69,71.8
266153,2018-06-29 11:03:29.281250,-29.59,71.8
266154,2018-06-29 11:03:29.312500,-34.84,71.8
266155,2018-06-29 11:03:29.343750,-41.64,71.8
266156,2018-06-29 11:03:29.375000,-43.26,71.8
266157,2018-06-29 11:03:29.406250,-33.16,71.8
266158,2018-06-29 11:03:29.437500,-14.39,71.8
266159,2018-06-29 11:03:29.468750,2.68,71.8
266160,2018-06-29 11:03:29.500000,11.14,71.8
266161,2018-06-29 11:03:29.531250,11.19,71.82
266162,2018-06-29 11:03:29.562500,5.57,71.82
266163,2018-06-29 11:03:29.593750,-2.65,71.82
266164,2018-06-29 11:03:29.625000,-9.33,71.82
266165,2018-06-29 11:03:29.656250,-11.14,71.82
266166,2018-06-29 11:03:29.687500,-8.19,71.82
266167,2018-06-29 11:03:29.718750,-3.58,71.82
266168,2018-06-29 11:03:29.750000,-0.13,71.82
266169,2018-06-29 11:03:29.781250,0.88,71.82
266170,2018-06-29 11:03:29.812500,-1.01,71.82
266171,2018-06-29 11:03:29.843750,-5.11,71.82
266172,2018-06-29 11:03:29.875000,-9.91,71.82
266173,2018-06-29 11:03:29.906250,-15.14,71.82
266174,2018-06-29 11:03:29.937500,-21.41,71.82
266175,2018-06-29 11:03:29.968750,-27.79,71.82
266176,2018-06-29 11:03:30.000000,-32.77,71.82
266177,2018-06-29 11:03:30.031250,-36.97,71.82
266178,2018-06-29 11:03:30.062500,-42.63,71.82
266179,2018-06-29 11:03:30.093750,-50.54,71.82
266180,2018-06-29 11:03:30.125000,-56.32,71.82
266181,2018-06-29 11:03:30.156250,-51.42,71.82
266182,2018-06-29 11:03:30.187500,-32.57,71.82
266183,2018-06-29 11:03:30.218750,-7.31,71.82
266184,2018-06-29 11:03:30.250000,13.83,71.82
266185,2018-06-29 11:03:30.281250,26.25,71.82
266186,2018-06-29 11:03:30.312500,30.01,71.82
266187,2018-06-29 11:03:30.343750,26.66,71.82
266188,2018-06-29 11:03:30.375000,20.29,71.82
266189,2018-06-29 11:03:30.406250,15.93,71.82
266190,2018-06-29 11:03:30.437500,15.37,71.82
266191,2018-06-29 11:03:30.468750,17.28,71.82
266192,2018-06-29 11:03:30.500000,20.06,71.82
266193,2018-06-29 11:03:30.531250,22.09,71.8
266194,2018-06-29 11:03:30.562500,21.34,71.8
266195,2018-06-29 11:03:30.593750,17.38,71.8
266196,2018-06-29 11:03:30.625000,11.79,71.8
266197,2018-06-29 11:03:30.656250,5.06,71.8
266198,2018-06-29 11:03:30.687500,-3.91,71.8
266199,2018-06-29 11:03:30.718750,-14.32,71.8
266200,2018-06-29 11:03:30.750000,-23.34,71.8
266201,2018-06-29 11:03:30.781250,-30.37,71.8
266202,2018-06-29 11:03:30.812500,-37.99,71.8
266203,2018-06-29 11:03:30.843750,-48.92,71.8
266204,2018-06-29 11:03:30.875000,-63.09,71.8
266205,2018-06-29 11:03:30.906250,-74.32,71.8
266206,2018-06-29 11:03:30.937500,-70.91,71.8
266207,2018-06-29 11:03:30.968750,-46.63,71.8
266208,2018-06-29 11:03:31.000000,-9.86,71.8
266209,2018-06-29 11:03:31.031250,23.67,71.8
266210,2018-06-29 11:03:31.062500,44.15,71.8
266211,2018-06-29 11:03:31.093750,50.7,71.8
266212,2018-06-29 11:03:31.125000,47.76,71.8
266213,2018-06-29 11:03:31.156250,41.91,71.8
266214,2018-06-29 11:03:31.187500,38.0,71.8
266215,2018-06-29 11:03:31.218750,37.15,71.8
266216,2018-06-29 11:03:31.250000,38.73,71.8
266217,2018-06-29 11:03:31.281250,42.41,71.8
266218,2018-06-29 11:03:31.312500,46.79,71.8
266219,2018-06-29 11:03:31.343750,48.11,71.8
266220,2018-06-29 11:03:31.375000,43.07,71.8
266221,2018-06-29 11:03:31.406250,32.83,71.8
266222,2018-06-29 11:03:31.437500,21.76,71.8
266223,2018-06-29 11:03:31.468750,11.68,71.8
266224,2018-06-29 11:03:31.500000,0.44,71.8
266225,2018-06-29 11:03:31.531250,-13.26,71.78
266226,2018-06-29 11:03:31.562500,-27.05,71.78
266227,2018-06-29 11:03:31.593750,-37.9,71.78
266228,2018-06-29 11:03:31.625000,-46.19,71.78
266229,2018-06-29 11:03:31.656250,-56.07,71.78
266230,2018-06-29 11:03:31.687500,-71.37,71.78
266231,2018-06-29 11:03:31.718750,-87.23,71.78
266232,2018-06-29 11:03:31.750000,-88.0,71.78
266233,2018-06-29 11:03:31.781250,-62.3,71.78
266234,2018-06-29 11:03:31.812500,-18.28,71.78
266235,2018-06-29 11:03:31.843750,24.37,71.78
266236,2018-06-29 11:03:31.875000,53.29,71.78
266237,2018-06-29 11:03:31.906250,66.61,71.78
266238,2018-06-29 11:03:31.937500,66.23,71.78
266239,2018-06-29 11:03:31.968750,57.53,71.78
266240,2018-06-29 11:03:32.000000,49.65,71.78
266241,2018-06-29 11:03:32.031250,48.51,71.78
266242,2018-06-29 11:03:32.062500,52.11,71.78
266243,2018-06-29 11:03:32.093750,55.86,71.78
266244,2018-06-29 11:03:32.125000,58.56,71.78
266245,2018-06-29 11:03:32.156250,60.21,71.78
266246,2018-06-29 11:03:32.187500,58.21,71.78
266247,2018-06-29 11:03:32.218750,49.76,71.78
266248,2018-06-29 11:03:32.250000,36.2,71.78
266249,2018-06-29 11:03:32.281250,21.91,71.78
266250,2018-06-29 11:03:32.312500,9.96,71.78
266251,2018-06-29 11:03:32.343750,-0.48,71.78
266252,2018-06-29 11:03:32.375000,-12.47,71.78
266253,2018-06-29 11:03:32.406250,-26.72,71.78
266254,2018-06-29 11:03:32.437500,-39.86,71.78
266255,2018-06-29 11:03:32.468750,-49.26,71.78
266256,2018-06-29 11:03:32.500000,-57.9,71.78
266257,2018-06-29 11:03:32.531250,-71.69,71.75
266258,2018-06-29 11:03:32.562500,-90.86,71.75
266259,2018-06-29 11:03:32.593750,-103.88,71.75
266260,2018-06-29 11:03:32.625000,-93.05,71.75
266261,2018-06-29 11:03:32.656250,-52.58,71.75
266262,2018-06-29 11:03:32.687500,1.46,71.75
266263,2018-06-29 11:03:32.718750,45.91,71.75
266264,2018-06-29 11:03:32.750000,70.6,71.75
266265,2018-06-29 11:03:32.781250,77.98,71.75
266266,2018-06-29 11:03:32.812500,73.04,71.75
266267,2018-06-29 11:03:32.843750,62.34,71.75
266268,2018-06-29 11:03:32.875000,54.81,71.75
266269,2018-06-29 11:03:32.906250,55.21,71.75
266270,2018-06-29 11:03:32.937500,60.35,71.75
266271,2018-06-29 11:03:32.968750,64.87,71.75
266272,2018-06-29 11:03:33.000000,67.04,71.75
266273,2018-06-29 11:03:33.031250,66.76,71.75
266274,2018-06-29 11:03:33.062500,62.31,71.75
266275,2018-06-29 11:03:33.093750,52.34,71.75
266276,2018-06-29 11:03:33.125000,38.44,71.75
266277,2018-06-29 11:03:33.156250,23.68,71.75
266278,2018-06-29 11:03:33.187500,10.2,71.75
266279,2018-06-29 11:03:33.218750,-1.39,71.75
266280,2018-06-29 11:03:33.250000,-12.36,71.75
266281,2018-06-29 11:03:33.281250,-24.89,71.75
266282,2018-06-29 11:03:33.312500,-38.92,71.75
266283,2018-06-29 11:03:33.343750,-51.49,71.75
266284,2018-06-29 11:03:33.375000,-60.89,71.75
266285,2018-06-29 11:03:33.406250,-69.84,71.75
266286,2018-06-29 11:03:33.437500,-83.75,71.75
266287,2018-06-29 11:03:33.468750,-102.87,71.75
266288,2018-06-29 11:03:33.500000,-114.2,71.75
266289,2018-06-29 11:03:33.531250,-98.39,71.73
266290,2018-06-29 11:03:33.562500,-51.6,71.73
266291,2018-06-29 11:03:33.593750,6.74,71.73
266292,2018-06-29 11:03:33.625000,53.17,71.73
266293,2018-06-29 11:03:33.656250,78.31,71.73
266294,2018-06-29 11:03:33.687500,84.21,71.73
266295,2018-06-29 11:03:33.718750,76.63,71.73
266296,2018-06-29 11:03:33.750000,64.26,71.73
266297,2018-06-29 11:03:33.781250,56.35,71.73
266298,2018-06-29 11:03:33.812500,56.35,71.73
266299,2018-06-29 11:03:33.843750,60.42,71.73
266300,2018-06-29 11:03:33.875000,63.49,71.73
266301,2018-06-29 11:03:33.906250,63.74,71.73
266302,2018-06-29 11:03:33.937500,61.05,71.73
266303,2018-06-29 11:03:33.968750,54.51,71.73
266304,2018-06-29 11:03:34.000000,43.64,71.73
266305,2018-06-29 11:03:34.031250,29.87,71.73
266306,2018-06-29 11:03:34.062500,16.04,71.73
266307,2018-06-29 11:03:34.093750,3.99,71.73
266308,2018-06-29 11:03:34.125000,-6.72,71.73
266309,2018-06-29 11:03:34.156250,-18.04,71.73
266310,2018-06-29 11:03:34.187500,-30.8,71.73
266311,2018-06-29 11:03:34.218750,-43.51,71.73
266312,2018-06-29 11:03:34.250000,-54.04,71.73
266313,2018-06-29 11:03:34.281250,-62.64,71.73
266314,2018-06-29 11:03:34.312500,-72.77,71.73
266315,2018-06-29 11:03:34.343750,-88.28,71.73
266316,2018-06-29 11:03:34.375000,-106.1,71.73
266317,2018-06-29 11:03:34.406250,-111.04,71.73
266318,2018-06-29 11:03:34.437500,-86.54,71.73
266319,2018-06-29 11:03:34.468750,-34.8,71.73
266320,2018-06-29 11:03:34.500000,21.72,71.73
266321,2018-06-29 11:03:34.531250,61.55,71.72
266322,2018-06-29 11:03:34.562500,79.28,71.72
266323,2018-06-29 11:03:34.593750,80.06,71.72
266324,2018-06-29 11:03:34.625000,70.49,71.72
266325,2018-06-29 11:03:34.656250,57.98,71.72
266326,2018-06-29 11:03:34.687500,50.53,71.72
266327,2018-06-29 11:03:34.718750,51.28,71.72
266328,2018-06-29 11:03:34.750000,55.84,71.72
266329,2018-06-29 11:03:34.781250,58.8,71.72
266330,2018-06-29 11:03:34.812500,59.17,71.72
266331,2018-06-29 11:03:34.843750,57.2,71.72
266332,2018-06-29 11:03:34.875000,51.36,71.72
266333,2018-06-29 11:03:34.906250,41.18,71.72
266334,2018-06-29 11:03:34.937500,28.72,71.72
266335,2018-06-29 11:03:34.968750,16.01,71.72
266336,2018-06-29 11:03:35.000000,4.08,71.72
266337,2018-06-29 11:03:35.031250,-6.3,71.72
266338,2018-06-29 11:03:35.062500,-15.77,71.72
266339,2018-06-29 11:03:35.093750,-26.8,71.72
266340,2018-06-29 11:03:35.125000,-40.02,71.72
266341,2018-06-29 11:03:35.156250,-52.45,71.72
266342,2018-06-29 11:03:35.187500,-61.78,71.72
266343,2018-06-29 11:03:35.218750,-70.15,71.72
266344,2018-06-29 11:03:35.250000,-82.35,71.72
266345,2018-06-29 11:03:35.281250,-99.71,71.72
266346,2018-06-29 11:03:35.312500,-112.22,71.72
266347,2018-06-29 11:03:35.343750,-101.06,71.72
266348,2018-06-29 11:03:35.375000,-59.08,71.72
266349,2018-06-29 11:03:35.406250,-3.42,71.72
266350,2018-06-29 11:03:35.437500,41.6,71.72
266351,2018-06-29 11:03:35.468750,65.88,71.72
266352,2018-06-29 11:03:35.500000,71.96,71.72
266353,2018-06-29 11:03:35.531250,65.4,71.68
266354,2018-06-29 11:03:35.562500,53.79,71.68
266355,2018-06-29 11:03:35.593750,45.63,71.68
266356,2018-06-29 11:03:35.625000,44.76,71.68
266357,2018-06-29 11:03:35.656250,48.4,71.68
266358,2018-06-29 11:03:35.687500,51.67,71.68
266359,2018-06-29 11:03:35.718750,52.42,71.68
266360,2018-06-29 11:03:35.750000,50.87,71.68
266361,2018-06-29 11:03:35.781250,46.23,71.68
266362,2018-06-29 11:03:35.812500,37.11,71.68
266363,2018-06-29 11:03:35.843750,24.61,71.68
266364,2018-06-29 11:03:35.875000,11.82,71.68
266365,2018-06-29 11:03:35.906250,0.65,71.68
266366,2018-06-29 11:03:35.937500,-8.99,71.68
266367,2018-06-29 11:03:35.968750,-18.06,71.68
266368,2018-06-29 11:03:36.000000,-27.58,71.68
266369,2018-06-29 11:03:36.031250,-38.04,71.68
266370,2018-06-29 11:03:36.062500,-48.75,71.68
266371,2018-06-29 11:03:36.093750,-58.53,71.68
266372,2018-06-29 11:03:36.125000,-67.62,71.68
266373,2018-06-29 11:03:36.156250,-79.04,71.68
266374,2018-06-29 11:03:36.187500,-94.35,71.68
266375,2018-06-29 11:03:36.218750,-104.78,71.68
266376,2018-06-29 11:03:36.250000,-93.52,71.68
266377,2018-06-29 11:03:36.281250,-54.76,71.68
266378,2018-06-29 11:03:36.312500,-4.09,71.68
266379,2018-06-29 11:03:36.343750,37.05,71.68
266380,2018-06-29 11:03:36.375000,59.74,71.68
266381,2018-06-29 11:03:36.406250,66.11,71.68
266382,2018-06-29 11:03:36.437500,60.63,71.68
266383,2018-06-29 11:03:36.468750,49.81,71.68
266384,2018-06-29 11:03:36.500000,42.01,71.68
266385,2018-06-29 11:03:36.531250,41.38,71.62
266386,2018-06-29 11:03:36.562500,45.13,71.62
266387,2018-06-29 11:03:36.593750,48.84,71.62
266388,2018-06-29 11:03:36.625000,50.59,71.62
266389,2018-06-29 11:03:36.656250,49.53,71.62
266390,2018-06-29 11:03:36.687500,44.56,71.62
266391,2018-06-29 11:03:36.718750,35.55,71.62
266392,2018-06-29 11:03:36.750000,23.87,71.62
266393,2018-06-29 11:03:36.781250,11.62,71.62
266394,2018-06-29 11:03:36.812500,1.04,71.62
266395,2018-06-29 11:03:36.843750,-7.3,71.62
266396,2018-06-29 11:03:36.875000,-15.75,71.62
266397,2018-06-29 11:03:36.906250,-26.5,71.62
266398,2018-06-29 11:03:36.937500,-38.21,71.62
266399,2018-06-29 11:03:36.968750,-48.11,71.62
266400,2018-06-29 11:03:37.000000,-56.33,71.62
266401,2018-06-29 11:03:37.031250,-66.15,71.62
266402,2018-06-29 11:03:37.062500,-80.46,71.62
266403,2018-06-29 11:03:37.093750,-95.6,71.62
266404,2018-06-29 11:03:37.125000,-98.02,71.62
266405,2018-06-29 11:03:37.156250,-74.89,71.62
266406,2018-06-29 11:03:37.187500,-30.87,71.62
266407,2018-06-29 11:03:37.218750,13.96,71.62
266408,2018-06-29 11:03:37.250000,43.21,71.62
266409,2018-06-29 11:03:37.281250,54.29,71.62
266410,2018-06-29 11:03:37.312500,52.19,71.62
266411,2018-06-29 11:03:37.343750,43.18,71.62
266412,2018-06-29 11:03:37.375000,34.41,71.62
266413,2018-06-29 11:03:37.406250,31.52,71.62
266414,2018-06-29 11:03:37.437500,34.34,71.62
266415,2018-06-29 11:03:37.468750,38.26,71.62
266416,2018-06-29 11:03:37.500000,40.33,71.62
266417,2018-06-29 11:03:37.531250,40.59,71.57
266418,2018-06-29 11:03:37.562500,37.9,71.57
266419,2018-06-29 11:03:37.593750,29.59,71.57
266420,2018-06-29 11:03:37.625000,16.29,71.57
266421,2018-06-29 11:03:37.656250,3.31,71.57
266422,2018-06-29 11:03:37.687500,-5.66,71.57
266423,2018-06-29 11:03:37.718750,-13.46,71.57
266424,2018-06-29 11:03:37.750000,-24.45,71.57
266425,2018-06-29 11:03:37.781250,-37.25,71.57
266426,2018-06-29 11:03:37.812500,-46.81,71.57
266427,2018-06-29 11:03:37.843750,-51.8,71.57
266428,2018-06-29 11:03:37.875000,-56.59,71.57
266429,2018-06-29 11:03:37.906250,-66.87,71.57
266430,2018-06-29 11:03:37.937500,-81.85,71.57
266431,2018-06-29 11:03:37.968750,-89.1,71.57
266432,2018-06-29 11:03:38.000000,-73.45,71.57
266433,2018-06-29 11:03:38.031250,-34.7,71.57
266434,2018-06-29 11:03:38.062500,9.92,71.57
266435,2018-06-29 11:03:38.093750,43.17,71.57
266436,2018-06-29 11:03:38.125000,59.49,71.57
266437,2018-06-29 11:03:38.156250,61.05,71.57
266438,2018-06-29 11:03:38.187500,53.13,71.57
266439,2018-06-29 11:03:38.218750,43.45,71.57
266440,2018-06-29 11:03:38.250000,38.11,71.57
266441,2018-06-29 11:03:38.281250,37.68,71.57
266442,2018-06-29 11:03:38.312500,39.17,71.57
266443,2018-06-29 11:03:38.343750,40.18,71.57
266444,2018-06-29 11:03:38.375000,39.82,71.57
266445,2018-06-29 11:03:38.406250,37.38,71.57
266446,2018-06-29 11:03:38.437500,31.48,71.57
266447,2018-06-29 11:03:38.468750,21.41,71.57
266448,2018-06-29 11:03:38.500000,9.19,71.57
266449,2018-06-29 11:03:38.531250,-1.29,71.52
266450,2018-06-29 11:03:38.562500,-9.18,71.52
266451,2018-06-29 11:03:38.593750,-18.06,71.52
266452,2018-06-29 11:03:38.625000,-30.24,71.52
266453,2018-06-29 11:03:38.656250,-42.53,71.52
266454,2018-06-29 11:03:38.687500,-50.85,71.52
266455,2018-06-29 11:03:38.718750,-56.23,71.52
266456,2018-06-29 11:03:38.750000,-63.33,71.52
266457,2018-06-29 11:03:38.781250,-75.66,71.52
266458,2018-06-29 11:03:38.812500,-90.48,71.52
266459,2018-06-29 11:03:38.843750,-95.06,71.52
266460,2018-06-29 11:03:38.875000,-75.39,71.52
266461,2018-06-29 11:03:38.906250,-33.66,71.52
266462,2018-06-29 11:03:38.937500,10.97,71.52
266463,2018-06-29 11:03:38.968750,42.07,71.52
266464,2018-06-29 11:03:39.000000,57.22,71.52
266465,2018-06-29 11:03:39.031250,60.28,71.52
266466,2018-06-29 11:03:39.062500,54.82,71.52
266467,2018-06-29 11:03:39.093750,46.35,71.52
266468,2018-06-29 11:03:39.125000,41.74,71.52
266469,2018-06-29 11:03:39.156250,43.3,71.52
266470,2018-06-29 11:03:39.187500,47.52,71.52
266471,2018-06-29 11:03:39.218750,50.36,71.52
266472,2018-06-29 11:03:39.250000,50.61,71.52
266473,2018-06-29 11:03:39.281250,48.01,71.52
266474,2018-06-29 11:03:39.312500,41.75,71.52
266475,2018-06-29 11:03:39.343750,31.69,71.52
266476,2018-06-29 11:03:39.375000,19.61,71.52
266477,2018-06-29 11:03:39.406250,8.05,71.52
266478,2018-06-29 11:03:39.437500,-1.71,71.52
266479,2018-06-29 11:03:39.468750,-10.47,71.52
266480,2018-06-29 11:03:39.500000,-20.02,71.52
266481,2018-06-29 11:03:39.531250,-31.17,71.43
266482,2018-06-29 11:03:39.562500,-42.71,71.43
266483,2018-06-29 11:03:39.593750,-52.57,71.43
266484,2018-06-29 11:03:39.625000,-60.22,71.43
266485,2018-06-29 11:03:39.656250,-67.99,71.43
266486,2018-06-29 11:03:39.687500,-79.42,71.43
266487,2018-06-29 11:03:39.718750,-92.82,71.43
266488,2018-06-29 11:03:39.750000,-95.88,71.43
266489,2018-06-29 11:03:39.781250,-74.79,71.43
266490,2018-06-29 11:03:39.812500,-31.83,71.43
266491,2018-06-29 11:03:39.843750,14.64,71.43
266492,2018-06-29 11:03:39.875000,48.15,71.43
266493,2018-06-29 11:03:39.906250,64.56,71.43
266494,2018-06-29 11:03:39.937500,67.79,71.43
266495,2018-06-29 11:03:39.968750,64.43,71.43
266496,2018-06-29 11:03:40.000000,61.2,71.43
266497,2018-06-29 11:03:40.031250,62.12,71.43
266498,2018-06-29 11:03:40.062500,67.36,71.43
266499,2018-06-29 11:03:40.093750,74.75,71.43
266500,2018-06-29 11:03:40.125000,82.03,71.43
266501,2018-06-29 11:03:40.156250,87.38,71.43
266502,2018-06-29 11:03:40.187500,89.57,71.43
266503,2018-06-29 11:03:40.218750,89.13,71.43
266504,2018-06-29 11:03:40.250000,88.32,71.43
266505,2018-06-29 11:03:40.281250,88.43,71.43
266506,2018-06-29 11:03:40.312500,89.06,71.43
266507,2018-06-29 11:03:40.343750,90.83,71.43
266508,2018-06-29 11:03:40.375000,95.17,71.43
266509,2018-06-29 11:03:40.406250,100.3,71.43
266510,2018-06-29 11:03:40.437500,101.71,71.43
266511,2018-06-29 11:03:40.468750,98.61,71.43
266512,2018-06-29 11:03:40.500000,95.44,71.43
266513,2018-06-29 11:03:40.531250,93.23,71.3
266514,2018-06-29 11:03:40.562500,82.1,71.3
266515,2018-06-29 11:03:40.593750,47.86,71.3
266516,2018-06-29 11:03:40.625000,-11.52,71.3
266517,2018-06-29 11:03:40.656250,-76.7,71.3
266518,2018-06-29 11:03:40.687500,-117.89,71.3
266519,2018-06-29 11:03:40.718750,-119.25,71.3
266520,2018-06-29 11:03:40.750000,-91.43,71.3
266521,2018-06-29 11:03:40.781250,-59.29,71.3
266522,2018-06-29 11:03:40.812500,-42.3,71.3
266523,2018-06-29 11:03:40.843750,-47.31,71.3
266524,2018-06-29 11:03:40.875000,-70.56,71.3
266525,2018-06-29 11:03:40.906250,-99.69,71.3
266526,2018-06-29 11:03:40.937500,-117.77,71.3
266527,2018-06-29 11:03:40.968750,-114.29,71.3
266528,2018-06-29 11:03:41.000000,-95.64,71.3
266529,2018-06-29 11:03:41.031250,-78.72,71.3
266530,2018-06-29 11:03:41.062500,-71.68,71.3
266531,2018-06-29 11:03:41.093750,-68.4,71.3
266532,2018-06-29 11:03:41.125000,-61.48,71.3
266533,2018-06-29 11:03:41.156250,-49.3,71.3
266534,2018-06-29 11:03:41.187500,-28.56,71.3
266535,2018-06-29 11:03:41.218750,5.33,71.3
266536,2018-06-29 11:03:41.250000,44.11,71.3
266537,2018-06-29 11:03:41.281250,64.85,71.3
266538,2018-06-29 11:03:41.312500,52.96,71.3
266539,2018-06-29 11:03:41.343750,23.5,71.3
266540,2018-06-29 11:03:41.375000,11.66,71.3
266541,2018-06-29 11:03:41.406250,33.73,71.3
266542,2018-06-29 11:03:41.437500,57.57,71.3
266543,2018-06-29 11:03:41.468750,32.9,71.3
266544,2018-06-29 11:03:41.500000,-36.96,71.3
266545,2018-06-29 11:03:41.531250,-85.15,71.15
266546,2018-06-29 11:03:41.562500,-65.62,71.15
266547,2018-06-29 11:03:41.593750,-6.55,71.15
266548,2018-06-29 11:03:41.625000,43.38,71.15
266549,2018-06-29 11:03:41.656250,71.97,71.15
266550,2018-06-29 11:03:41.687500,84.76,71.15
266551,2018-06-29 11:03:41.718750,78.91,71.15
266552,2018-06-29 11:03:41.750000,57.72,71.15
266553,2018-06-29 11:03:41.781250,36.15,71.15
266554,2018-06-29 11:03:41.812500,18.86,71.15
266555,2018-06-29 11:03:41.843750,-3.54,71.15
266556,2018-06-29 11:03:41.875000,-34.14,71.15
266557,2018-06-29 11:03:41.906250,-62.16,71.15
266558,2018-06-29 11:03:41.937500,-79.55,71.15
266559,2018-06-29 11:03:41.968750,-92.42,71.15
266560,2018-06-29 11:03:42.000000,-108.03,71.15
266561,2018-06-29 11:03:42.031250,-118.91,71.15
266562,2018-06-29 11:03:42.062500,-112.41,71.15
266563,2018-06-29 11:03:42.093750,-91.5,71.15
266564,2018-06-29 11:03:42.125000,-73.29,71.15
266565,2018-06-29 11:03:42.156250,-67.78,71.15
266566,2018-06-29 11:03:42.187500,-68.05,71.15
266567,2018-06-29 11:03:42.218750,-63.39,71.15
266568,2018-06-29 11:03:42.250000,-55.56,71.15
266569,2018-06-29 11:03:42.281250,-57.98,71.15
266570,2018-06-29 11:03:42.312500,-75.78,71.15
266571,2018-06-29 11:03:42.343750,-90.4,71.15
266572,2018-06-29 11:03:42.375000,-74.5,71.15
266573,2018-06-29 11:03:42.406250,-23.45,71.15
266574,2018-06-29 11:03:42.437500,36.98,71.15
266575,2018-06-29 11:03:42.468750,72.99,71.15
266576,2018-06-29 11:03:42.500000,68.5,71.15
266577,2018-06-29 11:03:42.531250,35.78,71.02
266578,2018-06-29 11:03:42.562500,3.92,71.02
266579,2018-06-29 11:03:42.593750,-8.04,71.02
266580,2018-06-29 11:03:42.625000,-3.14,71.02
266581,2018-06-29 11:03:42.656250,8.47,71.02
266582,2018-06-29 11:03:42.687500,23.3,71.02
266583,2018-06-29 11:03:42.718750,41.66,71.02
266584,2018-06-29 11:03:42.750000,60.69,71.02
266585,2018-06-29 11:03:42.781250,70.24,71.02
266586,2018-06-29 11:03:42.812500,56.08,71.02
266587,2018-06-29 11:03:42.843750,15.44,71.02
266588,2018-06-29 11:03:42.875000,-34.87,71.02
266589,2018-06-29 11:03:42.906250,-75.85,71.02
266590,2018-06-29 11:03:42.937500,-104.73,71.02
266591,2018-06-29 11:03:42.968750,-129.08,71.02
266592,2018-06-29 11:03:43.000000,-152.26,71.02
266593,2018-06-29 11:03:43.031250,-171.48,71.02
266594,2018-06-29 11:03:43.062500,-183.84,71.02
266595,2018-06-29 11:03:43.093750,-190.54,71.02
266596,2018-06-29 11:03:43.125000,-197.34,71.02
266597,2018-06-29 11:03:43.156250,-207.72,71.02
266598,2018-06-29 11:03:43.187500,-211.21,71.02
266599,2018-06-29 11:03:43.218750,-187.46,71.02
266600,2018-06-29 11:03:43.250000,-130.64,71.02
266601,2018-06-29 11:03:43.281250,-60.62,71.02
266602,2018-06-29 11:03:43.312500,-2.7,71.02
266603,2018-06-29 11:03:43.343750,33.78,71.02
266604,2018-06-29 11:03:43.375000,52.39,71.02
266605,2018-06-29 11:03:43.406250,58.25,71.02
266606,2018-06-29 11:03:43.437500,56.29,71.02
266607,2018-06-29 11:03:43.468750,52.61,71.02
266608,2018-06-29 11:03:43.500000,51.42,71.02
266609,2018-06-29 11:03:43.531250,53.18,70.88
266610,2018-06-29 11:03:43.562500,57.32,70.88
266611,2018-06-29 11:03:43.593750,62.82,70.88
266612,2018-06-29 11:03:43.625000,66.0,70.88
266613,2018-06-29 11:03:43.656250,62.8,70.88
266614,2018-06-29 11:03:43.687500,53.58,70.88
266615,2018-06-29 11:03:43.718750,41.93,70.88
266616,2018-06-29 11:03:43.750000,29.93,70.88
266617,2018-06-29 11:03:43.781250,17.87,70.88
266618,2018-06-29 11:03:43.812500,6.78,70.88
266619,2018-06-29 11:03:43.843750,-2.46,70.88
266620,2018-06-29 11:03:43.875000,-11.28,70.88
266621,2018-06-29 11:03:43.906250,-23.64,70.88
266622,2018-06-29 11:03:43.937500,-42.08,70.88
266623,2018-06-29 11:03:43.968750,-58.98,70.88
266624,2018-06-29 11:03:44.000000,-55.23,70.88
266625,2018-06-29 11:03:44.031250,-18.53,70.88
266626,2018-06-29 11:03:44.062500,38.6,70.88
266627,2018-06-29 11:03:44.093750,90.44,70.88
266628,2018-06-29 11:03:44.125000,123.07,70.88
266629,2018-06-29 11:03:44.156250,137.65,70.88
266630,2018-06-29 11:03:44.187500,138.05,70.88
266631,2018-06-29 11:03:44.218750,128.85,70.88
266632,2018-06-29 11:03:44.250000,118.48,70.88
266633,2018-06-29 11:03:44.281250,113.56,70.88
266634,2018-06-29 11:03:44.312500,113.23,70.88
266635,2018-06-29 11:03:44.343750,113.36,70.88
266636,2018-06-29 11:03:44.375000,111.39,70.88
266637,2018-06-29 11:03:44.406250,105.16,70.88
266638,2018-06-29 11:03:44.437500,92.68,70.88
266639,2018-06-29 11:03:44.468750,74.94,70.88
266640,2018-06-29 11:03:44.500000,55.23,70.88
266641,2018-06-29 11:03:44.531250,34.88,70.77
266642,2018-06-29 11:03:44.562500,12.97,70.77
266643,2018-06-29 11:03:44.593750,-9.75,70.77
266644,2018-06-29 11:03:44.625000,-30.1,70.77
266645,2018-06-29 11:03:44.656250,-46.42,70.77
266646,2018-06-29 11:03:44.687500,-61.82,70.77
266647,2018-06-29 11:03:44.718750,-82.16,70.77
266648,2018-06-29 11:03:44.750000,-106.35,70.77
266649,2018-06-29 11:03:44.781250,-117.47,70.77
266650,2018-06-29 11:03:44.812500,-94.61,70.77
266651,2018-06-29 11:03:44.843750,-38.72,70.77
266652,2018-06-29 11:03:44.875000,24.79,70.77
266653,2018-06-29 11:03:44.906250,72.68,70.77
266654,2018-06-29 11:03:44.937500,100.03,70.77
266655,2018-06-29 11:03:44.968750,111.05,70.77
266656,2018-06-29 11:03:45.000000,109.37,70.77
266657,2018-06-29 11:03:45.031250,100.3,70.77
266658,2018-06-29 11:03:45.062500,91.64,70.77
266659,2018-06-29 11:03:45.093750,88.03,70.77
266660,2018-06-29 11:03:45.125000,87.8,70.77
266661,2018-06-29 11:03:45.156250,87.26,70.77
266662,2018-06-29 11:03:45.187500,84.83,70.77
266663,2018-06-29 11:03:45.218750,79.61,70.77
266664,2018-06-29 11:03:45.250000,69.96,70.77
266665,2018-06-29 11:03:45.281250,55.55,70.77
266666,2018-06-29 11:03:45.312500,38.2,70.77
266667,2018-06-29 11:03:45.343750,20.62,70.77
266668,2018-06-29 11:03:45.375000,5.19,70.77
266669,2018-06-29 11:03:45.406250,-7.92,70.77
266670,2018-06-29 11:03:45.437500,-21.17,70.77
266671,2018-06-29 11:03:45.468750,-36.05,70.77
266672,2018-06-29 11:03:45.500000,-50.36,70.77
266673,2018-06-29 11:03:45.531250,-61.52,70.68
266674,2018-06-29 11:03:45.562500,-70.81,70.68
266675,2018-06-29 11:03:45.593750,-82.77,70.68
266676,2018-06-29 11:03:45.625000,-100.78,70.68
266677,2018-06-29 11:03:45.656250,-119.21,70.68
266678,2018-06-29 11:03:45.687500,-119.93,70.68
266679,2018-06-29 11:03:45.718750,-87.15,70.68
266680,2018-06-29 11:03:45.750000,-28.51,70.68
266681,2018-06-29 11:03:45.781250,29.66,70.68
266682,2018-06-29 11:03:45.812500,68.27,70.68
266683,2018-06-29 11:03:45.843750,86.45,70.68
266684,2018-06-29 11:03:45.875000,90.63,70.68
266685,2018-06-29 11:03:45.906250,86.56,70.68
266686,2018-06-29 11:03:45.937500,80.3,70.68
266687,2018-06-29 11:03:45.968750,76.7,70.68
266688,2018-06-29 11:03:46.000000,75.73,70.68
266689,2018-06-29 11:03:46.031250,75.05,70.68
266690,2018-06-29 11:03:46.062500,74.23,70.68
266691,2018-06-29 11:03:46.093750,73.8,70.68
266692,2018-06-29 11:03:46.125000,71.79,70.68
266693,2018-06-29 11:03:46.156250,64.79,70.68
266694,2018-06-29 11:03:46.187500,52.64,70.68
266695,2018-06-29 11:03:46.218750,39.87,70.68
266696,2018-06-29 11:03:46.250000,30.53,70.68
266697,2018-06-29 11:03:46.281250,23.28,70.68
266698,2018-06-29 11:03:46.312500,14.56,70.68
266699,2018-06-29 11:03:46.343750,4.54,70.68
266700,2018-06-29 11:03:46.375000,-3.88,70.68
266701,2018-06-29 11:03:46.406250,-10.8,70.68
266702,2018-06-29 11:03:46.437500,-19.78,70.68
266703,2018-06-29 11:03:46.468750,-32.28,70.68
266704,2018-06-29 11:03:46.500000,-45.47,70.68
266705,2018-06-29 11:03:46.531250,-55.97,70.6
266706,2018-06-29 11:03:46.562500,-64.38,70.6
266707,2018-06-29 11:03:46.593750,-75.33,70.6
266708,2018-06-29 11:03:46.625000,-92.26,70.6
266709,2018-06-29 11:03:46.656250,-109.25,70.6
266710,2018-06-29 11:03:46.687500,-110.35,70.6
266711,2018-06-29 11:03:46.718750,-83.96,70.6
266712,2018-06-29 11:03:46.750000,-37.76,70.6
266713,2018-06-29 11:03:46.781250,7.07,70.6
266714,2018-06-29 11:03:46.812500,35.66,70.6
266715,2018-06-29 11:03:46.843750,47.05,70.6
266716,2018-06-29 11:03:46.875000,46.3,70.6
266717,2018-06-29 11:03:46.906250,39.04,70.6
266718,2018-06-29 11:03:46.937500,32.23,70.6
266719,2018-06-29 11:03:46.968750,31.38,70.6
266720,2018-06-29 11:03:47.000000,35.8,70.6
266721,2018-06-29 11:03:47.031250,40.48,70.6
266722,2018-06-29 11:03:47.062500,42.44,70.6
266723,2018-06-29 11:03:47.093750,42.12,70.6
266724,2018-06-29 11:03:47.125000,39.94,70.6
266725,2018-06-29 11:03:47.156250,34.97,70.6
266726,2018-06-29 11:03:47.187500,27.24,70.6
266727,2018-06-29 11:03:47.218750,18.4,70.6
266728,2018-06-29 11:03:47.250000,9.42,70.6
266729,2018-06-29 11:03:47.281250,0.35,70.6
266730,2018-06-29 11:03:47.312500,-7.97,70.6
266731,2018-06-29 11:03:47.343750,-14.74,70.6
266732,2018-06-29 11:03:47.375000,-21.22,70.6
266733,2018-06-29 11:03:47.406250,-29.25,70.6
266734,2018-06-29 11:03:47.437500,-38.13,70.6
266735,2018-06-29 11:03:47.468750,-45.66,70.6
266736,2018-06-29 11:03:47.500000,-51.85,70.6
266737,2018-06-29 11:03:47.531250,-59.21,70.5
266738,2018-06-29 11:03:47.562500,-69.92,70.5
266739,2018-06-29 11:03:47.593750,-81.12,70.5
266740,2018-06-29 11:03:47.625000,-82.14,70.5
266741,2018-06-29 11:03:47.656250,-62.61,70.5
266742,2018-06-29 11:03:47.687500,-26.39,70.5
266743,2018-06-29 11:03:47.718750,10.23,70.5
266744,2018-06-29 11:03:47.750000,35.25,70.5
266745,2018-06-29 11:03:47.781250,48.08,70.5
266746,2018-06-29 11:03:47.812500,52.34,70.5
266747,2018-06-29 11:03:47.843750,51.06,70.5
266748,2018-06-29 11:03:47.875000,48.37,70.5
266749,2018-06-29 11:03:47.906250,48.46,70.5
266750,2018-06-29 11:03:47.937500,52.04,70.5
266751,2018-06-29 11:03:47.968750,57.0,70.5
266752,2018-06-29 11:03:48.000000,62.14,70.5
266753,2018-06-29 11:03:48.031250,67.88,70.5
266754,2018-06-29 11:03:48.062500,73.23,70.5
266755,2018-06-29 11:03:48.093750,76.01,70.5
266756,2018-06-29 11:03:48.125000,76.22,70.5
266757,2018-06-29 11:03:48.156250,75.45,70.5
266758,2018-06-29 11:03:48.187500,73.42,70.5
266759,2018-06-29 11:03:48.218750,68.06,70.5
266760,2018-06-29 11:03:48.250000,58.24,70.5
266761,2018-06-29 11:03:48.281250,43.57,70.5
266762,2018-06-29 11:03:48.312500,23.7,70.5
266763,2018-06-29 11:03:48.343750,0.01,70.5
266764,2018-06-29 11:03:48.375000,-24.4,70.5
266765,2018-06-29 11:03:48.406250,-47.17,70.5
266766,2018-06-29 11:03:48.437500,-65.85,70.5
266767,2018-06-29 11:03:48.468750,-76.64,70.5
266768,2018-06-29 11:03:48.500000,-79.02,70.5
266769,2018-06-29 11:03:48.531250,-77.84,70.38
266770,2018-06-29 11:03:48.562500,-73.37,70.38
266771,2018-06-29 11:03:48.593750,-54.45,70.38
266772,2018-06-29 11:03:48.625000,-11.73,70.38
266773,2018-06-29 11:03:48.656250,44.34,70.38
266774,2018-06-29 11:03:48.687500,84.5,70.38
266775,2018-06-29 11:03:48.718750,82.03,70.38
266776,2018-06-29 11:03:48.750000,37.02,70.38
266777,2018-06-29 11:03:48.781250,-19.35,70.38
266778,2018-06-29 11:03:48.812500,-50.0,70.38
266779,2018-06-29 11:03:48.843750,-43.51,70.38
266780,2018-06-29 11:03:48.875000,-17.4,70.38
266781,2018-06-29 11:03:48.906250,6.33,70.38
266782,2018-06-29 11:03:48.937500,19.52,70.38
266783,2018-06-29 11:03:48.968750,23.74,70.38
266784,2018-06-29 11:03:49.000000,21.3,70.38
266785,2018-06-29 11:03:49.031250,13.98,70.38
266786,2018-06-29 11:03:49.062500,2.85,70.38
266787,2018-06-29 11:03:49.093750,-14.62,70.38
266788,2018-06-29 11:03:49.125000,-41.66,70.38
266789,2018-06-29 11:03:49.156250,-74.78,70.38
266790,2018-06-29 11:03:49.187500,-104.28,70.38
266791,2018-06-29 11:03:49.218750,-122.13,70.38
266792,2018-06-29 11:03:49.250000,-125.61,70.38
266793,2018-06-29 11:03:49.281250,-117.25,70.38
266794,2018-06-29 11:03:49.312500,-105.35,70.38
266795,2018-06-29 11:03:49.343750,-98.76,70.38
266796,2018-06-29 11:03:49.375000,-99.66,70.38
266797,2018-06-29 11:03:49.406250,-106.5,70.38
266798,2018-06-29 11:03:49.437500,-117.08,70.38
266799,2018-06-29 11:03:49.468750,-120.14,70.38
266800,2018-06-29 11:03:49.500000,-100.34,70.38
266801,2018-06-29 11:03:49.531250,-60.96,70.2
266802,2018-06-29 11:03:49.562500,-24.64,70.2
266803,2018-06-29 11:03:49.593750,-6.14,70.2
266804,2018-06-29 11:03:49.625000,-0.73,70.2
266805,2018-06-29 11:03:49.656250,0.56,70.2
266806,2018-06-29 11:03:49.687500,1.72,70.2
266807,2018-06-29 11:03:49.718750,6.9,70.2
266808,2018-06-29 11:03:49.750000,19.0,70.2
266809,2018-06-29 11:03:49.781250,32.08,70.2
266810,2018-06-29 11:03:49.812500,36.22,70.2
266811,2018-06-29 11:03:49.843750,30.03,70.2
266812,2018-06-29 11:03:49.875000,20.74,70.2
266813,2018-06-29 11:03:49.906250,13.25,70.2
266814,2018-06-29 11:03:49.937500,6.78,70.2
266815,2018-06-29 11:03:49.968750,0.11,70.2
266816,2018-06-29 11:03:50.000000,-5.71,70.2
266817,2018-06-29 11:03:50.031250,-9.64,70.2
266818,2018-06-29 11:03:50.062500,-11.78,70.2
266819,2018-06-29 11:03:50.093750,-12.8,70.2
266820,2018-06-29 11:03:50.125000,-14.27,70.2
266821,2018-06-29 11:03:50.156250,-19.06,70.2
266822,2018-06-29 11:03:50.187500,-28.51,70.2
266823,2018-06-29 11:03:50.218750,-40.86,70.2
266824,2018-06-29 11:03:50.250000,-54.53,70.2
266825,2018-06-29 11:03:50.281250,-67.54,70.2
266826,2018-06-29 11:03:50.312500,-71.78,70.2
266827,2018-06-29 11:03:50.343750,-57.48,70.2
266828,2018-06-29 11:03:50.375000,-27.8,70.2
266829,2018-06-29 11:03:50.406250,1.56,70.2
266830,2018-06-29 11:03:50.437500,19.65,70.2
266831,2018-06-29 11:03:50.468750,27.26,70.2
266832,2018-06-29 11:03:50.500000,28.34,70.2
266833,2018-06-29 11:03:50.531250,25.36,70.05
266834,2018-06-29 11:03:50.562500,22.11,70.05
266835,2018-06-29 11:03:50.593750,22.32,70.05
266836,2018-06-29 11:03:50.625000,25.5,70.05
266837,2018-06-29 11:03:50.656250,28.39,70.05
266838,2018-06-29 11:03:50.687500,29.74,70.05
266839,2018-06-29 11:03:50.718750,30.4,70.05
266840,2018-06-29 11:03:50.750000,29.52,70.05
266841,2018-06-29 11:03:50.781250,24.03,70.05
266842,2018-06-29 11:03:50.812500,13.08,70.05
266843,2018-06-29 11:03:50.843750,0.38,70.05
266844,2018-06-29 11:03:50.875000,-10.24,70.05
266845,2018-06-29 11:03:50.906250,-19.75,70.05
266846,2018-06-29 11:03:50.937500,-31.78,70.05
266847,2018-06-29 11:03:50.968750,-46.99,70.05
266848,2018-06-29 11:03:51.000000,-61.84,70.05
266849,2018-06-29 11:03:51.031250,-72.78,70.05
266850,2018-06-29 11:03:51.062500,-81.0,70.05
266851,2018-06-29 11:03:51.093750,-92.0,70.05
266852,2018-06-29 11:03:51.125000,-108.36,70.05
266853,2018-06-29 11:03:51.156250,-121.24,70.05
266854,2018-06-29 11:03:51.187500,-114.05,70.05
266855,2018-06-29 11:03:51.218750,-80.07,70.05
266856,2018-06-29 11:03:51.250000,-32.29,70.05
266857,2018-06-29 11:03:51.281250,9.64,70.05
266858,2018-06-29 11:03:51.312500,36.75,70.05
266859,2018-06-29 11:03:51.343750,51.25,70.05
266860,2018-06-29 11:03:51.375000,57.36,70.05
266861,2018-06-29 11:03:51.406250,58.09,70.05
266862,2018-06-29 11:03:51.437500,57.28,70.05
266863,2018-06-29 11:03:51.468750,59.03,70.05
266864,2018-06-29 11:03:51.500000,63.86,70.05
266865,2018-06-29 11:03:51.531250,68.67,69.88
266866,2018-06-29 11:03:51.562500,71.14,69.88
266867,2018-06-29 11:03:51.593750,71.0,69.88
266868,2018-06-29 11:03:51.625000,67.51,69.88
266869,2018-06-29 11:03:51.656250,58.87,69.88
266870,2018-06-29 11:03:51.687500,45.07,69.88
266871,2018-06-29 11:03:51.718750,29.46,69.88
266872,2018-06-29 11:03:51.750000,16.38,69.88
266873,2018-06-29 11:03:51.781250,6.95,69.88
266874,2018-06-29 11:03:51.812500,-1.82,69.88
266875,2018-06-29 11:03:51.843750,-13.17,69.88
266876,2018-06-29 11:03:51.875000,-26.98,69.88
266877,2018-06-29 11:03:51.906250,-40.25,69.88
266878,2018-06-29 11:03:51.937500,-51.07,69.88
266879,2018-06-29 11:03:51.968750,-61.93,69.88
266880,2018-06-29 11:03:52.000000,-77.62,69.88
266881,2018-06-29 11:03:52.031250,-96.79,69.88
266882,2018-06-29 11:03:52.062500,-105.41,69.88
266883,2018-06-29 11:03:52.093750,-85.94,69.88
266884,2018-06-29 11:03:52.125000,-38.12,69.88
266885,2018-06-29 11:03:52.156250,17.05,69.88
266886,2018-06-29 11:03:52.187500,58.01,69.88
266887,2018-06-29 11:03:52.218750,79.2,69.88
266888,2018-06-29 11:03:52.250000,85.94,69.88
266889,2018-06-29 11:03:52.281250,84.19,69.88
266890,2018-06-29 11:03:52.312500,78.9,69.88
266891,2018-06-29 11:03:52.343750,74.87,69.88
266892,2018-06-29 11:03:52.375000,75.01,69.88
266893,2018-06-29 11:03:52.406250,78.56,69.88
266894,2018-06-29 11:03:52.437500,82.21,69.88
266895,2018-06-29 11:03:52.468750,83.06,69.88
266896,2018-06-29 11:03:52.500000,79.89,69.88
266897,2018-06-29 11:03:52.531250,72.53,69.72
266898,2018-06-29 11:03:52.562500,62.07,69.72
266899,2018-06-29 11:03:52.593750,50.68,69.72
266900,2018-06-29 11:03:52.625000,39.71,69.72
266901,2018-06-29 11:03:52.656250,29.02,69.72
266902,2018-06-29 11:03:52.687500,18.55,69.72
266903,2018-06-29 11:03:52.718750,8.18,69.72
266904,2018-06-29 11:03:52.750000,-3.62,69.72
266905,2018-06-29 11:03:52.781250,-17.64,69.72
266906,2018-06-29 11:03:52.812500,-31.54,69.72
266907,2018-06-29 11:03:52.843750,-42.75,69.72
266908,2018-06-29 11:03:52.875000,-52.23,69.72
266909,2018-06-29 11:03:52.906250,-63.82,69.72
266910,2018-06-29 11:03:52.937500,-81.02,69.72
266911,2018-06-29 11:03:52.968750,-99.83,69.72
266912,2018-06-29 11:03:53.000000,-103.31,69.72
266913,2018-06-29 11:03:53.031250,-75.61,69.72
266914,2018-06-29 11:03:53.062500,-24.0,69.72
266915,2018-06-29 11:03:53.093750,26.38,69.72
266916,2018-06-29 11:03:53.125000,58.71,69.72
266917,2018-06-29 11:03:53.156250,72.54,69.72
266918,2018-06-29 11:03:53.187500,72.52,69.72
266919,2018-06-29 11:03:53.218750,63.82,69.72
266920,2018-06-29 11:03:53.250000,54.52,69.72
266921,2018-06-29 11:03:53.281250,51.53,69.72
266922,2018-06-29 11:03:53.312500,54.54,69.72
266923,2018-06-29 11:03:53.343750,58.26,69.72
266924,2018-06-29 11:03:53.375000,59.06,69.72
266925,2018-06-29 11:03:53.406250,56.62,69.72
266926,2018-06-29 11:03:53.437500,50.65,69.72
266927,2018-06-29 11:03:53.468750,40.15,69.72
266928,2018-06-29 11:03:53.500000,25.2,69.72
266929,2018-06-29 11:03:53.531250,7.68,69.53
266930,2018-06-29 11:03:53.562500,-9.76,69.53
266931,2018-06-29 11:03:53.593750,-25.4,69.53
266932,2018-06-29 11:03:53.625000,-40.4,69.53
266933,2018-06-29 11:03:53.656250,-58.1,69.53
266934,2018-06-29 11:03:53.687500,-79.65,69.53
266935,2018-06-29 11:03:53.718750,-100.33,69.53
266936,2018-06-29 11:03:53.750000,-112.95,69.53
266937,2018-06-29 11:03:53.781250,-115.45,69.53
266938,2018-06-29 11:03:53.812500,-113.69,69.53
266939,2018-06-29 11:03:53.843750,-115.15,69.53
266940,2018-06-29 11:03:53.875000,-116.86,69.53
266941,2018-06-29 11:03:53.906250,-101.62,69.53
266942,2018-06-29 11:03:53.937500,-56.15,69.53
266943,2018-06-29 11:03:53.968750,8.42,69.53
266944,2018-06-29 11:03:54.000000,66.24,69.53
266945,2018-06-29 11:03:54.031250,103.25,69.53
266946,2018-06-29 11:03:54.062500,122.13,69.53
266947,2018-06-29 11:03:54.093750,128.23,69.53
266948,2018-06-29 11:03:54.125000,125.03,69.53
266949,2018-06-29 11:03:54.156250,118.6,69.53
266950,2018-06-29 11:03:54.187500,115.26,69.53
266951,2018-06-29 11:03:54.218750,116.36,69.53
266952,2018-06-29 11:03:54.250000,120.61,69.53
266953,2018-06-29 11:03:54.281250,127.93,69.53
266954,2018-06-29 11:03:54.312500,137.76,69.53
266955,2018-06-29 11:03:54.343750,146.39,69.53
266956,2018-06-29 11:03:54.375000,148.55,69.53
266957,2018-06-29 11:03:54.406250,141.48,69.53
266958,2018-06-29 11:03:54.437500,127.4,69.53
266959,2018-06-29 11:03:54.468750,111.46,69.53
266960,2018-06-29 11:03:54.500000,95.91,69.53
266961,2018-06-29 11:03:54.531250,77.9,69.35
266962,2018-06-29 11:03:54.562500,55.33,69.35
266963,2018-06-29 11:03:54.593750,32.01,69.35
266964,2018-06-29 11:03:54.625000,12.24,69.35
266965,2018-06-29 11:03:54.656250,-6.29,69.35
266966,2018-06-29 11:03:54.687500,-28.64,69.35
266967,2018-06-29 11:03:54.718750,-56.25,69.35
266968,2018-06-29 11:03:54.750000,-86.54,69.35
266969,2018-06-29 11:03:54.781250,-109.05,69.35
266970,2018-06-29 11:03:54.812500,-106.1,69.35
266971,2018-06-29 11:03:54.843750,-72.31,69.35
266972,2018-06-29 11:03:54.875000,-26.41,69.35
266973,2018-06-29 11:03:54.906250,9.97,69.35
266974,2018-06-29 11:03:54.937500,32.29,69.35
266975,2018-06-29 11:03:54.968750,43.5,69.35
266976,2018-06-29 11:03:55.000000,42.52,69.35
266977,2018-06-29 11:03:55.031250,31.01,69.35
266978,2018-06-29 11:03:55.062500,17.5,69.35
266979,2018-06-29 11:03:55.093750,8.76,69.35
266980,2018-06-29 11:03:55.125000,3.65,69.35
266981,2018-06-29 11:03:55.156250,-3.73,69.35
266982,2018-06-29 11:03:55.187500,-17.74,69.35
266983,2018-06-29 11:03:55.218750,-37.48,69.35
266984,2018-06-29 11:03:55.250000,-58.69,69.35
266985,2018-06-29 11:03:55.281250,-78.96,69.35
266986,2018-06-29 11:03:55.312500,-97.93,69.35
266987,2018-06-29 11:03:55.343750,-113.02,69.35
266988,2018-06-29 11:03:55.375000,-120.91,69.35
266989,2018-06-29 11:03:55.406250,-123.51,69.35
266990,2018-06-29 11:03:55.437500,-126.58,69.35
266991,2018-06-29 11:03:55.468750,-132.26,69.35
266992,2018-06-29 11:03:55.500000,-137.24,69.35
266993,2018-06-29 11:03:55.531250,-138.6,69.18
266994,2018-06-29 11:03:55.562500,-137.71,69.18
266995,2018-06-29 11:03:55.593750,-138.77,69.18
266996,2018-06-29 11:03:55.625000,-144.72,69.18
266997,2018-06-29 11:03:55.656250,-152.0,69.18
266998,2018-06-29 11:03:55.687500,-147.36,69.18
266999,2018-06-29 11:03:55.718750,-116.78,69.18
267000,2018-06-29 11:03:55.750000,-62.78,69.18
267001,2018-06-29 11:03:55.781250,-5.52,69.18
267002,2018-06-29 11:03:55.812500,36.33,69.18
267003,2018-06-29 11:03:55.843750,58.77,69.18
267004,2018-06-29 11:03:55.875000,66.74,69.18
267005,2018-06-29 11:03:55.906250,66.06,69.18
267006,2018-06-29 11:03:55.937500,62.38,69.18
267007,2018-06-29 11:03:55.968750,60.3,69.18
267008,2018-06-29 11:03:56.000000,61.24,69.18
267009,2018-06-29 11:03:56.031250,64.08,69.18
267010,2018-06-29 11:03:56.062500,67.72,69.18
267011,2018-06-29 11:03:56.093750,71.61,69.18
267012,2018-06-29 11:03:56.125000,74.0,69.18
267013,2018-06-29 11:03:56.156250,71.65,69.18
267014,2018-06-29 11:03:56.187500,62.76,69.18
267015,2018-06-29 11:03:56.218750,49.33,69.18
267016,2018-06-29 11:03:56.250000,35.52,69.18
267017,2018-06-29 11:03:56.281250,23.96,69.18
267018,2018-06-29 11:03:56.312500,14.27,69.18
267019,2018-06-29 11:03:56.343750,4.6,69.18
267020,2018-06-29 11:03:56.375000,-5.92,69.18
267021,2018-06-29 11:03:56.406250,-16.24,69.18
267022,2018-06-29 11:03:56.437500,-24.97,69.18
267023,2018-06-29 11:03:56.468750,-32.76,69.18
267024,2018-06-29 11:03:56.500000,-42.81,69.18
267025,2018-06-29 11:03:56.531250,-57.81,69.0
267026,2018-06-29 11:03:56.562500,-72.5,69.0
267027,2018-06-29 11:03:56.593750,-72.17,69.0
267028,2018-06-29 11:03:56.625000,-47.05,69.0
267029,2018-06-29 11:03:56.656250,-6.19,69.0
267030,2018-06-29 11:03:56.687500,31.71,69.0
267031,2018-06-29 11:03:56.718750,56.98,69.0
267032,2018-06-29 11:03:56.750000,70.61,69.0
267033,2018-06-29 11:03:56.781250,75.06,69.0
267034,2018-06-29 11:03:56.812500,72.46,69.0
267035,2018-06-29 11:03:56.843750,67.34,69.0
267036,2018-06-29 11:03:56.875000,63.79,69.0
267037,2018-06-29 11:03:56.906250,61.32,69.0
267038,2018-06-29 11:03:56.937500,57.11,69.0
267039,2018-06-29 11:03:56.968750,50.96,69.0
267040,2018-06-29 11:03:57.000000,43.71,69.0
267041,2018-06-29 11:03:57.031250,32.97,69.0
267042,2018-06-29 11:03:57.062500,16.72,69.0
267043,2018-06-29 11:03:57.093750,-1.19,69.0
267044,2018-06-29 11:03:57.125000,-15.24,69.0
267045,2018-06-29 11:03:57.156250,-25.74,69.0
267046,2018-06-29 11:03:57.187500,-36.98,69.0
267047,2018-06-29 11:03:57.218750,-50.3,69.0
267048,2018-06-29 11:03:57.250000,-62.63,69.0
267049,2018-06-29 11:03:57.281250,-71.2,69.0
267050,2018-06-29 11:03:57.312500,-77.68,69.0
267051,2018-06-29 11:03:57.343750,-87.36,69.0
267052,2018-06-29 11:03:57.375000,-101.75,69.0
267053,2018-06-29 11:03:57.406250,-110.72,69.0
267054,2018-06-29 11:03:57.437500,-97.52,69.0
267055,2018-06-29 11:03:57.468750,-57.4,69.0
267056,2018-06-29 11:03:57.500000,-5.92,69.0
267057,2018-06-29 11:03:57.531250,36.37,68.83
267058,2018-06-29 11:03:57.562500,61.46,68.83
267059,2018-06-29 11:03:57.593750,72.22,68.83
267060,2018-06-29 11:03:57.625000,72.58,68.83
267061,2018-06-29 11:03:57.656250,66.35,68.83
267062,2018-06-29 11:03:57.687500,59.74,68.83
267063,2018-06-29 11:03:57.718750,57.43,68.83
267064,2018-06-29 11:03:57.750000,58.12,68.83
267065,2018-06-29 11:03:57.781250,58.1,68.83
267066,2018-06-29 11:03:57.812500,56.58,68.83
267067,2018-06-29 11:03:57.843750,53.66,68.83
267068,2018-06-29 11:03:57.875000,46.83,68.83
267069,2018-06-29 11:03:57.906250,34.21,68.83
267070,2018-06-29 11:03:57.937500,18.95,68.83
267071,2018-06-29 11:03:57.968750,6.15,68.83
267072,2018-06-29 11:03:58.000000,-4.37,68.83
267073,2018-06-29 11:03:58.031250,-17.29,68.83
267074,2018-06-29 11:03:58.062500,-33.54,68.83
267075,2018-06-29 11:03:58.093750,-48.24,68.83
267076,2018-06-29 11:03:58.125000,-58.43,68.83
267077,2018-06-29 11:03:58.156250,-67.25,68.83
267078,2018-06-29 11:03:58.187500,-79.63,68.83
267079,2018-06-29 11:03:58.218750,-96.19,68.83
267080,2018-06-29 11:03:58.250000,-108.08,68.83
267081,2018-06-29 11:03:58.281250,-99.14,68.83
267082,2018-06-29 11:03:58.312500,-62.09,68.83
267083,2018-06-29 11:03:58.343750,-10.59,68.83
267084,2018-06-29 11:03:58.375000,33.38,68.83
267085,2018-06-29 11:03:58.406250,59.29,68.83
267086,2018-06-29 11:03:58.437500,69.27,68.83
267087,2018-06-29 11:03:58.468750,68.56,68.83
267088,2018-06-29 11:03:58.500000,62.6,68.83
267089,2018-06-29 11:03:58.531250,57.08,68.68
267090,2018-06-29 11:03:58.562500,55.17,68.68
267091,2018-06-29 11:03:58.593750,56.22,68.68
267092,2018-06-29 11:03:58.625000,58.14,68.68
267093,2018-06-29 11:03:58.656250,59.14,68.68
267094,2018-06-29 11:03:58.687500,57.52,68.68
267095,2018-06-29 11:03:58.718750,51.79,68.68
267096,2018-06-29 11:03:58.750000,42.07,68.68
267097,2018-06-29 11:03:58.781250,30.54,68.68
267098,2018-06-29 11:03:58.812500,19.04,68.68
267099,2018-06-29 11:03:58.843750,7.54,68.68
267100,2018-06-29 11:03:58.875000,-3.81,68.68
267101,2018-06-29 11:03:58.906250,-13.18,68.68
267102,2018-06-29 11:03:58.937500,-20.34,68.68
267103,2018-06-29 11:03:58.968750,-28.49,68.68
267104,2018-06-29 11:03:59.000000,-39.8,68.68
267105,2018-06-29 11:03:59.031250,-51.99,68.68
267106,2018-06-29 11:03:59.062500,-61.92,68.68
267107,2018-06-29 11:03:59.093750,-70.41,68.68
267108,2018-06-29 11:03:59.125000,-81.77,68.68
267109,2018-06-29 11:03:59.156250,-97.49,68.68
267110,2018-06-29 11:03:59.187500,-107.82,68.68
267111,2018-06-29 11:03:59.218750,-94.86,68.68
267112,2018-06-29 11:03:59.250000,-52.26,68.68
267113,2018-06-29 11:03:59.281250,3.32,68.68
267114,2018-06-29 11:03:59.312500,48.4,68.68
267115,2018-06-29 11:03:59.343750,73.37,68.68
267116,2018-06-29 11:03:59.375000,81.62,68.68
267117,2018-06-29 11:03:59.406250,78.71,68.68
267118,2018-06-29 11:03:59.437500,70.58,68.68
267119,2018-06-29 11:03:59.468750,64.52,68.68
267120,2018-06-29 11:03:59.500000,64.52,68.68
267121,2018-06-29 11:03:59.531250,68.06,68.53
267122,2018-06-29 11:03:59.562500,70.36,68.53
267123,2018-06-29 11:03:59.593750,69.61,68.53
267124,2018-06-29 11:03:59.625000,66.06,68.53
267125,2018-06-29 11:03:59.656250,59.22,68.53
267126,2018-06-29 11:03:59.687500,48.51,68.53
267127,2018-06-29 11:03:59.718750,35.7,68.53
267128,2018-06-29 11:03:59.750000,24.42,68.53
267129,2018-06-29 11:03:59.781250,16.52,68.53
267130,2018-06-29 11:03:59.812500,10.02,68.53
267131,2018-06-29 11:03:59.843750,3.01,68.53
267132,2018-06-29 11:03:59.875000,-2.08,68.53
267133,2018-06-29 11:03:59.906250,-1.97,68.53
267134,2018-06-29 11:03:59.937500,2.09,68.53
267135,2018-06-29 11:03:59.968750,7.06,68.53
267136,2018-06-29 11:04:00.000000,12.43,68.53
267137,2018-06-29 11:04:00.031250,17.93,68.53
267138,2018-06-29 11:04:00.062500,25.51,68.53
267139,2018-06-29 11:04:00.093750,46.75,68.53
267140,2018-06-29 11:04:00.125000,93.59,68.53
267141,2018-06-29 11:04:00.156250,159.24,68.53
267142,2018-06-29 11:04:00.187500,223.41,68.53
267143,2018-06-29 11:04:00.218750,271.95,68.53
267144,2018-06-29 11:04:00.250000,294.57,68.53
267145,2018-06-29 11:04:00.281250,277.56,68.53
267146,2018-06-29 11:04:00.312500,220.24,68.53
267147,2018-06-29 11:04:00.343750,143.22,68.53
267148,2018-06-29 11:04:00.375000,66.65,68.53
267149,2018-06-29 11:04:00.406250,0.23,68.53
267150,2018-06-29 11:04:00.437500,-43.31,68.53
267151,2018-06-29 11:04:00.468750,-53.25,68.53
267152,2018-06-29 11:04:00.500000,-40.22,68.53
267153,2018-06-29 11:04:00.531250,-27.43,68.4
267154,2018-06-29 11:04:00.562500,-27.1,68.4
267155,2018-06-29 11:04:00.593750,-39.7,68.4
267156,2018-06-29 11:04:00.625000,-63.37,68.4
267157,2018-06-29 11:04:00.656250,-92.12,68.4
267158,2018-06-29 11:04:00.687500,-116.07,68.4
267159,2018-06-29 11:04:00.718750,-129.95,68.4
267160,2018-06-29 11:04:00.750000,-135.89,68.4
267161,2018-06-29 11:04:00.781250,-139.29,68.4
267162,2018-06-29 11:04:00.812500,-145.59,68.4
267163,2018-06-29 11:04:00.843750,-157.54,68.4
267164,2018-06-29 11:04:00.875000,-173.03,68.4
267165,2018-06-29 11:04:00.906250,-184.46,68.4
267166,2018-06-29 11:04:00.937500,-183.52,68.4
267167,2018-06-29 11:04:00.968750,-171.57,68.4
267168,2018-06-29 11:04:01.000000,-162.93,68.4
267169,2018-06-29 11:04:01.031250,-170.73,68.4
267170,2018-06-29 11:04:01.062500,-190.8,68.4
267171,2018-06-29 11:04:01.093750,-205.2,68.4
267172,2018-06-29 11:04:01.125000,-199.59,68.4
267173,2018-06-29 11:04:01.156250,-175.23,68.4
267174,2018-06-29 11:04:01.187500,-145.42,68.4
267175,2018-06-29 11:04:01.218750,-120.25,68.4
267176,2018-06-29 11:04:01.250000,-97.37,68.4
267177,2018-06-29 11:04:01.281250,-69.73,68.4
267178,2018-06-29 11:04:01.312500,-38.42,68.4
267179,2018-06-29 11:04:01.343750,-14.06,68.4
267180,2018-06-29 11:04:01.375000,-5.44,68.4
267181,2018-06-29 11:04:01.406250,-9.79,68.4
267182,2018-06-29 11:04:01.437500,-18.13,68.4
267183,2018-06-29 11:04:01.468750,-26.02,68.4
267184,2018-06-29 11:04:01.500000,-33.29,68.4
267185,2018-06-29 11:04:01.531250,-38.67,68.27
267186,2018-06-29 11:04:01.562500,-42.22,68.27
267187,2018-06-29 11:04:01.593750,-47.73,68.27
267188,2018-06-29 11:04:01.625000,-57.04,68.27
267189,2018-06-29 11:04:01.656250,-66.75,68.27
267190,2018-06-29 11:04:01.687500,-74.12,68.27
267191,2018-06-29 11:04:01.718750,-82.25,68.27
267192,2018-06-29 11:04:01.750000,-96.12,68.27
267193,2018-06-29 11:04:01.781250,-116.64,68.27
267194,2018-06-29 11:04:01.812500,-138.83,68.27
267195,2018-06-29 11:04:01.843750,-149.43,68.27
267196,2018-06-29 11:04:01.875000,-129.98,68.27
267197,2018-06-29 11:04:01.906250,-73.61,68.27
267198,2018-06-29 11:04:01.937500,4.57,68.27
267199,2018-06-29 11:04:01.968750,81.57,68.27
267200,2018-06-29 11:04:02.000000,144.09,68.27
267201,2018-06-29 11:04:02.031250,189.36,68.27
267202,2018-06-29 11:04:02.062500,222.16,68.27
267203,2018-06-29 11:04:02.093750,257.27,68.27
267204,2018-06-29 11:04:02.125000,313.99,68.27
267205,2018-06-29 11:04:02.156250,397.26,68.27
267206,2018-06-29 11:04:02.187500,485.59,68.27
267207,2018-06-29 11:04:02.218750,544.53,68.27
267208,2018-06-29 11:04:02.250000,552.54,68.27
267209,2018-06-29 11:04:02.281250,508.07,68.27
267210,2018-06-29 11:04:02.312500,420.31,68.27
267211,2018-06-29 11:04:02.343750,308.95,68.27
267212,2018-06-29 11:04:02.375000,204.33,68.27
267213,2018-06-29 11:04:02.406250,131.11,68.27
267214,2018-06-29 11:04:02.437500,95.17,68.27
267215,2018-06-29 11:04:02.468750,89.32,68.27
267216,2018-06-29 11:04:02.500000,101.75,68.27
267217,2018-06-29 11:04:02.531250,117.72,68.1
267218,2018-06-29 11:04:02.562500,123.37,68.1
267219,2018-06-29 11:04:02.593750,111.65,68.1
267220,2018-06-29 11:04:02.625000,84.97,68.1
267221,2018-06-29 11:04:02.656250,52.46,68.1
267222,2018-06-29 11:04:02.687500,21.41,68.1
267223,2018-06-29 11:04:02.718750,-9.71,68.1
267224,2018-06-29 11:04:02.750000,-47.12,68.1
267225,2018-06-29 11:04:02.781250,-85.9,68.1
267226,2018-06-29 11:04:02.812500,-106.61,68.1
267227,2018-06-29 11:04:02.843750,-101.28,68.1
267228,2018-06-29 11:04:02.875000,-90.58,68.1
267229,2018-06-29 11:04:02.906250,-97.95,68.1
267230,2018-06-29 11:04:02.937500,-123.0,68.1
267231,2018-06-29 11:04:02.968750,-152.98,68.1
267232,2018-06-29 11:04:03.000000,-177.25,68.1
267233,2018-06-29 11:04:03.031250,-184.64,68.1
267234,2018-06-29 11:04:03.062500,-171.37,68.1
267235,2018-06-29 11:04:03.093750,-152.0,68.1
267236,2018-06-29 11:04:03.125000,-144.61,68.1
267237,2018-06-29 11:04:03.156250,-150.62,68.1
267238,2018-06-29 11:04:03.187500,-157.4,68.1
267239,2018-06-29 11:04:03.218750,-153.62,68.1
267240,2018-06-29 11:04:03.250000,-138.98,68.1
267241,2018-06-29 11:04:03.281250,-122.46,68.1
267242,2018-06-29 11:04:03.312500,-111.11,68.1
267243,2018-06-29 11:04:03.343750,-104.52,68.1
267244,2018-06-29 11:04:03.375000,-100.91,68.1
267245,2018-06-29 11:04:03.406250,-100.77,68.1
267246,2018-06-29 11:04:03.437500,-105.33,68.1
267247,2018-06-29 11:04:03.468750,-119.48,68.1
267248,2018-06-29 11:04:03.500000,-150.9,68.1
267249,2018-06-29 11:04:03.531250,-193.18,68.03
267250,2018-06-29 11:04:03.562500,-212.73,68.03
267251,2018-06-29 11:04:03.593750,-175.52,68.03
267252,2018-06-29 11:04:03.625000,-91.59,68.03
267253,2018-06-29 11:04:03.656250,-9.65,68.03
267254,2018-06-29 11:04:03.687500,36.11,68.03
267255,2018-06-29 11:04:03.718750,49.04,68.03
267256,2018-06-29 11:04:03.750000,43.52,68.03
267257,2018-06-29 11:04:03.781250,27.31,68.03
267258,2018-06-29 11:04:03.812500,10.47,68.03
267259,2018-06-29 11:04:03.843750,4.5,68.03
267260,2018-06-29 11:04:03.875000,9.56,68.03
267261,2018-06-29 11:04:03.906250,15.75,68.03
267262,2018-06-29 11:04:03.937500,16.53,68.03
267263,2018-06-29 11:04:03.968750,11.49,68.03
267264,2018-06-29 11:04:04.000000,-0.98,68.03
267265,2018-06-29 11:04:04.031250,-23.09,68.03
267266,2018-06-29 11:04:04.062500,-50.23,68.03
267267,2018-06-29 11:04:04.093750,-72.17,68.03
267268,2018-06-29 11:04:04.125000,-83.12,68.03
267269,2018-06-29 11:04:04.156250,-88.58,68.03
267270,2018-06-29 11:04:04.187500,-99.21,68.03
267271,2018-06-29 11:04:04.218750,-117.42,68.03
267272,2018-06-29 11:04:04.250000,-135.12,68.03
267273,2018-06-29 11:04:04.281250,-146.52,68.03
267274,2018-06-29 11:04:04.312500,-157.01,68.03
267275,2018-06-29 11:04:04.343750,-178.09,68.03
267276,2018-06-29 11:04:04.375000,-213.65,68.03
267277,2018-06-29 11:04:04.406250,-242.62,68.03
267278,2018-06-29 11:04:04.437500,-223.46,68.03
267279,2018-06-29 11:04:04.468750,-136.34,68.03
267280,2018-06-29 11:04:04.500000,-13.62,68.03
267281,2018-06-29 11:04:04.531250,90.04,67.98
267282,2018-06-29 11:04:04.562500,147.49,67.98
267283,2018-06-29 11:04:04.593750,166.27,67.98
267284,2018-06-29 11:04:04.625000,164.07,67.98
267285,2018-06-29 11:04:04.656250,154.36,67.98
267286,2018-06-29 11:04:04.687500,147.68,67.98
267287,2018-06-29 11:04:04.718750,151.62,67.98
267288,2018-06-29 11:04:04.750000,166.06,67.98
267289,2018-06-29 11:04:04.781250,184.49,67.98
267290,2018-06-29 11:04:04.812500,201.53,67.98
267291,2018-06-29 11:04:04.843750,214.08,67.98
267292,2018-06-29 11:04:04.875000,216.66,67.98
267293,2018-06-29 11:04:04.906250,203.05,67.98
267294,2018-06-29 11:04:04.937500,172.0,67.98
267295,2018-06-29 11:04:04.968750,127.91,67.98
267296,2018-06-29 11:04:05.000000,77.69,67.98
267297,2018-06-29 11:04:05.031250,27.93,67.98
267298,2018-06-29 11:04:05.062500,-18.96,67.98
267299,2018-06-29 11:04:05.093750,-65.06,67.98
267300,2018-06-29 11:04:05.125000,-108.76,67.98
267301,2018-06-29 11:04:05.156250,-141.07,67.98
267302,2018-06-29 11:04:05.187500,-157.44,67.98
267303,2018-06-29 11:04:05.218750,-167.83,67.98
267304,2018-06-29 11:04:05.250000,-188.62,67.98
267305,2018-06-29 11:04:05.281250,-225.48,67.98
267306,2018-06-29 11:04:05.312500,-258.11,67.98
267307,2018-06-29 11:04:05.343750,-244.01,67.98
267308,2018-06-29 11:04:05.375000,-160.66,67.98
267309,2018-06-29 11:04:05.406250,-43.92,67.98
267310,2018-06-29 11:04:05.437500,43.44,67.98
267311,2018-06-29 11:04:05.468750,75.04,67.98
267312,2018-06-29 11:04:05.500000,67.96,67.98
267313,2018-06-29 11:04:05.531250,45.4,67.93
267314,2018-06-29 11:04:05.562500,21.72,67.93
267315,2018-06-29 11:04:05.593750,9.5,67.93
267316,2018-06-29 11:04:05.625000,15.74,67.93
267317,2018-06-29 11:04:05.656250,34.71,67.93
267318,2018-06-29 11:04:05.687500,55.81,67.93
267319,2018-06-29 11:04:05.718750,74.86,67.93
267320,2018-06-29 11:04:05.750000,90.18,67.93
267321,2018-06-29 11:04:05.781250,93.59,67.93
267322,2018-06-29 11:04:05.812500,76.43,67.93
267323,2018-06-29 11:04:05.843750,42.61,67.93
267324,2018-06-29 11:04:05.875000,6.91,67.93
267325,2018-06-29 11:04:05.906250,-20.83,67.93
267326,2018-06-29 11:04:05.937500,-44.12,67.93
267327,2018-06-29 11:04:05.968750,-71.05,67.93
267328,2018-06-29 11:04:06.000000,-103.53,67.93
267329,2018-06-29 11:04:06.031250,-138.94,67.93
267330,2018-06-29 11:04:06.062500,-176.32,67.93
267331,2018-06-29 11:04:06.093750,-216.87,67.93
267332,2018-06-29 11:04:06.125000,-263.72,67.93
267333,2018-06-29 11:04:06.156250,-319.15,67.93
267334,2018-06-29 11:04:06.187500,-367.82,67.93
267335,2018-06-29 11:04:06.218750,-374.38,67.93
267336,2018-06-29 11:04:06.250000,-319.86,67.93
267337,2018-06-29 11:04:06.281250,-227.06,67.93
267338,2018-06-29 11:04:06.312500,-136.46,67.93
267339,2018-06-29 11:04:06.343750,-77.43,67.93
267340,2018-06-29 11:04:06.375000,-62.39,67.93
267341,2018-06-29 11:04:06.406250,-78.66,67.93
267342,2018-06-29 11:04:06.437500,-89.09,67.93
267343,2018-06-29 11:04:06.468750,-64.36,67.93
267344,2018-06-29 11:04:06.500000,-7.54,67.93
267345,2018-06-29 11:04:06.531250,63.2,67.88
267346,2018-06-29 11:04:06.562500,136.74,67.88
267347,2018-06-29 11:04:06.593750,200.7,67.88
267348,2018-06-29 11:04:06.625000,232.69,67.88
267349,2018-06-29 11:04:06.656250,221.64,67.88
267350,2018-06-29 11:04:06.687500,185.41,67.88
267351,2018-06-29 11:04:06.718750,148.1,67.88
267352,2018-06-29 11:04:06.750000,112.09,67.88
267353,2018-06-29 11:04:06.781250,67.86,67.88
267354,2018-06-29 11:04:06.812500,15.36,67.88
267355,2018-06-29 11:04:06.843750,-37.01,67.88
267356,2018-06-29 11:04:06.875000,-80.6,67.88
267357,2018-06-29 11:04:06.906250,-109.01,67.88
267358,2018-06-29 11:04:06.937500,-122.7,67.88
267359,2018-06-29 11:04:06.968750,-127.27,67.88
267360,2018-06-29 11:04:07.000000,-119.72,67.88
267361,2018-06-29 11:04:07.031250,-89.84,67.88
267362,2018-06-29 11:04:07.062500,-39.48,67.88
267363,2018-06-29 11:04:07.093750,16.57,67.88
267364,2018-06-29 11:04:07.125000,69.54,67.88
267365,2018-06-29 11:04:07.156250,121.99,67.88
267366,2018-06-29 11:04:07.187500,178.93,67.88
267367,2018-06-29 11:04:07.218750,240.7,67.88
267368,2018-06-29 11:04:07.250000,294.75,67.88
267369,2018-06-29 11:04:07.281250,321.12,67.88
267370,2018-06-29 11:04:07.312500,319.14,67.88
267371,2018-06-29 11:04:07.343750,310.93,67.88
267372,2018-06-29 11:04:07.375000,310.3,67.88
267373,2018-06-29 11:04:07.406250,311.17,67.88
267374,2018-06-29 11:04:07.437500,305.02,67.88
267375,2018-06-29 11:04:07.468750,286.46,67.88
267376,2018-06-29 11:04:07.500000,251.23,67.88
267377,2018-06-29 11:04:07.531250,202.96,67.83
267378,2018-06-29 11:04:07.562500,149.27,67.83
267379,2018-06-29 11:04:07.593750,91.8,67.83
267380,2018-06-29 11:04:07.625000,31.56,67.83
267381,2018-06-29 11:04:07.656250,-25.57,67.83
267382,2018-06-29 11:04:07.687500,-77.31,67.83
267383,2018-06-29 11:04:07.718750,-129.8,67.83
267384,2018-06-29 11:04:07.750000,-190.58,67.83
267385,2018-06-29 11:04:07.781250,-257.34,67.83
267386,2018-06-29 11:04:07.812500,-307.44,67.83
267387,2018-06-29 11:04:07.843750,-307.66,67.83
267388,2018-06-29 11:04:07.875000,-248.26,67.83
267389,2018-06-29 11:04:07.906250,-158.14,67.83
267390,2018-06-29 11:04:07.937500,-77.3,67.83
267391,2018-06-29 11:04:07.968750,-25.13,67.83
267392,2018-06-29 11:04:08.000000,0.86,67.83
267393,2018-06-29 11:04:08.031250,9.72,67.83
267394,2018-06-29 11:04:08.062500,9.95,67.83
267395,2018-06-29 11:04:08.093750,11.02,67.83
267396,2018-06-29 11:04:08.125000,20.93,67.83
267397,2018-06-29 11:04:08.156250,38.93,67.83
267398,2018-06-29 11:04:08.187500,56.78,67.83
267399,2018-06-29 11:04:08.218750,68.15,67.83
267400,2018-06-29 11:04:08.250000,71.95,67.83
267401,2018-06-29 11:04:08.281250,69.29,67.83
267402,2018-06-29 11:04:08.312500,62.87,67.83
267403,2018-06-29 11:04:08.343750,55.74,67.83
267404,2018-06-29 11:04:08.375000,48.15,67.83
267405,2018-06-29 11:04:08.406250,38.53,67.83
267406,2018-06-29 11:04:08.437500,27.3,67.83
267407,2018-06-29 11:04:08.468750,16.63,67.83
267408,2018-06-29 11:04:08.500000,6.16,67.83
267409,2018-06-29 11:04:08.531250,-9.01,67.8
267410,2018-06-29 11:04:08.562500,-32.95,67.8
267411,2018-06-29 11:04:08.593750,-56.03,67.8
267412,2018-06-29 11:04:08.625000,-52.98,67.8
267413,2018-06-29 11:04:08.656250,-8.02,67.8
267414,2018-06-29 11:04:08.687500,62.21,67.8
267415,2018-06-29 11:04:08.718750,124.81,67.8
267416,2018-06-29 11:04:08.750000,162.45,67.8
267417,2018-06-29 11:04:08.781250,177.2,67.8
267418,2018-06-29 11:04:08.812500,175.91,67.8
267419,2018-06-29 11:04:08.843750,165.86,67.8
267420,2018-06-29 11:04:08.875000,155.66,67.8
267421,2018-06-29 11:04:08.906250,150.1,67.8
267422,2018-06-29 11:04:08.937500,146.87,67.8
267423,2018-06-29 11:04:08.968750,141.73,67.8
267424,2018-06-29 11:04:09.000000,134.36,67.8
267425,2018-06-29 11:04:09.031250,125.61,67.8
267426,2018-06-29 11:04:09.062500,112.05,67.8
267427,2018-06-29 11:04:09.093750,88.98,67.8
267428,2018-06-29 11:04:09.125000,59.02,67.8
267429,2018-06-29 11:04:09.156250,31.79,67.8
267430,2018-06-29 11:04:09.187500,12.92,67.8
267431,2018-06-29 11:04:09.218750,-2.3,67.8
267432,2018-06-29 11:04:09.250000,-21.32,67.8
267433,2018-06-29 11:04:09.281250,-43.55,67.8
267434,2018-06-29 11:04:09.312500,-61.84,67.8
267435,2018-06-29 11:04:09.343750,-73.3,67.8
267436,2018-06-29 11:04:09.375000,-83.78,67.8
267437,2018-06-29 11:04:09.406250,-101.43,67.8
267438,2018-06-29 11:04:09.437500,-125.88,67.8
267439,2018-06-29 11:04:09.468750,-140.04,67.8
267440,2018-06-29 11:04:09.500000,-119.86,67.8
267441,2018-06-29 11:04:09.531250,-61.71,67.77
267442,2018-06-29 11:04:09.562500,8.8,67.77
267443,2018-06-29 11:04:09.593750,63.01,67.77
267444,2018-06-29 11:04:09.625000,92.22,67.77
267445,2018-06-29 11:04:09.656250,100.63,67.77
267446,2018-06-29 11:04:09.687500,93.71,67.77
267447,2018-06-29 11:04:09.718750,79.92,67.77
267448,2018-06-29 11:04:09.750000,70.14,67.77
267449,2018-06-29 11:04:09.781250,68.25,67.77
267450,2018-06-29 11:04:09.812500,69.63,67.77
267451,2018-06-29 11:04:09.843750,70.29,67.77
267452,2018-06-29 11:04:09.875000,70.46,67.77
267453,2018-06-29 11:04:09.906250,67.96,67.77
267454,2018-06-29 11:04:09.937500,57.42,67.77
267455,2018-06-29 11:04:09.968750,38.6,67.77
267456,2018-06-29 11:04:10.000000,18.51,67.77
267457,2018-06-29 11:04:10.031250,2.86,67.77
267458,2018-06-29 11:04:10.062500,-10.08,67.77
267459,2018-06-29 11:04:10.093750,-25.35,67.77
267460,2018-06-29 11:04:10.125000,-43.11,67.77
267461,2018-06-29 11:04:10.156250,-58.04,67.77
267462,2018-06-29 11:04:10.187500,-67.1,67.77
267463,2018-06-29 11:04:10.218750,-74.37,67.77
267464,2018-06-29 11:04:10.250000,-86.72,67.77
267465,2018-06-29 11:04:10.281250,-104.97,67.77
267466,2018-06-29 11:04:10.312500,-116.96,67.77
267467,2018-06-29 11:04:10.343750,-103.76,67.77
267468,2018-06-29 11:04:10.375000,-61.27,67.77
267469,2018-06-29 11:04:10.406250,-8.92,67.77
267470,2018-06-29 11:04:10.437500,31.06,67.77
267471,2018-06-29 11:04:10.468750,52.39,67.77
267472,2018-06-29 11:04:10.500000,58.22,67.77
267473,2018-06-29 11:04:10.531250,51.83,67.75
267474,2018-06-29 11:04:10.562500,39.64,67.75
267475,2018-06-29 11:04:10.593750,31.61,67.75
267476,2018-06-29 11:04:10.625000,32.53,67.75
267477,2018-06-29 11:04:10.656250,37.91,67.75
267478,2018-06-29 11:04:10.687500,41.32,67.75
267479,2018-06-29 11:04:10.718750,41.74,67.75
267480,2018-06-29 11:04:10.750000,40.12,67.75
267481,2018-06-29 11:04:10.781250,34.08,67.75
267482,2018-06-29 11:04:10.812500,21.91,67.75
267483,2018-06-29 11:04:10.843750,7.8,67.75
267484,2018-06-29 11:04:10.875000,-3.17,67.75
267485,2018-06-29 11:04:10.906250,-12.17,67.75
267486,2018-06-29 11:04:10.937500,-23.68,67.75
267487,2018-06-29 11:04:10.968750,-37.14,67.75
267488,2018-06-29 11:04:11.000000,-47.26,67.75
267489,2018-06-29 11:04:11.031250,-52.91,67.75
267490,2018-06-29 11:04:11.062500,-60.43,67.75
267491,2018-06-29 11:04:11.093750,-76.4,67.75
267492,2018-06-29 11:04:11.125000,-97.9,67.75
267493,2018-06-29 11:04:11.156250,-109.62,67.75
267494,2018-06-29 11:04:11.187500,-95.01,67.75
267495,2018-06-29 11:04:11.218750,-54.24,67.75
267496,2018-06-29 11:04:11.250000,-6.25,67.75
267497,2018-06-29 11:04:11.281250,29.69,67.75
267498,2018-06-29 11:04:11.312500,48.2,67.75
267499,2018-06-29 11:04:11.343750,53.39,67.75
267500,2018-06-29 11:04:11.375000,50.04,67.75
267501,2018-06-29 11:04:11.406250,42.72,67.75
267502,2018-06-29 11:04:11.437500,36.99,67.75
267503,2018-06-29 11:04:11.468750,36.17,67.75
267504,2018-06-29 11:04:11.500000,38.35,67.75
267505,2018-06-29 11:04:11.531250,39.89,67.73
267506,2018-06-29 11:04:11.562500,39.78,67.73
267507,2018-06-29 11:04:11.593750,37.98,67.73
267508,2018-06-29 11:04:11.625000,32.39,67.73
267509,2018-06-29 11:04:11.656250,22.12,67.73
267510,2018-06-29 11:04:11.687500,11.06,67.73
267511,2018-06-29 11:04:11.718750,4.39,67.73
267512,2018-06-29 11:04:11.750000,2.49,67.73
267513,2018-06-29 11:04:11.781250,1.18,67.73
267514,2018-06-29 11:04:11.812500,-3.51,67.73
267515,2018-06-29 11:04:11.843750,-12.45,67.73
267516,2018-06-29 11:04:11.875000,-23.82,67.73
267517,2018-06-29 11:04:11.906250,-35.71,67.73
267518,2018-06-29 11:04:11.937500,-48.24,67.73
267519,2018-06-29 11:04:11.968750,-63.66,67.73
267520,2018-06-29 11:04:12.000000,-84.15,67.73
267521,2018-06-29 11:04:12.031250,-105.54,67.73
267522,2018-06-29 11:04:12.062500,-113.27,67.73
267523,2018-06-29 11:04:12.093750,-94.08,67.73
267524,2018-06-29 11:04:12.125000,-53.19,67.73
267525,2018-06-29 11:04:12.156250,-9.87,67.73
267526,2018-06-29 11:04:12.187500,21.56,67.73
267527,2018-06-29 11:04:12.218750,36.82,67.73
267528,2018-06-29 11:04:12.250000,36.07,67.73
267529,2018-06-29 11:04:12.281250,24.74,67.73
267530,2018-06-29 11:04:12.312500,12.96,67.73
267531,2018-06-29 11:04:12.343750,7.11,67.73
267532,2018-06-29 11:04:12.375000,6.25,67.73
267533,2018-06-29 11:04:12.406250,7.63,67.73
267534,2018-06-29 11:04:12.437500,10.14,67.73
267535,2018-06-29 11:04:12.468750,12.72,67.73
267536,2018-06-29 11:04:12.500000,13.73,67.73
267537,2018-06-29 11:04:12.531250,12.63,67.73
267538,2018-06-29 11:04:12.562500,10.54,67.73
267539,2018-06-29 11:04:12.593750,8.28,67.73
267540,2018-06-29 11:04:12.625000,5.18,67.73
267541,2018-06-29 11:04:12.656250,0.37,67.73
267542,2018-06-29 11:04:12.687500,-5.14,67.73
267543,2018-06-29 11:04:12.718750,-10.16,67.73
267544,2018-06-29 11:04:12.750000,-16.21,67.73
267545,2018-06-29 11:04:12.781250,-26.14,67.73
267546,2018-06-29 11:04:12.812500,-41.32,67.73
267547,2018-06-29 11:04:12.843750,-62.38,67.73
267548,2018-06-29 11:04:12.875000,-86.38,67.73
267549,2018-06-29 11:04:12.906250,-102.1,67.73
267550,2018-06-29 11:04:12.937500,-99.5,67.73
267551,2018-06-29 11:04:12.968750,-82.83,67.73
267552,2018-06-29 11:04:13.000000,-61.46,67.73
267553,2018-06-29 11:04:13.031250,-34.95,67.73
267554,2018-06-29 11:04:13.062500,-0.66,67.73
267555,2018-06-29 11:04:13.093750,32.24,67.73
267556,2018-06-29 11:04:13.125000,48.77,67.73
267557,2018-06-29 11:04:13.156250,46.23,67.73
267558,2018-06-29 11:04:13.187500,37.74,67.73
267559,2018-06-29 11:04:13.218750,36.35,67.73
267560,2018-06-29 11:04:13.250000,43.5,67.73
267561,2018-06-29 11:04:13.281250,54.12,67.73
267562,2018-06-29 11:04:13.312500,64.21,67.73
267563,2018-06-29 11:04:13.343750,72.58,67.73
267564,2018-06-29 11:04:13.375000,81.4,67.73
267565,2018-06-29 11:04:13.406250,91.51,67.73
267566,2018-06-29 11:04:13.437500,97.26,67.73
267567,2018-06-29 11:04:13.468750,92.76,67.73
267568,2018-06-29 11:04:13.500000,78.94,67.73
267569,2018-06-29 11:04:13.531250,63.51,67.73
267570,2018-06-29 11:04:13.562500,51.05,67.73
267571,2018-06-29 11:04:13.593750,30.02,67.73
267572,2018-06-29 11:04:13.625000,-12.81,67.73
267573,2018-06-29 11:04:13.656250,-59.58,67.73
267574,2018-06-29 11:04:13.687500,-73.35,67.73
267575,2018-06-29 11:04:13.718750,-48.12,67.73
267576,2018-06-29 11:04:13.750000,-14.18,67.73
267577,2018-06-29 11:04:13.781250,2.39,67.73
267578,2018-06-29 11:04:13.812500,-3.48,67.73
267579,2018-06-29 11:04:13.843750,-26.01,67.73
267580,2018-06-29 11:04:13.875000,-50.29,67.73
267581,2018-06-29 11:04:13.906250,-57.15,67.73
267582,2018-06-29 11:04:13.937500,-42.67,67.73
267583,2018-06-29 11:04:13.968750,-22.75,67.73
267584,2018-06-29 11:04:14.000000,-12.73,67.73
267585,2018-06-29 11:04:14.031250,-13.4,67.73
267586,2018-06-29 11:04:14.062500,-18.69,67.73
267587,2018-06-29 11:04:14.093750,-25.57,67.73
267588,2018-06-29 11:04:14.125000,-33.29,67.73
267589,2018-06-29 11:04:14.156250,-40.44,67.73
267590,2018-06-29 11:04:14.187500,-45.52,67.73
267591,2018-06-29 11:04:14.218750,-47.33,67.73
267592,2018-06-29 11:04:14.250000,-44.88,67.73
267593,2018-06-29 11:04:14.281250,-39.19,67.73
267594,2018-06-29 11:04:14.312500,-34.49,67.73
267595,2018-06-29 11:04:14.343750,-36.23,67.73
267596,2018-06-29 11:04:14.375000,-47.57,67.73
267597,2018-06-29 11:04:14.406250,-64.26,67.73
267598,2018-06-29 11:04:14.437500,-72.4,67.73
267599,2018-06-29 11:04:14.468750,-59.49,67.73
267600,2018-06-29 11:04:14.500000,-29.49,67.73
267601,2018-06-29 11:04:14.531250,1.02,67.75
267602,2018-06-29 11:04:14.562500,21.34,67.75
267603,2018-06-29 11:04:14.593750,33.79,67.75
267604,2018-06-29 11:04:14.625000,44.89,67.75
267605,2018-06-29 11:04:14.656250,56.9,67.75
267606,2018-06-29 11:04:14.687500,67.22,67.75
267607,2018-06-29 11:04:14.718750,72.06,67.75
267608,2018-06-29 11:04:14.750000,70.34,67.75
267609,2018-06-29 11:04:14.781250,64.61,67.75
267610,2018-06-29 11:04:14.812500,60.14,67.75
267611,2018-06-29 11:04:14.843750,62.54,67.75
267612,2018-06-29 11:04:14.875000,73.06,67.75
267613,2018-06-29 11:04:14.906250,87.16,67.75
267614,2018-06-29 11:04:14.937500,101.36,67.75
267615,2018-06-29 11:04:14.968750,117.29,67.75
267616,2018-06-29 11:04:15.000000,129.47,67.75
267617,2018-06-29 11:04:15.031250,117.36,67.75
267618,2018-06-29 11:04:15.062500,68.11,67.75
267619,2018-06-29 11:04:15.093750,2.34,67.75
267620,2018-06-29 11:04:15.125000,-39.84,67.75
267621,2018-06-29 11:04:15.156250,-38.81,67.75
267622,2018-06-29 11:04:15.187500,-15.5,67.75
267623,2018-06-29 11:04:15.218750,-12.49,67.75
267624,2018-06-29 11:04:15.250000,-52.88,67.75
267625,2018-06-29 11:04:15.281250,-116.24,67.75
267626,2018-06-29 11:04:15.312500,-159.29,67.75
267627,2018-06-29 11:04:15.343750,-157.5,67.75
267628,2018-06-29 11:04:15.375000,-122.43,67.75
267629,2018-06-29 11:04:15.406250,-84.5,67.75
267630,2018-06-29 11:04:15.437500,-64.42,67.75
267631,2018-06-29 11:04:15.468750,-60.5,67.75
267632,2018-06-29 11:04:15.500000,-61.37,67.75
267633,2018-06-29 11:04:15.531250,-64.12,67.77
267634,2018-06-29 11:04:15.562500,-74.18,67.77
267635,2018-06-29 11:04:15.593750,-92.08,67.77
267636,2018-06-29 11:04:15.625000,-109.1,67.77
267637,2018-06-29 11:04:15.656250,-115.0,67.77
267638,2018-06-29 11:04:15.687500,-106.99,67.77
267639,2018-06-29 11:04:15.718750,-93.37,67.77
267640,2018-06-29 11:04:15.750000,-87.11,67.77
267641,2018-06-29 11:04:15.781250,-92.44,67.77
267642,2018-06-29 11:04:15.812500,-102.61,67.77
267643,2018-06-29 11:04:15.843750,-113.94,67.77
267644,2018-06-29 11:04:15.875000,-132.12,67.77
267645,2018-06-29 11:04:15.906250,-160.59,67.77
267646,2018-06-29 11:04:15.937500,-190.66,67.77
267647,2018-06-29 11:04:15.968750,-205.35,67.77
267648,2018-06-29 11:04:16.000000,-192.36,67.77
267649,2018-06-29 11:04:16.031250,-154.01,67.77
267650,2018-06-29 11:04:16.062500,-103.68,67.77
267651,2018-06-29 11:04:16.093750,-54.43,67.77
267652,2018-06-29 11:04:16.125000,-14.45,67.77
267653,2018-06-29 11:04:16.156250,11.56,67.77
267654,2018-06-29 11:04:16.187500,24.2,67.77
267655,2018-06-29 11:04:16.218750,30.25,67.77
267656,2018-06-29 11:04:16.250000,37.07,67.77
267657,2018-06-29 11:04:16.281250,46.95,67.77
267658,2018-06-29 11:04:16.312500,57.07,67.77
267659,2018-06-29 11:04:16.343750,63.47,67.77
267660,2018-06-29 11:04:16.375000,64.77,67.77
267661,2018-06-29 11:04:16.406250,62.42,67.77
267662,2018-06-29 11:04:16.437500,57.68,67.77
267663,2018-06-29 11:04:16.468750,49.2,67.77
267664,2018-06-29 11:04:16.500000,35.75,67.77
267665,2018-06-29 11:04:16.531250,19.34,67.83
267666,2018-06-29 11:04:16.562500,2.79,67.83
267667,2018-06-29 11:04:16.593750,-12.77,67.83
267668,2018-06-29 11:04:16.625000,-26.79,67.83
267669,2018-06-29 11:04:16.656250,-40.76,67.83
267670,2018-06-29 11:04:16.687500,-57.43,67.83
267671,2018-06-29 11:04:16.718750,-69.67,67.83
267672,2018-06-29 11:04:16.750000,-57.45,67.83
267673,2018-06-29 11:04:16.781250,-9.76,67.83
267674,2018-06-29 11:04:16.812500,57.46,67.83
267675,2018-06-29 11:04:16.843750,117.07,67.83
267676,2018-06-29 11:04:16.875000,156.39,67.83
267677,2018-06-29 11:04:16.906250,178.92,67.83
267678,2018-06-29 11:04:16.937500,190.6,67.83
267679,2018-06-29 11:04:16.968750,194.4,67.83
267680,2018-06-29 11:04:17.000000,193.18,67.83
267681,2018-06-29 11:04:17.031250,189.64,67.83
267682,2018-06-29 11:04:17.062500,185.04,67.83
267683,2018-06-29 11:04:17.093750,183.53,67.83
267684,2018-06-29 11:04:17.125000,190.19,67.83
267685,2018-06-29 11:04:17.156250,198.18,67.83
267686,2018-06-29 11:04:17.187500,189.9,67.83
267687,2018-06-29 11:04:17.218750,158.41,67.83
267688,2018-06-29 11:04:17.250000,114.55,67.83
267689,2018-06-29 11:04:17.281250,68.79,67.83
267690,2018-06-29 11:04:17.312500,21.77,67.83
267691,2018-06-29 11:04:17.343750,-25.72,67.83
267692,2018-06-29 11:04:17.375000,-68.11,67.83
267693,2018-06-29 11:04:17.406250,-102.21,67.83
267694,2018-06-29 11:04:17.437500,-130.23,67.83
267695,2018-06-29 11:04:17.468750,-155.95,67.83
267696,2018-06-29 11:04:17.500000,-180.14,67.83
267697,2018-06-29 11:04:17.531250,-193.83,67.92
267698,2018-06-29 11:04:17.562500,-179.73,67.92
267699,2018-06-29 11:04:17.593750,-131.25,67.92
267700,2018-06-29 11:04:17.625000,-65.77,67.92
267701,2018-06-29 11:04:17.656250,-8.17,67.92
267702,2018-06-29 11:04:17.687500,31.57,67.92
267703,2018-06-29 11:04:17.718750,56.77,67.92
267704,2018-06-29 11:04:17.750000,71.33,67.92
267705,2018-06-29 11:04:17.781250,77.62,67.92
267706,2018-06-29 11:04:17.812500,80.44,67.92
267707,2018-06-29 11:04:17.843750,84.84,67.92
267708,2018-06-29 11:04:17.875000,91.16,67.92
267709,2018-06-29 11:04:17.906250,95.98,67.92
267710,2018-06-29 11:04:17.937500,97.2,67.92
267711,2018-06-29 11:04:17.968750,95.13,67.92
267712,2018-06-29 11:04:18.000000,89.45,67.92
267713,2018-06-29 11:04:18.031250,78.85,67.92
267714,2018-06-29 11:04:18.062500,63.69,67.92
267715,2018-06-29 11:04:18.093750,47.35,67.92
267716,2018-06-29 11:04:18.125000,33.58,67.92
267717,2018-06-29 11:04:18.156250,22.38,67.92
267718,2018-06-29 11:04:18.187500,9.86,67.92
267719,2018-06-29 11:04:18.218750,-7.05,67.92
267720,2018-06-29 11:04:18.250000,-26.53,67.92
267721,2018-06-29 11:04:18.281250,-43.87,67.92
267722,2018-06-29 11:04:18.312500,-57.1,67.92
267723,2018-06-29 11:04:18.343750,-68.61,67.92
267724,2018-06-29 11:04:18.375000,-82.34,67.92
267725,2018-06-29 11:04:18.406250,-98.52,67.92
267726,2018-06-29 11:04:18.437500,-107.31,67.92
267727,2018-06-29 11:04:18.468750,-92.14,67.92
267728,2018-06-29 11:04:18.500000,-48.35,67.92
267729,2018-06-29 11:04:18.531250,6.99,68.03
267730,2018-06-29 11:04:18.562500,52.02,68.03
267731,2018-06-29 11:04:18.593750,78.91,68.03
267732,2018-06-29 11:04:18.625000,91.23,68.03
267733,2018-06-29 11:04:18.656250,93.74,68.03
267734,2018-06-29 11:04:18.687500,91.37,68.03
267735,2018-06-29 11:04:18.718750,90.49,68.03
267736,2018-06-29 11:04:18.750000,94.36,68.03
267737,2018-06-29 11:04:18.781250,99.83,68.03
267738,2018-06-29 11:04:18.812500,102.41,68.03
267739,2018-06-29 11:04:18.843750,101.43,68.03
267740,2018-06-29 11:04:18.875000,96.61,68.03
267741,2018-06-29 11:04:18.906250,84.69,68.03
267742,2018-06-29 11:04:18.937500,65.95,68.03
267743,2018-06-29 11:04:18.968750,50.1,68.03
267744,2018-06-29 11:04:19.000000,47.31,68.03
267745,2018-06-29 11:04:19.031250,55.41,68.03
267746,2018-06-29 11:04:19.062500,63.86,68.03
267747,2018-06-29 11:04:19.093750,68.58,68.03
267748,2018-06-29 11:04:19.125000,73.23,68.03
267749,2018-06-29 11:04:19.156250,77.3,68.03
267750,2018-06-29 11:04:19.187500,74.36,68.03
267751,2018-06-29 11:04:19.218750,63.55,68.03
267752,2018-06-29 11:04:19.250000,52.9,68.03
267753,2018-06-29 11:04:19.281250,48.57,68.03
267754,2018-06-29 11:04:19.312500,49.67,68.03
267755,2018-06-29 11:04:19.343750,51.91,68.03
267756,2018-06-29 11:04:19.375000,47.05,68.03
267757,2018-06-29 11:04:19.406250,23.26,68.03
267758,2018-06-29 11:04:19.437500,-24.56,68.03
267759,2018-06-29 11:04:19.468750,-91.97,68.03
267760,2018-06-29 11:04:19.500000,-174.62,68.03
267761,2018-06-29 11:04:19.531250,-257.37,68.18
267762,2018-06-29 11:04:19.562500,-293.53,68.18
267763,2018-06-29 11:04:19.593750,-239.94,68.18
267764,2018-06-29 11:04:19.625000,-119.96,68.18
267765,2018-06-29 11:04:19.656250,-6.05,68.18
267766,2018-06-29 11:04:19.687500,60.83,68.18
267767,2018-06-29 11:04:19.718750,91.0,68.18
267768,2018-06-29 11:04:19.750000,100.19,68.18
267769,2018-06-29 11:04:19.781250,90.04,68.18
267770,2018-06-29 11:04:19.812500,62.66,68.18
267771,2018-06-29 11:04:19.843750,28.31,68.18
267772,2018-06-29 11:04:19.875000,4.96,68.18
267773,2018-06-29 11:04:19.906250,6.43,68.18
267774,2018-06-29 11:04:19.937500,23.52,68.18
267775,2018-06-29 11:04:19.968750,32.01,68.18
267776,2018-06-29 11:04:20.000000,19.4,68.18
267777,2018-06-29 11:04:20.031250,-12.19,68.18
267778,2018-06-29 11:04:20.062500,-58.38,68.18
267779,2018-06-29 11:04:20.093750,-112.53,68.18
267780,2018-06-29 11:04:20.125000,-164.06,68.18
267781,2018-06-29 11:04:20.156250,-201.52,68.18
267782,2018-06-29 11:04:20.187500,-207.0,68.18
267783,2018-06-29 11:04:20.218750,-158.01,68.18
267784,2018-06-29 11:04:20.250000,-59.07,68.18
267785,2018-06-29 11:04:20.281250,40.88,68.18
267786,2018-06-29 11:04:20.312500,92.73,68.18
267787,2018-06-29 11:04:20.343750,98.92,68.18
267788,2018-06-29 11:04:20.375000,95.67,68.18
267789,2018-06-29 11:04:20.406250,102.57,68.18
267790,2018-06-29 11:04:20.437500,113.78,68.18
267791,2018-06-29 11:04:20.468750,110.12,68.18
267792,2018-06-29 11:04:20.500000,71.07,68.18
267793,2018-06-29 11:04:20.531250,9.14,68.33
267794,2018-06-29 11:04:20.562500,-30.15,68.33
267795,2018-06-29 11:04:20.593750,-33.53,68.33
267796,2018-06-29 11:04:20.625000,-36.73,68.33
267797,2018-06-29 11:04:20.656250,-54.84,68.33
267798,2018-06-29 11:04:20.687500,-61.27,68.33
267799,2018-06-29 11:04:20.718750,-41.27,68.33
267800,2018-06-29 11:04:20.750000,-7.1,68.33
267801,2018-06-29 11:04:20.781250,25.09,68.33
267802,2018-06-29 11:04:20.812500,40.34,68.33
267803,2018-06-29 11:04:20.843750,34.91,68.33
267804,2018-06-29 11:04:20.875000,25.89,68.33
267805,2018-06-29 11:04:20.906250,25.61,68.33
267806,2018-06-29 11:04:20.937500,22.73,68.33
267807,2018-06-29 11:04:20.968750,5.88,68.33
267808,2018-06-29 11:04:21.000000,-17.16,68.33
267809,2018-06-29 11:04:21.031250,-32.15,68.33
267810,2018-06-29 11:04:21.062500,-36.68,68.33
267811,2018-06-29 11:04:21.093750,-45.55,68.33
267812,2018-06-29 11:04:21.125000,-77.9,68.33
267813,2018-06-29 11:04:21.156250,-137.14,68.33
267814,2018-06-29 11:04:21.187500,-210.55,68.33
267815,2018-06-29 11:04:21.218750,-280.87,68.33
267816,2018-06-29 11:04:21.250000,-326.15,68.33
267817,2018-06-29 11:04:21.281250,-323.48,68.33
267818,2018-06-29 11:04:21.312500,-270.08,68.33
267819,2018-06-29 11:04:21.343750,-190.87,68.33
267820,2018-06-29 11:04:21.375000,-116.97,68.33
267821,2018-06-29 11:04:21.406250,-66.58,68.33
267822,2018-06-29 11:04:21.437500,-45.21,68.33
267823,2018-06-29 11:04:21.468750,-49.3,68.33
267824,2018-06-29 11:04:21.500000,-66.42,68.33
267825,2018-06-29 11:04:21.531250,-82.32,68.57
267826,2018-06-29 11:04:21.562500,-92.69,68.57
267827,2018-06-29 11:04:21.593750,-102.95,68.57
267828,2018-06-29 11:04:21.625000,-114.51,68.57
267829,2018-06-29 11:04:21.656250,-118.7,68.57
267830,2018-06-29 11:04:21.687500,-109.03,68.57
267831,2018-06-29 11:04:21.718750,-90.89,68.57
267832,2018-06-29 11:04:21.750000,-70.45,68.57
267833,2018-06-29 11:04:21.781250,-42.77,68.57
267834,2018-06-29 11:04:21.812500,-2.32,68.57
267835,2018-06-29 11:04:21.843750,42.73,68.57
267836,2018-06-29 11:04:21.875000,76.55,68.57
267837,2018-06-29 11:04:21.906250,86.8,68.57
267838,2018-06-29 11:04:21.937500,66.82,68.57
267839,2018-06-29 11:04:21.968750,20.21,68.57
267840,2018-06-29 11:04:22.000000,-35.54,68.57
267841,2018-06-29 11:04:22.031250,-80.66,68.57
267842,2018-06-29 11:04:22.062500,-107.62,68.57
267843,2018-06-29 11:04:22.093750,-120.52,68.57
267844,2018-06-29 11:04:22.125000,-124.38,68.57
267845,2018-06-29 11:04:22.156250,-119.83,68.57
267846,2018-06-29 11:04:22.187500,-107.1,68.57
267847,2018-06-29 11:04:22.218750,-91.41,68.57
267848,2018-06-29 11:04:22.250000,-80.1,68.57
267849,2018-06-29 11:04:22.281250,-74.96,68.57
267850,2018-06-29 11:04:22.312500,-72.51,68.57
267851,2018-06-29 11:04:22.343750,-71.16,68.57
267852,2018-06-29 11:04:22.375000,-73.12,68.57
267853,2018-06-29 11:04:22.406250,-79.9,68.57
267854,2018-06-29 11:04:22.437500,-90.11,68.57
267855,2018-06-29 11:04:22.468750,-97.73,68.57
267856,2018-06-29 11:04:22.500000,-89.88,68.57
267857,2018-06-29 11:04:22.531250,-55.66,68.77
267858,2018-06-29 11:04:22.562500,0.24,68.77
267859,2018-06-29 11:04:22.593750,63.26,68.77
267860,2018-06-29 11:04:22.625000,123.84,68.77
267861,2018-06-29 11:04:22.656250,174.29,68.77
267862,2018-06-29 11:04:22.687500,203.06,68.77
267863,2018-06-29 11:04:22.718750,207.41,68.77
267864,2018-06-29 11:04:22.750000,199.67,68.77
267865,2018-06-29 11:04:22.781250,192.33,68.77
267866,2018-06-29 11:04:22.812500,187.57,68.77
267867,2018-06-29 11:04:22.843750,183.01,68.77
267868,2018-06-29 11:04:22.875000,177.11,68.77
267869,2018-06-29 11:04:22.906250,168.41,68.77
267870,2018-06-29 11:04:22.937500,154.93,68.77
267871,2018-06-29 11:04:22.968750,134.69,68.77
267872,2018-06-29 11:04:23.000000,108.08,68.77
267873,2018-06-29 11:04:23.031250,79.99,68.77
267874,2018-06-29 11:04:23.062500,55.96,68.77
267875,2018-06-29 11:04:23.093750,36.14,68.77
267876,2018-06-29 11:04:23.125000,16.13,68.77
267877,2018-06-29 11:04:23.156250,-8.17,68.77
267878,2018-06-29 11:04:23.187500,-34.67,68.77
267879,2018-06-29 11:04:23.218750,-47.91,68.77
267880,2018-06-29 11:04:23.250000,-27.44,68.77
267881,2018-06-29 11:04:23.281250,26.63,68.77
267882,2018-06-29 11:04:23.312500,88.37,68.77
267883,2018-06-29 11:04:23.343750,133.12,68.77
267884,2018-06-29 11:04:23.375000,156.15,68.77
267885,2018-06-29 11:04:23.406250,163.03,68.77
267886,2018-06-29 11:04:23.437500,158.88,68.77
267887,2018-06-29 11:04:23.468750,149.78,68.77
267888,2018-06-29 11:04:23.500000,142.85,68.77
267889,2018-06-29 11:04:23.531250,141.4,68.95
267890,2018-06-29 11:04:23.562500,142.81,68.95
267891,2018-06-29 11:04:23.593750,142.52,68.95
267892,2018-06-29 11:04:23.625000,138.84,68.95
267893,2018-06-29 11:04:23.656250,132.02,68.95
267894,2018-06-29 11:04:23.687500,120.55,68.95
267895,2018-06-29 11:04:23.718750,102.42,68.95
267896,2018-06-29 11:04:23.750000,79.93,68.95
267897,2018-06-29 11:04:23.781250,58.57,68.95
267898,2018-06-29 11:04:23.812500,39.6,68.95
267899,2018-06-29 11:04:23.843750,19.63,68.95
267900,2018-06-29 11:04:23.875000,-0.51,68.95
267901,2018-06-29 11:04:23.906250,-14.75,68.95
267902,2018-06-29 11:04:23.937500,-21.94,68.95
267903,2018-06-29 11:04:23.968750,-24.5,68.95
267904,2018-06-29 11:04:24.000000,-17.31,68.95
267905,2018-06-29 11:04:24.031250,2.83,68.95
267906,2018-06-29 11:04:24.062500,24.88,68.95
267907,2018-06-29 11:04:24.093750,43.62,68.95
267908,2018-06-29 11:04:24.125000,74.82,68.95
267909,2018-06-29 11:04:24.156250,127.34,68.95
267910,2018-06-29 11:04:24.187500,181.74,68.95
267911,2018-06-29 11:04:24.218750,214.59,68.95
267912,2018-06-29 11:04:24.250000,222.94,68.95
267913,2018-06-29 11:04:24.281250,214.71,68.95
267914,2018-06-29 11:04:24.312500,194.76,68.95
267915,2018-06-29 11:04:24.343750,167.27,68.95
267916,2018-06-29 11:04:24.375000,136.21,68.95
267917,2018-06-29 11:04:24.406250,96.6,68.95
267918,2018-06-29 11:04:24.437500,39.04,68.95
267919,2018-06-29 11:04:24.468750,-28.92,68.95
267920,2018-06-29 11:04:24.500000,-82.69,68.95
267921,2018-06-29 11:04:24.531250,-108.8,69.1
267922,2018-06-29 11:04:24.562500,-113.04,69.1
267923,2018-06-29 11:04:24.593750,-102.04,69.1
267924,2018-06-29 11:04:24.625000,-84.82,69.1
267925,2018-06-29 11:04:24.656250,-82.39,69.1
267926,2018-06-29 11:04:24.687500,-100.73,69.1
267927,2018-06-29 11:04:24.718750,-109.83,69.1
267928,2018-06-29 11:04:24.750000,-88.16,69.1
267929,2018-06-29 11:04:24.781250,-63.26,69.1
267930,2018-06-29 11:04:24.812500,-75.7,69.1
267931,2018-06-29 11:04:24.843750,-129.25,69.1
267932,2018-06-29 11:04:24.875000,-195.4,69.1
267933,2018-06-29 11:04:24.906250,-239.2,69.1
267934,2018-06-29 11:04:24.937500,-236.27,69.1
267935,2018-06-29 11:04:24.968750,-189.9,69.1
267936,2018-06-29 11:04:25.000000,-130.53,69.1
267937,2018-06-29 11:04:25.031250,-87.28,69.1
267938,2018-06-29 11:04:25.062500,-65.83,69.1
267939,2018-06-29 11:04:25.093750,-53.23,69.1
267940,2018-06-29 11:04:25.125000,-36.57,69.1
267941,2018-06-29 11:04:25.156250,-16.09,69.1
267942,2018-06-29 11:04:25.187500,-3.52,69.1
267943,2018-06-29 11:04:25.218750,-7.49,69.1
267944,2018-06-29 11:04:25.250000,-22.77,69.1
267945,2018-06-29 11:04:25.281250,-36.17,69.1
267946,2018-06-29 11:04:25.312500,-40.41,69.1
267947,2018-06-29 11:04:25.343750,-39.02,69.1
267948,2018-06-29 11:04:25.375000,-39.23,69.1
267949,2018-06-29 11:04:25.406250,-44.55,69.1
267950,2018-06-29 11:04:25.437500,-54.84,69.1
267951,2018-06-29 11:04:25.468750,-71.33,69.1
267952,2018-06-29 11:04:25.500000,-98.67,69.1
267953,2018-06-29 11:04:25.531250,-135.7,69.23
267954,2018-06-29 11:04:25.562500,-165.28,69.23
267955,2018-06-29 11:04:25.593750,-166.9,69.23
267956,2018-06-29 11:04:25.625000,-142.41,69.23
267957,2018-06-29 11:04:25.656250,-114.54,69.23
267958,2018-06-29 11:04:25.687500,-98.7,69.23
267959,2018-06-29 11:04:25.718750,-91.94,69.23
267960,2018-06-29 11:04:25.750000,-88.17,69.23
267961,2018-06-29 11:04:25.781250,-86.07,69.23
267962,2018-06-29 11:04:25.812500,-81.61,69.23
267963,2018-06-29 11:04:25.843750,-66.34,69.23
267964,2018-06-29 11:04:25.875000,-36.72,69.23
267965,2018-06-29 11:04:25.906250,0.7,69.23
267966,2018-06-29 11:04:25.937500,35.45,69.23
267967,2018-06-29 11:04:25.968750,60.63,69.23
267968,2018-06-29 11:04:26.000000,73.24,69.23
267969,2018-06-29 11:04:26.031250,72.57,69.23
267970,2018-06-29 11:04:26.062500,61.98,69.23
267971,2018-06-29 11:04:26.093750,48.33,69.23
267972,2018-06-29 11:04:26.125000,36.47,69.23
267973,2018-06-29 11:04:26.156250,25.65,69.23
267974,2018-06-29 11:04:26.187500,13.46,69.23
267975,2018-06-29 11:04:26.218750,1.09,69.23
267976,2018-06-29 11:04:26.250000,-8.23,69.23
267977,2018-06-29 11:04:26.281250,-15.35,69.23
267978,2018-06-29 11:04:26.312500,-24.74,69.23
267979,2018-06-29 11:04:26.343750,-35.67,69.23
267980,2018-06-29 11:04:26.375000,-37.18,69.23
267981,2018-06-29 11:04:26.406250,-18.99,69.23
267982,2018-06-29 11:04:26.437500,14.58,69.23
267983,2018-06-29 11:04:26.468750,48.05,69.23
267984,2018-06-29 11:04:26.500000,70.62,69.23
267985,2018-06-29 11:04:26.531250,81.49,69.38
267986,2018-06-29 11:04:26.562500,83.2,69.38
267987,2018-06-29 11:04:26.593750,78.4,69.38
267988,2018-06-29 11:04:26.625000,71.54,69.38
267989,2018-06-29 11:04:26.656250,67.33,69.38
267990,2018-06-29 11:04:26.687500,67.28,69.38
267991,2018-06-29 11:04:26.718750,69.39,69.38
267992,2018-06-29 11:04:26.750000,70.34,69.38
267993,2018-06-29 11:04:26.781250,67.63,69.38
267994,2018-06-29 11:04:26.812500,60.49,69.38
267995,2018-06-29 11:04:26.843750,49.8,69.38
267996,2018-06-29 11:04:26.875000,37.02,69.38
267997,2018-06-29 11:04:26.906250,23.45,69.38
267998,2018-06-29 11:04:26.937500,10.35,69.38
267999,2018-06-29 11:04:26.968750,-1.39,69.38
268000,2018-06-29 11:04:27.000000,-11.66,69.38
268001,2018-06-29 11:04:27.031250,-20.98,69.38
268002,2018-06-29 11:04:27.062500,-31.18,69.38
268003,2018-06-29 11:04:27.093750,-44.16,69.38
268004,2018-06-29 11:04:27.125000,-55.24,69.38
268005,2018-06-29 11:04:27.156250,-52.07,69.38
268006,2018-06-29 11:04:27.187500,-28.37,69.38
268007,2018-06-29 11:04:27.218750,5.99,69.38
268008,2018-06-29 11:04:27.250000,35.43,69.38
268009,2018-06-29 11:04:27.281250,53.1,69.38
268010,2018-06-29 11:04:27.312500,59.93,69.38
268011,2018-06-29 11:04:27.343750,57.81,69.38
268012,2018-06-29 11:04:27.375000,50.03,69.38
268013,2018-06-29 11:04:27.406250,42.42,69.38
268014,2018-06-29 11:04:27.437500,39.22,69.38
268015,2018-06-29 11:04:27.468750,39.56,69.38
268016,2018-06-29 11:04:27.500000,39.76,69.38
268017,2018-06-29 11:04:27.531250,37.76,69.45
268018,2018-06-29 11:04:27.562500,33.37,69.45
268019,2018-06-29 11:04:27.593750,26.42,69.45
268020,2018-06-29 11:04:27.625000,16.58,69.45
268021,2018-06-29 11:04:27.656250,4.15,69.45
268022,2018-06-29 11:04:27.687500,-9.4,69.45
268023,2018-06-29 11:04:27.718750,-21.97,69.45
268024,2018-06-29 11:04:27.750000,-32.54,69.45
268025,2018-06-29 11:04:27.781250,-42.42,69.45
268026,2018-06-29 11:04:27.812500,-54.34,69.45
268027,2018-06-29 11:04:27.843750,-69.19,69.45
268028,2018-06-29 11:04:27.875000,-80.72,69.45
268029,2018-06-29 11:04:27.906250,-76.15,69.45
268030,2018-06-29 11:04:27.937500,-49.32,69.45
268031,2018-06-29 11:04:27.968750,-10.19,69.45
268032,2018-06-29 11:04:28.000000,25.2,69.45
268033,2018-06-29 11:04:28.031250,48.59,69.45
268034,2018-06-29 11:04:28.062500,59.11,69.45
268035,2018-06-29 11:04:28.093750,58.62,69.45
268036,2018-06-29 11:04:28.125000,51.83,69.45
268037,2018-06-29 11:04:28.156250,44.91,69.45
268038,2018-06-29 11:04:28.187500,41.8,69.45
268039,2018-06-29 11:04:28.218750,42.75,69.45
268040,2018-06-29 11:04:28.250000,44.74,69.45
268041,2018-06-29 11:04:28.281250,43.99,69.45
268042,2018-06-29 11:04:28.312500,39.23,69.45
268043,2018-06-29 11:04:28.343750,31.7,69.45
268044,2018-06-29 11:04:28.375000,22.07,69.45
268045,2018-06-29 11:04:28.406250,9.6,69.45
268046,2018-06-29 11:04:28.437500,-5.43,69.45
268047,2018-06-29 11:04:28.468750,-20.33,69.45
268048,2018-06-29 11:04:28.500000,-32.68,69.45
268049,2018-06-29 11:04:28.531250,-42.99,69.58
268050,2018-06-29 11:04:28.562500,-54.08,69.58
268051,2018-06-29 11:04:28.593750,-68.21,69.58
268052,2018-06-29 11:04:28.625000,-82.39,69.58
268053,2018-06-29 11:04:28.656250,-85.17,69.58
268054,2018-06-29 11:04:28.687500,-65.44,69.58
268055,2018-06-29 11:04:28.718750,-26.99,69.58
268056,2018-06-29 11:04:28.750000,12.71,69.58
268057,2018-06-29 11:04:28.781250,39.71,69.58
268058,2018-06-29 11:04:28.812500,52.26,69.58
268059,2018-06-29 11:04:28.843750,54.05,69.58
268060,2018-06-29 11:04:28.875000,48.99,69.58
268061,2018-06-29 11:04:28.906250,42.46,69.58
268062,2018-06-29 11:04:28.937500,39.53,69.58
268063,2018-06-29 11:04:28.968750,40.59,69.58
268064,2018-06-29 11:04:29.000000,42.6,69.58
268065,2018-06-29 11:04:29.031250,43.43,69.58
268066,2018-06-29 11:04:29.062500,42.12,69.58
268067,2018-06-29 11:04:29.093750,37.6,69.58
268068,2018-06-29 11:04:29.125000,29.63,69.58
268069,2018-06-29 11:04:29.156250,19.36,69.58
268070,2018-06-29 11:04:29.187500,7.85,69.58
268071,2018-06-29 11:04:29.218750,-4.67,69.58
268072,2018-06-29 11:04:29.250000,-17.76,69.58
268073,2018-06-29 11:04:29.281250,-30.1,69.58
268074,2018-06-29 11:04:29.312500,-40.49,69.58
268075,2018-06-29 11:04:29.343750,-49.71,69.58
268076,2018-06-29 11:04:29.375000,-60.96,69.58
268077,2018-06-29 11:04:29.406250,-75.34,69.58
268078,2018-06-29 11:04:29.437500,-83.95,69.58
268079,2018-06-29 11:04:29.468750,-71.47,69.58
268080,2018-06-29 11:04:29.500000,-34.95,69.58
268081,2018-06-29 11:04:29.531250,8.48,69.67
268082,2018-06-29 11:04:29.562500,39.61,69.67
268083,2018-06-29 11:04:29.593750,54.1,69.67
268084,2018-06-29 11:04:29.625000,56.91,69.67
268085,2018-06-29 11:04:29.656250,52.33,69.67
268086,2018-06-29 11:04:29.687500,44.71,69.67
268087,2018-06-29 11:04:29.718750,39.77,69.67
268088,2018-06-29 11:04:29.750000,39.77,69.67
268089,2018-06-29 11:04:29.781250,41.79,69.67
268090,2018-06-29 11:04:29.812500,42.09,69.67
268091,2018-06-29 11:04:29.843750,39.6,69.67
268092,2018-06-29 11:04:29.875000,34.57,69.67
268093,2018-06-29 11:04:29.906250,27.05,69.67
268094,2018-06-29 11:04:29.937500,17.06,69.67
268095,2018-06-29 11:04:29.968750,4.92,69.67
268096,2018-06-29 11:04:30.000000,-8.6,69.67
268097,2018-06-29 11:04:30.031250,-21.67,69.67
268098,2018-06-29 11:04:30.062500,-32.23,69.67
268099,2018-06-29 11:04:30.093750,-40.3,69.67
268100,2018-06-29 11:04:30.125000,-48.62,69.67
268101,2018-06-29 11:04:30.156250,-60.12,69.67
268102,2018-06-29 11:04:30.187500,-71.86,69.67
268103,2018-06-29 11:04:30.218750,-72.02,69.67
268104,2018-06-29 11:04:30.250000,-50.21,69.67
268105,2018-06-29 11:04:30.281250,-11.96,69.67
268106,2018-06-29 11:04:30.312500,25.33,69.67
268107,2018-06-29 11:04:30.343750,49.57,69.67
268108,2018-06-29 11:04:30.375000,59.06,69.67
268109,2018-06-29 11:04:30.406250,55.94,69.67
268110,2018-06-29 11:04:30.437500,44.89,69.67
268111,2018-06-29 11:04:30.468750,34.19,69.67
268112,2018-06-29 11:04:30.500000,29.82,69.67
268113,2018-06-29 11:04:30.531250,30.27,69.78
268114,2018-06-29 11:04:30.562500,30.04,69.78
268115,2018-06-29 11:04:30.593750,26.93,69.78
268116,2018-06-29 11:04:30.625000,22.77,69.78
268117,2018-06-29 11:04:30.656250,17.78,69.78
268118,2018-06-29 11:04:30.687500,8.68,69.78
268119,2018-06-29 11:04:30.718750,-5.46,69.78
268120,2018-06-29 11:04:30.750000,-19.92,69.78
268121,2018-06-29 11:04:30.781250,-30.05,69.78
268122,2018-06-29 11:04:30.812500,-37.15,69.78
268123,2018-06-29 11:04:30.843750,-45.77,69.78
268124,2018-06-29 11:04:30.875000,-57.7,69.78
268125,2018-06-29 11:04:30.906250,-67.95,69.78
268126,2018-06-29 11:04:30.937500,-65.48,69.78
268127,2018-06-29 11:04:30.968750,-42.68,69.78
268128,2018-06-29 11:04:31.000000,-6.2,69.78
268129,2018-06-29 11:04:31.031250,27.53,69.78
268130,2018-06-29 11:04:31.062500,47.62,69.78
268131,2018-06-29 11:04:31.093750,53.21,69.78
268132,2018-06-29 11:04:31.125000,47.45,69.78
268133,2018-06-29 11:04:31.156250,35.74,69.78
268134,2018-06-29 11:04:31.187500,26.09,69.78
268135,2018-06-29 11:04:31.218750,23.23,69.78
268136,2018-06-29 11:04:31.250000,24.33,69.78
268137,2018-06-29 11:04:31.281250,24.26,69.78
268138,2018-06-29 11:04:31.312500,21.98,69.78
268139,2018-06-29 11:04:31.343750,18.78,69.78
268140,2018-06-29 11:04:31.375000,13.38,69.78
268141,2018-06-29 11:04:31.406250,3.3,69.78
268142,2018-06-29 11:04:31.437500,-10.3,69.78
268143,2018-06-29 11:04:31.468750,-22.85,69.78
268144,2018-06-29 11:04:31.500000,-31.77,69.78
268145,2018-06-29 11:04:31.531250,-39.36,69.92
268146,2018-06-29 11:04:31.562500,-49.32,69.92
268147,2018-06-29 11:04:31.593750,-61.15,69.92
268148,2018-06-29 11:04:31.625000,-67.04,69.92
268149,2018-06-29 11:04:31.656250,-56.54,69.92
268150,2018-06-29 11:04:31.687500,-28.25,69.92
268151,2018-06-29 11:04:31.718750,5.8,69.92
268152,2018-06-29 11:04:31.750000,31.05,69.92
268153,2018-06-29 11:04:31.781250,42.26,69.92
268154,2018-06-29 11:04:31.812500,42.33,69.92
268155,2018-06-29 11:04:31.843750,35.46,69.92
268156,2018-06-29 11:04:31.875000,26.05,69.92
268157,2018-06-29 11:04:31.906250,19.48,69.92
268158,2018-06-29 11:04:31.937500,18.89,69.92
268159,2018-06-29 11:04:31.968750,21.75,69.92
268160,2018-06-29 11:04:32.000000,23.08,69.92
268161,2018-06-29 11:04:32.031250,21.48,69.92
268162,2018-06-29 11:04:32.062500,18.48,69.92
268163,2018-06-29 11:04:32.093750,13.63,69.92
268164,2018-06-29 11:04:32.125000,4.76,69.92
268165,2018-06-29 11:04:32.156250,-7.59,69.92
268166,2018-06-29 11:04:32.187500,-19.59,69.92
268167,2018-06-29 11:04:32.218750,-28.58,69.92
268168,2018-06-29 11:04:32.250000,-35.36,69.92
268169,2018-06-29 11:04:32.281250,-42.6,69.92
268170,2018-06-29 11:04:32.312500,-52.37,69.92
268171,2018-06-29 11:04:32.343750,-62.17,69.92
268172,2018-06-29 11:04:32.375000,-62.34,69.92
268173,2018-06-29 11:04:32.406250,-44.27,69.92
268174,2018-06-29 11:04:32.437500,-12.8,69.92
268175,2018-06-29 11:04:32.468750,16.81,69.92
268176,2018-06-29 11:04:32.500000,34.2,69.92
268177,2018-06-29 11:04:32.531250,39.22,70.08
268178,2018-06-29 11:04:32.562500,35.05,70.08
268179,2018-06-29 11:04:32.593750,25.48,70.08
268180,2018-06-29 11:04:32.625000,16.93,70.08
268181,2018-06-29 11:04:32.656250,14.79,70.08
268182,2018-06-29 11:04:32.687500,17.56,70.08
268183,2018-06-29 11:04:32.718750,19.86,70.08
268184,2018-06-29 11:04:32.750000,19.72,70.08
268185,2018-06-29 11:04:32.781250,18.46,70.08
268186,2018-06-29 11:04:32.812500,15.68,70.08
268187,2018-06-29 11:04:32.843750,9.57,70.08
268188,2018-06-29 11:04:32.875000,0.75,70.08
268189,2018-06-29 11:04:32.906250,-7.67,70.08
268190,2018-06-29 11:04:32.937500,-13.63,70.08
268191,2018-06-29 11:04:32.968750,-17.61,70.08
268192,2018-06-29 11:04:33.000000,-21.24,70.08
