,Time,ppg,hr
278400,2018-06-29 11:09:52.000000,-10.07,69.37
278401,2018-06-29 11:09:52.031250,20.59,69.37
278402,2018-06-29 11:09:52.062500,39.82,69.37
278403,2018-06-29 11:09:52.093750,53.06,69.37
278404,2018-06-29 11:09:52.125000,65.9,69.37
278405,2018-06-29 11:09:52.156250,74.6,69.37
278406,2018-06-29 11:09:52.187500,73.57,69.37
278407,2018-06-29 11:09:52.218750,66.69,69.37
278408,2018-06-29 11:09:52.250000,63.28,69.37
278409,2018-06-29 11:09:52.281250,66.57,69.37
278410,2018-06-29 11:09:52.312500,70.8,69.37
278411,2018-06-29 11:09:52.343750,67.34,69.37
278412,2018-06-29 11:09:52.375000,51.16,69.37
278413,2018-06-29 11:09:52.406250,23.06,69.37
278414,2018-06-29 11:09:52.437500,-10.39,69.37
278415,2018-06-29 11:09:52.468750,-39.81,69.37
278416,2018-06-29 11:09:52.500000,-60.54,69.37
278417,2018-06-29 11:09:52.531250,-77.95,69.4
278418,2018-06-29 11:09:52.562500,-102.13,69.4
278419,2018-06-29 11:09:52.593750,-134.92,69.4
278420,2018-06-29 11:09:52.625000,-161.27,69.4
278421,2018-06-29 11:09:52.656250,-158.99,69.4
278422,2018-06-29 11:09:52.687500,-123.14,69.4
278423,2018-06-29 11:09:52.718750,-74.4,69.4
278424,2018-06-29 11:09:52.750000,-37.41,69.4
278425,2018-06-29 11:09:52.781250,-20.69,69.4
278426,2018-06-29 11:09:52.812500,-20.62,69.4
278427,2018-06-29 11:09:52.843750,-31.3,69.4
278428,2018-06-29 11:09:52.875000,-45.75,69.4
278429,2018-06-29 11:09:52.906250,-57.32,69.4
278430,2018-06-29 11:09:52.937500,-64.38,69.4
278431,2018-06-29 11:09:52.968750,-69.39,69.4
278432,2018-06-29 11:09:53.000000,-72.01,69.4
278433,2018-06-29 11:09:53.031250,-68.71,69.4
278434,2018-06-29 11:09:53.062500,-61.48,69.4
278435,2018-06-29 11:09:53.093750,-59.25,69.4
278436,2018-06-29 11:09:53.125000,-64.67,69.4
278437,2018-06-29 11:09:53.156250,-67.48,69.4
278438,2018-06-29 11:09:53.187500,-58.51,69.4
278439,2018-06-29 11:09:53.218750,-43.57,69.4
278440,2018-06-29 11:09:53.250000,-34.64,69.4
278441,2018-06-29 11:09:53.281250,-33.69,69.4
278442,2018-06-29 11:09:53.312500,-34.53,69.4
278443,2018-06-29 11:09:53.343750,-36.06,69.4
278444,2018-06-29 11:09:53.375000,-43.9,69.4
278445,2018-06-29 11:09:53.406250,-60.45,69.4
278446,2018-06-29 11:09:53.437500,-76.47,69.4
278447,2018-06-29 11:09:53.468750,-73.29,69.4
278448,2018-06-29 11:09:53.500000,-37.82,69.4
278449,2018-06-29 11:09:53.531250,22.39,69.43
278450,2018-06-29 11:09:53.562500,84.29,69.43
278451,2018-06-29 11:09:53.593750,129.36,69.43
278452,2018-06-29 11:09:53.625000,153.5,69.43
278453,2018-06-29 11:09:53.656250,161.09,69.43
278454,2018-06-29 11:09:53.687500,158.46,69.43
278455,2018-06-29 11:09:53.718750,152.49,69.43
278456,2018-06-29 11:09:53.750000,148.34,69.43
278457,2018-06-29 11:09:53.781250,146.46,69.43
278458,2018-06-29 11:09:53.812500,143.54,69.43
278459,2018-06-29 11:09:53.843750,136.82,69.43
278460,2018-06-29 11:09:53.875000,126.09,69.43
278461,2018-06-29 11:09:53.906250,111.97,69.43
278462,2018-06-29 11:09:53.937500,94.12,69.43
278463,2018-06-29 11:09:53.968750,72.01,69.43
278464,2018-06-29 11:09:54.000000,46.68,69.43
278465,2018-06-29 11:09:54.031250,21.38,69.43
278466,2018-06-29 11:09:54.062500,-0.5,69.43
278467,2018-06-29 11:09:54.093750,-18.46,69.43
278468,2018-06-29 11:09:54.125000,-35.56,69.43
278469,2018-06-29 11:09:54.156250,-56.02,69.43
278470,2018-06-29 11:09:54.187500,-80.23,69.43
278471,2018-06-29 11:09:54.218750,-97.47,69.43
278472,2018-06-29 11:09:54.250000,-88.71,69.43
278473,2018-06-29 11:09:54.281250,-46.18,69.43
278474,2018-06-29 11:09:54.312500,14.1,69.43
278475,2018-06-29 11:09:54.343750,67.73,69.43
278476,2018-06-29 11:09:54.375000,103.18,69.43
278477,2018-06-29 11:09:54.406250,121.98,69.43
278478,2018-06-29 11:09:54.437500,127.95,69.43
278479,2018-06-29 11:09:54.468750,124.86,69.43
278480,2018-06-29 11:09:54.500000,118.43,69.43
278481,2018-06-29 11:09:54.531250,113.5,69.48
278482,2018-06-29 11:09:54.562500,110.34,69.48
278483,2018-06-29 11:09:54.593750,107.21,69.48
278484,2018-06-29 11:09:54.625000,103.98,69.48
278485,2018-06-29 11:09:54.656250,99.8,69.48
278486,2018-06-29 11:09:54.687500,90.96,69.48
278487,2018-06-29 11:09:54.718750,75.64,69.48
278488,2018-06-29 11:09:54.750000,57.65,69.48
278489,2018-06-29 11:09:54.781250,41.08,69.48
278490,2018-06-29 11:09:54.812500,24.44,69.48
278491,2018-06-29 11:09:54.843750,4.75,69.48
278492,2018-06-29 11:09:54.875000,-15.73,69.48
278493,2018-06-29 11:09:54.906250,-32.28,69.48
278494,2018-06-29 11:09:54.937500,-45.09,69.48
278495,2018-06-29 11:09:54.968750,-59.32,69.48
278496,2018-06-29 11:09:55.000000,-78.61,69.48
278497,2018-06-29 11:09:55.031250,-97.03,69.48
278498,2018-06-29 11:09:55.062500,-98.33,69.48
278499,2018-06-29 11:09:55.093750,-71.05,69.48
278500,2018-06-29 11:09:55.125000,-24.31,69.48
278501,2018-06-29 11:09:55.156250,21.01,69.48
278502,2018-06-29 11:09:55.187500,52.79,69.48
278503,2018-06-29 11:09:55.218750,71.0,69.48
278504,2018-06-29 11:09:55.250000,78.47,69.48
278505,2018-06-29 11:09:55.281250,78.36,69.48
278506,2018-06-29 11:09:55.312500,75.37,69.48
278507,2018-06-29 11:09:55.343750,73.02,69.48
278508,2018-06-29 11:09:55.375000,71.6,69.48
278509,2018-06-29 11:09:55.406250,70.27,69.48
278510,2018-06-29 11:09:55.437500,69.01,69.48
278511,2018-06-29 11:09:55.468750,67.38,69.48
278512,2018-06-29 11:09:55.500000,63.66,69.48
278513,2018-06-29 11:09:55.531250,56.9,69.52
278514,2018-06-29 11:09:55.562500,48.1,69.52
278515,2018-06-29 11:09:55.593750,38.2,69.52
278516,2018-06-29 11:09:55.625000,26.95,69.52
278517,2018-06-29 11:09:55.656250,14.65,69.52
278518,2018-06-29 11:09:55.687500,3.15,69.52
278519,2018-06-29 11:09:55.718750,-6.46,69.52
278520,2018-06-29 11:09:55.750000,-16.22,69.52
278521,2018-06-29 11:09:55.781250,-28.6,69.52
278522,2018-06-29 11:09:55.812500,-42.28,69.52
278523,2018-06-29 11:09:55.843750,-53.99,69.52
278524,2018-06-29 11:09:55.875000,-63.79,69.52
278525,2018-06-29 11:09:55.906250,-75.77,69.52
278526,2018-06-29 11:09:55.937500,-92.18,69.52
278527,2018-06-29 11:09:55.968750,-105.84,69.52
278528,2018-06-29 11:09:56.000000,-101.35,69.52
278529,2018-06-29 11:09:56.031250,-70.95,69.52
278530,2018-06-29 11:09:56.062500,-26.05,69.52
278531,2018-06-29 11:09:56.093750,13.94,69.52
278532,2018-06-29 11:09:56.125000,39.21,69.52
278533,2018-06-29 11:09:56.156250,50.8,69.52
278534,2018-06-29 11:09:56.187500,52.89,69.52
278535,2018-06-29 11:09:56.218750,50.15,69.52
278536,2018-06-29 11:09:56.250000,47.26,69.52
278537,2018-06-29 11:09:56.281250,46.83,69.52
278538,2018-06-29 11:09:56.312500,48.55,69.52
278539,2018-06-29 11:09:56.343750,50.59,69.52
278540,2018-06-29 11:09:56.375000,51.49,69.52
278541,2018-06-29 11:09:56.406250,50.3,69.52
278542,2018-06-29 11:09:56.437500,45.94,69.52
278543,2018-06-29 11:09:56.468750,38.38,69.52
278544,2018-06-29 11:09:56.500000,29.86,69.52
278545,2018-06-29 11:09:56.531250,22.41,69.57
278546,2018-06-29 11:09:56.562500,14.79,69.57
278547,2018-06-29 11:09:56.593750,4.2,69.57
278548,2018-06-29 11:09:56.625000,-9.54,69.57
278549,2018-06-29 11:09:56.656250,-24.53,69.57
278550,2018-06-29 11:09:56.687500,-41.25,69.57
278551,2018-06-29 11:09:56.718750,-62.59,69.57
278552,2018-06-29 11:09:56.750000,-87.96,69.57
278553,2018-06-29 11:09:56.781250,-110.41,69.57
278554,2018-06-29 11:09:56.812500,-121.85,69.57
278555,2018-06-29 11:09:56.843750,-121.06,69.57
278556,2018-06-29 11:09:56.875000,-114.81,69.57
278557,2018-06-29 11:09:56.906250,-108.31,69.57
278558,2018-06-29 11:09:56.937500,-95.8,69.57
278559,2018-06-29 11:09:56.968750,-65.42,69.57
278560,2018-06-29 11:09:57.000000,-15.21,69.57
278561,2018-06-29 11:09:57.031250,39.78,69.57
278562,2018-06-29 11:09:57.062500,79.89,69.57
278563,2018-06-29 11:09:57.093750,98.03,69.57
278564,2018-06-29 11:09:57.125000,100.57,69.57
278565,2018-06-29 11:09:57.156250,95.42,69.57
278566,2018-06-29 11:09:57.187500,87.54,69.57
278567,2018-06-29 11:09:57.218750,83.2,69.57
278568,2018-06-29 11:09:57.250000,86.68,69.57
278569,2018-06-29 11:09:57.281250,92.19,69.57
278570,2018-06-29 11:09:57.312500,88.47,69.57
278571,2018-06-29 11:09:57.343750,71.04,69.57
278572,2018-06-29 11:09:57.375000,46.7,69.57
278573,2018-06-29 11:09:57.406250,29.98,69.57
278574,2018-06-29 11:09:57.437500,31.07,69.57
278575,2018-06-29 11:09:57.468750,41.02,69.57
278576,2018-06-29 11:09:57.500000,40.1,69.57
278577,2018-06-29 11:09:57.531250,24.06,69.63
278578,2018-06-29 11:09:57.562500,3.96,69.63
278579,2018-06-29 11:09:57.593750,-16.92,69.63
278580,2018-06-29 11:09:57.625000,-43.58,69.63
278581,2018-06-29 11:09:57.656250,-73.94,69.63
278582,2018-06-29 11:09:57.687500,-101.82,69.63
278583,2018-06-29 11:09:57.718750,-124.53,69.63
278584,2018-06-29 11:09:57.750000,-138.62,69.63
278585,2018-06-29 11:09:57.781250,-141.62,69.63
278586,2018-06-29 11:09:57.812500,-137.64,69.63
278587,2018-06-29 11:09:57.843750,-129.09,69.63
278588,2018-06-29 11:09:57.875000,-111.25,69.63
278589,2018-06-29 11:09:57.906250,-84.56,69.63
278590,2018-06-29 11:09:57.937500,-59.1,69.63
278591,2018-06-29 11:09:57.968750,-41.25,69.63
278592,2018-06-29 11:09:58.000000,-28.98,69.63
278593,2018-06-29 11:09:58.031250,-20.76,69.63
278594,2018-06-29 11:09:58.062500,-16.63,69.63
278595,2018-06-29 11:09:58.093750,-12.47,69.63
278596,2018-06-29 11:09:58.125000,-2.74,69.63
278597,2018-06-29 11:09:58.156250,12.97,69.63
278598,2018-06-29 11:09:58.187500,30.78,69.63
278599,2018-06-29 11:09:58.218750,47.9,69.63
278600,2018-06-29 11:09:58.250000,63.13,69.63
278601,2018-06-29 11:09:58.281250,74.32,69.63
278602,2018-06-29 11:09:58.312500,79.99,69.63
278603,2018-06-29 11:09:58.343750,82.73,69.63
278604,2018-06-29 11:09:58.375000,86.99,69.63
278605,2018-06-29 11:09:58.406250,93.56,69.63
278606,2018-06-29 11:09:58.437500,98.78,69.63
278607,2018-06-29 11:09:58.468750,98.76,69.63
278608,2018-06-29 11:09:58.500000,92.23,69.63
278609,2018-06-29 11:09:58.531250,80.66,69.68
278610,2018-06-29 11:09:58.562500,67.02,69.68
278611,2018-06-29 11:09:58.593750,53.37,69.68
278612,2018-06-29 11:09:58.625000,39.86,69.68
278613,2018-06-29 11:09:58.656250,26.11,69.68
278614,2018-06-29 11:09:58.687500,12.34,69.68
278615,2018-06-29 11:09:58.718750,0.05,69.68
278616,2018-06-29 11:09:58.750000,-6.86,69.68
278617,2018-06-29 11:09:58.781250,-5.41,69.68
278618,2018-06-29 11:09:58.812500,0.11,69.68
278619,2018-06-29 11:09:58.843750,0.17,69.68
278620,2018-06-29 11:09:58.875000,-10.32,69.68
278621,2018-06-29 11:09:58.906250,-27.04,69.68
278622,2018-06-29 11:09:58.937500,-38.98,69.68
278623,2018-06-29 11:09:58.968750,-34.72,69.68
278624,2018-06-29 11:09:59.000000,-12.42,69.68
278625,2018-06-29 11:09:59.031250,14.26,69.68
278626,2018-06-29 11:09:59.062500,26.2,69.68
278627,2018-06-29 11:09:59.093750,16.16,69.68
278628,2018-06-29 11:09:59.125000,-7.24,69.68
278629,2018-06-29 11:09:59.156250,-30.66,69.68
278630,2018-06-29 11:09:59.187500,-46.85,69.68
278631,2018-06-29 11:09:59.218750,-56.87,69.68
278632,2018-06-29 11:09:59.250000,-66.88,69.68
278633,2018-06-29 11:09:59.281250,-81.75,69.68
278634,2018-06-29 11:09:59.312500,-99.37,69.68
278635,2018-06-29 11:09:59.343750,-113.61,69.68
278636,2018-06-29 11:09:59.375000,-122.74,69.68
278637,2018-06-29 11:09:59.406250,-129.86,69.68
278638,2018-06-29 11:09:59.437500,-136.25,69.68
278639,2018-06-29 11:09:59.468750,-140.36,69.68
278640,2018-06-29 11:09:59.500000,-141.37,69.68
278641,2018-06-29 11:09:59.531250,-140.82,69.75
278642,2018-06-29 11:09:59.562500,-141.82,69.75
278643,2018-06-29 11:09:59.593750,-145.07,69.75
278644,2018-06-29 11:09:59.625000,-143.5,69.75
278645,2018-06-29 11:09:59.656250,-127.89,69.75
278646,2018-06-29 11:09:59.687500,-99.03,69.75
278647,2018-06-29 11:09:59.718750,-67.27,69.75
278648,2018-06-29 11:09:59.750000,-41.32,69.75
278649,2018-06-29 11:09:59.781250,-24.33,69.75
278650,2018-06-29 11:09:59.812500,-16.5,69.75
278651,2018-06-29 11:09:59.843750,-14.71,69.75
278652,2018-06-29 11:09:59.875000,-13.08,69.75
278653,2018-06-29 11:09:59.906250,-8.02,69.75
278654,2018-06-29 11:09:59.937500,-0.6,69.75
278655,2018-06-29 11:09:59.968750,6.81,69.75
278656,2018-06-29 11:10:00.000000,13.93,69.75
278657,2018-06-29 11:10:00.031250,20.63,69.75
278658,2018-06-29 11:10:00.062500,24.0,69.75
278659,2018-06-29 11:10:00.093750,20.81,69.75
278660,2018-06-29 11:10:00.125000,12.05,69.75
278661,2018-06-29 11:10:00.156250,1.28,69.75
278662,2018-06-29 11:10:00.187500,-10.29,69.75
278663,2018-06-29 11:10:00.218750,-23.11,69.75
278664,2018-06-29 11:10:00.250000,-35.2,69.75
278665,2018-06-29 11:10:00.281250,-43.97,69.75
278666,2018-06-29 11:10:00.312500,-50.49,69.75
278667,2018-06-29 11:10:00.343750,-58.5,69.75
278668,2018-06-29 11:10:00.375000,-69.35,69.75
278669,2018-06-29 11:10:00.406250,-78.11,69.75
278670,2018-06-29 11:10:00.437500,-74.98,69.75
278671,2018-06-29 11:10:00.468750,-54.04,69.75
278672,2018-06-29 11:10:00.500000,-20.66,69.75
278673,2018-06-29 11:10:00.531250,13.18,69.8
278674,2018-06-29 11:10:00.562500,38.76,69.8
278675,2018-06-29 11:10:00.593750,53.13,69.8
278676,2018-06-29 11:10:00.625000,56.75,69.8
278677,2018-06-29 11:10:00.656250,53.73,69.8
278678,2018-06-29 11:10:00.687500,50.54,69.8
278679,2018-06-29 11:10:00.718750,50.75,69.8
278680,2018-06-29 11:10:00.750000,52.51,69.8
278681,2018-06-29 11:10:00.781250,53.08,69.8
278682,2018-06-29 11:10:00.812500,52.03,69.8
278683,2018-06-29 11:10:00.843750,49.0,69.8
278684,2018-06-29 11:10:00.875000,42.73,69.8
278685,2018-06-29 11:10:00.906250,33.72,69.8
278686,2018-06-29 11:10:00.937500,24.01,69.8
278687,2018-06-29 11:10:00.968750,13.31,69.8
278688,2018-06-29 11:10:01.000000,-0.67,69.8
278689,2018-06-29 11:10:01.031250,-17.13,69.8
278690,2018-06-29 11:10:01.062500,-31.88,69.8
278691,2018-06-29 11:10:01.093750,-43.16,69.8
278692,2018-06-29 11:10:01.125000,-54.56,69.8
278693,2018-06-29 11:10:01.156250,-69.73,69.8
278694,2018-06-29 11:10:01.187500,-83.46,69.8
278695,2018-06-29 11:10:01.218750,-81.28,69.8
278696,2018-06-29 11:10:01.250000,-53.44,69.8
278697,2018-06-29 11:10:01.281250,-7.61,69.8
278698,2018-06-29 11:10:01.312500,37.88,69.8
278699,2018-06-29 11:10:01.343750,70.43,69.8
278700,2018-06-29 11:10:01.375000,88.13,69.8
278701,2018-06-29 11:10:01.406250,93.6,69.8
278702,2018-06-29 11:10:01.437500,90.26,69.8
278703,2018-06-29 11:10:01.468750,83.13,69.8
278704,2018-06-29 11:10:01.500000,77.84,69.8
278705,2018-06-29 11:10:01.531250,77.05,69.83
278706,2018-06-29 11:10:01.562500,79.02,69.83
278707,2018-06-29 11:10:01.593750,79.73,69.83
278708,2018-06-29 11:10:01.625000,76.01,69.83
278709,2018-06-29 11:10:01.656250,67.36,69.83
278710,2018-06-29 11:10:01.687500,55.19,69.83
278711,2018-06-29 11:10:01.718750,40.5,69.83
278712,2018-06-29 11:10:01.750000,23.6,69.83
278713,2018-06-29 11:10:01.781250,5.88,69.83
278714,2018-06-29 11:10:01.812500,-10.76,69.83
278715,2018-06-29 11:10:01.843750,-25.67,69.83
278716,2018-06-29 11:10:01.875000,-39.81,69.83
278717,2018-06-29 11:10:01.906250,-55.13,69.83
278718,2018-06-29 11:10:01.937500,-71.89,69.83
278719,2018-06-29 11:10:01.968750,-82.64,69.83
278720,2018-06-29 11:10:02.000000,-73.17,69.83
278721,2018-06-29 11:10:02.031250,-37.38,69.83
278722,2018-06-29 11:10:02.062500,12.32,69.83
278723,2018-06-29 11:10:02.093750,55.86,69.83
278724,2018-06-29 11:10:02.125000,82.36,69.83
278725,2018-06-29 11:10:02.156250,91.91,69.83
278726,2018-06-29 11:10:02.187500,88.85,69.83
278727,2018-06-29 11:10:02.218750,79.58,69.83
278728,2018-06-29 11:10:02.250000,71.14,69.83
278729,2018-06-29 11:10:02.281250,66.91,69.83
278730,2018-06-29 11:10:02.312500,65.44,69.83
278731,2018-06-29 11:10:02.343750,64.9,69.83
278732,2018-06-29 11:10:02.375000,64.67,69.83
278733,2018-06-29 11:10:02.406250,62.82,69.83
278734,2018-06-29 11:10:02.437500,56.1,69.83
278735,2018-06-29 11:10:02.468750,44.18,69.83
278736,2018-06-29 11:10:02.500000,30.65,69.83
278737,2018-06-29 11:10:02.531250,18.26,69.87
278738,2018-06-29 11:10:02.562500,5.67,69.87
278739,2018-06-29 11:10:02.593750,-9.03,69.87
278740,2018-06-29 11:10:02.625000,-23.82,69.87
278741,2018-06-29 11:10:02.656250,-35.32,69.87
278742,2018-06-29 11:10:02.687500,-44.3,69.87
278743,2018-06-29 11:10:02.718750,-55.64,69.87
278744,2018-06-29 11:10:02.750000,-72.14,69.87
278745,2018-06-29 11:10:02.781250,-87.08,69.87
278746,2018-06-29 11:10:02.812500,-84.68,69.87
278747,2018-06-29 11:10:02.843750,-55.01,69.87
278748,2018-06-29 11:10:02.875000,-8.01,69.87
278749,2018-06-29 11:10:02.906250,35.21,69.87
278750,2018-06-29 11:10:02.937500,62.36,69.87
278751,2018-06-29 11:10:02.968750,74.21,69.87
278752,2018-06-29 11:10:03.000000,74.53,69.87
278753,2018-06-29 11:10:03.031250,66.74,69.87
278754,2018-06-29 11:10:03.062500,57.53,69.87
278755,2018-06-29 11:10:03.093750,53.63,69.87
278756,2018-06-29 11:10:03.125000,55.08,69.87
278757,2018-06-29 11:10:03.156250,57.2,69.87
278758,2018-06-29 11:10:03.187500,58.09,69.87
278759,2018-06-29 11:10:03.218750,58.68,69.87
278760,2018-06-29 11:10:03.250000,57.41,69.87
278761,2018-06-29 11:10:03.281250,51.39,69.87
278762,2018-06-29 11:10:03.312500,41.92,69.87
278763,2018-06-29 11:10:03.343750,33.74,69.87
278764,2018-06-29 11:10:03.375000,28.93,69.87
278765,2018-06-29 11:10:03.406250,25.0,69.87
278766,2018-06-29 11:10:03.437500,19.99,69.87
278767,2018-06-29 11:10:03.468750,16.37,69.87
278768,2018-06-29 11:10:03.500000,17.51,69.87
278769,2018-06-29 11:10:03.531250,22.44,69.93
278770,2018-06-29 11:10:03.562500,26.59,69.93
278771,2018-06-29 11:10:03.593750,26.51,69.93
278772,2018-06-29 11:10:03.625000,25.03,69.93
278773,2018-06-29 11:10:03.656250,32.82,69.93
278774,2018-06-29 11:10:03.687500,60.78,69.93
278775,2018-06-29 11:10:03.718750,105.17,69.93
278776,2018-06-29 11:10:03.750000,151.98,69.93
278777,2018-06-29 11:10:03.781250,190.17,69.93
278778,2018-06-29 11:10:03.812500,214.98,69.93
278779,2018-06-29 11:10:03.843750,223.52,69.93
278780,2018-06-29 11:10:03.875000,216.72,69.93
278781,2018-06-29 11:10:03.906250,203.01,69.93
278782,2018-06-29 11:10:03.937500,190.52,69.93
278783,2018-06-29 11:10:03.968750,184.12,69.93
278784,2018-06-29 11:10:04.000000,178.66,69.93
278785,2018-06-29 11:10:04.031250,162.53,69.93
278786,2018-06-29 11:10:04.062500,123.03,69.93
278787,2018-06-29 11:10:04.093750,64.95,69.93
278788,2018-06-29 11:10:04.125000,0.51,69.93
278789,2018-06-29 11:10:04.156250,-71.2,69.93
278790,2018-06-29 11:10:04.187500,-148.87,69.93
278791,2018-06-29 11:10:04.218750,-226.89,69.93
278792,2018-06-29 11:10:04.250000,-284.4,69.93
278793,2018-06-29 11:10:04.281250,-328.93,69.93
278794,2018-06-29 11:10:04.312500,-371.9,69.93
278795,2018-06-29 11:10:04.343750,-423.37,69.93
278796,2018-06-29 11:10:04.375000,-470.23,69.93
278797,2018-06-29 11:10:04.406250,-496.11,69.93
278798,2018-06-29 11:10:04.437500,-522.36,69.93
278799,2018-06-29 11:10:04.468750,-574.64,69.93
278800,2018-06-29 11:10:04.500000,-650.72,69.93
278801,2018-06-29 11:10:04.531250,-654.15,70.02
278802,2018-06-29 11:10:04.562500,-541.59,70.02
278803,2018-06-29 11:10:04.593750,-327.63,70.02
278804,2018-06-29 11:10:04.625000,13.05,70.02
278805,2018-06-29 11:10:04.656250,236.8,70.02
278806,2018-06-29 11:10:04.687500,305.45,70.02
278807,2018-06-29 11:10:04.718750,297.29,70.02
278808,2018-06-29 11:10:04.750000,259.63,70.02
278809,2018-06-29 11:10:04.781250,195.28,70.02
278810,2018-06-29 11:10:04.812500,134.7,70.02
278811,2018-06-29 11:10:04.843750,89.74,70.02
278812,2018-06-29 11:10:04.875000,65.43,70.02
278813,2018-06-29 11:10:04.906250,51.6,70.02
278814,2018-06-29 11:10:04.937500,56.21,70.02
278815,2018-06-29 11:10:04.968750,86.32,70.02
278816,2018-06-29 11:10:05.000000,124.23,70.02
278817,2018-06-29 11:10:05.031250,154.34,70.02
278818,2018-06-29 11:10:05.062500,164.17,70.02
278819,2018-06-29 11:10:05.093750,169.3,70.02
278820,2018-06-29 11:10:05.125000,174.36,70.02
278821,2018-06-29 11:10:05.156250,173.31,70.02
278822,2018-06-29 11:10:05.187500,160.18,70.02
278823,2018-06-29 11:10:05.218750,139.48,70.02
278824,2018-06-29 11:10:05.250000,120.82,70.02
278825,2018-06-29 11:10:05.281250,103.54,70.02
278826,2018-06-29 11:10:05.312500,86.09,70.02
278827,2018-06-29 11:10:05.343750,71.88,70.02
278828,2018-06-29 11:10:05.375000,69.57,70.02
278829,2018-06-29 11:10:05.406250,77.86,70.02
278830,2018-06-29 11:10:05.437500,86.03,70.02
278831,2018-06-29 11:10:05.468750,87.68,70.02
278832,2018-06-29 11:10:05.500000,82.95,70.02
278833,2018-06-29 11:10:05.531250,71.47,70.13
278834,2018-06-29 11:10:05.562500,52.11,70.13
278835,2018-06-29 11:10:05.593750,28.99,70.13
278836,2018-06-29 11:10:05.625000,9.79,70.13
278837,2018-06-29 11:10:05.656250,-2.83,70.13
278838,2018-06-29 11:10:05.687500,-12.93,70.13
278839,2018-06-29 11:10:05.718750,-24.69,70.13
278840,2018-06-29 11:10:05.750000,-37.83,70.13
278841,2018-06-29 11:10:05.781250,-50.0,70.13
278842,2018-06-29 11:10:05.812500,-60.63,70.13
278843,2018-06-29 11:10:05.843750,-70.33,70.13
278844,2018-06-29 11:10:05.875000,-78.6,70.13
278845,2018-06-29 11:10:05.906250,-84.15,70.13
278846,2018-06-29 11:10:05.937500,-86.71,70.13
278847,2018-06-29 11:10:05.968750,-87.68,70.13
278848,2018-06-29 11:10:06.000000,-89.82,70.13
278849,2018-06-29 11:10:06.031250,-94.86,70.13
278850,2018-06-29 11:10:06.062500,-98.2,70.13
278851,2018-06-29 11:10:06.093750,-89.45,70.13
278852,2018-06-29 11:10:06.125000,-64.37,70.13
278853,2018-06-29 11:10:06.156250,-32.54,70.13
278854,2018-06-29 11:10:06.187500,-7.36,70.13
278855,2018-06-29 11:10:06.218750,6.7,70.13
278856,2018-06-29 11:10:06.250000,12.42,70.13
278857,2018-06-29 11:10:06.281250,13.13,70.13
278858,2018-06-29 11:10:06.312500,12.63,70.13
278859,2018-06-29 11:10:06.343750,14.47,70.13
278860,2018-06-29 11:10:06.375000,18.26,70.13
278861,2018-06-29 11:10:06.406250,20.78,70.13
278862,2018-06-29 11:10:06.437500,21.2,70.13
278863,2018-06-29 11:10:06.468750,21.36,70.13
278864,2018-06-29 11:10:06.500000,21.72,70.13
278865,2018-06-29 11:10:06.531250,20.0,70.28
278866,2018-06-29 11:10:06.562500,13.91,70.28
278867,2018-06-29 11:10:06.593750,3.88,70.28
278868,2018-06-29 11:10:06.625000,-6.77,70.28
278869,2018-06-29 11:10:06.656250,-14.8,70.28
278870,2018-06-29 11:10:06.687500,-21.03,70.28
278871,2018-06-29 11:10:06.718750,-29.71,70.28
278872,2018-06-29 11:10:06.750000,-41.16,70.28
278873,2018-06-29 11:10:06.781250,-47.19,70.28
278874,2018-06-29 11:10:06.812500,-38.9,70.28
278875,2018-06-29 11:10:06.843750,-18.02,70.28
278876,2018-06-29 11:10:06.875000,4.83,70.28
278877,2018-06-29 11:10:06.906250,21.08,70.28
278878,2018-06-29 11:10:06.937500,28.81,70.28
278879,2018-06-29 11:10:06.968750,29.98,70.28
278880,2018-06-29 11:10:07.000000,27.56,70.28
278881,2018-06-29 11:10:07.031250,23.64,70.28
278882,2018-06-29 11:10:07.062500,18.2,70.28
278883,2018-06-29 11:10:07.093750,11.16,70.28
278884,2018-06-29 11:10:07.125000,4.02,70.28
278885,2018-06-29 11:10:07.156250,-1.6,70.28
278886,2018-06-29 11:10:07.187500,-5.72,70.28
278887,2018-06-29 11:10:07.218750,-10.2,70.28
278888,2018-06-29 11:10:07.250000,-17.12,70.28
278889,2018-06-29 11:10:07.281250,-26.04,70.28
278890,2018-06-29 11:10:07.312500,-33.61,70.28
278891,2018-06-29 11:10:07.343750,-37.51,70.28
278892,2018-06-29 11:10:07.375000,-39.59,70.28
278893,2018-06-29 11:10:07.406250,-43.76,70.28
278894,2018-06-29 11:10:07.437500,-51.33,70.28
278895,2018-06-29 11:10:07.468750,-57.3,70.28
278896,2018-06-29 11:10:07.500000,-52.57,70.28
278897,2018-06-29 11:10:07.531250,-33.86,70.5
278898,2018-06-29 11:10:07.562500,-9.39,70.5
278899,2018-06-29 11:10:07.593750,9.93,70.5
278900,2018-06-29 11:10:07.625000,21.78,70.5
278901,2018-06-29 11:10:07.656250,29.97,70.5
278902,2018-06-29 11:10:07.687500,36.18,70.5
278903,2018-06-29 11:10:07.718750,39.42,70.5
278904,2018-06-29 11:10:07.750000,39.27,70.5
278905,2018-06-29 11:10:07.781250,36.89,70.5
278906,2018-06-29 11:10:07.812500,34.47,70.5
278907,2018-06-29 11:10:07.843750,33.69,70.5
278908,2018-06-29 11:10:07.875000,33.97,70.5
278909,2018-06-29 11:10:07.906250,32.79,70.5
278910,2018-06-29 11:10:07.937500,28.29,70.5
278911,2018-06-29 11:10:07.968750,20.86,70.5
278912,2018-06-29 11:10:08.000000,11.86,70.5
278913,2018-06-29 11:10:08.031250,1.96,70.5
278914,2018-06-29 11:10:08.062500,-8.46,70.5
278915,2018-06-29 11:10:08.093750,-18.11,70.5
278916,2018-06-29 11:10:08.125000,-26.01,70.5
278917,2018-06-29 11:10:08.156250,-33.66,70.5
278918,2018-06-29 11:10:08.187500,-43.37,70.5
278919,2018-06-29 11:10:08.218750,-55.06,70.5
278920,2018-06-29 11:10:08.250000,-64.3,70.5
278921,2018-06-29 11:10:08.281250,-63.25,70.5
278922,2018-06-29 11:10:08.312500,-47.18,70.5
278923,2018-06-29 11:10:08.343750,-21.24,70.5
278924,2018-06-29 11:10:08.375000,4.55,70.5
278925,2018-06-29 11:10:08.406250,25.03,70.5
278926,2018-06-29 11:10:08.437500,39.58,70.5
278927,2018-06-29 11:10:08.468750,47.11,70.5
278928,2018-06-29 11:10:08.500000,47.84,70.5
278929,2018-06-29 11:10:08.531250,45.06,70.72
278930,2018-06-29 11:10:08.562500,41.6,70.72
278931,2018-06-29 11:10:08.593750,37.84,70.72
278932,2018-06-29 11:10:08.625000,34.08,70.72
278933,2018-06-29 11:10:08.656250,31.09,70.72
278934,2018-06-29 11:10:08.687500,28.45,70.72
278935,2018-06-29 11:10:08.718750,24.24,70.72
278936,2018-06-29 11:10:08.750000,17.4,70.72
278937,2018-06-29 11:10:08.781250,9.53,70.72
278938,2018-06-29 11:10:08.812500,3.17,70.72
278939,2018-06-29 11:10:08.843750,-1.81,70.72
278940,2018-06-29 11:10:08.875000,-7.78,70.72
278941,2018-06-29 11:10:08.906250,-14.95,70.72
278942,2018-06-29 11:10:08.937500,-21.05,70.72
278943,2018-06-29 11:10:08.968750,-25.47,70.72
278944,2018-06-29 11:10:09.000000,-30.41,70.72
278945,2018-06-29 11:10:09.031250,-38.12,70.72
278946,2018-06-29 11:10:09.062500,-47.34,70.72
278947,2018-06-29 11:10:09.093750,-50.92,70.72
278948,2018-06-29 11:10:09.125000,-40.8,70.72
278949,2018-06-29 11:10:09.156250,-18.61,70.72
278950,2018-06-29 11:10:09.187500,5.12,70.72
278951,2018-06-29 11:10:09.218750,23.55,70.72
278952,2018-06-29 11:10:09.250000,37.0,70.72
278953,2018-06-29 11:10:09.281250,45.36,70.72
278954,2018-06-29 11:10:09.312500,47.46,70.72
278955,2018-06-29 11:10:09.343750,46.25,70.72
278956,2018-06-29 11:10:09.375000,46.28,70.72
278957,2018-06-29 11:10:09.406250,48.14,70.72
278958,2018-06-29 11:10:09.437500,50.32,70.72
278959,2018-06-29 11:10:09.468750,53.0,70.72
278960,2018-06-29 11:10:09.500000,56.82,70.72
278961,2018-06-29 11:10:09.531250,60.89,70.92
278962,2018-06-29 11:10:09.562500,63.44,70.92
278963,2018-06-29 11:10:09.593750,62.68,70.92
278964,2018-06-29 11:10:09.625000,58.42,70.92
278965,2018-06-29 11:10:09.656250,53.06,70.92
278966,2018-06-29 11:10:09.687500,48.76,70.92
278967,2018-06-29 11:10:09.718750,44.08,70.92
278968,2018-06-29 11:10:09.750000,35.71,70.92
278969,2018-06-29 11:10:09.781250,22.23,70.92
278970,2018-06-29 11:10:09.812500,5.72,70.92
278971,2018-06-29 11:10:09.843750,-8.63,70.92
278972,2018-06-29 11:10:09.875000,-16.43,70.92
278973,2018-06-29 11:10:09.906250,-18.75,70.92
278974,2018-06-29 11:10:09.937500,-20.24,70.92
278975,2018-06-29 11:10:09.968750,-23.89,70.92
278976,2018-06-29 11:10:10.000000,-31.34,70.92
278977,2018-06-29 11:10:10.031250,-45.17,70.92
278978,2018-06-29 11:10:10.062500,-64.98,70.92
278979,2018-06-29 11:10:10.093750,-83.55,70.92
278980,2018-06-29 11:10:10.125000,-92.36,70.92
278981,2018-06-29 11:10:10.156250,-90.45,70.92
278982,2018-06-29 11:10:10.187500,-83.98,70.92
278983,2018-06-29 11:10:10.218750,-77.78,70.92
278984,2018-06-29 11:10:10.250000,-72.28,70.92
278985,2018-06-29 11:10:10.281250,-67.15,70.92
278986,2018-06-29 11:10:10.312500,-62.0,70.92
278987,2018-06-29 11:10:10.343750,-55.47,70.92
278988,2018-06-29 11:10:10.375000,-48.05,70.92
278989,2018-06-29 11:10:10.406250,-42.9,70.92
278990,2018-06-29 11:10:10.437500,-41.66,70.92
278991,2018-06-29 11:10:10.468750,-43.0,70.92
278992,2018-06-29 11:10:10.500000,-45.71,70.92
278993,2018-06-29 11:10:10.531250,-49.62,71.1
278994,2018-06-29 11:10:10.562500,-52.34,71.1
278995,2018-06-29 11:10:10.593750,-49.47,71.1
278996,2018-06-29 11:10:10.625000,-40.63,71.1
278997,2018-06-29 11:10:10.656250,-32.0,71.1
278998,2018-06-29 11:10:10.687500,-29.5,71.1
278999,2018-06-29 11:10:10.718750,-33.17,71.1
279000,2018-06-29 11:10:10.750000,-40.62,71.1
279001,2018-06-29 11:10:10.781250,-50.12,71.1
279002,2018-06-29 11:10:10.812500,-59.02,71.1
279003,2018-06-29 11:10:10.843750,-64.68,71.1
279004,2018-06-29 11:10:10.875000,-67.41,71.1
279005,2018-06-29 11:10:10.906250,-69.67,71.1
279006,2018-06-29 11:10:10.937500,-73.39,71.1
279007,2018-06-29 11:10:10.968750,-79.05,71.1
279008,2018-06-29 11:10:11.000000,-85.34,71.1
279009,2018-06-29 11:10:11.031250,-89.26,71.1
279010,2018-06-29 11:10:11.062500,-88.18,71.1
279011,2018-06-29 11:10:11.093750,-81.86,71.1
279012,2018-06-29 11:10:11.125000,-72.29,71.1
279013,2018-06-29 11:10:11.156250,-61.49,71.1
279014,2018-06-29 11:10:11.187500,-49.32,71.1
279015,2018-06-29 11:10:11.218750,-34.34,71.1
279016,2018-06-29 11:10:11.250000,-17.45,71.1
279017,2018-06-29 11:10:11.281250,-1.24,71.1
279018,2018-06-29 11:10:11.312500,15.27,71.1
279019,2018-06-29 11:10:11.343750,35.6,71.1
279020,2018-06-29 11:10:11.375000,58.38,71.1
279021,2018-06-29 11:10:11.406250,77.47,71.1
279022,2018-06-29 11:10:11.437500,89.28,71.1
279023,2018-06-29 11:10:11.468750,94.87,71.1
279024,2018-06-29 11:10:11.500000,96.7,71.1
279025,2018-06-29 11:10:11.531250,97.42,71.27
279026,2018-06-29 11:10:11.562500,98.95,71.27
279027,2018-06-29 11:10:11.593750,101.38,71.27
279028,2018-06-29 11:10:11.625000,105.53,71.27
279029,2018-06-29 11:10:11.656250,114.27,71.27
279030,2018-06-29 11:10:11.687500,127.34,71.27
279031,2018-06-29 11:10:11.718750,138.59,71.27
279032,2018-06-29 11:10:11.750000,144.36,71.27
279033,2018-06-29 11:10:11.781250,150.41,71.27
279034,2018-06-29 11:10:11.812500,163.5,71.27
279035,2018-06-29 11:10:11.843750,179.91,71.27
279036,2018-06-29 11:10:11.875000,189.82,71.27
279037,2018-06-29 11:10:11.906250,190.93,71.27
279038,2018-06-29 11:10:11.937500,190.72,71.27
279039,2018-06-29 11:10:11.968750,195.78,71.27
279040,2018-06-29 11:10:12.000000,196.79,71.27
279041,2018-06-29 11:10:12.031250,170.06,71.27
279042,2018-06-29 11:10:12.062500,108.01,71.27
279043,2018-06-29 11:10:12.093750,36.41,71.27
279044,2018-06-29 11:10:12.125000,-17.27,71.27
279045,2018-06-29 11:10:12.156250,-57.54,71.27
279046,2018-06-29 11:10:12.187500,-109.74,71.27
279047,2018-06-29 11:10:12.218750,-184.99,71.27
279048,2018-06-29 11:10:12.250000,-257.91,71.27
279049,2018-06-29 11:10:12.281250,-283.94,71.27
279050,2018-06-29 11:10:12.312500,-250.6,71.27
279051,2018-06-29 11:10:12.343750,-191.91,71.27
279052,2018-06-29 11:10:12.375000,-140.91,71.27
279053,2018-06-29 11:10:12.406250,-102.66,71.27
279054,2018-06-29 11:10:12.437500,-76.5,71.27
279055,2018-06-29 11:10:12.468750,-60.8,71.27
279056,2018-06-29 11:10:12.500000,-38.18,71.27
279057,2018-06-29 11:10:12.531250,4.22,71.42
279058,2018-06-29 11:10:12.562500,51.04,71.42
279059,2018-06-29 11:10:12.593750,80.66,71.42
279060,2018-06-29 11:10:12.625000,94.49,71.42
279061,2018-06-29 11:10:12.656250,105.94,71.42
279062,2018-06-29 11:10:12.687500,117.12,71.42
279063,2018-06-29 11:10:12.718750,122.32,71.42
279064,2018-06-29 11:10:12.750000,124.07,71.42
279065,2018-06-29 11:10:12.781250,130.64,71.42
279066,2018-06-29 11:10:12.812500,141.28,71.42
279067,2018-06-29 11:10:12.843750,146.26,71.42
279068,2018-06-29 11:10:12.875000,138.66,71.42
279069,2018-06-29 11:10:12.906250,115.6,71.42
279070,2018-06-29 11:10:12.937500,74.63,71.42
279071,2018-06-29 11:10:12.968750,19.61,71.42
279072,2018-06-29 11:10:13.000000,-35.77,71.42
279073,2018-06-29 11:10:13.031250,-77.66,71.42
279074,2018-06-29 11:10:13.062500,-101.14,71.42
279075,2018-06-29 11:10:13.093750,-107.65,71.42
279076,2018-06-29 11:10:13.125000,-99.51,71.42
279077,2018-06-29 11:10:13.156250,-81.07,71.42
279078,2018-06-29 11:10:13.187500,-60.79,71.42
279079,2018-06-29 11:10:13.218750,-45.92,71.42
279080,2018-06-29 11:10:13.250000,-37.55,71.42
279081,2018-06-29 11:10:13.281250,-34.24,71.42
279082,2018-06-29 11:10:13.312500,-35.85,71.42
279083,2018-06-29 11:10:13.343750,-41.95,71.42
279084,2018-06-29 11:10:13.375000,-50.55,71.42
279085,2018-06-29 11:10:13.406250,-58.76,71.42
279086,2018-06-29 11:10:13.437500,-64.23,71.42
279087,2018-06-29 11:10:13.468750,-67.84,71.42
279088,2018-06-29 11:10:13.500000,-72.59,71.42
279089,2018-06-29 11:10:13.531250,-78.38,71.57
279090,2018-06-29 11:10:13.562500,-82.72,71.57
279091,2018-06-29 11:10:13.593750,-86.61,71.57
279092,2018-06-29 11:10:13.625000,-92.51,71.57
279093,2018-06-29 11:10:13.656250,-98.47,71.57
279094,2018-06-29 11:10:13.687500,-100.67,71.57
279095,2018-06-29 11:10:13.718750,-99.52,71.57
279096,2018-06-29 11:10:13.750000,-97.96,71.57
279097,2018-06-29 11:10:13.781250,-95.99,71.57
279098,2018-06-29 11:10:13.812500,-91.34,71.57
279099,2018-06-29 11:10:13.843750,-84.58,71.57
279100,2018-06-29 11:10:13.875000,-79.38,71.57
279101,2018-06-29 11:10:13.906250,-77.56,71.57
279102,2018-06-29 11:10:13.937500,-77.4,71.57
279103,2018-06-29 11:10:13.968750,-77.37,71.57
279104,2018-06-29 11:10:14.000000,-79.32,71.57
279105,2018-06-29 11:10:14.031250,-86.53,71.57
279106,2018-06-29 11:10:14.062500,-98.22,71.57
279107,2018-06-29 11:10:14.093750,-106.19,71.57
279108,2018-06-29 11:10:14.125000,-100.11,71.57
279109,2018-06-29 11:10:14.156250,-77.99,71.57
279110,2018-06-29 11:10:14.187500,-48.35,71.57
279111,2018-06-29 11:10:14.218750,-21.68,71.57
279112,2018-06-29 11:10:14.250000,-4.31,71.57
279113,2018-06-29 11:10:14.281250,1.5,71.57
279114,2018-06-29 11:10:14.312500,-1.77,71.57
279115,2018-06-29 11:10:14.343750,-7.23,71.57
279116,2018-06-29 11:10:14.375000,-9.37,71.57
279117,2018-06-29 11:10:14.406250,-8.17,71.57
279118,2018-06-29 11:10:14.437500,-5.68,71.57
279119,2018-06-29 11:10:14.468750,-2.24,71.57
279120,2018-06-29 11:10:14.500000,1.04,71.57
279121,2018-06-29 11:10:14.531250,0.92,71.68
279122,2018-06-29 11:10:14.562500,-3.83,71.68
279123,2018-06-29 11:10:14.593750,-10.29,71.68
279124,2018-06-29 11:10:14.625000,-15.87,71.68
279125,2018-06-29 11:10:14.656250,-21.66,71.68
279126,2018-06-29 11:10:14.687500,-30.19,71.68
279127,2018-06-29 11:10:14.718750,-39.51,71.68
279128,2018-06-29 11:10:14.750000,-40.0,71.68
279129,2018-06-29 11:10:14.781250,-21.76,71.68
279130,2018-06-29 11:10:14.812500,12.59,71.68
279131,2018-06-29 11:10:14.843750,48.57,71.68
279132,2018-06-29 11:10:14.875000,74.77,71.68
279133,2018-06-29 11:10:14.906250,89.69,71.68
279134,2018-06-29 11:10:14.937500,95.0,71.68
279135,2018-06-29 11:10:14.968750,92.46,71.68
279136,2018-06-29 11:10:15.000000,87.3,71.68
279137,2018-06-29 11:10:15.031250,85.59,71.68
279138,2018-06-29 11:10:15.062500,87.76,71.68
279139,2018-06-29 11:10:15.093750,90.27,71.68
279140,2018-06-29 11:10:15.125000,90.7,71.68
279141,2018-06-29 11:10:15.156250,87.31,71.68
279142,2018-06-29 11:10:15.187500,77.74,71.68
279143,2018-06-29 11:10:15.218750,62.19,71.68
279144,2018-06-29 11:10:15.250000,44.56,71.68
279145,2018-06-29 11:10:15.281250,28.26,71.68
279146,2018-06-29 11:10:15.312500,12.7,71.68
279147,2018-06-29 11:10:15.343750,-5.58,71.68
279148,2018-06-29 11:10:15.375000,-27.14,71.68
279149,2018-06-29 11:10:15.406250,-43.22,71.68
279150,2018-06-29 11:10:15.437500,-40.02,71.68
279151,2018-06-29 11:10:15.468750,-14.22,71.68
279152,2018-06-29 11:10:15.500000,21.11,71.68
279153,2018-06-29 11:10:15.531250,50.19,71.8
279154,2018-06-29 11:10:15.562500,66.74,71.8
279155,2018-06-29 11:10:15.593750,71.15,71.8
279156,2018-06-29 11:10:15.625000,65.99,71.8
279157,2018-06-29 11:10:15.656250,57.26,71.8
279158,2018-06-29 11:10:15.687500,52.0,71.8
279159,2018-06-29 11:10:15.718750,51.72,71.8
279160,2018-06-29 11:10:15.750000,52.08,71.8
279161,2018-06-29 11:10:15.781250,49.49,71.8
279162,2018-06-29 11:10:15.812500,44.53,71.8
279163,2018-06-29 11:10:15.843750,38.25,71.8
279164,2018-06-29 11:10:15.875000,28.73,71.8
279165,2018-06-29 11:10:15.906250,14.4,71.8
279166,2018-06-29 11:10:15.937500,-2.14,71.8
279167,2018-06-29 11:10:15.968750,-17.47,71.8
279168,2018-06-29 11:10:16.000000,-31.76,71.8
279169,2018-06-29 11:10:16.031250,-47.81,71.8
279170,2018-06-29 11:10:16.062500,-67.12,71.8
279171,2018-06-29 11:10:16.093750,-85.61,71.8
279172,2018-06-29 11:10:16.125000,-91.55,71.8
279173,2018-06-29 11:10:16.156250,-73.72,71.8
279174,2018-06-29 11:10:16.187500,-34.9,71.8
279175,2018-06-29 11:10:16.218750,9.11,71.8
279176,2018-06-29 11:10:16.250000,43.84,71.8
279177,2018-06-29 11:10:16.281250,63.4,71.8
279178,2018-06-29 11:10:16.312500,67.35,71.8
279179,2018-06-29 11:10:16.343750,59.8,71.8
279180,2018-06-29 11:10:16.375000,49.86,71.8
279181,2018-06-29 11:10:16.406250,45.66,71.8
279182,2018-06-29 11:10:16.437500,47.77,71.8
279183,2018-06-29 11:10:16.468750,51.35,71.8
279184,2018-06-29 11:10:16.500000,52.96,71.8
279185,2018-06-29 11:10:16.531250,52.4,71.92
279186,2018-06-29 11:10:16.562500,48.74,71.92
279187,2018-06-29 11:10:16.593750,39.16,71.92
279188,2018-06-29 11:10:16.625000,23.16,71.92
279189,2018-06-29 11:10:16.656250,4.66,71.92
279190,2018-06-29 11:10:16.687500,-12.01,71.92
279191,2018-06-29 11:10:16.718750,-26.37,71.92
279192,2018-06-29 11:10:16.750000,-41.7,71.92
279193,2018-06-29 11:10:16.781250,-61.43,71.92
279194,2018-06-29 11:10:16.812500,-81.95,71.92
279195,2018-06-29 11:10:16.843750,-88.95,71.92
279196,2018-06-29 11:10:16.875000,-68.72,71.92
279197,2018-06-29 11:10:16.906250,-24.89,71.92
279198,2018-06-29 11:10:16.937500,23.09,71.92
279199,2018-06-29 11:10:16.968750,58.32,71.92
279200,2018-06-29 11:10:17.000000,76.52,71.92
279201,2018-06-29 11:10:17.031250,80.58,71.92
279202,2018-06-29 11:10:17.062500,74.56,71.92
279203,2018-06-29 11:10:17.093750,64.31,71.92
279204,2018-06-29 11:10:17.125000,56.87,71.92
279205,2018-06-29 11:10:17.156250,54.87,71.92
279206,2018-06-29 11:10:17.187500,55.3,71.92
279207,2018-06-29 11:10:17.218750,55.04,71.92
279208,2018-06-29 11:10:17.250000,53.06,71.92
279209,2018-06-29 11:10:17.281250,47.98,71.92
279210,2018-06-29 11:10:17.312500,38.69,71.92
279211,2018-06-29 11:10:17.343750,26.35,71.92
279212,2018-06-29 11:10:17.375000,12.16,71.92
279213,2018-06-29 11:10:17.406250,-3.82,71.92
279214,2018-06-29 11:10:17.437500,-19.67,71.92
279215,2018-06-29 11:10:17.468750,-32.09,71.92
279216,2018-06-29 11:10:17.500000,-41.16,71.92
279217,2018-06-29 11:10:17.531250,-50.79,72.15
279218,2018-06-29 11:10:17.562500,-64.66,72.15
279219,2018-06-29 11:10:17.593750,-81.46,72.15
279220,2018-06-29 11:10:17.625000,-90.43,72.15
279221,2018-06-29 11:10:17.656250,-75.9,72.15
279222,2018-06-29 11:10:17.687500,-34.74,72.15
279223,2018-06-29 11:10:17.718750,16.01,72.15
279224,2018-06-29 11:10:17.750000,56.16,72.15
279225,2018-06-29 11:10:17.781250,79.41,72.15
279226,2018-06-29 11:10:17.812500,88.96,72.15
279227,2018-06-29 11:10:17.843750,88.21,72.15
279228,2018-06-29 11:10:17.875000,81.56,72.15
279229,2018-06-29 11:10:17.906250,75.62,72.15
279230,2018-06-29 11:10:17.937500,73.42,72.15
279231,2018-06-29 11:10:17.968750,72.24,72.15
279232,2018-06-29 11:10:18.000000,69.22,72.15
279233,2018-06-29 11:10:18.031250,64.77,72.15
279234,2018-06-29 11:10:18.062500,58.84,72.15
279235,2018-06-29 11:10:18.093750,49.13,72.15
279236,2018-06-29 11:10:18.125000,35.24,72.15
279237,2018-06-29 11:10:18.156250,20.7,72.15
279238,2018-06-29 11:10:18.187500,8.32,72.15
279239,2018-06-29 11:10:18.218750,-3.44,72.15
279240,2018-06-29 11:10:18.250000,-16.76,72.15
279241,2018-06-29 11:10:18.281250,-30.23,72.15
279242,2018-06-29 11:10:18.312500,-40.8,72.15
279243,2018-06-29 11:10:18.343750,-48.92,72.15
279244,2018-06-29 11:10:18.375000,-58.95,72.15
279245,2018-06-29 11:10:18.406250,-73.92,72.15
279246,2018-06-29 11:10:18.437500,-89.07,72.15
279247,2018-06-29 11:10:18.468750,-91.1,72.15
279248,2018-06-29 11:10:18.500000,-68.82,72.15
279249,2018-06-29 11:10:18.531250,-26.15,72.33
279250,2018-06-29 11:10:18.562500,19.7,72.33
279251,2018-06-29 11:10:18.593750,53.71,72.33
279252,2018-06-29 11:10:18.625000,71.95,72.33
279253,2018-06-29 11:10:18.656250,76.94,72.33
279254,2018-06-29 11:10:18.687500,72.5,72.33
279255,2018-06-29 11:10:18.718750,64.36,72.33
279256,2018-06-29 11:10:18.750000,58.92,72.33
279257,2018-06-29 11:10:18.781250,58.52,72.33
279258,2018-06-29 11:10:18.812500,60.44,72.33
279259,2018-06-29 11:10:18.843750,61.11,72.33
279260,2018-06-29 11:10:18.875000,59.46,72.33
279261,2018-06-29 11:10:18.906250,55.86,72.33
279262,2018-06-29 11:10:18.937500,49.87,72.33
279263,2018-06-29 11:10:18.968750,40.79,72.33
279264,2018-06-29 11:10:19.000000,29.72,72.33
279265,2018-06-29 11:10:19.031250,18.89,72.33
279266,2018-06-29 11:10:19.062500,9.3,72.33
279267,2018-06-29 11:10:19.093750,-0.04,72.33
279268,2018-06-29 11:10:19.125000,-10.59,72.33
279269,2018-06-29 11:10:19.156250,-22.48,72.33
279270,2018-06-29 11:10:19.187500,-33.76,72.33
279271,2018-06-29 11:10:19.218750,-42.03,72.33
279272,2018-06-29 11:10:19.250000,-47.99,72.33
279273,2018-06-29 11:10:19.281250,-56.26,72.33
279274,2018-06-29 11:10:19.312500,-70.01,72.33
279275,2018-06-29 11:10:19.343750,-83.75,72.33
279276,2018-06-29 11:10:19.375000,-83.85,72.33
279277,2018-06-29 11:10:19.406250,-61.19,72.33
279278,2018-06-29 11:10:19.437500,-22.59,72.33
279279,2018-06-29 11:10:19.468750,14.73,72.33
279280,2018-06-29 11:10:19.500000,38.75,72.33
279281,2018-06-29 11:10:19.531250,48.18,72.52
279282,2018-06-29 11:10:19.562500,46.1,72.52
279283,2018-06-29 11:10:19.593750,36.99,72.52
279284,2018-06-29 11:10:19.625000,27.97,72.52
279285,2018-06-29 11:10:19.656250,24.61,72.52
279286,2018-06-29 11:10:19.687500,25.7,72.52
279287,2018-06-29 11:10:19.718750,26.86,72.52
279288,2018-06-29 11:10:19.750000,27.26,72.52
279289,2018-06-29 11:10:19.781250,27.91,72.52
279290,2018-06-29 11:10:19.812500,26.39,72.52
279291,2018-06-29 11:10:19.843750,19.48,72.52
279292,2018-06-29 11:10:19.875000,8.78,72.52
279293,2018-06-29 11:10:19.906250,-0.65,72.52
279294,2018-06-29 11:10:19.937500,-6.9,72.52
279295,2018-06-29 11:10:19.968750,-13.02,72.52
279296,2018-06-29 11:10:20.000000,-21.57,72.52
279297,2018-06-29 11:10:20.031250,-30.61,72.52
279298,2018-06-29 11:10:20.062500,-37.17,72.52
279299,2018-06-29 11:10:20.093750,-41.94,72.52
279300,2018-06-29 11:10:20.125000,-48.28,72.52
279301,2018-06-29 11:10:20.156250,-58.29,72.52
279302,2018-06-29 11:10:20.187500,-69.43,72.52
279303,2018-06-29 11:10:20.218750,-73.0,72.52
279304,2018-06-29 11:10:20.250000,-59.86,72.52
279305,2018-06-29 11:10:20.281250,-31.31,72.52
279306,2018-06-29 11:10:20.312500,-0.16,72.52
279307,2018-06-29 11:10:20.343750,21.59,72.52
279308,2018-06-29 11:10:20.375000,31.31,72.52
279309,2018-06-29 11:10:20.406250,31.64,72.52
279310,2018-06-29 11:10:20.437500,25.57,72.52
279311,2018-06-29 11:10:20.468750,17.47,72.52
279312,2018-06-29 11:10:20.500000,12.65,72.52
279313,2018-06-29 11:10:20.531250,12.96,72.65
279314,2018-06-29 11:10:20.562500,15.61,72.65
279315,2018-06-29 11:10:20.593750,17.35,72.65
279316,2018-06-29 11:10:20.625000,17.11,72.65
279317,2018-06-29 11:10:20.656250,14.41,72.65
279318,2018-06-29 11:10:20.687500,8.37,72.65
279319,2018-06-29 11:10:20.718750,0.02,72.65
279320,2018-06-29 11:10:20.750000,-8.07,72.65
279321,2018-06-29 11:10:20.781250,-15.55,72.65
279322,2018-06-29 11:10:20.812500,-23.93,72.65
279323,2018-06-29 11:10:20.843750,-33.04,72.65
279324,2018-06-29 11:10:20.875000,-41.03,72.65
279325,2018-06-29 11:10:20.906250,-47.68,72.65
279326,2018-06-29 11:10:20.937500,-55.52,72.65
279327,2018-06-29 11:10:20.968750,-66.81,72.65
279328,2018-06-29 11:10:21.000000,-77.6,72.65
279329,2018-06-29 11:10:21.031250,-76.15,72.65
279330,2018-06-29 11:10:21.062500,-54.47,72.65
279331,2018-06-29 11:10:21.093750,-19.97,72.65
279332,2018-06-29 11:10:21.125000,11.72,72.65
279333,2018-06-29 11:10:21.156250,31.98,72.65
279334,2018-06-29 11:10:21.187500,41.14,72.65
279335,2018-06-29 11:10:21.218750,41.63,72.65
279336,2018-06-29 11:10:21.250000,36.44,72.65
279337,2018-06-29 11:10:21.281250,30.22,72.65
279338,2018-06-29 11:10:21.312500,26.64,72.65
279339,2018-06-29 11:10:21.343750,26.08,72.65
279340,2018-06-29 11:10:21.375000,26.75,72.65
279341,2018-06-29 11:10:21.406250,26.8,72.65
279342,2018-06-29 11:10:21.437500,25.16,72.65
279343,2018-06-29 11:10:21.468750,21.32,72.65
279344,2018-06-29 11:10:21.500000,14.94,72.65
279345,2018-06-29 11:10:21.531250,6.21,72.77
279346,2018-06-29 11:10:21.562500,-3.74,72.77
279347,2018-06-29 11:10:21.593750,-13.49,72.77
279348,2018-06-29 11:10:21.625000,-22.26,72.77
279349,2018-06-29 11:10:21.656250,-29.72,72.77
279350,2018-06-29 11:10:21.687500,-36.54,72.77
279351,2018-06-29 11:10:21.718750,-44.93,72.77
279352,2018-06-29 11:10:21.750000,-55.61,72.77
279353,2018-06-29 11:10:21.781250,-62.61,72.77
279354,2018-06-29 11:10:21.812500,-55.66,72.77
279355,2018-06-29 11:10:21.843750,-31.83,72.77
279356,2018-06-29 11:10:21.875000,-0.76,72.77
279357,2018-06-29 11:10:21.906250,24.83,72.77
279358,2018-06-29 11:10:21.937500,39.48,72.77
279359,2018-06-29 11:10:21.968750,44.14,72.77
279360,2018-06-29 11:10:22.000000,41.4,72.77
279361,2018-06-29 11:10:22.031250,34.83,72.77
279362,2018-06-29 11:10:22.062500,28.88,72.77
279363,2018-06-29 11:10:22.093750,26.41,72.77
279364,2018-06-29 11:10:22.125000,26.89,72.77
279365,2018-06-29 11:10:22.156250,28.07,72.77
279366,2018-06-29 11:10:22.187500,28.54,72.77
279367,2018-06-29 11:10:22.218750,27.07,72.77
279368,2018-06-29 11:10:22.250000,21.99,72.77
279369,2018-06-29 11:10:22.281250,13.56,72.77
279370,2018-06-29 11:10:22.312500,4.61,72.77
279371,2018-06-29 11:10:22.343750,-3.45,72.77
279372,2018-06-29 11:10:22.375000,-12.07,72.77
279373,2018-06-29 11:10:22.406250,-21.51,72.77
279374,2018-06-29 11:10:22.437500,-29.79,72.77
279375,2018-06-29 11:10:22.468750,-36.35,72.77
279376,2018-06-29 11:10:22.500000,-43.41,72.77
279377,2018-06-29 11:10:22.531250,-53.39,72.83
279378,2018-06-29 11:10:22.562500,-64.43,72.83
279379,2018-06-29 11:10:22.593750,-68.12,72.83
279380,2018-06-29 11:10:22.625000,-55.79,72.83
279381,2018-06-29 11:10:22.656250,-29.61,72.83
279382,2018-06-29 11:10:22.687500,-2.47,72.83
279383,2018-06-29 11:10:22.718750,14.57,72.83
279384,2018-06-29 11:10:22.750000,20.26,72.83
279385,2018-06-29 11:10:22.781250,18.41,72.83
279386,2018-06-29 11:10:22.812500,12.63,72.83
279387,2018-06-29 11:10:22.843750,6.93,72.83
279388,2018-06-29 11:10:22.875000,5.28,72.83
279389,2018-06-29 11:10:22.906250,7.82,72.83
279390,2018-06-29 11:10:22.937500,10.78,72.83
279391,2018-06-29 11:10:22.968750,11.12,72.83
279392,2018-06-29 11:10:23.000000,9.21,72.83
279393,2018-06-29 11:10:23.031250,6.42,72.83
279394,2018-06-29 11:10:23.062500,2.29,72.83
279395,2018-06-29 11:10:23.093750,-4.39,72.83
279396,2018-06-29 11:10:23.125000,-12.72,72.83
279397,2018-06-29 11:10:23.156250,-19.96,72.83
279398,2018-06-29 11:10:23.187500,-25.09,72.83
279399,2018-06-29 11:10:23.218750,-29.72,72.83
279400,2018-06-29 11:10:23.250000,-36.17,72.83
279401,2018-06-29 11:10:23.281250,-45.39,72.83
279402,2018-06-29 11:10:23.312500,-54.07,72.83
279403,2018-06-29 11:10:23.343750,-53.65,72.83
279404,2018-06-29 11:10:23.375000,-37.93,72.83
279405,2018-06-29 11:10:23.406250,-11.27,72.83
279406,2018-06-29 11:10:23.437500,14.97,72.83
279407,2018-06-29 11:10:23.468750,32.6,72.83
279408,2018-06-29 11:10:23.500000,40.03,72.83
279409,2018-06-29 11:10:23.531250,38.61,72.9
279410,2018-06-29 11:10:23.562500,30.99,72.9
279411,2018-06-29 11:10:23.593750,21.9,72.9
279412,2018-06-29 11:10:23.625000,16.6,72.9
279413,2018-06-29 11:10:23.656250,16.94,72.9
279414,2018-06-29 11:10:23.687500,19.97,72.9
279415,2018-06-29 11:10:23.718750,21.63,72.9
279416,2018-06-29 11:10:23.750000,20.1,72.9
279417,2018-06-29 11:10:23.781250,15.51,72.9
279418,2018-06-29 11:10:23.812500,8.25,72.9
279419,2018-06-29 11:10:23.843750,-1.32,72.9
279420,2018-06-29 11:10:23.875000,-12.71,72.9
279421,2018-06-29 11:10:23.906250,-25.12,72.9
279422,2018-06-29 11:10:23.937500,-36.87,72.9
279423,2018-06-29 11:10:23.968750,-46.17,72.9
279424,2018-06-29 11:10:24.000000,-53.6,72.9
279425,2018-06-29 11:10:24.031250,-62.66,72.9
279426,2018-06-29 11:10:24.062500,-74.82,72.9
279427,2018-06-29 11:10:24.093750,-83.04,72.9
279428,2018-06-29 11:10:24.125000,-74.81,72.9
279429,2018-06-29 11:10:24.156250,-46.16,72.9
279430,2018-06-29 11:10:24.187500,-8.52,72.9
279431,2018-06-29 11:10:24.218750,22.42,72.9
279432,2018-06-29 11:10:24.250000,39.86,72.9
279433,2018-06-29 11:10:24.281250,45.56,72.9
279434,2018-06-29 11:10:24.312500,43.22,72.9
279435,2018-06-29 11:10:24.343750,36.86,72.9
279436,2018-06-29 11:10:24.375000,31.58,72.9
279437,2018-06-29 11:10:24.406250,31.02,72.9
279438,2018-06-29 11:10:24.437500,33.75,72.9
279439,2018-06-29 11:10:24.468750,35.11,72.9
279440,2018-06-29 11:10:24.500000,33.19,72.9
279441,2018-06-29 11:10:24.531250,29.7,72.97
279442,2018-06-29 11:10:24.562500,25.51,72.97
279443,2018-06-29 11:10:24.593750,19.29,72.97
279444,2018-06-29 11:10:24.625000,10.31,72.97
279445,2018-06-29 11:10:24.656250,-0.52,72.97
279446,2018-06-29 11:10:24.687500,-11.72,72.97
279447,2018-06-29 11:10:24.718750,-21.7,72.97
279448,2018-06-29 11:10:24.750000,-29.77,72.97
279449,2018-06-29 11:10:24.781250,-37.62,72.97
279450,2018-06-29 11:10:24.812500,-47.89,72.97
279451,2018-06-29 11:10:24.843750,-58.28,72.97
279452,2018-06-29 11:10:24.875000,-58.49,72.97
279453,2018-06-29 11:10:24.906250,-39.44,72.97
279454,2018-06-29 11:10:24.937500,-6.12,72.97
279455,2018-06-29 11:10:24.968750,25.79,72.97
279456,2018-06-29 11:10:25.000000,45.77,72.97
279457,2018-06-29 11:10:25.031250,53.71,72.97
279458,2018-06-29 11:10:25.062500,52.8,72.97
279459,2018-06-29 11:10:25.093750,45.99,72.97
279460,2018-06-29 11:10:25.125000,37.65,72.97
279461,2018-06-29 11:10:25.156250,32.47,72.97
279462,2018-06-29 11:10:25.187500,31.93,72.97
279463,2018-06-29 11:10:25.218750,33.8,72.97
279464,2018-06-29 11:10:25.250000,34.9,72.97
279465,2018-06-29 11:10:25.281250,33.05,72.97
279466,2018-06-29 11:10:25.312500,27.42,72.97
279467,2018-06-29 11:10:25.343750,18.74,72.97
279468,2018-06-29 11:10:25.375000,8.57,72.97
279469,2018-06-29 11:10:25.406250,-2.0,72.97
279470,2018-06-29 11:10:25.437500,-12.32,72.97
279471,2018-06-29 11:10:25.468750,-21.39,72.97
279472,2018-06-29 11:10:25.500000,-28.77,72.97
279473,2018-06-29 11:10:25.531250,-35.63,73.0
279474,2018-06-29 11:10:25.562500,-43.98,73.0
279475,2018-06-29 11:10:25.593750,-54.81,73.0
279476,2018-06-29 11:10:25.625000,-65.05,73.0
279477,2018-06-29 11:10:25.656250,-65.6,73.0
279478,2018-06-29 11:10:25.687500,-48.12,73.0
279479,2018-06-29 11:10:25.718750,-15.83,73.0
279480,2018-06-29 11:10:25.750000,17.42,73.0
279481,2018-06-29 11:10:25.781250,39.92,73.0
279482,2018-06-29 11:10:25.812500,49.16,73.0
279483,2018-06-29 11:10:25.843750,47.99,73.0
279484,2018-06-29 11:10:25.875000,40.98,73.0
279485,2018-06-29 11:10:25.906250,33.63,73.0
279486,2018-06-29 11:10:25.937500,29.96,73.0
279487,2018-06-29 11:10:25.968750,30.29,73.0
279488,2018-06-29 11:10:26.000000,32.28,73.0
279489,2018-06-29 11:10:26.031250,33.66,73.0
279490,2018-06-29 11:10:26.062500,33.01,73.0
279491,2018-06-29 11:10:26.093750,29.15,73.0
279492,2018-06-29 11:10:26.125000,21.89,73.0
279493,2018-06-29 11:10:26.156250,12.96,73.0
279494,2018-06-29 11:10:26.187500,4.55,73.0
279495,2018-06-29 11:10:26.218750,-3.17,73.0
279496,2018-06-29 11:10:26.250000,-11.43,73.0
279497,2018-06-29 11:10:26.281250,-20.37,73.0
279498,2018-06-29 11:10:26.312500,-28.25,73.0
279499,2018-06-29 11:10:26.343750,-33.87,73.0
279500,2018-06-29 11:10:26.375000,-39.6,73.0
279501,2018-06-29 11:10:26.406250,-49.34,73.0
279502,2018-06-29 11:10:26.437500,-60.43,73.0
279503,2018-06-29 11:10:26.468750,-61.36,73.0
279504,2018-06-29 11:10:26.500000,-43.39,73.0
279505,2018-06-29 11:10:26.531250,-12.35,73.03
279506,2018-06-29 11:10:26.562500,16.79,73.03
279507,2018-06-29 11:10:26.593750,34.24,73.03
279508,2018-06-29 11:10:26.625000,39.01,73.03
279509,2018-06-29 11:10:26.656250,33.54,73.03
279510,2018-06-29 11:10:26.687500,22.79,73.03
279511,2018-06-29 11:10:26.718750,14.37,73.03
279512,2018-06-29 11:10:26.750000,12.99,73.03
279513,2018-06-29 11:10:26.781250,16.35,73.03
279514,2018-06-29 11:10:26.812500,19.34,73.03
279515,2018-06-29 11:10:26.843750,19.55,73.03
279516,2018-06-29 11:10:26.875000,17.28,73.03
279517,2018-06-29 11:10:26.906250,13.29,73.03
279518,2018-06-29 11:10:26.937500,7.75,73.03
279519,2018-06-29 11:10:26.968750,0.0,73.03
279520,2018-06-29 11:10:27.000000,-9.86,73.03
279521,2018-06-29 11:10:27.031250,-19.5,73.03
279522,2018-06-29 11:10:27.062500,-26.36,73.03
279523,2018-06-29 11:10:27.093750,-30.46,73.03
279524,2018-06-29 11:10:27.125000,-34.24,73.03
279525,2018-06-29 11:10:27.156250,-40.52,73.03
279526,2018-06-29 11:10:27.187500,-49.79,73.03
279527,2018-06-29 11:10:27.218750,-56.54,73.03
279528,2018-06-29 11:10:27.250000,-50.63,73.03
279529,2018-06-29 11:10:27.281250,-28.04,73.03
279530,2018-06-29 11:10:27.312500,2.21,73.03
279531,2018-06-29 11:10:27.343750,26.87,73.03
279532,2018-06-29 11:10:27.375000,40.02,73.03
279533,2018-06-29 11:10:27.406250,42.33,73.03
279534,2018-06-29 11:10:27.437500,36.36,73.03
279535,2018-06-29 11:10:27.468750,27.19,73.03
279536,2018-06-29 11:10:27.500000,21.11,73.03
279537,2018-06-29 11:10:27.531250,20.15,73.05
279538,2018-06-29 11:10:27.562500,21.08,73.05
279539,2018-06-29 11:10:27.593750,19.92,73.05
279540,2018-06-29 11:10:27.625000,15.77,73.05
279541,2018-06-29 11:10:27.656250,10.38,73.05
279542,2018-06-29 11:10:27.687500,4.7,73.05
279543,2018-06-29 11:10:27.718750,-2.7,73.05
279544,2018-06-29 11:10:27.750000,-12.65,73.05
279545,2018-06-29 11:10:27.781250,-23.1,73.05
279546,2018-06-29 11:10:27.812500,-31.73,73.05
279547,2018-06-29 11:10:27.843750,-38.86,73.05
279548,2018-06-29 11:10:27.875000,-46.81,73.05
279549,2018-06-29 11:10:27.906250,-57.28,73.05
279550,2018-06-29 11:10:27.937500,-67.4,73.05
279551,2018-06-29 11:10:27.968750,-68.13,73.05
279552,2018-06-29 11:10:28.000000,-50.99,73.05
279553,2018-06-29 11:10:28.031250,-18.72,73.05
279554,2018-06-29 11:10:28.062500,15.17,73.05
279555,2018-06-29 11:10:28.093750,38.67,73.05
279556,2018-06-29 11:10:28.125000,48.93,73.05
279557,2018-06-29 11:10:28.156250,48.75,73.05
279558,2018-06-29 11:10:28.187500,42.03,73.05
279559,2018-06-29 11:10:28.218750,34.17,73.05
279560,2018-06-29 11:10:28.250000,30.53,73.05
279561,2018-06-29 11:10:28.281250,31.66,73.05
279562,2018-06-29 11:10:28.312500,33.0,73.05
279563,2018-06-29 11:10:28.343750,31.11,73.05
279564,2018-06-29 11:10:28.375000,27.05,73.05
279565,2018-06-29 11:10:28.406250,22.41,73.05
279566,2018-06-29 11:10:28.437500,15.23,73.05
279567,2018-06-29 11:10:28.468750,3.35,73.05
279568,2018-06-29 11:10:28.500000,-10.85,73.05
279569,2018-06-29 11:10:28.531250,-22.89,73.1
279570,2018-06-29 11:10:28.562500,-31.28,73.1
279571,2018-06-29 11:10:28.593750,-38.23,73.1
279572,2018-06-29 11:10:28.625000,-47.09,73.1
279573,2018-06-29 11:10:28.656250,-58.31,73.1
279574,2018-06-29 11:10:28.687500,-64.83,73.1
279575,2018-06-29 11:10:28.718750,-55.36,73.1
279576,2018-06-29 11:10:28.750000,-27.18,73.1
279577,2018-06-29 11:10:28.781250,7.88,73.1
279578,2018-06-29 11:10:28.812500,34.93,73.1
279579,2018-06-29 11:10:28.843750,48.52,73.1
279580,2018-06-29 11:10:28.875000,51.3,73.1
279581,2018-06-29 11:10:28.906250,46.92,73.1
279582,2018-06-29 11:10:28.937500,39.23,73.1
279583,2018-06-29 11:10:28.968750,33.62,73.1
279584,2018-06-29 11:10:29.000000,33.38,73.1
279585,2018-06-29 11:10:29.031250,36.13,73.1
279586,2018-06-29 11:10:29.062500,37.19,73.1
279587,2018-06-29 11:10:29.093750,34.73,73.1
279588,2018-06-29 11:10:29.125000,29.55,73.1
279589,2018-06-29 11:10:29.156250,22.08,73.1
279590,2018-06-29 11:10:29.187500,12.03,73.1
279591,2018-06-29 11:10:29.218750,0.05,73.1
279592,2018-06-29 11:10:29.250000,-11.55,73.1
279593,2018-06-29 11:10:29.281250,-20.79,73.1
279594,2018-06-29 11:10:29.312500,-28.31,73.1
279595,2018-06-29 11:10:29.343750,-36.14,73.1
279596,2018-06-29 11:10:29.375000,-45.54,73.1
279597,2018-06-29 11:10:29.406250,-56.44,73.1
279598,2018-06-29 11:10:29.437500,-63.86,73.1
279599,2018-06-29 11:10:29.468750,-57.11,73.1
279600,2018-06-29 11:10:29.500000,-31.79,73.1
279601,2018-06-29 11:10:29.531250,0.81,73.15
279602,2018-06-29 11:10:29.562500,25.06,73.15
279603,2018-06-29 11:10:29.593750,36.01,73.15
279604,2018-06-29 11:10:29.625000,36.86,73.15
279605,2018-06-29 11:10:29.656250,30.36,73.15
279606,2018-06-29 11:10:29.687500,20.68,73.15
279607,2018-06-29 11:10:29.718750,14.87,73.15
279608,2018-06-29 11:10:29.750000,15.84,73.15
279609,2018-06-29 11:10:29.781250,18.86,73.15
279610,2018-06-29 11:10:29.812500,18.62,73.15
279611,2018-06-29 11:10:29.843750,15.16,73.15
279612,2018-06-29 11:10:29.875000,10.67,73.15
279613,2018-06-29 11:10:29.906250,5.02,73.15
279614,2018-06-29 11:10:29.937500,-3.3,73.15
279615,2018-06-29 11:10:29.968750,-13.67,73.15
279616,2018-06-29 11:10:30.000000,-23.12,73.15
279617,2018-06-29 11:10:30.031250,-30.06,73.15
279618,2018-06-29 11:10:30.062500,-36.13,73.15
279619,2018-06-29 11:10:30.093750,-43.73,73.15
279620,2018-06-29 11:10:30.125000,-53.81,73.15
279621,2018-06-29 11:10:30.156250,-63.11,73.15
279622,2018-06-29 11:10:30.187500,-61.89,73.15
279623,2018-06-29 11:10:30.218750,-41.99,73.15
279624,2018-06-29 11:10:30.250000,-9.4,73.15
279625,2018-06-29 11:10:30.281250,20.36,73.15
279626,2018-06-29 11:10:30.312500,38.57,73.15
279627,2018-06-29 11:10:30.343750,45.67,73.15
279628,2018-06-29 11:10:30.375000,42.95,73.15
279629,2018-06-29 11:10:30.406250,33.03,73.15
279630,2018-06-29 11:10:30.437500,23.61,73.15
279631,2018-06-29 11:10:30.468750,21.02,73.15
279632,2018-06-29 11:10:30.500000,22.98,73.15
279633,2018-06-29 11:10:30.531250,23.47,73.23
279634,2018-06-29 11:10:30.562500,20.77,73.23
279635,2018-06-29 11:10:30.593750,16.85,73.23
279636,2018-06-29 11:10:30.625000,12.14,73.23
279637,2018-06-29 11:10:30.656250,4.45,73.23
279638,2018-06-29 11:10:30.687500,-7.04,73.23
279639,2018-06-29 11:10:30.718750,-19.3,73.23
279640,2018-06-29 11:10:30.750000,-28.93,73.23
279641,2018-06-29 11:10:30.781250,-36.75,73.23
279642,2018-06-29 11:10:30.812500,-46.74,73.23
279643,2018-06-29 11:10:30.843750,-60.71,73.23
279644,2018-06-29 11:10:30.875000,-73.74,73.23
279645,2018-06-29 11:10:30.906250,-74.31,73.23
279646,2018-06-29 11:10:30.937500,-53.87,73.23
279647,2018-06-29 11:10:30.968750,-18.27,73.23
279648,2018-06-29 11:10:31.000000,16.38,73.23
279649,2018-06-29 11:10:31.031250,39.25,73.23
279650,2018-06-29 11:10:31.062500,49.95,73.23
279651,2018-06-29 11:10:31.093750,51.2,73.23
279652,2018-06-29 11:10:31.125000,45.79,73.23
279653,2018-06-29 11:10:31.156250,38.82,73.23
279654,2018-06-29 11:10:31.187500,35.41,73.23
279655,2018-06-29 11:10:31.218750,35.44,73.23
279656,2018-06-29 11:10:31.250000,34.95,73.23
279657,2018-06-29 11:10:31.281250,31.96,73.23
279658,2018-06-29 11:10:31.312500,27.71,73.23
279659,2018-06-29 11:10:31.343750,22.79,73.23
279660,2018-06-29 11:10:31.375000,15.49,73.23
279661,2018-06-29 11:10:31.406250,4.66,73.23
279662,2018-06-29 11:10:31.437500,-7.98,73.23
279663,2018-06-29 11:10:31.468750,-19.3,73.23
279664,2018-06-29 11:10:31.500000,-27.97,73.23
279665,2018-06-29 11:10:31.531250,-35.76,73.3
279666,2018-06-29 11:10:31.562500,-45.88,73.3
279667,2018-06-29 11:10:31.593750,-58.95,73.3
279668,2018-06-29 11:10:31.625000,-68.67,73.3
279669,2018-06-29 11:10:31.656250,-63.92,73.3
279670,2018-06-29 11:10:31.687500,-39.89,73.3
279671,2018-06-29 11:10:31.718750,-5.58,73.3
279672,2018-06-29 11:10:31.750000,24.11,73.3
279673,2018-06-29 11:10:31.781250,41.43,73.3
279674,2018-06-29 11:10:31.812500,47.13,73.3
279675,2018-06-29 11:10:31.843750,44.36,73.3
279676,2018-06-29 11:10:31.875000,37.57,73.3
279677,2018-06-29 11:10:31.906250,32.61,73.3
279678,2018-06-29 11:10:31.937500,31.78,73.3
279679,2018-06-29 11:10:31.968750,31.76,73.3
279680,2018-06-29 11:10:32.000000,29.41,73.3
279681,2018-06-29 11:10:32.031250,25.68,73.3
279682,2018-06-29 11:10:32.062500,21.93,73.3
279683,2018-06-29 11:10:32.093750,16.41,73.3
279684,2018-06-29 11:10:32.125000,6.84,73.3
279685,2018-06-29 11:10:32.156250,-5.16,73.3
279686,2018-06-29 11:10:32.187500,-15.18,73.3
279687,2018-06-29 11:10:32.218750,-21.67,73.3
279688,2018-06-29 11:10:32.250000,-28.14,73.3
279689,2018-06-29 11:10:32.281250,-38.48,73.3
279690,2018-06-29 11:10:32.312500,-50.72,73.3
279691,2018-06-29 11:10:32.343750,-55.38,73.3
279692,2018-06-29 11:10:32.375000,-42.82,73.3
279693,2018-06-29 11:10:32.406250,-14.89,73.3
279694,2018-06-29 11:10:32.437500,15.09,73.3
279695,2018-06-29 11:10:32.468750,35.79,73.3
279696,2018-06-29 11:10:32.500000,45.32,73.3
279697,2018-06-29 11:10:32.531250,45.66,73.38
279698,2018-06-29 11:10:32.562500,38.96,73.38
279699,2018-06-29 11:10:32.593750,30.41,73.38
279700,2018-06-29 11:10:32.625000,26.38,73.38
279701,2018-06-29 11:10:32.656250,27.76,73.38
279702,2018-06-29 11:10:32.687500,29.66,73.38
279703,2018-06-29 11:10:32.718750,28.2,73.38
279704,2018-06-29 11:10:32.750000,24.3,73.38
279705,2018-06-29 11:10:32.781250,19.99,73.38
279706,2018-06-29 11:10:32.812500,14.17,73.38
279707,2018-06-29 11:10:32.843750,4.65,73.38
279708,2018-06-29 11:10:32.875000,-7.27,73.38
279709,2018-06-29 11:10:32.906250,-17.52,73.38
279710,2018-06-29 11:10:32.937500,-24.29,73.38
279711,2018-06-29 11:10:32.968750,-29.54,73.38
279712,2018-06-29 11:10:33.000000,-36.1,73.38
279713,2018-06-29 11:10:33.031250,-45.09,73.38
279714,2018-06-29 11:10:33.062500,-52.92,73.38
279715,2018-06-29 11:10:33.093750,-50.19,73.38
279716,2018-06-29 11:10:33.125000,-30.27,73.38
279717,2018-06-29 11:10:33.156250,0.6,73.38
279718,2018-06-29 11:10:33.187500,28.04,73.38
279719,2018-06-29 11:10:33.218750,43.31,73.38
279720,2018-06-29 11:10:33.250000,46.79,73.38
279721,2018-06-29 11:10:33.281250,42.4,73.38
279722,2018-06-29 11:10:33.312500,35.09,73.38
279723,2018-06-29 11:10:33.343750,30.67,73.38
279724,2018-06-29 11:10:33.375000,31.86,73.38
279725,2018-06-29 11:10:33.406250,35.83,73.38
279726,2018-06-29 11:10:33.437500,38.02,73.38
279727,2018-06-29 11:10:33.468750,37.22,73.38
279728,2018-06-29 11:10:33.500000,34.68,73.38
279729,2018-06-29 11:10:33.531250,30.12,73.45
279730,2018-06-29 11:10:33.562500,22.17,73.45
279731,2018-06-29 11:10:33.593750,11.97,73.45
279732,2018-06-29 11:10:33.625000,3.18,73.45
279733,2018-06-29 11:10:33.656250,-2.28,73.45
279734,2018-06-29 11:10:33.687500,-5.64,73.45
279735,2018-06-29 11:10:33.718750,-9.17,73.45
279736,2018-06-29 11:10:33.750000,-14.61,73.45
279737,2018-06-29 11:10:33.781250,-22.38,73.45
279738,2018-06-29 11:10:33.812500,-30.62,73.45
279739,2018-06-29 11:10:33.843750,-36.93,73.45
279740,2018-06-29 11:10:33.875000,-41.67,73.45
279741,2018-06-29 11:10:33.906250,-47.91,73.45
279742,2018-06-29 11:10:33.937500,-57.41,73.45
279743,2018-06-29 11:10:33.968750,-66.16,73.45
279744,2018-06-29 11:10:34.000000,-64.25,73.45
279745,2018-06-29 11:10:34.031250,-45.06,73.45
279746,2018-06-29 11:10:34.062500,-15.17,73.45
279747,2018-06-29 11:10:34.093750,10.97,73.45
279748,2018-06-29 11:10:34.125000,25.01,73.45
279749,2018-06-29 11:10:34.156250,27.64,73.45
279750,2018-06-29 11:10:34.187500,22.04,73.45
279751,2018-06-29 11:10:34.218750,12.4,73.45
279752,2018-06-29 11:10:34.250000,5.16,73.45
279753,2018-06-29 11:10:34.281250,4.45,73.45
279754,2018-06-29 11:10:34.312500,8.15,73.45
279755,2018-06-29 11:10:34.343750,11.33,73.45
279756,2018-06-29 11:10:34.375000,11.82,73.45
279757,2018-06-29 11:10:34.406250,10.78,73.45
279758,2018-06-29 11:10:34.437500,9.62,73.45
279759,2018-06-29 11:10:34.468750,7.95,73.45
279760,2018-06-29 11:10:34.500000,4.76,73.45
279761,2018-06-29 11:10:34.531250,0.68,73.57
279762,2018-06-29 11:10:34.562500,-2.64,73.57
279763,2018-06-29 11:10:34.593750,-4.76,73.57
279764,2018-06-29 11:10:34.625000,-6.5,73.57
279765,2018-06-29 11:10:34.656250,-9.14,73.57
279766,2018-06-29 11:10:34.687500,-13.24,73.57
279767,2018-06-29 11:10:34.718750,-17.63,73.57
279768,2018-06-29 11:10:34.750000,-20.99,73.57
279769,2018-06-29 11:10:34.781250,-24.89,73.57
279770,2018-06-29 11:10:34.812500,-32.9,73.57
279771,2018-06-29 11:10:34.843750,-45.77,73.57
279772,2018-06-29 11:10:34.875000,-56.27,73.57
279773,2018-06-29 11:10:34.906250,-51.96,73.57
279774,2018-06-29 11:10:34.937500,-28.58,73.57
279775,2018-06-29 11:10:34.968750,2.48,73.57
279776,2018-06-29 11:10:35.000000,26.07,73.57
279777,2018-06-29 11:10:35.031250,36.96,73.57
279778,2018-06-29 11:10:35.062500,37.64,73.57
279779,2018-06-29 11:10:35.093750,31.38,73.57
279780,2018-06-29 11:10:35.125000,22.75,73.57
279781,2018-06-29 11:10:35.156250,17.67,73.57
279782,2018-06-29 11:10:35.187500,18.19,73.57
279783,2018-06-29 11:10:35.218750,21.06,73.57
279784,2018-06-29 11:10:35.250000,22.96,73.57
279785,2018-06-29 11:10:35.281250,23.83,73.57
279786,2018-06-29 11:10:35.312500,24.23,73.57
279787,2018-06-29 11:10:35.343750,22.9,73.57
279788,2018-06-29 11:10:35.375000,18.43,73.57
279789,2018-06-29 11:10:35.406250,11.53,73.57
279790,2018-06-29 11:10:35.437500,4.5,73.57
279791,2018-06-29 11:10:35.468750,-1.32,73.57
279792,2018-06-29 11:10:35.500000,-6.85,73.57
279793,2018-06-29 11:10:35.531250,-13.37,73.67
279794,2018-06-29 11:10:35.562500,-20.2,73.67
279795,2018-06-29 11:10:35.593750,-25.9,73.67
279796,2018-06-29 11:10:35.625000,-30.55,73.67
279797,2018-06-29 11:10:35.656250,-35.6,73.67
279798,2018-06-29 11:10:35.687500,-42.54,73.67
279799,2018-06-29 11:10:35.718750,-52.44,73.67
279800,2018-06-29 11:10:35.750000,-62.75,73.67
279801,2018-06-29 11:10:35.781250,-64.41,73.67
279802,2018-06-29 11:10:35.812500,-48.88,73.67
279803,2018-06-29 11:10:35.843750,-19.47,73.67
279804,2018-06-29 11:10:35.875000,10.38,73.67
279805,2018-06-29 11:10:35.906250,29.83,73.67
279806,2018-06-29 11:10:35.937500,36.86,73.67
279807,2018-06-29 11:10:35.968750,34.92,73.67
279808,2018-06-29 11:10:36.000000,28.81,73.67
279809,2018-06-29 11:10:36.031250,22.94,73.67
279810,2018-06-29 11:10:36.062500,20.32,73.67
279811,2018-06-29 11:10:36.093750,21.66,73.67
279812,2018-06-29 11:10:36.125000,25.03,73.67
279813,2018-06-29 11:10:36.156250,27.47,73.67
279814,2018-06-29 11:10:36.187500,27.8,73.67
279815,2018-06-29 11:10:36.218750,26.35,73.67
279816,2018-06-29 11:10:36.250000,22.58,73.67
279817,2018-06-29 11:10:36.281250,15.63,73.67
279818,2018-06-29 11:10:36.312500,7.12,73.67
279819,2018-06-29 11:10:36.343750,0.47,73.67
279820,2018-06-29 11:10:36.375000,-3.21,73.67
279821,2018-06-29 11:10:36.406250,-6.26,73.67
279822,2018-06-29 11:10:36.437500,-11.09,73.67
279823,2018-06-29 11:10:36.468750,-17.3,73.67
279824,2018-06-29 11:10:36.500000,-23.14,73.67
279825,2018-06-29 11:10:36.531250,-28.28,73.77
279826,2018-06-29 11:10:36.562500,-34.11,73.77
279827,2018-06-29 11:10:36.593750,-42.24,73.77
279828,2018-06-29 11:10:36.625000,-52.66,73.77
279829,2018-06-29 11:10:36.656250,-60.03,73.77
279830,2018-06-29 11:10:36.687500,-54.07,73.77
279831,2018-06-29 11:10:36.718750,-30.32,73.77
279832,2018-06-29 11:10:36.750000,1.45,73.77
279833,2018-06-29 11:10:36.781250,26.49,73.77
279834,2018-06-29 11:10:36.812500,38.75,73.77
279835,2018-06-29 11:10:36.843750,40.49,73.77
279836,2018-06-29 11:10:36.875000,35.01,73.77
279837,2018-06-29 11:10:36.906250,26.25,73.77
279838,2018-06-29 11:10:36.937500,19.82,73.77
279839,2018-06-29 11:10:36.968750,19.27,73.77
279840,2018-06-29 11:10:37.000000,23.26,73.77
279841,2018-06-29 11:10:37.031250,27.74,73.77
279842,2018-06-29 11:10:37.062500,29.66,73.77
279843,2018-06-29 11:10:37.093750,28.68,73.77
279844,2018-06-29 11:10:37.125000,25.88,73.77
279845,2018-06-29 11:10:37.156250,21.54,73.77
279846,2018-06-29 11:10:37.187500,14.99,73.77
279847,2018-06-29 11:10:37.218750,6.93,73.77
279848,2018-06-29 11:10:37.250000,-0.31,73.77
279849,2018-06-29 11:10:37.281250,-4.96,73.77
279850,2018-06-29 11:10:37.312500,-7.03,73.77
279851,2018-06-29 11:10:37.343750,-7.82,73.77
279852,2018-06-29 11:10:37.375000,-8.45,73.77
279853,2018-06-29 11:10:37.406250,-9.27,73.77
279854,2018-06-29 11:10:37.437500,-11.21,73.77
279855,2018-06-29 11:10:37.468750,-16.18,73.77
279856,2018-06-29 11:10:37.500000,-25.22,73.77
279857,2018-06-29 11:10:37.531250,-35.2,73.83
279858,2018-06-29 11:10:37.562500,-36.92,73.83
279859,2018-06-29 11:10:37.593750,-21.04,73.83
279860,2018-06-29 11:10:37.625000,9.79,73.83
279861,2018-06-29 11:10:37.656250,40.41,73.83
279862,2018-06-29 11:10:37.687500,60.2,73.83
279863,2018-06-29 11:10:37.718750,71.32,73.83
279864,2018-06-29 11:10:37.750000,75.94,73.83
279865,2018-06-29 11:10:37.781250,69.86,73.83
279866,2018-06-29 11:10:37.812500,54.78,73.83
279867,2018-06-29 11:10:37.843750,42.74,73.83
279868,2018-06-29 11:10:37.875000,41.17,73.83
279869,2018-06-29 11:10:37.906250,45.28,73.83
279870,2018-06-29 11:10:37.937500,48.79,73.83
279871,2018-06-29 11:10:37.968750,51.51,73.83
279872,2018-06-29 11:10:38.000000,53.94,73.83
279873,2018-06-29 11:10:38.031250,52.45,73.83
279874,2018-06-29 11:10:38.062500,42.24,73.83
279875,2018-06-29 11:10:38.093750,21.82,73.83
279876,2018-06-29 11:10:38.125000,-5.58,73.83
279877,2018-06-29 11:10:38.156250,-33.72,73.83
279878,2018-06-29 11:10:38.187500,-56.73,73.83
279879,2018-06-29 11:10:38.218750,-71.53,73.83
279880,2018-06-29 11:10:38.250000,-80.28,73.83
279881,2018-06-29 11:10:38.281250,-90.42,73.83
279882,2018-06-29 11:10:38.312500,-108.56,73.83
279883,2018-06-29 11:10:38.343750,-132.01,73.83
279884,2018-06-29 11:10:38.375000,-147.75,73.83
279885,2018-06-29 11:10:38.406250,-142.77,73.83
279886,2018-06-29 11:10:38.437500,-116.25,73.83
279887,2018-06-29 11:10:38.468750,-80.41,73.83
279888,2018-06-29 11:10:38.500000,-49.78,73.83
279889,2018-06-29 11:10:38.531250,-32.52,73.9
279890,2018-06-29 11:10:38.562500,-29.68,73.9
279891,2018-06-29 11:10:38.593750,-37.81,73.9
279892,2018-06-29 11:10:38.625000,-50.83,73.9
279893,2018-06-29 11:10:38.656250,-61.57,73.9
279894,2018-06-29 11:10:38.687500,-64.04,73.9
279895,2018-06-29 11:10:38.718750,-56.6,73.9
279896,2018-06-29 11:10:38.750000,-42.14,73.9
279897,2018-06-29 11:10:38.781250,-25.19,73.9
279898,2018-06-29 11:10:38.812500,-10.49,73.9
279899,2018-06-29 11:10:38.843750,-2.46,73.9
279900,2018-06-29 11:10:38.875000,-1.77,73.9
279901,2018-06-29 11:10:38.906250,-4.29,73.9
279902,2018-06-29 11:10:38.937500,-6.46,73.9
279903,2018-06-29 11:10:38.968750,-9.4,73.9
279904,2018-06-29 11:10:39.000000,-15.63,73.9
279905,2018-06-29 11:10:39.031250,-24.29,73.9
279906,2018-06-29 11:10:39.062500,-32.44,73.9
279907,2018-06-29 11:10:39.093750,-39.46,73.9
279908,2018-06-29 11:10:39.125000,-47.98,73.9
279909,2018-06-29 11:10:39.156250,-61.2,73.9
279910,2018-06-29 11:10:39.187500,-77.25,73.9
279911,2018-06-29 11:10:39.218750,-83.88,73.9
279912,2018-06-29 11:10:39.250000,-66.38,73.9
279913,2018-06-29 11:10:39.281250,-25.75,73.9
279914,2018-06-29 11:10:39.312500,19.3,73.9
279915,2018-06-29 11:10:39.343750,51.32,73.9
279916,2018-06-29 11:10:39.375000,65.99,73.9
279917,2018-06-29 11:10:39.406250,66.63,73.9
279918,2018-06-29 11:10:39.437500,59.28,73.9
279919,2018-06-29 11:10:39.468750,52.63,73.9
279920,2018-06-29 11:10:39.500000,52.91,73.9
279921,2018-06-29 11:10:39.531250,58.89,73.92
279922,2018-06-29 11:10:39.562500,65.38,73.92
279923,2018-06-29 11:10:39.593750,69.9,73.92
279924,2018-06-29 11:10:39.625000,72.8,73.92
279925,2018-06-29 11:10:39.656250,72.8,73.92
279926,2018-06-29 11:10:39.687500,67.08,73.92
279927,2018-06-29 11:10:39.718750,56.47,73.92
279928,2018-06-29 11:10:39.750000,45.19,73.92
279929,2018-06-29 11:10:39.781250,34.16,73.92
279930,2018-06-29 11:10:39.812500,20.47,73.92
279931,2018-06-29 11:10:39.843750,4.21,73.92
279932,2018-06-29 11:10:39.875000,-10.56,73.92
279933,2018-06-29 11:10:39.906250,-22.06,73.92
279934,2018-06-29 11:10:39.937500,-33.54,73.92
279935,2018-06-29 11:10:39.968750,-49.46,73.92
279936,2018-06-29 11:10:40.000000,-68.66,73.92
279937,2018-06-29 11:10:40.031250,-79.79,73.92
279938,2018-06-29 11:10:40.062500,-68.44,73.92
279939,2018-06-29 11:10:40.093750,-32.82,73.92
279940,2018-06-29 11:10:40.125000,12.41,73.92
279941,2018-06-29 11:10:40.156250,49.84,73.92
279942,2018-06-29 11:10:40.187500,70.99,73.92
279943,2018-06-29 11:10:40.218750,76.09,73.92
279944,2018-06-29 11:10:40.250000,70.61,73.92
279945,2018-06-29 11:10:40.281250,62.83,73.92
279946,2018-06-29 11:10:40.312500,59.14,73.92
279947,2018-06-29 11:10:40.343750,60.01,73.92
279948,2018-06-29 11:10:40.375000,62.19,73.92
279949,2018-06-29 11:10:40.406250,63.56,73.92
279950,2018-06-29 11:10:40.437500,63.61,73.92
279951,2018-06-29 11:10:40.468750,60.71,73.92
279952,2018-06-29 11:10:40.500000,52.66,73.92
279953,2018-06-29 11:10:40.531250,40.34,73.85
279954,2018-06-29 11:10:40.562500,27.25,73.85
279955,2018-06-29 11:10:40.593750,14.79,73.85
279956,2018-06-29 11:10:40.625000,1.31,73.85
279957,2018-06-29 11:10:40.656250,-13.57,73.85
279958,2018-06-29 11:10:40.687500,-27.41,73.85
279959,2018-06-29 11:10:40.718750,-38.75,73.85
279960,2018-06-29 11:10:40.750000,-49.27,73.85
279961,2018-06-29 11:10:40.781250,-62.27,73.85
279962,2018-06-29 11:10:40.812500,-78.68,73.85
279963,2018-06-29 11:10:40.843750,-90.46,73.85
279964,2018-06-29 11:10:40.875000,-81.89,73.85
279965,2018-06-29 11:10:40.906250,-46.6,73.85
279966,2018-06-29 11:10:40.937500,0.71,73.85
279967,2018-06-29 11:10:40.968750,38.26,73.85
279968,2018-06-29 11:10:41.000000,56.92,73.85
279969,2018-06-29 11:10:41.031250,59.5,73.85
279970,2018-06-29 11:10:41.062500,51.06,73.85
279971,2018-06-29 11:10:41.093750,38.36,73.85
279972,2018-06-29 11:10:41.125000,29.88,73.85
279973,2018-06-29 11:10:41.156250,29.66,73.85
279974,2018-06-29 11:10:41.187500,34.78,73.85
279975,2018-06-29 11:10:41.218750,40.14,73.85
279976,2018-06-29 11:10:41.250000,42.21,73.85
279977,2018-06-29 11:10:41.281250,38.96,73.85
279978,2018-06-29 11:10:41.312500,30.33,73.85
279979,2018-06-29 11:10:41.343750,18.77,73.85
279980,2018-06-29 11:10:41.375000,6.96,73.85
279981,2018-06-29 11:10:41.406250,-4.47,73.85
279982,2018-06-29 11:10:41.437500,-15.66,73.85
279983,2018-06-29 11:10:41.468750,-26.08,73.85
279984,2018-06-29 11:10:41.500000,-35.87,73.85
279985,2018-06-29 11:10:41.531250,-46.77,73.77
279986,2018-06-29 11:10:41.562500,-60.84,73.77
279987,2018-06-29 11:10:41.593750,-76.86,73.77
279988,2018-06-29 11:10:41.625000,-85.05,73.77
279989,2018-06-29 11:10:41.656250,-71.27,73.77
279990,2018-06-29 11:10:41.687500,-34.01,73.77
279991,2018-06-29 11:10:41.718750,10.06,73.77
279992,2018-06-29 11:10:41.750000,43.12,73.77
279993,2018-06-29 11:10:41.781250,59.93,73.77
279994,2018-06-29 11:10:41.812500,63.0,73.77
279995,2018-06-29 11:10:41.843750,56.23,73.77
279996,2018-06-29 11:10:41.875000,45.83,73.77
279997,2018-06-29 11:10:41.906250,38.83,73.77
279998,2018-06-29 11:10:41.937500,38.08,73.77
279999,2018-06-29 11:10:41.968750,40.85,73.77
280000,2018-06-29 11:10:42.000000,43.16,73.77
280001,2018-06-29 11:10:42.031250,43.14,73.77
280002,2018-06-29 11:10:42.062500,39.72,73.77
280003,2018-06-29 11:10:42.093750,31.92,73.77
280004,2018-06-29 11:10:42.125000,20.8,73.77
280005,2018-06-29 11:10:42.156250,8.24,73.77
280006,2018-06-29 11:10:42.187500,-5.82,73.77
280007,2018-06-29 11:10:42.218750,-21.04,73.77
280008,2018-06-29 11:10:42.250000,-34.3,73.77
280009,2018-06-29 11:10:42.281250,-43.71,73.77
280010,2018-06-29 11:10:42.312500,-52.32,73.77
280011,2018-06-29 11:10:42.343750,-65.11,73.77
280012,2018-06-29 11:10:42.375000,-81.79,73.77
280013,2018-06-29 11:10:42.406250,-91.2,73.77
280014,2018-06-29 11:10:42.437500,-77.46,73.77
280015,2018-06-29 11:10:42.468750,-37.86,73.77
280016,2018-06-29 11:10:42.500000,10.54,73.77
280017,2018-06-29 11:10:42.531250,47.97,73.67
280018,2018-06-29 11:10:42.562500,68.17,73.67
280019,2018-06-29 11:10:42.593750,74.65,73.67
280020,2018-06-29 11:10:42.625000,71.61,73.67
280021,2018-06-29 11:10:42.656250,64.41,73.67
280022,2018-06-29 11:10:42.687500,59.84,73.67
280023,2018-06-29 11:10:42.718750,59.98,73.67
280024,2018-06-29 11:10:42.750000,60.76,73.67
280025,2018-06-29 11:10:42.781250,59.37,73.67
280026,2018-06-29 11:10:42.812500,57.11,73.67
280027,2018-06-29 11:10:42.843750,53.56,73.67
280028,2018-06-29 11:10:42.875000,44.88,73.67
280029,2018-06-29 11:10:42.906250,30.39,73.67
280030,2018-06-29 11:10:42.937500,15.11,73.67
280031,2018-06-29 11:10:42.968750,3.41,73.67
280032,2018-06-29 11:10:43.000000,-6.35,73.67
280033,2018-06-29 11:10:43.031250,-18.06,73.67
280034,2018-06-29 11:10:43.062500,-31.11,73.67
280035,2018-06-29 11:10:43.093750,-41.45,73.67
280036,2018-06-29 11:10:43.125000,-48.31,73.67
280037,2018-06-29 11:10:43.156250,-55.61,73.67
280038,2018-06-29 11:10:43.187500,-67.61,73.67
280039,2018-06-29 11:10:43.218750,-82.63,73.67
280040,2018-06-29 11:10:43.250000,-88.84,73.67
280041,2018-06-29 11:10:43.281250,-71.97,73.67
280042,2018-06-29 11:10:43.312500,-32.75,73.67
280043,2018-06-29 11:10:43.343750,10.7,73.67
280044,2018-06-29 11:10:43.375000,41.74,73.67
280045,2018-06-29 11:10:43.406250,57.37,73.67
280046,2018-06-29 11:10:43.437500,61.2,73.67
280047,2018-06-29 11:10:43.468750,56.64,73.67
280048,2018-06-29 11:10:43.500000,48.9,73.67
280049,2018-06-29 11:10:43.531250,44.33,73.6
280050,2018-06-29 11:10:43.562500,44.76,73.6
280051,2018-06-29 11:10:43.593750,46.98,73.6
280052,2018-06-29 11:10:43.625000,48.04,73.6
280053,2018-06-29 11:10:43.656250,47.34,73.6
280054,2018-06-29 11:10:43.687500,44.43,73.6
280055,2018-06-29 11:10:43.718750,38.14,73.6
280056,2018-06-29 11:10:43.750000,28.34,73.6
280057,2018-06-29 11:10:43.781250,16.98,73.6
280058,2018-06-29 11:10:43.812500,7.0,73.6
280059,2018-06-29 11:10:43.843750,-0.38,73.6
280060,2018-06-29 11:10:43.875000,-7.25,73.6
280061,2018-06-29 11:10:43.906250,-16.21,73.6
280062,2018-06-29 11:10:43.937500,-26.57,73.6
280063,2018-06-29 11:10:43.968750,-35.36,73.6
280064,2018-06-29 11:10:44.000000,-41.63,73.6
280065,2018-06-29 11:10:44.031250,-47.78,73.6
280066,2018-06-29 11:10:44.062500,-57.47,73.6
280067,2018-06-29 11:10:44.093750,-71.89,73.6
280068,2018-06-29 11:10:44.125000,-84.23,73.6
280069,2018-06-29 11:10:44.156250,-80.15,73.6
280070,2018-06-29 11:10:44.187500,-52.41,73.6
280071,2018-06-29 11:10:44.218750,-12.48,73.6
280072,2018-06-29 11:10:44.250000,20.44,73.6
280073,2018-06-29 11:10:44.281250,37.74,73.6
280074,2018-06-29 11:10:44.312500,41.88,73.6
280075,2018-06-29 11:10:44.343750,37.16,73.6
280076,2018-06-29 11:10:44.375000,28.6,73.6
280077,2018-06-29 11:10:44.406250,22.93,73.6
280078,2018-06-29 11:10:44.437500,23.47,73.6
280079,2018-06-29 11:10:44.468750,27.19,73.6
280080,2018-06-29 11:10:44.500000,29.62,73.6
280081,2018-06-29 11:10:44.531250,29.61,73.53
280082,2018-06-29 11:10:44.562500,27.69,73.53
280083,2018-06-29 11:10:44.593750,23.32,73.53
280084,2018-06-29 11:10:44.625000,15.71,73.53
280085,2018-06-29 11:10:44.656250,5.74,73.53
280086,2018-06-29 11:10:44.687500,-3.66,73.53
280087,2018-06-29 11:10:44.718750,-10.11,73.53
280088,2018-06-29 11:10:44.750000,-15.06,73.53
280089,2018-06-29 11:10:44.781250,-21.94,73.53
280090,2018-06-29 11:10:44.812500,-30.53,73.53
280091,2018-06-29 11:10:44.843750,-36.94,73.53
280092,2018-06-29 11:10:44.875000,-40.1,73.53
280093,2018-06-29 11:10:44.906250,-43.87,73.53
280094,2018-06-29 11:10:44.937500,-52.08,73.53
280095,2018-06-29 11:10:44.968750,-64.55,73.53
280096,2018-06-29 11:10:45.000000,-74.84,73.53
280097,2018-06-29 11:10:45.031250,-71.28,73.53
280098,2018-06-29 11:10:45.062500,-47.54,73.53
280099,2018-06-29 11:10:45.093750,-12.57,73.53
280100,2018-06-29 11:10:45.125000,17.63,73.53
280101,2018-06-29 11:10:45.156250,35.23,73.53
280102,2018-06-29 11:10:45.187500,41.38,73.53
280103,2018-06-29 11:10:45.218750,38.96,73.53
280104,2018-06-29 11:10:45.250000,32.34,73.53
280105,2018-06-29 11:10:45.281250,27.66,73.53
280106,2018-06-29 11:10:45.312500,27.94,73.53
280107,2018-06-29 11:10:45.343750,30.86,73.53
280108,2018-06-29 11:10:45.375000,33.35,73.53
280109,2018-06-29 11:10:45.406250,34.77,73.53
280110,2018-06-29 11:10:45.437500,34.37,73.53
280111,2018-06-29 11:10:45.468750,29.75,73.53
280112,2018-06-29 11:10:45.500000,20.02,73.53
280113,2018-06-29 11:10:45.531250,8.17,73.47
280114,2018-06-29 11:10:45.562500,-1.74,73.47
280115,2018-06-29 11:10:45.593750,-9.07,73.47
280116,2018-06-29 11:10:45.625000,-16.33,73.47
280117,2018-06-29 11:10:45.656250,-24.67,73.47
280118,2018-06-29 11:10:45.687500,-32.11,73.47
280119,2018-06-29 11:10:45.718750,-37.06,73.47
280120,2018-06-29 11:10:45.750000,-41.63,73.47
280121,2018-06-29 11:10:45.781250,-49.73,73.47
280122,2018-06-29 11:10:45.812500,-62.21,73.47
280123,2018-06-29 11:10:45.843750,-72.37,73.47
280124,2018-06-29 11:10:45.875000,-68.26,73.47
280125,2018-06-29 11:10:45.906250,-45.04,73.47
280126,2018-06-29 11:10:45.937500,-12.91,73.47
280127,2018-06-29 11:10:45.968750,13.33,73.47
280128,2018-06-29 11:10:46.000000,28.29,73.47
280129,2018-06-29 11:10:46.031250,34.08,73.47
280130,2018-06-29 11:10:46.062500,32.96,73.47
280131,2018-06-29 11:10:46.093750,28.25,73.47
280132,2018-06-29 11:10:46.125000,25.12,73.47
280133,2018-06-29 11:10:46.156250,25.56,73.47
280134,2018-06-29 11:10:46.187500,27.11,73.47
280135,2018-06-29 11:10:46.218750,27.82,73.47
280136,2018-06-29 11:10:46.250000,28.24,73.47
280137,2018-06-29 11:10:46.281250,28.14,73.47
280138,2018-06-29 11:10:46.312500,24.79,73.47
280139,2018-06-29 11:10:46.343750,16.7,73.47
280140,2018-06-29 11:10:46.375000,6.96,73.47
280141,2018-06-29 11:10:46.406250,-0.16,73.47
280142,2018-06-29 11:10:46.437500,-5.02,73.47
280143,2018-06-29 11:10:46.468750,-11.36,73.47
280144,2018-06-29 11:10:46.500000,-19.99,73.47
280145,2018-06-29 11:10:46.531250,-27.97,73.32
280146,2018-06-29 11:10:46.562500,-33.49,73.32
280147,2018-06-29 11:10:46.593750,-38.4,73.32
280148,2018-06-29 11:10:46.625000,-46.14,73.32
280149,2018-06-29 11:10:46.656250,-57.52,73.32
280150,2018-06-29 11:10:46.687500,-66.44,73.32
280151,2018-06-29 11:10:46.718750,-61.9,73.32
280152,2018-06-29 11:10:46.750000,-39.46,73.32
280153,2018-06-29 11:10:46.781250,-8.52,73.32
280154,2018-06-29 11:10:46.812500,17.09,73.32
280155,2018-06-29 11:10:46.843750,31.85,73.32
280156,2018-06-29 11:10:46.875000,37.88,73.32
280157,2018-06-29 11:10:46.906250,37.61,73.32
280158,2018-06-29 11:10:46.937500,33.56,73.32
280159,2018-06-29 11:10:46.968750,30.32,73.32
280160,2018-06-29 11:10:47.000000,31.22,73.32
280161,2018-06-29 11:10:47.031250,34.97,73.32
280162,2018-06-29 11:10:47.062500,38.01,73.32
280163,2018-06-29 11:10:47.093750,38.33,73.32
280164,2018-06-29 11:10:47.125000,36.28,73.32
280165,2018-06-29 11:10:47.156250,32.69,73.32
280166,2018-06-29 11:10:47.187500,27.58,73.32
280167,2018-06-29 11:10:47.218750,20.71,73.32
280168,2018-06-29 11:10:47.250000,12.78,73.32
280169,2018-06-29 11:10:47.281250,5.38,73.32
280170,2018-06-29 11:10:47.312500,-0.49,73.32
280171,2018-06-29 11:10:47.343750,-5.96,73.32
280172,2018-06-29 11:10:47.375000,-13.21,73.32
280173,2018-06-29 11:10:47.406250,-22.31,73.32
280174,2018-06-29 11:10:47.437500,-30.69,73.32
280175,2018-06-29 11:10:47.468750,-37.01,73.32
280176,2018-06-29 11:10:47.500000,-43.27,73.32
280177,2018-06-29 11:10:47.531250,-52.25,73.23
280178,2018-06-29 11:10:47.562500,-64.15,73.23
280179,2018-06-29 11:10:47.593750,-73.49,73.23
280180,2018-06-29 11:10:47.625000,-69.62,73.23
280181,2018-06-29 11:10:47.656250,-47.27,73.23
280182,2018-06-29 11:10:47.687500,-15.93,73.23
280183,2018-06-29 11:10:47.718750,8.89,73.23
280184,2018-06-29 11:10:47.750000,20.98,73.23
280185,2018-06-29 11:10:47.781250,23.36,73.23
280186,2018-06-29 11:10:47.812500,19.73,73.23
280187,2018-06-29 11:10:47.843750,13.77,73.23
280188,2018-06-29 11:10:47.875000,10.44,73.23
280189,2018-06-29 11:10:47.906250,11.93,73.23
280190,2018-06-29 11:10:47.937500,15.91,73.23
280191,2018-06-29 11:10:47.968750,19.37,73.23
280192,2018-06-29 11:10:48.000000,21.54,73.23
280193,2018-06-29 11:10:48.031250,22.4,73.23
280194,2018-06-29 11:10:48.062500,20.41,73.23
280195,2018-06-29 11:10:48.093750,13.96,73.23
280196,2018-06-29 11:10:48.125000,4.77,73.23
280197,2018-06-29 11:10:48.156250,-3.11,73.23
280198,2018-06-29 11:10:48.187500,-8.46,73.23
280199,2018-06-29 11:10:48.218750,-14.16,73.23
280200,2018-06-29 11:10:48.250000,-22.25,73.23
280201,2018-06-29 11:10:48.281250,-30.59,73.23
280202,2018-06-29 11:10:48.312500,-36.13,73.23
280203,2018-06-29 11:10:48.343750,-39.66,73.23
280204,2018-06-29 11:10:48.375000,-45.36,73.23
280205,2018-06-29 11:10:48.406250,-56.23,73.23
280206,2018-06-29 11:10:48.437500,-68.37,73.23
280207,2018-06-29 11:10:48.468750,-70.02,73.23
280208,2018-06-29 11:10:48.500000,-52.08,73.23
280209,2018-06-29 11:10:48.531250,-20.2,73.15
280210,2018-06-29 11:10:48.562500,10.05,73.15
280211,2018-06-29 11:10:48.593750,28.94,73.15
280212,2018-06-29 11:10:48.625000,37.13,73.15
280213,2018-06-29 11:10:48.656250,38.21,73.15
280214,2018-06-29 11:10:48.687500,34.94,73.15
280215,2018-06-29 11:10:48.718750,31.1,73.15
280216,2018-06-29 11:10:48.750000,30.45,73.15
280217,2018-06-29 11:10:48.781250,33.1,73.15
280218,2018-06-29 11:10:48.812500,35.91,73.15
280219,2018-06-29 11:10:48.843750,36.85,73.15
280220,2018-06-29 11:10:48.875000,36.46,73.15
280221,2018-06-29 11:10:48.906250,34.92,73.15
280222,2018-06-29 11:10:48.937500,30.84,73.15
280223,2018-06-29 11:10:48.968750,23.36,73.15
280224,2018-06-29 11:10:49.000000,14.03,73.15
280225,2018-06-29 11:10:49.031250,5.6,73.15
280226,2018-06-29 11:10:49.062500,-1.15,73.15
280227,2018-06-29 11:10:49.093750,-8.19,73.15
280228,2018-06-29 11:10:49.125000,-17.1,73.15
280229,2018-06-29 11:10:49.156250,-26.56,73.15
280230,2018-06-29 11:10:49.187500,-34.34,73.15
280231,2018-06-29 11:10:49.218750,-40.51,73.15
280232,2018-06-29 11:10:49.250000,-47.61,73.15
280233,2018-06-29 11:10:49.281250,-58.68,73.15
280234,2018-06-29 11:10:49.312500,-73.37,73.15
280235,2018-06-29 11:10:49.343750,-83.01,73.15
280236,2018-06-29 11:10:49.375000,-74.38,73.15
280237,2018-06-29 11:10:49.406250,-44.81,73.15
280238,2018-06-29 11:10:49.437500,-7.96,73.15
280239,2018-06-29 11:10:49.468750,20.74,73.15
280240,2018-06-29 11:10:49.500000,37.2,73.15
280241,2018-06-29 11:10:49.531250,44.17,73.08
280242,2018-06-29 11:10:49.562500,43.99,73.08
280243,2018-06-29 11:10:49.593750,39.97,73.08
280244,2018-06-29 11:10:49.625000,37.37,73.08
280245,2018-06-29 11:10:49.656250,39.16,73.08
280246,2018-06-29 11:10:49.687500,43.35,73.08
280247,2018-06-29 11:10:49.718750,46.58,73.08
280248,2018-06-29 11:10:49.750000,47.87,73.08
280249,2018-06-29 11:10:49.781250,47.31,73.08
280250,2018-06-29 11:10:49.812500,43.85,73.08
280251,2018-06-29 11:10:49.843750,37.25,73.08
280252,2018-06-29 11:10:49.875000,29.63,73.08
280253,2018-06-29 11:10:49.906250,22.84,73.08
280254,2018-06-29 11:10:49.937500,16.06,73.08
280255,2018-06-29 11:10:49.968750,8.53,73.08
280256,2018-06-29 11:10:50.000000,1.75,73.08
280257,2018-06-29 11:10:50.031250,-3.88,73.08
280258,2018-06-29 11:10:50.062500,-11.29,73.08
280259,2018-06-29 11:10:50.093750,-22.15,73.08
280260,2018-06-29 11:10:50.125000,-33.63,73.08
280261,2018-06-29 11:10:50.156250,-42.65,73.08
280262,2018-06-29 11:10:50.187500,-50.14,73.08
280263,2018-06-29 11:10:50.218750,-59.43,73.08
280264,2018-06-29 11:10:50.250000,-72.6,73.08
280265,2018-06-29 11:10:50.281250,-85.39,73.08
280266,2018-06-29 11:10:50.312500,-84.83,73.08
280267,2018-06-29 11:10:50.343750,-60.94,73.08
280268,2018-06-29 11:10:50.375000,-21.53,73.08
280269,2018-06-29 11:10:50.406250,14.36,73.08
280270,2018-06-29 11:10:50.437500,36.21,73.08
280271,2018-06-29 11:10:50.468750,46.15,73.08
280272,2018-06-29 11:10:50.500000,48.59,73.08
280273,2018-06-29 11:10:50.531250,46.36,73.17
280274,2018-06-29 11:10:50.562500,43.63,73.17
280275,2018-06-29 11:10:50.593750,44.04,73.17
280276,2018-06-29 11:10:50.625000,47.08,73.17
280277,2018-06-29 11:10:50.656250,49.83,73.17
280278,2018-06-29 11:10:50.687500,50.95,73.17
280279,2018-06-29 11:10:50.718750,50.61,73.17
280280,2018-06-29 11:10:50.750000,48.3,73.17
280281,2018-06-29 11:10:50.781250,42.93,73.17
280282,2018-06-29 11:10:50.812500,35.02,73.17
280283,2018-06-29 11:10:50.843750,27.19,73.17
280284,2018-06-29 11:10:50.875000,21.3,73.17
280285,2018-06-29 11:10:50.906250,15.98,73.17
280286,2018-06-29 11:10:50.937500,9.21,73.17
280287,2018-06-29 11:10:50.968750,2.12,73.17
280288,2018-06-29 11:10:51.000000,-3.2,73.17
280289,2018-06-29 11:10:51.031250,-8.11,73.17
280290,2018-06-29 11:10:51.062500,-15.76,73.17
280291,2018-06-29 11:10:51.093750,-26.08,73.17
280292,2018-06-29 11:10:51.125000,-36.11,73.17
280293,2018-06-29 11:10:51.156250,-44.22,73.17
280294,2018-06-29 11:10:51.187500,-51.91,73.17
280295,2018-06-29 11:10:51.218750,-61.96,73.17
280296,2018-06-29 11:10:51.250000,-74.96,73.17
280297,2018-06-29 11:10:51.281250,-83.84,73.17
280298,2018-06-29 11:10:51.312500,-75.8,73.17
280299,2018-06-29 11:10:51.343750,-46.58,73.17
280300,2018-06-29 11:10:51.375000,-8.64,73.17
280301,2018-06-29 11:10:51.406250,21.42,73.17
280302,2018-06-29 11:10:51.437500,37.24,73.17
280303,2018-06-29 11:10:51.468750,41.12,73.17
280304,2018-06-29 11:10:51.500000,37.13,73.17
280305,2018-06-29 11:10:51.531250,30.58,73.22
280306,2018-06-29 11:10:51.562500,27.15,73.22
280307,2018-06-29 11:10:51.593750,28.55,73.22
280308,2018-06-29 11:10:51.625000,32.14,73.22
280309,2018-06-29 11:10:51.656250,35.38,73.22
280310,2018-06-29 11:10:51.687500,37.82,73.22
280311,2018-06-29 11:10:51.718750,38.44,73.22
280312,2018-06-29 11:10:51.750000,35.12,73.22
280313,2018-06-29 11:10:51.781250,28.01,73.22
280314,2018-06-29 11:10:51.812500,20.45,73.22
280315,2018-06-29 11:10:51.843750,14.73,73.22
280316,2018-06-29 11:10:51.875000,9.25,73.22
280317,2018-06-29 11:10:51.906250,2.09,73.22
280318,2018-06-29 11:10:51.937500,-5.21,73.22
280319,2018-06-29 11:10:51.968750,-10.42,73.22
280320,2018-06-29 11:10:52.000000,-14.87,73.22
280321,2018-06-29 11:10:52.031250,-21.43,73.22
280322,2018-06-29 11:10:52.062500,-30.03,73.22
280323,2018-06-29 11:10:52.093750,-38.41,73.22
280324,2018-06-29 11:10:52.125000,-45.61,73.22
280325,2018-06-29 11:10:52.156250,-53.09,73.22
280326,2018-06-29 11:10:52.187500,-63.7,73.22
280327,2018-06-29 11:10:52.218750,-77.66,73.22
280328,2018-06-29 11:10:52.250000,-86.37,73.22
280329,2018-06-29 11:10:52.281250,-76.44,73.22
280330,2018-06-29 11:10:52.312500,-45.4,73.22
280331,2018-06-29 11:10:52.343750,-7.17,73.22
280332,2018-06-29 11:10:52.375000,22.65,73.22
280333,2018-06-29 11:10:52.406250,39.16,73.22
280334,2018-06-29 11:10:52.437500,44.64,73.22
280335,2018-06-29 11:10:52.468750,42.56,73.22
280336,2018-06-29 11:10:52.500000,37.7,73.22
280337,2018-06-29 11:10:52.531250,35.57,73.23
280338,2018-06-29 11:10:52.562500,38.18,73.23
280339,2018-06-29 11:10:52.593750,42.52,73.23
280340,2018-06-29 11:10:52.625000,45.26,73.23
280341,2018-06-29 11:10:52.656250,46.1,73.23
280342,2018-06-29 11:10:52.687500,45.3,73.23
280343,2018-06-29 11:10:52.718750,41.53,73.23
280344,2018-06-29 11:10:52.750000,34.33,73.23
280345,2018-06-29 11:10:52.781250,25.27,73.23
280346,2018-06-29 11:10:52.812500,16.06,73.23
280347,2018-06-29 11:10:52.843750,7.68,73.23
280348,2018-06-29 11:10:52.875000,0.44,73.23
280349,2018-06-29 11:10:52.906250,-7.06,73.23
280350,2018-06-29 11:10:52.937500,-16.77,73.23
280351,2018-06-29 11:10:52.968750,-27.84,73.23
280352,2018-06-29 11:10:53.000000,-37.12,73.23
280353,2018-06-29 11:10:53.031250,-43.54,73.23
280354,2018-06-29 11:10:53.062500,-49.72,73.23
280355,2018-06-29 11:10:53.093750,-59.1,73.23
280356,2018-06-29 11:10:53.125000,-72.13,73.23
280357,2018-06-29 11:10:53.156250,-82.54,73.23
280358,2018-06-29 11:10:53.187500,-77.77,73.23
280359,2018-06-29 11:10:53.218750,-50.79,73.23
280360,2018-06-29 11:10:53.250000,-11.58,73.23
280361,2018-06-29 11:10:53.281250,21.69,73.23
280362,2018-06-29 11:10:53.312500,40.44,73.23
280363,2018-06-29 11:10:53.343750,47.35,73.23
280364,2018-06-29 11:10:53.375000,46.6,73.23
280365,2018-06-29 11:10:53.406250,41.31,73.23
280366,2018-06-29 11:10:53.437500,36.08,73.23
280367,2018-06-29 11:10:53.468750,34.81,73.23
280368,2018-06-29 11:10:53.500000,37.39,73.23
280369,2018-06-29 11:10:53.531250,41.05,73.25
280370,2018-06-29 11:10:53.562500,43.38,73.25
280371,2018-06-29 11:10:53.593750,43.06,73.25
280372,2018-06-29 11:10:53.625000,39.38,73.25
280373,2018-06-29 11:10:53.656250,32.59,73.25
280374,2018-06-29 11:10:53.687500,23.58,73.25
280375,2018-06-29 11:10:53.718750,13.68,73.25
280376,2018-06-29 11:10:53.750000,4.44,73.25
280377,2018-06-29 11:10:53.781250,-3.11,73.25
280378,2018-06-29 11:10:53.812500,-9.6,73.25
280379,2018-06-29 11:10:53.843750,-16.64,73.25
280380,2018-06-29 11:10:53.875000,-25.06,73.25
280381,2018-06-29 11:10:53.906250,-33.59,73.25
280382,2018-06-29 11:10:53.937500,-40.48,73.25
280383,2018-06-29 11:10:53.968750,-46.4,73.25
280384,2018-06-29 11:10:54.000000,-54.43,73.25
280385,2018-06-29 11:10:54.031250,-66.7,73.25
280386,2018-06-29 11:10:54.062500,-79.15,73.25
280387,2018-06-29 11:10:54.093750,-79.96,73.25
280388,2018-06-29 11:10:54.125000,-59.32,73.25
280389,2018-06-29 11:10:54.156250,-22.54,73.25
280390,2018-06-29 11:10:54.187500,13.31,73.25
280391,2018-06-29 11:10:54.218750,36.44,73.25
280392,2018-06-29 11:10:54.250000,46.5,73.25
280393,2018-06-29 11:10:54.281250,47.31,73.25
280394,2018-06-29 11:10:54.312500,42.79,73.25
280395,2018-06-29 11:10:54.343750,37.79,73.25
280396,2018-06-29 11:10:54.375000,36.01,73.25
280397,2018-06-29 11:10:54.406250,37.46,73.25
280398,2018-06-29 11:10:54.437500,39.87,73.25
280399,2018-06-29 11:10:54.468750,41.59,73.25
280400,2018-06-29 11:10:54.500000,42.11,73.25
280401,2018-06-29 11:10:54.531250,40.73,73.25
280402,2018-06-29 11:10:54.562500,36.34,73.25
280403,2018-06-29 11:10:54.593750,28.75,73.25
280404,2018-06-29 11:10:54.625000,19.39,73.25
280405,2018-06-29 11:10:54.656250,10.23,73.25
280406,2018-06-29 11:10:54.687500,2.48,73.25
280407,2018-06-29 11:10:54.718750,-4.15,73.25
280408,2018-06-29 11:10:54.750000,-11.34,73.25
280409,2018-06-29 11:10:54.781250,-20.05,73.25
280410,2018-06-29 11:10:54.812500,-28.84,73.25
280411,2018-06-29 11:10:54.843750,-35.84,73.25
280412,2018-06-29 11:10:54.875000,-41.49,73.25
280413,2018-06-29 11:10:54.906250,-48.41,73.25
280414,2018-06-29 11:10:54.937500,-59.4,73.25
280415,2018-06-29 11:10:54.968750,-72.6,73.25
280416,2018-06-29 11:10:55.000000,-76.59,73.25
280417,2018-06-29 11:10:55.031250,-58.96,73.25
280418,2018-06-29 11:10:55.062500,-23.4,73.25
280419,2018-06-29 11:10:55.093750,11.64,73.25
280420,2018-06-29 11:10:55.125000,33.2,73.25
280421,2018-06-29 11:10:55.156250,41.76,73.25
280422,2018-06-29 11:10:55.187500,41.2,73.25
280423,2018-06-29 11:10:55.218750,34.44,73.25
280424,2018-06-29 11:10:55.250000,27.09,73.25
280425,2018-06-29 11:10:55.281250,24.69,73.25
280426,2018-06-29 11:10:55.312500,27.07,73.25
280427,2018-06-29 11:10:55.343750,30.38,73.25
280428,2018-06-29 11:10:55.375000,32.42,73.25
280429,2018-06-29 11:10:55.406250,32.85,73.25
280430,2018-06-29 11:10:55.437500,30.99,73.25
280431,2018-06-29 11:10:55.468750,26.42,73.25
280432,2018-06-29 11:10:55.500000,20.01,73.25
280433,2018-06-29 11:10:55.531250,12.65,73.25
280434,2018-06-29 11:10:55.562500,4.53,73.25
280435,2018-06-29 11:10:55.593750,-3.48,73.25
280436,2018-06-29 11:10:55.625000,-10.25,73.25
280437,2018-06-29 11:10:55.656250,-16.67,73.25
280438,2018-06-29 11:10:55.687500,-24.48,73.25
280439,2018-06-29 11:10:55.718750,-32.78,73.25
280440,2018-06-29 11:10:55.750000,-39.1,73.25
280441,2018-06-29 11:10:55.781250,-43.59,73.25
280442,2018-06-29 11:10:55.812500,-49.58,73.25
280443,2018-06-29 11:10:55.843750,-60.09,73.25
280444,2018-06-29 11:10:55.875000,-72.9,73.25
280445,2018-06-29 11:10:55.906250,-77.59,73.25
280446,2018-06-29 11:10:55.937500,-62.83,73.25
280447,2018-06-29 11:10:55.968750,-30.17,73.25
280448,2018-06-29 11:10:56.000000,5.38,73.25
280449,2018-06-29 11:10:56.031250,30.44,73.25
280450,2018-06-29 11:10:56.062500,42.2,73.25
280451,2018-06-29 11:10:56.093750,43.43,73.25
280452,2018-06-29 11:10:56.125000,37.69,73.25
280453,2018-06-29 11:10:56.156250,30.34,73.25
280454,2018-06-29 11:10:56.187500,27.14,73.25
280455,2018-06-29 11:10:56.218750,29.61,73.25
280456,2018-06-29 11:10:56.250000,34.21,73.25
280457,2018-06-29 11:10:56.281250,37.08,73.25
280458,2018-06-29 11:10:56.312500,37.52,73.25
280459,2018-06-29 11:10:56.343750,36.22,73.25
280460,2018-06-29 11:10:56.375000,32.32,73.25
280461,2018-06-29 11:10:56.406250,24.49,73.25
280462,2018-06-29 11:10:56.437500,14.05,73.25
280463,2018-06-29 11:10:56.468750,4.37,73.25
280464,2018-06-29 11:10:56.500000,-3.05,73.25
280465,2018-06-29 11:10:56.531250,-10.41,73.23
280466,2018-06-29 11:10:56.562500,-20.14,73.23
280467,2018-06-29 11:10:56.593750,-31.35,73.23
280468,2018-06-29 11:10:56.625000,-41.18,73.23
280469,2018-06-29 11:10:56.656250,-48.64,73.23
280470,2018-06-29 11:10:56.687500,-55.91,73.23
280471,2018-06-29 11:10:56.718750,-66.67,73.23
280472,2018-06-29 11:10:56.750000,-81.11,73.23
280473,2018-06-29 11:10:56.781250,-90.06,73.23
280474,2018-06-29 11:10:56.812500,-79.41,73.23
280475,2018-06-29 11:10:56.843750,-46.13,73.23
280476,2018-06-29 11:10:56.875000,-4.51,73.23
280477,2018-06-29 11:10:56.906250,28.04,73.23
280478,2018-06-29 11:10:56.937500,45.26,73.23
280479,2018-06-29 11:10:56.968750,50.26,73.23
280480,2018-06-29 11:10:57.000000,48.06,73.23
280481,2018-06-29 11:10:57.031250,43.61,73.23
280482,2018-06-29 11:10:57.062500,41.21,73.23
280483,2018-06-29 11:10:57.093750,42.42,73.23
280484,2018-06-29 11:10:57.125000,45.33,73.23
280485,2018-06-29 11:10:57.156250,47.25,73.23
280486,2018-06-29 11:10:57.187500,47.41,73.23
280487,2018-06-29 11:10:57.218750,46.11,73.23
280488,2018-06-29 11:10:57.250000,42.59,73.23
280489,2018-06-29 11:10:57.281250,35.46,73.23
280490,2018-06-29 11:10:57.312500,24.86,73.23
280491,2018-06-29 11:10:57.343750,13.35,73.23
280492,2018-06-29 11:10:57.375000,3.76,73.23
280493,2018-06-29 11:10:57.406250,-4.13,73.23
280494,2018-06-29 11:10:57.437500,-13.22,73.23
280495,2018-06-29 11:10:57.468750,-24.45,73.23
280496,2018-06-29 11:10:57.500000,-35.21,73.23
280497,2018-06-29 11:10:57.531250,-43.21,73.18
280498,2018-06-29 11:10:57.562500,-49.87,73.18
280499,2018-06-29 11:10:57.593750,-59.03,73.18
280500,2018-06-29 11:10:57.625000,-73.29,73.18
280501,2018-06-29 11:10:57.656250,-88.83,73.18
280502,2018-06-29 11:10:57.687500,-92.24,73.18
280503,2018-06-29 11:10:57.718750,-70.84,73.18
280504,2018-06-29 11:10:57.750000,-29.37,73.18
280505,2018-06-29 11:10:57.781250,12.36,73.18
280506,2018-06-29 11:10:57.812500,39.93,73.18
280507,2018-06-29 11:10:57.843750,52.64,73.18
280508,2018-06-29 11:10:57.875000,54.82,73.18
280509,2018-06-29 11:10:57.906250,50.51,73.18
280510,2018-06-29 11:10:57.937500,44.93,73.18
280511,2018-06-29 11:10:57.968750,42.67,73.18
280512,2018-06-29 11:10:58.000000,44.46,73.18
280513,2018-06-29 11:10:58.031250,48.15,73.18
280514,2018-06-29 11:10:58.062500,51.1,73.18
280515,2018-06-29 11:10:58.093750,51.36,73.18
280516,2018-06-29 11:10:58.125000,48.23,73.18
280517,2018-06-29 11:10:58.156250,42.26,73.18
280518,2018-06-29 11:10:58.187500,34.28,73.18
280519,2018-06-29 11:10:58.218750,25.0,73.18
280520,2018-06-29 11:10:58.250000,15.54,73.18
280521,2018-06-29 11:10:58.281250,6.96,73.18
280522,2018-06-29 11:10:58.312500,-0.86,73.18
280523,2018-06-29 11:10:58.343750,-9.18,73.18
280524,2018-06-29 11:10:58.375000,-18.85,73.18
280525,2018-06-29 11:10:58.406250,-29.08,73.18
280526,2018-06-29 11:10:58.437500,-38.13,73.18
280527,2018-06-29 11:10:58.468750,-45.61,73.18
280528,2018-06-29 11:10:58.500000,-53.55,73.18
280529,2018-06-29 11:10:58.531250,-65.17,73.13
280530,2018-06-29 11:10:58.562500,-79.93,73.13
280531,2018-06-29 11:10:58.593750,-87.94,73.13
280532,2018-06-29 11:10:58.625000,-74.64,73.13
280533,2018-06-29 11:10:58.656250,-38.04,73.13
280534,2018-06-29 11:10:58.687500,5.28,73.13
280535,2018-06-29 11:10:58.718750,37.24,73.13
280536,2018-06-29 11:10:58.750000,53.3,73.13
280537,2018-06-29 11:10:58.781250,57.1,73.13
280538,2018-06-29 11:10:58.812500,52.1,73.13
280539,2018-06-29 11:10:58.843750,43.56,73.13
280540,2018-06-29 11:10:58.875000,38.83,73.13
280541,2018-06-29 11:10:58.906250,40.51,73.13
280542,2018-06-29 11:10:58.937500,44.07,73.13
280543,2018-06-29 11:10:58.968750,45.0,73.13
280544,2018-06-29 11:10:59.000000,43.92,73.13
280545,2018-06-29 11:10:59.031250,42.37,73.13
280546,2018-06-29 11:10:59.062500,38.09,73.13
280547,2018-06-29 11:10:59.093750,28.46,73.13
280548,2018-06-29 11:10:59.125000,15.92,73.13
280549,2018-06-29 11:10:59.156250,5.44,73.13
280550,2018-06-29 11:10:59.187500,-1.98,73.13
280551,2018-06-29 11:10:59.218750,-9.56,73.13
280552,2018-06-29 11:10:59.250000,-19.29,73.13
280553,2018-06-29 11:10:59.281250,-29.28,73.13
280554,2018-06-29 11:10:59.312500,-36.94,73.13
280555,2018-06-29 11:10:59.343750,-42.51,73.13
280556,2018-06-29 11:10:59.375000,-49.01,73.13
280557,2018-06-29 11:10:59.406250,-59.5,73.13
280558,2018-06-29 11:10:59.437500,-72.72,73.13
280559,2018-06-29 11:10:59.468750,-79.02,73.13
280560,2018-06-29 11:10:59.500000,-65.97,73.13
280561,2018-06-29 11:10:59.531250,-33.22,73.08
280562,2018-06-29 11:10:59.562500,4.24,73.08
280563,2018-06-29 11:10:59.593750,31.52,73.08
280564,2018-06-29 11:10:59.625000,44.92,73.08
280565,2018-06-29 11:10:59.656250,46.77,73.08
280566,2018-06-29 11:10:59.687500,40.33,73.08
280567,2018-06-29 11:10:59.718750,31.46,73.08
280568,2018-06-29 11:10:59.750000,26.69,73.08
280569,2018-06-29 11:10:59.781250,27.51,73.08
280570,2018-06-29 11:10:59.812500,30.49,73.08
280571,2018-06-29 11:10:59.843750,32.65,73.08
280572,2018-06-29 11:10:59.875000,32.96,73.08
280573,2018-06-29 11:10:59.906250,29.6,73.08
280574,2018-06-29 11:10:59.937500,21.18,73.08
280575,2018-06-29 11:10:59.968750,10.01,73.08
280576,2018-06-29 11:11:00.000000,-0.51,73.08
280577,2018-06-29 11:11:00.031250,-10.43,73.08
280578,2018-06-29 11:11:00.062500,-21.49,73.08
280579,2018-06-29 11:11:00.093750,-32.87,73.08
280580,2018-06-29 11:11:00.125000,-42.02,73.08
280581,2018-06-29 11:11:00.156250,-48.84,73.08
280582,2018-06-29 11:11:00.187500,-57.11,73.08
280583,2018-06-29 11:11:00.218750,-70.12,73.08
280584,2018-06-29 11:11:00.250000,-83.48,73.08
280585,2018-06-29 11:11:00.281250,-84.17,73.08
280586,2018-06-29 11:11:00.312500,-62.13,73.08
280587,2018-06-29 11:11:00.343750,-23.03,73.08
280588,2018-06-29 11:11:00.375000,15.32,73.08
280589,2018-06-29 11:11:00.406250,40.04,73.08
280590,2018-06-29 11:11:00.437500,50.72,73.08
280591,2018-06-29 11:11:00.468750,51.89,73.08
280592,2018-06-29 11:11:00.500000,47.41,73.08
280593,2018-06-29 11:11:00.531250,42.11,73.05
280594,2018-06-29 11:11:00.562500,40.15,73.05
280595,2018-06-29 11:11:00.593750,41.19,73.05
280596,2018-06-29 11:11:00.625000,42.13,73.05
280597,2018-06-29 11:11:00.656250,41.74,73.05
280598,2018-06-29 11:11:00.687500,40.02,73.05
280599,2018-06-29 11:11:00.718750,35.24,73.05
280600,2018-06-29 11:11:00.750000,26.2,73.05
280601,2018-06-29 11:11:00.781250,15.05,73.05
280602,2018-06-29 11:11:00.812500,3.83,73.05
280603,2018-06-29 11:11:00.843750,-8.05,73.05
280604,2018-06-29 11:11:00.875000,-20.18,73.05
280605,2018-06-29 11:11:00.906250,-30.05,73.05
280606,2018-06-29 11:11:00.937500,-37.37,73.05
280607,2018-06-29 11:11:00.968750,-44.92,73.05
280608,2018-06-29 11:11:01.000000,-55.72,73.05
280609,2018-06-29 11:11:01.031250,-69.41,73.05
280610,2018-06-29 11:11:01.062500,-77.3,73.05
280611,2018-06-29 11:11:01.093750,-65.83,73.05
280612,2018-06-29 11:11:01.125000,-32.89,73.05
280613,2018-06-29 11:11:01.156250,6.07,73.05
280614,2018-06-29 11:11:01.187500,34.35,73.05
280615,2018-06-29 11:11:01.218750,48.35,73.05
280616,2018-06-29 11:11:01.250000,52.22,73.05
280617,2018-06-29 11:11:01.281250,48.91,73.05
280618,2018-06-29 11:11:01.312500,41.49,73.05
280619,2018-06-29 11:11:01.343750,35.53,73.05
280620,2018-06-29 11:11:01.375000,34.63,73.05
280621,2018-06-29 11:11:01.406250,36.47,73.05
280622,2018-06-29 11:11:01.437500,36.49,73.05
280623,2018-06-29 11:11:01.468750,33.63,73.05
280624,2018-06-29 11:11:01.500000,29.5,73.05
280625,2018-06-29 11:11:01.531250,23.5,73.07
280626,2018-06-29 11:11:01.562500,13.63,73.07
280627,2018-06-29 11:11:01.593750,0.76,73.07
280628,2018-06-29 11:11:01.625000,-11.48,73.07
280629,2018-06-29 11:11:01.656250,-20.82,73.07
280630,2018-06-29 11:11:01.687500,-28.01,73.07
280631,2018-06-29 11:11:01.718750,-35.69,73.07
280632,2018-06-29 11:11:01.750000,-46.67,73.07
280633,2018-06-29 11:11:01.781250,-60.02,73.07
280634,2018-06-29 11:11:01.812500,-67.18,73.07
280635,2018-06-29 11:11:01.843750,-56.48,73.07
280636,2018-06-29 11:11:01.875000,-26.75,73.07
280637,2018-06-29 11:11:01.906250,8.24,73.07
280638,2018-06-29 11:11:01.937500,33.44,73.07
280639,2018-06-29 11:11:01.968750,45.16,73.07
280640,2018-06-29 11:11:02.000000,47.17,73.07
280641,2018-06-29 11:11:02.031250,42.63,73.07
280642,2018-06-29 11:11:02.062500,35.13,73.07
280643,2018-06-29 11:11:02.093750,30.12,73.07
280644,2018-06-29 11:11:02.125000,30.24,73.07
280645,2018-06-29 11:11:02.156250,32.52,73.07
280646,2018-06-29 11:11:02.187500,32.76,73.07
280647,2018-06-29 11:11:02.218750,29.94,73.07
280648,2018-06-29 11:11:02.250000,25.12,73.07
280649,2018-06-29 11:11:02.281250,18.55,73.07
280650,2018-06-29 11:11:02.312500,9.51,73.07
280651,2018-06-29 11:11:02.343750,-1.7,73.07
280652,2018-06-29 11:11:02.375000,-13.1,73.07
280653,2018-06-29 11:11:02.406250,-22.72,73.07
280654,2018-06-29 11:11:02.437500,-30.28,73.07
280655,2018-06-29 11:11:02.468750,-37.63,73.07
280656,2018-06-29 11:11:02.500000,-47.6,73.07
280657,2018-06-29 11:11:02.531250,-60.02,73.1
280658,2018-06-29 11:11:02.562500,-67.4,73.1
280659,2018-06-29 11:11:02.593750,-58.41,73.1
280660,2018-06-29 11:11:02.625000,-30.78,73.1
280661,2018-06-29 11:11:02.656250,3.58,73.1
280662,2018-06-29 11:11:02.687500,30.19,73.1
280663,2018-06-29 11:11:02.718750,43.6,73.1
280664,2018-06-29 11:11:02.750000,45.76,73.1
280665,2018-06-29 11:11:02.781250,40.58,73.1
280666,2018-06-29 11:11:02.812500,33.46,73.1
280667,2018-06-29 11:11:02.843750,29.75,73.1
280668,2018-06-29 11:11:02.875000,30.95,73.1
280669,2018-06-29 11:11:02.906250,34.17,73.1
280670,2018-06-29 11:11:02.937500,36.19,73.1
280671,2018-06-29 11:11:02.968750,36.37,73.1
280672,2018-06-29 11:11:03.000000,34.78,73.1
280673,2018-06-29 11:11:03.031250,30.5,73.1
280674,2018-06-29 11:11:03.062500,23.6,73.1
280675,2018-06-29 11:11:03.093750,16.08,73.1
280676,2018-06-29 11:11:03.125000,9.13,73.1
280677,2018-06-29 11:11:03.156250,2.33,73.1
280678,2018-06-29 11:11:03.187500,-4.09,73.1
280679,2018-06-29 11:11:03.218750,-9.39,73.1
280680,2018-06-29 11:11:03.250000,-14.62,73.1
280681,2018-06-29 11:11:03.281250,-21.46,73.1
280682,2018-06-29 11:11:03.312500,-29.48,73.1
280683,2018-06-29 11:11:03.343750,-36.68,73.1
280684,2018-06-29 11:11:03.375000,-42.61,73.1
280685,2018-06-29 11:11:03.406250,-49.8,73.1
280686,2018-06-29 11:11:03.437500,-61.22,73.1
280687,2018-06-29 11:11:03.468750,-74.75,73.1
280688,2018-06-29 11:11:03.500000,-79.8,73.1
280689,2018-06-29 11:11:03.531250,-65.25,73.1
280690,2018-06-29 11:11:03.562500,-32.94,73.1
280691,2018-06-29 11:11:03.593750,2.16,73.1
280692,2018-06-29 11:11:03.625000,26.97,73.1
280693,2018-06-29 11:11:03.656250,39.13,73.1
280694,2018-06-29 11:11:03.687500,41.78,73.1
280695,2018-06-29 11:11:03.718750,38.51,73.1
280696,2018-06-29 11:11:03.750000,33.78,73.1
280697,2018-06-29 11:11:03.781250,31.73,73.1
280698,2018-06-29 11:11:03.812500,33.01,73.1
280699,2018-06-29 11:11:03.843750,35.37,73.1
280700,2018-06-29 11:11:03.875000,36.98,73.1
280701,2018-06-29 11:11:03.906250,37.4,73.1
280702,2018-06-29 11:11:03.937500,35.85,73.1
280703,2018-06-29 11:11:03.968750,31.71,73.1
280704,2018-06-29 11:11:04.000000,25.88,73.1
280705,2018-06-29 11:11:04.031250,19.47,73.1
280706,2018-06-29 11:11:04.062500,12.24,73.1
280707,2018-06-29 11:11:04.093750,4.2,73.1
280708,2018-06-29 11:11:04.125000,-3.2,73.1
280709,2018-06-29 11:11:04.156250,-9.23,73.1
280710,2018-06-29 11:11:04.187500,-15.36,73.1
280711,2018-06-29 11:11:04.218750,-22.76,73.1
280712,2018-06-29 11:11:04.250000,-30.67,73.1
280713,2018-06-29 11:11:04.281250,-38.16,73.1
280714,2018-06-29 11:11:04.312500,-45.64,73.1
280715,2018-06-29 11:11:04.343750,-54.33,73.1
280716,2018-06-29 11:11:04.375000,-65.45,73.1
280717,2018-06-29 11:11:04.406250,-76.14,73.1
280718,2018-06-29 11:11:04.437500,-76.11,73.1
280719,2018-06-29 11:11:04.468750,-56.79,73.1
280720,2018-06-29 11:11:04.500000,-24.32,73.1
280721,2018-06-29 11:11:04.531250,5.45,73.08
280722,2018-06-29 11:11:04.562500,23.08,73.08
280723,2018-06-29 11:11:04.593750,29.11,73.08
280724,2018-06-29 11:11:04.625000,26.86,73.08
280725,2018-06-29 11:11:04.656250,20.23,73.08
280726,2018-06-29 11:11:04.687500,14.89,73.08
280727,2018-06-29 11:11:04.718750,14.53,73.08
280728,2018-06-29 11:11:04.750000,17.71,73.08
280729,2018-06-29 11:11:04.781250,21.01,73.08
280730,2018-06-29 11:11:04.812500,22.96,73.08
280731,2018-06-29 11:11:04.843750,23.07,73.08
280732,2018-06-29 11:11:04.875000,19.69,73.08
280733,2018-06-29 11:11:04.906250,11.66,73.08
280734,2018-06-29 11:11:04.937500,0.96,73.08
280735,2018-06-29 11:11:04.968750,-8.31,73.08
280736,2018-06-29 11:11:05.000000,-14.44,73.08
280737,2018-06-29 11:11:05.031250,-20.21,73.08
280738,2018-06-29 11:11:05.062500,-28.25,73.08
280739,2018-06-29 11:11:05.093750,-36.22,73.08
280740,2018-06-29 11:11:05.125000,-40.67,73.08
280741,2018-06-29 11:11:05.156250,-43.27,73.08
280742,2018-06-29 11:11:05.187500,-48.98,73.08
280743,2018-06-29 11:11:05.218750,-59.62,73.08
280744,2018-06-29 11:11:05.250000,-69.32,73.08
280745,2018-06-29 11:11:05.281250,-66.33,73.08
280746,2018-06-29 11:11:05.312500,-44.11,73.08
280747,2018-06-29 11:11:05.343750,-10.44,73.08
280748,2018-06-29 11:11:05.375000,19.58,73.08
280749,2018-06-29 11:11:05.406250,37.69,73.08
280750,2018-06-29 11:11:05.437500,44.64,73.08
280751,2018-06-29 11:11:05.468750,43.59,73.08
280752,2018-06-29 11:11:05.500000,38.26,73.08
280753,2018-06-29 11:11:05.531250,33.28,73.05
280754,2018-06-29 11:11:05.562500,31.37,73.05
280755,2018-06-29 11:11:05.593750,31.62,73.05
280756,2018-06-29 11:11:05.625000,32.35,73.05
280757,2018-06-29 11:11:05.656250,32.78,73.05
280758,2018-06-29 11:11:05.687500,31.45,73.05
280759,2018-06-29 11:11:05.718750,26.27,73.05
280760,2018-06-29 11:11:05.750000,17.4,73.05
280761,2018-06-29 11:11:05.781250,7.56,73.05
280762,2018-06-29 11:11:05.812500,-1.34,73.05
280763,2018-06-29 11:11:05.843750,-10.0,73.05
280764,2018-06-29 11:11:05.875000,-19.38,73.05
280765,2018-06-29 11:11:05.906250,-28.5,73.05
280766,2018-06-29 11:11:05.937500,-36.18,73.05
280767,2018-06-29 11:11:05.968750,-43.3,73.05
280768,2018-06-29 11:11:06.000000,-52.28,73.05
280769,2018-06-29 11:11:06.031250,-64.47,73.05
280770,2018-06-29 11:11:06.062500,-75.0,73.05
280771,2018-06-29 11:11:06.093750,-71.94,73.05
280772,2018-06-29 11:11:06.125000,-48.26,73.05
280773,2018-06-29 11:11:06.156250,-12.64,73.05
280774,2018-06-29 11:11:06.187500,19.1,73.05
280775,2018-06-29 11:11:06.218750,39.01,73.05
280776,2018-06-29 11:11:06.250000,47.97,73.05
280777,2018-06-29 11:11:06.281250,48.78,73.05
280778,2018-06-29 11:11:06.312500,44.98,73.05
280779,2018-06-29 11:11:06.343750,41.62,73.05
280780,2018-06-29 11:11:06.375000,41.87,73.05
280781,2018-06-29 11:11:06.406250,44.32,73.05
280782,2018-06-29 11:11:06.437500,45.65,73.05
280783,2018-06-29 11:11:06.468750,45.05,73.05
280784,2018-06-29 11:11:06.500000,43.51,73.05
280785,2018-06-29 11:11:06.531250,40.24,73.02
280786,2018-06-29 11:11:06.562500,33.12,73.02
280787,2018-06-29 11:11:06.593750,22.4,73.02
280788,2018-06-29 11:11:06.625000,10.93,73.02
280789,2018-06-29 11:11:06.656250,0.11,73.02
280790,2018-06-29 11:11:06.687500,-11.92,73.02
280791,2018-06-29 11:11:06.718750,-26.35,73.02
280792,2018-06-29 11:11:06.750000,-40.25,73.02
280793,2018-06-29 11:11:06.781250,-49.94,73.02
280794,2018-06-29 11:11:06.812500,-56.31,73.02
280795,2018-06-29 11:11:06.843750,-63.97,73.02
280796,2018-06-29 11:11:06.875000,-75.94,73.02
280797,2018-06-29 11:11:06.906250,-88.69,73.02
280798,2018-06-29 11:11:06.937500,-90.68,73.02
280799,2018-06-29 11:11:06.968750,-70.68,73.02
280800,2018-06-29 11:11:07.000000,-31.46,73.02
280801,2018-06-29 11:11:07.031250,10.66,73.02
280802,2018-06-29 11:11:07.062500,41.93,73.02
280803,2018-06-29 11:11:07.093750,59.97,73.02
280804,2018-06-29 11:11:07.125000,67.66,73.02
280805,2018-06-29 11:11:07.156250,68.04,73.02
280806,2018-06-29 11:11:07.187500,65.87,73.02
280807,2018-06-29 11:11:07.218750,66.31,73.02
280808,2018-06-29 11:11:07.250000,69.63,73.02
280809,2018-06-29 11:11:07.281250,72.09,73.02
280810,2018-06-29 11:11:07.312500,72.69,73.02
280811,2018-06-29 11:11:07.343750,73.66,73.02
280812,2018-06-29 11:11:07.375000,74.6,73.02
280813,2018-06-29 11:11:07.406250,71.83,73.02
280814,2018-06-29 11:11:07.437500,64.91,73.02
280815,2018-06-29 11:11:07.468750,58.8,73.02
280816,2018-06-29 11:11:07.500000,56.96,73.02
280817,2018-06-29 11:11:07.531250,56.66,72.97
280818,2018-06-29 11:11:07.562500,54.41,72.97
280819,2018-06-29 11:11:07.593750,52.96,72.97
280820,2018-06-29 11:11:07.625000,57.25,72.97
280821,2018-06-29 11:11:07.656250,66.2,72.97
280822,2018-06-29 11:11:07.687500,73.45,72.97
280823,2018-06-29 11:11:07.718750,74.44,72.97
280824,2018-06-29 11:11:07.750000,72.05,72.97
280825,2018-06-29 11:11:07.781250,78.55,72.97
280826,2018-06-29 11:11:07.812500,102.09,72.97
280827,2018-06-29 11:11:07.843750,123.0,72.97
280828,2018-06-29 11:11:07.875000,102.66,72.97
280829,2018-06-29 11:11:07.906250,26.46,72.97
280830,2018-06-29 11:11:07.937500,-80.44,72.97
280831,2018-06-29 11:11:07.968750,-179.53,72.97
280832,2018-06-29 11:11:08.000000,-242.27,72.97
280833,2018-06-29 11:11:08.031250,-256.51,72.97
280834,2018-06-29 11:11:08.062500,-231.4,72.97
280835,2018-06-29 11:11:08.093750,-191.51,72.97
280836,2018-06-29 11:11:08.125000,-155.98,72.97
280837,2018-06-29 11:11:08.156250,-126.25,72.97
280838,2018-06-29 11:11:08.187500,-95.41,72.97
280839,2018-06-29 11:11:08.218750,-63.58,72.97
280840,2018-06-29 11:11:08.250000,-38.09,72.97
280841,2018-06-29 11:11:08.281250,-23.4,72.97
280842,2018-06-29 11:11:08.312500,-19.82,72.97
280843,2018-06-29 11:11:08.343750,-27.13,72.97
280844,2018-06-29 11:11:08.375000,-43.08,72.97
280845,2018-06-29 11:11:08.406250,-63.67,72.97
280846,2018-06-29 11:11:08.437500,-85.58,72.97
280847,2018-06-29 11:11:08.468750,-105.11,72.97
280848,2018-06-29 11:11:08.500000,-119.17,72.97
280849,2018-06-29 11:11:08.531250,-125.98,72.92
280850,2018-06-29 11:11:08.562500,-120.57,72.92
280851,2018-06-29 11:11:08.593750,-97.02,72.92
280852,2018-06-29 11:11:08.625000,-59.88,72.92
280853,2018-06-29 11:11:08.656250,-22.92,72.92
280854,2018-06-29 11:11:08.687500,4.92,72.92
280855,2018-06-29 11:11:08.718750,23.76,72.92
280856,2018-06-29 11:11:08.750000,35.07,72.92
280857,2018-06-29 11:11:08.781250,39.14,72.92
280858,2018-06-29 11:11:08.812500,38.85,72.92
280859,2018-06-29 11:11:08.843750,39.23,72.92
280860,2018-06-29 11:11:08.875000,43.16,72.92
280861,2018-06-29 11:11:08.906250,49.62,72.92
280862,2018-06-29 11:11:08.937500,55.67,72.92
280863,2018-06-29 11:11:08.968750,58.55,72.92
280864,2018-06-29 11:11:09.000000,56.41,72.92
280865,2018-06-29 11:11:09.031250,49.31,72.92
280866,2018-06-29 11:11:09.062500,39.44,72.92
280867,2018-06-29 11:11:09.093750,28.9,72.92
280868,2018-06-29 11:11:09.125000,17.87,72.92
280869,2018-06-29 11:11:09.156250,6.17,72.92
280870,2018-06-29 11:11:09.187500,-4.78,72.92
280871,2018-06-29 11:11:09.218750,-13.82,72.92
280872,2018-06-29 11:11:09.250000,-23.32,72.92
280873,2018-06-29 11:11:09.281250,-37.97,72.92
280874,2018-06-29 11:11:09.312500,-56.99,72.92
280875,2018-06-29 11:11:09.343750,-68.4,72.92
280876,2018-06-29 11:11:09.375000,-58.16,72.92
280877,2018-06-29 11:11:09.406250,-26.87,72.92
280878,2018-06-29 11:11:09.437500,9.8,72.92
280879,2018-06-29 11:11:09.468750,37.99,72.92
280880,2018-06-29 11:11:09.500000,54.77,72.92
280881,2018-06-29 11:11:09.531250,62.52,72.85
280882,2018-06-29 11:11:09.562500,64.13,72.85
280883,2018-06-29 11:11:09.593750,63.92,72.85
280884,2018-06-29 11:11:09.625000,65.71,72.85
280885,2018-06-29 11:11:09.656250,69.25,72.85
280886,2018-06-29 11:11:09.687500,71.68,72.85
280887,2018-06-29 11:11:09.718750,71.54,72.85
280888,2018-06-29 11:11:09.750000,69.38,72.85
280889,2018-06-29 11:11:09.781250,65.65,72.85
280890,2018-06-29 11:11:09.812500,59.13,72.85
280891,2018-06-29 11:11:09.843750,48.53,72.85
280892,2018-06-29 11:11:09.875000,35.82,72.85
280893,2018-06-29 11:11:09.906250,24.99,72.85
280894,2018-06-29 11:11:09.937500,16.0,72.85
280895,2018-06-29 11:11:09.968750,4.5,72.85
280896,2018-06-29 11:11:10.000000,-10.72,72.85
280897,2018-06-29 11:11:10.031250,-25.14,72.85
280898,2018-06-29 11:11:10.062500,-35.45,72.85
280899,2018-06-29 11:11:10.093750,-43.98,72.85
280900,2018-06-29 11:11:10.125000,-55.43,72.85
280901,2018-06-29 11:11:10.156250,-71.29,72.85
280902,2018-06-29 11:11:10.187500,-85.04,72.85
280903,2018-06-29 11:11:10.218750,-82.84,72.85
280904,2018-06-29 11:11:10.250000,-56.38,72.85
280905,2018-06-29 11:11:10.281250,-15.11,72.85
280906,2018-06-29 11:11:10.312500,22.09,72.85
280907,2018-06-29 11:11:10.343750,45.44,72.85
280908,2018-06-29 11:11:10.375000,56.75,72.85
280909,2018-06-29 11:11:10.406250,59.26,72.85
280910,2018-06-29 11:11:10.437500,55.63,72.85
280911,2018-06-29 11:11:10.468750,51.8,72.85
280912,2018-06-29 11:11:10.500000,52.46,72.85
280913,2018-06-29 11:11:10.531250,54.95,72.78
280914,2018-06-29 11:11:10.562500,54.68,72.78
280915,2018-06-29 11:11:10.593750,51.89,72.78
280916,2018-06-29 11:11:10.625000,47.75,72.78
280917,2018-06-29 11:11:10.656250,39.97,72.78
280918,2018-06-29 11:11:10.687500,27.53,72.78
280919,2018-06-29 11:11:10.718750,14.42,72.78
280920,2018-06-29 11:11:10.750000,4.84,72.78
280921,2018-06-29 11:11:10.781250,-2.47,72.78
280922,2018-06-29 11:11:10.812500,-11.76,72.78
280923,2018-06-29 11:11:10.843750,-23.32,72.78
280924,2018-06-29 11:11:10.875000,-33.22,72.78
280925,2018-06-29 11:11:10.906250,-39.95,72.78
280926,2018-06-29 11:11:10.937500,-46.53,72.78
280927,2018-06-29 11:11:10.968750,-56.3,72.78
280928,2018-06-29 11:11:11.000000,-69.09,72.78
280929,2018-06-29 11:11:11.031250,-77.78,72.78
280930,2018-06-29 11:11:11.062500,-70.04,72.78
280931,2018-06-29 11:11:11.093750,-41.35,72.78
280932,2018-06-29 11:11:11.125000,-3.26,72.78
280933,2018-06-29 11:11:11.156250,27.78,72.78
280934,2018-06-29 11:11:11.187500,44.87,72.78
280935,2018-06-29 11:11:11.218750,49.91,72.78
280936,2018-06-29 11:11:11.250000,46.69,72.78
280937,2018-06-29 11:11:11.281250,39.98,72.78
280938,2018-06-29 11:11:11.312500,35.28,72.78
280939,2018-06-29 11:11:11.343750,35.02,72.78
280940,2018-06-29 11:11:11.375000,37.14,72.78
280941,2018-06-29 11:11:11.406250,38.67,72.78
280942,2018-06-29 11:11:11.437500,38.26,72.78
280943,2018-06-29 11:11:11.468750,34.71,72.78
280944,2018-06-29 11:11:11.500000,26.6,72.78
280945,2018-06-29 11:11:11.531250,14.94,72.72
280946,2018-06-29 11:11:11.562500,3.43,72.72
280947,2018-06-29 11:11:11.593750,-6.1,72.72
280948,2018-06-29 11:11:11.625000,-15.73,72.72
280949,2018-06-29 11:11:11.656250,-26.94,72.72
280950,2018-06-29 11:11:11.687500,-37.39,72.72
280951,2018-06-29 11:11:11.718750,-45.07,72.72
280952,2018-06-29 11:11:11.750000,-52.36,72.72
280953,2018-06-29 11:11:11.781250,-63.38,72.72
280954,2018-06-29 11:11:11.812500,-77.99,72.72
280955,2018-06-29 11:11:11.843750,-87.74,72.72
280956,2018-06-29 11:11:11.875000,-79.61,72.72
280957,2018-06-29 11:11:11.906250,-49.29,72.72
280958,2018-06-29 11:11:11.937500,-8.85,72.72
280959,2018-06-29 11:11:11.968750,24.81,72.72
280960,2018-06-29 11:11:12.000000,45.18,72.72
280961,2018-06-29 11:11:12.031250,54.8,72.72
280962,2018-06-29 11:11:12.062500,56.21,72.72
280963,2018-06-29 11:11:12.093750,51.98,72.72
280964,2018-06-29 11:11:12.125000,47.94,72.72
280965,2018-06-29 11:11:12.156250,48.51,72.72
280966,2018-06-29 11:11:12.187500,51.51,72.72
280967,2018-06-29 11:11:12.218750,52.7,72.72
280968,2018-06-29 11:11:12.250000,51.54,72.72
280969,2018-06-29 11:11:12.281250,48.63,72.72
280970,2018-06-29 11:11:12.312500,42.3,72.72
280971,2018-06-29 11:11:12.343750,31.78,72.72
280972,2018-06-29 11:11:12.375000,20.02,72.72
280973,2018-06-29 11:11:12.406250,10.48,72.72
280974,2018-06-29 11:11:12.437500,2.7,72.72
280975,2018-06-29 11:11:12.468750,-6.71,72.72
280976,2018-06-29 11:11:12.500000,-18.74,72.72
280977,2018-06-29 11:11:12.531250,-30.21,72.67
280978,2018-06-29 11:11:12.562500,-38.34,72.67
280979,2018-06-29 11:11:12.593750,-44.71,72.67
280980,2018-06-29 11:11:12.625000,-53.38,72.67
280981,2018-06-29 11:11:12.656250,-66.34,72.67
280982,2018-06-29 11:11:12.687500,-78.66,72.67
280983,2018-06-29 11:11:12.718750,-77.68,72.67
280984,2018-06-29 11:11:12.750000,-54.44,72.67
280985,2018-06-29 11:11:12.781250,-16.47,72.67
280986,2018-06-29 11:11:12.812500,18.96,72.67
280987,2018-06-29 11:11:12.843750,42.04,72.67
280988,2018-06-29 11:11:12.875000,53.42,72.67
280989,2018-06-29 11:11:12.906250,55.9,72.67
280990,2018-06-29 11:11:12.937500,52.34,72.67
280991,2018-06-29 11:11:12.968750,47.7,72.67
280992,2018-06-29 11:11:13.000000,46.29,72.67
280993,2018-06-29 11:11:13.031250,47.62,72.67
280994,2018-06-29 11:11:13.062500,47.97,72.67
280995,2018-06-29 11:11:13.093750,45.97,72.67
280996,2018-06-29 11:11:13.125000,43.51,72.67
280997,2018-06-29 11:11:13.156250,40.95,72.67
280998,2018-06-29 11:11:13.187500,35.61,72.67
280999,2018-06-29 11:11:13.218750,26.47,72.67
