,Time,ppg,hr
284800,2018-06-29 11:13:12.000000,-39.68,71.73
284801,2018-06-29 11:13:12.031250,-31.04,71.73
284802,2018-06-29 11:13:12.062500,-15.56,71.73
284803,2018-06-29 11:13:12.093750,-0.78,71.73
284804,2018-06-29 11:13:12.125000,8.15,71.73
284805,2018-06-29 11:13:12.156250,10.64,71.73
284806,2018-06-29 11:13:12.187500,7.96,71.73
284807,2018-06-29 11:13:12.218750,2.6,71.73
284808,2018-06-29 11:13:12.250000,-1.67,71.73
284809,2018-06-29 11:13:12.281250,-2.57,71.73
284810,2018-06-29 11:13:12.312500,-0.92,71.73
284811,2018-06-29 11:13:12.343750,1.29,71.73
284812,2018-06-29 11:13:12.375000,2.69,71.73
284813,2018-06-29 11:13:12.406250,2.43,71.73
284814,2018-06-29 11:13:12.437500,0.42,71.73
284815,2018-06-29 11:13:12.468750,-2.55,71.73
284816,2018-06-29 11:13:12.500000,-5.9,71.73
284817,2018-06-29 11:13:12.531250,-10.24,71.82
284818,2018-06-29 11:13:12.562500,-15.92,71.82
284819,2018-06-29 11:13:12.593750,-21.63,71.82
284820,2018-06-29 11:13:12.625000,-25.9,71.82
284821,2018-06-29 11:13:12.656250,-29.43,71.82
284822,2018-06-29 11:13:12.687500,-34.27,71.82
284823,2018-06-29 11:13:12.718750,-41.38,71.82
284824,2018-06-29 11:13:12.750000,-48.16,71.82
284825,2018-06-29 11:13:12.781250,-48.57,71.82
284826,2018-06-29 11:13:12.812500,-38.17,71.82
284827,2018-06-29 11:13:12.843750,-19.8,71.82
284828,2018-06-29 11:13:12.875000,-1.49,71.82
284829,2018-06-29 11:13:12.906250,10.8,71.82
284830,2018-06-29 11:13:12.937500,15.79,71.82
284831,2018-06-29 11:13:12.968750,14.84,71.82
284832,2018-06-29 11:13:13.000000,10.69,71.82
284833,2018-06-29 11:13:13.031250,7.05,71.82
284834,2018-06-29 11:13:13.062500,6.75,71.82
284835,2018-06-29 11:13:13.093750,9.75,71.82
284836,2018-06-29 11:13:13.125000,13.61,71.82
284837,2018-06-29 11:13:13.156250,15.69,71.82
284838,2018-06-29 11:13:13.187500,15.05,71.82
284839,2018-06-29 11:13:13.218750,12.21,71.82
284840,2018-06-29 11:13:13.250000,7.45,71.82
284841,2018-06-29 11:13:13.281250,0.42,71.82
284842,2018-06-29 11:13:13.312500,-8.27,71.82
284843,2018-06-29 11:13:13.343750,-16.92,71.82
284844,2018-06-29 11:13:13.375000,-24.5,71.82
284845,2018-06-29 11:13:13.406250,-31.24,71.82
284846,2018-06-29 11:13:13.437500,-37.95,71.82
284847,2018-06-29 11:13:13.468750,-46.11,71.82
284848,2018-06-29 11:13:13.500000,-56.26,71.82
284849,2018-06-29 11:13:13.531250,-63.29,71.87
284850,2018-06-29 11:13:13.562500,-57.74,71.87
284851,2018-06-29 11:13:13.593750,-36.52,71.87
284852,2018-06-29 11:13:13.625000,-8.78,71.87
284853,2018-06-29 11:13:13.656250,13.89,71.87
284854,2018-06-29 11:13:13.687500,27.4,71.87
284855,2018-06-29 11:13:13.718750,32.49,71.87
284856,2018-06-29 11:13:13.750000,30.45,71.87
284857,2018-06-29 11:13:13.781250,25.14,71.87
284858,2018-06-29 11:13:13.812500,22.0,71.87
284859,2018-06-29 11:13:13.843750,23.08,71.87
284860,2018-06-29 11:13:13.875000,26.69,71.87
284861,2018-06-29 11:13:13.906250,30.26,71.87
284862,2018-06-29 11:13:13.937500,31.27,71.87
284863,2018-06-29 11:13:13.968750,28.43,71.87
284864,2018-06-29 11:13:14.000000,22.75,71.87
284865,2018-06-29 11:13:14.031250,15.75,71.87
284866,2018-06-29 11:13:14.062500,7.04,71.87
284867,2018-06-29 11:13:14.093750,-4.09,71.87
284868,2018-06-29 11:13:14.125000,-15.84,71.87
284869,2018-06-29 11:13:14.156250,-25.37,71.87
284870,2018-06-29 11:13:14.187500,-32.66,71.87
284871,2018-06-29 11:13:14.218750,-40.62,71.87
284872,2018-06-29 11:13:14.250000,-51.85,71.87
284873,2018-06-29 11:13:14.281250,-63.95,71.87
284874,2018-06-29 11:13:14.312500,-66.98,71.87
284875,2018-06-29 11:13:14.343750,-50.81,71.87
284876,2018-06-29 11:13:14.375000,-18.01,71.87
284877,2018-06-29 11:13:14.406250,16.96,71.87
284878,2018-06-29 11:13:14.437500,41.84,71.87
284879,2018-06-29 11:13:14.468750,53.53,71.87
284880,2018-06-29 11:13:14.500000,53.85,71.87
284881,2018-06-29 11:13:14.531250,47.04,71.9
284882,2018-06-29 11:13:14.562500,39.62,71.9
284883,2018-06-29 11:13:14.593750,36.69,71.9
284884,2018-06-29 11:13:14.625000,38.7,71.9
284885,2018-06-29 11:13:14.656250,42.79,71.9
284886,2018-06-29 11:13:14.687500,45.14,71.9
284887,2018-06-29 11:13:14.718750,42.94,71.9
284888,2018-06-29 11:13:14.750000,36.46,71.9
284889,2018-06-29 11:13:14.781250,28.22,71.9
284890,2018-06-29 11:13:14.812500,19.42,71.9
284891,2018-06-29 11:13:14.843750,9.25,71.9
284892,2018-06-29 11:13:14.875000,-2.54,71.9
284893,2018-06-29 11:13:14.906250,-15.03,71.9
284894,2018-06-29 11:13:14.937500,-27.01,71.9
284895,2018-06-29 11:13:14.968750,-37.33,71.9
284896,2018-06-29 11:13:15.000000,-46.93,71.9
284897,2018-06-29 11:13:15.031250,-59.51,71.9
284898,2018-06-29 11:13:15.062500,-74.35,71.9
284899,2018-06-29 11:13:15.093750,-79.35,71.9
284900,2018-06-29 11:13:15.125000,-61.21,71.9
284901,2018-06-29 11:13:15.156250,-22.64,71.9
284902,2018-06-29 11:13:15.187500,19.2,71.9
284903,2018-06-29 11:13:15.218750,49.82,71.9
284904,2018-06-29 11:13:15.250000,64.93,71.9
284905,2018-06-29 11:13:15.281250,65.98,71.9
284906,2018-06-29 11:13:15.312500,58.22,71.9
284907,2018-06-29 11:13:15.343750,50.14,71.9
284908,2018-06-29 11:13:15.375000,47.68,71.9
284909,2018-06-29 11:13:15.406250,49.88,71.9
284910,2018-06-29 11:13:15.437500,52.86,71.9
284911,2018-06-29 11:13:15.468750,54.41,71.9
284912,2018-06-29 11:13:15.500000,52.95,71.9
284913,2018-06-29 11:13:15.531250,46.65,71.93
284914,2018-06-29 11:13:15.562500,35.99,71.93
284915,2018-06-29 11:13:15.593750,23.78,71.93
284916,2018-06-29 11:13:15.625000,11.34,71.93
284917,2018-06-29 11:13:15.656250,-1.98,71.93
284918,2018-06-29 11:13:15.687500,-15.43,71.93
284919,2018-06-29 11:13:15.718750,-26.74,71.93
284920,2018-06-29 11:13:15.750000,-35.41,71.93
284921,2018-06-29 11:13:15.781250,-44.3,71.93
284922,2018-06-29 11:13:15.812500,-57.34,71.93
284923,2018-06-29 11:13:15.843750,-73.54,71.93
284924,2018-06-29 11:13:15.875000,-81.71,71.93
284925,2018-06-29 11:13:15.906250,-67.46,71.93
284926,2018-06-29 11:13:15.937500,-30.05,71.93
284927,2018-06-29 11:13:15.968750,14.54,71.93
284928,2018-06-29 11:13:16.000000,49.63,71.93
284929,2018-06-29 11:13:16.031250,68.84,71.93
284930,2018-06-29 11:13:16.062500,72.52,71.93
284931,2018-06-29 11:13:16.093750,64.66,71.93
284932,2018-06-29 11:13:16.125000,53.85,71.93
284933,2018-06-29 11:13:16.156250,48.49,71.93
284934,2018-06-29 11:13:16.187500,49.45,71.93
284935,2018-06-29 11:13:16.218750,51.82,71.93
284936,2018-06-29 11:13:16.250000,52.72,71.93
284937,2018-06-29 11:13:16.281250,52.35,71.93
284938,2018-06-29 11:13:16.312500,48.77,71.93
284939,2018-06-29 11:13:16.343750,38.99,71.93
284940,2018-06-29 11:13:16.375000,25.08,71.93
284941,2018-06-29 11:13:16.406250,12.42,71.93
284942,2018-06-29 11:13:16.437500,2.19,71.93
284943,2018-06-29 11:13:16.468750,-8.72,71.93
284944,2018-06-29 11:13:16.500000,-21.43,71.93
284945,2018-06-29 11:13:16.531250,-33.4,71.98
284946,2018-06-29 11:13:16.562500,-42.81,71.98
284947,2018-06-29 11:13:16.593750,-51.17,71.98
284948,2018-06-29 11:13:16.625000,-62.1,71.98
284949,2018-06-29 11:13:16.656250,-77.06,71.98
284950,2018-06-29 11:13:16.687500,-88.61,71.98
284951,2018-06-29 11:13:16.718750,-81.08,71.98
284952,2018-06-29 11:13:16.750000,-46.77,71.98
284953,2018-06-29 11:13:16.781250,1.92,71.98
284954,2018-06-29 11:13:16.812500,43.84,71.98
284955,2018-06-29 11:13:16.843750,68.03,71.98
284956,2018-06-29 11:13:16.875000,75.69,71.98
284957,2018-06-29 11:13:16.906250,71.33,71.98
284958,2018-06-29 11:13:16.937500,60.41,71.98
284959,2018-06-29 11:13:16.968750,50.81,71.98
284960,2018-06-29 11:13:17.000000,48.46,71.98
284961,2018-06-29 11:13:17.031250,51.75,71.98
284962,2018-06-29 11:13:17.062500,54.58,71.98
284963,2018-06-29 11:13:17.093750,54.14,71.98
284964,2018-06-29 11:13:17.125000,51.3,71.98
284965,2018-06-29 11:13:17.156250,45.52,71.98
284966,2018-06-29 11:13:17.187500,35.07,71.98
284967,2018-06-29 11:13:17.218750,21.6,71.98
284968,2018-06-29 11:13:17.250000,9.61,71.98
284969,2018-06-29 11:13:17.281250,1.18,71.98
284970,2018-06-29 11:13:17.312500,-6.06,71.98
284971,2018-06-29 11:13:17.343750,-15.44,71.98
284972,2018-06-29 11:13:17.375000,-27.06,71.98
284973,2018-06-29 11:13:17.406250,-37.95,71.98
284974,2018-06-29 11:13:17.437500,-46.11,71.98
284975,2018-06-29 11:13:17.468750,-53.29,71.98
284976,2018-06-29 11:13:17.500000,-63.28,71.98
284977,2018-06-29 11:13:17.531250,-77.92,71.98
284978,2018-06-29 11:13:17.562500,-91.64,71.98
284979,2018-06-29 11:13:17.593750,-89.92,71.98
284980,2018-06-29 11:13:17.625000,-61.64,71.98
284981,2018-06-29 11:13:17.656250,-14.53,71.98
284982,2018-06-29 11:13:17.687500,30.11,71.98
284983,2018-06-29 11:13:17.718750,57.83,71.98
284984,2018-06-29 11:13:17.750000,68.14,71.98
284985,2018-06-29 11:13:17.781250,65.84,71.98
284986,2018-06-29 11:13:17.812500,56.37,71.98
284987,2018-06-29 11:13:17.843750,46.93,71.98
284988,2018-06-29 11:13:17.875000,43.24,71.98
284989,2018-06-29 11:13:17.906250,44.64,71.98
284990,2018-06-29 11:13:17.937500,46.56,71.98
284991,2018-06-29 11:13:17.968750,46.53,71.98
284992,2018-06-29 11:13:18.000000,44.8,71.98
284993,2018-06-29 11:13:18.031250,41.07,71.98
284994,2018-06-29 11:13:18.062500,34.04,71.98
284995,2018-06-29 11:13:18.093750,23.59,71.98
284996,2018-06-29 11:13:18.125000,11.93,71.98
284997,2018-06-29 11:13:18.156250,1.84,71.98
284998,2018-06-29 11:13:18.187500,-6.36,71.98
284999,2018-06-29 11:13:18.218750,-14.72,71.98
285000,2018-06-29 11:13:18.250000,-24.25,71.98
285001,2018-06-29 11:13:18.281250,-33.5,71.98
285002,2018-06-29 11:13:18.312500,-40.94,71.98
285003,2018-06-29 11:13:18.343750,-46.87,71.98
285004,2018-06-29 11:13:18.375000,-53.24,71.98
285005,2018-06-29 11:13:18.406250,-62.9,71.98
285006,2018-06-29 11:13:18.437500,-76.57,71.98
285007,2018-06-29 11:13:18.468750,-86.96,71.98
285008,2018-06-29 11:13:18.500000,-80.17,71.98
285009,2018-06-29 11:13:18.531250,-50.0,71.95
285010,2018-06-29 11:13:18.562500,-7.57,71.95
285011,2018-06-29 11:13:18.593750,28.91,71.95
285012,2018-06-29 11:13:18.625000,49.82,71.95
285013,2018-06-29 11:13:18.656250,55.93,71.95
285014,2018-06-29 11:13:18.687500,51.71,71.95
285015,2018-06-29 11:13:18.718750,42.8,71.95
285016,2018-06-29 11:13:18.750000,35.82,71.95
285017,2018-06-29 11:13:18.781250,34.9,71.95
285018,2018-06-29 11:13:18.812500,38.3,71.95
285019,2018-06-29 11:13:18.843750,40.81,71.95
285020,2018-06-29 11:13:18.875000,39.79,71.95
285021,2018-06-29 11:13:18.906250,36.47,71.95
285022,2018-06-29 11:13:18.937500,31.71,71.95
285023,2018-06-29 11:13:18.968750,24.73,71.95
285024,2018-06-29 11:13:19.000000,15.45,71.95
285025,2018-06-29 11:13:19.031250,5.68,71.95
285026,2018-06-29 11:13:19.062500,-2.49,71.95
285027,2018-06-29 11:13:19.093750,-8.6,71.95
285028,2018-06-29 11:13:19.125000,-14.64,71.95
285029,2018-06-29 11:13:19.156250,-22.33,71.95
285030,2018-06-29 11:13:19.187500,-29.94,71.95
285031,2018-06-29 11:13:19.218750,-35.19,71.95
285032,2018-06-29 11:13:19.250000,-39.57,71.95
285033,2018-06-29 11:13:19.281250,-46.81,71.95
285034,2018-06-29 11:13:19.312500,-58.3,71.95
285035,2018-06-29 11:13:19.343750,-69.62,71.95
285036,2018-06-29 11:13:19.375000,-70.04,71.95
285037,2018-06-29 11:13:19.406250,-50.5,71.95
285038,2018-06-29 11:13:19.437500,-15.23,71.95
285039,2018-06-29 11:13:19.468750,20.15,71.95
285040,2018-06-29 11:13:19.500000,43.56,71.95
285041,2018-06-29 11:13:19.531250,53.62,71.9
285042,2018-06-29 11:13:19.562500,54.08,71.9
285043,2018-06-29 11:13:19.593750,48.98,71.9
285044,2018-06-29 11:13:19.625000,43.4,71.9
285045,2018-06-29 11:13:19.656250,41.76,71.9
285046,2018-06-29 11:13:19.687500,44.14,71.9
285047,2018-06-29 11:13:19.718750,47.52,71.9
285048,2018-06-29 11:13:19.750000,50.0,71.9
285049,2018-06-29 11:13:19.781250,51.39,71.9
285050,2018-06-29 11:13:19.812500,50.72,71.9
285051,2018-06-29 11:13:19.843750,46.65,71.9
285052,2018-06-29 11:13:19.875000,39.71,71.9
285053,2018-06-29 11:13:19.906250,31.81,71.9
285054,2018-06-29 11:13:19.937500,23.8,71.9
285055,2018-06-29 11:13:19.968750,14.79,71.9
285056,2018-06-29 11:13:20.000000,3.77,71.9
285057,2018-06-29 11:13:20.031250,-8.77,71.9
285058,2018-06-29 11:13:20.062500,-21.13,71.9
285059,2018-06-29 11:13:20.093750,-31.84,71.9
285060,2018-06-29 11:13:20.125000,-40.78,71.9
285061,2018-06-29 11:13:20.156250,-49.21,71.9
285062,2018-06-29 11:13:20.187500,-59.36,71.9
285063,2018-06-29 11:13:20.218750,-70.38,71.9
285064,2018-06-29 11:13:20.250000,-74.04,71.9
285065,2018-06-29 11:13:20.281250,-60.57,71.9
285066,2018-06-29 11:13:20.312500,-31.86,71.9
285067,2018-06-29 11:13:20.343750,-1.81,71.9
285068,2018-06-29 11:13:20.375000,17.79,71.9
285069,2018-06-29 11:13:20.406250,24.93,71.9
285070,2018-06-29 11:13:20.437500,22.21,71.9
285071,2018-06-29 11:13:20.468750,13.23,71.9
285072,2018-06-29 11:13:20.500000,3.87,71.9
285073,2018-06-29 11:13:20.531250,-0.71,71.85
285074,2018-06-29 11:13:20.562500,-0.91,71.85
285075,2018-06-29 11:13:20.593750,-0.23,71.85
285076,2018-06-29 11:13:20.625000,-0.04,71.85
285077,2018-06-29 11:13:20.656250,0.22,71.85
285078,2018-06-29 11:13:20.687500,0.17,71.85
285079,2018-06-29 11:13:20.718750,-1.72,71.85
285080,2018-06-29 11:13:20.750000,-6.3,71.85
285081,2018-06-29 11:13:20.781250,-12.76,71.85
285082,2018-06-29 11:13:20.812500,-19.6,71.85
285083,2018-06-29 11:13:20.843750,-26.81,71.85
285084,2018-06-29 11:13:20.875000,-35.79,71.85
285085,2018-06-29 11:13:20.906250,-46.49,71.85
285086,2018-06-29 11:13:20.937500,-56.01,71.85
285087,2018-06-29 11:13:20.968750,-61.86,71.85
285088,2018-06-29 11:13:21.000000,-65.61,71.85
285089,2018-06-29 11:13:21.031250,-71.69,71.85
285090,2018-06-29 11:13:21.062500,-81.86,71.85
285091,2018-06-29 11:13:21.093750,-90.18,71.85
285092,2018-06-29 11:13:21.125000,-86.24,71.85
285093,2018-06-29 11:13:21.156250,-66.68,71.85
285094,2018-06-29 11:13:21.187500,-39.97,71.85
285095,2018-06-29 11:13:21.218750,-17.15,71.85
285096,2018-06-29 11:13:21.250000,-3.14,71.85
285097,2018-06-29 11:13:21.281250,1.72,71.85
285098,2018-06-29 11:13:21.312500,-0.83,71.85
285099,2018-06-29 11:13:21.343750,-6.39,71.85
285100,2018-06-29 11:13:21.375000,-10.2,71.85
285101,2018-06-29 11:13:21.406250,-10.4,71.85
285102,2018-06-29 11:13:21.437500,-7.25,71.85
285103,2018-06-29 11:13:21.468750,-1.79,71.85
285104,2018-06-29 11:13:21.500000,3.42,71.85
285105,2018-06-29 11:13:21.531250,5.21,71.82
285106,2018-06-29 11:13:21.562500,2.62,71.82
285107,2018-06-29 11:13:21.593750,-2.4,71.82
285108,2018-06-29 11:13:21.625000,-8.02,71.82
285109,2018-06-29 11:13:21.656250,-14.56,71.82
285110,2018-06-29 11:13:21.687500,-22.72,71.82
285111,2018-06-29 11:13:21.718750,-31.16,71.82
285112,2018-06-29 11:13:21.750000,-37.8,71.82
285113,2018-06-29 11:13:21.781250,-42.98,71.82
285114,2018-06-29 11:13:21.812500,-49.97,71.82
285115,2018-06-29 11:13:21.843750,-60.18,71.82
285116,2018-06-29 11:13:21.875000,-67.27,71.82
285117,2018-06-29 11:13:21.906250,-59.97,71.82
285118,2018-06-29 11:13:21.937500,-34.68,71.82
285119,2018-06-29 11:13:21.968750,-1.32,71.82
285120,2018-06-29 11:13:22.000000,26.67,71.82
285121,2018-06-29 11:13:22.031250,43.35,71.82
285122,2018-06-29 11:13:22.062500,49.52,71.82
285123,2018-06-29 11:13:22.093750,48.09,71.82
285124,2018-06-29 11:13:22.125000,43.56,71.82
285125,2018-06-29 11:13:22.156250,40.79,71.82
285126,2018-06-29 11:13:22.187500,41.83,71.82
285127,2018-06-29 11:13:22.218750,44.95,71.82
285128,2018-06-29 11:13:22.250000,47.17,71.82
285129,2018-06-29 11:13:22.281250,46.88,71.82
285130,2018-06-29 11:13:22.312500,44.43,71.82
285131,2018-06-29 11:13:22.343750,40.46,71.82
285132,2018-06-29 11:13:22.375000,33.96,71.82
285133,2018-06-29 11:13:22.406250,22.64,71.82
285134,2018-06-29 11:13:22.437500,5.95,71.82
285135,2018-06-29 11:13:22.468750,-12.64,71.82
285136,2018-06-29 11:13:22.500000,-28.18,71.82
285137,2018-06-29 11:13:22.531250,-39.18,71.78
285138,2018-06-29 11:13:22.562500,-48.54,71.78
285139,2018-06-29 11:13:22.593750,-60.05,71.78
285140,2018-06-29 11:13:22.625000,-73.91,71.78
285141,2018-06-29 11:13:22.656250,-82.49,71.78
285142,2018-06-29 11:13:22.687500,-73.21,71.78
285143,2018-06-29 11:13:22.718750,-41.91,71.78
285144,2018-06-29 11:13:22.750000,-0.23,71.78
285145,2018-06-29 11:13:22.781250,35.29,71.78
285146,2018-06-29 11:13:22.812500,56.57,71.78
285147,2018-06-29 11:13:22.843750,64.34,71.78
285148,2018-06-29 11:13:22.875000,62.86,71.78
285149,2018-06-29 11:13:22.906250,57.64,71.78
285150,2018-06-29 11:13:22.937500,53.42,71.78
285151,2018-06-29 11:13:22.968750,51.65,71.78
285152,2018-06-29 11:13:23.000000,51.4,71.78
285153,2018-06-29 11:13:23.031250,51.65,71.78
285154,2018-06-29 11:13:23.062500,51.07,71.78
285155,2018-06-29 11:13:23.093750,47.36,71.78
285156,2018-06-29 11:13:23.125000,39.09,71.78
285157,2018-06-29 11:13:23.156250,27.74,71.78
285158,2018-06-29 11:13:23.187500,16.13,71.78
285159,2018-06-29 11:13:23.218750,5.14,71.78
285160,2018-06-29 11:13:23.250000,-7.13,71.78
285161,2018-06-29 11:13:23.281250,-21.98,71.78
285162,2018-06-29 11:13:23.312500,-36.98,71.78
285163,2018-06-29 11:13:23.343750,-48.47,71.78
285164,2018-06-29 11:13:23.375000,-56.64,71.78
285165,2018-06-29 11:13:23.406250,-66.27,71.78
285166,2018-06-29 11:13:23.437500,-80.56,71.78
285167,2018-06-29 11:13:23.468750,-92.52,71.78
285168,2018-06-29 11:13:23.500000,-86.37,71.78
285169,2018-06-29 11:13:23.531250,-53.89,71.73
285170,2018-06-29 11:13:23.562500,-6.15,71.73
285171,2018-06-29 11:13:23.593750,37.54,71.73
285172,2018-06-29 11:13:23.625000,67.15,71.73
285173,2018-06-29 11:13:23.656250,82.76,71.73
285174,2018-06-29 11:13:23.687500,86.77,71.73
285175,2018-06-29 11:13:23.718750,82.99,71.73
285176,2018-06-29 11:13:23.750000,77.72,71.73
285177,2018-06-29 11:13:23.781250,75.65,71.73
285178,2018-06-29 11:13:23.812500,76.03,71.73
285179,2018-06-29 11:13:23.843750,75.24,71.73
285180,2018-06-29 11:13:23.875000,71.56,71.73
285181,2018-06-29 11:13:23.906250,65.62,71.73
285182,2018-06-29 11:13:23.937500,57.37,71.73
285183,2018-06-29 11:13:23.968750,45.38,71.73
285184,2018-06-29 11:13:24.000000,30.06,71.73
285185,2018-06-29 11:13:24.031250,15.35,71.73
285186,2018-06-29 11:13:24.062500,4.47,71.73
285187,2018-06-29 11:13:24.093750,-4.19,71.73
285188,2018-06-29 11:13:24.125000,-14.42,71.73
285189,2018-06-29 11:13:24.156250,-26.89,71.73
285190,2018-06-29 11:13:24.187500,-38.73,71.73
285191,2018-06-29 11:13:24.218750,-47.45,71.73
285192,2018-06-29 11:13:24.250000,-53.76,71.73
285193,2018-06-29 11:13:24.281250,-61.54,71.73
285194,2018-06-29 11:13:24.312500,-74.44,71.73
285195,2018-06-29 11:13:24.343750,-89.79,71.73
285196,2018-06-29 11:13:24.375000,-95.13,71.73
285197,2018-06-29 11:13:24.406250,-77.16,71.73
285198,2018-06-29 11:13:24.437500,-37.43,71.73
285199,2018-06-29 11:13:24.468750,6.84,71.73
285200,2018-06-29 11:13:24.500000,39.27,71.73
285201,2018-06-29 11:13:24.531250,55.54,71.77
285202,2018-06-29 11:13:24.562500,58.54,71.77
285203,2018-06-29 11:13:24.593750,52.93,71.77
285204,2018-06-29 11:13:24.625000,45.62,71.77
285205,2018-06-29 11:13:24.656250,42.95,71.77
285206,2018-06-29 11:13:24.687500,45.09,71.77
285207,2018-06-29 11:13:24.718750,47.34,71.77
285208,2018-06-29 11:13:24.750000,47.06,71.77
285209,2018-06-29 11:13:24.781250,44.77,71.77
285210,2018-06-29 11:13:24.812500,39.88,71.77
285211,2018-06-29 11:13:24.843750,30.42,71.77
285212,2018-06-29 11:13:24.875000,16.98,71.77
285213,2018-06-29 11:13:24.906250,3.41,71.77
285214,2018-06-29 11:13:24.937500,-7.7,71.77
285215,2018-06-29 11:13:24.968750,-17.73,71.77
285216,2018-06-29 11:13:25.000000,-28.62,71.77
285217,2018-06-29 11:13:25.031250,-39.12,71.77
285218,2018-06-29 11:13:25.062500,-46.98,71.77
285219,2018-06-29 11:13:25.093750,-53.33,71.77
285220,2018-06-29 11:13:25.125000,-61.7,71.77
285221,2018-06-29 11:13:25.156250,-73.56,71.77
285222,2018-06-29 11:13:25.187500,-84.21,71.77
285223,2018-06-29 11:13:25.218750,-82.37,71.77
285224,2018-06-29 11:13:25.250000,-59.43,71.77
285225,2018-06-29 11:13:25.281250,-21.18,71.77
285226,2018-06-29 11:13:25.312500,15.75,71.77
285227,2018-06-29 11:13:25.343750,39.64,71.77
285228,2018-06-29 11:13:25.375000,49.2,71.77
285229,2018-06-29 11:13:25.406250,47.51,71.77
285230,2018-06-29 11:13:25.437500,39.28,71.77
285231,2018-06-29 11:13:25.468750,31.49,71.77
285232,2018-06-29 11:13:25.500000,29.43,71.77
285233,2018-06-29 11:13:25.531250,32.04,71.75
285234,2018-06-29 11:13:25.562500,34.65,71.75
285235,2018-06-29 11:13:25.593750,34.32,71.75
285236,2018-06-29 11:13:25.625000,30.77,71.75
285237,2018-06-29 11:13:25.656250,24.26,71.75
285238,2018-06-29 11:13:25.687500,15.54,71.75
285239,2018-06-29 11:13:25.718750,6.09,71.75
285240,2018-06-29 11:13:25.750000,-3.64,71.75
285241,2018-06-29 11:13:25.781250,-14.55,71.75
285242,2018-06-29 11:13:25.812500,-26.07,71.75
285243,2018-06-29 11:13:25.843750,-35.59,71.75
285244,2018-06-29 11:13:25.875000,-42.36,71.75
285245,2018-06-29 11:13:25.906250,-49.99,71.75
285246,2018-06-29 11:13:25.937500,-62.74,71.75
285247,2018-06-29 11:13:25.968750,-78.1,71.75
285248,2018-06-29 11:13:26.000000,-83.85,71.75
285249,2018-06-29 11:13:26.031250,-67.47,71.75
285250,2018-06-29 11:13:26.062500,-30.87,71.75
285251,2018-06-29 11:13:26.093750,9.67,71.75
285252,2018-06-29 11:13:26.125000,39.46,71.75
285253,2018-06-29 11:13:26.156250,54.76,71.75
285254,2018-06-29 11:13:26.187500,57.92,71.75
285255,2018-06-29 11:13:26.218750,53.14,71.75
285256,2018-06-29 11:13:26.250000,46.63,71.75
285257,2018-06-29 11:13:26.281250,43.42,71.75
285258,2018-06-29 11:13:26.312500,43.42,71.75
285259,2018-06-29 11:13:26.343750,43.84,71.75
285260,2018-06-29 11:13:26.375000,43.57,71.75
285261,2018-06-29 11:13:26.406250,42.47,71.75
285262,2018-06-29 11:13:26.437500,38.48,71.75
285263,2018-06-29 11:13:26.468750,29.33,71.75
285264,2018-06-29 11:13:26.500000,16.85,71.75
285265,2018-06-29 11:13:26.531250,5.74,71.7
285266,2018-06-29 11:13:26.562500,-2.46,71.7
285267,2018-06-29 11:13:26.593750,-11.04,71.7
285268,2018-06-29 11:13:26.625000,-22.55,71.7
285269,2018-06-29 11:13:26.656250,-34.97,71.7
285270,2018-06-29 11:13:26.687500,-44.84,71.7
285271,2018-06-29 11:13:26.718750,-52.31,71.7
285272,2018-06-29 11:13:26.750000,-61.7,71.7
285273,2018-06-29 11:13:26.781250,-76.34,71.7
285274,2018-06-29 11:13:26.812500,-91.16,71.7
285275,2018-06-29 11:13:26.843750,-92.01,71.7
285276,2018-06-29 11:13:26.875000,-68.69,71.7
285277,2018-06-29 11:13:26.906250,-28.44,71.7
285278,2018-06-29 11:13:26.937500,10.61,71.7
285279,2018-06-29 11:13:26.968750,37.42,71.7
285280,2018-06-29 11:13:27.000000,52.1,71.7
285281,2018-06-29 11:13:27.031250,57.17,71.7
285282,2018-06-29 11:13:27.062500,55.02,71.7
285283,2018-06-29 11:13:27.093750,50.74,71.7
285284,2018-06-29 11:13:27.125000,49.1,71.7
285285,2018-06-29 11:13:27.156250,50.13,71.7
285286,2018-06-29 11:13:27.187500,51.32,71.7
285287,2018-06-29 11:13:27.218750,51.44,71.7
285288,2018-06-29 11:13:27.250000,49.91,71.7
285289,2018-06-29 11:13:27.281250,45.37,71.7
285290,2018-06-29 11:13:27.312500,37.31,71.7
285291,2018-06-29 11:13:27.343750,27.32,71.7
285292,2018-06-29 11:13:27.375000,17.29,71.7
285293,2018-06-29 11:13:27.406250,7.99,71.7
285294,2018-06-29 11:13:27.437500,-0.18,71.7
285295,2018-06-29 11:13:27.468750,-7.25,71.7
285296,2018-06-29 11:13:27.500000,-14.62,71.7
285297,2018-06-29 11:13:27.531250,-23.71,71.65
285298,2018-06-29 11:13:27.562500,-33.47,71.65
285299,2018-06-29 11:13:27.593750,-41.77,71.65
285300,2018-06-29 11:13:27.625000,-49.26,71.65
285301,2018-06-29 11:13:27.656250,-59.88,71.65
285302,2018-06-29 11:13:27.687500,-75.86,71.65
285303,2018-06-29 11:13:27.718750,-91.19,71.65
285304,2018-06-29 11:13:27.750000,-92.24,71.65
285305,2018-06-29 11:13:27.781250,-69.83,71.65
285306,2018-06-29 11:13:27.812500,-30.85,71.65
285307,2018-06-29 11:13:27.843750,7.47,71.65
285308,2018-06-29 11:13:27.875000,33.51,71.65
285309,2018-06-29 11:13:27.906250,46.58,71.65
285310,2018-06-29 11:13:27.937500,49.94,71.65
285311,2018-06-29 11:13:27.968750,47.18,71.65
285312,2018-06-29 11:13:28.000000,43.74,71.65
285313,2018-06-29 11:13:28.031250,44.31,71.65
285314,2018-06-29 11:13:28.062500,48.4,71.65
285315,2018-06-29 11:13:28.093750,52.64,71.65
285316,2018-06-29 11:13:28.125000,55.74,71.65
285317,2018-06-29 11:13:28.156250,57.99,71.65
285318,2018-06-29 11:13:28.187500,58.25,71.65
285319,2018-06-29 11:13:28.218750,55.39,71.65
285320,2018-06-29 11:13:28.250000,50.73,71.65
285321,2018-06-29 11:13:28.281250,45.81,71.65
285322,2018-06-29 11:13:28.312500,39.66,71.65
285323,2018-06-29 11:13:28.343750,30.61,71.65
285324,2018-06-29 11:13:28.375000,19.55,71.65
285325,2018-06-29 11:13:28.406250,8.92,71.65
285326,2018-06-29 11:13:28.437500,-0.42,71.65
285327,2018-06-29 11:13:28.468750,-9.79,71.65
285328,2018-06-29 11:13:28.500000,-20.38,71.65
285329,2018-06-29 11:13:28.531250,-31.26,71.6
285330,2018-06-29 11:13:28.562500,-40.49,71.6
285331,2018-06-29 11:13:28.593750,-47.9,71.6
285332,2018-06-29 11:13:28.625000,-56.2,71.6
285333,2018-06-29 11:13:28.656250,-67.4,71.6
285334,2018-06-29 11:13:28.687500,-76.06,71.6
285335,2018-06-29 11:13:28.718750,-70.02,71.6
285336,2018-06-29 11:13:28.750000,-43.43,71.6
285337,2018-06-29 11:13:28.781250,-6.44,71.6
285338,2018-06-29 11:13:28.812500,23.46,71.6
285339,2018-06-29 11:13:28.843750,36.81,71.6
285340,2018-06-29 11:13:28.875000,35.17,71.6
285341,2018-06-29 11:13:28.906250,24.27,71.6
285342,2018-06-29 11:13:28.937500,10.46,71.6
285343,2018-06-29 11:13:28.968750,0.24,71.6
285344,2018-06-29 11:13:29.000000,-2.67,71.6
285345,2018-06-29 11:13:29.031250,-0.64,71.6
285346,2018-06-29 11:13:29.062500,0.99,71.6
285347,2018-06-29 11:13:29.093750,0.28,71.6
285348,2018-06-29 11:13:29.125000,-1.63,71.6
285349,2018-06-29 11:13:29.156250,-5.16,71.6
285350,2018-06-29 11:13:29.187500,-11.9,71.6
285351,2018-06-29 11:13:29.218750,-19.98,71.6
285352,2018-06-29 11:13:29.250000,-24.58,71.6
285353,2018-06-29 11:13:29.281250,-23.32,71.6
285354,2018-06-29 11:13:29.312500,-18.4,71.6
285355,2018-06-29 11:13:29.343750,-13.69,71.6
285356,2018-06-29 11:13:29.375000,-11.97,71.6
285357,2018-06-29 11:13:29.406250,-14.6,71.6
285358,2018-06-29 11:13:29.437500,-22.21,71.6
285359,2018-06-29 11:13:29.468750,-35.32,71.6
285360,2018-06-29 11:13:29.500000,-53.22,71.6
285361,2018-06-29 11:13:29.531250,-70.0,71.57
285362,2018-06-29 11:13:29.562500,-74.15,71.57
285363,2018-06-29 11:13:29.593750,-58.33,71.57
285364,2018-06-29 11:13:29.625000,-28.8,71.57
285365,2018-06-29 11:13:29.656250,0.08,71.57
285366,2018-06-29 11:13:29.687500,19.71,71.57
285367,2018-06-29 11:13:29.718750,30.5,71.57
285368,2018-06-29 11:13:29.750000,34.49,71.57
285369,2018-06-29 11:13:29.781250,32.43,71.57
285370,2018-06-29 11:13:29.812500,27.6,71.57
285371,2018-06-29 11:13:29.843750,25.49,71.57
285372,2018-06-29 11:13:29.875000,28.15,71.57
285373,2018-06-29 11:13:29.906250,32.38,71.57
285374,2018-06-29 11:13:29.937500,34.83,71.57
285375,2018-06-29 11:13:29.968750,35.51,71.57
285376,2018-06-29 11:13:30.000000,34.92,71.57
285377,2018-06-29 11:13:30.031250,31.41,71.57
285378,2018-06-29 11:13:30.062500,23.89,71.57
285379,2018-06-29 11:13:30.093750,15.04,71.57
285380,2018-06-29 11:13:30.125000,8.54,71.57
285381,2018-06-29 11:13:30.156250,4.21,71.57
285382,2018-06-29 11:13:30.187500,-1.45,71.57
285383,2018-06-29 11:13:30.218750,-9.99,71.57
285384,2018-06-29 11:13:30.250000,-19.15,71.57
285385,2018-06-29 11:13:30.281250,-26.32,71.57
285386,2018-06-29 11:13:30.312500,-31.53,71.57
285387,2018-06-29 11:13:30.343750,-37.45,71.57
285388,2018-06-29 11:13:30.375000,-46.43,71.57
285389,2018-06-29 11:13:30.406250,-54.28,71.57
285390,2018-06-29 11:13:30.437500,-48.96,71.57
285391,2018-06-29 11:13:30.468750,-22.34,71.57
285392,2018-06-29 11:13:30.500000,18.22,71.57
285393,2018-06-29 11:13:30.531250,56.81,71.67
285394,2018-06-29 11:13:30.562500,84.36,71.67
285395,2018-06-29 11:13:30.593750,101.41,71.67
285396,2018-06-29 11:13:30.625000,110.98,71.67
285397,2018-06-29 11:13:30.656250,115.21,71.67
285398,2018-06-29 11:13:30.687500,116.56,71.67
285399,2018-06-29 11:13:30.718750,117.41,71.67
285400,2018-06-29 11:13:30.750000,119.23,71.67
285401,2018-06-29 11:13:30.781250,122.62,71.67
285402,2018-06-29 11:13:30.812500,122.83,71.67
285403,2018-06-29 11:13:30.843750,106.23,71.67
285404,2018-06-29 11:13:30.875000,62.11,71.67
285405,2018-06-29 11:13:30.906250,0.58,71.67
285406,2018-06-29 11:13:30.937500,-51.17,71.67
285407,2018-06-29 11:13:30.968750,-72.58,71.67
285408,2018-06-29 11:13:31.000000,-63.37,71.67
285409,2018-06-29 11:13:31.031250,-36.09,71.67
285410,2018-06-29 11:13:31.062500,-3.15,71.67
285411,2018-06-29 11:13:31.093750,29.47,71.67
285412,2018-06-29 11:13:31.125000,59.34,71.67
285413,2018-06-29 11:13:31.156250,81.9,71.67
285414,2018-06-29 11:13:31.187500,93.88,71.67
285415,2018-06-29 11:13:31.218750,101.85,71.67
285416,2018-06-29 11:13:31.250000,113.1,71.67
285417,2018-06-29 11:13:31.281250,115.9,71.67
285418,2018-06-29 11:13:31.312500,85.72,71.67
285419,2018-06-29 11:13:31.343750,13.63,71.67
285420,2018-06-29 11:13:31.375000,-75.31,71.67
285421,2018-06-29 11:13:31.406250,-132.74,71.67
285422,2018-06-29 11:13:31.437500,-134.75,71.67
285423,2018-06-29 11:13:31.468750,-119.52,71.67
285424,2018-06-29 11:13:31.500000,-147.93,71.67
285425,2018-06-29 11:13:31.531250,-226.0,71.78
285426,2018-06-29 11:13:31.562500,-293.89,71.78
285427,2018-06-29 11:13:31.593750,-292.14,71.78
285428,2018-06-29 11:13:31.625000,-218.99,71.78
285429,2018-06-29 11:13:31.656250,-122.01,71.78
285430,2018-06-29 11:13:31.687500,-46.81,71.78
285431,2018-06-29 11:13:31.718750,-5.75,71.78
285432,2018-06-29 11:13:31.750000,10.48,71.78
285433,2018-06-29 11:13:31.781250,16.87,71.78
285434,2018-06-29 11:13:31.812500,27.97,71.78
285435,2018-06-29 11:13:31.843750,46.78,71.78
285436,2018-06-29 11:13:31.875000,62.55,71.78
285437,2018-06-29 11:13:31.906250,66.9,71.78
285438,2018-06-29 11:13:31.937500,63.98,71.78
285439,2018-06-29 11:13:31.968750,60.52,71.78
285440,2018-06-29 11:13:32.000000,55.19,71.78
285441,2018-06-29 11:13:32.031250,42.9,71.78
285442,2018-06-29 11:13:32.062500,24.87,71.78
285443,2018-06-29 11:13:32.093750,9.25,71.78
285444,2018-06-29 11:13:32.125000,1.51,71.78
285445,2018-06-29 11:13:32.156250,0.0,71.78
285446,2018-06-29 11:13:32.187500,4.39,71.78
285447,2018-06-29 11:13:32.218750,20.9,71.78
285448,2018-06-29 11:13:32.250000,51.9,71.78
285449,2018-06-29 11:13:32.281250,86.15,71.78
285450,2018-06-29 11:13:32.312500,104.66,71.78
285451,2018-06-29 11:13:32.343750,93.53,71.78
285452,2018-06-29 11:13:32.375000,52.33,71.78
285453,2018-06-29 11:13:32.406250,-4.07,71.78
285454,2018-06-29 11:13:32.437500,-52.76,71.78
285455,2018-06-29 11:13:32.468750,-78.07,71.78
285456,2018-06-29 11:13:32.500000,-82.24,71.78
285457,2018-06-29 11:13:32.531250,-80.01,71.9
285458,2018-06-29 11:13:32.562500,-82.72,71.9
285459,2018-06-29 11:13:32.593750,-90.68,71.9
285460,2018-06-29 11:13:32.625000,-99.34,71.9
285461,2018-06-29 11:13:32.656250,-106.38,71.9
285462,2018-06-29 11:13:32.687500,-111.27,71.9
285463,2018-06-29 11:13:32.718750,-114.75,71.9
285464,2018-06-29 11:13:32.750000,-119.51,71.9
285465,2018-06-29 11:13:32.781250,-127.83,71.9
285466,2018-06-29 11:13:32.812500,-137.89,71.9
285467,2018-06-29 11:13:32.843750,-145.87,71.9
285468,2018-06-29 11:13:32.875000,-150.56,71.9
285469,2018-06-29 11:13:32.906250,-154.59,71.9
285470,2018-06-29 11:13:32.937500,-162.36,71.9
285471,2018-06-29 11:13:32.968750,-173.36,71.9
285472,2018-06-29 11:13:33.000000,-174.44,71.9
285473,2018-06-29 11:13:33.031250,-147.46,71.9
285474,2018-06-29 11:13:33.062500,-91.07,71.9
285475,2018-06-29 11:13:33.093750,-25.66,71.9
285476,2018-06-29 11:13:33.125000,28.49,71.9
285477,2018-06-29 11:13:33.156250,68.14,71.9
285478,2018-06-29 11:13:33.187500,100.3,71.9
285479,2018-06-29 11:13:33.218750,129.1,71.9
285480,2018-06-29 11:13:33.250000,153.9,71.9
285481,2018-06-29 11:13:33.281250,172.85,71.9
285482,2018-06-29 11:13:33.312500,184.44,71.9
285483,2018-06-29 11:13:33.343750,190.88,71.9
285484,2018-06-29 11:13:33.375000,202.03,71.9
285485,2018-06-29 11:13:33.406250,225.47,71.9
285486,2018-06-29 11:13:33.437500,251.99,71.9
285487,2018-06-29 11:13:33.468750,265.07,71.9
285488,2018-06-29 11:13:33.500000,258.93,71.9
285489,2018-06-29 11:13:33.531250,234.17,72.02
285490,2018-06-29 11:13:33.562500,189.17,72.02
285491,2018-06-29 11:13:33.593750,127.73,72.02
285492,2018-06-29 11:13:33.625000,60.35,72.02
285493,2018-06-29 11:13:33.656250,-6.62,72.02
285494,2018-06-29 11:13:33.687500,-70.81,72.02
285495,2018-06-29 11:13:33.718750,-127.97,72.02
285496,2018-06-29 11:13:33.750000,-172.67,72.02
285497,2018-06-29 11:13:33.781250,-196.13,72.02
285498,2018-06-29 11:13:33.812500,-185.14,72.02
285499,2018-06-29 11:13:33.843750,-133.37,72.02
285500,2018-06-29 11:13:33.875000,-49.99,72.02
285501,2018-06-29 11:13:33.906250,45.66,72.02
285502,2018-06-29 11:13:33.937500,131.04,72.02
285503,2018-06-29 11:13:33.968750,185.13,72.02
285504,2018-06-29 11:13:34.000000,197.72,72.02
285505,2018-06-29 11:13:34.031250,176.51,72.02
285506,2018-06-29 11:13:34.062500,140.61,72.02
285507,2018-06-29 11:13:34.093750,105.51,72.02
285508,2018-06-29 11:13:34.125000,75.81,72.02
285509,2018-06-29 11:13:34.156250,51.24,72.02
285510,2018-06-29 11:13:34.187500,33.4,72.02
285511,2018-06-29 11:13:34.218750,22.06,72.02
285512,2018-06-29 11:13:34.250000,10.74,72.02
285513,2018-06-29 11:13:34.281250,-7.0,72.02
285514,2018-06-29 11:13:34.312500,-29.28,72.02
285515,2018-06-29 11:13:34.343750,-50.15,72.02
285516,2018-06-29 11:13:34.375000,-69.74,72.02
285517,2018-06-29 11:13:34.406250,-92.86,72.02
285518,2018-06-29 11:13:34.437500,-118.6,72.02
285519,2018-06-29 11:13:34.468750,-140.73,72.02
285520,2018-06-29 11:13:34.500000,-158.76,72.02
285521,2018-06-29 11:13:34.531250,-178.96,72.13
285522,2018-06-29 11:13:34.562500,-204.68,72.13
285523,2018-06-29 11:13:34.593750,-230.53,72.13
285524,2018-06-29 11:13:34.625000,-241.94,72.13
285525,2018-06-29 11:13:34.656250,-221.95,72.13
285526,2018-06-29 11:13:34.687500,-168.74,72.13
285527,2018-06-29 11:13:34.718750,-101.99,72.13
285528,2018-06-29 11:13:34.750000,-44.02,72.13
285529,2018-06-29 11:13:34.781250,-3.9,72.13
285530,2018-06-29 11:13:34.812500,15.8,72.13
285531,2018-06-29 11:13:34.843750,13.96,72.13
285532,2018-06-29 11:13:34.875000,1.84,72.13
285533,2018-06-29 11:13:34.906250,7.04,72.13
285534,2018-06-29 11:13:34.937500,48.93,72.13
285535,2018-06-29 11:13:34.968750,107.23,72.13
285536,2018-06-29 11:13:35.000000,132.85,72.13
285537,2018-06-29 11:13:35.031250,98.27,72.13
285538,2018-06-29 11:13:35.062500,21.56,72.13
285539,2018-06-29 11:13:35.093750,-61.88,72.13
285540,2018-06-29 11:13:35.125000,-130.2,72.13
285541,2018-06-29 11:13:35.156250,-175.97,72.13
285542,2018-06-29 11:13:35.187500,-199.69,72.13
285543,2018-06-29 11:13:35.218750,-210.1,72.13
285544,2018-06-29 11:13:35.250000,-218.79,72.13
285545,2018-06-29 11:13:35.281250,-227.19,72.13
285546,2018-06-29 11:13:35.312500,-225.2,72.13
285547,2018-06-29 11:13:35.343750,-209.68,72.13
285548,2018-06-29 11:13:35.375000,-195.14,72.13
285549,2018-06-29 11:13:35.406250,-195.98,72.13
285550,2018-06-29 11:13:35.437500,-209.14,72.13
285551,2018-06-29 11:13:35.468750,-221.47,72.13
285552,2018-06-29 11:13:35.500000,-218.5,72.13
285553,2018-06-29 11:13:35.531250,-185.66,72.25
285554,2018-06-29 11:13:35.562500,-120.63,72.25
285555,2018-06-29 11:13:35.593750,-40.57,72.25
285556,2018-06-29 11:13:35.625000,37.33,72.25
285557,2018-06-29 11:13:35.656250,109.08,72.25
285558,2018-06-29 11:13:35.687500,169.31,72.25
285559,2018-06-29 11:13:35.718750,205.18,72.25
285560,2018-06-29 11:13:35.750000,213.38,72.25
285561,2018-06-29 11:13:35.781250,204.83,72.25
285562,2018-06-29 11:13:35.812500,190.46,72.25
285563,2018-06-29 11:13:35.843750,174.14,72.25
285564,2018-06-29 11:13:35.875000,156.64,72.25
285565,2018-06-29 11:13:35.906250,135.59,72.25
285566,2018-06-29 11:13:35.937500,106.24,72.25
285567,2018-06-29 11:13:35.968750,69.58,72.25
285568,2018-06-29 11:13:36.000000,35.02,72.25
285569,2018-06-29 11:13:36.031250,10.28,72.25
285570,2018-06-29 11:13:36.062500,-7.18,72.25
285571,2018-06-29 11:13:36.093750,-25.22,72.25
285572,2018-06-29 11:13:36.125000,-45.37,72.25
285573,2018-06-29 11:13:36.156250,-58.63,72.25
285574,2018-06-29 11:13:36.187500,-55.42,72.25
285575,2018-06-29 11:13:36.218750,-39.05,72.25
285576,2018-06-29 11:13:36.250000,-25.74,72.25
285577,2018-06-29 11:13:36.281250,-28.77,72.25
285578,2018-06-29 11:13:36.312500,-41.71,72.25
285579,2018-06-29 11:13:36.343750,-39.65,72.25
285580,2018-06-29 11:13:36.375000,-2.5,72.25
285581,2018-06-29 11:13:36.406250,63.58,72.25
285582,2018-06-29 11:13:36.437500,132.69,72.25
285583,2018-06-29 11:13:36.468750,181.93,72.25
285584,2018-06-29 11:13:36.500000,202.57,72.25
285585,2018-06-29 11:13:36.531250,197.69,72.37
285586,2018-06-29 11:13:36.562500,178.1,72.37
285587,2018-06-29 11:13:36.593750,157.11,72.37
285588,2018-06-29 11:13:36.625000,143.15,72.37
285589,2018-06-29 11:13:36.656250,136.77,72.37
285590,2018-06-29 11:13:36.687500,133.95,72.37
285591,2018-06-29 11:13:36.718750,130.49,72.37
285592,2018-06-29 11:13:36.750000,123.03,72.37
285593,2018-06-29 11:13:36.781250,109.42,72.37
285594,2018-06-29 11:13:36.812500,90.42,72.37
285595,2018-06-29 11:13:36.843750,69.75,72.37
285596,2018-06-29 11:13:36.875000,50.68,72.37
285597,2018-06-29 11:13:36.906250,32.96,72.37
285598,2018-06-29 11:13:36.937500,14.43,72.37
285599,2018-06-29 11:13:36.968750,-5.06,72.37
285600,2018-06-29 11:13:37.000000,-23.75,72.37
285601,2018-06-29 11:13:37.031250,-41.72,72.37
285602,2018-06-29 11:13:37.062500,-62.91,72.37
285603,2018-06-29 11:13:37.093750,-88.56,72.37
285604,2018-06-29 11:13:37.125000,-106.52,72.37
285605,2018-06-29 11:13:37.156250,-95.69,72.37
285606,2018-06-29 11:13:37.187500,-49.61,72.37
285607,2018-06-29 11:13:37.218750,12.33,72.37
285608,2018-06-29 11:13:37.250000,63.55,72.37
285609,2018-06-29 11:13:37.281250,91.64,72.37
285610,2018-06-29 11:13:37.312500,97.92,72.37
285611,2018-06-29 11:13:37.343750,88.92,72.37
285612,2018-06-29 11:13:37.375000,74.47,72.37
285613,2018-06-29 11:13:37.406250,64.32,72.37
285614,2018-06-29 11:13:37.437500,61.55,72.37
285615,2018-06-29 11:13:37.468750,62.84,72.37
285616,2018-06-29 11:13:37.500000,64.4,72.37
285617,2018-06-29 11:13:37.531250,63.71,72.52
285618,2018-06-29 11:13:37.562500,58.37,72.52
285619,2018-06-29 11:13:37.593750,48.07,72.52
285620,2018-06-29 11:13:37.625000,35.24,72.52
285621,2018-06-29 11:13:37.656250,21.39,72.52
285622,2018-06-29 11:13:37.687500,5.93,72.52
285623,2018-06-29 11:13:37.718750,-10.58,72.52
285624,2018-06-29 11:13:37.750000,-25.53,72.52
285625,2018-06-29 11:13:37.781250,-37.19,72.52
285626,2018-06-29 11:13:37.812500,-46.82,72.52
285627,2018-06-29 11:13:37.843750,-58.39,72.52
285628,2018-06-29 11:13:37.875000,-74.19,72.52
285629,2018-06-29 11:13:37.906250,-86.11,72.52
285630,2018-06-29 11:13:37.937500,-76.76,72.52
285631,2018-06-29 11:13:37.968750,-38.32,72.52
285632,2018-06-29 11:13:38.000000,14.51,72.52
285633,2018-06-29 11:13:38.031250,58.21,72.52
285634,2018-06-29 11:13:38.062500,80.94,72.52
285635,2018-06-29 11:13:38.093750,84.49,72.52
285636,2018-06-29 11:13:38.125000,75.26,72.52
285637,2018-06-29 11:13:38.156250,61.06,72.52
285638,2018-06-29 11:13:38.187500,50.38,72.52
285639,2018-06-29 11:13:38.218750,47.32,72.52
285640,2018-06-29 11:13:38.250000,49.16,72.52
285641,2018-06-29 11:13:38.281250,51.28,72.52
285642,2018-06-29 11:13:38.312500,51.47,72.52
285643,2018-06-29 11:13:38.343750,48.02,72.52
285644,2018-06-29 11:13:38.375000,38.83,72.52
285645,2018-06-29 11:13:38.406250,24.49,72.52
285646,2018-06-29 11:13:38.437500,8.9,72.52
285647,2018-06-29 11:13:38.468750,-5.0,72.52
285648,2018-06-29 11:13:38.500000,-17.61,72.52
285649,2018-06-29 11:13:38.531250,-29.68,72.67
285650,2018-06-29 11:13:38.562500,-40.14,72.67
285651,2018-06-29 11:13:38.593750,-48.56,72.67
285652,2018-06-29 11:13:38.625000,-57.28,72.67
285653,2018-06-29 11:13:38.656250,-69.83,72.67
285654,2018-06-29 11:13:38.687500,-84.85,72.67
285655,2018-06-29 11:13:38.718750,-90.24,72.67
285656,2018-06-29 11:13:38.750000,-71.14,72.67
285657,2018-06-29 11:13:38.781250,-29.31,72.67
285658,2018-06-29 11:13:38.812500,14.95,72.67
285659,2018-06-29 11:13:38.843750,44.36,72.67
285660,2018-06-29 11:13:38.875000,56.81,72.67
285661,2018-06-29 11:13:38.906250,56.38,72.67
285662,2018-06-29 11:13:38.937500,46.7,72.67
285663,2018-06-29 11:13:38.968750,34.5,72.67
285664,2018-06-29 11:13:39.000000,27.96,72.67
285665,2018-06-29 11:13:39.031250,29.02,72.67
285666,2018-06-29 11:13:39.062500,32.77,72.67
285667,2018-06-29 11:13:39.093750,34.14,72.67
285668,2018-06-29 11:13:39.125000,31.83,72.67
285669,2018-06-29 11:13:39.156250,26.66,72.67
285670,2018-06-29 11:13:39.187500,18.99,72.67
285671,2018-06-29 11:13:39.218750,8.78,72.67
285672,2018-06-29 11:13:39.250000,-3.24,72.67
285673,2018-06-29 11:13:39.281250,-15.34,72.67
285674,2018-06-29 11:13:39.312500,-25.54,72.67
285675,2018-06-29 11:13:39.343750,-33.32,72.67
285676,2018-06-29 11:13:39.375000,-40.5,72.67
285677,2018-06-29 11:13:39.406250,-50.11,72.67
285678,2018-06-29 11:13:39.437500,-62.58,72.67
285679,2018-06-29 11:13:39.468750,-70.69,72.67
285680,2018-06-29 11:13:39.500000,-62.01,72.67
285681,2018-06-29 11:13:39.531250,-32.45,72.85
285682,2018-06-29 11:13:39.562500,5.58,72.85
285683,2018-06-29 11:13:39.593750,34.92,72.85
285684,2018-06-29 11:13:39.625000,48.79,72.85
285685,2018-06-29 11:13:39.656250,49.6,72.85
285686,2018-06-29 11:13:39.687500,40.94,72.85
285687,2018-06-29 11:13:39.718750,28.32,72.85
285688,2018-06-29 11:13:39.750000,19.81,72.85
285689,2018-06-29 11:13:39.781250,18.9,72.85
285690,2018-06-29 11:13:39.812500,21.13,72.85
285691,2018-06-29 11:13:39.843750,21.33,72.85
285692,2018-06-29 11:13:39.875000,19.21,72.85
285693,2018-06-29 11:13:39.906250,15.56,72.85
285694,2018-06-29 11:13:39.937500,8.65,72.85
285695,2018-06-29 11:13:39.968750,-2.4,72.85
285696,2018-06-29 11:13:40.000000,-14.76,72.85
285697,2018-06-29 11:13:40.031250,-24.97,72.85
285698,2018-06-29 11:13:40.062500,-32.5,72.85
285699,2018-06-29 11:13:40.093750,-38.97,72.85
285700,2018-06-29 11:13:40.125000,-46.65,72.85
285701,2018-06-29 11:13:40.156250,-56.82,72.85
285702,2018-06-29 11:13:40.187500,-64.67,72.85
285703,2018-06-29 11:13:40.218750,-58.95,72.85
285704,2018-06-29 11:13:40.250000,-34.55,72.85
285705,2018-06-29 11:13:40.281250,-1.68,72.85
285706,2018-06-29 11:13:40.312500,24.47,72.85
285707,2018-06-29 11:13:40.343750,37.68,72.85
285708,2018-06-29 11:13:40.375000,39.68,72.85
285709,2018-06-29 11:13:40.406250,33.64,72.85
285710,2018-06-29 11:13:40.437500,24.32,72.85
285711,2018-06-29 11:13:40.468750,18.04,72.85
285712,2018-06-29 11:13:40.500000,17.68,72.85
285713,2018-06-29 11:13:40.531250,20.41,73.03
285714,2018-06-29 11:13:40.562500,21.75,73.03
285715,2018-06-29 11:13:40.593750,19.88,73.03
285716,2018-06-29 11:13:40.625000,15.82,73.03
285717,2018-06-29 11:13:40.656250,10.64,73.03
285718,2018-06-29 11:13:40.687500,3.84,73.03
285719,2018-06-29 11:13:40.718750,-5.3,73.03
285720,2018-06-29 11:13:40.750000,-15.33,73.03
285721,2018-06-29 11:13:40.781250,-23.89,73.03
285722,2018-06-29 11:13:40.812500,-30.7,73.03
285723,2018-06-29 11:13:40.843750,-37.13,73.03
285724,2018-06-29 11:13:40.875000,-44.33,73.03
285725,2018-06-29 11:13:40.906250,-53.52,73.03
285726,2018-06-29 11:13:40.937500,-62.65,73.03
285727,2018-06-29 11:13:40.968750,-62.37,73.03
285728,2018-06-29 11:13:41.000000,-44.48,73.03
285729,2018-06-29 11:13:41.031250,-14.56,73.03
285730,2018-06-29 11:13:41.062500,12.66,73.03
285731,2018-06-29 11:13:41.093750,28.27,73.03
285732,2018-06-29 11:13:41.125000,32.33,73.03
285733,2018-06-29 11:13:41.156250,27.94,73.03
285734,2018-06-29 11:13:41.187500,20.06,73.03
285735,2018-06-29 11:13:41.218750,15.25,73.03
285736,2018-06-29 11:13:41.250000,16.3,73.03
285737,2018-06-29 11:13:41.281250,20.0,73.03
285738,2018-06-29 11:13:41.312500,22.57,73.03
285739,2018-06-29 11:13:41.343750,23.93,73.03
285740,2018-06-29 11:13:41.375000,24.17,73.03
285741,2018-06-29 11:13:41.406250,20.62,73.03
285742,2018-06-29 11:13:41.437500,12.22,73.03
285743,2018-06-29 11:13:41.468750,2.36,73.03
285744,2018-06-29 11:13:41.500000,-5.86,73.03
285745,2018-06-29 11:13:41.531250,-13.25,73.17
285746,2018-06-29 11:13:41.562500,-21.62,73.17
285747,2018-06-29 11:13:41.593750,-30.33,73.17
285748,2018-06-29 11:13:41.625000,-37.63,73.17
285749,2018-06-29 11:13:41.656250,-43.39,73.17
285750,2018-06-29 11:13:41.687500,-49.57,73.17
285751,2018-06-29 11:13:41.718750,-58.02,73.17
285752,2018-06-29 11:13:41.750000,-65.51,73.17
285753,2018-06-29 11:13:41.781250,-62.56,73.17
285754,2018-06-29 11:13:41.812500,-42.8,73.17
285755,2018-06-29 11:13:41.843750,-12.67,73.17
285756,2018-06-29 11:13:41.875000,14.32,73.17
285757,2018-06-29 11:13:41.906250,30.43,73.17
285758,2018-06-29 11:13:41.937500,35.48,73.17
285759,2018-06-29 11:13:41.968750,31.83,73.17
285760,2018-06-29 11:13:42.000000,24.17,73.17
285761,2018-06-29 11:13:42.031250,19.09,73.17
285762,2018-06-29 11:13:42.062500,19.16,73.17
285763,2018-06-29 11:13:42.093750,21.13,73.17
285764,2018-06-29 11:13:42.125000,21.92,73.17
285765,2018-06-29 11:13:42.156250,21.84,73.17
285766,2018-06-29 11:13:42.187500,21.09,73.17
285767,2018-06-29 11:13:42.218750,17.73,73.17
285768,2018-06-29 11:13:42.250000,11.0,73.17
285769,2018-06-29 11:13:42.281250,3.45,73.17
285770,2018-06-29 11:13:42.312500,-2.44,73.17
285771,2018-06-29 11:13:42.343750,-7.64,73.17
285772,2018-06-29 11:13:42.375000,-14.32,73.17
285773,2018-06-29 11:13:42.406250,-21.99,73.17
285774,2018-06-29 11:13:42.437500,-28.29,73.17
285775,2018-06-29 11:13:42.468750,-32.68,73.17
285776,2018-06-29 11:13:42.500000,-37.16,73.17
285777,2018-06-29 11:13:42.531250,-44.37,73.28
285778,2018-06-29 11:13:42.562500,-53.51,73.28
285779,2018-06-29 11:13:42.593750,-56.85,73.28
285780,2018-06-29 11:13:42.625000,-44.88,73.28
285781,2018-06-29 11:13:42.656250,-18.55,73.28
285782,2018-06-29 11:13:42.687500,9.19,73.28
285783,2018-06-29 11:13:42.718750,26.75,73.28
285784,2018-06-29 11:13:42.750000,32.45,73.28
285785,2018-06-29 11:13:42.781250,29.54,73.28
285786,2018-06-29 11:13:42.812500,21.39,73.28
285787,2018-06-29 11:13:42.843750,12.75,73.28
285788,2018-06-29 11:13:42.875000,8.35,73.28
285789,2018-06-29 11:13:42.906250,8.37,73.28
285790,2018-06-29 11:13:42.937500,9.55,73.28
285791,2018-06-29 11:13:42.968750,10.21,73.28
285792,2018-06-29 11:13:43.000000,10.64,73.28
285793,2018-06-29 11:13:43.031250,9.84,73.28
285794,2018-06-29 11:13:43.062500,6.06,73.28
285795,2018-06-29 11:13:43.093750,-0.22,73.28
285796,2018-06-29 11:13:43.125000,-6.82,73.28
285797,2018-06-29 11:13:43.156250,-13.02,73.28
285798,2018-06-29 11:13:43.187500,-19.4,73.28
285799,2018-06-29 11:13:43.218750,-25.38,73.28
285800,2018-06-29 11:13:43.250000,-29.69,73.28
285801,2018-06-29 11:13:43.281250,-32.84,73.28
285802,2018-06-29 11:13:43.312500,-37.37,73.28
285803,2018-06-29 11:13:43.343750,-45.48,73.28
285804,2018-06-29 11:13:43.375000,-54.61,73.28
285805,2018-06-29 11:13:43.406250,-55.24,73.28
285806,2018-06-29 11:13:43.437500,-39.16,73.28
285807,2018-06-29 11:13:43.468750,-11.15,73.28
285808,2018-06-29 11:13:43.500000,14.56,73.28
285809,2018-06-29 11:13:43.531250,29.29,73.4
285810,2018-06-29 11:13:43.562500,33.54,73.4
285811,2018-06-29 11:13:43.593750,29.49,73.4
285812,2018-06-29 11:13:43.625000,19.94,73.4
285813,2018-06-29 11:13:43.656250,11.13,73.4
285814,2018-06-29 11:13:43.687500,8.44,73.4
285815,2018-06-29 11:13:43.718750,11.46,73.4
285816,2018-06-29 11:13:43.750000,15.89,73.4
285817,2018-06-29 11:13:43.781250,17.89,73.4
285818,2018-06-29 11:13:43.812500,15.66,73.4
285819,2018-06-29 11:13:43.843750,9.7,73.4
285820,2018-06-29 11:13:43.875000,1.81,73.4
285821,2018-06-29 11:13:43.906250,-6.71,73.4
285822,2018-06-29 11:13:43.937500,-15.97,73.4
285823,2018-06-29 11:13:43.968750,-25.83,73.4
285824,2018-06-29 11:13:44.000000,-35.08,73.4
285825,2018-06-29 11:13:44.031250,-43.22,73.4
285826,2018-06-29 11:13:44.062500,-51.46,73.4
285827,2018-06-29 11:13:44.093750,-61.54,73.4
285828,2018-06-29 11:13:44.125000,-73.84,73.4
285829,2018-06-29 11:13:44.156250,-83.09,73.4
285830,2018-06-29 11:13:44.187500,-77.64,73.4
285831,2018-06-29 11:13:44.218750,-50.95,73.4
285832,2018-06-29 11:13:44.250000,-12.84,73.4
285833,2018-06-29 11:13:44.281250,19.32,73.4
285834,2018-06-29 11:13:44.312500,37.49,73.4
285835,2018-06-29 11:13:44.343750,44.14,73.4
285836,2018-06-29 11:13:44.375000,43.44,73.4
285837,2018-06-29 11:13:44.406250,38.61,73.4
285838,2018-06-29 11:13:44.437500,33.71,73.4
285839,2018-06-29 11:13:44.468750,31.95,73.4
285840,2018-06-29 11:13:44.500000,33.08,73.4
285841,2018-06-29 11:13:44.531250,34.95,73.52
285842,2018-06-29 11:13:44.562500,35.79,73.52
285843,2018-06-29 11:13:44.593750,33.67,73.52
285844,2018-06-29 11:13:44.625000,26.83,73.52
285845,2018-06-29 11:13:44.656250,16.61,73.52
285846,2018-06-29 11:13:44.687500,6.22,73.52
285847,2018-06-29 11:13:44.718750,-4.16,73.52
285848,2018-06-29 11:13:44.750000,-16.56,73.52
285849,2018-06-29 11:13:44.781250,-29.99,73.52
285850,2018-06-29 11:13:44.812500,-40.91,73.52
285851,2018-06-29 11:13:44.843750,-48.65,73.52
285852,2018-06-29 11:13:44.875000,-56.81,73.52
285853,2018-06-29 11:13:44.906250,-69.56,73.52
285854,2018-06-29 11:13:44.937500,-85.54,73.52
285855,2018-06-29 11:13:44.968750,-92.87,73.52
285856,2018-06-29 11:13:45.000000,-76.56,73.52
285857,2018-06-29 11:13:45.031250,-36.3,73.52
285858,2018-06-29 11:13:45.062500,10.04,73.52
285859,2018-06-29 11:13:45.093750,44.71,73.52
285860,2018-06-29 11:13:45.125000,63.37,73.52
285861,2018-06-29 11:13:45.156250,69.06,73.52
285862,2018-06-29 11:13:45.187500,65.27,73.52
285863,2018-06-29 11:13:45.218750,57.97,73.52
285864,2018-06-29 11:13:45.250000,54.28,73.52
285865,2018-06-29 11:13:45.281250,55.73,73.52
285866,2018-06-29 11:13:45.312500,57.92,73.52
285867,2018-06-29 11:13:45.343750,57.42,73.52
285868,2018-06-29 11:13:45.375000,54.81,73.52
285869,2018-06-29 11:13:45.406250,50.46,73.52
285870,2018-06-29 11:13:45.437500,42.42,73.52
285871,2018-06-29 11:13:45.468750,30.29,73.52
285872,2018-06-29 11:13:45.500000,17.71,73.52
285873,2018-06-29 11:13:45.531250,7.87,73.63
285874,2018-06-29 11:13:45.562500,-0.83,73.63
285875,2018-06-29 11:13:45.593750,-11.98,73.63
285876,2018-06-29 11:13:45.625000,-25.46,73.63
285877,2018-06-29 11:13:45.656250,-37.64,73.63
285878,2018-06-29 11:13:45.687500,-46.73,73.63
285879,2018-06-29 11:13:45.718750,-55.04,73.63
285880,2018-06-29 11:13:45.750000,-66.63,73.63
285881,2018-06-29 11:13:45.781250,-82.7,73.63
285882,2018-06-29 11:13:45.812500,-95.26,73.63
285883,2018-06-29 11:13:45.843750,-88.15,73.63
285884,2018-06-29 11:13:45.875000,-53.75,73.63
285885,2018-06-29 11:13:45.906250,-5.66,73.63
285886,2018-06-29 11:13:45.937500,34.76,73.63
285887,2018-06-29 11:13:45.968750,58.25,73.63
285888,2018-06-29 11:13:46.000000,67.2,73.63
285889,2018-06-29 11:13:46.031250,65.71,73.63
285890,2018-06-29 11:13:46.062500,58.61,73.63
285891,2018-06-29 11:13:46.093750,52.67,73.63
285892,2018-06-29 11:13:46.125000,52.34,73.63
285893,2018-06-29 11:13:46.156250,56.27,73.63
285894,2018-06-29 11:13:46.187500,60.06,73.63
285895,2018-06-29 11:13:46.218750,61.39,73.63
285896,2018-06-29 11:13:46.250000,60.39,73.63
285897,2018-06-29 11:13:46.281250,56.75,73.63
285898,2018-06-29 11:13:46.312500,49.6,73.63
285899,2018-06-29 11:13:46.343750,39.69,73.63
285900,2018-06-29 11:13:46.375000,29.02,73.63
285901,2018-06-29 11:13:46.406250,18.72,73.63
285902,2018-06-29 11:13:46.437500,9.1,73.63
285903,2018-06-29 11:13:46.468750,0.19,73.63
285904,2018-06-29 11:13:46.500000,-8.72,73.63
285905,2018-06-29 11:13:46.531250,-18.59,73.75
285906,2018-06-29 11:13:46.562500,-29.1,73.75
285907,2018-06-29 11:13:46.593750,-38.86,73.75
285908,2018-06-29 11:13:46.625000,-47.8,73.75
285909,2018-06-29 11:13:46.656250,-58.12,73.75
285910,2018-06-29 11:13:46.687500,-72.46,73.75
285911,2018-06-29 11:13:46.718750,-87.8,73.75
285912,2018-06-29 11:13:46.750000,-91.37,73.75
285913,2018-06-29 11:13:46.781250,-70.33,73.75
285914,2018-06-29 11:13:46.812500,-28.96,73.75
285915,2018-06-29 11:13:46.843750,12.91,73.75
285916,2018-06-29 11:13:46.875000,39.97,73.75
285917,2018-06-29 11:13:46.906250,50.63,73.75
285918,2018-06-29 11:13:46.937500,49.08,73.75
285919,2018-06-29 11:13:46.968750,40.27,73.75
285920,2018-06-29 11:13:47.000000,31.67,73.75
285921,2018-06-29 11:13:47.031250,29.74,73.75
285922,2018-06-29 11:13:47.062500,33.82,73.75
285923,2018-06-29 11:13:47.093750,38.22,73.75
285924,2018-06-29 11:13:47.125000,39.74,73.75
285925,2018-06-29 11:13:47.156250,39.17,73.75
285926,2018-06-29 11:13:47.187500,36.39,73.75
285927,2018-06-29 11:13:47.218750,29.6,73.75
285928,2018-06-29 11:13:47.250000,19.43,73.75
285929,2018-06-29 11:13:47.281250,9.56,73.75
285930,2018-06-29 11:13:47.312500,1.84,73.75
285931,2018-06-29 11:13:47.343750,-5.88,73.75
285932,2018-06-29 11:13:47.375000,-16.02,73.75
285933,2018-06-29 11:13:47.406250,-26.91,73.75
285934,2018-06-29 11:13:47.437500,-35.16,73.75
285935,2018-06-29 11:13:47.468750,-41.04,73.75
285936,2018-06-29 11:13:47.500000,-48.5,73.75
285937,2018-06-29 11:13:47.531250,-60.56,73.83
285938,2018-06-29 11:13:47.562500,-74.01,73.83
285939,2018-06-29 11:13:47.593750,-77.24,73.83
285940,2018-06-29 11:13:47.625000,-58.86,73.83
285941,2018-06-29 11:13:47.656250,-22.13,73.83
285942,2018-06-29 11:13:47.687500,15.66,73.83
285943,2018-06-29 11:13:47.718750,40.48,73.83
285944,2018-06-29 11:13:47.750000,50.78,73.83
285945,2018-06-29 11:13:47.781250,50.64,73.83
285946,2018-06-29 11:13:47.812500,44.03,73.83
285947,2018-06-29 11:13:47.843750,36.21,73.83
285948,2018-06-29 11:13:47.875000,32.75,73.83
285949,2018-06-29 11:13:47.906250,34.31,73.83
285950,2018-06-29 11:13:47.937500,36.64,73.83
285951,2018-06-29 11:13:47.968750,36.61,73.83
285952,2018-06-29 11:13:48.000000,34.65,73.83
285953,2018-06-29 11:13:48.031250,31.02,73.83
285954,2018-06-29 11:13:48.062500,24.12,73.83
285955,2018-06-29 11:13:48.093750,13.81,73.83
285956,2018-06-29 11:13:48.125000,3.3,73.83
285957,2018-06-29 11:13:48.156250,-4.39,73.83
285958,2018-06-29 11:13:48.187500,-10.65,73.83
285959,2018-06-29 11:13:48.218750,-19.46,73.83
285960,2018-06-29 11:13:48.250000,-31.16,73.83
285961,2018-06-29 11:13:48.281250,-41.72,73.83
285962,2018-06-29 11:13:48.312500,-49.12,73.83
285963,2018-06-29 11:13:48.343750,-56.67,73.83
285964,2018-06-29 11:13:48.375000,-68.88,73.83
285965,2018-06-29 11:13:48.406250,-84.91,73.83
285966,2018-06-29 11:13:48.437500,-94.53,73.83
285967,2018-06-29 11:13:48.468750,-83.94,73.83
285968,2018-06-29 11:13:48.500000,-50.87,73.83
285969,2018-06-29 11:13:48.531250,-9.52,73.87
285970,2018-06-29 11:13:48.562500,23.81,73.87
285971,2018-06-29 11:13:48.593750,43.8,73.87
285972,2018-06-29 11:13:48.625000,52.61,73.87
285973,2018-06-29 11:13:48.656250,52.84,73.87
285974,2018-06-29 11:13:48.687500,47.93,73.87
285975,2018-06-29 11:13:48.718750,43.39,73.87
285976,2018-06-29 11:13:48.750000,42.9,73.87
285977,2018-06-29 11:13:48.781250,45.12,73.87
285978,2018-06-29 11:13:48.812500,46.42,73.87
285979,2018-06-29 11:13:48.843750,45.68,73.87
285980,2018-06-29 11:13:48.875000,43.65,73.87
285981,2018-06-29 11:13:48.906250,39.54,73.87
285982,2018-06-29 11:13:48.937500,31.83,73.87
285983,2018-06-29 11:13:48.968750,21.32,73.87
285984,2018-06-29 11:13:49.000000,10.65,73.87
285985,2018-06-29 11:13:49.031250,1.76,73.87
285986,2018-06-29 11:13:49.062500,-5.63,73.87
285987,2018-06-29 11:13:49.093750,-13.56,73.87
285988,2018-06-29 11:13:49.125000,-23.45,73.87
285989,2018-06-29 11:13:49.156250,-33.6,73.87
285990,2018-06-29 11:13:49.187500,-41.72,73.87
285991,2018-06-29 11:13:49.218750,-48.54,73.87
285992,2018-06-29 11:13:49.250000,-57.02,73.87
285993,2018-06-29 11:13:49.281250,-69.03,73.87
285994,2018-06-29 11:13:49.312500,-80.62,73.87
285995,2018-06-29 11:13:49.343750,-80.14,73.87
285996,2018-06-29 11:13:49.375000,-58.31,73.87
285997,2018-06-29 11:13:49.406250,-21.71,73.87
285998,2018-06-29 11:13:49.437500,12.95,73.87
285999,2018-06-29 11:13:49.468750,36.14,73.87
286000,2018-06-29 11:13:49.500000,48.09,73.87
286001,2018-06-29 11:13:49.531250,50.74,73.87
286002,2018-06-29 11:13:49.562500,47.39,73.87
286003,2018-06-29 11:13:49.593750,43.87,73.87
286004,2018-06-29 11:13:49.625000,43.61,73.87
286005,2018-06-29 11:13:49.656250,45.05,73.87
286006,2018-06-29 11:13:49.687500,45.72,73.87
286007,2018-06-29 11:13:49.718750,45.33,73.87
286008,2018-06-29 11:13:49.750000,44.19,73.87
286009,2018-06-29 11:13:49.781250,41.51,73.87
286010,2018-06-29 11:13:49.812500,36.55,73.87
286011,2018-06-29 11:13:49.843750,29.8,73.87
286012,2018-06-29 11:13:49.875000,22.2,73.87
286013,2018-06-29 11:13:49.906250,14.01,73.87
286014,2018-06-29 11:13:49.937500,5.43,73.87
286015,2018-06-29 11:13:49.968750,-2.45,73.87
286016,2018-06-29 11:13:50.000000,-8.78,73.87
286017,2018-06-29 11:13:50.031250,-14.8,73.87
286018,2018-06-29 11:13:50.062500,-22.83,73.87
286019,2018-06-29 11:13:50.093750,-32.89,73.87
286020,2018-06-29 11:13:50.125000,-42.48,73.87
286021,2018-06-29 11:13:50.156250,-50.05,73.87
286022,2018-06-29 11:13:50.187500,-57.09,73.87
286023,2018-06-29 11:13:50.218750,-66.74,73.87
286024,2018-06-29 11:13:50.250000,-79.24,73.87
286025,2018-06-29 11:13:50.281250,-86.6,73.87
286026,2018-06-29 11:13:50.312500,-76.75,73.87
286027,2018-06-29 11:13:50.343750,-47.77,73.87
286028,2018-06-29 11:13:50.375000,-12.58,73.87
286029,2018-06-29 11:13:50.406250,14.29,73.87
286030,2018-06-29 11:13:50.437500,28.33,73.87
286031,2018-06-29 11:13:50.468750,32.16,73.87
286032,2018-06-29 11:13:50.500000,29.44,73.87
286033,2018-06-29 11:13:50.531250,24.53,73.82
286034,2018-06-29 11:13:50.562500,22.34,73.82
286035,2018-06-29 11:13:50.593750,25.05,73.82
286036,2018-06-29 11:13:50.625000,30.2,73.82
286037,2018-06-29 11:13:50.656250,33.91,73.82
286038,2018-06-29 11:13:50.687500,34.89,73.82
286039,2018-06-29 11:13:50.718750,33.62,73.82
286040,2018-06-29 11:13:50.750000,29.87,73.82
286041,2018-06-29 11:13:50.781250,23.28,73.82
286042,2018-06-29 11:13:50.812500,14.75,73.82
286043,2018-06-29 11:13:50.843750,6.19,73.82
286044,2018-06-29 11:13:50.875000,-0.85,73.82
286045,2018-06-29 11:13:50.906250,-6.99,73.82
286046,2018-06-29 11:13:50.937500,-14.39,73.82
286047,2018-06-29 11:13:50.968750,-23.5,73.82
286048,2018-06-29 11:13:51.000000,-32.36,73.82
286049,2018-06-29 11:13:51.031250,-39.76,73.82
286050,2018-06-29 11:13:51.062500,-46.78,73.82
286051,2018-06-29 11:13:51.093750,-55.68,73.82
286052,2018-06-29 11:13:51.125000,-67.76,73.82
286053,2018-06-29 11:13:51.156250,-78.54,73.82
286054,2018-06-29 11:13:51.187500,-76.32,73.82
286055,2018-06-29 11:13:51.218750,-53.5,73.82
286056,2018-06-29 11:13:51.250000,-17.81,73.82
286057,2018-06-29 11:13:51.281250,14.68,73.82
286058,2018-06-29 11:13:51.312500,34.92,73.82
286059,2018-06-29 11:13:51.343750,43.55,73.82
286060,2018-06-29 11:13:51.375000,44.01,73.82
286061,2018-06-29 11:13:51.406250,40.01,73.82
286062,2018-06-29 11:13:51.437500,36.33,73.82
286063,2018-06-29 11:13:51.468750,36.35,73.82
286064,2018-06-29 11:13:51.500000,39.03,73.82
286065,2018-06-29 11:13:51.531250,40.83,73.77
286066,2018-06-29 11:13:51.562500,40.3,73.77
286067,2018-06-29 11:13:51.593750,38.29,73.77
286068,2018-06-29 11:13:51.625000,35.09,73.77
286069,2018-06-29 11:13:51.656250,29.52,73.77
286070,2018-06-29 11:13:51.687500,21.0,73.77
286071,2018-06-29 11:13:51.718750,11.16,73.77
286072,2018-06-29 11:13:51.750000,2.29,73.77
286073,2018-06-29 11:13:51.781250,-4.95,73.77
286074,2018-06-29 11:13:51.812500,-12.16,73.77
286075,2018-06-29 11:13:51.843750,-21.5,73.77
286076,2018-06-29 11:13:51.875000,-32.87,73.77
286077,2018-06-29 11:13:51.906250,-43.48,73.77
286078,2018-06-29 11:13:51.937500,-51.36,73.77
286079,2018-06-29 11:13:51.968750,-58.37,73.77
286080,2018-06-29 11:13:52.000000,-68.24,73.77
286081,2018-06-29 11:13:52.031250,-81.71,73.77
286082,2018-06-29 11:13:52.062500,-91.69,73.77
286083,2018-06-29 11:13:52.093750,-85.29,73.77
286084,2018-06-29 11:13:52.125000,-56.9,73.77
286085,2018-06-29 11:13:52.156250,-17.28,73.77
286086,2018-06-29 11:13:52.187500,16.78,73.77
286087,2018-06-29 11:13:52.218750,37.67,73.77
286088,2018-06-29 11:13:52.250000,47.03,73.77
286089,2018-06-29 11:13:52.281250,48.34,73.77
286090,2018-06-29 11:13:52.312500,45.34,73.77
286091,2018-06-29 11:13:52.343750,42.54,73.77
286092,2018-06-29 11:13:52.375000,42.47,73.77
286093,2018-06-29 11:13:52.406250,44.2,73.77
286094,2018-06-29 11:13:52.437500,45.54,73.77
286095,2018-06-29 11:13:52.468750,45.62,73.77
286096,2018-06-29 11:13:52.500000,44.52,73.77
286097,2018-06-29 11:13:52.531250,41.32,73.68
286098,2018-06-29 11:13:52.562500,34.54,73.68
286099,2018-06-29 11:13:52.593750,24.4,73.68
286100,2018-06-29 11:13:52.625000,13.37,73.68
286101,2018-06-29 11:13:52.656250,3.77,73.68
286102,2018-06-29 11:13:52.687500,-4.48,73.68
286103,2018-06-29 11:13:52.718750,-13.3,73.68
286104,2018-06-29 11:13:52.750000,-23.43,73.68
286105,2018-06-29 11:13:52.781250,-32.95,73.68
286106,2018-06-29 11:13:52.812500,-39.89,73.68
286107,2018-06-29 11:13:52.843750,-45.7,73.68
286108,2018-06-29 11:13:52.875000,-54.26,73.68
286109,2018-06-29 11:13:52.906250,-67.65,73.68
286110,2018-06-29 11:13:52.937500,-80.93,73.68
286111,2018-06-29 11:13:52.968750,-81.24,73.68
286112,2018-06-29 11:13:53.000000,-58.93,73.68
286113,2018-06-29 11:13:53.031250,-20.62,73.68
286114,2018-06-29 11:13:53.062500,16.11,73.68
286115,2018-06-29 11:13:53.093750,39.84,73.68
286116,2018-06-29 11:13:53.125000,50.44,73.68
286117,2018-06-29 11:13:53.156250,51.51,73.68
286118,2018-06-29 11:13:53.187500,46.89,73.68
286119,2018-06-29 11:13:53.218750,41.89,73.68
286120,2018-06-29 11:13:53.250000,40.35,73.68
286121,2018-06-29 11:13:53.281250,41.45,73.68
286122,2018-06-29 11:13:53.312500,42.49,73.68
286123,2018-06-29 11:13:53.343750,42.48,73.68
286124,2018-06-29 11:13:53.375000,41.14,73.68
286125,2018-06-29 11:13:53.406250,37.45,73.68
286126,2018-06-29 11:13:53.437500,30.92,73.68
286127,2018-06-29 11:13:53.468750,22.28,73.68
286128,2018-06-29 11:13:53.500000,12.77,73.68
286129,2018-06-29 11:13:53.531250,4.08,73.58
286130,2018-06-29 11:13:53.562500,-2.81,73.58
286131,2018-06-29 11:13:53.593750,-9.21,73.58
286132,2018-06-29 11:13:53.625000,-17.26,73.58
286133,2018-06-29 11:13:53.656250,-26.47,73.58
286134,2018-06-29 11:13:53.687500,-34.68,73.58
286135,2018-06-29 11:13:53.718750,-41.6,73.58
286136,2018-06-29 11:13:53.750000,-48.89,73.58
286137,2018-06-29 11:13:53.781250,-58.08,73.58
286138,2018-06-29 11:13:53.812500,-69.54,73.58
286139,2018-06-29 11:13:53.843750,-78.87,73.58
286140,2018-06-29 11:13:53.875000,-74.7,73.58
286141,2018-06-29 11:13:53.906250,-49.41,73.58
286142,2018-06-29 11:13:53.937500,-11.14,73.58
286143,2018-06-29 11:13:53.968750,23.05,73.58
286144,2018-06-29 11:13:54.000000,43.65,73.58
286145,2018-06-29 11:13:54.031250,51.19,73.58
286146,2018-06-29 11:13:54.062500,48.68,73.58
286147,2018-06-29 11:13:54.093750,40.2,73.58
286148,2018-06-29 11:13:54.125000,32.62,73.58
286149,2018-06-29 11:13:54.156250,31.41,73.58
286150,2018-06-29 11:13:54.187500,35.29,73.58
286151,2018-06-29 11:13:54.218750,39.0,73.58
286152,2018-06-29 11:13:54.250000,40.24,73.58
286153,2018-06-29 11:13:54.281250,40.08,73.58
286154,2018-06-29 11:13:54.312500,37.85,73.58
286155,2018-06-29 11:13:54.343750,31.04,73.58
286156,2018-06-29 11:13:54.375000,20.13,73.58
286157,2018-06-29 11:13:54.406250,8.96,73.58
286158,2018-06-29 11:13:54.437500,-0.21,73.58
286159,2018-06-29 11:13:54.468750,-8.51,73.58
286160,2018-06-29 11:13:54.500000,-17.95,73.58
286161,2018-06-29 11:13:54.531250,-28.81,73.48
286162,2018-06-29 11:13:54.562500,-39.38,73.48
286163,2018-06-29 11:13:54.593750,-48.1,73.48
286164,2018-06-29 11:13:54.625000,-56.06,73.48
286165,2018-06-29 11:13:54.656250,-66.48,73.48
286166,2018-06-29 11:13:54.687500,-80.93,73.48
286167,2018-06-29 11:13:54.718750,-93.44,73.48
286168,2018-06-29 11:13:54.750000,-90.66,73.48
286169,2018-06-29 11:13:54.781250,-64.65,73.48
286170,2018-06-29 11:13:54.812500,-24.18,73.48
286171,2018-06-29 11:13:54.843750,13.71,73.48
286172,2018-06-29 11:13:54.875000,39.38,73.48
286173,2018-06-29 11:13:54.906250,52.44,73.48
286174,2018-06-29 11:13:54.937500,55.11,73.48
286175,2018-06-29 11:13:54.968750,51.04,73.48
286176,2018-06-29 11:13:55.000000,46.09,73.48
286177,2018-06-29 11:13:55.031250,44.86,73.48
286178,2018-06-29 11:13:55.062500,47.0,73.48
286179,2018-06-29 11:13:55.093750,48.87,73.48
286180,2018-06-29 11:13:55.125000,48.48,73.48
286181,2018-06-29 11:13:55.156250,46.78,73.48
286182,2018-06-29 11:13:55.187500,43.97,73.48
286183,2018-06-29 11:13:55.218750,37.9,73.48
286184,2018-06-29 11:13:55.250000,27.8,73.48
286185,2018-06-29 11:13:55.281250,16.41,73.48
286186,2018-06-29 11:13:55.312500,6.37,73.48
286187,2018-06-29 11:13:55.343750,-2.76,73.48
286188,2018-06-29 11:13:55.375000,-12.93,73.48
286189,2018-06-29 11:13:55.406250,-24.66,73.48
286190,2018-06-29 11:13:55.437500,-36.14,73.48
286191,2018-06-29 11:13:55.468750,-45.21,73.48
286192,2018-06-29 11:13:55.500000,-52.32,73.48
286193,2018-06-29 11:13:55.531250,-60.93,73.37
286194,2018-06-29 11:13:55.562500,-74.02,73.37
286195,2018-06-29 11:13:55.593750,-87.55,73.37
286196,2018-06-29 11:13:55.625000,-88.32,73.37
286197,2018-06-29 11:13:55.656250,-65.32,73.37
286198,2018-06-29 11:13:55.687500,-24.49,73.37
286199,2018-06-29 11:13:55.718750,15.77,73.37
286200,2018-06-29 11:13:55.750000,43.01,73.37
286201,2018-06-29 11:13:55.781250,56.45,73.37
286202,2018-06-29 11:13:55.812500,58.71,73.37
286203,2018-06-29 11:13:55.843750,53.11,73.37
286204,2018-06-29 11:13:55.875000,46.17,73.37
286205,2018-06-29 11:13:55.906250,43.82,73.37
286206,2018-06-29 11:13:55.937500,45.84,73.37
286207,2018-06-29 11:13:55.968750,48.11,73.37
286208,2018-06-29 11:13:56.000000,48.38,73.37
286209,2018-06-29 11:13:56.031250,46.84,73.37
286210,2018-06-29 11:13:56.062500,43.33,73.37
286211,2018-06-29 11:13:56.093750,36.8,73.37
286212,2018-06-29 11:13:56.125000,27.31,73.37
286213,2018-06-29 11:13:56.156250,16.97,73.37
286214,2018-06-29 11:13:56.187500,7.99,73.37
286215,2018-06-29 11:13:56.218750,0.07,73.37
286216,2018-06-29 11:13:56.250000,-8.8,73.37
286217,2018-06-29 11:13:56.281250,-18.81,73.37
286218,2018-06-29 11:13:56.312500,-27.78,73.37
286219,2018-06-29 11:13:56.343750,-34.7,73.37
286220,2018-06-29 11:13:56.375000,-41.39,73.37
286221,2018-06-29 11:13:56.406250,-50.88,73.37
286222,2018-06-29 11:13:56.437500,-64.45,73.37
286223,2018-06-29 11:13:56.468750,-76.99,73.37
286224,2018-06-29 11:13:56.500000,-76.06,73.37
286225,2018-06-29 11:13:56.531250,-53.53,73.23
286226,2018-06-29 11:13:56.562500,-17.06,73.23
286227,2018-06-29 11:13:56.593750,16.66,73.23
286228,2018-06-29 11:13:56.625000,37.43,73.23
286229,2018-06-29 11:13:56.656250,44.49,73.23
286230,2018-06-29 11:13:56.687500,40.69,73.23
286231,2018-06-29 11:13:56.718750,31.26,73.23
286232,2018-06-29 11:13:56.750000,23.93,73.23
286233,2018-06-29 11:13:56.781250,23.24,73.23
286234,2018-06-29 11:13:56.812500,26.56,73.23
286235,2018-06-29 11:13:56.843750,29.18,73.23
286236,2018-06-29 11:13:56.875000,30.2,73.23
286237,2018-06-29 11:13:56.906250,30.15,73.23
286238,2018-06-29 11:13:56.937500,26.9,73.23
286239,2018-06-29 11:13:56.968750,18.93,73.23
286240,2018-06-29 11:13:57.000000,9.17,73.23
286241,2018-06-29 11:13:57.031250,1.53,73.23
286242,2018-06-29 11:13:57.062500,-4.46,73.23
286243,2018-06-29 11:13:57.093750,-12.15,73.23
286244,2018-06-29 11:13:57.125000,-22.13,73.23
286245,2018-06-29 11:13:57.156250,-31.08,73.23
286246,2018-06-29 11:13:57.187500,-37.03,73.23
286247,2018-06-29 11:13:57.218750,-42.71,73.23
286248,2018-06-29 11:13:57.250000,-52.22,73.23
286249,2018-06-29 11:13:57.281250,-64.95,73.23
286250,2018-06-29 11:13:57.312500,-72.5,73.23
286251,2018-06-29 11:13:57.343750,-63.3,73.23
286252,2018-06-29 11:13:57.375000,-34.7,73.23
286253,2018-06-29 11:13:57.406250,1.38,73.23
286254,2018-06-29 11:13:57.437500,29.59,73.23
286255,2018-06-29 11:13:57.468750,44.18,73.23
286256,2018-06-29 11:13:57.500000,47.14,73.23
286257,2018-06-29 11:13:57.531250,41.89,73.07
286258,2018-06-29 11:13:57.562500,33.68,73.07
286259,2018-06-29 11:13:57.593750,29.19,73.07
286260,2018-06-29 11:13:57.625000,30.62,73.07
286261,2018-06-29 11:13:57.656250,34.11,73.07
286262,2018-06-29 11:13:57.687500,35.92,73.07
286263,2018-06-29 11:13:57.718750,36.2,73.07
286264,2018-06-29 11:13:57.750000,35.28,73.07
286265,2018-06-29 11:13:57.781250,30.72,73.07
286266,2018-06-29 11:13:57.812500,21.06,73.07
286267,2018-06-29 11:13:57.843750,9.74,73.07
286268,2018-06-29 11:13:57.875000,1.08,73.07
286269,2018-06-29 11:13:57.906250,-5.66,73.07
286270,2018-06-29 11:13:57.937500,-14.77,73.07
286271,2018-06-29 11:13:57.968750,-27.37,73.07
286272,2018-06-29 11:13:58.000000,-39.55,73.07
286273,2018-06-29 11:13:58.031250,-47.78,73.07
286274,2018-06-29 11:13:58.062500,-53.77,73.07
286275,2018-06-29 11:13:58.093750,-62.55,73.07
286276,2018-06-29 11:13:58.125000,-76.36,73.07
286277,2018-06-29 11:13:58.156250,-88.93,73.07
286278,2018-06-29 11:13:58.187500,-86.58,73.07
286279,2018-06-29 11:13:58.218750,-60.8,73.07
286280,2018-06-29 11:13:58.250000,-19.9,73.07
286281,2018-06-29 11:13:58.281250,18.01,73.07
286282,2018-06-29 11:13:58.312500,41.77,73.07
286283,2018-06-29 11:13:58.343750,51.63,73.07
286284,2018-06-29 11:13:58.375000,52.07,73.07
286285,2018-06-29 11:13:58.406250,47.82,73.07
286286,2018-06-29 11:13:58.437500,43.95,73.07
286287,2018-06-29 11:13:58.468750,43.78,73.07
286288,2018-06-29 11:13:58.500000,46.53,73.07
286289,2018-06-29 11:13:58.531250,49.18,72.88
286290,2018-06-29 11:13:58.562500,49.95,72.88
286291,2018-06-29 11:13:58.593750,48.74,72.88
286292,2018-06-29 11:13:58.625000,45.23,72.88
286293,2018-06-29 11:13:58.656250,38.69,72.88
286294,2018-06-29 11:13:58.687500,29.86,72.88
286295,2018-06-29 11:13:58.718750,20.75,72.88
286296,2018-06-29 11:13:58.750000,12.26,72.88
286297,2018-06-29 11:13:58.781250,3.91,72.88
286298,2018-06-29 11:13:58.812500,-4.15,72.88
286299,2018-06-29 11:13:58.843750,-11.73,72.88
286300,2018-06-29 11:13:58.875000,-20.06,72.88
286301,2018-06-29 11:13:58.906250,-30.11,72.88
286302,2018-06-29 11:13:58.937500,-40.64,72.88
286303,2018-06-29 11:13:58.968750,-49.8,72.88
286304,2018-06-29 11:13:59.000000,-58.19,72.88
286305,2018-06-29 11:13:59.031250,-69.12,72.88
286306,2018-06-29 11:13:59.062500,-84.24,72.88
286307,2018-06-29 11:13:59.093750,-96.65,72.88
286308,2018-06-29 11:13:59.125000,-92.44,72.88
286309,2018-06-29 11:13:59.156250,-64.75,72.88
286310,2018-06-29 11:13:59.187500,-23.63,72.88
286311,2018-06-29 11:13:59.218750,13.65,72.88
286312,2018-06-29 11:13:59.250000,37.76,72.88
286313,2018-06-29 11:13:59.281250,49.06,72.88
286314,2018-06-29 11:13:59.312500,50.59,72.88
286315,2018-06-29 11:13:59.343750,46.24,72.88
286316,2018-06-29 11:13:59.375000,41.7,72.88
286317,2018-06-29 11:13:59.406250,41.2,72.88
286318,2018-06-29 11:13:59.437500,44.2,72.88
286319,2018-06-29 11:13:59.468750,47.53,72.88
286320,2018-06-29 11:13:59.500000,49.35,72.88
286321,2018-06-29 11:13:59.531250,49.21,72.68
286322,2018-06-29 11:13:59.562500,46.46,72.68
286323,2018-06-29 11:13:59.593750,40.59,72.68
286324,2018-06-29 11:13:59.625000,32.59,72.68
286325,2018-06-29 11:13:59.656250,23.97,72.68
286326,2018-06-29 11:13:59.687500,15.18,72.68
286327,2018-06-29 11:13:59.718750,6.38,72.68
286328,2018-06-29 11:13:59.750000,-1.71,72.68
286329,2018-06-29 11:13:59.781250,-9.44,72.68
286330,2018-06-29 11:13:59.812500,-18.43,72.68
286331,2018-06-29 11:13:59.843750,-28.68,72.68
286332,2018-06-29 11:13:59.875000,-38.29,72.68
286333,2018-06-29 11:13:59.906250,-46.21,72.68
286334,2018-06-29 11:13:59.937500,-53.54,72.68
286335,2018-06-29 11:13:59.968750,-63.07,72.68
286336,2018-06-29 11:14:00.000000,-75.5,72.68
286337,2018-06-29 11:14:00.031250,-83.02,72.68
286338,2018-06-29 11:14:00.062500,-72.44,72.68
286339,2018-06-29 11:14:00.093750,-40.68,72.68
286340,2018-06-29 11:14:00.125000,-1.3,72.68
286341,2018-06-29 11:14:00.156250,29.34,72.68
286342,2018-06-29 11:14:00.187500,45.94,72.68
286343,2018-06-29 11:14:00.218750,51.41,72.68
286344,2018-06-29 11:14:00.250000,49.19,72.68
286345,2018-06-29 11:14:00.281250,43.37,72.68
286346,2018-06-29 11:14:00.312500,39.67,72.68
286347,2018-06-29 11:14:00.343750,40.93,72.68
286348,2018-06-29 11:14:00.375000,44.62,72.68
286349,2018-06-29 11:14:00.406250,47.08,72.68
286350,2018-06-29 11:14:00.437500,47.03,72.68
286351,2018-06-29 11:14:00.468750,44.19,72.68
286352,2018-06-29 11:14:00.500000,38.05,72.68
286353,2018-06-29 11:14:00.531250,28.93,72.48
286354,2018-06-29 11:14:00.562500,17.87,72.48
286355,2018-06-29 11:14:00.593750,6.46,72.48
286356,2018-06-29 11:14:00.625000,-3.16,72.48
286357,2018-06-29 11:14:00.656250,-10.65,72.48
286358,2018-06-29 11:14:00.687500,-18.34,72.48
286359,2018-06-29 11:14:00.718750,-27.41,72.48
286360,2018-06-29 11:14:00.750000,-35.95,72.48
286361,2018-06-29 11:14:00.781250,-42.69,72.48
286362,2018-06-29 11:14:00.812500,-49.09,72.48
286363,2018-06-29 11:14:00.843750,-57.33,72.48
286364,2018-06-29 11:14:00.875000,-68.35,72.48
286365,2018-06-29 11:14:00.906250,-78.6,72.48
286366,2018-06-29 11:14:00.937500,-77.87,72.48
286367,2018-06-29 11:14:00.968750,-57.29,72.48
286368,2018-06-29 11:14:01.000000,-21.6,72.48
286369,2018-06-29 11:14:01.031250,13.01,72.48
286370,2018-06-29 11:14:01.062500,34.07,72.48
286371,2018-06-29 11:14:01.093750,40.37,72.48
286372,2018-06-29 11:14:01.125000,36.52,72.48
286373,2018-06-29 11:14:01.156250,27.9,72.48
286374,2018-06-29 11:14:01.187500,20.5,72.48
286375,2018-06-29 11:14:01.218750,19.16,72.48
286376,2018-06-29 11:14:01.250000,23.47,72.48
286377,2018-06-29 11:14:01.281250,28.65,72.48
286378,2018-06-29 11:14:01.312500,31.19,72.48
286379,2018-06-29 11:14:01.343750,30.48,72.48
286380,2018-06-29 11:14:01.375000,26.14,72.48
286381,2018-06-29 11:14:01.406250,18.42,72.48
286382,2018-06-29 11:14:01.437500,9.64,72.48
286383,2018-06-29 11:14:01.468750,0.64,72.48
286384,2018-06-29 11:14:01.500000,-10.22,72.48
286385,2018-06-29 11:14:01.531250,-22.2,72.3
286386,2018-06-29 11:14:01.562500,-31.9,72.3
286387,2018-06-29 11:14:01.593750,-38.62,72.3
286388,2018-06-29 11:14:01.625000,-45.44,72.3
286389,2018-06-29 11:14:01.656250,-55.43,72.3
286390,2018-06-29 11:14:01.687500,-68.13,72.3
286391,2018-06-29 11:14:01.718750,-75.89,72.3
286392,2018-06-29 11:14:01.750000,-66.87,72.3
286393,2018-06-29 11:14:01.781250,-37.94,72.3
286394,2018-06-29 11:14:01.812500,-0.99,72.3
286395,2018-06-29 11:14:01.843750,28.46,72.3
286396,2018-06-29 11:14:01.875000,44.35,72.3
286397,2018-06-29 11:14:01.906250,48.96,72.3
286398,2018-06-29 11:14:01.937500,45.88,72.3
286399,2018-06-29 11:14:01.968750,39.07,72.3
286400,2018-06-29 11:14:02.000000,33.59,72.3
286401,2018-06-29 11:14:02.031250,32.34,72.3
286402,2018-06-29 11:14:02.062500,33.78,72.3
286403,2018-06-29 11:14:02.093750,35.25,72.3
286404,2018-06-29 11:14:02.125000,35.62,72.3
286405,2018-06-29 11:14:02.156250,33.2,72.3
286406,2018-06-29 11:14:02.187500,25.83,72.3
286407,2018-06-29 11:14:02.218750,14.5,72.3
286408,2018-06-29 11:14:02.250000,2.64,72.3
286409,2018-06-29 11:14:02.281250,-8.82,72.3
286410,2018-06-29 11:14:02.312500,-21.54,72.3
286411,2018-06-29 11:14:02.343750,-35.02,72.3
286412,2018-06-29 11:14:02.375000,-46.12,72.3
286413,2018-06-29 11:14:02.406250,-54.03,72.3
286414,2018-06-29 11:14:02.437500,-62.55,72.3
286415,2018-06-29 11:14:02.468750,-76.0,72.3
286416,2018-06-29 11:14:02.500000,-91.35,72.3
286417,2018-06-29 11:14:02.531250,-95.37,72.17
286418,2018-06-29 11:14:02.562500,-75.79,72.17
286419,2018-06-29 11:14:02.593750,-36.5,72.17
286420,2018-06-29 11:14:02.625000,4.8,72.17
286421,2018-06-29 11:14:02.656250,34.51,72.17
286422,2018-06-29 11:14:02.687500,51.31,72.17
286423,2018-06-29 11:14:02.718750,58.46,72.17
286424,2018-06-29 11:14:02.750000,58.27,72.17
286425,2018-06-29 11:14:02.781250,54.54,72.17
286426,2018-06-29 11:14:02.812500,52.3,72.17
286427,2018-06-29 11:14:02.843750,52.85,72.17
286428,2018-06-29 11:14:02.875000,53.37,72.17
286429,2018-06-29 11:14:02.906250,52.25,72.17
286430,2018-06-29 11:14:02.937500,50.73,72.17
286431,2018-06-29 11:14:02.968750,48.31,72.17
286432,2018-06-29 11:14:03.000000,41.58,72.17
286433,2018-06-29 11:14:03.031250,29.8,72.17
286434,2018-06-29 11:14:03.062500,16.98,72.17
286435,2018-06-29 11:14:03.093750,6.35,72.17
286436,2018-06-29 11:14:03.125000,-3.77,72.17
286437,2018-06-29 11:14:03.156250,-16.38,72.17
286438,2018-06-29 11:14:03.187500,-30.57,72.17
286439,2018-06-29 11:14:03.218750,-42.73,72.17
286440,2018-06-29 11:14:03.250000,-51.66,72.17
286441,2018-06-29 11:14:03.281250,-60.6,72.17
286442,2018-06-29 11:14:03.312500,-74.07,72.17
286443,2018-06-29 11:14:03.343750,-90.37,72.17
286444,2018-06-29 11:14:03.375000,-97.17,72.17
286445,2018-06-29 11:14:03.406250,-80.65,72.17
286446,2018-06-29 11:14:03.437500,-41.85,72.17
286447,2018-06-29 11:14:03.468750,2.54,72.17
286448,2018-06-29 11:14:03.500000,36.51,72.17
286449,2018-06-29 11:14:03.531250,55.6,72.03
286450,2018-06-29 11:14:03.562500,62.75,72.03
286451,2018-06-29 11:14:03.593750,62.02,72.03
286452,2018-06-29 11:14:03.625000,57.79,72.03
286453,2018-06-29 11:14:03.656250,54.79,72.03
286454,2018-06-29 11:14:03.687500,55.27,72.03
286455,2018-06-29 11:14:03.718750,57.4,72.03
286456,2018-06-29 11:14:03.750000,58.59,72.03
286457,2018-06-29 11:14:03.781250,58.28,72.03
286458,2018-06-29 11:14:03.812500,56.06,72.03
286459,2018-06-29 11:14:03.843750,50.34,72.03
286460,2018-06-29 11:14:03.875000,41.36,72.03
286461,2018-06-29 11:14:03.906250,31.83,72.03
286462,2018-06-29 11:14:03.937500,23.5,72.03
286463,2018-06-29 11:14:03.968750,15.46,72.03
286464,2018-06-29 11:14:04.000000,6.74,72.03
286465,2018-06-29 11:14:04.031250,-1.92,72.03
286466,2018-06-29 11:14:04.062500,-10.2,72.03
286467,2018-06-29 11:14:04.093750,-19.65,72.03
286468,2018-06-29 11:14:04.125000,-31.25,72.03
286469,2018-06-29 11:14:04.156250,-43.17,72.03
286470,2018-06-29 11:14:04.187500,-53.09,72.03
286471,2018-06-29 11:14:04.218750,-61.62,72.03
286472,2018-06-29 11:14:04.250000,-72.17,72.03
286473,2018-06-29 11:14:04.281250,-86.58,72.03
286474,2018-06-29 11:14:04.312500,-98.47,72.03
286475,2018-06-29 11:14:04.343750,-93.81,72.03
286476,2018-06-29 11:14:04.375000,-64.98,72.03
286477,2018-06-29 11:14:04.406250,-21.92,72.03
286478,2018-06-29 11:14:04.437500,17.34,72.03
286479,2018-06-29 11:14:04.468750,42.74,72.03
286480,2018-06-29 11:14:04.500000,54.15,72.03
286481,2018-06-29 11:14:04.531250,54.99,71.9
286482,2018-06-29 11:14:04.562500,50.47,71.9
286483,2018-06-29 11:14:04.593750,47.14,71.9
286484,2018-06-29 11:14:04.625000,48.26,71.9
286485,2018-06-29 11:14:04.656250,51.35,71.9
286486,2018-06-29 11:14:04.687500,52.77,71.9
286487,2018-06-29 11:14:04.718750,52.18,71.9
286488,2018-06-29 11:14:04.750000,50.31,71.9
286489,2018-06-29 11:14:04.781250,46.03,71.9
286490,2018-06-29 11:14:04.812500,38.86,71.9
286491,2018-06-29 11:14:04.843750,30.78,71.9
286492,2018-06-29 11:14:04.875000,23.11,71.9
286493,2018-06-29 11:14:04.906250,14.99,71.9
286494,2018-06-29 11:14:04.937500,6.13,71.9
286495,2018-06-29 11:14:04.968750,-1.93,71.9
286496,2018-06-29 11:14:05.000000,-8.61,71.9
286497,2018-06-29 11:14:05.031250,-15.82,71.9
286498,2018-06-29 11:14:05.062500,-25.34,71.9
286499,2018-06-29 11:14:05.093750,-36.07,71.9
286500,2018-06-29 11:14:05.125000,-45.38,71.9
286501,2018-06-29 11:14:05.156250,-53.04,71.9
286502,2018-06-29 11:14:05.187500,-62.12,71.9
286503,2018-06-29 11:14:05.218750,-74.79,71.9
286504,2018-06-29 11:14:05.250000,-85.94,71.9
286505,2018-06-29 11:14:05.281250,-83.08,71.9
286506,2018-06-29 11:14:05.312500,-58.18,71.9
286507,2018-06-29 11:14:05.343750,-19.03,71.9
286508,2018-06-29 11:14:05.375000,17.47,71.9
286509,2018-06-29 11:14:05.406250,41.08,71.9
286510,2018-06-29 11:14:05.437500,51.44,71.9
286511,2018-06-29 11:14:05.468750,51.56,71.9
286512,2018-06-29 11:14:05.500000,45.83,71.9
286513,2018-06-29 11:14:05.531250,40.24,71.77
286514,2018-06-29 11:14:05.562500,38.61,71.77
286515,2018-06-29 11:14:05.593750,40.08,71.77
286516,2018-06-29 11:14:05.625000,42.2,71.77
286517,2018-06-29 11:14:05.656250,43.81,71.77
286518,2018-06-29 11:14:05.687500,43.96,71.77
286519,2018-06-29 11:14:05.718750,40.85,71.77
286520,2018-06-29 11:14:05.750000,33.82,71.77
286521,2018-06-29 11:14:05.781250,25.11,71.77
286522,2018-06-29 11:14:05.812500,17.52,71.77
286523,2018-06-29 11:14:05.843750,11.24,71.77
286524,2018-06-29 11:14:05.875000,4.51,71.77
286525,2018-06-29 11:14:05.906250,-2.92,71.77
286526,2018-06-29 11:14:05.937500,-9.43,71.77
286527,2018-06-29 11:14:05.968750,-14.77,71.77
286528,2018-06-29 11:14:06.000000,-21.3,71.77
286529,2018-06-29 11:14:06.031250,-30.36,71.77
286530,2018-06-29 11:14:06.062500,-39.73,71.77
286531,2018-06-29 11:14:06.093750,-47.14,71.77
286532,2018-06-29 11:14:06.125000,-54.14,71.77
286533,2018-06-29 11:14:06.156250,-64.09,71.77
286534,2018-06-29 11:14:06.187500,-77.0,71.77
286535,2018-06-29 11:14:06.218750,-85.79,71.77
286536,2018-06-29 11:14:06.250000,-78.83,71.77
286537,2018-06-29 11:14:06.281250,-51.59,71.77
286538,2018-06-29 11:14:06.312500,-14.62,71.77
286539,2018-06-29 11:14:06.343750,16.13,71.77
286540,2018-06-29 11:14:06.375000,33.91,71.77
286541,2018-06-29 11:14:06.406250,41.09,71.77
286542,2018-06-29 11:14:06.437500,41.14,71.77
286543,2018-06-29 11:14:06.468750,37.32,71.77
286544,2018-06-29 11:14:06.500000,34.25,71.77
286545,2018-06-29 11:14:06.531250,34.97,71.6
286546,2018-06-29 11:14:06.562500,37.76,71.6
286547,2018-06-29 11:14:06.593750,39.49,71.6
286548,2018-06-29 11:14:06.625000,40.26,71.6
286549,2018-06-29 11:14:06.656250,41.08,71.6
286550,2018-06-29 11:14:06.687500,39.4,71.6
286551,2018-06-29 11:14:06.718750,32.76,71.6
286552,2018-06-29 11:14:06.750000,23.95,71.6
286553,2018-06-29 11:14:06.781250,17.35,71.6
286554,2018-06-29 11:14:06.812500,12.84,71.6
286555,2018-06-29 11:14:06.843750,7.46,71.6
286556,2018-06-29 11:14:06.875000,0.69,71.6
286557,2018-06-29 11:14:06.906250,-5.29,71.6
286558,2018-06-29 11:14:06.937500,-10.13,71.6
286559,2018-06-29 11:14:06.968750,-16.52,71.6
286560,2018-06-29 11:14:07.000000,-25.84,71.6
286561,2018-06-29 11:14:07.031250,-35.53,71.6
286562,2018-06-29 11:14:07.062500,-42.72,71.6
286563,2018-06-29 11:14:07.093750,-48.12,71.6
286564,2018-06-29 11:14:07.125000,-54.97,71.6
286565,2018-06-29 11:14:07.156250,-65.25,71.6
286566,2018-06-29 11:14:07.187500,-75.22,71.6
286567,2018-06-29 11:14:07.218750,-74.46,71.6
286568,2018-06-29 11:14:07.250000,-55.18,71.6
286569,2018-06-29 11:14:07.281250,-23.13,71.6
286570,2018-06-29 11:14:07.312500,7.07,71.6
286571,2018-06-29 11:14:07.343750,26.34,71.6
286572,2018-06-29 11:14:07.375000,34.8,71.6
286573,2018-06-29 11:14:07.406250,35.28,71.6
286574,2018-06-29 11:14:07.437500,31.14,71.6
286575,2018-06-29 11:14:07.468750,27.11,71.6
286576,2018-06-29 11:14:07.500000,26.46,71.6
286577,2018-06-29 11:14:07.531250,28.41,71.42
286578,2018-06-29 11:14:07.562500,30.75,71.42
286579,2018-06-29 11:14:07.593750,32.84,71.42
286580,2018-06-29 11:14:07.625000,34.58,71.42
286581,2018-06-29 11:14:07.656250,34.2,71.42
286582,2018-06-29 11:14:07.687500,29.9,71.42
286583,2018-06-29 11:14:07.718750,23.1,71.42
286584,2018-06-29 11:14:07.750000,16.68,71.42
286585,2018-06-29 11:14:07.781250,11.03,71.42
286586,2018-06-29 11:14:07.812500,4.79,71.42
286587,2018-06-29 11:14:07.843750,-1.72,71.42
286588,2018-06-29 11:14:07.875000,-7.1,71.42
286589,2018-06-29 11:14:07.906250,-11.87,71.42
286590,2018-06-29 11:14:07.937500,-18.12,71.42
286591,2018-06-29 11:14:07.968750,-25.97,71.42
286592,2018-06-29 11:14:08.000000,-33.17,71.42
286593,2018-06-29 11:14:08.031250,-38.66,71.42
286594,2018-06-29 11:14:08.062500,-44.43,71.42
286595,2018-06-29 11:14:08.093750,-53.11,71.42
286596,2018-06-29 11:14:08.125000,-64.74,71.42
286597,2018-06-29 11:14:08.156250,-73.11,71.42
286598,2018-06-29 11:14:08.187500,-67.42,71.42
286599,2018-06-29 11:14:08.218750,-43.72,71.42
286600,2018-06-29 11:14:08.250000,-12.1,71.42
286601,2018-06-29 11:14:08.281250,13.38,71.42
286602,2018-06-29 11:14:08.312500,27.42,71.42
286603,2018-06-29 11:14:08.343750,31.97,71.42
286604,2018-06-29 11:14:08.375000,29.85,71.42
286605,2018-06-29 11:14:08.406250,24.61,71.42
286606,2018-06-29 11:14:08.437500,21.08,71.42
286607,2018-06-29 11:14:08.468750,21.95,71.42
286608,2018-06-29 11:14:08.500000,25.76,71.42
286609,2018-06-29 11:14:08.531250,29.36,71.22
286610,2018-06-29 11:14:08.562500,31.2,71.22
286611,2018-06-29 11:14:08.593750,31.1,71.22
286612,2018-06-29 11:14:08.625000,28.7,71.22
286613,2018-06-29 11:14:08.656250,23.83,71.22
286614,2018-06-29 11:14:08.687500,17.49,71.22
286615,2018-06-29 11:14:08.718750,10.53,71.22
286616,2018-06-29 11:14:08.750000,3.19,71.22
286617,2018-06-29 11:14:08.781250,-3.39,71.22
286618,2018-06-29 11:14:08.812500,-8.31,71.22
286619,2018-06-29 11:14:08.843750,-13.33,71.22
286620,2018-06-29 11:14:08.875000,-20.47,71.22
286621,2018-06-29 11:14:08.906250,-28.83,71.22
286622,2018-06-29 11:14:08.937500,-36.5,71.22
286623,2018-06-29 11:14:08.968750,-43.13,71.22
286624,2018-06-29 11:14:09.000000,-49.74,71.22
286625,2018-06-29 11:14:09.031250,-58.43,71.22
286626,2018-06-29 11:14:09.062500,-69.75,71.22
286627,2018-06-29 11:14:09.093750,-76.9,71.22
286628,2018-06-29 11:14:09.125000,-68.41,71.22
286629,2018-06-29 11:14:09.156250,-41.98,71.22
286630,2018-06-29 11:14:09.187500,-9.29,71.22
286631,2018-06-29 11:14:09.218750,16.45,71.22
286632,2018-06-29 11:14:09.250000,31.06,71.22
286633,2018-06-29 11:14:09.281250,36.16,71.22
286634,2018-06-29 11:14:09.312500,34.01,71.22
286635,2018-06-29 11:14:09.343750,28.78,71.22
286636,2018-06-29 11:14:09.375000,26.18,71.22
286637,2018-06-29 11:14:09.406250,28.45,71.22
286638,2018-06-29 11:14:09.437500,32.79,71.22
286639,2018-06-29 11:14:09.468750,36.14,71.22
286640,2018-06-29 11:14:09.500000,37.97,71.22
286641,2018-06-29 11:14:09.531250,37.63,71.0
286642,2018-06-29 11:14:09.562500,33.64,71.0
286643,2018-06-29 11:14:09.593750,26.97,71.0
286644,2018-06-29 11:14:09.625000,20.63,71.0
286645,2018-06-29 11:14:09.656250,15.36,71.0
286646,2018-06-29 11:14:09.687500,9.49,71.0
286647,2018-06-29 11:14:09.718750,2.82,71.0
286648,2018-06-29 11:14:09.750000,-3.27,71.0
286649,2018-06-29 11:14:09.781250,-9.02,71.0
286650,2018-06-29 11:14:09.812500,-15.9,71.0
286651,2018-06-29 11:14:09.843750,-23.85,71.0
286652,2018-06-29 11:14:09.875000,-31.73,71.0
286653,2018-06-29 11:14:09.906250,-39.32,71.0
286654,2018-06-29 11:14:09.937500,-47.63,71.0
286655,2018-06-29 11:14:09.968750,-58.59,71.0
286656,2018-06-29 11:14:10.000000,-72.38,71.0
286657,2018-06-29 11:14:10.031250,-82.03,71.0
286658,2018-06-29 11:14:10.062500,-75.5,71.0
286659,2018-06-29 11:14:10.093750,-48.88,71.0
286660,2018-06-29 11:14:10.125000,-12.78,71.0
286661,2018-06-29 11:14:10.156250,17.9,71.0
286662,2018-06-29 11:14:10.187500,36.34,71.0
286663,2018-06-29 11:14:10.218750,43.62,71.0
286664,2018-06-29 11:14:10.250000,42.76,71.0
286665,2018-06-29 11:14:10.281250,37.77,71.0
286666,2018-06-29 11:14:10.312500,34.32,71.0
286667,2018-06-29 11:14:10.343750,35.91,71.0
286668,2018-06-29 11:14:10.375000,40.28,71.0
286669,2018-06-29 11:14:10.406250,43.08,71.0
286670,2018-06-29 11:14:10.437500,43.27,71.0
286671,2018-06-29 11:14:10.468750,42.08,71.0
286672,2018-06-29 11:14:10.500000,39.35,71.0
286673,2018-06-29 11:14:10.531250,33.57,70.88
286674,2018-06-29 11:14:10.562500,24.43,70.88
286675,2018-06-29 11:14:10.593750,14.19,70.88
286676,2018-06-29 11:14:10.625000,5.75,70.88
286677,2018-06-29 11:14:10.656250,-1.01,70.88
286678,2018-06-29 11:14:10.687500,-8.75,70.88
286679,2018-06-29 11:14:10.718750,-18.02,70.88
286680,2018-06-29 11:14:10.750000,-26.55,70.88
286681,2018-06-29 11:14:10.781250,-33.23,70.88
286682,2018-06-29 11:14:10.812500,-39.55,70.88
286683,2018-06-29 11:14:10.843750,-47.63,70.88
286684,2018-06-29 11:14:10.875000,-58.92,70.88
286685,2018-06-29 11:14:10.906250,-70.34,70.88
286686,2018-06-29 11:14:10.937500,-71.11,70.88
286687,2018-06-29 11:14:10.968750,-51.87,70.88
286688,2018-06-29 11:14:11.000000,-17.76,70.88
286689,2018-06-29 11:14:11.031250,15.39,70.88
286690,2018-06-29 11:14:11.062500,36.9,70.88
286691,2018-06-29 11:14:11.093750,45.53,70.88
286692,2018-06-29 11:14:11.125000,43.38,70.88
286693,2018-06-29 11:14:11.156250,34.8,70.88
286694,2018-06-29 11:14:11.187500,27.46,70.88
286695,2018-06-29 11:14:11.218750,26.74,70.88
286696,2018-06-29 11:14:11.250000,30.65,70.88
286697,2018-06-29 11:14:11.281250,34.18,70.88
286698,2018-06-29 11:14:11.312500,35.8,70.88
286699,2018-06-29 11:14:11.343750,36.12,70.88
286700,2018-06-29 11:14:11.375000,33.48,70.88
286701,2018-06-29 11:14:11.406250,25.74,70.88
286702,2018-06-29 11:14:11.437500,14.72,70.88
286703,2018-06-29 11:14:11.468750,4.5,70.88
286704,2018-06-29 11:14:11.500000,-3.88,70.88
286705,2018-06-29 11:14:11.531250,-12.96,70.72
286706,2018-06-29 11:14:11.562500,-24.43,70.72
286707,2018-06-29 11:14:11.593750,-36.19,70.72
286708,2018-06-29 11:14:11.625000,-45.3,70.72
286709,2018-06-29 11:14:11.656250,-52.23,70.72
286710,2018-06-29 11:14:11.687500,-60.79,70.72
286711,2018-06-29 11:14:11.718750,-74.2,70.72
286712,2018-06-29 11:14:11.750000,-89.08,70.72
286713,2018-06-29 11:14:11.781250,-92.75,70.72
286714,2018-06-29 11:14:11.812500,-73.47,70.72
286715,2018-06-29 11:14:11.843750,-35.06,70.72
286716,2018-06-29 11:14:11.875000,5.54,70.72
286717,2018-06-29 11:14:11.906250,34.72,70.72
286718,2018-06-29 11:14:11.937500,49.94,70.72
286719,2018-06-29 11:14:11.968750,54.4,70.72
286720,2018-06-29 11:14:12.000000,52.5,70.72
286721,2018-06-29 11:14:12.031250,48.89,70.72
286722,2018-06-29 11:14:12.062500,47.11,70.72
286723,2018-06-29 11:14:12.093750,47.98,70.72
286724,2018-06-29 11:14:12.125000,50.17,70.72
286725,2018-06-29 11:14:12.156250,52.17,70.72
286726,2018-06-29 11:14:12.187500,53.06,70.72
286727,2018-06-29 11:14:12.218750,51.77,70.72
286728,2018-06-29 11:14:12.250000,46.78,70.72
286729,2018-06-29 11:14:12.281250,37.7,70.72
286730,2018-06-29 11:14:12.312500,26.09,70.72
286731,2018-06-29 11:14:12.343750,14.13,70.72
286732,2018-06-29 11:14:12.375000,3.16,70.72
286733,2018-06-29 11:14:12.406250,-6.65,70.72
286734,2018-06-29 11:14:12.437500,-16.45,70.72
286735,2018-06-29 11:14:12.468750,-27.78,70.72
286736,2018-06-29 11:14:12.500000,-40.03,70.72
286737,2018-06-29 11:14:12.531250,-50.72,70.57
286738,2018-06-29 11:14:12.562500,-59.47,70.57
286739,2018-06-29 11:14:12.593750,-69.46,70.57
286740,2018-06-29 11:14:12.625000,-83.95,70.57
286741,2018-06-29 11:14:12.656250,-101.02,70.57
286742,2018-06-29 11:14:12.687500,-109.37,70.57
286743,2018-06-29 11:14:12.718750,-94.25,70.57
286744,2018-06-29 11:14:12.750000,-53.92,70.57
286745,2018-06-29 11:14:12.781250,-5.08,70.57
286746,2018-06-29 11:14:12.812500,33.28,70.57
286747,2018-06-29 11:14:12.843750,54.86,70.57
286748,2018-06-29 11:14:12.875000,62.92,70.57
286749,2018-06-29 11:14:12.906250,62.4,70.57
286750,2018-06-29 11:14:12.937500,58.54,70.57
286751,2018-06-29 11:14:12.968750,56.21,70.57
286752,2018-06-29 11:14:13.000000,57.12,70.57
286753,2018-06-29 11:14:13.031250,59.82,70.57
286754,2018-06-29 11:14:13.062500,62.56,70.57
286755,2018-06-29 11:14:13.093750,64.15,70.57
286756,2018-06-29 11:14:13.125000,62.65,70.57
286757,2018-06-29 11:14:13.156250,56.42,70.57
286758,2018-06-29 11:14:13.187500,46.88,70.57
286759,2018-06-29 11:14:13.218750,37.1,70.57
286760,2018-06-29 11:14:13.250000,27.72,70.57
286761,2018-06-29 11:14:13.281250,17.34,70.57
286762,2018-06-29 11:14:13.312500,6.43,70.57
286763,2018-06-29 11:14:13.343750,-3.04,70.57
286764,2018-06-29 11:14:13.375000,-11.47,70.57
286765,2018-06-29 11:14:13.406250,-21.81,70.57
286766,2018-06-29 11:14:13.437500,-34.83,70.57
286767,2018-06-29 11:14:13.468750,-47.36,70.57
286768,2018-06-29 11:14:13.500000,-56.91,70.57
286769,2018-06-29 11:14:13.531250,-65.42,70.43
286770,2018-06-29 11:14:13.562500,-77.38,70.43
286771,2018-06-29 11:14:13.593750,-93.62,70.43
286772,2018-06-29 11:14:13.625000,-104.88,70.43
286773,2018-06-29 11:14:13.656250,-95.29,70.43
286774,2018-06-29 11:14:13.687500,-59.2,70.43
286775,2018-06-29 11:14:13.718750,-10.79,70.43
286776,2018-06-29 11:14:13.750000,29.57,70.43
286777,2018-06-29 11:14:13.781250,52.83,70.43
286778,2018-06-29 11:14:13.812500,61.32,70.43
286779,2018-06-29 11:14:13.843750,60.41,70.43
286780,2018-06-29 11:14:13.875000,55.83,70.43
286781,2018-06-29 11:14:13.906250,52.75,70.43
286782,2018-06-29 11:14:13.937500,52.86,70.43
286783,2018-06-29 11:14:13.968750,54.47,70.43
286784,2018-06-29 11:14:14.000000,56.14,70.43
286785,2018-06-29 11:14:14.031250,57.51,70.43
286786,2018-06-29 11:14:14.062500,56.92,70.43
286787,2018-06-29 11:14:14.093750,52.47,70.43
286788,2018-06-29 11:14:14.125000,44.79,70.43
286789,2018-06-29 11:14:14.156250,35.95,70.43
286790,2018-06-29 11:14:14.187500,26.78,70.43
286791,2018-06-29 11:14:14.218750,17.05,70.43
286792,2018-06-29 11:14:14.250000,7.19,70.43
286793,2018-06-29 11:14:14.281250,-1.36,70.43
286794,2018-06-29 11:14:14.312500,-7.96,70.43
286795,2018-06-29 11:14:14.343750,-14.67,70.43
286796,2018-06-29 11:14:14.375000,-24.13,70.43
286797,2018-06-29 11:14:14.406250,-35.62,70.43
286798,2018-06-29 11:14:14.437500,-45.98,70.43
286799,2018-06-29 11:14:14.468750,-54.26,70.43
286800,2018-06-29 11:14:14.500000,-63.48,70.43
286801,2018-06-29 11:14:14.531250,-76.69,70.3
286802,2018-06-29 11:14:14.562500,-90.18,70.3
286803,2018-06-29 11:14:14.593750,-91.14,70.3
286804,2018-06-29 11:14:14.625000,-68.51,70.3
286805,2018-06-29 11:14:14.656250,-27.33,70.3
286806,2018-06-29 11:14:14.687500,14.59,70.3
286807,2018-06-29 11:14:14.718750,43.29,70.3
286808,2018-06-29 11:14:14.750000,56.0,70.3
286809,2018-06-29 11:14:14.781250,56.15,70.3
286810,2018-06-29 11:14:14.812500,49.54,70.3
286811,2018-06-29 11:14:14.843750,43.35,70.3
286812,2018-06-29 11:14:14.875000,42.17,70.3
286813,2018-06-29 11:14:14.906250,45.04,70.3
286814,2018-06-29 11:14:14.937500,48.15,70.3
286815,2018-06-29 11:14:14.968750,49.29,70.3
286816,2018-06-29 11:14:15.000000,48.5,70.3
286817,2018-06-29 11:14:15.031250,45.54,70.3
286818,2018-06-29 11:14:15.062500,39.41,70.3
286819,2018-06-29 11:14:15.093750,30.7,70.3
286820,2018-06-29 11:14:15.125000,22.15,70.3
286821,2018-06-29 11:14:15.156250,15.17,70.3
286822,2018-06-29 11:14:15.187500,8.15,70.3
286823,2018-06-29 11:14:15.218750,0.14,70.3
286824,2018-06-29 11:14:15.250000,-7.34,70.3
286825,2018-06-29 11:14:15.281250,-13.68,70.3
286826,2018-06-29 11:14:15.312500,-21.0,70.3
286827,2018-06-29 11:14:15.343750,-30.41,70.3
286828,2018-06-29 11:14:15.375000,-39.68,70.3
286829,2018-06-29 11:14:15.406250,-46.88,70.3
286830,2018-06-29 11:14:15.437500,-53.97,70.3
286831,2018-06-29 11:14:15.468750,-64.53,70.3
286832,2018-06-29 11:14:15.500000,-78.54,70.3
286833,2018-06-29 11:14:15.531250,-88.22,70.15
286834,2018-06-29 11:14:15.562500,-80.87,70.15
286835,2018-06-29 11:14:15.593750,-51.22,70.15
286836,2018-06-29 11:14:15.625000,-10.25,70.15
286837,2018-06-29 11:14:15.656250,24.27,70.15
286838,2018-06-29 11:14:15.687500,43.82,70.15
286839,2018-06-29 11:14:15.718750,50.39,70.15
286840,2018-06-29 11:14:15.750000,48.23,70.15
286841,2018-06-29 11:14:15.781250,41.51,70.15
286842,2018-06-29 11:14:15.812500,35.8,70.15
286843,2018-06-29 11:14:15.843750,35.2,70.15
286844,2018-06-29 11:14:15.875000,38.68,70.15
286845,2018-06-29 11:14:15.906250,42.32,70.15
286846,2018-06-29 11:14:15.937500,44.24,70.15
286847,2018-06-29 11:14:15.968750,44.22,70.15
286848,2018-06-29 11:14:16.000000,41.02,70.15
286849,2018-06-29 11:14:16.031250,33.88,70.15
286850,2018-06-29 11:14:16.062500,25.29,70.15
286851,2018-06-29 11:14:16.093750,18.18,70.15
286852,2018-06-29 11:14:16.125000,11.8,70.15
286853,2018-06-29 11:14:16.156250,3.65,70.15
286854,2018-06-29 11:14:16.187500,-5.47,70.15
286855,2018-06-29 11:14:16.218750,-12.44,70.15
286856,2018-06-29 11:14:16.250000,-17.6,70.15
286857,2018-06-29 11:14:16.281250,-24.86,70.15
286858,2018-06-29 11:14:16.312500,-35.45,70.15
286859,2018-06-29 11:14:16.343750,-46.3,70.15
286860,2018-06-29 11:14:16.375000,-55.37,70.15
286861,2018-06-29 11:14:16.406250,-63.78,70.15
286862,2018-06-29 11:14:16.437500,-73.64,70.15
286863,2018-06-29 11:14:16.468750,-86.25,70.15
286864,2018-06-29 11:14:16.500000,-97.05,70.15
286865,2018-06-29 11:14:16.531250,-93.34,70.0
286866,2018-06-29 11:14:16.562500,-66.51,70.0
286867,2018-06-29 11:14:16.593750,-25.26,70.0
286868,2018-06-29 11:14:16.625000,12.22,70.0
286869,2018-06-29 11:14:16.656250,35.54,70.0
286870,2018-06-29 11:14:16.687500,45.34,70.0
286871,2018-06-29 11:14:16.718750,46.04,70.0
286872,2018-06-29 11:14:16.750000,42.19,70.0
286873,2018-06-29 11:14:16.781250,38.65,70.0
286874,2018-06-29 11:14:16.812500,38.63,70.0
286875,2018-06-29 11:14:16.843750,41.45,70.0
286876,2018-06-29 11:14:16.875000,44.66,70.0
286877,2018-06-29 11:14:16.906250,46.94,70.0
286878,2018-06-29 11:14:16.937500,47.07,70.0
286879,2018-06-29 11:14:16.968750,43.38,70.0
286880,2018-06-29 11:14:17.000000,36.26,70.0
286881,2018-06-29 11:14:17.031250,28.38,70.0
286882,2018-06-29 11:14:17.062500,21.02,70.0
286883,2018-06-29 11:14:17.093750,13.12,70.0
286884,2018-06-29 11:14:17.125000,4.32,70.0
286885,2018-06-29 11:14:17.156250,-3.97,70.0
286886,2018-06-29 11:14:17.187500,-11.27,70.0
286887,2018-06-29 11:14:17.218750,-19.01,70.0
286888,2018-06-29 11:14:17.250000,-27.84,70.0
286889,2018-06-29 11:14:17.281250,-36.54,70.0
286890,2018-06-29 11:14:17.312500,-44.3,70.0
286891,2018-06-29 11:14:17.343750,-52.19,70.0
286892,2018-06-29 11:14:17.375000,-62.3,70.0
286893,2018-06-29 11:14:17.406250,-75.27,70.0
286894,2018-06-29 11:14:17.437500,-84.9,70.0
286895,2018-06-29 11:14:17.468750,-78.72,70.0
286896,2018-06-29 11:14:17.500000,-51.31,70.0
286897,2018-06-29 11:14:17.531250,-13.55,69.87
286898,2018-06-29 11:14:17.562500,18.09,69.87
286899,2018-06-29 11:14:17.593750,36.62,69.87
286900,2018-06-29 11:14:17.625000,44.02,69.87
286901,2018-06-29 11:14:17.656250,43.83,69.87
286902,2018-06-29 11:14:17.687500,39.87,69.87
286903,2018-06-29 11:14:17.718750,36.78,69.87
286904,2018-06-29 11:14:17.750000,37.12,69.87
286905,2018-06-29 11:14:17.781250,39.47,69.87
286906,2018-06-29 11:14:17.812500,41.7,69.87
286907,2018-06-29 11:14:17.843750,43.79,69.87
286908,2018-06-29 11:14:17.875000,45.02,69.87
286909,2018-06-29 11:14:17.906250,42.37,69.87
286910,2018-06-29 11:14:17.937500,35.09,69.87
286911,2018-06-29 11:14:17.968750,26.68,69.87
286912,2018-06-29 11:14:18.000000,19.83,69.87
286913,2018-06-29 11:14:18.031250,13.5,69.87
286914,2018-06-29 11:14:18.062500,6.26,69.87
286915,2018-06-29 11:14:18.093750,-1.06,69.87
286916,2018-06-29 11:14:18.125000,-7.49,69.87
286917,2018-06-29 11:14:18.156250,-14.33,69.87
286918,2018-06-29 11:14:18.187500,-23.36,69.87
286919,2018-06-29 11:14:18.218750,-33.56,69.87
286920,2018-06-29 11:14:18.250000,-42.12,69.87
286921,2018-06-29 11:14:18.281250,-48.73,69.87
286922,2018-06-29 11:14:18.312500,-56.64,69.87
286923,2018-06-29 11:14:18.343750,-68.48,69.87
286924,2018-06-29 11:14:18.375000,-80.9,69.87
286925,2018-06-29 11:14:18.406250,-83.45,69.87
286926,2018-06-29 11:14:18.437500,-66.48,69.87
286927,2018-06-29 11:14:18.468750,-32.38,69.87
286928,2018-06-29 11:14:18.500000,4.63,69.87
286929,2018-06-29 11:14:18.531250,31.16,69.73
286930,2018-06-29 11:14:18.562500,43.55,69.73
286931,2018-06-29 11:14:18.593750,45.08,69.73
286932,2018-06-29 11:14:18.625000,40.28,69.73
286933,2018-06-29 11:14:18.656250,33.7,69.73
286934,2018-06-29 11:14:18.687500,29.81,69.73
286935,2018-06-29 11:14:18.718750,30.68,69.73
286936,2018-06-29 11:14:18.750000,34.27,69.73
286937,2018-06-29 11:14:18.781250,36.85,69.73
286938,2018-06-29 11:14:18.812500,36.51,69.73
286939,2018-06-29 11:14:18.843750,33.39,69.73
286940,2018-06-29 11:14:18.875000,28.12,69.73
286941,2018-06-29 11:14:18.906250,21.24,69.73
286942,2018-06-29 11:14:18.937500,13.41,69.73
286943,2018-06-29 11:14:18.968750,5.5,69.73
286944,2018-06-29 11:14:19.000000,-1.53,69.73
286945,2018-06-29 11:14:19.031250,-7.22,69.73
286946,2018-06-29 11:14:19.062500,-12.53,69.73
286947,2018-06-29 11:14:19.093750,-19.16,69.73
286948,2018-06-29 11:14:19.125000,-27.04,69.73
286949,2018-06-29 11:14:19.156250,-34.27,69.73
286950,2018-06-29 11:14:19.187500,-40.17,69.73
286951,2018-06-29 11:14:19.218750,-46.51,69.73
286952,2018-06-29 11:14:19.250000,-55.85,69.73
286953,2018-06-29 11:14:19.281250,-67.98,69.73
286954,2018-06-29 11:14:19.312500,-75.22,69.73
286955,2018-06-29 11:14:19.343750,-65.52,69.73
286956,2018-06-29 11:14:19.375000,-36.49,69.73
286957,2018-06-29 11:14:19.406250,-1.14,69.73
286958,2018-06-29 11:14:19.437500,25.58,69.73
286959,2018-06-29 11:14:19.468750,39.4,69.73
286960,2018-06-29 11:14:19.500000,43.04,69.73
286961,2018-06-29 11:14:19.531250,39.32,69.6
286962,2018-06-29 11:14:19.562500,32.1,69.6
286963,2018-06-29 11:14:19.593750,27.24,69.6
286964,2018-06-29 11:14:19.625000,27.87,69.6
286965,2018-06-29 11:14:19.656250,31.28,69.6
286966,2018-06-29 11:14:19.687500,33.45,69.6
286967,2018-06-29 11:14:19.718750,33.84,69.6
286968,2018-06-29 11:14:19.750000,33.13,69.6
286969,2018-06-29 11:14:19.781250,29.83,69.6
286970,2018-06-29 11:14:19.812500,22.48,69.6
286971,2018-06-29 11:14:19.843750,12.49,69.6
286972,2018-06-29 11:14:19.875000,2.8,69.6
286973,2018-06-29 11:14:19.906250,-5.28,69.6
286974,2018-06-29 11:14:19.937500,-13.39,69.6
286975,2018-06-29 11:14:19.968750,-24.13,69.6
286976,2018-06-29 11:14:20.000000,-37.11,69.6
286977,2018-06-29 11:14:20.031250,-48.93,69.6
286978,2018-06-29 11:14:20.062500,-57.81,69.6
286979,2018-06-29 11:14:20.093750,-66.33,69.6
286980,2018-06-29 11:14:20.125000,-79.55,69.6
286981,2018-06-29 11:14:20.156250,-99.15,69.6
286982,2018-06-29 11:14:20.187500,-116.07,69.6
286983,2018-06-29 11:14:20.218750,-114.04,69.6
286984,2018-06-29 11:14:20.250000,-87.59,69.6
286985,2018-06-29 11:14:20.281250,-50.88,69.6
286986,2018-06-29 11:14:20.312500,-21.75,69.6
286987,2018-06-29 11:14:20.343750,-2.9,69.6
286988,2018-06-29 11:14:20.375000,15.31,69.6
286989,2018-06-29 11:14:20.406250,39.81,69.6
286990,2018-06-29 11:14:20.437500,69.48,69.6
286991,2018-06-29 11:14:20.468750,99.87,69.6
286992,2018-06-29 11:14:20.500000,126.59,69.6
286993,2018-06-29 11:14:20.531250,145.92,69.5
286994,2018-06-29 11:14:20.562500,157.05,69.5
286995,2018-06-29 11:14:20.593750,162.46,69.5
286996,2018-06-29 11:14:20.625000,163.51,69.5
286997,2018-06-29 11:14:20.656250,157.39,69.5
286998,2018-06-29 11:14:20.687500,140.68,69.5
286999,2018-06-29 11:14:20.718750,115.96,69.5
287000,2018-06-29 11:14:20.750000,92.65,69.5
287001,2018-06-29 11:14:20.781250,77.7,69.5
287002,2018-06-29 11:14:20.812500,67.86,69.5
287003,2018-06-29 11:14:20.843750,55.12,69.5
287004,2018-06-29 11:14:20.875000,36.97,69.5
287005,2018-06-29 11:14:20.906250,16.13,69.5
287006,2018-06-29 11:14:20.937500,-5.62,69.5
287007,2018-06-29 11:14:20.968750,-27.72,69.5
287008,2018-06-29 11:14:21.000000,-47.92,69.5
287009,2018-06-29 11:14:21.031250,-63.57,69.5
287010,2018-06-29 11:14:21.062500,-72.57,69.5
287011,2018-06-29 11:14:21.093750,-72.45,69.5
287012,2018-06-29 11:14:21.125000,-63.65,69.5
287013,2018-06-29 11:14:21.156250,-52.2,69.5
287014,2018-06-29 11:14:21.187500,-45.7,69.5
287015,2018-06-29 11:14:21.218750,-46.74,69.5
287016,2018-06-29 11:14:21.250000,-48.19,69.5
287017,2018-06-29 11:14:21.281250,-35.58,69.5
287018,2018-06-29 11:14:21.312500,0.58,69.5
287019,2018-06-29 11:14:21.343750,55.79,69.5
287020,2018-06-29 11:14:21.375000,113.18,69.5
287021,2018-06-29 11:14:21.406250,144.56,69.5
287022,2018-06-29 11:14:21.437500,122.18,69.5
287023,2018-06-29 11:14:21.468750,45.17,69.5
287024,2018-06-29 11:14:21.500000,-61.43,69.5
287025,2018-06-29 11:14:21.531250,-174.44,69.35
287026,2018-06-29 11:14:21.562500,-271.51,69.35
287027,2018-06-29 11:14:21.593750,-319.58,69.35
287028,2018-06-29 11:14:21.625000,-304.61,69.35
287029,2018-06-29 11:14:21.656250,-254.22,69.35
287030,2018-06-29 11:14:21.687500,-203.35,69.35
287031,2018-06-29 11:14:21.718750,-161.68,69.35
287032,2018-06-29 11:14:21.750000,-125.26,69.35
287033,2018-06-29 11:14:21.781250,-93.09,69.35
287034,2018-06-29 11:14:21.812500,-65.89,69.35
287035,2018-06-29 11:14:21.843750,-45.23,69.35
287036,2018-06-29 11:14:21.875000,-33.82,69.35
287037,2018-06-29 11:14:21.906250,-29.11,69.35
287038,2018-06-29 11:14:21.937500,-20.3,69.35
287039,2018-06-29 11:14:21.968750,1.41,69.35
287040,2018-06-29 11:14:22.000000,31.95,69.35
287041,2018-06-29 11:14:22.031250,59.02,69.35
287042,2018-06-29 11:14:22.062500,75.28,69.35
287043,2018-06-29 11:14:22.093750,81.57,69.35
287044,2018-06-29 11:14:22.125000,81.14,69.35
287045,2018-06-29 11:14:22.156250,76.93,69.35
287046,2018-06-29 11:14:22.187500,72.69,69.35
287047,2018-06-29 11:14:22.218750,71.46,69.35
287048,2018-06-29 11:14:22.250000,73.03,69.35
287049,2018-06-29 11:14:22.281250,75.16,69.35
287050,2018-06-29 11:14:22.312500,75.83,69.35
287051,2018-06-29 11:14:22.343750,73.4,69.35
287052,2018-06-29 11:14:22.375000,66.61,69.35
287053,2018-06-29 11:14:22.406250,56.63,69.35
287054,2018-06-29 11:14:22.437500,47.06,69.35
287055,2018-06-29 11:14:22.468750,39.95,69.35
287056,2018-06-29 11:14:22.500000,33.09,69.35
287057,2018-06-29 11:14:22.531250,24.19,69.22
287058,2018-06-29 11:14:22.562500,16.13,69.22
287059,2018-06-29 11:14:22.593750,13.76,69.22
287060,2018-06-29 11:14:22.625000,16.48,69.22
287061,2018-06-29 11:14:22.656250,17.85,69.22
287062,2018-06-29 11:14:22.687500,13.96,69.22
287063,2018-06-29 11:14:22.718750,12.06,69.22
287064,2018-06-29 11:14:22.750000,27.23,69.22
287065,2018-06-29 11:14:22.781250,65.38,69.22
287066,2018-06-29 11:14:22.812500,113.53,69.22
287067,2018-06-29 11:14:22.843750,154.39,69.22
287068,2018-06-29 11:14:22.875000,185.37,69.22
287069,2018-06-29 11:14:22.906250,212.4,69.22
287070,2018-06-29 11:14:22.937500,229.35,69.22
287071,2018-06-29 11:14:22.968750,219.53,69.22
287072,2018-06-29 11:14:23.000000,180.91,69.22
287073,2018-06-29 11:14:23.031250,131.22,69.22
287074,2018-06-29 11:14:23.062500,80.76,69.22
287075,2018-06-29 11:14:23.093750,20.21,69.22
287076,2018-06-29 11:14:23.125000,-60.4,69.22
287077,2018-06-29 11:14:23.156250,-157.04,69.22
287078,2018-06-29 11:14:23.187500,-245.25,69.22
287079,2018-06-29 11:14:23.218750,-282.75,69.22
287080,2018-06-29 11:14:23.250000,-246.81,69.22
287081,2018-06-29 11:14:23.281250,-167.29,69.22
287082,2018-06-29 11:14:23.312500,-93.06,69.22
287083,2018-06-29 11:14:23.343750,-41.63,69.22
287084,2018-06-29 11:14:23.375000,-5.75,69.22
287085,2018-06-29 11:14:23.406250,18.33,69.22
287086,2018-06-29 11:14:23.437500,31.44,69.22
287087,2018-06-29 11:14:23.468750,39.29,69.22
287088,2018-06-29 11:14:23.500000,46.61,69.22
287089,2018-06-29 11:14:23.531250,52.86,69.12
287090,2018-06-29 11:14:23.562500,54.02,69.12
287091,2018-06-29 11:14:23.593750,38.95,69.12
287092,2018-06-29 11:14:23.625000,-7.66,69.12
287093,2018-06-29 11:14:23.656250,-78.98,69.12
287094,2018-06-29 11:14:23.687500,-134.51,69.12
287095,2018-06-29 11:14:23.718750,-141.21,69.12
287096,2018-06-29 11:14:23.750000,-111.82,69.12
287097,2018-06-29 11:14:23.781250,-81.79,69.12
287098,2018-06-29 11:14:23.812500,-69.73,69.12
287099,2018-06-29 11:14:23.843750,-73.99,69.12
287100,2018-06-29 11:14:23.875000,-85.32,69.12
287101,2018-06-29 11:14:23.906250,-93.89,69.12
287102,2018-06-29 11:14:23.937500,-95.37,69.12
287103,2018-06-29 11:14:23.968750,-92.36,69.12
287104,2018-06-29 11:14:24.000000,-89.56,69.12
287105,2018-06-29 11:14:24.031250,-90.86,69.12
287106,2018-06-29 11:14:24.062500,-95.81,69.12
287107,2018-06-29 11:14:24.093750,-98.58,69.12
287108,2018-06-29 11:14:24.125000,-95.42,69.12
287109,2018-06-29 11:14:24.156250,-88.96,69.12
287110,2018-06-29 11:14:24.187500,-83.62,69.12
287111,2018-06-29 11:14:24.218750,-83.45,69.12
287112,2018-06-29 11:14:24.250000,-90.22,69.12
287113,2018-06-29 11:14:24.281250,-98.27,69.12
287114,2018-06-29 11:14:24.312500,-96.52,69.12
287115,2018-06-29 11:14:24.343750,-79.2,69.12
287116,2018-06-29 11:14:24.375000,-51.49,69.12
287117,2018-06-29 11:14:24.406250,-26.04,69.12
287118,2018-06-29 11:14:24.437500,-16.02,69.12
287119,2018-06-29 11:14:24.468750,-26.65,69.12
287120,2018-06-29 11:14:24.500000,-47.6,69.12
287121,2018-06-29 11:14:24.531250,-55.36,69.05
287122,2018-06-29 11:14:24.562500,-32.58,69.05
287123,2018-06-29 11:14:24.593750,12.9,69.05
287124,2018-06-29 11:14:24.625000,56.79,69.05
287125,2018-06-29 11:14:24.656250,85.66,69.05
287126,2018-06-29 11:14:24.687500,103.97,69.05
287127,2018-06-29 11:14:24.718750,117.25,69.05
287128,2018-06-29 11:14:24.750000,123.81,69.05
287129,2018-06-29 11:14:24.781250,123.6,69.05
287130,2018-06-29 11:14:24.812500,122.52,69.05
287131,2018-06-29 11:14:24.843750,124.57,69.05
287132,2018-06-29 11:14:24.875000,127.13,69.05
287133,2018-06-29 11:14:24.906250,126.67,69.05
287134,2018-06-29 11:14:24.937500,123.63,69.05
287135,2018-06-29 11:14:24.968750,119.44,69.05
287136,2018-06-29 11:14:25.000000,112.89,69.05
287137,2018-06-29 11:14:25.031250,102.32,69.05
287138,2018-06-29 11:14:25.062500,89.59,69.05
287139,2018-06-29 11:14:25.093750,78.76,69.05
287140,2018-06-29 11:14:25.125000,70.53,69.05
287141,2018-06-29 11:14:25.156250,61.68,69.05
287142,2018-06-29 11:14:25.187500,50.79,69.05
287143,2018-06-29 11:14:25.218750,39.79,69.05
287144,2018-06-29 11:14:25.250000,28.96,69.05
287145,2018-06-29 11:14:25.281250,15.06,69.05
287146,2018-06-29 11:14:25.312500,-4.7,69.05
287147,2018-06-29 11:14:25.343750,-29.89,69.05
287148,2018-06-29 11:14:25.375000,-54.25,69.05
287149,2018-06-29 11:14:25.406250,-64.64,69.05
287150,2018-06-29 11:14:25.437500,-50.77,69.05
287151,2018-06-29 11:14:25.468750,-18.17,69.05
287152,2018-06-29 11:14:25.500000,15.64,69.05
287153,2018-06-29 11:14:25.531250,37.53,69.02
287154,2018-06-29 11:14:25.562500,45.13,69.02
287155,2018-06-29 11:14:25.593750,41.17,69.02
287156,2018-06-29 11:14:25.625000,29.59,69.02
287157,2018-06-29 11:14:25.656250,16.05,69.02
287158,2018-06-29 11:14:25.687500,6.29,69.02
287159,2018-06-29 11:14:25.718750,2.34,69.02
287160,2018-06-29 11:14:25.750000,2.03,69.02
287161,2018-06-29 11:14:25.781250,2.92,69.02
287162,2018-06-29 11:14:25.812500,4.01,69.02
287163,2018-06-29 11:14:25.843750,3.94,69.02
287164,2018-06-29 11:14:25.875000,0.65,69.02
287165,2018-06-29 11:14:25.906250,-6.95,69.02
287166,2018-06-29 11:14:25.937500,-17.93,69.02
287167,2018-06-29 11:14:25.968750,-29.63,69.02
287168,2018-06-29 11:14:26.000000,-39.63,69.02
287169,2018-06-29 11:14:26.031250,-48.61,69.02
287170,2018-06-29 11:14:26.062500,-59.33,69.02
287171,2018-06-29 11:14:26.093750,-71.56,69.02
287172,2018-06-29 11:14:26.125000,-81.61,69.02
287173,2018-06-29 11:14:26.156250,-88.06,69.02
287174,2018-06-29 11:14:26.187500,-94.39,69.02
287175,2018-06-29 11:14:26.218750,-105.22,69.02
287176,2018-06-29 11:14:26.250000,-120.56,69.02
287177,2018-06-29 11:14:26.281250,-129.7,69.02
287178,2018-06-29 11:14:26.312500,-114.26,69.02
287179,2018-06-29 11:14:26.343750,-67.39,69.02
287180,2018-06-29 11:14:26.375000,-6.01,69.02
287181,2018-06-29 11:14:26.406250,45.94,69.02
287182,2018-06-29 11:14:26.437500,79.1,69.02
287183,2018-06-29 11:14:26.468750,96.3,69.02
287184,2018-06-29 11:14:26.500000,101.26,69.02
287185,2018-06-29 11:14:26.531250,98.89,68.97
287186,2018-06-29 11:14:26.562500,96.17,68.97
287187,2018-06-29 11:14:26.593750,96.15,68.97
287188,2018-06-29 11:14:26.625000,96.74,68.97
287189,2018-06-29 11:14:26.656250,97.11,68.97
287190,2018-06-29 11:14:26.687500,99.19,68.97
287191,2018-06-29 11:14:26.718750,102.2,68.97
287192,2018-06-29 11:14:26.750000,101.25,68.97
287193,2018-06-29 11:14:26.781250,93.1,68.97
287194,2018-06-29 11:14:26.812500,80.06,68.97
287195,2018-06-29 11:14:26.843750,66.69,68.97
287196,2018-06-29 11:14:26.875000,54.41,68.97
287197,2018-06-29 11:14:26.906250,41.07,68.97
287198,2018-06-29 11:14:26.937500,26.39,68.97
287199,2018-06-29 11:14:26.968750,14.0,68.97
287200,2018-06-29 11:14:27.000000,5.84,68.97
287201,2018-06-29 11:14:27.031250,-1.96,68.97
287202,2018-06-29 11:14:27.062500,-14.36,68.97
287203,2018-06-29 11:14:27.093750,-30.66,68.97
287204,2018-06-29 11:14:27.125000,-44.96,68.97
287205,2018-06-29 11:14:27.156250,-53.24,68.97
287206,2018-06-29 11:14:27.187500,-58.19,68.97
287207,2018-06-29 11:14:27.218750,-66.12,68.97
287208,2018-06-29 11:14:27.250000,-77.82,68.97
287209,2018-06-29 11:14:27.281250,-82.17,68.97
287210,2018-06-29 11:14:27.312500,-63.88,68.97
287211,2018-06-29 11:14:27.343750,-21.27,68.97
287212,2018-06-29 11:14:27.375000,28.76,68.97
287213,2018-06-29 11:14:27.406250,66.31,68.97
287214,2018-06-29 11:14:27.437500,83.44,68.97
287215,2018-06-29 11:14:27.468750,82.96,68.97
287216,2018-06-29 11:14:27.500000,71.58,68.97
287217,2018-06-29 11:14:27.531250,57.25,68.92
287218,2018-06-29 11:14:27.562500,47.36,68.92
287219,2018-06-29 11:14:27.593750,45.19,68.92
287220,2018-06-29 11:14:27.625000,48.19,68.92
287221,2018-06-29 11:14:27.656250,51.29,68.92
287222,2018-06-29 11:14:27.687500,51.09,68.92
287223,2018-06-29 11:14:27.718750,46.24,68.92
287224,2018-06-29 11:14:27.750000,36.35,68.92
287225,2018-06-29 11:14:27.781250,22.69,68.92
287226,2018-06-29 11:14:27.812500,7.41,68.92
287227,2018-06-29 11:14:27.843750,-9.23,68.92
287228,2018-06-29 11:14:27.875000,-28.46,68.92
287229,2018-06-29 11:14:27.906250,-48.49,68.92
287230,2018-06-29 11:14:27.937500,-62.95,68.92
287231,2018-06-29 11:14:27.968750,-68.19,68.92
287232,2018-06-29 11:14:28.000000,-69.06,68.92
287233,2018-06-29 11:14:28.031250,-72.01,68.92
287234,2018-06-29 11:14:28.062500,-76.34,68.92
287235,2018-06-29 11:14:28.093750,-78.58,68.92
287236,2018-06-29 11:14:28.125000,-79.99,68.92
287237,2018-06-29 11:14:28.156250,-83.65,68.92
287238,2018-06-29 11:14:28.187500,-87.06,68.92
287239,2018-06-29 11:14:28.218750,-80.34,68.92
287240,2018-06-29 11:14:28.250000,-54.35,68.92
287241,2018-06-29 11:14:28.281250,-12.55,68.92
287242,2018-06-29 11:14:28.312500,29.66,68.92
287243,2018-06-29 11:14:28.343750,59.64,68.92
287244,2018-06-29 11:14:28.375000,75.7,68.92
287245,2018-06-29 11:14:28.406250,81.09,68.92
287246,2018-06-29 11:14:28.437500,78.42,68.92
287247,2018-06-29 11:14:28.468750,71.2,68.92
287248,2018-06-29 11:14:28.500000,63.84,68.92
287249,2018-06-29 11:14:28.531250,58.62,68.85
287250,2018-06-29 11:14:28.562500,54.49,68.85
287251,2018-06-29 11:14:28.593750,49.38,68.85
287252,2018-06-29 11:14:28.625000,42.07,68.85
287253,2018-06-29 11:14:28.656250,31.99,68.85
287254,2018-06-29 11:14:28.687500,18.51,68.85
287255,2018-06-29 11:14:28.718750,1.72,68.85
287256,2018-06-29 11:14:28.750000,-16.2,68.85
287257,2018-06-29 11:14:28.781250,-31.69,68.85
287258,2018-06-29 11:14:28.812500,-42.78,68.85
287259,2018-06-29 11:14:28.843750,-51.39,68.85
287260,2018-06-29 11:14:28.875000,-60.77,68.85
287261,2018-06-29 11:14:28.906250,-70.51,68.85
287262,2018-06-29 11:14:28.937500,-77.3,68.85
287263,2018-06-29 11:14:28.968750,-80.43,68.85
287264,2018-06-29 11:14:29.000000,-83.2,68.85
287265,2018-06-29 11:14:29.031250,-88.9,68.85
287266,2018-06-29 11:14:29.062500,-96.7,68.85
287267,2018-06-29 11:14:29.093750,-98.62,68.85
287268,2018-06-29 11:14:29.125000,-83.23,68.85
287269,2018-06-29 11:14:29.156250,-48.93,68.85
287270,2018-06-29 11:14:29.187500,-8.92,68.85
287271,2018-06-29 11:14:29.218750,22.53,68.85
287272,2018-06-29 11:14:29.250000,41.73,68.85
287273,2018-06-29 11:14:29.281250,50.52,68.85
287274,2018-06-29 11:14:29.312500,50.38,68.85
287275,2018-06-29 11:14:29.343750,45.09,68.85
287276,2018-06-29 11:14:29.375000,40.47,68.85
287277,2018-06-29 11:14:29.406250,38.88,68.85
287278,2018-06-29 11:14:29.437500,38.32,68.85
287279,2018-06-29 11:14:29.468750,37.47,68.85
287280,2018-06-29 11:14:29.500000,37.3,68.85
287281,2018-06-29 11:14:29.531250,36.89,68.77
287282,2018-06-29 11:14:29.562500,32.56,68.77
287283,2018-06-29 11:14:29.593750,23.03,68.77
287284,2018-06-29 11:14:29.625000,11.99,68.77
287285,2018-06-29 11:14:29.656250,3.01,68.77
287286,2018-06-29 11:14:29.687500,-5.19,68.77
287287,2018-06-29 11:14:29.718750,-15.75,68.77
287288,2018-06-29 11:14:29.750000,-27.86,68.77
287289,2018-06-29 11:14:29.781250,-37.64,68.77
287290,2018-06-29 11:14:29.812500,-44.06,68.77
287291,2018-06-29 11:14:29.843750,-50.3,68.77
287292,2018-06-29 11:14:29.875000,-60.03,68.77
287293,2018-06-29 11:14:29.906250,-72.89,68.77
287294,2018-06-29 11:14:29.937500,-80.49,68.77
287295,2018-06-29 11:14:29.968750,-70.35,68.77
287296,2018-06-29 11:14:30.000000,-40.28,68.77
287297,2018-06-29 11:14:30.031250,-3.97,68.77
287298,2018-06-29 11:14:30.062500,23.58,68.77
287299,2018-06-29 11:14:30.093750,39.01,68.77
287300,2018-06-29 11:14:30.125000,45.38,68.77
287301,2018-06-29 11:14:30.156250,44.7,68.77
287302,2018-06-29 11:14:30.187500,39.88,68.77
287303,2018-06-29 11:14:30.218750,35.57,68.77
287304,2018-06-29 11:14:30.250000,33.53,68.77
287305,2018-06-29 11:14:30.281250,31.7,68.77
287306,2018-06-29 11:14:30.312500,29.23,68.77
287307,2018-06-29 11:14:30.343750,27.61,68.77
287308,2018-06-29 11:14:30.375000,26.0,68.77
287309,2018-06-29 11:14:30.406250,20.77,68.77
287310,2018-06-29 11:14:30.437500,11.41,68.77
287311,2018-06-29 11:14:30.468750,2.2,68.77
287312,2018-06-29 11:14:30.500000,-4.05,68.77
287313,2018-06-29 11:14:30.531250,-9.52,68.65
287314,2018-06-29 11:14:30.562500,-16.92,68.65
287315,2018-06-29 11:14:30.593750,-25.35,68.65
287316,2018-06-29 11:14:30.625000,-32.34,68.65
287317,2018-06-29 11:14:30.656250,-37.69,68.65
287318,2018-06-29 11:14:30.687500,-44.1,68.65
287319,2018-06-29 11:14:30.718750,-54.02,68.65
287320,2018-06-29 11:14:30.750000,-63.85,68.65
287321,2018-06-29 11:14:30.781250,-62.75,68.65
287322,2018-06-29 11:14:30.812500,-43.54,68.65
287323,2018-06-29 11:14:30.843750,-13.11,68.65
287324,2018-06-29 11:14:30.875000,14.32,68.65
287325,2018-06-29 11:14:30.906250,31.36,68.65
287326,2018-06-29 11:14:30.937500,38.61,68.65
287327,2018-06-29 11:14:30.968750,37.6,68.65
287328,2018-06-29 11:14:31.000000,30.58,68.65
287329,2018-06-29 11:14:31.031250,22.98,68.65
287330,2018-06-29 11:14:31.062500,19.89,68.65
287331,2018-06-29 11:14:31.093750,21.76,68.65
287332,2018-06-29 11:14:31.125000,25.5,68.65
287333,2018-06-29 11:14:31.156250,27.82,68.65
287334,2018-06-29 11:14:31.187500,26.73,68.65
287335,2018-06-29 11:14:31.218750,22.25,68.65
287336,2018-06-29 11:14:31.250000,15.5,68.65
287337,2018-06-29 11:14:31.281250,6.61,68.65
287338,2018-06-29 11:14:31.312500,-4.6,68.65
287339,2018-06-29 11:14:31.343750,-16.33,68.65
287340,2018-06-29 11:14:31.375000,-26.09,68.65
287341,2018-06-29 11:14:31.406250,-34.13,68.65
287342,2018-06-29 11:14:31.437500,-42.84,68.65
287343,2018-06-29 11:14:31.468750,-54.06,68.65
287344,2018-06-29 11:14:31.500000,-66.36,68.65
287345,2018-06-29 11:14:31.531250,-71.79,68.53
287346,2018-06-29 11:14:31.562500,-59.58,68.53
287347,2018-06-29 11:14:31.593750,-28.94,68.53
287348,2018-06-29 11:14:31.625000,7.19,68.53
287349,2018-06-29 11:14:31.656250,34.85,68.53
287350,2018-06-29 11:14:31.687500,49.31,68.53
287351,2018-06-29 11:14:31.718750,52.54,68.53
287352,2018-06-29 11:14:31.750000,48.05,68.53
287353,2018-06-29 11:14:31.781250,40.15,68.53
287354,2018-06-29 11:14:31.812500,33.35,68.53
287355,2018-06-29 11:14:31.843750,30.46,68.53
287356,2018-06-29 11:14:31.875000,30.89,68.53
287357,2018-06-29 11:14:31.906250,31.63,68.53
287358,2018-06-29 11:14:31.937500,30.01,68.53
287359,2018-06-29 11:14:31.968750,24.97,68.53
287360,2018-06-29 11:14:32.000000,16.67,68.53
287361,2018-06-29 11:14:32.031250,6.28,68.53
287362,2018-06-29 11:14:32.062500,-5.07,68.53
287363,2018-06-29 11:14:32.093750,-17.56,68.53
287364,2018-06-29 11:14:32.125000,-31.26,68.53
287365,2018-06-29 11:14:32.156250,-44.37,68.53
287366,2018-06-29 11:14:32.187500,-54.65,68.53
287367,2018-06-29 11:14:32.218750,-62.74,68.53
287368,2018-06-29 11:14:32.250000,-72.58,68.53
287369,2018-06-29 11:14:32.281250,-85.84,68.53
287370,2018-06-29 11:14:32.312500,-93.81,68.53
287371,2018-06-29 11:14:32.343750,-81.35,68.53
287372,2018-06-29 11:14:32.375000,-44.86,68.53
287373,2018-06-29 11:14:32.406250,0.83,68.53
287374,2018-06-29 11:14:32.437500,38.22,68.53
287375,2018-06-29 11:14:32.468750,60.36,68.53
287376,2018-06-29 11:14:32.500000,67.77,68.53
287377,2018-06-29 11:14:32.531250,64.4,68.45
287378,2018-06-29 11:14:32.562500,57.35,68.45
287379,2018-06-29 11:14:32.593750,52.37,68.45
287380,2018-06-29 11:14:32.625000,50.12,68.45
287381,2018-06-29 11:14:32.656250,48.89,68.45
287382,2018-06-29 11:14:32.687500,47.88,68.45
287383,2018-06-29 11:14:32.718750,46.1,68.45
287384,2018-06-29 11:14:32.750000,41.5,68.45
287385,2018-06-29 11:14:32.781250,32.89,68.45
287386,2018-06-29 11:14:32.812500,21.57,68.45
287387,2018-06-29 11:14:32.843750,9.59,68.45
287388,2018-06-29 11:14:32.875000,-2.9,68.45
287389,2018-06-29 11:14:32.906250,-16.5,68.45
287390,2018-06-29 11:14:32.937500,-30.04,68.45
287391,2018-06-29 11:14:32.968750,-41.3,68.45
287392,2018-06-29 11:14:33.000000,-50.15,68.45
287393,2018-06-29 11:14:33.031250,-59.65,68.45
287394,2018-06-29 11:14:33.062500,-72.94,68.45
287395,2018-06-29 11:14:33.093750,-86.27,68.45
287396,2018-06-29 11:14:33.125000,-85.74,68.45
287397,2018-06-29 11:14:33.156250,-59.5,68.45
287398,2018-06-29 11:14:33.187500,-14.18,68.45
287399,2018-06-29 11:14:33.218750,29.92,68.45
