,Time,ppg,hr
28800,2018-06-29 08:59:52.000000,7.77,80.7
28801,2018-06-29 08:59:52.031250,-12.99,80.7
28802,2018-06-29 08:59:52.062500,-26.91,80.7
28803,2018-06-29 08:59:52.093750,-44.94,80.7
28804,2018-06-29 08:59:52.125000,-65.71,80.7
28805,2018-06-29 08:59:52.156250,-81.08,80.7
28806,2018-06-29 08:59:52.187500,-89.36,80.7
28807,2018-06-29 08:59:52.218750,-94.84,80.7
28808,2018-06-29 08:59:52.250000,-98.52,80.7
28809,2018-06-29 08:59:52.281250,-96.98,80.7
28810,2018-06-29 08:59:52.312500,-89.72,80.7
28811,2018-06-29 08:59:52.343750,-81.05,80.7
28812,2018-06-29 08:59:52.375000,-72.71,80.7
28813,2018-06-29 08:59:52.406250,-61.12,80.7
28814,2018-06-29 08:59:52.437500,-43.83,80.7
28815,2018-06-29 08:59:52.468750,-21.91,80.7
28816,2018-06-29 08:59:52.500000,1.66,80.7
28817,2018-06-29 08:59:52.531250,19.22,80.7
28818,2018-06-29 08:59:52.562500,23.7,80.7
28819,2018-06-29 08:59:52.593750,20.29,80.7
28820,2018-06-29 08:59:52.625000,19.83,80.7
28821,2018-06-29 08:59:52.656250,22.31,80.7
28822,2018-06-29 08:59:52.687500,20.84,80.7
28823,2018-06-29 08:59:52.718750,14.54,80.7
28824,2018-06-29 08:59:52.750000,6.52,80.7
28825,2018-06-29 08:59:52.781250,-1.33,80.7
28826,2018-06-29 08:59:52.812500,-6.19,80.7
28827,2018-06-29 08:59:52.843750,-6.4,80.7
28828,2018-06-29 08:59:52.875000,-5.15,80.7
28829,2018-06-29 08:59:52.906250,-5.18,80.7
28830,2018-06-29 08:59:52.937500,-3.95,80.7
28831,2018-06-29 08:59:52.968750,1.27,80.7
28832,2018-06-29 08:59:53.000000,8.72,80.7
28833,2018-06-29 08:59:53.031250,15.87,80.7
28834,2018-06-29 08:59:53.062500,25.54,80.7
28835,2018-06-29 08:59:53.093750,47.69,80.7
28836,2018-06-29 08:59:53.125000,89.68,80.7
28837,2018-06-29 08:59:53.156250,138.8,80.7
28838,2018-06-29 08:59:53.187500,165.08,80.7
28839,2018-06-29 08:59:53.218750,151.48,80.7
28840,2018-06-29 08:59:53.250000,111.95,80.7
28841,2018-06-29 08:59:53.281250,73.0,80.7
28842,2018-06-29 08:59:53.312500,47.83,80.7
28843,2018-06-29 08:59:53.343750,32.4,80.7
28844,2018-06-29 08:59:53.375000,16.85,80.7
28845,2018-06-29 08:59:53.406250,-4.49,80.7
28846,2018-06-29 08:59:53.437500,-30.65,80.7
28847,2018-06-29 08:59:53.468750,-56.08,80.7
28848,2018-06-29 08:59:53.500000,-73.88,80.7
28849,2018-06-29 08:59:53.531250,-80.65,80.72
28850,2018-06-29 08:59:53.562500,-79.31,80.72
28851,2018-06-29 08:59:53.593750,-75.04,80.72
28852,2018-06-29 08:59:53.625000,-69.65,80.72
28853,2018-06-29 08:59:53.656250,-62.51,80.72
28854,2018-06-29 08:59:53.687500,-55.11,80.72
28855,2018-06-29 08:59:53.718750,-51.2,80.72
28856,2018-06-29 08:59:53.750000,-52.47,80.72
28857,2018-06-29 08:59:53.781250,-56.44,80.72
28858,2018-06-29 08:59:53.812500,-60.04,80.72
28859,2018-06-29 08:59:53.843750,-63.1,80.72
28860,2018-06-29 08:59:53.875000,-67.21,80.72
28861,2018-06-29 08:59:53.906250,-72.53,80.72
28862,2018-06-29 08:59:53.937500,-76.27,80.72
28863,2018-06-29 08:59:53.968750,-73.95,80.72
28864,2018-06-29 08:59:54.000000,-63.49,80.72
28865,2018-06-29 08:59:54.031250,-48.01,80.72
28866,2018-06-29 08:59:54.062500,-33.32,80.72
28867,2018-06-29 08:59:54.093750,-22.92,80.72
28868,2018-06-29 08:59:54.125000,-16.21,80.72
28869,2018-06-29 08:59:54.156250,-10.62,80.72
28870,2018-06-29 08:59:54.187500,-4.51,80.72
28871,2018-06-29 08:59:54.218750,1.59,80.72
28872,2018-06-29 08:59:54.250000,6.26,80.72
28873,2018-06-29 08:59:54.281250,8.8,80.72
28874,2018-06-29 08:59:54.312500,9.93,80.72
28875,2018-06-29 08:59:54.343750,11.31,80.72
28876,2018-06-29 08:59:54.375000,13.75,80.72
28877,2018-06-29 08:59:54.406250,16.15,80.72
28878,2018-06-29 08:59:54.437500,17.05,80.72
28879,2018-06-29 08:59:54.468750,16.92,80.72
28880,2018-06-29 08:59:54.500000,18.15,80.72
28881,2018-06-29 08:59:54.531250,22.26,80.73
28882,2018-06-29 08:59:54.562500,27.99,80.73
28883,2018-06-29 08:59:54.593750,33.42,80.73
28884,2018-06-29 08:59:54.625000,38.6,80.73
28885,2018-06-29 08:59:54.656250,43.97,80.73
28886,2018-06-29 08:59:54.687500,48.0,80.73
28887,2018-06-29 08:59:54.718750,47.51,80.73
28888,2018-06-29 08:59:54.750000,39.25,80.73
28889,2018-06-29 08:59:54.781250,24.24,80.73
28890,2018-06-29 08:59:54.812500,10.39,80.73
28891,2018-06-29 08:59:54.843750,4.28,80.73
28892,2018-06-29 08:59:54.875000,2.84,80.73
28893,2018-06-29 08:59:54.906250,0.33,80.73
28894,2018-06-29 08:59:54.937500,-2.53,80.73
28895,2018-06-29 08:59:54.968750,-3.49,80.73
28896,2018-06-29 08:59:55.000000,-4.54,80.73
28897,2018-06-29 08:59:55.031250,-6.16,80.73
28898,2018-06-29 08:59:55.062500,-3.38,80.73
28899,2018-06-29 08:59:55.093750,7.26,80.73
28900,2018-06-29 08:59:55.125000,21.4,80.73
28901,2018-06-29 08:59:55.156250,31.99,80.73
28902,2018-06-29 08:59:55.187500,40.06,80.73
28903,2018-06-29 08:59:55.218750,57.1,80.73
28904,2018-06-29 08:59:55.250000,93.65,80.73
28905,2018-06-29 08:59:55.281250,142.07,80.73
28906,2018-06-29 08:59:55.312500,173.37,80.73
28907,2018-06-29 08:59:55.343750,160.3,80.73
28908,2018-06-29 08:59:55.375000,106.57,80.73
28909,2018-06-29 08:59:55.406250,44.86,80.73
28910,2018-06-29 08:59:55.437500,2.2,80.73
28911,2018-06-29 08:59:55.468750,-23.26,80.73
28912,2018-06-29 08:59:55.500000,-47.8,80.73
28913,2018-06-29 08:59:55.531250,-77.81,80.75
28914,2018-06-29 08:59:55.562500,-107.85,80.75
28915,2018-06-29 08:59:55.593750,-131.27,80.75
28916,2018-06-29 08:59:55.625000,-143.01,80.75
28917,2018-06-29 08:59:55.656250,-139.8,80.75
28918,2018-06-29 08:59:55.687500,-123.84,80.75
28919,2018-06-29 08:59:55.718750,-101.08,80.75
28920,2018-06-29 08:59:55.750000,-74.98,80.75
28921,2018-06-29 08:59:55.781250,-46.7,80.75
28922,2018-06-29 08:59:55.812500,-18.71,80.75
28923,2018-06-29 08:59:55.843750,7.63,80.75
28924,2018-06-29 08:59:55.875000,39.07,80.75
28925,2018-06-29 08:59:55.906250,89.61,80.75
28926,2018-06-29 08:59:55.937500,161.95,80.75
28927,2018-06-29 08:59:55.968750,229.55,80.75
28928,2018-06-29 08:59:56.000000,252.99,80.75
28929,2018-06-29 08:59:56.031250,221.78,80.75
28930,2018-06-29 08:59:56.062500,166.64,80.75
28931,2018-06-29 08:59:56.093750,124.6,80.75
28932,2018-06-29 08:59:56.125000,102.6,80.75
28933,2018-06-29 08:59:56.156250,79.2,80.75
28934,2018-06-29 08:59:56.187500,33.74,80.75
28935,2018-06-29 08:59:56.218750,-32.44,80.75
28936,2018-06-29 08:59:56.250000,-100.68,80.75
28937,2018-06-29 08:59:56.281250,-153.37,80.75
28938,2018-06-29 08:59:56.312500,-182.79,80.75
28939,2018-06-29 08:59:56.343750,-188.95,80.75
28940,2018-06-29 08:59:56.375000,-176.91,80.75
28941,2018-06-29 08:59:56.406250,-154.76,80.75
28942,2018-06-29 08:59:56.437500,-129.02,80.75
28943,2018-06-29 08:59:56.468750,-103.27,80.75
28944,2018-06-29 08:59:56.500000,-81.09,80.75
28945,2018-06-29 08:59:56.531250,-64.72,80.8
28946,2018-06-29 08:59:56.562500,-51.32,80.8
28947,2018-06-29 08:59:56.593750,-36.08,80.8
28948,2018-06-29 08:59:56.625000,-20.76,80.8
28949,2018-06-29 08:59:56.656250,-12.61,80.8
28950,2018-06-29 08:59:56.687500,-16.21,80.8
28951,2018-06-29 08:59:56.718750,-27.73,80.8
28952,2018-06-29 08:59:56.750000,-39.59,80.8
28953,2018-06-29 08:59:56.781250,-47.57,80.8
28954,2018-06-29 08:59:56.812500,-50.97,80.8
28955,2018-06-29 08:59:56.843750,-51.74,80.8
28956,2018-06-29 08:59:56.875000,-50.05,80.8
28957,2018-06-29 08:59:56.906250,-46.61,80.8
28958,2018-06-29 08:59:56.937500,-40.44,80.8
28959,2018-06-29 08:59:56.968750,-32.59,80.8
28960,2018-06-29 08:59:57.000000,-23.59,80.8
28961,2018-06-29 08:59:57.031250,-10.53,80.8
28962,2018-06-29 08:59:57.062500,12.67,80.8
28963,2018-06-29 08:59:57.093750,53.31,80.8
28964,2018-06-29 08:59:57.125000,106.18,80.8
28965,2018-06-29 08:59:57.156250,155.54,80.8
28966,2018-06-29 08:59:57.187500,175.95,80.8
28967,2018-06-29 08:59:57.218750,155.2,80.8
28968,2018-06-29 08:59:57.250000,119.29,80.8
28969,2018-06-29 08:59:57.281250,87.29,80.8
28970,2018-06-29 08:59:57.312500,69.69,80.8
28971,2018-06-29 08:59:57.343750,63.2,80.8
28972,2018-06-29 08:59:57.375000,54.5,80.8
28973,2018-06-29 08:59:57.406250,20.48,80.8
28974,2018-06-29 08:59:57.437500,-36.71,80.8
28975,2018-06-29 08:59:57.468750,-92.79,80.8
28976,2018-06-29 08:59:57.500000,-126.58,80.8
28977,2018-06-29 08:59:57.531250,-137.45,80.93
28978,2018-06-29 08:59:57.562500,-132.66,80.93
28979,2018-06-29 08:59:57.593750,-115.73,80.93
28980,2018-06-29 08:59:57.625000,-87.64,80.93
28981,2018-06-29 08:59:57.656250,-48.29,80.93
28982,2018-06-29 08:59:57.687500,-3.31,80.93
28983,2018-06-29 08:59:57.718750,37.44,80.93
28984,2018-06-29 08:59:57.750000,61.97,80.93
28985,2018-06-29 08:59:57.781250,67.97,80.93
28986,2018-06-29 08:59:57.812500,62.27,80.93
28987,2018-06-29 08:59:57.843750,53.91,80.93
28988,2018-06-29 08:59:57.875000,45.84,80.93
28989,2018-06-29 08:59:57.906250,31.66,80.93
28990,2018-06-29 08:59:57.937500,4.51,80.93
28991,2018-06-29 08:59:57.968750,-32.08,80.93
28992,2018-06-29 08:59:58.000000,-65.61,80.93
28993,2018-06-29 08:59:58.031250,-87.76,80.93
28994,2018-06-29 08:59:58.062500,-97.08,80.93
28995,2018-06-29 08:59:58.093750,-94.37,80.93
28996,2018-06-29 08:59:58.125000,-82.09,80.93
28997,2018-06-29 08:59:58.156250,-64.77,80.93
28998,2018-06-29 08:59:58.187500,-45.47,80.93
28999,2018-06-29 08:59:58.218750,-25.17,80.93
29000,2018-06-29 08:59:58.250000,-5.53,80.93
29001,2018-06-29 08:59:58.281250,14.14,80.93
29002,2018-06-29 08:59:58.312500,41.32,80.93
29003,2018-06-29 08:59:58.343750,83.08,80.93
29004,2018-06-29 08:59:58.375000,132.64,80.93
29005,2018-06-29 08:59:58.406250,168.84,80.93
29006,2018-06-29 08:59:58.437500,173.67,80.93
29007,2018-06-29 08:59:58.468750,150.46,80.93
29008,2018-06-29 08:59:58.500000,120.99,80.93
29009,2018-06-29 08:59:58.531250,100.61,81.18
29010,2018-06-29 08:59:58.562500,81.76,81.18
29011,2018-06-29 08:59:58.593750,48.87,81.18
29012,2018-06-29 08:59:58.625000,1.6,81.18
29013,2018-06-29 08:59:58.656250,-46.78,81.18
29014,2018-06-29 08:59:58.687500,-85.12,81.18
29015,2018-06-29 08:59:58.718750,-109.23,81.18
29016,2018-06-29 08:59:58.750000,-119.19,81.18
29017,2018-06-29 08:59:58.781250,-119.85,81.18
29018,2018-06-29 08:59:58.812500,-117.25,81.18
29019,2018-06-29 08:59:58.843750,-110.12,81.18
29020,2018-06-29 08:59:58.875000,-91.54,81.18
29021,2018-06-29 08:59:58.906250,-61.14,81.18
29022,2018-06-29 08:59:58.937500,-29.05,81.18
29023,2018-06-29 08:59:58.968750,-4.65,81.18
29024,2018-06-29 08:59:59.000000,11.99,81.18
29025,2018-06-29 08:59:59.031250,23.75,81.18
29026,2018-06-29 08:59:59.062500,29.06,81.18
29027,2018-06-29 08:59:59.093750,25.83,81.18
29028,2018-06-29 08:59:59.125000,16.92,81.18
29029,2018-06-29 08:59:59.156250,6.88,81.18
29030,2018-06-29 08:59:59.187500,-2.29,81.18
29031,2018-06-29 08:59:59.218750,-9.14,81.18
29032,2018-06-29 08:59:59.250000,-11.73,81.18
29033,2018-06-29 08:59:59.281250,-11.25,81.18
29034,2018-06-29 08:59:59.312500,-11.73,81.18
29035,2018-06-29 08:59:59.343750,-13.92,81.18
29036,2018-06-29 08:59:59.375000,-14.16,81.18
29037,2018-06-29 08:59:59.406250,-10.25,81.18
29038,2018-06-29 08:59:59.437500,-3.77,81.18
29039,2018-06-29 08:59:59.468750,3.97,81.18
29040,2018-06-29 08:59:59.500000,15.86,81.18
29041,2018-06-29 08:59:59.531250,37.63,81.38
29042,2018-06-29 08:59:59.562500,70.41,81.38
29043,2018-06-29 08:59:59.593750,103.1,81.38
29044,2018-06-29 08:59:59.625000,118.34,81.38
29045,2018-06-29 08:59:59.656250,109.93,81.38
29046,2018-06-29 08:59:59.687500,89.71,81.38
29047,2018-06-29 08:59:59.718750,73.87,81.38
29048,2018-06-29 08:59:59.750000,66.04,81.38
29049,2018-06-29 08:59:59.781250,56.05,81.38
29050,2018-06-29 08:59:59.812500,33.7,81.38
29051,2018-06-29 08:59:59.843750,0.38,81.38
29052,2018-06-29 08:59:59.875000,-33.72,81.38
29053,2018-06-29 08:59:59.906250,-60.0,81.38
29054,2018-06-29 08:59:59.937500,-75.14,81.38
29055,2018-06-29 08:59:59.968750,-79.11,81.38
29056,2018-06-29 09:00:00.000000,-75.07,81.38
29057,2018-06-29 09:00:00.031250,-68.08,81.38
29058,2018-06-29 09:00:00.062500,-60.01,81.38
29059,2018-06-29 09:00:00.093750,-49.05,81.38
29060,2018-06-29 09:00:00.125000,-35.69,81.38
29061,2018-06-29 09:00:00.156250,-24.36,81.38
29062,2018-06-29 09:00:00.187500,-17.36,81.38
29063,2018-06-29 09:00:00.218750,-12.73,81.38
29064,2018-06-29 09:00:00.250000,-9.67,81.38
29065,2018-06-29 09:00:00.281250,-10.83,81.38
29066,2018-06-29 09:00:00.312500,-17.72,81.38
29067,2018-06-29 09:00:00.343750,-27.86,81.38
29068,2018-06-29 09:00:00.375000,-36.57,81.38
29069,2018-06-29 09:00:00.406250,-39.67,81.38
29070,2018-06-29 09:00:00.437500,-35.82,81.38
29071,2018-06-29 09:00:00.468750,-27.3,81.38
29072,2018-06-29 09:00:00.500000,-17.93,81.38
29073,2018-06-29 09:00:00.531250,-10.38,81.62
29074,2018-06-29 09:00:00.562500,-4.95,81.62
29075,2018-06-29 09:00:00.593750,0.48,81.62
29076,2018-06-29 09:00:00.625000,8.6,81.62
29077,2018-06-29 09:00:00.656250,19.36,81.62
29078,2018-06-29 09:00:00.687500,30.07,81.62
29079,2018-06-29 09:00:00.718750,42.46,81.62
29080,2018-06-29 09:00:00.750000,67.08,81.62
29081,2018-06-29 09:00:00.781250,112.34,81.62
29082,2018-06-29 09:00:00.812500,167.23,81.62
29083,2018-06-29 09:00:00.843750,203.58,81.62
29084,2018-06-29 09:00:00.875000,201.18,81.62
29085,2018-06-29 09:00:00.906250,166.16,81.62
29086,2018-06-29 09:00:00.937500,122.73,81.62
29087,2018-06-29 09:00:00.968750,89.85,81.62
29088,2018-06-29 09:00:01.000000,65.39,81.62
29089,2018-06-29 09:00:01.031250,32.97,81.62
29090,2018-06-29 09:00:01.062500,-15.44,81.62
29091,2018-06-29 09:00:01.093750,-69.92,81.62
29092,2018-06-29 09:00:01.125000,-114.92,81.62
29093,2018-06-29 09:00:01.156250,-140.95,81.62
29094,2018-06-29 09:00:01.187500,-145.31,81.62
29095,2018-06-29 09:00:01.218750,-132.86,81.62
29096,2018-06-29 09:00:01.250000,-114.42,81.62
29097,2018-06-29 09:00:01.281250,-96.57,81.62
29098,2018-06-29 09:00:01.312500,-77.64,81.62
29099,2018-06-29 09:00:01.343750,-56.53,81.62
29100,2018-06-29 09:00:01.375000,-37.2,81.62
29101,2018-06-29 09:00:01.406250,-22.02,81.62
29102,2018-06-29 09:00:01.437500,-9.04,81.62
29103,2018-06-29 09:00:01.468750,2.17,81.62
29104,2018-06-29 09:00:01.500000,8.89,81.62
29105,2018-06-29 09:00:01.531250,9.89,81.97
29106,2018-06-29 09:00:01.562500,6.72,81.97
29107,2018-06-29 09:00:01.593750,1.36,81.97
29108,2018-06-29 09:00:01.625000,-4.6,81.97
29109,2018-06-29 09:00:01.656250,-9.9,81.97
29110,2018-06-29 09:00:01.687500,-14.42,81.97
29111,2018-06-29 09:00:01.718750,-18.87,81.97
29112,2018-06-29 09:00:01.750000,-23.53,81.97
29113,2018-06-29 09:00:01.781250,-27.98,81.97
29114,2018-06-29 09:00:01.812500,-31.45,81.97
29115,2018-06-29 09:00:01.843750,-33.36,81.97
29116,2018-06-29 09:00:01.875000,-34.14,81.97
29117,2018-06-29 09:00:01.906250,-34.23,81.97
29118,2018-06-29 09:00:01.937500,-31.24,81.97
29119,2018-06-29 09:00:01.968750,-19.27,81.97
29120,2018-06-29 09:00:02.000000,5.97,81.97
29121,2018-06-29 09:00:02.031250,39.73,81.97
29122,2018-06-29 09:00:02.062500,68.17,81.97
29123,2018-06-29 09:00:02.093750,78.95,81.97
29124,2018-06-29 09:00:02.125000,73.06,81.97
29125,2018-06-29 09:00:02.156250,63.23,81.97
29126,2018-06-29 09:00:02.187500,59.41,81.97
29127,2018-06-29 09:00:02.218750,58.71,81.97
29128,2018-06-29 09:00:02.250000,52.25,81.97
29129,2018-06-29 09:00:02.281250,37.55,81.97
29130,2018-06-29 09:00:02.312500,19.47,81.97
29131,2018-06-29 09:00:02.343750,3.5,81.97
29132,2018-06-29 09:00:02.375000,-6.79,81.97
29133,2018-06-29 09:00:02.406250,-9.74,81.97
29134,2018-06-29 09:00:02.437500,-7.75,81.97
29135,2018-06-29 09:00:02.468750,-5.72,81.97
29136,2018-06-29 09:00:02.500000,-5.59,81.97
29137,2018-06-29 09:00:02.531250,-6.05,82.28
29138,2018-06-29 09:00:02.562500,-7.07,82.28
29139,2018-06-29 09:00:02.593750,-10.19,82.28
29140,2018-06-29 09:00:02.625000,-14.87,82.28
29141,2018-06-29 09:00:02.656250,-19.13,82.28
29142,2018-06-29 09:00:02.687500,-23.9,82.28
29143,2018-06-29 09:00:02.718750,-31.47,82.28
29144,2018-06-29 09:00:02.750000,-39.92,82.28
29145,2018-06-29 09:00:02.781250,-43.95,82.28
29146,2018-06-29 09:00:02.812500,-40.52,82.28
29147,2018-06-29 09:00:02.843750,-31.11,82.28
29148,2018-06-29 09:00:02.875000,-20.34,82.28
29149,2018-06-29 09:00:02.906250,-13.02,82.28
29150,2018-06-29 09:00:02.937500,-10.27,82.28
29151,2018-06-29 09:00:02.968750,-9.04,82.28
29152,2018-06-29 09:00:03.000000,-6.7,82.28
29153,2018-06-29 09:00:03.031250,-3.78,82.28
29154,2018-06-29 09:00:03.062500,-1.87,82.28
29155,2018-06-29 09:00:03.093750,-1.4,82.28
29156,2018-06-29 09:00:03.125000,-1.72,82.28
29157,2018-06-29 09:00:03.156250,-2.13,82.28
29158,2018-06-29 09:00:03.187500,-2.09,82.28
29159,2018-06-29 09:00:03.218750,-1.22,82.28
29160,2018-06-29 09:00:03.250000,0.35,82.28
29161,2018-06-29 09:00:03.281250,2.15,82.28
29162,2018-06-29 09:00:03.312500,3.96,82.28
29163,2018-06-29 09:00:03.343750,5.43,82.28
29164,2018-06-29 09:00:03.375000,5.99,82.28
29165,2018-06-29 09:00:03.406250,5.96,82.28
29166,2018-06-29 09:00:03.437500,6.45,82.28
29167,2018-06-29 09:00:03.468750,6.67,82.28
29168,2018-06-29 09:00:03.500000,3.35,82.28
29169,2018-06-29 09:00:03.531250,-5.18,82.6
29170,2018-06-29 09:00:03.562500,-16.21,82.6
29171,2018-06-29 09:00:03.593750,-24.79,82.6
29172,2018-06-29 09:00:03.625000,-27.26,82.6
29173,2018-06-29 09:00:03.656250,-23.02,82.6
29174,2018-06-29 09:00:03.687500,-14.15,82.6
29175,2018-06-29 09:00:03.718750,-3.44,82.6
29176,2018-06-29 09:00:03.750000,6.87,82.6
29177,2018-06-29 09:00:03.781250,15.89,82.6
29178,2018-06-29 09:00:03.812500,26.56,82.6
29179,2018-06-29 09:00:03.843750,46.9,82.6
29180,2018-06-29 09:00:03.875000,82.32,82.6
29181,2018-06-29 09:00:03.906250,122.54,82.6
29182,2018-06-29 09:00:03.937500,143.97,82.6
29183,2018-06-29 09:00:03.968750,132.21,82.6
29184,2018-06-29 09:00:04.000000,97.1,82.6
29185,2018-06-29 09:00:04.031250,61.57,82.6
29186,2018-06-29 09:00:04.062500,40.58,82.6
29187,2018-06-29 09:00:04.093750,31.34,82.6
29188,2018-06-29 09:00:04.125000,20.12,82.6
29189,2018-06-29 09:00:04.156250,-1.94,82.6
29190,2018-06-29 09:00:04.187500,-30.91,82.6
29191,2018-06-29 09:00:04.218750,-57.24,82.6
29192,2018-06-29 09:00:04.250000,-74.62,82.6
29193,2018-06-29 09:00:04.281250,-82.23,82.6
29194,2018-06-29 09:00:04.312500,-83.82,82.6
29195,2018-06-29 09:00:04.343750,-84.16,82.6
29196,2018-06-29 09:00:04.375000,-84.46,82.6
29197,2018-06-29 09:00:04.406250,-81.7,82.6
29198,2018-06-29 09:00:04.437500,-72.55,82.6
29199,2018-06-29 09:00:04.468750,-57.42,82.6
29200,2018-06-29 09:00:04.500000,-39.87,82.6
29201,2018-06-29 09:00:04.531250,-22.54,82.92
29202,2018-06-29 09:00:04.562500,-6.18,82.92
29203,2018-06-29 09:00:04.593750,7.64,82.92
29204,2018-06-29 09:00:04.625000,17.01,82.92
29205,2018-06-29 09:00:04.656250,22.41,82.92
29206,2018-06-29 09:00:04.687500,25.01,82.92
29207,2018-06-29 09:00:04.718750,23.35,82.92
29208,2018-06-29 09:00:04.750000,15.1,82.92
29209,2018-06-29 09:00:04.781250,1.62,82.92
29210,2018-06-29 09:00:04.812500,-11.7,82.92
29211,2018-06-29 09:00:04.843750,-19.58,82.92
29212,2018-06-29 09:00:04.875000,-20.23,82.92
29213,2018-06-29 09:00:04.906250,-14.17,82.92
29214,2018-06-29 09:00:04.937500,-1.15,82.92
29215,2018-06-29 09:00:04.968750,20.64,82.92
29216,2018-06-29 09:00:05.000000,52.8,82.92
29217,2018-06-29 09:00:05.031250,91.31,82.92
29218,2018-06-29 09:00:05.062500,122.54,82.92
29219,2018-06-29 09:00:05.093750,130.49,82.92
29220,2018-06-29 09:00:05.125000,110.32,82.92
29221,2018-06-29 09:00:05.156250,71.76,82.92
29222,2018-06-29 09:00:05.187500,31.39,82.92
29223,2018-06-29 09:00:05.218750,3.1,82.92
29224,2018-06-29 09:00:05.250000,-11.61,82.92
29225,2018-06-29 09:00:05.281250,-23.63,82.92
29226,2018-06-29 09:00:05.312500,-42.69,82.92
29227,2018-06-29 09:00:05.343750,-65.69,82.92
29228,2018-06-29 09:00:05.375000,-83.21,82.92
29229,2018-06-29 09:00:05.406250,-90.91,82.92
29230,2018-06-29 09:00:05.437500,-90.55,82.92
29231,2018-06-29 09:00:05.468750,-85.32,82.92
29232,2018-06-29 09:00:05.500000,-75.52,82.92
29233,2018-06-29 09:00:05.531250,-61.3,83.23
29234,2018-06-29 09:00:05.562500,-43.88,83.23
29235,2018-06-29 09:00:05.593750,-25.73,83.23
29236,2018-06-29 09:00:05.625000,-5.0,83.23
29237,2018-06-29 09:00:05.656250,27.83,83.23
29238,2018-06-29 09:00:05.687500,81.78,83.23
29239,2018-06-29 09:00:05.718750,147.93,83.23
29240,2018-06-29 09:00:05.750000,191.13,83.23
29241,2018-06-29 09:00:05.781250,183.53,83.23
29242,2018-06-29 09:00:05.812500,138.09,83.23
29243,2018-06-29 09:00:05.843750,93.83,83.23
29244,2018-06-29 09:00:05.875000,74.97,83.23
29245,2018-06-29 09:00:05.906250,67.4,83.23
29246,2018-06-29 09:00:05.937500,39.52,83.23
29247,2018-06-29 09:00:05.968750,-20.21,83.23
29248,2018-06-29 09:00:06.000000,-93.42,83.23
29249,2018-06-29 09:00:06.031250,-154.46,83.23
29250,2018-06-29 09:00:06.062500,-186.3,83.23
29251,2018-06-29 09:00:06.093750,-183.62,83.23
29252,2018-06-29 09:00:06.125000,-151.88,83.23
29253,2018-06-29 09:00:06.156250,-105.52,83.23
29254,2018-06-29 09:00:06.187500,-57.49,83.23
29255,2018-06-29 09:00:06.218750,-14.53,83.23
29256,2018-06-29 09:00:06.250000,17.93,83.23
29257,2018-06-29 09:00:06.281250,35.14,83.23
29258,2018-06-29 09:00:06.312500,37.8,83.23
29259,2018-06-29 09:00:06.343750,32.98,83.23
29260,2018-06-29 09:00:06.375000,26.72,83.23
29261,2018-06-29 09:00:06.406250,18.79,83.23
29262,2018-06-29 09:00:06.437500,5.29,83.23
29263,2018-06-29 09:00:06.468750,-13.91,83.23
29264,2018-06-29 09:00:06.500000,-33.0,83.23
29265,2018-06-29 09:00:06.531250,-45.67,83.58
29266,2018-06-29 09:00:06.562500,-50.98,83.58
29267,2018-06-29 09:00:06.593750,-52.7,83.58
29268,2018-06-29 09:00:06.625000,-54.07,83.58
29269,2018-06-29 09:00:06.656250,-54.6,83.58
29270,2018-06-29 09:00:06.687500,-51.86,83.58
29271,2018-06-29 09:00:06.718750,-45.46,83.58
29272,2018-06-29 09:00:06.750000,-37.94,83.58
29273,2018-06-29 09:00:06.781250,-30.08,83.58
29274,2018-06-29 09:00:06.812500,-17.3,83.58
29275,2018-06-29 09:00:06.843750,4.61,83.58
29276,2018-06-29 09:00:06.875000,31.98,83.58
29277,2018-06-29 09:00:06.906250,55.79,83.58
29278,2018-06-29 09:00:06.937500,69.12,83.58
29279,2018-06-29 09:00:06.968750,69.79,83.58
29280,2018-06-29 09:00:07.000000,60.65,83.58
29281,2018-06-29 09:00:07.031250,47.69,83.58
29282,2018-06-29 09:00:07.062500,33.27,83.58
29283,2018-06-29 09:00:07.093750,13.85,83.58
29284,2018-06-29 09:00:07.125000,-11.37,83.58
29285,2018-06-29 09:00:07.156250,-35.12,83.58
29286,2018-06-29 09:00:07.187500,-48.98,83.58
29287,2018-06-29 09:00:07.218750,-49.93,83.58
29288,2018-06-29 09:00:07.250000,-41.02,83.58
29289,2018-06-29 09:00:07.281250,-27.34,83.58
29290,2018-06-29 09:00:07.312500,-10.38,83.58
29291,2018-06-29 09:00:07.343750,12.95,83.58
29292,2018-06-29 09:00:07.375000,42.34,83.58
29293,2018-06-29 09:00:07.406250,67.84,83.58
29294,2018-06-29 09:00:07.437500,75.76,83.58
29295,2018-06-29 09:00:07.468750,62.31,83.58
29296,2018-06-29 09:00:07.500000,40.26,83.58
29297,2018-06-29 09:00:07.531250,24.36,83.97
29298,2018-06-29 09:00:07.562500,14.48,83.97
29299,2018-06-29 09:00:07.593750,-0.68,83.97
29300,2018-06-29 09:00:07.625000,-23.63,83.97
29301,2018-06-29 09:00:07.656250,-47.12,83.97
29302,2018-06-29 09:00:07.687500,-65.37,83.97
29303,2018-06-29 09:00:07.718750,-73.44,83.97
29304,2018-06-29 09:00:07.750000,-66.82,83.97
29305,2018-06-29 09:00:07.781250,-46.8,83.97
29306,2018-06-29 09:00:07.812500,-27.57,83.97
29307,2018-06-29 09:00:07.843750,-16.18,83.97
29308,2018-06-29 09:00:07.875000,-1.42,83.97
29309,2018-06-29 09:00:07.906250,32.29,83.97
29310,2018-06-29 09:00:07.937500,84.9,83.97
29311,2018-06-29 09:00:07.968750,141.05,83.97
29312,2018-06-29 09:00:08.000000,179.21,83.97
29313,2018-06-29 09:00:08.031250,157.26,83.97
29314,2018-06-29 09:00:08.062500,97.26,83.97
29315,2018-06-29 09:00:08.093750,62.22,83.97
29316,2018-06-29 09:00:08.125000,50.0,83.97
29317,2018-06-29 09:00:08.156250,44.43,83.97
29318,2018-06-29 09:00:08.187500,40.19,83.97
29319,2018-06-29 09:00:08.218750,23.61,83.97
29320,2018-06-29 09:00:08.250000,-19.98,83.97
29321,2018-06-29 09:00:08.281250,-91.63,83.97
29322,2018-06-29 09:00:08.312500,-157.24,83.97
29323,2018-06-29 09:00:08.343750,-187.5,83.97
29324,2018-06-29 09:00:08.375000,-183.45,83.97
29325,2018-06-29 09:00:08.406250,-157.93,83.97
29326,2018-06-29 09:00:08.437500,-115.46,83.97
29327,2018-06-29 09:00:08.468750,-58.9,83.97
29328,2018-06-29 09:00:08.500000,2.14,83.97
29329,2018-06-29 09:00:08.531250,53.57,84.4
29330,2018-06-29 09:00:08.562500,90.2,84.4
29331,2018-06-29 09:00:08.593750,112.26,84.4
29332,2018-06-29 09:00:08.625000,118.9,84.4
29333,2018-06-29 09:00:08.656250,111.73,84.4
29334,2018-06-29 09:00:08.687500,98.05,84.4
29335,2018-06-29 09:00:08.718750,81.27,84.4
29336,2018-06-29 09:00:08.750000,54.09,84.4
29337,2018-06-29 09:00:08.781250,13.7,84.4
29338,2018-06-29 09:00:08.812500,-30.14,84.4
29339,2018-06-29 09:00:08.843750,-65.47,84.4
29340,2018-06-29 09:00:08.875000,-89.49,84.4
29341,2018-06-29 09:00:08.906250,-104.19,84.4
29342,2018-06-29 09:00:08.937500,-110.45,84.4
29343,2018-06-29 09:00:08.968750,-110.11,84.4
29344,2018-06-29 09:00:09.000000,-105.75,84.4
29345,2018-06-29 09:00:09.031250,-98.43,84.4
29346,2018-06-29 09:00:09.062500,-84.5,84.4
29347,2018-06-29 09:00:09.093750,-58.1,84.4
29348,2018-06-29 09:00:09.125000,-14.15,84.4
29349,2018-06-29 09:00:09.156250,40.91,84.4
29350,2018-06-29 09:00:09.187500,86.01,84.4
29351,2018-06-29 09:00:09.218750,102.6,84.4
29352,2018-06-29 09:00:09.250000,95.63,84.4
29353,2018-06-29 09:00:09.281250,88.22,84.4
29354,2018-06-29 09:00:09.312500,93.64,84.4
29355,2018-06-29 09:00:09.343750,105.36,84.4
29356,2018-06-29 09:00:09.375000,100.55,84.4
29357,2018-06-29 09:00:09.406250,59.34,84.4
29358,2018-06-29 09:00:09.437500,-4.25,84.4
29359,2018-06-29 09:00:09.468750,-68.11,84.4
29360,2018-06-29 09:00:09.500000,-111.16,84.4
29361,2018-06-29 09:00:09.531250,-126.08,84.87
29362,2018-06-29 09:00:09.562500,-115.36,84.87
29363,2018-06-29 09:00:09.593750,-86.27,84.87
29364,2018-06-29 09:00:09.625000,-44.73,84.87
29365,2018-06-29 09:00:09.656250,2.42,84.87
29366,2018-06-29 09:00:09.687500,47.06,84.87
29367,2018-06-29 09:00:09.718750,78.46,84.87
29368,2018-06-29 09:00:09.750000,88.93,84.87
29369,2018-06-29 09:00:09.781250,81.4,84.87
29370,2018-06-29 09:00:09.812500,69.41,84.87
29371,2018-06-29 09:00:09.843750,62.87,84.87
29372,2018-06-29 09:00:09.875000,52.29,84.87
29373,2018-06-29 09:00:09.906250,22.3,84.87
29374,2018-06-29 09:00:09.937500,-25.16,84.87
29375,2018-06-29 09:00:09.968750,-70.97,84.87
29376,2018-06-29 09:00:10.000000,-99.41,84.87
29377,2018-06-29 09:00:10.031250,-107.47,84.87
29378,2018-06-29 09:00:10.062500,-100.78,84.87
29379,2018-06-29 09:00:10.093750,-87.93,84.87
29380,2018-06-29 09:00:10.125000,-74.45,84.87
29381,2018-06-29 09:00:10.156250,-60.53,84.87
29382,2018-06-29 09:00:10.187500,-45.39,84.87
29383,2018-06-29 09:00:10.218750,-30.34,84.87
29384,2018-06-29 09:00:10.250000,-14.97,84.87
29385,2018-06-29 09:00:10.281250,4.84,84.87
29386,2018-06-29 09:00:10.312500,32.06,84.87
29387,2018-06-29 09:00:10.343750,62.21,84.87
29388,2018-06-29 09:00:10.375000,83.5,84.87
29389,2018-06-29 09:00:10.406250,87.37,84.87
29390,2018-06-29 09:00:10.437500,79.35,84.87
29391,2018-06-29 09:00:10.468750,72.41,84.87
29392,2018-06-29 09:00:10.500000,68.59,84.87
29393,2018-06-29 09:00:10.531250,57.09,85.37
29394,2018-06-29 09:00:10.562500,31.08,85.37
29395,2018-06-29 09:00:10.593750,-4.09,85.37
29396,2018-06-29 09:00:10.625000,-39.53,85.37
29397,2018-06-29 09:00:10.656250,-70.27,85.37
29398,2018-06-29 09:00:10.687500,-93.79,85.37
29399,2018-06-29 09:00:10.718750,-107.41,85.37
29400,2018-06-29 09:00:10.750000,-108.1,85.37
29401,2018-06-29 09:00:10.781250,-94.68,85.37
29402,2018-06-29 09:00:10.812500,-70.17,85.37
29403,2018-06-29 09:00:10.843750,-40.48,85.37
29404,2018-06-29 09:00:10.875000,-12.01,85.37
29405,2018-06-29 09:00:10.906250,9.49,85.37
29406,2018-06-29 09:00:10.937500,22.43,85.37
29407,2018-06-29 09:00:10.968750,31.25,85.37
29408,2018-06-29 09:00:11.000000,39.34,85.37
29409,2018-06-29 09:00:11.031250,42.55,85.37
29410,2018-06-29 09:00:11.062500,35.53,85.37
29411,2018-06-29 09:00:11.093750,20.65,85.37
29412,2018-06-29 09:00:11.125000,5.16,85.37
29413,2018-06-29 09:00:11.156250,-7.44,85.37
29414,2018-06-29 09:00:11.187500,-18.19,85.37
29415,2018-06-29 09:00:11.218750,-27.44,85.37
29416,2018-06-29 09:00:11.250000,-33.9,85.37
29417,2018-06-29 09:00:11.281250,-36.48,85.37
29418,2018-06-29 09:00:11.312500,-33.42,85.37
29419,2018-06-29 09:00:11.343750,-22.22,85.37
29420,2018-06-29 09:00:11.375000,-2.16,85.37
29421,2018-06-29 09:00:11.406250,26.79,85.37
29422,2018-06-29 09:00:11.437500,64.7,85.37
29423,2018-06-29 09:00:11.468750,106.46,85.37
29424,2018-06-29 09:00:11.500000,139.72,85.37
29425,2018-06-29 09:00:11.531250,154.18,85.87
29426,2018-06-29 09:00:11.562500,150.65,85.87
29427,2018-06-29 09:00:11.593750,137.36,85.87
29428,2018-06-29 09:00:11.625000,120.29,85.87
29429,2018-06-29 09:00:11.656250,99.05,85.87
29430,2018-06-29 09:00:11.687500,69.87,85.87
29431,2018-06-29 09:00:11.718750,31.0,85.87
29432,2018-06-29 09:00:11.750000,-13.85,85.87
29433,2018-06-29 09:00:11.781250,-56.2,85.87
29434,2018-06-29 09:00:11.812500,-86.89,85.87
29435,2018-06-29 09:00:11.843750,-100.95,85.87
29436,2018-06-29 09:00:11.875000,-99.95,85.87
29437,2018-06-29 09:00:11.906250,-88.92,85.87
29438,2018-06-29 09:00:11.937500,-72.59,85.87
29439,2018-06-29 09:00:11.968750,-55.9,85.87
29440,2018-06-29 09:00:12.000000,-42.94,85.87
29441,2018-06-29 09:00:12.031250,-33.64,85.87
29442,2018-06-29 09:00:12.062500,-26.92,85.87
29443,2018-06-29 09:00:12.093750,-25.79,85.87
29444,2018-06-29 09:00:12.125000,-33.15,85.87
29445,2018-06-29 09:00:12.156250,-45.33,85.87
29446,2018-06-29 09:00:12.187500,-54.68,85.87
29447,2018-06-29 09:00:12.218750,-56.3,85.87
29448,2018-06-29 09:00:12.250000,-50.77,85.87
29449,2018-06-29 09:00:12.281250,-42.11,85.87
29450,2018-06-29 09:00:12.312500,-34.23,85.87
29451,2018-06-29 09:00:12.343750,-28.91,85.87
29452,2018-06-29 09:00:12.375000,-25.34,85.87
29453,2018-06-29 09:00:12.406250,-21.19,85.87
29454,2018-06-29 09:00:12.437500,-15.1,85.87
29455,2018-06-29 09:00:12.468750,-6.83,85.87
29456,2018-06-29 09:00:12.500000,5.75,85.87
29457,2018-06-29 09:00:12.531250,27.43,86.38
29458,2018-06-29 09:00:12.562500,63.37,86.38
29459,2018-06-29 09:00:12.593750,115.09,86.38
29460,2018-06-29 09:00:12.625000,172.26,86.38
29461,2018-06-29 09:00:12.656250,211.56,86.38
29462,2018-06-29 09:00:12.687500,215.35,86.38
29463,2018-06-29 09:00:12.718750,187.96,86.38
29464,2018-06-29 09:00:12.750000,145.69,86.38
29465,2018-06-29 09:00:12.781250,100.9,86.38
29466,2018-06-29 09:00:12.812500,58.92,86.38
29467,2018-06-29 09:00:12.843750,16.29,86.38
29468,2018-06-29 09:00:12.875000,-35.92,86.38
29469,2018-06-29 09:00:12.906250,-96.85,86.38
29470,2018-06-29 09:00:12.937500,-148.92,86.38
29471,2018-06-29 09:00:12.968750,-174.53,86.38
29472,2018-06-29 09:00:13.000000,-171.78,86.38
29473,2018-06-29 09:00:13.031250,-151.55,86.38
29474,2018-06-29 09:00:13.062500,-125.62,86.38
29475,2018-06-29 09:00:13.093750,-95.94,86.38
29476,2018-06-29 09:00:13.125000,-56.3,86.38
29477,2018-06-29 09:00:13.156250,-4.96,86.38
29478,2018-06-29 09:00:13.187500,44.23,86.38
29479,2018-06-29 09:00:13.218750,72.27,86.38
29480,2018-06-29 09:00:13.250000,74.61,86.38
29481,2018-06-29 09:00:13.281250,69.36,86.38
29482,2018-06-29 09:00:13.312500,76.45,86.38
29483,2018-06-29 09:00:13.343750,88.04,86.38
29484,2018-06-29 09:00:13.375000,82.51,86.38
29485,2018-06-29 09:00:13.406250,56.33,86.38
29486,2018-06-29 09:00:13.437500,32.25,86.38
29487,2018-06-29 09:00:13.468750,18.31,86.38
29488,2018-06-29 09:00:13.500000,3.91,86.38
29489,2018-06-29 09:00:13.531250,-12.79,86.87
29490,2018-06-29 09:00:13.562500,-15.61,86.87
29491,2018-06-29 09:00:13.593750,3.35,86.87
29492,2018-06-29 09:00:13.625000,20.87,86.87
29493,2018-06-29 09:00:13.656250,27.23,86.87
29494,2018-06-29 09:00:13.687500,43.77,86.87
29495,2018-06-29 09:00:13.718750,104.5,86.87
29496,2018-06-29 09:00:13.750000,200.9,86.87
29497,2018-06-29 09:00:13.781250,299.34,86.87
29498,2018-06-29 09:00:13.812500,354.9,86.87
29499,2018-06-29 09:00:13.843750,245.9,86.87
29500,2018-06-29 09:00:13.875000,47.66,86.87
29501,2018-06-29 09:00:13.906250,-77.2,86.87
29502,2018-06-29 09:00:13.937500,-117.1,86.87
29503,2018-06-29 09:00:13.968750,-129.58,86.87
29504,2018-06-29 09:00:14.000000,-126.38,86.87
29505,2018-06-29 09:00:14.031250,-128.08,86.87
29506,2018-06-29 09:00:14.062500,-154.66,86.87
29507,2018-06-29 09:00:14.093750,-187.28,86.87
29508,2018-06-29 09:00:14.125000,-202.54,86.87
29509,2018-06-29 09:00:14.156250,-190.08,86.87
29510,2018-06-29 09:00:14.187500,-169.14,86.87
29511,2018-06-29 09:00:14.218750,-147.29,86.87
29512,2018-06-29 09:00:14.250000,-119.0,86.87
29513,2018-06-29 09:00:14.281250,-74.24,86.87
29514,2018-06-29 09:00:14.312500,-26.62,86.87
29515,2018-06-29 09:00:14.343750,0.58,86.87
29516,2018-06-29 09:00:14.375000,2.32,86.87
29517,2018-06-29 09:00:14.406250,-4.56,86.87
29518,2018-06-29 09:00:14.437500,0.94,86.87
29519,2018-06-29 09:00:14.468750,20.67,86.87
29520,2018-06-29 09:00:14.500000,39.22,86.87
29521,2018-06-29 09:00:14.531250,39.42,87.45
29522,2018-06-29 09:00:14.562500,20.85,87.45
29523,2018-06-29 09:00:14.593750,-3.7,87.45
29524,2018-06-29 09:00:14.625000,-23.13,87.45
29525,2018-06-29 09:00:14.656250,-35.49,87.45
29526,2018-06-29 09:00:14.687500,-43.32,87.45
29527,2018-06-29 09:00:14.718750,-47.76,87.45
29528,2018-06-29 09:00:14.750000,-48.02,87.45
29529,2018-06-29 09:00:14.781250,-43.13,87.45
29530,2018-06-29 09:00:14.812500,-32.85,87.45
29531,2018-06-29 09:00:14.843750,-17.47,87.45
29532,2018-06-29 09:00:14.875000,2.1,87.45
29533,2018-06-29 09:00:14.906250,28.78,87.45
29534,2018-06-29 09:00:14.937500,69.91,87.45
29535,2018-06-29 09:00:14.968750,121.82,87.45
29536,2018-06-29 09:00:15.000000,159.12,87.45
29537,2018-06-29 09:00:15.031250,157.96,87.45
29538,2018-06-29 09:00:15.062500,125.66,87.45
29539,2018-06-29 09:00:15.093750,92.13,87.45
29540,2018-06-29 09:00:15.125000,77.24,87.45
29541,2018-06-29 09:00:15.156250,75.92,87.45
29542,2018-06-29 09:00:15.187500,68.3,87.45
29543,2018-06-29 09:00:15.218750,39.68,87.45
29544,2018-06-29 09:00:15.250000,-7.05,87.45
29545,2018-06-29 09:00:15.281250,-56.87,87.45
29546,2018-06-29 09:00:15.312500,-96.32,87.45
29547,2018-06-29 09:00:15.343750,-119.64,87.45
29548,2018-06-29 09:00:15.375000,-127.5,87.45
29549,2018-06-29 09:00:15.406250,-122.84,87.45
29550,2018-06-29 09:00:15.437500,-107.46,87.45
29551,2018-06-29 09:00:15.468750,-83.99,87.45
29552,2018-06-29 09:00:15.500000,-56.79,87.45
29553,2018-06-29 09:00:15.531250,-28.29,88.05
29554,2018-06-29 09:00:15.562500,-2.52,88.05
29555,2018-06-29 09:00:15.593750,11.84,88.05
29556,2018-06-29 09:00:15.625000,13.06,88.05
29557,2018-06-29 09:00:15.656250,9.74,88.05
29558,2018-06-29 09:00:15.687500,3.4,88.05
29559,2018-06-29 09:00:15.718750,-14.72,88.05
29560,2018-06-29 09:00:15.750000,-44.14,88.05
29561,2018-06-29 09:00:15.781250,-71.42,88.05
29562,2018-06-29 09:00:15.812500,-86.76,88.05
29563,2018-06-29 09:00:15.843750,-89.26,88.05
29564,2018-06-29 09:00:15.875000,-79.59,88.05
29565,2018-06-29 09:00:15.906250,-59.43,88.05
29566,2018-06-29 09:00:15.937500,-34.22,88.05
29567,2018-06-29 09:00:15.968750,-9.56,88.05
29568,2018-06-29 09:00:16.000000,13.01,88.05
29569,2018-06-29 09:00:16.031250,36.32,88.05
29570,2018-06-29 09:00:16.062500,67.73,88.05
29571,2018-06-29 09:00:16.093750,114.53,88.05
29572,2018-06-29 09:00:16.125000,170.43,88.05
29573,2018-06-29 09:00:16.156250,211.7,88.05
29574,2018-06-29 09:00:16.187500,217.71,88.05
29575,2018-06-29 09:00:16.218750,192.76,88.05
29576,2018-06-29 09:00:16.250000,158.8,88.05
29577,2018-06-29 09:00:16.281250,130.79,88.05
29578,2018-06-29 09:00:16.312500,105.21,88.05
29579,2018-06-29 09:00:16.343750,68.9,88.05
29580,2018-06-29 09:00:16.375000,14.83,88.05
29581,2018-06-29 09:00:16.406250,-49.69,88.05
29582,2018-06-29 09:00:16.437500,-109.35,88.05
29583,2018-06-29 09:00:16.468750,-153.4,88.05
29584,2018-06-29 09:00:16.500000,-179.78,88.05
29585,2018-06-29 09:00:16.531250,-190.01,88.65
29586,2018-06-29 09:00:16.562500,-183.99,88.65
29587,2018-06-29 09:00:16.593750,-160.61,88.65
29588,2018-06-29 09:00:16.625000,-122.58,88.65
29589,2018-06-29 09:00:16.656250,-78.62,88.65
29590,2018-06-29 09:00:16.687500,-38.51,88.65
29591,2018-06-29 09:00:16.718750,-7.44,88.65
29592,2018-06-29 09:00:16.750000,14.83,88.65
29593,2018-06-29 09:00:16.781250,31.38,88.65
29594,2018-06-29 09:00:16.812500,43.16,88.65
29595,2018-06-29 09:00:16.843750,46.42,88.65
29596,2018-06-29 09:00:16.875000,38.43,88.65
29597,2018-06-29 09:00:16.906250,23.88,88.65
29598,2018-06-29 09:00:16.937500,10.68,88.65
29599,2018-06-29 09:00:16.968750,1.44,88.65
29600,2018-06-29 09:00:17.000000,-5.86,88.65
29601,2018-06-29 09:00:17.031250,-11.69,88.65
29602,2018-06-29 09:00:17.062500,-14.58,88.65
29603,2018-06-29 09:00:17.093750,-14.56,88.65
29604,2018-06-29 09:00:17.125000,-11.74,88.65
29605,2018-06-29 09:00:17.156250,-4.28,88.65
29606,2018-06-29 09:00:17.187500,10.24,88.65
29607,2018-06-29 09:00:17.218750,35.67,88.65
29608,2018-06-29 09:00:17.250000,75.73,88.65
29609,2018-06-29 09:00:17.281250,121.77,88.65
29610,2018-06-29 09:00:17.312500,150.45,88.65
29611,2018-06-29 09:00:17.343750,147.82,88.65
29612,2018-06-29 09:00:17.375000,126.3,88.65
29613,2018-06-29 09:00:17.406250,107.12,88.65
29614,2018-06-29 09:00:17.437500,98.09,88.65
29615,2018-06-29 09:00:17.468750,92.46,88.65
29616,2018-06-29 09:00:17.500000,76.16,88.65
29617,2018-06-29 09:00:17.531250,36.64,89.28
29618,2018-06-29 09:00:17.562500,-23.43,89.28
29619,2018-06-29 09:00:17.593750,-84.26,89.28
29620,2018-06-29 09:00:17.625000,-125.52,89.28
29621,2018-06-29 09:00:17.656250,-138.8,89.28
29622,2018-06-29 09:00:17.687500,-124.09,89.28
29623,2018-06-29 09:00:17.718750,-84.85,89.28
29624,2018-06-29 09:00:17.750000,-29.57,89.28
29625,2018-06-29 09:00:17.781250,27.0,89.28
29626,2018-06-29 09:00:17.812500,69.61,89.28
29627,2018-06-29 09:00:17.843750,91.73,89.28
29628,2018-06-29 09:00:17.875000,96.54,89.28
29629,2018-06-29 09:00:17.906250,90.37,89.28
29630,2018-06-29 09:00:17.937500,78.9,89.28
29631,2018-06-29 09:00:17.968750,65.21,89.28
29632,2018-06-29 09:00:18.000000,44.77,89.28
29633,2018-06-29 09:00:18.031250,8.12,89.28
29634,2018-06-29 09:00:18.062500,-44.89,89.28
29635,2018-06-29 09:00:18.093750,-99.79,89.28
29636,2018-06-29 09:00:18.125000,-140.27,89.28
29637,2018-06-29 09:00:18.156250,-159.75,89.28
29638,2018-06-29 09:00:18.187500,-159.6,89.28
29639,2018-06-29 09:00:18.218750,-144.2,89.28
29640,2018-06-29 09:00:18.250000,-120.54,89.28
29641,2018-06-29 09:00:18.281250,-96.1,89.28
29642,2018-06-29 09:00:18.312500,-73.92,89.28
29643,2018-06-29 09:00:18.343750,-51.16,89.28
29644,2018-06-29 09:00:18.375000,-21.02,89.28
29645,2018-06-29 09:00:18.406250,24.71,89.28
29646,2018-06-29 09:00:18.437500,86.4,89.28
29647,2018-06-29 09:00:18.468750,145.86,89.28
29648,2018-06-29 09:00:18.500000,176.69,89.28
29649,2018-06-29 09:00:18.531250,172.06,89.88
29650,2018-06-29 09:00:18.562500,150.45,89.88
29651,2018-06-29 09:00:18.593750,131.6,89.88
29652,2018-06-29 09:00:18.625000,119.09,89.88
29653,2018-06-29 09:00:18.656250,103.57,89.88
29654,2018-06-29 09:00:18.687500,71.25,89.88
29655,2018-06-29 09:00:18.718750,15.83,89.88
29656,2018-06-29 09:00:18.750000,-51.02,89.88
29657,2018-06-29 09:00:18.781250,-107.76,89.88
29658,2018-06-29 09:00:18.812500,-142.5,89.88
29659,2018-06-29 09:00:18.843750,-155.1,89.88
29660,2018-06-29 09:00:18.875000,-146.55,89.88
29661,2018-06-29 09:00:18.906250,-118.03,89.88
29662,2018-06-29 09:00:18.937500,-78.83,89.88
29663,2018-06-29 09:00:18.968750,-43.09,89.88
29664,2018-06-29 09:00:19.000000,-17.37,89.88
29665,2018-06-29 09:00:19.031250,0.95,89.88
29666,2018-06-29 09:00:19.062500,17.06,89.88
29667,2018-06-29 09:00:19.093750,33.12,89.88
29668,2018-06-29 09:00:19.125000,46.65,89.88
29669,2018-06-29 09:00:19.156250,46.97,89.88
29670,2018-06-29 09:00:19.187500,25.29,89.88
29671,2018-06-29 09:00:19.218750,-12.46,89.88
29672,2018-06-29 09:00:19.250000,-51.29,89.88
29673,2018-06-29 09:00:19.281250,-79.49,89.88
29674,2018-06-29 09:00:19.312500,-96.5,89.88
29675,2018-06-29 09:00:19.343750,-103.18,89.88
29676,2018-06-29 09:00:19.375000,-103.59,89.88
29677,2018-06-29 09:00:19.406250,-101.21,89.88
29678,2018-06-29 09:00:19.437500,-98.87,89.88
29679,2018-06-29 09:00:19.468750,-91.76,89.88
29680,2018-06-29 09:00:19.500000,-75.38,89.88
29681,2018-06-29 09:00:19.531250,-50.48,90.48
29682,2018-06-29 09:00:19.562500,-14.05,90.48
29683,2018-06-29 09:00:19.593750,27.7,90.48
29684,2018-06-29 09:00:19.625000,63.97,90.48
29685,2018-06-29 09:00:19.656250,93.75,90.48
29686,2018-06-29 09:00:19.687500,95.02,90.48
29687,2018-06-29 09:00:19.718750,84.97,90.48
29688,2018-06-29 09:00:19.750000,74.46,90.48
29689,2018-06-29 09:00:19.781250,64.48,90.48
29690,2018-06-29 09:00:19.812500,52.52,90.48
29691,2018-06-29 09:00:19.843750,40.9,90.48
29692,2018-06-29 09:00:19.875000,2.71,90.48
29693,2018-06-29 09:00:19.906250,-43.35,90.48
29694,2018-06-29 09:00:19.937500,-75.71,90.48
29695,2018-06-29 09:00:19.968750,-84.04,90.48
29696,2018-06-29 09:00:20.000000,-73.21,90.48
29697,2018-06-29 09:00:20.031250,-44.83,90.48
29698,2018-06-29 09:00:20.062500,-1.91,90.48
29699,2018-06-29 09:00:20.093750,46.33,90.48
29700,2018-06-29 09:00:20.125000,87.67,90.48
29701,2018-06-29 09:00:20.156250,113.83,90.48
29702,2018-06-29 09:00:20.187500,123.73,90.48
29703,2018-06-29 09:00:20.218750,118.43,90.48
29704,2018-06-29 09:00:20.250000,105.9,90.48
29705,2018-06-29 09:00:20.281250,92.39,90.48
29706,2018-06-29 09:00:20.312500,72.21,90.48
29707,2018-06-29 09:00:20.343750,32.06,90.48
29708,2018-06-29 09:00:20.375000,-24.38,90.48
29709,2018-06-29 09:00:20.406250,-77.47,90.48
29710,2018-06-29 09:00:20.437500,-114.23,90.48
29711,2018-06-29 09:00:20.468750,-135.86,90.48
29712,2018-06-29 09:00:20.500000,-147.75,90.48
29713,2018-06-29 09:00:20.531250,-153.82,91.1
29714,2018-06-29 09:00:20.562500,-157.11,91.1
29715,2018-06-29 09:00:20.593750,-155.57,91.1
29716,2018-06-29 09:00:20.625000,-142.27,91.1
29717,2018-06-29 09:00:20.656250,-111.35,91.1
29718,2018-06-29 09:00:20.687500,-63.23,91.1
29719,2018-06-29 09:00:20.718750,-6.11,91.1
29720,2018-06-29 09:00:20.750000,44.16,91.1
29721,2018-06-29 09:00:20.781250,72.39,91.1
29722,2018-06-29 09:00:20.812500,77.34,91.1
29723,2018-06-29 09:00:20.843750,72.1,91.1
29724,2018-06-29 09:00:20.875000,69.29,91.1
29725,2018-06-29 09:00:20.906250,71.11,91.1
29726,2018-06-29 09:00:20.937500,71.83,91.1
29727,2018-06-29 09:00:20.968750,63.57,91.1
29728,2018-06-29 09:00:21.000000,44.15,91.1
29729,2018-06-29 09:00:21.031250,21.98,91.1
29730,2018-06-29 09:00:21.062500,12.41,91.1
29731,2018-06-29 09:00:21.093750,25.7,91.1
29732,2018-06-29 09:00:21.125000,57.76,91.1
29733,2018-06-29 09:00:21.156250,93.61,91.1
29734,2018-06-29 09:00:21.187500,120.15,91.1
29735,2018-06-29 09:00:21.218750,135.52,91.1
29736,2018-06-29 09:00:21.250000,142.74,91.1
29737,2018-06-29 09:00:21.281250,144.09,91.1
29738,2018-06-29 09:00:21.312500,138.36,91.1
29739,2018-06-29 09:00:21.343750,120.61,91.1
29740,2018-06-29 09:00:21.375000,87.37,91.1
29741,2018-06-29 09:00:21.406250,46.64,91.1
29742,2018-06-29 09:00:21.437500,15.91,91.1
29743,2018-06-29 09:00:21.468750,-7.3,91.1
29744,2018-06-29 09:00:21.500000,-35.76,91.1
29745,2018-06-29 09:00:21.531250,-75.01,91.57
29746,2018-06-29 09:00:21.562500,-120.83,91.57
29747,2018-06-29 09:00:21.593750,-156.9,91.57
29748,2018-06-29 09:00:21.625000,-172.12,91.57
29749,2018-06-29 09:00:21.656250,-169.23,91.57
29750,2018-06-29 09:00:21.687500,-151.88,91.57
29751,2018-06-29 09:00:21.718750,-121.63,91.57
29752,2018-06-29 09:00:21.750000,-83.94,91.57
29753,2018-06-29 09:00:21.781250,-44.13,91.57
29754,2018-06-29 09:00:21.812500,-6.55,91.57
29755,2018-06-29 09:00:21.843750,25.12,91.57
29756,2018-06-29 09:00:21.875000,50.94,91.57
29757,2018-06-29 09:00:21.906250,72.6,91.57
29758,2018-06-29 09:00:21.937500,83.93,91.57
29759,2018-06-29 09:00:21.968750,74.95,91.57
29760,2018-06-29 09:00:22.000000,52.63,91.57
29761,2018-06-29 09:00:22.031250,38.8,91.57
29762,2018-06-29 09:00:22.062500,39.94,91.57
29763,2018-06-29 09:00:22.093750,38.63,91.57
29764,2018-06-29 09:00:22.125000,21.63,91.57
29765,2018-06-29 09:00:22.156250,-6.57,91.57
29766,2018-06-29 09:00:22.187500,-38.36,91.57
29767,2018-06-29 09:00:22.218750,-66.09,91.57
29768,2018-06-29 09:00:22.250000,-76.69,91.57
29769,2018-06-29 09:00:22.281250,-63.76,91.57
29770,2018-06-29 09:00:22.312500,-37.86,91.57
29771,2018-06-29 09:00:22.343750,-12.44,91.57
29772,2018-06-29 09:00:22.375000,9.94,91.57
29773,2018-06-29 09:00:22.406250,32.41,91.57
29774,2018-06-29 09:00:22.437500,53.63,91.57
29775,2018-06-29 09:00:22.468750,66.12,91.57
29776,2018-06-29 09:00:22.500000,62.65,91.57
29777,2018-06-29 09:00:22.531250,43.6,92.07
29778,2018-06-29 09:00:22.562500,18.44,92.07
29779,2018-06-29 09:00:22.593750,0.17,92.07
29780,2018-06-29 09:00:22.625000,-4.98,92.07
29781,2018-06-29 09:00:22.656250,-5.61,92.07
29782,2018-06-29 09:00:22.687500,-17.03,92.07
29783,2018-06-29 09:00:22.718750,-42.35,92.07
29784,2018-06-29 09:00:22.750000,-70.34,92.07
29785,2018-06-29 09:00:22.781250,-89.69,92.07
29786,2018-06-29 09:00:22.812500,-92.16,92.07
29787,2018-06-29 09:00:22.843750,-71.06,92.07
29788,2018-06-29 09:00:22.875000,-32.67,92.07
29789,2018-06-29 09:00:22.906250,3.08,92.07
29790,2018-06-29 09:00:22.937500,24.7,92.07
29791,2018-06-29 09:00:22.968750,38.57,92.07
29792,2018-06-29 09:00:23.000000,52.62,92.07
29793,2018-06-29 09:00:23.031250,66.78,92.07
29794,2018-06-29 09:00:23.062500,78.45,92.07
29795,2018-06-29 09:00:23.093750,84.04,92.07
29796,2018-06-29 09:00:23.125000,79.52,92.07
29797,2018-06-29 09:00:23.156250,67.05,92.07
29798,2018-06-29 09:00:23.187500,53.1,92.07
29799,2018-06-29 09:00:23.218750,38.28,92.07
29800,2018-06-29 09:00:23.250000,19.61,92.07
29801,2018-06-29 09:00:23.281250,0.45,92.07
29802,2018-06-29 09:00:23.312500,-13.1,92.07
29803,2018-06-29 09:00:23.343750,-20.93,92.07
29804,2018-06-29 09:00:23.375000,-25.55,92.07
29805,2018-06-29 09:00:23.406250,-26.52,92.07
29806,2018-06-29 09:00:23.437500,-22.65,92.07
29807,2018-06-29 09:00:23.468750,-13.39,92.07
29808,2018-06-29 09:00:23.500000,2.11,92.07
29809,2018-06-29 09:00:23.531250,22.22,92.5
29810,2018-06-29 09:00:23.562500,42.3,92.5
29811,2018-06-29 09:00:23.593750,59.46,92.5
29812,2018-06-29 09:00:23.625000,71.59,92.5
29813,2018-06-29 09:00:23.656250,72.34,92.5
29814,2018-06-29 09:00:23.687500,56.87,92.5
29815,2018-06-29 09:00:23.718750,32.29,92.5
29816,2018-06-29 09:00:23.750000,12.84,92.5
29817,2018-06-29 09:00:23.781250,4.04,92.5
29818,2018-06-29 09:00:23.812500,-2.42,92.5
29819,2018-06-29 09:00:23.843750,-18.71,92.5
29820,2018-06-29 09:00:23.875000,-48.54,92.5
29821,2018-06-29 09:00:23.906250,-83.05,92.5
29822,2018-06-29 09:00:23.937500,-108.42,92.5
29823,2018-06-29 09:00:23.968750,-118.96,92.5
29824,2018-06-29 09:00:24.000000,-119.86,92.5
29825,2018-06-29 09:00:24.031250,-115.59,92.5
29826,2018-06-29 09:00:24.062500,-103.32,92.5
29827,2018-06-29 09:00:24.093750,-79.63,92.5
29828,2018-06-29 09:00:24.125000,-45.74,92.5
29829,2018-06-29 09:00:24.156250,-6.92,92.5
29830,2018-06-29 09:00:24.187500,26.71,92.5
29831,2018-06-29 09:00:24.218750,46.45,92.5
29832,2018-06-29 09:00:24.250000,55.03,92.5
29833,2018-06-29 09:00:24.281250,60.08,92.5
29834,2018-06-29 09:00:24.312500,60.9,92.5
29835,2018-06-29 09:00:24.343750,53.23,92.5
29836,2018-06-29 09:00:24.375000,39.27,92.5
29837,2018-06-29 09:00:24.406250,21.02,92.5
29838,2018-06-29 09:00:24.437500,-7.98,92.5
29839,2018-06-29 09:00:24.468750,-52.06,92.5
29840,2018-06-29 09:00:24.500000,-98.73,92.5
29841,2018-06-29 09:00:24.531250,-126.17,92.98
29842,2018-06-29 09:00:24.562500,-124.73,92.98
29843,2018-06-29 09:00:24.593750,-99.74,92.98
29844,2018-06-29 09:00:24.625000,-58.11,92.98
29845,2018-06-29 09:00:24.656250,-7.37,92.98
29846,2018-06-29 09:00:24.687500,38.85,92.98
29847,2018-06-29 09:00:24.718750,69.47,92.98
29848,2018-06-29 09:00:24.750000,84.95,92.98
29849,2018-06-29 09:00:24.781250,91.93,92.98
29850,2018-06-29 09:00:24.812500,95.41,92.98
29851,2018-06-29 09:00:24.843750,95.17,92.98
29852,2018-06-29 09:00:24.875000,84.13,92.98
29853,2018-06-29 09:00:24.906250,55.76,92.98
29854,2018-06-29 09:00:24.937500,14.9,92.98
29855,2018-06-29 09:00:24.968750,-26.35,92.98
29856,2018-06-29 09:00:25.000000,-61.3,92.98
29857,2018-06-29 09:00:25.031250,-88.52,92.98
29858,2018-06-29 09:00:25.062500,-104.79,92.98
29859,2018-06-29 09:00:25.093750,-109.11,92.98
29860,2018-06-29 09:00:25.125000,-108.48,92.98
29861,2018-06-29 09:00:25.156250,-109.26,92.98
29862,2018-06-29 09:00:25.187500,-107.78,92.98
29863,2018-06-29 09:00:25.218750,-96.63,92.98
29864,2018-06-29 09:00:25.250000,-72.06,92.98
29865,2018-06-29 09:00:25.281250,-31.9,92.98
29866,2018-06-29 09:00:25.312500,20.04,92.98
29867,2018-06-29 09:00:25.343750,67.96,92.98
29868,2018-06-29 09:00:25.375000,98.48,92.98
29869,2018-06-29 09:00:25.406250,115.02,92.98
29870,2018-06-29 09:00:25.437500,124.46,92.98
29871,2018-06-29 09:00:25.468750,125.28,92.98
29872,2018-06-29 09:00:25.500000,117.95,92.98
29873,2018-06-29 09:00:25.531250,106.73,93.43
29874,2018-06-29 09:00:25.562500,86.41,93.43
29875,2018-06-29 09:00:25.593750,47.55,93.43
29876,2018-06-29 09:00:25.625000,-4.31,93.43
29877,2018-06-29 09:00:25.656250,-50.25,93.43
29878,2018-06-29 09:00:25.687500,-76.35,93.43
29879,2018-06-29 09:00:25.718750,-80.68,93.43
29880,2018-06-29 09:00:25.750000,-66.09,93.43
29881,2018-06-29 09:00:25.781250,-37.67,93.43
29882,2018-06-29 09:00:25.812500,-6.51,93.43
29883,2018-06-29 09:00:25.843750,15.08,93.43
29884,2018-06-29 09:00:25.875000,24.19,93.43
29885,2018-06-29 09:00:25.906250,26.37,93.43
29886,2018-06-29 09:00:25.937500,25.49,93.43
29887,2018-06-29 09:00:25.968750,19.8,93.43
29888,2018-06-29 09:00:26.000000,5.76,93.43
29889,2018-06-29 09:00:26.031250,-16.14,93.43
29890,2018-06-29 09:00:26.062500,-39.03,93.43
29891,2018-06-29 09:00:26.093750,-55.56,93.43
29892,2018-06-29 09:00:26.125000,-65.27,93.43
29893,2018-06-29 09:00:26.156250,-71.59,93.43
29894,2018-06-29 09:00:26.187500,-74.27,93.43
29895,2018-06-29 09:00:26.218750,-71.18,93.43
29896,2018-06-29 09:00:26.250000,-64.74,93.43
29897,2018-06-29 09:00:26.281250,-58.6,93.43
29898,2018-06-29 09:00:26.312500,-51.06,93.43
29899,2018-06-29 09:00:26.343750,-38.58,93.43
29900,2018-06-29 09:00:26.375000,-20.8,93.43
29901,2018-06-29 09:00:26.406250,4.26,93.43
29902,2018-06-29 09:00:26.437500,41.19,93.43
29903,2018-06-29 09:00:26.468750,84.98,93.43
29904,2018-06-29 09:00:26.500000,117.81,93.43
29905,2018-06-29 09:00:26.531250,126.65,93.92
29906,2018-06-29 09:00:26.562500,116.13,93.92
29907,2018-06-29 09:00:26.593750,99.08,93.92
29908,2018-06-29 09:00:26.625000,82.9,93.92
29909,2018-06-29 09:00:26.656250,66.53,93.92
29910,2018-06-29 09:00:26.687500,41.33,93.92
29911,2018-06-29 09:00:26.718750,-2.52,93.92
29912,2018-06-29 09:00:26.750000,-60.9,93.92
29913,2018-06-29 09:00:26.781250,-111.68,93.92
29914,2018-06-29 09:00:26.812500,-133.18,93.92
29915,2018-06-29 09:00:26.843750,-121.0,93.92
29916,2018-06-29 09:00:26.875000,-83.02,93.92
29917,2018-06-29 09:00:26.906250,-29.45,93.92
29918,2018-06-29 09:00:26.937500,25.85,93.92
29919,2018-06-29 09:00:26.968750,66.91,93.92
29920,2018-06-29 09:00:27.000000,87.09,93.92
29921,2018-06-29 09:00:27.031250,93.24,93.92
29922,2018-06-29 09:00:27.062500,95.49,93.92
29923,2018-06-29 09:00:27.093750,95.96,93.92
29924,2018-06-29 09:00:27.125000,86.89,93.92
29925,2018-06-29 09:00:27.156250,59.96,93.92
29926,2018-06-29 09:00:27.187500,18.61,93.92
29927,2018-06-29 09:00:27.218750,-23.54,93.92
29928,2018-06-29 09:00:27.250000,-57.0,93.92
29929,2018-06-29 09:00:27.281250,-80.99,93.92
29930,2018-06-29 09:00:27.312500,-95.9,93.92
29931,2018-06-29 09:00:27.343750,-101.53,93.92
29932,2018-06-29 09:00:27.375000,-101.87,93.92
29933,2018-06-29 09:00:27.406250,-102.63,93.92
29934,2018-06-29 09:00:27.437500,-103.58,93.92
29935,2018-06-29 09:00:27.468750,-97.76,93.92
29936,2018-06-29 09:00:27.500000,-77.05,93.92
29937,2018-06-29 09:00:27.531250,-36.06,94.42
29938,2018-06-29 09:00:27.562500,24.26,94.42
29939,2018-06-29 09:00:27.593750,90.62,94.42
29940,2018-06-29 09:00:27.625000,141.64,94.42
29941,2018-06-29 09:00:27.656250,164.97,94.42
29942,2018-06-29 09:00:27.687500,165.77,94.42
29943,2018-06-29 09:00:27.718750,156.06,94.42
29944,2018-06-29 09:00:27.750000,142.76,94.42
29945,2018-06-29 09:00:27.781250,126.09,94.42
29946,2018-06-29 09:00:27.812500,100.96,94.42
29947,2018-06-29 09:00:27.843750,60.92,94.42
29948,2018-06-29 09:00:27.875000,7.57,94.42
29949,2018-06-29 09:00:27.906250,-46.71,94.42
29950,2018-06-29 09:00:27.937500,-88.52,94.42
29951,2018-06-29 09:00:27.968750,-111.22,94.42
29952,2018-06-29 09:00:28.000000,-112.01,94.42
29953,2018-06-29 09:00:28.031250,-90.09,94.42
29954,2018-06-29 09:00:28.062500,-52.68,94.42
29955,2018-06-29 09:00:28.093750,-16.71,94.42
29956,2018-06-29 09:00:28.125000,1.79,94.42
29957,2018-06-29 09:00:28.156250,0.03,94.42
29958,2018-06-29 09:00:28.187500,-8.77,94.42
29959,2018-06-29 09:00:28.218750,-7.12,94.42
29960,2018-06-29 09:00:28.250000,6.48,94.42
29961,2018-06-29 09:00:28.281250,14.15,94.42
29962,2018-06-29 09:00:28.312500,2.39,94.42
29963,2018-06-29 09:00:28.343750,-21.41,94.42
29964,2018-06-29 09:00:28.375000,-42.72,94.42
29965,2018-06-29 09:00:28.406250,-55.79,94.42
29966,2018-06-29 09:00:28.437500,-60.63,94.42
29967,2018-06-29 09:00:28.468750,-57.8,94.42
29968,2018-06-29 09:00:28.500000,-50.61,94.42
29969,2018-06-29 09:00:28.531250,-43.55,94.93
29970,2018-06-29 09:00:28.562500,-36.09,94.93
29971,2018-06-29 09:00:28.593750,-22.72,94.93
29972,2018-06-29 09:00:28.625000,0.7,94.93
29973,2018-06-29 09:00:28.656250,35.16,94.93
29974,2018-06-29 09:00:28.687500,79.43,94.93
29975,2018-06-29 09:00:28.718750,123.8,94.93
29976,2018-06-29 09:00:28.750000,149.79,94.93
29977,2018-06-29 09:00:28.781250,148.29,94.93
29978,2018-06-29 09:00:28.812500,130.14,94.93
29979,2018-06-29 09:00:28.843750,109.94,94.93
29980,2018-06-29 09:00:28.875000,89.82,94.93
29981,2018-06-29 09:00:28.906250,62.35,94.93
29982,2018-06-29 09:00:28.937500,20.32,94.93
29983,2018-06-29 09:00:28.968750,-34.58,94.93
29984,2018-06-29 09:00:29.000000,-88.65,94.93
29985,2018-06-29 09:00:29.031250,-126.08,94.93
29986,2018-06-29 09:00:29.062500,-140.57,94.93
29987,2018-06-29 09:00:29.093750,-132.67,94.93
29988,2018-06-29 09:00:29.125000,-102.11,94.93
29989,2018-06-29 09:00:29.156250,-50.95,94.93
29990,2018-06-29 09:00:29.187500,8.37,94.93
29991,2018-06-29 09:00:29.218750,56.47,94.93
29992,2018-06-29 09:00:29.250000,81.42,94.93
29993,2018-06-29 09:00:29.281250,86.76,94.93
29994,2018-06-29 09:00:29.312500,85.08,94.93
29995,2018-06-29 09:00:29.343750,84.99,94.93
29996,2018-06-29 09:00:29.375000,81.78,94.93
29997,2018-06-29 09:00:29.406250,62.47,94.93
29998,2018-06-29 09:00:29.437500,23.58,94.93
29999,2018-06-29 09:00:29.468750,-21.85,94.93
30000,2018-06-29 09:00:29.500000,-58.95,94.93
30001,2018-06-29 09:00:29.531250,-83.45,95.47
30002,2018-06-29 09:00:29.562500,-97.72,95.47
30003,2018-06-29 09:00:29.593750,-104.19,95.47
30004,2018-06-29 09:00:29.625000,-105.42,95.47
30005,2018-06-29 09:00:29.656250,-104.5,95.47
30006,2018-06-29 09:00:29.687500,-102.15,95.47
30007,2018-06-29 09:00:29.718750,-95.01,95.47
30008,2018-06-29 09:00:29.750000,-78.01,95.47
30009,2018-06-29 09:00:29.781250,-46.4,95.47
30010,2018-06-29 09:00:29.812500,3.59,95.47
30011,2018-06-29 09:00:29.843750,67.58,95.47
30012,2018-06-29 09:00:29.875000,126.04,95.47
30013,2018-06-29 09:00:29.906250,158.79,95.47
30014,2018-06-29 09:00:29.937500,166.6,95.47
30015,2018-06-29 09:00:29.968750,164.27,95.47
30016,2018-06-29 09:00:30.000000,158.38,95.47
30017,2018-06-29 09:00:30.031250,146.16,95.47
30018,2018-06-29 09:00:30.062500,124.91,95.47
30019,2018-06-29 09:00:30.093750,90.29,95.47
30020,2018-06-29 09:00:30.125000,38.43,95.47
30021,2018-06-29 09:00:30.156250,-22.76,95.47
30022,2018-06-29 09:00:30.187500,-75.54,95.47
30023,2018-06-29 09:00:30.218750,-107.09,95.47
30024,2018-06-29 09:00:30.250000,-115.35,95.47
30025,2018-06-29 09:00:30.281250,-103.41,95.47
30026,2018-06-29 09:00:30.312500,-76.84,95.47
30027,2018-06-29 09:00:30.343750,-45.43,95.47
30028,2018-06-29 09:00:30.375000,-19.89,95.47
30029,2018-06-29 09:00:30.406250,-5.04,95.47
30030,2018-06-29 09:00:30.437500,0.4,95.47
30031,2018-06-29 09:00:30.468750,-2.13,95.47
30032,2018-06-29 09:00:30.500000,-12.93,95.47
30033,2018-06-29 09:00:30.531250,-30.68,96.0
30034,2018-06-29 09:00:30.562500,-50.8,96.0
30035,2018-06-29 09:00:30.593750,-67.49,96.0
30036,2018-06-29 09:00:30.625000,-77.03,96.0
30037,2018-06-29 09:00:30.656250,-79.79,96.0
30038,2018-06-29 09:00:30.687500,-79.01,96.0
30039,2018-06-29 09:00:30.718750,-76.65,96.0
30040,2018-06-29 09:00:30.750000,-71.0,96.0
30041,2018-06-29 09:00:30.781250,-60.5,96.0
30042,2018-06-29 09:00:30.812500,-47.53,96.0
30043,2018-06-29 09:00:30.843750,-34.15,96.0
30044,2018-06-29 09:00:30.875000,-17.2,96.0
30045,2018-06-29 09:00:30.906250,8.18,96.0
30046,2018-06-29 09:00:30.937500,45.22,96.0
30047,2018-06-29 09:00:30.968750,94.24,96.0
30048,2018-06-29 09:00:31.000000,145.46,96.0
30049,2018-06-29 09:00:31.031250,178.92,96.0
30050,2018-06-29 09:00:31.062500,183.93,96.0
30051,2018-06-29 09:00:31.093750,170.38,96.0
30052,2018-06-29 09:00:31.125000,151.86,96.0
30053,2018-06-29 09:00:31.156250,130.45,96.0
30054,2018-06-29 09:00:31.187500,103.32,96.0
30055,2018-06-29 09:00:31.218750,67.72,96.0
30056,2018-06-29 09:00:31.250000,17.67,96.0
30057,2018-06-29 09:00:31.281250,-48.68,96.0
30058,2018-06-29 09:00:31.312500,-118.49,96.0
30059,2018-06-29 09:00:31.343750,-171.12,96.0
30060,2018-06-29 09:00:31.375000,-191.4,96.0
30061,2018-06-29 09:00:31.406250,-172.46,96.0
30062,2018-06-29 09:00:31.437500,-117.11,96.0
30063,2018-06-29 09:00:31.468750,-43.38,96.0
30064,2018-06-29 09:00:31.500000,22.11,96.0
30065,2018-06-29 09:00:31.531250,62.71,96.5
30066,2018-06-29 09:00:31.562500,79.57,96.5
30067,2018-06-29 09:00:31.593750,83.5,96.5
30068,2018-06-29 09:00:31.625000,84.52,96.5
30069,2018-06-29 09:00:31.656250,83.29,96.5
30070,2018-06-29 09:00:31.687500,69.07,96.5
30071,2018-06-29 09:00:31.718750,33.68,96.5
30072,2018-06-29 09:00:31.750000,-13.98,96.5
30073,2018-06-29 09:00:31.781250,-56.3,96.5
30074,2018-06-29 09:00:31.812500,-84.14,96.5
30075,2018-06-29 09:00:31.843750,-98.55,96.5
30076,2018-06-29 09:00:31.875000,-103.2,96.5
30077,2018-06-29 09:00:31.906250,-101.72,96.5
30078,2018-06-29 09:00:31.937500,-98.09,96.5
30079,2018-06-29 09:00:31.968750,-93.57,96.5
30080,2018-06-29 09:00:32.000000,-84.29,96.5
30081,2018-06-29 09:00:32.031250,-65.99,96.5
30082,2018-06-29 09:00:32.062500,-38.51,96.5
30083,2018-06-29 09:00:32.093750,-1.93,96.5
30084,2018-06-29 09:00:32.125000,43.5,96.5
30085,2018-06-29 09:00:32.156250,88.38,96.5
30086,2018-06-29 09:00:32.187500,117.58,96.5
30087,2018-06-29 09:00:32.218750,127.27,96.5
30088,2018-06-29 09:00:32.250000,126.18,96.5
30089,2018-06-29 09:00:32.281250,120.78,96.5
30090,2018-06-29 09:00:32.312500,109.54,96.5
30091,2018-06-29 09:00:32.343750,86.76,96.5
30092,2018-06-29 09:00:32.375000,46.77,96.5
30093,2018-06-29 09:00:32.406250,-8.25,96.5
30094,2018-06-29 09:00:32.437500,-63.57,96.5
30095,2018-06-29 09:00:32.468750,-101.74,96.5
30096,2018-06-29 09:00:32.500000,-113.26,96.5
30097,2018-06-29 09:00:32.531250,-95.0,97.03
30098,2018-06-29 09:00:32.562500,-49.6,97.03
30099,2018-06-29 09:00:32.593750,7.59,97.03
30100,2018-06-29 09:00:32.625000,53.47,97.03
30101,2018-06-29 09:00:32.656250,75.95,97.03
30102,2018-06-29 09:00:32.687500,79.8,97.03
30103,2018-06-29 09:00:32.718750,74.87,97.03
30104,2018-06-29 09:00:32.750000,67.49,97.03
30105,2018-06-29 09:00:32.781250,57.04,97.03
30106,2018-06-29 09:00:32.812500,33.11,97.03
30107,2018-06-29 09:00:32.843750,-13.19,97.03
30108,2018-06-29 09:00:32.875000,-71.1,97.03
30109,2018-06-29 09:00:32.906250,-116.69,97.03
30110,2018-06-29 09:00:32.937500,-137.51,97.03
30111,2018-06-29 09:00:32.968750,-138.76,97.03
30112,2018-06-29 09:00:33.000000,-129.46,97.03
30113,2018-06-29 09:00:33.031250,-114.88,97.03
30114,2018-06-29 09:00:33.062500,-99.43,97.03
30115,2018-06-29 09:00:33.093750,-85.1,97.03
30116,2018-06-29 09:00:33.125000,-67.63,97.03
30117,2018-06-29 09:00:33.156250,-40.86,97.03
30118,2018-06-29 09:00:33.187500,-3.2,97.03
30119,2018-06-29 09:00:33.218750,43.68,97.03
30120,2018-06-29 09:00:33.250000,94.81,97.03
30121,2018-06-29 09:00:33.281250,137.37,97.03
30122,2018-06-29 09:00:33.312500,158.14,97.03
30123,2018-06-29 09:00:33.343750,158.97,97.03
30124,2018-06-29 09:00:33.375000,152.22,97.03
30125,2018-06-29 09:00:33.406250,141.99,97.03
30126,2018-06-29 09:00:33.437500,123.77,97.03
30127,2018-06-29 09:00:33.468750,95.56,97.03
30128,2018-06-29 09:00:33.500000,56.05,97.03
30129,2018-06-29 09:00:33.531250,2.27,97.52
30130,2018-06-29 09:00:33.562500,-60.68,97.52
30131,2018-06-29 09:00:33.593750,-117.9,97.52
30132,2018-06-29 09:00:33.625000,-156.45,97.52
30133,2018-06-29 09:00:33.656250,-169.45,97.52
30134,2018-06-29 09:00:33.687500,-153.49,97.52
30135,2018-06-29 09:00:33.718750,-113.54,97.52
30136,2018-06-29 09:00:33.750000,-65.65,97.52
30137,2018-06-29 09:00:33.781250,-25.57,97.52
30138,2018-06-29 09:00:33.812500,2.07,97.52
30139,2018-06-29 09:00:33.843750,20.15,97.52
30140,2018-06-29 09:00:33.875000,31.01,97.52
30141,2018-06-29 09:00:33.906250,33.83,97.52
30142,2018-06-29 09:00:33.937500,25.93,97.52
30143,2018-06-29 09:00:33.968750,6.86,97.52
30144,2018-06-29 09:00:34.000000,-17.36,97.52
30145,2018-06-29 09:00:34.031250,-37.75,97.52
30146,2018-06-29 09:00:34.062500,-50.14,97.52
30147,2018-06-29 09:00:34.093750,-56.15,97.52
30148,2018-06-29 09:00:34.125000,-58.05,97.52
30149,2018-06-29 09:00:34.156250,-56.74,97.52
30150,2018-06-29 09:00:34.187500,-53.83,97.52
30151,2018-06-29 09:00:34.218750,-50.62,97.52
30152,2018-06-29 09:00:34.250000,-44.33,97.52
30153,2018-06-29 09:00:34.281250,-30.2,97.52
30154,2018-06-29 09:00:34.312500,-6.84,97.52
30155,2018-06-29 09:00:34.343750,25.75,97.52
30156,2018-06-29 09:00:34.375000,67.62,97.52
30157,2018-06-29 09:00:34.406250,110.98,97.52
30158,2018-06-29 09:00:34.437500,141.28,97.52
30159,2018-06-29 09:00:34.468750,153.33,97.52
30160,2018-06-29 09:00:34.500000,154.61,97.52
30161,2018-06-29 09:00:34.531250,150.34,98.02
30162,2018-06-29 09:00:34.562500,138.88,98.02
30163,2018-06-29 09:00:34.593750,118.99,98.02
30164,2018-06-29 09:00:34.625000,88.62,98.02
30165,2018-06-29 09:00:34.656250,42.91,98.02
30166,2018-06-29 09:00:34.687500,-15.22,98.02
30167,2018-06-29 09:00:34.718750,-69.74,98.02
30168,2018-06-29 09:00:34.750000,-104.58,98.02
30169,2018-06-29 09:00:34.781250,-115.3,98.02
30170,2018-06-29 09:00:34.812500,-104.44,98.02
30171,2018-06-29 09:00:34.843750,-75.89,98.02
30172,2018-06-29 09:00:34.875000,-39.18,98.02
30173,2018-06-29 09:00:34.906250,-8.71,98.02
30174,2018-06-29 09:00:34.937500,7.7,98.02
30175,2018-06-29 09:00:34.968750,13.08,98.02
30176,2018-06-29 09:00:35.000000,12.68,98.02
30177,2018-06-29 09:00:35.031250,7.82,98.02
30178,2018-06-29 09:00:35.062500,-3.35,98.02
30179,2018-06-29 09:00:35.093750,-23.96,98.02
30180,2018-06-29 09:00:35.125000,-52.73,98.02
30181,2018-06-29 09:00:35.156250,-79.27,98.02
30182,2018-06-29 09:00:35.187500,-92.03,98.02
30183,2018-06-29 09:00:35.218750,-90.29,98.02
30184,2018-06-29 09:00:35.250000,-81.77,98.02
30185,2018-06-29 09:00:35.281250,-71.42,98.02
30186,2018-06-29 09:00:35.312500,-59.38,98.02
30187,2018-06-29 09:00:35.343750,-46.36,98.02
30188,2018-06-29 09:00:35.375000,-33.54,98.02
30189,2018-06-29 09:00:35.406250,-19.26,98.02
30190,2018-06-29 09:00:35.437500,-0.19,98.02
30191,2018-06-29 09:00:35.468750,27.44,98.02
30192,2018-06-29 09:00:35.500000,67.0,98.02
30193,2018-06-29 09:00:35.531250,113.38,98.52
30194,2018-06-29 09:00:35.562500,148.79,98.52
30195,2018-06-29 09:00:35.593750,158.96,98.52
30196,2018-06-29 09:00:35.625000,148.77,98.52
30197,2018-06-29 09:00:35.656250,131.53,98.52
30198,2018-06-29 09:00:35.687500,112.29,98.52
30199,2018-06-29 09:00:35.718750,89.11,98.52
30200,2018-06-29 09:00:35.750000,58.25,98.52
30201,2018-06-29 09:00:35.781250,14.37,98.52
30202,2018-06-29 09:00:35.812500,-42.97,98.52
30203,2018-06-29 09:00:35.843750,-102.72,98.52
30204,2018-06-29 09:00:35.875000,-148.46,98.52
30205,2018-06-29 09:00:35.906250,-167.22,98.52
30206,2018-06-29 09:00:35.937500,-151.77,98.52
30207,2018-06-29 09:00:35.968750,-104.01,98.52
30208,2018-06-29 09:00:36.000000,-39.79,98.52
30209,2018-06-29 09:00:36.031250,17.39,98.52
30210,2018-06-29 09:00:36.062500,52.94,98.52
30211,2018-06-29 09:00:36.093750,68.79,98.52
30212,2018-06-29 09:00:36.125000,74.72,98.52
30213,2018-06-29 09:00:36.156250,76.77,98.52
30214,2018-06-29 09:00:36.187500,72.9,98.52
30215,2018-06-29 09:00:36.218750,56.59,98.52
30216,2018-06-29 09:00:36.250000,25.56,98.52
30217,2018-06-29 09:00:36.281250,-12.43,98.52
30218,2018-06-29 09:00:36.312500,-45.51,98.52
30219,2018-06-29 09:00:36.343750,-67.51,98.52
30220,2018-06-29 09:00:36.375000,-79.75,98.52
30221,2018-06-29 09:00:36.406250,-86.16,98.52
30222,2018-06-29 09:00:36.437500,-89.4,98.52
30223,2018-06-29 09:00:36.468750,-90.22,98.52
30224,2018-06-29 09:00:36.500000,-88.02,98.52
30225,2018-06-29 09:00:36.531250,-81.71,99.13
30226,2018-06-29 09:00:36.562500,-71.14,99.13
30227,2018-06-29 09:00:36.593750,-56.87,99.13
30228,2018-06-29 09:00:36.625000,-36.03,99.13
30229,2018-06-29 09:00:36.656250,-1.37,99.13
30230,2018-06-29 09:00:36.687500,48.06,99.13
30231,2018-06-29 09:00:36.718750,98.3,99.13
30232,2018-06-29 09:00:36.750000,132.17,99.13
30233,2018-06-29 09:00:36.781250,145.82,99.13
30234,2018-06-29 09:00:36.812500,146.09,99.13
30235,2018-06-29 09:00:36.843750,137.82,99.13
30236,2018-06-29 09:00:36.875000,122.03,99.13
30237,2018-06-29 09:00:36.906250,99.34,99.13
30238,2018-06-29 09:00:36.937500,68.73,99.13
30239,2018-06-29 09:00:36.968750,28.95,99.13
30240,2018-06-29 09:00:37.000000,-14.73,99.13
30241,2018-06-29 09:00:37.031250,-50.14,99.13
30242,2018-06-29 09:00:37.062500,-68.25,99.13
30243,2018-06-29 09:00:37.093750,-70.03,99.13
30244,2018-06-29 09:00:37.125000,-61.05,99.13
30245,2018-06-29 09:00:37.156250,-46.15,99.13
30246,2018-06-29 09:00:37.187500,-31.15,99.13
30247,2018-06-29 09:00:37.218750,-21.78,99.13
30248,2018-06-29 09:00:37.250000,-18.61,99.13
30249,2018-06-29 09:00:37.281250,-18.43,99.13
30250,2018-06-29 09:00:37.312500,-21.13,99.13
30251,2018-06-29 09:00:37.343750,-30.49,99.13
30252,2018-06-29 09:00:37.375000,-48.04,99.13
30253,2018-06-29 09:00:37.406250,-68.18,99.13
30254,2018-06-29 09:00:37.437500,-81.56,99.13
30255,2018-06-29 09:00:37.468750,-83.87,99.13
30256,2018-06-29 09:00:37.500000,-78.49,99.13
30257,2018-06-29 09:00:37.531250,-69.87,99.37
30258,2018-06-29 09:00:37.562500,-58.76,99.37
30259,2018-06-29 09:00:37.593750,-45.24,99.37
30260,2018-06-29 09:00:37.625000,-31.91,99.37
30261,2018-06-29 09:00:37.656250,-20.49,99.37
30262,2018-06-29 09:00:37.687500,-7.99,99.37
30263,2018-06-29 09:00:37.718750,11.33,99.37
30264,2018-06-29 09:00:37.750000,42.11,99.37
30265,2018-06-29 09:00:37.781250,85.12,99.37
30266,2018-06-29 09:00:37.812500,133.07,99.37
30267,2018-06-29 09:00:37.843750,170.66,99.37
30268,2018-06-29 09:00:37.875000,186.22,99.37
30269,2018-06-29 09:00:37.906250,181.09,99.37
30270,2018-06-29 09:00:37.937500,162.54,99.37
30271,2018-06-29 09:00:37.968750,136.18,99.37
30272,2018-06-29 09:00:38.000000,108.59,99.37
30273,2018-06-29 09:00:38.031250,81.77,99.37
30274,2018-06-29 09:00:38.062500,43.9,99.37
30275,2018-06-29 09:00:38.093750,-16.55,99.37
30276,2018-06-29 09:00:38.125000,-89.67,99.37
30277,2018-06-29 09:00:38.156250,-151.99,99.37
30278,2018-06-29 09:00:38.187500,-187.88,99.37
30279,2018-06-29 09:00:38.218750,-193.09,99.37
30280,2018-06-29 09:00:38.250000,-168.02,99.37
30281,2018-06-29 09:00:38.281250,-117.82,99.37
30282,2018-06-29 09:00:38.312500,-55.04,99.37
30283,2018-06-29 09:00:38.343750,3.74,99.37
30284,2018-06-29 09:00:38.375000,46.89,99.37
30285,2018-06-29 09:00:38.406250,72.58,99.37
30286,2018-06-29 09:00:38.437500,84.18,99.37
30287,2018-06-29 09:00:38.468750,86.09,99.37
30288,2018-06-29 09:00:38.500000,83.39,99.37
30289,2018-06-29 09:00:38.531250,76.67,99.52
30290,2018-06-29 09:00:38.562500,59.65,99.52
30291,2018-06-29 09:00:38.593750,29.61,99.52
30292,2018-06-29 09:00:38.625000,-5.59,99.52
30293,2018-06-29 09:00:38.656250,-35.7,99.52
30294,2018-06-29 09:00:38.687500,-56.3,99.52
30295,2018-06-29 09:00:38.718750,-67.79,99.52
30296,2018-06-29 09:00:38.750000,-73.0,99.52
30297,2018-06-29 09:00:38.781250,-76.06,99.52
30298,2018-06-29 09:00:38.812500,-78.58,99.52
30299,2018-06-29 09:00:38.843750,-77.81,99.52
30300,2018-06-29 09:00:38.875000,-72.06,99.52
30301,2018-06-29 09:00:38.906250,-65.39,99.52
30302,2018-06-29 09:00:38.937500,-61.03,99.52
30303,2018-06-29 09:00:38.968750,-52.05,99.52
30304,2018-06-29 09:00:39.000000,-26.56,99.52
30305,2018-06-29 09:00:39.031250,16.5,99.52
30306,2018-06-29 09:00:39.062500,61.98,99.52
30307,2018-06-29 09:00:39.093750,90.98,99.52
30308,2018-06-29 09:00:39.125000,97.0,99.52
30309,2018-06-29 09:00:39.156250,88.26,99.52
30310,2018-06-29 09:00:39.187500,76.36,99.52
30311,2018-06-29 09:00:39.218750,65.15,99.52
30312,2018-06-29 09:00:39.250000,50.35,99.52
30313,2018-06-29 09:00:39.281250,27.5,99.52
30314,2018-06-29 09:00:39.312500,-1.7,99.52
30315,2018-06-29 09:00:39.343750,-30.26,99.52
30316,2018-06-29 09:00:39.375000,-50.98,99.52
30317,2018-06-29 09:00:39.406250,-60.37,99.52
30318,2018-06-29 09:00:39.437500,-60.16,99.52
30319,2018-06-29 09:00:39.468750,-55.81,99.52
30320,2018-06-29 09:00:39.500000,-51.49,99.52
30321,2018-06-29 09:00:39.531250,-46.09,99.67
30322,2018-06-29 09:00:39.562500,-36.23,99.67
30323,2018-06-29 09:00:39.593750,-22.61,99.67
30324,2018-06-29 09:00:39.625000,-10.2,99.67
30325,2018-06-29 09:00:39.656250,-4.37,99.67
30326,2018-06-29 09:00:39.687500,-7.63,99.67
30327,2018-06-29 09:00:39.718750,-16.2,99.67
30328,2018-06-29 09:00:39.750000,-19.98,99.67
30329,2018-06-29 09:00:39.781250,-12.93,99.67
30330,2018-06-29 09:00:39.812500,-1.33,99.67
30331,2018-06-29 09:00:39.843750,4.66,99.67
30332,2018-06-29 09:00:39.875000,2.96,99.67
30333,2018-06-29 09:00:39.906250,-2.32,99.67
30334,2018-06-29 09:00:39.937500,-7.79,99.67
30335,2018-06-29 09:00:39.968750,-11.41,99.67
30336,2018-06-29 09:00:40.000000,-11.42,99.67
30337,2018-06-29 09:00:40.031250,-7.72,99.67
30338,2018-06-29 09:00:40.062500,-1.92,99.67
30339,2018-06-29 09:00:40.093750,4.89,99.67
30340,2018-06-29 09:00:40.125000,13.66,99.67
30341,2018-06-29 09:00:40.156250,27.4,99.67
30342,2018-06-29 09:00:40.187500,50.7,99.67
30343,2018-06-29 09:00:40.218750,87.89,99.67
30344,2018-06-29 09:00:40.250000,135.14,99.67
30345,2018-06-29 09:00:40.281250,174.03,99.67
30346,2018-06-29 09:00:40.312500,183.89,99.67
30347,2018-06-29 09:00:40.343750,163.0,99.67
30348,2018-06-29 09:00:40.375000,128.1,99.67
30349,2018-06-29 09:00:40.406250,95.64,99.67
30350,2018-06-29 09:00:40.437500,70.76,99.67
30351,2018-06-29 09:00:40.468750,46.25,99.67
30352,2018-06-29 09:00:40.500000,7.82,99.67
30353,2018-06-29 09:00:40.531250,-48.11,99.78
30354,2018-06-29 09:00:40.562500,-103.15,99.78
30355,2018-06-29 09:00:40.593750,-134.68,99.78
30356,2018-06-29 09:00:40.625000,-138.87,99.78
30357,2018-06-29 09:00:40.656250,-127.09,99.78
30358,2018-06-29 09:00:40.687500,-109.91,99.78
30359,2018-06-29 09:00:40.718750,-92.35,99.78
30360,2018-06-29 09:00:40.750000,-76.31,99.78
30361,2018-06-29 09:00:40.781250,-61.37,99.78
30362,2018-06-29 09:00:40.812500,-47.08,99.78
30363,2018-06-29 09:00:40.843750,-35.34,99.78
30364,2018-06-29 09:00:40.875000,-27.5,99.78
30365,2018-06-29 09:00:40.906250,-21.75,99.78
30366,2018-06-29 09:00:40.937500,-15.96,99.78
30367,2018-06-29 09:00:40.968750,-10.62,99.78
30368,2018-06-29 09:00:41.000000,-7.58,99.78
30369,2018-06-29 09:00:41.031250,-7.75,99.78
30370,2018-06-29 09:00:41.062500,-10.53,99.78
30371,2018-06-29 09:00:41.093750,-14.42,99.78
30372,2018-06-29 09:00:41.125000,-18.13,99.78
30373,2018-06-29 09:00:41.156250,-21.7,99.78
30374,2018-06-29 09:00:41.187500,-25.92,99.78
30375,2018-06-29 09:00:41.218750,-30.21,99.78
30376,2018-06-29 09:00:41.250000,-32.51,99.78
30377,2018-06-29 09:00:41.281250,-32.29,99.78
30378,2018-06-29 09:00:41.312500,-31.73,99.78
30379,2018-06-29 09:00:41.343750,-32.6,99.78
30380,2018-06-29 09:00:41.375000,-33.11,99.78
30381,2018-06-29 09:00:41.406250,-27.7,99.78
30382,2018-06-29 09:00:41.437500,-11.19,99.78
30383,2018-06-29 09:00:41.468750,14.72,99.78
30384,2018-06-29 09:00:41.500000,40.66,99.78
30385,2018-06-29 09:00:41.531250,57.19,99.87
30386,2018-06-29 09:00:41.562500,61.55,99.87
30387,2018-06-29 09:00:41.593750,58.14,99.87
30388,2018-06-29 09:00:41.625000,53.49,99.87
30389,2018-06-29 09:00:41.656250,48.7,99.87
30390,2018-06-29 09:00:41.687500,39.35,99.87
30391,2018-06-29 09:00:41.718750,24.95,99.87
30392,2018-06-29 09:00:41.750000,11.34,99.87
30393,2018-06-29 09:00:41.781250,2.19,99.87
30394,2018-06-29 09:00:41.812500,-3.84,99.87
30395,2018-06-29 09:00:41.843750,-7.25,99.87
30396,2018-06-29 09:00:41.875000,-6.4,99.87
30397,2018-06-29 09:00:41.906250,-1.96,99.87
30398,2018-06-29 09:00:41.937500,2.39,99.87
30399,2018-06-29 09:00:41.968750,5.68,99.87
30400,2018-06-29 09:00:42.000000,14.56,99.87
30401,2018-06-29 09:00:42.031250,37.65,99.87
30402,2018-06-29 09:00:42.062500,71.23,99.87
30403,2018-06-29 09:00:42.093750,95.47,99.87
30404,2018-06-29 09:00:42.125000,91.02,99.87
30405,2018-06-29 09:00:42.156250,58.06,99.87
30406,2018-06-29 09:00:42.187500,17.1,99.87
30407,2018-06-29 09:00:42.218750,-8.13,99.87
30408,2018-06-29 09:00:42.250000,-11.11,99.87
30409,2018-06-29 09:00:42.281250,-7.0,99.87
30410,2018-06-29 09:00:42.312500,-13.7,99.87
30411,2018-06-29 09:00:42.343750,-32.5,99.87
30412,2018-06-29 09:00:42.375000,-52.5,99.87
30413,2018-06-29 09:00:42.406250,-65.8,99.87
30414,2018-06-29 09:00:42.437500,-69.99,99.87
30415,2018-06-29 09:00:42.468750,-64.23,99.87
30416,2018-06-29 09:00:42.500000,-51.42,99.87
30417,2018-06-29 09:00:42.531250,-37.05,99.92
30418,2018-06-29 09:00:42.562500,-21.51,99.92
30419,2018-06-29 09:00:42.593750,0.3,99.92
30420,2018-06-29 09:00:42.625000,31.87,99.92
30421,2018-06-29 09:00:42.656250,74.7,99.92
30422,2018-06-29 09:00:42.687500,127.53,99.92
30423,2018-06-29 09:00:42.718750,176.9,99.92
30424,2018-06-29 09:00:42.750000,200.37,99.92
30425,2018-06-29 09:00:42.781250,188.42,99.92
30426,2018-06-29 09:00:42.812500,153.24,99.92
30427,2018-06-29 09:00:42.843750,113.05,99.92
30428,2018-06-29 09:00:42.875000,77.82,99.92
30429,2018-06-29 09:00:42.906250,45.0,99.92
30430,2018-06-29 09:00:42.937500,0.85,99.92
30431,2018-06-29 09:00:42.968750,-63.56,99.92
30432,2018-06-29 09:00:43.000000,-134.0,99.92
30433,2018-06-29 09:00:43.031250,-183.3,99.92
30434,2018-06-29 09:00:43.062500,-198.49,99.92
30435,2018-06-29 09:00:43.093750,-185.71,99.92
30436,2018-06-29 09:00:43.125000,-153.74,99.92
30437,2018-06-29 09:00:43.156250,-105.4,99.92
30438,2018-06-29 09:00:43.187500,-43.09,99.92
30439,2018-06-29 09:00:43.218750,23.47,99.92
30440,2018-06-29 09:00:43.250000,78.33,99.92
30441,2018-06-29 09:00:43.281250,109.83,99.92
30442,2018-06-29 09:00:43.312500,117.1,99.92
30443,2018-06-29 09:00:43.343750,106.98,99.92
30444,2018-06-29 09:00:43.375000,89.81,99.92
30445,2018-06-29 09:00:43.406250,73.74,99.92
30446,2018-06-29 09:00:43.437500,55.53,99.92
30447,2018-06-29 09:00:43.468750,24.59,99.92
30448,2018-06-29 09:00:43.500000,-19.4,99.92
30449,2018-06-29 09:00:43.531250,-63.14,99.93
30450,2018-06-29 09:00:43.562500,-95.49,99.93
30451,2018-06-29 09:00:43.593750,-115.95,99.93
30452,2018-06-29 09:00:43.625000,-127.21,99.93
30453,2018-06-29 09:00:43.656250,-129.58,99.93
30454,2018-06-29 09:00:43.687500,-124.93,99.93
30455,2018-06-29 09:00:43.718750,-119.08,99.93
30456,2018-06-29 09:00:43.750000,-114.31,99.93
30457,2018-06-29 09:00:43.781250,-103.08,99.93
30458,2018-06-29 09:00:43.812500,-74.48,99.93
30459,2018-06-29 09:00:43.843750,-23.57,99.93
30460,2018-06-29 09:00:43.875000,45.43,99.93
30461,2018-06-29 09:00:43.906250,116.81,99.93
30462,2018-06-29 09:00:43.937500,168.04,99.93
30463,2018-06-29 09:00:43.968750,188.02,99.93
30464,2018-06-29 09:00:44.000000,185.11,99.93
30465,2018-06-29 09:00:44.031250,171.21,99.93
30466,2018-06-29 09:00:44.062500,150.93,99.93
30467,2018-06-29 09:00:44.093750,127.45,99.93
30468,2018-06-29 09:00:44.125000,99.85,99.93
30469,2018-06-29 09:00:44.156250,57.15,99.93
30470,2018-06-29 09:00:44.187500,-5.72,99.93
30471,2018-06-29 09:00:44.218750,-72.38,99.93
30472,2018-06-29 09:00:44.250000,-120.67,99.93
30473,2018-06-29 09:00:44.281250,-144.07,99.93
30474,2018-06-29 09:00:44.312500,-147.39,99.93
30475,2018-06-29 09:00:44.343750,-133.6,99.93
30476,2018-06-29 09:00:44.375000,-105.35,99.93
30477,2018-06-29 09:00:44.406250,-71.12,99.93
30478,2018-06-29 09:00:44.437500,-41.8,99.93
30479,2018-06-29 09:00:44.468750,-24.11,99.93
30480,2018-06-29 09:00:44.500000,-19.57,99.93
30481,2018-06-29 09:00:44.531250,-24.09,99.93
30482,2018-06-29 09:00:44.562500,-27.46,99.93
30483,2018-06-29 09:00:44.593750,-21.69,99.93
30484,2018-06-29 09:00:44.625000,-11.62,99.93
30485,2018-06-29 09:00:44.656250,-9.09,99.93
30486,2018-06-29 09:00:44.687500,-17.52,99.93
30487,2018-06-29 09:00:44.718750,-29.92,99.93
30488,2018-06-29 09:00:44.750000,-39.12,99.93
30489,2018-06-29 09:00:44.781250,-43.11,99.93
30490,2018-06-29 09:00:44.812500,-42.9,99.93
30491,2018-06-29 09:00:44.843750,-39.17,99.93
30492,2018-06-29 09:00:44.875000,-32.24,99.93
30493,2018-06-29 09:00:44.906250,-23.79,99.93
30494,2018-06-29 09:00:44.937500,-15.14,99.93
30495,2018-06-29 09:00:44.968750,-3.76,99.93
30496,2018-06-29 09:00:45.000000,15.48,99.93
30497,2018-06-29 09:00:45.031250,47.64,99.93
30498,2018-06-29 09:00:45.062500,94.24,99.93
30499,2018-06-29 09:00:45.093750,145.04,99.93
30500,2018-06-29 09:00:45.125000,179.46,99.93
30501,2018-06-29 09:00:45.156250,186.05,99.93
30502,2018-06-29 09:00:45.187500,172.24,99.93
30503,2018-06-29 09:00:45.218750,148.52,99.93
30504,2018-06-29 09:00:45.250000,117.97,99.93
30505,2018-06-29 09:00:45.281250,84.17,99.93
30506,2018-06-29 09:00:45.312500,50.15,99.93
30507,2018-06-29 09:00:45.343750,10.07,99.93
30508,2018-06-29 09:00:45.375000,-40.82,99.93
30509,2018-06-29 09:00:45.406250,-92.27,99.93
30510,2018-06-29 09:00:45.437500,-129.07,99.93
30511,2018-06-29 09:00:45.468750,-146.61,99.93
30512,2018-06-29 09:00:45.500000,-147.05,99.93
30513,2018-06-29 09:00:45.531250,-131.28,99.93
30514,2018-06-29 09:00:45.562500,-102.25,99.93
30515,2018-06-29 09:00:45.593750,-68.29,99.93
30516,2018-06-29 09:00:45.625000,-37.95,99.93
30517,2018-06-29 09:00:45.656250,-13.59,99.93
30518,2018-06-29 09:00:45.687500,8.52,99.93
30519,2018-06-29 09:00:45.718750,30.4,99.93
30520,2018-06-29 09:00:45.750000,46.56,99.93
30521,2018-06-29 09:00:45.781250,50.39,99.93
30522,2018-06-29 09:00:45.812500,43.25,99.93
30523,2018-06-29 09:00:45.843750,30.89,99.93
30524,2018-06-29 09:00:45.875000,15.16,99.93
30525,2018-06-29 09:00:45.906250,-3.99,99.93
30526,2018-06-29 09:00:45.937500,-23.08,99.93
30527,2018-06-29 09:00:45.968750,-37.7,99.93
30528,2018-06-29 09:00:46.000000,-47.48,99.93
30529,2018-06-29 09:00:46.031250,-55.57,99.93
30530,2018-06-29 09:00:46.062500,-64.6,99.93
30531,2018-06-29 09:00:46.093750,-73.64,99.93
30532,2018-06-29 09:00:46.125000,-77.58,99.93
30533,2018-06-29 09:00:46.156250,-70.85,99.93
30534,2018-06-29 09:00:46.187500,-52.66,99.93
30535,2018-06-29 09:00:46.218750,-27.56,99.93
30536,2018-06-29 09:00:46.250000,-0.27,99.93
30537,2018-06-29 09:00:46.281250,29.12,99.93
30538,2018-06-29 09:00:46.312500,62.2,99.93
30539,2018-06-29 09:00:46.343750,93.65,99.93
30540,2018-06-29 09:00:46.375000,111.25,99.93
30541,2018-06-29 09:00:46.406250,108.42,99.93
30542,2018-06-29 09:00:46.437500,91.99,99.93
30543,2018-06-29 09:00:46.468750,74.45,99.93
30544,2018-06-29 09:00:46.500000,62.96,99.93
30545,2018-06-29 09:00:46.531250,55.77,99.92
30546,2018-06-29 09:00:46.562500,45.09,99.92
30547,2018-06-29 09:00:46.593750,24.86,99.92
30548,2018-06-29 09:00:46.625000,-1.92,99.92
30549,2018-06-29 09:00:46.656250,-26.26,99.92
30550,2018-06-29 09:00:46.687500,-42.82,99.92
30551,2018-06-29 09:00:46.718750,-52.8,99.92
30552,2018-06-29 09:00:46.750000,-59.12,99.92
30553,2018-06-29 09:00:46.781250,-63.24,99.92
30554,2018-06-29 09:00:46.812500,-66.38,99.92
30555,2018-06-29 09:00:46.843750,-70.78,99.92
30556,2018-06-29 09:00:46.875000,-78.32,99.92
30557,2018-06-29 09:00:46.906250,-87.84,99.92
30558,2018-06-29 09:00:46.937500,-91.95,99.92
30559,2018-06-29 09:00:46.968750,-80.22,99.92
30560,2018-06-29 09:00:47.000000,-50.38,99.92
30561,2018-06-29 09:00:47.031250,-13.61,99.92
30562,2018-06-29 09:00:47.062500,16.37,99.92
30563,2018-06-29 09:00:47.093750,35.66,99.92
30564,2018-06-29 09:00:47.125000,47.98,99.92
30565,2018-06-29 09:00:47.156250,55.29,99.92
30566,2018-06-29 09:00:47.187500,56.1,99.92
30567,2018-06-29 09:00:47.218750,50.2,99.92
30568,2018-06-29 09:00:47.250000,40.39,99.92
30569,2018-06-29 09:00:47.281250,29.84,99.92
30570,2018-06-29 09:00:47.312500,20.66,99.92
30571,2018-06-29 09:00:47.343750,14.42,99.92
30572,2018-06-29 09:00:47.375000,10.9,99.92
30573,2018-06-29 09:00:47.406250,7.22,99.92
30574,2018-06-29 09:00:47.437500,1.21,99.92
30575,2018-06-29 09:00:47.468750,-5.71,99.92
30576,2018-06-29 09:00:47.500000,-11.59,99.92
30577,2018-06-29 09:00:47.531250,-17.35,99.92
30578,2018-06-29 09:00:47.562500,-24.58,99.92
30579,2018-06-29 09:00:47.593750,-32.6,99.92
30580,2018-06-29 09:00:47.625000,-39.71,99.92
30581,2018-06-29 09:00:47.656250,-45.15,99.92
30582,2018-06-29 09:00:47.687500,-49.59,99.92
30583,2018-06-29 09:00:47.718750,-54.88,99.92
30584,2018-06-29 09:00:47.750000,-61.57,99.92
30585,2018-06-29 09:00:47.781250,-65.51,99.92
30586,2018-06-29 09:00:47.812500,-60.39,99.92
30587,2018-06-29 09:00:47.843750,-45.96,99.92
30588,2018-06-29 09:00:47.875000,-30.02,99.92
30589,2018-06-29 09:00:47.906250,-18.45,99.92
30590,2018-06-29 09:00:47.937500,-6.87,99.92
30591,2018-06-29 09:00:47.968750,13.99,99.92
30592,2018-06-29 09:00:48.000000,46.79,99.92
30593,2018-06-29 09:00:48.031250,83.75,99.92
30594,2018-06-29 09:00:48.062500,112.15,99.92
30595,2018-06-29 09:00:48.093750,123.44,99.92
30596,2018-06-29 09:00:48.125000,120.36,99.92
30597,2018-06-29 09:00:48.156250,113.24,99.92
30598,2018-06-29 09:00:48.187500,106.78,99.92
30599,2018-06-29 09:00:48.218750,96.18,99.92
30600,2018-06-29 09:00:48.250000,77.48,99.92
30601,2018-06-29 09:00:48.281250,53.29,99.92
30602,2018-06-29 09:00:48.312500,27.67,99.92
30603,2018-06-29 09:00:48.343750,3.87,99.92
30604,2018-06-29 09:00:48.375000,-14.29,99.92
30605,2018-06-29 09:00:48.406250,-25.93,99.92
30606,2018-06-29 09:00:48.437500,-34.42,99.92
30607,2018-06-29 09:00:48.468750,-41.31,99.92
30608,2018-06-29 09:00:48.500000,-44.11,99.92
30609,2018-06-29 09:00:48.531250,-42.75,99.95
30610,2018-06-29 09:00:48.562500,-42.36,99.95
30611,2018-06-29 09:00:48.593750,-46.97,99.95
30612,2018-06-29 09:00:48.625000,-53.62,99.95
30613,2018-06-29 09:00:48.656250,-54.73,99.95
30614,2018-06-29 09:00:48.687500,-45.54,99.95
30615,2018-06-29 09:00:48.718750,-28.68,99.95
30616,2018-06-29 09:00:48.750000,-11.42,99.95
30617,2018-06-29 09:00:48.781250,1.11,99.95
30618,2018-06-29 09:00:48.812500,8.81,99.95
30619,2018-06-29 09:00:48.843750,13.81,99.95
30620,2018-06-29 09:00:48.875000,17.18,99.95
30621,2018-06-29 09:00:48.906250,18.96,99.95
30622,2018-06-29 09:00:48.937500,19.25,99.95
30623,2018-06-29 09:00:48.968750,18.32,99.95
30624,2018-06-29 09:00:49.000000,16.51,99.95
30625,2018-06-29 09:00:49.031250,14.91,99.95
30626,2018-06-29 09:00:49.062500,14.58,99.95
30627,2018-06-29 09:00:49.093750,14.85,99.95
30628,2018-06-29 09:00:49.125000,14.06,99.95
30629,2018-06-29 09:00:49.156250,11.84,99.95
30630,2018-06-29 09:00:49.187500,9.09,99.95
30631,2018-06-29 09:00:49.218750,6.68,99.95
30632,2018-06-29 09:00:49.250000,4.69,99.95
30633,2018-06-29 09:00:49.281250,2.06,99.95
30634,2018-06-29 09:00:49.312500,-2.56,99.95
30635,2018-06-29 09:00:49.343750,-9.04,99.95
30636,2018-06-29 09:00:49.375000,-15.68,99.95
30637,2018-06-29 09:00:49.406250,-21.39,99.95
30638,2018-06-29 09:00:49.437500,-27.04,99.95
30639,2018-06-29 09:00:49.468750,-33.71,99.95
30640,2018-06-29 09:00:49.500000,-39.66,99.95
30641,2018-06-29 09:00:49.531250,-40.38,100.0
30642,2018-06-29 09:00:49.562500,-33.36,100.0
30643,2018-06-29 09:00:49.593750,-20.81,100.0
30644,2018-06-29 09:00:49.625000,-6.87,100.0
30645,2018-06-29 09:00:49.656250,5.31,100.0
30646,2018-06-29 09:00:49.687500,13.58,100.0
30647,2018-06-29 09:00:49.718750,17.3,100.0
30648,2018-06-29 09:00:49.750000,18.18,100.0
30649,2018-06-29 09:00:49.781250,18.25,100.0
30650,2018-06-29 09:00:49.812500,17.61,100.0
30651,2018-06-29 09:00:49.843750,15.5,100.0
30652,2018-06-29 09:00:49.875000,12.43,100.0
30653,2018-06-29 09:00:49.906250,10.06,100.0
30654,2018-06-29 09:00:49.937500,9.84,100.0
30655,2018-06-29 09:00:49.968750,11.36,100.0
30656,2018-06-29 09:00:50.000000,12.2,100.0
30657,2018-06-29 09:00:50.031250,10.41,100.0
30658,2018-06-29 09:00:50.062500,6.78,100.0
30659,2018-06-29 09:00:50.093750,3.15,100.0
30660,2018-06-29 09:00:50.125000,0.04,100.0
30661,2018-06-29 09:00:50.156250,-2.86,100.0
30662,2018-06-29 09:00:50.187500,-5.35,100.0
30663,2018-06-29 09:00:50.218750,-7.32,100.0
30664,2018-06-29 09:00:50.250000,-9.68,100.0
30665,2018-06-29 09:00:50.281250,-13.97,100.0
30666,2018-06-29 09:00:50.312500,-20.3,100.0
30667,2018-06-29 09:00:50.343750,-25.54,100.0
30668,2018-06-29 09:00:50.375000,-24.95,100.0
30669,2018-06-29 09:00:50.406250,-17.14,100.0
30670,2018-06-29 09:00:50.437500,-6.27,100.0
30671,2018-06-29 09:00:50.468750,2.15,100.0
30672,2018-06-29 09:00:50.500000,6.16,100.0
30673,2018-06-29 09:00:50.531250,7.21,100.08
30674,2018-06-29 09:00:50.562500,6.99,100.08
30675,2018-06-29 09:00:50.593750,6.24,100.08
30676,2018-06-29 09:00:50.625000,5.6,100.08
30677,2018-06-29 09:00:50.656250,5.96,100.08
30678,2018-06-29 09:00:50.687500,8.27,100.08
30679,2018-06-29 09:00:50.718750,13.0,100.08
30680,2018-06-29 09:00:50.750000,18.9,100.08
30681,2018-06-29 09:00:50.781250,22.86,100.08
30682,2018-06-29 09:00:50.812500,22.24,100.08
30683,2018-06-29 09:00:50.843750,17.02,100.08
30684,2018-06-29 09:00:50.875000,9.29,100.08
30685,2018-06-29 09:00:50.906250,0.88,100.08
30686,2018-06-29 09:00:50.937500,-7.97,100.08
30687,2018-06-29 09:00:50.968750,-17.83,100.08
30688,2018-06-29 09:00:51.000000,-27.88,100.08
30689,2018-06-29 09:00:51.031250,-35.93,100.08
30690,2018-06-29 09:00:51.062500,-41.51,100.08
30691,2018-06-29 09:00:51.093750,-47.25,100.08
30692,2018-06-29 09:00:51.125000,-55.32,100.08
30693,2018-06-29 09:00:51.156250,-64.48,100.08
30694,2018-06-29 09:00:51.187500,-71.44,100.08
30695,2018-06-29 09:00:51.218750,-72.76,100.08
30696,2018-06-29 09:00:51.250000,-66.35,100.08
30697,2018-06-29 09:00:51.281250,-52.67,100.08
30698,2018-06-29 09:00:51.312500,-32.04,100.08
30699,2018-06-29 09:00:51.343750,-1.96,100.08
30700,2018-06-29 09:00:51.375000,37.7,100.08
30701,2018-06-29 09:00:51.406250,77.89,100.08
30702,2018-06-29 09:00:51.437500,106.88,100.08
30703,2018-06-29 09:00:51.468750,123.15,100.08
30704,2018-06-29 09:00:51.500000,133.87,100.08
30705,2018-06-29 09:00:51.531250,142.05,100.25
30706,2018-06-29 09:00:51.562500,144.06,100.25
30707,2018-06-29 09:00:51.593750,138.53,100.25
30708,2018-06-29 09:00:51.625000,128.85,100.25
30709,2018-06-29 09:00:51.656250,117.5,100.25
30710,2018-06-29 09:00:51.687500,103.76,100.25
30711,2018-06-29 09:00:51.718750,86.27,100.25
30712,2018-06-29 09:00:51.750000,64.45,100.25
30713,2018-06-29 09:00:51.781250,38.41,100.25
30714,2018-06-29 09:00:51.812500,9.89,100.25
30715,2018-06-29 09:00:51.843750,-17.43,100.25
30716,2018-06-29 09:00:51.875000,-39.83,100.25
30717,2018-06-29 09:00:51.906250,-56.03,100.25
30718,2018-06-29 09:00:51.937500,-67.54,100.25
30719,2018-06-29 09:00:51.968750,-76.71,100.25
30720,2018-06-29 09:00:52.000000,-85.31,100.25
30721,2018-06-29 09:00:52.031250,-94.07,100.25
30722,2018-06-29 09:00:52.062500,-102.03,100.25
30723,2018-06-29 09:00:52.093750,-105.61,100.25
30724,2018-06-29 09:00:52.125000,-99.95,100.25
30725,2018-06-29 09:00:52.156250,-83.85,100.25
30726,2018-06-29 09:00:52.187500,-62.05,100.25
30727,2018-06-29 09:00:52.218750,-40.56,100.25
30728,2018-06-29 09:00:52.250000,-21.84,100.25
30729,2018-06-29 09:00:52.281250,-6.73,100.25
30730,2018-06-29 09:00:52.312500,3.32,100.25
30731,2018-06-29 09:00:52.343750,8.55,100.25
30732,2018-06-29 09:00:52.375000,11.34,100.25
30733,2018-06-29 09:00:52.406250,12.03,100.25
30734,2018-06-29 09:00:52.437500,8.92,100.25
30735,2018-06-29 09:00:52.468750,3.35,100.25
30736,2018-06-29 09:00:52.500000,-0.04,100.25
30737,2018-06-29 09:00:52.531250,0.82,100.43
30738,2018-06-29 09:00:52.562500,3.35,100.43
30739,2018-06-29 09:00:52.593750,4.95,100.43
30740,2018-06-29 09:00:52.625000,6.33,100.43
30741,2018-06-29 09:00:52.656250,8.46,100.43
30742,2018-06-29 09:00:52.687500,9.36,100.43
30743,2018-06-29 09:00:52.718750,6.68,100.43
30744,2018-06-29 09:00:52.750000,2.37,100.43
30745,2018-06-29 09:00:52.781250,0.96,100.43
30746,2018-06-29 09:00:52.812500,3.0,100.43
30747,2018-06-29 09:00:52.843750,4.27,100.43
30748,2018-06-29 09:00:52.875000,3.47,100.43
30749,2018-06-29 09:00:52.906250,5.86,100.43
30750,2018-06-29 09:00:52.937500,16.72,100.43
30751,2018-06-29 09:00:52.968750,34.82,100.43
30752,2018-06-29 09:00:53.000000,51.42,100.43
30753,2018-06-29 09:00:53.031250,52.47,100.43
30754,2018-06-29 09:00:53.062500,31.92,100.43
30755,2018-06-29 09:00:53.093750,5.64,100.43
30756,2018-06-29 09:00:53.125000,-5.43,100.43
30757,2018-06-29 09:00:53.156250,-3.44,100.43
30758,2018-06-29 09:00:53.187500,-4.49,100.43
30759,2018-06-29 09:00:53.218750,-11.64,100.43
30760,2018-06-29 09:00:53.250000,-18.68,100.43
30761,2018-06-29 09:00:53.281250,-25.73,100.43
30762,2018-06-29 09:00:53.312500,-33.3,100.43
30763,2018-06-29 09:00:53.343750,-35.64,100.43
30764,2018-06-29 09:00:53.375000,-30.32,100.43
30765,2018-06-29 09:00:53.406250,-22.48,100.43
30766,2018-06-29 09:00:53.437500,-16.34,100.43
30767,2018-06-29 09:00:53.468750,-10.75,100.43
30768,2018-06-29 09:00:53.500000,-3.99,100.43
30769,2018-06-29 09:00:53.531250,2.41,100.62
30770,2018-06-29 09:00:53.562500,5.55,100.62
30771,2018-06-29 09:00:53.593750,5.21,100.62
30772,2018-06-29 09:00:53.625000,4.55,100.62
30773,2018-06-29 09:00:53.656250,5.9,100.62
30774,2018-06-29 09:00:53.687500,7.97,100.62
30775,2018-06-29 09:00:53.718750,8.95,100.62
30776,2018-06-29 09:00:53.750000,9.27,100.62
30777,2018-06-29 09:00:53.781250,9.23,100.62
30778,2018-06-29 09:00:53.812500,7.13,100.62
30779,2018-06-29 09:00:53.843750,1.24,100.62
30780,2018-06-29 09:00:53.875000,-7.42,100.62
30781,2018-06-29 09:00:53.906250,-14.66,100.62
30782,2018-06-29 09:00:53.937500,-16.27,100.62
30783,2018-06-29 09:00:53.968750,-12.21,100.62
30784,2018-06-29 09:00:54.000000,-6.02,100.62
30785,2018-06-29 09:00:54.031250,-0.33,100.62
30786,2018-06-29 09:00:54.062500,4.35,100.62
30787,2018-06-29 09:00:54.093750,7.66,100.62
30788,2018-06-29 09:00:54.125000,8.85,100.62
30789,2018-06-29 09:00:54.156250,7.75,100.62
30790,2018-06-29 09:00:54.187500,5.02,100.62
30791,2018-06-29 09:00:54.218750,1.8,100.62
30792,2018-06-29 09:00:54.250000,-0.83,100.62
30793,2018-06-29 09:00:54.281250,-2.27,100.62
30794,2018-06-29 09:00:54.312500,-2.44,100.62
30795,2018-06-29 09:00:54.343750,-1.67,100.62
30796,2018-06-29 09:00:54.375000,-0.77,100.62
30797,2018-06-29 09:00:54.406250,-0.98,100.62
30798,2018-06-29 09:00:54.437500,-2.77,100.62
30799,2018-06-29 09:00:54.468750,-4.94,100.62
30800,2018-06-29 09:00:54.500000,-6.04,100.62
30801,2018-06-29 09:00:54.531250,-6.57,100.8
30802,2018-06-29 09:00:54.562500,-8.11,100.8
30803,2018-06-29 09:00:54.593750,-11.48,100.8
30804,2018-06-29 09:00:54.625000,-16.32,100.8
30805,2018-06-29 09:00:54.656250,-20.46,100.8
30806,2018-06-29 09:00:54.687500,-20.27,100.8
30807,2018-06-29 09:00:54.718750,-14.13,100.8
30808,2018-06-29 09:00:54.750000,-4.9,100.8
30809,2018-06-29 09:00:54.781250,3.14,100.8
30810,2018-06-29 09:00:54.812500,8.68,100.8
30811,2018-06-29 09:00:54.843750,12.78,100.8
30812,2018-06-29 09:00:54.875000,16.24,100.8
30813,2018-06-29 09:00:54.906250,18.87,100.8
30814,2018-06-29 09:00:54.937500,20.15,100.8
30815,2018-06-29 09:00:54.968750,19.6,100.8
30816,2018-06-29 09:00:55.000000,17.5,100.8
30817,2018-06-29 09:00:55.031250,15.03,100.8
30818,2018-06-29 09:00:55.062500,12.91,100.8
30819,2018-06-29 09:00:55.093750,10.65,100.8
30820,2018-06-29 09:00:55.125000,7.31,100.8
30821,2018-06-29 09:00:55.156250,2.85,100.8
30822,2018-06-29 09:00:55.187500,-1.84,100.8
30823,2018-06-29 09:00:55.218750,-6.05,100.8
30824,2018-06-29 09:00:55.250000,-9.81,100.8
30825,2018-06-29 09:00:55.281250,-12.98,100.8
30826,2018-06-29 09:00:55.312500,-14.9,100.8
30827,2018-06-29 09:00:55.343750,-15.93,100.8
30828,2018-06-29 09:00:55.375000,-17.56,100.8
30829,2018-06-29 09:00:55.406250,-20.03,100.8
30830,2018-06-29 09:00:55.437500,-21.58,100.8
30831,2018-06-29 09:00:55.468750,-19.33,100.8
30832,2018-06-29 09:00:55.500000,-10.89,100.8
30833,2018-06-29 09:00:55.531250,2.61,101.07
30834,2018-06-29 09:00:55.562500,15.93,101.07
30835,2018-06-29 09:00:55.593750,24.92,101.07
30836,2018-06-29 09:00:55.625000,29.9,101.07
30837,2018-06-29 09:00:55.656250,32.11,101.07
30838,2018-06-29 09:00:55.687500,31.51,101.07
30839,2018-06-29 09:00:55.718750,29.32,101.07
30840,2018-06-29 09:00:55.750000,27.45,101.07
30841,2018-06-29 09:00:55.781250,25.41,101.07
30842,2018-06-29 09:00:55.812500,21.5,101.07
30843,2018-06-29 09:00:55.843750,16.25,101.07
30844,2018-06-29 09:00:55.875000,12.01,101.07
30845,2018-06-29 09:00:55.906250,9.79,101.07
30846,2018-06-29 09:00:55.937500,8.03,101.07
30847,2018-06-29 09:00:55.968750,4.63,101.07
30848,2018-06-29 09:00:56.000000,-0.14,101.07
30849,2018-06-29 09:00:56.031250,-4.26,101.07
30850,2018-06-29 09:00:56.062500,-7.4,101.07
30851,2018-06-29 09:00:56.093750,-11.22,101.07
30852,2018-06-29 09:00:56.125000,-15.91,101.07
30853,2018-06-29 09:00:56.156250,-19.57,101.07
30854,2018-06-29 09:00:56.187500,-21.51,101.07
30855,2018-06-29 09:00:56.218750,-23.0,101.07
30856,2018-06-29 09:00:56.250000,-25.22,101.07
30857,2018-06-29 09:00:56.281250,-28.4,101.07
30858,2018-06-29 09:00:56.312500,-30.95,101.07
30859,2018-06-29 09:00:56.343750,-29.26,101.07
30860,2018-06-29 09:00:56.375000,-21.5,101.07
30861,2018-06-29 09:00:56.406250,-10.7,101.07
30862,2018-06-29 09:00:56.437500,-1.04,101.07
30863,2018-06-29 09:00:56.468750,6.59,101.07
30864,2018-06-29 09:00:56.500000,12.26,101.07
30865,2018-06-29 09:00:56.531250,14.83,101.03
30866,2018-06-29 09:00:56.562500,14.75,101.03
30867,2018-06-29 09:00:56.593750,14.72,101.03
30868,2018-06-29 09:00:56.625000,15.93,101.03
30869,2018-06-29 09:00:56.656250,16.79,101.03
30870,2018-06-29 09:00:56.687500,16.17,101.03
30871,2018-06-29 09:00:56.718750,14.82,101.03
30872,2018-06-29 09:00:56.750000,13.58,101.03
30873,2018-06-29 09:00:56.781250,12.33,101.03
30874,2018-06-29 09:00:56.812500,10.64,101.03
30875,2018-06-29 09:00:56.843750,8.22,101.03
30876,2018-06-29 09:00:56.875000,4.88,101.03
30877,2018-06-29 09:00:56.906250,0.59,101.03
30878,2018-06-29 09:00:56.937500,-4.35,101.03
30879,2018-06-29 09:00:56.968750,-9.24,101.03
30880,2018-06-29 09:00:57.000000,-13.71,101.03
30881,2018-06-29 09:00:57.031250,-18.07,101.03
30882,2018-06-29 09:00:57.062500,-22.76,101.03
30883,2018-06-29 09:00:57.093750,-27.69,101.03
30884,2018-06-29 09:00:57.125000,-32.4,101.03
30885,2018-06-29 09:00:57.156250,-37.1,101.03
30886,2018-06-29 09:00:57.187500,-42.77,101.03
30887,2018-06-29 09:00:57.218750,-48.03,101.03
30888,2018-06-29 09:00:57.250000,-46.99,101.03
30889,2018-06-29 09:00:57.281250,-33.6,101.03
30890,2018-06-29 09:00:57.312500,-8.44,101.03
30891,2018-06-29 09:00:57.343750,20.97,101.03
30892,2018-06-29 09:00:57.375000,45.9,101.03
30893,2018-06-29 09:00:57.406250,62.28,101.03
30894,2018-06-29 09:00:57.437500,72.24,101.03
30895,2018-06-29 09:00:57.468750,79.17,101.03
30896,2018-06-29 09:00:57.500000,82.91,101.03
30897,2018-06-29 09:00:57.531250,82.14,100.97
30898,2018-06-29 09:00:57.562500,78.16,100.97
30899,2018-06-29 09:00:57.593750,72.8,100.97
30900,2018-06-29 09:00:57.625000,65.44,100.97
30901,2018-06-29 09:00:57.656250,55.02,100.97
30902,2018-06-29 09:00:57.687500,42.7,100.97
30903,2018-06-29 09:00:57.718750,30.9,100.97
30904,2018-06-29 09:00:57.750000,21.11,100.97
30905,2018-06-29 09:00:57.781250,13.58,100.97
30906,2018-06-29 09:00:57.812500,8.29,100.97
30907,2018-06-29 09:00:57.843750,5.02,100.97
30908,2018-06-29 09:00:57.875000,3.15,100.97
30909,2018-06-29 09:00:57.906250,2.05,100.97
30910,2018-06-29 09:00:57.937500,0.97,100.97
30911,2018-06-29 09:00:57.968750,-1.17,100.97
30912,2018-06-29 09:00:58.000000,-5.06,100.97
30913,2018-06-29 09:00:58.031250,-10.62,100.97
30914,2018-06-29 09:00:58.062500,-17.83,100.97
30915,2018-06-29 09:00:58.093750,-26.51,100.97
30916,2018-06-29 09:00:58.125000,-35.51,100.97
30917,2018-06-29 09:00:58.156250,-43.26,100.97
30918,2018-06-29 09:00:58.187500,-48.1,100.97
30919,2018-06-29 09:00:58.218750,-47.73,100.97
30920,2018-06-29 09:00:58.250000,-41.53,100.97
30921,2018-06-29 09:00:58.281250,-33.19,100.97
30922,2018-06-29 09:00:58.312500,-27.14,100.97
30923,2018-06-29 09:00:58.343750,-23.38,100.97
30924,2018-06-29 09:00:58.375000,-19.45,100.97
30925,2018-06-29 09:00:58.406250,-15.48,100.97
30926,2018-06-29 09:00:58.437500,-13.37,100.97
30927,2018-06-29 09:00:58.468750,-12.92,100.97
30928,2018-06-29 09:00:58.500000,-12.48,100.97
30929,2018-06-29 09:00:58.531250,-11.65,100.8
30930,2018-06-29 09:00:58.562500,-10.85,100.8
30931,2018-06-29 09:00:58.593750,-9.49,100.8
30932,2018-06-29 09:00:58.625000,-6.78,100.8
30933,2018-06-29 09:00:58.656250,-3.44,100.8
30934,2018-06-29 09:00:58.687500,-1.11,100.8
30935,2018-06-29 09:00:58.718750,-0.13,100.8
30936,2018-06-29 09:00:58.750000,0.42,100.8
30937,2018-06-29 09:00:58.781250,0.8,100.8
30938,2018-06-29 09:00:58.812500,0.73,100.8
30939,2018-06-29 09:00:58.843750,1.29,100.8
30940,2018-06-29 09:00:58.875000,3.32,100.8
30941,2018-06-29 09:00:58.906250,4.48,100.8
30942,2018-06-29 09:00:58.937500,2.17,100.8
30943,2018-06-29 09:00:58.968750,-1.32,100.8
30944,2018-06-29 09:00:59.000000,-1.13,100.8
30945,2018-06-29 09:00:59.031250,2.76,100.8
30946,2018-06-29 09:00:59.062500,5.46,100.8
30947,2018-06-29 09:00:59.093750,5.62,100.8
30948,2018-06-29 09:00:59.125000,9.26,100.8
30949,2018-06-29 09:00:59.156250,22.84,100.8
30950,2018-06-29 09:00:59.187500,43.1,100.8
30951,2018-06-29 09:00:59.218750,54.75,100.8
30952,2018-06-29 09:00:59.250000,41.95,100.8
30953,2018-06-29 09:00:59.281250,6.78,100.8
30954,2018-06-29 09:00:59.312500,-27.94,100.8
30955,2018-06-29 09:00:59.343750,-41.83,100.8
30956,2018-06-29 09:00:59.375000,-37.3,100.8
30957,2018-06-29 09:00:59.406250,-29.5,100.8
30958,2018-06-29 09:00:59.437500,-26.13,100.8
30959,2018-06-29 09:00:59.468750,-26.17,100.8
30960,2018-06-29 09:00:59.500000,-28.11,100.8
30961,2018-06-29 09:00:59.531250,-29.18,100.62
30962,2018-06-29 09:00:59.562500,-24.16,100.62
30963,2018-06-29 09:00:59.593750,-12.71,100.62
30964,2018-06-29 09:00:59.625000,-2.41,100.62
30965,2018-06-29 09:00:59.656250,0.88,100.62
30966,2018-06-29 09:00:59.687500,1.17,100.62
30967,2018-06-29 09:00:59.718750,6.15,100.62
30968,2018-06-29 09:00:59.750000,16.91,100.62
30969,2018-06-29 09:00:59.781250,29.12,100.62
30970,2018-06-29 09:00:59.812500,39.46,100.62
30971,2018-06-29 09:00:59.843750,46.8,100.62
30972,2018-06-29 09:00:59.875000,50.49,100.62
30973,2018-06-29 09:00:59.906250,48.03,100.62
30974,2018-06-29 09:00:59.937500,33.63,100.62
30975,2018-06-29 09:00:59.968750,4.7,100.62
30976,2018-06-29 09:01:00.000000,-28.21,100.62
30977,2018-06-29 09:01:00.031250,-46.53,100.62
30978,2018-06-29 09:01:00.062500,-42.49,100.62
30979,2018-06-29 09:01:00.093750,-26.54,100.62
30980,2018-06-29 09:01:00.125000,-13.82,100.62
30981,2018-06-29 09:01:00.156250,-9.8,100.62
30982,2018-06-29 09:01:00.187500,-11.11,100.62
30983,2018-06-29 09:01:00.218750,-12.84,100.62
30984,2018-06-29 09:01:00.250000,-11.03,100.62
30985,2018-06-29 09:01:00.281250,-3.71,100.62
30986,2018-06-29 09:01:00.312500,7.52,100.62
30987,2018-06-29 09:01:00.343750,19.79,100.62
30988,2018-06-29 09:01:00.375000,32.49,100.62
30989,2018-06-29 09:01:00.406250,44.54,100.62
30990,2018-06-29 09:01:00.437500,50.1,100.62
30991,2018-06-29 09:01:00.468750,40.79,100.62
30992,2018-06-29 09:01:00.500000,13.79,100.62
30993,2018-06-29 09:01:00.531250,-21.01,100.43
30994,2018-06-29 09:01:00.562500,-45.32,100.43
30995,2018-06-29 09:01:00.593750,-49.6,100.43
30996,2018-06-29 09:01:00.625000,-42.09,100.43
30997,2018-06-29 09:01:00.656250,-34.98,100.43
30998,2018-06-29 09:01:00.687500,-30.04,100.43
30999,2018-06-29 09:01:00.718750,-24.49,100.43
31000,2018-06-29 09:01:00.750000,-18.62,100.43
31001,2018-06-29 09:01:00.781250,-10.84,100.43
31002,2018-06-29 09:01:00.812500,2.95,100.43
31003,2018-06-29 09:01:00.843750,20.74,100.43
31004,2018-06-29 09:01:00.875000,36.62,100.43
31005,2018-06-29 09:01:00.906250,51.74,100.43
31006,2018-06-29 09:01:00.937500,71.85,100.43
31007,2018-06-29 09:01:00.968750,96.98,100.43
31008,2018-06-29 09:01:01.000000,122.25,100.43
31009,2018-06-29 09:01:01.031250,144.09,100.43
31010,2018-06-29 09:01:01.062500,160.31,100.43
31011,2018-06-29 09:01:01.093750,168.07,100.43
31012,2018-06-29 09:01:01.125000,162.69,100.43
31013,2018-06-29 09:01:01.156250,137.87,100.43
31014,2018-06-29 09:01:01.187500,91.43,100.43
31015,2018-06-29 09:01:01.218750,31.84,100.43
31016,2018-06-29 09:01:01.250000,-24.55,100.43
31017,2018-06-29 09:01:01.281250,-65.12,100.43
31018,2018-06-29 09:01:01.312500,-90.43,100.43
31019,2018-06-29 09:01:01.343750,-110.33,100.43
31020,2018-06-29 09:01:01.375000,-129.97,100.43
31021,2018-06-29 09:01:01.406250,-145.46,100.43
31022,2018-06-29 09:01:01.437500,-153.98,100.43
31023,2018-06-29 09:01:01.468750,-157.37,100.43
31024,2018-06-29 09:01:01.500000,-154.3,100.43
31025,2018-06-29 09:01:01.531250,-139.29,100.15
31026,2018-06-29 09:01:01.562500,-110.67,100.15
31027,2018-06-29 09:01:01.593750,-74.12,100.15
31028,2018-06-29 09:01:01.625000,-41.67,100.15
31029,2018-06-29 09:01:01.656250,-26.37,100.15
31030,2018-06-29 09:01:01.687500,-29.3,100.15
31031,2018-06-29 09:01:01.718750,-36.4,100.15
31032,2018-06-29 09:01:01.750000,-36.5,100.15
31033,2018-06-29 09:01:01.781250,-32.03,100.15
31034,2018-06-29 09:01:01.812500,-27.36,100.15
31035,2018-06-29 09:01:01.843750,-21.91,100.15
31036,2018-06-29 09:01:01.875000,-17.24,100.15
31037,2018-06-29 09:01:01.906250,-16.11,100.15
31038,2018-06-29 09:01:01.937500,-15.25,100.15
31039,2018-06-29 09:01:01.968750,-10.02,100.15
31040,2018-06-29 09:01:02.000000,-2.74,100.15
31041,2018-06-29 09:01:02.031250,1.36,100.15
31042,2018-06-29 09:01:02.062500,2.71,100.15
31043,2018-06-29 09:01:02.093750,6.16,100.15
31044,2018-06-29 09:01:02.125000,13.22,100.15
31045,2018-06-29 09:01:02.156250,20.27,100.15
31046,2018-06-29 09:01:02.187500,24.71,100.15
31047,2018-06-29 09:01:02.218750,29.59,100.15
31048,2018-06-29 09:01:02.250000,40.74,100.15
31049,2018-06-29 09:01:02.281250,59.44,100.15
31050,2018-06-29 09:01:02.312500,77.4,100.15
31051,2018-06-29 09:01:02.343750,80.53,100.15
31052,2018-06-29 09:01:02.375000,62.4,100.15
31053,2018-06-29 09:01:02.406250,31.74,100.15
31054,2018-06-29 09:01:02.437500,1.77,100.15
31055,2018-06-29 09:01:02.468750,-21.81,100.15
31056,2018-06-29 09:01:02.500000,-36.59,100.15
31057,2018-06-29 09:01:02.531250,-38.92,99.88
31058,2018-06-29 09:01:02.562500,-31.56,99.88
31059,2018-06-29 09:01:02.593750,-24.31,99.88
31060,2018-06-29 09:01:02.625000,-20.97,99.88
31061,2018-06-29 09:01:02.656250,-14.21,99.88
31062,2018-06-29 09:01:02.687500,3.0,99.88
31063,2018-06-29 09:01:02.718750,25.31,99.88
31064,2018-06-29 09:01:02.750000,36.16,99.88
31065,2018-06-29 09:01:02.781250,23.01,99.88
31066,2018-06-29 09:01:02.812500,-8.21,99.88
31067,2018-06-29 09:01:02.843750,-38.22,99.88
31068,2018-06-29 09:01:02.875000,-53.55,99.88
31069,2018-06-29 09:01:02.906250,-54.95,99.88
31070,2018-06-29 09:01:02.937500,-49.42,99.88
31071,2018-06-29 09:01:02.968750,-42.0,99.88
31072,2018-06-29 09:01:03.000000,-35.28,99.88
31073,2018-06-29 09:01:03.031250,-30.3,99.88
31074,2018-06-29 09:01:03.062500,-25.77,99.88
31075,2018-06-29 09:01:03.093750,-19.45,99.88
31076,2018-06-29 09:01:03.125000,-11.59,99.88
31077,2018-06-29 09:01:03.156250,-4.24,99.88
31078,2018-06-29 09:01:03.187500,2.51,99.88
31079,2018-06-29 09:01:03.218750,10.33,99.88
31080,2018-06-29 09:01:03.250000,18.85,99.88
31081,2018-06-29 09:01:03.281250,26.4,99.88
31082,2018-06-29 09:01:03.312500,34.74,99.88
31083,2018-06-29 09:01:03.343750,48.21,99.88
31084,2018-06-29 09:01:03.375000,65.3,99.88
31085,2018-06-29 09:01:03.406250,74.05,99.88
31086,2018-06-29 09:01:03.437500,61.82,99.88
31087,2018-06-29 09:01:03.468750,31.59,99.88
31088,2018-06-29 09:01:03.500000,1.91,99.88
31089,2018-06-29 09:01:03.531250,-14.09,99.6
31090,2018-06-29 09:01:03.562500,-22.8,99.6
31091,2018-06-29 09:01:03.593750,-36.19,99.6
31092,2018-06-29 09:01:03.625000,-53.18,99.6
31093,2018-06-29 09:01:03.656250,-63.83,99.6
31094,2018-06-29 09:01:03.687500,-63.62,99.6
31095,2018-06-29 09:01:03.718750,-54.27,99.6
31096,2018-06-29 09:01:03.750000,-37.76,99.6
31097,2018-06-29 09:01:03.781250,-16.6,99.6
31098,2018-06-29 09:01:03.812500,4.68,99.6
31099,2018-06-29 09:01:03.843750,20.38,99.6
31100,2018-06-29 09:01:03.875000,24.68,99.6
31101,2018-06-29 09:01:03.906250,16.59,99.6
31102,2018-06-29 09:01:03.937500,5.08,99.6
31103,2018-06-29 09:01:03.968750,1.3,99.6
31104,2018-06-29 09:01:04.000000,6.38,99.6
31105,2018-06-29 09:01:04.031250,14.25,99.6
31106,2018-06-29 09:01:04.062500,21.01,99.6
31107,2018-06-29 09:01:04.093750,24.41,99.6
31108,2018-06-29 09:01:04.125000,22.36,99.6
31109,2018-06-29 09:01:04.156250,17.6,99.6
31110,2018-06-29 09:01:04.187500,15.57,99.6
31111,2018-06-29 09:01:04.218750,16.11,99.6
31112,2018-06-29 09:01:04.250000,15.3,99.6
31113,2018-06-29 09:01:04.281250,14.28,99.6
31114,2018-06-29 09:01:04.312500,19.16,99.6
31115,2018-06-29 09:01:04.343750,32.61,99.6
31116,2018-06-29 09:01:04.375000,50.73,99.6
31117,2018-06-29 09:01:04.406250,69.57,99.6
31118,2018-06-29 09:01:04.437500,92.46,99.6
31119,2018-06-29 09:01:04.468750,125.8,99.6
31120,2018-06-29 09:01:04.500000,162.15,99.6
31121,2018-06-29 09:01:04.531250,175.23,99.27
31122,2018-06-29 09:01:04.562500,144.25,99.27
31123,2018-06-29 09:01:04.593750,79.0,99.27
31124,2018-06-29 09:01:04.625000,11.12,99.27
31125,2018-06-29 09:01:04.656250,-36.35,99.27
31126,2018-06-29 09:01:04.687500,-62.49,99.27
31127,2018-06-29 09:01:04.718750,-77.15,99.27
31128,2018-06-29 09:01:04.750000,-88.34,99.27
31129,2018-06-29 09:01:04.781250,-100.45,99.27
31130,2018-06-29 09:01:04.812500,-113.62,99.27
31131,2018-06-29 09:01:04.843750,-120.93,99.27
31132,2018-06-29 09:01:04.875000,-115.48,99.27
31133,2018-06-29 09:01:04.906250,-101.3,99.27
31134,2018-06-29 09:01:04.937500,-88.12,99.27
31135,2018-06-29 09:01:04.968750,-76.77,99.27
31136,2018-06-29 09:01:05.000000,-57.65,99.27
31137,2018-06-29 09:01:05.031250,-22.58,99.27
31138,2018-06-29 09:01:05.062500,22.32,99.27
31139,2018-06-29 09:01:05.093750,54.37,99.27
31140,2018-06-29 09:01:05.125000,52.93,99.27
31141,2018-06-29 09:01:05.156250,24.7,99.27
31142,2018-06-29 09:01:05.187500,-1.67,99.27
31143,2018-06-29 09:01:05.218750,-9.44,99.27
31144,2018-06-29 09:01:05.250000,-7.24,99.27
31145,2018-06-29 09:01:05.281250,-7.66,99.27
31146,2018-06-29 09:01:05.312500,-10.77,99.27
31147,2018-06-29 09:01:05.343750,-12.53,99.27
31148,2018-06-29 09:01:05.375000,-13.91,99.27
31149,2018-06-29 09:01:05.406250,-15.61,99.27
31150,2018-06-29 09:01:05.437500,-14.13,99.27
31151,2018-06-29 09:01:05.468750,-8.04,99.27
31152,2018-06-29 09:01:05.500000,-1.34,99.27
31153,2018-06-29 09:01:05.531250,3.01,98.92
31154,2018-06-29 09:01:05.562500,7.64,98.92
31155,2018-06-29 09:01:05.593750,15.66,98.92
31156,2018-06-29 09:01:05.625000,25.94,98.92
31157,2018-06-29 09:01:05.656250,36.73,98.92
31158,2018-06-29 09:01:05.687500,50.03,98.92
31159,2018-06-29 09:01:05.718750,69.43,98.92
31160,2018-06-29 09:01:05.750000,96.51,98.92
31161,2018-06-29 09:01:05.781250,131.26,98.92
31162,2018-06-29 09:01:05.812500,170.89,98.92
31163,2018-06-29 09:01:05.843750,204.05,98.92
31164,2018-06-29 09:01:05.875000,213.37,98.92
31165,2018-06-29 09:01:05.906250,191.0,98.92
31166,2018-06-29 09:01:05.937500,145.78,98.92
31167,2018-06-29 09:01:05.968750,91.33,98.92
31168,2018-06-29 09:01:06.000000,37.33,98.92
31169,2018-06-29 09:01:06.031250,-7.77,98.92
31170,2018-06-29 09:01:06.062500,-39.57,98.92
31171,2018-06-29 09:01:06.093750,-64.25,98.92
31172,2018-06-29 09:01:06.125000,-90.38,98.92
31173,2018-06-29 09:01:06.156250,-117.24,98.92
31174,2018-06-29 09:01:06.187500,-139.58,98.92
31175,2018-06-29 09:01:06.218750,-155.92,98.92
31176,2018-06-29 09:01:06.250000,-165.5,98.92
31177,2018-06-29 09:01:06.281250,-166.57,98.92
31178,2018-06-29 09:01:06.312500,-161.35,98.92
31179,2018-06-29 09:01:06.343750,-153.59,98.92
31180,2018-06-29 09:01:06.375000,-140.15,98.92
31181,2018-06-29 09:01:06.406250,-112.2,98.92
31182,2018-06-29 09:01:06.437500,-63.68,98.92
31183,2018-06-29 09:01:06.468750,3.12,98.92
31184,2018-06-29 09:01:06.500000,74.78,98.92
31185,2018-06-29 09:01:06.531250,131.38,98.57
31186,2018-06-29 09:01:06.562500,160.58,98.57
31187,2018-06-29 09:01:06.593750,165.27,98.57
31188,2018-06-29 09:01:06.625000,154.27,98.57
31189,2018-06-29 09:01:06.656250,132.94,98.57
31190,2018-06-29 09:01:06.687500,106.54,98.57
31191,2018-06-29 09:01:06.718750,81.4,98.57
31192,2018-06-29 09:01:06.750000,54.94,98.57
31193,2018-06-29 09:01:06.781250,15.69,98.57
31194,2018-06-29 09:01:06.812500,-38.78,98.57
31195,2018-06-29 09:01:06.843750,-94.0,98.57
31196,2018-06-29 09:01:06.875000,-135.01,98.57
31197,2018-06-29 09:01:06.906250,-159.9,98.57
31198,2018-06-29 09:01:06.937500,-173.01,98.57
31199,2018-06-29 09:01:06.968750,-176.51,98.57
31200,2018-06-29 09:01:07.000000,-171.77,98.57
31201,2018-06-29 09:01:07.031250,-160.03,98.57
31202,2018-06-29 09:01:07.062500,-140.02,98.57
31203,2018-06-29 09:01:07.093750,-109.46,98.57
31204,2018-06-29 09:01:07.125000,-68.13,98.57
31205,2018-06-29 09:01:07.156250,-16.88,98.57
31206,2018-06-29 09:01:07.187500,41.03,98.57
31207,2018-06-29 09:01:07.218750,94.72,98.57
31208,2018-06-29 09:01:07.250000,128.48,98.57
31209,2018-06-29 09:01:07.281250,133.55,98.57
31210,2018-06-29 09:01:07.312500,114.22,98.57
31211,2018-06-29 09:01:07.343750,83.55,98.57
31212,2018-06-29 09:01:07.375000,54.32,98.57
31213,2018-06-29 09:01:07.406250,29.23,98.57
31214,2018-06-29 09:01:07.437500,0.85,98.57
31215,2018-06-29 09:01:07.468750,-35.33,98.57
31216,2018-06-29 09:01:07.500000,-72.96,98.57
31217,2018-06-29 09:01:07.531250,-102.18,98.2
31218,2018-06-29 09:01:07.562500,-117.3,98.2
31219,2018-06-29 09:01:07.593750,-118.38,98.2
31220,2018-06-29 09:01:07.625000,-111.95,98.2
31221,2018-06-29 09:01:07.656250,-105.38,98.2
31222,2018-06-29 09:01:07.687500,-96.84,98.2
31223,2018-06-29 09:01:07.718750,-75.59,98.2
31224,2018-06-29 09:01:07.750000,-33.73,98.2
31225,2018-06-29 09:01:07.781250,23.73,98.2
31226,2018-06-29 09:01:07.812500,78.9,98.2
31227,2018-06-29 09:01:07.843750,112.93,98.2
31228,2018-06-29 09:01:07.875000,121.16,98.2
31229,2018-06-29 09:01:07.906250,113.95,98.2
31230,2018-06-29 09:01:07.937500,102.19,98.2
31231,2018-06-29 09:01:07.968750,88.64,98.2
31232,2018-06-29 09:01:08.000000,72.34,98.2
31233,2018-06-29 09:01:08.031250,51.08,98.2
31234,2018-06-29 09:01:08.062500,20.53,98.2
31235,2018-06-29 09:01:08.093750,-18.92,98.2
31236,2018-06-29 09:01:08.125000,-56.56,98.2
31237,2018-06-29 09:01:08.156250,-80.88,98.2
31238,2018-06-29 09:01:08.187500,-91.1,98.2
31239,2018-06-29 09:01:08.218750,-93.45,98.2
31240,2018-06-29 09:01:08.250000,-91.81,98.2
31241,2018-06-29 09:01:08.281250,-86.73,98.2
31242,2018-06-29 09:01:08.312500,-79.37,98.2
31243,2018-06-29 09:01:08.343750,-72.05,98.2
31244,2018-06-29 09:01:08.375000,-65.11,98.2
31245,2018-06-29 09:01:08.406250,-55.55,98.2
31246,2018-06-29 09:01:08.437500,-40.71,98.2
31247,2018-06-29 09:01:08.468750,-21.94,98.2
31248,2018-06-29 09:01:08.500000,-3.22,98.2
31249,2018-06-29 09:01:08.531250,12.4,97.82
31250,2018-06-29 09:01:08.562500,23.04,97.82
31251,2018-06-29 09:01:08.593750,25.9,97.82
31252,2018-06-29 09:01:08.625000,19.18,97.82
31253,2018-06-29 09:01:08.656250,6.61,97.82
31254,2018-06-29 09:01:08.687500,-4.05,97.82
31255,2018-06-29 09:01:08.718750,-8.87,97.82
31256,2018-06-29 09:01:08.750000,-10.21,97.82
31257,2018-06-29 09:01:08.781250,-10.52,97.82
31258,2018-06-29 09:01:08.812500,-7.64,97.82
31259,2018-06-29 09:01:08.843750,2.45,97.82
31260,2018-06-29 09:01:08.875000,20.72,97.82
31261,2018-06-29 09:01:08.906250,41.66,97.82
31262,2018-06-29 09:01:08.937500,52.77,97.82
31263,2018-06-29 09:01:08.968750,43.03,97.82
31264,2018-06-29 09:01:09.000000,16.97,97.82
31265,2018-06-29 09:01:09.031250,-6.28,97.82
31266,2018-06-29 09:01:09.062500,-13.39,97.82
31267,2018-06-29 09:01:09.093750,-8.3,97.82
31268,2018-06-29 09:01:09.125000,-1.98,97.82
31269,2018-06-29 09:01:09.156250,-0.99,97.82
31270,2018-06-29 09:01:09.187500,-6.65,97.82
31271,2018-06-29 09:01:09.218750,-15.79,97.82
31272,2018-06-29 09:01:09.250000,-22.62,97.82
31273,2018-06-29 09:01:09.281250,-24.65,97.82
31274,2018-06-29 09:01:09.312500,-24.24,97.82
31275,2018-06-29 09:01:09.343750,-23.09,97.82
31276,2018-06-29 09:01:09.375000,-19.29,97.82
31277,2018-06-29 09:01:09.406250,-10.61,97.82
31278,2018-06-29 09:01:09.437500,2.69,97.82
31279,2018-06-29 09:01:09.468750,19.74,97.82
31280,2018-06-29 09:01:09.500000,40.63,97.82
31281,2018-06-29 09:01:09.531250,63.72,97.42
31282,2018-06-29 09:01:09.562500,81.33,97.42
31283,2018-06-29 09:01:09.593750,80.98,97.42
31284,2018-06-29 09:01:09.625000,55.58,97.42
31285,2018-06-29 09:01:09.656250,15.19,97.42
31286,2018-06-29 09:01:09.687500,-17.39,97.42
31287,2018-06-29 09:01:09.718750,-28.76,97.42
31288,2018-06-29 09:01:09.750000,-26.76,97.42
31289,2018-06-29 09:01:09.781250,-26.09,97.42
31290,2018-06-29 09:01:09.812500,-31.35,97.42
31291,2018-06-29 09:01:09.843750,-38.3,97.42
31292,2018-06-29 09:01:09.875000,-41.99,97.42
31293,2018-06-29 09:01:09.906250,-39.73,97.42
31294,2018-06-29 09:01:09.937500,-32.68,97.42
31295,2018-06-29 09:01:09.968750,-25.47,97.42
31296,2018-06-29 09:01:10.000000,-20.59,97.42
31297,2018-06-29 09:01:10.031250,-14.5,97.42
31298,2018-06-29 09:01:10.062500,-2.56,97.42
31299,2018-06-29 09:01:10.093750,12.79,97.42
31300,2018-06-29 09:01:10.125000,21.3,97.42
31301,2018-06-29 09:01:10.156250,14.41,97.42
31302,2018-06-29 09:01:10.187500,-3.72,97.42
31303,2018-06-29 09:01:10.218750,-19.62,97.42
31304,2018-06-29 09:01:10.250000,-26.98,97.42
31305,2018-06-29 09:01:10.281250,-30.64,97.42
31306,2018-06-29 09:01:10.312500,-32.01,97.42
31307,2018-06-29 09:01:10.343750,-24.3,97.42
31308,2018-06-29 09:01:10.375000,-6.06,97.42
31309,2018-06-29 09:01:10.406250,13.89,97.42
31310,2018-06-29 09:01:10.437500,28.16,97.42
31311,2018-06-29 09:01:10.468750,37.52,97.42
31312,2018-06-29 09:01:10.500000,45.61,97.42
31313,2018-06-29 09:01:10.531250,53.64,96.97
31314,2018-06-29 09:01:10.562500,61.03,96.97
31315,2018-06-29 09:01:10.593750,69.13,96.97
31316,2018-06-29 09:01:10.625000,81.86,96.97
31317,2018-06-29 09:01:10.656250,102.13,96.97
31318,2018-06-29 09:01:10.687500,129.76,96.97
31319,2018-06-29 09:01:10.718750,159.57,96.97
31320,2018-06-29 09:01:10.750000,177.28,96.97
31321,2018-06-29 09:01:10.781250,164.65,96.97
31322,2018-06-29 09:01:10.812500,116.4,96.97
31323,2018-06-29 09:01:10.843750,46.3,96.97
31324,2018-06-29 09:01:10.875000,-25.31,96.97
31325,2018-06-29 09:01:10.906250,-82.84,96.97
31326,2018-06-29 09:01:10.937500,-117.5,96.97
31327,2018-06-29 09:01:10.968750,-128.32,96.97
31328,2018-06-29 09:01:11.000000,-122.12,96.97
31329,2018-06-29 09:01:11.031250,-108.72,96.97
31330,2018-06-29 09:01:11.062500,-94.42,96.97
31331,2018-06-29 09:01:11.093750,-78.5,96.97
31332,2018-06-29 09:01:11.125000,-57.43,96.97
31333,2018-06-29 09:01:11.156250,-32.57,96.97
31334,2018-06-29 09:01:11.187500,-10.37,96.97
31335,2018-06-29 09:01:11.218750,7.19,96.97
31336,2018-06-29 09:01:11.250000,27.0,96.97
31337,2018-06-29 09:01:11.281250,54.55,96.97
31338,2018-06-29 09:01:11.312500,83.43,96.97
31339,2018-06-29 09:01:11.343750,94.52,96.97
31340,2018-06-29 09:01:11.375000,73.8,96.97
31341,2018-06-29 09:01:11.406250,30.01,96.97
31342,2018-06-29 09:01:11.437500,-11.11,96.97
31343,2018-06-29 09:01:11.468750,-32.78,96.97
31344,2018-06-29 09:01:11.500000,-38.83,96.97
31345,2018-06-29 09:01:11.531250,-38.29,96.58
31346,2018-06-29 09:01:11.562500,-35.34,96.58
31347,2018-06-29 09:01:11.593750,-25.22,96.58
31348,2018-06-29 09:01:11.625000,-7.54,96.58
31349,2018-06-29 09:01:11.656250,18.16,96.58
31350,2018-06-29 09:01:11.687500,49.02,96.58
31351,2018-06-29 09:01:11.718750,83.47,96.58
31352,2018-06-29 09:01:11.750000,116.7,96.58
31353,2018-06-29 09:01:11.781250,135.18,96.58
31354,2018-06-29 09:01:11.812500,140.32,96.58
31355,2018-06-29 09:01:11.843750,138.91,96.58
31356,2018-06-29 09:01:11.875000,145.65,96.58
31357,2018-06-29 09:01:11.906250,148.63,96.58
31358,2018-06-29 09:01:11.937500,151.17,96.58
31359,2018-06-29 09:01:11.968750,173.66,96.58
31360,2018-06-29 09:01:12.000000,228.8,96.58
31361,2018-06-29 09:01:12.031250,293.35,96.58
31362,2018-06-29 09:01:12.062500,321.17,96.58
31363,2018-06-29 09:01:12.093750,316.13,96.58
31364,2018-06-29 09:01:12.125000,225.08,96.58
31365,2018-06-29 09:01:12.156250,69.23,96.58
31366,2018-06-29 09:01:12.187500,-23.28,96.58
31367,2018-06-29 09:01:12.218750,-85.52,96.58
31368,2018-06-29 09:01:12.250000,-136.67,96.58
31369,2018-06-29 09:01:12.281250,-163.86,96.58
31370,2018-06-29 09:01:12.312500,-163.94,96.58
31371,2018-06-29 09:01:12.343750,-165.55,96.58
31372,2018-06-29 09:01:12.375000,-177.66,96.58
31373,2018-06-29 09:01:12.406250,-202.52,96.58
31374,2018-06-29 09:01:12.437500,-222.08,96.58
31375,2018-06-29 09:01:12.468750,-234.47,96.58
31376,2018-06-29 09:01:12.500000,-235.77,96.58
31377,2018-06-29 09:01:12.531250,-223.8,96.13
31378,2018-06-29 09:01:12.562500,-199.04,96.13
31379,2018-06-29 09:01:12.593750,-164.76,96.13
31380,2018-06-29 09:01:12.625000,-134.44,96.13
31381,2018-06-29 09:01:12.656250,-109.54,96.13
31382,2018-06-29 09:01:12.687500,-88.44,96.13
31383,2018-06-29 09:01:12.718750,-64.45,96.13
31384,2018-06-29 09:01:12.750000,-36.45,96.13
31385,2018-06-29 09:01:12.781250,0.57,96.13
31386,2018-06-29 09:01:12.812500,48.36,96.13
31387,2018-06-29 09:01:12.843750,90.52,96.13
31388,2018-06-29 09:01:12.875000,103.82,96.13
31389,2018-06-29 09:01:12.906250,86.49,96.13
31390,2018-06-29 09:01:12.937500,63.79,96.13
31391,2018-06-29 09:01:12.968750,54.56,96.13
31392,2018-06-29 09:01:13.000000,52.07,96.13
31393,2018-06-29 09:01:13.031250,38.76,96.13
31394,2018-06-29 09:01:13.062500,8.66,96.13
31395,2018-06-29 09:01:13.093750,-28.49,96.13
31396,2018-06-29 09:01:13.125000,-59.66,96.13
31397,2018-06-29 09:01:13.156250,-78.69,96.13
31398,2018-06-29 09:01:13.187500,-85.11,96.13
31399,2018-06-29 09:01:13.218750,-81.32,96.13
31400,2018-06-29 09:01:13.250000,-72.29,96.13
31401,2018-06-29 09:01:13.281250,-62.1,96.13
31402,2018-06-29 09:01:13.312500,-51.14,96.13
31403,2018-06-29 09:01:13.343750,-39.06,96.13
31404,2018-06-29 09:01:13.375000,-26.12,96.13
31405,2018-06-29 09:01:13.406250,-9.24,96.13
31406,2018-06-29 09:01:13.437500,16.02,96.13
31407,2018-06-29 09:01:13.468750,44.36,96.13
31408,2018-06-29 09:01:13.500000,60.14,96.13
31409,2018-06-29 09:01:13.531250,54.61,95.68
31410,2018-06-29 09:01:13.562500,36.82,95.68
31411,2018-06-29 09:01:13.593750,22.44,95.68
31412,2018-06-29 09:01:13.625000,18.63,95.68
31413,2018-06-29 09:01:13.656250,21.95,95.68
31414,2018-06-29 09:01:13.687500,23.93,95.68
31415,2018-06-29 09:01:13.718750,16.98,95.68
31416,2018-06-29 09:01:13.750000,0.14,95.68
31417,2018-06-29 09:01:13.781250,-19.83,95.68
31418,2018-06-29 09:01:13.812500,-34.22,95.68
31419,2018-06-29 09:01:13.843750,-38.52,95.68
31420,2018-06-29 09:01:13.875000,-33.96,95.68
31421,2018-06-29 09:01:13.906250,-24.94,95.68
31422,2018-06-29 09:01:13.937500,-13.72,95.68
31423,2018-06-29 09:01:13.968750,3.7,95.68
31424,2018-06-29 09:01:14.000000,32.23,95.68
31425,2018-06-29 09:01:14.031250,64.89,95.68
31426,2018-06-29 09:01:14.062500,83.58,95.68
31427,2018-06-29 09:01:14.093750,79.48,95.68
31428,2018-06-29 09:01:14.125000,65.31,95.68
31429,2018-06-29 09:01:14.156250,61.02,95.68
31430,2018-06-29 09:01:14.187500,73.11,95.68
31431,2018-06-29 09:01:14.218750,90.35,95.68
31432,2018-06-29 09:01:14.250000,93.95,95.68
31433,2018-06-29 09:01:14.281250,73.51,95.68
31434,2018-06-29 09:01:14.312500,37.66,95.68
31435,2018-06-29 09:01:14.343750,5.29,95.68
31436,2018-06-29 09:01:14.375000,-15.74,95.68
31437,2018-06-29 09:01:14.406250,-34.32,95.68
31438,2018-06-29 09:01:14.437500,-59.38,95.68
31439,2018-06-29 09:01:14.468750,-87.45,95.68
