,Time,ppg,hr
291200,2018-06-29 11:16:32.000000,-1.38,72.33
291201,2018-06-29 11:16:32.031250,-3.92,72.33
291202,2018-06-29 11:16:32.062500,-4.32,72.33
291203,2018-06-29 11:16:32.093750,-3.53,72.33
291204,2018-06-29 11:16:32.125000,-4.53,72.33
291205,2018-06-29 11:16:32.156250,-8.59,72.33
291206,2018-06-29 11:16:32.187500,-13.83,72.33
291207,2018-06-29 11:16:32.218750,-18.72,72.33
291208,2018-06-29 11:16:32.250000,-24.12,72.33
291209,2018-06-29 11:16:32.281250,-31.76,72.33
291210,2018-06-29 11:16:32.312500,-42.01,72.33
291211,2018-06-29 11:16:32.343750,-50.69,72.33
291212,2018-06-29 11:16:32.375000,-49.15,72.33
291213,2018-06-29 11:16:32.406250,-33.09,72.33
291214,2018-06-29 11:16:32.437500,-9.69,72.33
291215,2018-06-29 11:16:32.468750,9.94,72.33
291216,2018-06-29 11:16:32.500000,20.94,72.33
291217,2018-06-29 11:16:32.531250,23.68,72.35
291218,2018-06-29 11:16:32.562500,19.89,72.35
291219,2018-06-29 11:16:32.593750,13.5,72.35
291220,2018-06-29 11:16:32.625000,9.55,72.35
291221,2018-06-29 11:16:32.656250,10.13,72.35
291222,2018-06-29 11:16:32.687500,13.5,72.35
291223,2018-06-29 11:16:32.718750,16.93,72.35
291224,2018-06-29 11:16:32.750000,18.78,72.35
291225,2018-06-29 11:16:32.781250,18.67,72.35
291226,2018-06-29 11:16:32.812500,16.4,72.35
291227,2018-06-29 11:16:32.843750,11.87,72.35
291228,2018-06-29 11:16:32.875000,5.82,72.35
291229,2018-06-29 11:16:32.906250,-0.74,72.35
291230,2018-06-29 11:16:32.937500,-6.97,72.35
291231,2018-06-29 11:16:32.968750,-12.26,72.35
291232,2018-06-29 11:16:33.000000,-17.14,72.35
291233,2018-06-29 11:16:33.031250,-22.95,72.35
291234,2018-06-29 11:16:33.062500,-29.54,72.35
291235,2018-06-29 11:16:33.093750,-35.35,72.35
291236,2018-06-29 11:16:33.125000,-40.02,72.35
291237,2018-06-29 11:16:33.156250,-45.11,72.35
291238,2018-06-29 11:16:33.187500,-52.84,72.35
291239,2018-06-29 11:16:33.218750,-63.53,72.35
291240,2018-06-29 11:16:33.250000,-71.38,72.35
291241,2018-06-29 11:16:33.281250,-65.9,72.35
291242,2018-06-29 11:16:33.312500,-43.35,72.35
291243,2018-06-29 11:16:33.343750,-13.34,72.35
291244,2018-06-29 11:16:33.375000,10.98,72.35
291245,2018-06-29 11:16:33.406250,25.13,72.35
291246,2018-06-29 11:16:33.437500,31.33,72.35
291247,2018-06-29 11:16:33.468750,31.6,72.35
291248,2018-06-29 11:16:33.500000,28.14,72.35
291249,2018-06-29 11:16:33.531250,25.47,72.3
291250,2018-06-29 11:16:33.562500,26.55,72.3
291251,2018-06-29 11:16:33.593750,29.42,72.3
291252,2018-06-29 11:16:33.625000,31.22,72.3
291253,2018-06-29 11:16:33.656250,31.96,72.3
291254,2018-06-29 11:16:33.687500,32.1,72.3
291255,2018-06-29 11:16:33.718750,30.3,72.3
291256,2018-06-29 11:16:33.750000,25.71,72.3
291257,2018-06-29 11:16:33.781250,19.1,72.3
291258,2018-06-29 11:16:33.812500,11.22,72.3
291259,2018-06-29 11:16:33.843750,2.88,72.3
291260,2018-06-29 11:16:33.875000,-4.31,72.3
291261,2018-06-29 11:16:33.906250,-10.5,72.3
291262,2018-06-29 11:16:33.937500,-17.8,72.3
291263,2018-06-29 11:16:33.968750,-26.27,72.3
291264,2018-06-29 11:16:34.000000,-33.42,72.3
291265,2018-06-29 11:16:34.031250,-38.5,72.3
291266,2018-06-29 11:16:34.062500,-44.33,72.3
291267,2018-06-29 11:16:34.093750,-53.98,72.3
291268,2018-06-29 11:16:34.125000,-66.51,72.3
291269,2018-06-29 11:16:34.156250,-74.2,72.3
291270,2018-06-29 11:16:34.187500,-66.27,72.3
291271,2018-06-29 11:16:34.218750,-40.37,72.3
291272,2018-06-29 11:16:34.250000,-7.45,72.3
291273,2018-06-29 11:16:34.281250,18.96,72.3
291274,2018-06-29 11:16:34.312500,33.84,72.3
291275,2018-06-29 11:16:34.343750,39.21,72.3
291276,2018-06-29 11:16:34.375000,38.34,72.3
291277,2018-06-29 11:16:34.406250,34.9,72.3
291278,2018-06-29 11:16:34.437500,32.69,72.3
291279,2018-06-29 11:16:34.468750,33.34,72.3
291280,2018-06-29 11:16:34.500000,36.03,72.3
291281,2018-06-29 11:16:34.531250,39.07,72.23
291282,2018-06-29 11:16:34.562500,40.9,72.23
291283,2018-06-29 11:16:34.593750,40.47,72.23
291284,2018-06-29 11:16:34.625000,37.68,72.23
291285,2018-06-29 11:16:34.656250,32.77,72.23
291286,2018-06-29 11:16:34.687500,25.66,72.23
291287,2018-06-29 11:16:34.718750,17.15,72.23
291288,2018-06-29 11:16:34.750000,9.48,72.23
291289,2018-06-29 11:16:34.781250,3.7,72.23
291290,2018-06-29 11:16:34.812500,-2.02,72.23
291291,2018-06-29 11:16:34.843750,-9.58,72.23
291292,2018-06-29 11:16:34.875000,-18.11,72.23
291293,2018-06-29 11:16:34.906250,-25.48,72.23
291294,2018-06-29 11:16:34.937500,-31.54,72.23
291295,2018-06-29 11:16:34.968750,-38.09,72.23
291296,2018-06-29 11:16:35.000000,-47.33,72.23
291297,2018-06-29 11:16:35.031250,-60.23,72.23
291298,2018-06-29 11:16:35.062500,-71.68,72.23
291299,2018-06-29 11:16:35.093750,-69.88,72.23
291300,2018-06-29 11:16:35.125000,-48.04,72.23
291301,2018-06-29 11:16:35.156250,-14.68,72.23
291302,2018-06-29 11:16:35.187500,14.7,72.23
291303,2018-06-29 11:16:35.218750,32.38,72.23
291304,2018-06-29 11:16:35.250000,39.3,72.23
291305,2018-06-29 11:16:35.281250,38.03,72.23
291306,2018-06-29 11:16:35.312500,31.92,72.23
291307,2018-06-29 11:16:35.343750,26.72,72.23
291308,2018-06-29 11:16:35.375000,26.85,72.23
291309,2018-06-29 11:16:35.406250,30.91,72.23
291310,2018-06-29 11:16:35.437500,33.94,72.23
291311,2018-06-29 11:16:35.468750,33.88,72.23
291312,2018-06-29 11:16:35.500000,32.53,72.23
291313,2018-06-29 11:16:35.531250,30.61,72.17
291314,2018-06-29 11:16:35.562500,26.23,72.17
291315,2018-06-29 11:16:35.593750,18.52,72.17
291316,2018-06-29 11:16:35.625000,9.56,72.17
291317,2018-06-29 11:16:35.656250,1.7,72.17
291318,2018-06-29 11:16:35.687500,-4.9,72.17
291319,2018-06-29 11:16:35.718750,-11.7,72.17
291320,2018-06-29 11:16:35.750000,-19.62,72.17
291321,2018-06-29 11:16:35.781250,-27.75,72.17
291322,2018-06-29 11:16:35.812500,-34.69,72.17
291323,2018-06-29 11:16:35.843750,-40.56,72.17
291324,2018-06-29 11:16:35.875000,-47.52,72.17
291325,2018-06-29 11:16:35.906250,-57.84,72.17
291326,2018-06-29 11:16:35.937500,-69.35,72.17
291327,2018-06-29 11:16:35.968750,-72.74,72.17
291328,2018-06-29 11:16:36.000000,-58.54,72.17
291329,2018-06-29 11:16:36.031250,-28.75,72.17
291330,2018-06-29 11:16:36.062500,4.14,72.17
291331,2018-06-29 11:16:36.093750,29.28,72.17
291332,2018-06-29 11:16:36.125000,43.48,72.17
291333,2018-06-29 11:16:36.156250,47.18,72.17
291334,2018-06-29 11:16:36.187500,42.78,72.17
291335,2018-06-29 11:16:36.218750,36.13,72.17
291336,2018-06-29 11:16:36.250000,33.45,72.17
291337,2018-06-29 11:16:36.281250,35.78,72.17
291338,2018-06-29 11:16:36.312500,39.23,72.17
291339,2018-06-29 11:16:36.343750,40.47,72.17
291340,2018-06-29 11:16:36.375000,39.41,72.17
291341,2018-06-29 11:16:36.406250,36.6,72.17
291342,2018-06-29 11:16:36.437500,30.78,72.17
291343,2018-06-29 11:16:36.468750,21.41,72.17
291344,2018-06-29 11:16:36.500000,11.07,72.17
291345,2018-06-29 11:16:36.531250,2.61,72.08
291346,2018-06-29 11:16:36.562500,-4.5,72.08
291347,2018-06-29 11:16:36.593750,-12.46,72.08
291348,2018-06-29 11:16:36.625000,-21.6,72.08
291349,2018-06-29 11:16:36.656250,-30.64,72.08
291350,2018-06-29 11:16:36.687500,-38.57,72.08
291351,2018-06-29 11:16:36.718750,-45.5,72.08
291352,2018-06-29 11:16:36.750000,-53.21,72.08
291353,2018-06-29 11:16:36.781250,-64.24,72.08
291354,2018-06-29 11:16:36.812500,-77.25,72.08
291355,2018-06-29 11:16:36.843750,-82.52,72.08
291356,2018-06-29 11:16:36.875000,-68.24,72.08
291357,2018-06-29 11:16:36.906250,-34.65,72.08
291358,2018-06-29 11:16:36.937500,3.72,72.08
291359,2018-06-29 11:16:36.968750,32.57,72.08
291360,2018-06-29 11:16:37.000000,48.68,72.08
291361,2018-06-29 11:16:37.031250,55.04,72.08
291362,2018-06-29 11:16:37.062500,54.49,72.08
291363,2018-06-29 11:16:37.093750,50.98,72.08
291364,2018-06-29 11:16:37.125000,49.21,72.08
291365,2018-06-29 11:16:37.156250,50.44,72.08
291366,2018-06-29 11:16:37.187500,52.4,72.08
291367,2018-06-29 11:16:37.218750,53.57,72.08
291368,2018-06-29 11:16:37.250000,53.87,72.08
291369,2018-06-29 11:16:37.281250,52.19,72.08
291370,2018-06-29 11:16:37.312500,46.85,72.08
291371,2018-06-29 11:16:37.343750,38.42,72.08
291372,2018-06-29 11:16:37.375000,29.91,72.08
291373,2018-06-29 11:16:37.406250,23.19,72.08
291374,2018-06-29 11:16:37.437500,16.82,72.08
291375,2018-06-29 11:16:37.468750,9.05,72.08
291376,2018-06-29 11:16:37.500000,1.09,72.08
291377,2018-06-29 11:16:37.531250,-5.46,72.02
291378,2018-06-29 11:16:37.562500,-12.34,72.02
291379,2018-06-29 11:16:37.593750,-22.06,72.02
291380,2018-06-29 11:16:37.625000,-33.25,72.02
291381,2018-06-29 11:16:37.656250,-42.56,72.02
291382,2018-06-29 11:16:37.687500,-49.89,72.02
291383,2018-06-29 11:16:37.718750,-58.25,72.02
291384,2018-06-29 11:16:37.750000,-69.69,72.02
291385,2018-06-29 11:16:37.781250,-81.25,72.02
291386,2018-06-29 11:16:37.812500,-83.01,72.02
291387,2018-06-29 11:16:37.843750,-64.87,72.02
291388,2018-06-29 11:16:37.875000,-29.81,72.02
291389,2018-06-29 11:16:37.906250,6.32,72.02
291390,2018-06-29 11:16:37.937500,31.16,72.02
291391,2018-06-29 11:16:37.968750,44.3,72.02
291392,2018-06-29 11:16:38.000000,49.74,72.02
291393,2018-06-29 11:16:38.031250,49.92,72.02
291394,2018-06-29 11:16:38.062500,47.75,72.02
291395,2018-06-29 11:16:38.093750,46.93,72.02
291396,2018-06-29 11:16:38.125000,48.68,72.02
291397,2018-06-29 11:16:38.156250,51.09,72.02
291398,2018-06-29 11:16:38.187500,52.21,72.02
291399,2018-06-29 11:16:38.218750,52.03,72.02
291400,2018-06-29 11:16:38.250000,50.61,72.02
291401,2018-06-29 11:16:38.281250,46.69,72.02
291402,2018-06-29 11:16:38.312500,39.81,72.02
291403,2018-06-29 11:16:38.343750,31.66,72.02
291404,2018-06-29 11:16:38.375000,24.19,72.02
291405,2018-06-29 11:16:38.406250,17.95,72.02
291406,2018-06-29 11:16:38.437500,12.28,72.02
291407,2018-06-29 11:16:38.468750,6.42,72.02
291408,2018-06-29 11:16:38.500000,0.56,72.02
291409,2018-06-29 11:16:38.531250,-4.59,71.95
291410,2018-06-29 11:16:38.562500,-9.96,71.95
291411,2018-06-29 11:16:38.593750,-17.63,71.95
291412,2018-06-29 11:16:38.625000,-27.09,71.95
291413,2018-06-29 11:16:38.656250,-35.54,71.95
291414,2018-06-29 11:16:38.687500,-42.15,71.95
291415,2018-06-29 11:16:38.718750,-48.72,71.95
291416,2018-06-29 11:16:38.750000,-57.26,71.95
291417,2018-06-29 11:16:38.781250,-68.44,71.95
291418,2018-06-29 11:16:38.812500,-78.79,71.95
291419,2018-06-29 11:16:38.843750,-78.76,71.95
291420,2018-06-29 11:16:38.875000,-60.6,71.95
291421,2018-06-29 11:16:38.906250,-29.01,71.95
291422,2018-06-29 11:16:38.937500,2.35,71.95
291423,2018-06-29 11:16:38.968750,23.97,71.95
291424,2018-06-29 11:16:39.000000,34.78,71.95
291425,2018-06-29 11:16:39.031250,36.63,71.95
291426,2018-06-29 11:16:39.062500,32.15,71.95
291427,2018-06-29 11:16:39.093750,26.38,71.95
291428,2018-06-29 11:16:39.125000,24.29,71.95
291429,2018-06-29 11:16:39.156250,26.39,71.95
291430,2018-06-29 11:16:39.187500,29.62,71.95
291431,2018-06-29 11:16:39.218750,31.68,71.95
291432,2018-06-29 11:16:39.250000,32.02,71.95
291433,2018-06-29 11:16:39.281250,30.03,71.95
291434,2018-06-29 11:16:39.312500,25.24,71.95
291435,2018-06-29 11:16:39.343750,18.99,71.95
291436,2018-06-29 11:16:39.375000,13.32,71.95
291437,2018-06-29 11:16:39.406250,8.49,71.95
291438,2018-06-29 11:16:39.437500,3.27,71.95
291439,2018-06-29 11:16:39.468750,-2.19,71.95
291440,2018-06-29 11:16:39.500000,-6.89,71.95
291441,2018-06-29 11:16:39.531250,-11.88,71.92
291442,2018-06-29 11:16:39.562500,-19.15,71.92
291443,2018-06-29 11:16:39.593750,-27.78,71.92
291444,2018-06-29 11:16:39.625000,-35.13,71.92
291445,2018-06-29 11:16:39.656250,-41.37,71.92
291446,2018-06-29 11:16:39.687500,-49.79,71.92
291447,2018-06-29 11:16:39.718750,-61.67,71.92
291448,2018-06-29 11:16:39.750000,-71.45,71.92
291449,2018-06-29 11:16:39.781250,-68.78,71.92
291450,2018-06-29 11:16:39.812500,-48.7,71.92
291451,2018-06-29 11:16:39.843750,-18.5,71.92
291452,2018-06-29 11:16:39.875000,9.33,71.92
291453,2018-06-29 11:16:39.906250,28.1,71.92
291454,2018-06-29 11:16:39.937500,37.94,71.92
291455,2018-06-29 11:16:39.968750,40.68,71.92
291456,2018-06-29 11:16:40.000000,39.03,71.92
291457,2018-06-29 11:16:40.031250,36.74,71.92
291458,2018-06-29 11:16:40.062500,36.01,71.92
291459,2018-06-29 11:16:40.093750,36.29,71.92
291460,2018-06-29 11:16:40.125000,36.62,71.92
291461,2018-06-29 11:16:40.156250,36.79,71.92
291462,2018-06-29 11:16:40.187500,36.33,71.92
291463,2018-06-29 11:16:40.218750,34.17,71.92
291464,2018-06-29 11:16:40.250000,29.82,71.92
291465,2018-06-29 11:16:40.281250,24.13,71.92
291466,2018-06-29 11:16:40.312500,18.45,71.92
291467,2018-06-29 11:16:40.343750,12.89,71.92
291468,2018-06-29 11:16:40.375000,6.22,71.92
291469,2018-06-29 11:16:40.406250,-1.52,71.92
291470,2018-06-29 11:16:40.437500,-8.06,71.92
291471,2018-06-29 11:16:40.468750,-12.48,71.92
291472,2018-06-29 11:16:40.500000,-17.1,71.92
291473,2018-06-29 11:16:40.531250,-24.1,71.83
291474,2018-06-29 11:16:40.562500,-32.66,71.83
291475,2018-06-29 11:16:40.593750,-40.61,71.83
291476,2018-06-29 11:16:40.625000,-47.2,71.83
291477,2018-06-29 11:16:40.656250,-54.01,71.83
291478,2018-06-29 11:16:40.687500,-63.35,71.83
291479,2018-06-29 11:16:40.718750,-73.44,71.83
291480,2018-06-29 11:16:40.750000,-75.41,71.83
291481,2018-06-29 11:16:40.781250,-60.46,71.83
291482,2018-06-29 11:16:40.812500,-31.32,71.83
291483,2018-06-29 11:16:40.843750,-0.91,71.83
291484,2018-06-29 11:16:40.875000,20.74,71.83
291485,2018-06-29 11:16:40.906250,32.55,71.83
291486,2018-06-29 11:16:40.937500,37.14,71.83
291487,2018-06-29 11:16:40.968750,36.97,71.83
291488,2018-06-29 11:16:41.000000,34.76,71.83
291489,2018-06-29 11:16:41.031250,33.37,71.83
291490,2018-06-29 11:16:41.062500,33.85,71.83
291491,2018-06-29 11:16:41.093750,35.13,71.83
291492,2018-06-29 11:16:41.125000,36.03,71.83
291493,2018-06-29 11:16:41.156250,36.63,71.83
291494,2018-06-29 11:16:41.187500,36.91,71.83
291495,2018-06-29 11:16:41.218750,35.24,71.83
291496,2018-06-29 11:16:41.250000,30.46,71.83
291497,2018-06-29 11:16:41.281250,24.26,71.83
291498,2018-06-29 11:16:41.312500,18.96,71.83
291499,2018-06-29 11:16:41.343750,14.35,71.83
291500,2018-06-29 11:16:41.375000,8.94,71.83
291501,2018-06-29 11:16:41.406250,2.94,71.83
291502,2018-06-29 11:16:41.437500,-2.1,71.83
291503,2018-06-29 11:16:41.468750,-5.86,71.83
291504,2018-06-29 11:16:41.500000,-10.02,71.83
291505,2018-06-29 11:16:41.531250,-16.57,71.75
291506,2018-06-29 11:16:41.562500,-25.0,71.75
291507,2018-06-29 11:16:41.593750,-32.67,71.75
291508,2018-06-29 11:16:41.625000,-38.3,71.75
291509,2018-06-29 11:16:41.656250,-43.87,71.75
291510,2018-06-29 11:16:41.687500,-52.39,71.75
291511,2018-06-29 11:16:41.718750,-63.31,71.75
291512,2018-06-29 11:16:41.750000,-69.56,71.75
291513,2018-06-29 11:16:41.781250,-61.84,71.75
291514,2018-06-29 11:16:41.812500,-38.98,71.75
291515,2018-06-29 11:16:41.843750,-10.96,71.75
291516,2018-06-29 11:16:41.875000,11.21,71.75
291517,2018-06-29 11:16:41.906250,23.81,71.75
291518,2018-06-29 11:16:41.937500,27.97,71.75
291519,2018-06-29 11:16:41.968750,25.64,71.75
291520,2018-06-29 11:16:42.000000,21.05,71.75
291521,2018-06-29 11:16:42.031250,19.55,71.75
291522,2018-06-29 11:16:42.062500,22.05,71.75
291523,2018-06-29 11:16:42.093750,25.11,71.75
291524,2018-06-29 11:16:42.125000,26.95,71.75
291525,2018-06-29 11:16:42.156250,28.53,71.75
291526,2018-06-29 11:16:42.187500,29.15,71.75
291527,2018-06-29 11:16:42.218750,26.62,71.75
291528,2018-06-29 11:16:42.250000,21.29,71.75
291529,2018-06-29 11:16:42.281250,15.77,71.75
291530,2018-06-29 11:16:42.312500,11.32,71.75
291531,2018-06-29 11:16:42.343750,7.19,71.75
291532,2018-06-29 11:16:42.375000,2.44,71.75
291533,2018-06-29 11:16:42.406250,-2.69,71.75
291534,2018-06-29 11:16:42.437500,-7.26,71.75
291535,2018-06-29 11:16:42.468750,-11.21,71.75
291536,2018-06-29 11:16:42.500000,-16.1,71.75
291537,2018-06-29 11:16:42.531250,-23.09,71.7
291538,2018-06-29 11:16:42.562500,-30.94,71.7
291539,2018-06-29 11:16:42.593750,-37.8,71.7
291540,2018-06-29 11:16:42.625000,-44.0,71.7
291541,2018-06-29 11:16:42.656250,-51.54,71.7
291542,2018-06-29 11:16:42.687500,-61.35,71.7
291543,2018-06-29 11:16:42.718750,-69.72,71.7
291544,2018-06-29 11:16:42.750000,-67.65,71.7
291545,2018-06-29 11:16:42.781250,-49.14,71.7
291546,2018-06-29 11:16:42.812500,-20.19,71.7
291547,2018-06-29 11:16:42.843750,6.54,71.7
291548,2018-06-29 11:16:42.875000,24.1,71.7
291549,2018-06-29 11:16:42.906250,33.13,71.7
291550,2018-06-29 11:16:42.937500,35.63,71.7
291551,2018-06-29 11:16:42.968750,33.37,71.7
291552,2018-06-29 11:16:43.000000,30.0,71.7
291553,2018-06-29 11:16:43.031250,29.41,71.7
291554,2018-06-29 11:16:43.062500,31.89,71.7
291555,2018-06-29 11:16:43.093750,34.65,71.7
291556,2018-06-29 11:16:43.125000,36.24,71.7
291557,2018-06-29 11:16:43.156250,37.05,71.7
291558,2018-06-29 11:16:43.187500,36.22,71.7
291559,2018-06-29 11:16:43.218750,32.14,71.7
291560,2018-06-29 11:16:43.250000,25.71,71.7
291561,2018-06-29 11:16:43.281250,19.53,71.7
291562,2018-06-29 11:16:43.312500,14.25,71.7
291563,2018-06-29 11:16:43.343750,8.27,71.7
291564,2018-06-29 11:16:43.375000,1.04,71.7
291565,2018-06-29 11:16:43.406250,-5.69,71.7
291566,2018-06-29 11:16:43.437500,-10.82,71.7
291567,2018-06-29 11:16:43.468750,-16.1,71.7
291568,2018-06-29 11:16:43.500000,-23.53,71.7
291569,2018-06-29 11:16:43.531250,-32.53,71.62
291570,2018-06-29 11:16:43.562500,-41.22,71.62
291571,2018-06-29 11:16:43.593750,-48.73,71.62
291572,2018-06-29 11:16:43.625000,-55.82,71.62
291573,2018-06-29 11:16:43.656250,-64.65,71.62
291574,2018-06-29 11:16:43.687500,-75.34,71.62
291575,2018-06-29 11:16:43.718750,-80.26,71.62
291576,2018-06-29 11:16:43.750000,-68.61,71.62
291577,2018-06-29 11:16:43.781250,-40.29,71.62
291578,2018-06-29 11:16:43.812500,-7.95,71.62
291579,2018-06-29 11:16:43.843750,16.81,71.62
291580,2018-06-29 11:16:43.875000,31.62,71.62
291581,2018-06-29 11:16:43.906250,38.41,71.62
291582,2018-06-29 11:16:43.937500,39.05,71.62
291583,2018-06-29 11:16:43.968750,36.65,71.62
291584,2018-06-29 11:16:44.000000,35.38,71.62
291585,2018-06-29 11:16:44.031250,37.19,71.62
291586,2018-06-29 11:16:44.062500,40.7,71.62
291587,2018-06-29 11:16:44.093750,43.65,71.62
291588,2018-06-29 11:16:44.125000,45.24,71.62
291589,2018-06-29 11:16:44.156250,45.25,71.62
291590,2018-06-29 11:16:44.187500,42.78,71.62
291591,2018-06-29 11:16:44.218750,37.41,71.62
291592,2018-06-29 11:16:44.250000,30.54,71.62
291593,2018-06-29 11:16:44.281250,24.1,71.62
291594,2018-06-29 11:16:44.312500,18.42,71.62
291595,2018-06-29 11:16:44.343750,12.21,71.62
291596,2018-06-29 11:16:44.375000,5.13,71.62
291597,2018-06-29 11:16:44.406250,-1.08,71.62
291598,2018-06-29 11:16:44.437500,-5.64,71.62
291599,2018-06-29 11:16:44.468750,-11.17,71.62
291600,2018-06-29 11:16:44.500000,-20.12,71.62
291601,2018-06-29 11:16:44.531250,-31.07,71.37
291602,2018-06-29 11:16:44.562500,-40.98,71.37
291603,2018-06-29 11:16:44.593750,-49.0,71.37
291604,2018-06-29 11:16:44.625000,-56.69,71.37
291605,2018-06-29 11:16:44.656250,-66.49,71.37
291606,2018-06-29 11:16:44.687500,-78.86,71.37
291607,2018-06-29 11:16:44.718750,-87.2,71.37
291608,2018-06-29 11:16:44.750000,-79.57,71.37
291609,2018-06-29 11:16:44.781250,-52.08,71.37
291610,2018-06-29 11:16:44.812500,-15.93,71.37
291611,2018-06-29 11:16:44.843750,14.15,71.37
291612,2018-06-29 11:16:44.875000,32.76,71.37
291613,2018-06-29 11:16:44.906250,41.46,71.37
291614,2018-06-29 11:16:44.937500,42.37,71.37
291615,2018-06-29 11:16:44.968750,38.79,71.37
291616,2018-06-29 11:16:45.000000,35.5,71.37
291617,2018-06-29 11:16:45.031250,35.27,71.37
291618,2018-06-29 11:16:45.062500,37.33,71.37
291619,2018-06-29 11:16:45.093750,39.98,71.37
291620,2018-06-29 11:16:45.125000,42.26,71.37
291621,2018-06-29 11:16:45.156250,42.8,71.37
291622,2018-06-29 11:16:45.187500,39.82,71.37
291623,2018-06-29 11:16:45.218750,33.57,71.37
291624,2018-06-29 11:16:45.250000,26.47,71.37
291625,2018-06-29 11:16:45.281250,19.77,71.37
291626,2018-06-29 11:16:45.312500,12.23,71.37
291627,2018-06-29 11:16:45.343750,3.66,71.37
291628,2018-06-29 11:16:45.375000,-3.77,71.37
291629,2018-06-29 11:16:45.406250,-9.31,71.37
291630,2018-06-29 11:16:45.437500,-15.1,71.37
291631,2018-06-29 11:16:45.468750,-22.63,71.37
291632,2018-06-29 11:16:45.500000,-30.54,71.37
291633,2018-06-29 11:16:45.531250,-37.33,71.18
291634,2018-06-29 11:16:45.562500,-43.65,71.18
291635,2018-06-29 11:16:45.593750,-51.67,71.18
291636,2018-06-29 11:16:45.625000,-63.21,71.18
291637,2018-06-29 11:16:45.656250,-74.83,71.18
291638,2018-06-29 11:16:45.687500,-75.38,71.18
291639,2018-06-29 11:16:45.718750,-55.7,71.18
291640,2018-06-29 11:16:45.750000,-21.2,71.18
291641,2018-06-29 11:16:45.781250,12.94,71.18
291642,2018-06-29 11:16:45.812500,36.16,71.18
291643,2018-06-29 11:16:45.843750,46.93,71.18
291644,2018-06-29 11:16:45.875000,47.55,71.18
291645,2018-06-29 11:16:45.906250,41.53,71.18
291646,2018-06-29 11:16:45.937500,34.32,71.18
291647,2018-06-29 11:16:45.968750,31.58,71.18
291648,2018-06-29 11:16:46.000000,34.57,71.18
291649,2018-06-29 11:16:46.031250,39.24,71.18
291650,2018-06-29 11:16:46.062500,41.85,71.18
291651,2018-06-29 11:16:46.093750,42.02,71.18
291652,2018-06-29 11:16:46.125000,39.72,71.18
291653,2018-06-29 11:16:46.156250,33.85,71.18
291654,2018-06-29 11:16:46.187500,24.76,71.18
291655,2018-06-29 11:16:46.218750,14.69,71.18
291656,2018-06-29 11:16:46.250000,5.68,71.18
291657,2018-06-29 11:16:46.281250,-1.81,71.18
291658,2018-06-29 11:16:46.312500,-9.1,71.18
291659,2018-06-29 11:16:46.343750,-17.89,71.18
291660,2018-06-29 11:16:46.375000,-27.88,71.18
291661,2018-06-29 11:16:46.406250,-37.06,71.18
291662,2018-06-29 11:16:46.437500,-44.7,71.18
291663,2018-06-29 11:16:46.468750,-52.31,71.18
291664,2018-06-29 11:16:46.500000,-62.32,71.18
291665,2018-06-29 11:16:46.531250,-75.27,71.0
291666,2018-06-29 11:16:46.562500,-84.41,71.0
291667,2018-06-29 11:16:46.593750,-76.35,71.0
291668,2018-06-29 11:16:46.625000,-44.55,71.0
291669,2018-06-29 11:16:46.656250,0.73,71.0
291670,2018-06-29 11:16:46.687500,42.51,71.0
291671,2018-06-29 11:16:46.718750,71.98,71.0
291672,2018-06-29 11:16:46.750000,88.94,71.0
291673,2018-06-29 11:16:46.781250,95.74,71.0
291674,2018-06-29 11:16:46.812500,96.72,71.0
291675,2018-06-29 11:16:46.843750,97.97,71.0
291676,2018-06-29 11:16:46.875000,102.39,71.0
291677,2018-06-29 11:16:46.906250,107.72,71.0
291678,2018-06-29 11:16:46.937500,111.47,71.0
291679,2018-06-29 11:16:46.968750,114.39,71.0
291680,2018-06-29 11:16:47.000000,118.2,71.0
291681,2018-06-29 11:16:47.031250,121.93,71.0
291682,2018-06-29 11:16:47.062500,121.26,71.0
291683,2018-06-29 11:16:47.093750,111.35,71.0
291684,2018-06-29 11:16:47.125000,91.79,71.0
291685,2018-06-29 11:16:47.156250,68.22,71.0
291686,2018-06-29 11:16:47.187500,47.25,71.0
291687,2018-06-29 11:16:47.218750,31.0,71.0
291688,2018-06-29 11:16:47.250000,16.51,71.0
291689,2018-06-29 11:16:47.281250,-2.5,71.0
291690,2018-06-29 11:16:47.312500,-31.88,71.0
291691,2018-06-29 11:16:47.343750,-71.64,71.0
291692,2018-06-29 11:16:47.375000,-114.58,71.0
291693,2018-06-29 11:16:47.406250,-152.53,71.0
291694,2018-06-29 11:16:47.437500,-183.4,71.0
291695,2018-06-29 11:16:47.468750,-210.17,71.0
291696,2018-06-29 11:16:47.500000,-229.07,71.0
291697,2018-06-29 11:16:47.531250,-223.75,70.82
291698,2018-06-29 11:16:47.562500,-182.94,70.82
291699,2018-06-29 11:16:47.593750,-120.1,70.82
291700,2018-06-29 11:16:47.625000,-63.57,70.82
291701,2018-06-29 11:16:47.656250,-29.76,70.82
291702,2018-06-29 11:16:47.687500,-15.46,70.82
291703,2018-06-29 11:16:47.718750,-10.03,70.82
291704,2018-06-29 11:16:47.750000,-5.63,70.82
291705,2018-06-29 11:16:47.781250,0.99,70.82
291706,2018-06-29 11:16:47.812500,9.91,70.82
291707,2018-06-29 11:16:47.843750,20.08,70.82
291708,2018-06-29 11:16:47.875000,29.99,70.82
291709,2018-06-29 11:16:47.906250,37.65,70.82
291710,2018-06-29 11:16:47.937500,41.65,70.82
291711,2018-06-29 11:16:47.968750,41.94,70.82
291712,2018-06-29 11:16:48.000000,38.2,70.82
291713,2018-06-29 11:16:48.031250,30.55,70.82
291714,2018-06-29 11:16:48.062500,22.06,70.82
291715,2018-06-29 11:16:48.093750,16.23,70.82
291716,2018-06-29 11:16:48.125000,12.21,70.82
291717,2018-06-29 11:16:48.156250,6.93,70.82
291718,2018-06-29 11:16:48.187500,-0.28,70.82
291719,2018-06-29 11:16:48.218750,-7.73,70.82
291720,2018-06-29 11:16:48.250000,-13.5,70.82
291721,2018-06-29 11:16:48.281250,-16.77,70.82
291722,2018-06-29 11:16:48.312500,-19.27,70.82
291723,2018-06-29 11:16:48.343750,-24.97,70.82
291724,2018-06-29 11:16:48.375000,-36.7,70.82
291725,2018-06-29 11:16:48.406250,-51.41,70.82
291726,2018-06-29 11:16:48.437500,-57.87,70.82
291727,2018-06-29 11:16:48.468750,-45.78,70.82
291728,2018-06-29 11:16:48.500000,-19.44,70.82
291729,2018-06-29 11:16:48.531250,4.76,70.63
291730,2018-06-29 11:16:48.562500,16.41,70.63
291731,2018-06-29 11:16:48.593750,17.94,70.63
291732,2018-06-29 11:16:48.625000,14.69,70.63
291733,2018-06-29 11:16:48.656250,8.95,70.63
291734,2018-06-29 11:16:48.687500,3.89,70.63
291735,2018-06-29 11:16:48.718750,4.35,70.63
291736,2018-06-29 11:16:48.750000,11.15,70.63
291737,2018-06-29 11:16:48.781250,20.47,70.63
291738,2018-06-29 11:16:48.812500,29.28,70.63
291739,2018-06-29 11:16:48.843750,36.71,70.63
291740,2018-06-29 11:16:48.875000,40.79,70.63
291741,2018-06-29 11:16:48.906250,38.75,70.63
291742,2018-06-29 11:16:48.937500,30.85,70.63
291743,2018-06-29 11:16:48.968750,20.79,70.63
291744,2018-06-29 11:16:49.000000,12.1,70.63
291745,2018-06-29 11:16:49.031250,4.93,70.63
291746,2018-06-29 11:16:49.062500,-3.46,70.63
291747,2018-06-29 11:16:49.093750,-14.95,70.63
291748,2018-06-29 11:16:49.125000,-28.09,70.63
291749,2018-06-29 11:16:49.156250,-40.36,70.63
291750,2018-06-29 11:16:49.187500,-51.23,70.63
291751,2018-06-29 11:16:49.218750,-62.2,70.63
291752,2018-06-29 11:16:49.250000,-75.33,70.63
291753,2018-06-29 11:16:49.281250,-89.51,70.63
291754,2018-06-29 11:16:49.312500,-94.95,70.63
291755,2018-06-29 11:16:49.343750,-78.12,70.63
291756,2018-06-29 11:16:49.375000,-38.6,70.63
291757,2018-06-29 11:16:49.406250,6.8,70.63
291758,2018-06-29 11:16:49.437500,41.33,70.63
291759,2018-06-29 11:16:49.468750,61.35,70.63
291760,2018-06-29 11:16:49.500000,70.59,70.63
291761,2018-06-29 11:16:49.531250,72.4,70.48
291762,2018-06-29 11:16:49.562500,70.22,70.48
291763,2018-06-29 11:16:49.593750,68.38,70.48
291764,2018-06-29 11:16:49.625000,69.65,70.48
291765,2018-06-29 11:16:49.656250,74.02,70.48
291766,2018-06-29 11:16:49.687500,79.75,70.48
291767,2018-06-29 11:16:49.718750,84.42,70.48
291768,2018-06-29 11:16:49.750000,85.54,70.48
291769,2018-06-29 11:16:49.781250,81.68,70.48
291770,2018-06-29 11:16:49.812500,73.47,70.48
291771,2018-06-29 11:16:49.843750,62.3,70.48
291772,2018-06-29 11:16:49.875000,48.32,70.48
291773,2018-06-29 11:16:49.906250,31.58,70.48
291774,2018-06-29 11:16:49.937500,14.44,70.48
291775,2018-06-29 11:16:49.968750,-0.71,70.48
291776,2018-06-29 11:16:50.000000,-15.45,70.48
291777,2018-06-29 11:16:50.031250,-32.26,70.48
291778,2018-06-29 11:16:50.062500,-49.68,70.48
291779,2018-06-29 11:16:50.093750,-65.44,70.48
291780,2018-06-29 11:16:50.125000,-81.34,70.48
291781,2018-06-29 11:16:50.156250,-100.6,70.48
291782,2018-06-29 11:16:50.187500,-122.78,70.48
291783,2018-06-29 11:16:50.218750,-140.5,70.48
291784,2018-06-29 11:16:50.250000,-140.37,70.48
291785,2018-06-29 11:16:50.281250,-114.78,70.48
291786,2018-06-29 11:16:50.312500,-73.42,70.48
291787,2018-06-29 11:16:50.343750,-33.94,70.48
291788,2018-06-29 11:16:50.375000,-4.06,70.48
291789,2018-06-29 11:16:50.406250,17.58,70.48
291790,2018-06-29 11:16:50.437500,30.7,70.48
291791,2018-06-29 11:16:50.468750,34.62,70.48
291792,2018-06-29 11:16:50.500000,33.67,70.48
291793,2018-06-29 11:16:50.531250,33.83,70.38
291794,2018-06-29 11:16:50.562500,36.89,70.38
291795,2018-06-29 11:16:50.593750,41.21,70.38
291796,2018-06-29 11:16:50.625000,45.69,70.38
291797,2018-06-29 11:16:50.656250,50.33,70.38
291798,2018-06-29 11:16:50.687500,54.42,70.38
291799,2018-06-29 11:16:50.718750,56.53,70.38
291800,2018-06-29 11:16:50.750000,55.5,70.38
291801,2018-06-29 11:16:50.781250,50.01,70.38
291802,2018-06-29 11:16:50.812500,39.9,70.38
291803,2018-06-29 11:16:50.843750,30.82,70.38
291804,2018-06-29 11:16:50.875000,32.73,70.38
291805,2018-06-29 11:16:50.906250,48.94,70.38
291806,2018-06-29 11:16:50.937500,70.27,70.38
291807,2018-06-29 11:16:50.968750,85.36,70.38
291808,2018-06-29 11:16:51.000000,92.98,70.38
291809,2018-06-29 11:16:51.031250,98.12,70.38
291810,2018-06-29 11:16:51.062500,100.06,70.38
291811,2018-06-29 11:16:51.093750,92.61,70.38
291812,2018-06-29 11:16:51.125000,76.06,70.38
291813,2018-06-29 11:16:51.156250,62.0,70.38
291814,2018-06-29 11:16:51.187500,63.85,70.38
291815,2018-06-29 11:16:51.218750,84.1,70.38
291816,2018-06-29 11:16:51.250000,111.3,70.38
291817,2018-06-29 11:16:51.281250,129.26,70.38
291818,2018-06-29 11:16:51.312500,130.55,70.38
291819,2018-06-29 11:16:51.343750,121.8,70.38
291820,2018-06-29 11:16:51.375000,116.07,70.38
291821,2018-06-29 11:16:51.406250,119.48,70.38
291822,2018-06-29 11:16:51.437500,125.97,70.38
291823,2018-06-29 11:16:51.468750,124.13,70.38
291824,2018-06-29 11:16:51.500000,106.78,70.38
291825,2018-06-29 11:16:51.531250,75.49,70.32
291826,2018-06-29 11:16:51.562500,40.7,70.32
291827,2018-06-29 11:16:51.593750,14.94,70.32
291828,2018-06-29 11:16:51.625000,0.53,70.32
291829,2018-06-29 11:16:51.656250,-11.62,70.32
291830,2018-06-29 11:16:51.687500,-26.92,70.32
291831,2018-06-29 11:16:51.718750,-39.43,70.32
291832,2018-06-29 11:16:51.750000,-44.11,70.32
291833,2018-06-29 11:16:51.781250,-46.81,70.32
291834,2018-06-29 11:16:51.812500,-56.32,70.32
291835,2018-06-29 11:16:51.843750,-72.89,70.32
291836,2018-06-29 11:16:51.875000,-89.11,70.32
291837,2018-06-29 11:16:51.906250,-99.03,70.32
291838,2018-06-29 11:16:51.937500,-103.85,70.32
291839,2018-06-29 11:16:51.968750,-110.2,70.32
291840,2018-06-29 11:16:52.000000,-123.41,70.32
291841,2018-06-29 11:16:52.031250,-140.23,70.32
291842,2018-06-29 11:16:52.062500,-147.77,70.32
291843,2018-06-29 11:16:52.093750,-135.77,70.32
291844,2018-06-29 11:16:52.125000,-109.51,70.32
291845,2018-06-29 11:16:52.156250,-84.84,70.32
291846,2018-06-29 11:16:52.187500,-74.45,70.32
291847,2018-06-29 11:16:52.218750,-84.04,70.32
291848,2018-06-29 11:16:52.250000,-113.99,70.32
291849,2018-06-29 11:16:52.281250,-157.16,70.32
291850,2018-06-29 11:16:52.312500,-195.54,70.32
291851,2018-06-29 11:16:52.343750,-205.13,70.32
291852,2018-06-29 11:16:52.375000,-172.66,70.32
291853,2018-06-29 11:16:52.406250,-108.79,70.32
291854,2018-06-29 11:16:52.437500,-35.27,70.32
291855,2018-06-29 11:16:52.468750,36.71,70.32
291856,2018-06-29 11:16:52.500000,102.65,70.32
291857,2018-06-29 11:16:52.531250,149.81,70.27
291858,2018-06-29 11:16:52.562500,164.5,70.27
291859,2018-06-29 11:16:52.593750,147.72,70.27
291860,2018-06-29 11:16:52.625000,109.79,70.27
291861,2018-06-29 11:16:52.656250,55.59,70.27
291862,2018-06-29 11:16:52.687500,-15.07,70.27
291863,2018-06-29 11:16:52.718750,-97.6,70.27
291864,2018-06-29 11:16:52.750000,-181.93,70.27
291865,2018-06-29 11:16:52.781250,-257.94,70.27
291866,2018-06-29 11:16:52.812500,-315.88,70.27
291867,2018-06-29 11:16:52.843750,-347.27,70.27
291868,2018-06-29 11:16:52.875000,-353.07,70.27
291869,2018-06-29 11:16:52.906250,-346.97,70.27
291870,2018-06-29 11:16:52.937500,-341.22,70.27
291871,2018-06-29 11:16:52.968750,-332.48,70.27
291872,2018-06-29 11:16:53.000000,-308.31,70.27
291873,2018-06-29 11:16:53.031250,-260.15,70.27
291874,2018-06-29 11:16:53.062500,-187.03,70.27
291875,2018-06-29 11:16:53.093750,-100.41,70.27
291876,2018-06-29 11:16:53.125000,-26.75,70.27
291877,2018-06-29 11:16:53.156250,14.15,70.27
291878,2018-06-29 11:16:53.187500,31.51,70.27
291879,2018-06-29 11:16:53.218750,51.03,70.27
291880,2018-06-29 11:16:53.250000,89.1,70.27
291881,2018-06-29 11:16:53.281250,147.24,70.27
291882,2018-06-29 11:16:53.312500,217.82,70.27
291883,2018-06-29 11:16:53.343750,284.65,70.27
291884,2018-06-29 11:16:53.375000,330.43,70.27
291885,2018-06-29 11:16:53.406250,347.84,70.27
291886,2018-06-29 11:16:53.437500,340.4,70.27
291887,2018-06-29 11:16:53.468750,313.76,70.27
291888,2018-06-29 11:16:53.500000,273.15,70.27
291889,2018-06-29 11:16:53.531250,227.06,70.4
291890,2018-06-29 11:16:53.562500,180.28,70.4
291891,2018-06-29 11:16:53.593750,131.46,70.4
291892,2018-06-29 11:16:53.625000,76.85,70.4
291893,2018-06-29 11:16:53.656250,22.33,70.4
291894,2018-06-29 11:16:53.687500,-25.55,70.4
291895,2018-06-29 11:16:53.718750,-69.43,70.4
291896,2018-06-29 11:16:53.750000,-113.13,70.4
291897,2018-06-29 11:16:53.781250,-148.16,70.4
291898,2018-06-29 11:16:53.812500,-155.01,70.4
291899,2018-06-29 11:16:53.843750,-132.78,70.4
291900,2018-06-29 11:16:53.875000,-90.14,70.4
291901,2018-06-29 11:16:53.906250,-35.13,70.4
291902,2018-06-29 11:16:53.937500,33.6,70.4
291903,2018-06-29 11:16:53.968750,113.27,70.4
291904,2018-06-29 11:16:54.000000,203.41,70.4
291905,2018-06-29 11:16:54.031250,303.68,70.4
291906,2018-06-29 11:16:54.062500,328.39,70.4
291907,2018-06-29 11:16:54.093750,244.3,70.4
291908,2018-06-29 11:16:54.125000,116.35,70.4
291909,2018-06-29 11:16:54.156250,8.8,70.4
291910,2018-06-29 11:16:54.187500,-53.82,70.4
291911,2018-06-29 11:16:54.218750,-82.63,70.4
291912,2018-06-29 11:16:54.250000,-95.3,70.4
291913,2018-06-29 11:16:54.281250,-104.39,70.4
291914,2018-06-29 11:16:54.312500,-107.06,70.4
291915,2018-06-29 11:16:54.343750,-91.19,70.4
291916,2018-06-29 11:16:54.375000,-51.36,70.4
291917,2018-06-29 11:16:54.406250,-7.13,70.4
291918,2018-06-29 11:16:54.437500,5.74,70.4
291919,2018-06-29 11:16:54.468750,-27.01,70.4
291920,2018-06-29 11:16:54.500000,-85.2,70.4
291921,2018-06-29 11:16:54.531250,-144.79,70.53
291922,2018-06-29 11:16:54.562500,-188.56,70.53
291923,2018-06-29 11:16:54.593750,-205.07,70.53
291924,2018-06-29 11:16:54.625000,-182.4,70.53
291925,2018-06-29 11:16:54.656250,-92.29,70.53
291926,2018-06-29 11:16:54.687500,5.49,70.53
291927,2018-06-29 11:16:54.718750,60.08,70.53
291928,2018-06-29 11:16:54.750000,71.93,70.53
291929,2018-06-29 11:16:54.781250,58.07,70.53
291930,2018-06-29 11:16:54.812500,37.97,70.53
291931,2018-06-29 11:16:54.843750,22.27,70.53
291932,2018-06-29 11:16:54.875000,14.59,70.53
291933,2018-06-29 11:16:54.906250,8.84,70.53
291934,2018-06-29 11:16:54.937500,3.26,70.53
291935,2018-06-29 11:16:54.968750,4.59,70.53
291936,2018-06-29 11:16:55.000000,13.54,70.53
291937,2018-06-29 11:16:55.031250,25.6,70.53
291938,2018-06-29 11:16:55.062500,36.84,70.53
291939,2018-06-29 11:16:55.093750,45.58,70.53
291940,2018-06-29 11:16:55.125000,52.03,70.53
291941,2018-06-29 11:16:55.156250,56.44,70.53
291942,2018-06-29 11:16:55.187500,57.98,70.53
291943,2018-06-29 11:16:55.218750,55.94,70.53
291944,2018-06-29 11:16:55.250000,47.97,70.53
291945,2018-06-29 11:16:55.281250,34.93,70.53
291946,2018-06-29 11:16:55.312500,17.49,70.53
291947,2018-06-29 11:16:55.343750,-2.86,70.53
291948,2018-06-29 11:16:55.375000,-19.73,70.53
291949,2018-06-29 11:16:55.406250,-21.16,70.53
291950,2018-06-29 11:16:55.437500,-0.58,70.53
291951,2018-06-29 11:16:55.468750,33.43,70.53
291952,2018-06-29 11:16:55.500000,66.42,70.53
291953,2018-06-29 11:16:55.531250,90.14,70.68
291954,2018-06-29 11:16:55.562500,103.61,70.68
291955,2018-06-29 11:16:55.593750,107.27,70.68
291956,2018-06-29 11:16:55.625000,100.94,70.68
291957,2018-06-29 11:16:55.656250,85.92,70.68
291958,2018-06-29 11:16:55.687500,67.02,70.68
291959,2018-06-29 11:16:55.718750,50.79,70.68
291960,2018-06-29 11:16:55.750000,41.5,70.68
291961,2018-06-29 11:16:55.781250,38.01,70.68
291962,2018-06-29 11:16:55.812500,35.79,70.68
291963,2018-06-29 11:16:55.843750,30.35,70.68
291964,2018-06-29 11:16:55.875000,19.97,70.68
291965,2018-06-29 11:16:55.906250,4.53,70.68
291966,2018-06-29 11:16:55.937500,-18.26,70.68
291967,2018-06-29 11:16:55.968750,-51.2,70.68
291968,2018-06-29 11:16:56.000000,-92.98,70.68
291969,2018-06-29 11:16:56.031250,-134.96,70.68
291970,2018-06-29 11:16:56.062500,-167.03,70.68
291971,2018-06-29 11:16:56.093750,-174.68,70.68
291972,2018-06-29 11:16:56.125000,-145.53,70.68
291973,2018-06-29 11:16:56.156250,-82.03,70.68
291974,2018-06-29 11:16:56.187500,-6.51,70.68
291975,2018-06-29 11:16:56.218750,50.34,70.68
291976,2018-06-29 11:16:56.250000,76.7,70.68
291977,2018-06-29 11:16:56.281250,82.34,70.68
291978,2018-06-29 11:16:56.312500,89.73,70.68
291979,2018-06-29 11:16:56.343750,101.93,70.68
291980,2018-06-29 11:16:56.375000,110.44,70.68
291981,2018-06-29 11:16:56.406250,117.9,70.68
291982,2018-06-29 11:16:56.437500,138.18,70.68
291983,2018-06-29 11:16:56.468750,176.96,70.68
291984,2018-06-29 11:16:56.500000,214.77,70.68
291985,2018-06-29 11:16:56.531250,235.25,70.85
291986,2018-06-29 11:16:56.562500,177.54,70.85
291987,2018-06-29 11:16:56.593750,35.22,70.85
291988,2018-06-29 11:16:56.625000,-88.47,70.85
291989,2018-06-29 11:16:56.656250,-171.93,70.85
291990,2018-06-29 11:16:56.687500,-241.82,70.85
291991,2018-06-29 11:16:56.718750,-303.7,70.85
291992,2018-06-29 11:16:56.750000,-341.39,70.85
291993,2018-06-29 11:16:56.781250,-344.9,70.85
291994,2018-06-29 11:16:56.812500,-317.75,70.85
291995,2018-06-29 11:16:56.843750,-229.46,70.85
291996,2018-06-29 11:16:56.875000,-96.88,70.85
291997,2018-06-29 11:16:56.906250,18.62,70.85
291998,2018-06-29 11:16:56.937500,104.12,70.85
291999,2018-06-29 11:16:56.968750,147.79,70.85
292000,2018-06-29 11:16:57.000000,156.79,70.85
292001,2018-06-29 11:16:57.031250,152.78,70.85
292002,2018-06-29 11:16:57.062500,141.44,70.85
292003,2018-06-29 11:16:57.093750,117.44,70.85
292004,2018-06-29 11:16:57.125000,85.52,70.85
292005,2018-06-29 11:16:57.156250,51.99,70.85
292006,2018-06-29 11:16:57.187500,23.57,70.85
292007,2018-06-29 11:16:57.218750,-7.96,70.85
292008,2018-06-29 11:16:57.250000,-42.57,70.85
292009,2018-06-29 11:16:57.281250,-72.79,70.85
292010,2018-06-29 11:16:57.312500,-82.26,70.85
292011,2018-06-29 11:16:57.343750,-68.11,70.85
292012,2018-06-29 11:16:57.375000,-43.5,70.85
292013,2018-06-29 11:16:57.406250,-18.15,70.85
292014,2018-06-29 11:16:57.437500,12.66,70.85
292015,2018-06-29 11:16:57.468750,67.25,70.85
292016,2018-06-29 11:16:57.500000,144.56,70.85
292017,2018-06-29 11:16:57.531250,231.91,71.08
292018,2018-06-29 11:16:57.562500,265.09,71.08
292019,2018-06-29 11:16:57.593750,191.55,71.08
292020,2018-06-29 11:16:57.625000,77.78,71.08
292021,2018-06-29 11:16:57.656250,-23.84,71.08
292022,2018-06-29 11:16:57.687500,-97.26,71.08
292023,2018-06-29 11:16:57.718750,-132.93,71.08
292024,2018-06-29 11:16:57.750000,-139.2,71.08
292025,2018-06-29 11:16:57.781250,-135.92,71.08
292026,2018-06-29 11:16:57.812500,-134.19,71.08
292027,2018-06-29 11:16:57.843750,-132.18,71.08
292028,2018-06-29 11:16:57.875000,-120.28,71.08
292029,2018-06-29 11:16:57.906250,-105.83,71.08
292030,2018-06-29 11:16:57.937500,-92.48,71.08
292031,2018-06-29 11:16:57.968750,-82.1,71.08
292032,2018-06-29 11:16:58.000000,-69.08,71.08
292033,2018-06-29 11:16:58.031250,-34.88,71.08
292034,2018-06-29 11:16:58.062500,17.27,71.08
292035,2018-06-29 11:16:58.093750,60.88,71.08
292036,2018-06-29 11:16:58.125000,89.05,71.08
292037,2018-06-29 11:16:58.156250,117.78,71.08
292038,2018-06-29 11:16:58.187500,154.02,71.08
292039,2018-06-29 11:16:58.218750,186.58,71.08
292040,2018-06-29 11:16:58.250000,202.54,71.08
292041,2018-06-29 11:16:58.281250,204.6,71.08
292042,2018-06-29 11:16:58.312500,186.51,71.08
292043,2018-06-29 11:16:58.343750,144.4,71.08
292044,2018-06-29 11:16:58.375000,83.64,71.08
292045,2018-06-29 11:16:58.406250,12.6,71.08
292046,2018-06-29 11:16:58.437500,-61.82,71.08
292047,2018-06-29 11:16:58.468750,-130.98,71.08
292048,2018-06-29 11:16:58.500000,-181.61,71.08
292049,2018-06-29 11:16:58.531250,-199.2,71.33
292050,2018-06-29 11:16:58.562500,-170.76,71.33
292051,2018-06-29 11:16:58.593750,-100.24,71.33
292052,2018-06-29 11:16:58.625000,-8.86,71.33
292053,2018-06-29 11:16:58.656250,70.42,71.33
292054,2018-06-29 11:16:58.687500,111.07,71.33
292055,2018-06-29 11:16:58.718750,103.38,71.33
292056,2018-06-29 11:16:58.750000,51.1,71.33
292057,2018-06-29 11:16:58.781250,-28.7,71.33
292058,2018-06-29 11:16:58.812500,-117.58,71.33
292059,2018-06-29 11:16:58.843750,-187.29,71.33
292060,2018-06-29 11:16:58.875000,-216.94,71.33
292061,2018-06-29 11:16:58.906250,-206.67,71.33
292062,2018-06-29 11:16:58.937500,-182.92,71.33
292063,2018-06-29 11:16:58.968750,-173.05,71.33
292064,2018-06-29 11:16:59.000000,-175.59,71.33
292065,2018-06-29 11:16:59.031250,-177.12,71.33
292066,2018-06-29 11:16:59.062500,-125.46,71.33
292067,2018-06-29 11:16:59.093750,-21.19,71.33
292068,2018-06-29 11:16:59.125000,62.62,71.33
292069,2018-06-29 11:16:59.156250,118.07,71.33
292070,2018-06-29 11:16:59.187500,171.96,71.33
292071,2018-06-29 11:16:59.218750,226.13,71.33
292072,2018-06-29 11:16:59.250000,268.34,71.33
292073,2018-06-29 11:16:59.281250,292.81,71.33
292074,2018-06-29 11:16:59.312500,260.94,71.33
292075,2018-06-29 11:16:59.343750,163.53,71.33
292076,2018-06-29 11:16:59.375000,48.97,71.33
292077,2018-06-29 11:16:59.406250,-44.46,71.33
292078,2018-06-29 11:16:59.437500,-115.79,71.33
292079,2018-06-29 11:16:59.468750,-169.98,71.33
292080,2018-06-29 11:16:59.500000,-205.65,71.33
292081,2018-06-29 11:16:59.531250,-218.78,71.58
292082,2018-06-29 11:16:59.562500,-201.87,71.58
292083,2018-06-29 11:16:59.593750,-154.03,71.58
292084,2018-06-29 11:16:59.625000,-87.44,71.58
292085,2018-06-29 11:16:59.656250,-24.33,71.58
292086,2018-06-29 11:16:59.687500,27.03,71.58
292087,2018-06-29 11:16:59.718750,76.47,71.58
292088,2018-06-29 11:16:59.750000,131.32,71.58
292089,2018-06-29 11:16:59.781250,186.17,71.58
292090,2018-06-29 11:16:59.812500,223.19,71.58
292091,2018-06-29 11:16:59.843750,230.81,71.58
292092,2018-06-29 11:16:59.875000,206.05,71.58
292093,2018-06-29 11:16:59.906250,156.8,71.58
292094,2018-06-29 11:16:59.937500,100.26,71.58
292095,2018-06-29 11:16:59.968750,50.38,71.58
292096,2018-06-29 11:17:00.000000,11.56,71.58
292097,2018-06-29 11:17:00.031250,-25.55,71.58
292098,2018-06-29 11:17:00.062500,-64.62,71.58
292099,2018-06-29 11:17:00.093750,-103.79,71.58
292100,2018-06-29 11:17:00.125000,-137.23,71.58
292101,2018-06-29 11:17:00.156250,-167.86,71.58
292102,2018-06-29 11:17:00.187500,-200.92,71.58
292103,2018-06-29 11:17:00.218750,-226.69,71.58
292104,2018-06-29 11:17:00.250000,-233.4,71.58
292105,2018-06-29 11:17:00.281250,-183.99,71.58
292106,2018-06-29 11:17:00.312500,-78.71,71.58
292107,2018-06-29 11:17:00.343750,23.01,71.58
292108,2018-06-29 11:17:00.375000,99.18,71.58
292109,2018-06-29 11:17:00.406250,162.87,71.58
292110,2018-06-29 11:17:00.437500,215.99,71.58
292111,2018-06-29 11:17:00.468750,254.72,71.58
292112,2018-06-29 11:17:00.500000,270.19,71.58
292113,2018-06-29 11:17:00.531250,216.35,71.73
292114,2018-06-29 11:17:00.562500,106.13,71.73
292115,2018-06-29 11:17:00.593750,-0.84,71.73
292116,2018-06-29 11:17:00.625000,-77.33,71.73
292117,2018-06-29 11:17:00.656250,-132.8,71.73
292118,2018-06-29 11:17:00.687500,-166.6,71.73
292119,2018-06-29 11:17:00.718750,-178.89,71.73
292120,2018-06-29 11:17:00.750000,-170.36,71.73
292121,2018-06-29 11:17:00.781250,-161.17,71.73
292122,2018-06-29 11:17:00.812500,-158.84,71.73
292123,2018-06-29 11:17:00.843750,-151.69,71.73
292124,2018-06-29 11:17:00.875000,-120.26,71.73
292125,2018-06-29 11:17:00.906250,-71.31,71.73
292126,2018-06-29 11:17:00.937500,-26.18,71.73
292127,2018-06-29 11:17:00.968750,13.62,71.73
292128,2018-06-29 11:17:01.000000,78.28,71.73
292129,2018-06-29 11:17:01.031250,184.57,71.73
292130,2018-06-29 11:17:01.062500,300.26,71.73
292131,2018-06-29 11:17:01.093750,387.88,71.73
292132,2018-06-29 11:17:01.125000,373.82,71.73
292133,2018-06-29 11:17:01.156250,232.03,71.73
292134,2018-06-29 11:17:01.187500,72.56,71.73
292135,2018-06-29 11:17:01.218750,-38.49,71.73
292136,2018-06-29 11:17:01.250000,-101.16,71.73
292137,2018-06-29 11:17:01.281250,-120.76,71.73
292138,2018-06-29 11:17:01.312500,-116.77,71.73
292139,2018-06-29 11:17:01.343750,-117.12,71.73
292140,2018-06-29 11:17:01.375000,-125.33,71.73
292141,2018-06-29 11:17:01.406250,-130.31,71.73
292142,2018-06-29 11:17:01.437500,-123.9,71.73
292143,2018-06-29 11:17:01.468750,-120.72,71.73
292144,2018-06-29 11:17:01.500000,-132.68,71.73
292145,2018-06-29 11:17:01.531250,-153.37,71.9
292146,2018-06-29 11:17:01.562500,-143.3,71.9
292147,2018-06-29 11:17:01.593750,-74.73,71.9
292148,2018-06-29 11:17:01.625000,14.12,71.9
292149,2018-06-29 11:17:01.656250,87.82,71.9
292150,2018-06-29 11:17:01.687500,150.81,71.9
292151,2018-06-29 11:17:01.718750,208.73,71.9
292152,2018-06-29 11:17:01.750000,252.16,71.9
292153,2018-06-29 11:17:01.781250,261.51,71.9
292154,2018-06-29 11:17:01.812500,229.44,71.9
292155,2018-06-29 11:17:01.843750,168.77,71.9
292156,2018-06-29 11:17:01.875000,90.03,71.9
292157,2018-06-29 11:17:01.906250,-6.0,71.9
292158,2018-06-29 11:17:01.937500,-108.53,71.9
292159,2018-06-29 11:17:01.968750,-177.42,71.9
292160,2018-06-29 11:17:02.000000,-170.41,71.9
292161,2018-06-29 11:17:02.031250,-90.08,71.9
292162,2018-06-29 11:17:02.062500,12.24,71.9
292163,2018-06-29 11:17:02.093750,82.97,71.9
292164,2018-06-29 11:17:02.125000,96.03,71.9
292165,2018-06-29 11:17:02.156250,52.58,71.9
292166,2018-06-29 11:17:02.187500,-26.12,71.9
292167,2018-06-29 11:17:02.218750,-104.44,71.9
292168,2018-06-29 11:17:02.250000,-150.34,71.9
292169,2018-06-29 11:17:02.281250,-157.57,71.9
292170,2018-06-29 11:17:02.312500,-142.68,71.9
292171,2018-06-29 11:17:02.343750,-124.98,71.9
292172,2018-06-29 11:17:02.375000,-113.88,71.9
292173,2018-06-29 11:17:02.406250,-109.53,71.9
292174,2018-06-29 11:17:02.437500,-106.13,71.9
292175,2018-06-29 11:17:02.468750,-96.2,71.9
292176,2018-06-29 11:17:02.500000,-73.53,71.9
292177,2018-06-29 11:17:02.531250,-33.14,72.07
292178,2018-06-29 11:17:02.562500,25.71,72.07
292179,2018-06-29 11:17:02.593750,90.85,72.07
292180,2018-06-29 11:17:02.625000,136.48,72.07
292181,2018-06-29 11:17:02.656250,139.85,72.07
292182,2018-06-29 11:17:02.687500,100.61,72.07
292183,2018-06-29 11:17:02.718750,39.89,72.07
292184,2018-06-29 11:17:02.750000,-18.31,72.07
292185,2018-06-29 11:17:02.781250,-61.3,72.07
292186,2018-06-29 11:17:02.812500,-87.43,72.07
292187,2018-06-29 11:17:02.843750,-98.46,72.07
292188,2018-06-29 11:17:02.875000,-92.63,72.07
292189,2018-06-29 11:17:02.906250,-66.18,72.07
292190,2018-06-29 11:17:02.937500,-22.76,72.07
292191,2018-06-29 11:17:02.968750,24.25,72.07
292192,2018-06-29 11:17:03.000000,62.47,72.07
292193,2018-06-29 11:17:03.031250,88.58,72.07
292194,2018-06-29 11:17:03.062500,102.55,72.07
292195,2018-06-29 11:17:03.093750,102.39,72.07
292196,2018-06-29 11:17:03.125000,87.67,72.07
292197,2018-06-29 11:17:03.156250,64.86,72.07
292198,2018-06-29 11:17:03.187500,45.44,72.07
292199,2018-06-29 11:17:03.218750,37.97,72.07
292200,2018-06-29 11:17:03.250000,41.94,72.07
292201,2018-06-29 11:17:03.281250,48.35,72.07
292202,2018-06-29 11:17:03.312500,49.86,72.07
292203,2018-06-29 11:17:03.343750,43.36,72.07
292204,2018-06-29 11:17:03.375000,31.66,72.07
292205,2018-06-29 11:17:03.406250,21.26,72.07
292206,2018-06-29 11:17:03.437500,17.22,72.07
292207,2018-06-29 11:17:03.468750,15.32,72.07
292208,2018-06-29 11:17:03.500000,3.4,72.07
292209,2018-06-29 11:17:03.531250,-18.45,72.28
292210,2018-06-29 11:17:03.562500,-38.17,72.28
292211,2018-06-29 11:17:03.593750,-42.83,72.28
292212,2018-06-29 11:17:03.625000,-40.72,72.28
292213,2018-06-29 11:17:03.656250,-37.18,72.28
292214,2018-06-29 11:17:03.687500,-21.15,72.28
292215,2018-06-29 11:17:03.718750,18.95,72.28
292216,2018-06-29 11:17:03.750000,87.32,72.28
292217,2018-06-29 11:17:03.781250,165.22,72.28
292218,2018-06-29 11:17:03.812500,221.09,72.28
292219,2018-06-29 11:17:03.843750,195.66,72.28
292220,2018-06-29 11:17:03.875000,80.08,72.28
292221,2018-06-29 11:17:03.906250,-35.86,72.28
292222,2018-06-29 11:17:03.937500,-110.27,72.28
292223,2018-06-29 11:17:03.968750,-159.68,72.28
292224,2018-06-29 11:17:04.000000,-183.06,72.28
292225,2018-06-29 11:17:04.031250,-173.95,72.28
292226,2018-06-29 11:17:04.062500,-147.0,72.28
292227,2018-06-29 11:17:04.093750,-116.82,72.28
292228,2018-06-29 11:17:04.125000,-87.39,72.28
292229,2018-06-29 11:17:04.156250,-51.23,72.28
292230,2018-06-29 11:17:04.187500,-8.25,72.28
292231,2018-06-29 11:17:04.218750,32.07,72.28
292232,2018-06-29 11:17:04.250000,62.49,72.28
292233,2018-06-29 11:17:04.281250,79.84,72.28
292234,2018-06-29 11:17:04.312500,78.85,72.28
292235,2018-06-29 11:17:04.343750,54.66,72.28
292236,2018-06-29 11:17:04.375000,25.76,72.28
292237,2018-06-29 11:17:04.406250,19.62,72.28
292238,2018-06-29 11:17:04.437500,32.35,72.28
292239,2018-06-29 11:17:04.468750,31.93,72.28
292240,2018-06-29 11:17:04.500000,5.52,72.28
292241,2018-06-29 11:17:04.531250,-28.62,72.35
292242,2018-06-29 11:17:04.562500,-54.63,72.35
292243,2018-06-29 11:17:04.593750,-71.11,72.35
292244,2018-06-29 11:17:04.625000,-79.45,72.35
292245,2018-06-29 11:17:04.656250,-82.3,72.35
292246,2018-06-29 11:17:04.687500,-88.95,72.35
292247,2018-06-29 11:17:04.718750,-107.23,72.35
292248,2018-06-29 11:17:04.750000,-129.26,72.35
292249,2018-06-29 11:17:04.781250,-133.35,72.35
292250,2018-06-29 11:17:04.812500,-100.57,72.35
292251,2018-06-29 11:17:04.843750,-32.0,72.35
292252,2018-06-29 11:17:04.875000,47.34,72.35
292253,2018-06-29 11:17:04.906250,105.19,72.35
292254,2018-06-29 11:17:04.937500,126.02,72.35
292255,2018-06-29 11:17:04.968750,116.37,72.35
292256,2018-06-29 11:17:05.000000,90.65,72.35
292257,2018-06-29 11:17:05.031250,60.55,72.35
292258,2018-06-29 11:17:05.062500,35.84,72.35
292259,2018-06-29 11:17:05.093750,24.84,72.35
292260,2018-06-29 11:17:05.125000,29.92,72.35
292261,2018-06-29 11:17:05.156250,47.08,72.35
292262,2018-06-29 11:17:05.187500,68.49,72.35
292263,2018-06-29 11:17:05.218750,83.52,72.35
292264,2018-06-29 11:17:05.250000,83.34,72.35
292265,2018-06-29 11:17:05.281250,65.93,72.35
292266,2018-06-29 11:17:05.312500,30.46,72.35
292267,2018-06-29 11:17:05.343750,-27.98,72.35
292268,2018-06-29 11:17:05.375000,-103.54,72.35
292269,2018-06-29 11:17:05.406250,-161.26,72.35
292270,2018-06-29 11:17:05.437500,-154.33,72.35
292271,2018-06-29 11:17:05.468750,-66.1,72.35
292272,2018-06-29 11:17:05.500000,68.41,72.35
292273,2018-06-29 11:17:05.531250,183.62,72.45
292274,2018-06-29 11:17:05.562500,228.08,72.45
292275,2018-06-29 11:17:05.593750,193.36,72.45
292276,2018-06-29 11:17:05.625000,107.06,72.45
292277,2018-06-29 11:17:05.656250,8.68,72.45
292278,2018-06-29 11:17:05.687500,-68.73,72.45
292279,2018-06-29 11:17:05.718750,-112.16,72.45
292280,2018-06-29 11:17:05.750000,-131.02,72.45
292281,2018-06-29 11:17:05.781250,-138.57,72.45
292282,2018-06-29 11:17:05.812500,-133.89,72.45
292283,2018-06-29 11:17:05.843750,-110.27,72.45
292284,2018-06-29 11:17:05.875000,-73.52,72.45
292285,2018-06-29 11:17:05.906250,-38.16,72.45
292286,2018-06-29 11:17:05.937500,-12.28,72.45
292287,2018-06-29 11:17:05.968750,3.3,72.45
292288,2018-06-29 11:17:06.000000,9.21,72.45
292289,2018-06-29 11:17:06.031250,13.55,72.45
292290,2018-06-29 11:17:06.062500,26.89,72.45
292291,2018-06-29 11:17:06.093750,47.89,72.45
292292,2018-06-29 11:17:06.125000,65.21,72.45
292293,2018-06-29 11:17:06.156250,72.62,72.45
292294,2018-06-29 11:17:06.187500,74.58,72.45
292295,2018-06-29 11:17:06.218750,73.07,72.45
292296,2018-06-29 11:17:06.250000,68.96,72.45
292297,2018-06-29 11:17:06.281250,63.36,72.45
292298,2018-06-29 11:17:06.312500,64.23,72.45
292299,2018-06-29 11:17:06.343750,76.36,72.45
292300,2018-06-29 11:17:06.375000,88.25,72.45
292301,2018-06-29 11:17:06.406250,83.97,72.45
292302,2018-06-29 11:17:06.437500,54.99,72.45
292303,2018-06-29 11:17:06.468750,8.42,72.45
292304,2018-06-29 11:17:06.500000,-62.93,72.45
292305,2018-06-29 11:17:06.531250,-126.41,72.67
292306,2018-06-29 11:17:06.562500,-132.28,72.67
292307,2018-06-29 11:17:06.593750,-83.56,72.67
292308,2018-06-29 11:17:06.625000,9.96,72.67
292309,2018-06-29 11:17:06.656250,123.22,72.67
292310,2018-06-29 11:17:06.687500,215.68,72.67
292311,2018-06-29 11:17:06.718750,213.35,72.67
292312,2018-06-29 11:17:06.750000,103.47,72.67
292313,2018-06-29 11:17:06.781250,-15.05,72.67
292314,2018-06-29 11:17:06.812500,-112.53,72.67
292315,2018-06-29 11:17:06.843750,-191.51,72.67
292316,2018-06-29 11:17:06.875000,-233.74,72.67
292317,2018-06-29 11:17:06.906250,-230.04,72.67
292318,2018-06-29 11:17:06.937500,-198.96,72.67
292319,2018-06-29 11:17:06.968750,-152.06,72.67
292320,2018-06-29 11:17:07.000000,-92.49,72.67
292321,2018-06-29 11:17:07.031250,-20.87,72.67
292322,2018-06-29 11:17:07.062500,47.4,72.67
292323,2018-06-29 11:17:07.093750,88.96,72.67
292324,2018-06-29 11:17:07.125000,87.21,72.67
292325,2018-06-29 11:17:07.156250,45.95,72.67
292326,2018-06-29 11:17:07.187500,-6.17,72.67
292327,2018-06-29 11:17:07.218750,-42.97,72.67
292328,2018-06-29 11:17:07.250000,-53.72,72.67
292329,2018-06-29 11:17:07.281250,-44.56,72.67
292330,2018-06-29 11:17:07.312500,-20.72,72.67
292331,2018-06-29 11:17:07.343750,8.9,72.67
292332,2018-06-29 11:17:07.375000,35.39,72.67
292333,2018-06-29 11:17:07.406250,53.51,72.67
292334,2018-06-29 11:17:07.437500,66.16,72.67
292335,2018-06-29 11:17:07.468750,77.2,72.67
292336,2018-06-29 11:17:07.500000,80.69,72.67
292337,2018-06-29 11:17:07.531250,72.97,72.87
292338,2018-06-29 11:17:07.562500,48.91,72.87
292339,2018-06-29 11:17:07.593750,8.62,72.87
292340,2018-06-29 11:17:07.625000,-53.84,72.87
292341,2018-06-29 11:17:07.656250,-110.09,72.87
292342,2018-06-29 11:17:07.687500,-108.53,72.87
292343,2018-06-29 11:17:07.718750,-55.94,72.87
292344,2018-06-29 11:17:07.750000,36.02,72.87
292345,2018-06-29 11:17:07.781250,133.79,72.87
292346,2018-06-29 11:17:07.812500,197.1,72.87
292347,2018-06-29 11:17:07.843750,180.55,72.87
292348,2018-06-29 11:17:07.875000,91.4,72.87
292349,2018-06-29 11:17:07.906250,4.68,72.87
292350,2018-06-29 11:17:07.937500,-64.67,72.87
292351,2018-06-29 11:17:07.968750,-119.79,72.87
292352,2018-06-29 11:17:08.000000,-147.61,72.87
292353,2018-06-29 11:17:08.031250,-142.1,72.87
292354,2018-06-29 11:17:08.062500,-120.54,72.87
292355,2018-06-29 11:17:08.093750,-96.15,72.87
292356,2018-06-29 11:17:08.125000,-74.6,72.87
292357,2018-06-29 11:17:08.156250,-52.06,72.87
292358,2018-06-29 11:17:08.187500,-31.53,72.87
292359,2018-06-29 11:17:08.218750,-13.94,72.87
292360,2018-06-29 11:17:08.250000,5.17,72.87
292361,2018-06-29 11:17:08.281250,22.33,72.87
292362,2018-06-29 11:17:08.312500,28.18,72.87
292363,2018-06-29 11:17:08.343750,17.08,72.87
292364,2018-06-29 11:17:08.375000,-1.45,72.87
292365,2018-06-29 11:17:08.406250,-14.16,72.87
292366,2018-06-29 11:17:08.437500,-9.93,72.87
292367,2018-06-29 11:17:08.468750,12.81,72.87
292368,2018-06-29 11:17:08.500000,46.11,72.87
292369,2018-06-29 11:17:08.531250,78.54,73.05
292370,2018-06-29 11:17:08.562500,99.38,73.05
292371,2018-06-29 11:17:08.593750,102.22,73.05
292372,2018-06-29 11:17:08.625000,88.1,73.05
292373,2018-06-29 11:17:08.656250,67.6,73.05
292374,2018-06-29 11:17:08.687500,49.08,73.05
292375,2018-06-29 11:17:08.718750,29.01,73.05
292376,2018-06-29 11:17:08.750000,-4.09,73.05
292377,2018-06-29 11:17:08.781250,-50.02,73.05
292378,2018-06-29 11:17:08.812500,-78.6,73.05
292379,2018-06-29 11:17:08.843750,-60.01,73.05
292380,2018-06-29 11:17:08.875000,8.48,73.05
292381,2018-06-29 11:17:08.906250,90.88,73.05
292382,2018-06-29 11:17:08.937500,136.41,73.05
292383,2018-06-29 11:17:08.968750,115.86,73.05
292384,2018-06-29 11:17:09.000000,41.27,73.05
292385,2018-06-29 11:17:09.031250,-46.9,73.05
292386,2018-06-29 11:17:09.062500,-107.39,73.05
292387,2018-06-29 11:17:09.093750,-124.41,73.05
292388,2018-06-29 11:17:09.125000,-112.49,73.05
292389,2018-06-29 11:17:09.156250,-94.74,73.05
292390,2018-06-29 11:17:09.187500,-79.11,73.05
292391,2018-06-29 11:17:09.218750,-59.17,73.05
292392,2018-06-29 11:17:09.250000,-33.92,73.05
292393,2018-06-29 11:17:09.281250,-15.72,73.05
292394,2018-06-29 11:17:09.312500,-15.26,73.05
292395,2018-06-29 11:17:09.343750,-23.72,73.05
292396,2018-06-29 11:17:09.375000,-19.4,73.05
292397,2018-06-29 11:17:09.406250,5.14,73.05
292398,2018-06-29 11:17:09.437500,31.19,73.05
292399,2018-06-29 11:17:09.468750,36.96,73.05
292400,2018-06-29 11:17:09.500000,23.6,73.05
292401,2018-06-29 11:17:09.531250,6.78,73.2
292402,2018-06-29 11:17:09.562500,-5.97,73.2
292403,2018-06-29 11:17:09.593750,-16.04,73.2
292404,2018-06-29 11:17:09.625000,-23.39,73.2
292405,2018-06-29 11:17:09.656250,-27.11,73.2
292406,2018-06-29 11:17:09.687500,-24.9,73.2
292407,2018-06-29 11:17:09.718750,-8.24,73.2
292408,2018-06-29 11:17:09.750000,29.03,73.2
292409,2018-06-29 11:17:09.781250,75.94,73.2
292410,2018-06-29 11:17:09.812500,111.59,73.2
292411,2018-06-29 11:17:09.843750,128.39,73.2
292412,2018-06-29 11:17:09.875000,132.66,73.2
292413,2018-06-29 11:17:09.906250,123.78,73.2
292414,2018-06-29 11:17:09.937500,90.07,73.2
292415,2018-06-29 11:17:09.968750,30.29,73.2
292416,2018-06-29 11:17:10.000000,-33.04,73.2
292417,2018-06-29 11:17:10.031250,-68.06,73.2
292418,2018-06-29 11:17:10.062500,-56.93,73.2
292419,2018-06-29 11:17:10.093750,-10.01,73.2
292420,2018-06-29 11:17:10.125000,37.23,73.2
292421,2018-06-29 11:17:10.156250,47.67,73.2
292422,2018-06-29 11:17:10.187500,11.2,73.2
292423,2018-06-29 11:17:10.218750,-50.9,73.2
292424,2018-06-29 11:17:10.250000,-108.79,73.2
292425,2018-06-29 11:17:10.281250,-145.95,73.2
292426,2018-06-29 11:17:10.312500,-161.98,73.2
292427,2018-06-29 11:17:10.343750,-164.72,73.2
292428,2018-06-29 11:17:10.375000,-161.22,73.2
292429,2018-06-29 11:17:10.406250,-150.34,73.2
292430,2018-06-29 11:17:10.437500,-124.35,73.2
292431,2018-06-29 11:17:10.468750,-81.83,73.2
292432,2018-06-29 11:17:10.500000,-33.28,73.2
292433,2018-06-29 11:17:10.531250,8.76,73.38
292434,2018-06-29 11:17:10.562500,39.19,73.38
292435,2018-06-29 11:17:10.593750,57.77,73.38
292436,2018-06-29 11:17:10.625000,65.46,73.38
292437,2018-06-29 11:17:10.656250,65.39,73.38
292438,2018-06-29 11:17:10.687500,63.72,73.38
292439,2018-06-29 11:17:10.718750,65.53,73.38
292440,2018-06-29 11:17:10.750000,71.41,73.38
292441,2018-06-29 11:17:10.781250,77.59,73.38
292442,2018-06-29 11:17:10.812500,80.81,73.38
292443,2018-06-29 11:17:10.843750,82.07,73.38
292444,2018-06-29 11:17:10.875000,83.92,73.38
292445,2018-06-29 11:17:10.906250,88.58,73.38
292446,2018-06-29 11:17:10.937500,94.61,73.38
292447,2018-06-29 11:17:10.968750,99.87,73.38
292448,2018-06-29 11:17:11.000000,101.97,73.38
292449,2018-06-29 11:17:11.031250,101.35,73.38
292450,2018-06-29 11:17:11.062500,98.27,73.38
292451,2018-06-29 11:17:11.093750,90.79,73.38
292452,2018-06-29 11:17:11.125000,81.22,73.38
292453,2018-06-29 11:17:11.156250,73.89,73.38
292454,2018-06-29 11:17:11.187500,70.09,73.38
292455,2018-06-29 11:17:11.218750,59.07,73.38
292456,2018-06-29 11:17:11.250000,30.44,73.38
292457,2018-06-29 11:17:11.281250,-22.19,73.38
292458,2018-06-29 11:17:11.312500,-99.99,73.38
292459,2018-06-29 11:17:11.343750,-152.43,73.38
292460,2018-06-29 11:17:11.375000,-145.5,73.38
292461,2018-06-29 11:17:11.406250,-84.89,73.38
292462,2018-06-29 11:17:11.437500,-6.87,73.38
292463,2018-06-29 11:17:11.468750,53.07,73.38
292464,2018-06-29 11:17:11.500000,82.44,73.38
292465,2018-06-29 11:17:11.531250,83.38,73.48
292466,2018-06-29 11:17:11.562500,58.92,73.48
292467,2018-06-29 11:17:11.593750,6.61,73.48
292468,2018-06-29 11:17:11.625000,-70.99,73.48
292469,2018-06-29 11:17:11.656250,-160.73,73.48
292470,2018-06-29 11:17:11.687500,-244.66,73.48
292471,2018-06-29 11:17:11.718750,-263.11,73.48
292472,2018-06-29 11:17:11.750000,-205.75,73.48
292473,2018-06-29 11:17:11.781250,-122.76,73.48
292474,2018-06-29 11:17:11.812500,-49.48,73.48
292475,2018-06-29 11:17:11.843750,-2.99,73.48
292476,2018-06-29 11:17:11.875000,8.77,73.48
292477,2018-06-29 11:17:11.906250,3.91,73.48
292478,2018-06-29 11:17:11.937500,9.38,73.48
292479,2018-06-29 11:17:11.968750,31.07,73.48
292480,2018-06-29 11:17:12.000000,53.6,73.48
292481,2018-06-29 11:17:12.031250,59.23,73.48
292482,2018-06-29 11:17:12.062500,52.86,73.48
292483,2018-06-29 11:17:12.093750,63.45,73.48
292484,2018-06-29 11:17:12.125000,113.35,73.48
292485,2018-06-29 11:17:12.156250,163.81,73.48
292486,2018-06-29 11:17:12.187500,151.76,73.48
292487,2018-06-29 11:17:12.218750,82.21,73.48
292488,2018-06-29 11:17:12.250000,17.54,73.48
292489,2018-06-29 11:17:12.281250,-14.79,73.48
292490,2018-06-29 11:17:12.312500,-36.08,73.48
292491,2018-06-29 11:17:12.343750,-54.99,73.48
292492,2018-06-29 11:17:12.375000,-61.31,73.48
292493,2018-06-29 11:17:12.406250,-59.93,73.48
292494,2018-06-29 11:17:12.437500,-65.64,73.48
292495,2018-06-29 11:17:12.468750,-77.87,73.48
292496,2018-06-29 11:17:12.500000,-91.83,73.48
292497,2018-06-29 11:17:12.531250,-108.18,73.6
292498,2018-06-29 11:17:12.562500,-112.69,73.6
292499,2018-06-29 11:17:12.593750,-77.71,73.6
292500,2018-06-29 11:17:12.625000,-10.71,73.6
292501,2018-06-29 11:17:12.656250,41.41,73.6
292502,2018-06-29 11:17:12.687500,49.95,73.6
292503,2018-06-29 11:17:12.718750,28.78,73.6
292504,2018-06-29 11:17:12.750000,0.52,73.6
292505,2018-06-29 11:17:12.781250,-22.28,73.6
292506,2018-06-29 11:17:12.812500,-31.14,73.6
292507,2018-06-29 11:17:12.843750,-25.58,73.6
292508,2018-06-29 11:17:12.875000,-17.34,73.6
292509,2018-06-29 11:17:12.906250,-16.67,73.6
292510,2018-06-29 11:17:12.937500,-20.23,73.6
292511,2018-06-29 11:17:12.968750,-21.28,73.6
292512,2018-06-29 11:17:13.000000,-20.78,73.6
292513,2018-06-29 11:17:13.031250,-23.69,73.6
292514,2018-06-29 11:17:13.062500,-29.76,73.6
292515,2018-06-29 11:17:13.093750,-32.1,73.6
292516,2018-06-29 11:17:13.125000,-29.76,73.6
292517,2018-06-29 11:17:13.156250,-31.8,73.6
292518,2018-06-29 11:17:13.187500,-44.01,73.6
292519,2018-06-29 11:17:13.218750,-56.28,73.6
292520,2018-06-29 11:17:13.250000,-52.0,73.6
292521,2018-06-29 11:17:13.281250,-27.04,73.6
292522,2018-06-29 11:17:13.312500,7.15,73.6
292523,2018-06-29 11:17:13.343750,36.68,73.6
292524,2018-06-29 11:17:13.375000,54.26,73.6
292525,2018-06-29 11:17:13.406250,59.03,73.6
292526,2018-06-29 11:17:13.437500,54.31,73.6
292527,2018-06-29 11:17:13.468750,45.44,73.6
292528,2018-06-29 11:17:13.500000,36.73,73.6
292529,2018-06-29 11:17:13.531250,29.31,73.72
292530,2018-06-29 11:17:13.562500,22.55,73.72
292531,2018-06-29 11:17:13.593750,16.4,73.72
292532,2018-06-29 11:17:13.625000,11.73,73.72
292533,2018-06-29 11:17:13.656250,8.05,73.72
292534,2018-06-29 11:17:13.687500,3.02,73.72
292535,2018-06-29 11:17:13.718750,-5.13,73.72
292536,2018-06-29 11:17:13.750000,-16.09,73.72
292537,2018-06-29 11:17:13.781250,-28.18,73.72
292538,2018-06-29 11:17:13.812500,-39.82,73.72
292539,2018-06-29 11:17:13.843750,-50.6,73.72
292540,2018-06-29 11:17:13.875000,-59.88,73.72
292541,2018-06-29 11:17:13.906250,-62.97,73.72
292542,2018-06-29 11:17:13.937500,-51.85,73.72
292543,2018-06-29 11:17:13.968750,-23.57,73.72
292544,2018-06-29 11:17:14.000000,15.45,73.72
292545,2018-06-29 11:17:14.031250,54.79,73.72
292546,2018-06-29 11:17:14.062500,86.22,73.72
292547,2018-06-29 11:17:14.093750,104.45,73.72
292548,2018-06-29 11:17:14.125000,107.33,73.72
292549,2018-06-29 11:17:14.156250,97.44,73.72
292550,2018-06-29 11:17:14.187500,81.38,73.72
292551,2018-06-29 11:17:14.218750,65.44,73.72
292552,2018-06-29 11:17:14.250000,52.41,73.72
292553,2018-06-29 11:17:14.281250,42.67,73.72
292554,2018-06-29 11:17:14.312500,36.26,73.72
292555,2018-06-29 11:17:14.343750,32.38,73.72
292556,2018-06-29 11:17:14.375000,28.46,73.72
292557,2018-06-29 11:17:14.406250,21.82,73.72
292558,2018-06-29 11:17:14.437500,12.12,73.72
292559,2018-06-29 11:17:14.468750,2.34,73.72
292560,2018-06-29 11:17:14.500000,-3.62,73.72
292561,2018-06-29 11:17:14.531250,-6.12,73.82
292562,2018-06-29 11:17:14.562500,-10.72,73.82
292563,2018-06-29 11:17:14.593750,-22.44,73.82
292564,2018-06-29 11:17:14.625000,-38.6,73.82
292565,2018-06-29 11:17:14.656250,-47.55,73.82
292566,2018-06-29 11:17:14.687500,-37.92,73.82
292567,2018-06-29 11:17:14.718750,-12.18,73.82
292568,2018-06-29 11:17:14.750000,12.76,73.82
292569,2018-06-29 11:17:14.781250,24.34,73.82
292570,2018-06-29 11:17:14.812500,26.89,73.82
292571,2018-06-29 11:17:14.843750,28.97,73.82
292572,2018-06-29 11:17:14.875000,29.07,73.82
292573,2018-06-29 11:17:14.906250,21.94,73.82
292574,2018-06-29 11:17:14.937500,7.98,73.82
292575,2018-06-29 11:17:14.968750,-8.83,73.82
292576,2018-06-29 11:17:15.000000,-22.83,73.82
292577,2018-06-29 11:17:15.031250,-26.61,73.82
292578,2018-06-29 11:17:15.062500,-18.75,73.82
292579,2018-06-29 11:17:15.093750,-8.61,73.82
292580,2018-06-29 11:17:15.125000,-5.66,73.82
292581,2018-06-29 11:17:15.156250,-7.51,73.82
292582,2018-06-29 11:17:15.187500,-5.65,73.82
292583,2018-06-29 11:17:15.218750,1.49,73.82
292584,2018-06-29 11:17:15.250000,6.86,73.82
292585,2018-06-29 11:17:15.281250,3.36,73.82
292586,2018-06-29 11:17:15.312500,-7.68,73.82
292587,2018-06-29 11:17:15.343750,-14.92,73.82
292588,2018-06-29 11:17:15.375000,-6.59,73.82
292589,2018-06-29 11:17:15.406250,15.75,73.82
292590,2018-06-29 11:17:15.437500,37.31,73.82
292591,2018-06-29 11:17:15.468750,44.42,73.82
292592,2018-06-29 11:17:15.500000,34.77,73.82
292593,2018-06-29 11:17:15.531250,13.92,73.93
292594,2018-06-29 11:17:15.562500,-11.91,73.93
292595,2018-06-29 11:17:15.593750,-36.27,73.93
292596,2018-06-29 11:17:15.625000,-51.69,73.93
292597,2018-06-29 11:17:15.656250,-54.95,73.93
292598,2018-06-29 11:17:15.687500,-50.22,73.93
292599,2018-06-29 11:17:15.718750,-43.54,73.93
292600,2018-06-29 11:17:15.750000,-38.35,73.93
292601,2018-06-29 11:17:15.781250,-36.81,73.93
292602,2018-06-29 11:17:15.812500,-39.73,73.93
292603,2018-06-29 11:17:15.843750,-44.08,73.93
292604,2018-06-29 11:17:15.875000,-44.95,73.93
292605,2018-06-29 11:17:15.906250,-40.69,73.93
292606,2018-06-29 11:17:15.937500,-34.47,73.93
292607,2018-06-29 11:17:15.968750,-29.4,73.93
292608,2018-06-29 11:17:16.000000,-22.49,73.93
292609,2018-06-29 11:17:16.031250,-6.42,73.93
292610,2018-06-29 11:17:16.062500,21.49,73.93
292611,2018-06-29 11:17:16.093750,54.58,73.93
292612,2018-06-29 11:17:16.125000,82.9,73.93
292613,2018-06-29 11:17:16.156250,101.53,73.93
292614,2018-06-29 11:17:16.187500,110.4,73.93
292615,2018-06-29 11:17:16.218750,109.07,73.93
292616,2018-06-29 11:17:16.250000,95.21,73.93
292617,2018-06-29 11:17:16.281250,67.45,73.93
292618,2018-06-29 11:17:16.312500,27.78,73.93
292619,2018-06-29 11:17:16.343750,-13.9,73.93
292620,2018-06-29 11:17:16.375000,-39.86,73.93
292621,2018-06-29 11:17:16.406250,-39.86,73.93
292622,2018-06-29 11:17:16.437500,-24.89,73.93
292623,2018-06-29 11:17:16.468750,-15.66,73.93
292624,2018-06-29 11:17:16.500000,-21.38,73.93
292625,2018-06-29 11:17:16.531250,-36.15,74.03
292626,2018-06-29 11:17:16.562500,-49.67,74.03
292627,2018-06-29 11:17:16.593750,-56.15,74.03
292628,2018-06-29 11:17:16.625000,-56.82,74.03
292629,2018-06-29 11:17:16.656250,-54.28,74.03
292630,2018-06-29 11:17:16.687500,-45.77,74.03
292631,2018-06-29 11:17:16.718750,-26.95,74.03
292632,2018-06-29 11:17:16.750000,0.16,74.03
292633,2018-06-29 11:17:16.781250,28.09,74.03
292634,2018-06-29 11:17:16.812500,50.09,74.03
292635,2018-06-29 11:17:16.843750,62.58,74.03
292636,2018-06-29 11:17:16.875000,65.49,74.03
292637,2018-06-29 11:17:16.906250,62.9,74.03
292638,2018-06-29 11:17:16.937500,59.69,74.03
292639,2018-06-29 11:17:16.968750,56.49,74.03
292640,2018-06-29 11:17:17.000000,51.11,74.03
292641,2018-06-29 11:17:17.031250,43.58,74.03
292642,2018-06-29 11:17:17.062500,35.95,74.03
292643,2018-06-29 11:17:17.093750,28.64,74.03
292644,2018-06-29 11:17:17.125000,19.6,74.03
292645,2018-06-29 11:17:17.156250,6.8,74.03
292646,2018-06-29 11:17:17.187500,-8.98,74.03
292647,2018-06-29 11:17:17.218750,-22.79,74.03
292648,2018-06-29 11:17:17.250000,-30.0,74.03
292649,2018-06-29 11:17:17.281250,-33.07,74.03
292650,2018-06-29 11:17:17.312500,-38.76,74.03
292651,2018-06-29 11:17:17.343750,-47.0,74.03
292652,2018-06-29 11:17:17.375000,-48.63,74.03
292653,2018-06-29 11:17:17.406250,-37.21,74.03
292654,2018-06-29 11:17:17.437500,-17.61,74.03
292655,2018-06-29 11:17:17.468750,0.13,74.03
292656,2018-06-29 11:17:17.500000,10.78,74.03
292657,2018-06-29 11:17:17.531250,14.42,74.2
292658,2018-06-29 11:17:17.562500,12.43,74.2
292659,2018-06-29 11:17:17.593750,7.59,74.2
292660,2018-06-29 11:17:17.625000,4.24,74.2
292661,2018-06-29 11:17:17.656250,4.22,74.2
292662,2018-06-29 11:17:17.687500,5.39,74.2
292663,2018-06-29 11:17:17.718750,5.5,74.2
292664,2018-06-29 11:17:17.750000,4.39,74.2
292665,2018-06-29 11:17:17.781250,2.44,74.2
292666,2018-06-29 11:17:17.812500,-0.55,74.2
292667,2018-06-29 11:17:17.843750,-4.78,74.2
292668,2018-06-29 11:17:17.875000,-9.26,74.2
292669,2018-06-29 11:17:17.906250,-12.2,74.2
292670,2018-06-29 11:17:17.937500,-13.52,74.2
292671,2018-06-29 11:17:17.968750,-15.79,74.2
292672,2018-06-29 11:17:18.000000,-20.55,74.2
292673,2018-06-29 11:17:18.031250,-24.97,74.2
292674,2018-06-29 11:17:18.062500,-24.73,74.2
292675,2018-06-29 11:17:18.093750,-18.58,74.2
292676,2018-06-29 11:17:18.125000,-7.85,74.2
292677,2018-06-29 11:17:18.156250,5.99,74.2
292678,2018-06-29 11:17:18.187500,20.99,74.2
292679,2018-06-29 11:17:18.218750,34.4,74.2
292680,2018-06-29 11:17:18.250000,44.52,74.2
292681,2018-06-29 11:17:18.281250,51.51,74.2
292682,2018-06-29 11:17:18.312500,55.2,74.2
292683,2018-06-29 11:17:18.343750,54.32,74.2
292684,2018-06-29 11:17:18.375000,48.45,74.2
292685,2018-06-29 11:17:18.406250,39.26,74.2
292686,2018-06-29 11:17:18.437500,28.94,74.2
292687,2018-06-29 11:17:18.468750,17.85,74.2
292688,2018-06-29 11:17:18.500000,4.76,74.2
292689,2018-06-29 11:17:18.531250,-9.49,74.35
292690,2018-06-29 11:17:18.562500,-20.54,74.35
292691,2018-06-29 11:17:18.593750,-25.54,74.35
292692,2018-06-29 11:17:18.625000,-26.97,74.35
292693,2018-06-29 11:17:18.656250,-28.37,74.35
292694,2018-06-29 11:17:18.687500,-28.76,74.35
292695,2018-06-29 11:17:18.718750,-24.44,74.35
292696,2018-06-29 11:17:18.750000,-13.75,74.35
292697,2018-06-29 11:17:18.781250,1.3,74.35
292698,2018-06-29 11:17:18.812500,16.14,74.35
292699,2018-06-29 11:17:18.843750,26.85,74.35
292700,2018-06-29 11:17:18.875000,32.87,74.35
292701,2018-06-29 11:17:18.906250,36.5,74.35
292702,2018-06-29 11:17:18.937500,40.19,74.35
292703,2018-06-29 11:17:18.968750,44.41,74.35
292704,2018-06-29 11:17:19.000000,47.04,74.35
292705,2018-06-29 11:17:19.031250,44.0,74.35
292706,2018-06-29 11:17:19.062500,31.85,74.35
292707,2018-06-29 11:17:19.093750,12.35,74.35
292708,2018-06-29 11:17:19.125000,-6.74,74.35
292709,2018-06-29 11:17:19.156250,-18.62,74.35
292710,2018-06-29 11:17:19.187500,-23.58,74.35
292711,2018-06-29 11:17:19.218750,-26.6,74.35
292712,2018-06-29 11:17:19.250000,-31.57,74.35
292713,2018-06-29 11:17:19.281250,-38.06,74.35
292714,2018-06-29 11:17:19.312500,-42.65,74.35
292715,2018-06-29 11:17:19.343750,-44.29,74.35
292716,2018-06-29 11:17:19.375000,-45.59,74.35
292717,2018-06-29 11:17:19.406250,-46.21,74.35
292718,2018-06-29 11:17:19.437500,-41.41,74.35
292719,2018-06-29 11:17:19.468750,-30.01,74.35
292720,2018-06-29 11:17:19.500000,-16.58,74.35
292721,2018-06-29 11:17:19.531250,-4.81,74.52
292722,2018-06-29 11:17:19.562500,4.64,74.52
292723,2018-06-29 11:17:19.593750,10.98,74.52
292724,2018-06-29 11:17:19.625000,14.85,74.52
292725,2018-06-29 11:17:19.656250,19.23,74.52
292726,2018-06-29 11:17:19.687500,23.74,74.52
292727,2018-06-29 11:17:19.718750,25.16,74.52
292728,2018-06-29 11:17:19.750000,25.56,74.52
292729,2018-06-29 11:17:19.781250,30.21,74.52
292730,2018-06-29 11:17:19.812500,37.56,74.52
292731,2018-06-29 11:17:19.843750,40.9,74.52
292732,2018-06-29 11:17:19.875000,37.27,74.52
292733,2018-06-29 11:17:19.906250,28.45,74.52
292734,2018-06-29 11:17:19.937500,17.76,74.52
292735,2018-06-29 11:17:19.968750,9.18,74.52
292736,2018-06-29 11:17:20.000000,6.09,74.52
292737,2018-06-29 11:17:20.031250,8.08,74.52
292738,2018-06-29 11:17:20.062500,11.52,74.52
292739,2018-06-29 11:17:20.093750,15.13,74.52
292740,2018-06-29 11:17:20.125000,21.36,74.52
292741,2018-06-29 11:17:20.156250,30.42,74.52
292742,2018-06-29 11:17:20.187500,38.74,74.52
292743,2018-06-29 11:17:20.218750,45.26,74.52
292744,2018-06-29 11:17:20.250000,52.08,74.52
292745,2018-06-29 11:17:20.281250,59.19,74.52
292746,2018-06-29 11:17:20.312500,65.08,74.52
292747,2018-06-29 11:17:20.343750,70.48,74.52
292748,2018-06-29 11:17:20.375000,76.37,74.52
292749,2018-06-29 11:17:20.406250,81.35,74.52
292750,2018-06-29 11:17:20.437500,83.51,74.52
292751,2018-06-29 11:17:20.468750,81.56,74.52
292752,2018-06-29 11:17:20.500000,72.91,74.52
292753,2018-06-29 11:17:20.531250,53.17,74.7
292754,2018-06-29 11:17:20.562500,20.58,74.7
292755,2018-06-29 11:17:20.593750,-17.92,74.7
292756,2018-06-29 11:17:20.625000,-46.88,74.7
292757,2018-06-29 11:17:20.656250,-52.38,74.7
292758,2018-06-29 11:17:20.687500,-33.08,74.7
292759,2018-06-29 11:17:20.718750,0.89,74.7
292760,2018-06-29 11:17:20.750000,36.49,74.7
292761,2018-06-29 11:17:20.781250,63.15,74.7
292762,2018-06-29 11:17:20.812500,76.49,74.7
292763,2018-06-29 11:17:20.843750,79.06,74.7
292764,2018-06-29 11:17:20.875000,75.05,74.7
292765,2018-06-29 11:17:20.906250,67.41,74.7
292766,2018-06-29 11:17:20.937500,59.69,74.7
292767,2018-06-29 11:17:20.968750,52.08,74.7
292768,2018-06-29 11:17:21.000000,40.0,74.7
292769,2018-06-29 11:17:21.031250,24.96,74.7
292770,2018-06-29 11:17:21.062500,15.96,74.7
292771,2018-06-29 11:17:21.093750,17.1,74.7
292772,2018-06-29 11:17:21.125000,24.99,74.7
292773,2018-06-29 11:17:21.156250,34.39,74.7
292774,2018-06-29 11:17:21.187500,36.65,74.7
292775,2018-06-29 11:17:21.218750,20.99,74.7
292776,2018-06-29 11:17:21.250000,-13.44,74.7
292777,2018-06-29 11:17:21.281250,-53.42,74.7
292778,2018-06-29 11:17:21.312500,-83.21,74.7
292779,2018-06-29 11:17:21.343750,-96.18,74.7
292780,2018-06-29 11:17:21.375000,-95.83,74.7
292781,2018-06-29 11:17:21.406250,-88.71,74.7
292782,2018-06-29 11:17:21.437500,-78.55,74.7
292783,2018-06-29 11:17:21.468750,-66.66,74.7
292784,2018-06-29 11:17:21.500000,-54.89,74.7
292785,2018-06-29 11:17:21.531250,-46.01,74.9
292786,2018-06-29 11:17:21.562500,-41.34,74.9
292787,2018-06-29 11:17:21.593750,-40.26,74.9
292788,2018-06-29 11:17:21.625000,-41.99,74.9
292789,2018-06-29 11:17:21.656250,-45.42,74.9
292790,2018-06-29 11:17:21.687500,-48.08,74.9
292791,2018-06-29 11:17:21.718750,-48.05,74.9
292792,2018-06-29 11:17:21.750000,-46.29,74.9
292793,2018-06-29 11:17:21.781250,-45.35,74.9
292794,2018-06-29 11:17:21.812500,-46.09,74.9
292795,2018-06-29 11:17:21.843750,-47.08,74.9
292796,2018-06-29 11:17:21.875000,-47.07,74.9
292797,2018-06-29 11:17:21.906250,-46.87,74.9
292798,2018-06-29 11:17:21.937500,-47.9,74.9
292799,2018-06-29 11:17:21.968750,-50.37,74.9
292800,2018-06-29 11:17:22.000000,-53.02,74.9
292801,2018-06-29 11:17:22.031250,-53.15,74.9
292802,2018-06-29 11:17:22.062500,-47.55,74.9
292803,2018-06-29 11:17:22.093750,-35.96,74.9
292804,2018-06-29 11:17:22.125000,-22.61,74.9
292805,2018-06-29 11:17:22.156250,-12.69,74.9
292806,2018-06-29 11:17:22.187500,-8.29,74.9
292807,2018-06-29 11:17:22.218750,-8.57,74.9
292808,2018-06-29 11:17:22.250000,-11.68,74.9
292809,2018-06-29 11:17:22.281250,-15.63,74.9
292810,2018-06-29 11:17:22.312500,-18.84,74.9
292811,2018-06-29 11:17:22.343750,-20.72,74.9
292812,2018-06-29 11:17:22.375000,-21.58,74.9
292813,2018-06-29 11:17:22.406250,-22.15,74.9
292814,2018-06-29 11:17:22.437500,-23.32,74.9
292815,2018-06-29 11:17:22.468750,-25.41,74.9
292816,2018-06-29 11:17:22.500000,-27.51,74.9
292817,2018-06-29 11:17:22.531250,-28.16,75.15
292818,2018-06-29 11:17:22.562500,-27.22,75.15
292819,2018-06-29 11:17:22.593750,-26.31,75.15
292820,2018-06-29 11:17:22.625000,-27.12,75.15
292821,2018-06-29 11:17:22.656250,-29.5,75.15
292822,2018-06-29 11:17:22.687500,-30.58,75.15
292823,2018-06-29 11:17:22.718750,-26.62,75.15
292824,2018-06-29 11:17:22.750000,-16.95,75.15
292825,2018-06-29 11:17:22.781250,-5.67,75.15
292826,2018-06-29 11:17:22.812500,2.5,75.15
292827,2018-06-29 11:17:22.843750,6.08,75.15
292828,2018-06-29 11:17:22.875000,5.41,75.15
292829,2018-06-29 11:17:22.906250,1.39,75.15
292830,2018-06-29 11:17:22.937500,-3.88,75.15
292831,2018-06-29 11:17:22.968750,-8.33,75.15
292832,2018-06-29 11:17:23.000000,-12.0,75.15
292833,2018-06-29 11:17:23.031250,-15.7,75.15
292834,2018-06-29 11:17:23.062500,-19.15,75.15
292835,2018-06-29 11:17:23.093750,-21.82,75.15
292836,2018-06-29 11:17:23.125000,-23.53,75.15
292837,2018-06-29 11:17:23.156250,-24.26,75.15
292838,2018-06-29 11:17:23.187500,-24.27,75.15
292839,2018-06-29 11:17:23.218750,-24.51,75.15
292840,2018-06-29 11:17:23.250000,-26.41,75.15
292841,2018-06-29 11:17:23.281250,-31.66,75.15
292842,2018-06-29 11:17:23.312500,-40.24,75.15
292843,2018-06-29 11:17:23.343750,-48.05,75.15
292844,2018-06-29 11:17:23.375000,-48.55,75.15
292845,2018-06-29 11:17:23.406250,-38.75,75.15
292846,2018-06-29 11:17:23.437500,-22.27,75.15
292847,2018-06-29 11:17:23.468750,-5.81,75.15
292848,2018-06-29 11:17:23.500000,5.53,75.15
292849,2018-06-29 11:17:23.531250,9.91,75.42
292850,2018-06-29 11:17:23.562500,8.86,75.42
292851,2018-06-29 11:17:23.593750,6.03,75.42
292852,2018-06-29 11:17:23.625000,4.5,75.42
292853,2018-06-29 11:17:23.656250,4.71,75.42
292854,2018-06-29 11:17:23.687500,5.34,75.42
292855,2018-06-29 11:17:23.718750,5.54,75.42
292856,2018-06-29 11:17:23.750000,5.41,75.42
292857,2018-06-29 11:17:23.781250,4.13,75.42
292858,2018-06-29 11:17:23.812500,0.25,75.42
292859,2018-06-29 11:17:23.843750,-5.59,75.42
292860,2018-06-29 11:17:23.875000,-11.01,75.42
292861,2018-06-29 11:17:23.906250,-15.05,75.42
292862,2018-06-29 11:17:23.937500,-18.97,75.42
292863,2018-06-29 11:17:23.968750,-24.42,75.42
292864,2018-06-29 11:17:24.000000,-30.97,75.42
292865,2018-06-29 11:17:24.031250,-33.98,75.42
292866,2018-06-29 11:17:24.062500,-27.85,75.42
292867,2018-06-29 11:17:24.093750,-12.74,75.42
292868,2018-06-29 11:17:24.125000,5.18,75.42
292869,2018-06-29 11:17:24.156250,19.34,75.42
292870,2018-06-29 11:17:24.187500,25.69,75.42
292871,2018-06-29 11:17:24.218750,23.87,75.42
292872,2018-06-29 11:17:24.250000,18.02,75.42
292873,2018-06-29 11:17:24.281250,13.09,75.42
292874,2018-06-29 11:17:24.312500,10.58,75.42
292875,2018-06-29 11:17:24.343750,9.37,75.42
292876,2018-06-29 11:17:24.375000,8.58,75.42
292877,2018-06-29 11:17:24.406250,8.08,75.42
292878,2018-06-29 11:17:24.437500,6.94,75.42
292879,2018-06-29 11:17:24.468750,3.42,75.42
292880,2018-06-29 11:17:24.500000,-2.67,75.42
292881,2018-06-29 11:17:24.531250,-9.05,75.63
292882,2018-06-29 11:17:24.562500,-14.11,75.63
292883,2018-06-29 11:17:24.593750,-18.72,75.63
292884,2018-06-29 11:17:24.625000,-24.36,75.63
292885,2018-06-29 11:17:24.656250,-31.82,75.63
292886,2018-06-29 11:17:24.687500,-39.3,75.63
292887,2018-06-29 11:17:24.718750,-40.19,75.63
292888,2018-06-29 11:17:24.750000,-28.2,75.63
292889,2018-06-29 11:17:24.781250,-6.08,75.63
292890,2018-06-29 11:17:24.812500,16.34,75.63
292891,2018-06-29 11:17:24.843750,31.86,75.63
292892,2018-06-29 11:17:24.875000,38.6,75.63
292893,2018-06-29 11:17:24.906250,37.23,75.63
292894,2018-06-29 11:17:24.937500,30.73,75.63
292895,2018-06-29 11:17:24.968750,23.95,75.63
292896,2018-06-29 11:17:25.000000,19.77,75.63
292897,2018-06-29 11:17:25.031250,16.57,75.63
292898,2018-06-29 11:17:25.062500,10.82,75.63
292899,2018-06-29 11:17:25.093750,1.93,75.63
292900,2018-06-29 11:17:25.125000,-6.7,75.63
292901,2018-06-29 11:17:25.156250,-14.18,75.63
292902,2018-06-29 11:17:25.187500,-26.21,75.63
292903,2018-06-29 11:17:25.218750,-46.68,75.63
292904,2018-06-29 11:17:25.250000,-70.08,75.63
292905,2018-06-29 11:17:25.281250,-89.54,75.63
292906,2018-06-29 11:17:25.312500,-106.62,75.63
292907,2018-06-29 11:17:25.343750,-126.34,75.63
292908,2018-06-29 11:17:25.375000,-149.68,75.63
292909,2018-06-29 11:17:25.406250,-171.92,75.63
292910,2018-06-29 11:17:25.437500,-180.92,75.63
292911,2018-06-29 11:17:25.468750,-164.59,75.63
292912,2018-06-29 11:17:25.500000,-126.99,75.63
292913,2018-06-29 11:17:25.531250,-85.72,76.0
292914,2018-06-29 11:17:25.562500,-51.27,76.0
292915,2018-06-29 11:17:25.593750,-22.38,76.0
292916,2018-06-29 11:17:25.625000,1.87,76.0
292917,2018-06-29 11:17:25.656250,20.04,76.0
292918,2018-06-29 11:17:25.687500,34.63,76.0
292919,2018-06-29 11:17:25.718750,50.21,76.0
292920,2018-06-29 11:17:25.750000,67.28,76.0
292921,2018-06-29 11:17:25.781250,83.87,76.0
292922,2018-06-29 11:17:25.812500,100.16,76.0
292923,2018-06-29 11:17:25.843750,116.06,76.0
292924,2018-06-29 11:17:25.875000,126.3,76.0
292925,2018-06-29 11:17:25.906250,123.98,76.0
292926,2018-06-29 11:17:25.937500,108.44,76.0
292927,2018-06-29 11:17:25.968750,85.92,76.0
292928,2018-06-29 11:17:26.000000,63.17,76.0
292929,2018-06-29 11:17:26.031250,42.52,76.0
292930,2018-06-29 11:17:26.062500,22.56,76.0
292931,2018-06-29 11:17:26.093750,2.9,76.0
292932,2018-06-29 11:17:26.125000,-10.85,76.0
292933,2018-06-29 11:17:26.156250,-8.11,76.0
292934,2018-06-29 11:17:26.187500,15.57,76.0
292935,2018-06-29 11:17:26.218750,50.59,76.0
292936,2018-06-29 11:17:26.250000,81.05,76.0
292937,2018-06-29 11:17:26.281250,97.25,76.0
292938,2018-06-29 11:17:26.312500,98.1,76.0
292939,2018-06-29 11:17:26.343750,87.42,76.0
292940,2018-06-29 11:17:26.375000,71.95,76.0
292941,2018-06-29 11:17:26.406250,59.09,76.0
292942,2018-06-29 11:17:26.437500,52.05,76.0
292943,2018-06-29 11:17:26.468750,47.78,76.0
292944,2018-06-29 11:17:26.500000,41.66,76.0
292945,2018-06-29 11:17:26.531250,33.13,76.38
292946,2018-06-29 11:17:26.562500,24.63,76.38
292947,2018-06-29 11:17:26.593750,16.83,76.38
292948,2018-06-29 11:17:26.625000,7.84,76.38
292949,2018-06-29 11:17:26.656250,-3.2,76.38
292950,2018-06-29 11:17:26.687500,-13.79,76.38
292951,2018-06-29 11:17:26.718750,-20.51,76.38
292952,2018-06-29 11:17:26.750000,-23.77,76.38
292953,2018-06-29 11:17:26.781250,-28.08,76.38
292954,2018-06-29 11:17:26.812500,-36.64,76.38
292955,2018-06-29 11:17:26.843750,-45.16,76.38
292956,2018-06-29 11:17:26.875000,-41.7,76.38
292957,2018-06-29 11:17:26.906250,-17.48,76.38
292958,2018-06-29 11:17:26.937500,20.85,76.38
292959,2018-06-29 11:17:26.968750,55.56,76.38
292960,2018-06-29 11:17:27.000000,74.63,76.38
292961,2018-06-29 11:17:27.031250,77.22,76.38
292962,2018-06-29 11:17:27.062500,67.24,76.38
292963,2018-06-29 11:17:27.093750,51.49,76.38
292964,2018-06-29 11:17:27.125000,39.55,76.38
292965,2018-06-29 11:17:27.156250,36.62,76.38
292966,2018-06-29 11:17:27.187500,38.65,76.38
292967,2018-06-29 11:17:27.218750,38.42,76.38
292968,2018-06-29 11:17:27.250000,33.92,76.38
292969,2018-06-29 11:17:27.281250,27.81,76.38
292970,2018-06-29 11:17:27.312500,21.24,76.38
292971,2018-06-29 11:17:27.343750,12.28,76.38
292972,2018-06-29 11:17:27.375000,0.63,76.38
292973,2018-06-29 11:17:27.406250,-10.38,76.38
292974,2018-06-29 11:17:27.437500,-18.52,76.38
292975,2018-06-29 11:17:27.468750,-25.3,76.38
292976,2018-06-29 11:17:27.500000,-32.99,76.38
292977,2018-06-29 11:17:27.531250,-42.49,76.75
292978,2018-06-29 11:17:27.562500,-50.86,76.75
292979,2018-06-29 11:17:27.593750,-48.21,76.75
292980,2018-06-29 11:17:27.625000,-25.68,76.75
292981,2018-06-29 11:17:27.656250,10.7,76.75
292982,2018-06-29 11:17:27.687500,43.22,76.75
292983,2018-06-29 11:17:27.718750,59.8,76.75
292984,2018-06-29 11:17:27.750000,60.43,76.75
292985,2018-06-29 11:17:27.781250,50.19,76.75
292986,2018-06-29 11:17:27.812500,35.72,76.75
292987,2018-06-29 11:17:27.843750,25.23,76.75
292988,2018-06-29 11:17:27.875000,23.33,76.75
292989,2018-06-29 11:17:27.906250,26.1,76.75
292990,2018-06-29 11:17:27.937500,26.23,76.75
292991,2018-06-29 11:17:27.968750,22.28,76.75
292992,2018-06-29 11:17:28.000000,17.92,76.75
292993,2018-06-29 11:17:28.031250,13.58,76.75
292994,2018-06-29 11:17:28.062500,5.19,76.75
292995,2018-06-29 11:17:28.093750,-8.28,76.75
292996,2018-06-29 11:17:28.125000,-21.76,76.75
292997,2018-06-29 11:17:28.156250,-30.65,76.75
292998,2018-06-29 11:17:28.187500,-36.75,76.75
292999,2018-06-29 11:17:28.218750,-45.39,76.75
293000,2018-06-29 11:17:28.250000,-58.23,76.75
293001,2018-06-29 11:17:28.281250,-68.4,76.75
293002,2018-06-29 11:17:28.312500,-63.88,76.75
293003,2018-06-29 11:17:28.343750,-40.11,76.75
293004,2018-06-29 11:17:28.375000,-8.74,76.75
293005,2018-06-29 11:17:28.406250,11.98,76.75
293006,2018-06-29 11:17:28.437500,14.36,76.75
293007,2018-06-29 11:17:28.468750,3.3,76.75
293008,2018-06-29 11:17:28.500000,-14.68,76.75
293009,2018-06-29 11:17:28.531250,-35.99,77.12
293010,2018-06-29 11:17:28.562500,-56.06,77.12
293011,2018-06-29 11:17:28.593750,-68.13,77.12
293012,2018-06-29 11:17:28.625000,-66.25,77.12
293013,2018-06-29 11:17:28.656250,-47.76,77.12
293014,2018-06-29 11:17:28.687500,-14.95,77.12
293015,2018-06-29 11:17:28.718750,23.2,77.12
293016,2018-06-29 11:17:28.750000,53.12,77.12
293017,2018-06-29 11:17:28.781250,64.66,77.12
293018,2018-06-29 11:17:28.812500,58.25,77.12
293019,2018-06-29 11:17:28.843750,42.21,77.12
293020,2018-06-29 11:17:28.875000,22.67,77.12
293021,2018-06-29 11:17:28.906250,0.16,77.12
293022,2018-06-29 11:17:28.937500,-24.24,77.12
293023,2018-06-29 11:17:28.968750,-42.8,77.12
293024,2018-06-29 11:17:29.000000,-42.24,77.12
293025,2018-06-29 11:17:29.031250,-15.08,77.12
293026,2018-06-29 11:17:29.062500,29.11,77.12
293027,2018-06-29 11:17:29.093750,69.9,77.12
293028,2018-06-29 11:17:29.125000,93.68,77.12
293029,2018-06-29 11:17:29.156250,98.85,77.12
293030,2018-06-29 11:17:29.187500,89.12,77.12
293031,2018-06-29 11:17:29.218750,71.23,77.12
293032,2018-06-29 11:17:29.250000,54.75,77.12
293033,2018-06-29 11:17:29.281250,45.81,77.12
293034,2018-06-29 11:17:29.312500,42.65,77.12
293035,2018-06-29 11:17:29.343750,39.71,77.12
293036,2018-06-29 11:17:29.375000,34.31,77.12
293037,2018-06-29 11:17:29.406250,27.54,77.12
293038,2018-06-29 11:17:29.437500,19.93,77.12
293039,2018-06-29 11:17:29.468750,9.17,77.12
293040,2018-06-29 11:17:29.500000,-5.89,77.12
293041,2018-06-29 11:17:29.531250,-21.4,77.45
293042,2018-06-29 11:17:29.562500,-32.27,77.45
293043,2018-06-29 11:17:29.593750,-37.98,77.45
293044,2018-06-29 11:17:29.625000,-42.15,77.45
293045,2018-06-29 11:17:29.656250,-48.06,77.45
293046,2018-06-29 11:17:29.687500,-54.32,77.45
293047,2018-06-29 11:17:29.718750,-52.92,77.45
293048,2018-06-29 11:17:29.750000,-35.37,77.45
293049,2018-06-29 11:17:29.781250,-4.7,77.45
293050,2018-06-29 11:17:29.812500,24.24,77.45
293051,2018-06-29 11:17:29.843750,39.07,77.45
293052,2018-06-29 11:17:29.875000,38.09,77.45
293053,2018-06-29 11:17:29.906250,25.45,77.45
293054,2018-06-29 11:17:29.937500,7.42,77.45
293055,2018-06-29 11:17:29.968750,-7.7,77.45
293056,2018-06-29 11:17:30.000000,-14.93,77.45
293057,2018-06-29 11:17:30.031250,-17.29,77.45
293058,2018-06-29 11:17:30.062500,-20.11,77.45
293059,2018-06-29 11:17:30.093750,-23.55,77.45
293060,2018-06-29 11:17:30.125000,-25.15,77.45
293061,2018-06-29 11:17:30.156250,-26.03,77.45
293062,2018-06-29 11:17:30.187500,-29.74,77.45
293063,2018-06-29 11:17:30.218750,-36.53,77.45
293064,2018-06-29 11:17:30.250000,-42.99,77.45
293065,2018-06-29 11:17:30.281250,-46.99,77.45
293066,2018-06-29 11:17:30.312500,-50.31,77.45
293067,2018-06-29 11:17:30.343750,-55.92,77.45
293068,2018-06-29 11:17:30.375000,-64.33,77.45
293069,2018-06-29 11:17:30.406250,-71.27,77.45
293070,2018-06-29 11:17:30.437500,-67.97,77.45
293071,2018-06-29 11:17:30.468750,-48.54,77.45
293072,2018-06-29 11:17:30.500000,-18.29,77.45
293073,2018-06-29 11:17:30.531250,9.4,77.73
293074,2018-06-29 11:17:30.562500,24.51,77.73
293075,2018-06-29 11:17:30.593750,25.33,77.73
293076,2018-06-29 11:17:30.625000,16.0,77.73
293077,2018-06-29 11:17:30.656250,4.44,77.73
293078,2018-06-29 11:17:30.687500,-1.34,77.73
293079,2018-06-29 11:17:30.718750,0.57,77.73
293080,2018-06-29 11:17:30.750000,4.58,77.73
293081,2018-06-29 11:17:30.781250,3.8,77.73
293082,2018-06-29 11:17:30.812500,-4.08,77.73
293083,2018-06-29 11:17:30.843750,-17.01,77.73
293084,2018-06-29 11:17:30.875000,-31.23,77.73
293085,2018-06-29 11:17:30.906250,-42.33,77.73
293086,2018-06-29 11:17:30.937500,-45.27,77.73
293087,2018-06-29 11:17:30.968750,-35.69,77.73
293088,2018-06-29 11:17:31.000000,-13.83,77.73
293089,2018-06-29 11:17:31.031250,12.02,77.73
293090,2018-06-29 11:17:31.062500,29.17,77.73
293091,2018-06-29 11:17:31.093750,31.28,77.73
293092,2018-06-29 11:17:31.125000,24.82,77.73
293093,2018-06-29 11:17:31.156250,21.73,77.73
293094,2018-06-29 11:17:31.187500,26.26,77.73
293095,2018-06-29 11:17:31.218750,32.66,77.73
293096,2018-06-29 11:17:31.250000,33.96,77.73
293097,2018-06-29 11:17:31.281250,27.57,77.73
293098,2018-06-29 11:17:31.312500,14.36,77.73
293099,2018-06-29 11:17:31.343750,-1.27,77.73
293100,2018-06-29 11:17:31.375000,-12.4,77.73
293101,2018-06-29 11:17:31.406250,-15.72,77.73
293102,2018-06-29 11:17:31.437500,-14.56,77.73
293103,2018-06-29 11:17:31.468750,-13.62,77.73
293104,2018-06-29 11:17:31.500000,-14.06,77.73
293105,2018-06-29 11:17:31.531250,-15.23,78.05
293106,2018-06-29 11:17:31.562500,-17.74,78.05
293107,2018-06-29 11:17:31.593750,-22.69,78.05
293108,2018-06-29 11:17:31.625000,-29.6,78.05
293109,2018-06-29 11:17:31.656250,-36.75,78.05
293110,2018-06-29 11:17:31.687500,-42.54,78.05
293111,2018-06-29 11:17:31.718750,-46.45,78.05
293112,2018-06-29 11:17:31.750000,-50.27,78.05
293113,2018-06-29 11:17:31.781250,-55.77,78.05
293114,2018-06-29 11:17:31.812500,-58.6,78.05
293115,2018-06-29 11:17:31.843750,-49.45,78.05
293116,2018-06-29 11:17:31.875000,-25.82,78.05
293117,2018-06-29 11:17:31.906250,2.32,78.05
293118,2018-06-29 11:17:31.937500,22.55,78.05
293119,2018-06-29 11:17:31.968750,30.16,78.05
293120,2018-06-29 11:17:32.000000,26.9,78.05
293121,2018-06-29 11:17:32.031250,16.82,78.05
293122,2018-06-29 11:17:32.062500,6.18,78.05
293123,2018-06-29 11:17:32.093750,1.1,78.05
293124,2018-06-29 11:17:32.125000,1.85,78.05
293125,2018-06-29 11:17:32.156250,3.79,78.05
293126,2018-06-29 11:17:32.187500,4.37,78.05
293127,2018-06-29 11:17:32.218750,4.59,78.05
293128,2018-06-29 11:17:32.250000,4.78,78.05
293129,2018-06-29 11:17:32.281250,3.57,78.05
293130,2018-06-29 11:17:32.312500,0.51,78.05
293131,2018-06-29 11:17:32.343750,-3.21,78.05
293132,2018-06-29 11:17:32.375000,-6.41,78.05
293133,2018-06-29 11:17:32.406250,-9.36,78.05
293134,2018-06-29 11:17:32.437500,-13.07,78.05
293135,2018-06-29 11:17:32.468750,-15.89,78.05
293136,2018-06-29 11:17:32.500000,-12.07,78.05
293137,2018-06-29 11:17:32.531250,2.99,78.35
293138,2018-06-29 11:17:32.562500,26.13,78.35
293139,2018-06-29 11:17:32.593750,47.47,78.35
293140,2018-06-29 11:17:32.625000,58.56,78.35
293141,2018-06-29 11:17:32.656250,57.47,78.35
293142,2018-06-29 11:17:32.687500,47.4,78.35
293143,2018-06-29 11:17:32.718750,34.17,78.35
293144,2018-06-29 11:17:32.750000,23.98,78.35
293145,2018-06-29 11:17:32.781250,19.73,78.35
293146,2018-06-29 11:17:32.812500,19.97,78.35
293147,2018-06-29 11:17:32.843750,21.91,78.35
293148,2018-06-29 11:17:32.875000,23.33,78.35
293149,2018-06-29 11:17:32.906250,22.34,78.35
293150,2018-06-29 11:17:32.937500,18.51,78.35
293151,2018-06-29 11:17:32.968750,13.72,78.35
293152,2018-06-29 11:17:33.000000,9.74,78.35
293153,2018-06-29 11:17:33.031250,6.71,78.35
293154,2018-06-29 11:17:33.062500,4.39,78.35
293155,2018-06-29 11:17:33.093750,2.22,78.35
293156,2018-06-29 11:17:33.125000,0.48,78.35
293157,2018-06-29 11:17:33.156250,3.67,78.35
293158,2018-06-29 11:17:33.187500,18.27,78.35
293159,2018-06-29 11:17:33.218750,43.85,78.35
293160,2018-06-29 11:17:33.250000,71.21,78.35
293161,2018-06-29 11:17:33.281250,92.03,78.35
293162,2018-06-29 11:17:33.312500,105.15,78.35
293163,2018-06-29 11:17:33.343750,112.82,78.35
293164,2018-06-29 11:17:33.375000,116.6,78.35
293165,2018-06-29 11:17:33.406250,117.95,78.35
293166,2018-06-29 11:17:33.437500,119.05,78.35
293167,2018-06-29 11:17:33.468750,120.15,78.35
293168,2018-06-29 11:17:33.500000,117.18,78.35
293169,2018-06-29 11:17:33.531250,105.93,78.65
293170,2018-06-29 11:17:33.562500,89.6,78.65
293171,2018-06-29 11:17:33.593750,77.8,78.65
293172,2018-06-29 11:17:33.625000,78.74,78.65
293173,2018-06-29 11:17:33.656250,94.65,78.65
293174,2018-06-29 11:17:33.687500,117.87,78.65
293175,2018-06-29 11:17:33.718750,132.55,78.65
293176,2018-06-29 11:17:33.750000,127.65,78.65
293177,2018-06-29 11:17:33.781250,105.19,78.65
293178,2018-06-29 11:17:33.812500,72.07,78.65
293179,2018-06-29 11:17:33.843750,33.48,78.65
293180,2018-06-29 11:17:33.875000,-3.65,78.65
293181,2018-06-29 11:17:33.906250,-31.6,78.65
293182,2018-06-29 11:17:33.937500,-47.97,78.65
293183,2018-06-29 11:17:33.968750,-56.19,78.65
293184,2018-06-29 11:17:34.000000,-60.34,78.65
293185,2018-06-29 11:17:34.031250,-61.18,78.65
293186,2018-06-29 11:17:34.062500,-57.45,78.65
293187,2018-06-29 11:17:34.093750,-48.28,78.65
293188,2018-06-29 11:17:34.125000,-33.02,78.65
293189,2018-06-29 11:17:34.156250,-13.78,78.65
293190,2018-06-29 11:17:34.187500,0.32,78.65
293191,2018-06-29 11:17:34.218750,-0.28,78.65
293192,2018-06-29 11:17:34.250000,-14.85,78.65
293193,2018-06-29 11:17:34.281250,-36.37,78.65
293194,2018-06-29 11:17:34.312500,-60.92,78.65
293195,2018-06-29 11:17:34.343750,-84.59,78.65
293196,2018-06-29 11:17:34.375000,-100.46,78.65
293197,2018-06-29 11:17:34.406250,-105.29,78.65
293198,2018-06-29 11:17:34.437500,-98.98,78.65
293199,2018-06-29 11:17:34.468750,-77.61,78.65
293200,2018-06-29 11:17:34.500000,-40.32,78.65
293201,2018-06-29 11:17:34.531250,-0.24,78.97
293202,2018-06-29 11:17:34.562500,25.16,78.97
293203,2018-06-29 11:17:34.593750,30.07,78.97
293204,2018-06-29 11:17:34.625000,17.6,78.97
293205,2018-06-29 11:17:34.656250,-8.95,78.97
293206,2018-06-29 11:17:34.687500,-42.36,78.97
293207,2018-06-29 11:17:34.718750,-69.78,78.97
293208,2018-06-29 11:17:34.750000,-83.14,78.97
293209,2018-06-29 11:17:34.781250,-84.41,78.97
293210,2018-06-29 11:17:34.812500,-78.83,78.97
293211,2018-06-29 11:17:34.843750,-70.1,78.97
293212,2018-06-29 11:17:34.875000,-61.3,78.97
293213,2018-06-29 11:17:34.906250,-54.95,78.97
293214,2018-06-29 11:17:34.937500,-51.66,78.97
293215,2018-06-29 11:17:34.968750,-50.58,78.97
293216,2018-06-29 11:17:35.000000,-51.05,78.97
293217,2018-06-29 11:17:35.031250,-52.79,78.97
293218,2018-06-29 11:17:35.062500,-53.26,78.97
293219,2018-06-29 11:17:35.093750,-46.99,78.97
293220,2018-06-29 11:17:35.125000,-32.11,78.97
293221,2018-06-29 11:17:35.156250,-13.51,78.97
293222,2018-06-29 11:17:35.187500,0.81,78.97
293223,2018-06-29 11:17:35.218750,6.3,78.97
293224,2018-06-29 11:17:35.250000,3.66,78.97
293225,2018-06-29 11:17:35.281250,-3.55,78.97
293226,2018-06-29 11:17:35.312500,-10.6,78.97
293227,2018-06-29 11:17:35.343750,-14.4,78.97
293228,2018-06-29 11:17:35.375000,-14.71,78.97
293229,2018-06-29 11:17:35.406250,-15.93,78.97
293230,2018-06-29 11:17:35.437500,-20.16,78.97
293231,2018-06-29 11:17:35.468750,-26.14,78.97
293232,2018-06-29 11:17:35.500000,-31.49,78.97
293233,2018-06-29 11:17:35.531250,-40.66,79.27
293234,2018-06-29 11:17:35.562500,-60.01,79.27
293235,2018-06-29 11:17:35.593750,-83.61,79.27
293236,2018-06-29 11:17:35.625000,-100.86,79.27
293237,2018-06-29 11:17:35.656250,-108.34,79.27
293238,2018-06-29 11:17:35.687500,-121.74,79.27
293239,2018-06-29 11:17:35.718750,-135.23,79.27
293240,2018-06-29 11:17:35.750000,-125.91,79.27
293241,2018-06-29 11:17:35.781250,-86.65,79.27
293242,2018-06-29 11:17:35.812500,-55.45,79.27
293243,2018-06-29 11:17:35.843750,-76.71,79.27
293244,2018-06-29 11:17:35.875000,-140.29,79.27
293245,2018-06-29 11:17:35.906250,-219.3,79.27
293246,2018-06-29 11:17:35.937500,-294.17,79.27
293247,2018-06-29 11:17:35.968750,-362.77,79.27
293248,2018-06-29 11:17:36.000000,-398.21,79.27
293249,2018-06-29 11:17:36.031250,-407.58,79.27
293250,2018-06-29 11:17:36.062500,-399.3,79.27
293251,2018-06-29 11:17:36.093750,-217.91,79.27
293252,2018-06-29 11:17:36.125000,59.85,79.27
293253,2018-06-29 11:17:36.156250,264.74,79.27
293254,2018-06-29 11:17:36.187500,377.79,79.27
293255,2018-06-29 11:17:36.218750,444.59,79.27
293256,2018-06-29 11:17:36.250000,456.37,79.27
293257,2018-06-29 11:17:36.281250,413.92,79.27
293258,2018-06-29 11:17:36.312500,360.48,79.27
293259,2018-06-29 11:17:36.343750,318.71,79.27
293260,2018-06-29 11:17:36.375000,281.1,79.27
293261,2018-06-29 11:17:36.406250,217.74,79.27
293262,2018-06-29 11:17:36.437500,113.22,79.27
293263,2018-06-29 11:17:36.468750,-9.04,79.27
293264,2018-06-29 11:17:36.500000,-107.2,79.27
293265,2018-06-29 11:17:36.531250,-153.24,79.58
293266,2018-06-29 11:17:36.562500,-114.15,79.58
293267,2018-06-29 11:17:36.593750,-44.62,79.58
293268,2018-06-29 11:17:36.625000,59.78,79.58
293269,2018-06-29 11:17:36.656250,159.04,79.58
293270,2018-06-29 11:17:36.687500,205.92,79.58
293271,2018-06-29 11:17:36.718750,195.68,79.58
293272,2018-06-29 11:17:36.750000,162.22,79.58
293273,2018-06-29 11:17:36.781250,119.77,79.58
293274,2018-06-29 11:17:36.812500,70.34,79.58
293275,2018-06-29 11:17:36.843750,21.92,79.58
293276,2018-06-29 11:17:36.875000,-2.82,79.58
293277,2018-06-29 11:17:36.906250,1.99,79.58
293278,2018-06-29 11:17:36.937500,14.76,79.58
293279,2018-06-29 11:17:36.968750,17.05,79.58
293280,2018-06-29 11:17:37.000000,6.12,79.58
293281,2018-06-29 11:17:37.031250,-8.45,79.58
293282,2018-06-29 11:17:37.062500,-20.94,79.58
293283,2018-06-29 11:17:37.093750,-22.02,79.58
293284,2018-06-29 11:17:37.125000,-12.47,79.58
293285,2018-06-29 11:17:37.156250,-1.88,79.58
293286,2018-06-29 11:17:37.187500,4.55,79.58
293287,2018-06-29 11:17:37.218750,7.23,79.58
293288,2018-06-29 11:17:37.250000,6.3,79.58
293289,2018-06-29 11:17:37.281250,1.69,79.58
293290,2018-06-29 11:17:37.312500,-3.35,79.58
293291,2018-06-29 11:17:37.343750,-7.78,79.58
293292,2018-06-29 11:17:37.375000,-12.68,79.58
293293,2018-06-29 11:17:37.406250,-17.9,79.58
293294,2018-06-29 11:17:37.437500,-22.09,79.58
293295,2018-06-29 11:17:37.468750,-25.91,79.58
293296,2018-06-29 11:17:37.500000,-32.1,79.58
293297,2018-06-29 11:17:37.531250,-41.2,79.9
293298,2018-06-29 11:17:37.562500,-50.36,79.9
293299,2018-06-29 11:17:37.593750,-57.39,79.9
293300,2018-06-29 11:17:37.625000,-63.2,79.9
293301,2018-06-29 11:17:37.656250,-70.37,79.9
293302,2018-06-29 11:17:37.687500,-79.21,79.9
293303,2018-06-29 11:17:37.718750,-82.89,79.9
293304,2018-06-29 11:17:37.750000,-71.39,79.9
293305,2018-06-29 11:17:37.781250,-44.57,79.9
293306,2018-06-29 11:17:37.812500,-14.51,79.9
293307,2018-06-29 11:17:37.843750,8.3,79.9
293308,2018-06-29 11:17:37.875000,22.19,79.9
293309,2018-06-29 11:17:37.906250,28.04,79.9
293310,2018-06-29 11:17:37.937500,26.53,79.9
293311,2018-06-29 11:17:37.968750,21.69,79.9
293312,2018-06-29 11:17:38.000000,18.6,79.9
293313,2018-06-29 11:17:38.031250,17.82,79.9
293314,2018-06-29 11:17:38.062500,16.49,79.9
293315,2018-06-29 11:17:38.093750,13.4,79.9
293316,2018-06-29 11:17:38.125000,9.57,79.9
293317,2018-06-29 11:17:38.156250,5.35,79.9
293318,2018-06-29 11:17:38.187500,-0.1,79.9
293319,2018-06-29 11:17:38.218750,-7.1,79.9
293320,2018-06-29 11:17:38.250000,-15.15,79.9
293321,2018-06-29 11:17:38.281250,-23.35,79.9
293322,2018-06-29 11:17:38.312500,-30.61,79.9
293323,2018-06-29 11:17:38.343750,-36.79,79.9
293324,2018-06-29 11:17:38.375000,-43.71,79.9
293325,2018-06-29 11:17:38.406250,-53.7,79.9
293326,2018-06-29 11:17:38.437500,-65.52,79.9
293327,2018-06-29 11:17:38.468750,-71.33,79.9
293328,2018-06-29 11:17:38.500000,-61.22,79.9
293329,2018-06-29 11:17:38.531250,-34.2,80.25
293330,2018-06-29 11:17:38.562500,-1.32,80.25
293331,2018-06-29 11:17:38.593750,25.09,80.25
293332,2018-06-29 11:17:38.625000,40.42,80.25
293333,2018-06-29 11:17:38.656250,45.63,80.25
293334,2018-06-29 11:17:38.687500,43.87,80.25
293335,2018-06-29 11:17:38.718750,40.29,80.25
293336,2018-06-29 11:17:38.750000,38.91,80.25
293337,2018-06-29 11:17:38.781250,39.18,80.25
293338,2018-06-29 11:17:38.812500,38.48,80.25
293339,2018-06-29 11:17:38.843750,35.91,80.25
293340,2018-06-29 11:17:38.875000,31.73,80.25
293341,2018-06-29 11:17:38.906250,26.03,80.25
293342,2018-06-29 11:17:38.937500,19.01,80.25
293343,2018-06-29 11:17:38.968750,11.33,80.25
293344,2018-06-29 11:17:39.000000,3.53,80.25
293345,2018-06-29 11:17:39.031250,-4.73,80.25
293346,2018-06-29 11:17:39.062500,-14.23,80.25
293347,2018-06-29 11:17:39.093750,-23.97,80.25
293348,2018-06-29 11:17:39.125000,-31.84,80.25
293349,2018-06-29 11:17:39.156250,-38.6,80.25
293350,2018-06-29 11:17:39.187500,-48.2,80.25
293351,2018-06-29 11:17:39.218750,-62.27,80.25
293352,2018-06-29 11:17:39.250000,-74.34,80.25
293353,2018-06-29 11:17:39.281250,-71.83,80.25
293354,2018-06-29 11:17:39.312500,-47.74,80.25
293355,2018-06-29 11:17:39.343750,-10.14,80.25
293356,2018-06-29 11:17:39.375000,24.95,80.25
293357,2018-06-29 11:17:39.406250,47.59,80.25
293358,2018-06-29 11:17:39.437500,57.28,80.25
293359,2018-06-29 11:17:39.468750,57.87,80.25
293360,2018-06-29 11:17:39.500000,54.32,80.25
293361,2018-06-29 11:17:39.531250,51.02,80.63
293362,2018-06-29 11:17:39.562500,49.23,80.63
293363,2018-06-29 11:17:39.593750,47.44,80.63
293364,2018-06-29 11:17:39.625000,44.4,80.63
293365,2018-06-29 11:17:39.656250,40.34,80.63
293366,2018-06-29 11:17:39.687500,35.01,80.63
293367,2018-06-29 11:17:39.718750,27.42,80.63
293368,2018-06-29 11:17:39.750000,18.37,80.63
293369,2018-06-29 11:17:39.781250,10.18,80.63
293370,2018-06-29 11:17:39.812500,3.15,80.63
293371,2018-06-29 11:17:39.843750,-5.02,80.63
293372,2018-06-29 11:17:39.875000,-15.3,80.63
293373,2018-06-29 11:17:39.906250,-25.46,80.63
293374,2018-06-29 11:17:39.937500,-33.39,80.63
293375,2018-06-29 11:17:39.968750,-40.39,80.63
293376,2018-06-29 11:17:40.000000,-50.09,80.63
293377,2018-06-29 11:17:40.031250,-63.62,80.63
293378,2018-06-29 11:17:40.062500,-73.99,80.63
293379,2018-06-29 11:17:40.093750,-68.17,80.63
293380,2018-06-29 11:17:40.125000,-40.54,80.63
293381,2018-06-29 11:17:40.156250,-1.87,80.63
293382,2018-06-29 11:17:40.187500,31.0,80.63
293383,2018-06-29 11:17:40.218750,49.9,80.63
293384,2018-06-29 11:17:40.250000,55.86,80.63
293385,2018-06-29 11:17:40.281250,52.98,80.63
293386,2018-06-29 11:17:40.312500,47.06,80.63
293387,2018-06-29 11:17:40.343750,43.65,80.63
293388,2018-06-29 11:17:40.375000,43.71,80.63
293389,2018-06-29 11:17:40.406250,43.99,80.63
293390,2018-06-29 11:17:40.437500,42.07,80.63
293391,2018-06-29 11:17:40.468750,38.15,80.63
293392,2018-06-29 11:17:40.500000,32.43,80.63
293393,2018-06-29 11:17:40.531250,24.2,81.02
293394,2018-06-29 11:17:40.562500,14.23,81.02
293395,2018-06-29 11:17:40.593750,5.05,81.02
293396,2018-06-29 11:17:40.625000,-2.42,81.02
293397,2018-06-29 11:17:40.656250,-10.05,81.02
293398,2018-06-29 11:17:40.687500,-19.07,81.02
293399,2018-06-29 11:17:40.718750,-27.98,81.02
293400,2018-06-29 11:17:40.750000,-35.16,81.02
293401,2018-06-29 11:17:40.781250,-41.88,81.02
293402,2018-06-29 11:17:40.812500,-51.51,81.02
293403,2018-06-29 11:17:40.843750,-64.46,81.02
293404,2018-06-29 11:17:40.875000,-72.86,81.02
293405,2018-06-29 11:17:40.906250,-64.62,81.02
293406,2018-06-29 11:17:40.937500,-37.02,81.02
293407,2018-06-29 11:17:40.968750,-2.12,81.02
293408,2018-06-29 11:17:41.000000,25.06,81.02
293409,2018-06-29 11:17:41.031250,38.28,81.02
293410,2018-06-29 11:17:41.062500,38.91,81.02
293411,2018-06-29 11:17:41.093750,30.49,81.02
293412,2018-06-29 11:17:41.125000,18.28,81.02
293413,2018-06-29 11:17:41.156250,8.26,81.02
293414,2018-06-29 11:17:41.187500,4.57,81.02
293415,2018-06-29 11:17:41.218750,8.12,81.02
293416,2018-06-29 11:17:41.250000,16.76,81.02
293417,2018-06-29 11:17:41.281250,25.91,81.02
293418,2018-06-29 11:17:41.312500,31.5,81.02
293419,2018-06-29 11:17:41.343750,32.48,81.02
293420,2018-06-29 11:17:41.375000,28.31,81.02
293421,2018-06-29 11:17:41.406250,14.37,81.02
293422,2018-06-29 11:17:41.437500,-13.28,81.02
293423,2018-06-29 11:17:41.468750,-49.67,81.02
293424,2018-06-29 11:17:41.500000,-83.63,81.02
293425,2018-06-29 11:17:41.531250,-104.66,81.38
293426,2018-06-29 11:17:41.562500,-113.48,81.38
293427,2018-06-29 11:17:41.593750,-126.72,81.38
293428,2018-06-29 11:17:41.625000,-159.52,81.38
293429,2018-06-29 11:17:41.656250,-197.48,81.38
293430,2018-06-29 11:17:41.687500,-197.67,81.38
293431,2018-06-29 11:17:41.718750,-135.86,81.38
293432,2018-06-29 11:17:41.750000,-27.05,81.38
293433,2018-06-29 11:17:41.781250,94.81,81.38
293434,2018-06-29 11:17:41.812500,197.33,81.38
293435,2018-06-29 11:17:41.843750,256.74,81.38
293436,2018-06-29 11:17:41.875000,266.13,81.38
293437,2018-06-29 11:17:41.906250,242.45,81.38
293438,2018-06-29 11:17:41.937500,209.61,81.38
293439,2018-06-29 11:17:41.968750,174.25,81.38
293440,2018-06-29 11:17:42.000000,126.24,81.38
293441,2018-06-29 11:17:42.031250,72.14,81.38
293442,2018-06-29 11:17:42.062500,36.24,81.38
293443,2018-06-29 11:17:42.093750,29.93,81.38
293444,2018-06-29 11:17:42.125000,38.02,81.38
293445,2018-06-29 11:17:42.156250,43.3,81.38
293446,2018-06-29 11:17:42.187500,42.07,81.38
293447,2018-06-29 11:17:42.218750,33.14,81.38
293448,2018-06-29 11:17:42.250000,12.72,81.38
293449,2018-06-29 11:17:42.281250,-15.48,81.38
293450,2018-06-29 11:17:42.312500,-42.04,81.38
293451,2018-06-29 11:17:42.343750,-64.6,81.38
293452,2018-06-29 11:17:42.375000,-82.9,81.38
293453,2018-06-29 11:17:42.406250,-87.43,81.38
293454,2018-06-29 11:17:42.437500,-69.0,81.38
293455,2018-06-29 11:17:42.468750,-34.46,81.38
293456,2018-06-29 11:17:42.500000,-1.81,81.38
293457,2018-06-29 11:17:42.531250,15.21,81.73
293458,2018-06-29 11:17:42.562500,14.68,81.73
293459,2018-06-29 11:17:42.593750,2.88,81.73
293460,2018-06-29 11:17:42.625000,-10.88,81.73
293461,2018-06-29 11:17:42.656250,-17.91,81.73
293462,2018-06-29 11:17:42.687500,-14.87,81.73
293463,2018-06-29 11:17:42.718750,-5.29,81.73
293464,2018-06-29 11:17:42.750000,4.58,81.73
293465,2018-06-29 11:17:42.781250,10.67,81.73
293466,2018-06-29 11:17:42.812500,11.3,81.73
293467,2018-06-29 11:17:42.843750,5.6,81.73
293468,2018-06-29 11:17:42.875000,-5.22,81.73
293469,2018-06-29 11:17:42.906250,-16.66,81.73
293470,2018-06-29 11:17:42.937500,-24.78,81.73
293471,2018-06-29 11:17:42.968750,-30.27,81.73
293472,2018-06-29 11:17:43.000000,-37.07,81.73
293473,2018-06-29 11:17:43.031250,-47.14,81.73
293474,2018-06-29 11:17:43.062500,-56.15,81.73
293475,2018-06-29 11:17:43.093750,-54.15,81.73
293476,2018-06-29 11:17:43.125000,-34.81,81.73
293477,2018-06-29 11:17:43.156250,-4.83,81.73
293478,2018-06-29 11:17:43.187500,21.94,81.73
293479,2018-06-29 11:17:43.218750,38.12,81.73
293480,2018-06-29 11:17:43.250000,44.11,81.73
293481,2018-06-29 11:17:43.281250,41.14,81.73
293482,2018-06-29 11:17:43.312500,32.03,81.73
293483,2018-06-29 11:17:43.343750,23.17,81.73
293484,2018-06-29 11:17:43.375000,17.98,81.73
293485,2018-06-29 11:17:43.406250,13.16,81.73
293486,2018-06-29 11:17:43.437500,5.08,81.73
293487,2018-06-29 11:17:43.468750,-6.14,81.73
293488,2018-06-29 11:17:43.500000,-20.86,81.73
293489,2018-06-29 11:17:43.531250,-41.7,82.08
293490,2018-06-29 11:17:43.562500,-68.74,82.08
293491,2018-06-29 11:17:43.593750,-98.84,82.08
293492,2018-06-29 11:17:43.625000,-131.45,82.08
293493,2018-06-29 11:17:43.656250,-168.98,82.08
293494,2018-06-29 11:17:43.687500,-210.75,82.08
293495,2018-06-29 11:17:43.718750,-251.34,82.08
293496,2018-06-29 11:17:43.750000,-281.55,82.08
293497,2018-06-29 11:17:43.781250,-289.7,82.08
293498,2018-06-29 11:17:43.812500,-271.14,82.08
293499,2018-06-29 11:17:43.843750,-234.52,82.08
293500,2018-06-29 11:17:43.875000,-189.95,82.08
293501,2018-06-29 11:17:43.906250,-139.76,82.08
293502,2018-06-29 11:17:43.937500,-86.3,82.08
293503,2018-06-29 11:17:43.968750,-34.22,82.08
293504,2018-06-29 11:17:44.000000,16.93,82.08
293505,2018-06-29 11:17:44.031250,68.4,82.08
293506,2018-06-29 11:17:44.062500,114.74,82.08
293507,2018-06-29 11:17:44.093750,149.63,82.08
293508,2018-06-29 11:17:44.125000,173.44,82.08
293509,2018-06-29 11:17:44.156250,189.18,82.08
293510,2018-06-29 11:17:44.187500,196.8,82.08
293511,2018-06-29 11:17:44.218750,194.51,82.08
293512,2018-06-29 11:17:44.250000,181.68,82.08
293513,2018-06-29 11:17:44.281250,159.24,82.08
293514,2018-06-29 11:17:44.312500,128.86,82.08
293515,2018-06-29 11:17:44.343750,92.14,82.08
293516,2018-06-29 11:17:44.375000,52.41,82.08
293517,2018-06-29 11:17:44.406250,19.4,82.08
293518,2018-06-29 11:17:44.437500,6.76,82.08
293519,2018-06-29 11:17:44.468750,18.69,82.08
293520,2018-06-29 11:17:44.500000,43.26,82.08
293521,2018-06-29 11:17:44.531250,64.15,82.45
293522,2018-06-29 11:17:44.562500,73.54,82.45
293523,2018-06-29 11:17:44.593750,71.87,82.45
293524,2018-06-29 11:17:44.625000,63.42,82.45
293525,2018-06-29 11:17:44.656250,54.69,82.45
293526,2018-06-29 11:17:44.687500,50.14,82.45
293527,2018-06-29 11:17:44.718750,48.48,82.45
293528,2018-06-29 11:17:44.750000,46.04,82.45
293529,2018-06-29 11:17:44.781250,41.91,82.45
293530,2018-06-29 11:17:44.812500,37.0,82.45
293531,2018-06-29 11:17:44.843750,30.36,82.45
293532,2018-06-29 11:17:44.875000,20.09,82.45
293533,2018-06-29 11:17:44.906250,6.91,82.45
293534,2018-06-29 11:17:44.937500,-5.84,82.45
293535,2018-06-29 11:17:44.968750,-16.01,82.45
293536,2018-06-29 11:17:45.000000,-25.42,82.45
293537,2018-06-29 11:17:45.031250,-37.79,82.45
293538,2018-06-29 11:17:45.062500,-51.66,82.45
293539,2018-06-29 11:17:45.093750,-56.03,82.45
293540,2018-06-29 11:17:45.125000,-39.74,82.45
293541,2018-06-29 11:17:45.156250,-5.94,82.45
293542,2018-06-29 11:17:45.187500,29.06,82.45
293543,2018-06-29 11:17:45.218750,51.45,82.45
293544,2018-06-29 11:17:45.250000,57.97,82.45
293545,2018-06-29 11:17:45.281250,51.89,82.45
293546,2018-06-29 11:17:45.312500,40.16,82.45
293547,2018-06-29 11:17:45.343750,31.67,82.45
293548,2018-06-29 11:17:45.375000,30.18,82.45
293549,2018-06-29 11:17:45.406250,31.07,82.45
293550,2018-06-29 11:17:45.437500,29.04,82.45
293551,2018-06-29 11:17:45.468750,24.57,82.45
293552,2018-06-29 11:17:45.500000,19.64,82.45
293553,2018-06-29 11:17:45.531250,12.71,82.82
293554,2018-06-29 11:17:45.562500,1.75,82.82
293555,2018-06-29 11:17:45.593750,-11.25,82.82
293556,2018-06-29 11:17:45.625000,-22.11,82.82
293557,2018-06-29 11:17:45.656250,-29.57,82.82
293558,2018-06-29 11:17:45.687500,-36.71,82.82
293559,2018-06-29 11:17:45.718750,-46.74,82.82
293560,2018-06-29 11:17:45.750000,-56.4,82.82
293561,2018-06-29 11:17:45.781250,-54.87,82.82
293562,2018-06-29 11:17:45.812500,-33.83,82.82
293563,2018-06-29 11:17:45.843750,1.2,82.82
293564,2018-06-29 11:17:45.875000,34.21,82.82
293565,2018-06-29 11:17:45.906250,52.62,82.82
293566,2018-06-29 11:17:45.937500,53.84,82.82
293567,2018-06-29 11:17:45.968750,42.5,82.82
293568,2018-06-29 11:17:46.000000,27.3,82.82
293569,2018-06-29 11:17:46.031250,17.22,82.82
293570,2018-06-29 11:17:46.062500,15.36,82.82
293571,2018-06-29 11:17:46.093750,17.26,82.82
293572,2018-06-29 11:17:46.125000,16.7,82.82
293573,2018-06-29 11:17:46.156250,11.37,82.82
293574,2018-06-29 11:17:46.187500,2.19,82.82
293575,2018-06-29 11:17:46.218750,-9.63,82.82
293576,2018-06-29 11:17:46.250000,-23.53,82.82
293577,2018-06-29 11:17:46.281250,-38.78,82.82
293578,2018-06-29 11:17:46.312500,-54.15,82.82
293579,2018-06-29 11:17:46.343750,-68.31,82.82
293580,2018-06-29 11:17:46.375000,-82.47,82.82
293581,2018-06-29 11:17:46.406250,-101.39,82.82
293582,2018-06-29 11:17:46.437500,-126.52,82.82
293583,2018-06-29 11:17:46.468750,-148.81,82.82
293584,2018-06-29 11:17:46.500000,-155.73,82.82
293585,2018-06-29 11:17:46.531250,-142.29,83.17
293586,2018-06-29 11:17:46.562500,-110.05,83.17
293587,2018-06-29 11:17:46.593750,-63.98,83.17
293588,2018-06-29 11:17:46.625000,-14.02,83.17
293589,2018-06-29 11:17:46.656250,30.8,83.17
293590,2018-06-29 11:17:46.687500,70.72,83.17
293591,2018-06-29 11:17:46.718750,108.32,83.17
293592,2018-06-29 11:17:46.750000,138.64,83.17
293593,2018-06-29 11:17:46.781250,155.34,83.17
293594,2018-06-29 11:17:46.812500,159.32,83.17
293595,2018-06-29 11:17:46.843750,154.87,83.17
293596,2018-06-29 11:17:46.875000,143.92,83.17
293597,2018-06-29 11:17:46.906250,128.18,83.17
293598,2018-06-29 11:17:46.937500,111.4,83.17
293599,2018-06-29 11:17:46.968750,95.88,83.17
293600,2018-06-29 11:17:47.000000,79.89,83.17
293601,2018-06-29 11:17:47.031250,60.74,83.17
293602,2018-06-29 11:17:47.062500,37.52,83.17
293603,2018-06-29 11:17:47.093750,13.08,83.17
293604,2018-06-29 11:17:47.125000,-3.72,83.17
293605,2018-06-29 11:17:47.156250,-3.31,83.17
293606,2018-06-29 11:17:47.187500,12.5,83.17
293607,2018-06-29 11:17:47.218750,30.44,83.17
293608,2018-06-29 11:17:47.250000,39.12,83.17
293609,2018-06-29 11:17:47.281250,35.76,83.17
293610,2018-06-29 11:17:47.312500,23.11,83.17
293611,2018-06-29 11:17:47.343750,8.08,83.17
293612,2018-06-29 11:17:47.375000,-1.28,83.17
293613,2018-06-29 11:17:47.406250,-3.28,83.17
293614,2018-06-29 11:17:47.437500,-3.85,83.17
293615,2018-06-29 11:17:47.468750,-7.99,83.17
293616,2018-06-29 11:17:47.500000,-14.57,83.17
293617,2018-06-29 11:17:47.531250,-21.13,83.53
293618,2018-06-29 11:17:47.562500,-27.92,83.53
293619,2018-06-29 11:17:47.593750,-34.98,83.53
293620,2018-06-29 11:17:47.625000,-39.7,83.53
293621,2018-06-29 11:17:47.656250,-40.68,83.53
293622,2018-06-29 11:17:47.687500,-40.67,83.53
293623,2018-06-29 11:17:47.718750,-43.41,83.53
293624,2018-06-29 11:17:47.750000,-49.0,83.53
293625,2018-06-29 11:17:47.781250,-51.19,83.53
293626,2018-06-29 11:17:47.812500,-40.23,83.53
293627,2018-06-29 11:17:47.843750,-13.89,83.53
293628,2018-06-29 11:17:47.875000,16.03,83.53
293629,2018-06-29 11:17:47.906250,33.99,83.53
293630,2018-06-29 11:17:47.937500,34.72,83.53
293631,2018-06-29 11:17:47.968750,22.81,83.53
293632,2018-06-29 11:17:48.000000,5.23,83.53
293633,2018-06-29 11:17:48.031250,-10.69,83.53
293634,2018-06-29 11:17:48.062500,-18.89,83.53
293635,2018-06-29 11:17:48.093750,-18.68,83.53
293636,2018-06-29 11:17:48.125000,-14.47,83.53
293637,2018-06-29 11:17:48.156250,-10.6,83.53
293638,2018-06-29 11:17:48.187500,-8.49,83.53
293639,2018-06-29 11:17:48.218750,-8.08,83.53
293640,2018-06-29 11:17:48.250000,-8.84,83.53
293641,2018-06-29 11:17:48.281250,-9.84,83.53
293642,2018-06-29 11:17:48.312500,-10.91,83.53
293643,2018-06-29 11:17:48.343750,-13.16,83.53
293644,2018-06-29 11:17:48.375000,-17.1,83.53
293645,2018-06-29 11:17:48.406250,-21.47,83.53
293646,2018-06-29 11:17:48.437500,-24.88,83.53
293647,2018-06-29 11:17:48.468750,-27.66,83.53
293648,2018-06-29 11:17:48.500000,-31.9,83.53
293649,2018-06-29 11:17:48.531250,-39.72,83.93
293650,2018-06-29 11:17:48.562500,-48.53,83.93
293651,2018-06-29 11:17:48.593750,-48.42,83.93
293652,2018-06-29 11:17:48.625000,-31.09,83.93
293653,2018-06-29 11:17:48.656250,-1.98,83.93
293654,2018-06-29 11:17:48.687500,24.08,83.93
293655,2018-06-29 11:17:48.718750,37.91,83.93
293656,2018-06-29 11:17:48.750000,39.82,83.93
293657,2018-06-29 11:17:48.781250,33.44,83.93
293658,2018-06-29 11:17:48.812500,23.95,83.93
293659,2018-06-29 11:17:48.843750,17.75,83.93
293660,2018-06-29 11:17:48.875000,17.51,83.93
293661,2018-06-29 11:17:48.906250,19.97,83.93
293662,2018-06-29 11:17:48.937500,20.97,83.93
293663,2018-06-29 11:17:48.968750,19.8,83.93
293664,2018-06-29 11:17:49.000000,17.37,83.93
293665,2018-06-29 11:17:49.031250,13.25,83.93
293666,2018-06-29 11:17:49.062500,6.96,83.93
293667,2018-06-29 11:17:49.093750,0.08,83.93
293668,2018-06-29 11:17:49.125000,-5.3,83.93
293669,2018-06-29 11:17:49.156250,-9.36,83.93
293670,2018-06-29 11:17:49.187500,-13.49,83.93
293671,2018-06-29 11:17:49.218750,-17.55,83.93
293672,2018-06-29 11:17:49.250000,-20.62,83.93
293673,2018-06-29 11:17:49.281250,-23.72,83.93
293674,2018-06-29 11:17:49.312500,-29.53,83.93
293675,2018-06-29 11:17:49.343750,-39.17,83.93
293676,2018-06-29 11:17:49.375000,-47.91,83.93
293677,2018-06-29 11:17:49.406250,-45.85,83.93
293678,2018-06-29 11:17:49.437500,-27.62,83.93
293679,2018-06-29 11:17:49.468750,-0.69,83.93
293680,2018-06-29 11:17:49.500000,21.71,83.93
293681,2018-06-29 11:17:49.531250,32.85,84.33
293682,2018-06-29 11:17:49.562500,33.59,84.33
293683,2018-06-29 11:17:49.593750,27.91,84.33
293684,2018-06-29 11:17:49.625000,21.46,84.33
293685,2018-06-29 11:17:49.656250,18.67,84.33
293686,2018-06-29 11:17:49.687500,18.98,84.33
293687,2018-06-29 11:17:49.718750,19.21,84.33
293688,2018-06-29 11:17:49.750000,18.0,84.33
293689,2018-06-29 11:17:49.781250,15.45,84.33
293690,2018-06-29 11:17:49.812500,11.22,84.33
293691,2018-06-29 11:17:49.843750,5.13,84.33
293692,2018-06-29 11:17:49.875000,-1.84,84.33
293693,2018-06-29 11:17:49.906250,-8.44,84.33
293694,2018-06-29 11:17:49.937500,-14.03,84.33
293695,2018-06-29 11:17:49.968750,-18.41,84.33
293696,2018-06-29 11:17:50.000000,-21.26,84.33
293697,2018-06-29 11:17:50.031250,-22.11,84.33
293698,2018-06-29 11:17:50.062500,-21.43,84.33
293699,2018-06-29 11:17:50.093750,-21.99,84.33
293700,2018-06-29 11:17:50.125000,-27.97,84.33
293701,2018-06-29 11:17:50.156250,-39.33,84.33
293702,2018-06-29 11:17:50.187500,-47.14,84.33
293703,2018-06-29 11:17:50.218750,-40.08,84.33
293704,2018-06-29 11:17:50.250000,-17.62,84.33
293705,2018-06-29 11:17:50.281250,8.41,84.33
293706,2018-06-29 11:17:50.312500,26.33,84.33
293707,2018-06-29 11:17:50.343750,33.18,84.33
293708,2018-06-29 11:17:50.375000,31.41,84.33
293709,2018-06-29 11:17:50.406250,24.81,84.33
293710,2018-06-29 11:17:50.437500,17.82,84.33
293711,2018-06-29 11:17:50.468750,13.95,84.33
293712,2018-06-29 11:17:50.500000,13.4,84.33
293713,2018-06-29 11:17:50.531250,13.4,84.73
293714,2018-06-29 11:17:50.562500,11.44,84.73
293715,2018-06-29 11:17:50.593750,7.81,84.73
293716,2018-06-29 11:17:50.625000,4.36,84.73
293717,2018-06-29 11:17:50.656250,1.51,84.73
293718,2018-06-29 11:17:50.687500,-1.79,84.73
293719,2018-06-29 11:17:50.718750,-5.43,84.73
293720,2018-06-29 11:17:50.750000,-8.38,84.73
293721,2018-06-29 11:17:50.781250,-11.59,84.73
293722,2018-06-29 11:17:50.812500,-18.02,84.73
293723,2018-06-29 11:17:50.843750,-29.35,84.73
293724,2018-06-29 11:17:50.875000,-42.31,84.73
293725,2018-06-29 11:17:50.906250,-49.92,84.73
293726,2018-06-29 11:17:50.937500,-47.89,84.73
293727,2018-06-29 11:17:50.968750,-39.25,84.73
293728,2018-06-29 11:17:51.000000,-31.05,84.73
293729,2018-06-29 11:17:51.031250,-26.93,84.73
293730,2018-06-29 11:17:51.062500,-23.27,84.73
293731,2018-06-29 11:17:51.093750,-13.12,84.73
293732,2018-06-29 11:17:51.125000,5.29,84.73
293733,2018-06-29 11:17:51.156250,24.88,84.73
293734,2018-06-29 11:17:51.187500,36.32,84.73
293735,2018-06-29 11:17:51.218750,36.26,84.73
293736,2018-06-29 11:17:51.250000,27.79,84.73
293737,2018-06-29 11:17:51.281250,15.81,84.73
293738,2018-06-29 11:17:51.312500,4.48,84.73
293739,2018-06-29 11:17:51.343750,-3.58,84.73
293740,2018-06-29 11:17:51.375000,-8.24,84.73
293741,2018-06-29 11:17:51.406250,-10.84,84.73
293742,2018-06-29 11:17:51.437500,-11.55,84.73
293743,2018-06-29 11:17:51.468750,-8.74,84.73
293744,2018-06-29 11:17:51.500000,-2.13,84.73
293745,2018-06-29 11:17:51.531250,5.03,85.1
293746,2018-06-29 11:17:51.562500,8.21,85.1
293747,2018-06-29 11:17:51.593750,5.16,85.1
293748,2018-06-29 11:17:51.625000,-3.31,85.1
293749,2018-06-29 11:17:51.656250,-14.14,85.1
293750,2018-06-29 11:17:51.687500,-22.2,85.1
293751,2018-06-29 11:17:51.718750,-22.41,85.1
293752,2018-06-29 11:17:51.750000,-15.08,85.1
293753,2018-06-29 11:17:51.781250,-7.14,85.1
293754,2018-06-29 11:17:51.812500,-5.15,85.1
293755,2018-06-29 11:17:51.843750,-5.71,85.1
293756,2018-06-29 11:17:51.875000,2.71,85.1
293757,2018-06-29 11:17:51.906250,24.61,85.1
293758,2018-06-29 11:17:51.937500,49.01,85.1
293759,2018-06-29 11:17:51.968750,60.18,85.1
293760,2018-06-29 11:17:52.000000,52.95,85.1
293761,2018-06-29 11:17:52.031250,33.42,85.1
293762,2018-06-29 11:17:52.062500,10.5,85.1
293763,2018-06-29 11:17:52.093750,-8.54,85.1
293764,2018-06-29 11:17:52.125000,-18.99,85.1
293765,2018-06-29 11:17:52.156250,-20.61,85.1
293766,2018-06-29 11:17:52.187500,-17.88,85.1
293767,2018-06-29 11:17:52.218750,-16.07,85.1
293768,2018-06-29 11:17:52.250000,-17.52,85.1
293769,2018-06-29 11:17:52.281250,-21.0,85.1
293770,2018-06-29 11:17:52.312500,-23.08,85.1
293771,2018-06-29 11:17:52.343750,-21.63,85.1
293772,2018-06-29 11:17:52.375000,-17.24,85.1
293773,2018-06-29 11:17:52.406250,-10.99,85.1
293774,2018-06-29 11:17:52.437500,-1.86,85.1
293775,2018-06-29 11:17:52.468750,11.66,85.1
293776,2018-06-29 11:17:52.500000,28.72,85.1
293777,2018-06-29 11:17:52.531250,42.68,85.52
293778,2018-06-29 11:17:52.562500,41.24,85.52
293779,2018-06-29 11:17:52.593750,19.95,85.52
293780,2018-06-29 11:17:52.625000,-7.72,85.52
293781,2018-06-29 11:17:52.656250,-21.76,85.52
293782,2018-06-29 11:17:52.687500,-16.17,85.52
293783,2018-06-29 11:17:52.718750,0.0,85.52
293784,2018-06-29 11:17:52.750000,17.59,85.52
293785,2018-06-29 11:17:52.781250,34.04,85.52
293786,2018-06-29 11:17:52.812500,49.06,85.52
293787,2018-06-29 11:17:52.843750,59.78,85.52
293788,2018-06-29 11:17:52.875000,65.93,85.52
293789,2018-06-29 11:17:52.906250,71.68,85.52
293790,2018-06-29 11:17:52.937500,80.66,85.52
293791,2018-06-29 11:17:52.968750,88.84,85.52
293792,2018-06-29 11:17:53.000000,89.32,85.52
293793,2018-06-29 11:17:53.031250,81.85,85.52
