,Time,ppg,hr
51200,2018-06-29 09:11:32.000000,-1.62,79.7
51201,2018-06-29 09:11:32.031250,78.16,79.7
51202,2018-06-29 09:11:32.062500,153.6,79.7
51203,2018-06-29 09:11:32.093750,150.7,79.7
51204,2018-06-29 09:11:32.125000,81.88,79.7
51205,2018-06-29 09:11:32.156250,11.79,79.7
51206,2018-06-29 09:11:32.187500,-24.01,79.7
51207,2018-06-29 09:11:32.218750,-30.97,79.7
51208,2018-06-29 09:11:32.250000,-22.26,79.7
51209,2018-06-29 09:11:32.281250,-10.37,79.7
51210,2018-06-29 09:11:32.312500,-8.55,79.7
51211,2018-06-29 09:11:32.343750,-23.71,79.7
51212,2018-06-29 09:11:32.375000,-45.58,79.7
51213,2018-06-29 09:11:32.406250,-54.51,79.7
51214,2018-06-29 09:11:32.437500,-44.78,79.7
51215,2018-06-29 09:11:32.468750,-25.21,79.7
51216,2018-06-29 09:11:32.500000,-10.09,79.7
51217,2018-06-29 09:11:32.531250,-1.88,79.77
51218,2018-06-29 09:11:32.562500,4.08,79.77
51219,2018-06-29 09:11:32.593750,11.64,79.77
51220,2018-06-29 09:11:32.625000,30.19,79.77
51221,2018-06-29 09:11:32.656250,64.46,79.77
51222,2018-06-29 09:11:32.687500,95.15,79.77
51223,2018-06-29 09:11:32.718750,96.63,79.77
51224,2018-06-29 09:11:32.750000,71.8,79.77
51225,2018-06-29 09:11:32.781250,40.95,79.77
51226,2018-06-29 09:11:32.812500,15.29,79.77
51227,2018-06-29 09:11:32.843750,-7.48,79.77
51228,2018-06-29 09:11:32.875000,-33.81,79.77
51229,2018-06-29 09:11:32.906250,-68.48,79.77
51230,2018-06-29 09:11:32.937500,-102.25,79.77
51231,2018-06-29 09:11:32.968750,-105.34,79.77
51232,2018-06-29 09:11:33.000000,-69.99,79.77
51233,2018-06-29 09:11:33.031250,-28.65,79.77
51234,2018-06-29 09:11:33.062500,17.73,79.77
51235,2018-06-29 09:11:33.093750,98.71,79.77
51236,2018-06-29 09:11:33.125000,135.49,79.77
51237,2018-06-29 09:11:33.156250,64.32,79.77
51238,2018-06-29 09:11:33.187500,-37.27,79.77
51239,2018-06-29 09:11:33.218750,-85.55,79.77
51240,2018-06-29 09:11:33.250000,-85.12,79.77
51241,2018-06-29 09:11:33.281250,-59.46,79.77
51242,2018-06-29 09:11:33.312500,-15.21,79.77
51243,2018-06-29 09:11:33.343750,21.91,79.77
51244,2018-06-29 09:11:33.375000,19.41,79.77
51245,2018-06-29 09:11:33.406250,-22.7,79.77
51246,2018-06-29 09:11:33.437500,-58.27,79.77
51247,2018-06-29 09:11:33.468750,-67.32,79.77
51248,2018-06-29 09:11:33.500000,-65.06,79.77
51249,2018-06-29 09:11:33.531250,-60.77,79.83
51250,2018-06-29 09:11:33.562500,-49.23,79.83
51251,2018-06-29 09:11:33.593750,-29.14,79.83
51252,2018-06-29 09:11:33.625000,-6.84,79.83
51253,2018-06-29 09:11:33.656250,11.1,79.83
51254,2018-06-29 09:11:33.687500,23.16,79.83
51255,2018-06-29 09:11:33.718750,32.42,79.83
51256,2018-06-29 09:11:33.750000,39.52,79.83
51257,2018-06-29 09:11:33.781250,42.6,79.83
51258,2018-06-29 09:11:33.812500,41.25,79.83
51259,2018-06-29 09:11:33.843750,36.35,79.83
51260,2018-06-29 09:11:33.875000,24.65,79.83
51261,2018-06-29 09:11:33.906250,4.61,79.83
51262,2018-06-29 09:11:33.937500,-16.39,79.83
51263,2018-06-29 09:11:33.968750,-29.15,79.83
51264,2018-06-29 09:11:34.000000,-33.41,79.83
51265,2018-06-29 09:11:34.031250,-34.79,79.83
51266,2018-06-29 09:11:34.062500,-36.8,79.83
51267,2018-06-29 09:11:34.093750,-41.05,79.83
51268,2018-06-29 09:11:34.125000,-48.45,79.83
51269,2018-06-29 09:11:34.156250,-57.18,79.83
51270,2018-06-29 09:11:34.187500,-64.02,79.83
51271,2018-06-29 09:11:34.218750,-70.13,79.83
51272,2018-06-29 09:11:34.250000,-81.37,79.83
51273,2018-06-29 09:11:34.281250,-98.58,79.83
51274,2018-06-29 09:11:34.312500,-111.15,79.83
51275,2018-06-29 09:11:34.343750,-107.8,79.83
51276,2018-06-29 09:11:34.375000,-91.04,79.83
51277,2018-06-29 09:11:34.406250,-72.99,79.83
51278,2018-06-29 09:11:34.437500,-60.41,79.83
51279,2018-06-29 09:11:34.468750,-51.76,79.83
51280,2018-06-29 09:11:34.500000,-44.15,79.83
51281,2018-06-29 09:11:34.531250,-35.69,79.82
51282,2018-06-29 09:11:34.562500,-25.75,79.82
51283,2018-06-29 09:11:34.593750,-16.21,79.82
51284,2018-06-29 09:11:34.625000,-9.25,79.82
51285,2018-06-29 09:11:34.656250,-4.0,79.82
51286,2018-06-29 09:11:34.687500,2.36,79.82
51287,2018-06-29 09:11:34.718750,11.04,79.82
51288,2018-06-29 09:11:34.750000,18.95,79.82
51289,2018-06-29 09:11:34.781250,23.33,79.82
51290,2018-06-29 09:11:34.812500,25.24,79.82
51291,2018-06-29 09:11:34.843750,30.46,79.82
51292,2018-06-29 09:11:34.875000,43.63,79.82
51293,2018-06-29 09:11:34.906250,56.84,79.82
51294,2018-06-29 09:11:34.937500,54.14,79.82
51295,2018-06-29 09:11:34.968750,30.7,79.82
51296,2018-06-29 09:11:35.000000,0.2,79.82
51297,2018-06-29 09:11:35.031250,-25.95,79.82
51298,2018-06-29 09:11:35.062500,-45.85,79.82
51299,2018-06-29 09:11:35.093750,-59.4,79.82
51300,2018-06-29 09:11:35.125000,-62.68,79.82
51301,2018-06-29 09:11:35.156250,-54.66,79.82
51302,2018-06-29 09:11:35.187500,-41.85,79.82
51303,2018-06-29 09:11:35.218750,-23.4,79.82
51304,2018-06-29 09:11:35.250000,3.54,79.82
51305,2018-06-29 09:11:35.281250,43.72,79.82
51306,2018-06-29 09:11:35.312500,80.46,79.82
51307,2018-06-29 09:11:35.343750,101.71,79.82
51308,2018-06-29 09:11:35.375000,115.36,79.82
51309,2018-06-29 09:11:35.406250,140.9,79.82
51310,2018-06-29 09:11:35.437500,183.52,79.82
51311,2018-06-29 09:11:35.468750,217.59,79.82
51312,2018-06-29 09:11:35.500000,237.78,79.82
51313,2018-06-29 09:11:35.531250,255.47,79.8
51314,2018-06-29 09:11:35.562500,301.45,79.8
51315,2018-06-29 09:11:35.593750,368.75,79.8
51316,2018-06-29 09:11:35.625000,442.34,79.8
51317,2018-06-29 09:11:35.656250,489.93,79.8
51318,2018-06-29 09:11:35.687500,344.44,79.8
51319,2018-06-29 09:11:35.718750,106.71,79.8
51320,2018-06-29 09:11:35.750000,-80.81,79.8
51321,2018-06-29 09:11:35.781250,-217.58,79.8
51322,2018-06-29 09:11:35.812500,-286.42,79.8
51323,2018-06-29 09:11:35.843750,-240.35,79.8
51324,2018-06-29 09:11:35.875000,-141.8,79.8
51325,2018-06-29 09:11:35.906250,-91.55,79.8
51326,2018-06-29 09:11:35.937500,-99.86,79.8
51327,2018-06-29 09:11:35.968750,-106.11,79.8
51328,2018-06-29 09:11:36.000000,-81.05,79.8
51329,2018-06-29 09:11:36.031250,-62.67,79.8
51330,2018-06-29 09:11:36.062500,-67.81,79.8
51331,2018-06-29 09:11:36.093750,-82.19,79.8
51332,2018-06-29 09:11:36.125000,-85.31,79.8
51333,2018-06-29 09:11:36.156250,-71.01,79.8
51334,2018-06-29 09:11:36.187500,-46.0,79.8
51335,2018-06-29 09:11:36.218750,-31.96,79.8
51336,2018-06-29 09:11:36.250000,-40.59,79.8
51337,2018-06-29 09:11:36.281250,-46.61,79.8
51338,2018-06-29 09:11:36.312500,-29.28,79.8
51339,2018-06-29 09:11:36.343750,-7.45,79.8
51340,2018-06-29 09:11:36.375000,-5.22,79.8
51341,2018-06-29 09:11:36.406250,-16.07,79.8
51342,2018-06-29 09:11:36.437500,-31.24,79.8
51343,2018-06-29 09:11:36.468750,-52.58,79.8
51344,2018-06-29 09:11:36.500000,-73.09,79.8
51345,2018-06-29 09:11:36.531250,-80.52,79.73
51346,2018-06-29 09:11:36.562500,-76.78,79.73
51347,2018-06-29 09:11:36.593750,-74.33,79.73
51348,2018-06-29 09:11:36.625000,-76.11,79.73
51349,2018-06-29 09:11:36.656250,-73.1,79.73
51350,2018-06-29 09:11:36.687500,-58.03,79.73
51351,2018-06-29 09:11:36.718750,-39.05,79.73
51352,2018-06-29 09:11:36.750000,-26.31,79.73
51353,2018-06-29 09:11:36.781250,-18.06,79.73
51354,2018-06-29 09:11:36.812500,-4.95,79.73
51355,2018-06-29 09:11:36.843750,14.68,79.73
51356,2018-06-29 09:11:36.875000,30.91,79.73
51357,2018-06-29 09:11:36.906250,33.8,79.73
51358,2018-06-29 09:11:36.937500,26.06,79.73
51359,2018-06-29 09:11:36.968750,19.99,79.73
51360,2018-06-29 09:11:37.000000,22.49,79.73
51361,2018-06-29 09:11:37.031250,25.73,79.73
51362,2018-06-29 09:11:37.062500,17.14,79.73
51363,2018-06-29 09:11:37.093750,-2.94,79.73
51364,2018-06-29 09:11:37.125000,-22.49,79.73
51365,2018-06-29 09:11:37.156250,-32.3,79.73
51366,2018-06-29 09:11:37.187500,-32.68,79.73
51367,2018-06-29 09:11:37.218750,-28.59,79.73
51368,2018-06-29 09:11:37.250000,-26.67,79.73
51369,2018-06-29 09:11:37.281250,-31.05,79.73
51370,2018-06-29 09:11:37.312500,-38.22,79.73
51371,2018-06-29 09:11:37.343750,-42.24,79.73
51372,2018-06-29 09:11:37.375000,-40.8,79.73
51373,2018-06-29 09:11:37.406250,-35.44,79.73
51374,2018-06-29 09:11:37.437500,-29.62,79.73
51375,2018-06-29 09:11:37.468750,-25.77,79.73
51376,2018-06-29 09:11:37.500000,-22.38,79.73
51377,2018-06-29 09:11:37.531250,-17.45,79.68
51378,2018-06-29 09:11:37.562500,-13.51,79.68
51379,2018-06-29 09:11:37.593750,-15.56,79.68
51380,2018-06-29 09:11:37.625000,-22.44,79.68
51381,2018-06-29 09:11:37.656250,-24.54,79.68
51382,2018-06-29 09:11:37.687500,-13.95,79.68
51383,2018-06-29 09:11:37.718750,5.15,79.68
51384,2018-06-29 09:11:37.750000,20.88,79.68
51385,2018-06-29 09:11:37.781250,26.95,79.68
51386,2018-06-29 09:11:37.812500,27.46,79.68
51387,2018-06-29 09:11:37.843750,31.05,79.68
51388,2018-06-29 09:11:37.875000,42.24,79.68
51389,2018-06-29 09:11:37.906250,56.27,79.68
51390,2018-06-29 09:11:37.937500,64.79,79.68
51391,2018-06-29 09:11:37.968750,69.32,79.68
51392,2018-06-29 09:11:38.000000,82.66,79.68
51393,2018-06-29 09:11:38.031250,112.54,79.68
51394,2018-06-29 09:11:38.062500,152.39,79.68
51395,2018-06-29 09:11:38.093750,190.14,79.68
51396,2018-06-29 09:11:38.125000,216.68,79.68
51397,2018-06-29 09:11:38.156250,225.44,79.68
51398,2018-06-29 09:11:38.187500,213.27,79.68
51399,2018-06-29 09:11:38.218750,182.82,79.68
51400,2018-06-29 09:11:38.250000,138.1,79.68
51401,2018-06-29 09:11:38.281250,82.09,79.68
51402,2018-06-29 09:11:38.312500,21.08,79.68
51403,2018-06-29 09:11:38.343750,-33.12,79.68
51404,2018-06-29 09:11:38.375000,-74.37,79.68
51405,2018-06-29 09:11:38.406250,-107.79,79.68
51406,2018-06-29 09:11:38.437500,-137.59,79.68
51407,2018-06-29 09:11:38.468750,-157.3,79.68
51408,2018-06-29 09:11:38.500000,-158.93,79.68
51409,2018-06-29 09:11:38.531250,-150.36,79.63
51410,2018-06-29 09:11:38.562500,-143.7,79.63
51411,2018-06-29 09:11:38.593750,-140.01,79.63
51412,2018-06-29 09:11:38.625000,-129.05,79.63
51413,2018-06-29 09:11:38.656250,-109.14,79.63
51414,2018-06-29 09:11:38.687500,-89.04,79.63
51415,2018-06-29 09:11:38.718750,-72.14,79.63
51416,2018-06-29 09:11:38.750000,-54.87,79.63
51417,2018-06-29 09:11:38.781250,-26.05,79.63
51418,2018-06-29 09:11:38.812500,22.39,79.63
51419,2018-06-29 09:11:38.843750,86.22,79.63
51420,2018-06-29 09:11:38.875000,119.92,79.63
51421,2018-06-29 09:11:38.906250,88.85,79.63
51422,2018-06-29 09:11:38.937500,57.95,79.63
51423,2018-06-29 09:11:38.968750,62.63,79.63
51424,2018-06-29 09:11:39.000000,79.0,79.63
51425,2018-06-29 09:11:39.031250,99.6,79.63
51426,2018-06-29 09:11:39.062500,132.19,79.63
51427,2018-06-29 09:11:39.093750,144.28,79.63
51428,2018-06-29 09:11:39.125000,107.37,79.63
51429,2018-06-29 09:11:39.156250,50.66,79.63
51430,2018-06-29 09:11:39.187500,15.87,79.63
51431,2018-06-29 09:11:39.218750,12.62,79.63
51432,2018-06-29 09:11:39.250000,17.23,79.63
51433,2018-06-29 09:11:39.281250,12.2,79.63
51434,2018-06-29 09:11:39.312500,-4.75,79.63
51435,2018-06-29 09:11:39.343750,-24.06,79.63
51436,2018-06-29 09:11:39.375000,-34.36,79.63
51437,2018-06-29 09:11:39.406250,-34.58,79.63
51438,2018-06-29 09:11:39.437500,-38.05,79.63
51439,2018-06-29 09:11:39.468750,-69.07,79.63
51440,2018-06-29 09:11:39.500000,-109.44,79.63
51441,2018-06-29 09:11:39.531250,-81.52,79.53
51442,2018-06-29 09:11:39.562500,50.18,79.53
51443,2018-06-29 09:11:39.593750,196.44,79.53
51444,2018-06-29 09:11:39.625000,235.29,79.53
51445,2018-06-29 09:11:39.656250,141.64,79.53
51446,2018-06-29 09:11:39.687500,-13.32,79.53
51447,2018-06-29 09:11:39.718750,-143.59,79.53
51448,2018-06-29 09:11:39.750000,-198.95,79.53
51449,2018-06-29 09:11:39.781250,-175.08,79.53
51450,2018-06-29 09:11:39.812500,-109.14,79.53
51451,2018-06-29 09:11:39.843750,-43.68,79.53
51452,2018-06-29 09:11:39.875000,2.33,79.53
51453,2018-06-29 09:11:39.906250,30.84,79.53
51454,2018-06-29 09:11:39.937500,43.74,79.53
51455,2018-06-29 09:11:39.968750,40.78,79.53
51456,2018-06-29 09:11:40.000000,17.16,79.53
51457,2018-06-29 09:11:40.031250,-28.92,79.53
51458,2018-06-29 09:11:40.062500,-85.0,79.53
51459,2018-06-29 09:11:40.093750,-136.62,79.53
51460,2018-06-29 09:11:40.125000,-179.75,79.53
51461,2018-06-29 09:11:40.156250,-226.84,79.53
51462,2018-06-29 09:11:40.187500,-271.68,79.53
51463,2018-06-29 09:11:40.218750,-299.33,79.53
51464,2018-06-29 09:11:40.250000,-303.76,79.53
51465,2018-06-29 09:11:40.281250,-291.0,79.53
51466,2018-06-29 09:11:40.312500,-255.26,79.53
51467,2018-06-29 09:11:40.343750,-190.97,79.53
51468,2018-06-29 09:11:40.375000,-132.23,79.53
51469,2018-06-29 09:11:40.406250,-53.37,79.53
51470,2018-06-29 09:11:40.437500,55.66,79.53
51471,2018-06-29 09:11:40.468750,142.85,79.53
51472,2018-06-29 09:11:40.500000,195.75,79.53
51473,2018-06-29 09:11:40.531250,223.58,79.43
51474,2018-06-29 09:11:40.562500,229.25,79.43
51475,2018-06-29 09:11:40.593750,210.16,79.43
51476,2018-06-29 09:11:40.625000,169.45,79.43
51477,2018-06-29 09:11:40.656250,127.35,79.43
51478,2018-06-29 09:11:40.687500,120.81,79.43
51479,2018-06-29 09:11:40.718750,150.14,79.43
51480,2018-06-29 09:11:40.750000,172.46,79.43
51481,2018-06-29 09:11:40.781250,152.55,79.43
51482,2018-06-29 09:11:40.812500,109.78,79.43
51483,2018-06-29 09:11:40.843750,58.13,79.43
51484,2018-06-29 09:11:40.875000,-5.25,79.43
51485,2018-06-29 09:11:40.906250,-56.8,79.43
51486,2018-06-29 09:11:40.937500,-70.99,79.43
51487,2018-06-29 09:11:40.968750,-56.64,79.43
51488,2018-06-29 09:11:41.000000,-39.0,79.43
51489,2018-06-29 09:11:41.031250,-18.69,79.43
51490,2018-06-29 09:11:41.062500,7.96,79.43
51491,2018-06-29 09:11:41.093750,38.43,79.43
51492,2018-06-29 09:11:41.125000,64.09,79.43
51493,2018-06-29 09:11:41.156250,76.41,79.43
51494,2018-06-29 09:11:41.187500,72.95,79.43
51495,2018-06-29 09:11:41.218750,59.53,79.43
51496,2018-06-29 09:11:41.250000,44.21,79.43
51497,2018-06-29 09:11:41.281250,33.27,79.43
51498,2018-06-29 09:11:41.312500,27.27,79.43
51499,2018-06-29 09:11:41.343750,21.45,79.43
51500,2018-06-29 09:11:41.375000,17.6,79.43
51501,2018-06-29 09:11:41.406250,18.18,79.43
51502,2018-06-29 09:11:41.437500,20.2,79.43
51503,2018-06-29 09:11:41.468750,20.2,79.43
51504,2018-06-29 09:11:41.500000,20.6,79.43
51505,2018-06-29 09:11:41.531250,23.57,79.37
51506,2018-06-29 09:11:41.562500,24.54,79.37
51507,2018-06-29 09:11:41.593750,14.2,79.37
51508,2018-06-29 09:11:41.625000,-14.07,79.37
51509,2018-06-29 09:11:41.656250,-53.47,79.37
51510,2018-06-29 09:11:41.687500,-82.6,79.37
51511,2018-06-29 09:11:41.718750,-83.79,79.37
51512,2018-06-29 09:11:41.750000,-64.85,79.37
51513,2018-06-29 09:11:41.781250,-46.73,79.37
51514,2018-06-29 09:11:41.812500,-34.15,79.37
51515,2018-06-29 09:11:41.843750,-17.01,79.37
51516,2018-06-29 09:11:41.875000,5.07,79.37
51517,2018-06-29 09:11:41.906250,21.63,79.37
51518,2018-06-29 09:11:41.937500,29.31,79.37
51519,2018-06-29 09:11:41.968750,32.85,79.37
51520,2018-06-29 09:11:42.000000,33.9,79.37
51521,2018-06-29 09:11:42.031250,31.1,79.37
51522,2018-06-29 09:11:42.062500,26.1,79.37
51523,2018-06-29 09:11:42.093750,21.41,79.37
51524,2018-06-29 09:11:42.125000,16.58,79.37
51525,2018-06-29 09:11:42.156250,10.73,79.37
51526,2018-06-29 09:11:42.187500,5.47,79.37
51527,2018-06-29 09:11:42.218750,2.75,79.37
51528,2018-06-29 09:11:42.250000,1.69,79.37
51529,2018-06-29 09:11:42.281250,-1.13,79.37
51530,2018-06-29 09:11:42.312500,-7.32,79.37
51531,2018-06-29 09:11:42.343750,-14.2,79.37
51532,2018-06-29 09:11:42.375000,-18.4,79.37
51533,2018-06-29 09:11:42.406250,-20.92,79.37
51534,2018-06-29 09:11:42.437500,-24.43,79.37
51535,2018-06-29 09:11:42.468750,-30.03,79.37
51536,2018-06-29 09:11:42.500000,-39.22,79.37
51537,2018-06-29 09:11:42.531250,-54.64,79.27
51538,2018-06-29 09:11:42.562500,-76.95,79.27
51539,2018-06-29 09:11:42.593750,-100.92,79.27
51540,2018-06-29 09:11:42.625000,-113.61,79.27
51541,2018-06-29 09:11:42.656250,-103.28,79.27
51542,2018-06-29 09:11:42.687500,-76.23,79.27
51543,2018-06-29 09:11:42.718750,-50.77,79.27
51544,2018-06-29 09:11:42.750000,-34.98,79.27
51545,2018-06-29 09:11:42.781250,-22.5,79.27
51546,2018-06-29 09:11:42.812500,-12.14,79.27
51547,2018-06-29 09:11:42.843750,-11.4,79.27
51548,2018-06-29 09:11:42.875000,-20.4,79.27
51549,2018-06-29 09:11:42.906250,-31.52,79.27
51550,2018-06-29 09:11:42.937500,-37.8,79.27
51551,2018-06-29 09:11:42.968750,-44.67,79.27
51552,2018-06-29 09:11:43.000000,-57.07,79.27
51553,2018-06-29 09:11:43.031250,-74.36,79.27
51554,2018-06-29 09:11:43.062500,-89.53,79.27
51555,2018-06-29 09:11:43.093750,-100.19,79.27
51556,2018-06-29 09:11:43.125000,-110.39,79.27
51557,2018-06-29 09:11:43.156250,-118.5,79.27
51558,2018-06-29 09:11:43.187500,-119.62,79.27
51559,2018-06-29 09:11:43.218750,-98.52,79.27
51560,2018-06-29 09:11:43.250000,-51.93,79.27
51561,2018-06-29 09:11:43.281250,9.81,79.27
51562,2018-06-29 09:11:43.312500,77.86,79.27
51563,2018-06-29 09:11:43.343750,119.05,79.27
51564,2018-06-29 09:11:43.375000,158.61,79.27
51565,2018-06-29 09:11:43.406250,193.16,79.27
51566,2018-06-29 09:11:43.437500,194.85,79.27
51567,2018-06-29 09:11:43.468750,173.65,79.27
51568,2018-06-29 09:11:43.500000,158.86,79.27
51569,2018-06-29 09:11:43.531250,144.04,79.28
51570,2018-06-29 09:11:43.562500,115.25,79.28
51571,2018-06-29 09:11:43.593750,75.37,79.28
51572,2018-06-29 09:11:43.625000,44.54,79.28
51573,2018-06-29 09:11:43.656250,39.41,79.28
51574,2018-06-29 09:11:43.687500,56.3,79.28
51575,2018-06-29 09:11:43.718750,65.68,79.28
51576,2018-06-29 09:11:43.750000,49.07,79.28
51577,2018-06-29 09:11:43.781250,27.3,79.28
51578,2018-06-29 09:11:43.812500,19.41,79.28
51579,2018-06-29 09:11:43.843750,20.82,79.28
51580,2018-06-29 09:11:43.875000,28.49,79.28
51581,2018-06-29 09:11:43.906250,46.51,79.28
51582,2018-06-29 09:11:43.937500,58.04,79.28
51583,2018-06-29 09:11:43.968750,40.87,79.28
51584,2018-06-29 09:11:44.000000,-1.29,79.28
51585,2018-06-29 09:11:44.031250,-39.88,79.28
51586,2018-06-29 09:11:44.062500,-55.33,79.28
51587,2018-06-29 09:11:44.093750,-57.23,79.28
51588,2018-06-29 09:11:44.125000,-58.14,79.28
51589,2018-06-29 09:11:44.156250,-62.83,79.28
51590,2018-06-29 09:11:44.187500,-64.67,79.28
51591,2018-06-29 09:11:44.218750,-64.55,79.28
51592,2018-06-29 09:11:44.250000,-72.28,79.28
51593,2018-06-29 09:11:44.281250,-82.36,79.28
51594,2018-06-29 09:11:44.312500,-90.02,79.28
51595,2018-06-29 09:11:44.343750,-89.85,79.28
51596,2018-06-29 09:11:44.375000,-79.35,79.28
51597,2018-06-29 09:11:44.406250,-61.16,79.28
51598,2018-06-29 09:11:44.437500,-42.53,79.28
51599,2018-06-29 09:11:44.468750,-24.0,79.28
51600,2018-06-29 09:11:44.500000,-0.62,79.28
51601,2018-06-29 09:11:44.531250,26.2,79.28
51602,2018-06-29 09:11:44.562500,44.86,79.28
51603,2018-06-29 09:11:44.593750,52.75,79.28
51604,2018-06-29 09:11:44.625000,61.7,79.28
51605,2018-06-29 09:11:44.656250,78.94,79.28
51606,2018-06-29 09:11:44.687500,97.56,79.28
51607,2018-06-29 09:11:44.718750,108.99,79.28
51608,2018-06-29 09:11:44.750000,116.57,79.28
51609,2018-06-29 09:11:44.781250,130.84,79.28
51610,2018-06-29 09:11:44.812500,158.57,79.28
51611,2018-06-29 09:11:44.843750,192.52,79.28
51612,2018-06-29 09:11:44.875000,210.34,79.28
51613,2018-06-29 09:11:44.906250,194.35,79.28
51614,2018-06-29 09:11:44.937500,155.44,79.28
51615,2018-06-29 09:11:44.968750,119.09,79.28
51616,2018-06-29 09:11:45.000000,88.69,79.28
51617,2018-06-29 09:11:45.031250,48.1,79.28
51618,2018-06-29 09:11:45.062500,-2.1,79.28
51619,2018-06-29 09:11:45.093750,-40.71,79.28
51620,2018-06-29 09:11:45.125000,-56.39,79.28
51621,2018-06-29 09:11:45.156250,-57.77,79.28
51622,2018-06-29 09:11:45.187500,-56.86,79.28
51623,2018-06-29 09:11:45.218750,-61.69,79.28
51624,2018-06-29 09:11:45.250000,-79.8,79.28
51625,2018-06-29 09:11:45.281250,-112.14,79.28
51626,2018-06-29 09:11:45.312500,-143.5,79.28
51627,2018-06-29 09:11:45.343750,-152.64,79.28
51628,2018-06-29 09:11:45.375000,-138.33,79.28
51629,2018-06-29 09:11:45.406250,-125.98,79.28
51630,2018-06-29 09:11:45.437500,-138.81,79.28
51631,2018-06-29 09:11:45.468750,-168.57,79.28
51632,2018-06-29 09:11:45.500000,-187.25,79.28
51633,2018-06-29 09:11:45.531250,-180.64,79.23
51634,2018-06-29 09:11:45.562500,-155.6,79.23
51635,2018-06-29 09:11:45.593750,-120.92,79.23
51636,2018-06-29 09:11:45.625000,-81.28,79.23
51637,2018-06-29 09:11:45.656250,-46.94,79.23
51638,2018-06-29 09:11:45.687500,-29.88,79.23
51639,2018-06-29 09:11:45.718750,-28.89,79.23
51640,2018-06-29 09:11:45.750000,-31.96,79.23
51641,2018-06-29 09:11:45.781250,-32.62,79.23
51642,2018-06-29 09:11:45.812500,-34.67,79.23
51643,2018-06-29 09:11:45.843750,-42.75,79.23
51644,2018-06-29 09:11:45.875000,-54.41,79.23
51645,2018-06-29 09:11:45.906250,-62.57,79.23
51646,2018-06-29 09:11:45.937500,-63.06,79.23
51647,2018-06-29 09:11:45.968750,-54.99,79.23
51648,2018-06-29 09:11:46.000000,-39.21,79.23
51649,2018-06-29 09:11:46.031250,-25.36,79.23
51650,2018-06-29 09:11:46.062500,-24.1,79.23
51651,2018-06-29 09:11:46.093750,-25.58,79.23
51652,2018-06-29 09:11:46.125000,-11.09,79.23
51653,2018-06-29 09:11:46.156250,16.05,79.23
51654,2018-06-29 09:11:46.187500,41.1,79.23
51655,2018-06-29 09:11:46.218750,65.81,79.23
51656,2018-06-29 09:11:46.250000,94.17,79.23
51657,2018-06-29 09:11:46.281250,110.57,79.23
51658,2018-06-29 09:11:46.312500,100.4,79.23
51659,2018-06-29 09:11:46.343750,72.68,79.23
51660,2018-06-29 09:11:46.375000,43.98,79.23
51661,2018-06-29 09:11:46.406250,16.6,79.23
51662,2018-06-29 09:11:46.437500,-12.74,79.23
51663,2018-06-29 09:11:46.468750,-36.9,79.23
51664,2018-06-29 09:11:46.500000,-47.77,79.23
51665,2018-06-29 09:11:46.531250,-52.43,79.33
51666,2018-06-29 09:11:46.562500,-62.93,79.33
51667,2018-06-29 09:11:46.593750,-75.34,79.33
51668,2018-06-29 09:11:46.625000,-72.87,79.33
51669,2018-06-29 09:11:46.656250,-45.7,79.33
51670,2018-06-29 09:11:46.687500,-7.45,79.33
51671,2018-06-29 09:11:46.718750,10.26,79.33
51672,2018-06-29 09:11:46.750000,-14.02,79.33
51673,2018-06-29 09:11:46.781250,-63.75,79.33
51674,2018-06-29 09:11:46.812500,-97.92,79.33
51675,2018-06-29 09:11:46.843750,-92.77,79.33
51676,2018-06-29 09:11:46.875000,-55.3,79.33
51677,2018-06-29 09:11:46.906250,-5.37,79.33
51678,2018-06-29 09:11:46.937500,44.79,79.33
51679,2018-06-29 09:11:46.968750,84.13,79.33
51680,2018-06-29 09:11:47.000000,108.02,79.33
51681,2018-06-29 09:11:47.031250,121.83,79.33
51682,2018-06-29 09:11:47.062500,137.4,79.33
51683,2018-06-29 09:11:47.093750,155.37,79.33
51684,2018-06-29 09:11:47.125000,161.6,79.33
51685,2018-06-29 09:11:47.156250,157.49,79.33
51686,2018-06-29 09:11:47.187500,156.11,79.33
51687,2018-06-29 09:11:47.218750,169.07,79.33
51688,2018-06-29 09:11:47.250000,173.85,79.33
51689,2018-06-29 09:11:47.281250,157.95,79.33
51690,2018-06-29 09:11:47.312500,143.09,79.33
51691,2018-06-29 09:11:47.343750,161.79,79.33
51692,2018-06-29 09:11:47.375000,212.35,79.33
51693,2018-06-29 09:11:47.406250,252.9,79.33
51694,2018-06-29 09:11:47.437500,269.46,79.33
51695,2018-06-29 09:11:47.468750,199.95,79.33
51696,2018-06-29 09:11:47.500000,52.12,79.33
51697,2018-06-29 09:11:47.531250,-56.3,79.42
51698,2018-06-29 09:11:47.562500,-123.89,79.42
51699,2018-06-29 09:11:47.593750,-169.64,79.42
51700,2018-06-29 09:11:47.625000,-164.8,79.42
51701,2018-06-29 09:11:47.656250,-109.44,79.42
51702,2018-06-29 09:11:47.687500,-59.6,79.42
51703,2018-06-29 09:11:47.718750,-40.35,79.42
51704,2018-06-29 09:11:47.750000,-35.22,79.42
51705,2018-06-29 09:11:47.781250,-22.77,79.42
51706,2018-06-29 09:11:47.812500,-20.0,79.42
51707,2018-06-29 09:11:47.843750,-36.55,79.42
51708,2018-06-29 09:11:47.875000,-55.47,79.42
51709,2018-06-29 09:11:47.906250,-57.72,79.42
51710,2018-06-29 09:11:47.937500,-38.1,79.42
51711,2018-06-29 09:11:47.968750,-13.4,79.42
51712,2018-06-29 09:11:48.000000,-6.54,79.42
51713,2018-06-29 09:11:48.031250,-26.16,79.42
51714,2018-06-29 09:11:48.062500,-45.44,79.42
51715,2018-06-29 09:11:48.093750,-40.07,79.42
51716,2018-06-29 09:11:48.125000,-22.51,79.42
51717,2018-06-29 09:11:48.156250,-14.98,79.42
51718,2018-06-29 09:11:48.187500,-18.5,79.42
51719,2018-06-29 09:11:48.218750,-28.93,79.42
51720,2018-06-29 09:11:48.250000,-48.02,79.42
51721,2018-06-29 09:11:48.281250,-68.13,79.42
51722,2018-06-29 09:11:48.312500,-77.23,79.42
51723,2018-06-29 09:11:48.343750,-74.7,79.42
51724,2018-06-29 09:11:48.375000,-69.33,79.42
51725,2018-06-29 09:11:48.406250,-67.48,79.42
51726,2018-06-29 09:11:48.437500,-67.31,79.42
51727,2018-06-29 09:11:48.468750,-62.45,79.42
51728,2018-06-29 09:11:48.500000,-48.17,79.42
51729,2018-06-29 09:11:48.531250,-30.67,79.53
51730,2018-06-29 09:11:48.562500,-17.07,79.53
51731,2018-06-29 09:11:48.593750,-5.89,79.53
51732,2018-06-29 09:11:48.625000,6.9,79.53
51733,2018-06-29 09:11:48.656250,17.46,79.53
51734,2018-06-29 09:11:48.687500,18.46,79.53
51735,2018-06-29 09:11:48.718750,10.23,79.53
51736,2018-06-29 09:11:48.750000,2.86,79.53
51737,2018-06-29 09:11:48.781250,4.27,79.53
51738,2018-06-29 09:11:48.812500,9.02,79.53
51739,2018-06-29 09:11:48.843750,6.44,79.53
51740,2018-06-29 09:11:48.875000,-5.91,79.53
51741,2018-06-29 09:11:48.906250,-18.11,79.53
51742,2018-06-29 09:11:48.937500,-21.9,79.53
51743,2018-06-29 09:11:48.968750,-18.91,79.53
51744,2018-06-29 09:11:49.000000,-17.52,79.53
51745,2018-06-29 09:11:49.031250,-19.96,79.53
51746,2018-06-29 09:11:49.062500,-10.99,79.53
51747,2018-06-29 09:11:49.093750,29.87,79.53
51748,2018-06-29 09:11:49.125000,98.28,79.53
51749,2018-06-29 09:11:49.156250,149.43,79.53
51750,2018-06-29 09:11:49.187500,144.62,79.53
51751,2018-06-29 09:11:49.218750,102.34,79.53
51752,2018-06-29 09:11:49.250000,68.47,79.53
51753,2018-06-29 09:11:49.281250,55.31,79.53
51754,2018-06-29 09:11:49.312500,32.91,79.53
51755,2018-06-29 09:11:49.343750,0.88,79.53
51756,2018-06-29 09:11:49.375000,-19.42,79.53
51757,2018-06-29 09:11:49.406250,-21.29,79.53
51758,2018-06-29 09:11:49.437500,-16.6,79.53
51759,2018-06-29 09:11:49.468750,-13.52,79.53
51760,2018-06-29 09:11:49.500000,-11.96,79.53
51761,2018-06-29 09:11:49.531250,-11.46,79.68
51762,2018-06-29 09:11:49.562500,-15.03,79.68
51763,2018-06-29 09:11:49.593750,-22.42,79.68
51764,2018-06-29 09:11:49.625000,-31.85,79.68
51765,2018-06-29 09:11:49.656250,-52.03,79.68
51766,2018-06-29 09:11:49.687500,-79.89,79.68
51767,2018-06-29 09:11:49.718750,-83.54,79.68
51768,2018-06-29 09:11:49.750000,-38.71,79.68
51769,2018-06-29 09:11:49.781250,23.48,79.68
51770,2018-06-29 09:11:49.812500,40.56,79.68
51771,2018-06-29 09:11:49.843750,15.8,79.68
51772,2018-06-29 09:11:49.875000,-11.25,79.68
51773,2018-06-29 09:11:49.906250,-26.83,79.68
51774,2018-06-29 09:11:49.937500,-34.52,79.68
51775,2018-06-29 09:11:49.968750,-30.5,79.68
51776,2018-06-29 09:11:50.000000,-26.22,79.68
51777,2018-06-29 09:11:50.031250,-37.33,79.68
51778,2018-06-29 09:11:50.062500,-46.67,79.68
51779,2018-06-29 09:11:50.093750,-26.76,79.68
51780,2018-06-29 09:11:50.125000,14.95,79.68
51781,2018-06-29 09:11:50.156250,49.61,79.68
51782,2018-06-29 09:11:50.187500,76.85,79.68
51783,2018-06-29 09:11:50.218750,102.01,79.68
51784,2018-06-29 09:11:50.250000,114.2,79.68
51785,2018-06-29 09:11:50.281250,107.81,79.68
51786,2018-06-29 09:11:50.312500,78.56,79.68
51787,2018-06-29 09:11:50.343750,34.17,79.68
51788,2018-06-29 09:11:50.375000,-21.04,79.68
51789,2018-06-29 09:11:50.406250,-76.17,79.68
51790,2018-06-29 09:11:50.437500,-117.13,79.68
51791,2018-06-29 09:11:50.468750,-133.83,79.68
51792,2018-06-29 09:11:50.500000,-128.33,79.68
51793,2018-06-29 09:11:50.531250,-109.23,79.8
51794,2018-06-29 09:11:50.562500,-85.23,79.8
51795,2018-06-29 09:11:50.593750,-60.54,79.8
51796,2018-06-29 09:11:50.625000,-35.82,79.8
51797,2018-06-29 09:11:50.656250,-18.65,79.8
51798,2018-06-29 09:11:50.687500,-9.79,79.8
51799,2018-06-29 09:11:50.718750,-4.6,79.8
51800,2018-06-29 09:11:50.750000,0.57,79.8
51801,2018-06-29 09:11:50.781250,0.7,79.8
51802,2018-06-29 09:11:50.812500,-3.28,79.8
51803,2018-06-29 09:11:50.843750,-2.07,79.8
51804,2018-06-29 09:11:50.875000,11.41,79.8
51805,2018-06-29 09:11:50.906250,27.19,79.8
51806,2018-06-29 09:11:50.937500,33.56,79.8
51807,2018-06-29 09:11:50.968750,34.38,79.8
51808,2018-06-29 09:11:51.000000,38.16,79.8
51809,2018-06-29 09:11:51.031250,44.81,79.8
51810,2018-06-29 09:11:51.062500,42.02,79.8
51811,2018-06-29 09:11:51.093750,29.59,79.8
51812,2018-06-29 09:11:51.125000,20.74,79.8
51813,2018-06-29 09:11:51.156250,34.38,79.8
51814,2018-06-29 09:11:51.187500,67.02,79.8
51815,2018-06-29 09:11:51.218750,101.55,79.8
51816,2018-06-29 09:11:51.250000,127.18,79.8
51817,2018-06-29 09:11:51.281250,107.02,79.8
51818,2018-06-29 09:11:51.312500,82.25,79.8
51819,2018-06-29 09:11:51.343750,93.03,79.8
51820,2018-06-29 09:11:51.375000,107.08,79.8
51821,2018-06-29 09:11:51.406250,101.39,79.8
51822,2018-06-29 09:11:51.437500,85.95,79.8
51823,2018-06-29 09:11:51.468750,73.02,79.8
51824,2018-06-29 09:11:51.500000,53.78,79.8
51825,2018-06-29 09:11:51.531250,19.28,79.93
51826,2018-06-29 09:11:51.562500,-42.75,79.93
51827,2018-06-29 09:11:51.593750,-95.41,79.93
51828,2018-06-29 09:11:51.625000,-110.71,79.93
51829,2018-06-29 09:11:51.656250,-114.25,79.93
51830,2018-06-29 09:11:51.687500,-125.95,79.93
51831,2018-06-29 09:11:51.718750,-139.41,79.93
51832,2018-06-29 09:11:51.750000,-147.92,79.93
51833,2018-06-29 09:11:51.781250,-154.0,79.93
51834,2018-06-29 09:11:51.812500,-153.17,79.93
51835,2018-06-29 09:11:51.843750,-138.43,79.93
51836,2018-06-29 09:11:51.875000,-105.85,79.93
51837,2018-06-29 09:11:51.906250,-66.5,79.93
51838,2018-06-29 09:11:51.937500,-21.83,79.93
51839,2018-06-29 09:11:51.968750,31.78,79.93
51840,2018-06-29 09:11:52.000000,73.48,79.93
51841,2018-06-29 09:11:52.031250,93.39,79.93
51842,2018-06-29 09:11:52.062500,93.42,79.93
51843,2018-06-29 09:11:52.093750,84.25,79.93
51844,2018-06-29 09:11:52.125000,72.96,79.93
51845,2018-06-29 09:11:52.156250,63.3,79.93
51846,2018-06-29 09:11:52.187500,52.81,79.93
51847,2018-06-29 09:11:52.218750,39.11,79.93
51848,2018-06-29 09:11:52.250000,28.77,79.93
51849,2018-06-29 09:11:52.281250,28.66,79.93
51850,2018-06-29 09:11:52.312500,31.84,79.93
51851,2018-06-29 09:11:52.343750,21.36,79.93
51852,2018-06-29 09:11:52.375000,-6.14,79.93
51853,2018-06-29 09:11:52.406250,-29.97,79.93
51854,2018-06-29 09:11:52.437500,-14.24,79.93
51855,2018-06-29 09:11:52.468750,37.31,79.93
51856,2018-06-29 09:11:52.500000,78.54,79.93
51857,2018-06-29 09:11:52.531250,80.28,80.07
51858,2018-06-29 09:11:52.562500,60.98,80.07
51859,2018-06-29 09:11:52.593750,45.53,80.07
51860,2018-06-29 09:11:52.625000,41.71,80.07
51861,2018-06-29 09:11:52.656250,53.82,80.07
51862,2018-06-29 09:11:52.687500,72.22,80.07
51863,2018-06-29 09:11:52.718750,66.14,80.07
51864,2018-06-29 09:11:52.750000,22.74,80.07
51865,2018-06-29 09:11:52.781250,-28.31,80.07
51866,2018-06-29 09:11:52.812500,-49.83,80.07
51867,2018-06-29 09:11:52.843750,-31.72,80.07
51868,2018-06-29 09:11:52.875000,9.95,80.07
51869,2018-06-29 09:11:52.906250,46.38,80.07
51870,2018-06-29 09:11:52.937500,51.35,80.07
51871,2018-06-29 09:11:52.968750,18.91,80.07
51872,2018-06-29 09:11:53.000000,-31.88,80.07
51873,2018-06-29 09:11:53.031250,-74.16,80.07
51874,2018-06-29 09:11:53.062500,-92.42,80.07
51875,2018-06-29 09:11:53.093750,-86.37,80.07
51876,2018-06-29 09:11:53.125000,-65.89,80.07
51877,2018-06-29 09:11:53.156250,-45.91,80.07
51878,2018-06-29 09:11:53.187500,-37.78,80.07
51879,2018-06-29 09:11:53.218750,-39.42,80.07
51880,2018-06-29 09:11:53.250000,-38.73,80.07
51881,2018-06-29 09:11:53.281250,-28.6,80.07
51882,2018-06-29 09:11:53.312500,-15.22,80.07
51883,2018-06-29 09:11:53.343750,-9.27,80.07
51884,2018-06-29 09:11:53.375000,-10.49,80.07
51885,2018-06-29 09:11:53.406250,-7.88,80.07
51886,2018-06-29 09:11:53.437500,3.34,80.07
51887,2018-06-29 09:11:53.468750,13.65,80.07
51888,2018-06-29 09:11:53.500000,11.32,80.07
51889,2018-06-29 09:11:53.531250,-3.04,80.3
51890,2018-06-29 09:11:53.562500,-14.8,80.3
51891,2018-06-29 09:11:53.593750,-4.38,80.3
51892,2018-06-29 09:11:53.625000,33.99,80.3
51893,2018-06-29 09:11:53.656250,77.41,80.3
51894,2018-06-29 09:11:53.687500,95.55,80.3
51895,2018-06-29 09:11:53.718750,88.08,80.3
51896,2018-06-29 09:11:53.750000,78.97,80.3
51897,2018-06-29 09:11:53.781250,83.86,80.3
51898,2018-06-29 09:11:53.812500,100.32,80.3
51899,2018-06-29 09:11:53.843750,115.31,80.3
51900,2018-06-29 09:11:53.875000,110.34,80.3
51901,2018-06-29 09:11:53.906250,76.54,80.3
51902,2018-06-29 09:11:53.937500,22.37,80.3
51903,2018-06-29 09:11:53.968750,-38.34,80.3
51904,2018-06-29 09:11:54.000000,-86.68,80.3
51905,2018-06-29 09:11:54.031250,-102.56,80.3
51906,2018-06-29 09:11:54.062500,-92.08,80.3
51907,2018-06-29 09:11:54.093750,-97.54,80.3
51908,2018-06-29 09:11:54.125000,-141.19,80.3
51909,2018-06-29 09:11:54.156250,-199.77,80.3
51910,2018-06-29 09:11:54.187500,-244.94,80.3
51911,2018-06-29 09:11:54.218750,-273.35,80.3
51912,2018-06-29 09:11:54.250000,-289.57,80.3
51913,2018-06-29 09:11:54.281250,-290.89,80.3
51914,2018-06-29 09:11:54.312500,-285.88,80.3
51915,2018-06-29 09:11:54.343750,-272.33,80.3
51916,2018-06-29 09:11:54.375000,-237.75,80.3
51917,2018-06-29 09:11:54.406250,-173.0,80.3
51918,2018-06-29 09:11:54.437500,-94.79,80.3
51919,2018-06-29 09:11:54.468750,-28.26,80.3
51920,2018-06-29 09:11:54.500000,18.94,80.3
51921,2018-06-29 09:11:54.531250,50.28,80.47
51922,2018-06-29 09:11:54.562500,119.61,80.47
51923,2018-06-29 09:11:54.593750,204.91,80.47
51924,2018-06-29 09:11:54.625000,234.7,80.47
51925,2018-06-29 09:11:54.656250,225.61,80.47
51926,2018-06-29 09:11:54.687500,208.8,80.47
51927,2018-06-29 09:11:54.718750,175.95,80.47
51928,2018-06-29 09:11:54.750000,115.77,80.47
51929,2018-06-29 09:11:54.781250,54.23,80.47
51930,2018-06-29 09:11:54.812500,16.6,80.47
51931,2018-06-29 09:11:54.843750,-0.45,80.47
51932,2018-06-29 09:11:54.875000,-9.29,80.47
51933,2018-06-29 09:11:54.906250,-1.05,80.47
51934,2018-06-29 09:11:54.937500,26.09,80.47
51935,2018-06-29 09:11:54.968750,50.24,80.47
51936,2018-06-29 09:11:55.000000,50.37,80.47
51937,2018-06-29 09:11:55.031250,34.29,80.47
51938,2018-06-29 09:11:55.062500,22.55,80.47
51939,2018-06-29 09:11:55.093750,25.07,80.47
51940,2018-06-29 09:11:55.125000,36.39,80.47
51941,2018-06-29 09:11:55.156250,38.02,80.47
51942,2018-06-29 09:11:55.187500,22.93,80.47
51943,2018-06-29 09:11:55.218750,7.81,80.47
51944,2018-06-29 09:11:55.250000,9.48,80.47
51945,2018-06-29 09:11:55.281250,20.28,80.47
51946,2018-06-29 09:11:55.312500,22.5,80.47
51947,2018-06-29 09:11:55.343750,10.24,80.47
51948,2018-06-29 09:11:55.375000,-8.29,80.47
51949,2018-06-29 09:11:55.406250,-20.43,80.47
51950,2018-06-29 09:11:55.437500,-20.39,80.47
51951,2018-06-29 09:11:55.468750,-4.61,80.47
51952,2018-06-29 09:11:55.500000,31.05,80.47
51953,2018-06-29 09:11:55.531250,78.02,80.68
51954,2018-06-29 09:11:55.562500,114.19,80.68
51955,2018-06-29 09:11:55.593750,128.51,80.68
51956,2018-06-29 09:11:55.625000,131.7,80.68
51957,2018-06-29 09:11:55.656250,133.82,80.68
51958,2018-06-29 09:11:55.687500,129.66,80.68
51959,2018-06-29 09:11:55.718750,114.99,80.68
51960,2018-06-29 09:11:55.750000,94.08,80.68
51961,2018-06-29 09:11:55.781250,70.32,80.68
51962,2018-06-29 09:11:55.812500,45.51,80.68
51963,2018-06-29 09:11:55.843750,25.14,80.68
51964,2018-06-29 09:11:55.875000,14.67,80.68
51965,2018-06-29 09:11:55.906250,12.39,80.68
51966,2018-06-29 09:11:55.937500,10.57,80.68
51967,2018-06-29 09:11:55.968750,2.38,80.68
51968,2018-06-29 09:11:56.000000,-11.12,80.68
51969,2018-06-29 09:11:56.031250,-20.8,80.68
51970,2018-06-29 09:11:56.062500,-18.68,80.68
51971,2018-06-29 09:11:56.093750,-8.4,80.68
51972,2018-06-29 09:11:56.125000,-2.5,80.68
51973,2018-06-29 09:11:56.156250,-8.9,80.68
51974,2018-06-29 09:11:56.187500,-25.97,80.68
51975,2018-06-29 09:11:56.218750,-49.44,80.68
51976,2018-06-29 09:11:56.250000,-75.6,80.68
51977,2018-06-29 09:11:56.281250,-99.9,80.68
51978,2018-06-29 09:11:56.312500,-118.17,80.68
51979,2018-06-29 09:11:56.343750,-130.09,80.68
51980,2018-06-29 09:11:56.375000,-140.97,80.68
51981,2018-06-29 09:11:56.406250,-160.21,80.68
51982,2018-06-29 09:11:56.437500,-194.47,80.68
51983,2018-06-29 09:11:56.468750,-237.9,80.68
51984,2018-06-29 09:11:56.500000,-270.25,80.68
51985,2018-06-29 09:11:56.531250,-266.54,80.92
51986,2018-06-29 09:11:56.562500,-215.8,80.92
51987,2018-06-29 09:11:56.593750,-132.04,80.92
51988,2018-06-29 09:11:56.625000,-42.67,80.92
51989,2018-06-29 09:11:56.656250,36.36,80.92
51990,2018-06-29 09:11:56.687500,101.9,80.92
51991,2018-06-29 09:11:56.718750,149.8,80.92
51992,2018-06-29 09:11:56.750000,176.08,80.92
51993,2018-06-29 09:11:56.781250,177.63,80.92
51994,2018-06-29 09:11:56.812500,162.08,80.92
51995,2018-06-29 09:11:56.843750,149.59,80.92
51996,2018-06-29 09:11:56.875000,155.15,80.92
51997,2018-06-29 09:11:56.906250,155.6,80.92
51998,2018-06-29 09:11:56.937500,139.87,80.92
51999,2018-06-29 09:11:56.968750,126.2,80.92
52000,2018-06-29 09:11:57.000000,109.11,80.92
52001,2018-06-29 09:11:57.031250,59.42,80.92
52002,2018-06-29 09:11:57.062500,-51.79,80.92
52003,2018-06-29 09:11:57.093750,-180.06,80.92
52004,2018-06-29 09:11:57.125000,-252.02,80.92
52005,2018-06-29 09:11:57.156250,-213.05,80.92
52006,2018-06-29 09:11:57.187500,-54.68,80.92
52007,2018-06-29 09:11:57.218750,59.49,80.92
52008,2018-06-29 09:11:57.250000,74.24,80.92
52009,2018-06-29 09:11:57.281250,41.73,80.92
52010,2018-06-29 09:11:57.312500,-1.14,80.92
52011,2018-06-29 09:11:57.343750,-51.99,80.92
52012,2018-06-29 09:11:57.375000,-79.68,80.92
52013,2018-06-29 09:11:57.406250,-69.9,80.92
52014,2018-06-29 09:11:57.437500,-38.02,80.92
52015,2018-06-29 09:11:57.468750,6.87,80.92
52016,2018-06-29 09:11:57.500000,46.17,80.92
52017,2018-06-29 09:11:57.531250,74.76,81.1
52018,2018-06-29 09:11:57.562500,97.88,81.1
52019,2018-06-29 09:11:57.593750,120.92,81.1
52020,2018-06-29 09:11:57.625000,131.54,81.1
52021,2018-06-29 09:11:57.656250,126.8,81.1
52022,2018-06-29 09:11:57.687500,109.62,81.1
52023,2018-06-29 09:11:57.718750,90.41,81.1
52024,2018-06-29 09:11:57.750000,75.32,81.1
52025,2018-06-29 09:11:57.781250,58.64,81.1
52026,2018-06-29 09:11:57.812500,38.73,81.1
52027,2018-06-29 09:11:57.843750,15.18,81.1
52028,2018-06-29 09:11:57.875000,-15.96,81.1
52029,2018-06-29 09:11:57.906250,-51.85,81.1
52030,2018-06-29 09:11:57.937500,-83.44,81.1
52031,2018-06-29 09:11:57.968750,-110.69,81.1
52032,2018-06-29 09:11:58.000000,-141.24,81.1
52033,2018-06-29 09:11:58.031250,-155.9,81.1
52034,2018-06-29 09:11:58.062500,-125.43,81.1
52035,2018-06-29 09:11:58.093750,-66.62,81.1
52036,2018-06-29 09:11:58.125000,-30.64,81.1
52037,2018-06-29 09:11:58.156250,-32.88,81.1
52038,2018-06-29 09:11:58.187500,-55.38,81.1
52039,2018-06-29 09:11:58.218750,-92.48,81.1
52040,2018-06-29 09:11:58.250000,-139.71,81.1
52041,2018-06-29 09:11:58.281250,-169.51,81.1
52042,2018-06-29 09:11:58.312500,-159.06,81.1
52043,2018-06-29 09:11:58.343750,-117.64,81.1
52044,2018-06-29 09:11:58.375000,-66.0,81.1
52045,2018-06-29 09:11:58.406250,-14.92,81.1
52046,2018-06-29 09:11:58.437500,29.32,81.1
52047,2018-06-29 09:11:58.468750,56.22,81.1
52048,2018-06-29 09:11:58.500000,65.08,81.1
52049,2018-06-29 09:11:58.531250,72.82,81.28
52050,2018-06-29 09:11:58.562500,90.1,81.28
52051,2018-06-29 09:11:58.593750,107.69,81.28
52052,2018-06-29 09:11:58.625000,118.33,81.28
52053,2018-06-29 09:11:58.656250,132.53,81.28
52054,2018-06-29 09:11:58.687500,142.75,81.28
52055,2018-06-29 09:11:58.718750,120.02,81.28
52056,2018-06-29 09:11:58.750000,55.74,81.28
52057,2018-06-29 09:11:58.781250,-10.04,81.28
52058,2018-06-29 09:11:58.812500,-26.31,81.28
52059,2018-06-29 09:11:58.843750,9.93,81.28
52060,2018-06-29 09:11:58.875000,61.22,81.28
52061,2018-06-29 09:11:58.906250,98.44,81.28
52062,2018-06-29 09:11:58.937500,125.55,81.28
52063,2018-06-29 09:11:58.968750,139.33,81.28
52064,2018-06-29 09:11:59.000000,140.97,81.28
52065,2018-06-29 09:11:59.031250,141.0,81.28
52066,2018-06-29 09:11:59.062500,102.02,81.28
52067,2018-06-29 09:11:59.093750,41.82,81.28
52068,2018-06-29 09:11:59.125000,-11.13,81.28
52069,2018-06-29 09:11:59.156250,-50.23,81.28
52070,2018-06-29 09:11:59.187500,-76.69,81.28
52071,2018-06-29 09:11:59.218750,-84.25,81.28
52072,2018-06-29 09:11:59.250000,-79.47,81.28
52073,2018-06-29 09:11:59.281250,-76.17,81.28
52074,2018-06-29 09:11:59.312500,-77.16,81.28
52075,2018-06-29 09:11:59.343750,-74.87,81.28
52076,2018-06-29 09:11:59.375000,-64.42,81.28
52077,2018-06-29 09:11:59.406250,-53.66,81.28
52078,2018-06-29 09:11:59.437500,-50.92,81.28
52079,2018-06-29 09:11:59.468750,-59.91,81.28
52080,2018-06-29 09:11:59.500000,-71.72,81.28
52081,2018-06-29 09:11:59.531250,-86.06,81.45
52082,2018-06-29 09:11:59.562500,-106.02,81.45
52083,2018-06-29 09:11:59.593750,-131.4,81.45
52084,2018-06-29 09:11:59.625000,-155.61,81.45
52085,2018-06-29 09:11:59.656250,-172.21,81.45
52086,2018-06-29 09:11:59.687500,-177.73,81.45
52087,2018-06-29 09:11:59.718750,-167.92,81.45
52088,2018-06-29 09:11:59.750000,-141.18,81.45
52089,2018-06-29 09:11:59.781250,-100.21,81.45
52090,2018-06-29 09:11:59.812500,-51.51,81.45
52091,2018-06-29 09:11:59.843750,-6.48,81.45
52092,2018-06-29 09:11:59.875000,20.25,81.45
52093,2018-06-29 09:11:59.906250,24.93,81.45
52094,2018-06-29 09:11:59.937500,21.69,81.45
52095,2018-06-29 09:11:59.968750,26.95,81.45
52096,2018-06-29 09:12:00.000000,41.87,81.45
52097,2018-06-29 09:12:00.031250,56.56,81.45
52098,2018-06-29 09:12:00.062500,64.79,81.45
52099,2018-06-29 09:12:00.093750,67.18,81.45
52100,2018-06-29 09:12:00.125000,63.96,81.45
52101,2018-06-29 09:12:00.156250,53.33,81.45
52102,2018-06-29 09:12:00.187500,37.51,81.45
52103,2018-06-29 09:12:00.218750,21.82,81.45
52104,2018-06-29 09:12:00.250000,6.84,81.45
52105,2018-06-29 09:12:00.281250,-11.51,81.45
52106,2018-06-29 09:12:00.312500,-33.72,81.45
52107,2018-06-29 09:12:00.343750,-53.93,81.45
52108,2018-06-29 09:12:00.375000,-64.05,81.45
52109,2018-06-29 09:12:00.406250,-57.66,81.45
52110,2018-06-29 09:12:00.437500,-34.56,81.45
52111,2018-06-29 09:12:00.468750,-3.38,81.45
52112,2018-06-29 09:12:00.500000,24.25,81.45
52113,2018-06-29 09:12:00.531250,42.4,81.57
52114,2018-06-29 09:12:00.562500,51.55,81.57
52115,2018-06-29 09:12:00.593750,54.81,81.57
52116,2018-06-29 09:12:00.625000,57.25,81.57
52117,2018-06-29 09:12:00.656250,62.76,81.57
52118,2018-06-29 09:12:00.687500,65.84,81.57
52119,2018-06-29 09:12:00.718750,55.51,81.57
52120,2018-06-29 09:12:00.750000,33.21,81.57
52121,2018-06-29 09:12:00.781250,15.78,81.57
52122,2018-06-29 09:12:00.812500,13.49,81.57
52123,2018-06-29 09:12:00.843750,18.01,81.57
52124,2018-06-29 09:12:00.875000,18.66,81.57
52125,2018-06-29 09:12:00.906250,15.45,81.57
52126,2018-06-29 09:12:00.937500,9.97,81.57
52127,2018-06-29 09:12:00.968750,-2.01,81.57
52128,2018-06-29 09:12:01.000000,-22.65,81.57
52129,2018-06-29 09:12:01.031250,-46.13,81.57
52130,2018-06-29 09:12:01.062500,-63.14,81.57
52131,2018-06-29 09:12:01.093750,-66.45,81.57
52132,2018-06-29 09:12:01.125000,-53.98,81.57
52133,2018-06-29 09:12:01.156250,-30.47,81.57
52134,2018-06-29 09:12:01.187500,-4.59,81.57
52135,2018-06-29 09:12:01.218750,17.36,81.57
52136,2018-06-29 09:12:01.250000,34.28,81.57
52137,2018-06-29 09:12:01.281250,47.07,81.57
52138,2018-06-29 09:12:01.312500,55.53,81.57
52139,2018-06-29 09:12:01.343750,60.46,81.57
52140,2018-06-29 09:12:01.375000,64.87,81.57
52141,2018-06-29 09:12:01.406250,70.02,81.57
52142,2018-06-29 09:12:01.437500,74.44,81.57
52143,2018-06-29 09:12:01.468750,77.81,81.57
52144,2018-06-29 09:12:01.500000,80.5,81.57
52145,2018-06-29 09:12:01.531250,80.32,81.72
52146,2018-06-29 09:12:01.562500,75.63,81.72
52147,2018-06-29 09:12:01.593750,68.79,81.72
52148,2018-06-29 09:12:01.625000,62.39,81.72
52149,2018-06-29 09:12:01.656250,55.71,81.72
52150,2018-06-29 09:12:01.687500,46.28,81.72
52151,2018-06-29 09:12:01.718750,32.13,81.72
52152,2018-06-29 09:12:01.750000,12.09,81.72
52153,2018-06-29 09:12:01.781250,-12.19,81.72
52154,2018-06-29 09:12:01.812500,-33.19,81.72
52155,2018-06-29 09:12:01.843750,-40.81,81.72
52156,2018-06-29 09:12:01.875000,-32.06,81.72
52157,2018-06-29 09:12:01.906250,-14.69,81.72
52158,2018-06-29 09:12:01.937500,1.45,81.72
52159,2018-06-29 09:12:01.968750,12.65,81.72
52160,2018-06-29 09:12:02.000000,19.69,81.72
52161,2018-06-29 09:12:02.031250,23.16,81.72
52162,2018-06-29 09:12:02.062500,23.22,81.72
52163,2018-06-29 09:12:02.093750,21.33,81.72
52164,2018-06-29 09:12:02.125000,19.81,81.72
52165,2018-06-29 09:12:02.156250,19.74,81.72
52166,2018-06-29 09:12:02.187500,20.75,81.72
52167,2018-06-29 09:12:02.218750,21.6,81.72
52168,2018-06-29 09:12:02.250000,19.96,81.72
52169,2018-06-29 09:12:02.281250,15.29,81.72
52170,2018-06-29 09:12:02.312500,9.04,81.72
52171,2018-06-29 09:12:02.343750,4.56,81.72
52172,2018-06-29 09:12:02.375000,1.98,81.72
52173,2018-06-29 09:12:02.406250,-0.47,81.72
52174,2018-06-29 09:12:02.437500,-3.68,81.72
52175,2018-06-29 09:12:02.468750,-6.74,81.72
52176,2018-06-29 09:12:02.500000,-11.05,81.72
52177,2018-06-29 09:12:02.531250,-20.27,81.92
52178,2018-06-29 09:12:02.562500,-30.06,81.92
52179,2018-06-29 09:12:02.593750,-30.83,81.92
52180,2018-06-29 09:12:02.625000,-11.99,81.92
52181,2018-06-29 09:12:02.656250,8.4,81.92
52182,2018-06-29 09:12:02.687500,7.08,81.92
52183,2018-06-29 09:12:02.718750,-7.46,81.92
52184,2018-06-29 09:12:02.750000,8.66,81.92
52185,2018-06-29 09:12:02.781250,72.99,81.92
52186,2018-06-29 09:12:02.812500,141.58,81.92
52187,2018-06-29 09:12:02.843750,189.49,81.92
52188,2018-06-29 09:12:02.875000,233.91,81.92
52189,2018-06-29 09:12:02.906250,312.77,81.92
52190,2018-06-29 09:12:02.937500,389.76,81.92
52191,2018-06-29 09:12:02.968750,420.32,81.92
52192,2018-06-29 09:12:03.000000,416.69,81.92
52193,2018-06-29 09:12:03.031250,438.4,81.92
52194,2018-06-29 09:12:03.062500,516.1,81.92
52195,2018-06-29 09:12:03.093750,593.37,81.92
52196,2018-06-29 09:12:03.125000,625.09,81.92
52197,2018-06-29 09:12:03.156250,418.42,81.92
52198,2018-06-29 09:12:03.187500,-31.43,81.92
52199,2018-06-29 09:12:03.218750,-363.74,81.92
52200,2018-06-29 09:12:03.250000,-486.7,81.92
52201,2018-06-29 09:12:03.281250,-506.28,81.92
52202,2018-06-29 09:12:03.312500,-478.19,81.92
52203,2018-06-29 09:12:03.343750,-422.21,81.92
52204,2018-06-29 09:12:03.375000,-387.65,81.92
52205,2018-06-29 09:12:03.406250,-370.08,81.92
52206,2018-06-29 09:12:03.437500,-331.76,81.92
52207,2018-06-29 09:12:03.468750,-242.81,81.92
52208,2018-06-29 09:12:03.500000,-162.04,81.92
52209,2018-06-29 09:12:03.531250,-149.4,82.05
52210,2018-06-29 09:12:03.562500,-178.61,82.05
52211,2018-06-29 09:12:03.593750,-168.37,82.05
52212,2018-06-29 09:12:03.625000,-86.54,82.05
52213,2018-06-29 09:12:03.656250,-5.5,82.05
52214,2018-06-29 09:12:03.687500,8.29,82.05
52215,2018-06-29 09:12:03.718750,-27.72,82.05
52216,2018-06-29 09:12:03.750000,-40.66,82.05
52217,2018-06-29 09:12:03.781250,-13.93,82.05
52218,2018-06-29 09:12:03.812500,5.75,82.05
52219,2018-06-29 09:12:03.843750,-13.54,82.05
52220,2018-06-29 09:12:03.875000,-50.74,82.05
52221,2018-06-29 09:12:03.906250,-73.25,82.05
52222,2018-06-29 09:12:03.937500,-73.98,82.05
52223,2018-06-29 09:12:03.968750,-48.51,82.05
52224,2018-06-29 09:12:04.000000,4.1,82.05
52225,2018-06-29 09:12:04.031250,50.73,82.05
52226,2018-06-29 09:12:04.062500,40.43,82.05
52227,2018-06-29 09:12:04.093750,-19.93,82.05
52228,2018-06-29 09:12:04.125000,-72.53,82.05
52229,2018-06-29 09:12:04.156250,-90.06,82.05
52230,2018-06-29 09:12:04.187500,-89.68,82.05
52231,2018-06-29 09:12:04.218750,-87.0,82.05
52232,2018-06-29 09:12:04.250000,-78.4,82.05
52233,2018-06-29 09:12:04.281250,-61.62,82.05
52234,2018-06-29 09:12:04.312500,-43.22,82.05
52235,2018-06-29 09:12:04.343750,-26.46,82.05
52236,2018-06-29 09:12:04.375000,-10.16,82.05
52237,2018-06-29 09:12:04.406250,7.6,82.05
52238,2018-06-29 09:12:04.437500,24.88,82.05
52239,2018-06-29 09:12:04.468750,37.51,82.05
52240,2018-06-29 09:12:04.500000,43.83,82.05
52241,2018-06-29 09:12:04.531250,46.09,82.18
52242,2018-06-29 09:12:04.562500,46.26,82.18
52243,2018-06-29 09:12:04.593750,44.69,82.18
52244,2018-06-29 09:12:04.625000,40.74,82.18
52245,2018-06-29 09:12:04.656250,37.34,82.18
52246,2018-06-29 09:12:04.687500,35.93,82.18
52247,2018-06-29 09:12:04.718750,33.27,82.18
52248,2018-06-29 09:12:04.750000,26.25,82.18
52249,2018-06-29 09:12:04.781250,16.48,82.18
52250,2018-06-29 09:12:04.812500,7.81,82.18
52251,2018-06-29 09:12:04.843750,0.9,82.18
52252,2018-06-29 09:12:04.875000,-6.29,82.18
52253,2018-06-29 09:12:04.906250,-15.81,82.18
52254,2018-06-29 09:12:04.937500,-27.77,82.18
52255,2018-06-29 09:12:04.968750,-39.6,82.18
52256,2018-06-29 09:12:05.000000,-46.23,82.18
52257,2018-06-29 09:12:05.031250,-43.87,82.18
52258,2018-06-29 09:12:05.062500,-33.94,82.18
52259,2018-06-29 09:12:05.093750,-21.89,82.18
52260,2018-06-29 09:12:05.125000,-12.52,82.18
52261,2018-06-29 09:12:05.156250,-6.88,82.18
52262,2018-06-29 09:12:05.187500,-3.42,82.18
52263,2018-06-29 09:12:05.218750,-0.94,82.18
52264,2018-06-29 09:12:05.250000,-0.35,82.18
52265,2018-06-29 09:12:05.281250,-2.95,82.18
52266,2018-06-29 09:12:05.312500,-8.09,82.18
52267,2018-06-29 09:12:05.343750,-14.03,82.18
52268,2018-06-29 09:12:05.375000,-19.67,82.18
52269,2018-06-29 09:12:05.406250,-24.52,82.18
52270,2018-06-29 09:12:05.437500,-28.22,82.18
52271,2018-06-29 09:12:05.468750,-31.48,82.18
52272,2018-06-29 09:12:05.500000,-36.29,82.18
52273,2018-06-29 09:12:05.531250,-44.24,82.37
52274,2018-06-29 09:12:05.562500,-54.49,82.37
52275,2018-06-29 09:12:05.593750,-63.93,82.37
52276,2018-06-29 09:12:05.625000,-70.68,82.37
52277,2018-06-29 09:12:05.656250,-76.64,82.37
52278,2018-06-29 09:12:05.687500,-82.86,82.37
52279,2018-06-29 09:12:05.718750,-83.58,82.37
52280,2018-06-29 09:12:05.750000,-67.93,82.37
52281,2018-06-29 09:12:05.781250,-30.66,82.37
52282,2018-06-29 09:12:05.812500,17.8,82.37
52283,2018-06-29 09:12:05.843750,56.23,82.37
52284,2018-06-29 09:12:05.875000,72.5,82.37
52285,2018-06-29 09:12:05.906250,74.27,82.37
52286,2018-06-29 09:12:05.937500,74.44,82.37
52287,2018-06-29 09:12:05.968750,74.78,82.37
52288,2018-06-29 09:12:06.000000,70.98,82.37
52289,2018-06-29 09:12:06.031250,62.78,82.37
52290,2018-06-29 09:12:06.062500,51.64,82.37
52291,2018-06-29 09:12:06.093750,36.54,82.37
52292,2018-06-29 09:12:06.125000,16.95,82.37
52293,2018-06-29 09:12:06.156250,-1.72,82.37
52294,2018-06-29 09:12:06.187500,-13.51,82.37
52295,2018-06-29 09:12:06.218750,-19.46,82.37
52296,2018-06-29 09:12:06.250000,-25.7,82.37
52297,2018-06-29 09:12:06.281250,-32.82,82.37
52298,2018-06-29 09:12:06.312500,-35.16,82.37
52299,2018-06-29 09:12:06.343750,-31.05,82.37
52300,2018-06-29 09:12:06.375000,-25.8,82.37
52301,2018-06-29 09:12:06.406250,-26.69,82.37
52302,2018-06-29 09:12:06.437500,-33.41,82.37
52303,2018-06-29 09:12:06.468750,-42.23,82.37
52304,2018-06-29 09:12:06.500000,-41.24,82.37
52305,2018-06-29 09:12:06.531250,-17.48,82.47
52306,2018-06-29 09:12:06.562500,27.67,82.47
52307,2018-06-29 09:12:06.593750,70.41,82.47
52308,2018-06-29 09:12:06.625000,88.13,82.47
52309,2018-06-29 09:12:06.656250,93.72,82.47
52310,2018-06-29 09:12:06.687500,110.39,82.47
52311,2018-06-29 09:12:06.718750,148.48,82.47
52312,2018-06-29 09:12:06.750000,190.69,82.47
52313,2018-06-29 09:12:06.781250,229.04,82.47
52314,2018-06-29 09:12:06.812500,266.79,82.47
52315,2018-06-29 09:12:06.843750,305.74,82.47
52316,2018-06-29 09:12:06.875000,338.97,82.47
52317,2018-06-29 09:12:06.906250,350.94,82.47
52318,2018-06-29 09:12:06.937500,338.4,82.47
52319,2018-06-29 09:12:06.968750,226.41,82.47
52320,2018-06-29 09:12:07.000000,27.93,82.47
52321,2018-06-29 09:12:07.031250,-113.2,82.47
52322,2018-06-29 09:12:07.062500,-180.03,82.47
52323,2018-06-29 09:12:07.093750,-217.68,82.47
52324,2018-06-29 09:12:07.125000,-232.31,82.47
52325,2018-06-29 09:12:07.156250,-224.4,82.47
52326,2018-06-29 09:12:07.187500,-217.06,82.47
52327,2018-06-29 09:12:07.218750,-214.54,82.47
52328,2018-06-29 09:12:07.250000,-205.24,82.47
52329,2018-06-29 09:12:07.281250,-173.1,82.47
52330,2018-06-29 09:12:07.312500,-132.21,82.47
52331,2018-06-29 09:12:07.343750,-102.42,82.47
52332,2018-06-29 09:12:07.375000,-84.64,82.47
52333,2018-06-29 09:12:07.406250,-67.59,82.47
52334,2018-06-29 09:12:07.437500,-47.64,82.47
52335,2018-06-29 09:12:07.468750,-35.07,82.47
52336,2018-06-29 09:12:07.500000,-31.31,82.47
52337,2018-06-29 09:12:07.531250,-30.11,82.62
52338,2018-06-29 09:12:07.562500,-25.51,82.62
52339,2018-06-29 09:12:07.593750,-20.91,82.62
52340,2018-06-29 09:12:07.625000,-19.75,82.62
52341,2018-06-29 09:12:07.656250,-21.08,82.62
52342,2018-06-29 09:12:07.687500,-23.94,82.62
52343,2018-06-29 09:12:07.718750,-28.09,82.62
52344,2018-06-29 09:12:07.750000,-33.31,82.62
52345,2018-06-29 09:12:07.781250,-38.88,82.62
52346,2018-06-29 09:12:07.812500,-45.59,82.62
52347,2018-06-29 09:12:07.843750,-53.23,82.62
52348,2018-06-29 09:12:07.875000,-58.75,82.62
52349,2018-06-29 09:12:07.906250,-59.4,82.62
52350,2018-06-29 09:12:07.937500,-54.24,82.62
52351,2018-06-29 09:12:07.968750,-42.73,82.62
52352,2018-06-29 09:12:08.000000,-26.41,82.62
52353,2018-06-29 09:12:08.031250,-10.65,82.62
52354,2018-06-29 09:12:08.062500,0.74,82.62
52355,2018-06-29 09:12:08.093750,9.28,82.62
52356,2018-06-29 09:12:08.125000,17.9,82.62
52357,2018-06-29 09:12:08.156250,25.19,82.62
52358,2018-06-29 09:12:08.187500,28.17,82.62
52359,2018-06-29 09:12:08.218750,26.25,82.62
52360,2018-06-29 09:12:08.250000,22.69,82.62
52361,2018-06-29 09:12:08.281250,22.3,82.62
52362,2018-06-29 09:12:08.312500,24.61,82.62
52363,2018-06-29 09:12:08.343750,23.81,82.62
52364,2018-06-29 09:12:08.375000,16.49,82.62
52365,2018-06-29 09:12:08.406250,10.48,82.62
52366,2018-06-29 09:12:08.437500,11.63,82.62
52367,2018-06-29 09:12:08.468750,13.69,82.62
52368,2018-06-29 09:12:08.500000,8.63,82.62
52369,2018-06-29 09:12:08.531250,2.56,82.45
52370,2018-06-29 09:12:08.562500,10.27,82.45
52371,2018-06-29 09:12:08.593750,43.44,82.45
52372,2018-06-29 09:12:08.625000,110.31,82.45
52373,2018-06-29 09:12:08.656250,169.0,82.45
52374,2018-06-29 09:12:08.687500,160.2,82.45
52375,2018-06-29 09:12:08.718750,100.75,82.45
52376,2018-06-29 09:12:08.750000,41.89,82.45
52377,2018-06-29 09:12:08.781250,5.62,82.45
52378,2018-06-29 09:12:08.812500,-12.59,82.45
52379,2018-06-29 09:12:08.843750,-15.31,82.45
52380,2018-06-29 09:12:08.875000,-6.67,82.45
52381,2018-06-29 09:12:08.906250,3.12,82.45
52382,2018-06-29 09:12:08.937500,6.26,82.45
52383,2018-06-29 09:12:08.968750,7.26,82.45
52384,2018-06-29 09:12:09.000000,11.41,82.45
52385,2018-06-29 09:12:09.031250,16.44,82.45
52386,2018-06-29 09:12:09.062500,14.28,82.45
52387,2018-06-29 09:12:09.093750,-0.88,82.45
52388,2018-06-29 09:12:09.125000,-26.77,82.45
52389,2018-06-29 09:12:09.156250,-56.36,82.45
52390,2018-06-29 09:12:09.187500,-82.34,82.45
52391,2018-06-29 09:12:09.218750,-101.52,82.45
52392,2018-06-29 09:12:09.250000,-112.35,82.45
52393,2018-06-29 09:12:09.281250,-121.01,82.45
52394,2018-06-29 09:12:09.312500,-133.04,82.45
52395,2018-06-29 09:12:09.343750,-132.32,82.45
52396,2018-06-29 09:12:09.375000,-87.69,82.45
52397,2018-06-29 09:12:09.406250,-5.2,82.45
52398,2018-06-29 09:12:09.437500,67.26,82.45
52399,2018-06-29 09:12:09.468750,103.9,82.45
52400,2018-06-29 09:12:09.500000,112.9,82.45
52401,2018-06-29 09:12:09.531250,115.51,82.35
52402,2018-06-29 09:12:09.562500,112.49,82.35
52403,2018-06-29 09:12:09.593750,105.94,82.35
52404,2018-06-29 09:12:09.625000,107.25,82.35
52405,2018-06-29 09:12:09.656250,100.88,82.35
52406,2018-06-29 09:12:09.687500,78.89,82.35
52407,2018-06-29 09:12:09.718750,45.8,82.35
52408,2018-06-29 09:12:09.750000,5.69,82.35
52409,2018-06-29 09:12:09.781250,-42.2,82.35
52410,2018-06-29 09:12:09.812500,-87.27,82.35
52411,2018-06-29 09:12:09.843750,-114.06,82.35
52412,2018-06-29 09:12:09.875000,-121.69,82.35
52413,2018-06-29 09:12:09.906250,-127.17,82.35
52414,2018-06-29 09:12:09.937500,-127.13,82.35
52415,2018-06-29 09:12:09.968750,-106.46,82.35
52416,2018-06-29 09:12:10.000000,-62.71,82.35
52417,2018-06-29 09:12:10.031250,-11.44,82.35
52418,2018-06-29 09:12:10.062500,26.16,82.35
52419,2018-06-29 09:12:10.093750,44.51,82.35
52420,2018-06-29 09:12:10.125000,49.67,82.35
52421,2018-06-29 09:12:10.156250,41.45,82.35
52422,2018-06-29 09:12:10.187500,25.03,82.35
52423,2018-06-29 09:12:10.218750,10.03,82.35
52424,2018-06-29 09:12:10.250000,8.39,82.35
52425,2018-06-29 09:12:10.281250,35.04,82.35
52426,2018-06-29 09:12:10.312500,75.63,82.35
52427,2018-06-29 09:12:10.343750,93.22,82.35
52428,2018-06-29 09:12:10.375000,86.77,82.35
52429,2018-06-29 09:12:10.406250,80.17,82.35
52430,2018-06-29 09:12:10.437500,64.49,82.35
52431,2018-06-29 09:12:10.468750,29.78,82.35
52432,2018-06-29 09:12:10.500000,4.38,82.35
52433,2018-06-29 09:12:10.531250,0.7,82.23
52434,2018-06-29 09:12:10.562500,-8.79,82.23
52435,2018-06-29 09:12:10.593750,-30.2,82.23
52436,2018-06-29 09:12:10.625000,-39.41,82.23
52437,2018-06-29 09:12:10.656250,-32.93,82.23
52438,2018-06-29 09:12:10.687500,-28.0,82.23
52439,2018-06-29 09:12:10.718750,-31.41,82.23
52440,2018-06-29 09:12:10.750000,-37.68,82.23
52441,2018-06-29 09:12:10.781250,-40.59,82.23
52442,2018-06-29 09:12:10.812500,-40.36,82.23
52443,2018-06-29 09:12:10.843750,-37.55,82.23
52444,2018-06-29 09:12:10.875000,-33.86,82.23
52445,2018-06-29 09:12:10.906250,-34.09,82.23
52446,2018-06-29 09:12:10.937500,-40.84,82.23
52447,2018-06-29 09:12:10.968750,-49.06,82.23
52448,2018-06-29 09:12:11.000000,-51.57,82.23
52449,2018-06-29 09:12:11.031250,-47.42,82.23
52450,2018-06-29 09:12:11.062500,-43.6,82.23
52451,2018-06-29 09:12:11.093750,-44.22,82.23
52452,2018-06-29 09:12:11.125000,-45.31,82.23
52453,2018-06-29 09:12:11.156250,-40.81,82.23
52454,2018-06-29 09:12:11.187500,-34.53,82.23
52455,2018-06-29 09:12:11.218750,-35.39,82.23
52456,2018-06-29 09:12:11.250000,-43.24,82.23
52457,2018-06-29 09:12:11.281250,-47.36,82.23
52458,2018-06-29 09:12:11.312500,-40.84,82.23
52459,2018-06-29 09:12:11.343750,-31.53,82.23
52460,2018-06-29 09:12:11.375000,-24.22,82.23
52461,2018-06-29 09:12:11.406250,-20.02,82.23
52462,2018-06-29 09:12:11.437500,-14.25,82.23
52463,2018-06-29 09:12:11.468750,-11.41,82.23
52464,2018-06-29 09:12:11.500000,-12.68,82.23
52465,2018-06-29 09:12:11.531250,-12.43,82.15
52466,2018-06-29 09:12:11.562500,-6.61,82.15
52467,2018-06-29 09:12:11.593750,9.69,82.15
52468,2018-06-29 09:12:11.625000,31.65,82.15
52469,2018-06-29 09:12:11.656250,63.03,82.15
52470,2018-06-29 09:12:11.687500,77.02,82.15
52471,2018-06-29 09:12:11.718750,85.53,82.15
52472,2018-06-29 09:12:11.750000,147.81,82.15
52473,2018-06-29 09:12:11.781250,296.93,82.15
52474,2018-06-29 09:12:11.812500,461.05,82.15
52475,2018-06-29 09:12:11.843750,542.38,82.15
52476,2018-06-29 09:12:11.875000,551.61,82.15
52477,2018-06-29 09:12:11.906250,415.89,82.15
52478,2018-06-29 09:12:11.937500,175.16,82.15
52479,2018-06-29 09:12:11.968750,-2.56,82.15
52480,2018-06-29 09:12:12.000000,-107.02,82.15
52481,2018-06-29 09:12:12.031250,-185.36,82.15
52482,2018-06-29 09:12:12.062500,-264.98,82.15
52483,2018-06-29 09:12:12.093750,-334.69,82.15
52484,2018-06-29 09:12:12.125000,-375.21,82.15
52485,2018-06-29 09:12:12.156250,-336.57,82.15
52486,2018-06-29 09:12:12.187500,-220.2,82.15
52487,2018-06-29 09:12:12.218750,-79.25,82.15
52488,2018-06-29 09:12:12.250000,7.5,82.15
52489,2018-06-29 09:12:12.281250,25.32,82.15
52490,2018-06-29 09:12:12.312500,11.09,82.15
52491,2018-06-29 09:12:12.343750,2.37,82.15
52492,2018-06-29 09:12:12.375000,4.06,82.15
52493,2018-06-29 09:12:12.406250,-5.16,82.15
52494,2018-06-29 09:12:12.437500,-13.44,82.15
52495,2018-06-29 09:12:12.468750,-17.98,82.15
52496,2018-06-29 09:12:12.500000,-23.17,82.15
52497,2018-06-29 09:12:12.531250,-27.59,82.08
52498,2018-06-29 09:12:12.562500,-22.95,82.08
52499,2018-06-29 09:12:12.593750,-14.23,82.08
52500,2018-06-29 09:12:12.625000,-12.67,82.08
52501,2018-06-29 09:12:12.656250,-14.82,82.08
52502,2018-06-29 09:12:12.687500,-12.04,82.08
52503,2018-06-29 09:12:12.718750,-4.01,82.08
52504,2018-06-29 09:12:12.750000,-2.99,82.08
52505,2018-06-29 09:12:12.781250,-11.04,82.08
52506,2018-06-29 09:12:12.812500,-20.23,82.08
52507,2018-06-29 09:12:12.843750,-22.33,82.08
52508,2018-06-29 09:12:12.875000,-19.02,82.08
52509,2018-06-29 09:12:12.906250,-21.32,82.08
52510,2018-06-29 09:12:12.937500,-34.29,82.08
52511,2018-06-29 09:12:12.968750,-48.04,82.08
52512,2018-06-29 09:12:13.000000,-52.15,82.08
52513,2018-06-29 09:12:13.031250,-54.04,82.08
52514,2018-06-29 09:12:13.062500,-68.08,82.08
52515,2018-06-29 09:12:13.093750,-95.2,82.08
52516,2018-06-29 09:12:13.125000,-121.67,82.08
52517,2018-06-29 09:12:13.156250,-136.28,82.08
52518,2018-06-29 09:12:13.187500,-140.92,82.08
52519,2018-06-29 09:12:13.218750,-149.84,82.08
52520,2018-06-29 09:12:13.250000,-174.08,82.08
52521,2018-06-29 09:12:13.281250,-194.12,82.08
52522,2018-06-29 09:12:13.312500,-167.26,82.08
52523,2018-06-29 09:12:13.343750,-83.44,82.08
52524,2018-06-29 09:12:13.375000,15.88,82.08
52525,2018-06-29 09:12:13.406250,87.79,82.08
52526,2018-06-29 09:12:13.437500,127.47,82.08
52527,2018-06-29 09:12:13.468750,148.05,82.08
52528,2018-06-29 09:12:13.500000,156.27,82.08
52529,2018-06-29 09:12:13.531250,153.71,82.05
52530,2018-06-29 09:12:13.562500,141.25,82.05
52531,2018-06-29 09:12:13.593750,121.47,82.05
52532,2018-06-29 09:12:13.625000,97.28,82.05
52533,2018-06-29 09:12:13.656250,76.91,82.05
52534,2018-06-29 09:12:13.687500,60.81,82.05
52535,2018-06-29 09:12:13.718750,46.78,82.05
52536,2018-06-29 09:12:13.750000,34.03,82.05
52537,2018-06-29 09:12:13.781250,28.81,82.05
52538,2018-06-29 09:12:13.812500,33.9,82.05
52539,2018-06-29 09:12:13.843750,34.59,82.05
52540,2018-06-29 09:12:13.875000,26.84,82.05
52541,2018-06-29 09:12:13.906250,25.75,82.05
52542,2018-06-29 09:12:13.937500,63.49,82.05
52543,2018-06-29 09:12:13.968750,116.3,82.05
52544,2018-06-29 09:12:14.000000,141.12,82.05
52545,2018-06-29 09:12:14.031250,143.49,82.05
52546,2018-06-29 09:12:14.062500,178.83,82.05
52547,2018-06-29 09:12:14.093750,272.55,82.05
52548,2018-06-29 09:12:14.125000,381.26,82.05
52549,2018-06-29 09:12:14.156250,470.53,82.05
52550,2018-06-29 09:12:14.187500,402.68,82.05
52551,2018-06-29 09:12:14.218750,141.31,82.05
52552,2018-06-29 09:12:14.250000,-98.22,82.05
52553,2018-06-29 09:12:14.281250,-230.65,82.05
52554,2018-06-29 09:12:14.312500,-291.83,82.05
52555,2018-06-29 09:12:14.343750,-300.52,82.05
52556,2018-06-29 09:12:14.375000,-261.79,82.05
52557,2018-06-29 09:12:14.406250,-227.23,82.05
52558,2018-06-29 09:12:14.437500,-215.32,82.05
52559,2018-06-29 09:12:14.468750,-205.51,82.05
52560,2018-06-29 09:12:14.500000,-161.94,82.05
52561,2018-06-29 09:12:14.531250,-107.96,82.0
52562,2018-06-29 09:12:14.562500,-79.89,82.0
52563,2018-06-29 09:12:14.593750,-78.52,82.0
52564,2018-06-29 09:12:14.625000,-68.37,82.0
52565,2018-06-29 09:12:14.656250,-19.04,82.0
52566,2018-06-29 09:12:14.687500,58.94,82.0
52567,2018-06-29 09:12:14.718750,134.03,82.0
52568,2018-06-29 09:12:14.750000,138.81,82.0
52569,2018-06-29 09:12:14.781250,80.37,82.0
52570,2018-06-29 09:12:14.812500,24.86,82.0
52571,2018-06-29 09:12:14.843750,-5.76,82.0
52572,2018-06-29 09:12:14.875000,-20.4,82.0
52573,2018-06-29 09:12:14.906250,-19.6,82.0
52574,2018-06-29 09:12:14.937500,-6.3,82.0
52575,2018-06-29 09:12:14.968750,3.75,82.0
52576,2018-06-29 09:12:15.000000,3.01,82.0
52577,2018-06-29 09:12:15.031250,-2.51,82.0
52578,2018-06-29 09:12:15.062500,-1.45,82.0
52579,2018-06-29 09:12:15.093750,5.37,82.0
52580,2018-06-29 09:12:15.125000,10.58,82.0
52581,2018-06-29 09:12:15.156250,9.5,82.0
52582,2018-06-29 09:12:15.187500,3.89,82.0
52583,2018-06-29 09:12:15.218750,-3.06,82.0
52584,2018-06-29 09:12:15.250000,-12.34,82.0
52585,2018-06-29 09:12:15.281250,-25.46,82.0
52586,2018-06-29 09:12:15.312500,-41.57,82.0
52587,2018-06-29 09:12:15.343750,-60.22,82.0
52588,2018-06-29 09:12:15.375000,-81.04,82.0
52589,2018-06-29 09:12:15.406250,-89.23,82.0
52590,2018-06-29 09:12:15.437500,-59.41,82.0
52591,2018-06-29 09:12:15.468750,7.02,82.0
52592,2018-06-29 09:12:15.500000,69.88,82.0
52593,2018-06-29 09:12:15.531250,96.56,81.93
52594,2018-06-29 09:12:15.562500,87.88,81.93
52595,2018-06-29 09:12:15.593750,58.77,81.93
52596,2018-06-29 09:12:15.625000,26.3,81.93
52597,2018-06-29 09:12:15.656250,0.4,81.93
52598,2018-06-29 09:12:15.687500,-14.74,81.93
52599,2018-06-29 09:12:15.718750,-26.46,81.93
52600,2018-06-29 09:12:15.750000,-41.5,81.93
52601,2018-06-29 09:12:15.781250,-55.44,81.93
52602,2018-06-29 09:12:15.812500,-61.28,81.93
52603,2018-06-29 09:12:15.843750,-60.59,81.93
52604,2018-06-29 09:12:15.875000,-56.0,81.93
52605,2018-06-29 09:12:15.906250,-49.33,81.93
52606,2018-06-29 09:12:15.937500,-38.97,81.93
52607,2018-06-29 09:12:15.968750,-25.08,81.93
52608,2018-06-29 09:12:16.000000,-8.33,81.93
52609,2018-06-29 09:12:16.031250,7.81,81.93
52610,2018-06-29 09:12:16.062500,18.87,81.93
52611,2018-06-29 09:12:16.093750,26.05,81.93
52612,2018-06-29 09:12:16.125000,32.16,81.93
52613,2018-06-29 09:12:16.156250,35.52,81.93
52614,2018-06-29 09:12:16.187500,36.05,81.93
52615,2018-06-29 09:12:16.218750,39.66,81.93
52616,2018-06-29 09:12:16.250000,48.03,81.93
52617,2018-06-29 09:12:16.281250,53.15,81.93
52618,2018-06-29 09:12:16.312500,49.04,81.93
52619,2018-06-29 09:12:16.343750,38.26,81.93
52620,2018-06-29 09:12:16.375000,24.99,81.93
52621,2018-06-29 09:12:16.406250,14.72,81.93
52622,2018-06-29 09:12:16.437500,9.12,81.93
52623,2018-06-29 09:12:16.468750,4.34,81.93
52624,2018-06-29 09:12:16.500000,-9.68,81.93
52625,2018-06-29 09:12:16.531250,-37.25,81.85
52626,2018-06-29 09:12:16.562500,-64.8,81.85
52627,2018-06-29 09:12:16.593750,-70.45,81.85
52628,2018-06-29 09:12:16.625000,-48.42,81.85
52629,2018-06-29 09:12:16.656250,-12.62,81.85
52630,2018-06-29 09:12:16.687500,21.42,81.85
52631,2018-06-29 09:12:16.718750,48.14,81.85
52632,2018-06-29 09:12:16.750000,70.52,81.85
52633,2018-06-29 09:12:16.781250,90.3,81.85
52634,2018-06-29 09:12:16.812500,105.43,81.85
52635,2018-06-29 09:12:16.843750,112.66,81.85
52636,2018-06-29 09:12:16.875000,113.02,81.85
52637,2018-06-29 09:12:16.906250,109.29,81.85
52638,2018-06-29 09:12:16.937500,99.3,81.85
52639,2018-06-29 09:12:16.968750,77.26,81.85
52640,2018-06-29 09:12:17.000000,38.14,81.85
52641,2018-06-29 09:12:17.031250,-6.87,81.85
52642,2018-06-29 09:12:17.062500,-45.63,81.85
52643,2018-06-29 09:12:17.093750,-75.42,81.85
52644,2018-06-29 09:12:17.125000,-101.85,81.85
52645,2018-06-29 09:12:17.156250,-126.23,81.85
52646,2018-06-29 09:12:17.187500,-147.92,81.85
52647,2018-06-29 09:12:17.218750,-171.67,81.85
52648,2018-06-29 09:12:17.250000,-194.41,81.85
52649,2018-06-29 09:12:17.281250,-212.57,81.85
52650,2018-06-29 09:12:17.312500,-207.68,81.85
52651,2018-06-29 09:12:17.343750,-171.05,81.85
52652,2018-06-29 09:12:17.375000,-105.88,81.85
52653,2018-06-29 09:12:17.406250,4.16,81.85
52654,2018-06-29 09:12:17.437500,98.46,81.85
52655,2018-06-29 09:12:17.468750,157.19,81.85
52656,2018-06-29 09:12:17.500000,190.63,81.85
52657,2018-06-29 09:12:17.531250,203.98,81.78
52658,2018-06-29 09:12:17.562500,200.23,81.78
52659,2018-06-29 09:12:17.593750,187.55,81.78
52660,2018-06-29 09:12:17.625000,166.08,81.78
52661,2018-06-29 09:12:17.656250,133.45,81.78
52662,2018-06-29 09:12:17.687500,87.08,81.78
52663,2018-06-29 09:12:17.718750,35.22,81.78
52664,2018-06-29 09:12:17.750000,-13.03,81.78
52665,2018-06-29 09:12:17.781250,-59.76,81.78
52666,2018-06-29 09:12:17.812500,-101.96,81.78
52667,2018-06-29 09:12:17.843750,-133.6,81.78
52668,2018-06-29 09:12:17.875000,-147.65,81.78
52669,2018-06-29 09:12:17.906250,-145.42,81.78
52670,2018-06-29 09:12:17.937500,-133.93,81.78
52671,2018-06-29 09:12:17.968750,-121.78,81.78
52672,2018-06-29 09:12:18.000000,-113.52,81.78
52673,2018-06-29 09:12:18.031250,-107.38,81.78
52674,2018-06-29 09:12:18.062500,-102.12,81.78
52675,2018-06-29 09:12:18.093750,-97.13,81.78
52676,2018-06-29 09:12:18.125000,-90.48,81.78
52677,2018-06-29 09:12:18.156250,-77.79,81.78
52678,2018-06-29 09:12:18.187500,-54.98,81.78
52679,2018-06-29 09:12:18.218750,-21.13,81.78
52680,2018-06-29 09:12:18.250000,17.95,81.78
52681,2018-06-29 09:12:18.281250,53.89,81.78
52682,2018-06-29 09:12:18.312500,82.45,81.78
52683,2018-06-29 09:12:18.343750,99.09,81.78
52684,2018-06-29 09:12:18.375000,91.94,81.78
52685,2018-06-29 09:12:18.406250,46.68,81.78
52686,2018-06-29 09:12:18.437500,-34.68,81.78
52687,2018-06-29 09:12:18.468750,-115.53,81.78
52688,2018-06-29 09:12:18.500000,-148.42,81.78
52689,2018-06-29 09:12:18.531250,-127.12,81.72
52690,2018-06-29 09:12:18.562500,-79.19,81.72
52691,2018-06-29 09:12:18.593750,-16.96,81.72
52692,2018-06-29 09:12:18.625000,53.75,81.72
52693,2018-06-29 09:12:18.656250,104.61,81.72
52694,2018-06-29 09:12:18.687500,115.9,81.72
52695,2018-06-29 09:12:18.718750,104.18,81.72
52696,2018-06-29 09:12:18.750000,90.47,81.72
52697,2018-06-29 09:12:18.781250,76.68,81.72
52698,2018-06-29 09:12:18.812500,60.35,81.72
52699,2018-06-29 09:12:18.843750,44.55,81.72
52700,2018-06-29 09:12:18.875000,27.61,81.72
52701,2018-06-29 09:12:18.906250,0.31,81.72
52702,2018-06-29 09:12:18.937500,-31.78,81.72
52703,2018-06-29 09:12:18.968750,-37.34,81.72
52704,2018-06-29 09:12:19.000000,-3.42,81.72
52705,2018-06-29 09:12:19.031250,27.04,81.72
52706,2018-06-29 09:12:19.062500,10.91,81.72
52707,2018-06-29 09:12:19.093750,-32.33,81.72
52708,2018-06-29 09:12:19.125000,-59.87,81.72
52709,2018-06-29 09:12:19.156250,-65.15,81.72
52710,2018-06-29 09:12:19.187500,-61.54,81.72
52711,2018-06-29 09:12:19.218750,-53.06,81.72
52712,2018-06-29 09:12:19.250000,-46.46,81.72
52713,2018-06-29 09:12:19.281250,-45.41,81.72
52714,2018-06-29 09:12:19.312500,-45.29,81.72
52715,2018-06-29 09:12:19.343750,-36.73,81.72
52716,2018-06-29 09:12:19.375000,-16.82,81.72
52717,2018-06-29 09:12:19.406250,13.6,81.72
52718,2018-06-29 09:12:19.437500,45.21,81.72
52719,2018-06-29 09:12:19.468750,59.05,81.72
52720,2018-06-29 09:12:19.500000,59.9,81.72
52721,2018-06-29 09:12:19.531250,69.0,81.7
52722,2018-06-29 09:12:19.562500,104.23,81.7
52723,2018-06-29 09:12:19.593750,137.89,81.7
52724,2018-06-29 09:12:19.625000,144.6,81.7
52725,2018-06-29 09:12:19.656250,138.65,81.7
52726,2018-06-29 09:12:19.687500,157.67,81.7
52727,2018-06-29 09:12:19.718750,216.23,81.7
52728,2018-06-29 09:12:19.750000,283.15,81.7
52729,2018-06-29 09:12:19.781250,330.29,81.7
52730,2018-06-29 09:12:19.812500,255.08,81.7
52731,2018-06-29 09:12:19.843750,67.46,81.7
52732,2018-06-29 09:12:19.875000,-43.94,81.7
52733,2018-06-29 09:12:19.906250,-78.33,81.7
52734,2018-06-29 09:12:19.937500,-112.72,81.7
52735,2018-06-29 09:12:19.968750,-122.12,81.7
52736,2018-06-29 09:12:20.000000,-73.59,81.7
52737,2018-06-29 09:12:20.031250,-28.43,81.7
52738,2018-06-29 09:12:20.062500,-19.61,81.7
52739,2018-06-29 09:12:20.093750,-15.73,81.7
52740,2018-06-29 09:12:20.125000,3.6,81.7
52741,2018-06-29 09:12:20.156250,-3.19,81.7
52742,2018-06-29 09:12:20.187500,-45.67,81.7
52743,2018-06-29 09:12:20.218750,-75.4,81.7
52744,2018-06-29 09:12:20.250000,-61.72,81.7
52745,2018-06-29 09:12:20.281250,-28.97,81.7
52746,2018-06-29 09:12:20.312500,-22.92,81.7
52747,2018-06-29 09:12:20.343750,-39.26,81.7
52748,2018-06-29 09:12:20.375000,-45.79,81.7
52749,2018-06-29 09:12:20.406250,-32.21,81.7
52750,2018-06-29 09:12:20.437500,-26.4,81.7
52751,2018-06-29 09:12:20.468750,-50.27,81.7
52752,2018-06-29 09:12:20.500000,-94.39,81.7
52753,2018-06-29 09:12:20.531250,-122.41,81.67
52754,2018-06-29 09:12:20.562500,-102.5,81.67
52755,2018-06-29 09:12:20.593750,-59.27,81.67
52756,2018-06-29 09:12:20.625000,-49.39,81.67
52757,2018-06-29 09:12:20.656250,-103.44,81.67
52758,2018-06-29 09:12:20.687500,-171.67,81.67
52759,2018-06-29 09:12:20.718750,-193.88,81.67
52760,2018-06-29 09:12:20.750000,-175.03,81.67
52761,2018-06-29 09:12:20.781250,-136.71,81.67
52762,2018-06-29 09:12:20.812500,-79.65,81.67
52763,2018-06-29 09:12:20.843750,-12.88,81.67
52764,2018-06-29 09:12:20.875000,40.16,81.67
52765,2018-06-29 09:12:20.906250,77.5,81.67
52766,2018-06-29 09:12:20.937500,104.81,81.67
52767,2018-06-29 09:12:20.968750,116.88,81.67
52768,2018-06-29 09:12:21.000000,119.21,81.67
52769,2018-06-29 09:12:21.031250,131.77,81.67
52770,2018-06-29 09:12:21.062500,168.69,81.67
52771,2018-06-29 09:12:21.093750,210.33,81.67
52772,2018-06-29 09:12:21.125000,235.53,81.67
52773,2018-06-29 09:12:21.156250,224.46,81.67
52774,2018-06-29 09:12:21.187500,130.89,81.67
52775,2018-06-29 09:12:21.218750,15.64,81.67
52776,2018-06-29 09:12:21.250000,-63.23,81.67
52777,2018-06-29 09:12:21.281250,-101.77,81.67
52778,2018-06-29 09:12:21.312500,-117.7,81.67
52779,2018-06-29 09:12:21.343750,-124.04,81.67
52780,2018-06-29 09:12:21.375000,-129.23,81.67
52781,2018-06-29 09:12:21.406250,-128.34,81.67
52782,2018-06-29 09:12:21.437500,-116.46,81.67
52783,2018-06-29 09:12:21.468750,-88.94,81.67
52784,2018-06-29 09:12:21.500000,-57.52,81.67
52785,2018-06-29 09:12:21.531250,-43.34,81.67
52786,2018-06-29 09:12:21.562500,-43.63,81.67
52787,2018-06-29 09:12:21.593750,-27.07,81.67
52788,2018-06-29 09:12:21.625000,31.24,81.67
52789,2018-06-29 09:12:21.656250,100.6,81.67
52790,2018-06-29 09:12:21.687500,140.97,81.67
52791,2018-06-29 09:12:21.718750,142.04,81.67
52792,2018-06-29 09:12:21.750000,119.82,81.67
52793,2018-06-29 09:12:21.781250,82.8,81.67
52794,2018-06-29 09:12:21.812500,32.93,81.67
52795,2018-06-29 09:12:21.843750,-9.89,81.67
52796,2018-06-29 09:12:21.875000,-35.98,81.67
52797,2018-06-29 09:12:21.906250,-51.79,81.67
52798,2018-06-29 09:12:21.937500,-64.14,81.67
52799,2018-06-29 09:12:21.968750,-67.15,81.67
52800,2018-06-29 09:12:22.000000,-55.69,81.67
52801,2018-06-29 09:12:22.031250,-38.28,81.67
52802,2018-06-29 09:12:22.062500,-24.42,81.67
52803,2018-06-29 09:12:22.093750,-12.5,81.67
52804,2018-06-29 09:12:22.125000,-1.12,81.67
52805,2018-06-29 09:12:22.156250,4.06,81.67
52806,2018-06-29 09:12:22.187500,-0.82,81.67
52807,2018-06-29 09:12:22.218750,-7.35,81.67
52808,2018-06-29 09:12:22.250000,-3.02,81.67
52809,2018-06-29 09:12:22.281250,12.25,81.67
52810,2018-06-29 09:12:22.312500,27.23,81.67
52811,2018-06-29 09:12:22.343750,33.4,81.67
52812,2018-06-29 09:12:22.375000,33.61,81.67
52813,2018-06-29 09:12:22.406250,32.95,81.67
52814,2018-06-29 09:12:22.437500,29.82,81.67
52815,2018-06-29 09:12:22.468750,21.32,81.67
52816,2018-06-29 09:12:22.500000,10.97,81.67
52817,2018-06-29 09:12:22.531250,3.55,81.68
52818,2018-06-29 09:12:22.562500,-3.38,81.68
52819,2018-06-29 09:12:22.593750,-15.06,81.68
52820,2018-06-29 09:12:22.625000,-31.01,81.68
52821,2018-06-29 09:12:22.656250,-43.71,81.68
52822,2018-06-29 09:12:22.687500,-46.44,81.68
52823,2018-06-29 09:12:22.718750,-37.81,81.68
52824,2018-06-29 09:12:22.750000,-23.61,81.68
52825,2018-06-29 09:12:22.781250,-9.79,81.68
52826,2018-06-29 09:12:22.812500,1.06,81.68
52827,2018-06-29 09:12:22.843750,9.37,81.68
52828,2018-06-29 09:12:22.875000,14.39,81.68
52829,2018-06-29 09:12:22.906250,13.08,81.68
52830,2018-06-29 09:12:22.937500,9.02,81.68
52831,2018-06-29 09:12:22.968750,9.5,81.68
52832,2018-06-29 09:12:23.000000,17.66,81.68
52833,2018-06-29 09:12:23.031250,18.71,81.68
52834,2018-06-29 09:12:23.062500,-1.66,81.68
52835,2018-06-29 09:12:23.093750,-35.26,81.68
52836,2018-06-29 09:12:23.125000,-57.04,81.68
52837,2018-06-29 09:12:23.156250,-38.17,81.68
52838,2018-06-29 09:12:23.187500,-4.78,81.68
52839,2018-06-29 09:12:23.218750,18.39,81.68
52840,2018-06-29 09:12:23.250000,40.07,81.68
52841,2018-06-29 09:12:23.281250,56.7,81.68
52842,2018-06-29 09:12:23.312500,50.79,81.68
52843,2018-06-29 09:12:23.343750,25.17,81.68
52844,2018-06-29 09:12:23.375000,0.8,81.68
52845,2018-06-29 09:12:23.406250,-11.27,81.68
52846,2018-06-29 09:12:23.437500,-19.25,81.68
52847,2018-06-29 09:12:23.468750,-36.02,81.68
52848,2018-06-29 09:12:23.500000,-51.09,81.68
52849,2018-06-29 09:12:23.531250,-55.38,81.77
52850,2018-06-29 09:12:23.562500,-48.27,81.77
52851,2018-06-29 09:12:23.593750,-24.7,81.77
52852,2018-06-29 09:12:23.625000,3.34,81.77
52853,2018-06-29 09:12:23.656250,29.76,81.77
52854,2018-06-29 09:12:23.687500,53.28,81.77
52855,2018-06-29 09:12:23.718750,67.32,81.77
52856,2018-06-29 09:12:23.750000,64.28,81.77
52857,2018-06-29 09:12:23.781250,43.23,81.77
52858,2018-06-29 09:12:23.812500,12.34,81.77
52859,2018-06-29 09:12:23.843750,-3.91,81.77
52860,2018-06-29 09:12:23.875000,11.29,81.77
52861,2018-06-29 09:12:23.906250,43.53,81.77
52862,2018-06-29 09:12:23.937500,66.85,81.77
52863,2018-06-29 09:12:23.968750,68.64,81.77
52864,2018-06-29 09:12:24.000000,53.09,81.77
52865,2018-06-29 09:12:24.031250,36.42,81.77
52866,2018-06-29 09:12:24.062500,29.04,81.77
52867,2018-06-29 09:12:24.093750,20.1,81.77
52868,2018-06-29 09:12:24.125000,3.33,81.77
52869,2018-06-29 09:12:24.156250,-11.34,81.77
52870,2018-06-29 09:12:24.187500,-15.55,81.77
52871,2018-06-29 09:12:24.218750,-13.07,81.77
52872,2018-06-29 09:12:24.250000,-4.99,81.77
52873,2018-06-29 09:12:24.281250,2.41,81.77
52874,2018-06-29 09:12:24.312500,5.87,81.77
52875,2018-06-29 09:12:24.343750,8.18,81.77
52876,2018-06-29 09:12:24.375000,16.84,81.77
52877,2018-06-29 09:12:24.406250,38.04,81.77
52878,2018-06-29 09:12:24.437500,53.09,81.77
52879,2018-06-29 09:12:24.468750,46.71,81.77
52880,2018-06-29 09:12:24.500000,27.78,81.77
52881,2018-06-29 09:12:24.531250,12.51,81.8
52882,2018-06-29 09:12:24.562500,-2.51,81.8
52883,2018-06-29 09:12:24.593750,-31.03,81.8
52884,2018-06-29 09:12:24.625000,-73.9,81.8
52885,2018-06-29 09:12:24.656250,-114.55,81.8
52886,2018-06-29 09:12:24.687500,-138.42,81.8
52887,2018-06-29 09:12:24.718750,-140.72,81.8
52888,2018-06-29 09:12:24.750000,-123.45,81.8
52889,2018-06-29 09:12:24.781250,-95.23,81.8
52890,2018-06-29 09:12:24.812500,-68.57,81.8
52891,2018-06-29 09:12:24.843750,-49.79,81.8
52892,2018-06-29 09:12:24.875000,-34.07,81.8
52893,2018-06-29 09:12:24.906250,-17.68,81.8
52894,2018-06-29 09:12:24.937500,-5.15,81.8
52895,2018-06-29 09:12:24.968750,-2.16,81.8
52896,2018-06-29 09:12:25.000000,-7.48,81.8
52897,2018-06-29 09:12:25.031250,-15.48,81.8
52898,2018-06-29 09:12:25.062500,-21.76,81.8
52899,2018-06-29 09:12:25.093750,-24.56,81.8
52900,2018-06-29 09:12:25.125000,-25.33,81.8
52901,2018-06-29 09:12:25.156250,-25.45,81.8
52902,2018-06-29 09:12:25.187500,-21.02,81.8
52903,2018-06-29 09:12:25.218750,-5.19,81.8
52904,2018-06-29 09:12:25.250000,21.22,81.8
52905,2018-06-29 09:12:25.281250,45.68,81.8
52906,2018-06-29 09:12:25.312500,55.11,81.8
52907,2018-06-29 09:12:25.343750,51.67,81.8
52908,2018-06-29 09:12:25.375000,50.19,81.8
52909,2018-06-29 09:12:25.406250,58.96,81.8
52910,2018-06-29 09:12:25.437500,67.23,81.8
52911,2018-06-29 09:12:25.468750,59.77,81.8
52912,2018-06-29 09:12:25.500000,38.28,81.8
52913,2018-06-29 09:12:25.531250,22.67,81.82
52914,2018-06-29 09:12:25.562500,30.17,81.82
52915,2018-06-29 09:12:25.593750,49.7,81.82
52916,2018-06-29 09:12:25.625000,40.43,81.82
52917,2018-06-29 09:12:25.656250,-28.74,81.82
52918,2018-06-29 09:12:25.687500,-127.02,81.82
52919,2018-06-29 09:12:25.718750,-190.99,81.82
52920,2018-06-29 09:12:25.750000,-198.29,81.82
52921,2018-06-29 09:12:25.781250,-177.49,81.82
52922,2018-06-29 09:12:25.812500,-150.38,81.82
52923,2018-06-29 09:12:25.843750,-117.41,81.82
52924,2018-06-29 09:12:25.875000,-94.73,81.82
52925,2018-06-29 09:12:25.906250,-93.18,81.82
52926,2018-06-29 09:12:25.937500,-92.84,81.82
52927,2018-06-29 09:12:25.968750,-57.68,81.82
52928,2018-06-29 09:12:26.000000,-0.29,81.82
52929,2018-06-29 09:12:26.031250,37.91,81.82
52930,2018-06-29 09:12:26.062500,50.24,81.82
52931,2018-06-29 09:12:26.093750,74.77,81.82
52932,2018-06-29 09:12:26.125000,144.47,81.82
52933,2018-06-29 09:12:26.156250,237.81,81.82
52934,2018-06-29 09:12:26.187500,320.17,81.82
52935,2018-06-29 09:12:26.218750,306.53,81.82
52936,2018-06-29 09:12:26.250000,171.86,81.82
52937,2018-06-29 09:12:26.281250,57.15,81.82
52938,2018-06-29 09:12:26.312500,5.61,81.82
52939,2018-06-29 09:12:26.343750,-21.53,81.82
52940,2018-06-29 09:12:26.375000,-25.86,81.82
52941,2018-06-29 09:12:26.406250,17.76,81.82
52942,2018-06-29 09:12:26.437500,74.57,81.82
52943,2018-06-29 09:12:26.468750,93.3,81.82
52944,2018-06-29 09:12:26.500000,76.43,81.82
52945,2018-06-29 09:12:26.531250,67.33,81.78
52946,2018-06-29 09:12:26.562500,61.35,81.78
52947,2018-06-29 09:12:26.593750,20.87,81.78
52948,2018-06-29 09:12:26.625000,-38.47,81.78
52949,2018-06-29 09:12:26.656250,-75.81,81.78
52950,2018-06-29 09:12:26.687500,-81.63,81.78
52951,2018-06-29 09:12:26.718750,-74.16,81.78
52952,2018-06-29 09:12:26.750000,-57.41,81.78
52953,2018-06-29 09:12:26.781250,-41.06,81.78
52954,2018-06-29 09:12:26.812500,-49.16,81.78
52955,2018-06-29 09:12:26.843750,-74.21,81.78
52956,2018-06-29 09:12:26.875000,-71.04,81.78
52957,2018-06-29 09:12:26.906250,1.97,81.78
52958,2018-06-29 09:12:26.937500,125.18,81.78
52959,2018-06-29 09:12:26.968750,237.02,81.78
52960,2018-06-29 09:12:27.000000,303.48,81.78
52961,2018-06-29 09:12:27.031250,304.13,81.78
52962,2018-06-29 09:12:27.062500,249.91,81.78
52963,2018-06-29 09:12:27.093750,179.65,81.78
52964,2018-06-29 09:12:27.125000,131.69,81.78
52965,2018-06-29 09:12:27.156250,89.11,81.78
52966,2018-06-29 09:12:27.187500,22.09,81.78
52967,2018-06-29 09:12:27.218750,-51.5,81.78
52968,2018-06-29 09:12:27.250000,-115.59,81.78
52969,2018-06-29 09:12:27.281250,-173.65,81.78
52970,2018-06-29 09:12:27.312500,-264.61,81.78
52971,2018-06-29 09:12:27.343750,-375.51,81.78
52972,2018-06-29 09:12:27.375000,-487.47,81.78
52973,2018-06-29 09:12:27.406250,-562.63,81.78
52974,2018-06-29 09:12:27.437500,-424.5,81.78
52975,2018-06-29 09:12:27.468750,-223.89,81.78
52976,2018-06-29 09:12:27.500000,-84.76,81.78
52977,2018-06-29 09:12:27.531250,6.06,81.7
52978,2018-06-29 09:12:27.562500,58.47,81.7
52979,2018-06-29 09:12:27.593750,56.33,81.7
52980,2018-06-29 09:12:27.625000,40.3,81.7
52981,2018-06-29 09:12:27.656250,41.77,81.7
52982,2018-06-29 09:12:27.687500,58.16,81.7
52983,2018-06-29 09:12:27.718750,69.96,81.7
52984,2018-06-29 09:12:27.750000,68.37,81.7
52985,2018-06-29 09:12:27.781250,68.1,81.7
52986,2018-06-29 09:12:27.812500,65.53,81.7
52987,2018-06-29 09:12:27.843750,61.43,81.7
52988,2018-06-29 09:12:27.875000,51.59,81.7
52989,2018-06-29 09:12:27.906250,42.82,81.7
52990,2018-06-29 09:12:27.937500,32.2,81.7
52991,2018-06-29 09:12:27.968750,17.07,81.7
52992,2018-06-29 09:12:28.000000,3.52,81.7
52993,2018-06-29 09:12:28.031250,-3.52,81.7
52994,2018-06-29 09:12:28.062500,1.78,81.7
52995,2018-06-29 09:12:28.093750,10.77,81.7
52996,2018-06-29 09:12:28.125000,1.03,81.7
52997,2018-06-29 09:12:28.156250,-35.05,81.7
52998,2018-06-29 09:12:28.187500,-52.96,81.7
52999,2018-06-29 09:12:28.218750,-19.06,81.7
53000,2018-06-29 09:12:28.250000,25.06,81.7
53001,2018-06-29 09:12:28.281250,30.95,81.7
53002,2018-06-29 09:12:28.312500,19.31,81.7
53003,2018-06-29 09:12:28.343750,21.07,81.7
53004,2018-06-29 09:12:28.375000,30.19,81.7
53005,2018-06-29 09:12:28.406250,37.98,81.7
53006,2018-06-29 09:12:28.437500,48.53,81.7
53007,2018-06-29 09:12:28.468750,53.46,81.7
53008,2018-06-29 09:12:28.500000,34.68,81.7
53009,2018-06-29 09:12:28.531250,-4.11,81.65
53010,2018-06-29 09:12:28.562500,-39.61,81.65
53011,2018-06-29 09:12:28.593750,-55.51,81.65
53012,2018-06-29 09:12:28.625000,-54.94,81.65
53013,2018-06-29 09:12:28.656250,-43.35,81.65
53014,2018-06-29 09:12:28.687500,-21.75,81.65
53015,2018-06-29 09:12:28.718750,4.0,81.65
53016,2018-06-29 09:12:28.750000,19.36,81.65
53017,2018-06-29 09:12:28.781250,12.68,81.65
53018,2018-06-29 09:12:28.812500,-11.23,81.65
53019,2018-06-29 09:12:28.843750,-41.11,81.65
53020,2018-06-29 09:12:28.875000,-67.96,81.65
53021,2018-06-29 09:12:28.906250,-87.2,81.65
53022,2018-06-29 09:12:28.937500,-91.9,81.65
53023,2018-06-29 09:12:28.968750,-80.94,81.65
53024,2018-06-29 09:12:29.000000,-64.19,81.65
53025,2018-06-29 09:12:29.031250,-48.93,81.65
53026,2018-06-29 09:12:29.062500,-32.25,81.65
53027,2018-06-29 09:12:29.093750,0.73,81.65
53028,2018-06-29 09:12:29.125000,56.36,81.65
53029,2018-06-29 09:12:29.156250,140.27,81.65
53030,2018-06-29 09:12:29.187500,237.39,81.65
53031,2018-06-29 09:12:29.218750,300.4,81.65
53032,2018-06-29 09:12:29.250000,313.32,81.65
53033,2018-06-29 09:12:29.281250,287.35,81.65
53034,2018-06-29 09:12:29.312500,239.78,81.65
53035,2018-06-29 09:12:29.343750,154.33,81.65
53036,2018-06-29 09:12:29.375000,59.49,81.65
53037,2018-06-29 09:12:29.406250,-5.49,81.65
53038,2018-06-29 09:12:29.437500,-44.49,81.65
53039,2018-06-29 09:12:29.468750,-70.9,81.65
53040,2018-06-29 09:12:29.500000,-90.56,81.65
53041,2018-06-29 09:12:29.531250,-114.77,81.62
53042,2018-06-29 09:12:29.562500,-161.38,81.62
53043,2018-06-29 09:12:29.593750,-226.36,81.62
53044,2018-06-29 09:12:29.625000,-282.61,81.62
53045,2018-06-29 09:12:29.656250,-294.97,81.62
53046,2018-06-29 09:12:29.687500,-258.78,81.62
53047,2018-06-29 09:12:29.718750,-196.4,81.62
53048,2018-06-29 09:12:29.750000,-127.57,81.62
53049,2018-06-29 09:12:29.781250,-52.05,81.62
53050,2018-06-29 09:12:29.812500,23.76,81.62
53051,2018-06-29 09:12:29.843750,75.91,81.62
53052,2018-06-29 09:12:29.875000,91.4,81.62
53053,2018-06-29 09:12:29.906250,79.45,81.62
53054,2018-06-29 09:12:29.937500,57.3,81.62
53055,2018-06-29 09:12:29.968750,38.09,81.62
53056,2018-06-29 09:12:30.000000,38.27,81.62
53057,2018-06-29 09:12:30.031250,67.95,81.62
53058,2018-06-29 09:12:30.062500,112.78,81.62
53059,2018-06-29 09:12:30.093750,143.99,81.62
53060,2018-06-29 09:12:30.125000,149.69,81.62
53061,2018-06-29 09:12:30.156250,139.78,81.62
53062,2018-06-29 09:12:30.187500,122.07,81.62
53063,2018-06-29 09:12:30.218750,93.7,81.62
53064,2018-06-29 09:12:30.250000,52.58,81.62
53065,2018-06-29 09:12:30.281250,0.84,81.62
53066,2018-06-29 09:12:30.312500,-57.81,81.62
53067,2018-06-29 09:12:30.343750,-111.86,81.62
53068,2018-06-29 09:12:30.375000,-143.49,81.62
53069,2018-06-29 09:12:30.406250,-146.04,81.62
53070,2018-06-29 09:12:30.437500,-128.44,81.62
53071,2018-06-29 09:12:30.468750,-99.34,81.62
53072,2018-06-29 09:12:30.500000,-60.27,81.62
53073,2018-06-29 09:12:30.531250,-15.44,81.53
53074,2018-06-29 09:12:30.562500,25.01,81.53
53075,2018-06-29 09:12:30.593750,53.1,81.53
53076,2018-06-29 09:12:30.625000,67.45,81.53
53077,2018-06-29 09:12:30.656250,71.61,81.53
53078,2018-06-29 09:12:30.687500,71.74,81.53
53079,2018-06-29 09:12:30.718750,73.42,81.53
53080,2018-06-29 09:12:30.750000,76.37,81.53
53081,2018-06-29 09:12:30.781250,74.66,81.53
53082,2018-06-29 09:12:30.812500,65.06,81.53
53083,2018-06-29 09:12:30.843750,50.33,81.53
53084,2018-06-29 09:12:30.875000,33.6,81.53
53085,2018-06-29 09:12:30.906250,15.61,81.53
53086,2018-06-29 09:12:30.937500,-2.14,81.53
53087,2018-06-29 09:12:30.968750,-18.96,81.53
53088,2018-06-29 09:12:31.000000,-38.44,81.53
53089,2018-06-29 09:12:31.031250,-62.65,81.53
53090,2018-06-29 09:12:31.062500,-84.19,81.53
53091,2018-06-29 09:12:31.093750,-92.27,81.53
53092,2018-06-29 09:12:31.125000,-86.11,81.53
53093,2018-06-29 09:12:31.156250,-73.39,81.53
53094,2018-06-29 09:12:31.187500,-56.49,81.53
53095,2018-06-29 09:12:31.218750,-31.82,81.53
53096,2018-06-29 09:12:31.250000,-2.51,81.53
53097,2018-06-29 09:12:31.281250,21.11,81.53
53098,2018-06-29 09:12:31.312500,33.3,81.53
53099,2018-06-29 09:12:31.343750,34.77,81.53
53100,2018-06-29 09:12:31.375000,26.8,81.53
53101,2018-06-29 09:12:31.406250,10.9,81.53
53102,2018-06-29 09:12:31.437500,-9.92,81.53
53103,2018-06-29 09:12:31.468750,-31.14,81.53
53104,2018-06-29 09:12:31.500000,-45.17,81.53
53105,2018-06-29 09:12:31.531250,-46.42,81.42
53106,2018-06-29 09:12:31.562500,-38.71,81.42
53107,2018-06-29 09:12:31.593750,-31.62,81.42
53108,2018-06-29 09:12:31.625000,-28.56,81.42
53109,2018-06-29 09:12:31.656250,-25.87,81.42
53110,2018-06-29 09:12:31.687500,-24.52,81.42
53111,2018-06-29 09:12:31.718750,-34.41,81.42
53112,2018-06-29 09:12:31.750000,-61.82,81.42
53113,2018-06-29 09:12:31.781250,-92.98,81.42
53114,2018-06-29 09:12:31.812500,-104.17,81.42
53115,2018-06-29 09:12:31.843750,-88.21,81.42
53116,2018-06-29 09:12:31.875000,-61.65,81.42
53117,2018-06-29 09:12:31.906250,-38.85,81.42
53118,2018-06-29 09:12:31.937500,-16.62,81.42
53119,2018-06-29 09:12:31.968750,11.91,81.42
53120,2018-06-29 09:12:32.000000,47.4,81.42
53121,2018-06-29 09:12:32.031250,81.03,81.42
53122,2018-06-29 09:12:32.062500,107.87,81.42
53123,2018-06-29 09:12:32.093750,139.12,81.42
53124,2018-06-29 09:12:32.125000,210.03,81.42
53125,2018-06-29 09:12:32.156250,336.1,81.42
53126,2018-06-29 09:12:32.187500,471.06,81.42
53127,2018-06-29 09:12:32.218750,534.28,81.42
53128,2018-06-29 09:12:32.250000,480.42,81.42
53129,2018-06-29 09:12:32.281250,342.45,81.42
53130,2018-06-29 09:12:32.312500,199.14,81.42
53131,2018-06-29 09:12:32.343750,137.36,81.42
53132,2018-06-29 09:12:32.375000,184.21,81.42
53133,2018-06-29 09:12:32.406250,291.46,81.42
53134,2018-06-29 09:12:32.437500,365.75,81.42
53135,2018-06-29 09:12:32.468750,253.68,81.42
53136,2018-06-29 09:12:32.500000,13.88,81.42
53137,2018-06-29 09:12:32.531250,-190.88,81.32
53138,2018-06-29 09:12:32.562500,-302.37,81.32
53139,2018-06-29 09:12:32.593750,-337.86,81.32
53140,2018-06-29 09:12:32.625000,-306.28,81.32
53141,2018-06-29 09:12:32.656250,-247.62,81.32
53142,2018-06-29 09:12:32.687500,-207.36,81.32
53143,2018-06-29 09:12:32.718750,-203.19,81.32
53144,2018-06-29 09:12:32.750000,-224.95,81.32
53145,2018-06-29 09:12:32.781250,-247.81,81.32
53146,2018-06-29 09:12:32.812500,-266.38,81.32
53147,2018-06-29 09:12:32.843750,-290.11,81.32
53148,2018-06-29 09:12:32.875000,-302.49,81.32
53149,2018-06-29 09:12:32.906250,-250.86,81.32
53150,2018-06-29 09:12:32.937500,-129.99,81.32
53151,2018-06-29 09:12:32.968750,-12.6,81.32
53152,2018-06-29 09:12:33.000000,52.68,81.32
53153,2018-06-29 09:12:33.031250,80.17,81.32
53154,2018-06-29 09:12:33.062500,73.74,81.32
53155,2018-06-29 09:12:33.093750,14.88,81.32
53156,2018-06-29 09:12:33.125000,-58.03,81.32
53157,2018-06-29 09:12:33.156250,-63.48,81.32
53158,2018-06-29 09:12:33.187500,-7.14,81.32
53159,2018-06-29 09:12:33.218750,57.68,81.32
53160,2018-06-29 09:12:33.250000,97.7,81.32
53161,2018-06-29 09:12:33.281250,98.45,81.32
53162,2018-06-29 09:12:33.312500,64.59,81.32
53163,2018-06-29 09:12:33.343750,18.62,81.32
53164,2018-06-29 09:12:33.375000,-6.06,81.32
53165,2018-06-29 09:12:33.406250,25.06,81.32
53166,2018-06-29 09:12:33.437500,92.71,81.32
53167,2018-06-29 09:12:33.468750,121.18,81.32
53168,2018-06-29 09:12:33.500000,74.38,81.32
53169,2018-06-29 09:12:33.531250,-5.38,81.22
53170,2018-06-29 09:12:33.562500,-69.3,81.22
53171,2018-06-29 09:12:33.593750,-108.87,81.22
53172,2018-06-29 09:12:33.625000,-135.41,81.22
53173,2018-06-29 09:12:33.656250,-147.4,81.22
53174,2018-06-29 09:12:33.687500,-144.4,81.22
53175,2018-06-29 09:12:33.718750,-129.2,81.22
53176,2018-06-29 09:12:33.750000,-97.47,81.22
53177,2018-06-29 09:12:33.781250,-45.23,81.22
53178,2018-06-29 09:12:33.812500,21.82,81.22
53179,2018-06-29 09:12:33.843750,91.3,81.22
53180,2018-06-29 09:12:33.875000,151.63,81.22
53181,2018-06-29 09:12:33.906250,177.65,81.22
53182,2018-06-29 09:12:33.937500,143.58,81.22
53183,2018-06-29 09:12:33.968750,66.94,81.22
53184,2018-06-29 09:12:34.000000,-20.64,81.22
53185,2018-06-29 09:12:34.031250,-92.77,81.22
53186,2018-06-29 09:12:34.062500,-133.72,81.22
53187,2018-06-29 09:12:34.093750,-135.64,81.22
53188,2018-06-29 09:12:34.125000,-103.97,81.22
53189,2018-06-29 09:12:34.156250,-56.82,81.22
53190,2018-06-29 09:12:34.187500,-16.28,81.22
53191,2018-06-29 09:12:34.218750,9.44,81.22
53192,2018-06-29 09:12:34.250000,23.55,81.22
53193,2018-06-29 09:12:34.281250,33.58,81.22
53194,2018-06-29 09:12:34.312500,40.93,81.22
53195,2018-06-29 09:12:34.343750,42.84,81.22
53196,2018-06-29 09:12:34.375000,41.72,81.22
53197,2018-06-29 09:12:34.406250,37.75,81.22
53198,2018-06-29 09:12:34.437500,26.69,81.22
53199,2018-06-29 09:12:34.468750,7.89,81.22
53200,2018-06-29 09:12:34.500000,-11.03,81.22
53201,2018-06-29 09:12:34.531250,-21.63,81.1
53202,2018-06-29 09:12:34.562500,-20.35,81.1
53203,2018-06-29 09:12:34.593750,-8.92,81.1
53204,2018-06-29 09:12:34.625000,7.02,81.1
53205,2018-06-29 09:12:34.656250,22.7,81.1
53206,2018-06-29 09:12:34.687500,37.34,81.1
53207,2018-06-29 09:12:34.718750,51.34,81.1
53208,2018-06-29 09:12:34.750000,61.94,81.1
53209,2018-06-29 09:12:34.781250,64.67,81.1
53210,2018-06-29 09:12:34.812500,57.33,81.1
53211,2018-06-29 09:12:34.843750,43.13,81.1
53212,2018-06-29 09:12:34.875000,30.79,81.1
53213,2018-06-29 09:12:34.906250,28.56,81.1
53214,2018-06-29 09:12:34.937500,36.26,81.1
53215,2018-06-29 09:12:34.968750,46.36,81.1
53216,2018-06-29 09:12:35.000000,53.8,81.1
53217,2018-06-29 09:12:35.031250,59.64,81.1
53218,2018-06-29 09:12:35.062500,65.04,81.1
53219,2018-06-29 09:12:35.093750,67.85,81.1
53220,2018-06-29 09:12:35.125000,67.49,81.1
53221,2018-06-29 09:12:35.156250,67.12,81.1
53222,2018-06-29 09:12:35.187500,67.91,81.1
53223,2018-06-29 09:12:35.218750,65.4,81.1
53224,2018-06-29 09:12:35.250000,55.15,81.1
53225,2018-06-29 09:12:35.281250,40.43,81.1
53226,2018-06-29 09:12:35.312500,29.74,81.1
53227,2018-06-29 09:12:35.343750,23.99,81.1
53228,2018-06-29 09:12:35.375000,12.94,81.1
53229,2018-06-29 09:12:35.406250,-8.46,81.1
53230,2018-06-29 09:12:35.437500,-27.57,81.1
53231,2018-06-29 09:12:35.468750,-31.4,81.1
53232,2018-06-29 09:12:35.500000,-29.21,81.1
53233,2018-06-29 09:12:35.531250,-40.4,80.97
53234,2018-06-29 09:12:35.562500,-64.87,80.97
53235,2018-06-29 09:12:35.593750,-78.99,80.97
53236,2018-06-29 09:12:35.625000,-57.63,80.97
53237,2018-06-29 09:12:35.656250,-2.62,80.97
53238,2018-06-29 09:12:35.687500,44.59,80.97
53239,2018-06-29 09:12:35.718750,39.73,80.97
53240,2018-06-29 09:12:35.750000,-12.11,80.97
53241,2018-06-29 09:12:35.781250,-72.99,80.97
53242,2018-06-29 09:12:35.812500,-133.14,80.97
53243,2018-06-29 09:12:35.843750,-215.81,80.97
53244,2018-06-29 09:12:35.875000,-318.21,80.97
53245,2018-06-29 09:12:35.906250,-386.7,80.97
53246,2018-06-29 09:12:35.937500,-373.2,80.97
53247,2018-06-29 09:12:35.968750,-291.17,80.97
53248,2018-06-29 09:12:36.000000,-190.26,80.97
53249,2018-06-29 09:12:36.031250,-101.89,80.97
53250,2018-06-29 09:12:36.062500,-39.57,80.97
53251,2018-06-29 09:12:36.093750,-14.43,80.97
53252,2018-06-29 09:12:36.125000,-17.16,80.97
53253,2018-06-29 09:12:36.156250,-19.04,80.97
53254,2018-06-29 09:12:36.187500,-8.38,80.97
53255,2018-06-29 09:12:36.218750,-2.11,80.97
53256,2018-06-29 09:12:36.250000,-19.42,80.97
53257,2018-06-29 09:12:36.281250,-54.91,80.97
53258,2018-06-29 09:12:36.312500,-76.14,80.97
53259,2018-06-29 09:12:36.343750,-55.98,80.97
53260,2018-06-29 09:12:36.375000,-8.97,80.97
53261,2018-06-29 09:12:36.406250,25.19,80.97
53262,2018-06-29 09:12:36.437500,30.1,80.97
53263,2018-06-29 09:12:36.468750,24.93,80.97
53264,2018-06-29 09:12:36.500000,40.37,80.97
53265,2018-06-29 09:12:36.531250,88.43,80.83
53266,2018-06-29 09:12:36.562500,146.06,80.83
53267,2018-06-29 09:12:36.593750,176.11,80.83
53268,2018-06-29 09:12:36.625000,166.28,80.83
53269,2018-06-29 09:12:36.656250,130.16,80.83
53270,2018-06-29 09:12:36.687500,83.0,80.83
53271,2018-06-29 09:12:36.718750,33.64,80.83
53272,2018-06-29 09:12:36.750000,-15.11,80.83
53273,2018-06-29 09:12:36.781250,-62.94,80.83
53274,2018-06-29 09:12:36.812500,-98.82,80.83
53275,2018-06-29 09:12:36.843750,-104.38,80.83
53276,2018-06-29 09:12:36.875000,-76.98,80.83
53277,2018-06-29 09:12:36.906250,-35.92,80.83
53278,2018-06-29 09:12:36.937500,-4.21,80.83
53279,2018-06-29 09:12:36.968750,9.26,80.83
53280,2018-06-29 09:12:37.000000,12.59,80.83
53281,2018-06-29 09:12:37.031250,23.91,80.83
53282,2018-06-29 09:12:37.062500,53.11,80.83
53283,2018-06-29 09:12:37.093750,93.46,80.83
53284,2018-06-29 09:12:37.125000,132.35,80.83
53285,2018-06-29 09:12:37.156250,161.14,80.83
53286,2018-06-29 09:12:37.187500,175.91,80.83
53287,2018-06-29 09:12:37.218750,178.29,80.83
53288,2018-06-29 09:12:37.250000,180.5,80.83
53289,2018-06-29 09:12:37.281250,187.85,80.83
53290,2018-06-29 09:12:37.312500,197.9,80.83
53291,2018-06-29 09:12:37.343750,209.32,80.83
53292,2018-06-29 09:12:37.375000,227.38,80.83
53293,2018-06-29 09:12:37.406250,251.72,80.83
53294,2018-06-29 09:12:37.437500,271.54,80.83
53295,2018-06-29 09:12:37.468750,281.77,80.83
53296,2018-06-29 09:12:37.500000,283.66,80.83
53297,2018-06-29 09:12:37.531250,283.09,80.75
53298,2018-06-29 09:12:37.562500,270.5,80.75
53299,2018-06-29 09:12:37.593750,237.21,80.75
53300,2018-06-29 09:12:37.625000,172.41,80.75
53301,2018-06-29 09:12:37.656250,29.93,80.75
53302,2018-06-29 09:12:37.687500,-125.68,80.75
53303,2018-06-29 09:12:37.718750,-217.32,80.75
53304,2018-06-29 09:12:37.750000,-249.5,80.75
53305,2018-06-29 09:12:37.781250,-257.09,80.75
53306,2018-06-29 09:12:37.812500,-247.95,80.75
53307,2018-06-29 09:12:37.843750,-234.43,80.75
53308,2018-06-29 09:12:37.875000,-223.51,80.75
53309,2018-06-29 09:12:37.906250,-215.04,80.75
53310,2018-06-29 09:12:37.937500,-199.6,80.75
53311,2018-06-29 09:12:37.968750,-173.37,80.75
53312,2018-06-29 09:12:38.000000,-146.57,80.75
53313,2018-06-29 09:12:38.031250,-127.34,80.75
53314,2018-06-29 09:12:38.062500,-113.12,80.75
53315,2018-06-29 09:12:38.093750,-94.7,80.75
53316,2018-06-29 09:12:38.125000,-74.67,80.75
53317,2018-06-29 09:12:38.156250,-61.93,80.75
53318,2018-06-29 09:12:38.187500,-57.94,80.75
53319,2018-06-29 09:12:38.218750,-55.82,80.75
53320,2018-06-29 09:12:38.250000,-51.66,80.75
53321,2018-06-29 09:12:38.281250,-49.59,80.75
53322,2018-06-29 09:12:38.312500,-54.16,80.75
53323,2018-06-29 09:12:38.343750,-63.91,80.75
53324,2018-06-29 09:12:38.375000,-70.0,80.75
53325,2018-06-29 09:12:38.406250,-64.24,80.75
53326,2018-06-29 09:12:38.437500,-48.05,80.75
53327,2018-06-29 09:12:38.468750,-31.43,80.75
53328,2018-06-29 09:12:38.500000,-21.3,80.75
53329,2018-06-29 09:12:38.531250,-14.95,80.65
53330,2018-06-29 09:12:38.562500,-8.5,80.65
53331,2018-06-29 09:12:38.593750,-3.8,80.65
53332,2018-06-29 09:12:38.625000,-5.2,80.65
53333,2018-06-29 09:12:38.656250,-11.45,80.65
53334,2018-06-29 09:12:38.687500,-16.2,80.65
53335,2018-06-29 09:12:38.718750,-12.34,80.65
53336,2018-06-29 09:12:38.750000,4.27,80.65
53337,2018-06-29 09:12:38.781250,28.06,80.65
53338,2018-06-29 09:12:38.812500,47.1,80.65
53339,2018-06-29 09:12:38.843750,56.1,80.65
53340,2018-06-29 09:12:38.875000,67.81,80.65
53341,2018-06-29 09:12:38.906250,91.98,80.65
53342,2018-06-29 09:12:38.937500,117.18,80.65
53343,2018-06-29 09:12:38.968750,132.5,80.65
53344,2018-06-29 09:12:39.000000,130.28,80.65
53345,2018-06-29 09:12:39.031250,111.69,80.65
53346,2018-06-29 09:12:39.062500,83.96,80.65
53347,2018-06-29 09:12:39.093750,59.22,80.65
53348,2018-06-29 09:12:39.125000,43.99,80.65
53349,2018-06-29 09:12:39.156250,34.84,80.65
53350,2018-06-29 09:12:39.187500,22.93,80.65
53351,2018-06-29 09:12:39.218750,6.38,80.65
53352,2018-06-29 09:12:39.250000,-5.99,80.65
53353,2018-06-29 09:12:39.281250,-4.69,80.65
53354,2018-06-29 09:12:39.312500,7.64,80.65
53355,2018-06-29 09:12:39.343750,17.22,80.65
53356,2018-06-29 09:12:39.375000,14.17,80.65
53357,2018-06-29 09:12:39.406250,-1.64,80.65
53358,2018-06-29 09:12:39.437500,-25.65,80.65
53359,2018-06-29 09:12:39.468750,-52.97,80.65
53360,2018-06-29 09:12:39.500000,-76.49,80.65
53361,2018-06-29 09:12:39.531250,-89.18,80.55
53362,2018-06-29 09:12:39.562500,-88.8,80.55
53363,2018-06-29 09:12:39.593750,-78.99,80.55
53364,2018-06-29 09:12:39.625000,-67.14,80.55
53365,2018-06-29 09:12:39.656250,-61.1,80.55
53366,2018-06-29 09:12:39.687500,-65.97,80.55
53367,2018-06-29 09:12:39.718750,-79.95,80.55
53368,2018-06-29 09:12:39.750000,-90.93,80.55
53369,2018-06-29 09:12:39.781250,-83.25,80.55
53370,2018-06-29 09:12:39.812500,-53.1,80.55
53371,2018-06-29 09:12:39.843750,-10.47,80.55
53372,2018-06-29 09:12:39.875000,34.32,80.55
53373,2018-06-29 09:12:39.906250,75.34,80.55
53374,2018-06-29 09:12:39.937500,104.59,80.55
53375,2018-06-29 09:12:39.968750,114.68,80.55
53376,2018-06-29 09:12:40.000000,107.6,80.55
53377,2018-06-29 09:12:40.031250,92.05,80.55
53378,2018-06-29 09:12:40.062500,74.42,80.55
53379,2018-06-29 09:12:40.093750,57.81,80.55
53380,2018-06-29 09:12:40.125000,44.55,80.55
53381,2018-06-29 09:12:40.156250,34.33,80.55
53382,2018-06-29 09:12:40.187500,24.3,80.55
53383,2018-06-29 09:12:40.218750,12.76,80.55
53384,2018-06-29 09:12:40.250000,0.41,80.55
53385,2018-06-29 09:12:40.281250,-11.24,80.55
53386,2018-06-29 09:12:40.312500,-20.74,80.55
53387,2018-06-29 09:12:40.343750,-27.86,80.55
53388,2018-06-29 09:12:40.375000,-34.49,80.55
53389,2018-06-29 09:12:40.406250,-42.4,80.55
53390,2018-06-29 09:12:40.437500,-51.47,80.55
53391,2018-06-29 09:12:40.468750,-60.19,80.55
53392,2018-06-29 09:12:40.500000,-65.29,80.55
53393,2018-06-29 09:12:40.531250,-62.55,80.47
53394,2018-06-29 09:12:40.562500,-50.98,80.47
53395,2018-06-29 09:12:40.593750,-34.69,80.47
53396,2018-06-29 09:12:40.625000,-18.87,80.47
53397,2018-06-29 09:12:40.656250,-5.98,80.47
53398,2018-06-29 09:12:40.687500,3.32,80.47
53399,2018-06-29 09:12:40.718750,9.34,80.47
53400,2018-06-29 09:12:40.750000,13.5,80.47
53401,2018-06-29 09:12:40.781250,16.46,80.47
53402,2018-06-29 09:12:40.812500,16.99,80.47
53403,2018-06-29 09:12:40.843750,14.72,80.47
53404,2018-06-29 09:12:40.875000,11.95,80.47
53405,2018-06-29 09:12:40.906250,10.71,80.47
53406,2018-06-29 09:12:40.937500,9.86,80.47
53407,2018-06-29 09:12:40.968750,6.97,80.47
53408,2018-06-29 09:12:41.000000,1.54,80.47
53409,2018-06-29 09:12:41.031250,-4.88,80.47
53410,2018-06-29 09:12:41.062500,-10.64,80.47
53411,2018-06-29 09:12:41.093750,-15.53,80.47
53412,2018-06-29 09:12:41.125000,-21.15,80.47
53413,2018-06-29 09:12:41.156250,-29.83,80.47
53414,2018-06-29 09:12:41.187500,-40.39,80.47
53415,2018-06-29 09:12:41.218750,-45.75,80.47
53416,2018-06-29 09:12:41.250000,-39.28,80.47
53417,2018-06-29 09:12:41.281250,-23.54,80.47
53418,2018-06-29 09:12:41.312500,-7.53,80.47
53419,2018-06-29 09:12:41.343750,3.83,80.47
53420,2018-06-29 09:12:41.375000,11.9,80.47
53421,2018-06-29 09:12:41.406250,17.88,80.47
53422,2018-06-29 09:12:41.437500,21.02,80.47
53423,2018-06-29 09:12:41.468750,21.63,80.47
53424,2018-06-29 09:12:41.500000,20.59,80.47
53425,2018-06-29 09:12:41.531250,16.91,80.38
53426,2018-06-29 09:12:41.562500,9.72,80.38
53427,2018-06-29 09:12:41.593750,1.56,80.38
53428,2018-06-29 09:12:41.625000,-4.28,80.38
53429,2018-06-29 09:12:41.656250,-8.86,80.38
53430,2018-06-29 09:12:41.687500,-16.73,80.38
53431,2018-06-29 09:12:41.718750,-29.06,80.38
53432,2018-06-29 09:12:41.750000,-41.67,80.38
53433,2018-06-29 09:12:41.781250,-48.71,80.38
53434,2018-06-29 09:12:41.812500,-50.03,80.38
53435,2018-06-29 09:12:41.843750,-51.76,80.38
53436,2018-06-29 09:12:41.875000,-58.32,80.38
53437,2018-06-29 09:12:41.906250,-64.8,80.38
53438,2018-06-29 09:12:41.937500,-60.97,80.38
53439,2018-06-29 09:12:41.968750,-45.94,80.38
53440,2018-06-29 09:12:42.000000,-27.21,80.38
53441,2018-06-29 09:12:42.031250,-10.17,80.38
53442,2018-06-29 09:12:42.062500,10.08,80.38
53443,2018-06-29 09:12:42.093750,37.8,80.38
53444,2018-06-29 09:12:42.125000,68.28,80.38
53445,2018-06-29 09:12:42.156250,92.17,80.38
53446,2018-06-29 09:12:42.187500,108.36,80.38
53447,2018-06-29 09:12:42.218750,133.78,80.38
53448,2018-06-29 09:12:42.250000,183.66,80.38
53449,2018-06-29 09:12:42.281250,254.83,80.38
53450,2018-06-29 09:12:42.312500,301.62,80.38
53451,2018-06-29 09:12:42.343750,272.61,80.38
53452,2018-06-29 09:12:42.375000,195.8,80.38
53453,2018-06-29 09:12:42.406250,116.75,80.38
53454,2018-06-29 09:12:42.437500,52.89,80.38
53455,2018-06-29 09:12:42.468750,18.91,80.38
53456,2018-06-29 09:12:42.500000,19.53,80.38
53457,2018-06-29 09:12:42.531250,33.68,80.22
53458,2018-06-29 09:12:42.562500,40.13,80.22
53459,2018-06-29 09:12:42.593750,32.35,80.22
53460,2018-06-29 09:12:42.625000,14.4,80.22
53461,2018-06-29 09:12:42.656250,-14.56,80.22
53462,2018-06-29 09:12:42.687500,-59.24,80.22
53463,2018-06-29 09:12:42.718750,-107.72,80.22
53464,2018-06-29 09:12:42.750000,-137.19,80.22
53465,2018-06-29 09:12:42.781250,-145.55,80.22
53466,2018-06-29 09:12:42.812500,-143.92,80.22
53467,2018-06-29 09:12:42.843750,-142.27,80.22
53468,2018-06-29 09:12:42.875000,-142.63,80.22
53469,2018-06-29 09:12:42.906250,-142.63,80.22
53470,2018-06-29 09:12:42.937500,-139.94,80.22
53471,2018-06-29 09:12:42.968750,-127.73,80.22
53472,2018-06-29 09:12:43.000000,-97.26,80.22
53473,2018-06-29 09:12:43.031250,-49.98,80.22
53474,2018-06-29 09:12:43.062500,1.25,80.22
53475,2018-06-29 09:12:43.093750,45.03,80.22
53476,2018-06-29 09:12:43.125000,73.17,80.22
53477,2018-06-29 09:12:43.156250,73.72,80.22
53478,2018-06-29 09:12:43.187500,36.13,80.22
53479,2018-06-29 09:12:43.218750,-29.34,80.22
53480,2018-06-29 09:12:43.250000,-102.07,80.22
53481,2018-06-29 09:12:43.281250,-170.46,80.22
53482,2018-06-29 09:12:43.312500,-217.18,80.22
53483,2018-06-29 09:12:43.343750,-210.94,80.22
53484,2018-06-29 09:12:43.375000,-149.69,80.22
53485,2018-06-29 09:12:43.406250,-75.4,80.22
53486,2018-06-29 09:12:43.437500,-16.08,80.22
53487,2018-06-29 09:12:43.468750,36.37,80.22
53488,2018-06-29 09:12:43.500000,86.24,80.22
53489,2018-06-29 09:12:43.531250,122.0,80.0
53490,2018-06-29 09:12:43.562500,143.24,80.0
53491,2018-06-29 09:12:43.593750,154.39,80.0
53492,2018-06-29 09:12:43.625000,148.86,80.0
53493,2018-06-29 09:12:43.656250,121.93,80.0
53494,2018-06-29 09:12:43.687500,81.55,80.0
53495,2018-06-29 09:12:43.718750,44.98,80.0
53496,2018-06-29 09:12:43.750000,11.79,80.0
53497,2018-06-29 09:12:43.781250,-26.6,80.0
53498,2018-06-29 09:12:43.812500,-63.61,80.0
53499,2018-06-29 09:12:43.843750,-88.56,80.0
53500,2018-06-29 09:12:43.875000,-102.06,80.0
53501,2018-06-29 09:12:43.906250,-110.63,80.0
53502,2018-06-29 09:12:43.937500,-115.5,80.0
53503,2018-06-29 09:12:43.968750,-112.7,80.0
53504,2018-06-29 09:12:44.000000,-102.93,80.0
53505,2018-06-29 09:12:44.031250,-94.77,80.0
53506,2018-06-29 09:12:44.062500,-91.1,80.0
53507,2018-06-29 09:12:44.093750,-84.18,80.0
53508,2018-06-29 09:12:44.125000,-68.11,80.0
53509,2018-06-29 09:12:44.156250,-49.15,80.0
53510,2018-06-29 09:12:44.187500,-36.6,80.0
53511,2018-06-29 09:12:44.218750,-29.47,80.0
53512,2018-06-29 09:12:44.250000,-16.59,80.0
53513,2018-06-29 09:12:44.281250,18.32,80.0
53514,2018-06-29 09:12:44.312500,80.4,80.0
53515,2018-06-29 09:12:44.343750,141.19,80.0
53516,2018-06-29 09:12:44.375000,155.0,80.0
53517,2018-06-29 09:12:44.406250,112.9,80.0
53518,2018-06-29 09:12:44.437500,52.5,80.0
53519,2018-06-29 09:12:44.468750,8.43,80.0
53520,2018-06-29 09:12:44.500000,-15.59,80.0
53521,2018-06-29 09:12:44.531250,-27.43,79.75
53522,2018-06-29 09:12:44.562500,-33.02,79.75
53523,2018-06-29 09:12:44.593750,-36.95,79.75
53524,2018-06-29 09:12:44.625000,-43.92,79.75
53525,2018-06-29 09:12:44.656250,-53.51,79.75
53526,2018-06-29 09:12:44.687500,-64.04,79.75
53527,2018-06-29 09:12:44.718750,-78.15,79.75
53528,2018-06-29 09:12:44.750000,-97.82,79.75
53529,2018-06-29 09:12:44.781250,-114.79,79.75
53530,2018-06-29 09:12:44.812500,-116.37,79.75
53531,2018-06-29 09:12:44.843750,-106.1,79.75
53532,2018-06-29 09:12:44.875000,-95.73,79.75
53533,2018-06-29 09:12:44.906250,-93.73,79.75
53534,2018-06-29 09:12:44.937500,-92.66,79.75
53535,2018-06-29 09:12:44.968750,-80.36,79.75
53536,2018-06-29 09:12:45.000000,-47.08,79.75
53537,2018-06-29 09:12:45.031250,0.12,79.75
53538,2018-06-29 09:12:45.062500,39.85,79.75
53539,2018-06-29 09:12:45.093750,70.36,79.75
53540,2018-06-29 09:12:45.125000,87.82,79.75
53541,2018-06-29 09:12:45.156250,102.83,79.75
53542,2018-06-29 09:12:45.187500,120.68,79.75
53543,2018-06-29 09:12:45.218750,163.42,79.75
53544,2018-06-29 09:12:45.250000,229.34,79.75
53545,2018-06-29 09:12:45.281250,307.83,79.75
53546,2018-06-29 09:12:45.312500,402.1,79.75
53547,2018-06-29 09:12:45.343750,510.61,79.75
53548,2018-06-29 09:12:45.375000,620.81,79.75
53549,2018-06-29 09:12:45.406250,669.22,79.75
53550,2018-06-29 09:12:45.437500,651.66,79.75
53551,2018-06-29 09:12:45.468750,560.4,79.75
53552,2018-06-29 09:12:45.500000,328.11,79.75
53553,2018-06-29 09:12:45.531250,146.6,79.55
53554,2018-06-29 09:12:45.562500,7.2,79.55
53555,2018-06-29 09:12:45.593750,-102.17,79.55
53556,2018-06-29 09:12:45.625000,-189.62,79.55
53557,2018-06-29 09:12:45.656250,-244.0,79.55
53558,2018-06-29 09:12:45.687500,-296.86,79.55
53559,2018-06-29 09:12:45.718750,-315.51,79.55
53560,2018-06-29 09:12:45.750000,-303.09,79.55
53561,2018-06-29 09:12:45.781250,-263.65,79.55
53562,2018-06-29 09:12:45.812500,-197.57,79.55
53563,2018-06-29 09:12:45.843750,-114.71,79.55
53564,2018-06-29 09:12:45.875000,-42.46,79.55
53565,2018-06-29 09:12:45.906250,-11.72,79.55
53566,2018-06-29 09:12:45.937500,-4.79,79.55
53567,2018-06-29 09:12:45.968750,-2.38,79.55
53568,2018-06-29 09:12:46.000000,5.74,79.55
53569,2018-06-29 09:12:46.031250,-9.45,79.55
53570,2018-06-29 09:12:46.062500,-67.11,79.55
53571,2018-06-29 09:12:46.093750,-137.59,79.55
53572,2018-06-29 09:12:46.125000,-171.54,79.55
53573,2018-06-29 09:12:46.156250,-153.72,79.55
53574,2018-06-29 09:12:46.187500,-111.41,79.55
53575,2018-06-29 09:12:46.218750,-70.99,79.55
53576,2018-06-29 09:12:46.250000,-47.67,79.55
53577,2018-06-29 09:12:46.281250,-52.86,79.55
53578,2018-06-29 09:12:46.312500,-84.71,79.55
53579,2018-06-29 09:12:46.343750,-117.17,79.55
53580,2018-06-29 09:12:46.375000,-119.59,79.55
53581,2018-06-29 09:12:46.406250,-98.75,79.55
53582,2018-06-29 09:12:46.437500,-73.36,79.55
53583,2018-06-29 09:12:46.468750,-52.37,79.55
53584,2018-06-29 09:12:46.500000,-30.12,79.55
53585,2018-06-29 09:12:46.531250,-5.67,79.32
53586,2018-06-29 09:12:46.562500,11.59,79.32
53587,2018-06-29 09:12:46.593750,14.74,79.32
53588,2018-06-29 09:12:46.625000,7.29,79.32
53589,2018-06-29 09:12:46.656250,3.13,79.32
53590,2018-06-29 09:12:46.687500,5.66,79.32
53591,2018-06-29 09:12:46.718750,5.42,79.32
53592,2018-06-29 09:12:46.750000,-5.58,79.32
53593,2018-06-29 09:12:46.781250,-18.5,79.32
53594,2018-06-29 09:12:46.812500,-21.18,79.32
53595,2018-06-29 09:12:46.843750,-17.43,79.32
53596,2018-06-29 09:12:46.875000,-23.0,79.32
53597,2018-06-29 09:12:46.906250,-46.7,79.32
53598,2018-06-29 09:12:46.937500,-71.75,79.32
53599,2018-06-29 09:12:46.968750,-64.93,79.32
53600,2018-06-29 09:12:47.000000,-1.94,79.32
53601,2018-06-29 09:12:47.031250,94.73,79.32
53602,2018-06-29 09:12:47.062500,140.13,79.32
53603,2018-06-29 09:12:47.093750,112.8,79.32
53604,2018-06-29 09:12:47.125000,75.79,79.32
53605,2018-06-29 09:12:47.156250,63.92,79.32
53606,2018-06-29 09:12:47.187500,59.91,79.32
53607,2018-06-29 09:12:47.218750,57.03,79.32
53608,2018-06-29 09:12:47.250000,64.55,79.32
53609,2018-06-29 09:12:47.281250,74.26,79.32
53610,2018-06-29 09:12:47.312500,69.1,79.32
53611,2018-06-29 09:12:47.343750,53.21,79.32
53612,2018-06-29 09:12:47.375000,37.37,79.32
53613,2018-06-29 09:12:47.406250,17.99,79.32
53614,2018-06-29 09:12:47.437500,-2.67,79.32
53615,2018-06-29 09:12:47.468750,-14.51,79.32
53616,2018-06-29 09:12:47.500000,-30.0,79.32
53617,2018-06-29 09:12:47.531250,-75.1,79.28
53618,2018-06-29 09:12:47.562500,-149.8,79.28
53619,2018-06-29 09:12:47.593750,-220.73,79.28
53620,2018-06-29 09:12:47.625000,-241.13,79.28
53621,2018-06-29 09:12:47.656250,-190.22,79.28
53622,2018-06-29 09:12:47.687500,-87.77,79.28
53623,2018-06-29 09:12:47.718750,20.04,79.28
53624,2018-06-29 09:12:47.750000,70.32,79.28
53625,2018-06-29 09:12:47.781250,40.5,79.28
53626,2018-06-29 09:12:47.812500,-23.18,79.28
53627,2018-06-29 09:12:47.843750,-40.07,79.28
53628,2018-06-29 09:12:47.875000,2.21,79.28
53629,2018-06-29 09:12:47.906250,73.6,79.28
53630,2018-06-29 09:12:47.937500,148.23,79.28
53631,2018-06-29 09:12:47.968750,196.06,79.28
53632,2018-06-29 09:12:48.000000,184.06,79.28
53633,2018-06-29 09:12:48.031250,126.31,79.28
53634,2018-06-29 09:12:48.062500,60.39,79.28
53635,2018-06-29 09:12:48.093750,-0.58,79.28
53636,2018-06-29 09:12:48.125000,-57.44,79.28
53637,2018-06-29 09:12:48.156250,-98.31,79.28
53638,2018-06-29 09:12:48.187500,-108.85,79.28
53639,2018-06-29 09:12:48.218750,-94.16,79.28
53640,2018-06-29 09:12:48.250000,-69.55,79.28
53641,2018-06-29 09:12:48.281250,-43.58,79.28
53642,2018-06-29 09:12:48.312500,-10.0,79.28
53643,2018-06-29 09:12:48.343750,32.77,79.28
53644,2018-06-29 09:12:48.375000,72.19,79.28
53645,2018-06-29 09:12:48.406250,99.87,79.28
53646,2018-06-29 09:12:48.437500,107.71,79.28
53647,2018-06-29 09:12:48.468750,94.91,79.28
53648,2018-06-29 09:12:48.500000,65.16,79.28
53649,2018-06-29 09:12:48.531250,24.61,79.22
53650,2018-06-29 09:12:48.562500,-18.42,79.22
53651,2018-06-29 09:12:48.593750,-54.38,79.22
53652,2018-06-29 09:12:48.625000,-76.2,79.22
53653,2018-06-29 09:12:48.656250,-86.74,79.22
53654,2018-06-29 09:12:48.687500,-83.77,79.22
53655,2018-06-29 09:12:48.718750,-66.01,79.22
53656,2018-06-29 09:12:48.750000,-41.41,79.22
53657,2018-06-29 09:12:48.781250,-24.01,79.22
53658,2018-06-29 09:12:48.812500,-17.62,79.22
53659,2018-06-29 09:12:48.843750,-16.62,79.22
53660,2018-06-29 09:12:48.875000,-15.69,79.22
53661,2018-06-29 09:12:48.906250,-14.18,79.22
53662,2018-06-29 09:12:48.937500,-18.08,79.22
53663,2018-06-29 09:12:48.968750,-30.99,79.22
53664,2018-06-29 09:12:49.000000,-47.91,79.22
53665,2018-06-29 09:12:49.031250,-57.77,79.22
53666,2018-06-29 09:12:49.062500,-54.22,79.22
53667,2018-06-29 09:12:49.093750,-40.16,79.22
53668,2018-06-29 09:12:49.125000,-24.88,79.22
53669,2018-06-29 09:12:49.156250,-17.72,79.22
53670,2018-06-29 09:12:49.187500,-21.08,79.22
53671,2018-06-29 09:12:49.218750,-23.72,79.22
53672,2018-06-29 09:12:49.250000,-12.82,79.22
53673,2018-06-29 09:12:49.281250,6.85,79.22
53674,2018-06-29 09:12:49.312500,15.5,79.22
53675,2018-06-29 09:12:49.343750,7.49,79.22
53676,2018-06-29 09:12:49.375000,-1.37,79.22
53677,2018-06-29 09:12:49.406250,2.66,79.22
53678,2018-06-29 09:12:49.437500,23.2,79.22
53679,2018-06-29 09:12:49.468750,52.87,79.22
53680,2018-06-29 09:12:49.500000,68.0,79.22
53681,2018-06-29 09:12:49.531250,44.93,79.18
53682,2018-06-29 09:12:49.562500,22.59,79.18
53683,2018-06-29 09:12:49.593750,54.47,79.18
53684,2018-06-29 09:12:49.625000,91.6,79.18
53685,2018-06-29 09:12:49.656250,92.29,79.18
53686,2018-06-29 09:12:49.687500,102.48,79.18
53687,2018-06-29 09:12:49.718750,130.13,79.18
53688,2018-06-29 09:12:49.750000,130.88,79.18
53689,2018-06-29 09:12:49.781250,97.51,79.18
53690,2018-06-29 09:12:49.812500,64.17,79.18
53691,2018-06-29 09:12:49.843750,43.06,79.18
53692,2018-06-29 09:12:49.875000,26.27,79.18
53693,2018-06-29 09:12:49.906250,10.14,79.18
53694,2018-06-29 09:12:49.937500,0.73,79.18
53695,2018-06-29 09:12:49.968750,-0.88,79.18
53696,2018-06-29 09:12:50.000000,5.78,79.18
53697,2018-06-29 09:12:50.031250,7.98,79.18
53698,2018-06-29 09:12:50.062500,-3.76,79.18
53699,2018-06-29 09:12:50.093750,-20.21,79.18
53700,2018-06-29 09:12:50.125000,-33.81,79.18
53701,2018-06-29 09:12:50.156250,-40.03,79.18
53702,2018-06-29 09:12:50.187500,-41.24,79.18
53703,2018-06-29 09:12:50.218750,-51.79,79.18
53704,2018-06-29 09:12:50.250000,-86.65,79.18
53705,2018-06-29 09:12:50.281250,-135.41,79.18
53706,2018-06-29 09:12:50.312500,-155.51,79.18
53707,2018-06-29 09:12:50.343750,-113.22,79.18
53708,2018-06-29 09:12:50.375000,-31.64,79.18
53709,2018-06-29 09:12:50.406250,28.57,79.18
53710,2018-06-29 09:12:50.437500,42.49,79.18
53711,2018-06-29 09:12:50.468750,36.78,79.18
53712,2018-06-29 09:12:50.500000,36.98,79.18
53713,2018-06-29 09:12:50.531250,43.76,79.17
53714,2018-06-29 09:12:50.562500,54.72,79.17
53715,2018-06-29 09:12:50.593750,67.09,79.17
53716,2018-06-29 09:12:50.625000,67.31,79.17
53717,2018-06-29 09:12:50.656250,44.44,79.17
53718,2018-06-29 09:12:50.687500,5.35,79.17
53719,2018-06-29 09:12:50.718750,-35.99,79.17
53720,2018-06-29 09:12:50.750000,-69.64,79.17
53721,2018-06-29 09:12:50.781250,-88.53,79.17
53722,2018-06-29 09:12:50.812500,-90.67,79.17
53723,2018-06-29 09:12:50.843750,-79.51,79.17
53724,2018-06-29 09:12:50.875000,-63.99,79.17
53725,2018-06-29 09:12:50.906250,-62.1,79.17
53726,2018-06-29 09:12:50.937500,-72.59,79.17
53727,2018-06-29 09:12:50.968750,-70.23,79.17
53728,2018-06-29 09:12:51.000000,-43.77,79.17
53729,2018-06-29 09:12:51.031250,-16.25,79.17
53730,2018-06-29 09:12:51.062500,-10.09,79.17
53731,2018-06-29 09:12:51.093750,-19.22,79.17
53732,2018-06-29 09:12:51.125000,-24.58,79.17
53733,2018-06-29 09:12:51.156250,-18.16,79.17
53734,2018-06-29 09:12:51.187500,-1.91,79.17
53735,2018-06-29 09:12:51.218750,20.45,79.17
53736,2018-06-29 09:12:51.250000,42.59,79.17
53737,2018-06-29 09:12:51.281250,55.64,79.17
53738,2018-06-29 09:12:51.312500,56.03,79.17
53739,2018-06-29 09:12:51.343750,49.94,79.17
53740,2018-06-29 09:12:51.375000,44.67,79.17
53741,2018-06-29 09:12:51.406250,40.79,79.17
53742,2018-06-29 09:12:51.437500,35.16,79.17
53743,2018-06-29 09:12:51.468750,28.05,79.17
53744,2018-06-29 09:12:51.500000,22.24,79.17
53745,2018-06-29 09:12:51.531250,17.85,79.12
53746,2018-06-29 09:12:51.562500,12.38,79.12
53747,2018-06-29 09:12:51.593750,4.64,79.12
53748,2018-06-29 09:12:51.625000,-3.49,79.12
53749,2018-06-29 09:12:51.656250,-10.23,79.12
53750,2018-06-29 09:12:51.687500,-16.77,79.12
53751,2018-06-29 09:12:51.718750,-25.63,79.12
53752,2018-06-29 09:12:51.750000,-37.0,79.12
53753,2018-06-29 09:12:51.781250,-46.86,79.12
53754,2018-06-29 09:12:51.812500,-48.55,79.12
53755,2018-06-29 09:12:51.843750,-38.04,79.12
53756,2018-06-29 09:12:51.875000,-18.52,79.12
53757,2018-06-29 09:12:51.906250,1.88,79.12
53758,2018-06-29 09:12:51.937500,17.38,79.12
53759,2018-06-29 09:12:51.968750,26.96,79.12
53760,2018-06-29 09:12:52.000000,31.37,79.12
53761,2018-06-29 09:12:52.031250,31.62,79.12
53762,2018-06-29 09:12:52.062500,29.67,79.12
53763,2018-06-29 09:12:52.093750,27.15,79.12
53764,2018-06-29 09:12:52.125000,23.91,79.12
53765,2018-06-29 09:12:52.156250,19.43,79.12
53766,2018-06-29 09:12:52.187500,14.48,79.12
53767,2018-06-29 09:12:52.218750,10.16,79.12
53768,2018-06-29 09:12:52.250000,5.49,79.12
53769,2018-06-29 09:12:52.281250,-2.71,79.12
53770,2018-06-29 09:12:52.312500,-15.97,79.12
53771,2018-06-29 09:12:52.343750,-30.99,79.12
53772,2018-06-29 09:12:52.375000,-42.38,79.12
53773,2018-06-29 09:12:52.406250,-49.22,79.12
53774,2018-06-29 09:12:52.437500,-57.3,79.12
53775,2018-06-29 09:12:52.468750,-70.51,79.12
53776,2018-06-29 09:12:52.500000,-80.81,79.12
53777,2018-06-29 09:12:52.531250,-73.96,79.05
53778,2018-06-29 09:12:52.562500,-46.57,79.05
53779,2018-06-29 09:12:52.593750,-9.45,79.05
53780,2018-06-29 09:12:52.625000,25.47,79.05
53781,2018-06-29 09:12:52.656250,52.3,79.05
53782,2018-06-29 09:12:52.687500,68.57,79.05
53783,2018-06-29 09:12:52.718750,75.15,79.05
53784,2018-06-29 09:12:52.750000,76.11,79.05
53785,2018-06-29 09:12:52.781250,74.18,79.05
53786,2018-06-29 09:12:52.812500,69.53,79.05
53787,2018-06-29 09:12:52.843750,63.08,79.05
53788,2018-06-29 09:12:52.875000,56.29,79.05
53789,2018-06-29 09:12:52.906250,49.46,79.05
53790,2018-06-29 09:12:52.937500,43.21,79.05
53791,2018-06-29 09:12:52.968750,37.85,79.05
53792,2018-06-29 09:12:53.000000,31.34,79.05
53793,2018-06-29 09:12:53.031250,22.62,79.05
53794,2018-06-29 09:12:53.062500,14.51,79.05
53795,2018-06-29 09:12:53.093750,9.06,79.05
53796,2018-06-29 09:12:53.125000,3.31,79.05
53797,2018-06-29 09:12:53.156250,-6.8,79.05
53798,2018-06-29 09:12:53.187500,-20.46,79.05
53799,2018-06-29 09:12:53.218750,-31.32,79.05
53800,2018-06-29 09:12:53.250000,-32.52,79.05
53801,2018-06-29 09:12:53.281250,-23.27,79.05
53802,2018-06-29 09:12:53.312500,-9.43,79.05
53803,2018-06-29 09:12:53.343750,3.22,79.05
53804,2018-06-29 09:12:53.375000,13.04,79.05
53805,2018-06-29 09:12:53.406250,19.54,79.05
53806,2018-06-29 09:12:53.437500,21.34,79.05
53807,2018-06-29 09:12:53.468750,18.73,79.05
53808,2018-06-29 09:12:53.500000,14.17,79.05
53809,2018-06-29 09:12:53.531250,8.99,79.0
53810,2018-06-29 09:12:53.562500,2.62,79.0
53811,2018-06-29 09:12:53.593750,-4.48,79.0
53812,2018-06-29 09:12:53.625000,-9.83,79.0
53813,2018-06-29 09:12:53.656250,-11.95,79.0
53814,2018-06-29 09:12:53.687500,-12.64,79.0
53815,2018-06-29 09:12:53.718750,-14.98,79.0
53816,2018-06-29 09:12:53.750000,-19.78,79.0
53817,2018-06-29 09:12:53.781250,-25.28,79.0
53818,2018-06-29 09:12:53.812500,-28.41,79.0
53819,2018-06-29 09:12:53.843750,-23.56,79.0
53820,2018-06-29 09:12:53.875000,-9.21,79.0
53821,2018-06-29 09:12:53.906250,3.19,79.0
53822,2018-06-29 09:12:53.937500,1.58,79.0
53823,2018-06-29 09:12:53.968750,-10.18,79.0
53824,2018-06-29 09:12:54.000000,-21.9,79.0
53825,2018-06-29 09:12:54.031250,-29.11,79.0
53826,2018-06-29 09:12:54.062500,-24.71,79.0
53827,2018-06-29 09:12:54.093750,-3.45,79.0
53828,2018-06-29 09:12:54.125000,21.66,79.0
53829,2018-06-29 09:12:54.156250,31.53,79.0
53830,2018-06-29 09:12:54.187500,25.58,79.0
53831,2018-06-29 09:12:54.218750,18.26,79.0
53832,2018-06-29 09:12:54.250000,17.68,79.0
53833,2018-06-29 09:12:54.281250,21.66,79.0
53834,2018-06-29 09:12:54.312500,23.28,79.0
53835,2018-06-29 09:12:54.343750,19.76,79.0
53836,2018-06-29 09:12:54.375000,15.4,79.0
53837,2018-06-29 09:12:54.406250,15.82,79.0
53838,2018-06-29 09:12:54.437500,19.82,79.0
53839,2018-06-29 09:12:54.468750,17.6,79.0
53840,2018-06-29 09:12:54.500000,5.66,79.0
53841,2018-06-29 09:12:54.531250,-5.8,79.0
