,Time,ppg,hr
57600,2018-06-29 09:14:52.000000,170.31,81.95
57601,2018-06-29 09:14:52.031250,170.65,81.95
57602,2018-06-29 09:14:52.062500,149.48,81.95
57603,2018-06-29 09:14:52.093750,109.17,81.95
57604,2018-06-29 09:14:52.125000,58.83,81.95
57605,2018-06-29 09:14:52.156250,8.87,81.95
57606,2018-06-29 09:14:52.187500,-34.4,81.95
57607,2018-06-29 09:14:52.218750,-71.68,81.95
57608,2018-06-29 09:14:52.250000,-107.52,81.95
57609,2018-06-29 09:14:52.281250,-142.95,81.95
57610,2018-06-29 09:14:52.312500,-173.17,81.95
57611,2018-06-29 09:14:52.343750,-194.04,81.95
57612,2018-06-29 09:14:52.375000,-203.51,81.95
57613,2018-06-29 09:14:52.406250,-194.75,81.95
57614,2018-06-29 09:14:52.437500,-158.53,81.95
57615,2018-06-29 09:14:52.468750,-99.52,81.95
57616,2018-06-29 09:14:52.500000,-40.73,81.95
57617,2018-06-29 09:14:52.531250,-4.2,82.32
57618,2018-06-29 09:14:52.562500,8.7,82.32
57619,2018-06-29 09:14:52.593750,13.69,82.32
57620,2018-06-29 09:14:52.625000,23.75,82.32
57621,2018-06-29 09:14:52.656250,37.17,82.32
57622,2018-06-29 09:14:52.687500,44.43,82.32
57623,2018-06-29 09:14:52.718750,41.2,82.32
57624,2018-06-29 09:14:52.750000,30.74,82.32
57625,2018-06-29 09:14:52.781250,18.26,82.32
57626,2018-06-29 09:14:52.812500,8.75,82.32
57627,2018-06-29 09:14:52.843750,6.21,82.32
57628,2018-06-29 09:14:52.875000,10.33,82.32
57629,2018-06-29 09:14:52.906250,16.41,82.32
57630,2018-06-29 09:14:52.937500,20.97,82.32
57631,2018-06-29 09:14:52.968750,25.42,82.32
57632,2018-06-29 09:14:53.000000,33.22,82.32
57633,2018-06-29 09:14:53.031250,44.78,82.32
57634,2018-06-29 09:14:53.062500,58.22,82.32
57635,2018-06-29 09:14:53.093750,74.47,82.32
57636,2018-06-29 09:14:53.125000,95.08,82.32
57637,2018-06-29 09:14:53.156250,113.28,82.32
57638,2018-06-29 09:14:53.187500,115.96,82.32
57639,2018-06-29 09:14:53.218750,97.9,82.32
57640,2018-06-29 09:14:53.250000,67.32,82.32
57641,2018-06-29 09:14:53.281250,35.85,82.32
57642,2018-06-29 09:14:53.312500,9.26,82.32
57643,2018-06-29 09:14:53.343750,-14.02,82.32
57644,2018-06-29 09:14:53.375000,-39.83,82.32
57645,2018-06-29 09:14:53.406250,-71.44,82.32
57646,2018-06-29 09:14:53.437500,-103.63,82.32
57647,2018-06-29 09:14:53.468750,-126.49,82.32
57648,2018-06-29 09:14:53.500000,-134.34,82.32
57649,2018-06-29 09:14:53.531250,-127.11,82.7
57650,2018-06-29 09:14:53.562500,-105.75,82.7
57651,2018-06-29 09:14:53.593750,-74.18,82.7
57652,2018-06-29 09:14:53.625000,-44.03,82.7
57653,2018-06-29 09:14:53.656250,-28.73,82.7
57654,2018-06-29 09:14:53.687500,-30.1,82.7
57655,2018-06-29 09:14:53.718750,-35.66,82.7
57656,2018-06-29 09:14:53.750000,-32.1,82.7
57657,2018-06-29 09:14:53.781250,-18.87,82.7
57658,2018-06-29 09:14:53.812500,-6.19,82.7
57659,2018-06-29 09:14:53.843750,-2.53,82.7
57660,2018-06-29 09:14:53.875000,-8.29,82.7
57661,2018-06-29 09:14:53.906250,-18.77,82.7
57662,2018-06-29 09:14:53.937500,-26.7,82.7
57663,2018-06-29 09:14:53.968750,-23.99,82.7
57664,2018-06-29 09:14:54.000000,-8.03,82.7
57665,2018-06-29 09:14:54.031250,15.1,82.7
57666,2018-06-29 09:14:54.062500,37.1,82.7
57667,2018-06-29 09:14:54.093750,53.96,82.7
57668,2018-06-29 09:14:54.125000,66.31,82.7
57669,2018-06-29 09:14:54.156250,77.52,82.7
57670,2018-06-29 09:14:54.187500,93.65,82.7
57671,2018-06-29 09:14:54.218750,121.16,82.7
57672,2018-06-29 09:14:54.250000,157.58,82.7
57673,2018-06-29 09:14:54.281250,185.35,82.7
57674,2018-06-29 09:14:54.312500,184.98,82.7
57675,2018-06-29 09:14:54.343750,154.24,82.7
57676,2018-06-29 09:14:54.375000,105.25,82.7
57677,2018-06-29 09:14:54.406250,50.66,82.7
57678,2018-06-29 09:14:54.437500,0.89,82.7
57679,2018-06-29 09:14:54.468750,-38.24,82.7
57680,2018-06-29 09:14:54.500000,-72.22,82.7
57681,2018-06-29 09:14:54.531250,-109.31,83.08
57682,2018-06-29 09:14:54.562500,-144.91,83.08
57683,2018-06-29 09:14:54.593750,-166.25,83.08
57684,2018-06-29 09:14:54.625000,-169.95,83.08
57685,2018-06-29 09:14:54.656250,-164.9,83.08
57686,2018-06-29 09:14:54.687500,-159.08,83.08
57687,2018-06-29 09:14:54.718750,-149.62,83.08
57688,2018-06-29 09:14:54.750000,-127.3,83.08
57689,2018-06-29 09:14:54.781250,-88.53,83.08
57690,2018-06-29 09:14:54.812500,-41.98,83.08
57691,2018-06-29 09:14:54.843750,-3.85,83.08
57692,2018-06-29 09:14:54.875000,16.94,83.08
57693,2018-06-29 09:14:54.906250,28.26,83.08
57694,2018-06-29 09:14:54.937500,42.09,83.08
57695,2018-06-29 09:14:54.968750,55.89,83.08
57696,2018-06-29 09:14:55.000000,59.5,83.08
57697,2018-06-29 09:14:55.031250,53.63,83.08
57698,2018-06-29 09:14:55.062500,45.65,83.08
57699,2018-06-29 09:14:55.093750,35.94,83.08
57700,2018-06-29 09:14:55.125000,23.85,83.08
57701,2018-06-29 09:14:55.156250,16.89,83.08
57702,2018-06-29 09:14:55.187500,21.66,83.08
57703,2018-06-29 09:14:55.218750,34.49,83.08
57704,2018-06-29 09:14:55.250000,46.12,83.08
57705,2018-06-29 09:14:55.281250,49.97,83.08
57706,2018-06-29 09:14:55.312500,47.26,83.08
57707,2018-06-29 09:14:55.343750,46.03,83.08
57708,2018-06-29 09:14:55.375000,50.58,83.08
57709,2018-06-29 09:14:55.406250,55.01,83.08
57710,2018-06-29 09:14:55.437500,53.71,83.08
57711,2018-06-29 09:14:55.468750,50.98,83.08
57712,2018-06-29 09:14:55.500000,49.96,83.08
57713,2018-06-29 09:14:55.531250,40.77,83.5
57714,2018-06-29 09:14:55.562500,12.69,83.5
57715,2018-06-29 09:14:55.593750,-26.71,83.5
57716,2018-06-29 09:14:55.625000,-57.21,83.5
57717,2018-06-29 09:14:55.656250,-68.68,83.5
57718,2018-06-29 09:14:55.687500,-68.15,83.5
57719,2018-06-29 09:14:55.718750,-65.66,83.5
57720,2018-06-29 09:14:55.750000,-63.69,83.5
57721,2018-06-29 09:14:55.781250,-60.73,83.5
57722,2018-06-29 09:14:55.812500,-56.59,83.5
57723,2018-06-29 09:14:55.843750,-50.02,83.5
57724,2018-06-29 09:14:55.875000,-36.81,83.5
57725,2018-06-29 09:14:55.906250,-15.33,83.5
57726,2018-06-29 09:14:55.937500,8.44,83.5
57727,2018-06-29 09:14:55.968750,24.86,83.5
57728,2018-06-29 09:14:56.000000,28.34,83.5
57729,2018-06-29 09:14:56.031250,20.39,83.5
57730,2018-06-29 09:14:56.062500,8.42,83.5
57731,2018-06-29 09:14:56.093750,0.84,83.5
57732,2018-06-29 09:14:56.125000,-1.07,83.5
57733,2018-06-29 09:14:56.156250,-3.62,83.5
57734,2018-06-29 09:14:56.187500,-10.43,83.5
57735,2018-06-29 09:14:56.218750,-16.63,83.5
57736,2018-06-29 09:14:56.250000,-15.84,83.5
57737,2018-06-29 09:14:56.281250,-7.31,83.5
57738,2018-06-29 09:14:56.312500,6.0,83.5
57739,2018-06-29 09:14:56.343750,21.1,83.5
57740,2018-06-29 09:14:56.375000,35.65,83.5
57741,2018-06-29 09:14:56.406250,48.49,83.5
57742,2018-06-29 09:14:56.437500,60.45,83.5
57743,2018-06-29 09:14:56.468750,73.13,83.5
57744,2018-06-29 09:14:56.500000,87.01,83.5
57745,2018-06-29 09:14:56.531250,102.13,83.93
57746,2018-06-29 09:14:56.562500,118.97,83.93
57747,2018-06-29 09:14:56.593750,134.26,83.93
57748,2018-06-29 09:14:56.625000,136.94,83.93
57749,2018-06-29 09:14:56.656250,114.73,83.93
57750,2018-06-29 09:14:56.687500,66.08,83.93
57751,2018-06-29 09:14:56.718750,3.13,83.93
57752,2018-06-29 09:14:56.750000,-54.93,83.93
57753,2018-06-29 09:14:56.781250,-91.71,83.93
57754,2018-06-29 09:14:56.812500,-105.53,83.93
57755,2018-06-29 09:14:56.843750,-111.74,83.93
57756,2018-06-29 09:14:56.875000,-125.29,83.93
57757,2018-06-29 09:14:56.906250,-143.63,83.93
57758,2018-06-29 09:14:56.937500,-153.48,83.93
57759,2018-06-29 09:14:56.968750,-147.84,83.93
57760,2018-06-29 09:14:57.000000,-129.89,83.93
57761,2018-06-29 09:14:57.031250,-105.76,83.93
57762,2018-06-29 09:14:57.062500,-80.1,83.93
57763,2018-06-29 09:14:57.093750,-55.99,83.93
57764,2018-06-29 09:14:57.125000,-35.12,83.93
57765,2018-06-29 09:14:57.156250,-18.25,83.93
57766,2018-06-29 09:14:57.187500,-4.88,83.93
57767,2018-06-29 09:14:57.218750,6.82,83.93
57768,2018-06-29 09:14:57.250000,17.99,83.93
57769,2018-06-29 09:14:57.281250,26.9,83.93
57770,2018-06-29 09:14:57.312500,31.17,83.93
57771,2018-06-29 09:14:57.343750,31.36,83.93
57772,2018-06-29 09:14:57.375000,29.65,83.93
57773,2018-06-29 09:14:57.406250,26.18,83.93
57774,2018-06-29 09:14:57.437500,19.38,83.93
57775,2018-06-29 09:14:57.468750,9.8,83.93
57776,2018-06-29 09:14:57.500000,0.92,83.93
57777,2018-06-29 09:14:57.531250,-4.91,84.37
57778,2018-06-29 09:14:57.562500,-9.29,84.37
57779,2018-06-29 09:14:57.593750,-14.35,84.37
57780,2018-06-29 09:14:57.625000,-17.51,84.37
57781,2018-06-29 09:14:57.656250,-12.15,84.37
57782,2018-06-29 09:14:57.687500,5.52,84.37
57783,2018-06-29 09:14:57.718750,31.57,84.37
57784,2018-06-29 09:14:57.750000,55.06,84.37
57785,2018-06-29 09:14:57.781250,63.35,84.37
57786,2018-06-29 09:14:57.812500,53.76,84.37
57787,2018-06-29 09:14:57.843750,39.27,84.37
57788,2018-06-29 09:14:57.875000,33.03,84.37
57789,2018-06-29 09:14:57.906250,32.16,84.37
57790,2018-06-29 09:14:57.937500,27.6,84.37
57791,2018-06-29 09:14:57.968750,19.92,84.37
57792,2018-06-29 09:14:58.000000,14.08,84.37
57793,2018-06-29 09:14:58.031250,9.43,84.37
57794,2018-06-29 09:14:58.062500,4.03,84.37
57795,2018-06-29 09:14:58.093750,0.26,84.37
57796,2018-06-29 09:14:58.125000,0.54,84.37
57797,2018-06-29 09:14:58.156250,3.38,84.37
57798,2018-06-29 09:14:58.187500,7.37,84.37
57799,2018-06-29 09:14:58.218750,14.36,84.37
57800,2018-06-29 09:14:58.250000,24.12,84.37
57801,2018-06-29 09:14:58.281250,29.89,84.37
57802,2018-06-29 09:14:58.312500,23.78,84.37
57803,2018-06-29 09:14:58.343750,3.97,84.37
57804,2018-06-29 09:14:58.375000,-23.7,84.37
57805,2018-06-29 09:14:58.406250,-46.99,84.37
57806,2018-06-29 09:14:58.437500,-52.7,84.37
57807,2018-06-29 09:14:58.468750,-37.96,84.37
57808,2018-06-29 09:14:58.500000,-14.36,84.37
57809,2018-06-29 09:14:58.531250,4.6,84.83
57810,2018-06-29 09:14:58.562500,15.55,84.83
57811,2018-06-29 09:14:58.593750,20.75,84.83
57812,2018-06-29 09:14:58.625000,20.71,84.83
57813,2018-06-29 09:14:58.656250,17.43,84.83
57814,2018-06-29 09:14:58.687500,16.85,84.83
57815,2018-06-29 09:14:58.718750,22.99,84.83
57816,2018-06-29 09:14:58.750000,34.21,84.83
57817,2018-06-29 09:14:58.781250,47.48,84.83
57818,2018-06-29 09:14:58.812500,62.58,84.83
57819,2018-06-29 09:14:58.843750,80.18,84.83
57820,2018-06-29 09:14:58.875000,97.75,84.83
57821,2018-06-29 09:14:58.906250,111.17,84.83
57822,2018-06-29 09:14:58.937500,120.94,84.83
57823,2018-06-29 09:14:58.968750,132.67,84.83
57824,2018-06-29 09:14:59.000000,147.82,84.83
57825,2018-06-29 09:14:59.031250,155.42,84.83
57826,2018-06-29 09:14:59.062500,137.91,84.83
57827,2018-06-29 09:14:59.093750,87.62,84.83
57828,2018-06-29 09:14:59.125000,16.88,84.83
57829,2018-06-29 09:14:59.156250,-48.54,84.83
57830,2018-06-29 09:14:59.187500,-88.5,84.83
57831,2018-06-29 09:14:59.218750,-103.01,84.83
57832,2018-06-29 09:14:59.250000,-107.09,84.83
57833,2018-06-29 09:14:59.281250,-112.21,84.83
57834,2018-06-29 09:14:59.312500,-118.42,84.83
57835,2018-06-29 09:14:59.343750,-121.25,84.83
57836,2018-06-29 09:14:59.375000,-115.33,84.83
57837,2018-06-29 09:14:59.406250,-94.43,84.83
57838,2018-06-29 09:14:59.437500,-60.72,84.83
57839,2018-06-29 09:14:59.468750,-31.37,84.83
57840,2018-06-29 09:14:59.500000,-23.94,84.83
57841,2018-06-29 09:14:59.531250,-36.96,85.33
57842,2018-06-29 09:14:59.562500,-52.63,85.33
57843,2018-06-29 09:14:59.593750,-56.11,85.33
57844,2018-06-29 09:14:59.625000,-47.19,85.33
57845,2018-06-29 09:14:59.656250,-35.76,85.33
57846,2018-06-29 09:14:59.687500,-30.26,85.33
57847,2018-06-29 09:14:59.718750,-31.88,85.33
57848,2018-06-29 09:14:59.750000,-37.81,85.33
57849,2018-06-29 09:14:59.781250,-44.72,85.33
57850,2018-06-29 09:14:59.812500,-48.5,85.33
57851,2018-06-29 09:14:59.843750,-45.51,85.33
57852,2018-06-29 09:14:59.875000,-34.14,85.33
57853,2018-06-29 09:14:59.906250,-14.43,85.33
57854,2018-06-29 09:14:59.937500,11.57,85.33
57855,2018-06-29 09:14:59.968750,40.17,85.33
57856,2018-06-29 09:15:00.000000,68.3,85.33
57857,2018-06-29 09:15:00.031250,93.72,85.33
57858,2018-06-29 09:15:00.062500,115.84,85.33
57859,2018-06-29 09:15:00.093750,137.36,85.33
57860,2018-06-29 09:15:00.125000,158.76,85.33
57861,2018-06-29 09:15:00.156250,171.1,85.33
57862,2018-06-29 09:15:00.187500,162.14,85.33
57863,2018-06-29 09:15:00.218750,130.51,85.33
57864,2018-06-29 09:15:00.250000,87.81,85.33
57865,2018-06-29 09:15:00.281250,47.7,85.33
57866,2018-06-29 09:15:00.312500,16.01,85.33
57867,2018-06-29 09:15:00.343750,-11.56,85.33
57868,2018-06-29 09:15:00.375000,-44.73,85.33
57869,2018-06-29 09:15:00.406250,-88.24,85.33
57870,2018-06-29 09:15:00.437500,-135.36,85.33
57871,2018-06-29 09:15:00.468750,-174.4,85.33
57872,2018-06-29 09:15:00.500000,-199.74,85.33
57873,2018-06-29 09:15:00.531250,-210.31,85.82
57874,2018-06-29 09:15:00.562500,-202.27,85.82
57875,2018-06-29 09:15:00.593750,-172.77,85.82
57876,2018-06-29 09:15:00.625000,-128.15,85.82
57877,2018-06-29 09:15:00.656250,-80.53,85.82
57878,2018-06-29 09:15:00.687500,-38.83,85.82
57879,2018-06-29 09:15:00.718750,-6.12,85.82
57880,2018-06-29 09:15:00.750000,18.22,85.82
57881,2018-06-29 09:15:00.781250,35.62,85.82
57882,2018-06-29 09:15:00.812500,45.9,85.82
57883,2018-06-29 09:15:00.843750,47.77,85.82
57884,2018-06-29 09:15:00.875000,42.15,85.82
57885,2018-06-29 09:15:00.906250,33.03,85.82
57886,2018-06-29 09:15:00.937500,25.89,85.82
57887,2018-06-29 09:15:00.968750,24.48,85.82
57888,2018-06-29 09:15:01.000000,27.88,85.82
57889,2018-06-29 09:15:01.031250,32.02,85.82
57890,2018-06-29 09:15:01.062500,34.9,85.82
57891,2018-06-29 09:15:01.093750,38.14,85.82
57892,2018-06-29 09:15:01.125000,43.32,85.82
57893,2018-06-29 09:15:01.156250,49.21,85.82
57894,2018-06-29 09:15:01.187500,53.81,85.82
57895,2018-06-29 09:15:01.218750,60.0,85.82
57896,2018-06-29 09:15:01.250000,76.13,85.82
57897,2018-06-29 09:15:01.281250,103.86,85.82
57898,2018-06-29 09:15:01.312500,128.05,85.82
57899,2018-06-29 09:15:01.343750,129.71,85.82
57900,2018-06-29 09:15:01.375000,106.82,85.82
57901,2018-06-29 09:15:01.406250,73.36,85.82
57902,2018-06-29 09:15:01.437500,42.71,85.82
57903,2018-06-29 09:15:01.468750,17.15,85.82
57904,2018-06-29 09:15:01.500000,-11.35,85.82
57905,2018-06-29 09:15:01.531250,-51.26,86.28
57906,2018-06-29 09:15:01.562500,-99.5,86.28
57907,2018-06-29 09:15:01.593750,-142.26,86.28
57908,2018-06-29 09:15:01.625000,-167.61,86.28
57909,2018-06-29 09:15:01.656250,-172.56,86.28
57910,2018-06-29 09:15:01.687500,-159.72,86.28
57911,2018-06-29 09:15:01.718750,-134.4,86.28
57912,2018-06-29 09:15:01.750000,-104.59,86.28
57913,2018-06-29 09:15:01.781250,-78.03,86.28
57914,2018-06-29 09:15:01.812500,-57.17,86.28
57915,2018-06-29 09:15:01.843750,-39.72,86.28
57916,2018-06-29 09:15:01.875000,-24.58,86.28
57917,2018-06-29 09:15:01.906250,-14.15,86.28
57918,2018-06-29 09:15:01.937500,-9.63,86.28
57919,2018-06-29 09:15:01.968750,-7.39,86.28
57920,2018-06-29 09:15:02.000000,-2.6,86.28
57921,2018-06-29 09:15:02.031250,5.07,86.28
57922,2018-06-29 09:15:02.062500,12.33,86.28
57923,2018-06-29 09:15:02.093750,17.8,86.28
57924,2018-06-29 09:15:02.125000,22.78,86.28
57925,2018-06-29 09:15:02.156250,27.84,86.28
57926,2018-06-29 09:15:02.187500,32.43,86.28
57927,2018-06-29 09:15:02.218750,37.28,86.28
57928,2018-06-29 09:15:02.250000,44.29,86.28
57929,2018-06-29 09:15:02.281250,54.03,86.28
57930,2018-06-29 09:15:02.312500,64.61,86.28
57931,2018-06-29 09:15:02.343750,75.24,86.28
57932,2018-06-29 09:15:02.375000,89.78,86.28
57933,2018-06-29 09:15:02.406250,110.71,86.28
57934,2018-06-29 09:15:02.437500,129.31,86.28
57935,2018-06-29 09:15:02.468750,129.44,86.28
57936,2018-06-29 09:15:02.500000,102.62,86.28
57937,2018-06-29 09:15:02.531250,55.36,86.75
57938,2018-06-29 09:15:02.562500,3.33,86.75
57939,2018-06-29 09:15:02.593750,-40.59,86.75
57940,2018-06-29 09:15:02.625000,-75.13,86.75
57941,2018-06-29 09:15:02.656250,-105.54,86.75
57942,2018-06-29 09:15:02.687500,-129.91,86.75
57943,2018-06-29 09:15:02.718750,-139.66,86.75
57944,2018-06-29 09:15:02.750000,-133.28,86.75
57945,2018-06-29 09:15:02.781250,-118.64,86.75
57946,2018-06-29 09:15:02.812500,-101.48,86.75
57947,2018-06-29 09:15:02.843750,-80.74,86.75
57948,2018-06-29 09:15:02.875000,-54.7,86.75
57949,2018-06-29 09:15:02.906250,-26.26,86.75
57950,2018-06-29 09:15:02.937500,-2.32,86.75
57951,2018-06-29 09:15:02.968750,11.93,86.75
57952,2018-06-29 09:15:03.000000,18.95,86.75
57953,2018-06-29 09:15:03.031250,26.7,86.75
57954,2018-06-29 09:15:03.062500,38.04,86.75
57955,2018-06-29 09:15:03.093750,46.91,86.75
57956,2018-06-29 09:15:03.125000,46.91,86.75
57957,2018-06-29 09:15:03.156250,38.15,86.75
57958,2018-06-29 09:15:03.187500,24.27,86.75
57959,2018-06-29 09:15:03.218750,9.41,86.75
57960,2018-06-29 09:15:03.250000,-1.66,86.75
57961,2018-06-29 09:15:03.281250,-6.54,86.75
57962,2018-06-29 09:15:03.312500,-8.11,86.75
57963,2018-06-29 09:15:03.343750,-10.06,86.75
57964,2018-06-29 09:15:03.375000,-9.96,86.75
57965,2018-06-29 09:15:03.406250,-0.3,86.75
57966,2018-06-29 09:15:03.437500,22.62,86.75
57967,2018-06-29 09:15:03.468750,54.06,86.75
57968,2018-06-29 09:15:03.500000,88.17,86.75
57969,2018-06-29 09:15:03.531250,123.53,87.22
57970,2018-06-29 09:15:03.562500,155.25,87.22
57971,2018-06-29 09:15:03.593750,169.35,87.22
57972,2018-06-29 09:15:03.625000,153.93,87.22
57973,2018-06-29 09:15:03.656250,112.5,87.22
57974,2018-06-29 09:15:03.687500,61.08,87.22
57975,2018-06-29 09:15:03.718750,15.24,87.22
57976,2018-06-29 09:15:03.750000,-19.84,87.22
57977,2018-06-29 09:15:03.781250,-49.72,87.22
57978,2018-06-29 09:15:03.812500,-81.36,87.22
57979,2018-06-29 09:15:03.843750,-114.01,87.22
57980,2018-06-29 09:15:03.875000,-140.75,87.22
57981,2018-06-29 09:15:03.906250,-155.78,87.22
57982,2018-06-29 09:15:03.937500,-157.54,87.22
57983,2018-06-29 09:15:03.968750,-147.27,87.22
57984,2018-06-29 09:15:04.000000,-127.96,87.22
57985,2018-06-29 09:15:04.031250,-105.13,87.22
57986,2018-06-29 09:15:04.062500,-85.28,87.22
57987,2018-06-29 09:15:04.093750,-69.78,87.22
57988,2018-06-29 09:15:04.125000,-52.17,87.22
57989,2018-06-29 09:15:04.156250,-25.46,87.22
57990,2018-06-29 09:15:04.187500,8.47,87.22
57991,2018-06-29 09:15:04.218750,39.57,87.22
57992,2018-06-29 09:15:04.250000,58.47,87.22
57993,2018-06-29 09:15:04.281250,62.89,87.22
57994,2018-06-29 09:15:04.312500,56.64,87.22
57995,2018-06-29 09:15:04.343750,45.72,87.22
57996,2018-06-29 09:15:04.375000,35.6,87.22
57997,2018-06-29 09:15:04.406250,29.86,87.22
57998,2018-06-29 09:15:04.437500,29.11,87.22
57999,2018-06-29 09:15:04.468750,31.84,87.22
58000,2018-06-29 09:15:04.500000,35.55,87.22
58001,2018-06-29 09:15:04.531250,37.92,87.68
58002,2018-06-29 09:15:04.562500,38.81,87.68
58003,2018-06-29 09:15:04.593750,41.69,87.68
58004,2018-06-29 09:15:04.625000,51.96,87.68
58005,2018-06-29 09:15:04.656250,71.73,87.68
58006,2018-06-29 09:15:04.687500,92.61,87.68
58007,2018-06-29 09:15:04.718750,97.09,87.68
58008,2018-06-29 09:15:04.750000,74.79,87.68
58009,2018-06-29 09:15:04.781250,34.24,87.68
58010,2018-06-29 09:15:04.812500,-6.91,87.68
58011,2018-06-29 09:15:04.843750,-35.9,87.68
58012,2018-06-29 09:15:04.875000,-48.5,87.68
58013,2018-06-29 09:15:04.906250,-50.92,87.68
58014,2018-06-29 09:15:04.937500,-56.81,87.68
58015,2018-06-29 09:15:04.968750,-72.06,87.68
58016,2018-06-29 09:15:05.000000,-86.91,87.68
58017,2018-06-29 09:15:05.031250,-90.06,87.68
58018,2018-06-29 09:15:05.062500,-82.95,87.68
58019,2018-06-29 09:15:05.093750,-73.03,87.68
58020,2018-06-29 09:15:05.125000,-59.69,87.68
58021,2018-06-29 09:15:05.156250,-37.61,87.68
58022,2018-06-29 09:15:05.187500,-10.47,87.68
58023,2018-06-29 09:15:05.218750,11.18,87.68
58024,2018-06-29 09:15:05.250000,23.82,87.68
58025,2018-06-29 09:15:05.281250,32.04,87.68
58026,2018-06-29 09:15:05.312500,42.87,87.68
58027,2018-06-29 09:15:05.343750,61.78,87.68
58028,2018-06-29 09:15:05.375000,77.83,87.68
58029,2018-06-29 09:15:05.406250,66.94,87.68
58030,2018-06-29 09:15:05.437500,29.27,87.68
58031,2018-06-29 09:15:05.468750,-3.52,87.68
58032,2018-06-29 09:15:05.500000,-12.7,87.68
58033,2018-06-29 09:15:05.531250,-9.87,88.17
58034,2018-06-29 09:15:05.562500,-6.09,88.17
58035,2018-06-29 09:15:05.593750,1.1,88.17
58036,2018-06-29 09:15:05.625000,12.9,88.17
58037,2018-06-29 09:15:05.656250,27.2,88.17
58038,2018-06-29 09:15:05.687500,45.24,88.17
58039,2018-06-29 09:15:05.718750,68.5,88.17
58040,2018-06-29 09:15:05.750000,93.75,88.17
58041,2018-06-29 09:15:05.781250,116.19,88.17
58042,2018-06-29 09:15:05.812500,133.12,88.17
58043,2018-06-29 09:15:05.843750,141.58,88.17
58044,2018-06-29 09:15:05.875000,134.87,88.17
58045,2018-06-29 09:15:05.906250,105.8,88.17
58046,2018-06-29 09:15:05.937500,57.27,88.17
58047,2018-06-29 09:15:05.968750,6.93,88.17
58048,2018-06-29 09:15:06.000000,-28.87,88.17
58049,2018-06-29 09:15:06.031250,-54.54,88.17
58050,2018-06-29 09:15:06.062500,-85.78,88.17
58051,2018-06-29 09:15:06.093750,-125.15,88.17
58052,2018-06-29 09:15:06.125000,-160.92,88.17
58053,2018-06-29 09:15:06.156250,-181.84,88.17
58054,2018-06-29 09:15:06.187500,-181.57,88.17
58055,2018-06-29 09:15:06.218750,-158.35,88.17
58056,2018-06-29 09:15:06.250000,-117.91,88.17
58057,2018-06-29 09:15:06.281250,-69.85,88.17
58058,2018-06-29 09:15:06.312500,-22.55,88.17
58059,2018-06-29 09:15:06.343750,14.94,88.17
58060,2018-06-29 09:15:06.375000,33.79,88.17
58061,2018-06-29 09:15:06.406250,32.96,88.17
58062,2018-06-29 09:15:06.437500,22.07,88.17
58063,2018-06-29 09:15:06.468750,14.5,88.17
58064,2018-06-29 09:15:06.500000,16.5,88.17
58065,2018-06-29 09:15:06.531250,21.77,88.63
58066,2018-06-29 09:15:06.562500,20.0,88.63
58067,2018-06-29 09:15:06.593750,8.96,88.63
58068,2018-06-29 09:15:06.625000,-6.15,88.63
58069,2018-06-29 09:15:06.656250,-20.18,88.63
58070,2018-06-29 09:15:06.687500,-29.42,88.63
58071,2018-06-29 09:15:06.718750,-31.7,88.63
58072,2018-06-29 09:15:06.750000,-28.64,88.63
58073,2018-06-29 09:15:06.781250,-24.19,88.63
58074,2018-06-29 09:15:06.812500,-19.72,88.63
58075,2018-06-29 09:15:06.843750,-12.23,88.63
58076,2018-06-29 09:15:06.875000,2.47,88.63
58077,2018-06-29 09:15:06.906250,25.39,88.63
58078,2018-06-29 09:15:06.937500,54.37,88.63
58079,2018-06-29 09:15:06.968750,85.51,88.63
58080,2018-06-29 09:15:07.000000,110.44,88.63
58081,2018-06-29 09:15:07.031250,117.26,88.63
58082,2018-06-29 09:15:07.062500,100.24,88.63
58083,2018-06-29 09:15:07.093750,65.78,88.63
58084,2018-06-29 09:15:07.125000,27.59,88.63
58085,2018-06-29 09:15:07.156250,-1.51,88.63
58086,2018-06-29 09:15:07.187500,-17.51,88.63
58087,2018-06-29 09:15:07.218750,-26.97,88.63
58088,2018-06-29 09:15:07.250000,-37.19,88.63
58089,2018-06-29 09:15:07.281250,-47.36,88.63
58090,2018-06-29 09:15:07.312500,-53.28,88.63
58091,2018-06-29 09:15:07.343750,-53.67,88.63
58092,2018-06-29 09:15:07.375000,-46.47,88.63
58093,2018-06-29 09:15:07.406250,-28.28,88.63
58094,2018-06-29 09:15:07.437500,-4.37,88.63
58095,2018-06-29 09:15:07.468750,8.89,88.63
58096,2018-06-29 09:15:07.500000,-1.14,88.63
58097,2018-06-29 09:15:07.531250,-29.95,89.1
58098,2018-06-29 09:15:07.562500,-58.86,89.1
58099,2018-06-29 09:15:07.593750,-67.84,89.1
58100,2018-06-29 09:15:07.625000,-49.22,89.1
58101,2018-06-29 09:15:07.656250,-14.04,89.1
58102,2018-06-29 09:15:07.687500,17.78,89.1
58103,2018-06-29 09:15:07.718750,34.96,89.1
58104,2018-06-29 09:15:07.750000,39.85,89.1
58105,2018-06-29 09:15:07.781250,40.31,89.1
58106,2018-06-29 09:15:07.812500,41.47,89.1
58107,2018-06-29 09:15:07.843750,43.28,89.1
58108,2018-06-29 09:15:07.875000,43.06,89.1
58109,2018-06-29 09:15:07.906250,40.31,89.1
58110,2018-06-29 09:15:07.937500,40.64,89.1
58111,2018-06-29 09:15:07.968750,50.83,89.1
58112,2018-06-29 09:15:08.000000,67.41,89.1
58113,2018-06-29 09:15:08.031250,74.07,89.1
58114,2018-06-29 09:15:08.062500,61.32,89.1
58115,2018-06-29 09:15:08.093750,40.48,89.1
58116,2018-06-29 09:15:08.125000,26.01,89.1
58117,2018-06-29 09:15:08.156250,15.27,89.1
58118,2018-06-29 09:15:08.187500,-3.45,89.1
58119,2018-06-29 09:15:08.218750,-33.26,89.1
58120,2018-06-29 09:15:08.250000,-70.63,89.1
58121,2018-06-29 09:15:08.281250,-100.71,89.1
58122,2018-06-29 09:15:08.312500,-100.87,89.1
58123,2018-06-29 09:15:08.343750,-69.99,89.1
58124,2018-06-29 09:15:08.375000,-26.83,89.1
58125,2018-06-29 09:15:08.406250,9.18,89.1
58126,2018-06-29 09:15:08.437500,31.04,89.1
58127,2018-06-29 09:15:08.468750,44.41,89.1
58128,2018-06-29 09:15:08.500000,57.06,89.1
58129,2018-06-29 09:15:08.531250,68.93,89.6
58130,2018-06-29 09:15:08.562500,74.87,89.6
58131,2018-06-29 09:15:08.593750,72.73,89.6
58132,2018-06-29 09:15:08.625000,64.88,89.6
58133,2018-06-29 09:15:08.656250,58.17,89.6
58134,2018-06-29 09:15:08.687500,59.18,89.6
58135,2018-06-29 09:15:08.718750,66.23,89.6
58136,2018-06-29 09:15:08.750000,68.48,89.6
58137,2018-06-29 09:15:08.781250,56.29,89.6
58138,2018-06-29 09:15:08.812500,28.52,89.6
58139,2018-06-29 09:15:08.843750,-5.62,89.6
58140,2018-06-29 09:15:08.875000,-33.53,89.6
58141,2018-06-29 09:15:08.906250,-50.37,89.6
58142,2018-06-29 09:15:08.937500,-62.23,89.6
58143,2018-06-29 09:15:08.968750,-75.75,89.6
58144,2018-06-29 09:15:09.000000,-88.28,89.6
58145,2018-06-29 09:15:09.031250,-92.63,89.6
58146,2018-06-29 09:15:09.062500,-87.14,89.6
58147,2018-06-29 09:15:09.093750,-76.21,89.6
58148,2018-06-29 09:15:09.125000,-63.18,89.6
58149,2018-06-29 09:15:09.156250,-48.61,89.6
58150,2018-06-29 09:15:09.187500,-32.54,89.6
58151,2018-06-29 09:15:09.218750,-12.04,89.6
58152,2018-06-29 09:15:09.250000,17.46,89.6
58153,2018-06-29 09:15:09.281250,52.07,89.6
58154,2018-06-29 09:15:09.312500,77.51,89.6
58155,2018-06-29 09:15:09.343750,81.34,89.6
58156,2018-06-29 09:15:09.375000,61.73,89.6
58157,2018-06-29 09:15:09.406250,25.57,89.6
58158,2018-06-29 09:15:09.437500,-16.46,89.6
58159,2018-06-29 09:15:09.468750,-54.88,89.6
58160,2018-06-29 09:15:09.500000,-84.49,89.6
58161,2018-06-29 09:15:09.531250,-102.48,90.15
58162,2018-06-29 09:15:09.562500,-106.37,90.15
58163,2018-06-29 09:15:09.593750,-98.47,90.15
58164,2018-06-29 09:15:09.625000,-88.64,90.15
58165,2018-06-29 09:15:09.656250,-85.14,90.15
58166,2018-06-29 09:15:09.687500,-83.62,90.15
58167,2018-06-29 09:15:09.718750,-71.46,90.15
58168,2018-06-29 09:15:09.750000,-44.27,90.15
58169,2018-06-29 09:15:09.781250,-12.38,90.15
58170,2018-06-29 09:15:09.812500,11.12,90.15
58171,2018-06-29 09:15:09.843750,23.3,90.15
58172,2018-06-29 09:15:09.875000,28.65,90.15
58173,2018-06-29 09:15:09.906250,30.12,90.15
58174,2018-06-29 09:15:09.937500,28.76,90.15
58175,2018-06-29 09:15:09.968750,27.0,90.15
58176,2018-06-29 09:15:10.000000,26.62,90.15
58177,2018-06-29 09:15:10.031250,26.81,90.15
58178,2018-06-29 09:15:10.062500,26.57,90.15
58179,2018-06-29 09:15:10.093750,25.95,90.15
58180,2018-06-29 09:15:10.125000,23.71,90.15
58181,2018-06-29 09:15:10.156250,17.48,90.15
58182,2018-06-29 09:15:10.187500,7.84,90.15
58183,2018-06-29 09:15:10.218750,-0.29,90.15
58184,2018-06-29 09:15:10.250000,-2.65,90.15
58185,2018-06-29 09:15:10.281250,-1.69,90.15
58186,2018-06-29 09:15:10.312500,-3.94,90.15
58187,2018-06-29 09:15:10.343750,-10.28,90.15
58188,2018-06-29 09:15:10.375000,-13.03,90.15
58189,2018-06-29 09:15:10.406250,-5.49,90.15
58190,2018-06-29 09:15:10.437500,9.82,90.15
58191,2018-06-29 09:15:10.468750,25.57,90.15
58192,2018-06-29 09:15:10.500000,37.35,90.15
58193,2018-06-29 09:15:10.531250,43.99,90.7
58194,2018-06-29 09:15:10.562500,44.57,90.7
58195,2018-06-29 09:15:10.593750,38.57,90.7
58196,2018-06-29 09:15:10.625000,26.95,90.7
58197,2018-06-29 09:15:10.656250,12.19,90.7
58198,2018-06-29 09:15:10.687500,-1.68,90.7
58199,2018-06-29 09:15:10.718750,-11.07,90.7
58200,2018-06-29 09:15:10.750000,-15.54,90.7
58201,2018-06-29 09:15:10.781250,-17.67,90.7
58202,2018-06-29 09:15:10.812500,-20.09,90.7
58203,2018-06-29 09:15:10.843750,-23.25,90.7
58204,2018-06-29 09:15:10.875000,-25.0,90.7
58205,2018-06-29 09:15:10.906250,-22.61,90.7
58206,2018-06-29 09:15:10.937500,-15.89,90.7
58207,2018-06-29 09:15:10.968750,-8.1,90.7
58208,2018-06-29 09:15:11.000000,-2.84,90.7
58209,2018-06-29 09:15:11.031250,1.3,90.7
58210,2018-06-29 09:15:11.062500,12.26,90.7
58211,2018-06-29 09:15:11.093750,36.76,90.7
58212,2018-06-29 09:15:11.125000,71.58,90.7
58213,2018-06-29 09:15:11.156250,105.71,90.7
58214,2018-06-29 09:15:11.187500,128.68,90.7
58215,2018-06-29 09:15:11.218750,135.12,90.7
58216,2018-06-29 09:15:11.250000,125.5,90.7
58217,2018-06-29 09:15:11.281250,104.56,90.7
58218,2018-06-29 09:15:11.312500,76.79,90.7
58219,2018-06-29 09:15:11.343750,44.38,90.7
58220,2018-06-29 09:15:11.375000,9.93,90.7
58221,2018-06-29 09:15:11.406250,-21.45,90.7
58222,2018-06-29 09:15:11.437500,-44.87,90.7
58223,2018-06-29 09:15:11.468750,-59.76,90.7
58224,2018-06-29 09:15:11.500000,-70.23,90.7
58225,2018-06-29 09:15:11.531250,-80.09,91.25
58226,2018-06-29 09:15:11.562500,-86.11,91.25
58227,2018-06-29 09:15:11.593750,-78.8,91.25
58228,2018-06-29 09:15:11.625000,-54.73,91.25
58229,2018-06-29 09:15:11.656250,-26.31,91.25
58230,2018-06-29 09:15:11.687500,-11.35,91.25
58231,2018-06-29 09:15:11.718750,-14.47,91.25
58232,2018-06-29 09:15:11.750000,-25.12,91.25
58233,2018-06-29 09:15:11.781250,-30.71,91.25
58234,2018-06-29 09:15:11.812500,-26.44,91.25
58235,2018-06-29 09:15:11.843750,-16.7,91.25
58236,2018-06-29 09:15:11.875000,-10.81,91.25
58237,2018-06-29 09:15:11.906250,-15.44,91.25
58238,2018-06-29 09:15:11.937500,-29.16,91.25
58239,2018-06-29 09:15:11.968750,-43.95,91.25
58240,2018-06-29 09:15:12.000000,-51.03,91.25
58241,2018-06-29 09:15:12.031250,-45.63,91.25
58242,2018-06-29 09:15:12.062500,-28.86,91.25
58243,2018-06-29 09:15:12.093750,-5.93,91.25
58244,2018-06-29 09:15:12.125000,18.39,91.25
58245,2018-06-29 09:15:12.156250,42.52,91.25
58246,2018-06-29 09:15:12.187500,65.19,91.25
58247,2018-06-29 09:15:12.218750,82.39,91.25
58248,2018-06-29 09:15:12.250000,89.92,91.25
58249,2018-06-29 09:15:12.281250,86.7,91.25
58250,2018-06-29 09:15:12.312500,73.17,91.25
58251,2018-06-29 09:15:12.343750,49.42,91.25
58252,2018-06-29 09:15:12.375000,17.03,91.25
58253,2018-06-29 09:15:12.406250,-19.34,91.25
58254,2018-06-29 09:15:12.437500,-53.66,91.25
58255,2018-06-29 09:15:12.468750,-79.01,91.25
58256,2018-06-29 09:15:12.500000,-88.44,91.25
58257,2018-06-29 09:15:12.531250,-81.14,91.75
58258,2018-06-29 09:15:12.562500,-66.8,91.75
58259,2018-06-29 09:15:12.593750,-58.01,91.75
58260,2018-06-29 09:15:12.625000,-59.39,91.75
58261,2018-06-29 09:15:12.656250,-66.57,91.75
58262,2018-06-29 09:15:12.687500,-71.72,91.75
58263,2018-06-29 09:15:12.718750,-65.79,91.75
58264,2018-06-29 09:15:12.750000,-39.84,91.75
58265,2018-06-29 09:15:12.781250,7.52,91.75
58266,2018-06-29 09:15:12.812500,63.56,91.75
58267,2018-06-29 09:15:12.843750,109.86,91.75
58268,2018-06-29 09:15:12.875000,137.08,91.75
58269,2018-06-29 09:15:12.906250,144.65,91.75
58270,2018-06-29 09:15:12.937500,130.51,91.75
58271,2018-06-29 09:15:12.968750,92.67,91.75
58272,2018-06-29 09:15:13.000000,38.12,91.75
58273,2018-06-29 09:15:13.031250,-19.54,91.75
58274,2018-06-29 09:15:13.062500,-70.5,91.75
58275,2018-06-29 09:15:13.093750,-112.39,91.75
58276,2018-06-29 09:15:13.125000,-145.44,91.75
58277,2018-06-29 09:15:13.156250,-166.13,91.75
58278,2018-06-29 09:15:13.187500,-167.49,91.75
58279,2018-06-29 09:15:13.218750,-146.6,91.75
58280,2018-06-29 09:15:13.250000,-108.04,91.75
58281,2018-06-29 09:15:13.281250,-58.73,91.75
58282,2018-06-29 09:15:13.312500,-6.05,91.75
58283,2018-06-29 09:15:13.343750,40.49,91.75
58284,2018-06-29 09:15:13.375000,75.03,91.75
58285,2018-06-29 09:15:13.406250,98.7,91.75
58286,2018-06-29 09:15:13.437500,109.52,91.75
58287,2018-06-29 09:15:13.468750,99.54,91.75
58288,2018-06-29 09:15:13.500000,68.79,91.75
58289,2018-06-29 09:15:13.531250,29.97,92.25
58290,2018-06-29 09:15:13.562500,-4.69,92.25
58291,2018-06-29 09:15:13.593750,-30.93,92.25
58292,2018-06-29 09:15:13.625000,-47.96,92.25
58293,2018-06-29 09:15:13.656250,-57.37,92.25
58294,2018-06-29 09:15:13.687500,-63.68,92.25
58295,2018-06-29 09:15:13.718750,-68.77,92.25
58296,2018-06-29 09:15:13.750000,-69.78,92.25
58297,2018-06-29 09:15:13.781250,-65.59,92.25
58298,2018-06-29 09:15:13.812500,-59.0,92.25
58299,2018-06-29 09:15:13.843750,-50.58,92.25
58300,2018-06-29 09:15:13.875000,-35.76,92.25
58301,2018-06-29 09:15:13.906250,-7.78,92.25
58302,2018-06-29 09:15:13.937500,37.25,92.25
58303,2018-06-29 09:15:13.968750,93.45,92.25
58304,2018-06-29 09:15:14.000000,143.91,92.25
58305,2018-06-29 09:15:14.031250,172.53,92.25
58306,2018-06-29 09:15:14.062500,175.28,92.25
58307,2018-06-29 09:15:14.093750,156.98,92.25
58308,2018-06-29 09:15:14.125000,122.49,92.25
58309,2018-06-29 09:15:14.156250,75.06,92.25
58310,2018-06-29 09:15:14.187500,19.9,92.25
58311,2018-06-29 09:15:14.218750,-34.72,92.25
58312,2018-06-29 09:15:14.250000,-79.46,92.25
58313,2018-06-29 09:15:14.281250,-106.55,92.25
58314,2018-06-29 09:15:14.312500,-113.39,92.25
58315,2018-06-29 09:15:14.343750,-104.68,92.25
58316,2018-06-29 09:15:14.375000,-88.58,92.25
58317,2018-06-29 09:15:14.406250,-70.6,92.25
58318,2018-06-29 09:15:14.437500,-52.6,92.25
58319,2018-06-29 09:15:14.468750,-35.92,92.25
58320,2018-06-29 09:15:14.500000,-23.7,92.25
58321,2018-06-29 09:15:14.531250,-19.48,92.72
58322,2018-06-29 09:15:14.562500,-21.9,92.72
58323,2018-06-29 09:15:14.593750,-23.22,92.72
58324,2018-06-29 09:15:14.625000,-17.45,92.72
58325,2018-06-29 09:15:14.656250,-6.89,92.72
58326,2018-06-29 09:15:14.687500,2.56,92.72
58327,2018-06-29 09:15:14.718750,8.25,92.72
58328,2018-06-29 09:15:14.750000,11.11,92.72
58329,2018-06-29 09:15:14.781250,13.37,92.72
58330,2018-06-29 09:15:14.812500,17.0,92.72
58331,2018-06-29 09:15:14.843750,22.42,92.72
58332,2018-06-29 09:15:14.875000,28.38,92.72
58333,2018-06-29 09:15:14.906250,32.12,92.72
58334,2018-06-29 09:15:14.937500,31.57,92.72
58335,2018-06-29 09:15:14.968750,30.46,92.72
58336,2018-06-29 09:15:15.000000,36.32,92.72
58337,2018-06-29 09:15:15.031250,48.25,92.72
58338,2018-06-29 09:15:15.062500,56.12,92.72
58339,2018-06-29 09:15:15.093750,56.97,92.72
58340,2018-06-29 09:15:15.125000,59.01,92.72
58341,2018-06-29 09:15:15.156250,65.02,92.72
58342,2018-06-29 09:15:15.187500,66.63,92.72
58343,2018-06-29 09:15:15.218750,57.26,92.72
58344,2018-06-29 09:15:15.250000,37.87,92.72
58345,2018-06-29 09:15:15.281250,10.59,92.72
58346,2018-06-29 09:15:15.312500,-21.7,92.72
58347,2018-06-29 09:15:15.343750,-51.25,92.72
58348,2018-06-29 09:15:15.375000,-69.64,92.72
58349,2018-06-29 09:15:15.406250,-75.63,92.72
58350,2018-06-29 09:15:15.437500,-73.94,92.72
58351,2018-06-29 09:15:15.468750,-67.93,92.72
58352,2018-06-29 09:15:15.500000,-58.16,92.72
58353,2018-06-29 09:15:15.531250,-46.69,93.17
58354,2018-06-29 09:15:15.562500,-36.78,93.17
58355,2018-06-29 09:15:15.593750,-29.27,93.17
58356,2018-06-29 09:15:15.625000,-22.44,93.17
58357,2018-06-29 09:15:15.656250,-14.54,93.17
58358,2018-06-29 09:15:15.687500,-5.43,93.17
58359,2018-06-29 09:15:15.718750,2.26,93.17
58360,2018-06-29 09:15:15.750000,4.56,93.17
58361,2018-06-29 09:15:15.781250,0.98,93.17
58362,2018-06-29 09:15:15.812500,-4.54,93.17
58363,2018-06-29 09:15:15.843750,-8.84,93.17
58364,2018-06-29 09:15:15.875000,-12.7,93.17
58365,2018-06-29 09:15:15.906250,-18.18,93.17
58366,2018-06-29 09:15:15.937500,-24.25,93.17
58367,2018-06-29 09:15:15.968750,-24.83,93.17
58368,2018-06-29 09:15:16.000000,-13.42,93.17
58369,2018-06-29 09:15:16.031250,9.17,93.17
58370,2018-06-29 09:15:16.062500,34.58,93.17
58371,2018-06-29 09:15:16.093750,55.68,93.17
58372,2018-06-29 09:15:16.125000,72.33,93.17
58373,2018-06-29 09:15:16.156250,87.37,93.17
58374,2018-06-29 09:15:16.187500,99.73,93.17
58375,2018-06-29 09:15:16.218750,104.51,93.17
58376,2018-06-29 09:15:16.250000,100.37,93.17
58377,2018-06-29 09:15:16.281250,92.7,93.17
58378,2018-06-29 09:15:16.312500,86.06,93.17
58379,2018-06-29 09:15:16.343750,78.27,93.17
58380,2018-06-29 09:15:16.375000,64.87,93.17
58381,2018-06-29 09:15:16.406250,42.3,93.17
58382,2018-06-29 09:15:16.437500,7.15,93.17
58383,2018-06-29 09:15:16.468750,-38.77,93.17
58384,2018-06-29 09:15:16.500000,-83.38,93.17
58385,2018-06-29 09:15:16.531250,-113.53,93.62
58386,2018-06-29 09:15:16.562500,-127.55,93.62
58387,2018-06-29 09:15:16.593750,-133.43,93.62
58388,2018-06-29 09:15:16.625000,-136.5,93.62
58389,2018-06-29 09:15:16.656250,-133.05,93.62
58390,2018-06-29 09:15:16.687500,-115.95,93.62
58391,2018-06-29 09:15:16.718750,-84.76,93.62
58392,2018-06-29 09:15:16.750000,-47.74,93.62
58393,2018-06-29 09:15:16.781250,-14.04,93.62
58394,2018-06-29 09:15:16.812500,12.32,93.62
58395,2018-06-29 09:15:16.843750,29.97,93.62
58396,2018-06-29 09:15:16.875000,37.48,93.62
58397,2018-06-29 09:15:16.906250,35.69,93.62
58398,2018-06-29 09:15:16.937500,28.82,93.62
58399,2018-06-29 09:15:16.968750,21.44,93.62
58400,2018-06-29 09:15:17.000000,16.29,93.62
58401,2018-06-29 09:15:17.031250,14.36,93.62
58402,2018-06-29 09:15:17.062500,14.56,93.62
58403,2018-06-29 09:15:17.093750,13.96,93.62
58404,2018-06-29 09:15:17.125000,10.39,93.62
58405,2018-06-29 09:15:17.156250,4.77,93.62
58406,2018-06-29 09:15:17.187500,-0.51,93.62
58407,2018-06-29 09:15:17.218750,-4.14,93.62
58408,2018-06-29 09:15:17.250000,-6.21,93.62
58409,2018-06-29 09:15:17.281250,-7.58,93.62
58410,2018-06-29 09:15:17.312500,-9.2,93.62
58411,2018-06-29 09:15:17.343750,-9.41,93.62
58412,2018-06-29 09:15:17.375000,-2.89,93.62
58413,2018-06-29 09:15:17.406250,15.06,93.62
58414,2018-06-29 09:15:17.437500,43.82,93.62
58415,2018-06-29 09:15:17.468750,76.47,93.62
58416,2018-06-29 09:15:17.500000,100.53,93.62
58417,2018-06-29 09:15:17.531250,104.15,94.07
58418,2018-06-29 09:15:17.562500,86.8,94.07
58419,2018-06-29 09:15:17.593750,60.4,94.07
58420,2018-06-29 09:15:17.625000,37.5,94.07
58421,2018-06-29 09:15:17.656250,22.13,94.07
58422,2018-06-29 09:15:17.687500,11.94,94.07
58423,2018-06-29 09:15:17.718750,3.06,94.07
58424,2018-06-29 09:15:17.750000,-7.53,94.07
58425,2018-06-29 09:15:17.781250,-20.64,94.07
58426,2018-06-29 09:15:17.812500,-34.1,94.07
58427,2018-06-29 09:15:17.843750,-44.37,94.07
58428,2018-06-29 09:15:17.875000,-50.18,94.07
58429,2018-06-29 09:15:17.906250,-53.41,94.07
58430,2018-06-29 09:15:17.937500,-56.28,94.07
58431,2018-06-29 09:15:17.968750,-59.84,94.07
58432,2018-06-29 09:15:18.000000,-63.45,94.07
58433,2018-06-29 09:15:18.031250,-62.82,94.07
58434,2018-06-29 09:15:18.062500,-52.37,94.07
58435,2018-06-29 09:15:18.093750,-32.86,94.07
58436,2018-06-29 09:15:18.125000,-12.21,94.07
58437,2018-06-29 09:15:18.156250,3.23,94.07
58438,2018-06-29 09:15:18.187500,12.8,94.07
58439,2018-06-29 09:15:18.218750,17.56,94.07
58440,2018-06-29 09:15:18.250000,18.68,94.07
58441,2018-06-29 09:15:18.281250,18.15,94.07
58442,2018-06-29 09:15:18.312500,16.8,94.07
58443,2018-06-29 09:15:18.343750,13.65,94.07
58444,2018-06-29 09:15:18.375000,9.32,94.07
58445,2018-06-29 09:15:18.406250,6.58,94.07
58446,2018-06-29 09:15:18.437500,6.0,94.07
58447,2018-06-29 09:15:18.468750,4.63,94.07
58448,2018-06-29 09:15:18.500000,0.06,94.07
58449,2018-06-29 09:15:18.531250,-6.53,94.53
58450,2018-06-29 09:15:18.562500,-12.64,94.53
58451,2018-06-29 09:15:18.593750,-17.59,94.53
58452,2018-06-29 09:15:18.625000,-22.76,94.53
58453,2018-06-29 09:15:18.656250,-29.68,94.53
58454,2018-06-29 09:15:18.687500,-36.81,94.53
58455,2018-06-29 09:15:18.718750,-38.25,94.53
58456,2018-06-29 09:15:18.750000,-28.69,94.53
58457,2018-06-29 09:15:18.781250,-10.34,94.53
58458,2018-06-29 09:15:18.812500,8.63,94.53
58459,2018-06-29 09:15:18.843750,22.37,94.53
58460,2018-06-29 09:15:18.875000,30.76,94.53
58461,2018-06-29 09:15:18.906250,35.67,94.53
58462,2018-06-29 09:15:18.937500,38.28,94.53
58463,2018-06-29 09:15:18.968750,39.34,94.53
58464,2018-06-29 09:15:19.000000,38.84,94.53
58465,2018-06-29 09:15:19.031250,35.81,94.53
58466,2018-06-29 09:15:19.062500,30.53,94.53
58467,2018-06-29 09:15:19.093750,25.61,94.53
58468,2018-06-29 09:15:19.125000,22.9,94.53
58469,2018-06-29 09:15:19.156250,20.57,94.53
58470,2018-06-29 09:15:19.187500,15.79,94.53
58471,2018-06-29 09:15:19.218750,8.78,94.53
58472,2018-06-29 09:15:19.250000,1.99,94.53
58473,2018-06-29 09:15:19.281250,-3.56,94.53
58474,2018-06-29 09:15:19.312500,-9.27,94.53
58475,2018-06-29 09:15:19.343750,-16.99,94.53
58476,2018-06-29 09:15:19.375000,-25.96,94.53
58477,2018-06-29 09:15:19.406250,-30.92,94.53
58478,2018-06-29 09:15:19.437500,-25.81,94.53
58479,2018-06-29 09:15:19.468750,-10.68,94.53
58480,2018-06-29 09:15:19.500000,8.1,94.53
58481,2018-06-29 09:15:19.531250,24.99,95.03
58482,2018-06-29 09:15:19.562500,38.02,95.03
58483,2018-06-29 09:15:19.593750,45.15,95.03
58484,2018-06-29 09:15:19.625000,45.35,95.03
58485,2018-06-29 09:15:19.656250,43.56,95.03
58486,2018-06-29 09:15:19.687500,46.24,95.03
58487,2018-06-29 09:15:19.718750,51.33,95.03
58488,2018-06-29 09:15:19.750000,51.16,95.03
58489,2018-06-29 09:15:19.781250,45.86,95.03
58490,2018-06-29 09:15:19.812500,45.72,95.03
58491,2018-06-29 09:15:19.843750,58.89,95.03
58492,2018-06-29 09:15:19.875000,78.6,95.03
58493,2018-06-29 09:15:19.906250,83.02,95.03
58494,2018-06-29 09:15:19.937500,54.65,95.03
58495,2018-06-29 09:15:19.968750,4.29,95.03
58496,2018-06-29 09:15:20.000000,-36.55,95.03
58497,2018-06-29 09:15:20.031250,-52.27,95.03
58498,2018-06-29 09:15:20.062500,-55.72,95.03
58499,2018-06-29 09:15:20.093750,-61.81,95.03
58500,2018-06-29 09:15:20.125000,-68.71,95.03
58501,2018-06-29 09:15:20.156250,-69.27,95.03
58502,2018-06-29 09:15:20.187500,-62.3,95.03
58503,2018-06-29 09:15:20.218750,-47.79,95.03
58504,2018-06-29 09:15:20.250000,-25.76,95.03
58505,2018-06-29 09:15:20.281250,-2.6,95.03
58506,2018-06-29 09:15:20.312500,12.77,95.03
58507,2018-06-29 09:15:20.343750,21.0,95.03
58508,2018-06-29 09:15:20.375000,31.76,95.03
58509,2018-06-29 09:15:20.406250,49.15,95.03
58510,2018-06-29 09:15:20.437500,66.08,95.03
58511,2018-06-29 09:15:20.468750,77.1,95.03
58512,2018-06-29 09:15:20.500000,88.76,95.03
58513,2018-06-29 09:15:20.531250,109.84,95.48
58514,2018-06-29 09:15:20.562500,134.71,95.48
58515,2018-06-29 09:15:20.593750,143.2,95.48
58516,2018-06-29 09:15:20.625000,116.71,95.48
58517,2018-06-29 09:15:20.656250,57.11,95.48
58518,2018-06-29 09:15:20.687500,-9.2,95.48
58519,2018-06-29 09:15:20.718750,-54.9,95.48
58520,2018-06-29 09:15:20.750000,-78.3,95.48
58521,2018-06-29 09:15:20.781250,-95.79,95.48
58522,2018-06-29 09:15:20.812500,-115.17,95.48
58523,2018-06-29 09:15:20.843750,-130.3,95.48
58524,2018-06-29 09:15:20.875000,-133.58,95.48
58525,2018-06-29 09:15:20.906250,-122.26,95.48
58526,2018-06-29 09:15:20.937500,-98.83,95.48
58527,2018-06-29 09:15:20.968750,-70.78,95.48
58528,2018-06-29 09:15:21.000000,-47.03,95.48
58529,2018-06-29 09:15:21.031250,-32.34,95.48
58530,2018-06-29 09:15:21.062500,-25.13,95.48
58531,2018-06-29 09:15:21.093750,-21.49,95.48
58532,2018-06-29 09:15:21.125000,-21.03,95.48
58533,2018-06-29 09:15:21.156250,-25.61,95.48
58534,2018-06-29 09:15:21.187500,-33.43,95.48
58535,2018-06-29 09:15:21.218750,-38.98,95.48
58536,2018-06-29 09:15:21.250000,-37.14,95.48
58537,2018-06-29 09:15:21.281250,-25.02,95.48
58538,2018-06-29 09:15:21.312500,-5.35,95.48
58539,2018-06-29 09:15:21.343750,12.15,95.48
58540,2018-06-29 09:15:21.375000,19.86,95.48
58541,2018-06-29 09:15:21.406250,19.75,95.48
58542,2018-06-29 09:15:21.437500,16.2,95.48
58543,2018-06-29 09:15:21.468750,9.42,95.48
58544,2018-06-29 09:15:21.500000,0.47,95.48
58545,2018-06-29 09:15:21.531250,-7.13,95.92
58546,2018-06-29 09:15:21.562500,-13.54,95.92
58547,2018-06-29 09:15:21.593750,-19.56,95.92
58548,2018-06-29 09:15:21.625000,-18.33,95.92
58549,2018-06-29 09:15:21.656250,-2.38,95.92
58550,2018-06-29 09:15:21.687500,22.58,95.92
58551,2018-06-29 09:15:21.718750,43.32,95.92
58552,2018-06-29 09:15:21.750000,56.56,95.92
58553,2018-06-29 09:15:21.781250,69.18,95.92
58554,2018-06-29 09:15:21.812500,83.63,95.92
58555,2018-06-29 09:15:21.843750,94.39,95.92
58556,2018-06-29 09:15:21.875000,97.53,95.92
58557,2018-06-29 09:15:21.906250,95.04,95.92
58558,2018-06-29 09:15:21.937500,90.31,95.92
58559,2018-06-29 09:15:21.968750,85.73,95.92
58560,2018-06-29 09:15:22.000000,80.7,95.92
58561,2018-06-29 09:15:22.031250,69.09,95.92
58562,2018-06-29 09:15:22.062500,52.03,95.92
58563,2018-06-29 09:15:22.093750,47.09,95.92
58564,2018-06-29 09:15:22.125000,60.4,95.92
58565,2018-06-29 09:15:22.156250,69.05,95.92
58566,2018-06-29 09:15:22.187500,59.53,95.92
58567,2018-06-29 09:15:22.218750,50.85,95.92
58568,2018-06-29 09:15:22.250000,57.31,95.92
58569,2018-06-29 09:15:22.281250,65.13,95.92
58570,2018-06-29 09:15:22.312500,57.21,95.92
58571,2018-06-29 09:15:22.343750,33.14,95.92
58572,2018-06-29 09:15:22.375000,7.65,95.92
58573,2018-06-29 09:15:22.406250,0.95,95.92
58574,2018-06-29 09:15:22.437500,17.76,95.92
58575,2018-06-29 09:15:22.468750,35.96,95.92
58576,2018-06-29 09:15:22.500000,25.59,95.92
58577,2018-06-29 09:15:22.531250,-23.7,96.35
58578,2018-06-29 09:15:22.562500,-94.17,96.35
58579,2018-06-29 09:15:22.593750,-153.38,96.35
58580,2018-06-29 09:15:22.625000,-176.93,96.35
58581,2018-06-29 09:15:22.656250,-162.78,96.35
58582,2018-06-29 09:15:22.687500,-127.31,96.35
58583,2018-06-29 09:15:22.718750,-89.59,96.35
58584,2018-06-29 09:15:22.750000,-59.85,96.35
58585,2018-06-29 09:15:22.781250,-41.36,96.35
58586,2018-06-29 09:15:22.812500,-36.44,96.35
58587,2018-06-29 09:15:22.843750,-44.52,96.35
58588,2018-06-29 09:15:22.875000,-58.32,96.35
58589,2018-06-29 09:15:22.906250,-69.1,96.35
58590,2018-06-29 09:15:22.937500,-74.25,96.35
58591,2018-06-29 09:15:22.968750,-76.08,96.35
58592,2018-06-29 09:15:23.000000,-75.21,96.35
58593,2018-06-29 09:15:23.031250,-67.22,96.35
58594,2018-06-29 09:15:23.062500,-45.23,96.35
58595,2018-06-29 09:15:23.093750,-6.35,96.35
58596,2018-06-29 09:15:23.125000,43.68,96.35
58597,2018-06-29 09:15:23.156250,92.85,96.35
58598,2018-06-29 09:15:23.187500,128.28,96.35
58599,2018-06-29 09:15:23.218750,140.69,96.35
58600,2018-06-29 09:15:23.250000,130.61,96.35
58601,2018-06-29 09:15:23.281250,108.85,96.35
58602,2018-06-29 09:15:23.312500,84.37,96.35
58603,2018-06-29 09:15:23.343750,55.23,96.35
58604,2018-06-29 09:15:23.375000,15.9,96.35
58605,2018-06-29 09:15:23.406250,-31.23,96.35
58606,2018-06-29 09:15:23.437500,-72.6,96.35
58607,2018-06-29 09:15:23.468750,-89.43,96.35
58608,2018-06-29 09:15:23.500000,-73.38,96.35
58609,2018-06-29 09:15:23.531250,-38.23,96.75
58610,2018-06-29 09:15:23.562500,-6.84,96.75
58611,2018-06-29 09:15:23.593750,12.17,96.75
58612,2018-06-29 09:15:23.625000,25.6,96.75
58613,2018-06-29 09:15:23.656250,37.8,96.75
58614,2018-06-29 09:15:23.687500,42.8,96.75
58615,2018-06-29 09:15:23.718750,34.59,96.75
58616,2018-06-29 09:15:23.750000,15.29,96.75
58617,2018-06-29 09:15:23.781250,-10.33,96.75
58618,2018-06-29 09:15:23.812500,-39.67,96.75
58619,2018-06-29 09:15:23.843750,-66.62,96.75
58620,2018-06-29 09:15:23.875000,-81.48,96.75
58621,2018-06-29 09:15:23.906250,-82.16,96.75
58622,2018-06-29 09:15:23.937500,-75.63,96.75
58623,2018-06-29 09:15:23.968750,-65.59,96.75
58624,2018-06-29 09:15:24.000000,-50.69,96.75
58625,2018-06-29 09:15:24.031250,-34.48,96.75
58626,2018-06-29 09:15:24.062500,-24.22,96.75
58627,2018-06-29 09:15:24.093750,-20.04,96.75
58628,2018-06-29 09:15:24.125000,-14.83,96.75
58629,2018-06-29 09:15:24.156250,-4.68,96.75
58630,2018-06-29 09:15:24.187500,7.16,96.75
58631,2018-06-29 09:15:24.218750,15.63,96.75
58632,2018-06-29 09:15:24.250000,18.58,96.75
58633,2018-06-29 09:15:24.281250,16.3,96.75
58634,2018-06-29 09:15:24.312500,9.93,96.75
58635,2018-06-29 09:15:24.343750,2.02,96.75
58636,2018-06-29 09:15:24.375000,-2.32,96.75
58637,2018-06-29 09:15:24.406250,2.68,96.75
58638,2018-06-29 09:15:24.437500,17.35,96.75
58639,2018-06-29 09:15:24.468750,32.01,96.75
58640,2018-06-29 09:15:24.500000,36.23,96.75
58641,2018-06-29 09:15:24.531250,35.29,97.18
58642,2018-06-29 09:15:24.562500,46.53,97.18
58643,2018-06-29 09:15:24.593750,75.82,97.18
58644,2018-06-29 09:15:24.625000,109.53,97.18
58645,2018-06-29 09:15:24.656250,132.29,97.18
58646,2018-06-29 09:15:24.687500,140.95,97.18
58647,2018-06-29 09:15:24.718750,137.75,97.18
58648,2018-06-29 09:15:24.750000,121.29,97.18
58649,2018-06-29 09:15:24.781250,88.97,97.18
58650,2018-06-29 09:15:24.812500,41.66,97.18
58651,2018-06-29 09:15:24.843750,-16.93,97.18
58652,2018-06-29 09:15:24.875000,-79.58,97.18
58653,2018-06-29 09:15:24.906250,-133.88,97.18
58654,2018-06-29 09:15:24.937500,-168.27,97.18
58655,2018-06-29 09:15:24.968750,-181.25,97.18
58656,2018-06-29 09:15:25.000000,-181.76,97.18
58657,2018-06-29 09:15:25.031250,-179.94,97.18
58658,2018-06-29 09:15:25.062500,-177.5,97.18
58659,2018-06-29 09:15:25.093750,-167.53,97.18
58660,2018-06-29 09:15:25.125000,-144.81,97.18
58661,2018-06-29 09:15:25.156250,-114.51,97.18
58662,2018-06-29 09:15:25.187500,-88.54,97.18
58663,2018-06-29 09:15:25.218750,-73.65,97.18
58664,2018-06-29 09:15:25.250000,-63.61,97.18
58665,2018-06-29 09:15:25.281250,-42.17,97.18
58666,2018-06-29 09:15:25.312500,2.99,97.18
58667,2018-06-29 09:15:25.343750,64.07,97.18
58668,2018-06-29 09:15:25.375000,113.02,97.18
58669,2018-06-29 09:15:25.406250,127.28,97.18
58670,2018-06-29 09:15:25.437500,114.29,97.18
58671,2018-06-29 09:15:25.468750,99.77,97.18
58672,2018-06-29 09:15:25.500000,96.51,97.18
58673,2018-06-29 09:15:25.531250,97.89,97.62
58674,2018-06-29 09:15:25.562500,94.68,97.62
58675,2018-06-29 09:15:25.593750,83.49,97.62
58676,2018-06-29 09:15:25.625000,65.44,97.62
58677,2018-06-29 09:15:25.656250,48.47,97.62
58678,2018-06-29 09:15:25.687500,44.33,97.62
58679,2018-06-29 09:15:25.718750,57.21,97.62
58680,2018-06-29 09:15:25.750000,77.74,97.62
58681,2018-06-29 09:15:25.781250,89.58,97.62
58682,2018-06-29 09:15:25.812500,82.42,97.62
58683,2018-06-29 09:15:25.843750,59.31,97.62
58684,2018-06-29 09:15:25.875000,30.5,97.62
58685,2018-06-29 09:15:25.906250,2.6,97.62
58686,2018-06-29 09:15:25.937500,-20.71,97.62
58687,2018-06-29 09:15:25.968750,-32.63,97.62
58688,2018-06-29 09:15:26.000000,-28.16,97.62
58689,2018-06-29 09:15:26.031250,-12.09,97.62
58690,2018-06-29 09:15:26.062500,5.85,97.62
58691,2018-06-29 09:15:26.093750,20.42,97.62
58692,2018-06-29 09:15:26.125000,29.35,97.62
58693,2018-06-29 09:15:26.156250,27.97,97.62
58694,2018-06-29 09:15:26.187500,14.12,97.62
58695,2018-06-29 09:15:26.218750,-5.57,97.62
58696,2018-06-29 09:15:26.250000,-24.0,97.62
58697,2018-06-29 09:15:26.281250,-43.81,97.62
58698,2018-06-29 09:15:26.312500,-70.13,97.62
58699,2018-06-29 09:15:26.343750,-98.33,97.62
58700,2018-06-29 09:15:26.375000,-117.96,97.62
58701,2018-06-29 09:15:26.406250,-124.19,97.62
58702,2018-06-29 09:15:26.437500,-118.17,97.62
58703,2018-06-29 09:15:26.468750,-101.52,97.62
58704,2018-06-29 09:15:26.500000,-77.33,97.62
58705,2018-06-29 09:15:26.531250,-53.11,98.0
58706,2018-06-29 09:15:26.562500,-36.63,98.0
58707,2018-06-29 09:15:26.593750,-29.72,98.0
58708,2018-06-29 09:15:26.625000,-28.26,98.0
58709,2018-06-29 09:15:26.656250,-25.12,98.0
58710,2018-06-29 09:15:26.687500,-14.02,98.0
58711,2018-06-29 09:15:26.718750,4.5,98.0
58712,2018-06-29 09:15:26.750000,22.37,98.0
58713,2018-06-29 09:15:26.781250,32.56,98.0
58714,2018-06-29 09:15:26.812500,34.18,98.0
58715,2018-06-29 09:15:26.843750,28.62,98.0
58716,2018-06-29 09:15:26.875000,17.54,98.0
58717,2018-06-29 09:15:26.906250,4.62,98.0
58718,2018-06-29 09:15:26.937500,-6.49,98.0
58719,2018-06-29 09:15:26.968750,-14.76,98.0
58720,2018-06-29 09:15:27.000000,-19.53,98.0
58721,2018-06-29 09:15:27.031250,-18.79,98.0
58722,2018-06-29 09:15:27.062500,-12.27,98.0
58723,2018-06-29 09:15:27.093750,-2.9,98.0
58724,2018-06-29 09:15:27.125000,5.9,98.0
58725,2018-06-29 09:15:27.156250,11.38,98.0
58726,2018-06-29 09:15:27.187500,11.0,98.0
58727,2018-06-29 09:15:27.218750,4.16,98.0
58728,2018-06-29 09:15:27.250000,-7.78,98.0
58729,2018-06-29 09:15:27.281250,-24.05,98.0
58730,2018-06-29 09:15:27.312500,-43.55,98.0
58731,2018-06-29 09:15:27.343750,-60.59,98.0
58732,2018-06-29 09:15:27.375000,-67.02,98.0
58733,2018-06-29 09:15:27.406250,-59.87,98.0
58734,2018-06-29 09:15:27.437500,-44.72,98.0
58735,2018-06-29 09:15:27.468750,-30.79,98.0
58736,2018-06-29 09:15:27.500000,-23.79,98.0
58737,2018-06-29 09:15:27.531250,-23.18,98.37
58738,2018-06-29 09:15:27.562500,-25.18,98.37
58739,2018-06-29 09:15:27.593750,-27.2,98.37
58740,2018-06-29 09:15:27.625000,-28.98,98.37
58741,2018-06-29 09:15:27.656250,-30.48,98.37
58742,2018-06-29 09:15:27.687500,-31.04,98.37
58743,2018-06-29 09:15:27.718750,-30.17,98.37
58744,2018-06-29 09:15:27.750000,-26.78,98.37
58745,2018-06-29 09:15:27.781250,-19.08,98.37
58746,2018-06-29 09:15:27.812500,-7.08,98.37
58747,2018-06-29 09:15:27.843750,7.61,98.37
58748,2018-06-29 09:15:27.875000,24.55,98.37
58749,2018-06-29 09:15:27.906250,41.95,98.37
58750,2018-06-29 09:15:27.937500,53.47,98.37
58751,2018-06-29 09:15:27.968750,54.28,98.37
58752,2018-06-29 09:15:28.000000,48.16,98.37
58753,2018-06-29 09:15:28.031250,43.77,98.37
58754,2018-06-29 09:15:28.062500,46.15,98.37
58755,2018-06-29 09:15:28.093750,53.87,98.37
58756,2018-06-29 09:15:28.125000,60.81,98.37
58757,2018-06-29 09:15:28.156250,60.17,98.37
58758,2018-06-29 09:15:28.187500,49.36,98.37
58759,2018-06-29 09:15:28.218750,31.55,98.37
58760,2018-06-29 09:15:28.250000,12.11,98.37
58761,2018-06-29 09:15:28.281250,-5.81,98.37
58762,2018-06-29 09:15:28.312500,-22.56,98.37
58763,2018-06-29 09:15:28.343750,-39.38,98.37
58764,2018-06-29 09:15:28.375000,-54.15,98.37
58765,2018-06-29 09:15:28.406250,-60.53,98.37
58766,2018-06-29 09:15:28.437500,-54.31,98.37
58767,2018-06-29 09:15:28.468750,-40.24,98.37
58768,2018-06-29 09:15:28.500000,-29.61,98.37
58769,2018-06-29 09:15:28.531250,-29.72,98.72
58770,2018-06-29 09:15:28.562500,-37.42,98.72
58771,2018-06-29 09:15:28.593750,-44.59,98.72
58772,2018-06-29 09:15:28.625000,-49.2,98.72
58773,2018-06-29 09:15:28.656250,-56.33,98.72
58774,2018-06-29 09:15:28.687500,-67.36,98.72
58775,2018-06-29 09:15:28.718750,-73.82,98.72
58776,2018-06-29 09:15:28.750000,-65.31,98.72
58777,2018-06-29 09:15:28.781250,-39.98,98.72
58778,2018-06-29 09:15:28.812500,-5.75,98.72
58779,2018-06-29 09:15:28.843750,25.23,98.72
58780,2018-06-29 09:15:28.875000,43.24,98.72
58781,2018-06-29 09:15:28.906250,46.13,98.72
58782,2018-06-29 09:15:28.937500,39.05,98.72
58783,2018-06-29 09:15:28.968750,28.63,98.72
58784,2018-06-29 09:15:29.000000,17.96,98.72
58785,2018-06-29 09:15:29.031250,7.67,98.72
58786,2018-06-29 09:15:29.062500,-0.21,98.72
58787,2018-06-29 09:15:29.093750,-1.95,98.72
58788,2018-06-29 09:15:29.125000,2.84,98.72
58789,2018-06-29 09:15:29.156250,8.54,98.72
58790,2018-06-29 09:15:29.187500,8.86,98.72
58791,2018-06-29 09:15:29.218750,3.86,98.72
58792,2018-06-29 09:15:29.250000,-1.13,98.72
58793,2018-06-29 09:15:29.281250,-3.09,98.72
58794,2018-06-29 09:15:29.312500,-5.18,98.72
58795,2018-06-29 09:15:29.343750,-12.16,98.72
58796,2018-06-29 09:15:29.375000,-20.95,98.72
58797,2018-06-29 09:15:29.406250,-19.3,98.72
58798,2018-06-29 09:15:29.437500,-0.33,98.72
58799,2018-06-29 09:15:29.468750,26.36,98.72
58800,2018-06-29 09:15:29.500000,48.3,98.72
58801,2018-06-29 09:15:29.531250,66.81,99.12
58802,2018-06-29 09:15:29.562500,87.65,99.12
58803,2018-06-29 09:15:29.593750,105.12,99.12
58804,2018-06-29 09:15:29.625000,109.41,99.12
58805,2018-06-29 09:15:29.656250,102.34,99.12
58806,2018-06-29 09:15:29.687500,96.55,99.12
58807,2018-06-29 09:15:29.718750,102.6,99.12
58808,2018-06-29 09:15:29.750000,116.01,99.12
58809,2018-06-29 09:15:29.781250,115.15,99.12
58810,2018-06-29 09:15:29.812500,84.16,99.12
58811,2018-06-29 09:15:29.843750,42.8,99.12
58812,2018-06-29 09:15:29.875000,31.53,99.12
58813,2018-06-29 09:15:29.906250,60.8,99.12
58814,2018-06-29 09:15:29.937500,96.21,99.12
58815,2018-06-29 09:15:29.968750,96.19,99.12
58816,2018-06-29 09:15:30.000000,51.32,99.12
58817,2018-06-29 09:15:30.031250,-11.86,99.12
58818,2018-06-29 09:15:30.062500,-58.45,99.12
58819,2018-06-29 09:15:30.093750,-76.15,99.12
58820,2018-06-29 09:15:30.125000,-77.33,99.12
58821,2018-06-29 09:15:30.156250,-77.12,99.12
58822,2018-06-29 09:15:30.187500,-80.32,99.12
58823,2018-06-29 09:15:30.218750,-82.36,99.12
58824,2018-06-29 09:15:30.250000,-73.66,99.12
58825,2018-06-29 09:15:30.281250,-47.73,99.12
58826,2018-06-29 09:15:30.312500,-8.18,99.12
58827,2018-06-29 09:15:30.343750,35.04,99.12
58828,2018-06-29 09:15:30.375000,74.35,99.12
58829,2018-06-29 09:15:30.406250,103.45,99.12
58830,2018-06-29 09:15:30.437500,114.18,99.12
58831,2018-06-29 09:15:30.468750,104.22,99.12
58832,2018-06-29 09:15:30.500000,80.63,99.12
58833,2018-06-29 09:15:30.531250,51.05,99.48
58834,2018-06-29 09:15:30.562500,23.48,99.48
58835,2018-06-29 09:15:30.593750,13.25,99.48
58836,2018-06-29 09:15:30.625000,31.77,99.48
58837,2018-06-29 09:15:30.656250,64.64,99.48
58838,2018-06-29 09:15:30.687500,76.46,99.48
58839,2018-06-29 09:15:30.718750,47.2,99.48
58840,2018-06-29 09:15:30.750000,-4.67,99.48
58841,2018-06-29 09:15:30.781250,-43.68,99.48
58842,2018-06-29 09:15:30.812500,-56.1,99.48
58843,2018-06-29 09:15:30.843750,-57.45,99.48
58844,2018-06-29 09:15:30.875000,-69.63,99.48
58845,2018-06-29 09:15:30.906250,-96.48,99.48
58846,2018-06-29 09:15:30.937500,-120.29,99.48
58847,2018-06-29 09:15:30.968750,-117.94,99.48
58848,2018-06-29 09:15:31.000000,-79.92,99.48
58849,2018-06-29 09:15:31.031250,-19.04,99.48
58850,2018-06-29 09:15:31.062500,33.6,99.48
58851,2018-06-29 09:15:31.093750,49.77,99.48
58852,2018-06-29 09:15:31.125000,34.89,99.48
58853,2018-06-29 09:15:31.156250,19.94,99.48
58854,2018-06-29 09:15:31.187500,21.63,99.48
58855,2018-06-29 09:15:31.218750,22.58,99.48
58856,2018-06-29 09:15:31.250000,3.85,99.48
58857,2018-06-29 09:15:31.281250,-22.67,99.48
58858,2018-06-29 09:15:31.312500,-29.17,99.48
58859,2018-06-29 09:15:31.343750,-3.19,99.48
58860,2018-06-29 09:15:31.375000,30.58,99.48
58861,2018-06-29 09:15:31.406250,40.89,99.48
58862,2018-06-29 09:15:31.437500,16.75,99.48
58863,2018-06-29 09:15:31.468750,-16.46,99.48
58864,2018-06-29 09:15:31.500000,-32.54,99.48
58865,2018-06-29 09:15:31.531250,-33.42,99.85
58866,2018-06-29 09:15:31.562500,-33.7,99.85
58867,2018-06-29 09:15:31.593750,-29.85,99.85
58868,2018-06-29 09:15:31.625000,8.7,99.85
58869,2018-06-29 09:15:31.656250,80.48,99.85
58870,2018-06-29 09:15:31.687500,152.0,99.85
58871,2018-06-29 09:15:31.718750,171.59,99.85
58872,2018-06-29 09:15:31.750000,105.04,99.85
58873,2018-06-29 09:15:31.781250,51.23,99.85
58874,2018-06-29 09:15:31.812500,32.0,99.85
58875,2018-06-29 09:15:31.843750,30.78,99.85
58876,2018-06-29 09:15:31.875000,24.44,99.85
58877,2018-06-29 09:15:31.906250,14.36,99.85
58878,2018-06-29 09:15:31.937500,5.88,99.85
58879,2018-06-29 09:15:31.968750,15.87,99.85
58880,2018-06-29 09:15:32.000000,38.38,99.85
58881,2018-06-29 09:15:32.031250,47.72,99.85
58882,2018-06-29 09:15:32.062500,23.35,99.85
58883,2018-06-29 09:15:32.093750,-22.59,99.85
58884,2018-06-29 09:15:32.125000,-60.22,99.85
58885,2018-06-29 09:15:32.156250,-77.56,99.85
58886,2018-06-29 09:15:32.187500,-78.6,99.85
58887,2018-06-29 09:15:32.218750,-82.73,99.85
58888,2018-06-29 09:15:32.250000,-97.97,99.85
58889,2018-06-29 09:15:32.281250,-116.8,99.85
58890,2018-06-29 09:15:32.312500,-125.27,99.85
58891,2018-06-29 09:15:32.343750,-121.49,99.85
58892,2018-06-29 09:15:32.375000,-114.92,99.85
58893,2018-06-29 09:15:32.406250,-113.33,99.85
58894,2018-06-29 09:15:32.437500,-116.16,99.85
58895,2018-06-29 09:15:32.468750,-112.61,99.85
58896,2018-06-29 09:15:32.500000,-94.1,99.85
58897,2018-06-29 09:15:32.531250,-67.37,100.02
58898,2018-06-29 09:15:32.562500,-47.08,100.02
58899,2018-06-29 09:15:32.593750,-28.03,100.02
58900,2018-06-29 09:15:32.625000,8.59,100.02
58901,2018-06-29 09:15:32.656250,60.42,100.02
58902,2018-06-29 09:15:32.687500,103.64,100.02
58903,2018-06-29 09:15:32.718750,124.65,100.02
58904,2018-06-29 09:15:32.750000,127.24,100.02
58905,2018-06-29 09:15:32.781250,116.13,100.02
58906,2018-06-29 09:15:32.812500,93.98,100.02
58907,2018-06-29 09:15:32.843750,67.05,100.02
58908,2018-06-29 09:15:32.875000,45.4,100.02
58909,2018-06-29 09:15:32.906250,38.91,100.02
58910,2018-06-29 09:15:32.937500,51.88,100.02
58911,2018-06-29 09:15:32.968750,80.3,100.02
58912,2018-06-29 09:15:33.000000,115.85,100.02
58913,2018-06-29 09:15:33.031250,149.14,100.02
58914,2018-06-29 09:15:33.062500,167.12,100.02
58915,2018-06-29 09:15:33.093750,154.66,100.02
58916,2018-06-29 09:15:33.125000,108.13,100.02
58917,2018-06-29 09:15:33.156250,42.08,100.02
58918,2018-06-29 09:15:33.187500,-24.14,100.02
58919,2018-06-29 09:15:33.218750,-80.16,100.02
58920,2018-06-29 09:15:33.250000,-121.37,100.02
58921,2018-06-29 09:15:33.281250,-143.97,100.02
58922,2018-06-29 09:15:33.312500,-150.8,100.02
58923,2018-06-29 09:15:33.343750,-151.84,100.02
58924,2018-06-29 09:15:33.375000,-154.23,100.02
58925,2018-06-29 09:15:33.406250,-157.02,100.02
58926,2018-06-29 09:15:33.437500,-156.74,100.02
58927,2018-06-29 09:15:33.468750,-153.6,100.02
58928,2018-06-29 09:15:33.500000,-151.25,100.02
58929,2018-06-29 09:15:33.531250,-152.55,100.22
58930,2018-06-29 09:15:33.562500,-155.21,100.22
58931,2018-06-29 09:15:33.593750,-150.75,100.22
58932,2018-06-29 09:15:33.625000,-130.46,100.22
58933,2018-06-29 09:15:33.656250,-94.19,100.22
58934,2018-06-29 09:15:33.687500,-51.64,100.22
58935,2018-06-29 09:15:33.718750,-13.77,100.22
58936,2018-06-29 09:15:33.750000,14.85,100.22
58937,2018-06-29 09:15:33.781250,34.36,100.22
58938,2018-06-29 09:15:33.812500,44.88,100.22
58939,2018-06-29 09:15:33.843750,47.28,100.22
58940,2018-06-29 09:15:33.875000,45.33,100.22
58941,2018-06-29 09:15:33.906250,42.84,100.22
58942,2018-06-29 09:15:33.937500,40.26,100.22
58943,2018-06-29 09:15:33.968750,37.08,100.22
58944,2018-06-29 09:15:34.000000,34.78,100.22
58945,2018-06-29 09:15:34.031250,34.49,100.22
58946,2018-06-29 09:15:34.062500,34.06,100.22
58947,2018-06-29 09:15:34.093750,29.57,100.22
58948,2018-06-29 09:15:34.125000,19.68,100.22
58949,2018-06-29 09:15:34.156250,6.96,100.22
58950,2018-06-29 09:15:34.187500,-4.45,100.22
58951,2018-06-29 09:15:34.218750,-10.18,100.22
58952,2018-06-29 09:15:34.250000,-6.58,100.22
58953,2018-06-29 09:15:34.281250,4.95,100.22
58954,2018-06-29 09:15:34.312500,17.55,100.22
58955,2018-06-29 09:15:34.343750,28.79,100.22
58956,2018-06-29 09:15:34.375000,44.64,100.22
58957,2018-06-29 09:15:34.406250,66.12,100.22
58958,2018-06-29 09:15:34.437500,80.33,100.22
58959,2018-06-29 09:15:34.468750,72.91,100.22
58960,2018-06-29 09:15:34.500000,43.39,100.22
58961,2018-06-29 09:15:34.531250,3.78,100.4
58962,2018-06-29 09:15:34.562500,-31.91,100.4
58963,2018-06-29 09:15:34.593750,-54.38,100.4
58964,2018-06-29 09:15:34.625000,-60.84,100.4
58965,2018-06-29 09:15:34.656250,-55.01,100.4
58966,2018-06-29 09:15:34.687500,-44.53,100.4
58967,2018-06-29 09:15:34.718750,-35.43,100.4
58968,2018-06-29 09:15:34.750000,-29.04,100.4
58969,2018-06-29 09:15:34.781250,-23.81,100.4
58970,2018-06-29 09:15:34.812500,-18.91,100.4
58971,2018-06-29 09:15:34.843750,-14.8,100.4
58972,2018-06-29 09:15:34.875000,-11.9,100.4
58973,2018-06-29 09:15:34.906250,-11.23,100.4
58974,2018-06-29 09:15:34.937500,-13.73,100.4
58975,2018-06-29 09:15:34.968750,-16.18,100.4
58976,2018-06-29 09:15:35.000000,-11.76,100.4
58977,2018-06-29 09:15:35.031250,2.1,100.4
58978,2018-06-29 09:15:35.062500,20.07,100.4
58979,2018-06-29 09:15:35.093750,35.72,100.4
58980,2018-06-29 09:15:35.125000,47.11,100.4
58981,2018-06-29 09:15:35.156250,53.34,100.4
58982,2018-06-29 09:15:35.187500,52.11,100.4
58983,2018-06-29 09:15:35.218750,44.36,100.4
58984,2018-06-29 09:15:35.250000,35.54,100.4
58985,2018-06-29 09:15:35.281250,31.9,100.4
58986,2018-06-29 09:15:35.312500,40.86,100.4
58987,2018-06-29 09:15:35.343750,65.18,100.4
58988,2018-06-29 09:15:35.375000,87.65,100.4
58989,2018-06-29 09:15:35.406250,86.05,100.4
58990,2018-06-29 09:15:35.437500,66.67,100.4
58991,2018-06-29 09:15:35.468750,54.14,100.4
58992,2018-06-29 09:15:35.500000,52.43,100.4
58993,2018-06-29 09:15:35.531250,46.38,100.6
58994,2018-06-29 09:15:35.562500,29.32,100.6
58995,2018-06-29 09:15:35.593750,6.44,100.6
58996,2018-06-29 09:15:35.625000,-13.02,100.6
58997,2018-06-29 09:15:35.656250,-18.3,100.6
58998,2018-06-29 09:15:35.687500,-10.04,100.6
58999,2018-06-29 09:15:35.718750,-4.11,100.6
59000,2018-06-29 09:15:35.750000,-3.78,100.6
59001,2018-06-29 09:15:35.781250,13.46,100.6
59002,2018-06-29 09:15:35.812500,60.06,100.6
59003,2018-06-29 09:15:35.843750,109.05,100.6
59004,2018-06-29 09:15:35.875000,121.75,100.6
59005,2018-06-29 09:15:35.906250,93.09,100.6
59006,2018-06-29 09:15:35.937500,53.75,100.6
59007,2018-06-29 09:15:35.968750,31.12,100.6
59008,2018-06-29 09:15:36.000000,18.97,100.6
59009,2018-06-29 09:15:36.031250,-6.15,100.6
59010,2018-06-29 09:15:36.062500,-45.1,100.6
59011,2018-06-29 09:15:36.093750,-72.0,100.6
59012,2018-06-29 09:15:36.125000,-69.7,100.6
59013,2018-06-29 09:15:36.156250,-48.97,100.6
59014,2018-06-29 09:15:36.187500,-29.38,100.6
59015,2018-06-29 09:15:36.218750,-18.91,100.6
59016,2018-06-29 09:15:36.250000,-17.44,100.6
59017,2018-06-29 09:15:36.281250,-24.56,100.6
59018,2018-06-29 09:15:36.312500,-39.1,100.6
59019,2018-06-29 09:15:36.343750,-60.25,100.6
59020,2018-06-29 09:15:36.375000,-86.43,100.6
59021,2018-06-29 09:15:36.406250,-104.25,100.6
59022,2018-06-29 09:15:36.437500,-90.76,100.6
59023,2018-06-29 09:15:36.468750,-39.18,100.6
59024,2018-06-29 09:15:36.500000,24.76,100.6
59025,2018-06-29 09:15:36.531250,61.68,100.65
59026,2018-06-29 09:15:36.562500,55.11,100.65
59027,2018-06-29 09:15:36.593750,25.67,100.65
59028,2018-06-29 09:15:36.625000,4.89,100.65
59029,2018-06-29 09:15:36.656250,-0.6,100.65
59030,2018-06-29 09:15:36.687500,-6.84,100.65
59031,2018-06-29 09:15:36.718750,-21.64,100.65
59032,2018-06-29 09:15:36.750000,-34.68,100.65
59033,2018-06-29 09:15:36.781250,-33.96,100.65
59034,2018-06-29 09:15:36.812500,-17.57,100.65
59035,2018-06-29 09:15:36.843750,8.6,100.65
59036,2018-06-29 09:15:36.875000,35.46,100.65
59037,2018-06-29 09:15:36.906250,54.17,100.65
59038,2018-06-29 09:15:36.937500,61.79,100.65
59039,2018-06-29 09:15:36.968750,60.33,100.65
59040,2018-06-29 09:15:37.000000,45.72,100.65
59041,2018-06-29 09:15:37.031250,8.46,100.65
59042,2018-06-29 09:15:37.062500,-46.47,100.65
59043,2018-06-29 09:15:37.093750,-91.64,100.65
59044,2018-06-29 09:15:37.125000,-99.39,100.65
59045,2018-06-29 09:15:37.156250,-65.4,100.65
59046,2018-06-29 09:15:37.187500,-9.83,100.65
59047,2018-06-29 09:15:37.218750,34.36,100.65
59048,2018-06-29 09:15:37.250000,42.73,100.65
59049,2018-06-29 09:15:37.281250,22.51,100.65
59050,2018-06-29 09:15:37.312500,2.15,100.65
59051,2018-06-29 09:15:37.343750,-7.52,100.65
59052,2018-06-29 09:15:37.375000,-19.21,100.65
59053,2018-06-29 09:15:37.406250,-36.36,100.65
59054,2018-06-29 09:15:37.437500,-44.39,100.65
59055,2018-06-29 09:15:37.468750,-35.5,100.65
59056,2018-06-29 09:15:37.500000,-17.06,100.65
59057,2018-06-29 09:15:37.531250,2.67,100.73
59058,2018-06-29 09:15:37.562500,20.29,100.73
59059,2018-06-29 09:15:37.593750,31.48,100.73
59060,2018-06-29 09:15:37.625000,31.07,100.73
59061,2018-06-29 09:15:37.656250,18.29,100.73
59062,2018-06-29 09:15:37.687500,-5.59,100.73
59063,2018-06-29 09:15:37.718750,-39.68,100.73
59064,2018-06-29 09:15:37.750000,-75.65,100.73
59065,2018-06-29 09:15:37.781250,-97.0,100.73
59066,2018-06-29 09:15:37.812500,-93.13,100.73
59067,2018-06-29 09:15:37.843750,-67.29,100.73
59068,2018-06-29 09:15:37.875000,-30.85,100.73
59069,2018-06-29 09:15:37.906250,2.73,100.73
59070,2018-06-29 09:15:37.937500,22.92,100.73
59071,2018-06-29 09:15:37.968750,28.61,100.73
59072,2018-06-29 09:15:38.000000,25.37,100.73
59073,2018-06-29 09:15:38.031250,16.2,100.73
59074,2018-06-29 09:15:38.062500,3.21,100.73
59075,2018-06-29 09:15:38.093750,-5.26,100.73
59076,2018-06-29 09:15:38.125000,0.53,100.73
59077,2018-06-29 09:15:38.156250,20.2,100.73
59078,2018-06-29 09:15:38.187500,43.41,100.73
59079,2018-06-29 09:15:38.218750,60.84,100.73
59080,2018-06-29 09:15:38.250000,69.28,100.73
59081,2018-06-29 09:15:38.281250,67.99,100.73
59082,2018-06-29 09:15:38.312500,55.28,100.73
59083,2018-06-29 09:15:38.343750,28.15,100.73
59084,2018-06-29 09:15:38.375000,-11.64,100.73
59085,2018-06-29 09:15:38.406250,-49.1,100.73
59086,2018-06-29 09:15:38.437500,-65.76,100.73
59087,2018-06-29 09:15:38.468750,-61.98,100.73
59088,2018-06-29 09:15:38.500000,-54.86,100.73
59089,2018-06-29 09:15:38.531250,-52.02,100.53
59090,2018-06-29 09:15:38.562500,-44.84,100.53
59091,2018-06-29 09:15:38.593750,-27.66,100.53
59092,2018-06-29 09:15:38.625000,-6.74,100.53
59093,2018-06-29 09:15:38.656250,10.85,100.53
59094,2018-06-29 09:15:38.687500,24.43,100.53
59095,2018-06-29 09:15:38.718750,33.98,100.53
59096,2018-06-29 09:15:38.750000,37.81,100.53
59097,2018-06-29 09:15:38.781250,38.73,100.53
59098,2018-06-29 09:15:38.812500,44.29,100.53
59099,2018-06-29 09:15:38.843750,58.32,100.53
59100,2018-06-29 09:15:38.875000,76.25,100.53
59101,2018-06-29 09:15:38.906250,86.42,100.53
59102,2018-06-29 09:15:38.937500,75.79,100.53
59103,2018-06-29 09:15:38.968750,40.27,100.53
59104,2018-06-29 09:15:39.000000,-9.12,100.53
59105,2018-06-29 09:15:39.031250,-53.52,100.53
59106,2018-06-29 09:15:39.062500,-80.17,100.53
59107,2018-06-29 09:15:39.093750,-89.45,100.53
59108,2018-06-29 09:15:39.125000,-90.31,100.53
59109,2018-06-29 09:15:39.156250,-90.71,100.53
59110,2018-06-29 09:15:39.187500,-93.48,100.53
59111,2018-06-29 09:15:39.218750,-98.15,100.53
59112,2018-06-29 09:15:39.250000,-100.29,100.53
59113,2018-06-29 09:15:39.281250,-91.53,100.53
59114,2018-06-29 09:15:39.312500,-67.18,100.53
59115,2018-06-29 09:15:39.343750,-32.75,100.53
59116,2018-06-29 09:15:39.375000,0.75,100.53
59117,2018-06-29 09:15:39.406250,25.69,100.53
59118,2018-06-29 09:15:39.437500,40.85,100.53
59119,2018-06-29 09:15:39.468750,49.42,100.53
59120,2018-06-29 09:15:39.500000,54.96,100.53
59121,2018-06-29 09:15:39.531250,57.63,100.32
59122,2018-06-29 09:15:39.562500,55.33,100.32
59123,2018-06-29 09:15:39.593750,48.64,100.32
59124,2018-06-29 09:15:39.625000,41.81,100.32
59125,2018-06-29 09:15:39.656250,38.55,100.32
59126,2018-06-29 09:15:39.687500,37.92,100.32
59127,2018-06-29 09:15:39.718750,35.99,100.32
59128,2018-06-29 09:15:39.750000,32.69,100.32
59129,2018-06-29 09:15:39.781250,34.43,100.32
59130,2018-06-29 09:15:39.812500,45.54,100.32
59131,2018-06-29 09:15:39.843750,58.36,100.32
59132,2018-06-29 09:15:39.875000,55.04,100.32
59133,2018-06-29 09:15:39.906250,23.55,100.32
59134,2018-06-29 09:15:39.937500,-25.43,100.32
59135,2018-06-29 09:15:39.968750,-63.74,100.32
59136,2018-06-29 09:15:40.000000,-73.08,100.32
59137,2018-06-29 09:15:40.031250,-59.74,100.32
59138,2018-06-29 09:15:40.062500,-39.56,100.32
59139,2018-06-29 09:15:40.093750,-21.38,100.32
59140,2018-06-29 09:15:40.125000,-8.39,100.32
59141,2018-06-29 09:15:40.156250,-1.27,100.32
59142,2018-06-29 09:15:40.187500,3.09,100.32
59143,2018-06-29 09:15:40.218750,6.74,100.32
59144,2018-06-29 09:15:40.250000,5.41,100.32
59145,2018-06-29 09:15:40.281250,-3.16,100.32
59146,2018-06-29 09:15:40.312500,-10.81,100.32
59147,2018-06-29 09:15:40.343750,-8.97,100.32
59148,2018-06-29 09:15:40.375000,-1.15,100.32
59149,2018-06-29 09:15:40.406250,4.07,100.32
59150,2018-06-29 09:15:40.437500,4.6,100.32
59151,2018-06-29 09:15:40.468750,2.66,100.32
59152,2018-06-29 09:15:40.500000,1.18,100.32
59153,2018-06-29 09:15:40.531250,4.77,100.08
59154,2018-06-29 09:15:40.562500,14.49,100.08
59155,2018-06-29 09:15:40.593750,23.02,100.08
59156,2018-06-29 09:15:40.625000,24.18,100.08
59157,2018-06-29 09:15:40.656250,23.99,100.08
59158,2018-06-29 09:15:40.687500,34.71,100.08
59159,2018-06-29 09:15:40.718750,59.83,100.08
59160,2018-06-29 09:15:40.750000,88.46,100.08
59161,2018-06-29 09:15:40.781250,104.47,100.08
59162,2018-06-29 09:15:40.812500,100.9,100.08
59163,2018-06-29 09:15:40.843750,85.62,100.08
59164,2018-06-29 09:15:40.875000,72.98,100.08
59165,2018-06-29 09:15:40.906250,71.23,100.08
59166,2018-06-29 09:15:40.937500,79.51,100.08
59167,2018-06-29 09:15:40.968750,94.98,100.08
59168,2018-06-29 09:15:41.000000,116.91,100.08
59169,2018-06-29 09:15:41.031250,142.58,100.08
59170,2018-06-29 09:15:41.062500,163.1,100.08
59171,2018-06-29 09:15:41.093750,166.17,100.08
59172,2018-06-29 09:15:41.125000,147.54,100.08
59173,2018-06-29 09:15:41.156250,120.05,100.08
59174,2018-06-29 09:15:41.187500,98.73,100.08
59175,2018-06-29 09:15:41.218750,77.23,100.08
59176,2018-06-29 09:15:41.250000,35.6,100.08
59177,2018-06-29 09:15:41.281250,-32.46,100.08
59178,2018-06-29 09:15:41.312500,-115.08,100.08
59179,2018-06-29 09:15:41.343750,-192.22,100.08
59180,2018-06-29 09:15:41.375000,-239.61,100.08
59181,2018-06-29 09:15:41.406250,-243.61,100.08
59182,2018-06-29 09:15:41.437500,-217.4,100.08
59183,2018-06-29 09:15:41.468750,-186.26,100.08
59184,2018-06-29 09:15:41.500000,-161.4,100.08
59185,2018-06-29 09:15:41.531250,-139.83,99.77
59186,2018-06-29 09:15:41.562500,-118.94,99.77
59187,2018-06-29 09:15:41.593750,-99.32,99.77
59188,2018-06-29 09:15:41.625000,-80.68,99.77
59189,2018-06-29 09:15:41.656250,-62.03,99.77
59190,2018-06-29 09:15:41.687500,-42.86,99.77
59191,2018-06-29 09:15:41.718750,-21.97,99.77
59192,2018-06-29 09:15:41.750000,3.38,99.77
59193,2018-06-29 09:15:41.781250,34.5,99.77
59194,2018-06-29 09:15:41.812500,67.7,99.77
59195,2018-06-29 09:15:41.843750,96.34,99.77
59196,2018-06-29 09:15:41.875000,116.8,99.77
59197,2018-06-29 09:15:41.906250,129.91,99.77
59198,2018-06-29 09:15:41.937500,137.82,99.77
59199,2018-06-29 09:15:41.968750,141.47,99.77
59200,2018-06-29 09:15:42.000000,138.2,99.77
59201,2018-06-29 09:15:42.031250,122.65,99.77
59202,2018-06-29 09:15:42.062500,94.62,99.77
59203,2018-06-29 09:15:42.093750,60.79,99.77
59204,2018-06-29 09:15:42.125000,24.6,99.77
59205,2018-06-29 09:15:42.156250,-15.52,99.77
59206,2018-06-29 09:15:42.187500,-53.6,99.77
59207,2018-06-29 09:15:42.218750,-73.52,99.77
59208,2018-06-29 09:15:42.250000,-65.06,99.77
59209,2018-06-29 09:15:42.281250,-37.47,99.77
59210,2018-06-29 09:15:42.312500,-10.88,99.77
59211,2018-06-29 09:15:42.343750,5.72,99.77
59212,2018-06-29 09:15:42.375000,18.15,99.77
59213,2018-06-29 09:15:42.406250,29.57,99.77
59214,2018-06-29 09:15:42.437500,33.72,99.77
59215,2018-06-29 09:15:42.468750,23.2,99.77
59216,2018-06-29 09:15:42.500000,-7.37,99.77
59217,2018-06-29 09:15:42.531250,-55.33,99.5
59218,2018-06-29 09:15:42.562500,-101.52,99.5
59219,2018-06-29 09:15:42.593750,-126.1,99.5
59220,2018-06-29 09:15:42.625000,-129.56,99.5
59221,2018-06-29 09:15:42.656250,-121.14,99.5
59222,2018-06-29 09:15:42.687500,-103.75,99.5
59223,2018-06-29 09:15:42.718750,-85.65,99.5
59224,2018-06-29 09:15:42.750000,-79.8,99.5
59225,2018-06-29 09:15:42.781250,-79.09,99.5
59226,2018-06-29 09:15:42.812500,-60.73,99.5
59227,2018-06-29 09:15:42.843750,-22.03,99.5
59228,2018-06-29 09:15:42.875000,13.86,99.5
59229,2018-06-29 09:15:42.906250,30.74,99.5
59230,2018-06-29 09:15:42.937500,34.35,99.5
59231,2018-06-29 09:15:42.968750,34.75,99.5
59232,2018-06-29 09:15:43.000000,34.69,99.5
59233,2018-06-29 09:15:43.031250,37.16,99.5
59234,2018-06-29 09:15:43.062500,47.85,99.5
59235,2018-06-29 09:15:43.093750,66.55,99.5
59236,2018-06-29 09:15:43.125000,85.16,99.5
59237,2018-06-29 09:15:43.156250,96.08,99.5
59238,2018-06-29 09:15:43.187500,97.98,99.5
59239,2018-06-29 09:15:43.218750,91.23,99.5
59240,2018-06-29 09:15:43.250000,71.76,99.5
59241,2018-06-29 09:15:43.281250,34.69,99.5
59242,2018-06-29 09:15:43.312500,-15.24,99.5
59243,2018-06-29 09:15:43.343750,-60.14,99.5
59244,2018-06-29 09:15:43.375000,-80.44,99.5
59245,2018-06-29 09:15:43.406250,-76.66,99.5
59246,2018-06-29 09:15:43.437500,-72.9,99.5
59247,2018-06-29 09:15:43.468750,-82.91,99.5
59248,2018-06-29 09:15:43.500000,-85.93,99.5
59249,2018-06-29 09:15:43.531250,-59.74,99.25
59250,2018-06-29 09:15:43.562500,-18.35,99.25
59251,2018-06-29 09:15:43.593750,10.35,99.25
59252,2018-06-29 09:15:43.625000,22.45,99.25
59253,2018-06-29 09:15:43.656250,29.27,99.25
59254,2018-06-29 09:15:43.687500,34.85,99.25
59255,2018-06-29 09:15:43.718750,40.32,99.25
59256,2018-06-29 09:15:43.750000,50.99,99.25
59257,2018-06-29 09:15:43.781250,67.73,99.25
59258,2018-06-29 09:15:43.812500,83.21,99.25
59259,2018-06-29 09:15:43.843750,90.47,99.25
59260,2018-06-29 09:15:43.875000,88.1,99.25
59261,2018-06-29 09:15:43.906250,75.52,99.25
59262,2018-06-29 09:15:43.937500,49.13,99.25
59263,2018-06-29 09:15:43.968750,7.51,99.25
59264,2018-06-29 09:15:44.000000,-42.14,99.25
59265,2018-06-29 09:15:44.031250,-85.84,99.25
59266,2018-06-29 09:15:44.062500,-109.17,99.25
59267,2018-06-29 09:15:44.093750,-105.54,99.25
59268,2018-06-29 09:15:44.125000,-85.43,99.25
59269,2018-06-29 09:15:44.156250,-69.36,99.25
59270,2018-06-29 09:15:44.187500,-65.0,99.25
59271,2018-06-29 09:15:44.218750,-60.71,99.25
59272,2018-06-29 09:15:44.250000,-44.64,99.25
59273,2018-06-29 09:15:44.281250,-19.46,99.25
59274,2018-06-29 09:15:44.312500,3.93,99.25
59275,2018-06-29 09:15:44.343750,20.48,99.25
59276,2018-06-29 09:15:44.375000,35.5,99.25
59277,2018-06-29 09:15:44.406250,55.6,99.25
59278,2018-06-29 09:15:44.437500,78.48,99.25
59279,2018-06-29 09:15:44.468750,95.74,99.25
59280,2018-06-29 09:15:44.500000,104.57,99.25
59281,2018-06-29 09:15:44.531250,113.11,99.02
59282,2018-06-29 09:15:44.562500,131.02,99.02
59283,2018-06-29 09:15:44.593750,151.06,99.02
59284,2018-06-29 09:15:44.625000,144.89,99.02
59285,2018-06-29 09:15:44.656250,89.08,99.02
59286,2018-06-29 09:15:44.687500,-2.72,99.02
59287,2018-06-29 09:15:44.718750,-86.99,99.02
59288,2018-06-29 09:15:44.750000,-133.97,99.02
59289,2018-06-29 09:15:44.781250,-149.68,99.02
59290,2018-06-29 09:15:44.812500,-153.69,99.02
59291,2018-06-29 09:15:44.843750,-155.05,99.02
59292,2018-06-29 09:15:44.875000,-154.5,99.02
59293,2018-06-29 09:15:44.906250,-151.64,99.02
59294,2018-06-29 09:15:44.937500,-141.0,99.02
59295,2018-06-29 09:15:44.968750,-112.95,99.02
59296,2018-06-29 09:15:45.000000,-66.72,99.02
59297,2018-06-29 09:15:45.031250,-16.44,99.02
59298,2018-06-29 09:15:45.062500,21.87,99.02
59299,2018-06-29 09:15:45.093750,44.49,99.02
59300,2018-06-29 09:15:45.125000,56.21,99.02
59301,2018-06-29 09:15:45.156250,60.27,99.02
59302,2018-06-29 09:15:45.187500,59.37,99.02
59303,2018-06-29 09:15:45.218750,58.99,99.02
59304,2018-06-29 09:15:45.250000,60.91,99.02
59305,2018-06-29 09:15:45.281250,58.0,99.02
59306,2018-06-29 09:15:45.312500,43.47,99.02
59307,2018-06-29 09:15:45.343750,23.75,99.02
59308,2018-06-29 09:15:45.375000,15.21,99.02
59309,2018-06-29 09:15:45.406250,26.84,99.02
59310,2018-06-29 09:15:45.437500,50.42,99.02
59311,2018-06-29 09:15:45.468750,69.89,99.02
59312,2018-06-29 09:15:45.500000,78.48,99.02
59313,2018-06-29 09:15:45.531250,84.07,98.78
59314,2018-06-29 09:15:45.562500,96.96,98.78
59315,2018-06-29 09:15:45.593750,112.99,98.78
59316,2018-06-29 09:15:45.625000,110.74,98.78
59317,2018-06-29 09:15:45.656250,68.83,98.78
59318,2018-06-29 09:15:45.687500,-8.04,98.78
59319,2018-06-29 09:15:45.718750,-82.62,98.78
59320,2018-06-29 09:15:45.750000,-116.12,98.78
59321,2018-06-29 09:15:45.781250,-106.0,98.78
59322,2018-06-29 09:15:45.812500,-81.66,98.78
59323,2018-06-29 09:15:45.843750,-67.52,98.78
59324,2018-06-29 09:15:45.875000,-66.33,98.78
59325,2018-06-29 09:15:45.906250,-71.58,98.78
59326,2018-06-29 09:15:45.937500,-77.22,98.78
59327,2018-06-29 09:15:45.968750,-77.52,98.78
59328,2018-06-29 09:15:46.000000,-70.56,98.78
59329,2018-06-29 09:15:46.031250,-61.28,98.78
59330,2018-06-29 09:15:46.062500,-55.18,98.78
59331,2018-06-29 09:15:46.093750,-51.11,98.78
59332,2018-06-29 09:15:46.125000,-45.13,98.78
59333,2018-06-29 09:15:46.156250,-38.67,98.78
59334,2018-06-29 09:15:46.187500,-36.46,98.78
59335,2018-06-29 09:15:46.218750,-37.72,98.78
59336,2018-06-29 09:15:46.250000,-35.96,98.78
59337,2018-06-29 09:15:46.281250,-28.1,98.78
59338,2018-06-29 09:15:46.312500,-18.54,98.78
59339,2018-06-29 09:15:46.343750,-14.02,98.78
59340,2018-06-29 09:15:46.375000,-17.25,98.78
59341,2018-06-29 09:15:46.406250,-24.08,98.78
59342,2018-06-29 09:15:46.437500,-26.11,98.78
59343,2018-06-29 09:15:46.468750,-18.27,98.78
59344,2018-06-29 09:15:46.500000,-3.62,98.78
59345,2018-06-29 09:15:46.531250,11.06,98.57
59346,2018-06-29 09:15:46.562500,22.02,98.57
59347,2018-06-29 09:15:46.593750,29.09,98.57
59348,2018-06-29 09:15:46.625000,32.81,98.57
59349,2018-06-29 09:15:46.656250,34.34,98.57
59350,2018-06-29 09:15:46.687500,36.7,98.57
59351,2018-06-29 09:15:46.718750,42.86,98.57
59352,2018-06-29 09:15:46.750000,52.91,98.57
59353,2018-06-29 09:15:46.781250,65.93,98.57
59354,2018-06-29 09:15:46.812500,83.6,98.57
59355,2018-06-29 09:15:46.843750,105.85,98.57
59356,2018-06-29 09:15:46.875000,124.57,98.57
59357,2018-06-29 09:15:46.906250,131.79,98.57
59358,2018-06-29 09:15:46.937500,131.68,98.57
59359,2018-06-29 09:15:46.968750,133.99,98.57
59360,2018-06-29 09:15:47.000000,145.48,98.57
59361,2018-06-29 09:15:47.031250,171.43,98.57
59362,2018-06-29 09:15:47.062500,203.65,98.57
59363,2018-06-29 09:15:47.093750,215.89,98.57
59364,2018-06-29 09:15:47.125000,195.3,98.57
59365,2018-06-29 09:15:47.156250,157.02,98.57
59366,2018-06-29 09:15:47.187500,110.49,98.57
59367,2018-06-29 09:15:47.218750,49.8,98.57
59368,2018-06-29 09:15:47.250000,-16.53,98.57
59369,2018-06-29 09:15:47.281250,-71.61,98.57
59370,2018-06-29 09:15:47.312500,-118.96,98.57
59371,2018-06-29 09:15:47.343750,-165.31,98.57
59372,2018-06-29 09:15:47.375000,-192.78,98.57
59373,2018-06-29 09:15:47.406250,-179.73,98.57
59374,2018-06-29 09:15:47.437500,-136.65,98.57
59375,2018-06-29 09:15:47.468750,-98.41,98.57
59376,2018-06-29 09:15:47.500000,-85.79,98.57
59377,2018-06-29 09:15:47.531250,-89.66,98.2
59378,2018-06-29 09:15:47.562500,-91.33,98.2
59379,2018-06-29 09:15:47.593750,-85.46,98.2
59380,2018-06-29 09:15:47.625000,-79.03,98.2
59381,2018-06-29 09:15:47.656250,-79.37,98.2
59382,2018-06-29 09:15:47.687500,-88.67,98.2
59383,2018-06-29 09:15:47.718750,-104.99,98.2
59384,2018-06-29 09:15:47.750000,-123.4,98.2
59385,2018-06-29 09:15:47.781250,-136.62,98.2
59386,2018-06-29 09:15:47.812500,-137.9,98.2
59387,2018-06-29 09:15:47.843750,-126.11,98.2
59388,2018-06-29 09:15:47.875000,-105.65,98.2
59389,2018-06-29 09:15:47.906250,-80.93,98.2
59390,2018-06-29 09:15:47.937500,-54.52,98.2
59391,2018-06-29 09:15:47.968750,-30.26,98.2
59392,2018-06-29 09:15:48.000000,-13.61,98.2
59393,2018-06-29 09:15:48.031250,-6.12,98.2
59394,2018-06-29 09:15:48.062500,-1.0,98.2
59395,2018-06-29 09:15:48.093750,10.53,98.2
59396,2018-06-29 09:15:48.125000,27.52,98.2
59397,2018-06-29 09:15:48.156250,38.93,98.2
59398,2018-06-29 09:15:48.187500,36.76,98.2
59399,2018-06-29 09:15:48.218750,25.0,98.2
59400,2018-06-29 09:15:48.250000,14.35,98.2
59401,2018-06-29 09:15:48.281250,12.52,98.2
59402,2018-06-29 09:15:48.312500,18.07,98.2
59403,2018-06-29 09:15:48.343750,21.5,98.2
59404,2018-06-29 09:15:48.375000,14.97,98.2
59405,2018-06-29 09:15:48.406250,0.92,98.2
59406,2018-06-29 09:15:48.437500,-12.14,98.2
59407,2018-06-29 09:15:48.468750,-18.65,98.2
59408,2018-06-29 09:15:48.500000,-16.86,98.2
59409,2018-06-29 09:15:48.531250,-5.17,97.85
59410,2018-06-29 09:15:48.562500,19.24,97.85
59411,2018-06-29 09:15:48.593750,56.91,97.85
59412,2018-06-29 09:15:48.625000,98.05,97.85
59413,2018-06-29 09:15:48.656250,124.13,97.85
59414,2018-06-29 09:15:48.687500,125.45,97.85
59415,2018-06-29 09:15:48.718750,114.48,97.85
59416,2018-06-29 09:15:48.750000,116.55,97.85
59417,2018-06-29 09:15:48.781250,142.59,97.85
59418,2018-06-29 09:15:48.812500,168.78,97.85
59419,2018-06-29 09:15:48.843750,153.79,97.85
59420,2018-06-29 09:15:48.875000,85.46,97.85
59421,2018-06-29 09:15:48.906250,-0.71,97.85
59422,2018-06-29 09:15:48.937500,-60.0,97.85
59423,2018-06-29 09:15:48.968750,-82.46,97.85
59424,2018-06-29 09:15:49.000000,-88.86,97.85
59425,2018-06-29 09:15:49.031250,-98.58,97.85
59426,2018-06-29 09:15:49.062500,-115.46,97.85
59427,2018-06-29 09:15:49.093750,-135.16,97.85
59428,2018-06-29 09:15:49.125000,-149.63,97.85
59429,2018-06-29 09:15:49.156250,-147.68,97.85
59430,2018-06-29 09:15:49.187500,-124.29,97.85
59431,2018-06-29 09:15:49.218750,-86.56,97.85
59432,2018-06-29 09:15:49.250000,-45.13,97.85
59433,2018-06-29 09:15:49.281250,-5.22,97.85
59434,2018-06-29 09:15:49.312500,30.67,97.85
59435,2018-06-29 09:15:49.343750,58.4,97.85
59436,2018-06-29 09:15:49.375000,77.53,97.85
59437,2018-06-29 09:15:49.406250,96.48,97.85
59438,2018-06-29 09:15:49.437500,120.59,97.85
59439,2018-06-29 09:15:49.468750,135.49,97.85
59440,2018-06-29 09:15:49.500000,116.45,97.85
59441,2018-06-29 09:15:49.531250,58.66,97.52
59442,2018-06-29 09:15:49.562500,-11.83,97.52
59443,2018-06-29 09:15:49.593750,-62.59,97.52
59444,2018-06-29 09:15:49.625000,-85.21,97.52
59445,2018-06-29 09:15:49.656250,-95.1,97.52
59446,2018-06-29 09:15:49.687500,-106.79,97.52
59447,2018-06-29 09:15:49.718750,-120.43,97.52
59448,2018-06-29 09:15:49.750000,-131.74,97.52
59449,2018-06-29 09:15:49.781250,-140.23,97.52
59450,2018-06-29 09:15:49.812500,-144.46,97.52
59451,2018-06-29 09:15:49.843750,-139.21,97.52
59452,2018-06-29 09:15:49.875000,-120.32,97.52
59453,2018-06-29 09:15:49.906250,-88.85,97.52
59454,2018-06-29 09:15:49.937500,-50.51,97.52
59455,2018-06-29 09:15:49.968750,-12.12,97.52
59456,2018-06-29 09:15:50.000000,20.79,97.52
59457,2018-06-29 09:15:50.031250,46.01,97.52
59458,2018-06-29 09:15:50.062500,63.87,97.52
59459,2018-06-29 09:15:50.093750,74.23,97.52
59460,2018-06-29 09:15:50.125000,76.28,97.52
59461,2018-06-29 09:15:50.156250,70.55,97.52
59462,2018-06-29 09:15:50.187500,58.82,97.52
59463,2018-06-29 09:15:50.218750,44.45,97.52
59464,2018-06-29 09:15:50.250000,33.37,97.52
59465,2018-06-29 09:15:50.281250,30.0,97.52
59466,2018-06-29 09:15:50.312500,31.98,97.52
59467,2018-06-29 09:15:50.343750,33.41,97.52
59468,2018-06-29 09:15:50.375000,32.54,97.52
59469,2018-06-29 09:15:50.406250,32.95,97.52
59470,2018-06-29 09:15:50.437500,36.83,97.52
59471,2018-06-29 09:15:50.468750,41.11,97.52
59472,2018-06-29 09:15:50.500000,42.27,97.52
59473,2018-06-29 09:15:50.531250,41.58,97.18
59474,2018-06-29 09:15:50.562500,44.57,97.18
59475,2018-06-29 09:15:50.593750,57.38,97.18
59476,2018-06-29 09:15:50.625000,79.91,97.18
59477,2018-06-29 09:15:50.656250,99.8,97.18
59478,2018-06-29 09:15:50.687500,100.99,97.18
59479,2018-06-29 09:15:50.718750,79.55,97.18
59480,2018-06-29 09:15:50.750000,43.98,97.18
59481,2018-06-29 09:15:50.781250,3.02,97.18
59482,2018-06-29 09:15:50.812500,-37.22,97.18
59483,2018-06-29 09:15:50.843750,-67.77,97.18
59484,2018-06-29 09:15:50.875000,-79.41,97.18
59485,2018-06-29 09:15:50.906250,-72.15,97.18
59486,2018-06-29 09:15:50.937500,-56.7,97.18
59487,2018-06-29 09:15:50.968750,-44.01,97.18
59488,2018-06-29 09:15:51.000000,-36.19,97.18
59489,2018-06-29 09:15:51.031250,-30.13,97.18
59490,2018-06-29 09:15:51.062500,-25.37,97.18
59491,2018-06-29 09:15:51.093750,-23.5,97.18
59492,2018-06-29 09:15:51.125000,-23.51,97.18
59493,2018-06-29 09:15:51.156250,-23.21,97.18
59494,2018-06-29 09:15:51.187500,-23.39,97.18
59495,2018-06-29 09:15:51.218750,-26.46,97.18
59496,2018-06-29 09:15:51.250000,-32.96,97.18
59497,2018-06-29 09:15:51.281250,-40.89,97.18
59498,2018-06-29 09:15:51.312500,-45.51,97.18
59499,2018-06-29 09:15:51.343750,-40.19,97.18
59500,2018-06-29 09:15:51.375000,-22.37,97.18
59501,2018-06-29 09:15:51.406250,1.7,97.18
59502,2018-06-29 09:15:51.437500,22.28,97.18
59503,2018-06-29 09:15:51.468750,35.0,97.18
59504,2018-06-29 09:15:51.500000,42.07,97.18
59505,2018-06-29 09:15:51.531250,47.38,96.82
59506,2018-06-29 09:15:51.562500,52.4,96.82
59507,2018-06-29 09:15:51.593750,55.72,96.82
59508,2018-06-29 09:15:51.625000,55.72,96.82
59509,2018-06-29 09:15:51.656250,53.24,96.82
59510,2018-06-29 09:15:51.687500,50.52,96.82
59511,2018-06-29 09:15:51.718750,48.48,96.82
59512,2018-06-29 09:15:51.750000,46.43,96.82
59513,2018-06-29 09:15:51.781250,44.18,96.82
59514,2018-06-29 09:15:51.812500,43.28,96.82
59515,2018-06-29 09:15:51.843750,46.18,96.82
59516,2018-06-29 09:15:51.875000,52.98,96.82
59517,2018-06-29 09:15:51.906250,59.94,96.82
59518,2018-06-29 09:15:51.937500,62.22,96.82
59519,2018-06-29 09:15:51.968750,55.78,96.82
59520,2018-06-29 09:15:52.000000,37.29,96.82
59521,2018-06-29 09:15:52.031250,5.68,96.82
59522,2018-06-29 09:15:52.062500,-35.58,96.82
59523,2018-06-29 09:15:52.093750,-77.74,96.82
59524,2018-06-29 09:15:52.125000,-108.0,96.82
59525,2018-06-29 09:15:52.156250,-115.23,96.82
59526,2018-06-29 09:15:52.187500,-98.55,96.82
59527,2018-06-29 09:15:52.218750,-68.43,96.82
59528,2018-06-29 09:15:52.250000,-38.77,96.82
59529,2018-06-29 09:15:52.281250,-18.05,96.82
59530,2018-06-29 09:15:52.312500,-6.29,96.82
59531,2018-06-29 09:15:52.343750,1.04,96.82
59532,2018-06-29 09:15:52.375000,6.95,96.82
59533,2018-06-29 09:15:52.406250,11.92,96.82
59534,2018-06-29 09:15:52.437500,16.77,96.82
59535,2018-06-29 09:15:52.468750,22.86,96.82
59536,2018-06-29 09:15:52.500000,29.55,96.82
59537,2018-06-29 09:15:52.531250,33.64,96.45
59538,2018-06-29 09:15:52.562500,32.06,96.45
59539,2018-06-29 09:15:52.593750,24.9,96.45
59540,2018-06-29 09:15:52.625000,15.44,96.45
59541,2018-06-29 09:15:52.656250,7.02,96.45
59542,2018-06-29 09:15:52.687500,0.45,96.45
59543,2018-06-29 09:15:52.718750,-5.0,96.45
59544,2018-06-29 09:15:52.750000,-9.43,96.45
59545,2018-06-29 09:15:52.781250,-12.62,96.45
59546,2018-06-29 09:15:52.812500,-15.51,96.45
59547,2018-06-29 09:15:52.843750,-19.66,96.45
59548,2018-06-29 09:15:52.875000,-25.66,96.45
59549,2018-06-29 09:15:52.906250,-31.71,96.45
59550,2018-06-29 09:15:52.937500,-32.84,96.45
59551,2018-06-29 09:15:52.968750,-24.16,96.45
59552,2018-06-29 09:15:53.000000,-7.78,96.45
59553,2018-06-29 09:15:53.031250,7.06,96.45
59554,2018-06-29 09:15:53.062500,14.18,96.45
59555,2018-06-29 09:15:53.093750,16.24,96.45
59556,2018-06-29 09:15:53.125000,17.82,96.45
59557,2018-06-29 09:15:53.156250,19.15,96.45
59558,2018-06-29 09:15:53.187500,19.35,96.45
59559,2018-06-29 09:15:53.218750,19.52,96.45
59560,2018-06-29 09:15:53.250000,19.8,96.45
59561,2018-06-29 09:15:53.281250,18.85,96.45
59562,2018-06-29 09:15:53.312500,17.45,96.45
59563,2018-06-29 09:15:53.343750,17.92,96.45
59564,2018-06-29 09:15:53.375000,19.69,96.45
59565,2018-06-29 09:15:53.406250,19.23,96.45
59566,2018-06-29 09:15:53.437500,15.06,96.45
59567,2018-06-29 09:15:53.468750,9.73,96.45
59568,2018-06-29 09:15:53.500000,5.74,96.45
59569,2018-06-29 09:15:53.531250,2.23,96.07
59570,2018-06-29 09:15:53.562500,-2.46,96.07
59571,2018-06-29 09:15:53.593750,-7.49,96.07
59572,2018-06-29 09:15:53.625000,-10.76,96.07
59573,2018-06-29 09:15:53.656250,-11.76,96.07
59574,2018-06-29 09:15:53.687500,-11.72,96.07
59575,2018-06-29 09:15:53.718750,-13.12,96.07
59576,2018-06-29 09:15:53.750000,-17.96,96.07
59577,2018-06-29 09:15:53.781250,-23.68,96.07
59578,2018-06-29 09:15:53.812500,-23.36,96.07
59579,2018-06-29 09:15:53.843750,-13.71,96.07
59580,2018-06-29 09:15:53.875000,0.34,96.07
59581,2018-06-29 09:15:53.906250,11.95,96.07
59582,2018-06-29 09:15:53.937500,19.36,96.07
59583,2018-06-29 09:15:53.968750,23.83,96.07
59584,2018-06-29 09:15:54.000000,26.07,96.07
59585,2018-06-29 09:15:54.031250,27.01,96.07
59586,2018-06-29 09:15:54.062500,28.08,96.07
59587,2018-06-29 09:15:54.093750,29.51,96.07
59588,2018-06-29 09:15:54.125000,30.43,96.07
59589,2018-06-29 09:15:54.156250,30.87,96.07
59590,2018-06-29 09:15:54.187500,31.55,96.07
59591,2018-06-29 09:15:54.218750,31.65,96.07
59592,2018-06-29 09:15:54.250000,29.75,96.07
59593,2018-06-29 09:15:54.281250,27.1,96.07
59594,2018-06-29 09:15:54.312500,26.77,96.07
59595,2018-06-29 09:15:54.343750,29.38,96.07
59596,2018-06-29 09:15:54.375000,31.56,96.07
59597,2018-06-29 09:15:54.406250,27.84,96.07
59598,2018-06-29 09:15:54.437500,13.91,96.07
59599,2018-06-29 09:15:54.468750,-9.03,96.07
59600,2018-06-29 09:15:54.500000,-33.3,96.07
59601,2018-06-29 09:15:54.531250,-50.74,95.57
59602,2018-06-29 09:15:54.562500,-59.21,95.57
59603,2018-06-29 09:15:54.593750,-62.32,95.57
59604,2018-06-29 09:15:54.625000,-63.5,95.57
59605,2018-06-29 09:15:54.656250,-61.56,95.57
59606,2018-06-29 09:15:54.687500,-52.92,95.57
59607,2018-06-29 09:15:54.718750,-36.99,95.57
59608,2018-06-29 09:15:54.750000,-17.69,95.57
59609,2018-06-29 09:15:54.781250,-0.73,95.57
59610,2018-06-29 09:15:54.812500,10.27,95.57
59611,2018-06-29 09:15:54.843750,15.54,95.57
59612,2018-06-29 09:15:54.875000,17.21,95.57
59613,2018-06-29 09:15:54.906250,16.59,95.57
59614,2018-06-29 09:15:54.937500,14.67,95.57
59615,2018-06-29 09:15:54.968750,13.25,95.57
59616,2018-06-29 09:15:55.000000,13.69,95.57
59617,2018-06-29 09:15:55.031250,15.61,95.57
59618,2018-06-29 09:15:55.062500,17.61,95.57
59619,2018-06-29 09:15:55.093750,18.38,95.57
59620,2018-06-29 09:15:55.125000,17.3,95.57
59621,2018-06-29 09:15:55.156250,14.65,95.57
59622,2018-06-29 09:15:55.187500,11.71,95.57
59623,2018-06-29 09:15:55.218750,10.08,95.57
59624,2018-06-29 09:15:55.250000,10.13,95.57
59625,2018-06-29 09:15:55.281250,10.47,95.57
59626,2018-06-29 09:15:55.312500,10.03,95.57
59627,2018-06-29 09:15:55.343750,9.51,95.57
59628,2018-06-29 09:15:55.375000,9.81,95.57
59629,2018-06-29 09:15:55.406250,10.47,95.57
59630,2018-06-29 09:15:55.437500,10.94,95.57
59631,2018-06-29 09:15:55.468750,11.87,95.57
59632,2018-06-29 09:15:55.500000,13.62,95.57
59633,2018-06-29 09:15:55.531250,14.78,95.07
59634,2018-06-29 09:15:55.562500,14.27,95.07
59635,2018-06-29 09:15:55.593750,13.11,95.07
59636,2018-06-29 09:15:55.625000,12.96,95.07
59637,2018-06-29 09:15:55.656250,14.08,95.07
59638,2018-06-29 09:15:55.687500,15.82,95.07
59639,2018-06-29 09:15:55.718750,17.73,95.07
59640,2018-06-29 09:15:55.750000,20.01,95.07
59641,2018-06-29 09:15:55.781250,24.36,95.07
59642,2018-06-29 09:15:55.812500,32.51,95.07
59643,2018-06-29 09:15:55.843750,42.91,95.07
59644,2018-06-29 09:15:55.875000,50.94,95.07
59645,2018-06-29 09:15:55.906250,53.85,95.07
59646,2018-06-29 09:15:55.937500,51.86,95.07
59647,2018-06-29 09:15:55.968750,44.39,95.07
59648,2018-06-29 09:15:56.000000,29.12,95.07
59649,2018-06-29 09:15:56.031250,6.18,95.07
59650,2018-06-29 09:15:56.062500,-16.96,95.07
59651,2018-06-29 09:15:56.093750,-29.21,95.07
59652,2018-06-29 09:15:56.125000,-28.59,95.07
59653,2018-06-29 09:15:56.156250,-24.28,95.07
59654,2018-06-29 09:15:56.187500,-21.89,95.07
59655,2018-06-29 09:15:56.218750,-17.51,95.07
59656,2018-06-29 09:15:56.250000,-10.24,95.07
59657,2018-06-29 09:15:56.281250,-6.45,95.07
59658,2018-06-29 09:15:56.312500,-9.69,95.07
59659,2018-06-29 09:15:56.343750,-17.08,95.07
59660,2018-06-29 09:15:56.375000,-23.45,95.07
59661,2018-06-29 09:15:56.406250,-22.39,95.07
59662,2018-06-29 09:15:56.437500,-9.03,95.07
59663,2018-06-29 09:15:56.468750,12.06,95.07
59664,2018-06-29 09:15:56.500000,27.48,95.07
59665,2018-06-29 09:15:56.531250,28.43,94.58
59666,2018-06-29 09:15:56.562500,19.15,94.58
59667,2018-06-29 09:15:56.593750,8.66,94.58
59668,2018-06-29 09:15:56.625000,-1.84,94.58
59669,2018-06-29 09:15:56.656250,-18.59,94.58
59670,2018-06-29 09:15:56.687500,-44.19,94.58
59671,2018-06-29 09:15:56.718750,-70.6,94.58
59672,2018-06-29 09:15:56.750000,-83.68,94.58
59673,2018-06-29 09:15:56.781250,-75.41,94.58
59674,2018-06-29 09:15:56.812500,-52.67,94.58
59675,2018-06-29 09:15:56.843750,-30.81,94.58
59676,2018-06-29 09:15:56.875000,-18.28,94.58
59677,2018-06-29 09:15:56.906250,-12.19,94.58
59678,2018-06-29 09:15:56.937500,-6.92,94.58
59679,2018-06-29 09:15:56.968750,0.16,94.58
59680,2018-06-29 09:15:57.000000,10.19,94.58
59681,2018-06-29 09:15:57.031250,22.39,94.58
59682,2018-06-29 09:15:57.062500,31.65,94.58
59683,2018-06-29 09:15:57.093750,32.2,94.58
59684,2018-06-29 09:15:57.125000,24.88,94.58
59685,2018-06-29 09:15:57.156250,19.29,94.58
59686,2018-06-29 09:15:57.187500,25.26,94.58
59687,2018-06-29 09:15:57.218750,41.73,94.58
59688,2018-06-29 09:15:57.250000,58.39,94.58
59689,2018-06-29 09:15:57.281250,67.7,94.58
59690,2018-06-29 09:15:57.312500,68.3,94.58
59691,2018-06-29 09:15:57.343750,57.4,94.58
59692,2018-06-29 09:15:57.375000,31.47,94.58
59693,2018-06-29 09:15:57.406250,-5.11,94.58
59694,2018-06-29 09:15:57.437500,-41.89,94.58
59695,2018-06-29 09:15:57.468750,-69.04,94.58
59696,2018-06-29 09:15:57.500000,-78.28,94.58
59697,2018-06-29 09:15:57.531250,-67.4,94.12
59698,2018-06-29 09:15:57.562500,-46.74,94.12
59699,2018-06-29 09:15:57.593750,-30.48,94.12
59700,2018-06-29 09:15:57.625000,-21.69,94.12
59701,2018-06-29 09:15:57.656250,-14.61,94.12
59702,2018-06-29 09:15:57.687500,-5.22,94.12
59703,2018-06-29 09:15:57.718750,8.36,94.12
59704,2018-06-29 09:15:57.750000,28.1,94.12
59705,2018-06-29 09:15:57.781250,50.81,94.12
59706,2018-06-29 09:15:57.812500,65.32,94.12
59707,2018-06-29 09:15:57.843750,61.24,94.12
59708,2018-06-29 09:15:57.875000,38.4,94.12
59709,2018-06-29 09:15:57.906250,5.82,94.12
59710,2018-06-29 09:15:57.937500,-26.59,94.12
59711,2018-06-29 09:15:57.968750,-53.64,94.12
59712,2018-06-29 09:15:58.000000,-74.06,94.12
59713,2018-06-29 09:15:58.031250,-85.69,94.12
59714,2018-06-29 09:15:58.062500,-84.09,94.12
59715,2018-06-29 09:15:58.093750,-68.25,94.12
59716,2018-06-29 09:15:58.125000,-44.84,94.12
59717,2018-06-29 09:15:58.156250,-23.34,94.12
59718,2018-06-29 09:15:58.187500,-8.8,94.12
59719,2018-06-29 09:15:58.218750,-0.74,94.12
59720,2018-06-29 09:15:58.250000,4.12,94.12
59721,2018-06-29 09:15:58.281250,10.06,94.12
59722,2018-06-29 09:15:58.312500,20.88,94.12
59723,2018-06-29 09:15:58.343750,37.16,94.12
59724,2018-06-29 09:15:58.375000,55.52,94.12
59725,2018-06-29 09:15:58.406250,72.16,94.12
59726,2018-06-29 09:15:58.437500,86.82,94.12
59727,2018-06-29 09:15:58.468750,102.0,94.12
59728,2018-06-29 09:15:58.500000,119.22,94.12
59729,2018-06-29 09:15:58.531250,136.4,93.67
59730,2018-06-29 09:15:58.562500,145.91,93.67
59731,2018-06-29 09:15:58.593750,135.65,93.67
59732,2018-06-29 09:15:58.625000,97.93,93.67
59733,2018-06-29 09:15:58.656250,38.7,93.67
59734,2018-06-29 09:15:58.687500,-25.87,93.67
59735,2018-06-29 09:15:58.718750,-79.41,93.67
59736,2018-06-29 09:15:58.750000,-110.29,93.67
59737,2018-06-29 09:15:58.781250,-116.89,93.67
59738,2018-06-29 09:15:58.812500,-112.61,93.67
59739,2018-06-29 09:15:58.843750,-114.23,93.67
59740,2018-06-29 09:15:58.875000,-123.4,93.67
59741,2018-06-29 09:15:58.906250,-129.27,93.67
59742,2018-06-29 09:15:58.937500,-125.47,93.67
59743,2018-06-29 09:15:58.968750,-113.93,93.67
59744,2018-06-29 09:15:59.000000,-96.79,93.67
59745,2018-06-29 09:15:59.031250,-73.92,93.67
59746,2018-06-29 09:15:59.062500,-46.46,93.67
59747,2018-06-29 09:15:59.093750,-20.24,93.67
59748,2018-06-29 09:15:59.125000,-4.93,93.67
59749,2018-06-29 09:15:59.156250,-7.0,93.67
59750,2018-06-29 09:15:59.187500,-23.32,93.67
59751,2018-06-29 09:15:59.218750,-42.79,93.67
59752,2018-06-29 09:15:59.250000,-53.17,93.67
59753,2018-06-29 09:15:59.281250,-48.47,93.67
59754,2018-06-29 09:15:59.312500,-33.65,93.67
59755,2018-06-29 09:15:59.343750,-19.01,93.67
59756,2018-06-29 09:15:59.375000,-9.08,93.67
59757,2018-06-29 09:15:59.406250,-1.58,93.67
59758,2018-06-29 09:15:59.437500,5.05,93.67
59759,2018-06-29 09:15:59.468750,10.58,93.67
59760,2018-06-29 09:15:59.500000,16.33,93.67
59761,2018-06-29 09:15:59.531250,23.5,93.3
59762,2018-06-29 09:15:59.562500,31.09,93.3
59763,2018-06-29 09:15:59.593750,38.78,93.3
59764,2018-06-29 09:15:59.625000,48.24,93.3
59765,2018-06-29 09:15:59.656250,59.51,93.3
59766,2018-06-29 09:15:59.687500,69.8,93.3
59767,2018-06-29 09:15:59.718750,78.35,93.3
59768,2018-06-29 09:15:59.750000,89.16,93.3
59769,2018-06-29 09:15:59.781250,104.31,93.3
59770,2018-06-29 09:15:59.812500,115.31,93.3
59771,2018-06-29 09:15:59.843750,106.48,93.3
59772,2018-06-29 09:15:59.875000,69.19,93.3
59773,2018-06-29 09:15:59.906250,10.04,93.3
59774,2018-06-29 09:15:59.937500,-53.55,93.3
59775,2018-06-29 09:15:59.968750,-101.89,93.3
59776,2018-06-29 09:16:00.000000,-123.4,93.3
59777,2018-06-29 09:16:00.031250,-123.39,93.3
59778,2018-06-29 09:16:00.062500,-117.54,93.3
59779,2018-06-29 09:16:00.093750,-114.53,93.3
59780,2018-06-29 09:16:00.125000,-111.24,93.3
59781,2018-06-29 09:16:00.156250,-103.51,93.3
59782,2018-06-29 09:16:00.187500,-92.17,93.3
59783,2018-06-29 09:16:00.218750,-78.88,93.3
59784,2018-06-29 09:16:00.250000,-63.75,93.3
59785,2018-06-29 09:16:00.281250,-47.72,93.3
59786,2018-06-29 09:16:00.312500,-32.42,93.3
59787,2018-06-29 09:16:00.343750,-18.11,93.3
59788,2018-06-29 09:16:00.375000,-5.74,93.3
59789,2018-06-29 09:16:00.406250,1.75,93.3
59790,2018-06-29 09:16:00.437500,4.95,93.3
59791,2018-06-29 09:16:00.468750,10.34,93.3
59792,2018-06-29 09:16:00.500000,20.96,93.3
59793,2018-06-29 09:16:00.531250,30.5,92.92
59794,2018-06-29 09:16:00.562500,32.19,92.92
59795,2018-06-29 09:16:00.593750,27.34,92.92
59796,2018-06-29 09:16:00.625000,21.02,92.92
59797,2018-06-29 09:16:00.656250,15.1,92.92
59798,2018-06-29 09:16:00.687500,9.68,92.92
59799,2018-06-29 09:16:00.718750,7.44,92.92
59800,2018-06-29 09:16:00.750000,12.89,92.92
59801,2018-06-29 09:16:00.781250,27.99,92.92
59802,2018-06-29 09:16:00.812500,50.03,92.92
59803,2018-06-29 09:16:00.843750,73.51,92.92
59804,2018-06-29 09:16:00.875000,92.88,92.92
59805,2018-06-29 09:16:00.906250,105.91,92.92
59806,2018-06-29 09:16:00.937500,116.93,92.92
59807,2018-06-29 09:16:00.968750,132.51,92.92
59808,2018-06-29 09:16:01.000000,150.0,92.92
59809,2018-06-29 09:16:01.031250,154.18,92.92
59810,2018-06-29 09:16:01.062500,129.88,92.92
59811,2018-06-29 09:16:01.093750,77.64,92.92
59812,2018-06-29 09:16:01.125000,15.76,92.92
59813,2018-06-29 09:16:01.156250,-33.03,92.92
59814,2018-06-29 09:16:01.187500,-59.16,92.92
59815,2018-06-29 09:16:01.218750,-72.57,92.92
59816,2018-06-29 09:16:01.250000,-89.72,92.92
59817,2018-06-29 09:16:01.281250,-115.39,92.92
59818,2018-06-29 09:16:01.312500,-140.84,92.92
59819,2018-06-29 09:16:01.343750,-156.61,92.92
59820,2018-06-29 09:16:01.375000,-161.08,92.92
59821,2018-06-29 09:16:01.406250,-158.49,92.92
59822,2018-06-29 09:16:01.437500,-153.12,92.92
59823,2018-06-29 09:16:01.468750,-143.71,92.92
59824,2018-06-29 09:16:01.500000,-124.86,92.92
59825,2018-06-29 09:16:01.531250,-96.03,92.48
59826,2018-06-29 09:16:01.562500,-65.01,92.48
59827,2018-06-29 09:16:01.593750,-40.25,92.48
59828,2018-06-29 09:16:01.625000,-23.61,92.48
59829,2018-06-29 09:16:01.656250,-12.08,92.48
59830,2018-06-29 09:16:01.687500,-2.73,92.48
59831,2018-06-29 09:16:01.718750,5.87,92.48
59832,2018-06-29 09:16:01.750000,14.61,92.48
59833,2018-06-29 09:16:01.781250,24.04,92.48
59834,2018-06-29 09:16:01.812500,33.1,92.48
59835,2018-06-29 09:16:01.843750,39.6,92.48
59836,2018-06-29 09:16:01.875000,42.11,92.48
59837,2018-06-29 09:16:01.906250,40.5,92.48
59838,2018-06-29 09:16:01.937500,35.41,92.48
59839,2018-06-29 09:16:01.968750,28.66,92.48
59840,2018-06-29 09:16:02.000000,22.6,92.48
59841,2018-06-29 09:16:02.031250,17.82,92.48
59842,2018-06-29 09:16:02.062500,13.34,92.48
59843,2018-06-29 09:16:02.093750,8.79,92.48
59844,2018-06-29 09:16:02.125000,4.59,92.48
59845,2018-06-29 09:16:02.156250,0.91,92.48
59846,2018-06-29 09:16:02.187500,-2.48,92.48
59847,2018-06-29 09:16:02.218750,-6.35,92.48
59848,2018-06-29 09:16:02.250000,-11.95,92.48
59849,2018-06-29 09:16:02.281250,-19.23,92.48
59850,2018-06-29 09:16:02.312500,-24.3,92.48
59851,2018-06-29 09:16:02.343750,-20.55,92.48
59852,2018-06-29 09:16:02.375000,-4.08,92.48
59853,2018-06-29 09:16:02.406250,21.51,92.48
59854,2018-06-29 09:16:02.437500,45.84,92.48
59855,2018-06-29 09:16:02.468750,57.06,92.48
59856,2018-06-29 09:16:02.500000,49.1,92.48
59857,2018-06-29 09:16:02.531250,27.65,92.07
59858,2018-06-29 09:16:02.562500,7.37,92.07
59859,2018-06-29 09:16:02.593750,-0.63,92.07
59860,2018-06-29 09:16:02.625000,2.68,92.07
59861,2018-06-29 09:16:02.656250,9.36,92.07
59862,2018-06-29 09:16:02.687500,13.65,92.07
59863,2018-06-29 09:16:02.718750,14.16,92.07
59864,2018-06-29 09:16:02.750000,12.26,92.07
59865,2018-06-29 09:16:02.781250,11.46,92.07
59866,2018-06-29 09:16:02.812500,14.95,92.07
59867,2018-06-29 09:16:02.843750,21.37,92.07
59868,2018-06-29 09:16:02.875000,25.62,92.07
59869,2018-06-29 09:16:02.906250,24.98,92.07
59870,2018-06-29 09:16:02.937500,21.72,92.07
59871,2018-06-29 09:16:02.968750,18.57,92.07
59872,2018-06-29 09:16:03.000000,15.21,92.07
59873,2018-06-29 09:16:03.031250,9.92,92.07
59874,2018-06-29 09:16:03.062500,2.39,92.07
59875,2018-06-29 09:16:03.093750,-4.5,92.07
59876,2018-06-29 09:16:03.125000,-4.72,92.07
59877,2018-06-29 09:16:03.156250,6.4,92.07
59878,2018-06-29 09:16:03.187500,26.06,92.07
59879,2018-06-29 09:16:03.218750,44.56,92.07
59880,2018-06-29 09:16:03.250000,52.99,92.07
59881,2018-06-29 09:16:03.281250,49.05,92.07
59882,2018-06-29 09:16:03.312500,36.21,92.07
59883,2018-06-29 09:16:03.343750,19.78,92.07
59884,2018-06-29 09:16:03.375000,4.34,92.07
59885,2018-06-29 09:16:03.406250,-7.08,92.07
59886,2018-06-29 09:16:03.437500,-13.66,92.07
59887,2018-06-29 09:16:03.468750,-17.04,92.07
59888,2018-06-29 09:16:03.500000,-19.13,92.07
59889,2018-06-29 09:16:03.531250,-19.83,91.65
59890,2018-06-29 09:16:03.562500,-18.19,91.65
59891,2018-06-29 09:16:03.593750,-14.99,91.65
59892,2018-06-29 09:16:03.625000,-11.51,91.65
59893,2018-06-29 09:16:03.656250,-7.32,91.65
59894,2018-06-29 09:16:03.687500,-2.33,91.65
59895,2018-06-29 09:16:03.718750,0.92,91.65
59896,2018-06-29 09:16:03.750000,-0.44,91.65
59897,2018-06-29 09:16:03.781250,-5.58,91.65
59898,2018-06-29 09:16:03.812500,-9.88,91.65
59899,2018-06-29 09:16:03.843750,-7.85,91.65
59900,2018-06-29 09:16:03.875000,2.86,91.65
59901,2018-06-29 09:16:03.906250,18.26,91.65
59902,2018-06-29 09:16:03.937500,31.0,91.65
59903,2018-06-29 09:16:03.968750,39.88,91.65
59904,2018-06-29 09:16:04.000000,53.26,91.65
59905,2018-06-29 09:16:04.031250,78.67,91.65
59906,2018-06-29 09:16:04.062500,113.03,91.65
59907,2018-06-29 09:16:04.093750,146.85,91.65
59908,2018-06-29 09:16:04.125000,173.57,91.65
59909,2018-06-29 09:16:04.156250,190.23,91.65
59910,2018-06-29 09:16:04.187500,193.37,91.65
59911,2018-06-29 09:16:04.218750,180.72,91.65
59912,2018-06-29 09:16:04.250000,154.95,91.65
59913,2018-06-29 09:16:04.281250,122.92,91.65
59914,2018-06-29 09:16:04.312500,91.79,91.65
59915,2018-06-29 09:16:04.343750,65.83,91.65
59916,2018-06-29 09:16:04.375000,44.41,91.65
59917,2018-06-29 09:16:04.406250,23.57,91.65
59918,2018-06-29 09:16:04.437500,1.32,91.65
59919,2018-06-29 09:16:04.468750,-21.57,91.65
59920,2018-06-29 09:16:04.500000,-45.44,91.65
59921,2018-06-29 09:16:04.531250,-71.29,91.15
59922,2018-06-29 09:16:04.562500,-96.9,91.15
59923,2018-06-29 09:16:04.593750,-117.41,91.15
59924,2018-06-29 09:16:04.625000,-130.75,91.15
59925,2018-06-29 09:16:04.656250,-140.24,91.15
59926,2018-06-29 09:16:04.687500,-150.21,91.15
59927,2018-06-29 09:16:04.718750,-160.77,91.15
59928,2018-06-29 09:16:04.750000,-169.84,91.15
59929,2018-06-29 09:16:04.781250,-177.11,91.15
59930,2018-06-29 09:16:04.812500,-179.94,91.15
59931,2018-06-29 09:16:04.843750,-170.37,91.15
59932,2018-06-29 09:16:04.875000,-144.27,91.15
59933,2018-06-29 09:16:04.906250,-109.51,91.15
59934,2018-06-29 09:16:04.937500,-77.14,91.15
59935,2018-06-29 09:16:04.968750,-49.69,91.15
59936,2018-06-29 09:16:05.000000,-24.75,91.15
59937,2018-06-29 09:16:05.031250,-3.15,91.15
59938,2018-06-29 09:16:05.062500,12.85,91.15
59939,2018-06-29 09:16:05.093750,25.14,91.15
59940,2018-06-29 09:16:05.125000,37.55,91.15
59941,2018-06-29 09:16:05.156250,50.78,91.15
59942,2018-06-29 09:16:05.187500,62.68,91.15
59943,2018-06-29 09:16:05.218750,72.96,91.15
59944,2018-06-29 09:16:05.250000,83.7,91.15
59945,2018-06-29 09:16:05.281250,94.4,91.15
59946,2018-06-29 09:16:05.312500,99.92,91.15
59947,2018-06-29 09:16:05.343750,95.98,91.15
59948,2018-06-29 09:16:05.375000,86.05,91.15
59949,2018-06-29 09:16:05.406250,77.34,91.15
59950,2018-06-29 09:16:05.437500,72.89,91.15
59951,2018-06-29 09:16:05.468750,67.73,91.15
59952,2018-06-29 09:16:05.500000,53.36,91.15
59953,2018-06-29 09:16:05.531250,26.17,90.63
59954,2018-06-29 09:16:05.562500,-6.02,90.63
59955,2018-06-29 09:16:05.593750,-28.34,90.63
59956,2018-06-29 09:16:05.625000,-37.4,90.63
59957,2018-06-29 09:16:05.656250,-47.33,90.63
59958,2018-06-29 09:16:05.687500,-72.31,90.63
59959,2018-06-29 09:16:05.718750,-97.4,90.63
59960,2018-06-29 09:16:05.750000,-86.4,90.63
59961,2018-06-29 09:16:05.781250,-34.74,90.63
59962,2018-06-29 09:16:05.812500,28.86,90.63
59963,2018-06-29 09:16:05.843750,81.61,90.63
59964,2018-06-29 09:16:05.875000,116.77,90.63
59965,2018-06-29 09:16:05.906250,136.12,90.63
59966,2018-06-29 09:16:05.937500,138.8,90.63
59967,2018-06-29 09:16:05.968750,122.06,90.63
59968,2018-06-29 09:16:06.000000,87.36,90.63
59969,2018-06-29 09:16:06.031250,35.15,90.63
59970,2018-06-29 09:16:06.062500,-27.4,90.63
59971,2018-06-29 09:16:06.093750,-91.01,90.63
59972,2018-06-29 09:16:06.125000,-149.8,90.63
59973,2018-06-29 09:16:06.156250,-204.06,90.63
59974,2018-06-29 09:16:06.187500,-240.23,90.63
59975,2018-06-29 09:16:06.218750,-191.89,90.63
59976,2018-06-29 09:16:06.250000,-61.95,90.63
59977,2018-06-29 09:16:06.281250,70.61,90.63
59978,2018-06-29 09:16:06.312500,159.37,90.63
59979,2018-06-29 09:16:06.343750,207.82,90.63
59980,2018-06-29 09:16:06.375000,224.19,90.63
59981,2018-06-29 09:16:06.406250,218.78,90.63
59982,2018-06-29 09:16:06.437500,209.25,90.63
59983,2018-06-29 09:16:06.468750,208.05,90.63
59984,2018-06-29 09:16:06.500000,207.21,90.63
59985,2018-06-29 09:16:06.531250,191.12,90.13
59986,2018-06-29 09:16:06.562500,167.23,90.13
59987,2018-06-29 09:16:06.593750,147.69,90.13
59988,2018-06-29 09:16:06.625000,134.14,90.13
59989,2018-06-29 09:16:06.656250,117.75,90.13
59990,2018-06-29 09:16:06.687500,96.99,90.13
59991,2018-06-29 09:16:06.718750,77.41,90.13
59992,2018-06-29 09:16:06.750000,60.75,90.13
59993,2018-06-29 09:16:06.781250,41.03,90.13
59994,2018-06-29 09:16:06.812500,17.93,90.13
59995,2018-06-29 09:16:06.843750,-3.12,90.13
59996,2018-06-29 09:16:06.875000,-22.6,90.13
59997,2018-06-29 09:16:06.906250,-51.02,90.13
59998,2018-06-29 09:16:06.937500,-90.91,90.13
59999,2018-06-29 09:16:06.968750,-127.6,90.13
60000,2018-06-29 09:16:07.000000,-155.74,90.13
60001,2018-06-29 09:16:07.031250,-188.14,90.13
60002,2018-06-29 09:16:07.062500,-244.78,90.13
60003,2018-06-29 09:16:07.093750,-310.14,90.13
60004,2018-06-29 09:16:07.125000,-362.6,90.13
60005,2018-06-29 09:16:07.156250,-405.89,90.13
60006,2018-06-29 09:16:07.187500,-472.18,90.13
60007,2018-06-29 09:16:07.218750,-581.05,90.13
60008,2018-06-29 09:16:07.250000,-699.09,90.13
60009,2018-06-29 09:16:07.281250,-765.29,90.13
60010,2018-06-29 09:16:07.312500,-734.89,90.13
60011,2018-06-29 09:16:07.343750,-646.5,90.13
60012,2018-06-29 09:16:07.375000,-544.67,90.13
60013,2018-06-29 09:16:07.406250,-445.62,90.13
60014,2018-06-29 09:16:07.437500,-321.56,90.13
60015,2018-06-29 09:16:07.468750,-53.2,90.13
60016,2018-06-29 09:16:07.500000,217.98,90.13
60017,2018-06-29 09:16:07.531250,365.89,89.58
60018,2018-06-29 09:16:07.562500,417.98,89.58
60019,2018-06-29 09:16:07.593750,416.28,89.58
60020,2018-06-29 09:16:07.625000,366.88,89.58
60021,2018-06-29 09:16:07.656250,309.78,89.58
60022,2018-06-29 09:16:07.687500,281.78,89.58
60023,2018-06-29 09:16:07.718750,275.99,89.58
60024,2018-06-29 09:16:07.750000,261.16,89.58
60025,2018-06-29 09:16:07.781250,231.2,89.58
60026,2018-06-29 09:16:07.812500,219.11,89.58
60027,2018-06-29 09:16:07.843750,232.19,89.58
60028,2018-06-29 09:16:07.875000,236.7,89.58
60029,2018-06-29 09:16:07.906250,197.87,89.58
60030,2018-06-29 09:16:07.937500,132.73,89.58
60031,2018-06-29 09:16:07.968750,74.49,89.58
60032,2018-06-29 09:16:08.000000,27.91,89.58
60033,2018-06-29 09:16:08.031250,-20.18,89.58
60034,2018-06-29 09:16:08.062500,-69.87,89.58
60035,2018-06-29 09:16:08.093750,-103.35,89.58
60036,2018-06-29 09:16:08.125000,-112.87,89.58
60037,2018-06-29 09:16:08.156250,-103.46,89.58
60038,2018-06-29 09:16:08.187500,-83.25,89.58
60039,2018-06-29 09:16:08.218750,-56.66,89.58
60040,2018-06-29 09:16:08.250000,-30.63,89.58
60041,2018-06-29 09:16:08.281250,-12.25,89.58
60042,2018-06-29 09:16:08.312500,2.39,89.58
60043,2018-06-29 09:16:08.343750,23.23,89.58
60044,2018-06-29 09:16:08.375000,52.38,89.58
60045,2018-06-29 09:16:08.406250,81.73,89.58
60046,2018-06-29 09:16:08.437500,103.15,89.58
60047,2018-06-29 09:16:08.468750,114.79,89.58
60048,2018-06-29 09:16:08.500000,116.75,89.58
60049,2018-06-29 09:16:08.531250,106.2,88.98
60050,2018-06-29 09:16:08.562500,81.05,88.98
60051,2018-06-29 09:16:08.593750,47.38,88.98
60052,2018-06-29 09:16:08.625000,19.35,88.98
60053,2018-06-29 09:16:08.656250,7.98,88.98
60054,2018-06-29 09:16:08.687500,9.54,88.98
60055,2018-06-29 09:16:08.718750,11.77,88.98
60056,2018-06-29 09:16:08.750000,12.38,88.98
60057,2018-06-29 09:16:08.781250,20.73,88.98
60058,2018-06-29 09:16:08.812500,42.67,88.98
60059,2018-06-29 09:16:08.843750,77.39,88.98
60060,2018-06-29 09:16:08.875000,123.14,88.98
60061,2018-06-29 09:16:08.906250,171.59,88.98
60062,2018-06-29 09:16:08.937500,204.73,88.98
60063,2018-06-29 09:16:08.968750,209.2,88.98
60064,2018-06-29 09:16:09.000000,186.09,88.98
60065,2018-06-29 09:16:09.031250,141.7,88.98
60066,2018-06-29 09:16:09.062500,78.47,88.98
60067,2018-06-29 09:16:09.093750,0.54,88.98
60068,2018-06-29 09:16:09.125000,-79.21,88.98
60069,2018-06-29 09:16:09.156250,-145.05,88.98
60070,2018-06-29 09:16:09.187500,-188.08,88.98
60071,2018-06-29 09:16:09.218750,-206.69,88.98
60072,2018-06-29 09:16:09.250000,-202.86,88.98
60073,2018-06-29 09:16:09.281250,-182.87,88.98
60074,2018-06-29 09:16:09.312500,-156.94,88.98
60075,2018-06-29 09:16:09.343750,-132.52,88.98
60076,2018-06-29 09:16:09.375000,-109.23,88.98
60077,2018-06-29 09:16:09.406250,-83.19,88.98
60078,2018-06-29 09:16:09.437500,-54.41,88.98
60079,2018-06-29 09:16:09.468750,-28.6,88.98
60080,2018-06-29 09:16:09.500000,-12.2,88.98
60081,2018-06-29 09:16:09.531250,-5.63,88.38
60082,2018-06-29 09:16:09.562500,-1.08,88.38
60083,2018-06-29 09:16:09.593750,10.12,88.38
60084,2018-06-29 09:16:09.625000,27.29,88.38
60085,2018-06-29 09:16:09.656250,41.5,88.38
60086,2018-06-29 09:16:09.687500,46.42,88.38
60087,2018-06-29 09:16:09.718750,43.07,88.38
60088,2018-06-29 09:16:09.750000,34.14,88.38
60089,2018-06-29 09:16:09.781250,20.77,88.38
60090,2018-06-29 09:16:09.812500,7.22,88.38
60091,2018-06-29 09:16:09.843750,0.75,88.38
60092,2018-06-29 09:16:09.875000,3.07,88.38
60093,2018-06-29 09:16:09.906250,9.91,88.38
60094,2018-06-29 09:16:09.937500,20.69,88.38
60095,2018-06-29 09:16:09.968750,38.52,88.38
60096,2018-06-29 09:16:10.000000,60.09,88.38
60097,2018-06-29 09:16:10.031250,75.8,88.38
60098,2018-06-29 09:16:10.062500,80.97,88.38
60099,2018-06-29 09:16:10.093750,78.08,88.38
60100,2018-06-29 09:16:10.125000,68.22,88.38
60101,2018-06-29 09:16:10.156250,47.95,88.38
60102,2018-06-29 09:16:10.187500,14.6,88.38
60103,2018-06-29 09:16:10.218750,-28.92,88.38
60104,2018-06-29 09:16:10.250000,-71.38,88.38
60105,2018-06-29 09:16:10.281250,-94.97,88.38
60106,2018-06-29 09:16:10.312500,-88.14,88.38
60107,2018-06-29 09:16:10.343750,-57.53,88.38
60108,2018-06-29 09:16:10.375000,-21.95,88.38
60109,2018-06-29 09:16:10.406250,4.27,88.38
60110,2018-06-29 09:16:10.437500,18.27,88.38
60111,2018-06-29 09:16:10.468750,24.65,88.38
60112,2018-06-29 09:16:10.500000,30.66,88.38
60113,2018-06-29 09:16:10.531250,42.49,87.8
60114,2018-06-29 09:16:10.562500,59.83,87.8
60115,2018-06-29 09:16:10.593750,74.82,87.8
60116,2018-06-29 09:16:10.625000,81.43,87.8
60117,2018-06-29 09:16:10.656250,82.26,87.8
60118,2018-06-29 09:16:10.687500,80.46,87.8
60119,2018-06-29 09:16:10.718750,70.99,87.8
60120,2018-06-29 09:16:10.750000,47.7,87.8
60121,2018-06-29 09:16:10.781250,13.81,87.8
60122,2018-06-29 09:16:10.812500,-21.3,87.8
60123,2018-06-29 09:16:10.843750,-51.71,87.8
60124,2018-06-29 09:16:10.875000,-77.35,87.8
60125,2018-06-29 09:16:10.906250,-99.29,87.8
60126,2018-06-29 09:16:10.937500,-114.43,87.8
60127,2018-06-29 09:16:10.968750,-114.22,87.8
60128,2018-06-29 09:16:11.000000,-90.96,87.8
60129,2018-06-29 09:16:11.031250,-48.5,87.8
60130,2018-06-29 09:16:11.062500,-1.82,87.8
60131,2018-06-29 09:16:11.093750,36.26,87.8
60132,2018-06-29 09:16:11.125000,62.7,87.8
60133,2018-06-29 09:16:11.156250,78.64,87.8
60134,2018-06-29 09:16:11.187500,83.71,87.8
60135,2018-06-29 09:16:11.218750,77.68,87.8
60136,2018-06-29 09:16:11.250000,62.61,87.8
60137,2018-06-29 09:16:11.281250,42.67,87.8
60138,2018-06-29 09:16:11.312500,23.58,87.8
60139,2018-06-29 09:16:11.343750,10.39,87.8
60140,2018-06-29 09:16:11.375000,3.55,87.8
60141,2018-06-29 09:16:11.406250,-0.86,87.8
60142,2018-06-29 09:16:11.437500,-5.15,87.8
60143,2018-06-29 09:16:11.468750,-7.69,87.8
60144,2018-06-29 09:16:11.500000,-8.1,87.8
60145,2018-06-29 09:16:11.531250,-10.33,87.48
60146,2018-06-29 09:16:11.562500,-17.72,87.48
60147,2018-06-29 09:16:11.593750,-26.12,87.48
60148,2018-06-29 09:16:11.625000,-23.91,87.48
60149,2018-06-29 09:16:11.656250,-1.51,87.48
60150,2018-06-29 09:16:11.687500,36.29,87.48
60151,2018-06-29 09:16:11.718750,71.49,87.48
60152,2018-06-29 09:16:11.750000,89.24,87.48
60153,2018-06-29 09:16:11.781250,87.28,87.48
60154,2018-06-29 09:16:11.812500,69.43,87.48
60155,2018-06-29 09:16:11.843750,40.41,87.48
60156,2018-06-29 09:16:11.875000,7.45,87.48
60157,2018-06-29 09:16:11.906250,-22.66,87.48
60158,2018-06-29 09:16:11.937500,-47.31,87.48
60159,2018-06-29 09:16:11.968750,-64.04,87.48
60160,2018-06-29 09:16:12.000000,-68.06,87.48
60161,2018-06-29 09:16:12.031250,-58.21,87.48
60162,2018-06-29 09:16:12.062500,-40.92,87.48
60163,2018-06-29 09:16:12.093750,-24.92,87.48
60164,2018-06-29 09:16:12.125000,-14.8,87.48
60165,2018-06-29 09:16:12.156250,-9.95,87.48
60166,2018-06-29 09:16:12.187500,-5.88,87.48
60167,2018-06-29 09:16:12.218750,0.5,87.48
60168,2018-06-29 09:16:12.250000,3.49,87.48
60169,2018-06-29 09:16:12.281250,-4.78,87.48
60170,2018-06-29 09:16:12.312500,-16.29,87.48
60171,2018-06-29 09:16:12.343750,-12.97,87.48
60172,2018-06-29 09:16:12.375000,5.32,87.48
60173,2018-06-29 09:16:12.406250,19.24,87.48
60174,2018-06-29 09:16:12.437500,17.64,87.48
60175,2018-06-29 09:16:12.468750,7.16,87.48
60176,2018-06-29 09:16:12.500000,-2.3,87.48
60177,2018-06-29 09:16:12.531250,-5.68,87.18
60178,2018-06-29 09:16:12.562500,-1.6,87.18
60179,2018-06-29 09:16:12.593750,6.6,87.18
60180,2018-06-29 09:16:12.625000,12.71,87.18
60181,2018-06-29 09:16:12.656250,14.98,87.18
60182,2018-06-29 09:16:12.687500,18.84,87.18
60183,2018-06-29 09:16:12.718750,30.74,87.18
60184,2018-06-29 09:16:12.750000,49.67,87.18
60185,2018-06-29 09:16:12.781250,64.64,87.18
60186,2018-06-29 09:16:12.812500,62.82,87.18
60187,2018-06-29 09:16:12.843750,42.44,87.18
60188,2018-06-29 09:16:12.875000,11.78,87.18
60189,2018-06-29 09:16:12.906250,-24.01,87.18
60190,2018-06-29 09:16:12.937500,-67.13,87.18
60191,2018-06-29 09:16:12.968750,-114.53,87.18
60192,2018-06-29 09:16:13.000000,-150.02,87.18
60193,2018-06-29 09:16:13.031250,-155.71,87.18
60194,2018-06-29 09:16:13.062500,-128.46,87.18
60195,2018-06-29 09:16:13.093750,-81.68,87.18
60196,2018-06-29 09:16:13.125000,-32.0,87.18
60197,2018-06-29 09:16:13.156250,10.79,87.18
60198,2018-06-29 09:16:13.187500,46.55,87.18
60199,2018-06-29 09:16:13.218750,79.0,87.18
60200,2018-06-29 09:16:13.250000,108.83,87.18
60201,2018-06-29 09:16:13.281250,127.46,87.18
60202,2018-06-29 09:16:13.312500,123.29,87.18
60203,2018-06-29 09:16:13.343750,100.49,87.18
60204,2018-06-29 09:16:13.375000,82.48,87.18
60205,2018-06-29 09:16:13.406250,95.0,87.18
60206,2018-06-29 09:16:13.437500,131.01,87.18
60207,2018-06-29 09:16:13.468750,163.01,87.18
60208,2018-06-29 09:16:13.500000,177.34,87.18
60209,2018-06-29 09:16:13.531250,189.51,86.97
60210,2018-06-29 09:16:13.562500,212.91,86.97
60211,2018-06-29 09:16:13.593750,237.68,86.97
60212,2018-06-29 09:16:13.625000,254.04,86.97
60213,2018-06-29 09:16:13.656250,270.5,86.97
60214,2018-06-29 09:16:13.687500,312.47,86.97
60215,2018-06-29 09:16:13.718750,376.53,86.97
60216,2018-06-29 09:16:13.750000,429.49,86.97
60217,2018-06-29 09:16:13.781250,434.07,86.97
60218,2018-06-29 09:16:13.812500,298.42,86.97
60219,2018-06-29 09:16:13.843750,84.75,86.97
60220,2018-06-29 09:16:13.875000,-82.42,86.97
60221,2018-06-29 09:16:13.906250,-169.56,86.97
60222,2018-06-29 09:16:13.937500,-209.49,86.97
60223,2018-06-29 09:16:13.968750,-204.81,86.97
60224,2018-06-29 09:16:14.000000,-195.01,86.97
60225,2018-06-29 09:16:14.031250,-215.33,86.97
60226,2018-06-29 09:16:14.062500,-269.01,86.97
60227,2018-06-29 09:16:14.093750,-324.6,86.97
60228,2018-06-29 09:16:14.125000,-355.21,86.97
60229,2018-06-29 09:16:14.156250,-362.72,86.97
60230,2018-06-29 09:16:14.187500,-360.17,86.97
60231,2018-06-29 09:16:14.218750,-347.75,86.97
60232,2018-06-29 09:16:14.250000,-318.58,86.97
60233,2018-06-29 09:16:14.281250,-277.26,86.97
60234,2018-06-29 09:16:14.312500,-235.69,86.97
60235,2018-06-29 09:16:14.343750,-201.99,86.97
60236,2018-06-29 09:16:14.375000,-173.85,86.97
60237,2018-06-29 09:16:14.406250,-146.95,86.97
60238,2018-06-29 09:16:14.437500,-117.81,86.97
60239,2018-06-29 09:16:14.468750,-80.63,86.97
60240,2018-06-29 09:16:14.500000,-30.97,86.97
60241,2018-06-29 09:16:14.531250,22.45,86.72
60242,2018-06-29 09:16:14.562500,65.82,86.72
