,Time,ppg,hr
76800,2018-06-29 09:24:52.000000,-186.06,118.35
76801,2018-06-29 09:24:52.031250,-178.93,118.35
76802,2018-06-29 09:24:52.062500,-139.8,118.35
76803,2018-06-29 09:24:52.093750,-98.8,118.35
76804,2018-06-29 09:24:52.125000,-74.25,118.35
76805,2018-06-29 09:24:52.156250,-63.04,118.35
76806,2018-06-29 09:24:52.187500,-62.9,118.35
76807,2018-06-29 09:24:52.218750,-75.84,118.35
76808,2018-06-29 09:24:52.250000,-93.86,118.35
76809,2018-06-29 09:24:52.281250,-104.37,118.35
76810,2018-06-29 09:24:52.312500,-104.07,118.35
76811,2018-06-29 09:24:52.343750,-96.47,118.35
76812,2018-06-29 09:24:52.375000,-88.0,118.35
76813,2018-06-29 09:24:52.406250,-86.32,118.35
76814,2018-06-29 09:24:52.437500,-86.01,118.35
76815,2018-06-29 09:24:52.468750,-64.59,118.35
76816,2018-06-29 09:24:52.500000,-8.91,118.35
76817,2018-06-29 09:24:52.531250,67.93,118.87
76818,2018-06-29 09:24:52.562500,138.84,118.87
76819,2018-06-29 09:24:52.593750,178.26,118.87
76820,2018-06-29 09:24:52.625000,173.76,118.87
76821,2018-06-29 09:24:52.656250,136.7,118.87
76822,2018-06-29 09:24:52.687500,93.18,118.87
76823,2018-06-29 09:24:52.718750,61.32,118.87
76824,2018-06-29 09:24:52.750000,43.92,118.87
76825,2018-06-29 09:24:52.781250,35.71,118.87
76826,2018-06-29 09:24:52.812500,27.8,118.87
76827,2018-06-29 09:24:52.843750,9.5,118.87
76828,2018-06-29 09:24:52.875000,-19.53,118.87
76829,2018-06-29 09:24:52.906250,-32.7,118.87
76830,2018-06-29 09:24:52.937500,8.34,118.87
76831,2018-06-29 09:24:52.968750,105.74,118.87
76832,2018-06-29 09:24:53.000000,208.55,118.87
76833,2018-06-29 09:24:53.031250,258.53,118.87
76834,2018-06-29 09:24:53.062500,238.65,118.87
76835,2018-06-29 09:24:53.093750,168.82,118.87
76836,2018-06-29 09:24:53.125000,75.86,118.87
76837,2018-06-29 09:24:53.156250,-17.71,118.87
76838,2018-06-29 09:24:53.187500,-91.76,118.87
76839,2018-06-29 09:24:53.218750,-134.82,118.87
76840,2018-06-29 09:24:53.250000,-153.42,118.87
76841,2018-06-29 09:24:53.281250,-165.43,118.87
76842,2018-06-29 09:24:53.312500,-182.78,118.87
76843,2018-06-29 09:24:53.343750,-196.42,118.87
76844,2018-06-29 09:24:53.375000,-177.59,118.87
76845,2018-06-29 09:24:53.406250,-103.44,118.87
76846,2018-06-29 09:24:53.437500,17.26,118.87
76847,2018-06-29 09:24:53.468750,149.45,118.87
76848,2018-06-29 09:24:53.500000,255.76,118.87
76849,2018-06-29 09:24:53.531250,310.68,119.38
76850,2018-06-29 09:24:53.562500,305.08,119.38
76851,2018-06-29 09:24:53.593750,248.88,119.38
76852,2018-06-29 09:24:53.625000,165.75,119.38
76853,2018-06-29 09:24:53.656250,80.01,119.38
76854,2018-06-29 09:24:53.687500,6.66,119.38
76855,2018-06-29 09:24:53.718750,-51.34,119.38
76856,2018-06-29 09:24:53.750000,-99.44,119.38
76857,2018-06-29 09:24:53.781250,-146.55,119.38
76858,2018-06-29 09:24:53.812500,-188.47,119.38
76859,2018-06-29 09:24:53.843750,-193.16,119.38
76860,2018-06-29 09:24:53.875000,-129.85,119.38
76861,2018-06-29 09:24:53.906250,-17.93,119.38
76862,2018-06-29 09:24:53.937500,86.27,119.38
76863,2018-06-29 09:24:53.968750,148.18,119.38
76864,2018-06-29 09:24:54.000000,169.16,119.38
76865,2018-06-29 09:24:54.031250,159.97,119.38
76866,2018-06-29 09:24:54.062500,135.05,119.38
76867,2018-06-29 09:24:54.093750,110.72,119.38
76868,2018-06-29 09:24:54.125000,83.78,119.38
76869,2018-06-29 09:24:54.156250,32.8,119.38
76870,2018-06-29 09:24:54.187500,-49.19,119.38
76871,2018-06-29 09:24:54.218750,-144.22,119.38
76872,2018-06-29 09:24:54.250000,-230.28,119.38
76873,2018-06-29 09:24:54.281250,-285.07,119.38
76874,2018-06-29 09:24:54.312500,-279.78,119.38
76875,2018-06-29 09:24:54.343750,-205.43,119.38
76876,2018-06-29 09:24:54.375000,-97.28,119.38
76877,2018-06-29 09:24:54.406250,-1.27,119.38
76878,2018-06-29 09:24:54.437500,68.59,119.38
76879,2018-06-29 09:24:54.468750,115.89,119.38
76880,2018-06-29 09:24:54.500000,134.62,119.38
76881,2018-06-29 09:24:54.531250,124.16,119.87
76882,2018-06-29 09:24:54.562500,105.45,119.87
76883,2018-06-29 09:24:54.593750,97.5,119.87
76884,2018-06-29 09:24:54.625000,94.07,119.87
76885,2018-06-29 09:24:54.656250,74.65,119.87
76886,2018-06-29 09:24:54.687500,26.34,119.87
76887,2018-06-29 09:24:54.718750,-41.15,119.87
76888,2018-06-29 09:24:54.750000,-89.1,119.87
76889,2018-06-29 09:24:54.781250,-78.58,119.87
76890,2018-06-29 09:24:54.812500,-17.69,119.87
76891,2018-06-29 09:24:54.843750,46.78,119.87
76892,2018-06-29 09:24:54.875000,84.94,119.87
76893,2018-06-29 09:24:54.906250,97.07,119.87
76894,2018-06-29 09:24:54.937500,85.9,119.87
76895,2018-06-29 09:24:54.968750,55.95,119.87
76896,2018-06-29 09:24:55.000000,27.36,119.87
76897,2018-06-29 09:24:55.031250,17.75,119.87
76898,2018-06-29 09:24:55.062500,20.19,119.87
76899,2018-06-29 09:24:55.093750,16.41,119.87
76900,2018-06-29 09:24:55.125000,2.11,119.87
76901,2018-06-29 09:24:55.156250,-9.29,119.87
76902,2018-06-29 09:24:55.187500,0.18,119.87
76903,2018-06-29 09:24:55.218750,37.81,119.87
76904,2018-06-29 09:24:55.250000,89.12,119.87
76905,2018-06-29 09:24:55.281250,124.02,119.87
76906,2018-06-29 09:24:55.312500,123.83,119.87
76907,2018-06-29 09:24:55.343750,96.2,119.87
76908,2018-06-29 09:24:55.375000,55.3,119.87
76909,2018-06-29 09:24:55.406250,1.03,119.87
76910,2018-06-29 09:24:55.437500,-68.82,119.87
76911,2018-06-29 09:24:55.468750,-140.87,119.87
76912,2018-06-29 09:24:55.500000,-196.09,119.87
76913,2018-06-29 09:24:55.531250,-227.35,120.33
76914,2018-06-29 09:24:55.562500,-239.26,120.33
76915,2018-06-29 09:24:55.593750,-241.44,120.33
76916,2018-06-29 09:24:55.625000,-234.89,120.33
76917,2018-06-29 09:24:55.656250,-198.75,120.33
76918,2018-06-29 09:24:55.687500,-110.52,120.33
76919,2018-06-29 09:24:55.718750,12.87,120.33
76920,2018-06-29 09:24:55.750000,120.39,120.33
76921,2018-06-29 09:24:55.781250,176.84,120.33
76922,2018-06-29 09:24:55.812500,185.11,120.33
76923,2018-06-29 09:24:55.843750,163.09,120.33
76924,2018-06-29 09:24:55.875000,122.84,120.33
76925,2018-06-29 09:24:55.906250,73.79,120.33
76926,2018-06-29 09:24:55.937500,26.84,120.33
76927,2018-06-29 09:24:55.968750,-9.09,120.33
76928,2018-06-29 09:24:56.000000,-30.27,120.33
76929,2018-06-29 09:24:56.031250,-43.52,120.33
76930,2018-06-29 09:24:56.062500,-64.12,120.33
76931,2018-06-29 09:24:56.093750,-88.81,120.33
76932,2018-06-29 09:24:56.125000,-78.74,120.33
76933,2018-06-29 09:24:56.156250,-2.83,120.33
76934,2018-06-29 09:24:56.187500,112.43,120.33
76935,2018-06-29 09:24:56.218750,208.34,120.33
76936,2018-06-29 09:24:56.250000,251.39,120.33
76937,2018-06-29 09:24:56.281250,242.07,120.33
76938,2018-06-29 09:24:56.312500,190.9,120.33
76939,2018-06-29 09:24:56.343750,111.56,120.33
76940,2018-06-29 09:24:56.375000,24.64,120.33
76941,2018-06-29 09:24:56.406250,-49.01,120.33
76942,2018-06-29 09:24:56.437500,-100.35,120.33
76943,2018-06-29 09:24:56.468750,-137.71,120.33
76944,2018-06-29 09:24:56.500000,-181.0,120.33
76945,2018-06-29 09:24:56.531250,-240.93,120.77
76946,2018-06-29 09:24:56.562500,-295.45,120.77
76947,2018-06-29 09:24:56.593750,-300.48,120.77
76948,2018-06-29 09:24:56.625000,-237.83,120.77
76949,2018-06-29 09:24:56.656250,-138.78,120.77
76950,2018-06-29 09:24:56.687500,-45.55,120.77
76951,2018-06-29 09:24:56.718750,24.62,120.77
76952,2018-06-29 09:24:56.750000,65.65,120.77
76953,2018-06-29 09:24:56.781250,71.79,120.77
76954,2018-06-29 09:24:56.812500,56.86,120.77
76955,2018-06-29 09:24:56.843750,48.75,120.77
76956,2018-06-29 09:24:56.875000,54.95,120.77
76957,2018-06-29 09:24:56.906250,61.25,120.77
76958,2018-06-29 09:24:56.937500,48.28,120.77
76959,2018-06-29 09:24:56.968750,2.83,120.77
76960,2018-06-29 09:24:57.000000,-54.92,120.77
76961,2018-06-29 09:24:57.031250,-74.17,120.77
76962,2018-06-29 09:24:57.062500,-31.66,120.77
76963,2018-06-29 09:24:57.093750,42.49,120.77
76964,2018-06-29 09:24:57.125000,111.68,120.77
76965,2018-06-29 09:24:57.156250,164.2,120.77
76966,2018-06-29 09:24:57.187500,195.57,120.77
76967,2018-06-29 09:24:57.218750,198.49,120.77
76968,2018-06-29 09:24:57.250000,173.15,120.77
76969,2018-06-29 09:24:57.281250,133.4,120.77
76970,2018-06-29 09:24:57.312500,94.54,120.77
76971,2018-06-29 09:24:57.343750,59.64,120.77
76972,2018-06-29 09:24:57.375000,27.61,120.77
76973,2018-06-29 09:24:57.406250,-5.07,120.77
76974,2018-06-29 09:24:57.437500,-48.96,120.77
76975,2018-06-29 09:24:57.468750,-99.33,120.77
76976,2018-06-29 09:24:57.500000,-123.11,120.77
76977,2018-06-29 09:24:57.531250,-100.52,121.2
76978,2018-06-29 09:24:57.562500,-56.48,121.2
76979,2018-06-29 09:24:57.593750,-27.04,121.2
76980,2018-06-29 09:24:57.625000,-24.05,121.2
76981,2018-06-29 09:24:57.656250,-45.57,121.2
76982,2018-06-29 09:24:57.687500,-86.97,121.2
76983,2018-06-29 09:24:57.718750,-131.57,121.2
76984,2018-06-29 09:24:57.750000,-156.1,121.2
76985,2018-06-29 09:24:57.781250,-153.85,121.2
76986,2018-06-29 09:24:57.812500,-138.04,121.2
76987,2018-06-29 09:24:57.843750,-122.84,121.2
76988,2018-06-29 09:24:57.875000,-112.35,121.2
76989,2018-06-29 09:24:57.906250,-97.93,121.2
76990,2018-06-29 09:24:57.937500,-59.4,121.2
76991,2018-06-29 09:24:57.968750,13.56,121.2
76992,2018-06-29 09:24:58.000000,98.8,121.2
76993,2018-06-29 09:24:58.031250,159.99,121.2
76994,2018-06-29 09:24:58.062500,183.4,121.2
76995,2018-06-29 09:24:58.093750,178.01,121.2
76996,2018-06-29 09:24:58.125000,151.33,121.2
76997,2018-06-29 09:24:58.156250,106.06,121.2
76998,2018-06-29 09:24:58.187500,54.22,121.2
76999,2018-06-29 09:24:58.218750,14.87,121.2
77000,2018-06-29 09:24:58.250000,-4.29,121.2
77001,2018-06-29 09:24:58.281250,-11.68,121.2
77002,2018-06-29 09:24:58.312500,-19.07,121.2
77003,2018-06-29 09:24:58.343750,-30.13,121.2
77004,2018-06-29 09:24:58.375000,-29.7,121.2
77005,2018-06-29 09:24:58.406250,13.93,121.2
77006,2018-06-29 09:24:58.437500,108.81,121.2
77007,2018-06-29 09:24:58.468750,208.4,121.2
77008,2018-06-29 09:24:58.500000,253.42,121.2
77009,2018-06-29 09:24:58.531250,230.0,121.63
77010,2018-06-29 09:24:58.562500,160.09,121.63
77011,2018-06-29 09:24:58.593750,65.33,121.63
77012,2018-06-29 09:24:58.625000,-34.78,121.63
77013,2018-06-29 09:24:58.656250,-118.2,121.63
77014,2018-06-29 09:24:58.687500,-175.98,121.63
77015,2018-06-29 09:24:58.718750,-217.88,121.63
77016,2018-06-29 09:24:58.750000,-256.2,121.63
77017,2018-06-29 09:24:58.781250,-294.54,121.63
77018,2018-06-29 09:24:58.812500,-326.2,121.63
77019,2018-06-29 09:24:58.843750,-328.73,121.63
77020,2018-06-29 09:24:58.875000,-274.36,121.63
77021,2018-06-29 09:24:58.906250,-164.4,121.63
77022,2018-06-29 09:24:58.937500,-37.56,121.63
77023,2018-06-29 09:24:58.968750,69.01,121.63
77024,2018-06-29 09:24:59.000000,145.44,121.63
77025,2018-06-29 09:24:59.031250,191.86,121.63
77026,2018-06-29 09:24:59.062500,206.91,121.63
77027,2018-06-29 09:24:59.093750,197.5,121.63
77028,2018-06-29 09:24:59.125000,176.23,121.63
77029,2018-06-29 09:24:59.156250,149.18,121.63
77030,2018-06-29 09:24:59.187500,115.21,121.63
77031,2018-06-29 09:24:59.218750,68.87,121.63
77032,2018-06-29 09:24:59.250000,3.91,121.63
77033,2018-06-29 09:24:59.281250,-70.7,121.63
77034,2018-06-29 09:24:59.312500,-124.76,121.63
77035,2018-06-29 09:24:59.343750,-135.55,121.63
77036,2018-06-29 09:24:59.375000,-109.73,121.63
77037,2018-06-29 09:24:59.406250,-63.93,121.63
77038,2018-06-29 09:24:59.437500,-7.48,121.63
77039,2018-06-29 09:24:59.468750,43.65,121.63
77040,2018-06-29 09:24:59.500000,67.58,121.63
77041,2018-06-29 09:24:59.531250,65.29,122.05
77042,2018-06-29 09:24:59.562500,62.75,122.05
77043,2018-06-29 09:24:59.593750,76.22,122.05
77044,2018-06-29 09:24:59.625000,91.15,122.05
77045,2018-06-29 09:24:59.656250,76.43,122.05
77046,2018-06-29 09:24:59.687500,13.21,122.05
77047,2018-06-29 09:24:59.718750,-83.97,122.05
77048,2018-06-29 09:24:59.750000,-170.03,122.05
77049,2018-06-29 09:24:59.781250,-203.03,122.05
77050,2018-06-29 09:24:59.812500,-181.5,122.05
77051,2018-06-29 09:24:59.843750,-139.66,122.05
77052,2018-06-29 09:24:59.875000,-106.37,122.05
77053,2018-06-29 09:24:59.906250,-84.66,122.05
77054,2018-06-29 09:24:59.937500,-69.59,122.05
77055,2018-06-29 09:24:59.968750,-62.22,122.05
77056,2018-06-29 09:25:00.000000,-60.77,122.05
77057,2018-06-29 09:25:00.031250,-57.37,122.05
77058,2018-06-29 09:25:00.062500,-47.0,122.05
77059,2018-06-29 09:25:00.093750,-30.45,122.05
77060,2018-06-29 09:25:00.125000,-11.96,122.05
77061,2018-06-29 09:25:00.156250,-1.18,122.05
77062,2018-06-29 09:25:00.187500,-3.46,122.05
77063,2018-06-29 09:25:00.218750,-0.84,122.05
77064,2018-06-29 09:25:00.250000,33.44,122.05
77065,2018-06-29 09:25:00.281250,93.67,122.05
77066,2018-06-29 09:25:00.312500,141.15,122.05
77067,2018-06-29 09:25:00.343750,149.39,122.05
77068,2018-06-29 09:25:00.375000,123.43,122.05
77069,2018-06-29 09:25:00.406250,76.47,122.05
77070,2018-06-29 09:25:00.437500,18.87,122.05
77071,2018-06-29 09:25:00.468750,-31.91,122.05
77072,2018-06-29 09:25:00.500000,-57.22,122.05
77073,2018-06-29 09:25:00.531250,-56.62,122.48
77074,2018-06-29 09:25:00.562500,-47.58,122.48
77075,2018-06-29 09:25:00.593750,-48.91,122.48
77076,2018-06-29 09:25:00.625000,-64.74,122.48
77077,2018-06-29 09:25:00.656250,-72.01,122.48
77078,2018-06-29 09:25:00.687500,-32.23,122.48
77079,2018-06-29 09:25:00.718750,64.25,122.48
77080,2018-06-29 09:25:00.750000,172.56,122.48
77081,2018-06-29 09:25:00.781250,229.77,122.48
77082,2018-06-29 09:25:00.812500,209.81,122.48
77083,2018-06-29 09:25:00.843750,132.54,122.48
77084,2018-06-29 09:25:00.875000,33.4,122.48
77085,2018-06-29 09:25:00.906250,-59.33,122.48
77086,2018-06-29 09:25:00.937500,-126.28,122.48
77087,2018-06-29 09:25:00.968750,-159.33,122.48
77088,2018-06-29 09:25:01.000000,-167.38,122.48
77089,2018-06-29 09:25:01.031250,-168.7,122.48
77090,2018-06-29 09:25:01.062500,-175.59,122.48
77091,2018-06-29 09:25:01.093750,-183.86,122.48
77092,2018-06-29 09:25:01.125000,-169.74,122.48
77093,2018-06-29 09:25:01.156250,-106.63,122.48
77094,2018-06-29 09:25:01.187500,4.24,122.48
77095,2018-06-29 09:25:01.218750,129.62,122.48
77096,2018-06-29 09:25:01.250000,233.51,122.48
77097,2018-06-29 09:25:01.281250,296.31,122.48
77098,2018-06-29 09:25:01.312500,310.68,122.48
77099,2018-06-29 09:25:01.343750,280.38,122.48
77100,2018-06-29 09:25:01.375000,223.75,122.48
77101,2018-06-29 09:25:01.406250,165.89,122.48
77102,2018-06-29 09:25:01.437500,120.3,122.48
77103,2018-06-29 09:25:01.468750,79.23,122.48
77104,2018-06-29 09:25:01.500000,26.02,122.48
77105,2018-06-29 09:25:01.531250,-37.55,122.92
77106,2018-06-29 09:25:01.562500,-80.25,122.92
77107,2018-06-29 09:25:01.593750,-66.3,122.92
77108,2018-06-29 09:25:01.625000,8.07,122.92
77109,2018-06-29 09:25:01.656250,107.29,122.92
77110,2018-06-29 09:25:01.687500,191.54,122.92
77111,2018-06-29 09:25:01.718750,248.29,122.92
77112,2018-06-29 09:25:01.750000,279.47,122.92
77113,2018-06-29 09:25:01.781250,274.59,122.92
77114,2018-06-29 09:25:01.812500,225.24,122.92
77115,2018-06-29 09:25:01.843750,152.91,122.92
77116,2018-06-29 09:25:01.875000,83.73,122.92
77117,2018-06-29 09:25:01.906250,15.87,122.92
77118,2018-06-29 09:25:01.937500,-60.97,122.92
77119,2018-06-29 09:25:01.968750,-142.88,122.92
77120,2018-06-29 09:25:02.000000,-226.56,122.92
77121,2018-06-29 09:25:02.031250,-304.12,122.92
77122,2018-06-29 09:25:02.062500,-339.67,122.92
77123,2018-06-29 09:25:02.093750,-301.68,122.92
77124,2018-06-29 09:25:02.125000,-210.66,122.92
77125,2018-06-29 09:25:02.156250,-118.1,122.92
77126,2018-06-29 09:25:02.187500,-55.42,122.92
77127,2018-06-29 09:25:02.218750,-28.56,122.92
77128,2018-06-29 09:25:02.250000,-39.17,122.92
77129,2018-06-29 09:25:02.281250,-79.45,122.92
77130,2018-06-29 09:25:02.312500,-125.09,122.92
77131,2018-06-29 09:25:02.343750,-156.41,122.92
77132,2018-06-29 09:25:02.375000,-178.45,122.92
77133,2018-06-29 09:25:02.406250,-208.78,122.92
77134,2018-06-29 09:25:02.437500,-251.36,122.92
77135,2018-06-29 09:25:02.468750,-284.77,122.92
77136,2018-06-29 09:25:02.500000,-272.49,122.92
77137,2018-06-29 09:25:02.531250,-195.76,123.3
77138,2018-06-29 09:25:02.562500,-75.76,123.3
77139,2018-06-29 09:25:02.593750,44.75,123.3
77140,2018-06-29 09:25:02.625000,133.78,123.3
77141,2018-06-29 09:25:02.656250,181.2,123.3
77142,2018-06-29 09:25:02.687500,192.41,123.3
77143,2018-06-29 09:25:02.718750,177.11,123.3
77144,2018-06-29 09:25:02.750000,143.89,123.3
77145,2018-06-29 09:25:02.781250,104.82,123.3
77146,2018-06-29 09:25:02.812500,74.06,123.3
77147,2018-06-29 09:25:02.843750,57.28,123.3
77148,2018-06-29 09:25:02.875000,48.49,123.3
77149,2018-06-29 09:25:02.906250,38.92,123.3
77150,2018-06-29 09:25:02.937500,30.31,123.3
77151,2018-06-29 09:25:02.968750,35.54,123.3
77152,2018-06-29 09:25:03.000000,54.53,123.3
77153,2018-06-29 09:25:03.031250,61.49,123.3
77154,2018-06-29 09:25:03.062500,35.35,123.3
77155,2018-06-29 09:25:03.093750,-13.62,123.3
77156,2018-06-29 09:25:03.125000,-63.82,123.3
77157,2018-06-29 09:25:03.156250,-105.86,123.3
77158,2018-06-29 09:25:03.187500,-133.26,123.3
77159,2018-06-29 09:25:03.218750,-137.15,123.3
77160,2018-06-29 09:25:03.250000,-120.42,123.3
77161,2018-06-29 09:25:03.281250,-99.34,123.3
77162,2018-06-29 09:25:03.312500,-86.55,123.3
77163,2018-06-29 09:25:03.343750,-82.46,123.3
77164,2018-06-29 09:25:03.375000,-71.95,123.3
77165,2018-06-29 09:25:03.406250,-25.25,123.3
77166,2018-06-29 09:25:03.437500,70.95,123.3
77167,2018-06-29 09:25:03.468750,180.04,123.3
77168,2018-06-29 09:25:03.500000,245.45,123.3
77169,2018-06-29 09:25:03.531250,250.19,123.7
77170,2018-06-29 09:25:03.562500,214.46,123.7
77171,2018-06-29 09:25:03.593750,153.85,123.7
77172,2018-06-29 09:25:03.625000,77.96,123.7
77173,2018-06-29 09:25:03.656250,8.5,123.7
77174,2018-06-29 09:25:03.687500,-35.44,123.7
77175,2018-06-29 09:25:03.718750,-55.12,123.7
77176,2018-06-29 09:25:03.750000,-60.78,123.7
77177,2018-06-29 09:25:03.781250,-60.1,123.7
77178,2018-06-29 09:25:03.812500,-57.78,123.7
77179,2018-06-29 09:25:03.843750,-42.29,123.7
77180,2018-06-29 09:25:03.875000,13.91,123.7
77181,2018-06-29 09:25:03.906250,112.25,123.7
77182,2018-06-29 09:25:03.937500,207.29,123.7
77183,2018-06-29 09:25:03.968750,254.69,123.7
77184,2018-06-29 09:25:04.000000,250.81,123.7
77185,2018-06-29 09:25:04.031250,208.36,123.7
77186,2018-06-29 09:25:04.062500,132.48,123.7
77187,2018-06-29 09:25:04.093750,35.51,123.7
77188,2018-06-29 09:25:04.125000,-59.79,123.7
77189,2018-06-29 09:25:04.156250,-140.87,123.7
77190,2018-06-29 09:25:04.187500,-209.12,123.7
77191,2018-06-29 09:25:04.218750,-267.03,123.7
77192,2018-06-29 09:25:04.250000,-316.68,123.7
77193,2018-06-29 09:25:04.281250,-354.57,123.7
77194,2018-06-29 09:25:04.312500,-357.47,123.7
77195,2018-06-29 09:25:04.343750,-298.16,123.7
77196,2018-06-29 09:25:04.375000,-183.55,123.7
77197,2018-06-29 09:25:04.406250,-53.17,123.7
77198,2018-06-29 09:25:04.437500,57.97,123.7
77199,2018-06-29 09:25:04.468750,132.63,123.7
77200,2018-06-29 09:25:04.500000,162.0,123.7
77201,2018-06-29 09:25:04.531250,150.99,124.08
77202,2018-06-29 09:25:04.562500,122.05,124.08
77203,2018-06-29 09:25:04.593750,95.63,124.08
77204,2018-06-29 09:25:04.625000,72.19,124.08
77205,2018-06-29 09:25:04.656250,39.63,124.08
77206,2018-06-29 09:25:04.687500,-9.79,124.08
77207,2018-06-29 09:25:04.718750,-70.84,124.08
77208,2018-06-29 09:25:04.750000,-119.04,124.08
77209,2018-06-29 09:25:04.781250,-118.01,124.08
77210,2018-06-29 09:25:04.812500,-55.19,124.08
77211,2018-06-29 09:25:04.843750,37.38,124.08
77212,2018-06-29 09:25:04.875000,115.81,124.08
77213,2018-06-29 09:25:04.906250,162.61,124.08
77214,2018-06-29 09:25:04.937500,179.5,124.08
77215,2018-06-29 09:25:04.968750,169.03,124.08
77216,2018-06-29 09:25:05.000000,142.82,124.08
77217,2018-06-29 09:25:05.031250,124.33,124.08
77218,2018-06-29 09:25:05.062500,122.02,124.08
77219,2018-06-29 09:25:05.093750,112.3,124.08
77220,2018-06-29 09:25:05.125000,64.15,124.08
77221,2018-06-29 09:25:05.156250,-26.74,124.08
77222,2018-06-29 09:25:05.187500,-130.35,124.08
77223,2018-06-29 09:25:05.218750,-198.18,124.08
77224,2018-06-29 09:25:05.250000,-196.58,124.08
77225,2018-06-29 09:25:05.281250,-138.54,124.08
77226,2018-06-29 09:25:05.312500,-70.85,124.08
77227,2018-06-29 09:25:05.343750,-26.82,124.08
77228,2018-06-29 09:25:05.375000,-8.73,124.08
77229,2018-06-29 09:25:05.406250,-9.23,124.08
77230,2018-06-29 09:25:05.437500,-22.07,124.08
77231,2018-06-29 09:25:05.468750,-34.79,124.08
77232,2018-06-29 09:25:05.500000,-34.06,124.08
77233,2018-06-29 09:25:05.531250,-21.44,124.48
77234,2018-06-29 09:25:05.562500,-12.42,124.48
77235,2018-06-29 09:25:05.593750,-20.38,124.48
77236,2018-06-29 09:25:05.625000,-45.96,124.48
77237,2018-06-29 09:25:05.656250,-71.91,124.48
77238,2018-06-29 09:25:05.687500,-69.44,124.48
77239,2018-06-29 09:25:05.718750,-27.24,124.48
77240,2018-06-29 09:25:05.750000,31.54,124.48
77241,2018-06-29 09:25:05.781250,78.32,124.48
77242,2018-06-29 09:25:05.812500,106.34,124.48
77243,2018-06-29 09:25:05.843750,116.94,124.48
77244,2018-06-29 09:25:05.875000,107.42,124.48
77245,2018-06-29 09:25:05.906250,84.9,124.48
77246,2018-06-29 09:25:05.937500,67.07,124.48
77247,2018-06-29 09:25:05.968750,61.41,124.48
77248,2018-06-29 09:25:06.000000,58.65,124.48
77249,2018-06-29 09:25:06.031250,48.15,124.48
77250,2018-06-29 09:25:06.062500,30.13,124.48
77251,2018-06-29 09:25:06.093750,16.26,124.48
77252,2018-06-29 09:25:06.125000,22.58,124.48
77253,2018-06-29 09:25:06.156250,53.22,124.48
77254,2018-06-29 09:25:06.187500,87.92,124.48
77255,2018-06-29 09:25:06.218750,98.02,124.48
77256,2018-06-29 09:25:06.250000,75.28,124.48
77257,2018-06-29 09:25:06.281250,30.77,124.48
77258,2018-06-29 09:25:06.312500,-26.21,124.48
77259,2018-06-29 09:25:06.343750,-88.61,124.48
77260,2018-06-29 09:25:06.375000,-140.28,124.48
77261,2018-06-29 09:25:06.406250,-165.99,124.48
77262,2018-06-29 09:25:06.437500,-168.82,124.48
77263,2018-06-29 09:25:06.468750,-166.37,124.48
77264,2018-06-29 09:25:06.500000,-172.15,124.48
77265,2018-06-29 09:25:06.531250,-181.67,124.88
77266,2018-06-29 09:25:06.562500,-170.04,124.88
77267,2018-06-29 09:25:06.593750,-109.75,124.88
77268,2018-06-29 09:25:06.625000,-1.52,124.88
77269,2018-06-29 09:25:06.656250,115.85,124.88
77270,2018-06-29 09:25:06.687500,195.7,124.88
77271,2018-06-29 09:25:06.718750,219.84,124.88
77272,2018-06-29 09:25:06.750000,199.07,124.88
77273,2018-06-29 09:25:06.781250,151.1,124.88
77274,2018-06-29 09:25:06.812500,92.43,124.88
77275,2018-06-29 09:25:06.843750,42.22,124.88
77276,2018-06-29 09:25:06.875000,14.61,124.88
77277,2018-06-29 09:25:06.906250,6.4,124.88
77278,2018-06-29 09:25:06.937500,0.4,124.88
77279,2018-06-29 09:25:06.968750,-17.79,124.88
77280,2018-06-29 09:25:07.000000,-38.76,124.88
77281,2018-06-29 09:25:07.031250,-27.0,124.88
77282,2018-06-29 09:25:07.062500,39.37,124.88
77283,2018-06-29 09:25:07.093750,130.98,124.88
77284,2018-06-29 09:25:07.125000,194.5,124.88
77285,2018-06-29 09:25:07.156250,203.53,124.88
77286,2018-06-29 09:25:07.187500,161.76,124.88
77287,2018-06-29 09:25:07.218750,82.75,124.88
77288,2018-06-29 09:25:07.250000,-9.89,124.88
77289,2018-06-29 09:25:07.281250,-86.48,124.88
77290,2018-06-29 09:25:07.312500,-135.47,124.88
77291,2018-06-29 09:25:07.343750,-170.53,124.88
77292,2018-06-29 09:25:07.375000,-206.44,124.88
77293,2018-06-29 09:25:07.406250,-241.52,124.88
77294,2018-06-29 09:25:07.437500,-264.98,124.88
77295,2018-06-29 09:25:07.468750,-262.81,124.88
77296,2018-06-29 09:25:07.500000,-214.97,124.88
77297,2018-06-29 09:25:07.531250,-111.37,125.27
77298,2018-06-29 09:25:07.562500,24.49,125.27
77299,2018-06-29 09:25:07.593750,148.23,125.27
77300,2018-06-29 09:25:07.625000,227.48,125.27
77301,2018-06-29 09:25:07.656250,249.8,125.27
77302,2018-06-29 09:25:07.687500,213.52,125.27
77303,2018-06-29 09:25:07.718750,135.84,125.27
77304,2018-06-29 09:25:07.750000,55.17,125.27
77305,2018-06-29 09:25:07.781250,-0.32,125.27
77306,2018-06-29 09:25:07.812500,-38.4,125.27
77307,2018-06-29 09:25:07.843750,-82.59,125.27
77308,2018-06-29 09:25:07.875000,-138.95,125.27
77309,2018-06-29 09:25:07.906250,-182.19,125.27
77310,2018-06-29 09:25:07.937500,-168.76,125.27
77311,2018-06-29 09:25:07.968750,-81.37,125.27
77312,2018-06-29 09:25:08.000000,40.03,125.27
77313,2018-06-29 09:25:08.031250,137.7,125.27
77314,2018-06-29 09:25:08.062500,189.49,125.27
77315,2018-06-29 09:25:08.093750,202.31,125.27
77316,2018-06-29 09:25:08.125000,187.98,125.27
77317,2018-06-29 09:25:08.156250,162.29,125.27
77318,2018-06-29 09:25:08.187500,134.22,125.27
77319,2018-06-29 09:25:08.218750,90.31,125.27
77320,2018-06-29 09:25:08.250000,13.91,125.27
77321,2018-06-29 09:25:08.281250,-88.63,125.27
77322,2018-06-29 09:25:08.312500,-196.45,125.27
77323,2018-06-29 09:25:08.343750,-285.87,125.27
77324,2018-06-29 09:25:08.375000,-323.31,125.27
77325,2018-06-29 09:25:08.406250,-282.96,125.27
77326,2018-06-29 09:25:08.437500,-183.99,125.27
77327,2018-06-29 09:25:08.468750,-78.88,125.27
77328,2018-06-29 09:25:08.500000,-0.34,125.27
77329,2018-06-29 09:25:08.531250,50.44,125.67
77330,2018-06-29 09:25:08.562500,73.52,125.67
77331,2018-06-29 09:25:08.593750,67.82,125.67
77332,2018-06-29 09:25:08.625000,52.51,125.67
77333,2018-06-29 09:25:08.656250,54.03,125.67
77334,2018-06-29 09:25:08.687500,70.34,125.67
77335,2018-06-29 09:25:08.718750,70.27,125.67
77336,2018-06-29 09:25:08.750000,28.25,125.67
77337,2018-06-29 09:25:08.781250,-46.22,125.67
77338,2018-06-29 09:25:08.812500,-108.6,125.67
77339,2018-06-29 09:25:08.843750,-114.82,125.67
77340,2018-06-29 09:25:08.875000,-65.47,125.67
77341,2018-06-29 09:25:08.906250,0.0,125.67
77342,2018-06-29 09:25:08.937500,52.1,125.67
77343,2018-06-29 09:25:08.968750,87.45,125.67
77344,2018-06-29 09:25:09.000000,103.69,125.67
77345,2018-06-29 09:25:09.031250,96.43,125.67
77346,2018-06-29 09:25:09.062500,79.33,125.67
77347,2018-06-29 09:25:09.093750,74.11,125.67
77348,2018-06-29 09:25:09.125000,83.44,125.67
77349,2018-06-29 09:25:09.156250,90.05,125.67
77350,2018-06-29 09:25:09.187500,74.05,125.67
77351,2018-06-29 09:25:09.218750,28.89,125.67
77352,2018-06-29 09:25:09.250000,-22.35,125.67
77353,2018-06-29 09:25:09.281250,-41.34,125.67
77354,2018-06-29 09:25:09.312500,-20.86,125.67
77355,2018-06-29 09:25:09.343750,7.44,125.67
77356,2018-06-29 09:25:09.375000,19.43,125.67
77357,2018-06-29 09:25:09.406250,16.42,125.67
77358,2018-06-29 09:25:09.437500,-1.42,125.67
77359,2018-06-29 09:25:09.468750,-39.35,125.67
77360,2018-06-29 09:25:09.500000,-85.97,125.67
77361,2018-06-29 09:25:09.531250,-117.59,126.12
77362,2018-06-29 09:25:09.562500,-123.65,126.12
77363,2018-06-29 09:25:09.593750,-114.54,126.12
77364,2018-06-29 09:25:09.625000,-106.59,126.12
77365,2018-06-29 09:25:09.656250,-108.13,126.12
77366,2018-06-29 09:25:09.687500,-107.86,126.12
77367,2018-06-29 09:25:09.718750,-76.78,126.12
77368,2018-06-29 09:25:09.750000,0.04,126.12
77369,2018-06-29 09:25:09.781250,97.38,126.12
77370,2018-06-29 09:25:09.812500,175.52,126.12
77371,2018-06-29 09:25:09.843750,215.52,126.12
77372,2018-06-29 09:25:09.875000,214.57,126.12
77373,2018-06-29 09:25:09.906250,171.76,126.12
77374,2018-06-29 09:25:09.937500,100.56,126.12
77375,2018-06-29 09:25:09.968750,32.02,126.12
77376,2018-06-29 09:25:10.000000,-13.03,126.12
77377,2018-06-29 09:25:10.031250,-42.89,126.12
77378,2018-06-29 09:25:10.062500,-74.63,126.12
77379,2018-06-29 09:25:10.093750,-110.25,126.12
77380,2018-06-29 09:25:10.125000,-134.02,126.12
77381,2018-06-29 09:25:10.156250,-117.01,126.12
77382,2018-06-29 09:25:10.187500,-37.92,126.12
77383,2018-06-29 09:25:10.218750,76.17,126.12
77384,2018-06-29 09:25:10.250000,158.89,126.12
77385,2018-06-29 09:25:10.281250,176.46,126.12
77386,2018-06-29 09:25:10.312500,151.79,126.12
77387,2018-06-29 09:25:10.343750,109.53,126.12
77388,2018-06-29 09:25:10.375000,50.75,126.12
77389,2018-06-29 09:25:10.406250,-14.08,126.12
77390,2018-06-29 09:25:10.437500,-63.14,126.12
77391,2018-06-29 09:25:10.468750,-95.07,126.12
77392,2018-06-29 09:25:10.500000,-125.08,126.12
77393,2018-06-29 09:25:10.531250,-158.41,126.57
77394,2018-06-29 09:25:10.562500,-188.94,126.57
77395,2018-06-29 09:25:10.593750,-198.85,126.57
77396,2018-06-29 09:25:10.625000,-157.75,126.57
77397,2018-06-29 09:25:10.656250,-54.26,126.57
77398,2018-06-29 09:25:10.687500,75.5,126.57
77399,2018-06-29 09:25:10.718750,177.37,126.57
77400,2018-06-29 09:25:10.750000,223.42,126.57
77401,2018-06-29 09:25:10.781250,214.56,126.57
77402,2018-06-29 09:25:10.812500,163.98,126.57
77403,2018-06-29 09:25:10.843750,94.15,126.57
77404,2018-06-29 09:25:10.875000,31.1,126.57
77405,2018-06-29 09:25:10.906250,-13.74,126.57
77406,2018-06-29 09:25:10.937500,-49.94,126.57
77407,2018-06-29 09:25:10.968750,-92.75,126.57
77408,2018-06-29 09:25:11.000000,-143.29,126.57
77409,2018-06-29 09:25:11.031250,-175.91,126.57
77410,2018-06-29 09:25:11.062500,-150.27,126.57
77411,2018-06-29 09:25:11.093750,-56.96,126.57
77412,2018-06-29 09:25:11.125000,59.74,126.57
77413,2018-06-29 09:25:11.156250,146.21,126.57
77414,2018-06-29 09:25:11.187500,186.78,126.57
77415,2018-06-29 09:25:11.218750,190.84,126.57
77416,2018-06-29 09:25:11.250000,164.46,126.57
77417,2018-06-29 09:25:11.281250,113.27,126.57
77418,2018-06-29 09:25:11.312500,49.04,126.57
77419,2018-06-29 09:25:11.343750,-18.51,126.57
77420,2018-06-29 09:25:11.375000,-83.04,126.57
77421,2018-06-29 09:25:11.406250,-138.21,126.57
77422,2018-06-29 09:25:11.437500,-184.74,126.57
77423,2018-06-29 09:25:11.468750,-223.92,126.57
77424,2018-06-29 09:25:11.500000,-233.67,126.57
77425,2018-06-29 09:25:11.531250,-184.79,126.98
77426,2018-06-29 09:25:11.562500,-89.32,126.98
77427,2018-06-29 09:25:11.593750,6.57,126.98
77428,2018-06-29 09:25:11.625000,75.36,126.98
77429,2018-06-29 09:25:11.656250,115.31,126.98
77430,2018-06-29 09:25:11.687500,124.52,126.98
77431,2018-06-29 09:25:11.718750,107.43,126.98
77432,2018-06-29 09:25:11.750000,85.32,126.98
77433,2018-06-29 09:25:11.781250,73.34,126.98
77434,2018-06-29 09:25:11.812500,62.06,126.98
77435,2018-06-29 09:25:11.843750,33.29,126.98
77436,2018-06-29 09:25:11.875000,-18.15,126.98
77437,2018-06-29 09:25:11.906250,-77.09,126.98
77438,2018-06-29 09:25:11.937500,-110.34,126.98
77439,2018-06-29 09:25:11.968750,-89.1,126.98
77440,2018-06-29 09:25:12.000000,-22.29,126.98
77441,2018-06-29 09:25:12.031250,49.03,126.98
77442,2018-06-29 09:25:12.062500,95.89,126.98
77443,2018-06-29 09:25:12.093750,116.77,126.98
77444,2018-06-29 09:25:12.125000,113.36,126.98
77445,2018-06-29 09:25:12.156250,84.76,126.98
77446,2018-06-29 09:25:12.187500,45.01,126.98
77447,2018-06-29 09:25:12.218750,16.65,126.98
77448,2018-06-29 09:25:12.250000,5.63,126.98
77449,2018-06-29 09:25:12.281250,-1.13,126.98
77450,2018-06-29 09:25:12.312500,-18.51,126.98
77451,2018-06-29 09:25:12.343750,-55.01,126.98
77452,2018-06-29 09:25:12.375000,-101.62,126.98
77453,2018-06-29 09:25:12.406250,-121.69,126.98
77454,2018-06-29 09:25:12.437500,-85.54,126.98
77455,2018-06-29 09:25:12.468750,-16.44,126.98
77456,2018-06-29 09:25:12.500000,36.2,126.98
77457,2018-06-29 09:25:12.531250,55.73,127.42
77458,2018-06-29 09:25:12.562500,52.22,127.42
77459,2018-06-29 09:25:12.593750,28.28,127.42
77460,2018-06-29 09:25:12.625000,-8.77,127.42
77461,2018-06-29 09:25:12.656250,-34.18,127.42
77462,2018-06-29 09:25:12.687500,-33.86,127.42
77463,2018-06-29 09:25:12.718750,-23.02,127.42
77464,2018-06-29 09:25:12.750000,-23.43,127.42
77465,2018-06-29 09:25:12.781250,-40.22,127.42
77466,2018-06-29 09:25:12.812500,-59.9,127.42
77467,2018-06-29 09:25:12.843750,-56.81,127.42
77468,2018-06-29 09:25:12.875000,-14.27,127.42
77469,2018-06-29 09:25:12.906250,52.42,127.42
77470,2018-06-29 09:25:12.937500,108.9,127.42
77471,2018-06-29 09:25:12.968750,133.84,127.42
77472,2018-06-29 09:25:13.000000,124.33,127.42
77473,2018-06-29 09:25:13.031250,83.95,127.42
77474,2018-06-29 09:25:13.062500,28.86,127.42
77475,2018-06-29 09:25:13.093750,-13.81,127.42
77476,2018-06-29 09:25:13.125000,-30.26,127.42
77477,2018-06-29 09:25:13.156250,-32.02,127.42
77478,2018-06-29 09:25:13.187500,-39.22,127.42
77479,2018-06-29 09:25:13.218750,-61.1,127.42
77480,2018-06-29 09:25:13.250000,-85.02,127.42
77481,2018-06-29 09:25:13.281250,-78.48,127.42
77482,2018-06-29 09:25:13.312500,-23.02,127.42
77483,2018-06-29 09:25:13.343750,54.68,127.42
77484,2018-06-29 09:25:13.375000,111.29,127.42
77485,2018-06-29 09:25:13.406250,132.18,127.42
77486,2018-06-29 09:25:13.437500,123.08,127.42
77487,2018-06-29 09:25:13.468750,84.4,127.42
77488,2018-06-29 09:25:13.500000,23.36,127.42
77489,2018-06-29 09:25:13.531250,-36.15,127.83
77490,2018-06-29 09:25:13.562500,-75.94,127.83
77491,2018-06-29 09:25:13.593750,-96.95,127.83
77492,2018-06-29 09:25:13.625000,-105.93,127.83
77493,2018-06-29 09:25:13.656250,-107.44,127.83
77494,2018-06-29 09:25:13.687500,-108.14,127.83
77495,2018-06-29 09:25:13.718750,-103.25,127.83
77496,2018-06-29 09:25:13.750000,-65.7,127.83
77497,2018-06-29 09:25:13.781250,17.93,127.83
77498,2018-06-29 09:25:13.812500,112.56,127.83
77499,2018-06-29 09:25:13.843750,170.4,127.83
77500,2018-06-29 09:25:13.875000,182.08,127.83
77501,2018-06-29 09:25:13.906250,163.72,127.83
77502,2018-06-29 09:25:13.937500,124.51,127.83
77503,2018-06-29 09:25:13.968750,73.05,127.83
77504,2018-06-29 09:25:14.000000,27.83,127.83
77505,2018-06-29 09:25:14.031250,1.04,127.83
77506,2018-06-29 09:25:14.062500,-12.45,127.83
77507,2018-06-29 09:25:14.093750,-23.95,127.83
77508,2018-06-29 09:25:14.125000,-41.63,127.83
77509,2018-06-29 09:25:14.156250,-65.51,127.83
77510,2018-06-29 09:25:14.187500,-74.97,127.83
77511,2018-06-29 09:25:14.218750,-39.2,127.83
77512,2018-06-29 09:25:14.250000,41.66,127.83
77513,2018-06-29 09:25:14.281250,128.26,127.83
77514,2018-06-29 09:25:14.312500,182.58,127.83
77515,2018-06-29 09:25:14.343750,188.42,127.83
77516,2018-06-29 09:25:14.375000,139.78,127.83
77517,2018-06-29 09:25:14.406250,46.85,127.83
77518,2018-06-29 09:25:14.437500,-52.74,127.83
77519,2018-06-29 09:25:14.468750,-119.89,127.83
77520,2018-06-29 09:25:14.500000,-149.83,127.83
77521,2018-06-29 09:25:14.531250,-166.66,128.23
77522,2018-06-29 09:25:14.562500,-190.86,128.23
77523,2018-06-29 09:25:14.593750,-224.36,128.23
77524,2018-06-29 09:25:14.625000,-250.34,128.23
77525,2018-06-29 09:25:14.656250,-235.47,128.23
77526,2018-06-29 09:25:14.687500,-157.57,128.23
77527,2018-06-29 09:25:14.718750,-40.75,128.23
77528,2018-06-29 09:25:14.750000,62.94,128.23
77529,2018-06-29 09:25:14.781250,124.4,128.23
77530,2018-06-29 09:25:14.812500,144.1,128.23
77531,2018-06-29 09:25:14.843750,127.49,128.23
77532,2018-06-29 09:25:14.875000,84.39,128.23
77533,2018-06-29 09:25:14.906250,36.03,128.23
77534,2018-06-29 09:25:14.937500,-0.41,128.23
77535,2018-06-29 09:25:14.968750,-25.64,128.23
77536,2018-06-29 09:25:15.000000,-49.57,128.23
77537,2018-06-29 09:25:15.031250,-78.8,128.23
77538,2018-06-29 09:25:15.062500,-109.08,128.23
77539,2018-06-29 09:25:15.093750,-117.37,128.23
77540,2018-06-29 09:25:15.125000,-76.31,128.23
77541,2018-06-29 09:25:15.156250,8.87,128.23
77542,2018-06-29 09:25:15.187500,97.08,128.23
77543,2018-06-29 09:25:15.218750,153.63,128.23
77544,2018-06-29 09:25:15.250000,174.83,128.23
77545,2018-06-29 09:25:15.281250,171.0,128.23
77546,2018-06-29 09:25:15.312500,149.77,128.23
77547,2018-06-29 09:25:15.343750,116.03,128.23
77548,2018-06-29 09:25:15.375000,71.79,128.23
77549,2018-06-29 09:25:15.406250,16.74,128.23
77550,2018-06-29 09:25:15.437500,-46.03,128.23
77551,2018-06-29 09:25:15.468750,-109.11,128.23
77552,2018-06-29 09:25:15.500000,-168.2,128.23
77553,2018-06-29 09:25:15.531250,-218.47,128.63
77554,2018-06-29 09:25:15.562500,-240.02,128.63
77555,2018-06-29 09:25:15.593750,-207.94,128.63
77556,2018-06-29 09:25:15.625000,-125.96,128.63
77557,2018-06-29 09:25:15.656250,-29.0,128.63
77558,2018-06-29 09:25:15.687500,50.97,128.63
77559,2018-06-29 09:25:15.718750,102.27,128.63
77560,2018-06-29 09:25:15.750000,122.7,128.63
77561,2018-06-29 09:25:15.781250,116.26,128.63
77562,2018-06-29 09:25:15.812500,96.55,128.63
77563,2018-06-29 09:25:15.843750,77.39,128.63
77564,2018-06-29 09:25:15.875000,60.31,128.63
77565,2018-06-29 09:25:15.906250,35.94,128.63
77566,2018-06-29 09:25:15.937500,-5.22,128.63
77567,2018-06-29 09:25:15.968750,-60.74,128.63
77568,2018-06-29 09:25:16.000000,-106.6,128.63
77569,2018-06-29 09:25:16.031250,-109.21,128.63
77570,2018-06-29 09:25:16.062500,-61.67,128.63
77571,2018-06-29 09:25:16.093750,4.45,128.63
77572,2018-06-29 09:25:16.125000,55.78,128.63
77573,2018-06-29 09:25:16.156250,85.74,128.63
77574,2018-06-29 09:25:16.187500,97.63,128.63
77575,2018-06-29 09:25:16.218750,90.02,128.63
77576,2018-06-29 09:25:16.250000,71.42,128.63
77577,2018-06-29 09:25:16.281250,61.15,128.63
77578,2018-06-29 09:25:16.312500,66.12,128.63
77579,2018-06-29 09:25:16.343750,72.91,128.63
77580,2018-06-29 09:25:16.375000,59.37,128.63
77581,2018-06-29 09:25:16.406250,8.44,128.63
77582,2018-06-29 09:25:16.437500,-67.77,128.63
77583,2018-06-29 09:25:16.468750,-118.51,128.63
77584,2018-06-29 09:25:16.500000,-103.24,128.63
77585,2018-06-29 09:25:16.531250,-43.85,128.92
77586,2018-06-29 09:25:16.562500,4.84,128.92
77587,2018-06-29 09:25:16.593750,18.79,128.92
77588,2018-06-29 09:25:16.625000,9.37,128.92
77589,2018-06-29 09:25:16.656250,-10.06,128.92
77590,2018-06-29 09:25:16.687500,-30.35,128.92
77591,2018-06-29 09:25:16.718750,-38.45,128.92
77592,2018-06-29 09:25:16.750000,-28.63,128.92
77593,2018-06-29 09:25:16.781250,-11.97,128.92
77594,2018-06-29 09:25:16.812500,-4.66,128.92
77595,2018-06-29 09:25:16.843750,-17.51,128.92
77596,2018-06-29 09:25:16.875000,-53.48,128.92
77597,2018-06-29 09:25:16.906250,-94.88,128.92
77598,2018-06-29 09:25:16.937500,-106.03,128.92
77599,2018-06-29 09:25:16.968750,-72.38,128.92
77600,2018-06-29 09:25:17.000000,-20.55,128.92
77601,2018-06-29 09:25:17.031250,16.38,128.92
77602,2018-06-29 09:25:17.062500,31.19,128.92
77603,2018-06-29 09:25:17.093750,30.07,128.92
77604,2018-06-29 09:25:17.125000,15.82,128.92
77605,2018-06-29 09:25:17.156250,-5.17,128.92
77606,2018-06-29 09:25:17.187500,-19.72,128.92
77607,2018-06-29 09:25:17.218750,-21.28,128.92
77608,2018-06-29 09:25:17.250000,-17.29,128.92
77609,2018-06-29 09:25:17.281250,-21.9,128.92
77610,2018-06-29 09:25:17.312500,-44.4,128.92
77611,2018-06-29 09:25:17.343750,-75.67,128.92
77612,2018-06-29 09:25:17.375000,-87.18,128.92
77613,2018-06-29 09:25:17.406250,-61.23,128.92
77614,2018-06-29 09:25:17.437500,-13.03,128.92
77615,2018-06-29 09:25:17.468750,32.47,128.92
77616,2018-06-29 09:25:17.500000,66.09,128.92
77617,2018-06-29 09:25:17.531250,82.12,129.22
77618,2018-06-29 09:25:17.562500,70.56,129.22
77619,2018-06-29 09:25:17.593750,36.42,129.22
77620,2018-06-29 09:25:17.625000,1.79,129.22
77621,2018-06-29 09:25:17.656250,-18.27,129.22
77622,2018-06-29 09:25:17.687500,-25.0,129.22
77623,2018-06-29 09:25:17.718750,-23.97,129.22
77624,2018-06-29 09:25:17.750000,-21.05,129.22
77625,2018-06-29 09:25:17.781250,-24.68,129.22
77626,2018-06-29 09:25:17.812500,-31.47,129.22
77627,2018-06-29 09:25:17.843750,-17.28,129.22
77628,2018-06-29 09:25:17.875000,32.08,129.22
77629,2018-06-29 09:25:17.906250,93.11,129.22
77630,2018-06-29 09:25:17.937500,130.4,129.22
77631,2018-06-29 09:25:17.968750,134.5,129.22
77632,2018-06-29 09:25:18.000000,113.83,129.22
77633,2018-06-29 09:25:18.031250,71.47,129.22
77634,2018-06-29 09:25:18.062500,13.25,129.22
77635,2018-06-29 09:25:18.093750,-39.58,129.22
77636,2018-06-29 09:25:18.125000,-67.52,129.22
77637,2018-06-29 09:25:18.156250,-74.49,129.22
77638,2018-06-29 09:25:18.187500,-79.6,129.22
77639,2018-06-29 09:25:18.218750,-94.82,129.22
77640,2018-06-29 09:25:18.250000,-114.62,129.22
77641,2018-06-29 09:25:18.281250,-113.76,129.22
77642,2018-06-29 09:25:18.312500,-64.27,129.22
77643,2018-06-29 09:25:18.343750,26.78,129.22
77644,2018-06-29 09:25:18.375000,112.7,129.22
77645,2018-06-29 09:25:18.406250,155.71,129.22
77646,2018-06-29 09:25:18.437500,153.78,129.22
77647,2018-06-29 09:25:18.468750,116.15,129.22
77648,2018-06-29 09:25:18.500000,52.17,129.22
77649,2018-06-29 09:25:18.531250,-14.68,129.48
77650,2018-06-29 09:25:18.562500,-60.62,129.48
77651,2018-06-29 09:25:18.593750,-87.56,129.48
77652,2018-06-29 09:25:18.625000,-112.99,129.48
77653,2018-06-29 09:25:18.656250,-144.3,129.48
77654,2018-06-29 09:25:18.687500,-177.28,129.48
77655,2018-06-29 09:25:18.718750,-196.23,129.48
77656,2018-06-29 09:25:18.750000,-169.51,129.48
77657,2018-06-29 09:25:18.781250,-77.94,129.48
77658,2018-06-29 09:25:18.812500,48.21,129.48
77659,2018-06-29 09:25:18.843750,152.29,129.48
77660,2018-06-29 09:25:18.875000,205.79,129.48
77661,2018-06-29 09:25:18.906250,213.18,129.48
77662,2018-06-29 09:25:18.937500,183.0,129.48
77663,2018-06-29 09:25:18.968750,126.39,129.48
77664,2018-06-29 09:25:19.000000,65.94,129.48
77665,2018-06-29 09:25:19.031250,17.56,129.48
77666,2018-06-29 09:25:19.062500,-25.39,129.48
77667,2018-06-29 09:25:19.093750,-75.37,129.48
77668,2018-06-29 09:25:19.125000,-131.81,129.48
77669,2018-06-29 09:25:19.156250,-181.49,129.48
77670,2018-06-29 09:25:19.187500,-197.44,129.48
77671,2018-06-29 09:25:19.218750,-148.55,129.48
77672,2018-06-29 09:25:19.250000,-39.57,129.48
77673,2018-06-29 09:25:19.281250,78.19,129.48
77674,2018-06-29 09:25:19.312500,157.58,129.48
77675,2018-06-29 09:25:19.343750,188.79,129.48
77676,2018-06-29 09:25:19.375000,176.54,129.48
77677,2018-06-29 09:25:19.406250,127.86,129.48
77678,2018-06-29 09:25:19.437500,63.6,129.48
77679,2018-06-29 09:25:19.468750,7.78,129.48
77680,2018-06-29 09:25:19.500000,-33.51,129.48
77681,2018-06-29 09:25:19.531250,-67.82,129.63
77682,2018-06-29 09:25:19.562500,-103.05,129.63
77683,2018-06-29 09:25:19.593750,-145.48,129.63
77684,2018-06-29 09:25:19.625000,-191.17,129.63
77685,2018-06-29 09:25:19.656250,-210.38,129.63
77686,2018-06-29 09:25:19.687500,-164.9,129.63
77687,2018-06-29 09:25:19.718750,-56.04,129.63
77688,2018-06-29 09:25:19.750000,66.09,129.63
77689,2018-06-29 09:25:19.781250,153.45,129.63
77690,2018-06-29 09:25:19.812500,193.98,129.63
77691,2018-06-29 09:25:19.843750,193.23,129.63
77692,2018-06-29 09:25:19.875000,159.88,129.63
77693,2018-06-29 09:25:19.906250,112.8,129.63
77694,2018-06-29 09:25:19.937500,72.23,129.63
77695,2018-06-29 09:25:19.968750,40.55,129.63
77696,2018-06-29 09:25:20.000000,7.77,129.63
77697,2018-06-29 09:25:20.031250,-33.93,129.63
77698,2018-06-29 09:25:20.062500,-86.01,129.63
77699,2018-06-29 09:25:20.093750,-133.08,129.63
77700,2018-06-29 09:25:20.125000,-139.37,129.63
77701,2018-06-29 09:25:20.156250,-84.8,129.63
77702,2018-06-29 09:25:20.187500,4.56,129.63
77703,2018-06-29 09:25:20.218750,84.4,129.63
77704,2018-06-29 09:25:20.250000,130.59,129.63
77705,2018-06-29 09:25:20.281250,135.53,129.63
77706,2018-06-29 09:25:20.312500,101.79,129.63
77707,2018-06-29 09:25:20.343750,53.17,129.63
77708,2018-06-29 09:25:20.375000,20.6,129.63
77709,2018-06-29 09:25:20.406250,5.75,129.63
77710,2018-06-29 09:25:20.437500,-17.85,129.63
77711,2018-06-29 09:25:20.468750,-67.2,129.63
77712,2018-06-29 09:25:20.500000,-132.6,129.63
77713,2018-06-29 09:25:20.531250,-187.47,129.77
77714,2018-06-29 09:25:20.562500,-197.3,129.77
77715,2018-06-29 09:25:20.593750,-141.65,129.77
77716,2018-06-29 09:25:20.625000,-44.56,129.77
77717,2018-06-29 09:25:20.656250,43.1,129.77
77718,2018-06-29 09:25:20.687500,96.37,129.77
77719,2018-06-29 09:25:20.718750,122.43,129.77
77720,2018-06-29 09:25:20.750000,127.2,129.77
77721,2018-06-29 09:25:20.781250,113.06,129.77
77722,2018-06-29 09:25:20.812500,95.27,129.77
77723,2018-06-29 09:25:20.843750,87.5,129.77
77724,2018-06-29 09:25:20.875000,81.41,129.77
77725,2018-06-29 09:25:20.906250,59.3,129.77
77726,2018-06-29 09:25:20.937500,13.46,129.77
77727,2018-06-29 09:25:20.968750,-53.42,129.77
77728,2018-06-29 09:25:21.000000,-120.49,129.77
77729,2018-06-29 09:25:21.031250,-147.6,129.77
77730,2018-06-29 09:25:21.062500,-115.96,129.77
77731,2018-06-29 09:25:21.093750,-56.08,129.77
77732,2018-06-29 09:25:21.125000,-8.07,129.77
77733,2018-06-29 09:25:21.156250,20.67,129.77
77734,2018-06-29 09:25:21.187500,36.85,129.77
77735,2018-06-29 09:25:21.218750,37.28,129.77
77736,2018-06-29 09:25:21.250000,23.05,129.77
77737,2018-06-29 09:25:21.281250,9.11,129.77
77738,2018-06-29 09:25:21.312500,6.03,129.77
77739,2018-06-29 09:25:21.343750,7.57,129.77
77740,2018-06-29 09:25:21.375000,1.42,129.77
77741,2018-06-29 09:25:21.406250,-21.55,129.77
77742,2018-06-29 09:25:21.437500,-63.95,129.77
77743,2018-06-29 09:25:21.468750,-106.93,129.77
77744,2018-06-29 09:25:21.500000,-108.31,129.77
77745,2018-06-29 09:25:21.531250,-46.86,129.9
77746,2018-06-29 09:25:21.562500,40.04,129.9
77747,2018-06-29 09:25:21.593750,93.64,129.9
77748,2018-06-29 09:25:21.625000,94.75,129.9
77749,2018-06-29 09:25:21.656250,62.46,129.9
77750,2018-06-29 09:25:21.687500,16.27,129.9
77751,2018-06-29 09:25:21.718750,-32.12,129.9
77752,2018-06-29 09:25:21.750000,-66.49,129.9
77753,2018-06-29 09:25:21.781250,-73.77,129.9
77754,2018-06-29 09:25:21.812500,-59.85,129.9
77755,2018-06-29 09:25:21.843750,-47.42,129.9
77756,2018-06-29 09:25:21.875000,-52.82,129.9
77757,2018-06-29 09:25:21.906250,-61.8,129.9
77758,2018-06-29 09:25:21.937500,-39.12,129.9
77759,2018-06-29 09:25:21.968750,29.09,129.9
77760,2018-06-29 09:25:22.000000,117.31,129.9
77761,2018-06-29 09:25:22.031250,188.63,129.9
77762,2018-06-29 09:25:22.062500,219.97,129.9
77763,2018-06-29 09:25:22.093750,201.22,129.9
77764,2018-06-29 09:25:22.125000,136.06,129.9
77765,2018-06-29 09:25:22.156250,50.36,129.9
77766,2018-06-29 09:25:22.187500,-19.88,129.9
77767,2018-06-29 09:25:22.218750,-57.28,129.9
77768,2018-06-29 09:25:22.250000,-74.03,129.9
77769,2018-06-29 09:25:22.281250,-92.34,129.9
77770,2018-06-29 09:25:22.312500,-122.95,129.9
77771,2018-06-29 09:25:22.343750,-153.29,129.9
77772,2018-06-29 09:25:22.375000,-148.22,129.9
77773,2018-06-29 09:25:22.406250,-85.3,129.9
77774,2018-06-29 09:25:22.437500,6.19,129.9
77775,2018-06-29 09:25:22.468750,72.93,129.9
77776,2018-06-29 09:25:22.500000,98.67,129.9
77777,2018-06-29 09:25:22.531250,102.37,130.05
77778,2018-06-29 09:25:22.562500,92.03,130.05
77779,2018-06-29 09:25:22.593750,59.71,130.05
77780,2018-06-29 09:25:22.625000,9.29,130.05
77781,2018-06-29 09:25:22.656250,-40.99,130.05
77782,2018-06-29 09:25:22.687500,-77.41,130.05
77783,2018-06-29 09:25:22.718750,-99.01,130.05
77784,2018-06-29 09:25:22.750000,-113.81,130.05
77785,2018-06-29 09:25:22.781250,-129.72,130.05
77786,2018-06-29 09:25:22.812500,-135.44,130.05
77787,2018-06-29 09:25:22.843750,-99.85,130.05
77788,2018-06-29 09:25:22.875000,-9.69,130.05
77789,2018-06-29 09:25:22.906250,103.86,130.05
77790,2018-06-29 09:25:22.937500,193.81,130.05
77791,2018-06-29 09:25:22.968750,237.53,130.05
77792,2018-06-29 09:25:23.000000,236.33,130.05
77793,2018-06-29 09:25:23.031250,196.22,130.05
77794,2018-06-29 09:25:23.062500,128.81,130.05
77795,2018-06-29 09:25:23.093750,56.59,130.05
77796,2018-06-29 09:25:23.125000,-0.53,130.05
77797,2018-06-29 09:25:23.156250,-40.75,130.05
77798,2018-06-29 09:25:23.187500,-74.43,130.05
77799,2018-06-29 09:25:23.218750,-111.14,130.05
77800,2018-06-29 09:25:23.250000,-146.91,130.05
77801,2018-06-29 09:25:23.281250,-151.94,130.05
77802,2018-06-29 09:25:23.312500,-94.12,130.05
77803,2018-06-29 09:25:23.343750,11.62,130.05
77804,2018-06-29 09:25:23.375000,110.29,130.05
77805,2018-06-29 09:25:23.406250,167.48,130.05
77806,2018-06-29 09:25:23.437500,183.79,130.05
77807,2018-06-29 09:25:23.468750,157.94,130.05
77808,2018-06-29 09:25:23.500000,87.32,130.05
77809,2018-06-29 09:25:23.531250,-0.98,130.18
77810,2018-06-29 09:25:23.562500,-66.22,130.18
77811,2018-06-29 09:25:23.593750,-98.23,130.18
77812,2018-06-29 09:25:23.625000,-120.0,130.18
77813,2018-06-29 09:25:23.656250,-153.14,130.18
77814,2018-06-29 09:25:23.687500,-198.67,130.18
77815,2018-06-29 09:25:23.718750,-232.63,130.18
77816,2018-06-29 09:25:23.750000,-213.13,130.18
77817,2018-06-29 09:25:23.781250,-116.54,130.18
77818,2018-06-29 09:25:23.812500,27.77,130.18
77819,2018-06-29 09:25:23.843750,157.86,130.18
77820,2018-06-29 09:25:23.875000,230.36,130.18
77821,2018-06-29 09:25:23.906250,239.38,130.18
77822,2018-06-29 09:25:23.937500,199.48,130.18
77823,2018-06-29 09:25:23.968750,132.69,130.18
77824,2018-06-29 09:25:24.000000,65.02,130.18
77825,2018-06-29 09:25:24.031250,15.02,130.18
77826,2018-06-29 09:25:24.062500,-20.16,130.18
77827,2018-06-29 09:25:24.093750,-58.37,130.18
77828,2018-06-29 09:25:24.125000,-110.57,130.18
77829,2018-06-29 09:25:24.156250,-163.8,130.18
77830,2018-06-29 09:25:24.187500,-179.74,130.18
77831,2018-06-29 09:25:24.218750,-125.54,130.18
77832,2018-06-29 09:25:24.250000,-17.31,130.18
77833,2018-06-29 09:25:24.281250,87.81,130.18
77834,2018-06-29 09:25:24.312500,149.47,130.18
77835,2018-06-29 09:25:24.343750,167.97,130.18
77836,2018-06-29 09:25:24.375000,155.94,130.18
77837,2018-06-29 09:25:24.406250,120.65,130.18
77838,2018-06-29 09:25:24.437500,72.95,130.18
77839,2018-06-29 09:25:24.468750,25.12,130.18
77840,2018-06-29 09:25:24.500000,-21.52,130.18
77841,2018-06-29 09:25:24.531250,-72.28,130.32
77842,2018-06-29 09:25:24.562500,-125.48,130.32
77843,2018-06-29 09:25:24.593750,-175.36,130.32
77844,2018-06-29 09:25:24.625000,-213.68,130.32
77845,2018-06-29 09:25:24.656250,-216.4,130.32
77846,2018-06-29 09:25:24.687500,-158.02,130.32
77847,2018-06-29 09:25:24.718750,-52.21,130.32
77848,2018-06-29 09:25:24.750000,52.84,130.32
77849,2018-06-29 09:25:24.781250,123.65,130.32
77850,2018-06-29 09:25:24.812500,156.36,130.32
77851,2018-06-29 09:25:24.843750,154.45,130.32
77852,2018-06-29 09:25:24.875000,126.31,130.32
77853,2018-06-29 09:25:24.906250,93.41,130.32
77854,2018-06-29 09:25:24.937500,73.13,130.32
77855,2018-06-29 09:25:24.968750,60.35,130.32
77856,2018-06-29 09:25:25.000000,37.47,130.32
77857,2018-06-29 09:25:25.031250,-5.72,130.32
77858,2018-06-29 09:25:25.062500,-62.16,130.32
77859,2018-06-29 09:25:25.093750,-101.64,130.32
77860,2018-06-29 09:25:25.125000,-88.69,130.32
77861,2018-06-29 09:25:25.156250,-26.02,130.32
77862,2018-06-29 09:25:25.187500,41.33,130.32
77863,2018-06-29 09:25:25.218750,79.0,130.32
77864,2018-06-29 09:25:25.250000,88.99,130.32
77865,2018-06-29 09:25:25.281250,77.69,130.32
77866,2018-06-29 09:25:25.312500,41.38,130.32
77867,2018-06-29 09:25:25.343750,-8.89,130.32
77868,2018-06-29 09:25:25.375000,-45.51,130.32
77869,2018-06-29 09:25:25.406250,-56.29,130.32
77870,2018-06-29 09:25:25.437500,-56.56,130.32
77871,2018-06-29 09:25:25.468750,-68.36,130.32
77872,2018-06-29 09:25:25.500000,-99.73,130.32
77873,2018-06-29 09:25:25.531250,-134.52,130.47
77874,2018-06-29 09:25:25.562500,-134.68,130.47
77875,2018-06-29 09:25:25.593750,-75.3,130.47
77876,2018-06-29 09:25:25.625000,18.16,130.47
77877,2018-06-29 09:25:25.656250,92.55,130.47
77878,2018-06-29 09:25:25.687500,121.1,130.47
77879,2018-06-29 09:25:25.718750,109.48,130.47
77880,2018-06-29 09:25:25.750000,69.24,130.47
77881,2018-06-29 09:25:25.781250,16.64,130.47
77882,2018-06-29 09:25:25.812500,-21.96,130.47
77883,2018-06-29 09:25:25.843750,-31.04,130.47
77884,2018-06-29 09:25:25.875000,-21.0,130.47
77885,2018-06-29 09:25:25.906250,-13.71,130.47
77886,2018-06-29 09:25:25.937500,-23.29,130.47
77887,2018-06-29 09:25:25.968750,-45.57,130.47
77888,2018-06-29 09:25:26.000000,-54.22,130.47
77889,2018-06-29 09:25:26.031250,-20.36,130.47
77890,2018-06-29 09:25:26.062500,52.28,130.47
77891,2018-06-29 09:25:26.093750,125.77,130.47
77892,2018-06-29 09:25:26.125000,165.63,130.47
77893,2018-06-29 09:25:26.156250,163.72,130.47
77894,2018-06-29 09:25:26.187500,125.59,130.47
77895,2018-06-29 09:25:26.218750,60.86,130.47
77896,2018-06-29 09:25:26.250000,-9.48,130.47
77897,2018-06-29 09:25:26.281250,-59.21,130.47
77898,2018-06-29 09:25:26.312500,-80.77,130.47
77899,2018-06-29 09:25:26.343750,-89.98,130.47
77900,2018-06-29 09:25:26.375000,-104.04,130.47
77901,2018-06-29 09:25:26.406250,-125.69,130.47
77902,2018-06-29 09:25:26.437500,-137.92,130.47
77903,2018-06-29 09:25:26.468750,-110.97,130.47
77904,2018-06-29 09:25:26.500000,-37.14,130.47
77905,2018-06-29 09:25:26.531250,46.33,130.62
77906,2018-06-29 09:25:26.562500,97.6,130.62
77907,2018-06-29 09:25:26.593750,115.24,130.62
77908,2018-06-29 09:25:26.625000,114.89,130.62
77909,2018-06-29 09:25:26.656250,91.32,130.62
77910,2018-06-29 09:25:26.687500,37.79,130.62
77911,2018-06-29 09:25:26.718750,-24.57,130.62
77912,2018-06-29 09:25:26.750000,-67.24,130.62
77913,2018-06-29 09:25:26.781250,-86.69,130.62
77914,2018-06-29 09:25:26.812500,-96.74,130.62
77915,2018-06-29 09:25:26.843750,-106.48,130.62
77916,2018-06-29 09:25:26.875000,-115.26,130.62
77917,2018-06-29 09:25:26.906250,-106.92,130.62
77918,2018-06-29 09:25:26.937500,-54.2,130.62
77919,2018-06-29 09:25:26.968750,42.68,130.62
77920,2018-06-29 09:25:27.000000,138.21,130.62
77921,2018-06-29 09:25:27.031250,189.31,130.62
77922,2018-06-29 09:25:27.062500,194.59,130.62
77923,2018-06-29 09:25:27.093750,169.42,130.62
77924,2018-06-29 09:25:27.125000,119.07,130.62
77925,2018-06-29 09:25:27.156250,53.04,130.62
77926,2018-06-29 09:25:27.187500,-9.03,130.62
77927,2018-06-29 09:25:27.218750,-57.53,130.62
77928,2018-06-29 09:25:27.250000,-97.08,130.62
77929,2018-06-29 09:25:27.281250,-131.21,130.62
77930,2018-06-29 09:25:27.312500,-160.13,130.62
77931,2018-06-29 09:25:27.343750,-177.76,130.62
77932,2018-06-29 09:25:27.375000,-159.61,130.62
77933,2018-06-29 09:25:27.406250,-85.62,130.62
77934,2018-06-29 09:25:27.437500,20.11,130.62
77935,2018-06-29 09:25:27.468750,108.31,130.62
77936,2018-06-29 09:25:27.500000,156.3,130.62
77937,2018-06-29 09:25:27.531250,165.88,130.77
77938,2018-06-29 09:25:27.562500,133.87,130.77
77939,2018-06-29 09:25:27.593750,63.73,130.77
77940,2018-06-29 09:25:27.625000,-14.81,130.77
77941,2018-06-29 09:25:27.656250,-70.26,130.77
77942,2018-06-29 09:25:27.687500,-100.3,130.77
77943,2018-06-29 09:25:27.718750,-122.72,130.77
77944,2018-06-29 09:25:27.750000,-151.73,130.77
77945,2018-06-29 09:25:27.781250,-190.62,130.77
77946,2018-06-29 09:25:27.812500,-220.02,130.77
77947,2018-06-29 09:25:27.843750,-196.16,130.77
77948,2018-06-29 09:25:27.875000,-95.48,130.77
77949,2018-06-29 09:25:27.906250,43.55,130.77
77950,2018-06-29 09:25:27.937500,155.08,130.77
77951,2018-06-29 09:25:27.968750,208.37,130.77
77952,2018-06-29 09:25:28.000000,212.15,130.77
77953,2018-06-29 09:25:28.031250,182.5,130.77
77954,2018-06-29 09:25:28.062500,133.9,130.77
77955,2018-06-29 09:25:28.093750,85.17,130.77
77956,2018-06-29 09:25:28.125000,50.28,130.77
77957,2018-06-29 09:25:28.156250,27.13,130.77
77958,2018-06-29 09:25:28.187500,2.79,130.77
77959,2018-06-29 09:25:28.218750,-34.76,130.77
77960,2018-06-29 09:25:28.250000,-83.48,130.77
77961,2018-06-29 09:25:28.281250,-114.02,130.77
77962,2018-06-29 09:25:28.312500,-90.34,130.77
77963,2018-06-29 09:25:28.343750,-17.12,130.77
77964,2018-06-29 09:25:28.375000,60.0,130.77
77965,2018-06-29 09:25:28.406250,107.68,130.77
77966,2018-06-29 09:25:28.437500,124.75,130.77
77967,2018-06-29 09:25:28.468750,115.8,130.77
77968,2018-06-29 09:25:28.500000,83.57,130.77
77969,2018-06-29 09:25:28.531250,42.01,130.92
77970,2018-06-29 09:25:28.562500,8.42,130.92
77971,2018-06-29 09:25:28.593750,-14.71,130.92
77972,2018-06-29 09:25:28.625000,-39.88,130.92
77973,2018-06-29 09:25:28.656250,-78.92,130.92
77974,2018-06-29 09:25:28.687500,-130.33,130.92
77975,2018-06-29 09:25:28.718750,-174.98,130.92
77976,2018-06-29 09:25:28.750000,-181.09,130.92
77977,2018-06-29 09:25:28.781250,-128.76,130.92
77978,2018-06-29 09:25:28.812500,-39.05,130.92
77979,2018-06-29 09:25:28.843750,39.92,130.92
77980,2018-06-29 09:25:28.875000,81.18,130.92
77981,2018-06-29 09:25:28.906250,91.29,130.92
77982,2018-06-29 09:25:28.937500,81.7,130.92
77983,2018-06-29 09:25:28.968750,59.32,130.92
77984,2018-06-29 09:25:29.000000,37.96,130.92
77985,2018-06-29 09:25:29.031250,27.97,130.92
77986,2018-06-29 09:25:29.062500,20.42,130.92
77987,2018-06-29 09:25:29.093750,-1.66,130.92
77988,2018-06-29 09:25:29.125000,-44.31,130.92
77989,2018-06-29 09:25:29.156250,-97.07,130.92
77990,2018-06-29 09:25:29.187500,-130.28,130.92
77991,2018-06-29 09:25:29.218750,-111.61,130.92
77992,2018-06-29 09:25:29.250000,-44.85,130.92
77993,2018-06-29 09:25:29.281250,28.14,130.92
77994,2018-06-29 09:25:29.312500,74.77,130.92
77995,2018-06-29 09:25:29.343750,94.05,130.92
77996,2018-06-29 09:25:29.375000,91.81,130.92
77997,2018-06-29 09:25:29.406250,68.82,130.92
77998,2018-06-29 09:25:29.437500,33.39,130.92
77999,2018-06-29 09:25:29.468750,0.41,130.92
78000,2018-06-29 09:25:29.500000,-22.45,130.92
78001,2018-06-29 09:25:29.531250,-37.23,131.08
78002,2018-06-29 09:25:29.562500,-48.93,131.08
78003,2018-06-29 09:25:29.593750,-63.82,131.08
78004,2018-06-29 09:25:29.625000,-84.39,131.08
78005,2018-06-29 09:25:29.656250,-95.16,131.08
78006,2018-06-29 09:25:29.687500,-70.78,131.08
78007,2018-06-29 09:25:29.718750,-10.7,131.08
78008,2018-06-29 09:25:29.750000,53.19,131.08
78009,2018-06-29 09:25:29.781250,91.44,131.08
78010,2018-06-29 09:25:29.812500,98.04,131.08
78011,2018-06-29 09:25:29.843750,78.32,131.08
78012,2018-06-29 09:25:29.875000,41.51,131.08
78013,2018-06-29 09:25:29.906250,4.09,131.08
78014,2018-06-29 09:25:29.937500,-18.86,131.08
78015,2018-06-29 09:25:29.968750,-25.52,131.08
78016,2018-06-29 09:25:30.000000,-24.24,131.08
78017,2018-06-29 09:25:30.031250,-26.67,131.08
78018,2018-06-29 09:25:30.062500,-45.35,131.08
78019,2018-06-29 09:25:30.093750,-77.44,131.08
78020,2018-06-29 09:25:30.125000,-88.87,131.08
78021,2018-06-29 09:25:30.156250,-46.33,131.08
78022,2018-06-29 09:25:30.187500,33.64,131.08
78023,2018-06-29 09:25:30.218750,101.4,131.08
78024,2018-06-29 09:25:30.250000,131.49,131.08
78025,2018-06-29 09:25:30.281250,131.28,131.08
78026,2018-06-29 09:25:30.312500,110.91,131.08
78027,2018-06-29 09:25:30.343750,78.32,131.08
78028,2018-06-29 09:25:30.375000,43.62,131.08
78029,2018-06-29 09:25:30.406250,7.36,131.08
78030,2018-06-29 09:25:30.437500,-39.4,131.08
78031,2018-06-29 09:25:30.468750,-98.21,131.08
78032,2018-06-29 09:25:30.500000,-157.96,131.08
78033,2018-06-29 09:25:30.531250,-204.58,131.22
78034,2018-06-29 09:25:30.562500,-218.03,131.22
78035,2018-06-29 09:25:30.593750,-174.78,131.22
78036,2018-06-29 09:25:30.625000,-73.56,131.22
78037,2018-06-29 09:25:30.656250,46.45,131.22
78038,2018-06-29 09:25:30.687500,135.98,131.22
78039,2018-06-29 09:25:30.718750,181.04,131.22
78040,2018-06-29 09:25:30.750000,197.16,131.22
78041,2018-06-29 09:25:30.781250,197.28,131.22
78042,2018-06-29 09:25:30.812500,177.89,131.22
78043,2018-06-29 09:25:30.843750,138.61,131.22
78044,2018-06-29 09:25:30.875000,86.55,131.22
78045,2018-06-29 09:25:30.906250,31.66,131.22
78046,2018-06-29 09:25:30.937500,-17.24,131.22
78047,2018-06-29 09:25:30.968750,-55.3,131.22
78048,2018-06-29 09:25:31.000000,-80.81,131.22
78049,2018-06-29 09:25:31.031250,-98.97,131.22
78050,2018-06-29 09:25:31.062500,-87.06,131.22
78051,2018-06-29 09:25:31.093750,-20.08,131.22
78052,2018-06-29 09:25:31.125000,68.92,131.22
78053,2018-06-29 09:25:31.156250,144.53,131.22
78054,2018-06-29 09:25:31.187500,198.47,131.22
78055,2018-06-29 09:25:31.218750,228.34,131.22
78056,2018-06-29 09:25:31.250000,222.5,131.22
78057,2018-06-29 09:25:31.281250,187.88,131.22
78058,2018-06-29 09:25:31.312500,142.6,131.22
78059,2018-06-29 09:25:31.343750,96.01,131.22
78060,2018-06-29 09:25:31.375000,39.53,131.22
78061,2018-06-29 09:25:31.406250,-29.84,131.22
78062,2018-06-29 09:25:31.437500,-97.79,131.22
78063,2018-06-29 09:25:31.468750,-148.15,131.22
78064,2018-06-29 09:25:31.500000,-184.74,131.22
78065,2018-06-29 09:25:31.531250,-226.5,131.33
78066,2018-06-29 09:25:31.562500,-287.26,131.33
78067,2018-06-29 09:25:31.593750,-363.75,131.33
78068,2018-06-29 09:25:31.625000,-424.79,131.33
78069,2018-06-29 09:25:31.656250,-432.81,131.33
78070,2018-06-29 09:25:31.687500,-388.54,131.33
78071,2018-06-29 09:25:31.718750,-328.23,131.33
78072,2018-06-29 09:25:31.750000,-268.94,131.33
78073,2018-06-29 09:25:31.781250,-201.49,131.33
78074,2018-06-29 09:25:31.812500,-133.94,131.33
78075,2018-06-29 09:25:31.843750,-88.55,131.33
78076,2018-06-29 09:25:31.875000,-64.66,131.33
78077,2018-06-29 09:25:31.906250,-43.98,131.33
78078,2018-06-29 09:25:31.937500,-16.72,131.33
78079,2018-06-29 09:25:31.968750,21.53,131.33
78080,2018-06-29 09:25:32.000000,78.63,131.33
78081,2018-06-29 09:25:32.031250,157.4,131.33
78082,2018-06-29 09:25:32.062500,254.43,131.33
78083,2018-06-29 09:25:32.093750,361.81,131.33
78084,2018-06-29 09:25:32.125000,450.19,131.33
78085,2018-06-29 09:25:32.156250,477.13,131.33
78086,2018-06-29 09:25:32.187500,436.05,131.33
78087,2018-06-29 09:25:32.218750,365.23,131.33
78088,2018-06-29 09:25:32.250000,297.44,131.33
78089,2018-06-29 09:25:32.281250,236.46,131.33
78090,2018-06-29 09:25:32.312500,178.09,131.33
78091,2018-06-29 09:25:32.343750,113.57,131.33
78092,2018-06-29 09:25:32.375000,19.24,131.33
78093,2018-06-29 09:25:32.406250,-121.07,131.33
78094,2018-06-29 09:25:32.437500,-274.31,131.33
78095,2018-06-29 09:25:32.468750,-367.97,131.33
78096,2018-06-29 09:25:32.500000,-367.39,131.33
78097,2018-06-29 09:25:32.531250,-314.98,131.43
78098,2018-06-29 09:25:32.562500,-267.53,131.43
78099,2018-06-29 09:25:32.593750,-238.89,131.43
78100,2018-06-29 09:25:32.625000,-224.89,131.43
78101,2018-06-29 09:25:32.656250,-225.76,131.43
78102,2018-06-29 09:25:32.687500,-226.18,131.43
78103,2018-06-29 09:25:32.718750,-204.57,131.43
78104,2018-06-29 09:25:32.750000,-169.0,131.43
78105,2018-06-29 09:25:32.781250,-150.13,131.43
78106,2018-06-29 09:25:32.812500,-161.54,131.43
78107,2018-06-29 09:25:32.843750,-182.43,131.43
78108,2018-06-29 09:25:32.875000,-177.42,131.43
78109,2018-06-29 09:25:32.906250,-131.58,131.43
78110,2018-06-29 09:25:32.937500,-62.02,131.43
78111,2018-06-29 09:25:32.968750,9.8,131.43
78112,2018-06-29 09:25:33.000000,83.92,131.43
78113,2018-06-29 09:25:33.031250,164.89,131.43
78114,2018-06-29 09:25:33.062500,230.8,131.43
78115,2018-06-29 09:25:33.093750,247.91,131.43
78116,2018-06-29 09:25:33.125000,213.11,131.43
78117,2018-06-29 09:25:33.156250,156.87,131.43
78118,2018-06-29 09:25:33.187500,103.82,131.43
78119,2018-06-29 09:25:33.218750,56.24,131.43
78120,2018-06-29 09:25:33.250000,9.37,131.43
78121,2018-06-29 09:25:33.281250,-41.69,131.43
78122,2018-06-29 09:25:33.312500,-92.96,131.43
78123,2018-06-29 09:25:33.343750,-116.54,131.43
78124,2018-06-29 09:25:33.375000,-83.21,131.43
78125,2018-06-29 09:25:33.406250,-0.35,131.43
78126,2018-06-29 09:25:33.437500,96.28,131.43
78127,2018-06-29 09:25:33.468750,172.58,131.43
78128,2018-06-29 09:25:33.500000,206.19,131.43
78129,2018-06-29 09:25:33.531250,194.16,131.52
78130,2018-06-29 09:25:33.562500,157.26,131.52
78131,2018-06-29 09:25:33.593750,119.5,131.52
78132,2018-06-29 09:25:33.625000,88.93,131.52
78133,2018-06-29 09:25:33.656250,64.04,131.52
78134,2018-06-29 09:25:33.687500,41.16,131.52
78135,2018-06-29 09:25:33.718750,9.69,131.52
78136,2018-06-29 09:25:33.750000,-39.08,131.52
78137,2018-06-29 09:25:33.781250,-86.78,131.52
78138,2018-06-29 09:25:33.812500,-88.7,131.52
78139,2018-06-29 09:25:33.843750,-21.83,131.52
78140,2018-06-29 09:25:33.875000,81.0,131.52
78141,2018-06-29 09:25:33.906250,163.16,131.52
78142,2018-06-29 09:25:33.937500,196.68,131.52
78143,2018-06-29 09:25:33.968750,187.19,131.52
78144,2018-06-29 09:25:34.000000,149.11,131.52
78145,2018-06-29 09:25:34.031250,97.94,131.52
78146,2018-06-29 09:25:34.062500,52.03,131.52
78147,2018-06-29 09:25:34.093750,22.35,131.52
78148,2018-06-29 09:25:34.125000,4.35,131.52
78149,2018-06-29 09:25:34.156250,-14.96,131.52
78150,2018-06-29 09:25:34.187500,-45.56,131.52
78151,2018-06-29 09:25:34.218750,-83.52,131.52
78152,2018-06-29 09:25:34.250000,-101.76,131.52
78153,2018-06-29 09:25:34.281250,-66.56,131.52
78154,2018-06-29 09:25:34.312500,21.59,131.52
78155,2018-06-29 09:25:34.343750,118.55,131.52
78156,2018-06-29 09:25:34.375000,176.12,131.52
78157,2018-06-29 09:25:34.406250,180.57,131.52
78158,2018-06-29 09:25:34.437500,146.08,131.52
78159,2018-06-29 09:25:34.468750,90.78,131.52
78160,2018-06-29 09:25:34.500000,30.14,131.52
78161,2018-06-29 09:25:34.531250,-20.63,131.57
78162,2018-06-29 09:25:34.562500,-53.02,131.57
78163,2018-06-29 09:25:34.593750,-72.75,131.57
78164,2018-06-29 09:25:34.625000,-91.67,131.57
78165,2018-06-29 09:25:34.656250,-119.42,131.57
78166,2018-06-29 09:25:34.687500,-152.36,131.57
78167,2018-06-29 09:25:34.718750,-161.66,131.57
78168,2018-06-29 09:25:34.750000,-107.98,131.57
78169,2018-06-29 09:25:34.781250,7.03,131.57
78170,2018-06-29 09:25:34.812500,125.1,131.57
78171,2018-06-29 09:25:34.843750,196.71,131.57
78172,2018-06-29 09:25:34.875000,221.71,131.57
78173,2018-06-29 09:25:34.906250,226.16,131.57
78174,2018-06-29 09:25:34.937500,215.59,131.57
78175,2018-06-29 09:25:34.968750,191.93,131.57
78176,2018-06-29 09:25:35.000000,171.87,131.57
78177,2018-06-29 09:25:35.031250,175.41,131.57
78178,2018-06-29 09:25:35.062500,200.61,131.57
78179,2018-06-29 09:25:35.093750,215.24,131.57
78180,2018-06-29 09:25:35.125000,202.04,131.57
78181,2018-06-29 09:25:35.156250,180.78,131.57
78182,2018-06-29 09:25:35.187500,211.9,131.57
78183,2018-06-29 09:25:35.218750,313.78,131.57
78184,2018-06-29 09:25:35.250000,432.54,131.57
78185,2018-06-29 09:25:35.281250,478.28,131.57
78186,2018-06-29 09:25:35.312500,320.9,131.57
78187,2018-06-29 09:25:35.343750,67.96,131.57
78188,2018-06-29 09:25:35.375000,-100.12,131.57
78189,2018-06-29 09:25:35.406250,-162.69,131.57
78190,2018-06-29 09:25:35.437500,-175.04,131.57
78191,2018-06-29 09:25:35.468750,-146.58,131.57
78192,2018-06-29 09:25:35.500000,-108.91,131.57
78193,2018-06-29 09:25:35.531250,-100.52,131.6
78194,2018-06-29 09:25:35.562500,-119.79,131.6
78195,2018-06-29 09:25:35.593750,-132.32,131.6
78196,2018-06-29 09:25:35.625000,-121.13,131.6
78197,2018-06-29 09:25:35.656250,-111.82,131.6
78198,2018-06-29 09:25:35.687500,-122.37,131.6
78199,2018-06-29 09:25:35.718750,-141.27,131.6
78200,2018-06-29 09:25:35.750000,-143.58,131.6
78201,2018-06-29 09:25:35.781250,-132.77,131.6
78202,2018-06-29 09:25:35.812500,-132.16,131.6
78203,2018-06-29 09:25:35.843750,-151.98,131.6
78204,2018-06-29 09:25:35.875000,-180.79,131.6
78205,2018-06-29 09:25:35.906250,-206.12,131.6
78206,2018-06-29 09:25:35.937500,-232.5,131.6
78207,2018-06-29 09:25:35.968750,-268.51,131.6
78208,2018-06-29 09:25:36.000000,-317.14,131.6
78209,2018-06-29 09:25:36.031250,-376.68,131.6
78210,2018-06-29 09:25:36.062500,-430.99,131.6
78211,2018-06-29 09:25:36.093750,-437.89,131.6
78212,2018-06-29 09:25:36.125000,-364.84,131.6
78213,2018-06-29 09:25:36.156250,-231.0,131.6
78214,2018-06-29 09:25:36.187500,-76.6,131.6
78215,2018-06-29 09:25:36.218750,77.27,131.6
78216,2018-06-29 09:25:36.250000,198.29,131.6
78217,2018-06-29 09:25:36.281250,234.83,131.6
78218,2018-06-29 09:25:36.312500,180.52,131.6
78219,2018-06-29 09:25:36.343750,91.19,131.6
78220,2018-06-29 09:25:36.375000,28.56,131.6
78221,2018-06-29 09:25:36.406250,30.41,131.6
78222,2018-06-29 09:25:36.437500,100.87,131.6
78223,2018-06-29 09:25:36.468750,184.11,131.6
78224,2018-06-29 09:25:36.500000,197.42,131.6
78225,2018-06-29 09:25:36.531250,118.72,131.63
78226,2018-06-29 09:25:36.562500,4.96,131.63
78227,2018-06-29 09:25:36.593750,-74.73,131.63
78228,2018-06-29 09:25:36.625000,-102.0,131.63
78229,2018-06-29 09:25:36.656250,-113.21,131.63
78230,2018-06-29 09:25:36.687500,-149.85,131.63
78231,2018-06-29 09:25:36.718750,-209.57,131.63
78232,2018-06-29 09:25:36.750000,-260.49,131.63
78233,2018-06-29 09:25:36.781250,-290.66,131.63
78234,2018-06-29 09:25:36.812500,-314.45,131.63
78235,2018-06-29 09:25:36.843750,-336.53,131.63
78236,2018-06-29 09:25:36.875000,-342.73,131.63
78237,2018-06-29 09:25:36.906250,-330.24,131.63
78238,2018-06-29 09:25:36.937500,-317.54,131.63
78239,2018-06-29 09:25:36.968750,-315.23,131.63
78240,2018-06-29 09:25:37.000000,-308.2,131.63
78241,2018-06-29 09:25:37.031250,-273.7,131.63
78242,2018-06-29 09:25:37.062500,-204.69,131.63
78243,2018-06-29 09:25:37.093750,-113.02,131.63
78244,2018-06-29 09:25:37.125000,-16.45,131.63
78245,2018-06-29 09:25:37.156250,76.76,131.63
78246,2018-06-29 09:25:37.187500,169.05,131.63
78247,2018-06-29 09:25:37.218750,257.48,131.63
78248,2018-06-29 09:25:37.250000,321.72,131.63
78249,2018-06-29 09:25:37.281250,338.52,131.63
78250,2018-06-29 09:25:37.312500,309.5,131.63
78251,2018-06-29 09:25:37.343750,261.56,131.63
78252,2018-06-29 09:25:37.375000,218.39,131.63
78253,2018-06-29 09:25:37.406250,182.88,131.63
78254,2018-06-29 09:25:37.437500,145.06,131.63
78255,2018-06-29 09:25:37.468750,106.43,131.63
78256,2018-06-29 09:25:37.500000,96.05,131.63
78257,2018-06-29 09:25:37.531250,139.83,131.65
78258,2018-06-29 09:25:37.562500,214.97,131.65
78259,2018-06-29 09:25:37.593750,268.95,131.65
78260,2018-06-29 09:25:37.625000,275.15,131.65
78261,2018-06-29 09:25:37.656250,239.52,131.65
78262,2018-06-29 09:25:37.687500,175.31,131.65
78263,2018-06-29 09:25:37.718750,103.28,131.65
78264,2018-06-29 09:25:37.750000,54.87,131.65
78265,2018-06-29 09:25:37.781250,48.44,131.65
78266,2018-06-29 09:25:37.812500,69.08,131.65
78267,2018-06-29 09:25:37.843750,81.11,131.65
78268,2018-06-29 09:25:37.875000,56.1,131.65
78269,2018-06-29 09:25:37.906250,-10.12,131.65
78270,2018-06-29 09:25:37.937500,-87.53,131.65
78271,2018-06-29 09:25:37.968750,-120.0,131.65
78272,2018-06-29 09:25:38.000000,-77.98,131.65
78273,2018-06-29 09:25:38.031250,-0.89,131.65
78274,2018-06-29 09:25:38.062500,48.47,131.65
78275,2018-06-29 09:25:38.093750,54.47,131.65
78276,2018-06-29 09:25:38.125000,38.24,131.65
78277,2018-06-29 09:25:38.156250,11.54,131.65
78278,2018-06-29 09:25:38.187500,-19.63,131.65
78279,2018-06-29 09:25:38.218750,-39.28,131.65
78280,2018-06-29 09:25:38.250000,-39.58,131.65
78281,2018-06-29 09:25:38.281250,-31.7,131.65
78282,2018-06-29 09:25:38.312500,-26.87,131.65
78283,2018-06-29 09:25:38.343750,-28.23,131.65
78284,2018-06-29 09:25:38.375000,-39.74,131.65
78285,2018-06-29 09:25:38.406250,-52.06,131.65
78286,2018-06-29 09:25:38.437500,-27.84,131.65
78287,2018-06-29 09:25:38.468750,61.29,131.65
78288,2018-06-29 09:25:38.500000,188.82,131.65
78289,2018-06-29 09:25:38.531250,295.65,131.65
78290,2018-06-29 09:25:38.562500,347.63,131.65
78291,2018-06-29 09:25:38.593750,348.95,131.65
78292,2018-06-29 09:25:38.625000,318.72,131.65
78293,2018-06-29 09:25:38.656250,276.09,131.65
78294,2018-06-29 09:25:38.687500,235.11,131.65
78295,2018-06-29 09:25:38.718750,196.78,131.65
78296,2018-06-29 09:25:38.750000,149.61,131.65
78297,2018-06-29 09:25:38.781250,86.92,131.65
78298,2018-06-29 09:25:38.812500,16.3,131.65
78299,2018-06-29 09:25:38.843750,-53.65,131.65
78300,2018-06-29 09:25:38.875000,-118.68,131.65
78301,2018-06-29 09:25:38.906250,-164.57,131.65
78302,2018-06-29 09:25:38.937500,-177.95,131.65
78303,2018-06-29 09:25:38.968750,-173.84,131.65
78304,2018-06-29 09:25:39.000000,-178.31,131.65
78305,2018-06-29 09:25:39.031250,-190.71,131.65
78306,2018-06-29 09:25:39.062500,-191.28,131.65
78307,2018-06-29 09:25:39.093750,-169.13,131.65
78308,2018-06-29 09:25:39.125000,-126.47,131.65
78309,2018-06-29 09:25:39.156250,-71.5,131.65
78310,2018-06-29 09:25:39.187500,-10.27,131.65
78311,2018-06-29 09:25:39.218750,61.47,131.65
78312,2018-06-29 09:25:39.250000,149.61,131.65
78313,2018-06-29 09:25:39.281250,243.06,131.65
78314,2018-06-29 09:25:39.312500,312.16,131.65
78315,2018-06-29 09:25:39.343750,334.14,131.65
78316,2018-06-29 09:25:39.375000,316.44,131.65
78317,2018-06-29 09:25:39.406250,284.15,131.65
78318,2018-06-29 09:25:39.437500,249.18,131.65
78319,2018-06-29 09:25:39.468750,208.3,131.65
78320,2018-06-29 09:25:39.500000,161.47,131.65
78321,2018-06-29 09:25:39.531250,113.71,131.65
78322,2018-06-29 09:25:39.562500,66.65,131.65
78323,2018-06-29 09:25:39.593750,18.3,131.65
78324,2018-06-29 09:25:39.625000,-32.57,131.65
78325,2018-06-29 09:25:39.656250,-82.35,131.65
78326,2018-06-29 09:25:39.687500,-125.2,131.65
78327,2018-06-29 09:25:39.718750,-160.35,131.65
78328,2018-06-29 09:25:39.750000,-194.13,131.65
78329,2018-06-29 09:25:39.781250,-239.55,131.65
78330,2018-06-29 09:25:39.812500,-305.4,131.65
78331,2018-06-29 09:25:39.843750,-360.12,131.65
78332,2018-06-29 09:25:39.875000,-336.57,131.65
78333,2018-06-29 09:25:39.906250,-216.02,131.65
78334,2018-06-29 09:25:39.937500,-63.81,131.65
78335,2018-06-29 09:25:39.968750,52.53,131.65
78336,2018-06-29 09:25:40.000000,118.2,131.65
78337,2018-06-29 09:25:40.031250,131.04,131.65
78338,2018-06-29 09:25:40.062500,86.96,131.65
78339,2018-06-29 09:25:40.093750,13.18,131.65
78340,2018-06-29 09:25:40.125000,-48.85,131.65
78341,2018-06-29 09:25:40.156250,-91.69,131.65
78342,2018-06-29 09:25:40.187500,-137.37,131.65
78343,2018-06-29 09:25:40.218750,-198.19,131.65
78344,2018-06-29 09:25:40.250000,-270.01,131.65
78345,2018-06-29 09:25:40.281250,-348.83,131.65
78346,2018-06-29 09:25:40.312500,-419.13,131.65
78347,2018-06-29 09:25:40.343750,-450.31,131.65
78348,2018-06-29 09:25:40.375000,-442.52,131.65
78349,2018-06-29 09:25:40.406250,-435.54,131.65
78350,2018-06-29 09:25:40.437500,-443.7,131.65
78351,2018-06-29 09:25:40.468750,-438.95,131.65
78352,2018-06-29 09:25:40.500000,-410.78,131.65
78353,2018-06-29 09:25:40.531250,-378.37,131.65
78354,2018-06-29 09:25:40.562500,-344.34,131.65
78355,2018-06-29 09:25:40.593750,-295.17,131.65
78356,2018-06-29 09:25:40.625000,-236.57,131.65
78357,2018-06-29 09:25:40.656250,-186.92,131.65
78358,2018-06-29 09:25:40.687500,-150.25,131.65
78359,2018-06-29 09:25:40.718750,-125.19,131.65
78360,2018-06-29 09:25:40.750000,-121.2,131.65
78361,2018-06-29 09:25:40.781250,-136.27,131.65
78362,2018-06-29 09:25:40.812500,-140.72,131.65
78363,2018-06-29 09:25:40.843750,-113.7,131.65
78364,2018-06-29 09:25:40.875000,-73.14,131.65
78365,2018-06-29 09:25:40.906250,-44.97,131.65
78366,2018-06-29 09:25:40.937500,-26.16,131.65
78367,2018-06-29 09:25:40.968750,1.49,131.65
78368,2018-06-29 09:25:41.000000,39.54,131.65
78369,2018-06-29 09:25:41.031250,73.77,131.65
78370,2018-06-29 09:25:41.062500,98.83,131.65
78371,2018-06-29 09:25:41.093750,127.52,131.65
78372,2018-06-29 09:25:41.125000,175.26,131.65
78373,2018-06-29 09:25:41.156250,236.27,131.65
78374,2018-06-29 09:25:41.187500,272.86,131.65
78375,2018-06-29 09:25:41.218750,242.9,131.65
78376,2018-06-29 09:25:41.250000,153.99,131.65
78377,2018-06-29 09:25:41.281250,71.52,131.65
78378,2018-06-29 09:25:41.312500,52.41,131.65
78379,2018-06-29 09:25:41.343750,94.22,131.65
78380,2018-06-29 09:25:41.375000,164.2,131.65
78381,2018-06-29 09:25:41.406250,245.94,131.65
78382,2018-06-29 09:25:41.437500,336.72,131.65
78383,2018-06-29 09:25:41.468750,418.31,131.65
78384,2018-06-29 09:25:41.500000,456.87,131.65
78385,2018-06-29 09:25:41.531250,436.38,131.58
78386,2018-06-29 09:25:41.562500,376.02,131.58
78387,2018-06-29 09:25:41.593750,306.65,131.58
78388,2018-06-29 09:25:41.625000,246.85,131.58
78389,2018-06-29 09:25:41.656250,206.46,131.58
78390,2018-06-29 09:25:41.687500,184.6,131.58
78391,2018-06-29 09:25:41.718750,157.0,131.58
78392,2018-06-29 09:25:41.750000,102.54,131.58
78393,2018-06-29 09:25:41.781250,53.39,131.58
78394,2018-06-29 09:25:41.812500,78.18,131.58
78395,2018-06-29 09:25:41.843750,198.88,131.58
78396,2018-06-29 09:25:41.875000,356.26,131.58
78397,2018-06-29 09:25:41.906250,467.9,131.58
78398,2018-06-29 09:25:41.937500,495.15,131.58
78399,2018-06-29 09:25:41.968750,451.95,131.58
78400,2018-06-29 09:25:42.000000,376.95,131.58
78401,2018-06-29 09:25:42.031250,304.53,131.58
78402,2018-06-29 09:25:42.062500,249.51,131.58
78403,2018-06-29 09:25:42.093750,209.05,131.58
78404,2018-06-29 09:25:42.125000,173.56,131.58
78405,2018-06-29 09:25:42.156250,135.57,131.58
78406,2018-06-29 09:25:42.187500,91.79,131.58
78407,2018-06-29 09:25:42.218750,41.61,131.58
78408,2018-06-29 09:25:42.250000,-12.78,131.58
78409,2018-06-29 09:25:42.281250,-66.68,131.58
78410,2018-06-29 09:25:42.312500,-118.61,131.58
78411,2018-06-29 09:25:42.343750,-173.35,131.58
78412,2018-06-29 09:25:42.375000,-233.92,131.58
78413,2018-06-29 09:25:42.406250,-294.86,131.58
78414,2018-06-29 09:25:42.437500,-350.83,131.58
78415,2018-06-29 09:25:42.468750,-407.28,131.58
78416,2018-06-29 09:25:42.500000,-478.9,131.58
78417,2018-06-29 09:25:42.531250,-581.68,131.52
78418,2018-06-29 09:25:42.562500,-708.42,131.52
78419,2018-06-29 09:25:42.593750,-805.11,131.52
78420,2018-06-29 09:25:42.625000,-812.16,131.52
78421,2018-06-29 09:25:42.656250,-736.21,131.52
78422,2018-06-29 09:25:42.687500,-635.48,131.52
78423,2018-06-29 09:25:42.718750,-544.88,131.52
78424,2018-06-29 09:25:42.750000,-464.06,131.52
78425,2018-06-29 09:25:42.781250,-393.87,131.52
78426,2018-06-29 09:25:42.812500,-336.17,131.52
78427,2018-06-29 09:25:42.843750,-281.34,131.52
78428,2018-06-29 09:25:42.875000,-224.53,131.52
78429,2018-06-29 09:25:42.906250,-175.15,131.52
78430,2018-06-29 09:25:42.937500,-140.16,131.52
78431,2018-06-29 09:25:42.968750,-112.02,131.52
78432,2018-06-29 09:25:43.000000,-80.83,131.52
78433,2018-06-29 09:25:43.031250,-48.1,131.52
78434,2018-06-29 09:25:43.062500,-21.45,131.52
78435,2018-06-29 09:25:43.093750,-1.82,131.52
78436,2018-06-29 09:25:43.125000,16.14,131.52
78437,2018-06-29 09:25:43.156250,34.69,131.52
78438,2018-06-29 09:25:43.187500,51.44,131.52
78439,2018-06-29 09:25:43.218750,65.32,131.52
78440,2018-06-29 09:25:43.250000,78.26,131.52
78441,2018-06-29 09:25:43.281250,90.88,131.52
78442,2018-06-29 09:25:43.312500,101.92,131.52
78443,2018-06-29 09:25:43.343750,111.51,131.52
78444,2018-06-29 09:25:43.375000,121.11,131.52
78445,2018-06-29 09:25:43.406250,130.05,131.52
78446,2018-06-29 09:25:43.437500,136.81,131.52
78447,2018-06-29 09:25:43.468750,144.11,131.52
78448,2018-06-29 09:25:43.500000,158.02,131.52
78449,2018-06-29 09:25:43.531250,180.15,131.42
78450,2018-06-29 09:25:43.562500,205.55,131.42
78451,2018-06-29 09:25:43.593750,229.24,131.42
78452,2018-06-29 09:25:43.625000,252.91,131.42
78453,2018-06-29 09:25:43.656250,285.03,131.42
78454,2018-06-29 09:25:43.687500,328.67,131.42
78455,2018-06-29 09:25:43.718750,364.02,131.42
78456,2018-06-29 09:25:43.750000,355.56,131.42
78457,2018-06-29 09:25:43.781250,290.6,131.42
78458,2018-06-29 09:25:43.812500,205.06,131.42
78459,2018-06-29 09:25:43.843750,156.14,131.42
78460,2018-06-29 09:25:43.875000,172.64,131.42
78461,2018-06-29 09:25:43.906250,237.71,131.42
78462,2018-06-29 09:25:43.937500,305.76,131.42
78463,2018-06-29 09:25:43.968750,331.03,131.42
78464,2018-06-29 09:25:44.000000,298.4,131.42
78465,2018-06-29 09:25:44.031250,233.4,131.42
78466,2018-06-29 09:25:44.062500,172.0,131.42
78467,2018-06-29 09:25:44.093750,125.72,131.42
78468,2018-06-29 09:25:44.125000,87.4,131.42
78469,2018-06-29 09:25:44.156250,52.92,131.42
78470,2018-06-29 09:25:44.187500,22.45,131.42
78471,2018-06-29 09:25:44.218750,-6.65,131.42
78472,2018-06-29 09:25:44.250000,-40.78,131.42
78473,2018-06-29 09:25:44.281250,-85.63,131.42
78474,2018-06-29 09:25:44.312500,-130.01,131.42
78475,2018-06-29 09:25:44.343750,-138.52,131.42
78476,2018-06-29 09:25:44.375000,-83.78,131.42
78477,2018-06-29 09:25:44.406250,14.24,131.42
78478,2018-06-29 09:25:44.437500,100.8,131.42
78479,2018-06-29 09:25:44.468750,136.14,131.42
78480,2018-06-29 09:25:44.500000,120.23,131.42
78481,2018-06-29 09:25:44.531250,77.94,131.27
78482,2018-06-29 09:25:44.562500,33.14,131.27
78483,2018-06-29 09:25:44.593750,-4.01,131.27
78484,2018-06-29 09:25:44.625000,-32.07,131.27
78485,2018-06-29 09:25:44.656250,-51.35,131.27
78486,2018-06-29 09:25:44.687500,-63.57,131.27
78487,2018-06-29 09:25:44.718750,-72.21,131.27
78488,2018-06-29 09:25:44.750000,-82.87,131.27
78489,2018-06-29 09:25:44.781250,-104.77,131.27
78490,2018-06-29 09:25:44.812500,-136.77,131.27
78491,2018-06-29 09:25:44.843750,-147.22,131.27
78492,2018-06-29 09:25:44.875000,-97.06,131.27
78493,2018-06-29 09:25:44.906250,4.39,131.27
78494,2018-06-29 09:25:44.937500,97.58,131.27
78495,2018-06-29 09:25:44.968750,136.87,131.27
78496,2018-06-29 09:25:45.000000,127.1,131.27
78497,2018-06-29 09:25:45.031250,95.64,131.27
78498,2018-06-29 09:25:45.062500,61.05,131.27
78499,2018-06-29 09:25:45.093750,32.94,131.27
78500,2018-06-29 09:25:45.125000,16.56,131.27
78501,2018-06-29 09:25:45.156250,9.51,131.27
78502,2018-06-29 09:25:45.187500,4.89,131.27
78503,2018-06-29 09:25:45.218750,-1.36,131.27
78504,2018-06-29 09:25:45.250000,-12.11,131.27
78505,2018-06-29 09:25:45.281250,-34.67,131.27
78506,2018-06-29 09:25:45.312500,-71.48,131.27
78507,2018-06-29 09:25:45.343750,-98.36,131.27
78508,2018-06-29 09:25:45.375000,-73.46,131.27
78509,2018-06-29 09:25:45.406250,10.73,131.27
78510,2018-06-29 09:25:45.437500,104.01,131.27
78511,2018-06-29 09:25:45.468750,148.99,131.27
78512,2018-06-29 09:25:45.500000,134.6,131.27
78513,2018-06-29 09:25:45.531250,86.61,131.12
78514,2018-06-29 09:25:45.562500,34.16,131.12
78515,2018-06-29 09:25:45.593750,-3.51,131.12
78516,2018-06-29 09:25:45.625000,-22.58,131.12
78517,2018-06-29 09:25:45.656250,-32.64,131.12
78518,2018-06-29 09:25:45.687500,-41.98,131.12
78519,2018-06-29 09:25:45.718750,-51.83,131.12
78520,2018-06-29 09:25:45.750000,-63.06,131.12
78521,2018-06-29 09:25:45.781250,-79.69,131.12
78522,2018-06-29 09:25:45.812500,-106.52,131.12
78523,2018-06-29 09:25:45.843750,-133.03,131.12
78524,2018-06-29 09:25:45.875000,-121.73,131.12
78525,2018-06-29 09:25:45.906250,-49.49,131.12
78526,2018-06-29 09:25:45.937500,44.92,131.12
78527,2018-06-29 09:25:45.968750,100.21,131.12
78528,2018-06-29 09:25:46.000000,102.61,131.12
78529,2018-06-29 09:25:46.031250,78.13,131.12
78530,2018-06-29 09:25:46.062500,49.28,131.12
78531,2018-06-29 09:25:46.093750,25.17,131.12
78532,2018-06-29 09:25:46.125000,3.82,131.12
78533,2018-06-29 09:25:46.156250,-21.84,131.12
78534,2018-06-29 09:25:46.187500,-47.39,131.12
78535,2018-06-29 09:25:46.218750,-59.46,131.12
78536,2018-06-29 09:25:46.250000,-55.96,131.12
78537,2018-06-29 09:25:46.281250,-51.79,131.12
78538,2018-06-29 09:25:46.312500,-67.18,131.12
78539,2018-06-29 09:25:46.343750,-100.5,131.12
78540,2018-06-29 09:25:46.375000,-108.38,131.12
78541,2018-06-29 09:25:46.406250,-47.31,131.12
78542,2018-06-29 09:25:46.437500,61.84,131.12
78543,2018-06-29 09:25:46.468750,151.59,131.12
78544,2018-06-29 09:25:46.500000,184.12,131.12
78545,2018-06-29 09:25:46.531250,171.78,130.95
78546,2018-06-29 09:25:46.562500,139.5,130.95
78547,2018-06-29 09:25:46.593750,103.79,130.95
78548,2018-06-29 09:25:46.625000,74.64,130.95
78549,2018-06-29 09:25:46.656250,53.0,130.95
78550,2018-06-29 09:25:46.687500,32.69,130.95
78551,2018-06-29 09:25:46.718750,12.47,130.95
78552,2018-06-29 09:25:46.750000,-2.14,130.95
78553,2018-06-29 09:25:46.781250,-11.93,130.95
78554,2018-06-29 09:25:46.812500,-31.27,130.95
78555,2018-06-29 09:25:46.843750,-70.26,130.95
78556,2018-06-29 09:25:46.875000,-105.77,130.95
78557,2018-06-29 09:25:46.906250,-94.81,130.95
78558,2018-06-29 09:25:46.937500,-31.0,130.95
78559,2018-06-29 09:25:46.968750,39.18,130.95
78560,2018-06-29 09:25:47.000000,70.52,130.95
78561,2018-06-29 09:25:47.031250,59.62,130.95
78562,2018-06-29 09:25:47.062500,26.36,130.95
78563,2018-06-29 09:25:47.093750,-12.64,130.95
78564,2018-06-29 09:25:47.125000,-47.22,130.95
78565,2018-06-29 09:25:47.156250,-72.46,130.95
78566,2018-06-29 09:25:47.187500,-87.75,130.95
78567,2018-06-29 09:25:47.218750,-93.22,130.95
78568,2018-06-29 09:25:47.250000,-89.95,130.95
78569,2018-06-29 09:25:47.281250,-84.16,130.95
78570,2018-06-29 09:25:47.312500,-88.12,130.95
78571,2018-06-29 09:25:47.343750,-107.18,130.95
78572,2018-06-29 09:25:47.375000,-117.68,130.95
78573,2018-06-29 09:25:47.406250,-79.48,130.95
78574,2018-06-29 09:25:47.437500,10.45,130.95
78575,2018-06-29 09:25:47.468750,100.97,130.95
78576,2018-06-29 09:25:47.500000,141.14,130.95
78577,2018-06-29 09:25:47.531250,126.87,130.75
78578,2018-06-29 09:25:47.562500,84.58,130.75
78579,2018-06-29 09:25:47.593750,38.67,130.75
78580,2018-06-29 09:25:47.625000,1.53,130.75
78581,2018-06-29 09:25:47.656250,-26.55,130.75
78582,2018-06-29 09:25:47.687500,-52.41,130.75
78583,2018-06-29 09:25:47.718750,-77.25,130.75
78584,2018-06-29 09:25:47.750000,-92.86,130.75
78585,2018-06-29 09:25:47.781250,-94.65,130.75
78586,2018-06-29 09:25:47.812500,-92.93,130.75
78587,2018-06-29 09:25:47.843750,-101.35,130.75
78588,2018-06-29 09:25:47.875000,-110.49,130.75
78589,2018-06-29 09:25:47.906250,-87.69,130.75
78590,2018-06-29 09:25:47.937500,-18.78,130.75
78591,2018-06-29 09:25:47.968750,65.99,130.75
78592,2018-06-29 09:25:48.000000,124.7,130.75
78593,2018-06-29 09:25:48.031250,144.88,130.75
78594,2018-06-29 09:25:48.062500,139.24,130.75
78595,2018-06-29 09:25:48.093750,122.38,130.75
78596,2018-06-29 09:25:48.125000,103.6,130.75
78597,2018-06-29 09:25:48.156250,86.59,130.75
78598,2018-06-29 09:25:48.187500,68.75,130.75
78599,2018-06-29 09:25:48.218750,47.59,130.75
78600,2018-06-29 09:25:48.250000,26.92,130.75
78601,2018-06-29 09:25:48.281250,11.64,130.75
78602,2018-06-29 09:25:48.312500,-2.15,130.75
78603,2018-06-29 09:25:48.343750,-24.51,130.75
78604,2018-06-29 09:25:48.375000,-52.97,130.75
78605,2018-06-29 09:25:48.406250,-61.12,130.75
78606,2018-06-29 09:25:48.437500,-23.0,130.75
78607,2018-06-29 09:25:48.468750,48.94,130.75
78608,2018-06-29 09:25:48.500000,109.7,130.75
78609,2018-06-29 09:25:48.531250,129.02,130.53
78610,2018-06-29 09:25:48.562500,113.51,130.53
78611,2018-06-29 09:25:48.593750,84.67,130.53
78612,2018-06-29 09:25:48.625000,57.42,130.53
78613,2018-06-29 09:25:48.656250,37.87,130.53
78614,2018-06-29 09:25:48.687500,24.31,130.53
78615,2018-06-29 09:25:48.718750,10.66,130.53
78616,2018-06-29 09:25:48.750000,-4.65,130.53
78617,2018-06-29 09:25:48.781250,-16.16,130.53
78618,2018-06-29 09:25:48.812500,-21.15,130.53
78619,2018-06-29 09:25:48.843750,-27.92,130.53
78620,2018-06-29 09:25:48.875000,-44.48,130.53
78621,2018-06-29 09:25:48.906250,-55.12,130.53
78622,2018-06-29 09:25:48.937500,-27.28,130.53
78623,2018-06-29 09:25:48.968750,45.05,130.53
78624,2018-06-29 09:25:49.000000,125.76,130.53
78625,2018-06-29 09:25:49.031250,176.74,130.53
78626,2018-06-29 09:25:49.062500,192.05,130.53
78627,2018-06-29 09:25:49.093750,185.54,130.53
78628,2018-06-29 09:25:49.125000,171.35,130.53
78629,2018-06-29 09:25:49.156250,163.72,130.53
78630,2018-06-29 09:25:49.187500,174.25,130.53
78631,2018-06-29 09:25:49.218750,201.36,130.53
78632,2018-06-29 09:25:49.250000,231.21,130.53
78633,2018-06-29 09:25:49.281250,248.97,130.53
78634,2018-06-29 09:25:49.312500,246.06,130.53
78635,2018-06-29 09:25:49.343750,222.35,130.53
78636,2018-06-29 09:25:49.375000,185.87,130.53
78637,2018-06-29 09:25:49.406250,146.57,130.53
78638,2018-06-29 09:25:49.437500,109.88,130.53
78639,2018-06-29 09:25:49.468750,77.12,130.53
78640,2018-06-29 09:25:49.500000,47.06,130.53
78641,2018-06-29 09:25:49.531250,14.75,130.33
78642,2018-06-29 09:25:49.562500,-24.51,130.33
78643,2018-06-29 09:25:49.593750,-68.3,130.33
78644,2018-06-29 09:25:49.625000,-109.4,130.33
78645,2018-06-29 09:25:49.656250,-146.12,130.33
78646,2018-06-29 09:25:49.687500,-185.18,130.33
78647,2018-06-29 09:25:49.718750,-232.08,130.33
78648,2018-06-29 09:25:49.750000,-282.74,130.33
78649,2018-06-29 09:25:49.781250,-329.67,130.33
78650,2018-06-29 09:25:49.812500,-374.31,130.33
78651,2018-06-29 09:25:49.843750,-425.98,130.33
78652,2018-06-29 09:25:49.875000,-487.35,130.33
78653,2018-06-29 09:25:49.906250,-542.21,130.33
78654,2018-06-29 09:25:49.937500,-554.32,130.33
78655,2018-06-29 09:25:49.968750,-490.26,130.33
78656,2018-06-29 09:25:50.000000,-358.6,130.33
78657,2018-06-29 09:25:50.031250,-212.85,130.33
78658,2018-06-29 09:25:50.062500,-104.32,130.33
78659,2018-06-29 09:25:50.093750,-47.79,130.33
78660,2018-06-29 09:25:50.125000,-29.59,130.33
78661,2018-06-29 09:25:50.156250,-22.14,130.33
78662,2018-06-29 09:25:50.187500,3.0,130.33
78663,2018-06-29 09:25:50.218750,51.89,130.33
78664,2018-06-29 09:25:50.250000,102.42,130.33
78665,2018-06-29 09:25:50.281250,128.04,130.33
78666,2018-06-29 09:25:50.312500,118.56,130.33
78667,2018-06-29 09:25:50.343750,78.84,130.33
78668,2018-06-29 09:25:50.375000,20.31,130.33
78669,2018-06-29 09:25:50.406250,-44.11,130.33
78670,2018-06-29 09:25:50.437500,-101.49,130.33
78671,2018-06-29 09:25:50.468750,-135.27,130.33
78672,2018-06-29 09:25:50.500000,-127.4,130.33
78673,2018-06-29 09:25:50.531250,-77.33,130.08
78674,2018-06-29 09:25:50.562500,-9.9,130.08
78675,2018-06-29 09:25:50.593750,48.76,130.08
78676,2018-06-29 09:25:50.625000,89.47,130.08
78677,2018-06-29 09:25:50.656250,109.58,130.08
78678,2018-06-29 09:25:50.687500,109.61,130.08
78679,2018-06-29 09:25:50.718750,102.99,130.08
78680,2018-06-29 09:25:50.750000,103.32,130.08
78681,2018-06-29 09:25:50.781250,104.61,130.08
78682,2018-06-29 09:25:50.812500,94.53,130.08
78683,2018-06-29 09:25:50.843750,77.4,130.08
78684,2018-06-29 09:25:50.875000,65.04,130.08
78685,2018-06-29 09:25:50.906250,53.79,130.08
78686,2018-06-29 09:25:50.937500,26.07,130.08
78687,2018-06-29 09:25:50.968750,-29.26,130.08
78688,2018-06-29 09:25:51.000000,-96.86,130.08
78689,2018-06-29 09:25:51.031250,-131.12,130.08
78690,2018-06-29 09:25:51.062500,-93.17,130.08
78691,2018-06-29 09:25:51.093750,1.73,130.08
78692,2018-06-29 09:25:51.125000,101.3,130.08
78693,2018-06-29 09:25:51.156250,176.18,130.08
78694,2018-06-29 09:25:51.187500,228.29,130.08
78695,2018-06-29 09:25:51.218750,258.1,130.08
78696,2018-06-29 09:25:51.250000,260.59,130.08
78697,2018-06-29 09:25:51.281250,237.71,130.08
78698,2018-06-29 09:25:51.312500,196.81,130.08
78699,2018-06-29 09:25:51.343750,151.58,130.08
78700,2018-06-29 09:25:51.375000,120.89,130.08
78701,2018-06-29 09:25:51.406250,111.23,130.08
78702,2018-06-29 09:25:51.437500,107.52,130.08
78703,2018-06-29 09:25:51.468750,89.77,130.08
78704,2018-06-29 09:25:51.500000,48.84,130.08
78705,2018-06-29 09:25:51.531250,-14.9,129.82
78706,2018-06-29 09:25:51.562500,-92.19,129.82
78707,2018-06-29 09:25:51.593750,-154.26,129.82
78708,2018-06-29 09:25:51.625000,-166.55,129.82
78709,2018-06-29 09:25:51.656250,-134.63,129.82
78710,2018-06-29 09:25:51.687500,-109.97,129.82
78711,2018-06-29 09:25:51.718750,-130.17,129.82
78712,2018-06-29 09:25:51.750000,-184.17,129.82
78713,2018-06-29 09:25:51.781250,-243.77,129.82
78714,2018-06-29 09:25:51.812500,-291.25,129.82
78715,2018-06-29 09:25:51.843750,-314.8,129.82
78716,2018-06-29 09:25:51.875000,-311.0,129.82
78717,2018-06-29 09:25:51.906250,-290.98,129.82
78718,2018-06-29 09:25:51.937500,-270.03,129.82
78719,2018-06-29 09:25:51.968750,-257.19,129.82
78720,2018-06-29 09:25:52.000000,-258.41,129.82
78721,2018-06-29 09:25:52.031250,-280.25,129.82
78722,2018-06-29 09:25:52.062500,-320.05,129.82
78723,2018-06-29 09:25:52.093750,-350.69,129.82
78724,2018-06-29 09:25:52.125000,-334.96,129.82
78725,2018-06-29 09:25:52.156250,-267.08,129.82
78726,2018-06-29 09:25:52.187500,-178.68,129.82
78727,2018-06-29 09:25:52.218750,-95.52,129.82
78728,2018-06-29 09:25:52.250000,-17.0,129.82
78729,2018-06-29 09:25:52.281250,56.73,129.82
78730,2018-06-29 09:25:52.312500,110.33,129.82
78731,2018-06-29 09:25:52.343750,132.63,129.82
78732,2018-06-29 09:25:52.375000,128.72,129.82
78733,2018-06-29 09:25:52.406250,111.13,129.82
78734,2018-06-29 09:25:52.437500,92.55,129.82
78735,2018-06-29 09:25:52.468750,83.86,129.82
78736,2018-06-29 09:25:52.500000,85.36,129.82
78737,2018-06-29 09:25:52.531250,82.12,129.53
78738,2018-06-29 09:25:52.562500,56.48,129.53
78739,2018-06-29 09:25:52.593750,4.66,129.53
78740,2018-06-29 09:25:52.625000,-52.65,129.53
78741,2018-06-29 09:25:52.656250,-75.1,129.53
78742,2018-06-29 09:25:52.687500,-35.28,129.53
78743,2018-06-29 09:25:52.718750,51.28,129.53
78744,2018-06-29 09:25:52.750000,140.06,129.53
78745,2018-06-29 09:25:52.781250,194.5,129.53
78746,2018-06-29 09:25:52.812500,202.54,129.53
78747,2018-06-29 09:25:52.843750,173.82,129.53
78748,2018-06-29 09:25:52.875000,130.13,129.53
78749,2018-06-29 09:25:52.906250,89.08,129.53
78750,2018-06-29 09:25:52.937500,54.63,129.53
78751,2018-06-29 09:25:52.968750,23.6,129.53
78752,2018-06-29 09:25:53.000000,-5.41,129.53
78753,2018-06-29 09:25:53.031250,-30.14,129.53
78754,2018-06-29 09:25:53.062500,-48.04,129.53
78755,2018-06-29 09:25:53.093750,-61.18,129.53
78756,2018-06-29 09:25:53.125000,-78.17,129.53
78757,2018-06-29 09:25:53.156250,-101.51,129.53
78758,2018-06-29 09:25:53.187500,-111.21,129.53
78759,2018-06-29 09:25:53.218750,-79.69,129.53
78760,2018-06-29 09:25:53.250000,-4.92,129.53
78761,2018-06-29 09:25:53.281250,89.04,129.53
78762,2018-06-29 09:25:53.312500,176.19,129.53
78763,2018-06-29 09:25:53.343750,235.33,129.53
78764,2018-06-29 09:25:53.375000,251.15,129.53
78765,2018-06-29 09:25:53.406250,228.25,129.53
78766,2018-06-29 09:25:53.437500,190.36,129.53
78767,2018-06-29 09:25:53.468750,156.21,129.53
78768,2018-06-29 09:25:53.500000,126.44,129.53
78769,2018-06-29 09:25:53.531250,93.53,129.23
78770,2018-06-29 09:25:53.562500,56.21,129.23
78771,2018-06-29 09:25:53.593750,21.55,129.23
78772,2018-06-29 09:25:53.625000,-5.64,129.23
78773,2018-06-29 09:25:53.656250,-31.07,129.23
78774,2018-06-29 09:25:53.687500,-67.39,129.23
78775,2018-06-29 09:25:53.718750,-117.66,129.23
78776,2018-06-29 09:25:53.750000,-156.18,129.23
78777,2018-06-29 09:25:53.781250,-140.23,129.23
78778,2018-06-29 09:25:53.812500,-58.42,129.23
78779,2018-06-29 09:25:53.843750,48.46,129.23
78780,2018-06-29 09:25:53.875000,130.86,129.23
78781,2018-06-29 09:25:53.906250,172.49,129.23
78782,2018-06-29 09:25:53.937500,178.73,129.23
78783,2018-06-29 09:25:53.968750,155.66,129.23
78784,2018-06-29 09:25:54.000000,116.27,129.23
78785,2018-06-29 09:25:54.031250,81.18,129.23
78786,2018-06-29 09:25:54.062500,58.45,129.23
78787,2018-06-29 09:25:54.093750,36.63,129.23
78788,2018-06-29 09:25:54.125000,6.21,129.23
78789,2018-06-29 09:25:54.156250,-25.18,129.23
78790,2018-06-29 09:25:54.187500,-47.14,129.23
78791,2018-06-29 09:25:54.218750,-64.1,129.23
78792,2018-06-29 09:25:54.250000,-89.28,129.23
78793,2018-06-29 09:25:54.281250,-129.62,129.23
78794,2018-06-29 09:25:54.312500,-175.4,129.23
78795,2018-06-29 09:25:54.343750,-195.16,129.23
78796,2018-06-29 09:25:54.375000,-155.78,129.23
78797,2018-06-29 09:25:54.406250,-63.3,129.23
78798,2018-06-29 09:25:54.437500,34.58,129.23
78799,2018-06-29 09:25:54.468750,97.53,129.23
78800,2018-06-29 09:25:54.500000,120.35,129.23
78801,2018-06-29 09:25:54.531250,112.12,128.92
78802,2018-06-29 09:25:54.562500,81.68,128.92
78803,2018-06-29 09:25:54.593750,45.83,128.92
78804,2018-06-29 09:25:54.625000,22.54,128.92
78805,2018-06-29 09:25:54.656250,11.31,128.92
78806,2018-06-29 09:25:54.687500,-2.45,128.92
78807,2018-06-29 09:25:54.718750,-24.09,128.92
78808,2018-06-29 09:25:54.750000,-45.79,128.92
78809,2018-06-29 09:25:54.781250,-63.48,128.92
78810,2018-06-29 09:25:54.812500,-83.86,128.92
78811,2018-06-29 09:25:54.843750,-115.01,128.92
78812,2018-06-29 09:25:54.875000,-154.79,128.92
78813,2018-06-29 09:25:54.906250,-182.35,128.92
78814,2018-06-29 09:25:54.937500,-166.96,128.92
78815,2018-06-29 09:25:54.968750,-97.98,128.92
78816,2018-06-29 09:25:55.000000,1.97,128.92
78817,2018-06-29 09:25:55.031250,98.21,128.92
78818,2018-06-29 09:25:55.062500,164.99,128.92
78819,2018-06-29 09:25:55.093750,188.94,128.92
78820,2018-06-29 09:25:55.125000,173.04,128.92
78821,2018-06-29 09:25:55.156250,137.22,128.92
78822,2018-06-29 09:25:55.187500,103.71,128.92
78823,2018-06-29 09:25:55.218750,81.23,128.92
78824,2018-06-29 09:25:55.250000,63.39,128.92
78825,2018-06-29 09:25:55.281250,40.68,128.92
78826,2018-06-29 09:25:55.312500,12.88,128.92
78827,2018-06-29 09:25:55.343750,-12.85,128.92
78828,2018-06-29 09:25:55.375000,-33.11,128.92
78829,2018-06-29 09:25:55.406250,-53.58,128.92
78830,2018-06-29 09:25:55.437500,-84.62,128.92
78831,2018-06-29 09:25:55.468750,-126.46,128.92
78832,2018-06-29 09:25:55.500000,-152.92,128.92
78833,2018-06-29 09:25:55.531250,-126.57,128.58
78834,2018-06-29 09:25:55.562500,-41.64,128.58
78835,2018-06-29 09:25:55.593750,63.47,128.58
78836,2018-06-29 09:25:55.625000,143.96,128.58
78837,2018-06-29 09:25:55.656250,182.29,128.58
78838,2018-06-29 09:25:55.687500,182.63,128.58
78839,2018-06-29 09:25:55.718750,155.28,128.58
78840,2018-06-29 09:25:55.750000,115.05,128.58
78841,2018-06-29 09:25:55.781250,80.09,128.58
78842,2018-06-29 09:25:55.812500,59.42,128.58
78843,2018-06-29 09:25:55.843750,45.0,128.58
78844,2018-06-29 09:25:55.875000,24.75,128.58
78845,2018-06-29 09:25:55.906250,-0.84,128.58
78846,2018-06-29 09:25:55.937500,-22.65,128.58
78847,2018-06-29 09:25:55.968750,-38.49,128.58
78848,2018-06-29 09:25:56.000000,-56.24,128.58
78849,2018-06-29 09:25:56.031250,-85.19,128.58
78850,2018-06-29 09:25:56.062500,-124.78,128.58
78851,2018-06-29 09:25:56.093750,-152.55,128.58
78852,2018-06-29 09:25:56.125000,-131.8,128.58
78853,2018-06-29 09:25:56.156250,-50.26,128.58
78854,2018-06-29 09:25:56.187500,56.52,128.58
78855,2018-06-29 09:25:56.218750,137.97,128.58
78856,2018-06-29 09:25:56.250000,172.77,128.58
78857,2018-06-29 09:25:56.281250,167.56,128.58
78858,2018-06-29 09:25:56.312500,134.76,128.58
78859,2018-06-29 09:25:56.343750,91.33,128.58
78860,2018-06-29 09:25:56.375000,59.26,128.58
78861,2018-06-29 09:25:56.406250,46.01,128.58
78862,2018-06-29 09:25:56.437500,35.59,128.58
78863,2018-06-29 09:25:56.468750,13.49,128.58
78864,2018-06-29 09:25:56.500000,-13.32,128.58
78865,2018-06-29 09:25:56.531250,-31.74,128.22
78866,2018-06-29 09:25:56.562500,-43.86,128.22
78867,2018-06-29 09:25:56.593750,-62.93,128.22
78868,2018-06-29 09:25:56.625000,-97.2,128.22
78869,2018-06-29 09:25:56.656250,-135.76,128.22
78870,2018-06-29 09:25:56.687500,-143.86,128.22
78871,2018-06-29 09:25:56.718750,-90.5,128.22
78872,2018-06-29 09:25:56.750000,8.7,128.22
78873,2018-06-29 09:25:56.781250,99.94,128.22
78874,2018-06-29 09:25:56.812500,147.63,128.22
78875,2018-06-29 09:25:56.843750,154.19,128.22
78876,2018-06-29 09:25:56.875000,131.62,128.22
78877,2018-06-29 09:25:56.906250,90.54,128.22
78878,2018-06-29 09:25:56.937500,51.29,128.22
78879,2018-06-29 09:25:56.968750,31.19,128.22
78880,2018-06-29 09:25:57.000000,22.86,128.22
78881,2018-06-29 09:25:57.031250,6.75,128.22
78882,2018-06-29 09:25:57.062500,-19.52,128.22
78883,2018-06-29 09:25:57.093750,-41.78,128.22
78884,2018-06-29 09:25:57.125000,-54.34,128.22
78885,2018-06-29 09:25:57.156250,-68.19,128.22
78886,2018-06-29 09:25:57.187500,-96.1,128.22
78887,2018-06-29 09:25:57.218750,-136.36,128.22
78888,2018-06-29 09:25:57.250000,-163.21,128.22
78889,2018-06-29 09:25:57.281250,-137.86,128.22
78890,2018-06-29 09:25:57.312500,-50.08,128.22
78891,2018-06-29 09:25:57.343750,58.56,128.22
78892,2018-06-29 09:25:57.375000,134.98,128.22
78893,2018-06-29 09:25:57.406250,163.7,128.22
78894,2018-06-29 09:25:57.437500,158.44,128.22
78895,2018-06-29 09:25:57.468750,131.29,128.22
78896,2018-06-29 09:25:57.500000,92.83,128.22
78897,2018-06-29 09:25:57.531250,60.08,127.82
78898,2018-06-29 09:25:57.562500,43.18,127.82
78899,2018-06-29 09:25:57.593750,33.78,127.82
78900,2018-06-29 09:25:57.625000,17.7,127.82
78901,2018-06-29 09:25:57.656250,-6.86,127.82
78902,2018-06-29 09:25:57.687500,-30.47,127.82
78903,2018-06-29 09:25:57.718750,-47.7,127.82
78904,2018-06-29 09:25:57.750000,-63.52,127.82
78905,2018-06-29 09:25:57.781250,-85.95,127.82
78906,2018-06-29 09:25:57.812500,-118.9,127.82
78907,2018-06-29 09:25:57.843750,-151.57,127.82
78908,2018-06-29 09:25:57.875000,-150.27,127.82
78909,2018-06-29 09:25:57.906250,-84.64,127.82
78910,2018-06-29 09:25:57.937500,27.86,127.82
78911,2018-06-29 09:25:57.968750,130.56,127.82
78912,2018-06-29 09:25:58.000000,184.99,127.82
78913,2018-06-29 09:25:58.031250,192.98,127.82
78914,2018-06-29 09:25:58.062500,171.17,127.82
78915,2018-06-29 09:25:58.093750,137.13,127.82
78916,2018-06-29 09:25:58.125000,111.71,127.82
78917,2018-06-29 09:25:58.156250,105.86,127.82
78918,2018-06-29 09:25:58.187500,109.16,127.82
78919,2018-06-29 09:25:58.218750,107.19,127.82
78920,2018-06-29 09:25:58.250000,102.62,127.82
78921,2018-06-29 09:25:58.281250,106.5,127.82
78922,2018-06-29 09:25:58.312500,117.14,127.82
78923,2018-06-29 09:25:58.343750,122.43,127.82
78924,2018-06-29 09:25:58.375000,118.87,127.82
78925,2018-06-29 09:25:58.406250,114.32,127.82
78926,2018-06-29 09:25:58.437500,118.34,127.82
78927,2018-06-29 09:25:58.468750,136.38,127.82
78928,2018-06-29 09:25:58.500000,161.12,127.82
78929,2018-06-29 09:25:58.531250,171.66,127.4
78930,2018-06-29 09:25:58.562500,158.0,127.4
78931,2018-06-29 09:25:58.593750,134.72,127.4
78932,2018-06-29 09:25:58.625000,117.31,127.4
78933,2018-06-29 09:25:58.656250,104.74,127.4
78934,2018-06-29 09:25:58.687500,92.17,127.4
78935,2018-06-29 09:25:58.718750,75.78,127.4
78936,2018-06-29 09:25:58.750000,44.64,127.4
78937,2018-06-29 09:25:58.781250,-10.61,127.4
78938,2018-06-29 09:25:58.812500,-84.17,127.4
78939,2018-06-29 09:25:58.843750,-162.34,127.4
78940,2018-06-29 09:25:58.875000,-242.29,127.4
78941,2018-06-29 09:25:58.906250,-337.09,127.4
78942,2018-06-29 09:25:58.937500,-455.0,127.4
78943,2018-06-29 09:25:58.968750,-571.14,127.4
78944,2018-06-29 09:25:59.000000,-637.03,127.4
78945,2018-06-29 09:25:59.031250,-626.23,127.4
78946,2018-06-29 09:25:59.062500,-553.23,127.4
78947,2018-06-29 09:25:59.093750,-446.93,127.4
78948,2018-06-29 09:25:59.125000,-326.84,127.4
78949,2018-06-29 09:25:59.156250,-202.32,127.4
78950,2018-06-29 09:25:59.187500,-80.57,127.4
78951,2018-06-29 09:25:59.218750,20.91,127.4
78952,2018-06-29 09:25:59.250000,77.75,127.4
78953,2018-06-29 09:25:59.281250,87.14,127.4
78954,2018-06-29 09:25:59.312500,73.8,127.4
78955,2018-06-29 09:25:59.343750,59.34,127.4
78956,2018-06-29 09:25:59.375000,45.77,127.4
78957,2018-06-29 09:25:59.406250,30.12,127.4
78958,2018-06-29 09:25:59.437500,11.95,127.4
78959,2018-06-29 09:25:59.468750,-11.9,127.4
78960,2018-06-29 09:25:59.500000,-43.54,127.4
78961,2018-06-29 09:25:59.531250,-80.3,126.97
78962,2018-06-29 09:25:59.562500,-120.37,126.97
78963,2018-06-29 09:25:59.593750,-156.41,126.97
78964,2018-06-29 09:25:59.625000,-164.09,126.97
78965,2018-06-29 09:25:59.656250,-121.21,126.97
78966,2018-06-29 09:25:59.687500,-34.54,126.97
78967,2018-06-29 09:25:59.718750,67.11,126.97
78968,2018-06-29 09:25:59.750000,152.55,126.97
78969,2018-06-29 09:25:59.781250,196.35,126.97
78970,2018-06-29 09:25:59.812500,192.06,126.97
78971,2018-06-29 09:25:59.843750,161.18,126.97
78972,2018-06-29 09:25:59.875000,131.63,126.97
78973,2018-06-29 09:25:59.906250,111.31,126.97
78974,2018-06-29 09:25:59.937500,91.16,126.97
78975,2018-06-29 09:25:59.968750,63.55,126.97
78976,2018-06-29 09:26:00.000000,30.45,126.97
78977,2018-06-29 09:26:00.031250,-2.28,126.97
78978,2018-06-29 09:26:00.062500,-33.87,126.97
78979,2018-06-29 09:26:00.093750,-70.7,126.97
78980,2018-06-29 09:26:00.125000,-118.48,126.97
78981,2018-06-29 09:26:00.156250,-165.21,126.97
78982,2018-06-29 09:26:00.187500,-178.59,126.97
78983,2018-06-29 09:26:00.218750,-136.11,126.97
78984,2018-06-29 09:26:00.250000,-51.4,126.97
78985,2018-06-29 09:26:00.281250,39.6,126.97
78986,2018-06-29 09:26:00.312500,107.04,126.97
78987,2018-06-29 09:26:00.343750,137.08,126.97
78988,2018-06-29 09:26:00.375000,133.03,126.97
78989,2018-06-29 09:26:00.406250,114.42,126.97
78990,2018-06-29 09:26:00.437500,102.7,126.97
78991,2018-06-29 09:26:00.468750,102.67,126.97
78992,2018-06-29 09:26:00.500000,102.83,126.97
78993,2018-06-29 09:26:00.531250,93.64,126.48
78994,2018-06-29 09:26:00.562500,79.04,126.48
78995,2018-06-29 09:26:00.593750,66.46,126.48
78996,2018-06-29 09:26:00.625000,54.13,126.48
78997,2018-06-29 09:26:00.656250,32.84,126.48
78998,2018-06-29 09:26:00.687500,-3.12,126.48
78999,2018-06-29 09:26:00.718750,-40.85,126.48
79000,2018-06-29 09:26:00.750000,-45.19,126.48
79001,2018-06-29 09:26:00.781250,7.59,126.48
79002,2018-06-29 09:26:00.812500,94.0,126.48
79003,2018-06-29 09:26:00.843750,167.59,126.48
79004,2018-06-29 09:26:00.875000,207.91,126.48
79005,2018-06-29 09:26:00.906250,218.43,126.48
79006,2018-06-29 09:26:00.937500,200.16,126.48
79007,2018-06-29 09:26:00.968750,159.09,126.48
79008,2018-06-29 09:26:01.000000,116.3,126.48
79009,2018-06-29 09:26:01.031250,85.48,126.48
79010,2018-06-29 09:26:01.062500,57.12,126.48
79011,2018-06-29 09:26:01.093750,19.5,126.48
79012,2018-06-29 09:26:01.125000,-20.59,126.48
79013,2018-06-29 09:26:01.156250,-50.62,126.48
79014,2018-06-29 09:26:01.187500,-72.86,126.48
79015,2018-06-29 09:26:01.218750,-100.14,126.48
79016,2018-06-29 09:26:01.250000,-139.53,126.48
79017,2018-06-29 09:26:01.281250,-180.97,126.48
79018,2018-06-29 09:26:01.312500,-193.3,126.48
79019,2018-06-29 09:26:01.343750,-147.29,126.48
79020,2018-06-29 09:26:01.375000,-54.85,126.48
79021,2018-06-29 09:26:01.406250,37.01,126.48
79022,2018-06-29 09:26:01.437500,96.67,126.48
79023,2018-06-29 09:26:01.468750,124.07,126.48
79024,2018-06-29 09:26:01.500000,124.0,126.48
79025,2018-06-29 09:26:01.531250,100.55,126.02
79026,2018-06-29 09:26:01.562500,71.23,126.02
79027,2018-06-29 09:26:01.593750,54.74,126.02
79028,2018-06-29 09:26:01.625000,47.43,126.02
79029,2018-06-29 09:26:01.656250,31.42,126.02
79030,2018-06-29 09:26:01.687500,2.61,126.02
79031,2018-06-29 09:26:01.718750,-25.43,126.02
79032,2018-06-29 09:26:01.750000,-44.24,126.02
79033,2018-06-29 09:26:01.781250,-61.63,126.02
79034,2018-06-29 09:26:01.812500,-88.34,126.02
79035,2018-06-29 09:26:01.843750,-124.12,126.02
79036,2018-06-29 09:26:01.875000,-151.71,126.02
79037,2018-06-29 09:26:01.906250,-140.59,126.02
79038,2018-06-29 09:26:01.937500,-75.4,126.02
79039,2018-06-29 09:26:01.968750,17.76,126.02
79040,2018-06-29 09:26:02.000000,94.61,126.02
79041,2018-06-29 09:26:02.031250,135.27,126.02
79042,2018-06-29 09:26:02.062500,142.85,126.02
79043,2018-06-29 09:26:02.093750,121.3,126.02
79044,2018-06-29 09:26:02.125000,80.39,126.02
79045,2018-06-29 09:26:02.156250,41.99,126.02
79046,2018-06-29 09:26:02.187500,18.42,126.02
79047,2018-06-29 09:26:02.218750,-0.88,126.02
79048,2018-06-29 09:26:02.250000,-28.47,126.02
79049,2018-06-29 09:26:02.281250,-58.14,126.02
79050,2018-06-29 09:26:02.312500,-76.93,126.02
79051,2018-06-29 09:26:02.343750,-86.45,126.02
79052,2018-06-29 09:26:02.375000,-100.23,126.02
79053,2018-06-29 09:26:02.406250,-127.25,126.02
79054,2018-06-29 09:26:02.437500,-158.57,126.02
79055,2018-06-29 09:26:02.468750,-162.59,126.02
79056,2018-06-29 09:26:02.500000,-110.5,126.02
79057,2018-06-29 09:26:02.531250,-17.36,125.55
79058,2018-06-29 09:26:02.562500,66.8,125.55
79059,2018-06-29 09:26:02.593750,111.22,125.55
79060,2018-06-29 09:26:02.625000,120.16,125.55
79061,2018-06-29 09:26:02.656250,103.67,125.55
79062,2018-06-29 09:26:02.687500,69.99,125.55
79063,2018-06-29 09:26:02.718750,37.38,125.55
79064,2018-06-29 09:26:02.750000,20.66,125.55
79065,2018-06-29 09:26:02.781250,12.1,125.55
79066,2018-06-29 09:26:02.812500,-5.34,125.55
79067,2018-06-29 09:26:02.843750,-31.09,125.55
79068,2018-06-29 09:26:02.875000,-49.72,125.55
79069,2018-06-29 09:26:02.906250,-55.92,125.55
79070,2018-06-29 09:26:02.937500,-61.04,125.55
79071,2018-06-29 09:26:02.968750,-78.03,125.55
79072,2018-06-29 09:26:03.000000,-108.85,125.55
79073,2018-06-29 09:26:03.031250,-133.9,125.55
79074,2018-06-29 09:26:03.062500,-115.01,125.55
79075,2018-06-29 09:26:03.093750,-35.59,125.55
79076,2018-06-29 09:26:03.125000,68.57,125.55
79077,2018-06-29 09:26:03.156250,145.47,125.55
79078,2018-06-29 09:26:03.187500,177.74,125.55
79079,2018-06-29 09:26:03.218750,176.87,125.55
79080,2018-06-29 09:26:03.250000,154.67,125.55
79081,2018-06-29 09:26:03.281250,122.33,125.55
79082,2018-06-29 09:26:03.312500,94.92,125.55
79083,2018-06-29 09:26:03.343750,80.75,125.55
79084,2018-06-29 09:26:03.375000,74.47,125.55
79085,2018-06-29 09:26:03.406250,64.36,125.55
79086,2018-06-29 09:26:03.437500,44.73,125.55
79087,2018-06-29 09:26:03.468750,20.76,125.55
79088,2018-06-29 09:26:03.500000,0.47,125.55
79089,2018-06-29 09:26:03.531250,-16.24,125.07
79090,2018-06-29 09:26:03.562500,-36.54,125.07
79091,2018-06-29 09:26:03.593750,-66.38,125.07
79092,2018-06-29 09:26:03.625000,-100.27,125.07
79093,2018-06-29 09:26:03.656250,-108.44,125.07
79094,2018-06-29 09:26:03.687500,-52.89,125.07
79095,2018-06-29 09:26:03.718750,62.74,125.07
79096,2018-06-29 09:26:03.750000,182.67,125.07
79097,2018-06-29 09:26:03.781250,256.3,125.07
79098,2018-06-29 09:26:03.812500,278.74,125.07
79099,2018-06-29 09:26:03.843750,267.43,125.07
79100,2018-06-29 09:26:03.875000,232.54,125.07
79101,2018-06-29 09:26:03.906250,180.13,125.07
79102,2018-06-29 09:26:03.937500,121.88,125.07
79103,2018-06-29 09:26:03.968750,69.14,125.07
79104,2018-06-29 09:26:04.000000,22.29,125.07
79105,2018-06-29 09:26:04.031250,-22.5,125.07
79106,2018-06-29 09:26:04.062500,-58.06,125.07
79107,2018-06-29 09:26:04.093750,-75.47,125.07
79108,2018-06-29 09:26:04.125000,-87.89,125.07
79109,2018-06-29 09:26:04.156250,-122.38,125.07
79110,2018-06-29 09:26:04.187500,-184.85,125.07
79111,2018-06-29 09:26:04.218750,-249.94,125.07
79112,2018-06-29 09:26:04.250000,-282.74,125.07
79113,2018-06-29 09:26:04.281250,-263.81,125.07
79114,2018-06-29 09:26:04.312500,-203.66,125.07
79115,2018-06-29 09:26:04.343750,-136.01,125.07
79116,2018-06-29 09:26:04.375000,-87.81,125.07
79117,2018-06-29 09:26:04.406250,-61.78,125.07
79118,2018-06-29 09:26:04.437500,-50.73,125.07
79119,2018-06-29 09:26:04.468750,-50.12,125.07
79120,2018-06-29 09:26:04.500000,-51.86,125.07
79121,2018-06-29 09:26:04.531250,-46.5,124.6
79122,2018-06-29 09:26:04.562500,-36.11,124.6
79123,2018-06-29 09:26:04.593750,-30.91,124.6
79124,2018-06-29 09:26:04.625000,-30.49,124.6
79125,2018-06-29 09:26:04.656250,-21.59,124.6
79126,2018-06-29 09:26:04.687500,-3.77,124.6
79127,2018-06-29 09:26:04.718750,-1.77,124.6
79128,2018-06-29 09:26:04.750000,-36.52,124.6
79129,2018-06-29 09:26:04.781250,-98.62,124.6
79130,2018-06-29 09:26:04.812500,-159.42,124.6
79131,2018-06-29 09:26:04.843750,-188.91,124.6
79132,2018-06-29 09:26:04.875000,-167.61,124.6
79133,2018-06-29 09:26:04.906250,-106.9,124.6
79134,2018-06-29 09:26:04.937500,-44.93,124.6
79135,2018-06-29 09:26:04.968750,-5.1,124.6
79136,2018-06-29 09:26:05.000000,17.53,124.6
79137,2018-06-29 09:26:05.031250,26.69,124.6
79138,2018-06-29 09:26:05.062500,17.86,124.6
79139,2018-06-29 09:26:05.093750,0.01,124.6
79140,2018-06-29 09:26:05.125000,-7.27,124.6
79141,2018-06-29 09:26:05.156250,2.21,124.6
79142,2018-06-29 09:26:05.187500,19.04,124.6
79143,2018-06-29 09:26:05.218750,36.84,124.6
79144,2018-06-29 09:26:05.250000,57.49,124.6
79145,2018-06-29 09:26:05.281250,78.57,124.6
79146,2018-06-29 09:26:05.312500,88.29,124.6
79147,2018-06-29 09:26:05.343750,76.82,124.6
79148,2018-06-29 09:26:05.375000,48.94,124.6
79149,2018-06-29 09:26:05.406250,27.77,124.6
79150,2018-06-29 09:26:05.437500,40.61,124.6
79151,2018-06-29 09:26:05.468750,89.14,124.6
79152,2018-06-29 09:26:05.500000,142.71,124.6
79153,2018-06-29 09:26:05.531250,171.46,124.15
79154,2018-06-29 09:26:05.562500,169.82,124.15
79155,2018-06-29 09:26:05.593750,141.86,124.15
79156,2018-06-29 09:26:05.625000,90.19,124.15
79157,2018-06-29 09:26:05.656250,27.33,124.15
79158,2018-06-29 09:26:05.687500,-27.14,124.15
79159,2018-06-29 09:26:05.718750,-67.43,124.15
79160,2018-06-29 09:26:05.750000,-102.06,124.15
79161,2018-06-29 09:26:05.781250,-132.87,124.15
79162,2018-06-29 09:26:05.812500,-150.47,124.15
79163,2018-06-29 09:26:05.843750,-152.15,124.15
79164,2018-06-29 09:26:05.875000,-149.46,124.15
79165,2018-06-29 09:26:05.906250,-155.45,124.15
79166,2018-06-29 09:26:05.937500,-173.07,124.15
79167,2018-06-29 09:26:05.968750,-188.5,124.15
79168,2018-06-29 09:26:06.000000,-172.8,124.15
79169,2018-06-29 09:26:06.031250,-108.87,124.15
79170,2018-06-29 09:26:06.062500,-18.12,124.15
79171,2018-06-29 09:26:06.093750,59.72,124.15
79172,2018-06-29 09:26:06.125000,106.14,124.15
79173,2018-06-29 09:26:06.156250,123.72,124.15
79174,2018-06-29 09:26:06.187500,115.91,124.15
79175,2018-06-29 09:26:06.218750,88.58,124.15
79176,2018-06-29 09:26:06.250000,56.76,124.15
79177,2018-06-29 09:26:06.281250,32.48,124.15
79178,2018-06-29 09:26:06.312500,14.31,124.15
79179,2018-06-29 09:26:06.343750,-4.18,124.15
79180,2018-06-29 09:26:06.375000,-21.97,124.15
79181,2018-06-29 09:26:06.406250,-33.68,124.15
79182,2018-06-29 09:26:06.437500,-41.0,124.15
79183,2018-06-29 09:26:06.468750,-52.9,124.15
79184,2018-06-29 09:26:06.500000,-76.77,124.15
79185,2018-06-29 09:26:06.531250,-113.12,123.68
79186,2018-06-29 09:26:06.562500,-147.1,123.68
79187,2018-06-29 09:26:06.593750,-145.95,123.68
79188,2018-06-29 09:26:06.625000,-89.85,123.68
79189,2018-06-29 09:26:06.656250,-3.28,123.68
79190,2018-06-29 09:26:06.687500,70.29,123.68
79191,2018-06-29 09:26:06.718750,112.97,123.68
79192,2018-06-29 09:26:06.750000,128.26,123.68
79193,2018-06-29 09:26:06.781250,118.17,123.68
79194,2018-06-29 09:26:06.812500,89.76,123.68
79195,2018-06-29 09:26:06.843750,62.75,123.68
79196,2018-06-29 09:26:06.875000,51.36,123.68
79197,2018-06-29 09:26:06.906250,51.13,123.68
79198,2018-06-29 09:26:06.937500,52.22,123.68
79199,2018-06-29 09:26:06.968750,55.48,123.68
79200,2018-06-29 09:26:07.000000,65.1,123.68
79201,2018-06-29 09:26:07.031250,73.11,123.68
79202,2018-06-29 09:26:07.062500,64.84,123.68
79203,2018-06-29 09:26:07.093750,35.7,123.68
79204,2018-06-29 09:26:07.125000,-4.25,123.68
79205,2018-06-29 09:26:07.156250,-32.19,123.68
79206,2018-06-29 09:26:07.187500,-23.86,123.68
79207,2018-06-29 09:26:07.218750,18.78,123.68
79208,2018-06-29 09:26:07.250000,62.26,123.68
79209,2018-06-29 09:26:07.281250,80.37,123.68
79210,2018-06-29 09:26:07.312500,78.72,123.68
79211,2018-06-29 09:26:07.343750,70.11,123.68
79212,2018-06-29 09:26:07.375000,53.69,123.68
79213,2018-06-29 09:26:07.406250,31.19,123.68
79214,2018-06-29 09:26:07.437500,17.45,123.68
79215,2018-06-29 09:26:07.468750,20.75,123.68
79216,2018-06-29 09:26:07.500000,29.87,123.68
79217,2018-06-29 09:26:07.531250,31.72,123.22
79218,2018-06-29 09:26:07.562500,28.62,123.22
79219,2018-06-29 09:26:07.593750,27.26,123.22
79220,2018-06-29 09:26:07.625000,22.61,123.22
79221,2018-06-29 09:26:07.656250,3.42,123.22
79222,2018-06-29 09:26:07.687500,-34.43,123.22
79223,2018-06-29 09:26:07.718750,-82.71,123.22
79224,2018-06-29 09:26:07.750000,-117.9,123.22
79225,2018-06-29 09:26:07.781250,-112.55,123.22
79226,2018-06-29 09:26:07.812500,-65.98,123.22
79227,2018-06-29 09:26:07.843750,-11.45,123.22
79228,2018-06-29 09:26:07.875000,22.76,123.22
79229,2018-06-29 09:26:07.906250,40.15,123.22
79230,2018-06-29 09:26:07.937500,54.87,123.22
79231,2018-06-29 09:26:07.968750,66.08,123.22
79232,2018-06-29 09:26:08.000000,66.19,123.22
79233,2018-06-29 09:26:08.031250,55.69,123.22
79234,2018-06-29 09:26:08.062500,40.58,123.22
79235,2018-06-29 09:26:08.093750,23.43,123.22
79236,2018-06-29 09:26:08.125000,6.03,123.22
79237,2018-06-29 09:26:08.156250,-7.24,123.22
79238,2018-06-29 09:26:08.187500,-15.55,123.22
79239,2018-06-29 09:26:08.218750,-26.99,123.22
79240,2018-06-29 09:26:08.250000,-51.46,123.22
79241,2018-06-29 09:26:08.281250,-90.88,123.22
79242,2018-06-29 09:26:08.312500,-129.47,123.22
79243,2018-06-29 09:26:08.343750,-136.46,123.22
79244,2018-06-29 09:26:08.375000,-95.44,123.22
79245,2018-06-29 09:26:08.406250,-28.98,123.22
79246,2018-06-29 09:26:08.437500,24.88,123.22
79247,2018-06-29 09:26:08.468750,53.13,123.22
79248,2018-06-29 09:26:08.500000,66.53,123.22
79249,2018-06-29 09:26:08.531250,70.6,122.75
79250,2018-06-29 09:26:08.562500,60.3,122.75
79251,2018-06-29 09:26:08.593750,36.67,122.75
79252,2018-06-29 09:26:08.625000,12.82,122.75
79253,2018-06-29 09:26:08.656250,0.77,122.75
79254,2018-06-29 09:26:08.687500,0.0,122.75
79255,2018-06-29 09:26:08.718750,4.85,122.75
79256,2018-06-29 09:26:08.750000,13.19,122.75
79257,2018-06-29 09:26:08.781250,21.35,122.75
79258,2018-06-29 09:26:08.812500,20.68,122.75
79259,2018-06-29 09:26:08.843750,6.03,122.75
79260,2018-06-29 09:26:08.875000,-21.62,122.75
79261,2018-06-29 09:26:08.906250,-55.45,122.75
79262,2018-06-29 09:26:08.937500,-74.89,122.75
79263,2018-06-29 09:26:08.968750,-56.05,122.75
79264,2018-06-29 09:26:09.000000,-2.86,122.75
79265,2018-06-29 09:26:09.031250,51.78,122.75
79266,2018-06-29 09:26:09.062500,82.42,122.75
79267,2018-06-29 09:26:09.093750,87.62,122.75
79268,2018-06-29 09:26:09.125000,73.0,122.75
79269,2018-06-29 09:26:09.156250,42.87,122.75
79270,2018-06-29 09:26:09.187500,7.76,122.75
79271,2018-06-29 09:26:09.218750,-18.66,122.75
79272,2018-06-29 09:26:09.250000,-31.65,122.75
79273,2018-06-29 09:26:09.281250,-37.17,122.75
79274,2018-06-29 09:26:09.312500,-41.57,122.75
79275,2018-06-29 09:26:09.343750,-45.8,122.75
79276,2018-06-29 09:26:09.375000,-49.28,122.75
79277,2018-06-29 09:26:09.406250,-54.63,122.75
79278,2018-06-29 09:26:09.437500,-65.44,122.75
79279,2018-06-29 09:26:09.468750,-83.86,122.75
79280,2018-06-29 09:26:09.500000,-110.75,122.75
79281,2018-06-29 09:26:09.531250,-136.42,122.25
79282,2018-06-29 09:26:09.562500,-132.61,122.25
79283,2018-06-29 09:26:09.593750,-78.36,122.25
79284,2018-06-29 09:26:09.625000,5.68,122.25
79285,2018-06-29 09:26:09.656250,75.83,122.25
79286,2018-06-29 09:26:09.687500,113.12,122.25
79287,2018-06-29 09:26:09.718750,125.38,122.25
79288,2018-06-29 09:26:09.750000,117.63,122.25
79289,2018-06-29 09:26:09.781250,91.66,122.25
79290,2018-06-29 09:26:09.812500,61.76,122.25
79291,2018-06-29 09:26:09.843750,43.81,122.25
79292,2018-06-29 09:26:09.875000,35.88,122.25
79293,2018-06-29 09:26:09.906250,25.61,122.25
79294,2018-06-29 09:26:09.937500,11.13,122.25
79295,2018-06-29 09:26:09.968750,1.2,122.25
79296,2018-06-29 09:26:10.000000,-2.43,122.25
79297,2018-06-29 09:26:10.031250,-9.17,122.25
79298,2018-06-29 09:26:10.062500,-26.7,122.25
79299,2018-06-29 09:26:10.093750,-54.53,122.25
79300,2018-06-29 09:26:10.125000,-83.32,122.25
79301,2018-06-29 09:26:10.156250,-90.16,122.25
79302,2018-06-29 09:26:10.187500,-52.33,122.25
79303,2018-06-29 09:26:10.218750,21.99,122.25
79304,2018-06-29 09:26:10.250000,95.67,122.25
79305,2018-06-29 09:26:10.281250,141.55,122.25
79306,2018-06-29 09:26:10.312500,158.27,122.25
79307,2018-06-29 09:26:10.343750,149.73,122.25
79308,2018-06-29 09:26:10.375000,117.14,122.25
79309,2018-06-29 09:26:10.406250,71.4,122.25
79310,2018-06-29 09:26:10.437500,31.4,122.25
79311,2018-06-29 09:26:10.468750,6.22,122.25
79312,2018-06-29 09:26:10.500000,-11.26,122.25
79313,2018-06-29 09:26:10.531250,-31.91,121.73
79314,2018-06-29 09:26:10.562500,-57.82,121.73
79315,2018-06-29 09:26:10.593750,-82.81,121.73
79316,2018-06-29 09:26:10.625000,-100.93,121.73
79317,2018-06-29 09:26:10.656250,-111.91,121.73
79318,2018-06-29 09:26:10.687500,-120.81,121.73
79319,2018-06-29 09:26:10.718750,-135.64,121.73
79320,2018-06-29 09:26:10.750000,-155.52,121.73
79321,2018-06-29 09:26:10.781250,-156.36,121.73
79322,2018-06-29 09:26:10.812500,-108.13,121.73
79323,2018-06-29 09:26:10.843750,-14.61,121.73
79324,2018-06-29 09:26:10.875000,84.28,121.73
79325,2018-06-29 09:26:10.906250,152.8,121.73
79326,2018-06-29 09:26:10.937500,181.9,121.73
79327,2018-06-29 09:26:10.968750,178.28,121.73
79328,2018-06-29 09:26:11.000000,153.6,121.73
79329,2018-06-29 09:26:11.031250,120.35,121.73
79330,2018-06-29 09:26:11.062500,86.01,121.73
79331,2018-06-29 09:26:11.093750,53.26,121.73
79332,2018-06-29 09:26:11.125000,24.13,121.73
79333,2018-06-29 09:26:11.156250,-1.71,121.73
79334,2018-06-29 09:26:11.187500,-26.46,121.73
79335,2018-06-29 09:26:11.218750,-49.1,121.73
79336,2018-06-29 09:26:11.250000,-68.77,121.73
79337,2018-06-29 09:26:11.281250,-90.3,121.73
79338,2018-06-29 09:26:11.312500,-118.53,121.73
79339,2018-06-29 09:26:11.343750,-152.79,121.73
79340,2018-06-29 09:26:11.375000,-186.41,121.73
79341,2018-06-29 09:26:11.406250,-197.74,121.73
79342,2018-06-29 09:26:11.437500,-155.57,121.73
79343,2018-06-29 09:26:11.468750,-58.28,121.73
79344,2018-06-29 09:26:11.500000,50.26,121.73
79345,2018-06-29 09:26:11.531250,124.48,121.2
79346,2018-06-29 09:26:11.562500,155.9,121.2
79347,2018-06-29 09:26:11.593750,157.63,121.2
79348,2018-06-29 09:26:11.625000,138.85,121.2
79349,2018-06-29 09:26:11.656250,105.07,121.2
79350,2018-06-29 09:26:11.687500,64.93,121.2
79351,2018-06-29 09:26:11.718750,29.43,121.2
79352,2018-06-29 09:26:11.750000,7.05,121.2
79353,2018-06-29 09:26:11.781250,-3.17,121.2
79354,2018-06-29 09:26:11.812500,-12.13,121.2
79355,2018-06-29 09:26:11.843750,-29.52,121.2
79356,2018-06-29 09:26:11.875000,-54.91,121.2
79357,2018-06-29 09:26:11.906250,-81.42,121.2
79358,2018-06-29 09:26:11.937500,-102.77,121.2
79359,2018-06-29 09:26:11.968750,-117.59,121.2
79360,2018-06-29 09:26:12.000000,-132.37,121.2
79361,2018-06-29 09:26:12.031250,-149.18,121.2
79362,2018-06-29 09:26:12.062500,-143.82,121.2
79363,2018-06-29 09:26:12.093750,-81.51,121.2
79364,2018-06-29 09:26:12.125000,33.03,121.2
79365,2018-06-29 09:26:12.156250,149.48,121.2
79366,2018-06-29 09:26:12.187500,225.16,121.2
79367,2018-06-29 09:26:12.218750,255.46,121.2
79368,2018-06-29 09:26:12.250000,253.03,121.2
