,Time,ppg,hr
80000,2018-06-29 09:26:32.000000,-90.01,109.88
80001,2018-06-29 09:26:32.031250,-122.44,109.88
80002,2018-06-29 09:26:32.062500,-117.17,109.88
80003,2018-06-29 09:26:32.093750,-58.04,109.88
80004,2018-06-29 09:26:32.125000,32.34,109.88
80005,2018-06-29 09:26:32.156250,114.81,109.88
80006,2018-06-29 09:26:32.187500,169.31,109.88
80007,2018-06-29 09:26:32.218750,191.64,109.88
80008,2018-06-29 09:26:32.250000,190.66,109.88
80009,2018-06-29 09:26:32.281250,185.13,109.88
80010,2018-06-29 09:26:32.312500,201.26,109.88
80011,2018-06-29 09:26:32.343750,232.58,109.88
80012,2018-06-29 09:26:32.375000,254.76,109.88
80013,2018-06-29 09:26:32.406250,261.62,109.88
80014,2018-06-29 09:26:32.437500,272.03,109.88
80015,2018-06-29 09:26:32.468750,299.66,109.88
80016,2018-06-29 09:26:32.500000,322.91,109.88
80017,2018-06-29 09:26:32.531250,320.32,109.33
80018,2018-06-29 09:26:32.562500,218.0,109.33
80019,2018-06-29 09:26:32.593750,12.29,109.33
80020,2018-06-29 09:26:32.625000,-147.88,109.33
80021,2018-06-29 09:26:32.656250,-210.33,109.33
80022,2018-06-29 09:26:32.687500,-218.75,109.33
80023,2018-06-29 09:26:32.718750,-197.57,109.33
80024,2018-06-29 09:26:32.750000,-162.09,109.33
80025,2018-06-29 09:26:32.781250,-153.23,109.33
80026,2018-06-29 09:26:32.812500,-192.48,109.33
80027,2018-06-29 09:26:32.843750,-255.42,109.33
80028,2018-06-29 09:26:32.875000,-281.42,109.33
80029,2018-06-29 09:26:32.906250,-248.28,109.33
80030,2018-06-29 09:26:32.937500,-186.0,109.33
80031,2018-06-29 09:26:32.968750,-129.43,109.33
80032,2018-06-29 09:26:33.000000,-88.64,109.33
80033,2018-06-29 09:26:33.031250,-65.49,109.33
80034,2018-06-29 09:26:33.062500,-68.29,109.33
80035,2018-06-29 09:26:33.093750,-85.16,109.33
80036,2018-06-29 09:26:33.125000,-92.83,109.33
80037,2018-06-29 09:26:33.156250,-86.58,109.33
80038,2018-06-29 09:26:33.187500,-89.2,109.33
80039,2018-06-29 09:26:33.218750,-117.68,109.33
80040,2018-06-29 09:26:33.250000,-148.06,109.33
80041,2018-06-29 09:26:33.281250,-133.12,109.33
80042,2018-06-29 09:26:33.312500,-62.95,109.33
80043,2018-06-29 09:26:33.343750,17.76,109.33
80044,2018-06-29 09:26:33.375000,69.75,109.33
80045,2018-06-29 09:26:33.406250,96.09,109.33
80046,2018-06-29 09:26:33.437500,106.91,109.33
80047,2018-06-29 09:26:33.468750,94.88,109.33
80048,2018-06-29 09:26:33.500000,60.9,109.33
80049,2018-06-29 09:26:33.531250,24.79,108.8
80050,2018-06-29 09:26:33.562500,-1.68,108.8
80051,2018-06-29 09:26:33.593750,-25.82,108.8
80052,2018-06-29 09:26:33.625000,-54.02,108.8
80053,2018-06-29 09:26:33.656250,-81.16,108.8
80054,2018-06-29 09:26:33.687500,-101.32,108.8
80055,2018-06-29 09:26:33.718750,-115.06,108.8
80056,2018-06-29 09:26:33.750000,-124.71,108.8
80057,2018-06-29 09:26:33.781250,-131.84,108.8
80058,2018-06-29 09:26:33.812500,-142.13,108.8
80059,2018-06-29 09:26:33.843750,-164.42,108.8
80060,2018-06-29 09:26:33.875000,-191.24,108.8
80061,2018-06-29 09:26:33.906250,-188.01,108.8
80062,2018-06-29 09:26:33.937500,-126.69,108.8
80063,2018-06-29 09:26:33.968750,-25.47,108.8
80064,2018-06-29 09:26:34.000000,70.01,108.8
80065,2018-06-29 09:26:34.031250,134.09,108.8
80066,2018-06-29 09:26:34.062500,166.8,108.8
80067,2018-06-29 09:26:34.093750,172.93,108.8
80068,2018-06-29 09:26:34.125000,160.11,108.8
80069,2018-06-29 09:26:34.156250,141.71,108.8
80070,2018-06-29 09:26:34.187500,125.41,108.8
80071,2018-06-29 09:26:34.218750,108.05,108.8
80072,2018-06-29 09:26:34.250000,86.23,108.8
80073,2018-06-29 09:26:34.281250,63.41,108.8
80074,2018-06-29 09:26:34.312500,42.66,108.8
80075,2018-06-29 09:26:34.343750,20.06,108.8
80076,2018-06-29 09:26:34.375000,-8.12,108.8
80077,2018-06-29 09:26:34.406250,-36.3,108.8
80078,2018-06-29 09:26:34.437500,-55.93,108.8
80079,2018-06-29 09:26:34.468750,-68.27,108.8
80080,2018-06-29 09:26:34.500000,-83.81,108.8
80081,2018-06-29 09:26:34.531250,-108.47,108.27
80082,2018-06-29 09:26:34.562500,-128.91,108.27
80083,2018-06-29 09:26:34.593750,-117.1,108.27
80084,2018-06-29 09:26:34.625000,-60.42,108.27
80085,2018-06-29 09:26:34.656250,17.9,108.27
80086,2018-06-29 09:26:34.687500,81.18,108.27
80087,2018-06-29 09:26:34.718750,112.8,108.27
80088,2018-06-29 09:26:34.750000,117.25,108.27
80089,2018-06-29 09:26:34.781250,104.36,108.27
80090,2018-06-29 09:26:34.812500,85.48,108.27
80091,2018-06-29 09:26:34.843750,70.87,108.27
80092,2018-06-29 09:26:34.875000,60.64,108.27
80093,2018-06-29 09:26:34.906250,47.24,108.27
80094,2018-06-29 09:26:34.937500,29.41,108.27
80095,2018-06-29 09:26:34.968750,12.37,108.27
80096,2018-06-29 09:26:35.000000,-4.45,108.27
80097,2018-06-29 09:26:35.031250,-26.52,108.27
80098,2018-06-29 09:26:35.062500,-52.4,108.27
80099,2018-06-29 09:26:35.093750,-74.55,108.27
80100,2018-06-29 09:26:35.125000,-90.93,108.27
80101,2018-06-29 09:26:35.156250,-109.11,108.27
80102,2018-06-29 09:26:35.187500,-135.76,108.27
80103,2018-06-29 09:26:35.218750,-158.13,108.27
80104,2018-06-29 09:26:35.250000,-143.9,108.27
80105,2018-06-29 09:26:35.281250,-75.75,108.27
80106,2018-06-29 09:26:35.312500,21.78,108.27
80107,2018-06-29 09:26:35.343750,107.02,108.27
80108,2018-06-29 09:26:35.375000,161.33,108.27
80109,2018-06-29 09:26:35.406250,191.83,108.27
80110,2018-06-29 09:26:35.437500,211.43,108.27
80111,2018-06-29 09:26:35.468750,228.32,108.27
80112,2018-06-29 09:26:35.500000,242.63,108.27
80113,2018-06-29 09:26:35.531250,249.73,107.7
80114,2018-06-29 09:26:35.562500,250.22,107.7
80115,2018-06-29 09:26:35.593750,249.5,107.7
80116,2018-06-29 09:26:35.625000,244.88,107.7
80117,2018-06-29 09:26:35.656250,222.82,107.7
80118,2018-06-29 09:26:35.687500,172.8,107.7
80119,2018-06-29 09:26:35.718750,98.8,107.7
80120,2018-06-29 09:26:35.750000,15.38,107.7
80121,2018-06-29 09:26:35.781250,-66.18,107.7
80122,2018-06-29 09:26:35.812500,-147.06,107.7
80123,2018-06-29 09:26:35.843750,-233.85,107.7
80124,2018-06-29 09:26:35.875000,-319.62,107.7
80125,2018-06-29 09:26:35.906250,-373.18,107.7
80126,2018-06-29 09:26:35.937500,-360.46,107.7
80127,2018-06-29 09:26:35.968750,-283.28,107.7
80128,2018-06-29 09:26:36.000000,-182.73,107.7
80129,2018-06-29 09:26:36.031250,-100.06,107.7
80130,2018-06-29 09:26:36.062500,-50.99,107.7
80131,2018-06-29 09:26:36.093750,-33.86,107.7
80132,2018-06-29 09:26:36.125000,-37.1,107.7
80133,2018-06-29 09:26:36.156250,-39.94,107.7
80134,2018-06-29 09:26:36.187500,-26.3,107.7
80135,2018-06-29 09:26:36.218750,2.04,107.7
80136,2018-06-29 09:26:36.250000,33.67,107.7
80137,2018-06-29 09:26:36.281250,62.19,107.7
80138,2018-06-29 09:26:36.312500,86.78,107.7
80139,2018-06-29 09:26:36.343750,104.52,107.7
80140,2018-06-29 09:26:36.375000,111.95,107.7
80141,2018-06-29 09:26:36.406250,112.67,107.7
80142,2018-06-29 09:26:36.437500,113.86,107.7
80143,2018-06-29 09:26:36.468750,114.24,107.7
80144,2018-06-29 09:26:36.500000,101.79,107.7
80145,2018-06-29 09:26:36.531250,66.84,107.1
80146,2018-06-29 09:26:36.562500,21.83,107.1
80147,2018-06-29 09:26:36.593750,1.72,107.1
80148,2018-06-29 09:26:36.625000,27.96,107.1
80149,2018-06-29 09:26:36.656250,79.58,107.1
80150,2018-06-29 09:26:36.687500,119.09,107.1
80151,2018-06-29 09:26:36.718750,132.07,107.1
80152,2018-06-29 09:26:36.750000,123.25,107.1
80153,2018-06-29 09:26:36.781250,97.92,107.1
80154,2018-06-29 09:26:36.812500,67.22,107.1
80155,2018-06-29 09:26:36.843750,48.68,107.1
80156,2018-06-29 09:26:36.875000,46.55,107.1
80157,2018-06-29 09:26:36.906250,47.97,107.1
80158,2018-06-29 09:26:36.937500,42.59,107.1
80159,2018-06-29 09:26:36.968750,30.42,107.1
80160,2018-06-29 09:26:37.000000,10.58,107.1
80161,2018-06-29 09:26:37.031250,-21.34,107.1
80162,2018-06-29 09:26:37.062500,-63.57,107.1
80163,2018-06-29 09:26:37.093750,-107.09,107.1
80164,2018-06-29 09:26:37.125000,-145.64,107.1
80165,2018-06-29 09:26:37.156250,-180.82,107.1
80166,2018-06-29 09:26:37.187500,-219.06,107.1
80167,2018-06-29 09:26:37.218750,-263.02,107.1
80168,2018-06-29 09:26:37.250000,-295.18,107.1
80169,2018-06-29 09:26:37.281250,-279.37,107.1
80170,2018-06-29 09:26:37.312500,-201.92,107.1
80171,2018-06-29 09:26:37.343750,-99.51,107.1
80172,2018-06-29 09:26:37.375000,-21.68,107.1
80173,2018-06-29 09:26:37.406250,17.72,107.1
80174,2018-06-29 09:26:37.437500,32.28,107.1
80175,2018-06-29 09:26:37.468750,33.34,107.1
80176,2018-06-29 09:26:37.500000,28.81,107.1
80177,2018-06-29 09:26:37.531250,28.04,106.5
80178,2018-06-29 09:26:37.562500,32.34,106.5
80179,2018-06-29 09:26:37.593750,34.09,106.5
80180,2018-06-29 09:26:37.625000,30.72,106.5
80181,2018-06-29 09:26:37.656250,27.5,106.5
80182,2018-06-29 09:26:37.687500,22.96,106.5
80183,2018-06-29 09:26:37.718750,4.6,106.5
80184,2018-06-29 09:26:37.750000,-33.17,106.5
80185,2018-06-29 09:26:37.781250,-76.8,106.5
80186,2018-06-29 09:26:37.812500,-107.86,106.5
80187,2018-06-29 09:26:37.843750,-123.94,106.5
80188,2018-06-29 09:26:37.875000,-139.64,106.5
80189,2018-06-29 09:26:37.906250,-171.11,106.5
80190,2018-06-29 09:26:37.937500,-218.93,106.5
80191,2018-06-29 09:26:37.968750,-257.63,106.5
80192,2018-06-29 09:26:38.000000,-251.34,106.5
80193,2018-06-29 09:26:38.031250,-192.9,106.5
80194,2018-06-29 09:26:38.062500,-114.3,106.5
80195,2018-06-29 09:26:38.093750,-49.69,106.5
80196,2018-06-29 09:26:38.125000,-7.74,106.5
80197,2018-06-29 09:26:38.156250,16.9,106.5
80198,2018-06-29 09:26:38.187500,31.44,106.5
80199,2018-06-29 09:26:38.218750,48.12,106.5
80200,2018-06-29 09:26:38.250000,75.62,106.5
80201,2018-06-29 09:26:38.281250,104.92,106.5
80202,2018-06-29 09:26:38.312500,119.42,106.5
80203,2018-06-29 09:26:38.343750,118.15,106.5
80204,2018-06-29 09:26:38.375000,114.82,106.5
80205,2018-06-29 09:26:38.406250,114.49,106.5
80206,2018-06-29 09:26:38.437500,106.16,106.5
80207,2018-06-29 09:26:38.468750,81.04,106.5
80208,2018-06-29 09:26:38.500000,44.55,106.5
80209,2018-06-29 09:26:38.531250,6.06,105.87
80210,2018-06-29 09:26:38.562500,-33.12,105.87
80211,2018-06-29 09:26:38.593750,-76.86,105.87
80212,2018-06-29 09:26:38.625000,-123.98,105.87
80213,2018-06-29 09:26:38.656250,-159.22,105.87
80214,2018-06-29 09:26:38.687500,-157.56,105.87
80215,2018-06-29 09:26:38.718750,-107.17,105.87
80216,2018-06-29 09:26:38.750000,-25.65,105.87
80217,2018-06-29 09:26:38.781250,54.44,105.87
80218,2018-06-29 09:26:38.812500,110.43,105.87
80219,2018-06-29 09:26:38.843750,136.53,105.87
80220,2018-06-29 09:26:38.875000,138.34,105.87
80221,2018-06-29 09:26:38.906250,127.71,105.87
80222,2018-06-29 09:26:38.937500,115.86,105.87
80223,2018-06-29 09:26:38.968750,106.32,105.87
80224,2018-06-29 09:26:39.000000,96.17,105.87
80225,2018-06-29 09:26:39.031250,84.58,105.87
80226,2018-06-29 09:26:39.062500,74.79,105.87
80227,2018-06-29 09:26:39.093750,65.67,105.87
80228,2018-06-29 09:26:39.125000,50.6,105.87
80229,2018-06-29 09:26:39.156250,29.71,105.87
80230,2018-06-29 09:26:39.187500,12.76,105.87
80231,2018-06-29 09:26:39.218750,4.86,105.87
80232,2018-06-29 09:26:39.250000,-1.25,105.87
80233,2018-06-29 09:26:39.281250,-16.24,105.87
80234,2018-06-29 09:26:39.312500,-42.63,105.87
80235,2018-06-29 09:26:39.343750,-65.91,105.87
80236,2018-06-29 09:26:39.375000,-59.08,105.87
80237,2018-06-29 09:26:39.406250,-10.84,105.87
80238,2018-06-29 09:26:39.437500,56.08,105.87
80239,2018-06-29 09:26:39.468750,108.21,105.87
80240,2018-06-29 09:26:39.500000,131.3,105.87
80241,2018-06-29 09:26:39.531250,128.21,105.22
80242,2018-06-29 09:26:39.562500,107.7,105.22
80243,2018-06-29 09:26:39.593750,85.13,105.22
80244,2018-06-29 09:26:39.625000,75.76,105.22
80245,2018-06-29 09:26:39.656250,79.78,105.22
80246,2018-06-29 09:26:39.687500,85.09,105.22
80247,2018-06-29 09:26:39.718750,85.58,105.22
80248,2018-06-29 09:26:39.750000,84.54,105.22
80249,2018-06-29 09:26:39.781250,80.79,105.22
80250,2018-06-29 09:26:39.812500,66.23,105.22
80251,2018-06-29 09:26:39.843750,39.25,105.22
80252,2018-06-29 09:26:39.875000,8.6,105.22
80253,2018-06-29 09:26:39.906250,-18.7,105.22
80254,2018-06-29 09:26:39.937500,-44.75,105.22
80255,2018-06-29 09:26:39.968750,-75.27,105.22
80256,2018-06-29 09:26:40.000000,-110.59,105.22
80257,2018-06-29 09:26:40.031250,-136.27,105.22
80258,2018-06-29 09:26:40.062500,-127.59,105.22
80259,2018-06-29 09:26:40.093750,-77.16,105.22
80260,2018-06-29 09:26:40.125000,-10.14,105.22
80261,2018-06-29 09:26:40.156250,41.29,105.22
80262,2018-06-29 09:26:40.187500,65.06,105.22
80263,2018-06-29 09:26:40.218750,64.24,105.22
80264,2018-06-29 09:26:40.250000,46.64,105.22
80265,2018-06-29 09:26:40.281250,25.87,105.22
80266,2018-06-29 09:26:40.312500,13.86,105.22
80267,2018-06-29 09:26:40.343750,9.22,105.22
80268,2018-06-29 09:26:40.375000,3.64,105.22
80269,2018-06-29 09:26:40.406250,-4.53,105.22
80270,2018-06-29 09:26:40.437500,-12.35,105.22
80271,2018-06-29 09:26:40.468750,-22.13,105.22
80272,2018-06-29 09:26:40.500000,-38.5,105.22
80273,2018-06-29 09:26:40.531250,-58.54,104.55
80274,2018-06-29 09:26:40.562500,-74.37,104.55
80275,2018-06-29 09:26:40.593750,-84.29,104.55
80276,2018-06-29 09:26:40.625000,-95.46,104.55
80277,2018-06-29 09:26:40.656250,-115.37,104.55
80278,2018-06-29 09:26:40.687500,-136.96,104.55
80279,2018-06-29 09:26:40.718750,-133.5,104.55
80280,2018-06-29 09:26:40.750000,-83.85,104.55
80281,2018-06-29 09:26:40.781250,-3.58,104.55
80282,2018-06-29 09:26:40.812500,68.53,104.55
80283,2018-06-29 09:26:40.843750,110.33,104.55
80284,2018-06-29 09:26:40.875000,123.56,104.55
80285,2018-06-29 09:26:40.906250,115.52,104.55
80286,2018-06-29 09:26:40.937500,96.32,104.55
80287,2018-06-29 09:26:40.968750,80.91,104.55
80288,2018-06-29 09:26:41.000000,75.49,104.55
80289,2018-06-29 09:26:41.031250,71.62,104.55
80290,2018-06-29 09:26:41.062500,61.87,104.55
80291,2018-06-29 09:26:41.093750,50.24,104.55
80292,2018-06-29 09:26:41.125000,41.4,104.55
80293,2018-06-29 09:26:41.156250,30.78,104.55
80294,2018-06-29 09:26:41.187500,12.56,104.55
80295,2018-06-29 09:26:41.218750,-9.63,104.55
80296,2018-06-29 09:26:41.250000,-27.71,104.55
80297,2018-06-29 09:26:41.281250,-41.11,104.55
80298,2018-06-29 09:26:41.312500,-57.61,104.55
80299,2018-06-29 09:26:41.343750,-82.46,104.55
80300,2018-06-29 09:26:41.375000,-106.22,104.55
80301,2018-06-29 09:26:41.406250,-104.27,104.55
80302,2018-06-29 09:26:41.437500,-59.72,104.55
80303,2018-06-29 09:26:41.468750,12.12,104.55
80304,2018-06-29 09:26:41.500000,76.72,104.55
80305,2018-06-29 09:26:41.531250,115.92,103.9
80306,2018-06-29 09:26:41.562500,133.99,103.9
80307,2018-06-29 09:26:41.593750,136.26,103.9
80308,2018-06-29 09:26:41.625000,123.53,103.9
80309,2018-06-29 09:26:41.656250,102.01,103.9
80310,2018-06-29 09:26:41.687500,81.7,103.9
80311,2018-06-29 09:26:41.718750,66.18,103.9
80312,2018-06-29 09:26:41.750000,52.6,103.9
80313,2018-06-29 09:26:41.781250,40.02,103.9
80314,2018-06-29 09:26:41.812500,30.9,103.9
80315,2018-06-29 09:26:41.843750,24.29,103.9
80316,2018-06-29 09:26:41.875000,14.09,103.9
80317,2018-06-29 09:26:41.906250,-3.4,103.9
80318,2018-06-29 09:26:41.937500,-24.14,103.9
80319,2018-06-29 09:26:41.968750,-41.71,103.9
80320,2018-06-29 09:26:42.000000,-54.84,103.9
80321,2018-06-29 09:26:42.031250,-67.18,103.9
80322,2018-06-29 09:26:42.062500,-83.62,103.9
80323,2018-06-29 09:26:42.093750,-106.49,103.9
80324,2018-06-29 09:26:42.125000,-125.91,103.9
80325,2018-06-29 09:26:42.156250,-117.79,103.9
80326,2018-06-29 09:26:42.187500,-68.47,103.9
80327,2018-06-29 09:26:42.218750,2.18,103.9
80328,2018-06-29 09:26:42.250000,58.54,103.9
80329,2018-06-29 09:26:42.281250,82.59,103.9
80330,2018-06-29 09:26:42.312500,77.57,103.9
80331,2018-06-29 09:26:42.343750,54.78,103.9
80332,2018-06-29 09:26:42.375000,28.78,103.9
80333,2018-06-29 09:26:42.406250,11.87,103.9
80334,2018-06-29 09:26:42.437500,5.82,103.9
80335,2018-06-29 09:26:42.468750,5.72,103.9
80336,2018-06-29 09:26:42.500000,8.28,103.9
80337,2018-06-29 09:26:42.531250,9.14,103.25
80338,2018-06-29 09:26:42.562500,-0.2,103.25
80339,2018-06-29 09:26:42.593750,-22.8,103.25
80340,2018-06-29 09:26:42.625000,-48.65,103.25
80341,2018-06-29 09:26:42.656250,-66.16,103.25
80342,2018-06-29 09:26:42.687500,-77.6,103.25
80343,2018-06-29 09:26:42.718750,-95.95,103.25
80344,2018-06-29 09:26:42.750000,-123.46,103.25
80345,2018-06-29 09:26:42.781250,-133.51,103.25
80346,2018-06-29 09:26:42.812500,-85.71,103.25
80347,2018-06-29 09:26:42.843750,25.18,103.25
80348,2018-06-29 09:26:42.875000,147.2,103.25
80349,2018-06-29 09:26:42.906250,221.81,103.25
80350,2018-06-29 09:26:42.937500,242.9,103.25
80351,2018-06-29 09:26:42.968750,242.88,103.25
80352,2018-06-29 09:26:43.000000,241.13,103.25
80353,2018-06-29 09:26:43.031250,230.76,103.25
80354,2018-06-29 09:26:43.062500,201.25,103.25
80355,2018-06-29 09:26:43.093750,152.86,103.25
80356,2018-06-29 09:26:43.125000,91.7,103.25
80357,2018-06-29 09:26:43.156250,18.17,103.25
80358,2018-06-29 09:26:43.187500,-71.91,103.25
80359,2018-06-29 09:26:43.218750,-162.14,103.25
80360,2018-06-29 09:26:43.250000,-209.05,103.25
80361,2018-06-29 09:26:43.281250,-188.74,103.25
80362,2018-06-29 09:26:43.312500,-132.7,103.25
80363,2018-06-29 09:26:43.343750,-91.83,103.25
80364,2018-06-29 09:26:43.375000,-88.03,103.25
80365,2018-06-29 09:26:43.406250,-113.19,103.25
80366,2018-06-29 09:26:43.437500,-141.15,103.25
80367,2018-06-29 09:26:43.468750,-136.87,103.25
80368,2018-06-29 09:26:43.500000,-86.26,103.25
80369,2018-06-29 09:26:43.531250,-10.8,102.62
80370,2018-06-29 09:26:43.562500,61.65,102.62
80371,2018-06-29 09:26:43.593750,120.55,102.62
80372,2018-06-29 09:26:43.625000,162.09,102.62
80373,2018-06-29 09:26:43.656250,183.54,102.62
80374,2018-06-29 09:26:43.687500,194.32,102.62
80375,2018-06-29 09:26:43.718750,209.64,102.62
80376,2018-06-29 09:26:43.750000,227.3,102.62
80377,2018-06-29 09:26:43.781250,225.92,102.62
80378,2018-06-29 09:26:43.812500,191.16,102.62
80379,2018-06-29 09:26:43.843750,134.56,102.62
80380,2018-06-29 09:26:43.875000,78.58,102.62
80381,2018-06-29 09:26:43.906250,29.49,102.62
80382,2018-06-29 09:26:43.937500,-23.86,102.62
80383,2018-06-29 09:26:43.968750,-90.65,102.62
80384,2018-06-29 09:26:44.000000,-167.3,102.62
80385,2018-06-29 09:26:44.031250,-233.04,102.62
80386,2018-06-29 09:26:44.062500,-252.0,102.62
80387,2018-06-29 09:26:44.093750,-203.4,102.62
80388,2018-06-29 09:26:44.125000,-111.41,102.62
80389,2018-06-29 09:26:44.156250,-23.97,102.62
80390,2018-06-29 09:26:44.187500,31.56,102.62
80391,2018-06-29 09:26:44.218750,58.77,102.62
80392,2018-06-29 09:26:44.250000,74.58,102.62
80393,2018-06-29 09:26:44.281250,93.53,102.62
80394,2018-06-29 09:26:44.312500,118.02,102.62
80395,2018-06-29 09:26:44.343750,140.71,102.62
80396,2018-06-29 09:26:44.375000,158.29,102.62
80397,2018-06-29 09:26:44.406250,172.42,102.62
80398,2018-06-29 09:26:44.437500,173.59,102.62
80399,2018-06-29 09:26:44.468750,142.69,102.62
80400,2018-06-29 09:26:44.500000,77.29,102.62
80401,2018-06-29 09:26:44.531250,-0.65,102.03
80402,2018-06-29 09:26:44.562500,-70.49,102.03
80403,2018-06-29 09:26:44.593750,-131.36,102.03
80404,2018-06-29 09:26:44.625000,-193.94,102.03
80405,2018-06-29 09:26:44.656250,-269.66,102.03
80406,2018-06-29 09:26:44.687500,-353.87,102.03
80407,2018-06-29 09:26:44.718750,-409.1,102.03
80408,2018-06-29 09:26:44.750000,-396.76,102.03
80409,2018-06-29 09:26:44.781250,-328.78,102.03
80410,2018-06-29 09:26:44.812500,-250.13,102.03
80411,2018-06-29 09:26:44.843750,-181.11,102.03
80412,2018-06-29 09:26:44.875000,-116.39,102.03
80413,2018-06-29 09:26:44.906250,-58.26,102.03
80414,2018-06-29 09:26:44.937500,-14.23,102.03
80415,2018-06-29 09:26:44.968750,17.56,102.03
80416,2018-06-29 09:26:45.000000,38.61,102.03
80417,2018-06-29 09:26:45.031250,42.82,102.03
80418,2018-06-29 09:26:45.062500,27.79,102.03
80419,2018-06-29 09:26:45.093750,1.97,102.03
80420,2018-06-29 09:26:45.125000,-25.01,102.03
80421,2018-06-29 09:26:45.156250,-52.47,102.03
80422,2018-06-29 09:26:45.187500,-86.8,102.03
80423,2018-06-29 09:26:45.218750,-134.46,102.03
80424,2018-06-29 09:26:45.250000,-197.55,102.03
80425,2018-06-29 09:26:45.281250,-269.08,102.03
80426,2018-06-29 09:26:45.312500,-327.17,102.03
80427,2018-06-29 09:26:45.343750,-341.84,102.03
80428,2018-06-29 09:26:45.375000,-299.88,102.03
80429,2018-06-29 09:26:45.406250,-219.97,102.03
80430,2018-06-29 09:26:45.437500,-133.5,102.03
80431,2018-06-29 09:26:45.468750,-58.71,102.03
80432,2018-06-29 09:26:45.500000,-1.53,102.03
80433,2018-06-29 09:26:45.531250,34.51,101.47
80434,2018-06-29 09:26:45.562500,53.63,101.47
80435,2018-06-29 09:26:45.593750,70.28,101.47
80436,2018-06-29 09:26:45.625000,93.58,101.47
80437,2018-06-29 09:26:45.656250,117.0,101.47
80438,2018-06-29 09:26:45.687500,131.39,101.47
80439,2018-06-29 09:26:45.718750,138.93,101.47
80440,2018-06-29 09:26:45.750000,145.12,101.47
80441,2018-06-29 09:26:45.781250,146.02,101.47
80442,2018-06-29 09:26:45.812500,133.67,101.47
80443,2018-06-29 09:26:45.843750,108.46,101.47
80444,2018-06-29 09:26:45.875000,80.31,101.47
80445,2018-06-29 09:26:45.906250,60.15,101.47
80446,2018-06-29 09:26:45.937500,51.39,101.47
80447,2018-06-29 09:26:45.968750,46.9,101.47
80448,2018-06-29 09:26:46.000000,36.0,101.47
80449,2018-06-29 09:26:46.031250,18.33,101.47
80450,2018-06-29 09:26:46.062500,9.5,101.47
80451,2018-06-29 09:26:46.093750,27.64,101.47
80452,2018-06-29 09:26:46.125000,74.84,101.47
80453,2018-06-29 09:26:46.156250,136.65,101.47
80454,2018-06-29 09:26:46.187500,195.96,101.47
80455,2018-06-29 09:26:46.218750,241.62,101.47
80456,2018-06-29 09:26:46.250000,267.73,101.47
80457,2018-06-29 09:26:46.281250,272.33,101.47
80458,2018-06-29 09:26:46.312500,259.57,101.47
80459,2018-06-29 09:26:46.343750,241.1,101.47
80460,2018-06-29 09:26:46.375000,228.01,101.47
80461,2018-06-29 09:26:46.406250,217.59,101.47
80462,2018-06-29 09:26:46.437500,193.65,101.47
80463,2018-06-29 09:26:46.468750,140.14,101.47
80464,2018-06-29 09:26:46.500000,50.45,101.47
80465,2018-06-29 09:26:46.531250,-67.83,100.92
80466,2018-06-29 09:26:46.562500,-190.97,100.92
80467,2018-06-29 09:26:46.593750,-289.18,100.92
80468,2018-06-29 09:26:46.625000,-343.75,100.92
80469,2018-06-29 09:26:46.656250,-356.09,100.92
80470,2018-06-29 09:26:46.687500,-344.44,100.92
80471,2018-06-29 09:26:46.718750,-325.05,100.92
80472,2018-06-29 09:26:46.750000,-290.87,100.92
80473,2018-06-29 09:26:46.781250,-220.66,100.92
80474,2018-06-29 09:26:46.812500,-113.98,100.92
80475,2018-06-29 09:26:46.843750,-0.05,100.92
80476,2018-06-29 09:26:46.875000,92.18,100.92
80477,2018-06-29 09:26:46.906250,154.46,100.92
80478,2018-06-29 09:26:46.937500,188.58,100.92
80479,2018-06-29 09:26:46.968750,195.76,100.92
80480,2018-06-29 09:26:47.000000,183.92,100.92
80481,2018-06-29 09:26:47.031250,167.63,100.92
80482,2018-06-29 09:26:47.062500,150.75,100.92
80483,2018-06-29 09:26:47.093750,123.82,100.92
80484,2018-06-29 09:26:47.125000,87.96,100.92
80485,2018-06-29 09:26:47.156250,62.25,100.92
80486,2018-06-29 09:26:47.187500,55.08,100.92
80487,2018-06-29 09:26:47.218750,47.45,100.92
80488,2018-06-29 09:26:47.250000,17.48,100.92
80489,2018-06-29 09:26:47.281250,-34.59,100.92
80490,2018-06-29 09:26:47.312500,-92.89,100.92
80491,2018-06-29 09:26:47.343750,-141.79,100.92
80492,2018-06-29 09:26:47.375000,-168.42,100.92
80493,2018-06-29 09:26:47.406250,-165.93,100.92
80494,2018-06-29 09:26:47.437500,-145.27,100.92
80495,2018-06-29 09:26:47.468750,-127.53,100.92
80496,2018-06-29 09:26:47.500000,-112.92,100.92
80497,2018-06-29 09:26:47.531250,-78.12,100.4
80498,2018-06-29 09:26:47.562500,-15.68,100.4
80499,2018-06-29 09:26:47.593750,49.52,100.4
80500,2018-06-29 09:26:47.625000,93.38,100.4
80501,2018-06-29 09:26:47.656250,117.58,100.4
80502,2018-06-29 09:26:47.687500,134.35,100.4
80503,2018-06-29 09:26:47.718750,145.82,100.4
80504,2018-06-29 09:26:47.750000,148.07,100.4
80505,2018-06-29 09:26:47.781250,145.17,100.4
80506,2018-06-29 09:26:47.812500,146.6,100.4
80507,2018-06-29 09:26:47.843750,150.89,100.4
80508,2018-06-29 09:26:47.875000,144.74,100.4
80509,2018-06-29 09:26:47.906250,121.24,100.4
80510,2018-06-29 09:26:47.937500,86.68,100.4
80511,2018-06-29 09:26:47.968750,48.66,100.4
80512,2018-06-29 09:26:48.000000,11.13,100.4
80513,2018-06-29 09:26:48.031250,-20.13,100.4
80514,2018-06-29 09:26:48.062500,-39.64,100.4
80515,2018-06-29 09:26:48.093750,-49.1,100.4
80516,2018-06-29 09:26:48.125000,-53.04,100.4
80517,2018-06-29 09:26:48.156250,-50.16,100.4
80518,2018-06-29 09:26:48.187500,-32.0,100.4
80519,2018-06-29 09:26:48.218750,12.59,100.4
80520,2018-06-29 09:26:48.250000,85.49,100.4
80521,2018-06-29 09:26:48.281250,169.12,100.4
80522,2018-06-29 09:26:48.312500,239.22,100.4
80523,2018-06-29 09:26:48.343750,287.79,100.4
80524,2018-06-29 09:26:48.375000,319.71,100.4
80525,2018-06-29 09:26:48.406250,331.75,100.4
80526,2018-06-29 09:26:48.437500,312.96,100.4
80527,2018-06-29 09:26:48.468750,263.79,100.4
80528,2018-06-29 09:26:48.500000,200.49,100.4
80529,2018-06-29 09:26:48.531250,139.29,99.88
80530,2018-06-29 09:26:48.562500,85.84,99.88
80531,2018-06-29 09:26:48.593750,42.87,99.88
80532,2018-06-29 09:26:48.625000,16.3,99.88
80533,2018-06-29 09:26:48.656250,4.2,99.88
80534,2018-06-29 09:26:48.687500,-10.61,99.88
80535,2018-06-29 09:26:48.718750,-43.85,99.88
80536,2018-06-29 09:26:48.750000,-91.8,99.88
80537,2018-06-29 09:26:48.781250,-141.75,99.88
80538,2018-06-29 09:26:48.812500,-192.7,99.88
80539,2018-06-29 09:26:48.843750,-254.76,99.88
80540,2018-06-29 09:26:48.875000,-337.94,99.88
80541,2018-06-29 09:26:48.906250,-440.71,99.88
80542,2018-06-29 09:26:48.937500,-528.64,99.88
80543,2018-06-29 09:26:48.968750,-544.05,99.88
80544,2018-06-29 09:26:49.000000,-467.64,99.88
80545,2018-06-29 09:26:49.031250,-342.87,99.88
80546,2018-06-29 09:26:49.062500,-221.58,99.88
80547,2018-06-29 09:26:49.093750,-129.19,99.88
80548,2018-06-29 09:26:49.125000,-85.6,99.88
80549,2018-06-29 09:26:49.156250,-103.37,99.88
80550,2018-06-29 09:26:49.187500,-160.64,99.88
80551,2018-06-29 09:26:49.218750,-215.59,99.88
80552,2018-06-29 09:26:49.250000,-245.32,99.88
80553,2018-06-29 09:26:49.281250,-251.82,99.88
80554,2018-06-29 09:26:49.312500,-240.77,99.88
80555,2018-06-29 09:26:49.343750,-214.71,99.88
80556,2018-06-29 09:26:49.375000,-182.91,99.88
80557,2018-06-29 09:26:49.406250,-158.95,99.88
80558,2018-06-29 09:26:49.437500,-144.72,99.88
80559,2018-06-29 09:26:49.468750,-129.83,99.88
80560,2018-06-29 09:26:49.500000,-108.78,99.88
80561,2018-06-29 09:26:49.531250,-89.33,99.37
80562,2018-06-29 09:26:49.562500,-80.75,99.37
80563,2018-06-29 09:26:49.593750,-76.55,99.37
80564,2018-06-29 09:26:49.625000,-56.39,99.37
80565,2018-06-29 09:26:49.656250,-9.17,99.37
80566,2018-06-29 09:26:49.687500,56.67,99.37
80567,2018-06-29 09:26:49.718750,130.04,99.37
80568,2018-06-29 09:26:49.750000,205.42,99.37
80569,2018-06-29 09:26:49.781250,269.62,99.37
80570,2018-06-29 09:26:49.812500,304.99,99.37
80571,2018-06-29 09:26:49.843750,311.34,99.37
80572,2018-06-29 09:26:49.875000,305.27,99.37
80573,2018-06-29 09:26:49.906250,298.22,99.37
80574,2018-06-29 09:26:49.937500,289.52,99.37
80575,2018-06-29 09:26:49.968750,275.77,99.37
80576,2018-06-29 09:26:50.000000,253.41,99.37
80577,2018-06-29 09:26:50.031250,216.89,99.37
80578,2018-06-29 09:26:50.062500,164.04,99.37
80579,2018-06-29 09:26:50.093750,100.14,99.37
80580,2018-06-29 09:26:50.125000,32.29,99.37
80581,2018-06-29 09:26:50.156250,-35.47,99.37
80582,2018-06-29 09:26:50.187500,-101.19,99.37
80583,2018-06-29 09:26:50.218750,-162.45,99.37
80584,2018-06-29 09:26:50.250000,-207.35,99.37
80585,2018-06-29 09:26:50.281250,-210.84,99.37
80586,2018-06-29 09:26:50.312500,-162.01,99.37
80587,2018-06-29 09:26:50.343750,-89.26,99.37
80588,2018-06-29 09:26:50.375000,-32.3,99.37
80589,2018-06-29 09:26:50.406250,-0.59,99.37
80590,2018-06-29 09:26:50.437500,17.53,99.37
80591,2018-06-29 09:26:50.468750,26.94,99.37
80592,2018-06-29 09:26:50.500000,28.98,99.37
80593,2018-06-29 09:26:50.531250,30.54,98.88
80594,2018-06-29 09:26:50.562500,35.55,98.88
80595,2018-06-29 09:26:50.593750,41.04,98.88
80596,2018-06-29 09:26:50.625000,44.02,98.88
80597,2018-06-29 09:26:50.656250,42.87,98.88
80598,2018-06-29 09:26:50.687500,34.77,98.88
80599,2018-06-29 09:26:50.718750,18.69,98.88
80600,2018-06-29 09:26:50.750000,-0.79,98.88
80601,2018-06-29 09:26:50.781250,-16.15,98.88
80602,2018-06-29 09:26:50.812500,-24.51,98.88
80603,2018-06-29 09:26:50.843750,-33.3,98.88
80604,2018-06-29 09:26:50.875000,-53.74,98.88
80605,2018-06-29 09:26:50.906250,-80.35,98.88
80606,2018-06-29 09:26:50.937500,-84.1,98.88
80607,2018-06-29 09:26:50.968750,-43.01,98.88
80608,2018-06-29 09:26:51.000000,26.58,98.88
80609,2018-06-29 09:26:51.031250,87.81,98.88
80610,2018-06-29 09:26:51.062500,122.35,98.88
80611,2018-06-29 09:26:51.093750,134.0,98.88
80612,2018-06-29 09:26:51.125000,128.63,98.88
80613,2018-06-29 09:26:51.156250,111.34,98.88
80614,2018-06-29 09:26:51.187500,92.46,98.88
80615,2018-06-29 09:26:51.218750,79.59,98.88
80616,2018-06-29 09:26:51.250000,69.22,98.88
80617,2018-06-29 09:26:51.281250,55.5,98.88
80618,2018-06-29 09:26:51.312500,42.14,98.88
80619,2018-06-29 09:26:51.343750,36.29,98.88
80620,2018-06-29 09:26:51.375000,34.76,98.88
80621,2018-06-29 09:26:51.406250,27.12,98.88
80622,2018-06-29 09:26:51.437500,11.61,98.88
80623,2018-06-29 09:26:51.468750,-2.64,98.88
80624,2018-06-29 09:26:51.500000,-10.44,98.88
80625,2018-06-29 09:26:51.531250,-17.92,98.4
80626,2018-06-29 09:26:51.562500,-33.63,98.4
80627,2018-06-29 09:26:51.593750,-58.17,98.4
80628,2018-06-29 09:26:51.625000,-79.16,98.4
80629,2018-06-29 09:26:51.656250,-75.37,98.4
80630,2018-06-29 09:26:51.687500,-37.63,98.4
80631,2018-06-29 09:26:51.718750,16.04,98.4
80632,2018-06-29 09:26:51.750000,58.8,98.4
80633,2018-06-29 09:26:51.781250,81.02,98.4
80634,2018-06-29 09:26:51.812500,86.85,98.4
80635,2018-06-29 09:26:51.843750,79.33,98.4
80636,2018-06-29 09:26:51.875000,63.22,98.4
80637,2018-06-29 09:26:51.906250,50.34,98.4
80638,2018-06-29 09:26:51.937500,49.06,98.4
80639,2018-06-29 09:26:51.968750,53.67,98.4
80640,2018-06-29 09:26:52.000000,53.36,98.4
80641,2018-06-29 09:26:52.031250,49.36,98.4
80642,2018-06-29 09:26:52.062500,52.02,98.4
80643,2018-06-29 09:26:52.093750,58.15,98.4
80644,2018-06-29 09:26:52.125000,47.06,98.4
80645,2018-06-29 09:26:52.156250,8.79,98.4
80646,2018-06-29 09:26:52.187500,-37.88,98.4
80647,2018-06-29 09:26:52.218750,-67.39,98.4
80648,2018-06-29 09:26:52.250000,-74.6,98.4
80649,2018-06-29 09:26:52.281250,-71.9,98.4
80650,2018-06-29 09:26:52.312500,-73.48,98.4
80651,2018-06-29 09:26:52.343750,-84.13,98.4
80652,2018-06-29 09:26:52.375000,-89.25,98.4
80653,2018-06-29 09:26:52.406250,-62.99,98.4
80654,2018-06-29 09:26:52.437500,0.05,98.4
80655,2018-06-29 09:26:52.468750,72.44,98.4
80656,2018-06-29 09:26:52.500000,122.58,98.4
80657,2018-06-29 09:26:52.531250,140.65,97.95
80658,2018-06-29 09:26:52.562500,131.79,97.95
80659,2018-06-29 09:26:52.593750,103.6,97.95
80660,2018-06-29 09:26:52.625000,66.87,97.95
80661,2018-06-29 09:26:52.656250,34.4,97.95
80662,2018-06-29 09:26:52.687500,12.56,97.95
80663,2018-06-29 09:26:52.718750,-1.27,97.95
80664,2018-06-29 09:26:52.750000,-10.98,97.95
80665,2018-06-29 09:26:52.781250,-16.45,97.95
80666,2018-06-29 09:26:52.812500,-19.27,97.95
80667,2018-06-29 09:26:52.843750,-28.17,97.95
80668,2018-06-29 09:26:52.875000,-50.53,97.95
80669,2018-06-29 09:26:52.906250,-81.07,97.95
80670,2018-06-29 09:26:52.937500,-106.59,97.95
80671,2018-06-29 09:26:52.968750,-119.78,97.95
80672,2018-06-29 09:26:53.000000,-121.92,97.95
80673,2018-06-29 09:26:53.031250,-117.21,97.95
80674,2018-06-29 09:26:53.062500,-110.93,97.95
80675,2018-06-29 09:26:53.093750,-103.09,97.95
80676,2018-06-29 09:26:53.125000,-78.43,97.95
80677,2018-06-29 09:26:53.156250,-20.38,97.95
80678,2018-06-29 09:26:53.187500,58.63,97.95
80679,2018-06-29 09:26:53.218750,120.97,97.95
80680,2018-06-29 09:26:53.250000,143.05,97.95
80681,2018-06-29 09:26:53.281250,131.72,97.95
80682,2018-06-29 09:26:53.312500,104.85,97.95
80683,2018-06-29 09:26:53.343750,75.67,97.95
80684,2018-06-29 09:26:53.375000,53.1,97.95
80685,2018-06-29 09:26:53.406250,41.5,97.95
80686,2018-06-29 09:26:53.437500,38.41,97.95
80687,2018-06-29 09:26:53.468750,37.51,97.95
80688,2018-06-29 09:26:53.500000,34.07,97.95
80689,2018-06-29 09:26:53.531250,26.96,97.48
80690,2018-06-29 09:26:53.562500,16.07,97.48
80691,2018-06-29 09:26:53.593750,-0.54,97.48
80692,2018-06-29 09:26:53.625000,-24.25,97.48
80693,2018-06-29 09:26:53.656250,-51.75,97.48
80694,2018-06-29 09:26:53.687500,-76.44,97.48
80695,2018-06-29 09:26:53.718750,-93.86,97.48
80696,2018-06-29 09:26:53.750000,-105.04,97.48
80697,2018-06-29 09:26:53.781250,-115.86,97.48
80698,2018-06-29 09:26:53.812500,-132.91,97.48
80699,2018-06-29 09:26:53.843750,-159.33,97.48
80700,2018-06-29 09:26:53.875000,-193.19,97.48
80701,2018-06-29 09:26:53.906250,-222.45,97.48
80702,2018-06-29 09:26:53.937500,-225.86,97.48
80703,2018-06-29 09:26:53.968750,-192.8,97.48
80704,2018-06-29 09:26:54.000000,-137.18,97.48
80705,2018-06-29 09:26:54.031250,-79.38,97.48
80706,2018-06-29 09:26:54.062500,-28.05,97.48
80707,2018-06-29 09:26:54.093750,12.4,97.48
80708,2018-06-29 09:26:54.125000,37.07,97.48
80709,2018-06-29 09:26:54.156250,49.87,97.48
80710,2018-06-29 09:26:54.187500,60.76,97.48
80711,2018-06-29 09:26:54.218750,73.52,97.48
80712,2018-06-29 09:26:54.250000,85.22,97.48
80713,2018-06-29 09:26:54.281250,92.69,97.48
80714,2018-06-29 09:26:54.312500,93.46,97.48
80715,2018-06-29 09:26:54.343750,85.43,97.48
80716,2018-06-29 09:26:54.375000,69.59,97.48
80717,2018-06-29 09:26:54.406250,51.22,97.48
80718,2018-06-29 09:26:54.437500,36.08,97.48
80719,2018-06-29 09:26:54.468750,25.5,97.48
80720,2018-06-29 09:26:54.500000,16.97,97.48
80721,2018-06-29 09:26:54.531250,9.76,97.03
80722,2018-06-29 09:26:54.562500,7.56,97.03
80723,2018-06-29 09:26:54.593750,13.26,97.03
80724,2018-06-29 09:26:54.625000,22.57,97.03
80725,2018-06-29 09:26:54.656250,26.64,97.03
80726,2018-06-29 09:26:54.687500,22.77,97.03
80727,2018-06-29 09:26:54.718750,21.01,97.03
80728,2018-06-29 09:26:54.750000,34.52,97.03
80729,2018-06-29 09:26:54.781250,61.66,97.03
80730,2018-06-29 09:26:54.812500,85.58,97.03
80731,2018-06-29 09:26:54.843750,93.5,97.03
80732,2018-06-29 09:26:54.875000,87.12,97.03
80733,2018-06-29 09:26:54.906250,73.22,97.03
80734,2018-06-29 09:26:54.937500,56.26,97.03
80735,2018-06-29 09:26:54.968750,41.89,97.03
80736,2018-06-29 09:26:55.000000,36.06,97.03
80737,2018-06-29 09:26:55.031250,37.53,97.03
80738,2018-06-29 09:26:55.062500,39.22,97.03
80739,2018-06-29 09:26:55.093750,37.52,97.03
80740,2018-06-29 09:26:55.125000,34.04,97.03
80741,2018-06-29 09:26:55.156250,29.74,97.03
80742,2018-06-29 09:26:55.187500,24.28,97.03
80743,2018-06-29 09:26:55.218750,19.34,97.03
80744,2018-06-29 09:26:55.250000,17.06,97.03
80745,2018-06-29 09:26:55.281250,17.03,97.03
80746,2018-06-29 09:26:55.312500,17.91,97.03
80747,2018-06-29 09:26:55.343750,19.5,97.03
80748,2018-06-29 09:26:55.375000,21.12,97.03
80749,2018-06-29 09:26:55.406250,20.05,97.03
80750,2018-06-29 09:26:55.437500,12.92,97.03
80751,2018-06-29 09:26:55.468750,0.7,97.03
80752,2018-06-29 09:26:55.500000,-7.45,97.03
80753,2018-06-29 09:26:55.531250,-1.46,96.58
80754,2018-06-29 09:26:55.562500,16.03,96.58
80755,2018-06-29 09:26:55.593750,31.27,96.58
80756,2018-06-29 09:26:55.625000,35.18,96.58
80757,2018-06-29 09:26:55.656250,29.11,96.58
80758,2018-06-29 09:26:55.687500,17.44,96.58
80759,2018-06-29 09:26:55.718750,4.11,96.58
80760,2018-06-29 09:26:55.750000,-5.59,96.58
80761,2018-06-29 09:26:55.781250,-8.0,96.58
80762,2018-06-29 09:26:55.812500,-4.75,96.58
80763,2018-06-29 09:26:55.843750,-0.66,96.58
80764,2018-06-29 09:26:55.875000,0.85,96.58
80765,2018-06-29 09:26:55.906250,-0.75,96.58
80766,2018-06-29 09:26:55.937500,-4.76,96.58
80767,2018-06-29 09:26:55.968750,-10.63,96.58
80768,2018-06-29 09:26:56.000000,-17.47,96.58
80769,2018-06-29 09:26:56.031250,-23.98,96.58
80770,2018-06-29 09:26:56.062500,-29.04,96.58
80771,2018-06-29 09:26:56.093750,-31.36,96.58
80772,2018-06-29 09:26:56.125000,-29.63,96.58
80773,2018-06-29 09:26:56.156250,-24.67,96.58
80774,2018-06-29 09:26:56.187500,-20.19,96.58
80775,2018-06-29 09:26:56.218750,-19.7,96.58
80776,2018-06-29 09:26:56.250000,-21.61,96.58
80777,2018-06-29 09:26:56.281250,-18.56,96.58
80778,2018-06-29 09:26:56.312500,-5.06,96.58
80779,2018-06-29 09:26:56.343750,14.62,96.58
80780,2018-06-29 09:26:56.375000,30.59,96.58
80781,2018-06-29 09:26:56.406250,37.41,96.58
80782,2018-06-29 09:26:56.437500,35.29,96.58
80783,2018-06-29 09:26:56.468750,25.52,96.58
80784,2018-06-29 09:26:56.500000,11.41,96.58
80785,2018-06-29 09:26:56.531250,0.04,96.17
80786,2018-06-29 09:26:56.562500,-3.77,96.17
80787,2018-06-29 09:26:56.593750,-3.22,96.17
80788,2018-06-29 09:26:56.625000,-4.7,96.17
80789,2018-06-29 09:26:56.656250,-9.37,96.17
80790,2018-06-29 09:26:56.687500,-14.02,96.17
80791,2018-06-29 09:26:56.718750,-18.0,96.17
80792,2018-06-29 09:26:56.750000,-23.78,96.17
80793,2018-06-29 09:26:56.781250,-30.9,96.17
80794,2018-06-29 09:26:56.812500,-33.58,96.17
80795,2018-06-29 09:26:56.843750,-26.01,96.17
80796,2018-06-29 09:26:56.875000,-8.58,96.17
80797,2018-06-29 09:26:56.906250,12.74,96.17
80798,2018-06-29 09:26:56.937500,32.38,96.17
80799,2018-06-29 09:26:56.968750,50.49,96.17
80800,2018-06-29 09:26:57.000000,73.13,96.17
80801,2018-06-29 09:26:57.031250,104.39,96.17
80802,2018-06-29 09:26:57.062500,137.14,96.17
80803,2018-06-29 09:26:57.093750,155.87,96.17
80804,2018-06-29 09:26:57.125000,150.09,96.17
80805,2018-06-29 09:26:57.156250,120.15,96.17
80806,2018-06-29 09:26:57.187500,73.73,96.17
80807,2018-06-29 09:26:57.218750,23.92,96.17
80808,2018-06-29 09:26:57.250000,-14.44,96.17
80809,2018-06-29 09:26:57.281250,-35.63,96.17
80810,2018-06-29 09:26:57.312500,-48.45,96.17
80811,2018-06-29 09:26:57.343750,-66.39,96.17
80812,2018-06-29 09:26:57.375000,-93.15,96.17
80813,2018-06-29 09:26:57.406250,-118.86,96.17
80814,2018-06-29 09:26:57.437500,-129.92,96.17
80815,2018-06-29 09:26:57.468750,-121.5,96.17
80816,2018-06-29 09:26:57.500000,-99.18,96.17
80817,2018-06-29 09:26:57.531250,-71.26,95.77
80818,2018-06-29 09:26:57.562500,-45.34,95.77
80819,2018-06-29 09:26:57.593750,-30.25,95.77
80820,2018-06-29 09:26:57.625000,-32.67,95.77
80821,2018-06-29 09:26:57.656250,-49.2,95.77
80822,2018-06-29 09:26:57.687500,-66.07,95.77
80823,2018-06-29 09:26:57.718750,-69.84,95.77
80824,2018-06-29 09:26:57.750000,-58.59,95.77
80825,2018-06-29 09:26:57.781250,-40.83,95.77
80826,2018-06-29 09:26:57.812500,-25.46,95.77
80827,2018-06-29 09:26:57.843750,-16.19,95.77
80828,2018-06-29 09:26:57.875000,-13.12,95.77
80829,2018-06-29 09:26:57.906250,-12.1,95.77
80830,2018-06-29 09:26:57.937500,-4.52,95.77
80831,2018-06-29 09:26:57.968750,14.98,95.77
80832,2018-06-29 09:26:58.000000,41.64,95.77
80833,2018-06-29 09:26:58.031250,66.72,95.77
80834,2018-06-29 09:26:58.062500,87.43,95.77
80835,2018-06-29 09:26:58.093750,106.01,95.77
80836,2018-06-29 09:26:58.125000,121.84,95.77
80837,2018-06-29 09:26:58.156250,130.28,95.77
80838,2018-06-29 09:26:58.187500,127.77,95.77
80839,2018-06-29 09:26:58.218750,113.97,95.77
80840,2018-06-29 09:26:58.250000,90.49,95.77
80841,2018-06-29 09:26:58.281250,60.21,95.77
80842,2018-06-29 09:26:58.312500,26.39,95.77
80843,2018-06-29 09:26:58.343750,-8.14,95.77
80844,2018-06-29 09:26:58.375000,-39.76,95.77
80845,2018-06-29 09:26:58.406250,-64.15,95.77
80846,2018-06-29 09:26:58.437500,-79.62,95.77
80847,2018-06-29 09:26:58.468750,-88.55,95.77
80848,2018-06-29 09:26:58.500000,-94.79,95.77
80849,2018-06-29 09:26:58.531250,-101.78,95.38
80850,2018-06-29 09:26:58.562500,-112.18,95.38
80851,2018-06-29 09:26:58.593750,-124.9,95.38
80852,2018-06-29 09:26:58.625000,-133.47,95.38
80853,2018-06-29 09:26:58.656250,-131.44,95.38
80854,2018-06-29 09:26:58.687500,-118.91,95.38
80855,2018-06-29 09:26:58.718750,-102.22,95.38
80856,2018-06-29 09:26:58.750000,-87.9,95.38
80857,2018-06-29 09:26:58.781250,-77.57,95.38
80858,2018-06-29 09:26:58.812500,-69.04,95.38
80859,2018-06-29 09:26:58.843750,-61.54,95.38
80860,2018-06-29 09:26:58.875000,-56.23,95.38
80861,2018-06-29 09:26:58.906250,-52.14,95.38
80862,2018-06-29 09:26:58.937500,-46.16,95.38
80863,2018-06-29 09:26:58.968750,-38.14,95.38
80864,2018-06-29 09:26:59.000000,-32.51,95.38
80865,2018-06-29 09:26:59.031250,-32.53,95.38
80866,2018-06-29 09:26:59.062500,-33.28,95.38
80867,2018-06-29 09:26:59.093750,-25.89,95.38
80868,2018-06-29 09:26:59.125000,-9.39,95.38
80869,2018-06-29 09:26:59.156250,8.83,95.38
80870,2018-06-29 09:26:59.187500,23.58,95.38
80871,2018-06-29 09:26:59.218750,33.96,95.38
80872,2018-06-29 09:26:59.250000,37.99,95.38
80873,2018-06-29 09:26:59.281250,35.5,95.38
80874,2018-06-29 09:26:59.312500,32.35,95.38
80875,2018-06-29 09:26:59.343750,33.46,95.38
80876,2018-06-29 09:26:59.375000,36.51,95.38
80877,2018-06-29 09:26:59.406250,37.69,95.38
80878,2018-06-29 09:26:59.437500,37.66,95.38
80879,2018-06-29 09:26:59.468750,38.1,95.38
80880,2018-06-29 09:26:59.500000,37.36,95.38
80881,2018-06-29 09:26:59.531250,33.14,95.02
80882,2018-06-29 09:26:59.562500,26.4,95.02
80883,2018-06-29 09:26:59.593750,19.91,95.02
80884,2018-06-29 09:26:59.625000,14.48,95.02
80885,2018-06-29 09:26:59.656250,8.15,95.02
80886,2018-06-29 09:26:59.687500,-1.15,95.02
80887,2018-06-29 09:26:59.718750,-11.99,95.02
80888,2018-06-29 09:26:59.750000,-17.82,95.02
80889,2018-06-29 09:26:59.781250,-10.89,95.02
80890,2018-06-29 09:26:59.812500,10.17,95.02
80891,2018-06-29 09:26:59.843750,38.72,95.02
80892,2018-06-29 09:26:59.875000,66.5,95.02
80893,2018-06-29 09:26:59.906250,88.86,95.02
80894,2018-06-29 09:26:59.937500,104.38,95.02
80895,2018-06-29 09:26:59.968750,114.54,95.02
80896,2018-06-29 09:27:00.000000,124.72,95.02
80897,2018-06-29 09:27:00.031250,141.05,95.02
80898,2018-06-29 09:27:00.062500,163.36,95.02
80899,2018-06-29 09:27:00.093750,181.67,95.02
80900,2018-06-29 09:27:00.125000,184.93,95.02
80901,2018-06-29 09:27:00.156250,173.86,95.02
80902,2018-06-29 09:27:00.187500,157.5,95.02
80903,2018-06-29 09:27:00.218750,136.37,95.02
80904,2018-06-29 09:27:00.250000,100.43,95.02
80905,2018-06-29 09:27:00.281250,46.01,95.02
80906,2018-06-29 09:27:00.312500,-16.19,95.02
80907,2018-06-29 09:27:00.343750,-72.76,95.02
80908,2018-06-29 09:27:00.375000,-119.11,95.02
80909,2018-06-29 09:27:00.406250,-158.17,95.02
80910,2018-06-29 09:27:00.437500,-193.45,95.02
80911,2018-06-29 09:27:00.468750,-224.89,95.02
80912,2018-06-29 09:27:00.500000,-246.67,95.02
80913,2018-06-29 09:27:00.531250,-247.93,94.63
80914,2018-06-29 09:27:00.562500,-222.27,94.63
80915,2018-06-29 09:27:00.593750,-178.5,94.63
80916,2018-06-29 09:27:00.625000,-134.79,94.63
80917,2018-06-29 09:27:00.656250,-101.03,94.63
80918,2018-06-29 09:27:00.687500,-74.11,94.63
80919,2018-06-29 09:27:00.718750,-48.39,94.63
80920,2018-06-29 09:27:00.750000,-22.79,94.63
80921,2018-06-29 09:27:00.781250,0.28,94.63
80922,2018-06-29 09:27:00.812500,17.28,94.63
80923,2018-06-29 09:27:00.843750,26.66,94.63
80924,2018-06-29 09:27:00.875000,30.23,94.63
80925,2018-06-29 09:27:00.906250,29.88,94.63
80926,2018-06-29 09:27:00.937500,25.71,94.63
80927,2018-06-29 09:27:00.968750,19.03,94.63
80928,2018-06-29 09:27:01.000000,12.77,94.63
80929,2018-06-29 09:27:01.031250,7.82,94.63
80930,2018-06-29 09:27:01.062500,2.01,94.63
80931,2018-06-29 09:27:01.093750,-8.46,94.63
80932,2018-06-29 09:27:01.125000,-26.83,94.63
80933,2018-06-29 09:27:01.156250,-51.17,94.63
80934,2018-06-29 09:27:01.187500,-73.39,94.63
80935,2018-06-29 09:27:01.218750,-87.53,94.63
80936,2018-06-29 09:27:01.250000,-94.34,94.63
80937,2018-06-29 09:27:01.281250,-92.87,94.63
80938,2018-06-29 09:27:01.312500,-76.38,94.63
80939,2018-06-29 09:27:01.343750,-43.94,94.63
80940,2018-06-29 09:27:01.375000,-6.14,94.63
80941,2018-06-29 09:27:01.406250,26.56,94.63
80942,2018-06-29 09:27:01.437500,52.91,94.63
80943,2018-06-29 09:27:01.468750,74.68,94.63
80944,2018-06-29 09:27:01.500000,90.96,94.63
80945,2018-06-29 09:27:01.531250,102.01,94.23
80946,2018-06-29 09:27:01.562500,111.25,94.23
80947,2018-06-29 09:27:01.593750,121.99,94.23
80948,2018-06-29 09:27:01.625000,134.36,94.23
80949,2018-06-29 09:27:01.656250,147.68,94.23
80950,2018-06-29 09:27:01.687500,160.51,94.23
80951,2018-06-29 09:27:01.718750,171.26,94.23
80952,2018-06-29 09:27:01.750000,178.29,94.23
80953,2018-06-29 09:27:01.781250,180.25,94.23
80954,2018-06-29 09:27:01.812500,176.45,94.23
80955,2018-06-29 09:27:01.843750,166.36,94.23
80956,2018-06-29 09:27:01.875000,151.78,94.23
80957,2018-06-29 09:27:01.906250,131.61,94.23
80958,2018-06-29 09:27:01.937500,99.49,94.23
80959,2018-06-29 09:27:01.968750,46.68,94.23
80960,2018-06-29 09:27:02.000000,-27.78,94.23
80961,2018-06-29 09:27:02.031250,-114.44,94.23
80962,2018-06-29 09:27:02.062500,-194.33,94.23
80963,2018-06-29 09:27:02.093750,-223.91,94.23
80964,2018-06-29 09:27:02.125000,-189.66,94.23
80965,2018-06-29 09:27:02.156250,-126.08,94.23
80966,2018-06-29 09:27:02.187500,-65.21,94.23
80967,2018-06-29 09:27:02.218750,-21.92,94.23
80968,2018-06-29 09:27:02.250000,-1.65,94.23
80969,2018-06-29 09:27:02.281250,0.63,94.23
80970,2018-06-29 09:27:02.312500,-3.97,94.23
80971,2018-06-29 09:27:02.343750,-12.41,94.23
80972,2018-06-29 09:27:02.375000,-31.94,94.23
80973,2018-06-29 09:27:02.406250,-66.32,94.23
80974,2018-06-29 09:27:02.437500,-100.6,94.23
80975,2018-06-29 09:27:02.468750,-107.63,94.23
80976,2018-06-29 09:27:02.500000,-82.43,94.23
80977,2018-06-29 09:27:02.531250,-52.61,93.83
80978,2018-06-29 09:27:02.562500,-39.41,93.83
80979,2018-06-29 09:27:02.593750,-36.09,93.83
80980,2018-06-29 09:27:02.625000,-28.78,93.83
80981,2018-06-29 09:27:02.656250,-15.41,93.83
80982,2018-06-29 09:27:02.687500,-1.45,93.83
80983,2018-06-29 09:27:02.718750,8.49,93.83
80984,2018-06-29 09:27:02.750000,11.7,93.83
80985,2018-06-29 09:27:02.781250,5.96,93.83
80986,2018-06-29 09:27:02.812500,-6.6,93.83
80987,2018-06-29 09:27:02.843750,-20.23,93.83
80988,2018-06-29 09:27:02.875000,-30.97,93.83
80989,2018-06-29 09:27:02.906250,-40.69,93.83
80990,2018-06-29 09:27:02.937500,-52.69,93.83
80991,2018-06-29 09:27:02.968750,-66.9,93.83
80992,2018-06-29 09:27:03.000000,-80.4,93.83
80993,2018-06-29 09:27:03.031250,-86.15,93.83
80994,2018-06-29 09:27:03.062500,-75.02,93.83
80995,2018-06-29 09:27:03.093750,-45.73,93.83
80996,2018-06-29 09:27:03.125000,-9.88,93.83
80997,2018-06-29 09:27:03.156250,18.92,93.83
80998,2018-06-29 09:27:03.187500,34.74,93.83
80999,2018-06-29 09:27:03.218750,37.12,93.83
81000,2018-06-29 09:27:03.250000,29.62,93.83
81001,2018-06-29 09:27:03.281250,20.17,93.83
81002,2018-06-29 09:27:03.312500,15.38,93.83
81003,2018-06-29 09:27:03.343750,15.32,93.83
81004,2018-06-29 09:27:03.375000,16.89,93.83
81005,2018-06-29 09:27:03.406250,18.29,93.83
81006,2018-06-29 09:27:03.437500,18.57,93.83
81007,2018-06-29 09:27:03.468750,16.57,93.83
81008,2018-06-29 09:27:03.500000,11.73,93.83
81009,2018-06-29 09:27:03.531250,5.26,93.43
81010,2018-06-29 09:27:03.562500,-0.51,93.43
81011,2018-06-29 09:27:03.593750,-5.64,93.43
81012,2018-06-29 09:27:03.625000,-13.12,93.43
81013,2018-06-29 09:27:03.656250,-23.03,93.43
81014,2018-06-29 09:27:03.687500,-31.29,93.43
81015,2018-06-29 09:27:03.718750,-37.28,93.43
81016,2018-06-29 09:27:03.750000,-45.88,93.43
81017,2018-06-29 09:27:03.781250,-60.25,93.43
81018,2018-06-29 09:27:03.812500,-76.26,93.43
81019,2018-06-29 09:27:03.843750,-82.85,93.43
81020,2018-06-29 09:27:03.875000,-69.73,93.43
81021,2018-06-29 09:27:03.906250,-39.09,93.43
81022,2018-06-29 09:27:03.937500,-5.29,93.43
81023,2018-06-29 09:27:03.968750,20.4,93.43
81024,2018-06-29 09:27:04.000000,37.85,93.43
81025,2018-06-29 09:27:04.031250,51.22,93.43
81026,2018-06-29 09:27:04.062500,63.4,93.43
81027,2018-06-29 09:27:04.093750,76.59,93.43
81028,2018-06-29 09:27:04.125000,91.71,93.43
81029,2018-06-29 09:27:04.156250,107.05,93.43
81030,2018-06-29 09:27:04.187500,119.96,93.43
81031,2018-06-29 09:27:04.218750,130.11,93.43
81032,2018-06-29 09:27:04.250000,139.68,93.43
81033,2018-06-29 09:27:04.281250,150.65,93.43
81034,2018-06-29 09:27:04.312500,162.67,93.43
81035,2018-06-29 09:27:04.343750,172.73,93.43
81036,2018-06-29 09:27:04.375000,177.13,93.43
81037,2018-06-29 09:27:04.406250,175.01,93.43
81038,2018-06-29 09:27:04.437500,169.8,93.43
81039,2018-06-29 09:27:04.468750,165.65,93.43
81040,2018-06-29 09:27:04.500000,163.01,93.43
81041,2018-06-29 09:27:04.531250,158.78,93.0
81042,2018-06-29 09:27:04.562500,149.55,93.0
81043,2018-06-29 09:27:04.593750,136.4,93.0
81044,2018-06-29 09:27:04.625000,127.62,93.0
81045,2018-06-29 09:27:04.656250,131.02,93.0
81046,2018-06-29 09:27:04.687500,142.52,93.0
81047,2018-06-29 09:27:04.718750,150.99,93.0
81048,2018-06-29 09:27:04.750000,152.78,93.0
81049,2018-06-29 09:27:04.781250,150.62,93.0
81050,2018-06-29 09:27:04.812500,143.04,93.0
81051,2018-06-29 09:27:04.843750,128.29,93.0
81052,2018-06-29 09:27:04.875000,113.09,93.0
81053,2018-06-29 09:27:04.906250,106.62,93.0
81054,2018-06-29 09:27:04.937500,109.29,93.0
81055,2018-06-29 09:27:04.968750,113.05,93.0
81056,2018-06-29 09:27:05.000000,110.4,93.0
81057,2018-06-29 09:27:05.031250,99.91,93.0
81058,2018-06-29 09:27:05.062500,83.57,93.0
81059,2018-06-29 09:27:05.093750,60.39,93.0
81060,2018-06-29 09:27:05.125000,26.11,93.0
81061,2018-06-29 09:27:05.156250,-18.32,93.0
81062,2018-06-29 09:27:05.187500,-63.28,93.0
81063,2018-06-29 09:27:05.218750,-100.91,93.0
81064,2018-06-29 09:27:05.250000,-134.24,93.0
81065,2018-06-29 09:27:05.281250,-172.42,93.0
81066,2018-06-29 09:27:05.312500,-222.02,93.0
81067,2018-06-29 09:27:05.343750,-274.07,93.0
81068,2018-06-29 09:27:05.375000,-296.1,93.0
81069,2018-06-29 09:27:05.406250,-261.46,93.0
81070,2018-06-29 09:27:05.437500,-187.43,93.0
81071,2018-06-29 09:27:05.468750,-116.73,93.0
81072,2018-06-29 09:27:05.500000,-69.73,93.0
81073,2018-06-29 09:27:05.531250,-42.52,92.53
81074,2018-06-29 09:27:05.562500,-31.93,92.53
81075,2018-06-29 09:27:05.593750,-33.64,92.53
81076,2018-06-29 09:27:05.625000,-34.81,92.53
81077,2018-06-29 09:27:05.656250,-28.13,92.53
81078,2018-06-29 09:27:05.687500,-24.39,92.53
81079,2018-06-29 09:27:05.718750,-39.77,92.53
81080,2018-06-29 09:27:05.750000,-71.9,92.53
81081,2018-06-29 09:27:05.781250,-98.82,92.53
81082,2018-06-29 09:27:05.812500,-108.11,92.53
81083,2018-06-29 09:27:05.843750,-114.55,92.53
81084,2018-06-29 09:27:05.875000,-133.72,92.53
81085,2018-06-29 09:27:05.906250,-157.38,92.53
81086,2018-06-29 09:27:05.937500,-174.57,92.53
81087,2018-06-29 09:27:05.968750,-192.36,92.53
81088,2018-06-29 09:27:06.000000,-219.66,92.53
81089,2018-06-29 09:27:06.031250,-249.56,92.53
81090,2018-06-29 09:27:06.062500,-270.14,92.53
81091,2018-06-29 09:27:06.093750,-269.96,92.53
81092,2018-06-29 09:27:06.125000,-240.98,92.53
81093,2018-06-29 09:27:06.156250,-189.67,92.53
81094,2018-06-29 09:27:06.187500,-135.36,92.53
81095,2018-06-29 09:27:06.218750,-98.89,92.53
81096,2018-06-29 09:27:06.250000,-97.23,92.53
81097,2018-06-29 09:27:06.281250,-139.69,92.53
81098,2018-06-29 09:27:06.312500,-195.49,92.53
81099,2018-06-29 09:27:06.343750,-220.66,92.53
81100,2018-06-29 09:27:06.375000,-211.98,92.53
81101,2018-06-29 09:27:06.406250,-214.45,92.53
81102,2018-06-29 09:27:06.437500,-253.31,92.53
81103,2018-06-29 09:27:06.468750,-293.96,92.53
81104,2018-06-29 09:27:06.500000,-303.71,92.53
81105,2018-06-29 09:27:06.531250,-290.89,92.1
81106,2018-06-29 09:27:06.562500,-302.03,92.1
81107,2018-06-29 09:27:06.593750,-333.25,92.1
81108,2018-06-29 09:27:06.625000,-354.57,92.1
81109,2018-06-29 09:27:06.656250,-357.4,92.1
81110,2018-06-29 09:27:06.687500,-367.1,92.1
81111,2018-06-29 09:27:06.718750,-391.3,92.1
81112,2018-06-29 09:27:06.750000,-390.63,92.1
81113,2018-06-29 09:27:06.781250,-357.06,92.1
81114,2018-06-29 09:27:06.812500,-168.16,92.1
81115,2018-06-29 09:27:06.843750,176.72,92.1
81116,2018-06-29 09:27:06.875000,437.22,92.1
81117,2018-06-29 09:27:06.906250,543.07,92.1
81118,2018-06-29 09:27:06.937500,555.63,92.1
81119,2018-06-29 09:27:06.968750,505.71,92.1
81120,2018-06-29 09:27:07.000000,414.32,92.1
81121,2018-06-29 09:27:07.031250,334.55,92.1
81122,2018-06-29 09:27:07.062500,288.34,92.1
81123,2018-06-29 09:27:07.093750,258.63,92.1
81124,2018-06-29 09:27:07.125000,206.34,92.1
81125,2018-06-29 09:27:07.156250,142.7,92.1
81126,2018-06-29 09:27:07.187500,98.44,92.1
81127,2018-06-29 09:27:07.218750,81.77,92.1
81128,2018-06-29 09:27:07.250000,70.47,92.1
81129,2018-06-29 09:27:07.281250,46.48,92.1
81130,2018-06-29 09:27:07.312500,26.24,92.1
81131,2018-06-29 09:27:07.343750,23.85,92.1
81132,2018-06-29 09:27:07.375000,38.19,92.1
81133,2018-06-29 09:27:07.406250,55.39,92.1
81134,2018-06-29 09:27:07.437500,66.33,92.1
81135,2018-06-29 09:27:07.468750,59.93,92.1
81136,2018-06-29 09:27:07.500000,34.02,92.1
81137,2018-06-29 09:27:07.531250,9.89,91.67
81138,2018-06-29 09:27:07.562500,10.71,91.67
81139,2018-06-29 09:27:07.593750,35.34,91.67
81140,2018-06-29 09:27:07.625000,69.47,91.67
81141,2018-06-29 09:27:07.656250,108.28,91.67
81142,2018-06-29 09:27:07.687500,147.52,91.67
81143,2018-06-29 09:27:07.718750,172.85,91.67
81144,2018-06-29 09:27:07.750000,177.16,91.67
81145,2018-06-29 09:27:07.781250,171.73,91.67
81146,2018-06-29 09:27:07.812500,169.25,91.67
81147,2018-06-29 09:27:07.843750,171.0,91.67
81148,2018-06-29 09:27:07.875000,175.05,91.67
81149,2018-06-29 09:27:07.906250,182.15,91.67
81150,2018-06-29 09:27:07.937500,187.7,91.67
81151,2018-06-29 09:27:07.968750,182.25,91.67
81152,2018-06-29 09:27:08.000000,164.61,91.67
81153,2018-06-29 09:27:08.031250,143.1,91.67
81154,2018-06-29 09:27:08.062500,122.86,91.67
81155,2018-06-29 09:27:08.093750,99.6,91.67
81156,2018-06-29 09:27:08.125000,65.82,91.67
81157,2018-06-29 09:27:08.156250,21.26,91.67
81158,2018-06-29 09:27:08.187500,-17.27,91.67
81159,2018-06-29 09:27:08.218750,-22.02,91.67
81160,2018-06-29 09:27:08.250000,14.65,91.67
81161,2018-06-29 09:27:08.281250,65.78,91.67
81162,2018-06-29 09:27:08.312500,101.1,91.67
81163,2018-06-29 09:27:08.343750,116.49,91.67
81164,2018-06-29 09:27:08.375000,120.6,91.67
81165,2018-06-29 09:27:08.406250,115.42,91.67
81166,2018-06-29 09:27:08.437500,103.28,91.67
81167,2018-06-29 09:27:08.468750,92.79,91.67
81168,2018-06-29 09:27:08.500000,86.53,91.67
81169,2018-06-29 09:27:08.531250,75.3,91.23
81170,2018-06-29 09:27:08.562500,50.39,91.23
81171,2018-06-29 09:27:08.593750,13.18,91.23
81172,2018-06-29 09:27:08.625000,-28.91,91.23
81173,2018-06-29 09:27:08.656250,-67.67,91.23
81174,2018-06-29 09:27:08.687500,-96.28,91.23
81175,2018-06-29 09:27:08.718750,-113.85,91.23
81176,2018-06-29 09:27:08.750000,-126.38,91.23
81177,2018-06-29 09:27:08.781250,-140.59,91.23
81178,2018-06-29 09:27:08.812500,-158.52,91.23
81179,2018-06-29 09:27:08.843750,-173.4,91.23
81180,2018-06-29 09:27:08.875000,-165.99,91.23
81181,2018-06-29 09:27:08.906250,-121.22,91.23
81182,2018-06-29 09:27:08.937500,-55.2,91.23
81183,2018-06-29 09:27:08.968750,-3.43,91.23
81184,2018-06-29 09:27:09.000000,21.91,91.23
81185,2018-06-29 09:27:09.031250,37.6,91.23
81186,2018-06-29 09:27:09.062500,53.18,91.23
81187,2018-06-29 09:27:09.093750,59.74,91.23
81188,2018-06-29 09:27:09.125000,54.77,91.23
81189,2018-06-29 09:27:09.156250,49.53,91.23
81190,2018-06-29 09:27:09.187500,49.74,91.23
81191,2018-06-29 09:27:09.218750,49.2,91.23
81192,2018-06-29 09:27:09.250000,43.62,91.23
81193,2018-06-29 09:27:09.281250,37.46,91.23
81194,2018-06-29 09:27:09.312500,33.88,91.23
81195,2018-06-29 09:27:09.343750,26.05,91.23
81196,2018-06-29 09:27:09.375000,3.66,91.23
81197,2018-06-29 09:27:09.406250,-32.63,91.23
81198,2018-06-29 09:27:09.437500,-67.8,91.23
81199,2018-06-29 09:27:09.468750,-88.18,91.23
81200,2018-06-29 09:27:09.500000,-97.21,91.23
81201,2018-06-29 09:27:09.531250,-109.14,90.83
81202,2018-06-29 09:27:09.562500,-127.15,90.83
81203,2018-06-29 09:27:09.593750,-133.03,90.83
81204,2018-06-29 09:27:09.625000,-106.39,90.83
81205,2018-06-29 09:27:09.656250,-53.16,90.83
81206,2018-06-29 09:27:09.687500,-5.04,90.83
81207,2018-06-29 09:27:09.718750,11.54,90.83
81208,2018-06-29 09:27:09.750000,-2.25,90.83
81209,2018-06-29 09:27:09.781250,-28.9,90.83
81210,2018-06-29 09:27:09.812500,-54.94,90.83
81211,2018-06-29 09:27:09.843750,-72.75,90.83
81212,2018-06-29 09:27:09.875000,-75.31,90.83
81213,2018-06-29 09:27:09.906250,-62.17,90.83
81214,2018-06-29 09:27:09.937500,-43.99,90.83
81215,2018-06-29 09:27:09.968750,-33.8,90.83
81216,2018-06-29 09:27:10.000000,-38.01,90.83
81217,2018-06-29 09:27:10.031250,-52.84,90.83
81218,2018-06-29 09:27:10.062500,-65.93,90.83
81219,2018-06-29 09:27:10.093750,-66.54,90.83
81220,2018-06-29 09:27:10.125000,-54.55,90.83
81221,2018-06-29 09:27:10.156250,-38.43,90.83
81222,2018-06-29 09:27:10.187500,-28.87,90.83
81223,2018-06-29 09:27:10.218750,-34.76,90.83
81224,2018-06-29 09:27:10.250000,-52.18,90.83
81225,2018-06-29 09:27:10.281250,-57.78,90.83
81226,2018-06-29 09:27:10.312500,-29.14,90.83
81227,2018-06-29 09:27:10.343750,27.0,90.83
81228,2018-06-29 09:27:10.375000,80.25,90.83
81229,2018-06-29 09:27:10.406250,110.62,90.83
81230,2018-06-29 09:27:10.437500,121.12,90.83
81231,2018-06-29 09:27:10.468750,118.0,90.83
81232,2018-06-29 09:27:10.500000,100.88,90.83
81233,2018-06-29 09:27:10.531250,74.34,90.48
81234,2018-06-29 09:27:10.562500,49.37,90.48
81235,2018-06-29 09:27:10.593750,30.38,90.48
81236,2018-06-29 09:27:10.625000,16.42,90.48
81237,2018-06-29 09:27:10.656250,11.99,90.48
81238,2018-06-29 09:27:10.687500,19.14,90.48
81239,2018-06-29 09:27:10.718750,27.64,90.48
81240,2018-06-29 09:27:10.750000,30.6,90.48
81241,2018-06-29 09:27:10.781250,34.15,90.48
81242,2018-06-29 09:27:10.812500,36.35,90.48
81243,2018-06-29 09:27:10.843750,21.38,90.48
81244,2018-06-29 09:27:10.875000,-10.16,90.48
81245,2018-06-29 09:27:10.906250,-32.54,90.48
81246,2018-06-29 09:27:10.937500,-27.99,90.48
81247,2018-06-29 09:27:10.968750,-0.69,90.48
81248,2018-06-29 09:27:11.000000,39.66,90.48
81249,2018-06-29 09:27:11.031250,80.96,90.48
81250,2018-06-29 09:27:11.062500,104.76,90.48
81251,2018-06-29 09:27:11.093750,103.11,90.48
81252,2018-06-29 09:27:11.125000,85.74,90.48
81253,2018-06-29 09:27:11.156250,60.78,90.48
81254,2018-06-29 09:27:11.187500,28.71,90.48
81255,2018-06-29 09:27:11.218750,-0.49,90.48
81256,2018-06-29 09:27:11.250000,-9.1,90.48
81257,2018-06-29 09:27:11.281250,3.21,90.48
81258,2018-06-29 09:27:11.312500,14.37,90.48
81259,2018-06-29 09:27:11.343750,8.31,90.48
81260,2018-06-29 09:27:11.375000,-7.98,90.48
81261,2018-06-29 09:27:11.406250,-20.07,90.48
81262,2018-06-29 09:27:11.437500,-20.22,90.48
81263,2018-06-29 09:27:11.468750,-4.05,90.48
81264,2018-06-29 09:27:11.500000,23.27,90.48
81265,2018-06-29 09:27:11.531250,42.32,90.25
81266,2018-06-29 09:27:11.562500,39.43,90.25
81267,2018-06-29 09:27:11.593750,23.39,90.25
81268,2018-06-29 09:27:11.625000,15.4,90.25
81269,2018-06-29 09:27:11.656250,34.05,90.25
81270,2018-06-29 09:27:11.687500,83.13,90.25
81271,2018-06-29 09:27:11.718750,142.28,90.25
81272,2018-06-29 09:27:11.750000,181.09,90.25
81273,2018-06-29 09:27:11.781250,184.21,90.25
81274,2018-06-29 09:27:11.812500,152.54,90.25
81275,2018-06-29 09:27:11.843750,94.23,90.25
81276,2018-06-29 09:27:11.875000,25.29,90.25
81277,2018-06-29 09:27:11.906250,-39.37,90.25
81278,2018-06-29 09:27:11.937500,-101.25,90.25
81279,2018-06-29 09:27:11.968750,-166.86,90.25
81280,2018-06-29 09:27:12.000000,-223.67,90.25
81281,2018-06-29 09:27:12.031250,-251.11,90.25
81282,2018-06-29 09:27:12.062500,-250.33,90.25
81283,2018-06-29 09:27:12.093750,-239.78,90.25
81284,2018-06-29 09:27:12.125000,-228.89,90.25
81285,2018-06-29 09:27:12.156250,-214.46,90.25
81286,2018-06-29 09:27:12.187500,-194.39,90.25
81287,2018-06-29 09:27:12.218750,-167.79,90.25
81288,2018-06-29 09:27:12.250000,-133.7,90.25
81289,2018-06-29 09:27:12.281250,-101.36,90.25
81290,2018-06-29 09:27:12.312500,-83.9,90.25
81291,2018-06-29 09:27:12.343750,-73.06,90.25
81292,2018-06-29 09:27:12.375000,-41.98,90.25
81293,2018-06-29 09:27:12.406250,18.65,90.25
81294,2018-06-29 09:27:12.437500,89.77,90.25
81295,2018-06-29 09:27:12.468750,151.27,90.25
81296,2018-06-29 09:27:12.500000,194.55,90.25
81297,2018-06-29 09:27:12.531250,213.13,90.03
81298,2018-06-29 09:27:12.562500,206.46,90.03
81299,2018-06-29 09:27:12.593750,187.04,90.03
81300,2018-06-29 09:27:12.625000,165.17,90.03
81301,2018-06-29 09:27:12.656250,137.04,90.03
81302,2018-06-29 09:27:12.687500,99.49,90.03
81303,2018-06-29 09:27:12.718750,60.35,90.03
81304,2018-06-29 09:27:12.750000,28.94,90.03
81305,2018-06-29 09:27:12.781250,10.61,90.03
81306,2018-06-29 09:27:12.812500,9.64,90.03
81307,2018-06-29 09:27:12.843750,23.21,90.03
81308,2018-06-29 09:27:12.875000,40.01,90.03
81309,2018-06-29 09:27:12.906250,54.8,90.03
81310,2018-06-29 09:27:12.937500,73.17,90.03
81311,2018-06-29 09:27:12.968750,95.41,90.03
81312,2018-06-29 09:27:13.000000,107.96,90.03
81313,2018-06-29 09:27:13.031250,92.82,90.03
81314,2018-06-29 09:27:13.062500,39.02,90.03
81315,2018-06-29 09:27:13.093750,-44.12,90.03
81316,2018-06-29 09:27:13.125000,-118.4,90.03
81317,2018-06-29 09:27:13.156250,-143.39,90.03
81318,2018-06-29 09:27:13.187500,-122.29,90.03
81319,2018-06-29 09:27:13.218750,-96.35,90.03
81320,2018-06-29 09:27:13.250000,-92.05,90.03
81321,2018-06-29 09:27:13.281250,-103.28,90.03
81322,2018-06-29 09:27:13.312500,-115.77,90.03
81323,2018-06-29 09:27:13.343750,-118.54,90.03
81324,2018-06-29 09:27:13.375000,-102.03,90.03
81325,2018-06-29 09:27:13.406250,-66.91,90.03
81326,2018-06-29 09:27:13.437500,-25.72,90.03
81327,2018-06-29 09:27:13.468750,10.95,90.03
81328,2018-06-29 09:27:13.500000,41.95,90.03
81329,2018-06-29 09:27:13.531250,70.64,89.88
81330,2018-06-29 09:27:13.562500,96.76,89.88
81331,2018-06-29 09:27:13.593750,113.45,89.88
81332,2018-06-29 09:27:13.625000,114.84,89.88
81333,2018-06-29 09:27:13.656250,103.92,89.88
81334,2018-06-29 09:27:13.687500,87.35,89.88
81335,2018-06-29 09:27:13.718750,65.87,89.88
81336,2018-06-29 09:27:13.750000,35.77,89.88
81337,2018-06-29 09:27:13.781250,-2.33,89.88
81338,2018-06-29 09:27:13.812500,-42.01,89.88
81339,2018-06-29 09:27:13.843750,-78.66,89.88
81340,2018-06-29 09:27:13.875000,-112.46,89.88
81341,2018-06-29 09:27:13.906250,-140.5,89.88
81342,2018-06-29 09:27:13.937500,-148.91,89.88
81343,2018-06-29 09:27:13.968750,-121.73,89.88
81344,2018-06-29 09:27:14.000000,-60.17,89.88
81345,2018-06-29 09:27:14.031250,12.87,89.88
81346,2018-06-29 09:27:14.062500,69.8,89.88
81347,2018-06-29 09:27:14.093750,97.43,89.88
81348,2018-06-29 09:27:14.125000,101.22,89.88
81349,2018-06-29 09:27:14.156250,93.8,89.88
81350,2018-06-29 09:27:14.187500,78.38,89.88
81351,2018-06-29 09:27:14.218750,47.22,89.88
81352,2018-06-29 09:27:14.250000,3.45,89.88
81353,2018-06-29 09:27:14.281250,-31.66,89.88
81354,2018-06-29 09:27:14.312500,-45.82,89.88
81355,2018-06-29 09:27:14.343750,-49.92,89.88
81356,2018-06-29 09:27:14.375000,-55.21,89.88
81357,2018-06-29 09:27:14.406250,-62.59,89.88
81358,2018-06-29 09:27:14.437500,-76.13,89.88
81359,2018-06-29 09:27:14.468750,-98.49,89.88
81360,2018-06-29 09:27:14.500000,-117.48,89.88
81361,2018-06-29 09:27:14.531250,-119.61,89.77
81362,2018-06-29 09:27:14.562500,-106.81,89.77
81363,2018-06-29 09:27:14.593750,-90.04,89.77
81364,2018-06-29 09:27:14.625000,-75.81,89.77
81365,2018-06-29 09:27:14.656250,-61.68,89.77
81366,2018-06-29 09:27:14.687500,-43.19,89.77
81367,2018-06-29 09:27:14.718750,-24.29,89.77
81368,2018-06-29 09:27:14.750000,-15.35,89.77
81369,2018-06-29 09:27:14.781250,-16.84,89.77
81370,2018-06-29 09:27:14.812500,-13.24,89.77
81371,2018-06-29 09:27:14.843750,10.38,89.77
81372,2018-06-29 09:27:14.875000,51.06,89.77
81373,2018-06-29 09:27:14.906250,91.84,89.77
81374,2018-06-29 09:27:14.937500,118.55,89.77
81375,2018-06-29 09:27:14.968750,128.88,89.77
81376,2018-06-29 09:27:15.000000,128.24,89.77
81377,2018-06-29 09:27:15.031250,122.0,89.77
81378,2018-06-29 09:27:15.062500,112.52,89.77
81379,2018-06-29 09:27:15.093750,102.76,89.77
81380,2018-06-29 09:27:15.125000,98.06,89.77
81381,2018-06-29 09:27:15.156250,100.99,89.77
81382,2018-06-29 09:27:15.187500,110.37,89.77
81383,2018-06-29 09:27:15.218750,124.88,89.77
81384,2018-06-29 09:27:15.250000,140.16,89.77
81385,2018-06-29 09:27:15.281250,146.67,89.77
81386,2018-06-29 09:27:15.312500,136.4,89.77
81387,2018-06-29 09:27:15.343750,106.55,89.77
81388,2018-06-29 09:27:15.375000,59.16,89.77
81389,2018-06-29 09:27:15.406250,3.62,89.77
81390,2018-06-29 09:27:15.437500,-47.34,89.77
81391,2018-06-29 09:27:15.468750,-90.99,89.77
81392,2018-06-29 09:27:15.500000,-136.94,89.77
81393,2018-06-29 09:27:15.531250,-193.8,89.63
81394,2018-06-29 09:27:15.562500,-256.83,89.63
81395,2018-06-29 09:27:15.593750,-307.53,89.63
81396,2018-06-29 09:27:15.625000,-326.33,89.63
81397,2018-06-29 09:27:15.656250,-305.64,89.63
81398,2018-06-29 09:27:15.687500,-251.06,89.63
81399,2018-06-29 09:27:15.718750,-176.6,89.63
81400,2018-06-29 09:27:15.750000,-100.92,89.63
81401,2018-06-29 09:27:15.781250,-39.06,89.63
81402,2018-06-29 09:27:15.812500,6.27,89.63
81403,2018-06-29 09:27:15.843750,41.58,89.63
81404,2018-06-29 09:27:15.875000,71.56,89.63
81405,2018-06-29 09:27:15.906250,93.35,89.63
81406,2018-06-29 09:27:15.937500,99.47,89.63
81407,2018-06-29 09:27:15.968750,86.76,89.63
81408,2018-06-29 09:27:16.000000,64.55,89.63
81409,2018-06-29 09:27:16.031250,49.57,89.63
81410,2018-06-29 09:27:16.062500,50.4,89.63
81411,2018-06-29 09:27:16.093750,61.34,89.63
81412,2018-06-29 09:27:16.125000,69.98,89.63
81413,2018-06-29 09:27:16.156250,66.21,89.63
81414,2018-06-29 09:27:16.187500,49.65,89.63
81415,2018-06-29 09:27:16.218750,32.14,89.63
81416,2018-06-29 09:27:16.250000,25.46,89.63
81417,2018-06-29 09:27:16.281250,24.57,89.63
81418,2018-06-29 09:27:16.312500,11.59,89.63
81419,2018-06-29 09:27:16.343750,-19.92,89.63
81420,2018-06-29 09:27:16.375000,-50.46,89.63
81421,2018-06-29 09:27:16.406250,-52.52,89.63
81422,2018-06-29 09:27:16.437500,-22.68,89.63
81423,2018-06-29 09:27:16.468750,14.99,89.63
81424,2018-06-29 09:27:16.500000,36.5,89.63
81425,2018-06-29 09:27:16.531250,38.04,89.52
81426,2018-06-29 09:27:16.562500,28.96,89.52
81427,2018-06-29 09:27:16.593750,21.91,89.52
81428,2018-06-29 09:27:16.625000,26.33,89.52
81429,2018-06-29 09:27:16.656250,37.62,89.52
81430,2018-06-29 09:27:16.687500,39.78,89.52
81431,2018-06-29 09:27:16.718750,26.29,89.52
81432,2018-06-29 09:27:16.750000,6.63,89.52
81433,2018-06-29 09:27:16.781250,-10.52,89.52
81434,2018-06-29 09:27:16.812500,-25.2,89.52
81435,2018-06-29 09:27:16.843750,-37.04,89.52
81436,2018-06-29 09:27:16.875000,-44.14,89.52
81437,2018-06-29 09:27:16.906250,-47.08,89.52
81438,2018-06-29 09:27:16.937500,-46.02,89.52
81439,2018-06-29 09:27:16.968750,-39.93,89.52
81440,2018-06-29 09:27:17.000000,-31.53,89.52
81441,2018-06-29 09:27:17.031250,-24.49,89.52
81442,2018-06-29 09:27:17.062500,-17.72,89.52
81443,2018-06-29 09:27:17.093750,-6.47,89.52
81444,2018-06-29 09:27:17.125000,12.88,89.52
81445,2018-06-29 09:27:17.156250,39.31,89.52
81446,2018-06-29 09:27:17.187500,64.62,89.52
81447,2018-06-29 09:27:17.218750,79.01,89.52
81448,2018-06-29 09:27:17.250000,79.82,89.52
81449,2018-06-29 09:27:17.281250,70.28,89.52
81450,2018-06-29 09:27:17.312500,54.73,89.52
81451,2018-06-29 09:27:17.343750,39.27,89.52
81452,2018-06-29 09:27:17.375000,29.31,89.52
81453,2018-06-29 09:27:17.406250,25.13,89.52
81454,2018-06-29 09:27:17.437500,24.28,89.52
81455,2018-06-29 09:27:17.468750,28.37,89.52
81456,2018-06-29 09:27:17.500000,42.21,89.52
81457,2018-06-29 09:27:17.531250,66.5,89.43
81458,2018-06-29 09:27:17.562500,92.16,89.43
81459,2018-06-29 09:27:17.593750,108.11,89.43
81460,2018-06-29 09:27:17.625000,117.65,89.43
81461,2018-06-29 09:27:17.656250,133.9,89.43
81462,2018-06-29 09:27:17.687500,153.22,89.43
81463,2018-06-29 09:27:17.718750,151.59,89.43
81464,2018-06-29 09:27:17.750000,115.23,89.43
81465,2018-06-29 09:27:17.781250,62.0,89.43
81466,2018-06-29 09:27:17.812500,26.12,89.43
81467,2018-06-29 09:27:17.843750,24.98,89.43
81468,2018-06-29 09:27:17.875000,43.57,89.43
81469,2018-06-29 09:27:17.906250,54.06,89.43
81470,2018-06-29 09:27:17.937500,45.04,89.43
81471,2018-06-29 09:27:17.968750,23.61,89.43
81472,2018-06-29 09:27:18.000000,0.46,89.43
81473,2018-06-29 09:27:18.031250,-16.01,89.43
81474,2018-06-29 09:27:18.062500,-22.88,89.43
81475,2018-06-29 09:27:18.093750,-28.25,89.43
81476,2018-06-29 09:27:18.125000,-43.09,89.43
81477,2018-06-29 09:27:18.156250,-66.38,89.43
81478,2018-06-29 09:27:18.187500,-88.42,89.43
81479,2018-06-29 09:27:18.218750,-104.84,89.43
81480,2018-06-29 09:27:18.250000,-118.5,89.43
81481,2018-06-29 09:27:18.281250,-131.68,89.43
81482,2018-06-29 09:27:18.312500,-143.11,89.43
81483,2018-06-29 09:27:18.343750,-150.48,89.43
81484,2018-06-29 09:27:18.375000,-152.85,89.43
81485,2018-06-29 09:27:18.406250,-151.92,89.43
81486,2018-06-29 09:27:18.437500,-151.87,89.43
81487,2018-06-29 09:27:18.468750,-157.4,89.43
81488,2018-06-29 09:27:18.500000,-167.09,89.43
81489,2018-06-29 09:27:18.531250,-166.96,89.3
81490,2018-06-29 09:27:18.562500,-141.7,89.3
81491,2018-06-29 09:27:18.593750,-95.09,89.3
81492,2018-06-29 09:27:18.625000,-47.45,89.3
81493,2018-06-29 09:27:18.656250,-13.38,89.3
81494,2018-06-29 09:27:18.687500,5.77,89.3
81495,2018-06-29 09:27:18.718750,12.43,89.3
81496,2018-06-29 09:27:18.750000,8.28,89.3
81497,2018-06-29 09:27:18.781250,-3.02,89.3
81498,2018-06-29 09:27:18.812500,-16.23,89.3
81499,2018-06-29 09:27:18.843750,-27.96,89.3
81500,2018-06-29 09:27:18.875000,-39.01,89.3
81501,2018-06-29 09:27:18.906250,-51.19,89.3
81502,2018-06-29 09:27:18.937500,-63.01,89.3
81503,2018-06-29 09:27:18.968750,-72.53,89.3
81504,2018-06-29 09:27:19.000000,-81.54,89.3
81505,2018-06-29 09:27:19.031250,-90.71,89.3
81506,2018-06-29 09:27:19.062500,-95.47,89.3
81507,2018-06-29 09:27:19.093750,-91.02,89.3
81508,2018-06-29 09:27:19.125000,-78.34,89.3
81509,2018-06-29 09:27:19.156250,-63.19,89.3
81510,2018-06-29 09:27:19.187500,-52.84,89.3
81511,2018-06-29 09:27:19.218750,-51.31,89.3
81512,2018-06-29 09:27:19.250000,-52.43,89.3
81513,2018-06-29 09:27:19.281250,-40.63,89.3
81514,2018-06-29 09:27:19.312500,-5.49,89.3
81515,2018-06-29 09:27:19.343750,43.59,89.3
81516,2018-06-29 09:27:19.375000,85.39,89.3
81517,2018-06-29 09:27:19.406250,109.52,89.3
81518,2018-06-29 09:27:19.437500,121.33,89.3
81519,2018-06-29 09:27:19.468750,125.5,89.3
81520,2018-06-29 09:27:19.500000,121.51,89.3
81521,2018-06-29 09:27:19.531250,114.34,89.13
81522,2018-06-29 09:27:19.562500,112.15,89.13
81523,2018-06-29 09:27:19.593750,113.78,89.13
81524,2018-06-29 09:27:19.625000,112.18,89.13
81525,2018-06-29 09:27:19.656250,105.81,89.13
81526,2018-06-29 09:27:19.687500,97.59,89.13
81527,2018-06-29 09:27:19.718750,88.11,89.13
81528,2018-06-29 09:27:19.750000,75.91,89.13
81529,2018-06-29 09:27:19.781250,58.87,89.13
81530,2018-06-29 09:27:19.812500,35.59,89.13
81531,2018-06-29 09:27:19.843750,8.92,89.13
81532,2018-06-29 09:27:19.875000,-14.75,89.13
81533,2018-06-29 09:27:19.906250,-29.77,89.13
81534,2018-06-29 09:27:19.937500,-33.45,89.13
81535,2018-06-29 09:27:19.968750,-29.75,89.13
81536,2018-06-29 09:27:20.000000,-28.84,89.13
81537,2018-06-29 09:27:20.031250,-30.4,89.13
81538,2018-06-29 09:27:20.062500,-17.28,89.13
81539,2018-06-29 09:27:20.093750,17.42,89.13
81540,2018-06-29 09:27:20.125000,53.17,89.13
81541,2018-06-29 09:27:20.156250,67.42,89.13
81542,2018-06-29 09:27:20.187500,60.2,89.13
81543,2018-06-29 09:27:20.218750,45.77,89.13
81544,2018-06-29 09:27:20.250000,36.64,89.13
81545,2018-06-29 09:27:20.281250,36.55,89.13
81546,2018-06-29 09:27:20.312500,38.38,89.13
81547,2018-06-29 09:27:20.343750,33.91,89.13
81548,2018-06-29 09:27:20.375000,23.46,89.13
81549,2018-06-29 09:27:20.406250,9.84,89.13
81550,2018-06-29 09:27:20.437500,-6.61,89.13
81551,2018-06-29 09:27:20.468750,-21.81,89.13
81552,2018-06-29 09:27:20.500000,-29.63,89.13
81553,2018-06-29 09:27:20.531250,-30.75,88.93
81554,2018-06-29 09:27:20.562500,-29.38,88.93
81555,2018-06-29 09:27:20.593750,-25.61,88.93
81556,2018-06-29 09:27:20.625000,-18.59,88.93
81557,2018-06-29 09:27:20.656250,-11.93,88.93
81558,2018-06-29 09:27:20.687500,-11.11,88.93
81559,2018-06-29 09:27:20.718750,-16.9,88.93
81560,2018-06-29 09:27:20.750000,-21.63,88.93
81561,2018-06-29 09:27:20.781250,-16.05,88.93
81562,2018-06-29 09:27:20.812500,-1.54,88.93
81563,2018-06-29 09:27:20.843750,11.45,88.93
81564,2018-06-29 09:27:20.875000,17.55,88.93
81565,2018-06-29 09:27:20.906250,19.95,88.93
81566,2018-06-29 09:27:20.937500,20.37,88.93
81567,2018-06-29 09:27:20.968750,15.92,88.93
81568,2018-06-29 09:27:21.000000,5.74,88.93
81569,2018-06-29 09:27:21.031250,-5.54,88.93
81570,2018-06-29 09:27:21.062500,-13.24,88.93
81571,2018-06-29 09:27:21.093750,-17.7,88.93
81572,2018-06-29 09:27:21.125000,-20.02,88.93
81573,2018-06-29 09:27:21.156250,-17.71,88.93
81574,2018-06-29 09:27:21.187500,-11.16,88.93
81575,2018-06-29 09:27:21.218750,-6.56,88.93
81576,2018-06-29 09:27:21.250000,-4.64,88.93
81577,2018-06-29 09:27:21.281250,3.57,88.93
81578,2018-06-29 09:27:21.312500,21.18,88.93
81579,2018-06-29 09:27:21.343750,35.61,88.93
81580,2018-06-29 09:27:21.375000,29.41,88.93
81581,2018-06-29 09:27:21.406250,-1.91,88.93
81582,2018-06-29 09:27:21.437500,-38.81,88.93
81583,2018-06-29 09:27:21.468750,-50.13,88.93
81584,2018-06-29 09:27:21.500000,-25.25,88.93
81585,2018-06-29 09:27:21.531250,13.5,88.72
81586,2018-06-29 09:27:21.562500,38.0,88.72
81587,2018-06-29 09:27:21.593750,40.72,88.72
81588,2018-06-29 09:27:21.625000,29.32,88.72
81589,2018-06-29 09:27:21.656250,12.94,88.72
81590,2018-06-29 09:27:21.687500,0.39,88.72
81591,2018-06-29 09:27:21.718750,-2.66,88.72
81592,2018-06-29 09:27:21.750000,-1.63,88.72
81593,2018-06-29 09:27:21.781250,-5.51,88.72
81594,2018-06-29 09:27:21.812500,-9.96,88.72
81595,2018-06-29 09:27:21.843750,-4.45,88.72
81596,2018-06-29 09:27:21.875000,7.27,88.72
81597,2018-06-29 09:27:21.906250,13.07,88.72
81598,2018-06-29 09:27:21.937500,11.19,88.72
81599,2018-06-29 09:27:21.968750,9.32,88.72
81600,2018-06-29 09:27:22.000000,13.19,88.72
81601,2018-06-29 09:27:22.031250,20.51,88.72
81602,2018-06-29 09:27:22.062500,20.89,88.72
81603,2018-06-29 09:27:22.093750,7.34,88.72
81604,2018-06-29 09:27:22.125000,-9.51,88.72
81605,2018-06-29 09:27:22.156250,-10.84,88.72
81606,2018-06-29 09:27:22.187500,6.52,88.72
81607,2018-06-29 09:27:22.218750,27.02,88.72
81608,2018-06-29 09:27:22.250000,35.8,88.72
81609,2018-06-29 09:27:22.281250,30.52,88.72
81610,2018-06-29 09:27:22.312500,16.24,88.72
81611,2018-06-29 09:27:22.343750,-0.22,88.72
81612,2018-06-29 09:27:22.375000,-11.0,88.72
81613,2018-06-29 09:27:22.406250,-11.95,88.72
81614,2018-06-29 09:27:22.437500,-6.16,88.72
81615,2018-06-29 09:27:22.468750,0.77,88.72
81616,2018-06-29 09:27:22.500000,6.18,88.72
81617,2018-06-29 09:27:22.531250,10.26,88.4
81618,2018-06-29 09:27:22.562500,13.67,88.4
81619,2018-06-29 09:27:22.593750,15.31,88.4
81620,2018-06-29 09:27:22.625000,12.58,88.4
81621,2018-06-29 09:27:22.656250,5.8,88.4
81622,2018-06-29 09:27:22.687500,-0.91,88.4
81623,2018-06-29 09:27:22.718750,-4.6,88.4
81624,2018-06-29 09:27:22.750000,-5.36,88.4
81625,2018-06-29 09:27:22.781250,-5.68,88.4
81626,2018-06-29 09:27:22.812500,-11.45,88.4
81627,2018-06-29 09:27:22.843750,-25.58,88.4
81628,2018-06-29 09:27:22.875000,-37.31,88.4
81629,2018-06-29 09:27:22.906250,-31.79,88.4
81630,2018-06-29 09:27:22.937500,-11.74,88.4
81631,2018-06-29 09:27:22.968750,5.57,88.4
81632,2018-06-29 09:27:23.000000,10.46,88.4
81633,2018-06-29 09:27:23.031250,5.51,88.4
81634,2018-06-29 09:27:23.062500,-5.47,88.4
81635,2018-06-29 09:27:23.093750,-18.27,88.4
81636,2018-06-29 09:27:23.125000,-24.88,88.4
81637,2018-06-29 09:27:23.156250,-21.04,88.4
81638,2018-06-29 09:27:23.187500,-11.73,88.4
81639,2018-06-29 09:27:23.218750,-3.5,88.4
81640,2018-06-29 09:27:23.250000,3.42,88.4
81641,2018-06-29 09:27:23.281250,11.87,88.4
81642,2018-06-29 09:27:23.312500,21.22,88.4
81643,2018-06-29 09:27:23.343750,27.14,88.4
81644,2018-06-29 09:27:23.375000,27.23,88.4
81645,2018-06-29 09:27:23.406250,25.2,88.4
81646,2018-06-29 09:27:23.437500,27.23,88.4
81647,2018-06-29 09:27:23.468750,32.96,88.4
81648,2018-06-29 09:27:23.500000,32.93,88.4
81649,2018-06-29 09:27:23.531250,18.57,88.08
81650,2018-06-29 09:27:23.562500,-6.75,88.08
81651,2018-06-29 09:27:23.593750,-27.71,88.08
81652,2018-06-29 09:27:23.625000,-28.37,88.08
81653,2018-06-29 09:27:23.656250,-6.84,88.08
81654,2018-06-29 09:27:23.687500,21.4,88.08
81655,2018-06-29 09:27:23.718750,39.05,88.08
81656,2018-06-29 09:27:23.750000,42.59,88.08
81657,2018-06-29 09:27:23.781250,38.72,88.08
81658,2018-06-29 09:27:23.812500,33.45,88.08
81659,2018-06-29 09:27:23.843750,28.6,88.08
81660,2018-06-29 09:27:23.875000,23.46,88.08
81661,2018-06-29 09:27:23.906250,18.66,88.08
81662,2018-06-29 09:27:23.937500,16.29,88.08
81663,2018-06-29 09:27:23.968750,14.11,88.08
81664,2018-06-29 09:27:24.000000,7.91,88.08
81665,2018-06-29 09:27:24.031250,-0.45,88.08
81666,2018-06-29 09:27:24.062500,-6.98,88.08
81667,2018-06-29 09:27:24.093750,-13.1,88.08
81668,2018-06-29 09:27:24.125000,-21.74,88.08
81669,2018-06-29 09:27:24.156250,-32.59,88.08
81670,2018-06-29 09:27:24.187500,-43.9,88.08
81671,2018-06-29 09:27:24.218750,-52.76,88.08
81672,2018-06-29 09:27:24.250000,-55.04,88.08
81673,2018-06-29 09:27:24.281250,-50.62,88.08
81674,2018-06-29 09:27:24.312500,-46.56,88.08
81675,2018-06-29 09:27:24.343750,-49.25,88.08
81676,2018-06-29 09:27:24.375000,-53.67,88.08
81677,2018-06-29 09:27:24.406250,-46.65,88.08
81678,2018-06-29 09:27:24.437500,-24.06,88.08
81679,2018-06-29 09:27:24.468750,2.15,88.08
81680,2018-06-29 09:27:24.500000,18.72,88.08
81681,2018-06-29 09:27:24.531250,24.5,87.78
81682,2018-06-29 09:27:24.562500,25.0,87.78
81683,2018-06-29 09:27:24.593750,22.63,87.78
81684,2018-06-29 09:27:24.625000,19.09,87.78
81685,2018-06-29 09:27:24.656250,18.48,87.78
81686,2018-06-29 09:27:24.687500,21.92,87.78
81687,2018-06-29 09:27:24.718750,24.02,87.78
81688,2018-06-29 09:27:24.750000,19.28,87.78
81689,2018-06-29 09:27:24.781250,11.86,87.78
81690,2018-06-29 09:27:24.812500,10.93,87.78
81691,2018-06-29 09:27:24.843750,19.72,87.78
81692,2018-06-29 09:27:24.875000,30.74,87.78
81693,2018-06-29 09:27:24.906250,39.02,87.78
81694,2018-06-29 09:27:24.937500,49.99,87.78
81695,2018-06-29 09:27:24.968750,66.67,87.78
81696,2018-06-29 09:27:25.000000,80.43,87.78
81697,2018-06-29 09:27:25.031250,79.99,87.78
81698,2018-06-29 09:27:25.062500,68.18,87.78
81699,2018-06-29 09:27:25.093750,49.98,87.78
81700,2018-06-29 09:27:25.125000,21.69,87.78
81701,2018-06-29 09:27:25.156250,-28.46,87.78
81702,2018-06-29 09:27:25.187500,-105.74,87.78
81703,2018-06-29 09:27:25.218750,-199.36,87.78
81704,2018-06-29 09:27:25.250000,-279.29,87.78
81705,2018-06-29 09:27:25.281250,-270.81,87.78
81706,2018-06-29 09:27:25.312500,-167.17,87.78
81707,2018-06-29 09:27:25.343750,-53.55,87.78
81708,2018-06-29 09:27:25.375000,25.9,87.78
81709,2018-06-29 09:27:25.406250,78.91,87.78
81710,2018-06-29 09:27:25.437500,104.82,87.78
81711,2018-06-29 09:27:25.468750,105.08,87.78
81712,2018-06-29 09:27:25.500000,102.01,87.78
81713,2018-06-29 09:27:25.531250,109.45,87.4
81714,2018-06-29 09:27:25.562500,117.51,87.4
81715,2018-06-29 09:27:25.593750,112.63,87.4
81716,2018-06-29 09:27:25.625000,99.04,87.4
81717,2018-06-29 09:27:25.656250,87.13,87.4
81718,2018-06-29 09:27:25.687500,80.62,87.4
81719,2018-06-29 09:27:25.718750,76.81,87.4
81720,2018-06-29 09:27:25.750000,74.11,87.4
81721,2018-06-29 09:27:25.781250,71.51,87.4
81722,2018-06-29 09:27:25.812500,65.28,87.4
81723,2018-06-29 09:27:25.843750,49.46,87.4
81724,2018-06-29 09:27:25.875000,18.0,87.4
81725,2018-06-29 09:27:25.906250,-23.75,87.4
81726,2018-06-29 09:27:25.937500,-77.75,87.4
81727,2018-06-29 09:27:25.968750,-149.5,87.4
81728,2018-06-29 09:27:26.000000,-227.67,87.4
81729,2018-06-29 09:27:26.031250,-273.9,87.4
81730,2018-06-29 09:27:26.062500,-256.31,87.4
81731,2018-06-29 09:27:26.093750,-183.71,87.4
81732,2018-06-29 09:27:26.125000,-93.56,87.4
81733,2018-06-29 09:27:26.156250,-16.72,87.4
81734,2018-06-29 09:27:26.187500,32.07,87.4
81735,2018-06-29 09:27:26.218750,50.01,87.4
81736,2018-06-29 09:27:26.250000,46.15,87.4
81737,2018-06-29 09:27:26.281250,33.54,87.4
81738,2018-06-29 09:27:26.312500,19.36,87.4
81739,2018-06-29 09:27:26.343750,3.12,87.4
81740,2018-06-29 09:27:26.375000,-16.5,87.4
81741,2018-06-29 09:27:26.406250,-39.19,87.4
81742,2018-06-29 09:27:26.437500,-63.98,87.4
81743,2018-06-29 09:27:26.468750,-88.31,87.4
81744,2018-06-29 09:27:26.500000,-103.99,87.4
81745,2018-06-29 09:27:26.531250,-98.78,87.0
81746,2018-06-29 09:27:26.562500,-68.62,87.0
81747,2018-06-29 09:27:26.593750,-20.65,87.0
81748,2018-06-29 09:27:26.625000,31.58,87.0
81749,2018-06-29 09:27:26.656250,74.79,87.0
81750,2018-06-29 09:27:26.687500,98.33,87.0
81751,2018-06-29 09:27:26.718750,102.42,87.0
81752,2018-06-29 09:27:26.750000,100.95,87.0
81753,2018-06-29 09:27:26.781250,101.81,87.0
81754,2018-06-29 09:27:26.812500,92.15,87.0
81755,2018-06-29 09:27:26.843750,49.07,87.0
81756,2018-06-29 09:27:26.875000,-24.22,87.0
81757,2018-06-29 09:27:26.906250,-97.34,87.0
81758,2018-06-29 09:27:26.937500,-140.78,87.0
81759,2018-06-29 09:27:26.968750,-153.13,87.0
81760,2018-06-29 09:27:27.000000,-150.11,87.0
81761,2018-06-29 09:27:27.031250,-138.11,87.0
81762,2018-06-29 09:27:27.062500,-117.11,87.0
81763,2018-06-29 09:27:27.093750,-61.06,87.0
81764,2018-06-29 09:27:27.125000,28.03,87.0
81765,2018-06-29 09:27:27.156250,91.03,87.0
81766,2018-06-29 09:27:27.187500,95.09,87.0
81767,2018-06-29 09:27:27.218750,51.79,87.0
81768,2018-06-29 09:27:27.250000,-8.66,87.0
81769,2018-06-29 09:27:27.281250,-57.47,87.0
81770,2018-06-29 09:27:27.312500,-79.62,87.0
81771,2018-06-29 09:27:27.343750,-80.74,87.0
81772,2018-06-29 09:27:27.375000,-71.68,87.0
81773,2018-06-29 09:27:27.406250,-67.94,87.0
81774,2018-06-29 09:27:27.437500,-69.32,87.0
81775,2018-06-29 09:27:27.468750,-67.21,87.0
81776,2018-06-29 09:27:27.500000,-61.99,87.0
81777,2018-06-29 09:27:27.531250,-65.27,86.62
81778,2018-06-29 09:27:27.562500,-82.67,86.62
81779,2018-06-29 09:27:27.593750,-99.31,86.62
81780,2018-06-29 09:27:27.625000,-90.15,86.62
81781,2018-06-29 09:27:27.656250,-47.48,86.62
81782,2018-06-29 09:27:27.687500,8.59,86.62
81783,2018-06-29 09:27:27.718750,54.32,86.62
81784,2018-06-29 09:27:27.750000,84.0,86.62
81785,2018-06-29 09:27:27.781250,102.36,86.62
81786,2018-06-29 09:27:27.812500,111.08,86.62
81787,2018-06-29 09:27:27.843750,112.25,86.62
81788,2018-06-29 09:27:27.875000,114.53,86.62
81789,2018-06-29 09:27:27.906250,124.11,86.62
81790,2018-06-29 09:27:27.937500,135.18,86.62
81791,2018-06-29 09:27:27.968750,140.56,86.62
81792,2018-06-29 09:27:28.000000,142.56,86.62
81793,2018-06-29 09:27:28.031250,151.09,86.62
81794,2018-06-29 09:27:28.062500,164.0,86.62
81795,2018-06-29 09:27:28.093750,169.34,86.62
81796,2018-06-29 09:27:28.125000,163.75,86.62
81797,2018-06-29 09:27:28.156250,160.39,86.62
81798,2018-06-29 09:27:28.187500,172.14,86.62
81799,2018-06-29 09:27:28.218750,190.3,86.62
81800,2018-06-29 09:27:28.250000,198.2,86.62
81801,2018-06-29 09:27:28.281250,189.69,86.62
81802,2018-06-29 09:27:28.312500,182.17,86.62
81803,2018-06-29 09:27:28.343750,189.63,86.62
81804,2018-06-29 09:27:28.375000,205.36,86.62
81805,2018-06-29 09:27:28.406250,200.24,86.62
81806,2018-06-29 09:27:28.437500,108.68,86.62
81807,2018-06-29 09:27:28.468750,-28.65,86.62
81808,2018-06-29 09:27:28.500000,-122.49,86.62
81809,2018-06-29 09:27:28.531250,-157.49,86.22
81810,2018-06-29 09:27:28.562500,-159.01,86.22
81811,2018-06-29 09:27:28.593750,-132.87,86.22
81812,2018-06-29 09:27:28.625000,-84.96,86.22
81813,2018-06-29 09:27:28.656250,-39.25,86.22
81814,2018-06-29 09:27:28.687500,-13.67,86.22
81815,2018-06-29 09:27:28.718750,-5.25,86.22
81816,2018-06-29 09:27:28.750000,-0.99,86.22
81817,2018-06-29 09:27:28.781250,11.69,86.22
81818,2018-06-29 09:27:28.812500,49.42,86.22
81819,2018-06-29 09:27:28.843750,101.34,86.22
81820,2018-06-29 09:27:28.875000,125.43,86.22
81821,2018-06-29 09:27:28.906250,101.05,86.22
81822,2018-06-29 09:27:28.937500,54.3,86.22
81823,2018-06-29 09:27:28.968750,23.79,86.22
81824,2018-06-29 09:27:29.000000,25.78,86.22
81825,2018-06-29 09:27:29.031250,45.62,86.22
81826,2018-06-29 09:27:29.062500,45.41,86.22
81827,2018-06-29 09:27:29.093750,12.26,86.22
81828,2018-06-29 09:27:29.125000,-33.32,86.22
81829,2018-06-29 09:27:29.156250,-71.8,86.22
81830,2018-06-29 09:27:29.187500,-109.65,86.22
81831,2018-06-29 09:27:29.218750,-170.81,86.22
81832,2018-06-29 09:27:29.250000,-243.71,86.22
81833,2018-06-29 09:27:29.281250,-323.42,86.22
81834,2018-06-29 09:27:29.312500,-396.56,86.22
81835,2018-06-29 09:27:29.343750,-474.08,86.22
81836,2018-06-29 09:27:29.375000,-558.95,86.22
81837,2018-06-29 09:27:29.406250,-638.74,86.22
81838,2018-06-29 09:27:29.437500,-655.02,86.22
81839,2018-06-29 09:27:29.468750,-416.14,86.22
81840,2018-06-29 09:27:29.500000,-78.57,86.22
81841,2018-06-29 09:27:29.531250,102.52,85.78
81842,2018-06-29 09:27:29.562500,177.55,85.78
81843,2018-06-29 09:27:29.593750,211.03,85.78
81844,2018-06-29 09:27:29.625000,175.94,85.78
81845,2018-06-29 09:27:29.656250,79.76,85.78
81846,2018-06-29 09:27:29.687500,-37.08,85.78
81847,2018-06-29 09:27:29.718750,-140.17,85.78
81848,2018-06-29 09:27:29.750000,-198.48,85.78
81849,2018-06-29 09:27:29.781250,-187.16,85.78
81850,2018-06-29 09:27:29.812500,-64.04,85.78
81851,2018-06-29 09:27:29.843750,47.58,85.78
81852,2018-06-29 09:27:29.875000,79.7,85.78
81853,2018-06-29 09:27:29.906250,59.41,85.78
81854,2018-06-29 09:27:29.937500,18.85,85.78
81855,2018-06-29 09:27:29.968750,-18.8,85.78
81856,2018-06-29 09:27:30.000000,-29.67,85.78
81857,2018-06-29 09:27:30.031250,-13.34,85.78
81858,2018-06-29 09:27:30.062500,8.68,85.78
81859,2018-06-29 09:27:30.093750,26.42,85.78
81860,2018-06-29 09:27:30.125000,42.89,85.78
81861,2018-06-29 09:27:30.156250,60.29,85.78
81862,2018-06-29 09:27:30.187500,61.81,85.78
81863,2018-06-29 09:27:30.218750,41.91,85.78
81864,2018-06-29 09:27:30.250000,10.54,85.78
81865,2018-06-29 09:27:30.281250,-19.99,85.78
81866,2018-06-29 09:27:30.312500,-42.57,85.78
81867,2018-06-29 09:27:30.343750,-49.85,85.78
81868,2018-06-29 09:27:30.375000,-39.23,85.78
81869,2018-06-29 09:27:30.406250,-18.77,85.78
81870,2018-06-29 09:27:30.437500,-0.27,85.78
81871,2018-06-29 09:27:30.468750,6.96,85.78
81872,2018-06-29 09:27:30.500000,2.62,85.78
81873,2018-06-29 09:27:30.531250,-8.92,85.32
81874,2018-06-29 09:27:30.562500,-24.68,85.32
81875,2018-06-29 09:27:30.593750,-43.38,85.32
81876,2018-06-29 09:27:30.625000,-60.27,85.32
81877,2018-06-29 09:27:30.656250,-69.38,85.32
81878,2018-06-29 09:27:30.687500,-68.04,85.32
81879,2018-06-29 09:27:30.718750,-54.45,85.32
81880,2018-06-29 09:27:30.750000,-27.53,85.32
81881,2018-06-29 09:27:30.781250,9.54,85.32
81882,2018-06-29 09:27:30.812500,52.76,85.32
81883,2018-06-29 09:27:30.843750,103.59,85.32
81884,2018-06-29 09:27:30.875000,159.38,85.32
81885,2018-06-29 09:27:30.906250,201.32,85.32
81886,2018-06-29 09:27:30.937500,211.46,85.32
81887,2018-06-29 09:27:30.968750,194.91,85.32
81888,2018-06-29 09:27:31.000000,167.13,85.32
81889,2018-06-29 09:27:31.031250,134.58,85.32
81890,2018-06-29 09:27:31.062500,101.16,85.32
81891,2018-06-29 09:27:31.093750,73.09,85.32
81892,2018-06-29 09:27:31.125000,55.78,85.32
81893,2018-06-29 09:27:31.156250,60.97,85.32
81894,2018-06-29 09:27:31.187500,100.94,85.32
81895,2018-06-29 09:27:31.218750,164.56,85.32
81896,2018-06-29 09:27:31.250000,222.53,85.32
81897,2018-06-29 09:27:31.281250,258.71,85.32
81898,2018-06-29 09:27:31.312500,276.57,85.32
81899,2018-06-29 09:27:31.343750,281.01,85.32
81900,2018-06-29 09:27:31.375000,273.16,85.32
81901,2018-06-29 09:27:31.406250,257.04,85.32
81902,2018-06-29 09:27:31.437500,237.47,85.32
81903,2018-06-29 09:27:31.468750,214.58,85.32
81904,2018-06-29 09:27:31.500000,187.92,85.32
81905,2018-06-29 09:27:31.531250,161.44,84.87
81906,2018-06-29 09:27:31.562500,138.06,84.87
81907,2018-06-29 09:27:31.593750,113.85,84.87
81908,2018-06-29 09:27:31.625000,84.04,84.87
81909,2018-06-29 09:27:31.656250,50.5,84.87
81910,2018-06-29 09:27:31.687500,18.52,84.87
81911,2018-06-29 09:27:31.718750,-11.51,84.87
81912,2018-06-29 09:27:31.750000,-46.8,84.87
81913,2018-06-29 09:27:31.781250,-94.46,84.87
81914,2018-06-29 09:27:31.812500,-146.76,84.87
81915,2018-06-29 09:27:31.843750,-176.89,84.87
81916,2018-06-29 09:27:31.875000,-164.23,84.87
81917,2018-06-29 09:27:31.906250,-122.7,84.87
81918,2018-06-29 09:27:31.937500,-85.69,84.87
81919,2018-06-29 09:27:31.968750,-67.04,84.87
81920,2018-06-29 09:27:32.000000,-56.75,84.87
81921,2018-06-29 09:27:32.031250,-46.48,84.87
81922,2018-06-29 09:27:32.062500,-37.56,84.87
81923,2018-06-29 09:27:32.093750,-30.45,84.87
81924,2018-06-29 09:27:32.125000,-23.81,84.87
81925,2018-06-29 09:27:32.156250,-20.26,84.87
81926,2018-06-29 09:27:32.187500,-22.59,84.87
81927,2018-06-29 09:27:32.218750,-25.98,84.87
81928,2018-06-29 09:27:32.250000,-23.38,84.87
81929,2018-06-29 09:27:32.281250,-18.19,84.87
81930,2018-06-29 09:27:32.312500,-22.12,84.87
81931,2018-06-29 09:27:32.343750,-39.03,84.87
81932,2018-06-29 09:27:32.375000,-60.55,84.87
81933,2018-06-29 09:27:32.406250,-79.74,84.87
81934,2018-06-29 09:27:32.437500,-99.21,84.87
81935,2018-06-29 09:27:32.468750,-124.37,84.87
81936,2018-06-29 09:27:32.500000,-154.7,84.87
81937,2018-06-29 09:27:32.531250,-177.47,84.47
81938,2018-06-29 09:27:32.562500,-169.52,84.47
81939,2018-06-29 09:27:32.593750,-118.89,84.47
81940,2018-06-29 09:27:32.625000,-44.09,84.47
81941,2018-06-29 09:27:32.656250,23.64,84.47
81942,2018-06-29 09:27:32.687500,70.8,84.47
81943,2018-06-29 09:27:32.718750,100.44,84.47
81944,2018-06-29 09:27:32.750000,114.44,84.47
81945,2018-06-29 09:27:32.781250,114.43,84.47
81946,2018-06-29 09:27:32.812500,107.76,84.47
81947,2018-06-29 09:27:32.843750,99.19,84.47
81948,2018-06-29 09:27:32.875000,84.82,84.47
81949,2018-06-29 09:27:32.906250,62.21,84.47
81950,2018-06-29 09:27:32.937500,37.77,84.47
81951,2018-06-29 09:27:32.968750,16.83,84.47
81952,2018-06-29 09:27:33.000000,-5.36,84.47
81953,2018-06-29 09:27:33.031250,-33.85,84.47
81954,2018-06-29 09:27:33.062500,-62.0,84.47
81955,2018-06-29 09:27:33.093750,-78.17,84.47
81956,2018-06-29 09:27:33.125000,-81.78,84.47
81957,2018-06-29 09:27:33.156250,-84.47,84.47
81958,2018-06-29 09:27:33.187500,-95.43,84.47
81959,2018-06-29 09:27:33.218750,-111.63,84.47
81960,2018-06-29 09:27:33.250000,-124.79,84.47
81961,2018-06-29 09:27:33.281250,-133.21,84.47
81962,2018-06-29 09:27:33.312500,-143.46,84.47
81963,2018-06-29 09:27:33.343750,-162.87,84.47
81964,2018-06-29 09:27:33.375000,-186.9,84.47
81965,2018-06-29 09:27:33.406250,-192.49,84.47
81966,2018-06-29 09:27:33.437500,-156.61,84.47
81967,2018-06-29 09:27:33.468750,-85.86,84.47
81968,2018-06-29 09:27:33.500000,-11.73,84.47
81969,2018-06-29 09:27:33.531250,43.64,84.07
81970,2018-06-29 09:27:33.562500,79.12,84.07
81971,2018-06-29 09:27:33.593750,99.33,84.07
81972,2018-06-29 09:27:33.625000,107.74,84.07
81973,2018-06-29 09:27:33.656250,109.14,84.07
81974,2018-06-29 09:27:33.687500,106.68,84.07
81975,2018-06-29 09:27:33.718750,100.47,84.07
81976,2018-06-29 09:27:33.750000,91.72,84.07
81977,2018-06-29 09:27:33.781250,83.42,84.07
81978,2018-06-29 09:27:33.812500,76.56,84.07
81979,2018-06-29 09:27:33.843750,68.92,84.07
81980,2018-06-29 09:27:33.875000,58.92,84.07
81981,2018-06-29 09:27:33.906250,47.8,84.07
81982,2018-06-29 09:27:33.937500,38.61,84.07
81983,2018-06-29 09:27:33.968750,33.22,84.07
81984,2018-06-29 09:27:34.000000,30.35,84.07
81985,2018-06-29 09:27:34.031250,27.06,84.07
81986,2018-06-29 09:27:34.062500,22.61,84.07
81987,2018-06-29 09:27:34.093750,19.33,84.07
81988,2018-06-29 09:27:34.125000,17.68,84.07
81989,2018-06-29 09:27:34.156250,13.55,84.07
81990,2018-06-29 09:27:34.187500,0.61,84.07
81991,2018-06-29 09:27:34.218750,-24.27,84.07
81992,2018-06-29 09:27:34.250000,-57.71,84.07
81993,2018-06-29 09:27:34.281250,-82.96,84.07
81994,2018-06-29 09:27:34.312500,-75.83,84.07
81995,2018-06-29 09:27:34.343750,-30.86,84.07
81996,2018-06-29 09:27:34.375000,30.66,84.07
81997,2018-06-29 09:27:34.406250,85.0,84.07
81998,2018-06-29 09:27:34.437500,129.29,84.07
81999,2018-06-29 09:27:34.468750,161.74,84.07
82000,2018-06-29 09:27:34.500000,175.16,84.07
82001,2018-06-29 09:27:34.531250,171.83,83.67
82002,2018-06-29 09:27:34.562500,169.78,83.67
82003,2018-06-29 09:27:34.593750,180.82,83.67
82004,2018-06-29 09:27:34.625000,194.35,83.67
82005,2018-06-29 09:27:34.656250,199.67,83.67
82006,2018-06-29 09:27:34.687500,199.02,83.67
82007,2018-06-29 09:27:34.718750,203.85,83.67
82008,2018-06-29 09:27:34.750000,209.05,83.67
82009,2018-06-29 09:27:34.781250,204.39,83.67
82010,2018-06-29 09:27:34.812500,174.2,83.67
82011,2018-06-29 09:27:34.843750,55.37,83.67
82012,2018-06-29 09:27:34.875000,-98.42,83.67
82013,2018-06-29 09:27:34.906250,-190.42,83.67
82014,2018-06-29 09:27:34.937500,-209.09,83.67
82015,2018-06-29 09:27:34.968750,-183.28,83.67
82016,2018-06-29 09:27:35.000000,-134.48,83.67
82017,2018-06-29 09:27:35.031250,-116.9,83.67
82018,2018-06-29 09:27:35.062500,-171.42,83.67
82019,2018-06-29 09:27:35.093750,-274.41,83.67
82020,2018-06-29 09:27:35.125000,-364.09,83.67
82021,2018-06-29 09:27:35.156250,-400.78,83.67
82022,2018-06-29 09:27:35.187500,-386.11,83.67
82023,2018-06-29 09:27:35.218750,-337.46,83.67
82024,2018-06-29 09:27:35.250000,-269.62,83.67
82025,2018-06-29 09:27:35.281250,-192.03,83.67
82026,2018-06-29 09:27:35.312500,-116.96,83.67
82027,2018-06-29 09:27:35.343750,-53.02,83.67
82028,2018-06-29 09:27:35.375000,-2.81,83.67
82029,2018-06-29 09:27:35.406250,35.77,83.67
82030,2018-06-29 09:27:35.437500,65.92,83.67
82031,2018-06-29 09:27:35.468750,91.4,83.67
82032,2018-06-29 09:27:35.500000,113.34,83.67
82033,2018-06-29 09:27:35.531250,128.93,83.28
82034,2018-06-29 09:27:35.562500,135.95,83.28
82035,2018-06-29 09:27:35.593750,135.28,83.28
82036,2018-06-29 09:27:35.625000,132.81,83.28
82037,2018-06-29 09:27:35.656250,119.38,83.28
82038,2018-06-29 09:27:35.687500,86.19,83.28
82039,2018-06-29 09:27:35.718750,52.48,83.28
82040,2018-06-29 09:27:35.750000,31.73,83.28
82041,2018-06-29 09:27:35.781250,20.83,83.28
82042,2018-06-29 09:27:35.812500,17.96,83.28
82043,2018-06-29 09:27:35.843750,14.45,83.28
82044,2018-06-29 09:27:35.875000,1.12,83.28
82045,2018-06-29 09:27:35.906250,-17.93,83.28
82046,2018-06-29 09:27:35.937500,-25.03,83.28
82047,2018-06-29 09:27:35.968750,-8.28,83.28
82048,2018-06-29 09:27:36.000000,22.51,83.28
82049,2018-06-29 09:27:36.031250,45.88,83.28
82050,2018-06-29 09:27:36.062500,54.93,83.28
82051,2018-06-29 09:27:36.093750,57.98,83.28
82052,2018-06-29 09:27:36.125000,57.56,83.28
82053,2018-06-29 09:27:36.156250,46.79,83.28
82054,2018-06-29 09:27:36.187500,25.75,83.28
82055,2018-06-29 09:27:36.218750,5.16,83.28
82056,2018-06-29 09:27:36.250000,-7.23,83.28
82057,2018-06-29 09:27:36.281250,-14.55,83.28
82058,2018-06-29 09:27:36.312500,-24.02,83.28
82059,2018-06-29 09:27:36.343750,-37.41,83.28
82060,2018-06-29 09:27:36.375000,-52.19,83.28
82061,2018-06-29 09:27:36.406250,-67.52,83.28
82062,2018-06-29 09:27:36.437500,-83.9,83.28
82063,2018-06-29 09:27:36.468750,-97.48,83.28
82064,2018-06-29 09:27:36.500000,-102.24,83.28
82065,2018-06-29 09:27:36.531250,-98.74,82.93
82066,2018-06-29 09:27:36.562500,-93.87,82.93
82067,2018-06-29 09:27:36.593750,-92.69,82.93
82068,2018-06-29 09:27:36.625000,-93.9,82.93
82069,2018-06-29 09:27:36.656250,-86.85,82.93
82070,2018-06-29 09:27:36.687500,-53.37,82.93
82071,2018-06-29 09:27:36.718750,13.01,82.93
82072,2018-06-29 09:27:36.750000,91.46,82.93
82073,2018-06-29 09:27:36.781250,151.98,82.93
82074,2018-06-29 09:27:36.812500,182.3,82.93
82075,2018-06-29 09:27:36.843750,185.3,82.93
82076,2018-06-29 09:27:36.875000,164.79,82.93
82077,2018-06-29 09:27:36.906250,126.75,82.93
82078,2018-06-29 09:27:36.937500,82.66,82.93
82079,2018-06-29 09:27:36.968750,40.45,82.93
82080,2018-06-29 09:27:37.000000,-2.0,82.93
82081,2018-06-29 09:27:37.031250,-47.74,82.93
82082,2018-06-29 09:27:37.062500,-90.47,82.93
82083,2018-06-29 09:27:37.093750,-121.44,82.93
82084,2018-06-29 09:27:37.125000,-142.04,82.93
82085,2018-06-29 09:27:37.156250,-160.1,82.93
82086,2018-06-29 09:27:37.187500,-174.86,82.93
82087,2018-06-29 09:27:37.218750,-174.28,82.93
82088,2018-06-29 09:27:37.250000,-148.47,82.93
82089,2018-06-29 09:27:37.281250,-103.06,82.93
82090,2018-06-29 09:27:37.312500,-56.34,82.93
82091,2018-06-29 09:27:37.343750,-21.58,82.93
82092,2018-06-29 09:27:37.375000,6.56,82.93
82093,2018-06-29 09:27:37.406250,47.3,82.93
82094,2018-06-29 09:27:37.437500,111.91,82.93
82095,2018-06-29 09:27:37.468750,185.36,82.93
82096,2018-06-29 09:27:37.500000,237.05,82.93
82097,2018-06-29 09:27:37.531250,251.53,82.62
82098,2018-06-29 09:27:37.562500,237.59,82.62
82099,2018-06-29 09:27:37.593750,208.72,82.62
82100,2018-06-29 09:27:37.625000,171.99,82.62
82101,2018-06-29 09:27:37.656250,133.89,82.62
82102,2018-06-29 09:27:37.687500,100.36,82.62
82103,2018-06-29 09:27:37.718750,71.08,82.62
82104,2018-06-29 09:27:37.750000,42.78,82.62
82105,2018-06-29 09:27:37.781250,16.33,82.62
82106,2018-06-29 09:27:37.812500,-5.96,82.62
82107,2018-06-29 09:27:37.843750,-27.95,82.62
82108,2018-06-29 09:27:37.875000,-55.63,82.62
82109,2018-06-29 09:27:37.906250,-86.18,82.62
82110,2018-06-29 09:27:37.937500,-109.37,82.62
82111,2018-06-29 09:27:37.968750,-121.81,82.62
82112,2018-06-29 09:27:38.000000,-132.21,82.62
82113,2018-06-29 09:27:38.031250,-151.14,82.62
82114,2018-06-29 09:27:38.062500,-181.56,82.62
82115,2018-06-29 09:27:38.093750,-214.02,82.62
82116,2018-06-29 09:27:38.125000,-224.35,82.62
82117,2018-06-29 09:27:38.156250,-191.24,82.62
82118,2018-06-29 09:27:38.187500,-124.27,82.62
82119,2018-06-29 09:27:38.218750,-57.21,82.62
82120,2018-06-29 09:27:38.250000,-10.1,82.62
82121,2018-06-29 09:27:38.281250,20.42,82.62
82122,2018-06-29 09:27:38.312500,38.63,82.62
82123,2018-06-29 09:27:38.343750,44.14,82.62
82124,2018-06-29 09:27:38.375000,43.4,82.62
82125,2018-06-29 09:27:38.406250,46.27,82.62
82126,2018-06-29 09:27:38.437500,52.89,82.62
82127,2018-06-29 09:27:38.468750,55.02,82.62
82128,2018-06-29 09:27:38.500000,49.42,82.62
82129,2018-06-29 09:27:38.531250,41.96,82.33
82130,2018-06-29 09:27:38.562500,37.16,82.33
82131,2018-06-29 09:27:38.593750,30.83,82.33
82132,2018-06-29 09:27:38.625000,18.1,82.33
82133,2018-06-29 09:27:38.656250,2.61,82.33
82134,2018-06-29 09:27:38.687500,-9.52,82.33
82135,2018-06-29 09:27:38.718750,-20.47,82.33
82136,2018-06-29 09:27:38.750000,-39.38,82.33
82137,2018-06-29 09:27:38.781250,-70.35,82.33
82138,2018-06-29 09:27:38.812500,-102.13,82.33
82139,2018-06-29 09:27:38.843750,-110.84,82.33
82140,2018-06-29 09:27:38.875000,-80.9,82.33
82141,2018-06-29 09:27:38.906250,-24.1,82.33
82142,2018-06-29 09:27:38.937500,31.59,82.33
82143,2018-06-29 09:27:38.968750,70.67,82.33
82144,2018-06-29 09:27:39.000000,96.08,82.33
82145,2018-06-29 09:27:39.031250,112.1,82.33
82146,2018-06-29 09:27:39.062500,116.98,82.33
82147,2018-06-29 09:27:39.093750,112.45,82.33
82148,2018-06-29 09:27:39.125000,107.83,82.33
82149,2018-06-29 09:27:39.156250,109.11,82.33
82150,2018-06-29 09:27:39.187500,109.94,82.33
82151,2018-06-29 09:27:39.218750,99.25,82.33
82152,2018-06-29 09:27:39.250000,73.39,82.33
82153,2018-06-29 09:27:39.281250,36.51,82.33
82154,2018-06-29 09:27:39.312500,-5.4,82.33
82155,2018-06-29 09:27:39.343750,-47.7,82.33
82156,2018-06-29 09:27:39.375000,-89.32,82.33
82157,2018-06-29 09:27:39.406250,-131.65,82.33
82158,2018-06-29 09:27:39.437500,-171.29,82.33
82159,2018-06-29 09:27:39.468750,-198.44,82.33
82160,2018-06-29 09:27:39.500000,-207.63,82.33
82161,2018-06-29 09:27:39.531250,-206.52,82.1
82162,2018-06-29 09:27:39.562500,-205.74,82.1
82163,2018-06-29 09:27:39.593750,-200.34,82.1
82164,2018-06-29 09:27:39.625000,-171.27,82.1
82165,2018-06-29 09:27:39.656250,-108.52,82.1
82166,2018-06-29 09:27:39.687500,-23.72,82.1
82167,2018-06-29 09:27:39.718750,60.25,82.1
82168,2018-06-29 09:27:39.750000,122.0,82.1
82169,2018-06-29 09:27:39.781250,149.04,82.1
82170,2018-06-29 09:27:39.812500,147.25,82.1
82171,2018-06-29 09:27:39.843750,138.17,82.1
82172,2018-06-29 09:27:39.875000,138.82,82.1
82173,2018-06-29 09:27:39.906250,149.5,82.1
82174,2018-06-29 09:27:39.937500,162.63,82.1
82175,2018-06-29 09:27:39.968750,172.95,82.1
82176,2018-06-29 09:27:40.000000,176.03,82.1
82177,2018-06-29 09:27:40.031250,164.38,82.1
82178,2018-06-29 09:27:40.062500,131.86,82.1
82179,2018-06-29 09:27:40.093750,82.38,82.1
82180,2018-06-29 09:27:40.125000,29.35,82.1
82181,2018-06-29 09:27:40.156250,-14.41,82.1
82182,2018-06-29 09:27:40.187500,-42.92,82.1
82183,2018-06-29 09:27:40.218750,-56.04,82.1
82184,2018-06-29 09:27:40.250000,-58.05,82.1
82185,2018-06-29 09:27:40.281250,-54.06,82.1
82186,2018-06-29 09:27:40.312500,-44.4,82.1
82187,2018-06-29 09:27:40.343750,-25.08,82.1
82188,2018-06-29 09:27:40.375000,6.68,82.1
82189,2018-06-29 09:27:40.406250,48.9,82.1
82190,2018-06-29 09:27:40.437500,93.21,82.1
82191,2018-06-29 09:27:40.468750,128.67,82.1
82192,2018-06-29 09:27:40.500000,151.73,82.1
82193,2018-06-29 09:27:40.531250,163.11,81.88
82194,2018-06-29 09:27:40.562500,151.3,81.88
82195,2018-06-29 09:27:40.593750,98.27,81.88
82196,2018-06-29 09:27:40.625000,3.92,81.88
82197,2018-06-29 09:27:40.656250,-108.24,81.88
82198,2018-06-29 09:27:40.687500,-203.92,81.88
82199,2018-06-29 09:27:40.718750,-250.29,81.88
82200,2018-06-29 09:27:40.750000,-235.11,81.88
82201,2018-06-29 09:27:40.781250,-181.66,81.88
82202,2018-06-29 09:27:40.812500,-127.39,81.88
82203,2018-06-29 09:27:40.843750,-90.92,81.88
82204,2018-06-29 09:27:40.875000,-72.06,81.88
82205,2018-06-29 09:27:40.906250,-71.44,81.88
82206,2018-06-29 09:27:40.937500,-93.5,81.88
82207,2018-06-29 09:27:40.968750,-133.18,81.88
82208,2018-06-29 09:27:41.000000,-171.59,81.88
82209,2018-06-29 09:27:41.031250,-187.57,81.88
82210,2018-06-29 09:27:41.062500,-170.08,81.88
82211,2018-06-29 09:27:41.093750,-120.42,81.88
82212,2018-06-29 09:27:41.125000,-50.34,81.88
82213,2018-06-29 09:27:41.156250,22.74,81.88
82214,2018-06-29 09:27:41.187500,86.22,81.88
82215,2018-06-29 09:27:41.218750,137.46,81.88
82216,2018-06-29 09:27:41.250000,176.69,81.88
82217,2018-06-29 09:27:41.281250,200.73,81.88
82218,2018-06-29 09:27:41.312500,204.8,81.88
82219,2018-06-29 09:27:41.343750,185.3,81.88
82220,2018-06-29 09:27:41.375000,141.61,81.88
82221,2018-06-29 09:27:41.406250,80.76,81.88
82222,2018-06-29 09:27:41.437500,17.2,81.88
82223,2018-06-29 09:27:41.468750,-37.58,81.88
82224,2018-06-29 09:27:41.500000,-82.4,81.88
82225,2018-06-29 09:27:41.531250,-119.3,81.73
82226,2018-06-29 09:27:41.562500,-145.61,81.73
82227,2018-06-29 09:27:41.593750,-158.84,81.73
82228,2018-06-29 09:27:41.625000,-164.41,81.73
82229,2018-06-29 09:27:41.656250,-173.05,81.73
82230,2018-06-29 09:27:41.687500,-189.22,81.73
82231,2018-06-29 09:27:41.718750,-199.95,81.73
82232,2018-06-29 09:27:41.750000,-181.61,81.73
82233,2018-06-29 09:27:41.781250,-126.71,81.73
82234,2018-06-29 09:27:41.812500,-55.77,81.73
82235,2018-06-29 09:27:41.843750,4.89,81.73
82236,2018-06-29 09:27:41.875000,45.42,81.73
82237,2018-06-29 09:27:41.906250,68.59,81.73
82238,2018-06-29 09:27:41.937500,80.29,81.73
82239,2018-06-29 09:27:41.968750,88.73,81.73
82240,2018-06-29 09:27:42.000000,98.81,81.73
82241,2018-06-29 09:27:42.031250,105.36,81.73
82242,2018-06-29 09:27:42.062500,101.29,81.73
82243,2018-06-29 09:27:42.093750,90.53,81.73
82244,2018-06-29 09:27:42.125000,85.3,81.73
82245,2018-06-29 09:27:42.156250,90.74,81.73
82246,2018-06-29 09:27:42.187500,98.55,81.73
82247,2018-06-29 09:27:42.218750,99.28,81.73
82248,2018-06-29 09:27:42.250000,93.84,81.73
82249,2018-06-29 09:27:42.281250,86.73,81.73
82250,2018-06-29 09:27:42.312500,74.73,81.73
82251,2018-06-29 09:27:42.343750,50.94,81.73
82252,2018-06-29 09:27:42.375000,15.01,81.73
82253,2018-06-29 09:27:42.406250,-22.05,81.73
82254,2018-06-29 09:27:42.437500,-40.37,81.73
82255,2018-06-29 09:27:42.468750,-27.38,81.73
82256,2018-06-29 09:27:42.500000,5.58,81.73
82257,2018-06-29 09:27:42.531250,34.57,81.6
82258,2018-06-29 09:27:42.562500,48.85,81.6
82259,2018-06-29 09:27:42.593750,54.01,81.6
82260,2018-06-29 09:27:42.625000,55.58,81.6
82261,2018-06-29 09:27:42.656250,50.85,81.6
82262,2018-06-29 09:27:42.687500,34.56,81.6
82263,2018-06-29 09:27:42.718750,7.17,81.6
82264,2018-06-29 09:27:42.750000,-22.74,81.6
82265,2018-06-29 09:27:42.781250,-44.08,81.6
82266,2018-06-29 09:27:42.812500,-51.49,81.6
82267,2018-06-29 09:27:42.843750,-49.32,81.6
82268,2018-06-29 09:27:42.875000,-47.1,81.6
82269,2018-06-29 09:27:42.906250,-49.53,81.6
82270,2018-06-29 09:27:42.937500,-53.05,81.6
82271,2018-06-29 09:27:42.968750,-54.08,81.6
82272,2018-06-29 09:27:43.000000,-56.46,81.6
82273,2018-06-29 09:27:43.031250,-66.75,81.6
82274,2018-06-29 09:27:43.062500,-80.62,81.6
82275,2018-06-29 09:27:43.093750,-77.74,81.6
82276,2018-06-29 09:27:43.125000,-39.96,81.6
82277,2018-06-29 09:27:43.156250,25.28,81.6
82278,2018-06-29 09:27:43.187500,89.92,81.6
82279,2018-06-29 09:27:43.218750,131.57,81.6
82280,2018-06-29 09:27:43.250000,145.53,81.6
82281,2018-06-29 09:27:43.281250,137.45,81.6
82282,2018-06-29 09:27:43.312500,116.12,81.6
82283,2018-06-29 09:27:43.343750,90.34,81.6
82284,2018-06-29 09:27:43.375000,65.4,81.6
82285,2018-06-29 09:27:43.406250,42.93,81.6
82286,2018-06-29 09:27:43.437500,23.95,81.6
82287,2018-06-29 09:27:43.468750,10.06,81.6
82288,2018-06-29 09:27:43.500000,0.09,81.6
82289,2018-06-29 09:27:43.531250,-10.69,81.5
82290,2018-06-29 09:27:43.562500,-24.81,81.5
82291,2018-06-29 09:27:43.593750,-39.26,81.5
82292,2018-06-29 09:27:43.625000,-51.16,81.5
82293,2018-06-29 09:27:43.656250,-63.75,81.5
82294,2018-06-29 09:27:43.687500,-83.45,81.5
82295,2018-06-29 09:27:43.718750,-109.17,81.5
82296,2018-06-29 09:27:43.750000,-123.92,81.5
82297,2018-06-29 09:27:43.781250,-105.69,81.5
82298,2018-06-29 09:27:43.812500,-53.76,81.5
82299,2018-06-29 09:27:43.843750,7.08,81.5
82300,2018-06-29 09:27:43.875000,53.88,81.5
82301,2018-06-29 09:27:43.906250,83.01,81.5
82302,2018-06-29 09:27:43.937500,97.76,81.5
82303,2018-06-29 09:27:43.968750,96.41,81.5
82304,2018-06-29 09:27:44.000000,78.25,81.5
82305,2018-06-29 09:27:44.031250,50.44,81.5
82306,2018-06-29 09:27:44.062500,23.79,81.5
82307,2018-06-29 09:27:44.093750,5.38,81.5
82308,2018-06-29 09:27:44.125000,-3.48,81.5
82309,2018-06-29 09:27:44.156250,-5.78,81.5
82310,2018-06-29 09:27:44.187500,-7.66,81.5
82311,2018-06-29 09:27:44.218750,-14.11,81.5
82312,2018-06-29 09:27:44.250000,-23.98,81.5
82313,2018-06-29 09:27:44.281250,-32.41,81.5
82314,2018-06-29 09:27:44.312500,-38.84,81.5
82315,2018-06-29 09:27:44.343750,-49.83,81.5
82316,2018-06-29 09:27:44.375000,-69.85,81.5
82317,2018-06-29 09:27:44.406250,-86.64,81.5
82318,2018-06-29 09:27:44.437500,-74.9,81.5
82319,2018-06-29 09:27:44.468750,-24.67,81.5
82320,2018-06-29 09:27:44.500000,43.35,81.5
82321,2018-06-29 09:27:44.531250,100.38,81.43
82322,2018-06-29 09:27:44.562500,135.98,81.43
82323,2018-06-29 09:27:44.593750,153.74,81.43
82324,2018-06-29 09:27:44.625000,156.89,81.43
82325,2018-06-29 09:27:44.656250,147.86,81.43
82326,2018-06-29 09:27:44.687500,131.24,81.43
82327,2018-06-29 09:27:44.718750,110.56,81.43
82328,2018-06-29 09:27:44.750000,87.18,81.43
82329,2018-06-29 09:27:44.781250,63.21,81.43
82330,2018-06-29 09:27:44.812500,40.3,81.43
82331,2018-06-29 09:27:44.843750,16.81,81.43
82332,2018-06-29 09:27:44.875000,-8.47,81.43
82333,2018-06-29 09:27:44.906250,-32.65,81.43
82334,2018-06-29 09:27:44.937500,-53.92,81.43
82335,2018-06-29 09:27:44.968750,-77.14,81.43
82336,2018-06-29 09:27:45.000000,-109.58,81.43
82337,2018-06-29 09:27:45.031250,-149.12,81.43
82338,2018-06-29 09:27:45.062500,-175.14,81.43
82339,2018-06-29 09:27:45.093750,-160.96,81.43
82340,2018-06-29 09:27:45.125000,-103.95,81.43
82341,2018-06-29 09:27:45.156250,-31.84,81.43
82342,2018-06-29 09:27:45.187500,26.76,81.43
82343,2018-06-29 09:27:45.218750,63.04,81.43
82344,2018-06-29 09:27:45.250000,78.61,81.43
82345,2018-06-29 09:27:45.281250,76.47,81.43
82346,2018-06-29 09:27:45.312500,63.83,81.43
82347,2018-06-29 09:27:45.343750,48.99,81.43
82348,2018-06-29 09:27:45.375000,34.45,81.43
82349,2018-06-29 09:27:45.406250,19.01,81.43
82350,2018-06-29 09:27:45.437500,2.54,81.43
82351,2018-06-29 09:27:45.468750,-15.7,81.43
82352,2018-06-29 09:27:45.500000,-37.44,81.43
82353,2018-06-29 09:27:45.531250,-60.21,81.35
82354,2018-06-29 09:27:45.562500,-77.5,81.35
82355,2018-06-29 09:27:45.593750,-86.71,81.35
82356,2018-06-29 09:27:45.625000,-93.11,81.35
82357,2018-06-29 09:27:45.656250,-105.17,81.35
82358,2018-06-29 09:27:45.687500,-123.81,81.35
82359,2018-06-29 09:27:45.718750,-131.6,81.35
82360,2018-06-29 09:27:45.750000,-105.0,81.35
82361,2018-06-29 09:27:45.781250,-46.23,81.35
82362,2018-06-29 09:27:45.812500,13.9,81.35
82363,2018-06-29 09:27:45.843750,51.71,81.35
82364,2018-06-29 09:27:45.875000,68.33,81.35
82365,2018-06-29 09:27:45.906250,71.15,81.35
82366,2018-06-29 09:27:45.937500,63.2,81.35
82367,2018-06-29 09:27:45.968750,50.94,81.35
82368,2018-06-29 09:27:46.000000,42.6,81.35
82369,2018-06-29 09:27:46.031250,38.51,81.35
82370,2018-06-29 09:27:46.062500,33.29,81.35
82371,2018-06-29 09:27:46.093750,24.68,81.35
82372,2018-06-29 09:27:46.125000,14.15,81.35
82373,2018-06-29 09:27:46.156250,2.54,81.35
82374,2018-06-29 09:27:46.187500,-10.34,81.35
82375,2018-06-29 09:27:46.218750,-23.62,81.35
82376,2018-06-29 09:27:46.250000,-35.22,81.35
82377,2018-06-29 09:27:46.281250,-44.16,81.35
82378,2018-06-29 09:27:46.312500,-52.81,81.35
82379,2018-06-29 09:27:46.343750,-60.43,81.35
82380,2018-06-29 09:27:46.375000,-53.22,81.35
82381,2018-06-29 09:27:46.406250,-15.9,81.35
82382,2018-06-29 09:27:46.437500,43.4,81.35
82383,2018-06-29 09:27:46.468750,95.11,81.35
82384,2018-06-29 09:27:46.500000,117.33,81.35
82385,2018-06-29 09:27:46.531250,108.86,81.3
82386,2018-06-29 09:27:46.562500,79.28,81.3
82387,2018-06-29 09:27:46.593750,43.42,81.3
82388,2018-06-29 09:27:46.625000,18.78,81.3
82389,2018-06-29 09:27:46.656250,9.58,81.3
82390,2018-06-29 09:27:46.687500,-0.08,81.3
82391,2018-06-29 09:27:46.718750,-20.98,81.3
82392,2018-06-29 09:27:46.750000,-40.25,81.3
82393,2018-06-29 09:27:46.781250,-44.41,81.3
82394,2018-06-29 09:27:46.812500,-41.47,81.3
82395,2018-06-29 09:27:46.843750,-43.93,81.3
82396,2018-06-29 09:27:46.875000,-50.79,81.3
82397,2018-06-29 09:27:46.906250,-59.56,81.3
82398,2018-06-29 09:27:46.937500,-75.73,81.3
82399,2018-06-29 09:27:46.968750,-96.69,81.3
82400,2018-06-29 09:27:47.000000,-100.25,81.3
82401,2018-06-29 09:27:47.031250,-66.77,81.3
82402,2018-06-29 09:27:47.062500,-8.47,81.3
82403,2018-06-29 09:27:47.093750,41.47,81.3
82404,2018-06-29 09:27:47.125000,66.97,81.3
82405,2018-06-29 09:27:47.156250,76.67,81.3
82406,2018-06-29 09:27:47.187500,78.21,81.3
82407,2018-06-29 09:27:47.218750,68.69,81.3
82408,2018-06-29 09:27:47.250000,49.49,81.3
82409,2018-06-29 09:27:47.281250,31.33,81.3
82410,2018-06-29 09:27:47.312500,21.63,81.3
82411,2018-06-29 09:27:47.343750,16.05,81.3
82412,2018-06-29 09:27:47.375000,5.41,81.3
82413,2018-06-29 09:27:47.406250,-12.0,81.3
82414,2018-06-29 09:27:47.437500,-28.44,81.3
82415,2018-06-29 09:27:47.468750,-36.57,81.3
82416,2018-06-29 09:27:47.500000,-38.3,81.3
82417,2018-06-29 09:27:47.531250,-45.37,81.28
82418,2018-06-29 09:27:47.562500,-71.24,81.28
82419,2018-06-29 09:27:47.593750,-112.38,81.28
82420,2018-06-29 09:27:47.625000,-137.27,81.28
82421,2018-06-29 09:27:47.656250,-113.12,81.28
82422,2018-06-29 09:27:47.687500,-46.37,81.28
82423,2018-06-29 09:27:47.718750,22.46,81.28
82424,2018-06-29 09:27:47.750000,62.64,81.28
82425,2018-06-29 09:27:47.781250,73.28,81.28
82426,2018-06-29 09:27:47.812500,65.85,81.28
82427,2018-06-29 09:27:47.843750,49.61,81.28
82428,2018-06-29 09:27:47.875000,33.54,81.28
82429,2018-06-29 09:27:47.906250,25.21,81.28
82430,2018-06-29 09:27:47.937500,24.42,81.28
82431,2018-06-29 09:27:47.968750,24.99,81.28
82432,2018-06-29 09:27:48.000000,23.15,81.28
82433,2018-06-29 09:27:48.031250,19.25,81.28
82434,2018-06-29 09:27:48.062500,13.14,81.28
82435,2018-06-29 09:27:48.093750,3.6,81.28
82436,2018-06-29 09:27:48.125000,-8.41,81.28
82437,2018-06-29 09:27:48.156250,-19.87,81.28
82438,2018-06-29 09:27:48.187500,-30.48,81.28
82439,2018-06-29 09:27:48.218750,-43.32,81.28
82440,2018-06-29 09:27:48.250000,-54.61,81.28
82441,2018-06-29 09:27:48.281250,-48.97,81.28
82442,2018-06-29 09:27:48.312500,-16.39,81.28
82443,2018-06-29 09:27:48.343750,30.31,81.28
82444,2018-06-29 09:27:48.375000,66.11,81.28
82445,2018-06-29 09:27:48.406250,78.17,81.28
82446,2018-06-29 09:27:48.437500,73.65,81.28
82447,2018-06-29 09:27:48.468750,68.85,81.28
82448,2018-06-29 09:27:48.500000,73.47,81.28
82449,2018-06-29 09:27:48.531250,82.11,81.32
82450,2018-06-29 09:27:48.562500,83.07,81.32
82451,2018-06-29 09:27:48.593750,74.86,81.32
82452,2018-06-29 09:27:48.625000,68.34,81.32
82453,2018-06-29 09:27:48.656250,73.35,81.32
82454,2018-06-29 09:27:48.687500,79.39,81.32
82455,2018-06-29 09:27:48.718750,54.19,81.32
82456,2018-06-29 09:27:48.750000,-15.84,81.32
82457,2018-06-29 09:27:48.781250,-91.31,81.32
82458,2018-06-29 09:27:48.812500,-123.53,81.32
82459,2018-06-29 09:27:48.843750,-119.78,81.32
82460,2018-06-29 09:27:48.875000,-121.7,81.32
82461,2018-06-29 09:27:48.906250,-137.42,81.32
82462,2018-06-29 09:27:48.937500,-138.35,81.32
82463,2018-06-29 09:27:48.968750,-106.18,81.32
82464,2018-06-29 09:27:49.000000,-50.98,81.32
82465,2018-06-29 09:27:49.031250,6.49,81.32
82466,2018-06-29 09:27:49.062500,50.0,81.32
82467,2018-06-29 09:27:49.093750,71.11,81.32
82468,2018-06-29 09:27:49.125000,71.68,81.32
82469,2018-06-29 09:27:49.156250,63.74,81.32
82470,2018-06-29 09:27:49.187500,58.88,81.32
82471,2018-06-29 09:27:49.218750,56.83,81.32
82472,2018-06-29 09:27:49.250000,49.97,81.32
82473,2018-06-29 09:27:49.281250,37.67,81.32
82474,2018-06-29 09:27:49.312500,27.73,81.32
82475,2018-06-29 09:27:49.343750,23.16,81.32
82476,2018-06-29 09:27:49.375000,16.39,81.32
82477,2018-06-29 09:27:49.406250,0.79,81.32
82478,2018-06-29 09:27:49.437500,-19.52,81.32
82479,2018-06-29 09:27:49.468750,-36.04,81.32
82480,2018-06-29 09:27:49.500000,-46.59,81.32
82481,2018-06-29 09:27:49.531250,-55.82,81.35
82482,2018-06-29 09:27:49.562500,-65.69,81.35
82483,2018-06-29 09:27:49.593750,-67.17,81.35
82484,2018-06-29 09:27:49.625000,-47.68,81.35
82485,2018-06-29 09:27:49.656250,-10.35,81.35
82486,2018-06-29 09:27:49.687500,24.16,81.35
82487,2018-06-29 09:27:49.718750,41.05,81.35
82488,2018-06-29 09:27:49.750000,45.56,81.35
82489,2018-06-29 09:27:49.781250,48.48,81.35
82490,2018-06-29 09:27:49.812500,51.0,81.35
82491,2018-06-29 09:27:49.843750,49.33,81.35
82492,2018-06-29 09:27:49.875000,43.2,81.35
82493,2018-06-29 09:27:49.906250,34.35,81.35
82494,2018-06-29 09:27:49.937500,23.99,81.35
82495,2018-06-29 09:27:49.968750,14.87,81.35
82496,2018-06-29 09:27:50.000000,10.52,81.35
82497,2018-06-29 09:27:50.031250,10.19,81.35
82498,2018-06-29 09:27:50.062500,8.21,81.35
82499,2018-06-29 09:27:50.093750,0.46,81.35
82500,2018-06-29 09:27:50.125000,-10.82,81.35
82501,2018-06-29 09:27:50.156250,-19.99,81.35
82502,2018-06-29 09:27:50.187500,-24.11,81.35
82503,2018-06-29 09:27:50.218750,-24.73,81.35
82504,2018-06-29 09:27:50.250000,-25.84,81.35
82505,2018-06-29 09:27:50.281250,-30.7,81.35
82506,2018-06-29 09:27:50.312500,-37.43,81.35
82507,2018-06-29 09:27:50.343750,-36.67,81.35
82508,2018-06-29 09:27:50.375000,-19.2,81.35
82509,2018-06-29 09:27:50.406250,11.73,81.35
82510,2018-06-29 09:27:50.437500,41.22,81.35
82511,2018-06-29 09:27:50.468750,57.4,81.35
82512,2018-06-29 09:27:50.500000,59.63,81.35
82513,2018-06-29 09:27:50.531250,52.89,81.4
82514,2018-06-29 09:27:50.562500,42.03,81.4
82515,2018-06-29 09:27:50.593750,31.85,81.4
82516,2018-06-29 09:27:50.625000,25.89,81.4
82517,2018-06-29 09:27:50.656250,23.6,81.4
82518,2018-06-29 09:27:50.687500,21.67,81.4
82519,2018-06-29 09:27:50.718750,18.38,81.4
82520,2018-06-29 09:27:50.750000,14.36,81.4
82521,2018-06-29 09:27:50.781250,9.64,81.4
82522,2018-06-29 09:27:50.812500,3.49,81.4
82523,2018-06-29 09:27:50.843750,-3.43,81.4
82524,2018-06-29 09:27:50.875000,-9.82,81.4
82525,2018-06-29 09:27:50.906250,-15.83,81.4
82526,2018-06-29 09:27:50.937500,-21.87,81.4
82527,2018-06-29 09:27:50.968750,-26.74,81.4
82528,2018-06-29 09:27:51.000000,-29.44,81.4
82529,2018-06-29 09:27:51.031250,-31.51,81.4
82530,2018-06-29 09:27:51.062500,-35.76,81.4
82531,2018-06-29 09:27:51.093750,-42.75,81.4
82532,2018-06-29 09:27:51.125000,-46.58,81.4
82533,2018-06-29 09:27:51.156250,-37.21,81.4
82534,2018-06-29 09:27:51.187500,-12.6,81.4
82535,2018-06-29 09:27:51.218750,15.65,81.4
82536,2018-06-29 09:27:51.250000,34.35,81.4
82537,2018-06-29 09:27:51.281250,40.91,81.4
82538,2018-06-29 09:27:51.312500,39.15,81.4
82539,2018-06-29 09:27:51.343750,32.53,81.4
82540,2018-06-29 09:27:51.375000,24.81,81.4
82541,2018-06-29 09:27:51.406250,20.1,81.4
82542,2018-06-29 09:27:51.437500,18.89,81.4
82543,2018-06-29 09:27:51.468750,17.83,81.4
82544,2018-06-29 09:27:51.500000,14.79,81.4
82545,2018-06-29 09:27:51.531250,11.44,81.47
82546,2018-06-29 09:27:51.562500,9.61,81.47
82547,2018-06-29 09:27:51.593750,7.69,81.47
82548,2018-06-29 09:27:51.625000,3.34,81.47
82549,2018-06-29 09:27:51.656250,-2.17,81.47
82550,2018-06-29 09:27:51.687500,-5.81,81.47
82551,2018-06-29 09:27:51.718750,-7.79,81.47
82552,2018-06-29 09:27:51.750000,-10.75,81.47
82553,2018-06-29 09:27:51.781250,-14.43,81.47
82554,2018-06-29 09:27:51.812500,-15.84,81.47
82555,2018-06-29 09:27:51.843750,-14.62,81.47
82556,2018-06-29 09:27:51.875000,-14.09,81.47
82557,2018-06-29 09:27:51.906250,-17.42,81.47
82558,2018-06-29 09:27:51.937500,-24.72,81.47
82559,2018-06-29 09:27:51.968750,-31.04,81.47
82560,2018-06-29 09:27:52.000000,-27.12,81.47
82561,2018-06-29 09:27:52.031250,-9.02,81.47
82562,2018-06-29 09:27:52.062500,14.25,81.47
82563,2018-06-29 09:27:52.093750,29.92,81.47
82564,2018-06-29 09:27:52.125000,34.59,81.47
82565,2018-06-29 09:27:52.156250,32.54,81.47
82566,2018-06-29 09:27:52.187500,27.35,81.47
82567,2018-06-29 09:27:52.218750,20.96,81.47
82568,2018-06-29 09:27:52.250000,15.58,81.47
82569,2018-06-29 09:27:52.281250,12.12,81.47
82570,2018-06-29 09:27:52.312500,9.35,81.47
82571,2018-06-29 09:27:52.343750,6.55,81.47
82572,2018-06-29 09:27:52.375000,4.15,81.47
82573,2018-06-29 09:27:52.406250,1.88,81.47
82574,2018-06-29 09:27:52.437500,-1.29,81.47
82575,2018-06-29 09:27:52.468750,-5.16,81.47
82576,2018-06-29 09:27:52.500000,-8.66,81.47
82577,2018-06-29 09:27:52.531250,-11.96,81.53
82578,2018-06-29 09:27:52.562500,-16.31,81.53
82579,2018-06-29 09:27:52.593750,-21.36,81.53
82580,2018-06-29 09:27:52.625000,-24.81,81.53
82581,2018-06-29 09:27:52.656250,-25.57,81.53
82582,2018-06-29 09:27:52.687500,-25.94,81.53
82583,2018-06-29 09:27:52.718750,-29.31,81.53
82584,2018-06-29 09:27:52.750000,-35.46,81.53
82585,2018-06-29 09:27:52.781250,-37.81,81.53
82586,2018-06-29 09:27:52.812500,-28.48,81.53
82587,2018-06-29 09:27:52.843750,-8.07,81.53
82588,2018-06-29 09:27:52.875000,13.17,81.53
82589,2018-06-29 09:27:52.906250,26.11,81.53
82590,2018-06-29 09:27:52.937500,29.86,81.53
82591,2018-06-29 09:27:52.968750,28.16,81.53
82592,2018-06-29 09:27:53.000000,24.2,81.53
82593,2018-06-29 09:27:53.031250,20.08,81.53
82594,2018-06-29 09:27:53.062500,17.39,81.53
82595,2018-06-29 09:27:53.093750,16.62,81.53
82596,2018-06-29 09:27:53.125000,16.91,81.53
82597,2018-06-29 09:27:53.156250,17.16,81.53
82598,2018-06-29 09:27:53.187500,16.91,81.53
82599,2018-06-29 09:27:53.218750,15.47,81.53
82600,2018-06-29 09:27:53.250000,11.74,81.53
82601,2018-06-29 09:27:53.281250,6.13,81.53
82602,2018-06-29 09:27:53.312500,0.95,81.53
82603,2018-06-29 09:27:53.343750,-2.39,81.53
82604,2018-06-29 09:27:53.375000,-5.2,81.53
82605,2018-06-29 09:27:53.406250,-9.0,81.53
82606,2018-06-29 09:27:53.437500,-13.07,81.53
82607,2018-06-29 09:27:53.468750,-16.3,81.53
82608,2018-06-29 09:27:53.500000,-19.64,81.53
82609,2018-06-29 09:27:53.531250,-25.09,81.62
82610,2018-06-29 09:27:53.562500,-32.37,81.62
82611,2018-06-29 09:27:53.593750,-36.31,81.62
82612,2018-06-29 09:27:53.625000,-29.8,81.62
82613,2018-06-29 09:27:53.656250,-12.33,81.62
82614,2018-06-29 09:27:53.687500,7.34,81.62
82615,2018-06-29 09:27:53.718750,20.07,81.62
82616,2018-06-29 09:27:53.750000,23.99,81.62
82617,2018-06-29 09:27:53.781250,22.07,81.62
82618,2018-06-29 09:27:53.812500,17.56,81.62
82619,2018-06-29 09:27:53.843750,13.47,81.62
82620,2018-06-29 09:27:53.875000,11.9,81.62
82621,2018-06-29 09:27:53.906250,12.28,81.62
82622,2018-06-29 09:27:53.937500,12.2,81.62
82623,2018-06-29 09:27:53.968750,10.77,81.62
82624,2018-06-29 09:27:54.000000,8.98,81.62
82625,2018-06-29 09:27:54.031250,6.85,81.62
82626,2018-06-29 09:27:54.062500,2.72,81.62
82627,2018-06-29 09:27:54.093750,-3.93,81.62
82628,2018-06-29 09:27:54.125000,-10.93,81.62
82629,2018-06-29 09:27:54.156250,-16.17,81.62
82630,2018-06-29 09:27:54.187500,-19.93,81.62
