,Time,ppg,hr
89600,2018-06-29 09:31:32.000000,-83.28,84.98
89601,2018-06-29 09:31:32.031250,-67.62,84.98
89602,2018-06-29 09:31:32.062500,-38.87,84.98
89603,2018-06-29 09:31:32.093750,2.46,84.98
89604,2018-06-29 09:31:32.125000,48.62,84.98
89605,2018-06-29 09:31:32.156250,91.45,84.98
89606,2018-06-29 09:31:32.187500,126.84,84.98
89607,2018-06-29 09:31:32.218750,149.99,84.98
89608,2018-06-29 09:31:32.250000,153.77,84.98
89609,2018-06-29 09:31:32.281250,137.2,84.98
89610,2018-06-29 09:31:32.312500,109.79,84.98
89611,2018-06-29 09:31:32.343750,81.61,84.98
89612,2018-06-29 09:31:32.375000,53.92,84.98
89613,2018-06-29 09:31:32.406250,23.25,84.98
89614,2018-06-29 09:31:32.437500,-11.29,84.98
89615,2018-06-29 09:31:32.468750,-47.23,84.98
89616,2018-06-29 09:31:32.500000,-77.48,84.98
89617,2018-06-29 09:31:32.531250,-90.31,84.33
89618,2018-06-29 09:31:32.562500,-81.24,84.33
89619,2018-06-29 09:31:32.593750,-61.7,84.33
89620,2018-06-29 09:31:32.625000,-46.78,84.33
89621,2018-06-29 09:31:32.656250,-38.87,84.33
89622,2018-06-29 09:31:32.687500,-28.45,84.33
89623,2018-06-29 09:31:32.718750,-3.77,84.33
89624,2018-06-29 09:31:32.750000,39.78,84.33
89625,2018-06-29 09:31:32.781250,90.76,84.33
89626,2018-06-29 09:31:32.812500,126.15,84.33
89627,2018-06-29 09:31:32.843750,131.44,84.33
89628,2018-06-29 09:31:32.875000,110.64,84.33
89629,2018-06-29 09:31:32.906250,74.34,84.33
89630,2018-06-29 09:31:32.937500,28.66,84.33
89631,2018-06-29 09:31:32.968750,-20.83,84.33
89632,2018-06-29 09:31:33.000000,-63.5,84.33
89633,2018-06-29 09:31:33.031250,-87.01,84.33
89634,2018-06-29 09:31:33.062500,-85.63,84.33
89635,2018-06-29 09:31:33.093750,-66.33,84.33
89636,2018-06-29 09:31:33.125000,-43.25,84.33
89637,2018-06-29 09:31:33.156250,-23.14,84.33
89638,2018-06-29 09:31:33.187500,-2.41,84.33
89639,2018-06-29 09:31:33.218750,19.39,84.33
89640,2018-06-29 09:31:33.250000,34.79,84.33
89641,2018-06-29 09:31:33.281250,39.97,84.33
89642,2018-06-29 09:31:33.312500,40.93,84.33
89643,2018-06-29 09:31:33.343750,47.29,84.33
89644,2018-06-29 09:31:33.375000,63.54,84.33
89645,2018-06-29 09:31:33.406250,84.75,84.33
89646,2018-06-29 09:31:33.437500,96.85,84.33
89647,2018-06-29 09:31:33.468750,88.63,84.33
89648,2018-06-29 09:31:33.500000,63.3,84.33
89649,2018-06-29 09:31:33.531250,34.0,83.62
89650,2018-06-29 09:31:33.562500,9.2,83.62
89651,2018-06-29 09:31:33.593750,-10.14,83.62
89652,2018-06-29 09:31:33.625000,-16.61,83.62
89653,2018-06-29 09:31:33.656250,-0.87,83.62
89654,2018-06-29 09:31:33.687500,32.85,83.62
89655,2018-06-29 09:31:33.718750,66.5,83.62
89656,2018-06-29 09:31:33.750000,89.34,83.62
89657,2018-06-29 09:31:33.781250,100.48,83.62
89658,2018-06-29 09:31:33.812500,98.19,83.62
89659,2018-06-29 09:31:33.843750,81.76,83.62
89660,2018-06-29 09:31:33.875000,47.94,83.62
89661,2018-06-29 09:31:33.906250,-9.73,83.62
89662,2018-06-29 09:31:33.937500,-91.83,83.62
89663,2018-06-29 09:31:33.968750,-154.28,83.62
89664,2018-06-29 09:31:34.000000,-138.13,83.62
89665,2018-06-29 09:31:34.031250,-67.03,83.62
89666,2018-06-29 09:31:34.062500,3.82,83.62
89667,2018-06-29 09:31:34.093750,49.43,83.62
89668,2018-06-29 09:31:34.125000,71.28,83.62
89669,2018-06-29 09:31:34.156250,69.38,83.62
89670,2018-06-29 09:31:34.187500,46.52,83.62
89671,2018-06-29 09:31:34.218750,7.38,83.62
89672,2018-06-29 09:31:34.250000,-47.77,83.62
89673,2018-06-29 09:31:34.281250,-113.51,83.62
89674,2018-06-29 09:31:34.312500,-164.71,83.62
89675,2018-06-29 09:31:34.343750,-169.96,83.62
89676,2018-06-29 09:31:34.375000,-134.65,83.62
89677,2018-06-29 09:31:34.406250,-96.68,83.62
89678,2018-06-29 09:31:34.437500,-75.48,83.62
89679,2018-06-29 09:31:34.468750,-55.28,83.62
89680,2018-06-29 09:31:34.500000,-29.47,83.62
89681,2018-06-29 09:31:34.531250,-12.45,83.28
89682,2018-06-29 09:31:34.562500,-10.79,83.28
89683,2018-06-29 09:31:34.593750,-21.25,83.28
89684,2018-06-29 09:31:34.625000,-51.85,83.28
89685,2018-06-29 09:31:34.656250,-107.83,83.28
89686,2018-06-29 09:31:34.687500,-163.24,83.28
89687,2018-06-29 09:31:34.718750,-182.72,83.28
89688,2018-06-29 09:31:34.750000,-157.2,83.28
89689,2018-06-29 09:31:34.781250,-97.7,83.28
89690,2018-06-29 09:31:34.812500,-14.44,83.28
89691,2018-06-29 09:31:34.843750,77.78,83.28
89692,2018-06-29 09:31:34.875000,154.12,83.28
89693,2018-06-29 09:31:34.906250,194.99,83.28
89694,2018-06-29 09:31:34.937500,197.22,83.28
89695,2018-06-29 09:31:34.968750,168.94,83.28
89696,2018-06-29 09:31:35.000000,123.9,83.28
89697,2018-06-29 09:31:35.031250,76.74,83.28
89698,2018-06-29 09:31:35.062500,36.49,83.28
89699,2018-06-29 09:31:35.093750,3.31,83.28
89700,2018-06-29 09:31:35.125000,-25.79,83.28
89701,2018-06-29 09:31:35.156250,-51.13,83.28
89702,2018-06-29 09:31:35.187500,-71.93,83.28
89703,2018-06-29 09:31:35.218750,-88.14,83.28
89704,2018-06-29 09:31:35.250000,-101.01,83.28
89705,2018-06-29 09:31:35.281250,-108.31,83.28
89706,2018-06-29 09:31:35.312500,-109.94,83.28
89707,2018-06-29 09:31:35.343750,-104.32,83.28
89708,2018-06-29 09:31:35.375000,-84.67,83.28
89709,2018-06-29 09:31:35.406250,-44.72,83.28
89710,2018-06-29 09:31:35.437500,10.7,83.28
89711,2018-06-29 09:31:35.468750,68.74,83.28
89712,2018-06-29 09:31:35.500000,124.36,83.28
89713,2018-06-29 09:31:35.531250,172.96,82.97
89714,2018-06-29 09:31:35.562500,212.38,82.97
89715,2018-06-29 09:31:35.593750,238.1,82.97
89716,2018-06-29 09:31:35.625000,246.24,82.97
89717,2018-06-29 09:31:35.656250,222.82,82.97
89718,2018-06-29 09:31:35.687500,124.69,82.97
89719,2018-06-29 09:31:35.718750,1.6,82.97
89720,2018-06-29 09:31:35.750000,-66.94,82.97
89721,2018-06-29 09:31:35.781250,-75.69,82.97
89722,2018-06-29 09:31:35.812500,-57.55,82.97
89723,2018-06-29 09:31:35.843750,-28.67,82.97
89724,2018-06-29 09:31:35.875000,-0.81,82.97
89725,2018-06-29 09:31:35.906250,13.93,82.97
89726,2018-06-29 09:31:35.937500,18.17,82.97
89727,2018-06-29 09:31:35.968750,21.46,82.97
89728,2018-06-29 09:31:36.000000,28.66,82.97
89729,2018-06-29 09:31:36.031250,39.45,82.97
89730,2018-06-29 09:31:36.062500,55.53,82.97
89731,2018-06-29 09:31:36.093750,57.23,82.97
89732,2018-06-29 09:31:36.125000,18.31,82.97
89733,2018-06-29 09:31:36.156250,-45.55,82.97
89734,2018-06-29 09:31:36.187500,-95.51,82.97
89735,2018-06-29 09:31:36.218750,-124.17,82.97
89736,2018-06-29 09:31:36.250000,-137.56,82.97
89737,2018-06-29 09:31:36.281250,-140.35,82.97
89738,2018-06-29 09:31:36.312500,-136.96,82.97
89739,2018-06-29 09:31:36.343750,-137.65,82.97
89740,2018-06-29 09:31:36.375000,-145.33,82.97
89741,2018-06-29 09:31:36.406250,-151.05,82.97
89742,2018-06-29 09:31:36.437500,-145.86,82.97
89743,2018-06-29 09:31:36.468750,-131.61,82.97
89744,2018-06-29 09:31:36.500000,-116.01,82.97
89745,2018-06-29 09:31:36.531250,-103.37,82.7
89746,2018-06-29 09:31:36.562500,-92.14,82.7
89747,2018-06-29 09:31:36.593750,-79.02,82.7
89748,2018-06-29 09:31:36.625000,-65.2,82.7
89749,2018-06-29 09:31:36.656250,-54.73,82.7
89750,2018-06-29 09:31:36.687500,-51.97,82.7
89751,2018-06-29 09:31:36.718750,-54.83,82.7
89752,2018-06-29 09:31:36.750000,-51.63,82.7
89753,2018-06-29 09:31:36.781250,-28.05,82.7
89754,2018-06-29 09:31:36.812500,17.15,82.7
89755,2018-06-29 09:31:36.843750,68.24,82.7
89756,2018-06-29 09:31:36.875000,107.58,82.7
89757,2018-06-29 09:31:36.906250,127.38,82.7
89758,2018-06-29 09:31:36.937500,126.89,82.7
89759,2018-06-29 09:31:36.968750,108.13,82.7
89760,2018-06-29 09:31:37.000000,77.88,82.7
89761,2018-06-29 09:31:37.031250,47.01,82.7
89762,2018-06-29 09:31:37.062500,26.95,82.7
89763,2018-06-29 09:31:37.093750,25.52,82.7
89764,2018-06-29 09:31:37.125000,40.67,82.7
89765,2018-06-29 09:31:37.156250,61.87,82.7
89766,2018-06-29 09:31:37.187500,80.93,82.7
89767,2018-06-29 09:31:37.218750,94.31,82.7
89768,2018-06-29 09:31:37.250000,96.17,82.7
89769,2018-06-29 09:31:37.281250,82.63,82.7
89770,2018-06-29 09:31:37.312500,61.02,82.7
89771,2018-06-29 09:31:37.343750,41.56,82.7
89772,2018-06-29 09:31:37.375000,24.11,82.7
89773,2018-06-29 09:31:37.406250,2.42,82.7
89774,2018-06-29 09:31:37.437500,-24.81,82.7
89775,2018-06-29 09:31:37.468750,-53.47,82.7
89776,2018-06-29 09:31:37.500000,-77.48,82.7
89777,2018-06-29 09:31:37.531250,-90.66,82.45
89778,2018-06-29 09:31:37.562500,-90.41,82.45
89779,2018-06-29 09:31:37.593750,-78.42,82.45
89780,2018-06-29 09:31:37.625000,-55.26,82.45
89781,2018-06-29 09:31:37.656250,-20.25,82.45
89782,2018-06-29 09:31:37.687500,20.47,82.45
89783,2018-06-29 09:31:37.718750,55.05,82.45
89784,2018-06-29 09:31:37.750000,78.99,82.45
89785,2018-06-29 09:31:37.781250,99.13,82.45
89786,2018-06-29 09:31:37.812500,121.1,82.45
89787,2018-06-29 09:31:37.843750,141.69,82.45
89788,2018-06-29 09:31:37.875000,157.65,82.45
89789,2018-06-29 09:31:37.906250,173.06,82.45
89790,2018-06-29 09:31:37.937500,191.96,82.45
89791,2018-06-29 09:31:37.968750,208.62,82.45
89792,2018-06-29 09:31:38.000000,209.69,82.45
89793,2018-06-29 09:31:38.031250,184.39,82.45
89794,2018-06-29 09:31:38.062500,131.78,82.45
89795,2018-06-29 09:31:38.093750,59.71,82.45
89796,2018-06-29 09:31:38.125000,-21.88,82.45
89797,2018-06-29 09:31:38.156250,-106.33,82.45
89798,2018-06-29 09:31:38.187500,-185.87,82.45
89799,2018-06-29 09:31:38.218750,-240.4,82.45
89800,2018-06-29 09:31:38.250000,-242.68,82.45
89801,2018-06-29 09:31:38.281250,-186.37,82.45
89802,2018-06-29 09:31:38.312500,-98.88,82.45
89803,2018-06-29 09:31:38.343750,-17.22,82.45
89804,2018-06-29 09:31:38.375000,38.56,82.45
89805,2018-06-29 09:31:38.406250,67.38,82.45
89806,2018-06-29 09:31:38.437500,81.35,82.45
89807,2018-06-29 09:31:38.468750,97.34,82.45
89808,2018-06-29 09:31:38.500000,118.7,82.45
89809,2018-06-29 09:31:38.531250,129.53,82.23
89810,2018-06-29 09:31:38.562500,116.39,82.23
89811,2018-06-29 09:31:38.593750,84.6,82.23
89812,2018-06-29 09:31:38.625000,46.59,82.23
89813,2018-06-29 09:31:38.656250,6.52,82.23
89814,2018-06-29 09:31:38.687500,-37.43,82.23
89815,2018-06-29 09:31:38.718750,-84.18,82.23
89816,2018-06-29 09:31:38.750000,-125.33,82.23
89817,2018-06-29 09:31:38.781250,-146.53,82.23
89818,2018-06-29 09:31:38.812500,-138.48,82.23
89819,2018-06-29 09:31:38.843750,-108.37,82.23
89820,2018-06-29 09:31:38.875000,-73.81,82.23
89821,2018-06-29 09:31:38.906250,-45.33,82.23
89822,2018-06-29 09:31:38.937500,-21.56,82.23
89823,2018-06-29 09:31:38.968750,4.35,82.23
89824,2018-06-29 09:31:39.000000,39.63,82.23
89825,2018-06-29 09:31:39.031250,85.46,82.23
89826,2018-06-29 09:31:39.062500,129.36,82.23
89827,2018-06-29 09:31:39.093750,152.29,82.23
89828,2018-06-29 09:31:39.125000,146.25,82.23
89829,2018-06-29 09:31:39.156250,117.83,82.23
89830,2018-06-29 09:31:39.187500,76.7,82.23
89831,2018-06-29 09:31:39.218750,29.59,82.23
89832,2018-06-29 09:31:39.250000,-17.42,82.23
89833,2018-06-29 09:31:39.281250,-59.29,82.23
89834,2018-06-29 09:31:39.312500,-91.73,82.23
89835,2018-06-29 09:31:39.343750,-106.33,82.23
89836,2018-06-29 09:31:39.375000,-95.52,82.23
89837,2018-06-29 09:31:39.406250,-67.15,82.23
89838,2018-06-29 09:31:39.437500,-41.0,82.23
89839,2018-06-29 09:31:39.468750,-26.49,82.23
89840,2018-06-29 09:31:39.500000,-17.23,82.23
89841,2018-06-29 09:31:39.531250,-8.12,82.08
89842,2018-06-29 09:31:39.562500,-1.54,82.08
89843,2018-06-29 09:31:39.593750,2.16,82.08
89844,2018-06-29 09:31:39.625000,4.46,82.08
89845,2018-06-29 09:31:39.656250,2.74,82.08
89846,2018-06-29 09:31:39.687500,-3.79,82.08
89847,2018-06-29 09:31:39.718750,-8.67,82.08
89848,2018-06-29 09:31:39.750000,-8.25,82.08
89849,2018-06-29 09:31:39.781250,-9.75,82.08
89850,2018-06-29 09:31:39.812500,-22.17,82.08
89851,2018-06-29 09:31:39.843750,-44.5,82.08
89852,2018-06-29 09:31:39.875000,-65.12,82.08
89853,2018-06-29 09:31:39.906250,-71.36,82.08
89854,2018-06-29 09:31:39.937500,-60.8,82.08
89855,2018-06-29 09:31:39.968750,-41.99,82.08
89856,2018-06-29 09:31:40.000000,-23.94,82.08
89857,2018-06-29 09:31:40.031250,-9.12,82.08
89858,2018-06-29 09:31:40.062500,3.04,82.08
89859,2018-06-29 09:31:40.093750,13.71,82.08
89860,2018-06-29 09:31:40.125000,26.1,82.08
89861,2018-06-29 09:31:40.156250,41.88,82.08
89862,2018-06-29 09:31:40.187500,56.25,82.08
89863,2018-06-29 09:31:40.218750,62.15,82.08
89864,2018-06-29 09:31:40.250000,57.23,82.08
89865,2018-06-29 09:31:40.281250,41.56,82.08
89866,2018-06-29 09:31:40.312500,14.27,82.08
89867,2018-06-29 09:31:40.343750,-19.99,82.08
89868,2018-06-29 09:31:40.375000,-48.66,82.08
89869,2018-06-29 09:31:40.406250,-61.38,82.08
89870,2018-06-29 09:31:40.437500,-57.23,82.08
89871,2018-06-29 09:31:40.468750,-40.64,82.08
89872,2018-06-29 09:31:40.500000,-18.79,82.08
89873,2018-06-29 09:31:40.531250,0.05,81.9
89874,2018-06-29 09:31:40.562500,14.81,81.9
89875,2018-06-29 09:31:40.593750,31.08,81.9
89876,2018-06-29 09:31:40.625000,48.2,81.9
89877,2018-06-29 09:31:40.656250,57.61,81.9
89878,2018-06-29 09:31:40.687500,56.17,81.9
89879,2018-06-29 09:31:40.718750,48.16,81.9
89880,2018-06-29 09:31:40.750000,34.01,81.9
89881,2018-06-29 09:31:40.781250,9.79,81.9
89882,2018-06-29 09:31:40.812500,-24.36,81.9
89883,2018-06-29 09:31:40.843750,-63.81,81.9
89884,2018-06-29 09:31:40.875000,-103.83,81.9
89885,2018-06-29 09:31:40.906250,-140.23,81.9
89886,2018-06-29 09:31:40.937500,-169.59,81.9
89887,2018-06-29 09:31:40.968750,-188.39,81.9
89888,2018-06-29 09:31:41.000000,-187.94,81.9
89889,2018-06-29 09:31:41.031250,-158.14,81.9
89890,2018-06-29 09:31:41.062500,-102.09,81.9
89891,2018-06-29 09:31:41.093750,-37.28,81.9
89892,2018-06-29 09:31:41.125000,22.19,81.9
89893,2018-06-29 09:31:41.156250,73.71,81.9
89894,2018-06-29 09:31:41.187500,116.14,81.9
89895,2018-06-29 09:31:41.218750,146.39,81.9
89896,2018-06-29 09:31:41.250000,165.86,81.9
89897,2018-06-29 09:31:41.281250,178.65,81.9
89898,2018-06-29 09:31:41.312500,184.45,81.9
89899,2018-06-29 09:31:41.343750,180.0,81.9
89900,2018-06-29 09:31:41.375000,163.64,81.9
89901,2018-06-29 09:31:41.406250,133.46,81.9
89902,2018-06-29 09:31:41.437500,86.51,81.9
89903,2018-06-29 09:31:41.468750,24.3,81.9
89904,2018-06-29 09:31:41.500000,-43.7,81.9
89905,2018-06-29 09:31:41.531250,-103.72,81.68
89906,2018-06-29 09:31:41.562500,-144.66,81.68
89907,2018-06-29 09:31:41.593750,-163.61,81.68
89908,2018-06-29 09:31:41.625000,-164.8,81.68
89909,2018-06-29 09:31:41.656250,-149.63,81.68
89910,2018-06-29 09:31:41.687500,-113.6,81.68
89911,2018-06-29 09:31:41.718750,-59.67,81.68
89912,2018-06-29 09:31:41.750000,-3.74,81.68
89913,2018-06-29 09:31:41.781250,41.55,81.68
89914,2018-06-29 09:31:41.812500,76.54,81.68
89915,2018-06-29 09:31:41.843750,102.57,81.68
89916,2018-06-29 09:31:41.875000,115.07,81.68
89917,2018-06-29 09:31:41.906250,111.84,81.68
89918,2018-06-29 09:31:41.937500,95.81,81.68
89919,2018-06-29 09:31:41.968750,67.99,81.68
89920,2018-06-29 09:31:42.000000,27.29,81.68
89921,2018-06-29 09:31:42.031250,-22.13,81.68
89922,2018-06-29 09:31:42.062500,-68.17,81.68
89923,2018-06-29 09:31:42.093750,-96.9,81.68
89924,2018-06-29 09:31:42.125000,-100.87,81.68
89925,2018-06-29 09:31:42.156250,-82.85,81.68
89926,2018-06-29 09:31:42.187500,-51.32,81.68
89927,2018-06-29 09:31:42.218750,-13.28,81.68
89928,2018-06-29 09:31:42.250000,26.17,81.68
89929,2018-06-29 09:31:42.281250,61.29,81.68
89930,2018-06-29 09:31:42.312500,92.46,81.68
89931,2018-06-29 09:31:42.343750,127.6,81.68
89932,2018-06-29 09:31:42.375000,168.98,81.68
89933,2018-06-29 09:31:42.406250,202.62,81.68
89934,2018-06-29 09:31:42.437500,212.8,81.68
89935,2018-06-29 09:31:42.468750,198.88,81.68
89936,2018-06-29 09:31:42.500000,165.29,81.68
89937,2018-06-29 09:31:42.531250,110.03,81.5
89938,2018-06-29 09:31:42.562500,35.7,81.5
89939,2018-06-29 09:31:42.593750,-34.39,81.5
89940,2018-06-29 09:31:42.625000,-74.81,81.5
89941,2018-06-29 09:31:42.656250,-80.06,81.5
89942,2018-06-29 09:31:42.687500,-66.93,81.5
89943,2018-06-29 09:31:42.718750,-56.02,81.5
89944,2018-06-29 09:31:42.750000,-52.94,81.5
89945,2018-06-29 09:31:42.781250,-54.04,81.5
89946,2018-06-29 09:31:42.812500,-53.39,81.5
89947,2018-06-29 09:31:42.843750,-64.43,81.5
89948,2018-06-29 09:31:42.875000,-90.43,81.5
89949,2018-06-29 09:31:42.906250,-126.53,81.5
89950,2018-06-29 09:31:42.937500,-168.68,81.5
89951,2018-06-29 09:31:42.968750,-228.17,81.5
89952,2018-06-29 09:31:43.000000,-301.15,81.5
89953,2018-06-29 09:31:43.031250,-345.0,81.5
89954,2018-06-29 09:31:43.062500,-349.38,81.5
89955,2018-06-29 09:31:43.093750,-339.17,81.5
89956,2018-06-29 09:31:43.125000,-353.87,81.5
89957,2018-06-29 09:31:43.156250,-374.0,81.5
89958,2018-06-29 09:31:43.187500,-368.23,81.5
89959,2018-06-29 09:31:43.218750,-294.35,81.5
89960,2018-06-29 09:31:43.250000,-67.32,81.5
89961,2018-06-29 09:31:43.281250,146.53,81.5
89962,2018-06-29 09:31:43.312500,276.42,81.5
89963,2018-06-29 09:31:43.343750,359.1,81.5
89964,2018-06-29 09:31:43.375000,405.93,81.5
89965,2018-06-29 09:31:43.406250,399.05,81.5
89966,2018-06-29 09:31:43.437500,362.28,81.5
89967,2018-06-29 09:31:43.468750,319.39,81.5
89968,2018-06-29 09:31:43.500000,269.81,81.5
89969,2018-06-29 09:31:43.531250,201.49,81.43
89970,2018-06-29 09:31:43.562500,120.66,81.43
89971,2018-06-29 09:31:43.593750,57.98,81.43
89972,2018-06-29 09:31:43.625000,12.85,81.43
89973,2018-06-29 09:31:43.656250,-20.37,81.43
89974,2018-06-29 09:31:43.687500,-43.5,81.43
89975,2018-06-29 09:31:43.718750,-43.29,81.43
89976,2018-06-29 09:31:43.750000,-24.16,81.43
89977,2018-06-29 09:31:43.781250,-1.88,81.43
89978,2018-06-29 09:31:43.812500,14.64,81.43
89979,2018-06-29 09:31:43.843750,24.52,81.43
89980,2018-06-29 09:31:43.875000,34.09,81.43
89981,2018-06-29 09:31:43.906250,44.13,81.43
89982,2018-06-29 09:31:43.937500,52.77,81.43
89983,2018-06-29 09:31:43.968750,54.67,81.43
89984,2018-06-29 09:31:44.000000,49.75,81.43
89985,2018-06-29 09:31:44.031250,41.73,81.43
89986,2018-06-29 09:31:44.062500,32.7,81.43
89987,2018-06-29 09:31:44.093750,20.9,81.43
89988,2018-06-29 09:31:44.125000,2.81,81.43
89989,2018-06-29 09:31:44.156250,-22.85,81.43
89990,2018-06-29 09:31:44.187500,-54.4,81.43
89991,2018-06-29 09:31:44.218750,-88.37,81.43
89992,2018-06-29 09:31:44.250000,-119.1,81.43
89993,2018-06-29 09:31:44.281250,-139.16,81.43
89994,2018-06-29 09:31:44.312500,-142.18,81.43
89995,2018-06-29 09:31:44.343750,-125.07,81.43
89996,2018-06-29 09:31:44.375000,-90.34,81.43
89997,2018-06-29 09:31:44.406250,-47.16,81.43
89998,2018-06-29 09:31:44.437500,-6.32,81.43
89999,2018-06-29 09:31:44.468750,26.42,81.43
90000,2018-06-29 09:31:44.500000,50.33,81.43
90001,2018-06-29 09:31:44.531250,65.82,81.37
90002,2018-06-29 09:31:44.562500,73.07,81.37
90003,2018-06-29 09:31:44.593750,72.14,81.37
90004,2018-06-29 09:31:44.625000,64.72,81.37
90005,2018-06-29 09:31:44.656250,55.29,81.37
90006,2018-06-29 09:31:44.687500,46.59,81.37
90007,2018-06-29 09:31:44.718750,33.94,81.37
90008,2018-06-29 09:31:44.750000,9.28,81.37
90009,2018-06-29 09:31:44.781250,-27.27,81.37
90010,2018-06-29 09:31:44.812500,-64.66,81.37
90011,2018-06-29 09:31:44.843750,-89.84,81.37
90012,2018-06-29 09:31:44.875000,-97.7,81.37
90013,2018-06-29 09:31:44.906250,-92.39,81.37
90014,2018-06-29 09:31:44.937500,-77.92,81.37
90015,2018-06-29 09:31:44.968750,-45.1,81.37
90016,2018-06-29 09:31:45.000000,21.93,81.37
90017,2018-06-29 09:31:45.031250,114.6,81.37
90018,2018-06-29 09:31:45.062500,192.52,81.37
90019,2018-06-29 09:31:45.093750,222.95,81.37
90020,2018-06-29 09:31:45.125000,208.05,81.37
90021,2018-06-29 09:31:45.156250,164.87,81.37
90022,2018-06-29 09:31:45.187500,101.65,81.37
90023,2018-06-29 09:31:45.218750,22.31,81.37
90024,2018-06-29 09:31:45.250000,-65.46,81.37
90025,2018-06-29 09:31:45.281250,-151.68,81.37
90026,2018-06-29 09:31:45.312500,-223.26,81.37
90027,2018-06-29 09:31:45.343750,-266.17,81.37
90028,2018-06-29 09:31:45.375000,-274.29,81.37
90029,2018-06-29 09:31:45.406250,-255.1,81.37
90030,2018-06-29 09:31:45.437500,-221.68,81.37
90031,2018-06-29 09:31:45.468750,-177.58,81.37
90032,2018-06-29 09:31:45.500000,-118.26,81.37
90033,2018-06-29 09:31:45.531250,-49.51,81.32
90034,2018-06-29 09:31:45.562500,8.83,81.32
90035,2018-06-29 09:31:45.593750,45.55,81.32
90036,2018-06-29 09:31:45.625000,70.1,81.32
90037,2018-06-29 09:31:45.656250,93.53,81.32
90038,2018-06-29 09:31:45.687500,111.14,81.32
90039,2018-06-29 09:31:45.718750,111.01,81.32
90040,2018-06-29 09:31:45.750000,90.54,81.32
90041,2018-06-29 09:31:45.781250,59.57,81.32
90042,2018-06-29 09:31:45.812500,31.15,81.32
90043,2018-06-29 09:31:45.843750,12.93,81.32
90044,2018-06-29 09:31:45.875000,6.17,81.32
90045,2018-06-29 09:31:45.906250,8.34,81.32
90046,2018-06-29 09:31:45.937500,14.3,81.32
90047,2018-06-29 09:31:45.968750,19.11,81.32
90048,2018-06-29 09:31:46.000000,22.93,81.32
90049,2018-06-29 09:31:46.031250,29.7,81.32
90050,2018-06-29 09:31:46.062500,38.45,81.32
90051,2018-06-29 09:31:46.093750,40.51,81.32
90052,2018-06-29 09:31:46.125000,32.0,81.32
90053,2018-06-29 09:31:46.156250,24.75,81.32
90054,2018-06-29 09:31:46.187500,36.11,81.32
90055,2018-06-29 09:31:46.218750,71.36,81.32
90056,2018-06-29 09:31:46.250000,120.34,81.32
90057,2018-06-29 09:31:46.281250,163.09,81.32
90058,2018-06-29 09:31:46.312500,178.21,81.32
90059,2018-06-29 09:31:46.343750,156.08,81.32
90060,2018-06-29 09:31:46.375000,106.01,81.32
90061,2018-06-29 09:31:46.406250,46.1,81.32
90062,2018-06-29 09:31:46.437500,-10.06,81.32
90063,2018-06-29 09:31:46.468750,-53.55,81.32
90064,2018-06-29 09:31:46.500000,-76.29,81.32
90065,2018-06-29 09:31:46.531250,-75.79,81.25
90066,2018-06-29 09:31:46.562500,-60.76,81.25
90067,2018-06-29 09:31:46.593750,-45.07,81.25
90068,2018-06-29 09:31:46.625000,-36.66,81.25
90069,2018-06-29 09:31:46.656250,-35.78,81.25
90070,2018-06-29 09:31:46.687500,-40.34,81.25
90071,2018-06-29 09:31:46.718750,-47.25,81.25
90072,2018-06-29 09:31:46.750000,-48.84,81.25
90073,2018-06-29 09:31:46.781250,-37.27,81.25
90074,2018-06-29 09:31:46.812500,-15.72,81.25
90075,2018-06-29 09:31:46.843750,2.97,81.25
90076,2018-06-29 09:31:46.875000,12.11,81.25
90077,2018-06-29 09:31:46.906250,14.61,81.25
90078,2018-06-29 09:31:46.937500,9.29,81.25
90079,2018-06-29 09:31:46.968750,-9.75,81.25
90080,2018-06-29 09:31:47.000000,-39.21,81.25
90081,2018-06-29 09:31:47.031250,-69.47,81.25
90082,2018-06-29 09:31:47.062500,-99.08,81.25
90083,2018-06-29 09:31:47.093750,-131.7,81.25
90084,2018-06-29 09:31:47.125000,-164.38,81.25
90085,2018-06-29 09:31:47.156250,-188.59,81.25
90086,2018-06-29 09:31:47.187500,-194.11,81.25
90087,2018-06-29 09:31:47.218750,-172.48,81.25
90088,2018-06-29 09:31:47.250000,-125.91,81.25
90089,2018-06-29 09:31:47.281250,-68.64,81.25
90090,2018-06-29 09:31:47.312500,-14.39,81.25
90091,2018-06-29 09:31:47.343750,31.22,81.25
90092,2018-06-29 09:31:47.375000,66.84,81.25
90093,2018-06-29 09:31:47.406250,90.74,81.25
90094,2018-06-29 09:31:47.437500,100.83,81.25
90095,2018-06-29 09:31:47.468750,97.78,81.25
90096,2018-06-29 09:31:47.500000,85.26,81.25
90097,2018-06-29 09:31:47.531250,66.7,81.17
90098,2018-06-29 09:31:47.562500,46.03,81.17
90099,2018-06-29 09:31:47.593750,29.5,81.17
90100,2018-06-29 09:31:47.625000,20.56,81.17
90101,2018-06-29 09:31:47.656250,15.63,81.17
90102,2018-06-29 09:31:47.687500,9.6,81.17
90103,2018-06-29 09:31:47.718750,1.75,81.17
90104,2018-06-29 09:31:47.750000,-6.35,81.17
90105,2018-06-29 09:31:47.781250,-15.62,81.17
90106,2018-06-29 09:31:47.812500,-29.61,81.17
90107,2018-06-29 09:31:47.843750,-49.18,81.17
90108,2018-06-29 09:31:47.875000,-66.74,81.17
90109,2018-06-29 09:31:47.906250,-67.85,81.17
90110,2018-06-29 09:31:47.937500,-45.12,81.17
90111,2018-06-29 09:31:47.968750,-8.9,81.17
90112,2018-06-29 09:31:48.000000,20.52,81.17
90113,2018-06-29 09:31:48.031250,28.81,81.17
90114,2018-06-29 09:31:48.062500,13.64,81.17
90115,2018-06-29 09:31:48.093750,-17.6,81.17
90116,2018-06-29 09:31:48.125000,-50.26,81.17
90117,2018-06-29 09:31:48.156250,-68.94,81.17
90118,2018-06-29 09:31:48.187500,-67.05,81.17
90119,2018-06-29 09:31:48.218750,-48.57,81.17
90120,2018-06-29 09:31:48.250000,-19.71,81.17
90121,2018-06-29 09:31:48.281250,15.03,81.17
90122,2018-06-29 09:31:48.312500,47.35,81.17
90123,2018-06-29 09:31:48.343750,66.13,81.17
90124,2018-06-29 09:31:48.375000,68.16,81.17
90125,2018-06-29 09:31:48.406250,60.58,81.17
90126,2018-06-29 09:31:48.437500,50.23,81.17
90127,2018-06-29 09:31:48.468750,37.09,81.17
90128,2018-06-29 09:31:48.500000,18.8,81.17
90129,2018-06-29 09:31:48.531250,-4.74,81.15
90130,2018-06-29 09:31:48.562500,-29.76,81.15
90131,2018-06-29 09:31:48.593750,-48.4,81.15
90132,2018-06-29 09:31:48.625000,-55.2,81.15
90133,2018-06-29 09:31:48.656250,-53.95,81.15
90134,2018-06-29 09:31:48.687500,-48.84,81.15
90135,2018-06-29 09:31:48.718750,-34.55,81.15
90136,2018-06-29 09:31:48.750000,-8.7,81.15
90137,2018-06-29 09:31:48.781250,15.34,81.15
90138,2018-06-29 09:31:48.812500,23.47,81.15
90139,2018-06-29 09:31:48.843750,19.26,81.15
90140,2018-06-29 09:31:48.875000,17.27,81.15
90141,2018-06-29 09:31:48.906250,27.2,81.15
90142,2018-06-29 09:31:48.937500,47.92,81.15
90143,2018-06-29 09:31:48.968750,69.61,81.15
90144,2018-06-29 09:31:49.000000,82.53,81.15
90145,2018-06-29 09:31:49.031250,87.44,81.15
90146,2018-06-29 09:31:49.062500,93.23,81.15
90147,2018-06-29 09:31:49.093750,107.65,81.15
90148,2018-06-29 09:31:49.125000,132.21,81.15
90149,2018-06-29 09:31:49.156250,160.13,81.15
90150,2018-06-29 09:31:49.187500,179.97,81.15
90151,2018-06-29 09:31:49.218750,184.33,81.15
90152,2018-06-29 09:31:49.250000,167.71,81.15
90153,2018-06-29 09:31:49.281250,122.44,81.15
90154,2018-06-29 09:31:49.312500,52.05,81.15
90155,2018-06-29 09:31:49.343750,-18.86,81.15
90156,2018-06-29 09:31:49.375000,-63.56,81.15
90157,2018-06-29 09:31:49.406250,-76.63,81.15
90158,2018-06-29 09:31:49.437500,-72.04,81.15
90159,2018-06-29 09:31:49.468750,-63.94,81.15
90160,2018-06-29 09:31:49.500000,-55.48,81.15
90161,2018-06-29 09:31:49.531250,-43.9,81.18
90162,2018-06-29 09:31:49.562500,-27.9,81.18
90163,2018-06-29 09:31:49.593750,-5.2,81.18
90164,2018-06-29 09:31:49.625000,28.19,81.18
90165,2018-06-29 09:31:49.656250,71.62,81.18
90166,2018-06-29 09:31:49.687500,116.29,81.18
90167,2018-06-29 09:31:49.718750,152.63,81.18
90168,2018-06-29 09:31:49.750000,180.24,81.18
90169,2018-06-29 09:31:49.781250,205.41,81.18
90170,2018-06-29 09:31:49.812500,228.98,81.18
90171,2018-06-29 09:31:49.843750,244.13,81.18
90172,2018-06-29 09:31:49.875000,244.36,81.18
90173,2018-06-29 09:31:49.906250,223.16,81.18
90174,2018-06-29 09:31:49.937500,179.01,81.18
90175,2018-06-29 09:31:49.968750,125.22,81.18
90176,2018-06-29 09:31:50.000000,79.41,81.18
90177,2018-06-29 09:31:50.031250,40.5,81.18
90178,2018-06-29 09:31:50.062500,-7.01,81.18
90179,2018-06-29 09:31:50.093750,-64.37,81.18
90180,2018-06-29 09:31:50.125000,-119.25,81.18
90181,2018-06-29 09:31:50.156250,-164.18,81.18
90182,2018-06-29 09:31:50.187500,-210.31,81.18
90183,2018-06-29 09:31:50.218750,-272.79,81.18
90184,2018-06-29 09:31:50.250000,-354.47,81.18
90185,2018-06-29 09:31:50.281250,-433.22,81.18
90186,2018-06-29 09:31:50.312500,-469.5,81.18
90187,2018-06-29 09:31:50.343750,-446.63,81.18
90188,2018-06-29 09:31:50.375000,-384.1,81.18
90189,2018-06-29 09:31:50.406250,-313.1,81.18
90190,2018-06-29 09:31:50.437500,-241.75,81.18
90191,2018-06-29 09:31:50.468750,-174.22,81.18
90192,2018-06-29 09:31:50.500000,-106.63,81.18
90193,2018-06-29 09:31:50.531250,3.41,81.2
90194,2018-06-29 09:31:50.562500,106.96,81.2
90195,2018-06-29 09:31:50.593750,139.82,81.2
90196,2018-06-29 09:31:50.625000,106.57,81.2
90197,2018-06-29 09:31:50.656250,46.56,81.2
90198,2018-06-29 09:31:50.687500,-11.75,81.2
90199,2018-06-29 09:31:50.718750,-47.59,81.2
90200,2018-06-29 09:31:50.750000,-53.12,81.2
90201,2018-06-29 09:31:50.781250,-31.07,81.2
90202,2018-06-29 09:31:50.812500,-6.21,81.2
90203,2018-06-29 09:31:50.843750,7.86,81.2
90204,2018-06-29 09:31:50.875000,20.12,81.2
90205,2018-06-29 09:31:50.906250,36.5,81.2
90206,2018-06-29 09:31:50.937500,50.32,81.2
90207,2018-06-29 09:31:50.968750,53.98,81.2
90208,2018-06-29 09:31:51.000000,52.5,81.2
90209,2018-06-29 09:31:51.031250,53.07,81.2
90210,2018-06-29 09:31:51.062500,54.29,81.2
90211,2018-06-29 09:31:51.093750,51.45,81.2
90212,2018-06-29 09:31:51.125000,44.78,81.2
90213,2018-06-29 09:31:51.156250,36.12,81.2
90214,2018-06-29 09:31:51.187500,20.98,81.2
90215,2018-06-29 09:31:51.218750,-5.46,81.2
90216,2018-06-29 09:31:51.250000,-36.92,81.2
90217,2018-06-29 09:31:51.281250,-59.45,81.2
90218,2018-06-29 09:31:51.312500,-69.88,81.2
90219,2018-06-29 09:31:51.343750,-81.98,81.2
90220,2018-06-29 09:31:51.375000,-106.9,81.2
90221,2018-06-29 09:31:51.406250,-133.24,81.2
90222,2018-06-29 09:31:51.437500,-136.34,81.2
90223,2018-06-29 09:31:51.468750,-107.81,81.2
90224,2018-06-29 09:31:51.500000,-68.91,81.2
90225,2018-06-29 09:31:51.531250,-50.57,81.22
90226,2018-06-29 09:31:51.562500,-54.09,81.22
90227,2018-06-29 09:31:51.593750,-35.56,81.22
90228,2018-06-29 09:31:51.625000,53.82,81.22
90229,2018-06-29 09:31:51.656250,210.61,81.22
90230,2018-06-29 09:31:51.687500,375.53,81.22
90231,2018-06-29 09:31:51.718750,485.33,81.22
90232,2018-06-29 09:31:51.750000,514.64,81.22
90233,2018-06-29 09:31:51.781250,472.75,81.22
90234,2018-06-29 09:31:51.812500,382.11,81.22
90235,2018-06-29 09:31:51.843750,265.7,81.22
90236,2018-06-29 09:31:51.875000,141.33,81.22
90237,2018-06-29 09:31:51.906250,17.85,81.22
90238,2018-06-29 09:31:51.937500,-97.05,81.22
90239,2018-06-29 09:31:51.968750,-187.93,81.22
90240,2018-06-29 09:31:52.000000,-241.81,81.22
90241,2018-06-29 09:31:52.031250,-262.9,81.22
90242,2018-06-29 09:31:52.062500,-267.31,81.22
90243,2018-06-29 09:31:52.093750,-264.27,81.22
90244,2018-06-29 09:31:52.125000,-248.43,81.22
90245,2018-06-29 09:31:52.156250,-210.15,81.22
90246,2018-06-29 09:31:52.187500,-149.79,81.22
90247,2018-06-29 09:31:52.218750,-79.51,81.22
90248,2018-06-29 09:31:52.250000,-13.45,81.22
90249,2018-06-29 09:31:52.281250,39.98,81.22
90250,2018-06-29 09:31:52.312500,77.59,81.22
90251,2018-06-29 09:31:52.343750,98.52,81.22
90252,2018-06-29 09:31:52.375000,105.37,81.22
90253,2018-06-29 09:31:52.406250,105.82,81.22
90254,2018-06-29 09:31:52.437500,105.32,81.22
90255,2018-06-29 09:31:52.468750,97.2,81.22
90256,2018-06-29 09:31:52.500000,70.81,81.22
90257,2018-06-29 09:31:52.531250,28.89,81.22
90258,2018-06-29 09:31:52.562500,-13.98,81.22
90259,2018-06-29 09:31:52.593750,-46.36,81.22
90260,2018-06-29 09:31:52.625000,-63.76,81.22
90261,2018-06-29 09:31:52.656250,-65.18,81.22
90262,2018-06-29 09:31:52.687500,-52.24,81.22
90263,2018-06-29 09:31:52.718750,-27.14,81.22
90264,2018-06-29 09:31:52.750000,5.83,81.22
90265,2018-06-29 09:31:52.781250,33.45,81.22
90266,2018-06-29 09:31:52.812500,39.28,81.22
90267,2018-06-29 09:31:52.843750,21.66,81.22
90268,2018-06-29 09:31:52.875000,-4.17,81.22
90269,2018-06-29 09:31:52.906250,-22.79,81.22
90270,2018-06-29 09:31:52.937500,-28.22,81.22
90271,2018-06-29 09:31:52.968750,-22.93,81.22
90272,2018-06-29 09:31:53.000000,-17.24,81.22
90273,2018-06-29 09:31:53.031250,-23.15,81.22
90274,2018-06-29 09:31:53.062500,-42.17,81.22
90275,2018-06-29 09:31:53.093750,-64.06,81.22
90276,2018-06-29 09:31:53.125000,-78.14,81.22
90277,2018-06-29 09:31:53.156250,-79.78,81.22
90278,2018-06-29 09:31:53.187500,-67.37,81.22
90279,2018-06-29 09:31:53.218750,-42.11,81.22
90280,2018-06-29 09:31:53.250000,-14.8,81.22
90281,2018-06-29 09:31:53.281250,-3.18,81.22
90282,2018-06-29 09:31:53.312500,-12.12,81.22
90283,2018-06-29 09:31:53.343750,-22.63,81.22
90284,2018-06-29 09:31:53.375000,-13.98,81.22
90285,2018-06-29 09:31:53.406250,9.39,81.22
90286,2018-06-29 09:31:53.437500,26.05,81.22
90287,2018-06-29 09:31:53.468750,23.24,81.22
90288,2018-06-29 09:31:53.500000,2.47,81.22
90289,2018-06-29 09:31:53.531250,-26.16,81.27
90290,2018-06-29 09:31:53.562500,-44.86,81.27
90291,2018-06-29 09:31:53.593750,-38.2,81.27
90292,2018-06-29 09:31:53.625000,-8.59,81.27
90293,2018-06-29 09:31:53.656250,28.66,81.27
90294,2018-06-29 09:31:53.687500,61.72,81.27
90295,2018-06-29 09:31:53.718750,84.7,81.27
90296,2018-06-29 09:31:53.750000,95.38,81.27
90297,2018-06-29 09:31:53.781250,101.88,81.27
90298,2018-06-29 09:31:53.812500,118.76,81.27
90299,2018-06-29 09:31:53.843750,146.82,81.27
90300,2018-06-29 09:31:53.875000,165.65,81.27
90301,2018-06-29 09:31:53.906250,150.62,81.27
90302,2018-06-29 09:31:53.937500,92.64,81.27
90303,2018-06-29 09:31:53.968750,9.04,81.27
90304,2018-06-29 09:31:54.000000,-63.81,81.27
90305,2018-06-29 09:31:54.031250,-102.64,81.27
90306,2018-06-29 09:31:54.062500,-116.67,81.27
90307,2018-06-29 09:31:54.093750,-124.89,81.27
90308,2018-06-29 09:31:54.125000,-131.54,81.27
90309,2018-06-29 09:31:54.156250,-135.01,81.27
90310,2018-06-29 09:31:54.187500,-136.45,81.27
90311,2018-06-29 09:31:54.218750,-128.32,81.27
90312,2018-06-29 09:31:54.250000,-95.74,81.27
90313,2018-06-29 09:31:54.281250,-38.68,81.27
90314,2018-06-29 09:31:54.312500,20.36,81.27
90315,2018-06-29 09:31:54.343750,56.66,81.27
90316,2018-06-29 09:31:54.375000,65.4,81.27
90317,2018-06-29 09:31:54.406250,61.84,81.27
90318,2018-06-29 09:31:54.437500,64.48,81.27
90319,2018-06-29 09:31:54.468750,78.02,81.27
90320,2018-06-29 09:31:54.500000,94.16,81.27
90321,2018-06-29 09:31:54.531250,106.74,81.33
90322,2018-06-29 09:31:54.562500,115.67,81.33
90323,2018-06-29 09:31:54.593750,116.69,81.33
90324,2018-06-29 09:31:54.625000,102.18,81.33
90325,2018-06-29 09:31:54.656250,72.94,81.33
90326,2018-06-29 09:31:54.687500,37.43,81.33
90327,2018-06-29 09:31:54.718750,3.54,81.33
90328,2018-06-29 09:31:54.750000,-19.41,81.33
90329,2018-06-29 09:31:54.781250,-21.51,81.33
90330,2018-06-29 09:31:54.812500,-4.45,81.33
90331,2018-06-29 09:31:54.843750,18.01,81.33
90332,2018-06-29 09:31:54.875000,38.79,81.33
90333,2018-06-29 09:31:54.906250,61.21,81.33
90334,2018-06-29 09:31:54.937500,81.89,81.33
90335,2018-06-29 09:31:54.968750,86.98,81.33
90336,2018-06-29 09:31:55.000000,67.35,81.33
90337,2018-06-29 09:31:55.031250,26.7,81.33
90338,2018-06-29 09:31:55.062500,-21.49,81.33
90339,2018-06-29 09:31:55.093750,-60.77,81.33
90340,2018-06-29 09:31:55.125000,-84.34,81.33
90341,2018-06-29 09:31:55.156250,-99.87,81.33
90342,2018-06-29 09:31:55.187500,-114.67,81.33
90343,2018-06-29 09:31:55.218750,-123.99,81.33
90344,2018-06-29 09:31:55.250000,-119.45,81.33
90345,2018-06-29 09:31:55.281250,-99.84,81.33
90346,2018-06-29 09:31:55.312500,-70.79,81.33
90347,2018-06-29 09:31:55.343750,-40.02,81.33
90348,2018-06-29 09:31:55.375000,-13.73,81.33
90349,2018-06-29 09:31:55.406250,6.02,81.33
90350,2018-06-29 09:31:55.437500,19.39,81.33
90351,2018-06-29 09:31:55.468750,24.25,81.33
90352,2018-06-29 09:31:55.500000,17.13,81.33
90353,2018-06-29 09:31:55.531250,-0.05,81.5
90354,2018-06-29 09:31:55.562500,-15.46,81.5
90355,2018-06-29 09:31:55.593750,-13.56,81.5
90356,2018-06-29 09:31:55.625000,12.8,81.5
90357,2018-06-29 09:31:55.656250,56.39,81.5
90358,2018-06-29 09:31:55.687500,99.23,81.5
90359,2018-06-29 09:31:55.718750,121.37,81.5
90360,2018-06-29 09:31:55.750000,112.89,81.5
90361,2018-06-29 09:31:55.781250,82.12,81.5
90362,2018-06-29 09:31:55.812500,46.88,81.5
90363,2018-06-29 09:31:55.843750,19.84,81.5
90364,2018-06-29 09:31:55.875000,7.4,81.5
90365,2018-06-29 09:31:55.906250,12.27,81.5
90366,2018-06-29 09:31:55.937500,30.12,81.5
90367,2018-06-29 09:31:55.968750,54.96,81.5
90368,2018-06-29 09:31:56.000000,86.61,81.5
90369,2018-06-29 09:31:56.031250,117.88,81.5
90370,2018-06-29 09:31:56.062500,126.12,81.5
90371,2018-06-29 09:31:56.093750,94.4,81.5
90372,2018-06-29 09:31:56.125000,28.68,81.5
90373,2018-06-29 09:31:56.156250,-53.82,81.5
90374,2018-06-29 09:31:56.187500,-135.99,81.5
90375,2018-06-29 09:31:56.218750,-198.74,81.5
90376,2018-06-29 09:31:56.250000,-226.82,81.5
90377,2018-06-29 09:31:56.281250,-219.27,81.5
90378,2018-06-29 09:31:56.312500,-186.55,81.5
90379,2018-06-29 09:31:56.343750,-141.08,81.5
90380,2018-06-29 09:31:56.375000,-92.55,81.5
90381,2018-06-29 09:31:56.406250,-46.41,81.5
90382,2018-06-29 09:31:56.437500,-4.37,81.5
90383,2018-06-29 09:31:56.468750,32.75,81.5
90384,2018-06-29 09:31:56.500000,64.66,81.5
90385,2018-06-29 09:31:56.531250,91.68,81.68
90386,2018-06-29 09:31:56.562500,110.05,81.68
90387,2018-06-29 09:31:56.593750,110.98,81.68
90388,2018-06-29 09:31:56.625000,91.42,81.68
90389,2018-06-29 09:31:56.656250,63.84,81.68
90390,2018-06-29 09:31:56.687500,48.06,81.68
90391,2018-06-29 09:31:56.718750,53.75,81.68
90392,2018-06-29 09:31:56.750000,74.64,81.68
90393,2018-06-29 09:31:56.781250,95.93,81.68
90394,2018-06-29 09:31:56.812500,100.71,81.68
90395,2018-06-29 09:31:56.843750,77.1,81.68
90396,2018-06-29 09:31:56.875000,31.52,81.68
90397,2018-06-29 09:31:56.906250,-12.87,81.68
90398,2018-06-29 09:31:56.937500,-39.75,81.68
90399,2018-06-29 09:31:56.968750,-49.99,81.68
90400,2018-06-29 09:31:57.000000,-44.7,81.68
90401,2018-06-29 09:31:57.031250,-19.2,81.68
90402,2018-06-29 09:31:57.062500,22.37,81.68
90403,2018-06-29 09:31:57.093750,67.07,81.68
90404,2018-06-29 09:31:57.125000,106.68,81.68
90405,2018-06-29 09:31:57.156250,135.28,81.68
90406,2018-06-29 09:31:57.187500,142.2,81.68
90407,2018-06-29 09:31:57.218750,119.49,81.68
90408,2018-06-29 09:31:57.250000,66.68,81.68
90409,2018-06-29 09:31:57.281250,-12.52,81.68
90410,2018-06-29 09:31:57.312500,-102.48,81.68
90411,2018-06-29 09:31:57.343750,-173.18,81.68
90412,2018-06-29 09:31:57.375000,-205.41,81.68
90413,2018-06-29 09:31:57.406250,-209.1,81.68
90414,2018-06-29 09:31:57.437500,-204.56,81.68
90415,2018-06-29 09:31:57.468750,-200.22,81.68
90416,2018-06-29 09:31:57.500000,-194.69,81.68
90417,2018-06-29 09:31:57.531250,-180.93,82.07
90418,2018-06-29 09:31:57.562500,-145.79,82.07
90419,2018-06-29 09:31:57.593750,-83.52,82.07
90420,2018-06-29 09:31:57.625000,-8.78,82.07
90421,2018-06-29 09:31:57.656250,55.19,82.07
90422,2018-06-29 09:31:57.687500,95.4,82.07
90423,2018-06-29 09:31:57.718750,110.12,82.07
90424,2018-06-29 09:31:57.750000,103.76,82.07
90425,2018-06-29 09:31:57.781250,89.49,82.07
90426,2018-06-29 09:31:57.812500,86.35,82.07
90427,2018-06-29 09:31:57.843750,104.65,82.07
90428,2018-06-29 09:31:57.875000,137.14,82.07
90429,2018-06-29 09:31:57.906250,165.5,82.07
90430,2018-06-29 09:31:57.937500,171.51,82.07
90431,2018-06-29 09:31:57.968750,145.9,82.07
90432,2018-06-29 09:31:58.000000,94.42,82.07
90433,2018-06-29 09:31:58.031250,34.45,82.07
90434,2018-06-29 09:31:58.062500,-18.1,82.07
90435,2018-06-29 09:31:58.093750,-57.06,82.07
90436,2018-06-29 09:31:58.125000,-81.07,82.07
90437,2018-06-29 09:31:58.156250,-87.12,82.07
90438,2018-06-29 09:31:58.187500,-70.36,82.07
90439,2018-06-29 09:31:58.218750,-26.94,82.07
90440,2018-06-29 09:31:58.250000,37.43,82.07
90441,2018-06-29 09:31:58.281250,97.34,82.07
90442,2018-06-29 09:31:58.312500,120.11,82.07
90443,2018-06-29 09:31:58.343750,95.41,82.07
90444,2018-06-29 09:31:58.375000,40.62,82.07
90445,2018-06-29 09:31:58.406250,-22.49,82.07
90446,2018-06-29 09:31:58.437500,-79.82,82.07
90447,2018-06-29 09:31:58.468750,-120.47,82.07
90448,2018-06-29 09:31:58.500000,-141.21,82.07
90449,2018-06-29 09:31:58.531250,-150.19,82.47
90450,2018-06-29 09:31:58.562500,-152.64,82.47
90451,2018-06-29 09:31:58.593750,-142.91,82.47
90452,2018-06-29 09:31:58.625000,-118.66,82.47
90453,2018-06-29 09:31:58.656250,-89.99,82.47
90454,2018-06-29 09:31:58.687500,-65.86,82.47
90455,2018-06-29 09:31:58.718750,-43.03,82.47
90456,2018-06-29 09:31:58.750000,-14.83,82.47
90457,2018-06-29 09:31:58.781250,14.65,82.47
90458,2018-06-29 09:31:58.812500,30.35,82.47
90459,2018-06-29 09:31:58.843750,23.24,82.47
90460,2018-06-29 09:31:58.875000,6.07,82.47
90461,2018-06-29 09:31:58.906250,6.25,82.47
90462,2018-06-29 09:31:58.937500,39.3,82.47
90463,2018-06-29 09:31:58.968750,94.45,82.47
90464,2018-06-29 09:31:59.000000,147.93,82.47
90465,2018-06-29 09:31:59.031250,181.79,82.47
90466,2018-06-29 09:31:59.062500,187.35,82.47
90467,2018-06-29 09:31:59.093750,163.03,82.47
90468,2018-06-29 09:31:59.125000,118.04,82.47
90469,2018-06-29 09:31:59.156250,70.1,82.47
90470,2018-06-29 09:31:59.187500,33.77,82.47
90471,2018-06-29 09:31:59.218750,15.96,82.47
90472,2018-06-29 09:31:59.250000,17.92,82.47
90473,2018-06-29 09:31:59.281250,34.26,82.47
90474,2018-06-29 09:31:59.312500,56.62,82.47
90475,2018-06-29 09:31:59.343750,80.31,82.47
90476,2018-06-29 09:31:59.375000,96.13,82.47
90477,2018-06-29 09:31:59.406250,84.02,82.47
90478,2018-06-29 09:31:59.437500,36.12,82.47
90479,2018-06-29 09:31:59.468750,-27.4,82.47
90480,2018-06-29 09:31:59.500000,-85.86,82.47
90481,2018-06-29 09:31:59.531250,-140.17,82.87
90482,2018-06-29 09:31:59.562500,-190.06,82.87
90483,2018-06-29 09:31:59.593750,-218.79,82.87
90484,2018-06-29 09:31:59.625000,-217.85,82.87
90485,2018-06-29 09:31:59.656250,-201.71,82.87
90486,2018-06-29 09:31:59.687500,-184.75,82.87
90487,2018-06-29 09:31:59.718750,-163.35,82.87
90488,2018-06-29 09:31:59.750000,-130.24,82.87
90489,2018-06-29 09:31:59.781250,-90.18,82.87
90490,2018-06-29 09:31:59.812500,-52.55,82.87
90491,2018-06-29 09:31:59.843750,-19.44,82.87
90492,2018-06-29 09:31:59.875000,11.45,82.87
90493,2018-06-29 09:31:59.906250,38.71,82.87
90494,2018-06-29 09:31:59.937500,56.97,82.87
90495,2018-06-29 09:31:59.968750,62.53,82.87
90496,2018-06-29 09:32:00.000000,60.32,82.87
90497,2018-06-29 09:32:00.031250,63.59,82.87
90498,2018-06-29 09:32:00.062500,80.35,82.87
90499,2018-06-29 09:32:00.093750,104.17,82.87
90500,2018-06-29 09:32:00.125000,123.3,82.87
90501,2018-06-29 09:32:00.156250,129.8,82.87
90502,2018-06-29 09:32:00.187500,116.96,82.87
90503,2018-06-29 09:32:00.218750,81.91,82.87
90504,2018-06-29 09:32:00.250000,32.35,82.87
90505,2018-06-29 09:32:00.281250,-17.15,82.87
90506,2018-06-29 09:32:00.312500,-50.94,82.87
90507,2018-06-29 09:32:00.343750,-54.05,82.87
90508,2018-06-29 09:32:00.375000,-22.68,82.87
90509,2018-06-29 09:32:00.406250,28.68,82.87
90510,2018-06-29 09:32:00.437500,82.3,82.87
90511,2018-06-29 09:32:00.468750,128.52,82.87
90512,2018-06-29 09:32:00.500000,156.43,82.87
90513,2018-06-29 09:32:00.531250,152.37,83.28
90514,2018-06-29 09:32:00.562500,113.58,83.28
90515,2018-06-29 09:32:00.593750,48.18,83.28
90516,2018-06-29 09:32:00.625000,-31.92,83.28
90517,2018-06-29 09:32:00.656250,-105.86,83.28
90518,2018-06-29 09:32:00.687500,-149.54,83.28
90519,2018-06-29 09:32:00.718750,-159.22,83.28
90520,2018-06-29 09:32:00.750000,-153.78,83.28
90521,2018-06-29 09:32:00.781250,-149.52,83.28
90522,2018-06-29 09:32:00.812500,-146.59,83.28
90523,2018-06-29 09:32:00.843750,-138.73,83.28
90524,2018-06-29 09:32:00.875000,-123.19,83.28
90525,2018-06-29 09:32:00.906250,-100.36,83.28
90526,2018-06-29 09:32:00.937500,-72.64,83.28
90527,2018-06-29 09:32:00.968750,-45.44,83.28
90528,2018-06-29 09:32:01.000000,-24.72,83.28
90529,2018-06-29 09:32:01.031250,-12.01,83.28
90530,2018-06-29 09:32:01.062500,-3.95,83.28
90531,2018-06-29 09:32:01.093750,4.98,83.28
90532,2018-06-29 09:32:01.125000,22.16,83.28
90533,2018-06-29 09:32:01.156250,52.27,83.28
90534,2018-06-29 09:32:01.187500,88.82,83.28
90535,2018-06-29 09:32:01.218750,119.09,83.28
90536,2018-06-29 09:32:01.250000,136.92,83.28
90537,2018-06-29 09:32:01.281250,141.5,83.28
90538,2018-06-29 09:32:01.312500,129.52,83.28
90539,2018-06-29 09:32:01.343750,100.34,83.28
90540,2018-06-29 09:32:01.375000,63.0,83.28
90541,2018-06-29 09:32:01.406250,29.97,83.28
90542,2018-06-29 09:32:01.437500,10.34,83.28
90543,2018-06-29 09:32:01.468750,10.72,83.28
90544,2018-06-29 09:32:01.500000,32.06,83.28
90545,2018-06-29 09:32:01.531250,63.55,83.82
90546,2018-06-29 09:32:01.562500,88.84,83.82
90547,2018-06-29 09:32:01.593750,96.07,83.82
90548,2018-06-29 09:32:01.625000,76.64,83.82
90549,2018-06-29 09:32:01.656250,24.11,83.82
90550,2018-06-29 09:32:01.687500,-52.73,83.82
90551,2018-06-29 09:32:01.718750,-122.65,83.82
90552,2018-06-29 09:32:01.750000,-154.89,83.82
90553,2018-06-29 09:32:01.781250,-148.46,83.82
90554,2018-06-29 09:32:01.812500,-127.53,83.82
90555,2018-06-29 09:32:01.843750,-111.98,83.82
90556,2018-06-29 09:32:01.875000,-104.4,83.82
90557,2018-06-29 09:32:01.906250,-100.51,83.82
90558,2018-06-29 09:32:01.937500,-97.43,83.82
90559,2018-06-29 09:32:01.968750,-91.76,83.82
90560,2018-06-29 09:32:02.000000,-80.15,83.82
90561,2018-06-29 09:32:02.031250,-61.51,83.82
90562,2018-06-29 09:32:02.062500,-33.32,83.82
90563,2018-06-29 09:32:02.093750,5.04,83.82
90564,2018-06-29 09:32:02.125000,37.05,83.82
90565,2018-06-29 09:32:02.156250,38.99,83.82
90566,2018-06-29 09:32:02.187500,17.02,83.82
90567,2018-06-29 09:32:02.218750,7.22,83.82
90568,2018-06-29 09:32:02.250000,28.81,83.82
90569,2018-06-29 09:32:02.281250,65.01,83.82
90570,2018-06-29 09:32:02.312500,92.1,83.82
90571,2018-06-29 09:32:02.343750,100.89,83.82
90572,2018-06-29 09:32:02.375000,92.06,83.82
90573,2018-06-29 09:32:02.406250,71.99,83.82
90574,2018-06-29 09:32:02.437500,51.72,83.82
90575,2018-06-29 09:32:02.468750,38.84,83.82
90576,2018-06-29 09:32:02.500000,32.4,83.82
90577,2018-06-29 09:32:02.531250,30.91,84.32
90578,2018-06-29 09:32:02.562500,40.08,84.32
90579,2018-06-29 09:32:02.593750,64.99,84.32
90580,2018-06-29 09:32:02.625000,100.72,84.32
90581,2018-06-29 09:32:02.656250,135.02,84.32
90582,2018-06-29 09:32:02.687500,152.33,84.32
90583,2018-06-29 09:32:02.718750,138.31,84.32
90584,2018-06-29 09:32:02.750000,92.67,84.32
90585,2018-06-29 09:32:02.781250,32.18,84.32
90586,2018-06-29 09:32:02.812500,-28.48,84.32
90587,2018-06-29 09:32:02.843750,-84.78,84.32
90588,2018-06-29 09:32:02.875000,-130.03,84.32
90589,2018-06-29 09:32:02.906250,-158.41,84.32
90590,2018-06-29 09:32:02.937500,-178.14,84.32
90591,2018-06-29 09:32:02.968750,-201.01,84.32
90592,2018-06-29 09:32:03.000000,-224.72,84.32
90593,2018-06-29 09:32:03.031250,-237.94,84.32
90594,2018-06-29 09:32:03.062500,-232.53,84.32
90595,2018-06-29 09:32:03.093750,-205.92,84.32
90596,2018-06-29 09:32:03.125000,-162.34,84.32
90597,2018-06-29 09:32:03.156250,-112.08,84.32
90598,2018-06-29 09:32:03.187500,-65.15,84.32
90599,2018-06-29 09:32:03.218750,-26.73,84.32
90600,2018-06-29 09:32:03.250000,2.91,84.32
90601,2018-06-29 09:32:03.281250,27.01,84.32
90602,2018-06-29 09:32:03.312500,47.51,84.32
90603,2018-06-29 09:32:03.343750,61.29,84.32
90604,2018-06-29 09:32:03.375000,65.97,84.32
90605,2018-06-29 09:32:03.406250,67.0,84.32
90606,2018-06-29 09:32:03.437500,72.28,84.32
90607,2018-06-29 09:32:03.468750,80.37,84.32
90608,2018-06-29 09:32:03.500000,81.2,84.32
90609,2018-06-29 09:32:03.531250,69.54,84.83
90610,2018-06-29 09:32:03.562500,52.26,84.83
90611,2018-06-29 09:32:03.593750,41.29,84.83
90612,2018-06-29 09:32:03.625000,42.54,84.83
90613,2018-06-29 09:32:03.656250,51.15,84.83
90614,2018-06-29 09:32:03.687500,58.66,84.83
90615,2018-06-29 09:32:03.718750,68.37,84.83
90616,2018-06-29 09:32:03.750000,93.6,84.83
90617,2018-06-29 09:32:03.781250,130.92,84.83
90618,2018-06-29 09:32:03.812500,149.27,84.83
90619,2018-06-29 09:32:03.843750,121.4,84.83
90620,2018-06-29 09:32:03.875000,55.78,84.83
90621,2018-06-29 09:32:03.906250,-13.54,84.83
90622,2018-06-29 09:32:03.937500,-61.92,84.83
90623,2018-06-29 09:32:03.968750,-90.09,84.83
90624,2018-06-29 09:32:04.000000,-110.07,84.83
90625,2018-06-29 09:32:04.031250,-126.26,84.83
90626,2018-06-29 09:32:04.062500,-135.0,84.83
90627,2018-06-29 09:32:04.093750,-134.68,84.83
90628,2018-06-29 09:32:04.125000,-127.54,84.83
90629,2018-06-29 09:32:04.156250,-115.83,84.83
90630,2018-06-29 09:32:04.187500,-102.24,84.83
90631,2018-06-29 09:32:04.218750,-90.01,84.83
90632,2018-06-29 09:32:04.250000,-79.16,84.83
90633,2018-06-29 09:32:04.281250,-67.17,84.83
90634,2018-06-29 09:32:04.312500,-55.44,84.83
90635,2018-06-29 09:32:04.343750,-46.89,84.83
90636,2018-06-29 09:32:04.375000,-35.75,84.83
90637,2018-06-29 09:32:04.406250,-11.18,84.83
90638,2018-06-29 09:32:04.437500,26.19,84.83
90639,2018-06-29 09:32:04.468750,61.39,84.83
90640,2018-06-29 09:32:04.500000,81.79,84.83
90641,2018-06-29 09:32:04.531250,87.71,85.37
90642,2018-06-29 09:32:04.562500,84.68,85.37
90643,2018-06-29 09:32:04.593750,74.85,85.37
90644,2018-06-29 09:32:04.625000,58.78,85.37
90645,2018-06-29 09:32:04.656250,39.83,85.37
90646,2018-06-29 09:32:04.687500,26.38,85.37
90647,2018-06-29 09:32:04.718750,28.54,85.37
90648,2018-06-29 09:32:04.750000,47.89,85.37
90649,2018-06-29 09:32:04.781250,73.11,85.37
90650,2018-06-29 09:32:04.812500,91.59,85.37
90651,2018-06-29 09:32:04.843750,100.18,85.37
90652,2018-06-29 09:32:04.875000,100.06,85.37
90653,2018-06-29 09:32:04.906250,89.58,85.37
90654,2018-06-29 09:32:04.937500,68.21,85.37
90655,2018-06-29 09:32:04.968750,40.89,85.37
90656,2018-06-29 09:32:05.000000,12.8,85.37
90657,2018-06-29 09:32:05.031250,-15.2,85.37
90658,2018-06-29 09:32:05.062500,-43.32,85.37
90659,2018-06-29 09:32:05.093750,-70.52,85.37
90660,2018-06-29 09:32:05.125000,-96.87,85.37
90661,2018-06-29 09:32:05.156250,-119.43,85.37
90662,2018-06-29 09:32:05.187500,-126.76,85.37
90663,2018-06-29 09:32:05.218750,-109.26,85.37
90664,2018-06-29 09:32:05.250000,-74.59,85.37
90665,2018-06-29 09:32:05.281250,-41.17,85.37
90666,2018-06-29 09:32:05.312500,-17.77,85.37
90667,2018-06-29 09:32:05.343750,1.52,85.37
90668,2018-06-29 09:32:05.375000,24.11,85.37
90669,2018-06-29 09:32:05.406250,49.41,85.37
90670,2018-06-29 09:32:05.437500,70.13,85.37
90671,2018-06-29 09:32:05.468750,78.78,85.37
90672,2018-06-29 09:32:05.500000,77.12,85.37
90673,2018-06-29 09:32:05.531250,78.24,85.87
90674,2018-06-29 09:32:05.562500,91.84,85.87
90675,2018-06-29 09:32:05.593750,110.59,85.87
90676,2018-06-29 09:32:05.625000,116.79,85.87
90677,2018-06-29 09:32:05.656250,98.26,85.87
90678,2018-06-29 09:32:05.687500,57.93,85.87
90679,2018-06-29 09:32:05.718750,13.41,85.87
90680,2018-06-29 09:32:05.750000,-16.72,85.87
90681,2018-06-29 09:32:05.781250,-28.41,85.87
90682,2018-06-29 09:32:05.812500,-26.79,85.87
90683,2018-06-29 09:32:05.843750,-11.19,85.87
90684,2018-06-29 09:32:05.875000,20.98,85.87
90685,2018-06-29 09:32:05.906250,64.19,85.87
90686,2018-06-29 09:32:05.937500,107.58,85.87
90687,2018-06-29 09:32:05.968750,135.74,85.87
90688,2018-06-29 09:32:06.000000,128.77,85.87
90689,2018-06-29 09:32:06.031250,82.92,85.87
90690,2018-06-29 09:32:06.062500,22.85,85.87
90691,2018-06-29 09:32:06.093750,-28.42,85.87
90692,2018-06-29 09:32:06.125000,-75.11,85.87
90693,2018-06-29 09:32:06.156250,-125.69,85.87
90694,2018-06-29 09:32:06.187500,-170.0,85.87
90695,2018-06-29 09:32:06.218750,-196.19,85.87
90696,2018-06-29 09:32:06.250000,-206.05,85.87
90697,2018-06-29 09:32:06.281250,-203.03,85.87
90698,2018-06-29 09:32:06.312500,-185.83,85.87
90699,2018-06-29 09:32:06.343750,-159.58,85.87
90700,2018-06-29 09:32:06.375000,-136.96,85.87
90701,2018-06-29 09:32:06.406250,-122.73,85.87
90702,2018-06-29 09:32:06.437500,-106.66,85.87
90703,2018-06-29 09:32:06.468750,-76.05,85.87
90704,2018-06-29 09:32:06.500000,-30.8,85.87
90705,2018-06-29 09:32:06.531250,18.15,86.4
90706,2018-06-29 09:32:06.562500,60.45,86.4
90707,2018-06-29 09:32:06.593750,91.39,86.4
90708,2018-06-29 09:32:06.625000,110.28,86.4
90709,2018-06-29 09:32:06.656250,120.41,86.4
90710,2018-06-29 09:32:06.687500,127.65,86.4
90711,2018-06-29 09:32:06.718750,133.09,86.4
90712,2018-06-29 09:32:06.750000,128.91,86.4
90713,2018-06-29 09:32:06.781250,107.22,86.4
90714,2018-06-29 09:32:06.812500,71.75,86.4
90715,2018-06-29 09:32:06.843750,35.96,86.4
90716,2018-06-29 09:32:06.875000,10.06,86.4
90717,2018-06-29 09:32:06.906250,-3.91,86.4
90718,2018-06-29 09:32:06.937500,-5.07,86.4
90719,2018-06-29 09:32:06.968750,8.24,86.4
90720,2018-06-29 09:32:07.000000,33.13,86.4
90721,2018-06-29 09:32:07.031250,61.55,86.4
90722,2018-06-29 09:32:07.062500,82.22,86.4
90723,2018-06-29 09:32:07.093750,82.21,86.4
90724,2018-06-29 09:32:07.125000,59.36,86.4
90725,2018-06-29 09:32:07.156250,30.48,86.4
90726,2018-06-29 09:32:07.187500,9.78,86.4
90727,2018-06-29 09:32:07.218750,-11.16,86.4
90728,2018-06-29 09:32:07.250000,-44.63,86.4
90729,2018-06-29 09:32:07.281250,-84.73,86.4
90730,2018-06-29 09:32:07.312500,-118.24,86.4
90731,2018-06-29 09:32:07.343750,-139.35,86.4
90732,2018-06-29 09:32:07.375000,-144.49,86.4
90733,2018-06-29 09:32:07.406250,-129.02,86.4
90734,2018-06-29 09:32:07.437500,-96.48,86.4
90735,2018-06-29 09:32:07.468750,-60.22,86.4
90736,2018-06-29 09:32:07.500000,-30.75,86.4
90737,2018-06-29 09:32:07.531250,-5.78,86.9
90738,2018-06-29 09:32:07.562500,22.72,86.9
90739,2018-06-29 09:32:07.593750,53.54,86.9
90740,2018-06-29 09:32:07.625000,72.11,86.9
90741,2018-06-29 09:32:07.656250,63.9,86.9
90742,2018-06-29 09:32:07.687500,33.57,86.9
90743,2018-06-29 09:32:07.718750,6.29,86.9
90744,2018-06-29 09:32:07.750000,3.23,86.9
90745,2018-06-29 09:32:07.781250,21.71,86.9
90746,2018-06-29 09:32:07.812500,45.63,86.9
90747,2018-06-29 09:32:07.843750,63.7,86.9
90748,2018-06-29 09:32:07.875000,69.67,86.9
90749,2018-06-29 09:32:07.906250,59.76,86.9
90750,2018-06-29 09:32:07.937500,39.38,86.9
90751,2018-06-29 09:32:07.968750,22.07,86.9
90752,2018-06-29 09:32:08.000000,18.25,86.9
90753,2018-06-29 09:32:08.031250,30.13,86.9
90754,2018-06-29 09:32:08.062500,53.96,86.9
90755,2018-06-29 09:32:08.093750,83.34,86.9
90756,2018-06-29 09:32:08.125000,111.61,86.9
90757,2018-06-29 09:32:08.156250,131.52,86.9
90758,2018-06-29 09:32:08.187500,137.84,86.9
90759,2018-06-29 09:32:08.218750,131.96,86.9
90760,2018-06-29 09:32:08.250000,113.44,86.9
90761,2018-06-29 09:32:08.281250,69.99,86.9
90762,2018-06-29 09:32:08.312500,-8.58,86.9
90763,2018-06-29 09:32:08.343750,-108.94,86.9
90764,2018-06-29 09:32:08.375000,-197.81,86.9
90765,2018-06-29 09:32:08.406250,-247.62,86.9
90766,2018-06-29 09:32:08.437500,-259.28,86.9
90767,2018-06-29 09:32:08.468750,-257.76,86.9
90768,2018-06-29 09:32:08.500000,-259.94,86.9
90769,2018-06-29 09:32:08.531250,-255.75,87.43
90770,2018-06-29 09:32:08.562500,-228.1,87.43
90771,2018-06-29 09:32:08.593750,-175.77,87.43
90772,2018-06-29 09:32:08.625000,-109.79,87.43
90773,2018-06-29 09:32:08.656250,-42.13,87.43
90774,2018-06-29 09:32:08.687500,16.17,87.43
90775,2018-06-29 09:32:08.718750,57.04,87.43
90776,2018-06-29 09:32:08.750000,82.14,87.43
90777,2018-06-29 09:32:08.781250,102.29,87.43
90778,2018-06-29 09:32:08.812500,124.14,87.43
90779,2018-06-29 09:32:08.843750,143.08,87.43
90780,2018-06-29 09:32:08.875000,155.48,87.43
90781,2018-06-29 09:32:08.906250,166.37,87.43
90782,2018-06-29 09:32:08.937500,174.39,87.43
90783,2018-06-29 09:32:08.968750,163.24,87.43
90784,2018-06-29 09:32:09.000000,122.71,87.43
90785,2018-06-29 09:32:09.031250,67.19,87.43
90786,2018-06-29 09:32:09.062500,22.17,87.43
90787,2018-06-29 09:32:09.093750,1.45,87.43
90788,2018-06-29 09:32:09.125000,3.5,87.43
90789,2018-06-29 09:32:09.156250,19.51,87.43
90790,2018-06-29 09:32:09.187500,41.35,87.43
90791,2018-06-29 09:32:09.218750,69.12,87.43
90792,2018-06-29 09:32:09.250000,106.7,87.43
90793,2018-06-29 09:32:09.281250,143.65,87.43
90794,2018-06-29 09:32:09.312500,153.17,87.43
90795,2018-06-29 09:32:09.343750,121.89,87.43
90796,2018-06-29 09:32:09.375000,70.76,87.43
90797,2018-06-29 09:32:09.406250,29.73,87.43
90798,2018-06-29 09:32:09.437500,2.13,87.43
90799,2018-06-29 09:32:09.468750,-26.19,87.43
90800,2018-06-29 09:32:09.500000,-56.17,87.43
90801,2018-06-29 09:32:09.531250,-82.04,88.02
90802,2018-06-29 09:32:09.562500,-112.61,88.02
90803,2018-06-29 09:32:09.593750,-155.83,88.02
90804,2018-06-29 09:32:09.625000,-194.99,88.02
90805,2018-06-29 09:32:09.656250,-207.83,88.02
90806,2018-06-29 09:32:09.687500,-194.7,88.02
90807,2018-06-29 09:32:09.718750,-170.72,88.02
90808,2018-06-29 09:32:09.750000,-141.75,88.02
90809,2018-06-29 09:32:09.781250,-103.74,88.02
90810,2018-06-29 09:32:09.812500,-58.53,88.02
90811,2018-06-29 09:32:09.843750,-18.01,88.02
90812,2018-06-29 09:32:09.875000,3.13,88.02
90813,2018-06-29 09:32:09.906250,3.57,88.02
90814,2018-06-29 09:32:09.937500,2.98,88.02
90815,2018-06-29 09:32:09.968750,26.55,88.02
90816,2018-06-29 09:32:10.000000,67.61,88.02
90817,2018-06-29 09:32:10.031250,87.63,88.02
90818,2018-06-29 09:32:10.062500,60.15,88.02
90819,2018-06-29 09:32:10.093750,-4.84,88.02
90820,2018-06-29 09:32:10.125000,-54.35,88.02
90821,2018-06-29 09:32:10.156250,-39.71,88.02
90822,2018-06-29 09:32:10.187500,23.4,88.02
90823,2018-06-29 09:32:10.218750,90.9,88.02
90824,2018-06-29 09:32:10.250000,143.32,88.02
90825,2018-06-29 09:32:10.281250,185.62,88.02
90826,2018-06-29 09:32:10.312500,219.05,88.02
90827,2018-06-29 09:32:10.343750,240.86,88.02
90828,2018-06-29 09:32:10.375000,235.79,88.02
90829,2018-06-29 09:32:10.406250,189.26,88.02
90830,2018-06-29 09:32:10.437500,103.17,88.02
90831,2018-06-29 09:32:10.468750,4.32,88.02
90832,2018-06-29 09:32:10.500000,-75.23,88.02
90833,2018-06-29 09:32:10.531250,-120.82,88.65
90834,2018-06-29 09:32:10.562500,-140.43,88.65
90835,2018-06-29 09:32:10.593750,-151.08,88.65
90836,2018-06-29 09:32:10.625000,-161.05,88.65
90837,2018-06-29 09:32:10.656250,-161.11,88.65
90838,2018-06-29 09:32:10.687500,-142.0,88.65
90839,2018-06-29 09:32:10.718750,-119.01,88.65
90840,2018-06-29 09:32:10.750000,-116.12,88.65
90841,2018-06-29 09:32:10.781250,-134.74,88.65
90842,2018-06-29 09:32:10.812500,-155.41,88.65
90843,2018-06-29 09:32:10.843750,-164.01,88.65
90844,2018-06-29 09:32:10.875000,-158.97,88.65
90845,2018-06-29 09:32:10.906250,-141.09,88.65
90846,2018-06-29 09:32:10.937500,-110.76,88.65
90847,2018-06-29 09:32:10.968750,-74.81,88.65
90848,2018-06-29 09:32:11.000000,-43.84,88.65
90849,2018-06-29 09:32:11.031250,-20.27,88.65
90850,2018-06-29 09:32:11.062500,-0.62,88.65
90851,2018-06-29 09:32:11.093750,12.61,88.65
90852,2018-06-29 09:32:11.125000,13.45,88.65
90853,2018-06-29 09:32:11.156250,4.57,88.65
90854,2018-06-29 09:32:11.187500,-2.79,88.65
90855,2018-06-29 09:32:11.218750,0.81,88.65
90856,2018-06-29 09:32:11.250000,14.82,88.65
90857,2018-06-29 09:32:11.281250,28.28,88.65
90858,2018-06-29 09:32:11.312500,31.45,88.65
90859,2018-06-29 09:32:11.343750,31.29,88.65
90860,2018-06-29 09:32:11.375000,46.13,88.65
90861,2018-06-29 09:32:11.406250,80.92,88.65
90862,2018-06-29 09:32:11.437500,118.48,88.65
90863,2018-06-29 09:32:11.468750,139.04,88.65
90864,2018-06-29 09:32:11.500000,139.03,88.65
90865,2018-06-29 09:32:11.531250,129.03,89.27
90866,2018-06-29 09:32:11.562500,123.4,89.27
90867,2018-06-29 09:32:11.593750,131.37,89.27
90868,2018-06-29 09:32:11.625000,144.68,89.27
90869,2018-06-29 09:32:11.656250,136.53,89.27
90870,2018-06-29 09:32:11.687500,88.34,89.27
90871,2018-06-29 09:32:11.718750,16.14,89.27
90872,2018-06-29 09:32:11.750000,-45.51,89.27
90873,2018-06-29 09:32:11.781250,-82.9,89.27
90874,2018-06-29 09:32:11.812500,-109.51,89.27
90875,2018-06-29 09:32:11.843750,-137.46,89.27
90876,2018-06-29 09:32:11.875000,-162.7,89.27
90877,2018-06-29 09:32:11.906250,-178.16,89.27
90878,2018-06-29 09:32:11.937500,-183.86,89.27
90879,2018-06-29 09:32:11.968750,-181.17,89.27
90880,2018-06-29 09:32:12.000000,-168.64,89.27
90881,2018-06-29 09:32:12.031250,-144.9,89.27
90882,2018-06-29 09:32:12.062500,-109.36,89.27
90883,2018-06-29 09:32:12.093750,-62.34,89.27
90884,2018-06-29 09:32:12.125000,-8.85,89.27
90885,2018-06-29 09:32:12.156250,40.71,89.27
90886,2018-06-29 09:32:12.187500,76.35,89.27
90887,2018-06-29 09:32:12.218750,94.44,89.27
90888,2018-06-29 09:32:12.250000,98.92,89.27
90889,2018-06-29 09:32:12.281250,98.58,89.27
90890,2018-06-29 09:32:12.312500,100.94,89.27
90891,2018-06-29 09:32:12.343750,105.33,89.27
90892,2018-06-29 09:32:12.375000,103.72,89.27
90893,2018-06-29 09:32:12.406250,92.22,89.27
90894,2018-06-29 09:32:12.437500,79.28,89.27
90895,2018-06-29 09:32:12.468750,78.21,89.27
90896,2018-06-29 09:32:12.500000,92.79,89.27
90897,2018-06-29 09:32:12.531250,114.36,89.83
90898,2018-06-29 09:32:12.562500,132.22,89.83
90899,2018-06-29 09:32:12.593750,143.52,89.83
90900,2018-06-29 09:32:12.625000,150.7,89.83
90901,2018-06-29 09:32:12.656250,150.03,89.83
90902,2018-06-29 09:32:12.687500,128.09,89.83
90903,2018-06-29 09:32:12.718750,76.39,89.83
90904,2018-06-29 09:32:12.750000,9.61,89.83
90905,2018-06-29 09:32:12.781250,-38.27,89.83
90906,2018-06-29 09:32:12.812500,-40.68,89.83
90907,2018-06-29 09:32:12.843750,-2.88,89.83
90908,2018-06-29 09:32:12.875000,40.61,89.83
90909,2018-06-29 09:32:12.906250,51.71,89.83
90910,2018-06-29 09:32:12.937500,15.59,89.83
90911,2018-06-29 09:32:12.968750,-51.68,89.83
90912,2018-06-29 09:32:13.000000,-118.77,89.83
90913,2018-06-29 09:32:13.031250,-163.19,89.83
90914,2018-06-29 09:32:13.062500,-182.26,89.83
90915,2018-06-29 09:32:13.093750,-185.03,89.83
90916,2018-06-29 09:32:13.125000,-178.86,89.83
90917,2018-06-29 09:32:13.156250,-166.92,89.83
90918,2018-06-29 09:32:13.187500,-152.19,89.83
90919,2018-06-29 09:32:13.218750,-137.39,89.83
90920,2018-06-29 09:32:13.250000,-121.63,89.83
90921,2018-06-29 09:32:13.281250,-103.5,89.83
90922,2018-06-29 09:32:13.312500,-87.76,89.83
90923,2018-06-29 09:32:13.343750,-80.84,89.83
90924,2018-06-29 09:32:13.375000,-77.68,89.83
90925,2018-06-29 09:32:13.406250,-61.87,89.83
90926,2018-06-29 09:32:13.437500,-25.18,89.83
90927,2018-06-29 09:32:13.468750,19.48,89.83
90928,2018-06-29 09:32:13.500000,51.12,89.83
90929,2018-06-29 09:32:13.531250,61.34,90.42
90930,2018-06-29 09:32:13.562500,56.41,90.42
90931,2018-06-29 09:32:13.593750,46.04,90.42
90932,2018-06-29 09:32:13.625000,37.14,90.42
90933,2018-06-29 09:32:13.656250,32.92,90.42
90934,2018-06-29 09:32:13.687500,31.81,90.42
90935,2018-06-29 09:32:13.718750,30.32,90.42
90936,2018-06-29 09:32:13.750000,30.16,90.42
90937,2018-06-29 09:32:13.781250,37.1,90.42
90938,2018-06-29 09:32:13.812500,49.28,90.42
90939,2018-06-29 09:32:13.843750,54.42,90.42
90940,2018-06-29 09:32:13.875000,45.04,90.42
90941,2018-06-29 09:32:13.906250,28.75,90.42
90942,2018-06-29 09:32:13.937500,16.48,90.42
90943,2018-06-29 09:32:13.968750,7.48,90.42
90944,2018-06-29 09:32:14.000000,-7.76,90.42
90945,2018-06-29 09:32:14.031250,-33.29,90.42
90946,2018-06-29 09:32:14.062500,-58.47,90.42
90947,2018-06-29 09:32:14.093750,-62.28,90.42
90948,2018-06-29 09:32:14.125000,-31.13,90.42
90949,2018-06-29 09:32:14.156250,25.53,90.42
90950,2018-06-29 09:32:14.187500,83.8,90.42
90951,2018-06-29 09:32:14.218750,127.67,90.42
90952,2018-06-29 09:32:14.250000,155.48,90.42
90953,2018-06-29 09:32:14.281250,167.86,90.42
90954,2018-06-29 09:32:14.312500,162.07,90.42
90955,2018-06-29 09:32:14.343750,140.43,90.42
90956,2018-06-29 09:32:14.375000,117.14,90.42
90957,2018-06-29 09:32:14.406250,108.22,90.42
90958,2018-06-29 09:32:14.437500,112.73,90.42
90959,2018-06-29 09:32:14.468750,112.79,90.42
90960,2018-06-29 09:32:14.500000,94.46,90.42
90961,2018-06-29 09:32:14.531250,58.0,91.03
90962,2018-06-29 09:32:14.562500,9.86,91.03
90963,2018-06-29 09:32:14.593750,-41.23,91.03
90964,2018-06-29 09:32:14.625000,-82.54,91.03
90965,2018-06-29 09:32:14.656250,-104.56,91.03
90966,2018-06-29 09:32:14.687500,-107.48,91.03
90967,2018-06-29 09:32:14.718750,-95.61,91.03
90968,2018-06-29 09:32:14.750000,-70.29,91.03
90969,2018-06-29 09:32:14.781250,-30.96,91.03
90970,2018-06-29 09:32:14.812500,19.55,91.03
90971,2018-06-29 09:32:14.843750,72.22,91.03
90972,2018-06-29 09:32:14.875000,113.89,91.03
90973,2018-06-29 09:32:14.906250,132.32,91.03
90974,2018-06-29 09:32:14.937500,120.53,91.03
90975,2018-06-29 09:32:14.968750,78.15,91.03
90976,2018-06-29 09:32:15.000000,12.42,91.03
90977,2018-06-29 09:32:15.031250,-59.16,91.03
90978,2018-06-29 09:32:15.062500,-114.24,91.03
90979,2018-06-29 09:32:15.093750,-141.48,91.03
90980,2018-06-29 09:32:15.125000,-149.57,91.03
90981,2018-06-29 09:32:15.156250,-153.65,91.03
90982,2018-06-29 09:32:15.187500,-155.47,91.03
90983,2018-06-29 09:32:15.218750,-141.54,91.03
90984,2018-06-29 09:32:15.250000,-104.96,91.03
90985,2018-06-29 09:32:15.281250,-62.59,91.03
90986,2018-06-29 09:32:15.312500,-35.92,91.03
90987,2018-06-29 09:32:15.343750,-24.49,91.03
90988,2018-06-29 09:32:15.375000,-10.68,91.03
90989,2018-06-29 09:32:15.406250,14.41,91.03
90990,2018-06-29 09:32:15.437500,47.26,91.03
90991,2018-06-29 09:32:15.468750,82.8,91.03
90992,2018-06-29 09:32:15.500000,121.5,91.03
90993,2018-06-29 09:32:15.531250,169.98,91.6
90994,2018-06-29 09:32:15.562500,227.45,91.6
90995,2018-06-29 09:32:15.593750,277.16,91.6
90996,2018-06-29 09:32:15.625000,289.57,91.6
90997,2018-06-29 09:32:15.656250,250.91,91.6
90998,2018-06-29 09:32:15.687500,175.85,91.6
90999,2018-06-29 09:32:15.718750,98.95,91.6
91000,2018-06-29 09:32:15.750000,42.34,91.6
91001,2018-06-29 09:32:15.781250,-5.0,91.6
91002,2018-06-29 09:32:15.812500,-61.99,91.6
91003,2018-06-29 09:32:15.843750,-139.01,91.6
91004,2018-06-29 09:32:15.875000,-193.85,91.6
91005,2018-06-29 09:32:15.906250,-184.5,91.6
91006,2018-06-29 09:32:15.937500,-134.59,91.6
91007,2018-06-29 09:32:15.968750,-72.27,91.6
91008,2018-06-29 09:32:16.000000,-14.27,91.6
91009,2018-06-29 09:32:16.031250,25.37,91.6
91010,2018-06-29 09:32:16.062500,48.53,91.6
91011,2018-06-29 09:32:16.093750,74.87,91.6
91012,2018-06-29 09:32:16.125000,109.12,91.6
91013,2018-06-29 09:32:16.156250,133.67,91.6
91014,2018-06-29 09:32:16.187500,133.15,91.6
91015,2018-06-29 09:32:16.218750,119.34,91.6
91016,2018-06-29 09:32:16.250000,108.96,91.6
91017,2018-06-29 09:32:16.281250,100.37,91.6
91018,2018-06-29 09:32:16.312500,81.41,91.6
91019,2018-06-29 09:32:16.343750,45.35,91.6
91020,2018-06-29 09:32:16.375000,-2.19,91.6
91021,2018-06-29 09:32:16.406250,-51.46,91.6
91022,2018-06-29 09:32:16.437500,-94.32,91.6
91023,2018-06-29 09:32:16.468750,-127.88,91.6
91024,2018-06-29 09:32:16.500000,-150.15,91.6
91025,2018-06-29 09:32:16.531250,-157.46,92.22
91026,2018-06-29 09:32:16.562500,-147.35,92.22
91027,2018-06-29 09:32:16.593750,-122.64,92.22
91028,2018-06-29 09:32:16.625000,-93.15,92.22
91029,2018-06-29 09:32:16.656250,-71.15,92.22
91030,2018-06-29 09:32:16.687500,-63.78,92.22
91031,2018-06-29 09:32:16.718750,-70.63,92.22
91032,2018-06-29 09:32:16.750000,-86.58,92.22
91033,2018-06-29 09:32:16.781250,-104.75,92.22
91034,2018-06-29 09:32:16.812500,-122.15,92.22
91035,2018-06-29 09:32:16.843750,-143.05,92.22
91036,2018-06-29 09:32:16.875000,-168.59,92.22
91037,2018-06-29 09:32:16.906250,-184.01,92.22
91038,2018-06-29 09:32:16.937500,-169.18,92.22
91039,2018-06-29 09:32:16.968750,-121.03,92.22
91040,2018-06-29 09:32:17.000000,-53.87,92.22
91041,2018-06-29 09:32:17.031250,18.24,92.22
91042,2018-06-29 09:32:17.062500,87.52,92.22
91043,2018-06-29 09:32:17.093750,143.64,92.22
91044,2018-06-29 09:32:17.125000,171.4,92.22
91045,2018-06-29 09:32:17.156250,159.76,92.22
91046,2018-06-29 09:32:17.187500,111.27,92.22
91047,2018-06-29 09:32:17.218750,43.8,92.22
91048,2018-06-29 09:32:17.250000,-19.88,92.22
91049,2018-06-29 09:32:17.281250,-66.72,92.22
91050,2018-06-29 09:32:17.312500,-96.5,92.22
91051,2018-06-29 09:32:17.343750,-114.6,92.22
91052,2018-06-29 09:32:17.375000,-127.74,92.22
91053,2018-06-29 09:32:17.406250,-141.09,92.22
91054,2018-06-29 09:32:17.437500,-152.75,92.22
91055,2018-06-29 09:32:17.468750,-155.57,92.22
91056,2018-06-29 09:32:17.500000,-147.43,92.22
91057,2018-06-29 09:32:17.531250,-134.83,92.82
91058,2018-06-29 09:32:17.562500,-125.22,92.82
91059,2018-06-29 09:32:17.593750,-118.96,92.82
91060,2018-06-29 09:32:17.625000,-107.41,92.82
91061,2018-06-29 09:32:17.656250,-79.4,92.82
91062,2018-06-29 09:32:17.687500,-32.87,92.82
91063,2018-06-29 09:32:17.718750,20.97,92.82
91064,2018-06-29 09:32:17.750000,66.26,92.82
91065,2018-06-29 09:32:17.781250,92.35,92.82
91066,2018-06-29 09:32:17.812500,96.87,92.82
91067,2018-06-29 09:32:17.843750,85.67,92.82
91068,2018-06-29 09:32:17.875000,69.37,92.82
91069,2018-06-29 09:32:17.906250,56.28,92.82
91070,2018-06-29 09:32:17.937500,48.83,92.82
91071,2018-06-29 09:32:17.968750,46.4,92.82
91072,2018-06-29 09:32:18.000000,48.92,92.82
91073,2018-06-29 09:32:18.031250,57.32,92.82
91074,2018-06-29 09:32:18.062500,70.59,92.82
91075,2018-06-29 09:32:18.093750,83.88,92.82
91076,2018-06-29 09:32:18.125000,92.63,92.82
91077,2018-06-29 09:32:18.156250,98.37,92.82
91078,2018-06-29 09:32:18.187500,106.23,92.82
91079,2018-06-29 09:32:18.218750,115.69,92.82
91080,2018-06-29 09:32:18.250000,115.59,92.82
91081,2018-06-29 09:32:18.281250,89.81,92.82
91082,2018-06-29 09:32:18.312500,34.22,92.82
91083,2018-06-29 09:32:18.343750,-30.14,92.82
91084,2018-06-29 09:32:18.375000,-71.08,92.82
91085,2018-06-29 09:32:18.406250,-78.27,92.82
91086,2018-06-29 09:32:18.437500,-70.56,92.82
91087,2018-06-29 09:32:18.468750,-68.89,92.82
91088,2018-06-29 09:32:18.500000,-76.2,92.82
91089,2018-06-29 09:32:18.531250,-84.4,93.43
91090,2018-06-29 09:32:18.562500,-85.68,93.43
91091,2018-06-29 09:32:18.593750,-75.15,93.43
91092,2018-06-29 09:32:18.625000,-53.58,93.43
91093,2018-06-29 09:32:18.656250,-29.31,93.43
91094,2018-06-29 09:32:18.687500,-11.47,93.43
91095,2018-06-29 09:32:18.718750,-0.81,93.43
91096,2018-06-29 09:32:18.750000,9.07,93.43
91097,2018-06-29 09:32:18.781250,22.47,93.43
91098,2018-06-29 09:32:18.812500,36.15,93.43
91099,2018-06-29 09:32:18.843750,44.3,93.43
91100,2018-06-29 09:32:18.875000,46.9,93.43
91101,2018-06-29 09:32:18.906250,48.93,93.43
91102,2018-06-29 09:32:18.937500,51.65,93.43
91103,2018-06-29 09:32:18.968750,50.84,93.43
91104,2018-06-29 09:32:19.000000,44.5,93.43
91105,2018-06-29 09:32:19.031250,36.07,93.43
91106,2018-06-29 09:32:19.062500,29.82,93.43
91107,2018-06-29 09:32:19.093750,30.44,93.43
91108,2018-06-29 09:32:19.125000,45.73,93.43
91109,2018-06-29 09:32:19.156250,78.84,93.43
91110,2018-06-29 09:32:19.187500,119.21,93.43
91111,2018-06-29 09:32:19.218750,153.29,93.43
91112,2018-06-29 09:32:19.250000,177.65,93.43
91113,2018-06-29 09:32:19.281250,189.12,93.43
91114,2018-06-29 09:32:19.312500,175.05,93.43
91115,2018-06-29 09:32:19.343750,130.51,93.43
91116,2018-06-29 09:32:19.375000,71.07,93.43
91117,2018-06-29 09:32:19.406250,15.24,93.43
91118,2018-06-29 09:32:19.437500,-30.36,93.43
91119,2018-06-29 09:32:19.468750,-65.11,93.43
91120,2018-06-29 09:32:19.500000,-91.48,93.43
91121,2018-06-29 09:32:19.531250,-118.69,94.03
91122,2018-06-29 09:32:19.562500,-154.04,94.03
91123,2018-06-29 09:32:19.593750,-192.42,94.03
91124,2018-06-29 09:32:19.625000,-222.26,94.03
91125,2018-06-29 09:32:19.656250,-234.33,94.03
91126,2018-06-29 09:32:19.687500,-220.79,94.03
91127,2018-06-29 09:32:19.718750,-178.01,94.03
91128,2018-06-29 09:32:19.750000,-115.07,94.03
91129,2018-06-29 09:32:19.781250,-49.99,94.03
91130,2018-06-29 09:32:19.812500,4.68,94.03
91131,2018-06-29 09:32:19.843750,45.74,94.03
91132,2018-06-29 09:32:19.875000,74.61,94.03
91133,2018-06-29 09:32:19.906250,96.24,94.03
91134,2018-06-29 09:32:19.937500,115.98,94.03
91135,2018-06-29 09:32:19.968750,133.75,94.03
91136,2018-06-29 09:32:20.000000,147.42,94.03
91137,2018-06-29 09:32:20.031250,156.66,94.03
91138,2018-06-29 09:32:20.062500,156.19,94.03
91139,2018-06-29 09:32:20.093750,136.5,94.03
91140,2018-06-29 09:32:20.125000,98.01,94.03
91141,2018-06-29 09:32:20.156250,53.11,94.03
91142,2018-06-29 09:32:20.187500,11.57,94.03
91143,2018-06-29 09:32:20.218750,-23.66,94.03
91144,2018-06-29 09:32:20.250000,-48.0,94.03
91145,2018-06-29 09:32:20.281250,-54.13,94.03
91146,2018-06-29 09:32:20.312500,-37.64,94.03
91147,2018-06-29 09:32:20.343750,2.27,94.03
91148,2018-06-29 09:32:20.375000,60.69,94.03
91149,2018-06-29 09:32:20.406250,119.39,94.03
91150,2018-06-29 09:32:20.437500,152.19,94.03
91151,2018-06-29 09:32:20.468750,144.86,94.03
91152,2018-06-29 09:32:20.500000,103.7,94.03
91153,2018-06-29 09:32:20.531250,46.05,94.58
91154,2018-06-29 09:32:20.562500,-10.48,94.58
91155,2018-06-29 09:32:20.593750,-54.59,94.58
91156,2018-06-29 09:32:20.625000,-85.91,94.58
91157,2018-06-29 09:32:20.656250,-110.68,94.58
91158,2018-06-29 09:32:20.687500,-132.34,94.58
91159,2018-06-29 09:32:20.718750,-149.63,94.58
91160,2018-06-29 09:32:20.750000,-160.39,94.58
91161,2018-06-29 09:32:20.781250,-162.48,94.58
91162,2018-06-29 09:32:20.812500,-152.9,94.58
91163,2018-06-29 09:32:20.843750,-131.12,94.58
91164,2018-06-29 09:32:20.875000,-105.02,94.58
91165,2018-06-29 09:32:20.906250,-89.64,94.58
91166,2018-06-29 09:32:20.937500,-95.21,94.58
91167,2018-06-29 09:32:20.968750,-113.35,94.58
91168,2018-06-29 09:32:21.000000,-116.86,94.58
91169,2018-06-29 09:32:21.031250,-81.37,94.58
91170,2018-06-29 09:32:21.062500,-10.99,94.58
91171,2018-06-29 09:32:21.093750,65.59,94.58
91172,2018-06-29 09:32:21.125000,124.12,94.58
91173,2018-06-29 09:32:21.156250,157.53,94.58
91174,2018-06-29 09:32:21.187500,164.4,94.58
91175,2018-06-29 09:32:21.218750,145.26,94.58
91176,2018-06-29 09:32:21.250000,109.53,94.58
91177,2018-06-29 09:32:21.281250,69.97,94.58
91178,2018-06-29 09:32:21.312500,33.84,94.58
91179,2018-06-29 09:32:21.343750,8.84,94.58
91180,2018-06-29 09:32:21.375000,6.82,94.58
91181,2018-06-29 09:32:21.406250,29.96,94.58
91182,2018-06-29 09:32:21.437500,63.12,94.58
91183,2018-06-29 09:32:21.468750,89.96,94.58
91184,2018-06-29 09:32:21.500000,106.64,94.58
91185,2018-06-29 09:32:21.531250,113.12,95.17
91186,2018-06-29 09:32:21.562500,102.03,95.17
91187,2018-06-29 09:32:21.593750,63.39,95.17
91188,2018-06-29 09:32:21.625000,-4.75,95.17
91189,2018-06-29 09:32:21.656250,-88.42,95.17
91190,2018-06-29 09:32:21.687500,-157.55,95.17
91191,2018-06-29 09:32:21.718750,-184.92,95.17
91192,2018-06-29 09:32:21.750000,-171.43,95.17
91193,2018-06-29 09:32:21.781250,-143.27,95.17
91194,2018-06-29 09:32:21.812500,-122.27,95.17
91195,2018-06-29 09:32:21.843750,-109.71,95.17
91196,2018-06-29 09:32:21.875000,-96.97,95.17
91197,2018-06-29 09:32:21.906250,-78.32,95.17
91198,2018-06-29 09:32:21.937500,-52.7,95.17
91199,2018-06-29 09:32:21.968750,-24.38,95.17
91200,2018-06-29 09:32:22.000000,-3.09,95.17
91201,2018-06-29 09:32:22.031250,5.37,95.17
91202,2018-06-29 09:32:22.062500,8.54,95.17
91203,2018-06-29 09:32:22.093750,20.6,95.17
91204,2018-06-29 09:32:22.125000,47.97,95.17
91205,2018-06-29 09:32:22.156250,87.05,95.17
91206,2018-06-29 09:32:22.187500,131.38,95.17
91207,2018-06-29 09:32:22.218750,174.76,95.17
91208,2018-06-29 09:32:22.250000,211.49,95.17
91209,2018-06-29 09:32:22.281250,238.52,95.17
91210,2018-06-29 09:32:22.312500,256.26,95.17
91211,2018-06-29 09:32:22.343750,266.08,95.17
91212,2018-06-29 09:32:22.375000,268.11,95.17
91213,2018-06-29 09:32:22.406250,260.38,95.17
91214,2018-06-29 09:32:22.437500,238.78,95.17
91215,2018-06-29 09:32:22.468750,199.73,95.17
91216,2018-06-29 09:32:22.500000,145.25,95.17
91217,2018-06-29 09:32:22.531250,84.73,95.73
91218,2018-06-29 09:32:22.562500,27.86,95.73
91219,2018-06-29 09:32:22.593750,-22.17,95.73
91220,2018-06-29 09:32:22.625000,-67.14,95.73
91221,2018-06-29 09:32:22.656250,-108.85,95.73
91222,2018-06-29 09:32:22.687500,-143.94,95.73
91223,2018-06-29 09:32:22.718750,-160.98,95.73
91224,2018-06-29 09:32:22.750000,-151.35,95.73
91225,2018-06-29 09:32:22.781250,-126.11,95.73
91226,2018-06-29 09:32:22.812500,-106.39,95.73
91227,2018-06-29 09:32:22.843750,-96.74,95.73
91228,2018-06-29 09:32:22.875000,-86.99,95.73
91229,2018-06-29 09:32:22.906250,-74.57,95.73
91230,2018-06-29 09:32:22.937500,-63.86,95.73
91231,2018-06-29 09:32:22.968750,-52.12,95.73
91232,2018-06-29 09:32:23.000000,-36.49,95.73
91233,2018-06-29 09:32:23.031250,-21.78,95.73
91234,2018-06-29 09:32:23.062500,-7.12,95.73
91235,2018-06-29 09:32:23.093750,16.54,95.73
91236,2018-06-29 09:32:23.125000,46.98,95.73
91237,2018-06-29 09:32:23.156250,68.58,95.73
91238,2018-06-29 09:32:23.187500,73.18,95.73
91239,2018-06-29 09:32:23.218750,66.79,95.73
91240,2018-06-29 09:32:23.250000,58.29,95.73
91241,2018-06-29 09:32:23.281250,56.02,95.73
91242,2018-06-29 09:32:23.312500,67.85,95.73
91243,2018-06-29 09:32:23.343750,92.16,95.73
91244,2018-06-29 09:32:23.375000,115.04,95.73
91245,2018-06-29 09:32:23.406250,125.67,95.73
91246,2018-06-29 09:32:23.437500,125.54,95.73
91247,2018-06-29 09:32:23.468750,114.65,95.73
91248,2018-06-29 09:32:23.500000,79.51,95.73
91249,2018-06-29 09:32:23.531250,8.52,96.27
91250,2018-06-29 09:32:23.562500,-85.21,96.27
91251,2018-06-29 09:32:23.593750,-168.04,96.27
91252,2018-06-29 09:32:23.625000,-215.6,96.27
91253,2018-06-29 09:32:23.656250,-229.57,96.27
91254,2018-06-29 09:32:23.687500,-223.53,96.27
91255,2018-06-29 09:32:23.718750,-205.39,96.27
91256,2018-06-29 09:32:23.750000,-179.2,96.27
91257,2018-06-29 09:32:23.781250,-150.08,96.27
91258,2018-06-29 09:32:23.812500,-117.13,96.27
91259,2018-06-29 09:32:23.843750,-72.12,96.27
91260,2018-06-29 09:32:23.875000,-14.33,96.27
91261,2018-06-29 09:32:23.906250,42.01,96.27
91262,2018-06-29 09:32:23.937500,81.66,96.27
91263,2018-06-29 09:32:23.968750,103.67,96.27
91264,2018-06-29 09:32:24.000000,116.18,96.27
91265,2018-06-29 09:32:24.031250,120.81,96.27
91266,2018-06-29 09:32:24.062500,109.18,96.27
91267,2018-06-29 09:32:24.093750,72.54,96.27
91268,2018-06-29 09:32:24.125000,13.21,96.27
91269,2018-06-29 09:32:24.156250,-50.42,96.27
91270,2018-06-29 09:32:24.187500,-93.17,96.27
91271,2018-06-29 09:32:24.218750,-105.98,96.27
91272,2018-06-29 09:32:24.250000,-106.05,96.27
91273,2018-06-29 09:32:24.281250,-115.35,96.27
91274,2018-06-29 09:32:24.312500,-135.84,96.27
91275,2018-06-29 09:32:24.343750,-154.6,96.27
91276,2018-06-29 09:32:24.375000,-165.0,96.27
91277,2018-06-29 09:32:24.406250,-168.85,96.27
91278,2018-06-29 09:32:24.437500,-161.48,96.27
91279,2018-06-29 09:32:24.468750,-133.51,96.27
91280,2018-06-29 09:32:24.500000,-88.21,96.27
91281,2018-06-29 09:32:24.531250,-42.08,96.82
91282,2018-06-29 09:32:24.562500,-8.14,96.82
91283,2018-06-29 09:32:24.593750,9.69,96.82
91284,2018-06-29 09:32:24.625000,11.55,96.82
91285,2018-06-29 09:32:24.656250,1.51,96.82
91286,2018-06-29 09:32:24.687500,-12.94,96.82
91287,2018-06-29 09:32:24.718750,-27.07,96.82
91288,2018-06-29 09:32:24.750000,-41.01,96.82
91289,2018-06-29 09:32:24.781250,-51.91,96.82
91290,2018-06-29 09:32:24.812500,-48.5,96.82
91291,2018-06-29 09:32:24.843750,-21.64,96.82
91292,2018-06-29 09:32:24.875000,21.34,96.82
91293,2018-06-29 09:32:24.906250,59.67,96.82
91294,2018-06-29 09:32:24.937500,78.63,96.82
91295,2018-06-29 09:32:24.968750,83.23,96.82
91296,2018-06-29 09:32:25.000000,87.66,96.82
91297,2018-06-29 09:32:25.031250,93.25,96.82
91298,2018-06-29 09:32:25.062500,87.76,96.82
91299,2018-06-29 09:32:25.093750,64.89,96.82
91300,2018-06-29 09:32:25.125000,32.17,96.82
91301,2018-06-29 09:32:25.156250,3.76,96.82
91302,2018-06-29 09:32:25.187500,-7.22,96.82
91303,2018-06-29 09:32:25.218750,0.9,96.82
91304,2018-06-29 09:32:25.250000,12.97,96.82
91305,2018-06-29 09:32:25.281250,11.97,96.82
91306,2018-06-29 09:32:25.312500,-2.63,96.82
91307,2018-06-29 09:32:25.343750,-19.14,96.82
91308,2018-06-29 09:32:25.375000,-30.0,96.82
91309,2018-06-29 09:32:25.406250,-36.2,96.82
91310,2018-06-29 09:32:25.437500,-38.62,96.82
91311,2018-06-29 09:32:25.468750,-32.84,96.82
91312,2018-06-29 09:32:25.500000,-15.14,96.82
91313,2018-06-29 09:32:25.531250,8.07,97.35
91314,2018-06-29 09:32:25.562500,23.9,97.35
91315,2018-06-29 09:32:25.593750,30.53,97.35
91316,2018-06-29 09:32:25.625000,39.85,97.35
91317,2018-06-29 09:32:25.656250,56.1,97.35
91318,2018-06-29 09:32:25.687500,66.92,97.35
91319,2018-06-29 09:32:25.718750,62.56,97.35
91320,2018-06-29 09:32:25.750000,46.68,97.35
91321,2018-06-29 09:32:25.781250,22.27,97.35
91322,2018-06-29 09:32:25.812500,-15.36,97.35
91323,2018-06-29 09:32:25.843750,-65.76,97.35
91324,2018-06-29 09:32:25.875000,-113.29,97.35
91325,2018-06-29 09:32:25.906250,-136.54,97.35
91326,2018-06-29 09:32:25.937500,-125.77,97.35
91327,2018-06-29 09:32:25.968750,-86.88,97.35
91328,2018-06-29 09:32:26.000000,-34.22,97.35
91329,2018-06-29 09:32:26.031250,13.38,97.35
91330,2018-06-29 09:32:26.062500,40.07,97.35
91331,2018-06-29 09:32:26.093750,47.63,97.35
91332,2018-06-29 09:32:26.125000,52.56,97.35
91333,2018-06-29 09:32:26.156250,62.07,97.35
91334,2018-06-29 09:32:26.187500,67.86,97.35
91335,2018-06-29 09:32:26.218750,64.54,97.35
91336,2018-06-29 09:32:26.250000,56.11,97.35
91337,2018-06-29 09:32:26.281250,46.25,97.35
91338,2018-06-29 09:32:26.312500,35.23,97.35
91339,2018-06-29 09:32:26.343750,19.67,97.35
91340,2018-06-29 09:32:26.375000,-8.47,97.35
91341,2018-06-29 09:32:26.406250,-52.82,97.35
91342,2018-06-29 09:32:26.437500,-102.0,97.35
91343,2018-06-29 09:32:26.468750,-138.45,97.35
91344,2018-06-29 09:32:26.500000,-155.97,97.35
91345,2018-06-29 09:32:26.531250,-160.67,97.98
91346,2018-06-29 09:32:26.562500,-157.26,97.98
91347,2018-06-29 09:32:26.593750,-139.69,97.98
91348,2018-06-29 09:32:26.625000,-98.24,97.98
91349,2018-06-29 09:32:26.656250,-36.36,97.98
91350,2018-06-29 09:32:26.687500,24.78,97.98
91351,2018-06-29 09:32:26.718750,63.71,97.98
91352,2018-06-29 09:32:26.750000,76.07,97.98
91353,2018-06-29 09:32:26.781250,70.66,97.98
91354,2018-06-29 09:32:26.812500,56.76,97.98
91355,2018-06-29 09:32:26.843750,41.48,97.98
91356,2018-06-29 09:32:26.875000,31.43,97.98
91357,2018-06-29 09:32:26.906250,30.02,97.98
91358,2018-06-29 09:32:26.937500,33.87,97.98
91359,2018-06-29 09:32:26.968750,37.32,97.98
91360,2018-06-29 09:32:27.000000,40.6,97.98
91361,2018-06-29 09:32:27.031250,48.56,97.98
91362,2018-06-29 09:32:27.062500,61.39,97.98
91363,2018-06-29 09:32:27.093750,72.06,97.98
91364,2018-06-29 09:32:27.125000,72.67,97.98
91365,2018-06-29 09:32:27.156250,60.97,97.98
91366,2018-06-29 09:32:27.187500,43.53,97.98
91367,2018-06-29 09:32:27.218750,30.76,97.98
91368,2018-06-29 09:32:27.250000,23.47,97.98
91369,2018-06-29 09:32:27.281250,9.74,97.98
91370,2018-06-29 09:32:27.312500,-19.91,97.98
91371,2018-06-29 09:32:27.343750,-60.21,97.98
91372,2018-06-29 09:32:27.375000,-95.81,97.98
91373,2018-06-29 09:32:27.406250,-113.21,97.98
91374,2018-06-29 09:32:27.437500,-108.16,97.98
91375,2018-06-29 09:32:27.468750,-86.05,97.98
91376,2018-06-29 09:32:27.500000,-57.24,97.98
91377,2018-06-29 09:32:27.531250,-31.83,98.55
91378,2018-06-29 09:32:27.562500,-14.86,98.55
91379,2018-06-29 09:32:27.593750,-2.77,98.55
91380,2018-06-29 09:32:27.625000,11.99,98.55
91381,2018-06-29 09:32:27.656250,29.12,98.55
91382,2018-06-29 09:32:27.687500,38.63,98.55
91383,2018-06-29 09:32:27.718750,34.49,98.55
91384,2018-06-29 09:32:27.750000,23.84,98.55
91385,2018-06-29 09:32:27.781250,18.92,98.55
91386,2018-06-29 09:32:27.812500,24.66,98.55
91387,2018-06-29 09:32:27.843750,36.36,98.55
91388,2018-06-29 09:32:27.875000,45.18,98.55
91389,2018-06-29 09:32:27.906250,44.07,98.55
91390,2018-06-29 09:32:27.937500,31.61,98.55
91391,2018-06-29 09:32:27.968750,11.6,98.55
91392,2018-06-29 09:32:28.000000,-8.52,98.55
91393,2018-06-29 09:32:28.031250,-17.05,98.55
91394,2018-06-29 09:32:28.062500,-3.2,98.55
91395,2018-06-29 09:32:28.093750,31.35,98.55
91396,2018-06-29 09:32:28.125000,72.77,98.55
91397,2018-06-29 09:32:28.156250,111.18,98.55
91398,2018-06-29 09:32:28.187500,147.09,98.55
91399,2018-06-29 09:32:28.218750,179.66,98.55
91400,2018-06-29 09:32:28.250000,200.3,98.55
91401,2018-06-29 09:32:28.281250,199.84,98.55
91402,2018-06-29 09:32:28.312500,173.97,98.55
91403,2018-06-29 09:32:28.343750,125.19,98.55
91404,2018-06-29 09:32:28.375000,65.38,98.55
91405,2018-06-29 09:32:28.406250,11.43,98.55
91406,2018-06-29 09:32:28.437500,-27.58,98.55
91407,2018-06-29 09:32:28.468750,-56.56,98.55
91408,2018-06-29 09:32:28.500000,-86.39,98.55
91409,2018-06-29 09:32:28.531250,-122.1,99.12
91410,2018-06-29 09:32:28.562500,-158.2,99.12
91411,2018-06-29 09:32:28.593750,-183.62,99.12
91412,2018-06-29 09:32:28.625000,-191.7,99.12
91413,2018-06-29 09:32:28.656250,-185.73,99.12
91414,2018-06-29 09:32:28.687500,-173.5,99.12
91415,2018-06-29 09:32:28.718750,-156.92,99.12
91416,2018-06-29 09:32:28.750000,-132.16,99.12
91417,2018-06-29 09:32:28.781250,-99.95,99.12
91418,2018-06-29 09:32:28.812500,-67.37,99.12
91419,2018-06-29 09:32:28.843750,-38.05,99.12
91420,2018-06-29 09:32:28.875000,-9.59,99.12
91421,2018-06-29 09:32:28.906250,19.66,99.12
91422,2018-06-29 09:32:28.937500,47.0,99.12
91423,2018-06-29 09:32:28.968750,67.51,99.12
91424,2018-06-29 09:32:29.000000,77.76,99.12
91425,2018-06-29 09:32:29.031250,78.74,99.12
91426,2018-06-29 09:32:29.062500,74.58,99.12
91427,2018-06-29 09:32:29.093750,69.27,99.12
91428,2018-06-29 09:32:29.125000,66.69,99.12
91429,2018-06-29 09:32:29.156250,69.88,99.12
91430,2018-06-29 09:32:29.187500,79.04,99.12
91431,2018-06-29 09:32:29.218750,92.97,99.12
91432,2018-06-29 09:32:29.250000,108.73,99.12
91433,2018-06-29 09:32:29.281250,117.31,99.12
91434,2018-06-29 09:32:29.312500,106.78,99.12
91435,2018-06-29 09:32:29.343750,74.32,99.12
91436,2018-06-29 09:32:29.375000,33.12,99.12
91437,2018-06-29 09:32:29.406250,9.23,99.12
91438,2018-06-29 09:32:29.437500,23.72,99.12
91439,2018-06-29 09:32:29.468750,64.55,99.12
91440,2018-06-29 09:32:29.500000,88.14,99.12
91441,2018-06-29 09:32:29.531250,64.27,99.75
91442,2018-06-29 09:32:29.562500,3.06,99.75
91443,2018-06-29 09:32:29.593750,-66.83,99.75
91444,2018-06-29 09:32:29.625000,-121.96,99.75
91445,2018-06-29 09:32:29.656250,-148.84,99.75
91446,2018-06-29 09:32:29.687500,-150.3,99.75
91447,2018-06-29 09:32:29.718750,-143.21,99.75
91448,2018-06-29 09:32:29.750000,-138.11,99.75
91449,2018-06-29 09:32:29.781250,-130.42,99.75
91450,2018-06-29 09:32:29.812500,-113.48,99.75
91451,2018-06-29 09:32:29.843750,-89.36,99.75
91452,2018-06-29 09:32:29.875000,-66.8,99.75
91453,2018-06-29 09:32:29.906250,-54.2,99.75
91454,2018-06-29 09:32:29.937500,-51.45,99.75
91455,2018-06-29 09:32:29.968750,-48.43,99.75
91456,2018-06-29 09:32:30.000000,-37.9,99.75
91457,2018-06-29 09:32:30.031250,-26.35,99.75
91458,2018-06-29 09:32:30.062500,-20.6,99.75
91459,2018-06-29 09:32:30.093750,-11.21,99.75
91460,2018-06-29 09:32:30.125000,13.56,99.75
91461,2018-06-29 09:32:30.156250,45.73,99.75
91462,2018-06-29 09:32:30.187500,67.15,99.75
91463,2018-06-29 09:32:30.218750,72.95,99.75
91464,2018-06-29 09:32:30.250000,71.45,99.75
91465,2018-06-29 09:32:30.281250,71.51,99.75
91466,2018-06-29 09:32:30.312500,79.61,99.75
91467,2018-06-29 09:32:30.343750,98.55,99.75
91468,2018-06-29 09:32:30.375000,123.46,99.75
91469,2018-06-29 09:32:30.406250,147.12,99.75
91470,2018-06-29 09:32:30.437500,165.75,99.75
91471,2018-06-29 09:32:30.468750,175.17,99.75
91472,2018-06-29 09:32:30.500000,171.61,99.75
91473,2018-06-29 09:32:30.531250,154.77,100.43
91474,2018-06-29 09:32:30.562500,119.76,100.43
91475,2018-06-29 09:32:30.593750,57.4,100.43
91476,2018-06-29 09:32:30.625000,-26.81,100.43
91477,2018-06-29 09:32:30.656250,-109.16,100.43
91478,2018-06-29 09:32:30.687500,-170.96,100.43
91479,2018-06-29 09:32:30.718750,-210.12,100.43
91480,2018-06-29 09:32:30.750000,-229.83,100.43
91481,2018-06-29 09:32:30.781250,-229.67,100.43
91482,2018-06-29 09:32:30.812500,-208.09,100.43
91483,2018-06-29 09:32:30.843750,-168.42,100.43
91484,2018-06-29 09:32:30.875000,-120.2,100.43
91485,2018-06-29 09:32:30.906250,-73.3,100.43
91486,2018-06-29 09:32:30.937500,-31.77,100.43
91487,2018-06-29 09:32:30.968750,4.01,100.43
91488,2018-06-29 09:32:31.000000,33.04,100.43
91489,2018-06-29 09:32:31.031250,55.79,100.43
91490,2018-06-29 09:32:31.062500,76.68,100.43
91491,2018-06-29 09:32:31.093750,98.49,100.43
91492,2018-06-29 09:32:31.125000,117.64,100.43
91493,2018-06-29 09:32:31.156250,130.23,100.43
91494,2018-06-29 09:32:31.187500,138.22,100.43
91495,2018-06-29 09:32:31.218750,142.43,100.43
91496,2018-06-29 09:32:31.250000,135.31,100.43
91497,2018-06-29 09:32:31.281250,109.35,100.43
91498,2018-06-29 09:32:31.312500,69.08,100.43
91499,2018-06-29 09:32:31.343750,27.49,100.43
91500,2018-06-29 09:32:31.375000,-6.17,100.43
91501,2018-06-29 09:32:31.406250,-29.3,100.43
91502,2018-06-29 09:32:31.437500,-39.73,100.43
91503,2018-06-29 09:32:31.468750,-32.58,100.43
91504,2018-06-29 09:32:31.500000,-3.38,100.43
91505,2018-06-29 09:32:31.531250,46.35,101.13
91506,2018-06-29 09:32:31.562500,103.47,101.13
91507,2018-06-29 09:32:31.593750,143.84,101.13
91508,2018-06-29 09:32:31.625000,149.19,101.13
91509,2018-06-29 09:32:31.656250,123.95,101.13
91510,2018-06-29 09:32:31.687500,83.62,101.13
91511,2018-06-29 09:32:31.718750,33.23,101.13
91512,2018-06-29 09:32:31.750000,-26.84,101.13
91513,2018-06-29 09:32:31.781250,-85.7,101.13
91514,2018-06-29 09:32:31.812500,-130.65,101.13
91515,2018-06-29 09:32:31.843750,-158.04,101.13
91516,2018-06-29 09:32:31.875000,-167.25,101.13
91517,2018-06-29 09:32:31.906250,-159.61,101.13
91518,2018-06-29 09:32:31.937500,-143.87,101.13
91519,2018-06-29 09:32:31.968750,-128.98,101.13
91520,2018-06-29 09:32:32.000000,-114.25,101.13
91521,2018-06-29 09:32:32.031250,-94.36,101.13
91522,2018-06-29 09:32:32.062500,-68.1,101.13
91523,2018-06-29 09:32:32.093750,-39.48,101.13
91524,2018-06-29 09:32:32.125000,-15.19,101.13
91525,2018-06-29 09:32:32.156250,0.64,101.13
91526,2018-06-29 09:32:32.187500,13.35,101.13
91527,2018-06-29 09:32:32.218750,36.2,101.13
91528,2018-06-29 09:32:32.250000,75.57,101.13
91529,2018-06-29 09:32:32.281250,121.13,101.13
91530,2018-06-29 09:32:32.312500,156.14,101.13
91531,2018-06-29 09:32:32.343750,171.09,101.13
91532,2018-06-29 09:32:32.375000,163.08,101.13
91533,2018-06-29 09:32:32.406250,132.12,101.13
91534,2018-06-29 09:32:32.437500,85.32,101.13
91535,2018-06-29 09:32:32.468750,36.27,101.13
91536,2018-06-29 09:32:32.500000,-3.13,101.13
91537,2018-06-29 09:32:32.531250,-24.3,101.8
91538,2018-06-29 09:32:32.562500,-20.36,101.8
91539,2018-06-29 09:32:32.593750,6.42,101.8
91540,2018-06-29 09:32:32.625000,40.99,101.8
91541,2018-06-29 09:32:32.656250,68.14,101.8
91542,2018-06-29 09:32:32.687500,84.11,101.8
91543,2018-06-29 09:32:32.718750,92.25,101.8
91544,2018-06-29 09:32:32.750000,91.87,101.8
91545,2018-06-29 09:32:32.781250,72.92,101.8
91546,2018-06-29 09:32:32.812500,23.14,101.8
91547,2018-06-29 09:32:32.843750,-54.78,101.8
91548,2018-06-29 09:32:32.875000,-135.65,101.8
91549,2018-06-29 09:32:32.906250,-187.34,101.8
91550,2018-06-29 09:32:32.937500,-195.83,101.8
91551,2018-06-29 09:32:32.968750,-173.97,101.8
91552,2018-06-29 09:32:33.000000,-146.23,101.8
91553,2018-06-29 09:32:33.031250,-126.82,101.8
91554,2018-06-29 09:32:33.062500,-114.3,101.8
91555,2018-06-29 09:32:33.093750,-101.43,101.8
91556,2018-06-29 09:32:33.125000,-82.7,101.8
91557,2018-06-29 09:32:33.156250,-56.51,101.8
91558,2018-06-29 09:32:33.187500,-25.63,101.8
91559,2018-06-29 09:32:33.218750,4.25,101.8
91560,2018-06-29 09:32:33.250000,26.07,101.8
91561,2018-06-29 09:32:33.281250,34.94,101.8
91562,2018-06-29 09:32:33.312500,36.29,101.8
91563,2018-06-29 09:32:33.343750,42.76,101.8
91564,2018-06-29 09:32:33.375000,57.38,101.8
91565,2018-06-29 09:32:33.406250,71.36,101.8
91566,2018-06-29 09:32:33.437500,79.44,101.8
91567,2018-06-29 09:32:33.468750,80.35,101.8
91568,2018-06-29 09:32:33.500000,67.5,101.8
91569,2018-06-29 09:32:33.531250,39.08,102.5
91570,2018-06-29 09:32:33.562500,9.2,102.5
91571,2018-06-29 09:32:33.593750,-6.74,102.5
91572,2018-06-29 09:32:33.625000,-7.2,102.5
91573,2018-06-29 09:32:33.656250,3.9,102.5
91574,2018-06-29 09:32:33.687500,25.88,102.5
91575,2018-06-29 09:32:33.718750,56.5,102.5
91576,2018-06-29 09:32:33.750000,89.91,102.5
91577,2018-06-29 09:32:33.781250,120.72,102.5
91578,2018-06-29 09:32:33.812500,144.2,102.5
91579,2018-06-29 09:32:33.843750,153.67,102.5
91580,2018-06-29 09:32:33.875000,141.26,102.5
91581,2018-06-29 09:32:33.906250,101.71,102.5
91582,2018-06-29 09:32:33.937500,36.91,102.5
91583,2018-06-29 09:32:33.968750,-42.08,102.5
91584,2018-06-29 09:32:34.000000,-117.8,102.5
91585,2018-06-29 09:32:34.031250,-172.82,102.5
91586,2018-06-29 09:32:34.062500,-198.72,102.5
91587,2018-06-29 09:32:34.093750,-202.32,102.5
91588,2018-06-29 09:32:34.125000,-199.9,102.5
91589,2018-06-29 09:32:34.156250,-201.31,102.5
91590,2018-06-29 09:32:34.187500,-199.52,102.5
91591,2018-06-29 09:32:34.218750,-178.91,102.5
91592,2018-06-29 09:32:34.250000,-133.37,102.5
91593,2018-06-29 09:32:34.281250,-72.79,102.5
91594,2018-06-29 09:32:34.312500,-11.36,102.5
91595,2018-06-29 09:32:34.343750,42.44,102.5
91596,2018-06-29 09:32:34.375000,84.9,102.5
91597,2018-06-29 09:32:34.406250,115.16,102.5
91598,2018-06-29 09:32:34.437500,135.57,102.5
91599,2018-06-29 09:32:34.468750,149.08,102.5
91600,2018-06-29 09:32:34.500000,157.3,102.5
91601,2018-06-29 09:32:34.531250,161.28,102.82
91602,2018-06-29 09:32:34.562500,158.88,102.82
91603,2018-06-29 09:32:34.593750,143.24,102.82
91604,2018-06-29 09:32:34.625000,109.62,102.82
91605,2018-06-29 09:32:34.656250,62.13,102.82
91606,2018-06-29 09:32:34.687500,12.31,102.82
91607,2018-06-29 09:32:34.718750,-24.97,102.82
91608,2018-06-29 09:32:34.750000,-35.6,102.82
91609,2018-06-29 09:32:34.781250,-17.27,102.82
91610,2018-06-29 09:32:34.812500,13.87,102.82
91611,2018-06-29 09:32:34.843750,38.95,102.82
91612,2018-06-29 09:32:34.875000,58.29,102.82
91613,2018-06-29 09:32:34.906250,84.74,102.82
91614,2018-06-29 09:32:34.937500,116.29,102.82
91615,2018-06-29 09:32:34.968750,130.44,102.82
91616,2018-06-29 09:32:35.000000,107.39,102.82
91617,2018-06-29 09:32:35.031250,48.63,102.82
91618,2018-06-29 09:32:35.062500,-24.7,102.82
91619,2018-06-29 09:32:35.093750,-85.59,102.82
91620,2018-06-29 09:32:35.125000,-119.29,102.82
91621,2018-06-29 09:32:35.156250,-131.17,102.82
91622,2018-06-29 09:32:35.187500,-134.25,102.82
91623,2018-06-29 09:32:35.218750,-134.09,102.82
91624,2018-06-29 09:32:35.250000,-129.48,102.82
91625,2018-06-29 09:32:35.281250,-120.23,102.82
91626,2018-06-29 09:32:35.312500,-108.72,102.82
91627,2018-06-29 09:32:35.343750,-97.81,102.82
91628,2018-06-29 09:32:35.375000,-90.04,102.82
91629,2018-06-29 09:32:35.406250,-86.21,102.82
91630,2018-06-29 09:32:35.437500,-82.58,102.82
91631,2018-06-29 09:32:35.468750,-72.71,102.82
91632,2018-06-29 09:32:35.500000,-55.47,102.82
91633,2018-06-29 09:32:35.531250,-38.19,103.13
91634,2018-06-29 09:32:35.562500,-27.96,103.13
91635,2018-06-29 09:32:35.593750,-21.3,103.13
91636,2018-06-29 09:32:35.625000,-6.81,103.13
91637,2018-06-29 09:32:35.656250,20.62,103.13
91638,2018-06-29 09:32:35.687500,50.14,103.13
91639,2018-06-29 09:32:35.718750,64.11,103.13
91640,2018-06-29 09:32:35.750000,56.97,103.13
91641,2018-06-29 09:32:35.781250,39.58,103.13
91642,2018-06-29 09:32:35.812500,26.72,103.13
91643,2018-06-29 09:32:35.843750,26.5,103.13
91644,2018-06-29 09:32:35.875000,38.45,103.13
91645,2018-06-29 09:32:35.906250,56.71,103.13
91646,2018-06-29 09:32:35.937500,76.81,103.13
91647,2018-06-29 09:32:35.968750,97.92,103.13
91648,2018-06-29 09:32:36.000000,116.1,103.13
91649,2018-06-29 09:32:36.031250,123.37,103.13
91650,2018-06-29 09:32:36.062500,117.95,103.13
91651,2018-06-29 09:32:36.093750,104.68,103.13
91652,2018-06-29 09:32:36.125000,81.59,103.13
91653,2018-06-29 09:32:36.156250,39.54,103.13
91654,2018-06-29 09:32:36.187500,-21.14,103.13
91655,2018-06-29 09:32:36.218750,-85.02,103.13
91656,2018-06-29 09:32:36.250000,-135.38,103.13
91657,2018-06-29 09:32:36.281250,-164.86,103.13
91658,2018-06-29 09:32:36.312500,-172.24,103.13
91659,2018-06-29 09:32:36.343750,-158.94,103.13
91660,2018-06-29 09:32:36.375000,-132.44,103.13
91661,2018-06-29 09:32:36.406250,-103.49,103.13
91662,2018-06-29 09:32:36.437500,-75.81,103.13
91663,2018-06-29 09:32:36.468750,-46.06,103.13
91664,2018-06-29 09:32:36.500000,-15.36,103.13
91665,2018-06-29 09:32:36.531250,9.62,103.4
91666,2018-06-29 09:32:36.562500,27.53,103.4
91667,2018-06-29 09:32:36.593750,44.39,103.4
91668,2018-06-29 09:32:36.625000,64.49,103.4
91669,2018-06-29 09:32:36.656250,85.57,103.4
91670,2018-06-29 09:32:36.687500,103.27,103.4
91671,2018-06-29 09:32:36.718750,116.91,103.4
91672,2018-06-29 09:32:36.750000,129.41,103.4
91673,2018-06-29 09:32:36.781250,142.43,103.4
91674,2018-06-29 09:32:36.812500,151.36,103.4
91675,2018-06-29 09:32:36.843750,145.77,103.4
91676,2018-06-29 09:32:36.875000,120.08,103.4
91677,2018-06-29 09:32:36.906250,82.5,103.4
91678,2018-06-29 09:32:36.937500,46.67,103.4
91679,2018-06-29 09:32:36.968750,18.13,103.4
91680,2018-06-29 09:32:37.000000,-0.57,103.4
91681,2018-06-29 09:32:37.031250,-0.45,103.4
91682,2018-06-29 09:32:37.062500,21.79,103.4
91683,2018-06-29 09:32:37.093750,50.9,103.4
91684,2018-06-29 09:32:37.125000,64.15,103.4
91685,2018-06-29 09:32:37.156250,47.45,103.4
91686,2018-06-29 09:32:37.187500,-0.42,103.4
91687,2018-06-29 09:32:37.218750,-63.66,103.4
91688,2018-06-29 09:32:37.250000,-112.52,103.4
91689,2018-06-29 09:32:37.281250,-127.98,103.4
91690,2018-06-29 09:32:37.312500,-118.13,103.4
91691,2018-06-29 09:32:37.343750,-103.37,103.4
91692,2018-06-29 09:32:37.375000,-96.71,103.4
91693,2018-06-29 09:32:37.406250,-100.19,103.4
91694,2018-06-29 09:32:37.437500,-108.05,103.4
91695,2018-06-29 09:32:37.468750,-111.96,103.4
91696,2018-06-29 09:32:37.500000,-109.28,103.4
91697,2018-06-29 09:32:37.531250,-104.53,103.65
91698,2018-06-29 09:32:37.562500,-101.15,103.65
91699,2018-06-29 09:32:37.593750,-96.6,103.65
91700,2018-06-29 09:32:37.625000,-86.71,103.65
91701,2018-06-29 09:32:37.656250,-71.41,103.65
91702,2018-06-29 09:32:37.687500,-54.62,103.65
91703,2018-06-29 09:32:37.718750,-39.92,103.65
91704,2018-06-29 09:32:37.750000,-25.61,103.65
91705,2018-06-29 09:32:37.781250,-4.96,103.65
91706,2018-06-29 09:32:37.812500,25.0,103.65
91707,2018-06-29 09:32:37.843750,57.26,103.65
91708,2018-06-29 09:32:37.875000,82.45,103.65
91709,2018-06-29 09:32:37.906250,98.96,103.65
91710,2018-06-29 09:32:37.937500,111.29,103.65
91711,2018-06-29 09:32:37.968750,120.61,103.65
91712,2018-06-29 09:32:38.000000,121.52,103.65
91713,2018-06-29 09:32:38.031250,108.64,103.65
91714,2018-06-29 09:32:38.062500,84.27,103.65
91715,2018-06-29 09:32:38.093750,58.47,103.65
91716,2018-06-29 09:32:38.125000,44.21,103.65
91717,2018-06-29 09:32:38.156250,50.71,103.65
91718,2018-06-29 09:32:38.187500,73.78,103.65
91719,2018-06-29 09:32:38.218750,96.8,103.65
91720,2018-06-29 09:32:38.250000,106.85,103.65
91721,2018-06-29 09:32:38.281250,101.51,103.65
91722,2018-06-29 09:32:38.312500,78.64,103.65
91723,2018-06-29 09:32:38.343750,34.68,103.65
91724,2018-06-29 09:32:38.375000,-23.94,103.65
91725,2018-06-29 09:32:38.406250,-80.61,103.65
91726,2018-06-29 09:32:38.437500,-118.38,103.65
91727,2018-06-29 09:32:38.468750,-125.34,103.65
91728,2018-06-29 09:32:38.500000,-99.76,103.65
91729,2018-06-29 09:32:38.531250,-54.71,103.88
91730,2018-06-29 09:32:38.562500,-10.77,103.88
91731,2018-06-29 09:32:38.593750,16.9,103.88
91732,2018-06-29 09:32:38.625000,23.6,103.88
91733,2018-06-29 09:32:38.656250,14.71,103.88
91734,2018-06-29 09:32:38.687500,5.59,103.88
91735,2018-06-29 09:32:38.718750,14.12,103.88
91736,2018-06-29 09:32:38.750000,43.94,103.88
91737,2018-06-29 09:32:38.781250,77.88,103.88
91738,2018-06-29 09:32:38.812500,95.57,103.88
91739,2018-06-29 09:32:38.843750,92.47,103.88
91740,2018-06-29 09:32:38.875000,73.42,103.88
91741,2018-06-29 09:32:38.906250,37.99,103.88
91742,2018-06-29 09:32:38.937500,-15.37,103.88
91743,2018-06-29 09:32:38.968750,-77.15,103.88
91744,2018-06-29 09:32:39.000000,-127.66,103.88
91745,2018-06-29 09:32:39.031250,-149.34,103.88
91746,2018-06-29 09:32:39.062500,-141.86,103.88
91747,2018-06-29 09:32:39.093750,-123.16,103.88
91748,2018-06-29 09:32:39.125000,-108.21,103.88
91749,2018-06-29 09:32:39.156250,-94.14,103.88
91750,2018-06-29 09:32:39.187500,-72.93,103.88
91751,2018-06-29 09:32:39.218750,-44.64,103.88
91752,2018-06-29 09:32:39.250000,-12.27,103.88
91753,2018-06-29 09:32:39.281250,20.98,103.88
91754,2018-06-29 09:32:39.312500,47.51,103.88
91755,2018-06-29 09:32:39.343750,63.49,103.88
91756,2018-06-29 09:32:39.375000,79.14,103.88
91757,2018-06-29 09:32:39.406250,106.82,103.88
91758,2018-06-29 09:32:39.437500,141.94,103.88
91759,2018-06-29 09:32:39.468750,166.65,103.88
91760,2018-06-29 09:32:39.500000,168.97,103.88
91761,2018-06-29 09:32:39.531250,147.86,104.07
91762,2018-06-29 09:32:39.562500,105.49,104.07
91763,2018-06-29 09:32:39.593750,47.31,104.07
91764,2018-06-29 09:32:39.625000,-13.52,104.07
91765,2018-06-29 09:32:39.656250,-60.81,104.07
91766,2018-06-29 09:32:39.687500,-84.29,104.07
91767,2018-06-29 09:32:39.718750,-87.0,104.07
91768,2018-06-29 09:32:39.750000,-88.1,104.07
91769,2018-06-29 09:32:39.781250,-108.74,104.07
91770,2018-06-29 09:32:39.812500,-147.45,104.07
91771,2018-06-29 09:32:39.843750,-180.25,104.07
91772,2018-06-29 09:32:39.875000,-187.6,104.07
91773,2018-06-29 09:32:39.906250,-169.44,104.07
91774,2018-06-29 09:32:39.937500,-136.21,104.07
91775,2018-06-29 09:32:39.968750,-97.63,104.07
91776,2018-06-29 09:32:40.000000,-58.74,104.07
91777,2018-06-29 09:32:40.031250,-21.07,104.07
91778,2018-06-29 09:32:40.062500,11.59,104.07
91779,2018-06-29 09:32:40.093750,30.15,104.07
91780,2018-06-29 09:32:40.125000,25.69,104.07
91781,2018-06-29 09:32:40.156250,-1.94,104.07
91782,2018-06-29 09:32:40.187500,-37.8,104.07
91783,2018-06-29 09:32:40.218750,-57.46,104.07
91784,2018-06-29 09:32:40.250000,-50.26,104.07
91785,2018-06-29 09:32:40.281250,-32.44,104.07
91786,2018-06-29 09:32:40.312500,-25.45,104.07
91787,2018-06-29 09:32:40.343750,-30.8,104.07
91788,2018-06-29 09:32:40.375000,-38.34,104.07
91789,2018-06-29 09:32:40.406250,-44.29,104.07
91790,2018-06-29 09:32:40.437500,-47.62,104.07
91791,2018-06-29 09:32:40.468750,-41.32,104.07
91792,2018-06-29 09:32:40.500000,-18.18,104.07
91793,2018-06-29 09:32:40.531250,20.33,104.25
91794,2018-06-29 09:32:40.562500,65.16,104.25
91795,2018-06-29 09:32:40.593750,106.64,104.25
91796,2018-06-29 09:32:40.625000,138.59,104.25
91797,2018-06-29 09:32:40.656250,160.23,104.25
91798,2018-06-29 09:32:40.687500,177.49,104.25
91799,2018-06-29 09:32:40.718750,194.72,104.25
91800,2018-06-29 09:32:40.750000,199.1,104.25
91801,2018-06-29 09:32:40.781250,165.27,104.25
91802,2018-06-29 09:32:40.812500,85.89,104.25
91803,2018-06-29 09:32:40.843750,-10.67,104.25
91804,2018-06-29 09:32:40.875000,-81.94,104.25
91805,2018-06-29 09:32:40.906250,-108.96,104.25
91806,2018-06-29 09:32:40.937500,-108.63,104.25
91807,2018-06-29 09:32:40.968750,-109.12,104.25
91808,2018-06-29 09:32:41.000000,-120.81,104.25
91809,2018-06-29 09:32:41.031250,-136.48,104.25
91810,2018-06-29 09:32:41.062500,-148.93,104.25
91811,2018-06-29 09:32:41.093750,-155.41,104.25
91812,2018-06-29 09:32:41.125000,-151.02,104.25
91813,2018-06-29 09:32:41.156250,-130.28,104.25
91814,2018-06-29 09:32:41.187500,-95.58,104.25
91815,2018-06-29 09:32:41.218750,-57.86,104.25
91816,2018-06-29 09:32:41.250000,-26.46,104.25
91817,2018-06-29 09:32:41.281250,-2.12,104.25
91818,2018-06-29 09:32:41.312500,17.42,104.25
91819,2018-06-29 09:32:41.343750,32.0,104.25
91820,2018-06-29 09:32:41.375000,42.15,104.25
91821,2018-06-29 09:32:41.406250,49.39,104.25
91822,2018-06-29 09:32:41.437500,52.64,104.25
91823,2018-06-29 09:32:41.468750,51.5,104.25
91824,2018-06-29 09:32:41.500000,50.03,104.25
91825,2018-06-29 09:32:41.531250,51.1,104.45
91826,2018-06-29 09:32:41.562500,52.53,104.45
91827,2018-06-29 09:32:41.593750,52.4,104.45
91828,2018-06-29 09:32:41.625000,52.05,104.45
91829,2018-06-29 09:32:41.656250,52.59,104.45
91830,2018-06-29 09:32:41.687500,53.31,104.45
91831,2018-06-29 09:32:41.718750,52.46,104.45
91832,2018-06-29 09:32:41.750000,48.0,104.45
91833,2018-06-29 09:32:41.781250,41.2,104.45
91834,2018-06-29 09:32:41.812500,38.68,104.45
91835,2018-06-29 09:32:41.843750,46.05,104.45
91836,2018-06-29 09:32:41.875000,61.44,104.45
91837,2018-06-29 09:32:41.906250,79.58,104.45
91838,2018-06-29 09:32:41.937500,97.43,104.45
91839,2018-06-29 09:32:41.968750,110.74,104.45
91840,2018-06-29 09:32:42.000000,110.27,104.45
91841,2018-06-29 09:32:42.031250,86.82,104.45
91842,2018-06-29 09:32:42.062500,39.7,104.45
91843,2018-06-29 09:32:42.093750,-19.53,104.45
91844,2018-06-29 09:32:42.125000,-71.37,104.45
91845,2018-06-29 09:32:42.156250,-100.94,104.45
91846,2018-06-29 09:32:42.187500,-107.9,104.45
91847,2018-06-29 09:32:42.218750,-102.86,104.45
91848,2018-06-29 09:32:42.250000,-96.11,104.45
91849,2018-06-29 09:32:42.281250,-91.46,104.45
91850,2018-06-29 09:32:42.312500,-87.52,104.45
91851,2018-06-29 09:32:42.343750,-81.59,104.45
91852,2018-06-29 09:32:42.375000,-73.86,104.45
91853,2018-06-29 09:32:42.406250,-68.66,104.45
91854,2018-06-29 09:32:42.437500,-69.35,104.45
91855,2018-06-29 09:32:42.468750,-71.67,104.45
91856,2018-06-29 09:32:42.500000,-64.96,104.45
91857,2018-06-29 09:32:42.531250,-43.14,104.65
91858,2018-06-29 09:32:42.562500,-12.45,104.65
91859,2018-06-29 09:32:42.593750,15.13,104.65
91860,2018-06-29 09:32:42.625000,33.78,104.65
91861,2018-06-29 09:32:42.656250,44.69,104.65
91862,2018-06-29 09:32:42.687500,49.16,104.65
91863,2018-06-29 09:32:42.718750,48.26,104.65
91864,2018-06-29 09:32:42.750000,45.97,104.65
91865,2018-06-29 09:32:42.781250,46.2,104.65
91866,2018-06-29 09:32:42.812500,47.98,104.65
91867,2018-06-29 09:32:42.843750,47.32,104.65
91868,2018-06-29 09:32:42.875000,40.44,104.65
91869,2018-06-29 09:32:42.906250,25.7,104.65
91870,2018-06-29 09:32:42.937500,6.86,104.65
91871,2018-06-29 09:32:42.968750,-7.82,104.65
91872,2018-06-29 09:32:43.000000,-14.0,104.65
91873,2018-06-29 09:32:43.031250,-14.93,104.65
91874,2018-06-29 09:32:43.062500,-15.36,104.65
91875,2018-06-29 09:32:43.093750,-17.56,104.65
91876,2018-06-29 09:32:43.125000,-22.49,104.65
91877,2018-06-29 09:32:43.156250,-27.3,104.65
91878,2018-06-29 09:32:43.187500,-23.94,104.65
91879,2018-06-29 09:32:43.218750,-7.5,104.65
91880,2018-06-29 09:32:43.250000,15.65,104.65
91881,2018-06-29 09:32:43.281250,34.24,104.65
91882,2018-06-29 09:32:43.312500,43.63,104.65
91883,2018-06-29 09:32:43.343750,46.25,104.65
91884,2018-06-29 09:32:43.375000,45.34,104.65
91885,2018-06-29 09:32:43.406250,44.1,104.65
91886,2018-06-29 09:32:43.437500,45.87,104.65
91887,2018-06-29 09:32:43.468750,50.53,104.65
91888,2018-06-29 09:32:43.500000,54.03,104.65
91889,2018-06-29 09:32:43.531250,54.74,104.75
91890,2018-06-29 09:32:43.562500,55.82,104.75
91891,2018-06-29 09:32:43.593750,58.3,104.75
91892,2018-06-29 09:32:43.625000,55.28,104.75
91893,2018-06-29 09:32:43.656250,37.68,104.75
91894,2018-06-29 09:32:43.687500,6.17,104.75
91895,2018-06-29 09:32:43.718750,-26.28,104.75
91896,2018-06-29 09:32:43.750000,-45.83,104.75
91897,2018-06-29 09:32:43.781250,-50.1,104.75
91898,2018-06-29 09:32:43.812500,-46.75,104.75
91899,2018-06-29 09:32:43.843750,-41.83,104.75
91900,2018-06-29 09:32:43.875000,-33.32,104.75
91901,2018-06-29 09:32:43.906250,-17.69,104.75
91902,2018-06-29 09:32:43.937500,1.67,104.75
91903,2018-06-29 09:32:43.968750,18.32,104.75
91904,2018-06-29 09:32:44.000000,32.61,104.75
91905,2018-06-29 09:32:44.031250,49.1,104.75
91906,2018-06-29 09:32:44.062500,65.72,104.75
91907,2018-06-29 09:32:44.093750,73.84,104.75
91908,2018-06-29 09:32:44.125000,69.8,104.75
91909,2018-06-29 09:32:44.156250,59.25,104.75
91910,2018-06-29 09:32:44.187500,50.29,104.75
91911,2018-06-29 09:32:44.218750,47.08,104.75
91912,2018-06-29 09:32:44.250000,45.55,104.75
91913,2018-06-29 09:32:44.281250,35.69,104.75
91914,2018-06-29 09:32:44.312500,15.75,104.75
91915,2018-06-29 09:32:44.343750,-1.07,104.75
91916,2018-06-29 09:32:44.375000,-3.23,104.75
91917,2018-06-29 09:32:44.406250,6.5,104.75
91918,2018-06-29 09:32:44.437500,21.52,104.75
91919,2018-06-29 09:32:44.468750,39.12,104.75
91920,2018-06-29 09:32:44.500000,53.55,104.75
91921,2018-06-29 09:32:44.531250,57.81,104.83
91922,2018-06-29 09:32:44.562500,54.43,104.83
91923,2018-06-29 09:32:44.593750,53.23,104.83
91924,2018-06-29 09:32:44.625000,59.87,104.83
91925,2018-06-29 09:32:44.656250,74.83,104.83
91926,2018-06-29 09:32:44.687500,98.42,104.83
91927,2018-06-29 09:32:44.718750,124.89,104.83
91928,2018-06-29 09:32:44.750000,136.27,104.83
91929,2018-06-29 09:32:44.781250,117.15,104.83
91930,2018-06-29 09:32:44.812500,72.68,104.83
91931,2018-06-29 09:32:44.843750,21.2,104.83
91932,2018-06-29 09:32:44.875000,-26.15,104.83
91933,2018-06-29 09:32:44.906250,-70.95,104.83
91934,2018-06-29 09:32:44.937500,-118.82,104.83
91935,2018-06-29 09:32:44.968750,-167.32,104.83
91936,2018-06-29 09:32:45.000000,-200.24,104.83
91937,2018-06-29 09:32:45.031250,-202.68,104.83
91938,2018-06-29 09:32:45.062500,-182.8,104.83
91939,2018-06-29 09:32:45.093750,-162.99,104.83
91940,2018-06-29 09:32:45.125000,-152.14,104.83
91941,2018-06-29 09:32:45.156250,-143.73,104.83
91942,2018-06-29 09:32:45.187500,-134.26,104.83
91943,2018-06-29 09:32:45.218750,-126.07,104.83
91944,2018-06-29 09:32:45.250000,-118.27,104.83
91945,2018-06-29 09:32:45.281250,-106.31,104.83
91946,2018-06-29 09:32:45.312500,-87.13,104.83
91947,2018-06-29 09:32:45.343750,-61.6,104.83
91948,2018-06-29 09:32:45.375000,-33.46,104.83
91949,2018-06-29 09:32:45.406250,-6.87,104.83
91950,2018-06-29 09:32:45.437500,14.59,104.83
91951,2018-06-29 09:32:45.468750,28.03,104.83
91952,2018-06-29 09:32:45.500000,34.32,104.83
91953,2018-06-29 09:32:45.531250,38.48,104.9
91954,2018-06-29 09:32:45.562500,43.64,104.9
91955,2018-06-29 09:32:45.593750,47.49,104.9
91956,2018-06-29 09:32:45.625000,46.78,104.9
91957,2018-06-29 09:32:45.656250,42.11,104.9
91958,2018-06-29 09:32:45.687500,36.18,104.9
91959,2018-06-29 09:32:45.718750,29.96,104.9
91960,2018-06-29 09:32:45.750000,22.39,104.9
91961,2018-06-29 09:32:45.781250,13.14,104.9
91962,2018-06-29 09:32:45.812500,3.88,104.9
91963,2018-06-29 09:32:45.843750,-4.05,104.9
91964,2018-06-29 09:32:45.875000,-11.31,104.9
91965,2018-06-29 09:32:45.906250,-19.2,104.9
91966,2018-06-29 09:32:45.937500,-27.43,104.9
91967,2018-06-29 09:32:45.968750,-33.13,104.9
91968,2018-06-29 09:32:46.000000,-31.82,104.9
91969,2018-06-29 09:32:46.031250,-21.49,104.9
91970,2018-06-29 09:32:46.062500,-6.18,104.9
91971,2018-06-29 09:32:46.093750,7.33,104.9
91972,2018-06-29 09:32:46.125000,15.85,104.9
91973,2018-06-29 09:32:46.156250,20.27,104.9
91974,2018-06-29 09:32:46.187500,22.17,104.9
91975,2018-06-29 09:32:46.218750,22.67,104.9
91976,2018-06-29 09:32:46.250000,22.99,104.9
91977,2018-06-29 09:32:46.281250,24.12,104.9
91978,2018-06-29 09:32:46.312500,26.38,104.9
91979,2018-06-29 09:32:46.343750,29.15,104.9
91980,2018-06-29 09:32:46.375000,31.25,104.9
91981,2018-06-29 09:32:46.406250,32.02,104.9
91982,2018-06-29 09:32:46.437500,31.65,104.9
91983,2018-06-29 09:32:46.468750,30.36,104.9
91984,2018-06-29 09:32:46.500000,28.61,104.9
91985,2018-06-29 09:32:46.531250,27.8,104.98
91986,2018-06-29 09:32:46.562500,28.82,104.98
91987,2018-06-29 09:32:46.593750,30.38,104.98
91988,2018-06-29 09:32:46.625000,31.57,104.98
91989,2018-06-29 09:32:46.656250,35.64,104.98
91990,2018-06-29 09:32:46.687500,48.55,104.98
91991,2018-06-29 09:32:46.718750,72.36,104.98
91992,2018-06-29 09:32:46.750000,101.87,104.98
91993,2018-06-29 09:32:46.781250,129.21,104.98
91994,2018-06-29 09:32:46.812500,151.0,104.98
91995,2018-06-29 09:32:46.843750,169.08,104.98
91996,2018-06-29 09:32:46.875000,185.49,104.98
91997,2018-06-29 09:32:46.906250,198.71,104.98
91998,2018-06-29 09:32:46.937500,205.79,104.98
91999,2018-06-29 09:32:46.968750,206.12,104.98
92000,2018-06-29 09:32:47.000000,200.53,104.98
92001,2018-06-29 09:32:47.031250,188.58,104.98
92002,2018-06-29 09:32:47.062500,168.21,104.98
92003,2018-06-29 09:32:47.093750,137.08,104.98
92004,2018-06-29 09:32:47.125000,97.74,104.98
92005,2018-06-29 09:32:47.156250,63.46,104.98
92006,2018-06-29 09:32:47.187500,46.42,104.98
92007,2018-06-29 09:32:47.218750,34.5,104.98
92008,2018-06-29 09:32:47.250000,-0.64,104.98
92009,2018-06-29 09:32:47.281250,-67.14,104.98
92010,2018-06-29 09:32:47.312500,-141.43,104.98
92011,2018-06-29 09:32:47.343750,-195.26,104.98
92012,2018-06-29 09:32:47.375000,-220.59,104.98
92013,2018-06-29 09:32:47.406250,-224.77,104.98
92014,2018-06-29 09:32:47.437500,-214.53,104.98
92015,2018-06-29 09:32:47.468750,-194.0,104.98
92016,2018-06-29 09:32:47.500000,-170.98,104.98
92017,2018-06-29 09:32:47.531250,-152.29,105.03
92018,2018-06-29 09:32:47.562500,-137.07,105.03
92019,2018-06-29 09:32:47.593750,-124.3,105.03
92020,2018-06-29 09:32:47.625000,-117.78,105.03
92021,2018-06-29 09:32:47.656250,-116.48,105.03
92022,2018-06-29 09:32:47.687500,-111.39,105.03
92023,2018-06-29 09:32:47.718750,-98.0,105.03
92024,2018-06-29 09:32:47.750000,-82.3,105.03
92025,2018-06-29 09:32:47.781250,-69.95,105.03
92026,2018-06-29 09:32:47.812500,-58.58,105.03
92027,2018-06-29 09:32:47.843750,-45.54,105.03
92028,2018-06-29 09:32:47.875000,-34.58,105.03
92029,2018-06-29 09:32:47.906250,-28.64,105.03
92030,2018-06-29 09:32:47.937500,-22.5,105.03
92031,2018-06-29 09:32:47.968750,-8.64,105.03
92032,2018-06-29 09:32:48.000000,13.26,105.03
92033,2018-06-29 09:32:48.031250,36.35,105.03
92034,2018-06-29 09:32:48.062500,53.89,105.03
92035,2018-06-29 09:32:48.093750,64.25,105.03
92036,2018-06-29 09:32:48.125000,70.37,105.03
92037,2018-06-29 09:32:48.156250,75.4,105.03
92038,2018-06-29 09:32:48.187500,77.79,105.03
92039,2018-06-29 09:32:48.218750,71.49,105.03
92040,2018-06-29 09:32:48.250000,52.51,105.03
92041,2018-06-29 09:32:48.281250,23.83,105.03
92042,2018-06-29 09:32:48.312500,-7.49,105.03
92043,2018-06-29 09:32:48.343750,-35.75,105.03
92044,2018-06-29 09:32:48.375000,-58.13,105.03
92045,2018-06-29 09:32:48.406250,-73.81,105.03
92046,2018-06-29 09:32:48.437500,-83.9,105.03
92047,2018-06-29 09:32:48.468750,-90.49,105.03
92048,2018-06-29 09:32:48.500000,-94.57,105.03
92049,2018-06-29 09:32:48.531250,-95.55,105.15
92050,2018-06-29 09:32:48.562500,-91.63,105.15
92051,2018-06-29 09:32:48.593750,-79.92,105.15
92052,2018-06-29 09:32:48.625000,-59.13,105.15
92053,2018-06-29 09:32:48.656250,-33.53,105.15
92054,2018-06-29 09:32:48.687500,-11.57,105.15
92055,2018-06-29 09:32:48.718750,0.34,105.15
92056,2018-06-29 09:32:48.750000,2.02,105.15
92057,2018-06-29 09:32:48.781250,-2.12,105.15
92058,2018-06-29 09:32:48.812500,-7.4,105.15
92059,2018-06-29 09:32:48.843750,-11.96,105.15
92060,2018-06-29 09:32:48.875000,-16.31,105.15
92061,2018-06-29 09:32:48.906250,-21.01,105.15
92062,2018-06-29 09:32:48.937500,-25.55,105.15
92063,2018-06-29 09:32:48.968750,-29.41,105.15
92064,2018-06-29 09:32:49.000000,-32.81,105.15
92065,2018-06-29 09:32:49.031250,-36.42,105.15
92066,2018-06-29 09:32:49.062500,-41.14,105.15
92067,2018-06-29 09:32:49.093750,-47.47,105.15
92068,2018-06-29 09:32:49.125000,-55.28,105.15
92069,2018-06-29 09:32:49.156250,-63.67,105.15
92070,2018-06-29 09:32:49.187500,-69.37,105.15
92071,2018-06-29 09:32:49.218750,-66.0,105.15
92072,2018-06-29 09:32:49.250000,-49.92,105.15
92073,2018-06-29 09:32:49.281250,-26.06,105.15
92074,2018-06-29 09:32:49.312500,-4.11,105.15
92075,2018-06-29 09:32:49.343750,10.61,105.15
92076,2018-06-29 09:32:49.375000,19.37,105.15
92077,2018-06-29 09:32:49.406250,25.44,105.15
92078,2018-06-29 09:32:49.437500,30.9,105.15
92079,2018-06-29 09:32:49.468750,37.29,105.15
92080,2018-06-29 09:32:49.500000,44.8,105.15
92081,2018-06-29 09:32:49.531250,51.51,105.25
92082,2018-06-29 09:32:49.562500,55.64,105.25
92083,2018-06-29 09:32:49.593750,57.84,105.25
92084,2018-06-29 09:32:49.625000,58.95,105.25
92085,2018-06-29 09:32:49.656250,57.66,105.25
92086,2018-06-29 09:32:49.687500,53.34,105.25
92087,2018-06-29 09:32:49.718750,48.4,105.25
92088,2018-06-29 09:32:49.750000,45.45,105.25
92089,2018-06-29 09:32:49.781250,43.73,105.25
92090,2018-06-29 09:32:49.812500,40.5,105.25
92091,2018-06-29 09:32:49.843750,35.3,105.25
92092,2018-06-29 09:32:49.875000,33.29,105.25
92093,2018-06-29 09:32:49.906250,42.79,105.25
92094,2018-06-29 09:32:49.937500,66.08,105.25
92095,2018-06-29 09:32:49.968750,94.16,105.25
92096,2018-06-29 09:32:50.000000,114.38,105.25
92097,2018-06-29 09:32:50.031250,120.21,105.25
92098,2018-06-29 09:32:50.062500,112.26,105.25
92099,2018-06-29 09:32:50.093750,95.53,105.25
92100,2018-06-29 09:32:50.125000,77.59,105.25
92101,2018-06-29 09:32:50.156250,63.72,105.25
92102,2018-06-29 09:32:50.187500,53.99,105.25
92103,2018-06-29 09:32:50.218750,46.87,105.25
92104,2018-06-29 09:32:50.250000,42.41,105.25
92105,2018-06-29 09:32:50.281250,40.96,105.25
92106,2018-06-29 09:32:50.312500,41.31,105.25
92107,2018-06-29 09:32:50.343750,39.79,105.25
92108,2018-06-29 09:32:50.375000,31.47,105.25
92109,2018-06-29 09:32:50.406250,14.48,105.25
92110,2018-06-29 09:32:50.437500,-9.2,105.25
92111,2018-06-29 09:32:50.468750,-37.89,105.25
92112,2018-06-29 09:32:50.500000,-70.68,105.25
92113,2018-06-29 09:32:50.531250,-101.76,105.37
92114,2018-06-29 09:32:50.562500,-118.72,105.37
92115,2018-06-29 09:32:50.593750,-111.14,105.37
92116,2018-06-29 09:32:50.625000,-80.2,105.37
92117,2018-06-29 09:32:50.656250,-37.11,105.37
92118,2018-06-29 09:32:50.687500,5.99,105.37
92119,2018-06-29 09:32:50.718750,40.05,105.37
92120,2018-06-29 09:32:50.750000,59.01,105.37
92121,2018-06-29 09:32:50.781250,63.54,105.37
92122,2018-06-29 09:32:50.812500,62.06,105.37
92123,2018-06-29 09:32:50.843750,61.47,105.37
92124,2018-06-29 09:32:50.875000,59.71,105.37
92125,2018-06-29 09:32:50.906250,52.13,105.37
92126,2018-06-29 09:32:50.937500,40.55,105.37
92127,2018-06-29 09:32:50.968750,30.06,105.37
92128,2018-06-29 09:32:51.000000,19.66,105.37
92129,2018-06-29 09:32:51.031250,2.7,105.37
92130,2018-06-29 09:32:51.062500,-22.76,105.37
92131,2018-06-29 09:32:51.093750,-49.33,105.37
92132,2018-06-29 09:32:51.125000,-68.73,105.37
92133,2018-06-29 09:32:51.156250,-80.94,105.37
92134,2018-06-29 09:32:51.187500,-91.05,105.37
92135,2018-06-29 09:32:51.218750,-99.04,105.37
92136,2018-06-29 09:32:51.250000,-98.94,105.37
92137,2018-06-29 09:32:51.281250,-88.73,105.37
92138,2018-06-29 09:32:51.312500,-74.76,105.37
92139,2018-06-29 09:32:51.343750,-64.83,105.37
92140,2018-06-29 09:32:51.375000,-61.59,105.37
92141,2018-06-29 09:32:51.406250,-62.02,105.37
92142,2018-06-29 09:32:51.437500,-59.59,105.37
92143,2018-06-29 09:32:51.468750,-49.36,105.37
92144,2018-06-29 09:32:51.500000,-34.06,105.37
92145,2018-06-29 09:32:51.531250,-21.98,105.45
92146,2018-06-29 09:32:51.562500,-18.36,105.45
92147,2018-06-29 09:32:51.593750,-22.01,105.45
92148,2018-06-29 09:32:51.625000,-28.81,105.45
92149,2018-06-29 09:32:51.656250,-35.01,105.45
92150,2018-06-29 09:32:51.687500,-39.05,105.45
92151,2018-06-29 09:32:51.718750,-42.56,105.45
92152,2018-06-29 09:32:51.750000,-47.91,105.45
92153,2018-06-29 09:32:51.781250,-55.15,105.45
92154,2018-06-29 09:32:51.812500,-62.96,105.45
92155,2018-06-29 09:32:51.843750,-70.0,105.45
92156,2018-06-29 09:32:51.875000,-72.63,105.45
92157,2018-06-29 09:32:51.906250,-65.47,105.45
92158,2018-06-29 09:32:51.937500,-48.25,105.45
92159,2018-06-29 09:32:51.968750,-28.75,105.45
92160,2018-06-29 09:32:52.000000,-16.02,105.45
92161,2018-06-29 09:32:52.031250,-13.34,105.45
92162,2018-06-29 09:32:52.062500,-18.43,105.45
92163,2018-06-29 09:32:52.093750,-26.63,105.45
92164,2018-06-29 09:32:52.125000,-33.46,105.45
92165,2018-06-29 09:32:52.156250,-36.29,105.45
92166,2018-06-29 09:32:52.187500,-35.11,105.45
92167,2018-06-29 09:32:52.218750,-31.67,105.45
92168,2018-06-29 09:32:52.250000,-28.1,105.45
92169,2018-06-29 09:32:52.281250,-25.68,105.45
92170,2018-06-29 09:32:52.312500,-24.24,105.45
92171,2018-06-29 09:32:52.343750,-22.78,105.45
92172,2018-06-29 09:32:52.375000,-20.85,105.45
92173,2018-06-29 09:32:52.406250,-19.15,105.45
92174,2018-06-29 09:32:52.437500,-18.96,105.45
92175,2018-06-29 09:32:52.468750,-21.69,105.45
92176,2018-06-29 09:32:52.500000,-26.17,105.45
92177,2018-06-29 09:32:52.531250,-26.15,105.53
92178,2018-06-29 09:32:52.562500,-15.93,105.53
92179,2018-06-29 09:32:52.593750,1.04,105.53
92180,2018-06-29 09:32:52.625000,15.06,105.53
92181,2018-06-29 09:32:52.656250,20.9,105.53
92182,2018-06-29 09:32:52.687500,20.02,105.53
92183,2018-06-29 09:32:52.718750,15.71,105.53
92184,2018-06-29 09:32:52.750000,11.57,105.53
92185,2018-06-29 09:32:52.781250,10.96,105.53
92186,2018-06-29 09:32:52.812500,13.45,105.53
92187,2018-06-29 09:32:52.843750,15.04,105.53
92188,2018-06-29 09:32:52.875000,13.45,105.53
92189,2018-06-29 09:32:52.906250,9.92,105.53
92190,2018-06-29 09:32:52.937500,5.88,105.53
92191,2018-06-29 09:32:52.968750,1.22,105.53
92192,2018-06-29 09:32:53.000000,-4.17,105.53
92193,2018-06-29 09:32:53.031250,-10.13,105.53
92194,2018-06-29 09:32:53.062500,-17.8,105.53
92195,2018-06-29 09:32:53.093750,-27.83,105.53
92196,2018-06-29 09:32:53.125000,-35.9,105.53
92197,2018-06-29 09:32:53.156250,-33.44,105.53
92198,2018-06-29 09:32:53.187500,-16.76,105.53
92199,2018-06-29 09:32:53.218750,7.37,105.53
92200,2018-06-29 09:32:53.250000,28.48,105.53
92201,2018-06-29 09:32:53.281250,41.27,105.53
92202,2018-06-29 09:32:53.312500,45.69,105.53
92203,2018-06-29 09:32:53.343750,44.02,105.53
92204,2018-06-29 09:32:53.375000,40.69,105.53
92205,2018-06-29 09:32:53.406250,39.99,105.53
92206,2018-06-29 09:32:53.437500,42.75,105.53
92207,2018-06-29 09:32:53.468750,48.07,105.53
92208,2018-06-29 09:32:53.500000,55.35,105.53
92209,2018-06-29 09:32:53.531250,62.35,105.63
92210,2018-06-29 09:32:53.562500,63.92,105.63
92211,2018-06-29 09:32:53.593750,56.6,105.63
92212,2018-06-29 09:32:53.625000,42.99,105.63
92213,2018-06-29 09:32:53.656250,29.07,105.63
92214,2018-06-29 09:32:53.687500,18.6,105.63
92215,2018-06-29 09:32:53.718750,12.12,105.63
92216,2018-06-29 09:32:53.750000,9.12,105.63
92217,2018-06-29 09:32:53.781250,7.93,105.63
92218,2018-06-29 09:32:53.812500,7.9,105.63
92219,2018-06-29 09:32:53.843750,12.7,105.63
92220,2018-06-29 09:32:53.875000,26.37,105.63
92221,2018-06-29 09:32:53.906250,47.36,105.63
