,Time,ppg,hr
99200,2018-06-29 09:36:32.000000,-114.47,77.62
99201,2018-06-29 09:36:32.031250,-97.44,77.62
99202,2018-06-29 09:36:32.062500,-82.21,77.62
99203,2018-06-29 09:36:32.093750,-69.6,77.62
99204,2018-06-29 09:36:32.125000,-59.74,77.62
99205,2018-06-29 09:36:32.156250,-54.53,77.62
99206,2018-06-29 09:36:32.187500,-53.53,77.62
99207,2018-06-29 09:36:32.218750,-50.84,77.62
99208,2018-06-29 09:36:32.250000,-40.71,77.62
99209,2018-06-29 09:36:32.281250,-25.35,77.62
99210,2018-06-29 09:36:32.312500,-11.91,77.62
99211,2018-06-29 09:36:32.343750,-2.62,77.62
99212,2018-06-29 09:36:32.375000,4.32,77.62
99213,2018-06-29 09:36:32.406250,7.91,77.62
99214,2018-06-29 09:36:32.437500,6.42,77.62
99215,2018-06-29 09:36:32.468750,2.07,77.62
99216,2018-06-29 09:36:32.500000,-2.02,77.62
99217,2018-06-29 09:36:32.531250,-6.39,77.68
99218,2018-06-29 09:36:32.562500,-11.53,77.68
99219,2018-06-29 09:36:32.593750,-15.27,77.68
99220,2018-06-29 09:36:32.625000,-16.71,77.68
99221,2018-06-29 09:36:32.656250,-17.86,77.68
99222,2018-06-29 09:36:32.687500,-20.24,77.68
99223,2018-06-29 09:36:32.718750,-22.68,77.68
99224,2018-06-29 09:36:32.750000,-23.29,77.68
99225,2018-06-29 09:36:32.781250,-21.02,77.68
99226,2018-06-29 09:36:32.812500,-16.01,77.68
99227,2018-06-29 09:36:32.843750,-10.6,77.68
99228,2018-06-29 09:36:32.875000,-8.03,77.68
99229,2018-06-29 09:36:32.906250,-8.37,77.68
99230,2018-06-29 09:36:32.937500,-8.41,77.68
99231,2018-06-29 09:36:32.968750,-6.69,77.68
99232,2018-06-29 09:36:33.000000,-5.17,77.68
99233,2018-06-29 09:36:33.031250,-4.71,77.68
99234,2018-06-29 09:36:33.062500,-3.73,77.68
99235,2018-06-29 09:36:33.093750,-2.0,77.68
99236,2018-06-29 09:36:33.125000,-1.41,77.68
99237,2018-06-29 09:36:33.156250,-3.84,77.68
99238,2018-06-29 09:36:33.187500,-11.73,77.68
99239,2018-06-29 09:36:33.218750,-25.0,77.68
99240,2018-06-29 09:36:33.250000,-35.96,77.68
99241,2018-06-29 09:36:33.281250,-36.54,77.68
99242,2018-06-29 09:36:33.312500,-29.84,77.68
99243,2018-06-29 09:36:33.343750,-25.2,77.68
99244,2018-06-29 09:36:33.375000,-25.34,77.68
99245,2018-06-29 09:36:33.406250,-27.08,77.68
99246,2018-06-29 09:36:33.437500,-28.88,77.68
99247,2018-06-29 09:36:33.468750,-29.83,77.68
99248,2018-06-29 09:36:33.500000,-26.61,77.68
99249,2018-06-29 09:36:33.531250,-18.52,77.77
99250,2018-06-29 09:36:33.562500,-10.71,77.77
99251,2018-06-29 09:36:33.593750,-7.55,77.77
99252,2018-06-29 09:36:33.625000,-6.56,77.77
99253,2018-06-29 09:36:33.656250,-3.53,77.77
99254,2018-06-29 09:36:33.687500,1.86,77.77
99255,2018-06-29 09:36:33.718750,7.44,77.77
99256,2018-06-29 09:36:33.750000,11.83,77.77
99257,2018-06-29 09:36:33.781250,14.59,77.77
99258,2018-06-29 09:36:33.812500,15.69,77.77
99259,2018-06-29 09:36:33.843750,15.07,77.77
99260,2018-06-29 09:36:33.875000,12.58,77.77
99261,2018-06-29 09:36:33.906250,8.94,77.77
99262,2018-06-29 09:36:33.937500,5.57,77.77
99263,2018-06-29 09:36:33.968750,3.36,77.77
99264,2018-06-29 09:36:34.000000,2.2,77.77
99265,2018-06-29 09:36:34.031250,1.67,77.77
99266,2018-06-29 09:36:34.062500,1.43,77.77
99267,2018-06-29 09:36:34.093750,1.01,77.77
99268,2018-06-29 09:36:34.125000,0.55,77.77
99269,2018-06-29 09:36:34.156250,1.03,77.77
99270,2018-06-29 09:36:34.187500,2.51,77.77
99271,2018-06-29 09:36:34.218750,3.46,77.77
99272,2018-06-29 09:36:34.250000,2.92,77.77
99273,2018-06-29 09:36:34.281250,1.41,77.77
99274,2018-06-29 09:36:34.312500,-0.19,77.77
99275,2018-06-29 09:36:34.343750,-0.96,77.77
99276,2018-06-29 09:36:34.375000,0.18,77.77
99277,2018-06-29 09:36:34.406250,3.54,77.77
99278,2018-06-29 09:36:34.437500,8.0,77.77
99279,2018-06-29 09:36:34.468750,11.92,77.77
99280,2018-06-29 09:36:34.500000,14.53,77.77
99281,2018-06-29 09:36:34.531250,15.71,77.8
99282,2018-06-29 09:36:34.562500,15.38,77.8
99283,2018-06-29 09:36:34.593750,13.8,77.8
99284,2018-06-29 09:36:34.625000,12.12,77.8
99285,2018-06-29 09:36:34.656250,11.33,77.8
99286,2018-06-29 09:36:34.687500,11.02,77.8
99287,2018-06-29 09:36:34.718750,10.07,77.8
99288,2018-06-29 09:36:34.750000,8.3,77.8
99289,2018-06-29 09:36:34.781250,6.68,77.8
99290,2018-06-29 09:36:34.812500,5.72,77.8
99291,2018-06-29 09:36:34.843750,5.13,77.8
99292,2018-06-29 09:36:34.875000,5.16,77.8
99293,2018-06-29 09:36:34.906250,6.27,77.8
99294,2018-06-29 09:36:34.937500,7.8,77.8
99295,2018-06-29 09:36:34.968750,8.79,77.8
99296,2018-06-29 09:36:35.000000,9.24,77.8
99297,2018-06-29 09:36:35.031250,9.53,77.8
99298,2018-06-29 09:36:35.062500,9.62,77.8
99299,2018-06-29 09:36:35.093750,9.54,77.8
99300,2018-06-29 09:36:35.125000,9.85,77.8
99301,2018-06-29 09:36:35.156250,11.35,77.8
99302,2018-06-29 09:36:35.187500,14.07,77.8
99303,2018-06-29 09:36:35.218750,17.07,77.8
99304,2018-06-29 09:36:35.250000,19.57,77.8
99305,2018-06-29 09:36:35.281250,21.07,77.8
99306,2018-06-29 09:36:35.312500,20.6,77.8
99307,2018-06-29 09:36:35.343750,17.97,77.8
99308,2018-06-29 09:36:35.375000,14.83,77.8
99309,2018-06-29 09:36:35.406250,12.82,77.8
99310,2018-06-29 09:36:35.437500,11.22,77.8
99311,2018-06-29 09:36:35.468750,8.62,77.8
99312,2018-06-29 09:36:35.500000,5.31,77.8
99313,2018-06-29 09:36:35.531250,2.39,78.12
99314,2018-06-29 09:36:35.562500,-0.46,78.12
99315,2018-06-29 09:36:35.593750,-3.67,78.12
99316,2018-06-29 09:36:35.625000,-6.24,78.12
99317,2018-06-29 09:36:35.656250,-7.26,78.12
99318,2018-06-29 09:36:35.687500,-6.82,78.12
99319,2018-06-29 09:36:35.718750,-5.19,78.12
99320,2018-06-29 09:36:35.750000,-3.28,78.12
99321,2018-06-29 09:36:35.781250,-2.71,78.12
99322,2018-06-29 09:36:35.812500,-2.66,78.12
99323,2018-06-29 09:36:35.843750,1.12,78.12
99324,2018-06-29 09:36:35.875000,10.34,78.12
99325,2018-06-29 09:36:35.906250,20.15,78.12
99326,2018-06-29 09:36:35.937500,25.24,78.12
99327,2018-06-29 09:36:35.968750,27.24,78.12
99328,2018-06-29 09:36:36.000000,30.71,78.12
99329,2018-06-29 09:36:36.031250,34.99,78.12
99330,2018-06-29 09:36:36.062500,36.75,78.12
99331,2018-06-29 09:36:36.093750,37.66,78.12
99332,2018-06-29 09:36:36.125000,42.45,78.12
99333,2018-06-29 09:36:36.156250,50.65,78.12
99334,2018-06-29 09:36:36.187500,56.55,78.12
99335,2018-06-29 09:36:36.218750,56.64,78.12
99336,2018-06-29 09:36:36.250000,53.76,78.12
99337,2018-06-29 09:36:36.281250,54.46,78.12
99338,2018-06-29 09:36:36.312500,62.13,78.12
99339,2018-06-29 09:36:36.343750,69.25,78.12
99340,2018-06-29 09:36:36.375000,59.98,78.12
99341,2018-06-29 09:36:36.406250,30.47,78.12
99342,2018-06-29 09:36:36.437500,-0.45,78.12
99343,2018-06-29 09:36:36.468750,-13.33,78.12
99344,2018-06-29 09:36:36.500000,-12.47,78.12
99345,2018-06-29 09:36:36.531250,-17.66,78.48
99346,2018-06-29 09:36:36.562500,-38.73,78.48
99347,2018-06-29 09:36:36.593750,-67.65,78.48
99348,2018-06-29 09:36:36.625000,-88.96,78.48
99349,2018-06-29 09:36:36.656250,-92.41,78.48
99350,2018-06-29 09:36:36.687500,-78.88,78.48
99351,2018-06-29 09:36:36.718750,-58.85,78.48
99352,2018-06-29 09:36:36.750000,-45.51,78.48
99353,2018-06-29 09:36:36.781250,-43.87,78.48
99354,2018-06-29 09:36:36.812500,-46.24,78.48
99355,2018-06-29 09:36:36.843750,-42.69,78.48
99356,2018-06-29 09:36:36.875000,-33.58,78.48
99357,2018-06-29 09:36:36.906250,-26.87,78.48
99358,2018-06-29 09:36:36.937500,-26.23,78.48
99359,2018-06-29 09:36:36.968750,-27.67,78.48
99360,2018-06-29 09:36:37.000000,-26.83,78.48
99361,2018-06-29 09:36:37.031250,-24.46,78.48
99362,2018-06-29 09:36:37.062500,-24.06,78.48
99363,2018-06-29 09:36:37.093750,-26.28,78.48
99364,2018-06-29 09:36:37.125000,-28.88,78.48
99365,2018-06-29 09:36:37.156250,-31.61,78.48
99366,2018-06-29 09:36:37.187500,-37.35,78.48
99367,2018-06-29 09:36:37.218750,-47.44,78.48
99368,2018-06-29 09:36:37.250000,-59.92,78.48
99369,2018-06-29 09:36:37.281250,-72.79,78.48
99370,2018-06-29 09:36:37.312500,-85.91,78.48
99371,2018-06-29 09:36:37.343750,-100.02,78.48
99372,2018-06-29 09:36:37.375000,-114.09,78.48
99373,2018-06-29 09:36:37.406250,-123.76,78.48
99374,2018-06-29 09:36:37.437500,-124.7,78.48
99375,2018-06-29 09:36:37.468750,-120.2,78.48
99376,2018-06-29 09:36:37.500000,-119.5,78.48
99377,2018-06-29 09:36:37.531250,-124.56,78.73
99378,2018-06-29 09:36:37.562500,-125.37,78.73
99379,2018-06-29 09:36:37.593750,-116.65,78.73
99380,2018-06-29 09:36:37.625000,-113.26,78.73
99381,2018-06-29 09:36:37.656250,-133.99,78.73
99382,2018-06-29 09:36:37.687500,-169.52,78.73
99383,2018-06-29 09:36:37.718750,-180.82,78.73
99384,2018-06-29 09:36:37.750000,-134.77,78.73
99385,2018-06-29 09:36:37.781250,-34.52,78.73
99386,2018-06-29 09:36:37.812500,89.16,78.73
99387,2018-06-29 09:36:37.843750,212.04,78.73
99388,2018-06-29 09:36:37.875000,336.13,78.73
99389,2018-06-29 09:36:37.906250,465.72,78.73
99390,2018-06-29 09:36:37.937500,568.7,78.73
99391,2018-06-29 09:36:37.968750,590.42,78.73
99392,2018-06-29 09:36:38.000000,512.24,78.73
99393,2018-06-29 09:36:38.031250,374.39,78.73
99394,2018-06-29 09:36:38.062500,232.45,78.73
99395,2018-06-29 09:36:38.093750,107.66,78.73
99396,2018-06-29 09:36:38.125000,-13.05,78.73
99397,2018-06-29 09:36:38.156250,-152.5,78.73
99398,2018-06-29 09:36:38.187500,-323.5,78.73
99399,2018-06-29 09:36:38.218750,-504.52,78.73
99400,2018-06-29 09:36:38.250000,-632.71,78.73
99401,2018-06-29 09:36:38.281250,-648.93,78.73
99402,2018-06-29 09:36:38.312500,-549.6,78.73
99403,2018-06-29 09:36:38.343750,-380.35,78.73
99404,2018-06-29 09:36:38.375000,-204.12,78.73
99405,2018-06-29 09:36:38.406250,-80.72,78.73
99406,2018-06-29 09:36:38.437500,-40.96,78.73
99407,2018-06-29 09:36:38.468750,-67.0,78.73
99408,2018-06-29 09:36:38.500000,-109.8,78.73
99409,2018-06-29 09:36:38.531250,-129.08,78.93
99410,2018-06-29 09:36:38.562500,-113.88,78.93
99411,2018-06-29 09:36:38.593750,-73.1,78.93
99412,2018-06-29 09:36:38.625000,-17.14,78.93
99413,2018-06-29 09:36:38.656250,53.99,78.93
99414,2018-06-29 09:36:38.687500,154.42,78.93
99415,2018-06-29 09:36:38.718750,302.64,78.93
99416,2018-06-29 09:36:38.750000,482.73,78.93
99417,2018-06-29 09:36:38.781250,618.75,78.93
99418,2018-06-29 09:36:38.812500,625.05,78.93
99419,2018-06-29 09:36:38.843750,510.45,78.93
99420,2018-06-29 09:36:38.875000,386.0,78.93
99421,2018-06-29 09:36:38.906250,322.45,78.93
99422,2018-06-29 09:36:38.937500,264.12,78.93
99423,2018-06-29 09:36:38.968750,126.15,78.93
99424,2018-06-29 09:36:39.000000,-95.05,78.93
99425,2018-06-29 09:36:39.031250,-345.0,78.93
99426,2018-06-29 09:36:39.062500,-558.03,78.93
99427,2018-06-29 09:36:39.093750,-670.81,78.93
99428,2018-06-29 09:36:39.125000,-646.99,78.93
99429,2018-06-29 09:36:39.156250,-513.85,78.93
99430,2018-06-29 09:36:39.187500,-338.29,78.93
99431,2018-06-29 09:36:39.218750,-174.22,78.93
99432,2018-06-29 09:36:39.250000,-54.23,78.93
99433,2018-06-29 09:36:39.281250,15.84,78.93
99434,2018-06-29 09:36:39.312500,45.78,78.93
99435,2018-06-29 09:36:39.343750,78.81,78.93
99436,2018-06-29 09:36:39.375000,138.87,78.93
99437,2018-06-29 09:36:39.406250,216.55,78.93
99438,2018-06-29 09:36:39.437500,299.96,78.93
99439,2018-06-29 09:36:39.468750,398.01,78.93
99440,2018-06-29 09:36:39.500000,533.12,78.93
99441,2018-06-29 09:36:39.531250,683.99,79.1
99442,2018-06-29 09:36:39.562500,832.48,79.1
99443,2018-06-29 09:36:39.593750,941.23,79.1
99444,2018-06-29 09:36:39.625000,992.22,79.1
99445,2018-06-29 09:36:39.656250,958.19,79.1
99446,2018-06-29 09:36:39.687500,862.75,79.1
99447,2018-06-29 09:36:39.718750,746.29,79.1
99448,2018-06-29 09:36:39.750000,381.81,79.1
99449,2018-06-29 09:36:39.781250,-120.84,79.1
99450,2018-06-29 09:36:39.812500,-508.03,79.1
99451,2018-06-29 09:36:39.843750,-802.02,79.1
99452,2018-06-29 09:36:39.875000,-996.36,79.1
99453,2018-06-29 09:36:39.906250,-1021.78,79.1
99454,2018-06-29 09:36:39.937500,-900.04,79.1
99455,2018-06-29 09:36:39.968750,-713.74,79.1
99456,2018-06-29 09:36:40.000000,-506.36,79.1
99457,2018-06-29 09:36:40.031250,-296.18,79.1
99458,2018-06-29 09:36:40.062500,-113.84,79.1
99459,2018-06-29 09:36:40.093750,-31.6,79.1
99460,2018-06-29 09:36:40.125000,-53.4,79.1
99461,2018-06-29 09:36:40.156250,-130.37,79.1
99462,2018-06-29 09:36:40.187500,-199.85,79.1
99463,2018-06-29 09:36:40.218750,-239.57,79.1
99464,2018-06-29 09:36:40.250000,-258.43,79.1
99465,2018-06-29 09:36:40.281250,-264.81,79.1
99466,2018-06-29 09:36:40.312500,-267.83,79.1
99467,2018-06-29 09:36:40.343750,-260.85,79.1
99468,2018-06-29 09:36:40.375000,-234.28,79.1
99469,2018-06-29 09:36:40.406250,-174.65,79.1
99470,2018-06-29 09:36:40.437500,-84.91,79.1
99471,2018-06-29 09:36:40.468750,15.43,79.1
99472,2018-06-29 09:36:40.500000,101.75,79.1
99473,2018-06-29 09:36:40.531250,156.49,79.25
99474,2018-06-29 09:36:40.562500,174.27,79.25
99475,2018-06-29 09:36:40.593750,156.91,79.25
99476,2018-06-29 09:36:40.625000,119.26,79.25
99477,2018-06-29 09:36:40.656250,89.8,79.25
99478,2018-06-29 09:36:40.687500,99.15,79.25
99479,2018-06-29 09:36:40.718750,163.59,79.25
99480,2018-06-29 09:36:40.750000,264.22,79.25
99481,2018-06-29 09:36:40.781250,343.48,79.25
99482,2018-06-29 09:36:40.812500,350.65,79.25
99483,2018-06-29 09:36:40.843750,291.15,79.25
99484,2018-06-29 09:36:40.875000,209.13,79.25
99485,2018-06-29 09:36:40.906250,136.18,79.25
99486,2018-06-29 09:36:40.937500,79.7,79.25
99487,2018-06-29 09:36:40.968750,39.44,79.25
99488,2018-06-29 09:36:41.000000,10.32,79.25
99489,2018-06-29 09:36:41.031250,-16.77,79.25
99490,2018-06-29 09:36:41.062500,-45.21,79.25
99491,2018-06-29 09:36:41.093750,-70.07,79.25
99492,2018-06-29 09:36:41.125000,-87.73,79.25
99493,2018-06-29 09:36:41.156250,-102.57,79.25
99494,2018-06-29 09:36:41.187500,-117.17,79.25
99495,2018-06-29 09:36:41.218750,-120.42,79.25
99496,2018-06-29 09:36:41.250000,-98.22,79.25
99497,2018-06-29 09:36:41.281250,-54.06,79.25
99498,2018-06-29 09:36:41.312500,-4.45,79.25
99499,2018-06-29 09:36:41.343750,42.68,79.25
99500,2018-06-29 09:36:41.375000,89.54,79.25
99501,2018-06-29 09:36:41.406250,133.42,79.25
99502,2018-06-29 09:36:41.437500,166.35,79.25
99503,2018-06-29 09:36:41.468750,187.18,79.25
99504,2018-06-29 09:36:41.500000,202.03,79.25
99505,2018-06-29 09:36:41.531250,213.88,79.35
99506,2018-06-29 09:36:41.562500,218.41,79.35
99507,2018-06-29 09:36:41.593750,208.52,79.35
99508,2018-06-29 09:36:41.625000,177.93,79.35
99509,2018-06-29 09:36:41.656250,125.01,79.35
99510,2018-06-29 09:36:41.687500,58.14,79.35
99511,2018-06-29 09:36:41.718750,-6.17,79.35
99512,2018-06-29 09:36:41.750000,-53.51,79.35
99513,2018-06-29 09:36:41.781250,-76.94,79.35
99514,2018-06-29 09:36:41.812500,-75.59,79.35
99515,2018-06-29 09:36:41.843750,-55.59,79.35
99516,2018-06-29 09:36:41.875000,-30.78,79.35
99517,2018-06-29 09:36:41.906250,-15.67,79.35
99518,2018-06-29 09:36:41.937500,-15.66,79.35
99519,2018-06-29 09:36:41.968750,-23.84,79.35
99520,2018-06-29 09:36:42.000000,-28.33,79.35
99521,2018-06-29 09:36:42.031250,-22.65,79.35
99522,2018-06-29 09:36:42.062500,-9.29,79.35
99523,2018-06-29 09:36:42.093750,5.33,79.35
99524,2018-06-29 09:36:42.125000,16.5,79.35
99525,2018-06-29 09:36:42.156250,24.22,79.35
99526,2018-06-29 09:36:42.187500,33.89,79.35
99527,2018-06-29 09:36:42.218750,51.78,79.35
99528,2018-06-29 09:36:42.250000,78.03,79.35
99529,2018-06-29 09:36:42.281250,106.68,79.35
99530,2018-06-29 09:36:42.312500,131.91,79.35
99531,2018-06-29 09:36:42.343750,151.6,79.35
99532,2018-06-29 09:36:42.375000,164.23,79.35
99533,2018-06-29 09:36:42.406250,163.41,79.35
99534,2018-06-29 09:36:42.437500,139.79,79.35
99535,2018-06-29 09:36:42.468750,92.6,79.35
99536,2018-06-29 09:36:42.500000,34.16,79.35
99537,2018-06-29 09:36:42.531250,-22.87,79.5
99538,2018-06-29 09:36:42.562500,-76.36,79.5
99539,2018-06-29 09:36:42.593750,-128.28,79.5
99540,2018-06-29 09:36:42.625000,-176.62,79.5
99541,2018-06-29 09:36:42.656250,-216.42,79.5
99542,2018-06-29 09:36:42.687500,-240.49,79.5
99543,2018-06-29 09:36:42.718750,-239.17,79.5
99544,2018-06-29 09:36:42.750000,-208.22,79.5
99545,2018-06-29 09:36:42.781250,-157.02,79.5
99546,2018-06-29 09:36:42.812500,-101.86,79.5
99547,2018-06-29 09:36:42.843750,-53.46,79.5
99548,2018-06-29 09:36:42.875000,-15.49,79.5
99549,2018-06-29 09:36:42.906250,11.5,79.5
99550,2018-06-29 09:36:42.937500,29.17,79.5
99551,2018-06-29 09:36:42.968750,40.86,79.5
99552,2018-06-29 09:36:43.000000,48.54,79.5
99553,2018-06-29 09:36:43.031250,52.04,79.5
99554,2018-06-29 09:36:43.062500,51.12,79.5
99555,2018-06-29 09:36:43.093750,45.71,79.5
99556,2018-06-29 09:36:43.125000,34.97,79.5
99557,2018-06-29 09:36:43.156250,19.0,79.5
99558,2018-06-29 09:36:43.187500,0.94,79.5
99559,2018-06-29 09:36:43.218750,-15.91,79.5
99560,2018-06-29 09:36:43.250000,-32.22,79.5
99561,2018-06-29 09:36:43.281250,-50.86,79.5
99562,2018-06-29 09:36:43.312500,-71.53,79.5
99563,2018-06-29 09:36:43.343750,-87.07,79.5
99564,2018-06-29 09:36:43.375000,-86.53,79.5
99565,2018-06-29 09:36:43.406250,-65.22,79.5
99566,2018-06-29 09:36:43.437500,-30.36,79.5
99567,2018-06-29 09:36:43.468750,5.43,79.5
99568,2018-06-29 09:36:43.500000,33.37,79.5
99569,2018-06-29 09:36:43.531250,50.59,79.63
99570,2018-06-29 09:36:43.562500,57.74,79.63
99571,2018-06-29 09:36:43.593750,57.54,79.63
99572,2018-06-29 09:36:43.625000,53.42,79.63
99573,2018-06-29 09:36:43.656250,47.49,79.63
99574,2018-06-29 09:36:43.687500,39.9,79.63
99575,2018-06-29 09:36:43.718750,31.8,79.63
99576,2018-06-29 09:36:43.750000,26.22,79.63
99577,2018-06-29 09:36:43.781250,23.59,79.63
99578,2018-06-29 09:36:43.812500,20.04,79.63
99579,2018-06-29 09:36:43.843750,13.29,79.63
99580,2018-06-29 09:36:43.875000,5.21,79.63
99581,2018-06-29 09:36:43.906250,-3.79,79.63
99582,2018-06-29 09:36:43.937500,-17.35,79.63
99583,2018-06-29 09:36:43.968750,-38.44,79.63
99584,2018-06-29 09:36:44.000000,-64.29,79.63
99585,2018-06-29 09:36:44.031250,-85.46,79.63
99586,2018-06-29 09:36:44.062500,-90.41,79.63
99587,2018-06-29 09:36:44.093750,-75.19,79.63
99588,2018-06-29 09:36:44.125000,-47.86,79.63
99589,2018-06-29 09:36:44.156250,-20.04,79.63
99590,2018-06-29 09:36:44.187500,2.53,79.63
99591,2018-06-29 09:36:44.218750,18.94,79.63
99592,2018-06-29 09:36:44.250000,28.39,79.63
99593,2018-06-29 09:36:44.281250,31.04,79.63
99594,2018-06-29 09:36:44.312500,30.31,79.63
99595,2018-06-29 09:36:44.343750,30.05,79.63
99596,2018-06-29 09:36:44.375000,30.65,79.63
99597,2018-06-29 09:36:44.406250,30.3,79.63
99598,2018-06-29 09:36:44.437500,28.67,79.63
99599,2018-06-29 09:36:44.468750,26.34,79.63
99600,2018-06-29 09:36:44.500000,21.93,79.63
99601,2018-06-29 09:36:44.531250,12.86,79.77
99602,2018-06-29 09:36:44.562500,-1.03,79.77
99603,2018-06-29 09:36:44.593750,-16.66,79.77
99604,2018-06-29 09:36:44.625000,-31.3,79.77
99605,2018-06-29 09:36:44.656250,-45.47,79.77
99606,2018-06-29 09:36:44.687500,-61.25,79.77
99607,2018-06-29 09:36:44.718750,-78.74,79.77
99608,2018-06-29 09:36:44.750000,-93.17,79.77
99609,2018-06-29 09:36:44.781250,-95.3,79.77
99610,2018-06-29 09:36:44.812500,-78.8,79.77
99611,2018-06-29 09:36:44.843750,-48.0,79.77
99612,2018-06-29 09:36:44.875000,-13.96,79.77
99613,2018-06-29 09:36:44.906250,15.86,79.77
99614,2018-06-29 09:36:44.937500,39.24,79.77
99615,2018-06-29 09:36:44.968750,54.12,79.77
99616,2018-06-29 09:36:45.000000,59.21,79.77
99617,2018-06-29 09:36:45.031250,56.72,79.77
99618,2018-06-29 09:36:45.062500,49.5,79.77
99619,2018-06-29 09:36:45.093750,38.2,79.77
99620,2018-06-29 09:36:45.125000,23.61,79.77
99621,2018-06-29 09:36:45.156250,8.29,79.77
99622,2018-06-29 09:36:45.187500,-6.52,79.77
99623,2018-06-29 09:36:45.218750,-22.75,79.77
99624,2018-06-29 09:36:45.250000,-42.07,79.77
99625,2018-06-29 09:36:45.281250,-62.24,79.77
99626,2018-06-29 09:36:45.312500,-79.33,79.77
99627,2018-06-29 09:36:45.343750,-93.39,79.77
99628,2018-06-29 09:36:45.375000,-108.35,79.77
99629,2018-06-29 09:36:45.406250,-125.56,79.77
99630,2018-06-29 09:36:45.437500,-141.17,79.77
99631,2018-06-29 09:36:45.468750,-152.4,79.77
99632,2018-06-29 09:36:45.500000,-162.16,79.77
99633,2018-06-29 09:36:45.531250,-174.42,79.88
99634,2018-06-29 09:36:45.562500,-185.9,79.88
99635,2018-06-29 09:36:45.593750,-184.14,79.88
99636,2018-06-29 09:36:45.625000,-156.4,79.88
99637,2018-06-29 09:36:45.656250,-101.14,79.88
99638,2018-06-29 09:36:45.687500,-28.46,79.88
99639,2018-06-29 09:36:45.718750,50.66,79.88
99640,2018-06-29 09:36:45.750000,130.83,79.88
99641,2018-06-29 09:36:45.781250,209.08,79.88
99642,2018-06-29 09:36:45.812500,281.41,79.88
99643,2018-06-29 09:36:45.843750,342.44,79.88
99644,2018-06-29 09:36:45.875000,385.36,79.88
99645,2018-06-29 09:36:45.906250,401.11,79.88
99646,2018-06-29 09:36:45.937500,380.3,79.88
99647,2018-06-29 09:36:45.968750,321.69,79.88
99648,2018-06-29 09:36:46.000000,246.06,79.88
99649,2018-06-29 09:36:46.031250,198.12,79.88
99650,2018-06-29 09:36:46.062500,213.8,79.88
99651,2018-06-29 09:36:46.093750,277.41,79.88
99652,2018-06-29 09:36:46.125000,330.46,79.88
99653,2018-06-29 09:36:46.156250,326.66,79.88
99654,2018-06-29 09:36:46.187500,261.51,79.88
99655,2018-06-29 09:36:46.218750,155.91,79.88
99656,2018-06-29 09:36:46.250000,31.93,79.88
99657,2018-06-29 09:36:46.281250,-100.18,79.88
99658,2018-06-29 09:36:46.312500,-238.81,79.88
99659,2018-06-29 09:36:46.343750,-369.29,79.88
99660,2018-06-29 09:36:46.375000,-450.52,79.88
99661,2018-06-29 09:36:46.406250,-439.04,79.88
99662,2018-06-29 09:36:46.437500,-339.77,79.88
99663,2018-06-29 09:36:46.468750,-221.01,79.88
99664,2018-06-29 09:36:46.500000,-149.23,79.88
99665,2018-06-29 09:36:46.531250,-122.1,79.97
99666,2018-06-29 09:36:46.562500,-102.58,79.97
99667,2018-06-29 09:36:46.593750,-85.28,79.97
99668,2018-06-29 09:36:46.625000,-80.38,79.97
99669,2018-06-29 09:36:46.656250,-76.87,79.97
99670,2018-06-29 09:36:46.687500,-65.29,79.97
99671,2018-06-29 09:36:46.718750,-55.18,79.97
99672,2018-06-29 09:36:46.750000,-48.08,79.97
99673,2018-06-29 09:36:46.781250,-30.53,79.97
99674,2018-06-29 09:36:46.812500,-1.36,79.97
99675,2018-06-29 09:36:46.843750,22.53,79.97
99676,2018-06-29 09:36:46.875000,29.3,79.97
99677,2018-06-29 09:36:46.906250,24.71,79.97
99678,2018-06-29 09:36:46.937500,19.71,79.97
99679,2018-06-29 09:36:46.968750,14.74,79.97
99680,2018-06-29 09:36:47.000000,1.71,79.97
99681,2018-06-29 09:36:47.031250,-22.95,79.97
99682,2018-06-29 09:36:47.062500,-52.9,79.97
99683,2018-06-29 09:36:47.093750,-80.39,79.97
99684,2018-06-29 09:36:47.125000,-106.88,79.97
99685,2018-06-29 09:36:47.156250,-141.77,79.97
99686,2018-06-29 09:36:47.187500,-188.62,79.97
99687,2018-06-29 09:36:47.218750,-234.14,79.97
99688,2018-06-29 09:36:47.250000,-256.53,79.97
99689,2018-06-29 09:36:47.281250,-245.63,79.97
99690,2018-06-29 09:36:47.312500,-209.55,79.97
99691,2018-06-29 09:36:47.343750,-161.6,79.97
99692,2018-06-29 09:36:47.375000,-108.95,79.97
99693,2018-06-29 09:36:47.406250,-55.63,79.97
99694,2018-06-29 09:36:47.437500,-8.04,79.97
99695,2018-06-29 09:36:47.468750,27.76,79.97
99696,2018-06-29 09:36:47.500000,51.31,79.97
99697,2018-06-29 09:36:47.531250,66.81,80.05
99698,2018-06-29 09:36:47.562500,78.43,80.05
99699,2018-06-29 09:36:47.593750,87.96,80.05
99700,2018-06-29 09:36:47.625000,95.07,80.05
99701,2018-06-29 09:36:47.656250,99.1,80.05
99702,2018-06-29 09:36:47.687500,100.59,80.05
99703,2018-06-29 09:36:47.718750,100.71,80.05
99704,2018-06-29 09:36:47.750000,99.44,80.05
99705,2018-06-29 09:36:47.781250,94.7,80.05
99706,2018-06-29 09:36:47.812500,83.85,80.05
99707,2018-06-29 09:36:47.843750,65.89,80.05
99708,2018-06-29 09:36:47.875000,43.27,80.05
99709,2018-06-29 09:36:47.906250,20.26,80.05
99710,2018-06-29 09:36:47.937500,-1.57,80.05
99711,2018-06-29 09:36:47.968750,-22.67,80.05
99712,2018-06-29 09:36:48.000000,-38.7,80.05
99713,2018-06-29 09:36:48.031250,-39.47,80.05
99714,2018-06-29 09:36:48.062500,-19.1,80.05
99715,2018-06-29 09:36:48.093750,15.16,80.05
99716,2018-06-29 09:36:48.125000,47.45,80.05
99717,2018-06-29 09:36:48.156250,65.02,80.05
99718,2018-06-29 09:36:48.187500,65.08,80.05
99719,2018-06-29 09:36:48.218750,54.16,80.05
99720,2018-06-29 09:36:48.250000,42.48,80.05
99721,2018-06-29 09:36:48.281250,36.77,80.05
99722,2018-06-29 09:36:48.312500,36.86,80.05
99723,2018-06-29 09:36:48.343750,38.56,80.05
99724,2018-06-29 09:36:48.375000,38.74,80.05
99725,2018-06-29 09:36:48.406250,36.79,80.05
99726,2018-06-29 09:36:48.437500,32.06,80.05
99727,2018-06-29 09:36:48.468750,22.91,80.05
99728,2018-06-29 09:36:48.500000,8.37,80.05
99729,2018-06-29 09:36:48.531250,-11.2,80.13
99730,2018-06-29 09:36:48.562500,-32.99,80.13
99731,2018-06-29 09:36:48.593750,-49.65,80.13
99732,2018-06-29 09:36:48.625000,-54.48,80.13
99733,2018-06-29 09:36:48.656250,-51.15,80.13
99734,2018-06-29 09:36:48.687500,-51.06,80.13
99735,2018-06-29 09:36:48.718750,-60.03,80.13
99736,2018-06-29 09:36:48.750000,-72.45,80.13
99737,2018-06-29 09:36:48.781250,-75.82,80.13
99738,2018-06-29 09:36:48.812500,-59.85,80.13
99739,2018-06-29 09:36:48.843750,-26.44,80.13
99740,2018-06-29 09:36:48.875000,10.89,80.13
99741,2018-06-29 09:36:48.906250,41.08,80.13
99742,2018-06-29 09:36:48.937500,63.27,80.13
99743,2018-06-29 09:36:48.968750,79.37,80.13
99744,2018-06-29 09:36:49.000000,88.31,80.13
99745,2018-06-29 09:36:49.031250,89.89,80.13
99746,2018-06-29 09:36:49.062500,87.78,80.13
99747,2018-06-29 09:36:49.093750,87.1,80.13
99748,2018-06-29 09:36:49.125000,90.91,80.13
99749,2018-06-29 09:36:49.156250,98.27,80.13
99750,2018-06-29 09:36:49.187500,104.83,80.13
99751,2018-06-29 09:36:49.218750,105.76,80.13
99752,2018-06-29 09:36:49.250000,98.74,80.13
99753,2018-06-29 09:36:49.281250,84.51,80.13
99754,2018-06-29 09:36:49.312500,64.93,80.13
99755,2018-06-29 09:36:49.343750,41.11,80.13
99756,2018-06-29 09:36:49.375000,14.25,80.13
99757,2018-06-29 09:36:49.406250,-13.36,80.13
99758,2018-06-29 09:36:49.437500,-39.95,80.13
99759,2018-06-29 09:36:49.468750,-65.1,80.13
99760,2018-06-29 09:36:49.500000,-87.82,80.13
99761,2018-06-29 09:36:49.531250,-103.42,80.17
99762,2018-06-29 09:36:49.562500,-102.86,80.17
99763,2018-06-29 09:36:49.593750,-78.53,80.17
99764,2018-06-29 09:36:49.625000,-33.56,80.17
99765,2018-06-29 09:36:49.656250,18.44,80.17
99766,2018-06-29 09:36:49.687500,64.91,80.17
99767,2018-06-29 09:36:49.718750,100.63,80.17
99768,2018-06-29 09:36:49.750000,123.73,80.17
99769,2018-06-29 09:36:49.781250,134.31,80.17
99770,2018-06-29 09:36:49.812500,137.04,80.17
99771,2018-06-29 09:36:49.843750,137.7,80.17
99772,2018-06-29 09:36:49.875000,138.25,80.17
99773,2018-06-29 09:36:49.906250,139.73,80.17
99774,2018-06-29 09:36:49.937500,143.98,80.17
99775,2018-06-29 09:36:49.968750,148.14,80.17
99776,2018-06-29 09:36:50.000000,144.35,80.17
99777,2018-06-29 09:36:50.031250,127.68,80.17
99778,2018-06-29 09:36:50.062500,98.68,80.17
99779,2018-06-29 09:36:50.093750,59.68,80.17
99780,2018-06-29 09:36:50.125000,13.73,80.17
99781,2018-06-29 09:36:50.156250,-34.03,80.17
99782,2018-06-29 09:36:50.187500,-77.54,80.17
99783,2018-06-29 09:36:50.218750,-112.52,80.17
99784,2018-06-29 09:36:50.250000,-138.81,80.17
99785,2018-06-29 09:36:50.281250,-160.36,80.17
99786,2018-06-29 09:36:50.312500,-179.28,80.17
99787,2018-06-29 09:36:50.343750,-188.66,80.17
99788,2018-06-29 09:36:50.375000,-175.93,80.17
99789,2018-06-29 09:36:50.406250,-137.38,80.17
99790,2018-06-29 09:36:50.437500,-84.68,80.17
99791,2018-06-29 09:36:50.468750,-33.71,80.17
99792,2018-06-29 09:36:50.500000,7.14,80.17
99793,2018-06-29 09:36:50.531250,36.47,80.17
99794,2018-06-29 09:36:50.562500,54.89,80.17
99795,2018-06-29 09:36:50.593750,64.15,80.17
99796,2018-06-29 09:36:50.625000,67.89,80.17
99797,2018-06-29 09:36:50.656250,69.69,80.17
99798,2018-06-29 09:36:50.687500,70.52,80.17
99799,2018-06-29 09:36:50.718750,69.53,80.17
99800,2018-06-29 09:36:50.750000,67.26,80.17
99801,2018-06-29 09:36:50.781250,64.98,80.17
99802,2018-06-29 09:36:50.812500,61.05,80.17
99803,2018-06-29 09:36:50.843750,52.39,80.17
99804,2018-06-29 09:36:50.875000,38.94,80.17
99805,2018-06-29 09:36:50.906250,23.67,80.17
99806,2018-06-29 09:36:50.937500,8.89,80.17
99807,2018-06-29 09:36:50.968750,-5.6,80.17
99808,2018-06-29 09:36:51.000000,-21.19,80.17
99809,2018-06-29 09:36:51.031250,-38.73,80.17
99810,2018-06-29 09:36:51.062500,-57.54,80.17
99811,2018-06-29 09:36:51.093750,-75.93,80.17
99812,2018-06-29 09:36:51.125000,-93.59,80.17
99813,2018-06-29 09:36:51.156250,-112.86,80.17
99814,2018-06-29 09:36:51.187500,-136.66,80.17
99815,2018-06-29 09:36:51.218750,-163.44,80.17
99816,2018-06-29 09:36:51.250000,-182.97,80.17
99817,2018-06-29 09:36:51.281250,-181.35,80.17
99818,2018-06-29 09:36:51.312500,-154.48,80.17
99819,2018-06-29 09:36:51.343750,-113.55,80.17
99820,2018-06-29 09:36:51.375000,-72.37,80.17
99821,2018-06-29 09:36:51.406250,-35.1,80.17
99822,2018-06-29 09:36:51.437500,0.04,80.17
99823,2018-06-29 09:36:51.468750,32.54,80.17
99824,2018-06-29 09:36:51.500000,60.34,80.17
99825,2018-06-29 09:36:51.531250,83.23,80.13
99826,2018-06-29 09:36:51.562500,101.82,80.13
99827,2018-06-29 09:36:51.593750,116.33,80.13
99828,2018-06-29 09:36:51.625000,126.77,80.13
99829,2018-06-29 09:36:51.656250,130.22,80.13
99830,2018-06-29 09:36:51.687500,119.36,80.13
99831,2018-06-29 09:36:51.718750,89.01,80.13
99832,2018-06-29 09:36:51.750000,43.49,80.13
99833,2018-06-29 09:36:51.781250,-5.76,80.13
99834,2018-06-29 09:36:51.812500,-48.04,80.13
99835,2018-06-29 09:36:51.843750,-77.49,80.13
99836,2018-06-29 09:36:51.875000,-94.74,80.13
99837,2018-06-29 09:36:51.906250,-106.21,80.13
99838,2018-06-29 09:36:51.937500,-117.53,80.13
99839,2018-06-29 09:36:51.968750,-127.43,80.13
99840,2018-06-29 09:36:52.000000,-132.0,80.13
99841,2018-06-29 09:36:52.031250,-132.1,80.13
99842,2018-06-29 09:36:52.062500,-132.27,80.13
99843,2018-06-29 09:36:52.093750,-133.94,80.13
99844,2018-06-29 09:36:52.125000,-131.03,80.13
99845,2018-06-29 09:36:52.156250,-112.25,80.13
99846,2018-06-29 09:36:52.187500,-72.22,80.13
99847,2018-06-29 09:36:52.218750,-21.8,80.13
99848,2018-06-29 09:36:52.250000,19.16,80.13
99849,2018-06-29 09:36:52.281250,39.53,80.13
99850,2018-06-29 09:36:52.312500,41.58,80.13
99851,2018-06-29 09:36:52.343750,32.94,80.13
99852,2018-06-29 09:36:52.375000,22.1,80.13
99853,2018-06-29 09:36:52.406250,17.97,80.13
99854,2018-06-29 09:36:52.437500,25.21,80.13
99855,2018-06-29 09:36:52.468750,41.29,80.13
99856,2018-06-29 09:36:52.500000,60.87,80.13
99857,2018-06-29 09:36:52.531250,80.53,80.13
99858,2018-06-29 09:36:52.562500,97.59,80.13
99859,2018-06-29 09:36:52.593750,108.38,80.13
99860,2018-06-29 09:36:52.625000,110.58,80.13
99861,2018-06-29 09:36:52.656250,104.95,80.13
99862,2018-06-29 09:36:52.687500,93.26,80.13
99863,2018-06-29 09:36:52.718750,77.24,80.13
99864,2018-06-29 09:36:52.750000,59.68,80.13
99865,2018-06-29 09:36:52.781250,42.92,80.13
99866,2018-06-29 09:36:52.812500,25.73,80.13
99867,2018-06-29 09:36:52.843750,5.09,80.13
99868,2018-06-29 09:36:52.875000,-18.64,80.13
99869,2018-06-29 09:36:52.906250,-41.75,80.13
99870,2018-06-29 09:36:52.937500,-61.79,80.13
99871,2018-06-29 09:36:52.968750,-79.39,80.13
99872,2018-06-29 09:36:53.000000,-96.42,80.13
99873,2018-06-29 09:36:53.031250,-112.87,80.13
99874,2018-06-29 09:36:53.062500,-122.91,80.13
99875,2018-06-29 09:36:53.093750,-116.05,80.13
99876,2018-06-29 09:36:53.125000,-86.77,80.13
99877,2018-06-29 09:36:53.156250,-42.26,80.13
99878,2018-06-29 09:36:53.187500,3.32,80.13
99879,2018-06-29 09:36:53.218750,40.79,80.13
99880,2018-06-29 09:36:53.250000,68.36,80.13
99881,2018-06-29 09:36:53.281250,85.72,80.13
99882,2018-06-29 09:36:53.312500,92.47,80.13
99883,2018-06-29 09:36:53.343750,91.64,80.13
99884,2018-06-29 09:36:53.375000,88.23,80.13
99885,2018-06-29 09:36:53.406250,84.17,80.13
99886,2018-06-29 09:36:53.437500,78.75,80.13
99887,2018-06-29 09:36:53.468750,72.42,80.13
99888,2018-06-29 09:36:53.500000,65.85,80.13
99889,2018-06-29 09:36:53.531250,57.11,80.12
99890,2018-06-29 09:36:53.562500,43.99,80.12
99891,2018-06-29 09:36:53.593750,28.0,80.12
99892,2018-06-29 09:36:53.625000,12.71,80.12
99893,2018-06-29 09:36:53.656250,-0.88,80.12
99894,2018-06-29 09:36:53.687500,-14.69,80.12
99895,2018-06-29 09:36:53.718750,-29.56,80.12
99896,2018-06-29 09:36:53.750000,-43.22,80.12
99897,2018-06-29 09:36:53.781250,-54.17,80.12
99898,2018-06-29 09:36:53.812500,-64.78,80.12
99899,2018-06-29 09:36:53.843750,-78.56,80.12
99900,2018-06-29 09:36:53.875000,-95.11,80.12
99901,2018-06-29 09:36:53.906250,-107.45,80.12
99902,2018-06-29 09:36:53.937500,-104.27,80.12
99903,2018-06-29 09:36:53.968750,-79.2,80.12
99904,2018-06-29 09:36:54.000000,-39.39,80.12
99905,2018-06-29 09:36:54.031250,0.1,80.12
99906,2018-06-29 09:36:54.062500,29.89,80.12
99907,2018-06-29 09:36:54.093750,48.75,80.12
99908,2018-06-29 09:36:54.125000,57.31,80.12
99909,2018-06-29 09:36:54.156250,56.6,80.12
99910,2018-06-29 09:36:54.187500,50.7,80.12
99911,2018-06-29 09:36:54.218750,44.53,80.12
99912,2018-06-29 09:36:54.250000,39.94,80.12
99913,2018-06-29 09:36:54.281250,36.09,80.12
99914,2018-06-29 09:36:54.312500,32.2,80.12
99915,2018-06-29 09:36:54.343750,28.05,80.12
99916,2018-06-29 09:36:54.375000,22.03,80.12
99917,2018-06-29 09:36:54.406250,11.65,80.12
99918,2018-06-29 09:36:54.437500,-2.66,80.12
99919,2018-06-29 09:36:54.468750,-16.08,80.12
99920,2018-06-29 09:36:54.500000,-24.95,80.12
99921,2018-06-29 09:36:54.531250,-32.07,80.08
99922,2018-06-29 09:36:54.562500,-42.07,80.08
99923,2018-06-29 09:36:54.593750,-53.67,80.08
99924,2018-06-29 09:36:54.625000,-61.66,80.08
99925,2018-06-29 09:36:54.656250,-64.8,80.08
99926,2018-06-29 09:36:54.687500,-67.87,80.08
99927,2018-06-29 09:36:54.718750,-75.67,80.08
99928,2018-06-29 09:36:54.750000,-86.29,80.08
99929,2018-06-29 09:36:54.781250,-89.65,80.08
99930,2018-06-29 09:36:54.812500,-75.04,80.08
99931,2018-06-29 09:36:54.843750,-42.11,80.08
99932,2018-06-29 09:36:54.875000,-2.12,80.08
99933,2018-06-29 09:36:54.906250,32.45,80.08
99934,2018-06-29 09:36:54.937500,55.93,80.08
99935,2018-06-29 09:36:54.968750,67.95,80.08
99936,2018-06-29 09:36:55.000000,69.82,80.08
99937,2018-06-29 09:36:55.031250,64.65,80.08
99938,2018-06-29 09:36:55.062500,57.57,80.08
99939,2018-06-29 09:36:55.093750,52.51,80.08
99940,2018-06-29 09:36:55.125000,49.49,80.08
99941,2018-06-29 09:36:55.156250,46.49,80.08
99942,2018-06-29 09:36:55.187500,42.59,80.08
99943,2018-06-29 09:36:55.218750,38.38,80.08
99944,2018-06-29 09:36:55.250000,33.86,80.08
99945,2018-06-29 09:36:55.281250,27.17,80.08
99946,2018-06-29 09:36:55.312500,16.31,80.08
99947,2018-06-29 09:36:55.343750,1.39,80.08
99948,2018-06-29 09:36:55.375000,-15.42,80.08
99949,2018-06-29 09:36:55.406250,-31.8,80.08
99950,2018-06-29 09:36:55.437500,-46.72,80.08
99951,2018-06-29 09:36:55.468750,-61.27,80.08
99952,2018-06-29 09:36:55.500000,-77.46,80.08
99953,2018-06-29 09:36:55.531250,-92.57,80.05
99954,2018-06-29 09:36:55.562500,-96.23,80.05
99955,2018-06-29 09:36:55.593750,-78.44,80.05
99956,2018-06-29 09:36:55.625000,-41.7,80.05
99957,2018-06-29 09:36:55.656250,0.16,80.05
99958,2018-06-29 09:36:55.687500,34.64,80.05
99959,2018-06-29 09:36:55.718750,57.72,80.05
99960,2018-06-29 09:36:55.750000,70.25,80.05
99961,2018-06-29 09:36:55.781250,73.72,80.05
99962,2018-06-29 09:36:55.812500,70.27,80.05
99963,2018-06-29 09:36:55.843750,63.15,80.05
99964,2018-06-29 09:36:55.875000,55.83,80.05
99965,2018-06-29 09:36:55.906250,50.74,80.05
99966,2018-06-29 09:36:55.937500,47.61,80.05
99967,2018-06-29 09:36:55.968750,44.16,80.05
99968,2018-06-29 09:36:56.000000,38.85,80.05
99969,2018-06-29 09:36:56.031250,31.28,80.05
99970,2018-06-29 09:36:56.062500,20.13,80.05
99971,2018-06-29 09:36:56.093750,4.2,80.05
99972,2018-06-29 09:36:56.125000,-13.97,80.05
99973,2018-06-29 09:36:56.156250,-29.79,80.05
99974,2018-06-29 09:36:56.187500,-41.96,80.05
99975,2018-06-29 09:36:56.218750,-53.2,80.05
99976,2018-06-29 09:36:56.250000,-66.71,80.05
99977,2018-06-29 09:36:56.281250,-81.51,80.05
99978,2018-06-29 09:36:56.312500,-88.53,80.05
99979,2018-06-29 09:36:56.343750,-74.78,80.05
99980,2018-06-29 09:36:56.375000,-37.96,80.05
99981,2018-06-29 09:36:56.406250,7.71,80.05
99982,2018-06-29 09:36:56.437500,45.86,80.05
99983,2018-06-29 09:36:56.468750,71.39,80.05
99984,2018-06-29 09:36:56.500000,86.53,80.05
99985,2018-06-29 09:36:56.531250,93.04,79.98
99986,2018-06-29 09:36:56.562500,92.63,79.98
99987,2018-06-29 09:36:56.593750,88.91,79.98
99988,2018-06-29 09:36:56.625000,84.12,79.98
99989,2018-06-29 09:36:56.656250,77.3,79.98
99990,2018-06-29 09:36:56.687500,67.69,79.98
99991,2018-06-29 09:36:56.718750,56.54,79.98
99992,2018-06-29 09:36:56.750000,43.35,79.98
99993,2018-06-29 09:36:56.781250,23.79,79.98
99994,2018-06-29 09:36:56.812500,-5.28,79.98
99995,2018-06-29 09:36:56.843750,-40.89,79.98
99996,2018-06-29 09:36:56.875000,-76.45,79.98
99997,2018-06-29 09:36:56.906250,-107.63,79.98
99998,2018-06-29 09:36:56.937500,-134.75,79.98
99999,2018-06-29 09:36:56.968750,-159.84,79.98
100000,2018-06-29 09:36:57.000000,-181.08,79.98
100001,2018-06-29 09:36:57.031250,-189.54,79.98
100002,2018-06-29 09:36:57.062500,-174.04,79.98
100003,2018-06-29 09:36:57.093750,-132.7,79.98
100004,2018-06-29 09:36:57.125000,-77.36,79.98
100005,2018-06-29 09:36:57.156250,-24.04,79.98
100006,2018-06-29 09:36:57.187500,18.41,79.98
100007,2018-06-29 09:36:57.218750,48.52,79.98
100008,2018-06-29 09:36:57.250000,66.86,79.98
100009,2018-06-29 09:36:57.281250,75.19,79.98
100010,2018-06-29 09:36:57.312500,76.97,79.98
100011,2018-06-29 09:36:57.343750,74.76,79.98
100012,2018-06-29 09:36:57.375000,69.15,79.98
100013,2018-06-29 09:36:57.406250,61.5,79.98
100014,2018-06-29 09:36:57.437500,54.49,79.98
100015,2018-06-29 09:36:57.468750,48.5,79.98
100016,2018-06-29 09:36:57.500000,40.12,79.98
100017,2018-06-29 09:36:57.531250,26.36,79.88
100018,2018-06-29 09:36:57.562500,9.43,79.88
100019,2018-06-29 09:36:57.593750,-5.41,79.88
100020,2018-06-29 09:36:57.625000,-17.08,79.88
100021,2018-06-29 09:36:57.656250,-30.62,79.88
100022,2018-06-29 09:36:57.687500,-49.51,79.88
100023,2018-06-29 09:36:57.718750,-67.54,79.88
100024,2018-06-29 09:36:57.750000,-70.2,79.88
100025,2018-06-29 09:36:57.781250,-47.71,79.88
100026,2018-06-29 09:36:57.812500,-7.17,79.88
100027,2018-06-29 09:36:57.843750,32.79,79.88
100028,2018-06-29 09:36:57.875000,60.2,79.88
100029,2018-06-29 09:36:57.906250,75.72,79.88
100030,2018-06-29 09:36:57.937500,82.36,79.88
100031,2018-06-29 09:36:57.968750,80.39,79.88
100032,2018-06-29 09:36:58.000000,72.67,79.88
100033,2018-06-29 09:36:58.031250,65.1,79.88
100034,2018-06-29 09:36:58.062500,59.99,79.88
100035,2018-06-29 09:36:58.093750,54.86,79.88
100036,2018-06-29 09:36:58.125000,47.92,79.88
100037,2018-06-29 09:36:58.156250,39.23,79.88
100038,2018-06-29 09:36:58.187500,28.09,79.88
100039,2018-06-29 09:36:58.218750,13.64,79.88
100040,2018-06-29 09:36:58.250000,-2.86,79.88
100041,2018-06-29 09:36:58.281250,-19.55,79.88
100042,2018-06-29 09:36:58.312500,-36.28,79.88
100043,2018-06-29 09:36:58.343750,-52.72,79.88
100044,2018-06-29 09:36:58.375000,-67.11,79.88
100045,2018-06-29 09:36:58.406250,-78.97,79.88
100046,2018-06-29 09:36:58.437500,-91.44,79.88
100047,2018-06-29 09:36:58.468750,-108.31,79.88
100048,2018-06-29 09:36:58.500000,-126.24,79.88
100049,2018-06-29 09:36:58.531250,-130.99,79.75
100050,2018-06-29 09:36:58.562500,-108.81,79.75
100051,2018-06-29 09:36:58.593750,-63.16,79.75
100052,2018-06-29 09:36:58.625000,-12.54,79.75
100053,2018-06-29 09:36:58.656250,27.88,79.75
100054,2018-06-29 09:36:58.687500,54.99,79.75
100055,2018-06-29 09:36:58.718750,70.93,79.75
100056,2018-06-29 09:36:58.750000,77.64,79.75
100057,2018-06-29 09:36:58.781250,78.17,79.75
100058,2018-06-29 09:36:58.812500,76.37,79.75
100059,2018-06-29 09:36:58.843750,74.04,79.75
100060,2018-06-29 09:36:58.875000,70.67,79.75
100061,2018-06-29 09:36:58.906250,65.98,79.75
100062,2018-06-29 09:36:58.937500,61.03,79.75
100063,2018-06-29 09:36:58.968750,55.92,79.75
100064,2018-06-29 09:36:59.000000,48.36,79.75
100065,2018-06-29 09:36:59.031250,36.48,79.75
100066,2018-06-29 09:36:59.062500,22.06,79.75
100067,2018-06-29 09:36:59.093750,8.68,79.75
100068,2018-06-29 09:36:59.125000,-2.17,79.75
100069,2018-06-29 09:36:59.156250,-11.87,79.75
100070,2018-06-29 09:36:59.187500,-22.36,79.75
100071,2018-06-29 09:36:59.218750,-33.77,79.75
100072,2018-06-29 09:36:59.250000,-44.8,79.75
100073,2018-06-29 09:36:59.281250,-55.2,79.75
100074,2018-06-29 09:36:59.312500,-67.18,79.75
100075,2018-06-29 09:36:59.343750,-83.33,79.75
100076,2018-06-29 09:36:59.375000,-101.67,79.75
100077,2018-06-29 09:36:59.406250,-110.97,79.75
100078,2018-06-29 09:36:59.437500,-96.48,79.75
100079,2018-06-29 09:36:59.468750,-56.13,79.75
100080,2018-06-29 09:36:59.500000,-5.29,79.75
100081,2018-06-29 09:36:59.531250,38.4,79.63
100082,2018-06-29 09:36:59.562500,68.26,79.63
100083,2018-06-29 09:36:59.593750,85.39,79.63
100084,2018-06-29 09:36:59.625000,92.06,79.63
100085,2018-06-29 09:36:59.656250,91.04,79.63
100086,2018-06-29 09:36:59.687500,85.72,79.63
100087,2018-06-29 09:36:59.718750,79.14,79.63
100088,2018-06-29 09:36:59.750000,73.17,79.63
100089,2018-06-29 09:36:59.781250,68.47,79.63
100090,2018-06-29 09:36:59.812500,65.23,79.63
100091,2018-06-29 09:36:59.843750,62.49,79.63
100092,2018-06-29 09:36:59.875000,57.52,79.63
100093,2018-06-29 09:36:59.906250,48.42,79.63
100094,2018-06-29 09:36:59.937500,36.41,79.63
100095,2018-06-29 09:36:59.968750,23.42,79.63
100096,2018-06-29 09:37:00.000000,10.2,79.63
100097,2018-06-29 09:37:00.031250,-2.39,79.63
100098,2018-06-29 09:37:00.062500,-13.5,79.63
100099,2018-06-29 09:37:00.093750,-23.87,79.63
100100,2018-06-29 09:37:00.125000,-35.09,79.63
100101,2018-06-29 09:37:00.156250,-47.09,79.63
100102,2018-06-29 09:37:00.187500,-57.59,79.63
100103,2018-06-29 09:37:00.218750,-64.3,79.63
100104,2018-06-29 09:37:00.250000,-68.23,79.63
100105,2018-06-29 09:37:00.281250,-74.17,79.63
100106,2018-06-29 09:37:00.312500,-85.32,79.63
100107,2018-06-29 09:37:00.343750,-95.35,79.63
100108,2018-06-29 09:37:00.375000,-89.82,79.63
100109,2018-06-29 09:37:00.406250,-61.11,79.63
100110,2018-06-29 09:37:00.437500,-19.4,79.63
100111,2018-06-29 09:37:00.468750,17.23,79.63
100112,2018-06-29 09:37:00.500000,39.67,79.63
100113,2018-06-29 09:37:00.531250,49.38,79.52
100114,2018-06-29 09:37:00.562500,49.85,79.52
100115,2018-06-29 09:37:00.593750,44.37,79.52
100116,2018-06-29 09:37:00.625000,37.81,79.52
100117,2018-06-29 09:37:00.656250,34.16,79.52
100118,2018-06-29 09:37:00.687500,33.04,79.52
100119,2018-06-29 09:37:00.718750,31.62,79.52
100120,2018-06-29 09:37:00.750000,29.0,79.52
100121,2018-06-29 09:37:00.781250,25.7,79.52
100122,2018-06-29 09:37:00.812500,20.67,79.52
100123,2018-06-29 09:37:00.843750,12.47,79.52
100124,2018-06-29 09:37:00.875000,2.34,79.52
100125,2018-06-29 09:37:00.906250,-6.67,79.52
100126,2018-06-29 09:37:00.937500,-12.93,79.52
100127,2018-06-29 09:37:00.968750,-17.37,79.52
100128,2018-06-29 09:37:01.000000,-22.16,79.52
100129,2018-06-29 09:37:01.031250,-28.56,79.52
100130,2018-06-29 09:37:01.062500,-35.38,79.52
100131,2018-06-29 09:37:01.093750,-40.42,79.52
100132,2018-06-29 09:37:01.125000,-43.87,79.52
100133,2018-06-29 09:37:01.156250,-48.95,79.52
100134,2018-06-29 09:37:01.187500,-58.05,79.52
100135,2018-06-29 09:37:01.218750,-67.08,79.52
100136,2018-06-29 09:37:01.250000,-63.91,79.52
100137,2018-06-29 09:37:01.281250,-38.5,79.52
100138,2018-06-29 09:37:01.312500,4.53,79.52
100139,2018-06-29 09:37:01.343750,49.18,79.52
100140,2018-06-29 09:37:01.375000,83.87,79.52
100141,2018-06-29 09:37:01.406250,107.11,79.52
100142,2018-06-29 09:37:01.437500,120.95,79.52
100143,2018-06-29 09:37:01.468750,127.43,79.52
100144,2018-06-29 09:37:01.500000,129.52,79.52
100145,2018-06-29 09:37:01.531250,130.5,79.4
100146,2018-06-29 09:37:01.562500,133.22,79.4
100147,2018-06-29 09:37:01.593750,140.41,79.4
100148,2018-06-29 09:37:01.625000,152.95,79.4
100149,2018-06-29 09:37:01.656250,167.28,79.4
100150,2018-06-29 09:37:01.687500,177.24,79.4
100151,2018-06-29 09:37:01.718750,178.52,79.4
100152,2018-06-29 09:37:01.750000,169.7,79.4
100153,2018-06-29 09:37:01.781250,149.0,79.4
100154,2018-06-29 09:37:01.812500,112.49,79.4
100155,2018-06-29 09:37:01.843750,57.23,79.4
100156,2018-06-29 09:37:01.875000,-10.83,79.4
100157,2018-06-29 09:37:01.906250,-73.75,79.4
100158,2018-06-29 09:37:01.937500,-113.79,79.4
100159,2018-06-29 09:37:01.968750,-130.75,79.4
100160,2018-06-29 09:37:02.000000,-139.11,79.4
100161,2018-06-29 09:37:02.031250,-147.38,79.4
100162,2018-06-29 09:37:02.062500,-149.92,79.4
100163,2018-06-29 09:37:02.093750,-137.86,79.4
100164,2018-06-29 09:37:02.125000,-108.97,79.4
100165,2018-06-29 09:37:02.156250,-69.13,79.4
100166,2018-06-29 09:37:02.187500,-29.24,79.4
100167,2018-06-29 09:37:02.218750,1.83,79.4
100168,2018-06-29 09:37:02.250000,22.26,79.4
100169,2018-06-29 09:37:02.281250,34.3,79.4
100170,2018-06-29 09:37:02.312500,40.04,79.4
100171,2018-06-29 09:37:02.343750,41.71,79.4
100172,2018-06-29 09:37:02.375000,40.86,79.4
100173,2018-06-29 09:37:02.406250,35.89,79.4
100174,2018-06-29 09:37:02.437500,24.24,79.4
100175,2018-06-29 09:37:02.468750,8.45,79.4
100176,2018-06-29 09:37:02.500000,-4.03,79.4
100177,2018-06-29 09:37:02.531250,-8.46,79.27
100178,2018-06-29 09:37:02.562500,-6.95,79.27
100179,2018-06-29 09:37:02.593750,-4.62,79.27
100180,2018-06-29 09:37:02.625000,-4.39,79.27
100181,2018-06-29 09:37:02.656250,-6.03,79.27
100182,2018-06-29 09:37:02.687500,-8.67,79.27
100183,2018-06-29 09:37:02.718750,-12.6,79.27
100184,2018-06-29 09:37:02.750000,-16.94,79.27
100185,2018-06-29 09:37:02.781250,-17.86,79.27
100186,2018-06-29 09:37:02.812500,-13.97,79.27
100187,2018-06-29 09:37:02.843750,-10.03,79.27
100188,2018-06-29 09:37:02.875000,-11.47,79.27
100189,2018-06-29 09:37:02.906250,-18.91,79.27
100190,2018-06-29 09:37:02.937500,-26.51,79.27
100191,2018-06-29 09:37:02.968750,-22.0,79.27
100192,2018-06-29 09:37:03.000000,3.94,79.27
100193,2018-06-29 09:37:03.031250,43.35,79.27
100194,2018-06-29 09:37:03.062500,76.56,79.27
100195,2018-06-29 09:37:03.093750,92.75,79.27
100196,2018-06-29 09:37:03.125000,94.28,79.27
100197,2018-06-29 09:37:03.156250,84.8,79.27
100198,2018-06-29 09:37:03.187500,67.5,79.27
100199,2018-06-29 09:37:03.218750,52.5,79.27
100200,2018-06-29 09:37:03.250000,51.88,79.27
100201,2018-06-29 09:37:03.281250,66.73,79.27
100202,2018-06-29 09:37:03.312500,88.43,79.27
100203,2018-06-29 09:37:03.343750,111.8,79.27
100204,2018-06-29 09:37:03.375000,136.91,79.27
100205,2018-06-29 09:37:03.406250,159.09,79.27
100206,2018-06-29 09:37:03.437500,167.66,79.27
100207,2018-06-29 09:37:03.468750,156.4,79.27
100208,2018-06-29 09:37:03.500000,130.03,79.27
100209,2018-06-29 09:37:03.531250,101.12,79.1
100210,2018-06-29 09:37:03.562500,81.21,79.1
100211,2018-06-29 09:37:03.593750,70.51,79.1
100212,2018-06-29 09:37:03.625000,58.63,79.1
100213,2018-06-29 09:37:03.656250,38.16,79.1
100214,2018-06-29 09:37:03.687500,11.39,79.1
100215,2018-06-29 09:37:03.718750,-18.33,79.1
100216,2018-06-29 09:37:03.750000,-52.33,79.1
100217,2018-06-29 09:37:03.781250,-91.26,79.1
100218,2018-06-29 09:37:03.812500,-131.89,79.1
100219,2018-06-29 09:37:03.843750,-171.52,79.1
100220,2018-06-29 09:37:03.875000,-211.28,79.1
100221,2018-06-29 09:37:03.906250,-253.45,79.1
100222,2018-06-29 09:37:03.937500,-296.36,79.1
100223,2018-06-29 09:37:03.968750,-334.34,79.1
100224,2018-06-29 09:37:04.000000,-363.44,79.1
100225,2018-06-29 09:37:04.031250,-385.78,79.1
100226,2018-06-29 09:37:04.062500,-410.71,79.1
100227,2018-06-29 09:37:04.093750,-449.12,79.1
100228,2018-06-29 09:37:04.125000,-494.74,79.1
100229,2018-06-29 09:37:04.156250,-513.52,79.1
100230,2018-06-29 09:37:04.187500,-471.67,79.1
100231,2018-06-29 09:37:04.218750,-375.78,79.1
100232,2018-06-29 09:37:04.250000,-266.44,79.1
100233,2018-06-29 09:37:04.281250,-177.01,79.1
100234,2018-06-29 09:37:04.312500,-114.99,79.1
100235,2018-06-29 09:37:04.343750,-72.42,79.1
100236,2018-06-29 09:37:04.375000,-34.68,79.1
100237,2018-06-29 09:37:04.406250,11.61,79.1
100238,2018-06-29 09:37:04.437500,67.19,79.1
100239,2018-06-29 09:37:04.468750,123.26,79.1
100240,2018-06-29 09:37:04.500000,176.9,79.1
100241,2018-06-29 09:37:04.531250,233.19,79.02
100242,2018-06-29 09:37:04.562500,293.96,79.02
100243,2018-06-29 09:37:04.593750,348.8,79.02
100244,2018-06-29 09:37:04.625000,377.41,79.02
100245,2018-06-29 09:37:04.656250,363.22,79.02
100246,2018-06-29 09:37:04.687500,307.54,79.02
100247,2018-06-29 09:37:04.718750,230.22,79.02
100248,2018-06-29 09:37:04.750000,160.49,79.02
100249,2018-06-29 09:37:04.781250,122.32,79.02
100250,2018-06-29 09:37:04.812500,112.13,79.02
100251,2018-06-29 09:37:04.843750,92.18,79.02
100252,2018-06-29 09:37:04.875000,26.88,79.02
100253,2018-06-29 09:37:04.906250,-73.4,79.02
100254,2018-06-29 09:37:04.937500,-161.11,79.02
100255,2018-06-29 09:37:04.968750,-201.06,79.02
100256,2018-06-29 09:37:05.000000,-199.66,79.02
100257,2018-06-29 09:37:05.031250,-184.78,79.02
100258,2018-06-29 09:37:05.062500,-164.41,79.02
100259,2018-06-29 09:37:05.093750,-128.71,79.02
100260,2018-06-29 09:37:05.125000,-74.92,79.02
100261,2018-06-29 09:37:05.156250,-17.18,79.02
100262,2018-06-29 09:37:05.187500,27.55,79.02
100263,2018-06-29 09:37:05.218750,47.02,79.02
100264,2018-06-29 09:37:05.250000,38.67,79.02
100265,2018-06-29 09:37:05.281250,11.28,79.02
100266,2018-06-29 09:37:05.312500,-29.14,79.02
100267,2018-06-29 09:37:05.343750,-75.07,79.02
100268,2018-06-29 09:37:05.375000,-122.28,79.02
100269,2018-06-29 09:37:05.406250,-158.56,79.02
100270,2018-06-29 09:37:05.437500,-189.77,79.02
100271,2018-06-29 09:37:05.468750,-227.18,79.02
100272,2018-06-29 09:37:05.500000,-281.08,79.02
100273,2018-06-29 09:37:05.531250,-341.15,78.92
100274,2018-06-29 09:37:05.562500,-359.52,78.92
100275,2018-06-29 09:37:05.593750,-328.82,78.92
100276,2018-06-29 09:37:05.625000,-292.08,78.92
100277,2018-06-29 09:37:05.656250,-320.18,78.92
100278,2018-06-29 09:37:05.687500,-364.59,78.92
100279,2018-06-29 09:37:05.718750,-362.0,78.92
100280,2018-06-29 09:37:05.750000,-325.77,78.92
100281,2018-06-29 09:37:05.781250,-319.53,78.92
100282,2018-06-29 09:37:05.812500,-347.02,78.92
100283,2018-06-29 09:37:05.843750,-335.39,78.92
100284,2018-06-29 09:37:05.875000,-300.2,78.92
100285,2018-06-29 09:37:05.906250,-101.01,78.92
100286,2018-06-29 09:37:05.937500,241.57,78.92
100287,2018-06-29 09:37:05.968750,419.15,78.92
100288,2018-06-29 09:37:06.000000,481.1,78.92
100289,2018-06-29 09:37:06.031250,475.92,78.92
100290,2018-06-29 09:37:06.062500,411.82,78.92
100291,2018-06-29 09:37:06.093750,307.64,78.92
100292,2018-06-29 09:37:06.125000,212.55,78.92
100293,2018-06-29 09:37:06.156250,122.35,78.92
100294,2018-06-29 09:37:06.187500,51.15,78.92
100295,2018-06-29 09:37:06.218750,-10.37,78.92
100296,2018-06-29 09:37:06.250000,-36.92,78.92
100297,2018-06-29 09:37:06.281250,-21.17,78.92
100298,2018-06-29 09:37:06.312500,18.11,78.92
100299,2018-06-29 09:37:06.343750,49.27,78.92
100300,2018-06-29 09:37:06.375000,65.8,78.92
100301,2018-06-29 09:37:06.406250,112.07,78.92
100302,2018-06-29 09:37:06.437500,191.58,78.92
100303,2018-06-29 09:37:06.468750,270.03,78.92
100304,2018-06-29 09:37:06.500000,305.61,78.92
100305,2018-06-29 09:37:06.531250,309.64,78.85
100306,2018-06-29 09:37:06.562500,322.41,78.85
100307,2018-06-29 09:37:06.593750,375.2,78.85
100308,2018-06-29 09:37:06.625000,456.27,78.85
100309,2018-06-29 09:37:06.656250,506.32,78.85
100310,2018-06-29 09:37:06.687500,482.15,78.85
100311,2018-06-29 09:37:06.718750,413.44,78.85
100312,2018-06-29 09:37:06.750000,378.11,78.85
100313,2018-06-29 09:37:06.781250,402.91,78.85
100314,2018-06-29 09:37:06.812500,427.68,78.85
100315,2018-06-29 09:37:06.843750,384.72,78.85
100316,2018-06-29 09:37:06.875000,267.44,78.85
100317,2018-06-29 09:37:06.906250,105.3,78.85
100318,2018-06-29 09:37:06.937500,-80.26,78.85
100319,2018-06-29 09:37:06.968750,-276.74,78.85
100320,2018-06-29 09:37:07.000000,-465.89,78.85
100321,2018-06-29 09:37:07.031250,-606.69,78.85
100322,2018-06-29 09:37:07.062500,-637.08,78.85
100323,2018-06-29 09:37:07.093750,-531.15,78.85
100324,2018-06-29 09:37:07.125000,-344.36,78.85
100325,2018-06-29 09:37:07.156250,-164.93,78.85
100326,2018-06-29 09:37:07.187500,-41.26,78.85
100327,2018-06-29 09:37:07.218750,30.82,78.85
100328,2018-06-29 09:37:07.250000,73.5,78.85
100329,2018-06-29 09:37:07.281250,90.52,78.85
100330,2018-06-29 09:37:07.312500,58.91,78.85
100331,2018-06-29 09:37:07.343750,-29.56,78.85
100332,2018-06-29 09:37:07.375000,-134.54,78.85
100333,2018-06-29 09:37:07.406250,-205.82,78.85
100334,2018-06-29 09:37:07.437500,-234.69,78.85
100335,2018-06-29 09:37:07.468750,-242.95,78.85
100336,2018-06-29 09:37:07.500000,-247.03,78.85
100337,2018-06-29 09:37:07.531250,-252.42,78.92
100338,2018-06-29 09:37:07.562500,-259.49,78.92
100339,2018-06-29 09:37:07.593750,-259.6,78.92
100340,2018-06-29 09:37:07.625000,-245.87,78.92
100341,2018-06-29 09:37:07.656250,-224.99,78.92
100342,2018-06-29 09:37:07.687500,-208.17,78.92
100343,2018-06-29 09:37:07.718750,-192.62,78.92
100344,2018-06-29 09:37:07.750000,-162.53,78.92
100345,2018-06-29 09:37:07.781250,-108.88,78.92
100346,2018-06-29 09:37:07.812500,-39.22,78.92
100347,2018-06-29 09:37:07.843750,32.98,78.92
100348,2018-06-29 09:37:07.875000,99.93,78.92
100349,2018-06-29 09:37:07.906250,159.52,78.92
100350,2018-06-29 09:37:07.937500,208.98,78.92
100351,2018-06-29 09:37:07.968750,238.38,78.92
100352,2018-06-29 09:37:08.000000,234.01,78.92
100353,2018-06-29 09:37:08.031250,197.82,78.92
100354,2018-06-29 09:37:08.062500,159.37,78.92
100355,2018-06-29 09:37:08.093750,153.76,78.92
100356,2018-06-29 09:37:08.125000,188.79,78.92
100357,2018-06-29 09:37:08.156250,244.07,78.92
100358,2018-06-29 09:37:08.187500,294.29,78.92
100359,2018-06-29 09:37:08.218750,321.78,78.92
100360,2018-06-29 09:37:08.250000,318.61,78.92
100361,2018-06-29 09:37:08.281250,289.18,78.92
100362,2018-06-29 09:37:08.312500,245.74,78.92
100363,2018-06-29 09:37:08.343750,197.89,78.92
100364,2018-06-29 09:37:08.375000,151.56,78.92
100365,2018-06-29 09:37:08.406250,113.87,78.92
100366,2018-06-29 09:37:08.437500,89.75,78.92
100367,2018-06-29 09:37:08.468750,76.06,78.92
100368,2018-06-29 09:37:08.500000,64.5,78.92
100369,2018-06-29 09:37:08.531250,49.29,79.0
100370,2018-06-29 09:37:08.562500,30.07,79.0
100371,2018-06-29 09:37:08.593750,8.16,79.0
100372,2018-06-29 09:37:08.625000,-17.05,79.0
100373,2018-06-29 09:37:08.656250,-48.06,79.0
100374,2018-06-29 09:37:08.687500,-84.91,79.0
100375,2018-06-29 09:37:08.718750,-121.01,79.0
100376,2018-06-29 09:37:08.750000,-147.0,79.0
100377,2018-06-29 09:37:08.781250,-159.5,79.0
100378,2018-06-29 09:37:08.812500,-162.39,79.0
100379,2018-06-29 09:37:08.843750,-161.56,79.0
100380,2018-06-29 09:37:08.875000,-162.92,79.0
100381,2018-06-29 09:37:08.906250,-171.41,79.0
100382,2018-06-29 09:37:08.937500,-183.68,79.0
100383,2018-06-29 09:37:08.968750,-182.85,79.0
100384,2018-06-29 09:37:09.000000,-150.57,79.0
100385,2018-06-29 09:37:09.031250,-88.07,79.0
100386,2018-06-29 09:37:09.062500,-17.0,79.0
100387,2018-06-29 09:37:09.093750,42.87,79.0
100388,2018-06-29 09:37:09.125000,87.54,79.0
100389,2018-06-29 09:37:09.156250,119.63,79.0
100390,2018-06-29 09:37:09.187500,139.36,79.0
100391,2018-06-29 09:37:09.218750,147.84,79.0
100392,2018-06-29 09:37:09.250000,148.31,79.0
100393,2018-06-29 09:37:09.281250,141.86,79.0
100394,2018-06-29 09:37:09.312500,129.3,79.0
100395,2018-06-29 09:37:09.343750,117.38,79.0
100396,2018-06-29 09:37:09.375000,112.76,79.0
100397,2018-06-29 09:37:09.406250,110.77,79.0
100398,2018-06-29 09:37:09.437500,101.9,79.0
100399,2018-06-29 09:37:09.468750,88.42,79.0
100400,2018-06-29 09:37:09.500000,82.25,79.0
100401,2018-06-29 09:37:09.531250,87.02,78.98
100402,2018-06-29 09:37:09.562500,92.94,78.98
100403,2018-06-29 09:37:09.593750,91.81,78.98
100404,2018-06-29 09:37:09.625000,89.87,78.98
100405,2018-06-29 09:37:09.656250,98.98,78.98
100406,2018-06-29 09:37:09.687500,119.95,78.98
100407,2018-06-29 09:37:09.718750,142.83,78.98
100408,2018-06-29 09:37:09.750000,152.84,78.98
100409,2018-06-29 09:37:09.781250,146.51,78.98
100410,2018-06-29 09:37:09.812500,145.49,78.98
100411,2018-06-29 09:37:09.843750,172.29,78.98
100412,2018-06-29 09:37:09.875000,203.99,78.98
100413,2018-06-29 09:37:09.906250,194.75,78.98
100414,2018-06-29 09:37:09.937500,143.44,78.98
100415,2018-06-29 09:37:09.968750,88.41,78.98
100416,2018-06-29 09:37:10.000000,55.84,78.98
100417,2018-06-29 09:37:10.031250,46.17,78.98
100418,2018-06-29 09:37:10.062500,58.56,78.98
100419,2018-06-29 09:37:10.093750,75.14,78.98
100420,2018-06-29 09:37:10.125000,72.33,78.98
100421,2018-06-29 09:37:10.156250,44.71,78.98
100422,2018-06-29 09:37:10.187500,10.67,78.98
100423,2018-06-29 09:37:10.218750,-10.02,78.98
100424,2018-06-29 09:37:10.250000,-25.46,78.98
100425,2018-06-29 09:37:10.281250,-36.6,78.98
100426,2018-06-29 09:37:10.312500,-45.47,78.98
100427,2018-06-29 09:37:10.343750,-41.99,78.98
100428,2018-06-29 09:37:10.375000,-46.08,78.98
100429,2018-06-29 09:37:10.406250,-69.13,78.98
100430,2018-06-29 09:37:10.437500,-91.42,78.98
100431,2018-06-29 09:37:10.468750,-74.43,78.98
100432,2018-06-29 09:37:10.500000,5.89,78.98
100433,2018-06-29 09:37:10.531250,111.52,78.95
100434,2018-06-29 09:37:10.562500,224.02,78.95
100435,2018-06-29 09:37:10.593750,220.53,78.95
100436,2018-06-29 09:37:10.625000,37.02,78.95
100437,2018-06-29 09:37:10.656250,-129.78,78.95
100438,2018-06-29 09:37:10.687500,-266.39,78.95
100439,2018-06-29 09:37:10.718750,-370.01,78.95
100440,2018-06-29 09:37:10.750000,-422.74,78.95
100441,2018-06-29 09:37:10.781250,-427.63,78.95
100442,2018-06-29 09:37:10.812500,-426.96,78.95
100443,2018-06-29 09:37:10.843750,-417.44,78.95
100444,2018-06-29 09:37:10.875000,-382.93,78.95
100445,2018-06-29 09:37:10.906250,-301.9,78.95
100446,2018-06-29 09:37:10.937500,-200.3,78.95
100447,2018-06-29 09:37:10.968750,-112.56,78.95
100448,2018-06-29 09:37:11.000000,-47.67,78.95
100449,2018-06-29 09:37:11.031250,0.24,78.95
100450,2018-06-29 09:37:11.062500,40.29,78.95
100451,2018-06-29 09:37:11.093750,63.09,78.95
100452,2018-06-29 09:37:11.125000,75.02,78.95
100453,2018-06-29 09:37:11.156250,82.15,78.95
100454,2018-06-29 09:37:11.187500,90.31,78.95
100455,2018-06-29 09:37:11.218750,96.53,78.95
100456,2018-06-29 09:37:11.250000,99.37,78.95
100457,2018-06-29 09:37:11.281250,100.45,78.95
100458,2018-06-29 09:37:11.312500,98.36,78.95
100459,2018-06-29 09:37:11.343750,92.15,78.95
100460,2018-06-29 09:37:11.375000,80.45,78.95
100461,2018-06-29 09:37:11.406250,66.92,78.95
100462,2018-06-29 09:37:11.437500,56.62,78.95
100463,2018-06-29 09:37:11.468750,53.37,78.95
100464,2018-06-29 09:37:11.500000,56.09,78.95
100465,2018-06-29 09:37:11.531250,58.61,78.87
100466,2018-06-29 09:37:11.562500,56.29,78.87
100467,2018-06-29 09:37:11.593750,48.47,78.87
100468,2018-06-29 09:37:11.625000,30.79,78.87
100469,2018-06-29 09:37:11.656250,-5.35,78.87
100470,2018-06-29 09:37:11.687500,-59.14,78.87
100471,2018-06-29 09:37:11.718750,-114.88,78.87
100472,2018-06-29 09:37:11.750000,-152.77,78.87
100473,2018-06-29 09:37:11.781250,-157.79,78.87
100474,2018-06-29 09:37:11.812500,-126.56,78.87
100475,2018-06-29 09:37:11.843750,-75.61,78.87
100476,2018-06-29 09:37:11.875000,-30.64,78.87
100477,2018-06-29 09:37:11.906250,0.59,78.87
100478,2018-06-29 09:37:11.937500,28.32,78.87
100479,2018-06-29 09:37:11.968750,53.02,78.87
100480,2018-06-29 09:37:12.000000,60.98,78.87
100481,2018-06-29 09:37:12.031250,47.19,78.87
100482,2018-06-29 09:37:12.062500,19.14,78.87
100483,2018-06-29 09:37:12.093750,-18.41,78.87
100484,2018-06-29 09:37:12.125000,-60.84,78.87
100485,2018-06-29 09:37:12.156250,-95.05,78.87
100486,2018-06-29 09:37:12.187500,-110.46,78.87
100487,2018-06-29 09:37:12.218750,-108.21,78.87
100488,2018-06-29 09:37:12.250000,-91.37,78.87
100489,2018-06-29 09:37:12.281250,-59.5,78.87
100490,2018-06-29 09:37:12.312500,-16.26,78.87
100491,2018-06-29 09:37:12.343750,28.37,78.87
100492,2018-06-29 09:37:12.375000,64.77,78.87
100493,2018-06-29 09:37:12.406250,88.34,78.87
100494,2018-06-29 09:37:12.437500,99.13,78.87
100495,2018-06-29 09:37:12.468750,98.84,78.87
100496,2018-06-29 09:37:12.500000,88.97,78.87
100497,2018-06-29 09:37:12.531250,71.23,78.75
100498,2018-06-29 09:37:12.562500,48.32,78.75
100499,2018-06-29 09:37:12.593750,25.62,78.75
100500,2018-06-29 09:37:12.625000,12.53,78.75
100501,2018-06-29 09:37:12.656250,16.89,78.75
100502,2018-06-29 09:37:12.687500,35.78,78.75
100503,2018-06-29 09:37:12.718750,57.8,78.75
100504,2018-06-29 09:37:12.750000,74.49,78.75
100505,2018-06-29 09:37:12.781250,83.47,78.75
100506,2018-06-29 09:37:12.812500,83.88,78.75
100507,2018-06-29 09:37:12.843750,77.24,78.75
100508,2018-06-29 09:37:12.875000,70.5,78.75
100509,2018-06-29 09:37:12.906250,70.76,78.75
100510,2018-06-29 09:37:12.937500,77.79,78.75
100511,2018-06-29 09:37:12.968750,86.05,78.75
100512,2018-06-29 09:37:13.000000,91.16,78.75
100513,2018-06-29 09:37:13.031250,90.78,78.75
100514,2018-06-29 09:37:13.062500,82.21,78.75
100515,2018-06-29 09:37:13.093750,64.92,78.75
100516,2018-06-29 09:37:13.125000,42.67,78.75
100517,2018-06-29 09:37:13.156250,18.93,78.75
100518,2018-06-29 09:37:13.187500,-6.33,78.75
100519,2018-06-29 09:37:13.218750,-32.83,78.75
100520,2018-06-29 09:37:13.250000,-57.22,78.75
100521,2018-06-29 09:37:13.281250,-76.69,78.75
100522,2018-06-29 09:37:13.312500,-91.87,78.75
100523,2018-06-29 09:37:13.343750,-105.54,78.75
100524,2018-06-29 09:37:13.375000,-120.25,78.75
100525,2018-06-29 09:37:13.406250,-134.89,78.75
100526,2018-06-29 09:37:13.437500,-140.78,78.75
100527,2018-06-29 09:37:13.468750,-127.29,78.75
100528,2018-06-29 09:37:13.500000,-95.21,78.75
100529,2018-06-29 09:37:13.531250,-58.75,78.63
100530,2018-06-29 09:37:13.562500,-30.91,78.63
100531,2018-06-29 09:37:13.593750,-14.38,78.63
100532,2018-06-29 09:37:13.625000,-6.62,78.63
100533,2018-06-29 09:37:13.656250,-6.27,78.63
100534,2018-06-29 09:37:13.687500,-12.64,78.63
100535,2018-06-29 09:37:13.718750,-24.31,78.63
100536,2018-06-29 09:37:13.750000,-39.58,78.63
100537,2018-06-29 09:37:13.781250,-56.98,78.63
100538,2018-06-29 09:37:13.812500,-74.73,78.63
100539,2018-06-29 09:37:13.843750,-90.77,78.63
100540,2018-06-29 09:37:13.875000,-103.7,78.63
100541,2018-06-29 09:37:13.906250,-112.29,78.63
100542,2018-06-29 09:37:13.937500,-114.21,78.63
100543,2018-06-29 09:37:13.968750,-107.93,78.63
100544,2018-06-29 09:37:14.000000,-95.56,78.63
100545,2018-06-29 09:37:14.031250,-80.92,78.63
100546,2018-06-29 09:37:14.062500,-66.12,78.63
100547,2018-06-29 09:37:14.093750,-51.95,78.63
100548,2018-06-29 09:37:14.125000,-40.01,78.63
100549,2018-06-29 09:37:14.156250,-32.66,78.63
100550,2018-06-29 09:37:14.187500,-31.19,78.63
100551,2018-06-29 09:37:14.218750,-32.1,78.63
100552,2018-06-29 09:37:14.250000,-26.38,78.63
100553,2018-06-29 09:37:14.281250,-7.36,78.63
100554,2018-06-29 09:37:14.312500,21.33,78.63
100555,2018-06-29 09:37:14.343750,49.66,78.63
100556,2018-06-29 09:37:14.375000,70.74,78.63
100557,2018-06-29 09:37:14.406250,83.83,78.63
100558,2018-06-29 09:37:14.437500,90.91,78.63
100559,2018-06-29 09:37:14.468750,94.14,78.63
100560,2018-06-29 09:37:14.500000,94.94,78.63
100561,2018-06-29 09:37:14.531250,94.32,78.52
100562,2018-06-29 09:37:14.562500,93.56,78.52
100563,2018-06-29 09:37:14.593750,93.35,78.52
100564,2018-06-29 09:37:14.625000,93.47,78.52
100565,2018-06-29 09:37:14.656250,93.66,78.52
100566,2018-06-29 09:37:14.687500,93.21,78.52
100567,2018-06-29 09:37:14.718750,90.53,78.52
100568,2018-06-29 09:37:14.750000,85.1,78.52
100569,2018-06-29 09:37:14.781250,78.49,78.52
100570,2018-06-29 09:37:14.812500,72.43,78.52
100571,2018-06-29 09:37:14.843750,67.31,78.52
100572,2018-06-29 09:37:14.875000,62.75,78.52
100573,2018-06-29 09:37:14.906250,57.53,78.52
100574,2018-06-29 09:37:14.937500,50.45,78.52
100575,2018-06-29 09:37:14.968750,42.17,78.52
100576,2018-06-29 09:37:15.000000,33.39,78.52
100577,2018-06-29 09:37:15.031250,21.59,78.52
100578,2018-06-29 09:37:15.062500,2.41,78.52
100579,2018-06-29 09:37:15.093750,-25.01,78.52
100580,2018-06-29 09:37:15.125000,-53.86,78.52
100581,2018-06-29 09:37:15.156250,-71.07,78.52
100582,2018-06-29 09:37:15.187500,-67.8,78.52
100583,2018-06-29 09:37:15.218750,-49.85,78.52
100584,2018-06-29 09:37:15.250000,-32.14,78.52
100585,2018-06-29 09:37:15.281250,-22.84,78.52
100586,2018-06-29 09:37:15.312500,-19.36,78.52
100587,2018-06-29 09:37:15.343750,-16.54,78.52
100588,2018-06-29 09:37:15.375000,-12.63,78.52
100589,2018-06-29 09:37:15.406250,-8.15,78.52
100590,2018-06-29 09:37:15.437500,-4.39,78.52
100591,2018-06-29 09:37:15.468750,-2.85,78.52
100592,2018-06-29 09:37:15.500000,-3.97,78.52
100593,2018-06-29 09:37:15.531250,-6.57,78.37
100594,2018-06-29 09:37:15.562500,-9.8,78.37
100595,2018-06-29 09:37:15.593750,-14.5,78.37
100596,2018-06-29 09:37:15.625000,-21.08,78.37
100597,2018-06-29 09:37:15.656250,-27.8,78.37
100598,2018-06-29 09:37:15.687500,-33.01,78.37
100599,2018-06-29 09:37:15.718750,-38.07,78.37
100600,2018-06-29 09:37:15.750000,-46.02,78.37
100601,2018-06-29 09:37:15.781250,-58.07,78.37
100602,2018-06-29 09:37:15.812500,-72.65,78.37
100603,2018-06-29 09:37:15.843750,-87.15,78.37
100604,2018-06-29 09:37:15.875000,-99.25,78.37
100605,2018-06-29 09:37:15.906250,-106.65,78.37
100606,2018-06-29 09:37:15.937500,-107.11,78.37
100607,2018-06-29 09:37:15.968750,-100.67,78.37
100608,2018-06-29 09:37:16.000000,-91.8,78.37
100609,2018-06-29 09:37:16.031250,-86.87,78.37
100610,2018-06-29 09:37:16.062500,-87.62,78.37
100611,2018-06-29 09:37:16.093750,-87.78,78.37
100612,2018-06-29 09:37:16.125000,-76.65,78.37
100613,2018-06-29 09:37:16.156250,-48.53,78.37
100614,2018-06-29 09:37:16.187500,-8.6,78.37
100615,2018-06-29 09:37:16.218750,32.06,78.37
100616,2018-06-29 09:37:16.250000,65.85,78.37
100617,2018-06-29 09:37:16.281250,90.83,78.37
100618,2018-06-29 09:37:16.312500,107.54,78.37
100619,2018-06-29 09:37:16.343750,117.0,78.37
100620,2018-06-29 09:37:16.375000,120.72,78.37
100621,2018-06-29 09:37:16.406250,120.19,78.37
100622,2018-06-29 09:37:16.437500,116.33,78.37
100623,2018-06-29 09:37:16.468750,109.89,78.37
100624,2018-06-29 09:37:16.500000,101.97,78.37
100625,2018-06-29 09:37:16.531250,94.25,78.18
100626,2018-06-29 09:37:16.562500,87.12,78.18
100627,2018-06-29 09:37:16.593750,78.33,78.18
100628,2018-06-29 09:37:16.625000,65.19,78.18
100629,2018-06-29 09:37:16.656250,48.28,78.18
100630,2018-06-29 09:37:16.687500,31.13,78.18
100631,2018-06-29 09:37:16.718750,15.98,78.18
100632,2018-06-29 09:37:16.750000,3.55,78.18
100633,2018-06-29 09:37:16.781250,-3.39,78.18
100634,2018-06-29 09:37:16.812500,-0.68,78.18
100635,2018-06-29 09:37:16.843750,10.15,78.18
100636,2018-06-29 09:37:16.875000,20.42,78.18
100637,2018-06-29 09:37:16.906250,22.9,78.18
100638,2018-06-29 09:37:16.937500,17.47,78.18
100639,2018-06-29 09:37:16.968750,6.91,78.18
100640,2018-06-29 09:37:17.000000,-7.88,78.18
100641,2018-06-29 09:37:17.031250,-26.22,78.18
100642,2018-06-29 09:37:17.062500,-46.15,78.18
100643,2018-06-29 09:37:17.093750,-62.5,78.18
100644,2018-06-29 09:37:17.125000,-64.79,78.18
100645,2018-06-29 09:37:17.156250,-46.9,78.18
100646,2018-06-29 09:37:17.187500,-17.02,78.18
100647,2018-06-29 09:37:17.218750,11.86,78.18
100648,2018-06-29 09:37:17.250000,35.79,78.18
100649,2018-06-29 09:37:17.281250,58.47,78.18
100650,2018-06-29 09:37:17.312500,78.88,78.18
100651,2018-06-29 09:37:17.343750,92.93,78.18
100652,2018-06-29 09:37:17.375000,98.26,78.18
100653,2018-06-29 09:37:17.406250,97.05,78.18
100654,2018-06-29 09:37:17.437500,92.28,78.18
100655,2018-06-29 09:37:17.468750,85.19,78.18
100656,2018-06-29 09:37:17.500000,77.37,78.18
100657,2018-06-29 09:37:17.531250,69.76,78.12
100658,2018-06-29 09:37:17.562500,62.74,78.12
100659,2018-06-29 09:37:17.593750,49.23,78.12
100660,2018-06-29 09:37:17.625000,33.19,78.12
100661,2018-06-29 09:37:17.656250,21.22,78.12
100662,2018-06-29 09:37:17.687500,15.52,78.12
100663,2018-06-29 09:37:17.718750,3.12,78.12
100664,2018-06-29 09:37:17.750000,-31.53,78.12
100665,2018-06-29 09:37:17.781250,-88.58,78.12
100666,2018-06-29 09:37:17.812500,-170.52,78.12
100667,2018-06-29 09:37:17.843750,-263.58,78.12
100668,2018-06-29 09:37:17.875000,-360.93,78.12
100669,2018-06-29 09:37:17.906250,-439.5,78.12
100670,2018-06-29 09:37:17.937500,-502.78,78.12
100671,2018-06-29 09:37:17.968750,-555.91,78.12
100672,2018-06-29 09:37:18.000000,-582.99,78.12
100673,2018-06-29 09:37:18.031250,-552.98,78.12
100674,2018-06-29 09:37:18.062500,-446.03,78.12
100675,2018-06-29 09:37:18.093750,-315.15,78.12
100676,2018-06-29 09:37:18.125000,-108.3,78.12
100677,2018-06-29 09:37:18.156250,139.25,78.12
100678,2018-06-29 09:37:18.187500,245.63,78.12
100679,2018-06-29 09:37:18.218750,268.41,78.12
100680,2018-06-29 09:37:18.250000,269.14,78.12
100681,2018-06-29 09:37:18.281250,251.18,78.12
100682,2018-06-29 09:37:18.312500,209.92,78.12
100683,2018-06-29 09:37:18.343750,176.96,78.12
100684,2018-06-29 09:37:18.375000,153.43,78.12
100685,2018-06-29 09:37:18.406250,128.97,78.12
100686,2018-06-29 09:37:18.437500,85.95,78.12
100687,2018-06-29 09:37:18.468750,54.36,78.12
100688,2018-06-29 09:37:18.500000,51.44,78.12
100689,2018-06-29 09:37:18.531250,60.96,78.05
100690,2018-06-29 09:37:18.562500,61.36,78.05
100691,2018-06-29 09:37:18.593750,49.85,78.05
100692,2018-06-29 09:37:18.625000,40.81,78.05
100693,2018-06-29 09:37:18.656250,29.02,78.05
100694,2018-06-29 09:37:18.687500,14.79,78.05
100695,2018-06-29 09:37:18.718750,0.34,78.05
100696,2018-06-29 09:37:18.750000,-9.98,78.05
100697,2018-06-29 09:37:18.781250,-20.7,78.05
100698,2018-06-29 09:37:18.812500,-34.82,78.05
100699,2018-06-29 09:37:18.843750,-49.1,78.05
100700,2018-06-29 09:37:18.875000,-62.91,78.05
100701,2018-06-29 09:37:18.906250,-78.12,78.05
100702,2018-06-29 09:37:18.937500,-96.44,78.05
100703,2018-06-29 09:37:18.968750,-113.59,78.05
100704,2018-06-29 09:37:19.000000,-125.01,78.05
100705,2018-06-29 09:37:19.031250,-132.81,78.05
100706,2018-06-29 09:37:19.062500,-143.31,78.05
100707,2018-06-29 09:37:19.093750,-155.78,78.05
100708,2018-06-29 09:37:19.125000,-154.48,78.05
100709,2018-06-29 09:37:19.156250,-120.22,78.05
100710,2018-06-29 09:37:19.187500,-50.85,78.05
100711,2018-06-29 09:37:19.218750,39.09,78.05
100712,2018-06-29 09:37:19.250000,135.28,78.05
100713,2018-06-29 09:37:19.281250,229.03,78.05
100714,2018-06-29 09:37:19.312500,312.67,78.05
100715,2018-06-29 09:37:19.343750,378.14,78.05
100716,2018-06-29 09:37:19.375000,417.52,78.05
100717,2018-06-29 09:37:19.406250,428.4,78.05
100718,2018-06-29 09:37:19.437500,421.98,78.05
100719,2018-06-29 09:37:19.468750,416.03,78.05
100720,2018-06-29 09:37:19.500000,418.93,78.05
100721,2018-06-29 09:37:19.531250,425.64,78.05
100722,2018-06-29 09:37:19.562500,422.79,78.05
100723,2018-06-29 09:37:19.593750,393.73,78.05
100724,2018-06-29 09:37:19.625000,327.04,78.05
100725,2018-06-29 09:37:19.656250,225.38,78.05
100726,2018-06-29 09:37:19.687500,98.63,78.05
100727,2018-06-29 09:37:19.718750,-47.95,78.05
100728,2018-06-29 09:37:19.750000,-214.19,78.05
100729,2018-06-29 09:37:19.781250,-396.88,78.05
100730,2018-06-29 09:37:19.812500,-572.37,78.05
100731,2018-06-29 09:37:19.843750,-685.1,78.05
100732,2018-06-29 09:37:19.875000,-680.35,78.05
100733,2018-06-29 09:37:19.906250,-562.38,78.05
100734,2018-06-29 09:37:19.937500,-396.45,78.05
100735,2018-06-29 09:37:19.968750,-250.61,78.05
100736,2018-06-29 09:37:20.000000,-158.43,78.05
100737,2018-06-29 09:37:20.031250,-122.64,78.05
100738,2018-06-29 09:37:20.062500,-127.68,78.05
100739,2018-06-29 09:37:20.093750,-153.05,78.05
100740,2018-06-29 09:37:20.125000,-179.37,78.05
100741,2018-06-29 09:37:20.156250,-186.32,78.05
100742,2018-06-29 09:37:20.187500,-162.98,78.05
100743,2018-06-29 09:37:20.218750,-119.08,78.05
100744,2018-06-29 09:37:20.250000,-70.95,78.05
100745,2018-06-29 09:37:20.281250,-25.43,78.05
100746,2018-06-29 09:37:20.312500,14.4,78.05
100747,2018-06-29 09:37:20.343750,43.47,78.05
100748,2018-06-29 09:37:20.375000,61.89,78.05
100749,2018-06-29 09:37:20.406250,75.9,78.05
100750,2018-06-29 09:37:20.437500,89.15,78.05
100751,2018-06-29 09:37:20.468750,99.76,78.05
100752,2018-06-29 09:37:20.500000,106.06,78.05
100753,2018-06-29 09:37:20.531250,109.96,77.95
100754,2018-06-29 09:37:20.562500,112.53,77.95
100755,2018-06-29 09:37:20.593750,110.65,77.95
100756,2018-06-29 09:37:20.625000,101.85,77.95
100757,2018-06-29 09:37:20.656250,88.86,77.95
100758,2018-06-29 09:37:20.687500,76.23,77.95
100759,2018-06-29 09:37:20.718750,65.18,77.95
100760,2018-06-29 09:37:20.750000,54.4,77.95
100761,2018-06-29 09:37:20.781250,44.15,77.95
100762,2018-06-29 09:37:20.812500,36.59,77.95
100763,2018-06-29 09:37:20.843750,32.53,77.95
100764,2018-06-29 09:37:20.875000,30.43,77.95
100765,2018-06-29 09:37:20.906250,28.84,77.95
100766,2018-06-29 09:37:20.937500,27.73,77.95
100767,2018-06-29 09:37:20.968750,26.14,77.95
100768,2018-06-29 09:37:21.000000,20.1,77.95
100769,2018-06-29 09:37:21.031250,5.02,77.95
100770,2018-06-29 09:37:21.062500,-17.58,77.95
100771,2018-06-29 09:37:21.093750,-35.62,77.95
100772,2018-06-29 09:37:21.125000,-34.26,77.95
100773,2018-06-29 09:37:21.156250,-10.6,77.95
100774,2018-06-29 09:37:21.187500,24.0,77.95
100775,2018-06-29 09:37:21.218750,56.62,77.95
100776,2018-06-29 09:37:21.250000,82.15,77.95
100777,2018-06-29 09:37:21.281250,100.34,77.95
100778,2018-06-29 09:37:21.312500,111.3,77.95
100779,2018-06-29 09:37:21.343750,115.52,77.95
100780,2018-06-29 09:37:21.375000,114.67,77.95
100781,2018-06-29 09:37:21.406250,111.47,77.95
100782,2018-06-29 09:37:21.437500,108.05,77.95
100783,2018-06-29 09:37:21.468750,104.97,77.95
100784,2018-06-29 09:37:21.500000,101.3,77.95
100785,2018-06-29 09:37:21.531250,96.44,78.17
100786,2018-06-29 09:37:21.562500,91.72,78.17
100787,2018-06-29 09:37:21.593750,88.56,78.17
100788,2018-06-29 09:37:21.625000,85.27,78.17
100789,2018-06-29 09:37:21.656250,78.87,78.17
100790,2018-06-29 09:37:21.687500,70.37,78.17
100791,2018-06-29 09:37:21.718750,64.87,78.17
100792,2018-06-29 09:37:21.750000,64.99,78.17
100793,2018-06-29 09:37:21.781250,67.34,78.17
100794,2018-06-29 09:37:21.812500,66.15,78.17
100795,2018-06-29 09:37:21.843750,59.04,78.17
100796,2018-06-29 09:37:21.875000,47.09,78.17
100797,2018-06-29 09:37:21.906250,30.11,78.17
100798,2018-06-29 09:37:21.937500,5.36,78.17
100799,2018-06-29 09:37:21.968750,-27.22,78.17
100800,2018-06-29 09:37:22.000000,-58.99,78.17
100801,2018-06-29 09:37:22.031250,-75.69,78.17
100802,2018-06-29 09:37:22.062500,-68.37,78.17
100803,2018-06-29 09:37:22.093750,-40.11,78.17
100804,2018-06-29 09:37:22.125000,-2.9,78.17
100805,2018-06-29 09:37:22.156250,29.58,78.17
100806,2018-06-29 09:37:22.187500,48.13,78.17
100807,2018-06-29 09:37:22.218750,50.92,78.17
100808,2018-06-29 09:37:22.250000,42.06,78.17
100809,2018-06-29 09:37:22.281250,27.33,78.17
100810,2018-06-29 09:37:22.312500,11.36,78.17
100811,2018-06-29 09:37:22.343750,-2.96,78.17
100812,2018-06-29 09:37:22.375000,-13.86,78.17
100813,2018-06-29 09:37:22.406250,-19.81,78.17
100814,2018-06-29 09:37:22.437500,-19.84,78.17
100815,2018-06-29 09:37:22.468750,-14.88,78.17
100816,2018-06-29 09:37:22.500000,-7.36,78.17
100817,2018-06-29 09:37:22.531250,0.78,78.38
100818,2018-06-29 09:37:22.562500,8.67,78.38
100819,2018-06-29 09:37:22.593750,15.32,78.38
100820,2018-06-29 09:37:22.625000,18.37,78.38
100821,2018-06-29 09:37:22.656250,15.12,78.38
100822,2018-06-29 09:37:22.687500,4.65,78.38
100823,2018-06-29 09:37:22.718750,-11.66,78.38
100824,2018-06-29 09:37:22.750000,-30.96,78.38
100825,2018-06-29 09:37:22.781250,-50.6,78.38
100826,2018-06-29 09:37:22.812500,-68.86,78.38
100827,2018-06-29 09:37:22.843750,-84.02,78.38
100828,2018-06-29 09:37:22.875000,-92.76,78.38
100829,2018-06-29 09:37:22.906250,-90.01,78.38
100830,2018-06-29 09:37:22.937500,-72.38,78.38
100831,2018-06-29 09:37:22.968750,-43.14,78.38
100832,2018-06-29 09:37:23.000000,-12.11,78.38
100833,2018-06-29 09:37:23.031250,11.81,78.38
100834,2018-06-29 09:37:23.062500,26.24,78.38
100835,2018-06-29 09:37:23.093750,33.68,78.38
100836,2018-06-29 09:37:23.125000,37.24,78.38
100837,2018-06-29 09:37:23.156250,38.6,78.38
100838,2018-06-29 09:37:23.187500,38.28,78.38
100839,2018-06-29 09:37:23.218750,36.63,78.38
100840,2018-06-29 09:37:23.250000,34.5,78.38
100841,2018-06-29 09:37:23.281250,32.95,78.38
100842,2018-06-29 09:37:23.312500,31.73,78.38
100843,2018-06-29 09:37:23.343750,29.44,78.38
100844,2018-06-29 09:37:23.375000,25.56,78.38
100845,2018-06-29 09:37:23.406250,21.16,78.38
100846,2018-06-29 09:37:23.437500,16.99,78.38
100847,2018-06-29 09:37:23.468750,12.02,78.38
100848,2018-06-29 09:37:23.500000,5.92,78.38
100849,2018-06-29 09:37:23.531250,0.72,78.62
100850,2018-06-29 09:37:23.562500,-1.74,78.62
100851,2018-06-29 09:37:23.593750,-2.42,78.62
100852,2018-06-29 09:37:23.625000,-3.48,78.62
100853,2018-06-29 09:37:23.656250,-6.29,78.62
100854,2018-06-29 09:37:23.687500,-12.0,78.62
100855,2018-06-29 09:37:23.718750,-22.59,78.62
100856,2018-06-29 09:37:23.750000,-40.23,78.62
100857,2018-06-29 09:37:23.781250,-63.59,78.62
100858,2018-06-29 09:37:23.812500,-84.69,78.62
100859,2018-06-29 09:37:23.843750,-93.85,78.62
100860,2018-06-29 09:37:23.875000,-89.53,78.62
100861,2018-06-29 09:37:23.906250,-79.59,78.62
100862,2018-06-29 09:37:23.937500,-71.85,78.62
100863,2018-06-29 09:37:23.968750,-68.42,78.62
100864,2018-06-29 09:37:24.000000,-68.22,78.62
100865,2018-06-29 09:37:24.031250,-70.73,78.62
100866,2018-06-29 09:37:24.062500,-75.61,78.62
100867,2018-06-29 09:37:24.093750,-81.13,78.62
100868,2018-06-29 09:37:24.125000,-84.89,78.62
100869,2018-06-29 09:37:24.156250,-86.57,78.62
100870,2018-06-29 09:37:24.187500,-87.45,78.62
100871,2018-06-29 09:37:24.218750,-85.89,78.62
100872,2018-06-29 09:37:24.250000,-75.47,78.62
100873,2018-06-29 09:37:24.281250,-51.04,78.62
100874,2018-06-29 09:37:24.312500,-14.08,78.62
100875,2018-06-29 09:37:24.343750,29.01,78.62
100876,2018-06-29 09:37:24.375000,69.82,78.62
100877,2018-06-29 09:37:24.406250,98.47,78.62
100878,2018-06-29 09:37:24.437500,109.69,78.62
100879,2018-06-29 09:37:24.468750,107.82,78.62
100880,2018-06-29 09:37:24.500000,99.17,78.62
100881,2018-06-29 09:37:24.531250,84.69,78.88
100882,2018-06-29 09:37:24.562500,64.62,78.88
100883,2018-06-29 09:37:24.593750,42.81,78.88
100884,2018-06-29 09:37:24.625000,23.0,78.88
100885,2018-06-29 09:37:24.656250,6.11,78.88
100886,2018-06-29 09:37:24.687500,-9.66,78.88
100887,2018-06-29 09:37:24.718750,-26.85,78.88
100888,2018-06-29 09:37:24.750000,-42.78,78.88
100889,2018-06-29 09:37:24.781250,-48.08,78.88
100890,2018-06-29 09:37:24.812500,-36.4,78.88
100891,2018-06-29 09:37:24.843750,-12.4,78.88
100892,2018-06-29 09:37:24.875000,13.35,78.88
100893,2018-06-29 09:37:24.906250,33.82,78.88
100894,2018-06-29 09:37:24.937500,47.4,78.88
100895,2018-06-29 09:37:24.968750,55.32,78.88
100896,2018-06-29 09:37:25.000000,58.74,78.88
100897,2018-06-29 09:37:25.031250,57.25,78.88
100898,2018-06-29 09:37:25.062500,50.42,78.88
100899,2018-06-29 09:37:25.093750,40.59,78.88
100900,2018-06-29 09:37:25.125000,31.79,78.88
100901,2018-06-29 09:37:25.156250,26.18,78.88
100902,2018-06-29 09:37:25.187500,22.97,78.88
100903,2018-06-29 09:37:25.218750,19.95,78.88
100904,2018-06-29 09:37:25.250000,15.4,78.88
100905,2018-06-29 09:37:25.281250,9.23,78.88
100906,2018-06-29 09:37:25.312500,2.37,78.88
100907,2018-06-29 09:37:25.343750,-4.42,78.88
100908,2018-06-29 09:37:25.375000,-10.58,78.88
100909,2018-06-29 09:37:25.406250,-15.77,78.88
100910,2018-06-29 09:37:25.437500,-21.13,78.88
100911,2018-06-29 09:37:25.468750,-28.55,78.88
100912,2018-06-29 09:37:25.500000,-38.03,78.88
100913,2018-06-29 09:37:25.531250,-47.9,79.17
100914,2018-06-29 09:37:25.562500,-57.61,79.17
100915,2018-06-29 09:37:25.593750,-68.8,79.17
100916,2018-06-29 09:37:25.625000,-83.1,79.17
100917,2018-06-29 09:37:25.656250,-97.15,79.17
100918,2018-06-29 09:37:25.687500,-100.5,79.17
100919,2018-06-29 09:37:25.718750,-84.29,79.17
100920,2018-06-29 09:37:25.750000,-52.69,79.17
100921,2018-06-29 09:37:25.781250,-19.66,79.17
100922,2018-06-29 09:37:25.812500,5.25,79.17
100923,2018-06-29 09:37:25.843750,22.09,79.17
100924,2018-06-29 09:37:25.875000,33.9,79.17
100925,2018-06-29 09:37:25.906250,41.75,79.17
100926,2018-06-29 09:37:25.937500,45.94,79.17
100927,2018-06-29 09:37:25.968750,47.51,79.17
100928,2018-06-29 09:37:26.000000,47.34,79.17
100929,2018-06-29 09:37:26.031250,46.08,79.17
100930,2018-06-29 09:37:26.062500,44.72,79.17
100931,2018-06-29 09:37:26.093750,43.56,79.17
100932,2018-06-29 09:37:26.125000,41.07,79.17
100933,2018-06-29 09:37:26.156250,35.78,79.17
100934,2018-06-29 09:37:26.187500,28.76,79.17
100935,2018-06-29 09:37:26.218750,21.76,79.17
100936,2018-06-29 09:37:26.250000,14.05,79.17
100937,2018-06-29 09:37:26.281250,3.8,79.17
100938,2018-06-29 09:37:26.312500,-8.23,79.17
100939,2018-06-29 09:37:26.343750,-19.01,79.17
100940,2018-06-29 09:37:26.375000,-27.06,79.17
100941,2018-06-29 09:37:26.406250,-33.96,79.17
100942,2018-06-29 09:37:26.437500,-42.2,79.17
100943,2018-06-29 09:37:26.468750,-52.07,79.17
100944,2018-06-29 09:37:26.500000,-61.86,79.17
100945,2018-06-29 09:37:26.531250,-71.09,79.47
100946,2018-06-29 09:37:26.562500,-82.35,79.47
100947,2018-06-29 09:37:26.593750,-96.49,79.47
100948,2018-06-29 09:37:26.625000,-106.36,79.47
100949,2018-06-29 09:37:26.656250,-100.64,79.47
100950,2018-06-29 09:37:26.687500,-76.11,79.47
100951,2018-06-29 09:37:26.718750,-42.35,79.47
100952,2018-06-29 09:37:26.750000,-11.87,79.47
100953,2018-06-29 09:37:26.781250,10.22,79.47
100954,2018-06-29 09:37:26.812500,25.3,79.47
100955,2018-06-29 09:37:26.843750,35.26,79.47
100956,2018-06-29 09:37:26.875000,40.65,79.47
100957,2018-06-29 09:37:26.906250,41.41,79.47
100958,2018-06-29 09:37:26.937500,37.32,79.47
100959,2018-06-29 09:37:26.968750,29.47,79.47
100960,2018-06-29 09:37:27.000000,21.7,79.47
100961,2018-06-29 09:37:27.031250,17.35,79.47
100962,2018-06-29 09:37:27.062500,15.06,79.47
100963,2018-06-29 09:37:27.093750,11.18,79.47
100964,2018-06-29 09:37:27.125000,5.43,79.47
100965,2018-06-29 09:37:27.156250,0.02,79.47
100966,2018-06-29 09:37:27.187500,-5.77,79.47
100967,2018-06-29 09:37:27.218750,-16.05,79.47
100968,2018-06-29 09:37:27.250000,-31.03,79.47
100969,2018-06-29 09:37:27.281250,-44.04,79.47
100970,2018-06-29 09:37:27.312500,-50.74,79.47
100971,2018-06-29 09:37:27.343750,-57.0,79.47
100972,2018-06-29 09:37:27.375000,-70.59,79.47
100973,2018-06-29 09:37:27.406250,-89.85,79.47
100974,2018-06-29 09:37:27.437500,-106.38,79.47
100975,2018-06-29 09:37:27.468750,-112.95,79.47
100976,2018-06-29 09:37:27.500000,-108.89,79.47
100977,2018-06-29 09:37:27.531250,-104.68,79.75
100978,2018-06-29 09:37:27.562500,-107.89,79.75
100979,2018-06-29 09:37:27.593750,-98.93,79.75
100980,2018-06-29 09:37:27.625000,-48.66,79.75
100981,2018-06-29 09:37:27.656250,38.51,79.75
100982,2018-06-29 09:37:27.687500,130.23,79.75
100983,2018-06-29 09:37:27.718750,206.4,79.75
100984,2018-06-29 09:37:27.750000,262.91,79.75
100985,2018-06-29 09:37:27.781250,293.55,79.75
100986,2018-06-29 09:37:27.812500,297.02,79.75
100987,2018-06-29 09:37:27.843750,285.62,79.75
100988,2018-06-29 09:37:27.875000,269.25,79.75
100989,2018-06-29 09:37:27.906250,244.32,79.75
100990,2018-06-29 09:37:27.937500,206.87,79.75
100991,2018-06-29 09:37:27.968750,164.06,79.75
100992,2018-06-29 09:37:28.000000,126.65,79.75
100993,2018-06-29 09:37:28.031250,97.56,79.75
100994,2018-06-29 09:37:28.062500,69.29,79.75
100995,2018-06-29 09:37:28.093750,30.18,79.75
100996,2018-06-29 09:37:28.125000,-22.97,79.75
100997,2018-06-29 09:37:28.156250,-84.17,79.75
100998,2018-06-29 09:37:28.187500,-151.52,79.75
100999,2018-06-29 09:37:28.218750,-224.11,79.75
101000,2018-06-29 09:37:28.250000,-286.84,79.75
101001,2018-06-29 09:37:28.281250,-323.37,79.75
101002,2018-06-29 09:37:28.312500,-343.45,79.75
101003,2018-06-29 09:37:28.343750,-370.87,79.75
101004,2018-06-29 09:37:28.375000,-407.44,79.75
101005,2018-06-29 09:37:28.406250,-434.45,79.75
101006,2018-06-29 09:37:28.437500,-438.41,79.75
101007,2018-06-29 09:37:28.468750,-409.27,79.75
101008,2018-06-29 09:37:28.500000,-330.64,79.75
101009,2018-06-29 09:37:28.531250,-203.73,80.1
101010,2018-06-29 09:37:28.562500,-65.35,80.1
101011,2018-06-29 09:37:28.593750,44.14,80.1
101012,2018-06-29 09:37:28.625000,115.98,80.1
101013,2018-06-29 09:37:28.656250,161.99,80.1
101014,2018-06-29 09:37:28.687500,190.91,80.1
101015,2018-06-29 09:37:28.718750,207.85,80.1
101016,2018-06-29 09:37:28.750000,221.15,80.1
101017,2018-06-29 09:37:28.781250,239.83,80.1
101018,2018-06-29 09:37:28.812500,269.32,80.1
101019,2018-06-29 09:37:28.843750,307.83,80.1
101020,2018-06-29 09:37:28.875000,343.62,80.1
101021,2018-06-29 09:37:28.906250,362.0,80.1
101022,2018-06-29 09:37:28.937500,358.59,80.1
101023,2018-06-29 09:37:28.968750,342.58,80.1
101024,2018-06-29 09:37:29.000000,324.75,80.1
101025,2018-06-29 09:37:29.031250,306.61,80.1
101026,2018-06-29 09:37:29.062500,283.07,80.1
101027,2018-06-29 09:37:29.093750,249.13,80.1
101028,2018-06-29 09:37:29.125000,200.42,80.1
101029,2018-06-29 09:37:29.156250,133.96,80.1
101030,2018-06-29 09:37:29.187500,57.52,80.1
101031,2018-06-29 09:37:29.218750,-8.61,80.1
101032,2018-06-29 09:37:29.250000,-49.48,80.1
101033,2018-06-29 09:37:29.281250,-70.93,80.1
101034,2018-06-29 09:37:29.312500,-92.17,80.1
101035,2018-06-29 09:37:29.343750,-126.48,80.1
101036,2018-06-29 09:37:29.375000,-169.71,80.1
101037,2018-06-29 09:37:29.406250,-202.7,80.1
101038,2018-06-29 09:37:29.437500,-206.24,80.1
101039,2018-06-29 09:37:29.468750,-178.86,80.1
101040,2018-06-29 09:37:29.500000,-138.33,80.1
101041,2018-06-29 09:37:29.531250,-104.28,80.18
101042,2018-06-29 09:37:29.562500,-83.83,80.18
101043,2018-06-29 09:37:29.593750,-73.57,80.18
101044,2018-06-29 09:37:29.625000,-68.03,80.18
101045,2018-06-29 09:37:29.656250,-65.07,80.18
101046,2018-06-29 09:37:29.687500,-66.06,80.18
101047,2018-06-29 09:37:29.718750,-71.44,80.18
101048,2018-06-29 09:37:29.750000,-77.58,80.18
101049,2018-06-29 09:37:29.781250,-80.08,80.18
101050,2018-06-29 09:37:29.812500,-77.79,80.18
101051,2018-06-29 09:37:29.843750,-72.21,80.18
101052,2018-06-29 09:37:29.875000,-65.88,80.18
101053,2018-06-29 09:37:29.906250,-61.11,80.18
101054,2018-06-29 09:37:29.937500,-59.09,80.18
101055,2018-06-29 09:37:29.968750,-59.88,80.18
101056,2018-06-29 09:37:30.000000,-62.47,80.18
101057,2018-06-29 09:37:30.031250,-64.84,80.18
101058,2018-06-29 09:37:30.062500,-65.63,80.18
101059,2018-06-29 09:37:30.093750,-65.33,80.18
101060,2018-06-29 09:37:30.125000,-64.7,80.18
101061,2018-06-29 09:37:30.156250,-64.99,80.18
101062,2018-06-29 09:37:30.187500,-69.07,80.18
101063,2018-06-29 09:37:30.218750,-77.89,80.18
101064,2018-06-29 09:37:30.250000,-87.25,80.18
101065,2018-06-29 09:37:30.281250,-92.86,80.18
101066,2018-06-29 09:37:30.312500,-97.44,80.18
101067,2018-06-29 09:37:30.343750,-107.82,80.18
101068,2018-06-29 09:37:30.375000,-123.34,80.18
101069,2018-06-29 09:37:30.406250,-128.94,80.18
101070,2018-06-29 09:37:30.437500,-105.93,80.18
101071,2018-06-29 09:37:30.468750,-51.61,80.18
101072,2018-06-29 09:37:30.500000,18.48,80.18
101073,2018-06-29 09:37:30.531250,82.34,81.1
101074,2018-06-29 09:37:30.562500,117.22,81.1
101075,2018-06-29 09:37:30.593750,108.24,81.1
101076,2018-06-29 09:37:30.625000,62.95,81.1
101077,2018-06-29 09:37:30.656250,5.8,81.1
101078,2018-06-29 09:37:30.687500,-46.83,81.1
101079,2018-06-29 09:37:30.718750,-92.74,81.1
101080,2018-06-29 09:37:30.750000,-129.53,81.1
101081,2018-06-29 09:37:30.781250,-149.98,81.1
101082,2018-06-29 09:37:30.812500,-148.22,81.1
101083,2018-06-29 09:37:30.843750,-122.89,81.1
101084,2018-06-29 09:37:30.875000,-80.49,81.1
101085,2018-06-29 09:37:30.906250,-37.07,81.1
101086,2018-06-29 09:37:30.937500,-6.03,81.1
101087,2018-06-29 09:37:30.968750,15.7,81.1
101088,2018-06-29 09:37:31.000000,38.88,81.1
101089,2018-06-29 09:37:31.031250,66.05,81.1
101090,2018-06-29 09:37:31.062500,92.15,81.1
101091,2018-06-29 09:37:31.093750,111.98,81.1
101092,2018-06-29 09:37:31.125000,120.64,81.1
101093,2018-06-29 09:37:31.156250,115.39,81.1
101094,2018-06-29 09:37:31.187500,100.0,81.1
101095,2018-06-29 09:37:31.218750,82.27,81.1
101096,2018-06-29 09:37:31.250000,68.24,81.1
101097,2018-06-29 09:37:31.281250,57.61,81.1
101098,2018-06-29 09:37:31.312500,44.6,81.1
101099,2018-06-29 09:37:31.343750,26.16,81.1
101100,2018-06-29 09:37:31.375000,9.22,81.1
101101,2018-06-29 09:37:31.406250,4.45,81.1
101102,2018-06-29 09:37:31.437500,14.69,81.1
101103,2018-06-29 09:37:31.468750,34.49,81.1
101104,2018-06-29 09:37:31.500000,56.94,81.1
101105,2018-06-29 09:37:31.531250,77.55,82.02
101106,2018-06-29 09:37:31.562500,94.6,82.02
101107,2018-06-29 09:37:31.593750,107.45,82.02
101108,2018-06-29 09:37:31.625000,114.34,82.02
101109,2018-06-29 09:37:31.656250,113.13,82.02
101110,2018-06-29 09:37:31.687500,104.09,82.02
101111,2018-06-29 09:37:31.718750,89.45,82.02
101112,2018-06-29 09:37:31.750000,72.0,82.02
101113,2018-06-29 09:37:31.781250,56.01,82.02
101114,2018-06-29 09:37:31.812500,45.46,82.02
101115,2018-06-29 09:37:31.843750,40.53,82.02
101116,2018-06-29 09:37:31.875000,38.55,82.02
101117,2018-06-29 09:37:31.906250,37.64,82.02
101118,2018-06-29 09:37:31.937500,36.94,82.02
101119,2018-06-29 09:37:31.968750,35.3,82.02
101120,2018-06-29 09:37:32.000000,31.74,82.02
101121,2018-06-29 09:37:32.031250,25.73,82.02
101122,2018-06-29 09:37:32.062500,17.51,82.02
101123,2018-06-29 09:37:32.093750,8.48,82.02
101124,2018-06-29 09:37:32.125000,-0.49,82.02
101125,2018-06-29 09:37:32.156250,-10.87,82.02
101126,2018-06-29 09:37:32.187500,-23.21,82.02
101127,2018-06-29 09:37:32.218750,-34.56,82.02
101128,2018-06-29 09:37:32.250000,-43.13,82.02
101129,2018-06-29 09:37:32.281250,-52.85,82.02
101130,2018-06-29 09:37:32.312500,-69.01,82.02
101131,2018-06-29 09:37:32.343750,-90.02,82.02
101132,2018-06-29 09:37:32.375000,-103.98,82.02
101133,2018-06-29 09:37:32.406250,-95.73,82.02
101134,2018-06-29 09:37:32.437500,-61.07,82.02
101135,2018-06-29 09:37:32.468750,-12.98,82.02
101136,2018-06-29 09:37:32.500000,30.43,82.02
101137,2018-06-29 09:37:32.531250,60.04,82.93
101138,2018-06-29 09:37:32.562500,76.09,82.93
101139,2018-06-29 09:37:32.593750,81.54,82.93
101140,2018-06-29 09:37:32.625000,79.9,82.93
101141,2018-06-29 09:37:32.656250,75.54,82.93
101142,2018-06-29 09:37:32.687500,71.55,82.93
101143,2018-06-29 09:37:32.718750,68.37,82.93
101144,2018-06-29 09:37:32.750000,65.23,82.93
101145,2018-06-29 09:37:32.781250,61.87,82.93
101146,2018-06-29 09:37:32.812500,58.13,82.93
101147,2018-06-29 09:37:32.843750,52.49,82.93
101148,2018-06-29 09:37:32.875000,43.26,82.93
101149,2018-06-29 09:37:32.906250,31.35,82.93
101150,2018-06-29 09:37:32.937500,20.07,82.93
101151,2018-06-29 09:37:32.968750,11.74,82.93
101152,2018-06-29 09:37:33.000000,5.18,82.93
101153,2018-06-29 09:37:33.031250,-2.32,82.93
101154,2018-06-29 09:37:33.062500,-11.5,82.93
101155,2018-06-29 09:37:33.093750,-20.71,82.93
101156,2018-06-29 09:37:33.125000,-28.58,82.93
101157,2018-06-29 09:37:33.156250,-35.99,82.93
101158,2018-06-29 09:37:33.187500,-45.36,82.93
101159,2018-06-29 09:37:33.218750,-58.19,82.93
101160,2018-06-29 09:37:33.250000,-70.18,82.93
101161,2018-06-29 09:37:33.281250,-69.49,82.93
101162,2018-06-29 09:37:33.312500,-46.92,82.93
101163,2018-06-29 09:37:33.343750,-8.58,82.93
101164,2018-06-29 09:37:33.375000,28.58,82.93
101165,2018-06-29 09:37:33.406250,52.73,82.93
101166,2018-06-29 09:37:33.437500,61.7,82.93
101167,2018-06-29 09:37:33.468750,57.13,82.93
101168,2018-06-29 09:37:33.500000,43.12,82.93
101169,2018-06-29 09:37:33.531250,27.42,83.83
101170,2018-06-29 09:37:33.562500,16.53,83.83
101171,2018-06-29 09:37:33.593750,11.33,83.83
101172,2018-06-29 09:37:33.625000,9.61,83.83
101173,2018-06-29 09:37:33.656250,10.15,83.83
101174,2018-06-29 09:37:33.687500,11.84,83.83
101175,2018-06-29 09:37:33.718750,11.54,83.83
101176,2018-06-29 09:37:33.750000,5.91,83.83
101177,2018-06-29 09:37:33.781250,-4.23,83.83
101178,2018-06-29 09:37:33.812500,-14.66,83.83
101179,2018-06-29 09:37:33.843750,-23.31,83.83
101180,2018-06-29 09:37:33.875000,-31.74,83.83
101181,2018-06-29 09:37:33.906250,-40.94,83.83
101182,2018-06-29 09:37:33.937500,-49.41,83.83
101183,2018-06-29 09:37:33.968750,-56.24,83.83
101184,2018-06-29 09:37:34.000000,-63.36,83.83
101185,2018-06-29 09:37:34.031250,-74.18,83.83
101186,2018-06-29 09:37:34.062500,-89.09,83.83
101187,2018-06-29 09:37:34.093750,-100.36,83.83
101188,2018-06-29 09:37:34.125000,-94.21,83.83
101189,2018-06-29 09:37:34.156250,-64.06,83.83
101190,2018-06-29 09:37:34.187500,-19.72,83.83
101191,2018-06-29 09:37:34.218750,21.53,83.83
101192,2018-06-29 09:37:34.250000,50.11,83.83
101193,2018-06-29 09:37:34.281250,66.5,83.83
101194,2018-06-29 09:37:34.312500,73.76,83.83
101195,2018-06-29 09:37:34.343750,74.32,83.83
101196,2018-06-29 09:37:34.375000,71.35,83.83
101197,2018-06-29 09:37:34.406250,68.06,83.83
101198,2018-06-29 09:37:34.437500,65.74,83.83
101199,2018-06-29 09:37:34.468750,64.51,83.83
101200,2018-06-29 09:37:34.500000,63.72,83.83
101201,2018-06-29 09:37:34.531250,60.97,84.82
101202,2018-06-29 09:37:34.562500,53.39,84.82
101203,2018-06-29 09:37:34.593750,40.75,84.82
101204,2018-06-29 09:37:34.625000,25.74,84.82
101205,2018-06-29 09:37:34.656250,10.45,84.82
101206,2018-06-29 09:37:34.687500,-5.5,84.82
101207,2018-06-29 09:37:34.718750,-22.78,84.82
101208,2018-06-29 09:37:34.750000,-39.62,84.82
101209,2018-06-29 09:37:34.781250,-53.06,84.82
101210,2018-06-29 09:37:34.812500,-63.24,84.82
101211,2018-06-29 09:37:34.843750,-74.54,84.82
101212,2018-06-29 09:37:34.875000,-90.4,84.82
101213,2018-06-29 09:37:34.906250,-105.75,84.82
101214,2018-06-29 09:37:34.937500,-107.15,84.82
101215,2018-06-29 09:37:34.968750,-85.89,84.82
101216,2018-06-29 09:37:35.000000,-48.81,84.82
101217,2018-06-29 09:37:35.031250,-11.35,84.82
101218,2018-06-29 09:37:35.062500,17.17,84.82
101219,2018-06-29 09:37:35.093750,36.54,84.82
101220,2018-06-29 09:37:35.125000,48.87,84.82
101221,2018-06-29 09:37:35.156250,55.26,84.82
101222,2018-06-29 09:37:35.187500,56.87,84.82
101223,2018-06-29 09:37:35.218750,55.82,84.82
101224,2018-06-29 09:37:35.250000,54.24,84.82
101225,2018-06-29 09:37:35.281250,53.06,84.82
101226,2018-06-29 09:37:35.312500,52.26,84.82
101227,2018-06-29 09:37:35.343750,51.14,84.82
101228,2018-06-29 09:37:35.375000,48.4,84.82
101229,2018-06-29 09:37:35.406250,43.19,84.82
101230,2018-06-29 09:37:35.437500,36.12,84.82
101231,2018-06-29 09:37:35.468750,28.39,84.82
101232,2018-06-29 09:37:35.500000,20.59,84.82
101233,2018-06-29 09:37:35.531250,12.88,85.45
101234,2018-06-29 09:37:35.562500,4.35,85.45
101235,2018-06-29 09:37:35.593750,-6.37,85.45
101236,2018-06-29 09:37:35.625000,-18.45,85.45
101237,2018-06-29 09:37:35.656250,-28.93,85.45
101238,2018-06-29 09:37:35.687500,-36.43,85.45
101239,2018-06-29 09:37:35.718750,-43.05,85.45
101240,2018-06-29 09:37:35.750000,-52.54,85.45
101241,2018-06-29 09:37:35.781250,-66.71,85.45
101242,2018-06-29 09:37:35.812500,-80.55,85.45
101243,2018-06-29 09:37:35.843750,-82.64,85.45
101244,2018-06-29 09:37:35.875000,-65.74,85.45
101245,2018-06-29 09:37:35.906250,-35.79,85.45
101246,2018-06-29 09:37:35.937500,-6.2,85.45
101247,2018-06-29 09:37:35.968750,15.0,85.45
101248,2018-06-29 09:37:36.000000,27.96,85.45
101249,2018-06-29 09:37:36.031250,34.86,85.45
101250,2018-06-29 09:37:36.062500,37.03,85.45
101251,2018-06-29 09:37:36.093750,36.87,85.45
101252,2018-06-29 09:37:36.125000,36.98,85.45
101253,2018-06-29 09:37:36.156250,37.17,85.45
101254,2018-06-29 09:37:36.187500,35.97,85.45
101255,2018-06-29 09:37:36.218750,33.77,85.45
101256,2018-06-29 09:37:36.250000,31.51,85.45
101257,2018-06-29 09:37:36.281250,28.27,85.45
101258,2018-06-29 09:37:36.312500,22.97,85.45
101259,2018-06-29 09:37:36.343750,16.58,85.45
101260,2018-06-29 09:37:36.375000,10.15,85.45
101261,2018-06-29 09:37:36.406250,3.07,85.45
101262,2018-06-29 09:37:36.437500,-5.1,85.45
101263,2018-06-29 09:37:36.468750,-13.01,85.45
101264,2018-06-29 09:37:36.500000,-19.43,85.45
101265,2018-06-29 09:37:36.531250,-25.36,86.02
101266,2018-06-29 09:37:36.562500,-32.63,86.02
101267,2018-06-29 09:37:36.593750,-41.09,86.02
101268,2018-06-29 09:37:36.625000,-49.11,86.02
101269,2018-06-29 09:37:36.656250,-56.74,86.02
101270,2018-06-29 09:37:36.687500,-66.5,86.02
101271,2018-06-29 09:37:36.718750,-79.72,86.02
101272,2018-06-29 09:37:36.750000,-91.4,86.02
101273,2018-06-29 09:37:36.781250,-90.74,86.02
101274,2018-06-29 09:37:36.812500,-70.7,86.02
101275,2018-06-29 09:37:36.843750,-37.12,86.02
101276,2018-06-29 09:37:36.875000,-3.9,86.02
101277,2018-06-29 09:37:36.906250,19.97,86.02
101278,2018-06-29 09:37:36.937500,34.72,86.02
101279,2018-06-29 09:37:36.968750,44.01,86.02
101280,2018-06-29 09:37:37.000000,50.56,86.02
101281,2018-06-29 09:37:37.031250,55.78,86.02
101282,2018-06-29 09:37:37.062500,59.69,86.02
101283,2018-06-29 09:37:37.093750,61.14,86.02
101284,2018-06-29 09:37:37.125000,60.26,86.02
101285,2018-06-29 09:37:37.156250,58.7,86.02
101286,2018-06-29 09:37:37.187500,57.03,86.02
101287,2018-06-29 09:37:37.218750,54.29,86.02
101288,2018-06-29 09:37:37.250000,50.11,86.02
101289,2018-06-29 09:37:37.281250,45.08,86.02
101290,2018-06-29 09:37:37.312500,39.95,86.02
101291,2018-06-29 09:37:37.343750,35.01,86.02
101292,2018-06-29 09:37:37.375000,29.49,86.02
101293,2018-06-29 09:37:37.406250,22.46,86.02
101294,2018-06-29 09:37:37.437500,14.89,86.02
101295,2018-06-29 09:37:37.468750,8.68,86.02
101296,2018-06-29 09:37:37.500000,4.1,86.02
101297,2018-06-29 09:37:37.531250,0.16,86.57
101298,2018-06-29 09:37:37.562500,-3.23,86.57
101299,2018-06-29 09:37:37.593750,-5.55,86.57
101300,2018-06-29 09:37:37.625000,-7.16,86.57
101301,2018-06-29 09:37:37.656250,-9.43,86.57
101302,2018-06-29 09:37:37.687500,-14.37,86.57
101303,2018-06-29 09:37:37.718750,-22.33,86.57
101304,2018-06-29 09:37:37.750000,-28.14,86.57
101305,2018-06-29 09:37:37.781250,-23.01,86.57
101306,2018-06-29 09:37:37.812500,-4.02,86.57
101307,2018-06-29 09:37:37.843750,22.85,86.57
101308,2018-06-29 09:37:37.875000,51.37,86.57
101309,2018-06-29 09:37:37.906250,80.14,86.57
101310,2018-06-29 09:37:37.937500,107.19,86.57
101311,2018-06-29 09:37:37.968750,126.37,86.57
101312,2018-06-29 09:37:38.000000,131.19,86.57
101313,2018-06-29 09:37:38.031250,118.42,86.57
101314,2018-06-29 09:37:38.062500,89.45,86.57
101315,2018-06-29 09:37:38.093750,51.46,86.57
101316,2018-06-29 09:37:38.125000,15.43,86.57
101317,2018-06-29 09:37:38.156250,-9.86,86.57
101318,2018-06-29 09:37:38.187500,-23.24,86.57
101319,2018-06-29 09:37:38.218750,-31.03,86.57
101320,2018-06-29 09:37:38.250000,-40.35,86.57
101321,2018-06-29 09:37:38.281250,-51.49,86.57
101322,2018-06-29 09:37:38.312500,-58.9,86.57
101323,2018-06-29 09:37:38.343750,-60.16,86.57
101324,2018-06-29 09:37:38.375000,-59.07,86.57
101325,2018-06-29 09:37:38.406250,-58.41,86.57
101326,2018-06-29 09:37:38.437500,-56.02,86.57
101327,2018-06-29 09:37:38.468750,-51.08,86.57
101328,2018-06-29 09:37:38.500000,-47.12,86.57
101329,2018-06-29 09:37:38.531250,-45.75,87.15
101330,2018-06-29 09:37:38.562500,-45.27,87.15
101331,2018-06-29 09:37:38.593750,-46.09,87.15
101332,2018-06-29 09:37:38.625000,-50.12,87.15
101333,2018-06-29 09:37:38.656250,-56.06,87.15
101334,2018-06-29 09:37:38.687500,-61.49,87.15
101335,2018-06-29 09:37:38.718750,-67.16,87.15
101336,2018-06-29 09:37:38.750000,-75.02,87.15
101337,2018-06-29 09:37:38.781250,-82.87,87.15
101338,2018-06-29 09:37:38.812500,-82.98,87.15
101339,2018-06-29 09:37:38.843750,-69.39,87.15
101340,2018-06-29 09:37:38.875000,-46.38,87.15
101341,2018-06-29 09:37:38.906250,-24.35,87.15
101342,2018-06-29 09:37:38.937500,-8.32,87.15
101343,2018-06-29 09:37:38.968750,2.64,87.15
101344,2018-06-29 09:37:39.000000,8.11,87.15
101345,2018-06-29 09:37:39.031250,7.05,87.15
101346,2018-06-29 09:37:39.062500,3.17,87.15
101347,2018-06-29 09:37:39.093750,1.88,87.15
101348,2018-06-29 09:37:39.125000,4.42,87.15
101349,2018-06-29 09:37:39.156250,9.18,87.15
101350,2018-06-29 09:37:39.187500,16.52,87.15
101351,2018-06-29 09:37:39.218750,27.91,87.15
101352,2018-06-29 09:37:39.250000,41.56,87.15
101353,2018-06-29 09:37:39.281250,52.33,87.15
101354,2018-06-29 09:37:39.312500,56.21,87.15
101355,2018-06-29 09:37:39.343750,54.0,87.15
101356,2018-06-29 09:37:39.375000,49.36,87.15
101357,2018-06-29 09:37:39.406250,44.04,87.15
101358,2018-06-29 09:37:39.437500,37.38,87.15
101359,2018-06-29 09:37:39.468750,29.69,87.15
101360,2018-06-29 09:37:39.500000,23.42,87.15
101361,2018-06-29 09:37:39.531250,20.31,87.75
101362,2018-06-29 09:37:39.562500,19.47,87.75
101363,2018-06-29 09:37:39.593750,19.11,87.75
101364,2018-06-29 09:37:39.625000,19.47,87.75
101365,2018-06-29 09:37:39.656250,22.86,87.75
101366,2018-06-29 09:37:39.687500,29.68,87.75
101367,2018-06-29 09:37:39.718750,36.51,87.75
101368,2018-06-29 09:37:39.750000,38.45,87.75
101369,2018-06-29 09:37:39.781250,32.51,87.75
101370,2018-06-29 09:37:39.812500,22.05,87.75
101371,2018-06-29 09:37:39.843750,19.66,87.75
101372,2018-06-29 09:37:39.875000,36.13,87.75
101373,2018-06-29 09:37:39.906250,63.37,87.75
101374,2018-06-29 09:37:39.937500,81.35,87.75
101375,2018-06-29 09:37:39.968750,81.72,87.75
101376,2018-06-29 09:37:40.000000,71.36,87.75
101377,2018-06-29 09:37:40.031250,57.37,87.75
101378,2018-06-29 09:37:40.062500,42.32,87.75
101379,2018-06-29 09:37:40.093750,27.73,87.75
101380,2018-06-29 09:37:40.125000,10.43,87.75
101381,2018-06-29 09:37:40.156250,-17.66,87.75
101382,2018-06-29 09:37:40.187500,-59.77,87.75
101383,2018-06-29 09:37:40.218750,-108.77,87.75
101384,2018-06-29 09:37:40.250000,-153.27,87.75
101385,2018-06-29 09:37:40.281250,-184.27,87.75
101386,2018-06-29 09:37:40.312500,-195.97,87.75
101387,2018-06-29 09:37:40.343750,-186.28,87.75
101388,2018-06-29 09:37:40.375000,-159.4,87.75
101389,2018-06-29 09:37:40.406250,-125.4,87.75
101390,2018-06-29 09:37:40.437500,-94.82,87.75
101391,2018-06-29 09:37:40.468750,-73.38,87.75
101392,2018-06-29 09:37:40.500000,-61.09,87.75
101393,2018-06-29 09:37:40.531250,-54.17,88.35
101394,2018-06-29 09:37:40.562500,-47.44,88.35
101395,2018-06-29 09:37:40.593750,-37.73,88.35
101396,2018-06-29 09:37:40.625000,-26.61,88.35
101397,2018-06-29 09:37:40.656250,-18.84,88.35
101398,2018-06-29 09:37:40.687500,-15.12,88.35
101399,2018-06-29 09:37:40.718750,-6.16,88.35
101400,2018-06-29 09:37:40.750000,19.76,88.35
101401,2018-06-29 09:37:40.781250,61.47,88.35
101402,2018-06-29 09:37:40.812500,103.1,88.35
101403,2018-06-29 09:37:40.843750,130.24,88.35
101404,2018-06-29 09:37:40.875000,142.24,88.35
101405,2018-06-29 09:37:40.906250,146.78,88.35
101406,2018-06-29 09:37:40.937500,148.42,88.35
101407,2018-06-29 09:37:40.968750,146.52,88.35
101408,2018-06-29 09:37:41.000000,140.75,88.35
101409,2018-06-29 09:37:41.031250,132.35,88.35
101410,2018-06-29 09:37:41.062500,121.35,88.35
101411,2018-06-29 09:37:41.093750,108.25,88.35
101412,2018-06-29 09:37:41.125000,95.8,88.35
101413,2018-06-29 09:37:41.156250,85.02,88.35
101414,2018-06-29 09:37:41.187500,72.73,88.35
101415,2018-06-29 09:37:41.218750,57.36,88.35
101416,2018-06-29 09:37:41.250000,43.0,88.35
101417,2018-06-29 09:37:41.281250,34.52,88.35
101418,2018-06-29 09:37:41.312500,31.5,88.35
101419,2018-06-29 09:37:41.343750,29.8,88.35
101420,2018-06-29 09:37:41.375000,27.03,88.35
101421,2018-06-29 09:37:41.406250,22.45,88.35
101422,2018-06-29 09:37:41.437500,12.73,88.35
101423,2018-06-29 09:37:41.468750,-7.57,88.35
101424,2018-06-29 09:37:41.500000,-41.28,88.35
101425,2018-06-29 09:37:41.531250,-85.19,88.95
101426,2018-06-29 09:37:41.562500,-128.8,88.95
101427,2018-06-29 09:37:41.593750,-158.43,88.95
101428,2018-06-29 09:37:41.625000,-169.52,88.95
101429,2018-06-29 09:37:41.656250,-171.57,88.95
101430,2018-06-29 09:37:41.687500,-174.69,88.95
101431,2018-06-29 09:37:41.718750,-178.33,88.95
101432,2018-06-29 09:37:41.750000,-179.38,88.95
101433,2018-06-29 09:37:41.781250,-179.85,88.95
101434,2018-06-29 09:37:41.812500,-179.1,88.95
101435,2018-06-29 09:37:41.843750,-171.23,88.95
101436,2018-06-29 09:37:41.875000,-155.46,88.95
101437,2018-06-29 09:37:41.906250,-138.19,88.95
101438,2018-06-29 09:37:41.937500,-123.53,88.95
101439,2018-06-29 09:37:41.968750,-112.95,88.95
101440,2018-06-29 09:37:42.000000,-114.14,88.95
101441,2018-06-29 09:37:42.031250,-138.91,88.95
101442,2018-06-29 09:37:42.062500,-190.73,88.95
101443,2018-06-29 09:37:42.093750,-259.81,88.95
101444,2018-06-29 09:37:42.125000,-327.22,88.95
101445,2018-06-29 09:37:42.156250,-368.61,88.95
101446,2018-06-29 09:37:42.187500,-365.62,88.95
101447,2018-06-29 09:37:42.218750,-324.48,88.95
101448,2018-06-29 09:37:42.250000,-272.06,88.95
101449,2018-06-29 09:37:42.281250,-228.52,88.95
101450,2018-06-29 09:37:42.312500,-196.89,88.95
101451,2018-06-29 09:37:42.343750,-177.9,88.95
101452,2018-06-29 09:37:42.375000,-174.61,88.95
101453,2018-06-29 09:37:42.406250,-181.13,88.95
101454,2018-06-29 09:37:42.437500,-181.88,88.95
101455,2018-06-29 09:37:42.468750,-162.46,88.95
101456,2018-06-29 09:37:42.500000,-116.5,88.95
101457,2018-06-29 09:37:42.531250,-47.77,89.58
101458,2018-06-29 09:37:42.562500,31.25,89.58
101459,2018-06-29 09:37:42.593750,106.9,89.58
101460,2018-06-29 09:37:42.625000,171.38,89.58
101461,2018-06-29 09:37:42.656250,220.13,89.58
101462,2018-06-29 09:37:42.687500,247.41,89.58
101463,2018-06-29 09:37:42.718750,251.66,89.58
101464,2018-06-29 09:37:42.750000,241.79,89.58
101465,2018-06-29 09:37:42.781250,230.68,89.58
101466,2018-06-29 09:37:42.812500,223.78,89.58
101467,2018-06-29 09:37:42.843750,219.08,89.58
101468,2018-06-29 09:37:42.875000,214.1,89.58
101469,2018-06-29 09:37:42.906250,207.57,89.58
101470,2018-06-29 09:37:42.937500,198.33,89.58
101471,2018-06-29 09:37:42.968750,186.46,89.58
101472,2018-06-29 09:37:43.000000,172.96,89.58
101473,2018-06-29 09:37:43.031250,158.6,89.58
101474,2018-06-29 09:37:43.062500,145.2,89.58
101475,2018-06-29 09:37:43.093750,135.93,89.58
101476,2018-06-29 09:37:43.125000,131.16,89.58
101477,2018-06-29 09:37:43.156250,124.48,89.58
101478,2018-06-29 09:37:43.187500,105.82,89.58
101479,2018-06-29 09:37:43.218750,71.7,89.58
101480,2018-06-29 09:37:43.250000,30.11,89.58
101481,2018-06-29 09:37:43.281250,-9.25,89.58
101482,2018-06-29 09:37:43.312500,-44.66,89.58
101483,2018-06-29 09:37:43.343750,-76.46,89.58
101484,2018-06-29 09:37:43.375000,-97.49,89.58
101485,2018-06-29 09:37:43.406250,-97.08,89.58
101486,2018-06-29 09:37:43.437500,-72.5,89.58
101487,2018-06-29 09:37:43.468750,-32.57,89.58
101488,2018-06-29 09:37:43.500000,9.49,89.58
101489,2018-06-29 09:37:43.531250,49.52,90.3
101490,2018-06-29 09:37:43.562500,95.63,90.3
101491,2018-06-29 09:37:43.593750,151.36,90.3
101492,2018-06-29 09:37:43.625000,201.87,90.3
101493,2018-06-29 09:37:43.656250,228.44,90.3
101494,2018-06-29 09:37:43.687500,229.07,90.3
101495,2018-06-29 09:37:43.718750,214.61,90.3
101496,2018-06-29 09:37:43.750000,193.7,90.3
101497,2018-06-29 09:37:43.781250,169.92,90.3
101498,2018-06-29 09:37:43.812500,145.66,90.3
101499,2018-06-29 09:37:43.843750,121.43,90.3
101500,2018-06-29 09:37:43.875000,93.55,90.3
101501,2018-06-29 09:37:43.906250,57.88,90.3
101502,2018-06-29 09:37:43.937500,15.27,90.3
101503,2018-06-29 09:37:43.968750,-28.94,90.3
101504,2018-06-29 09:37:44.000000,-69.64,90.3
101505,2018-06-29 09:37:44.031250,-102.5,90.3
101506,2018-06-29 09:37:44.062500,-122.29,90.3
101507,2018-06-29 09:37:44.093750,-126.81,90.3
101508,2018-06-29 09:37:44.125000,-120.48,90.3
101509,2018-06-29 09:37:44.156250,-109.97,90.3
101510,2018-06-29 09:37:44.187500,-99.83,90.3
101511,2018-06-29 09:37:44.218750,-92.76,90.3
101512,2018-06-29 09:37:44.250000,-86.45,90.3
101513,2018-06-29 09:37:44.281250,-70.81,90.3
101514,2018-06-29 09:37:44.312500,-38.23,90.3
101515,2018-06-29 09:37:44.343750,4.69,90.3
101516,2018-06-29 09:37:44.375000,43.44,90.3
101517,2018-06-29 09:37:44.406250,70.36,90.3
101518,2018-06-29 09:37:44.437500,86.83,90.3
101519,2018-06-29 09:37:44.468750,94.79,90.3
101520,2018-06-29 09:37:44.500000,94.73,90.3
101521,2018-06-29 09:37:44.531250,90.11,90.43
101522,2018-06-29 09:37:44.562500,86.37,90.43
101523,2018-06-29 09:37:44.593750,84.33,90.43
101524,2018-06-29 09:37:44.625000,80.68,90.43
101525,2018-06-29 09:37:44.656250,74.48,90.43
101526,2018-06-29 09:37:44.687500,67.7,90.43
101527,2018-06-29 09:37:44.718750,60.23,90.43
101528,2018-06-29 09:37:44.750000,49.78,90.43
101529,2018-06-29 09:37:44.781250,36.09,90.43
101530,2018-06-29 09:37:44.812500,21.41,90.43
101531,2018-06-29 09:37:44.843750,7.29,90.43
101532,2018-06-29 09:37:44.875000,-6.48,90.43
101533,2018-06-29 09:37:44.906250,-20.88,90.43
101534,2018-06-29 09:37:44.937500,-36.31,90.43
101535,2018-06-29 09:37:44.968750,-51.6,90.43
101536,2018-06-29 09:37:45.000000,-64.78,90.43
101537,2018-06-29 09:37:45.031250,-75.58,90.43
101538,2018-06-29 09:37:45.062500,-86.51,90.43
101539,2018-06-29 09:37:45.093750,-100.99,90.43
101540,2018-06-29 09:37:45.125000,-119.3,90.43
101541,2018-06-29 09:37:45.156250,-133.13,90.43
101542,2018-06-29 09:37:45.187500,-127.72,90.43
101543,2018-06-29 09:37:45.218750,-96.4,90.43
101544,2018-06-29 09:37:45.250000,-50.31,90.43
101545,2018-06-29 09:37:45.281250,-6.91,90.43
101546,2018-06-29 09:37:45.312500,25.84,90.43
101547,2018-06-29 09:37:45.343750,48.7,90.43
101548,2018-06-29 09:37:45.375000,62.88,90.43
101549,2018-06-29 09:37:45.406250,69.6,90.43
101550,2018-06-29 09:37:45.437500,71.89,90.43
101551,2018-06-29 09:37:45.468750,72.51,90.43
101552,2018-06-29 09:37:45.500000,72.28,90.43
101553,2018-06-29 09:37:45.531250,71.61,90.62
101554,2018-06-29 09:37:45.562500,71.06,90.62
101555,2018-06-29 09:37:45.593750,69.35,90.62
101556,2018-06-29 09:37:45.625000,64.31,90.62
101557,2018-06-29 09:37:45.656250,55.75,90.62
101558,2018-06-29 09:37:45.687500,45.58,90.62
101559,2018-06-29 09:37:45.718750,35.29,90.62
101560,2018-06-29 09:37:45.750000,24.91,90.62
101561,2018-06-29 09:37:45.781250,14.19,90.62
101562,2018-06-29 09:37:45.812500,3.1,90.62
101563,2018-06-29 09:37:45.843750,-8.52,90.62
101564,2018-06-29 09:37:45.875000,-20.73,90.62
101565,2018-06-29 09:37:45.906250,-33.26,90.62
101566,2018-06-29 09:37:45.937500,-45.37,90.62
101567,2018-06-29 09:37:45.968750,-56.26,90.62
101568,2018-06-29 09:37:46.000000,-65.93,90.62
101569,2018-06-29 09:37:46.031250,-76.98,90.62
101570,2018-06-29 09:37:46.062500,-91.96,90.62
101571,2018-06-29 09:37:46.093750,-105.27,90.62
101572,2018-06-29 09:37:46.125000,-101.92,90.62
101573,2018-06-29 09:37:46.156250,-72.59,90.62
101574,2018-06-29 09:37:46.187500,-26.62,90.62
101575,2018-06-29 09:37:46.218750,17.43,90.62
101576,2018-06-29 09:37:46.250000,50.04,90.62
101577,2018-06-29 09:37:46.281250,71.99,90.62
101578,2018-06-29 09:37:46.312500,84.61,90.62
101579,2018-06-29 09:37:46.343750,88.16,90.62
101580,2018-06-29 09:37:46.375000,85.35,90.62
101581,2018-06-29 09:37:46.406250,80.22,90.62
101582,2018-06-29 09:37:46.437500,75.07,90.62
101583,2018-06-29 09:37:46.468750,71.33,90.62
101584,2018-06-29 09:37:46.500000,70.39,90.62
101585,2018-06-29 09:37:46.531250,71.7,90.77
101586,2018-06-29 09:37:46.562500,71.64,90.77
101587,2018-06-29 09:37:46.593750,66.5,90.77
101588,2018-06-29 09:37:46.625000,56.0,90.77
101589,2018-06-29 09:37:46.656250,43.31,90.77
101590,2018-06-29 09:37:46.687500,31.59,90.77
101591,2018-06-29 09:37:46.718750,21.3,90.77
101592,2018-06-29 09:37:46.750000,10.91,90.77
101593,2018-06-29 09:37:46.781250,0.39,90.77
101594,2018-06-29 09:37:46.812500,-8.46,90.77
101595,2018-06-29 09:37:46.843750,-15.16,90.77
101596,2018-06-29 09:37:46.875000,-23.24,90.77
101597,2018-06-29 09:37:46.906250,-37.16,90.77
101598,2018-06-29 09:37:46.937500,-57.0,90.77
101599,2018-06-29 09:37:46.968750,-78.13,90.77
101600,2018-06-29 09:37:47.000000,-96.74,90.77
101601,2018-06-29 09:37:47.031250,-113.39,90.77
101602,2018-06-29 09:37:47.062500,-129.79,90.77
101603,2018-06-29 09:37:47.093750,-142.42,90.77
101604,2018-06-29 09:37:47.125000,-140.22,90.77
101605,2018-06-29 09:37:47.156250,-112.41,90.77
101606,2018-06-29 09:37:47.187500,-61.13,90.77
101607,2018-06-29 09:37:47.218750,-2.97,90.77
101608,2018-06-29 09:37:47.250000,44.39,90.77
101609,2018-06-29 09:37:47.281250,74.0,90.77
101610,2018-06-29 09:37:47.312500,87.78,90.77
101611,2018-06-29 09:37:47.343750,89.29,90.77
101612,2018-06-29 09:37:47.375000,82.75,90.77
101613,2018-06-29 09:37:47.406250,73.7,90.77
101614,2018-06-29 09:37:47.437500,65.87,90.77
101615,2018-06-29 09:37:47.468750,59.73,90.77
101616,2018-06-29 09:37:47.500000,56.1,90.77
101617,2018-06-29 09:37:47.531250,56.64,91.0
101618,2018-06-29 09:37:47.562500,59.51,91.0
101619,2018-06-29 09:37:47.593750,59.7,91.0
101620,2018-06-29 09:37:47.625000,54.42,91.0
101621,2018-06-29 09:37:47.656250,45.87,91.0
101622,2018-06-29 09:37:47.687500,39.06,91.0
101623,2018-06-29 09:37:47.718750,36.78,91.0
101624,2018-06-29 09:37:47.750000,36.26,91.0
101625,2018-06-29 09:37:47.781250,32.22,91.0
101626,2018-06-29 09:37:47.812500,23.82,91.0
101627,2018-06-29 09:37:47.843750,15.48,91.0
101628,2018-06-29 09:37:47.875000,10.81,91.0
101629,2018-06-29 09:37:47.906250,9.82,91.0
101630,2018-06-29 09:37:47.937500,11.6,91.0
101631,2018-06-29 09:37:47.968750,14.9,91.0
101632,2018-06-29 09:37:48.000000,15.91,91.0
101633,2018-06-29 09:37:48.031250,10.91,91.0
101634,2018-06-29 09:37:48.062500,1.2,91.0
101635,2018-06-29 09:37:48.093750,-7.58,91.0
101636,2018-06-29 09:37:48.125000,-7.53,91.0
101637,2018-06-29 09:37:48.156250,9.2,91.0
101638,2018-06-29 09:37:48.187500,42.91,91.0
101639,2018-06-29 09:37:48.218750,81.13,91.0
101640,2018-06-29 09:37:48.250000,108.51,91.0
101641,2018-06-29 09:37:48.281250,119.9,91.0
101642,2018-06-29 09:37:48.312500,119.41,91.0
101643,2018-06-29 09:37:48.343750,114.24,91.0
101644,2018-06-29 09:37:48.375000,112.23,91.0
101645,2018-06-29 09:37:48.406250,117.19,91.0
101646,2018-06-29 09:37:48.437500,125.18,91.0
101647,2018-06-29 09:37:48.468750,129.77,91.0
101648,2018-06-29 09:37:48.500000,129.42,91.0
101649,2018-06-29 09:37:48.531250,126.93,91.27
101650,2018-06-29 09:37:48.562500,124.07,91.27
101651,2018-06-29 09:37:48.593750,118.92,91.27
101652,2018-06-29 09:37:48.625000,107.43,91.27
101653,2018-06-29 09:37:48.656250,88.16,91.27
101654,2018-06-29 09:37:48.687500,65.6,91.27
101655,2018-06-29 09:37:48.718750,46.44,91.27
101656,2018-06-29 09:37:48.750000,32.18,91.27
101657,2018-06-29 09:37:48.781250,20.52,91.27
101658,2018-06-29 09:37:48.812500,12.91,91.27
101659,2018-06-29 09:37:48.843750,13.11,91.27
101660,2018-06-29 09:37:48.875000,18.41,91.27
101661,2018-06-29 09:37:48.906250,21.38,91.27
101662,2018-06-29 09:37:48.937500,20.75,91.27
101663,2018-06-29 09:37:48.968750,22.48,91.27
101664,2018-06-29 09:37:49.000000,26.46,91.27
101665,2018-06-29 09:37:49.031250,18.7,91.27
101666,2018-06-29 09:37:49.062500,-15.21,91.27
101667,2018-06-29 09:37:49.093750,-71.64,91.27
101668,2018-06-29 09:37:49.125000,-133.94,91.27
101669,2018-06-29 09:37:49.156250,-193.31,91.27
101670,2018-06-29 09:37:49.187500,-254.23,91.27
101671,2018-06-29 09:37:49.218750,-321.37,91.27
101672,2018-06-29 09:37:49.250000,-388.64,91.27
101673,2018-06-29 09:37:49.281250,-438.61,91.27
101674,2018-06-29 09:37:49.312500,-454.14,91.27
101675,2018-06-29 09:37:49.343750,-438.39,91.27
101676,2018-06-29 09:37:49.375000,-416.26,91.27
101677,2018-06-29 09:37:49.406250,-401.56,91.27
101678,2018-06-29 09:37:49.437500,-371.05,91.27
101679,2018-06-29 09:37:49.468750,-293.07,91.27
101680,2018-06-29 09:37:49.500000,-170.02,91.27
101681,2018-06-29 09:37:49.531250,-29.2,91.65
101682,2018-06-29 09:37:49.562500,104.7,91.65
101683,2018-06-29 09:37:49.593750,205.46,91.65
101684,2018-06-29 09:37:49.625000,249.64,91.65
101685,2018-06-29 09:37:49.656250,244.48,91.65
101686,2018-06-29 09:37:49.687500,217.98,91.65
101687,2018-06-29 09:37:49.718750,181.72,91.65
101688,2018-06-29 09:37:49.750000,132.42,91.65
101689,2018-06-29 09:37:49.781250,74.31,91.65
101690,2018-06-29 09:37:49.812500,17.01,91.65
101691,2018-06-29 09:37:49.843750,-31.97,91.65
101692,2018-06-29 09:37:49.875000,-64.83,91.65
101693,2018-06-29 09:37:49.906250,-76.93,91.65
101694,2018-06-29 09:37:49.937500,-72.26,91.65
101695,2018-06-29 09:37:49.968750,-60.66,91.65
101696,2018-06-29 09:37:50.000000,-51.9,91.65
101697,2018-06-29 09:37:50.031250,-51.47,91.65
101698,2018-06-29 09:37:50.062500,-58.58,91.65
101699,2018-06-29 09:37:50.093750,-69.46,91.65
101700,2018-06-29 09:37:50.125000,-83.92,91.65
101701,2018-06-29 09:37:50.156250,-102.33,91.65
101702,2018-06-29 09:37:50.187500,-114.89,91.65
101703,2018-06-29 09:37:50.218750,-107.69,91.65
101704,2018-06-29 09:37:50.250000,-84.09,91.65
101705,2018-06-29 09:37:50.281250,-63.54,91.65
101706,2018-06-29 09:37:50.312500,-55.64,91.65
101707,2018-06-29 09:37:50.343750,-53.1,91.65
101708,2018-06-29 09:37:50.375000,-50.39,91.65
101709,2018-06-29 09:37:50.406250,-49.6,91.65
101710,2018-06-29 09:37:50.437500,-48.22,91.65
101711,2018-06-29 09:37:50.468750,-39.2,91.65
101712,2018-06-29 09:37:50.500000,-24.57,91.65
101713,2018-06-29 09:37:50.531250,-16.67,92.03
101714,2018-06-29 09:37:50.562500,-24.35,92.03
101715,2018-06-29 09:37:50.593750,-43.26,92.03
101716,2018-06-29 09:37:50.625000,-54.0,92.03
101717,2018-06-29 09:37:50.656250,-31.28,92.03
101718,2018-06-29 09:37:50.687500,27.47,92.03
101719,2018-06-29 09:37:50.718750,88.57,92.03
101720,2018-06-29 09:37:50.750000,117.43,92.03
101721,2018-06-29 09:37:50.781250,114.33,92.03
101722,2018-06-29 09:37:50.812500,97.74,92.03
101723,2018-06-29 09:37:50.843750,76.39,92.03
101724,2018-06-29 09:37:50.875000,52.81,92.03
101725,2018-06-29 09:37:50.906250,32.94,92.03
101726,2018-06-29 09:37:50.937500,18.3,92.03
101727,2018-06-29 09:37:50.968750,-0.99,92.03
101728,2018-06-29 09:37:51.000000,-35.1,92.03
101729,2018-06-29 09:37:51.031250,-75.53,92.03
101730,2018-06-29 09:37:51.062500,-97.25,92.03
101731,2018-06-29 09:37:51.093750,-85.87,92.03
101732,2018-06-29 09:37:51.125000,-51.77,92.03
101733,2018-06-29 09:37:51.156250,-13.62,92.03
101734,2018-06-29 09:37:51.187500,17.81,92.03
101735,2018-06-29 09:37:51.218750,36.99,92.03
101736,2018-06-29 09:37:51.250000,41.9,92.03
101737,2018-06-29 09:37:51.281250,38.91,92.03
101738,2018-06-29 09:37:51.312500,37.09,92.03
101739,2018-06-29 09:37:51.343750,36.89,92.03
101740,2018-06-29 09:37:51.375000,33.84,92.03
101741,2018-06-29 09:37:51.406250,28.84,92.03
101742,2018-06-29 09:37:51.437500,24.8,92.03
101743,2018-06-29 09:37:51.468750,19.13,92.03
101744,2018-06-29 09:37:51.500000,8.88,92.03
101745,2018-06-29 09:37:51.531250,-3.86,92.45
101746,2018-06-29 09:37:51.562500,-14.23,92.45
101747,2018-06-29 09:37:51.593750,-17.15,92.45
101748,2018-06-29 09:37:51.625000,-10.97,92.45
101749,2018-06-29 09:37:51.656250,-0.64,92.45
101750,2018-06-29 09:37:51.687500,7.87,92.45
101751,2018-06-29 09:37:51.718750,13.87,92.45
101752,2018-06-29 09:37:51.750000,16.56,92.45
101753,2018-06-29 09:37:51.781250,11.58,92.45
101754,2018-06-29 09:37:51.812500,-1.44,92.45
101755,2018-06-29 09:37:51.843750,-15.91,92.45
101756,2018-06-29 09:37:51.875000,-26.12,92.45
101757,2018-06-29 09:37:51.906250,-33.64,92.45
101758,2018-06-29 09:37:51.937500,-43.74,92.45
101759,2018-06-29 09:37:51.968750,-57.46,92.45
101760,2018-06-29 09:37:52.000000,-67.48,92.45
101761,2018-06-29 09:37:52.031250,-63.09,92.45
101762,2018-06-29 09:37:52.062500,-41.0,92.45
101763,2018-06-29 09:37:52.093750,-8.71,92.45
101764,2018-06-29 09:37:52.125000,24.53,92.45
101765,2018-06-29 09:37:52.156250,54.42,92.45
101766,2018-06-29 09:37:52.187500,78.06,92.45
101767,2018-06-29 09:37:52.218750,93.01,92.45
101768,2018-06-29 09:37:52.250000,102.71,92.45
101769,2018-06-29 09:37:52.281250,112.87,92.45
101770,2018-06-29 09:37:52.312500,121.46,92.45
101771,2018-06-29 09:37:52.343750,119.29,92.45
101772,2018-06-29 09:37:52.375000,101.15,92.45
101773,2018-06-29 09:37:52.406250,70.2,92.45
101774,2018-06-29 09:37:52.437500,32.96,92.45
101775,2018-06-29 09:37:52.468750,-2.48,92.45
101776,2018-06-29 09:37:52.500000,-27.19,92.45
101777,2018-06-29 09:37:52.531250,-35.8,92.85
101778,2018-06-29 09:37:52.562500,-25.72,92.85
101779,2018-06-29 09:37:52.593750,8.38,92.85
101780,2018-06-29 09:37:52.625000,69.08,92.85
101781,2018-06-29 09:37:52.656250,144.55,92.85
101782,2018-06-29 09:37:52.687500,214.46,92.85
101783,2018-06-29 09:37:52.718750,265.47,92.85
101784,2018-06-29 09:37:52.750000,295.28,92.85
101785,2018-06-29 09:37:52.781250,308.34,92.85
101786,2018-06-29 09:37:52.812500,310.09,92.85
101787,2018-06-29 09:37:52.843750,298.17,92.85
101788,2018-06-29 09:37:52.875000,264.02,92.85
101789,2018-06-29 09:37:52.906250,212.3,92.85
101790,2018-06-29 09:37:52.937500,167.66,92.85
101791,2018-06-29 09:37:52.968750,149.86,92.85
101792,2018-06-29 09:37:53.000000,152.96,92.85
101793,2018-06-29 09:37:53.031250,156.63,92.85
101794,2018-06-29 09:37:53.062500,145.22,92.85
101795,2018-06-29 09:37:53.093750,114.37,92.85
101796,2018-06-29 09:37:53.125000,70.24,92.85
101797,2018-06-29 09:37:53.156250,22.86,92.85
101798,2018-06-29 09:37:53.187500,-23.41,92.85
101799,2018-06-29 09:37:53.218750,-67.54,92.85
