,Time,ppg,hr
105600,2018-06-29 09:39:52.000000,-62.25,72.8
105601,2018-06-29 09:39:52.031250,-71.49,72.8
105602,2018-06-29 09:39:52.062500,-82.3,72.8
105603,2018-06-29 09:39:52.093750,-84.81,72.8
105604,2018-06-29 09:39:52.125000,-68.91,72.8
105605,2018-06-29 09:39:52.156250,-37.21,72.8
105606,2018-06-29 09:39:52.187500,-3.33,72.8
105607,2018-06-29 09:39:52.218750,23.4,72.8
105608,2018-06-29 09:39:52.250000,44.16,72.8
105609,2018-06-29 09:39:52.281250,62.82,72.8
105610,2018-06-29 09:39:52.312500,79.65,72.8
105611,2018-06-29 09:39:52.343750,92.35,72.8
105612,2018-06-29 09:39:52.375000,98.67,72.8
105613,2018-06-29 09:39:52.406250,98.5,72.8
105614,2018-06-29 09:39:52.437500,93.83,72.8
105615,2018-06-29 09:39:52.468750,87.51,72.8
105616,2018-06-29 09:39:52.500000,82.19,72.8
105617,2018-06-29 09:39:52.531250,78.78,72.68
105618,2018-06-29 09:39:52.562500,75.23,72.68
105619,2018-06-29 09:39:52.593750,69.59,72.68
105620,2018-06-29 09:39:52.625000,63.04,72.68
105621,2018-06-29 09:39:52.656250,57.67,72.68
105622,2018-06-29 09:39:52.687500,52.68,72.68
105623,2018-06-29 09:39:52.718750,45.24,72.68
105624,2018-06-29 09:39:52.750000,34.27,72.68
105625,2018-06-29 09:39:52.781250,21.53,72.68
105626,2018-06-29 09:39:52.812500,8.76,72.68
105627,2018-06-29 09:39:52.843750,-4.71,72.68
105628,2018-06-29 09:39:52.875000,-19.83,72.68
105629,2018-06-29 09:39:52.906250,-34.65,72.68
105630,2018-06-29 09:39:52.937500,-45.97,72.68
105631,2018-06-29 09:39:52.968750,-53.37,72.68
105632,2018-06-29 09:39:53.000000,-59.75,72.68
105633,2018-06-29 09:39:53.031250,-68.63,72.68
105634,2018-06-29 09:39:53.062500,-80.12,72.68
105635,2018-06-29 09:39:53.093750,-87.18,72.68
105636,2018-06-29 09:39:53.125000,-78.55,72.68
105637,2018-06-29 09:39:53.156250,-51.43,72.68
105638,2018-06-29 09:39:53.187500,-17.2,72.68
105639,2018-06-29 09:39:53.218750,10.8,72.68
105640,2018-06-29 09:39:53.250000,29.93,72.68
105641,2018-06-29 09:39:53.281250,44.25,72.68
105642,2018-06-29 09:39:53.312500,55.24,72.68
105643,2018-06-29 09:39:53.343750,61.38,72.68
105644,2018-06-29 09:39:53.375000,62.06,72.68
105645,2018-06-29 09:39:53.406250,58.29,72.68
105646,2018-06-29 09:39:53.437500,52.13,72.68
105647,2018-06-29 09:39:53.468750,46.69,72.68
105648,2018-06-29 09:39:53.500000,44.71,72.68
105649,2018-06-29 09:39:53.531250,45.5,72.57
105650,2018-06-29 09:39:53.562500,45.09,72.57
105651,2018-06-29 09:39:53.593750,40.59,72.57
105652,2018-06-29 09:39:53.625000,33.31,72.57
105653,2018-06-29 09:39:53.656250,26.84,72.57
105654,2018-06-29 09:39:53.687500,22.14,72.57
105655,2018-06-29 09:39:53.718750,16.82,72.57
105656,2018-06-29 09:39:53.750000,9.2,72.57
105657,2018-06-29 09:39:53.781250,1.1,72.57
105658,2018-06-29 09:39:53.812500,-5.16,72.57
105659,2018-06-29 09:39:53.843750,-9.93,72.57
105660,2018-06-29 09:39:53.875000,-15.49,72.57
105661,2018-06-29 09:39:53.906250,-23.13,72.57
105662,2018-06-29 09:39:53.937500,-31.97,72.57
105663,2018-06-29 09:39:53.968750,-40.52,72.57
105664,2018-06-29 09:39:54.000000,-48.83,72.57
105665,2018-06-29 09:39:54.031250,-58.43,72.57
105666,2018-06-29 09:39:54.062500,-69.75,72.57
105667,2018-06-29 09:39:54.093750,-78.25,72.57
105668,2018-06-29 09:39:54.125000,-75.29,72.57
105669,2018-06-29 09:39:54.156250,-56.46,72.57
105670,2018-06-29 09:39:54.187500,-27.87,72.57
105671,2018-06-29 09:39:54.218750,-0.64,72.57
105672,2018-06-29 09:39:54.250000,19.04,72.57
105673,2018-06-29 09:39:54.281250,31.49,72.57
105674,2018-06-29 09:39:54.312500,38.49,72.57
105675,2018-06-29 09:39:54.343750,40.8,72.57
105676,2018-06-29 09:39:54.375000,39.74,72.57
105677,2018-06-29 09:39:54.406250,37.43,72.57
105678,2018-06-29 09:39:54.437500,35.07,72.57
105679,2018-06-29 09:39:54.468750,32.98,72.57
105680,2018-06-29 09:39:54.500000,31.63,72.57
105681,2018-06-29 09:39:54.531250,30.95,72.37
105682,2018-06-29 09:39:54.562500,29.61,72.37
105683,2018-06-29 09:39:54.593750,26.07,72.37
105684,2018-06-29 09:39:54.625000,19.66,72.37
105685,2018-06-29 09:39:54.656250,11.0,72.37
105686,2018-06-29 09:39:54.687500,1.53,72.37
105687,2018-06-29 09:39:54.718750,-7.24,72.37
105688,2018-06-29 09:39:54.750000,-14.6,72.37
105689,2018-06-29 09:39:54.781250,-20.99,72.37
105690,2018-06-29 09:39:54.812500,-27.32,72.37
105691,2018-06-29 09:39:54.843750,-33.52,72.37
105692,2018-06-29 09:39:54.875000,-38.96,72.37
105693,2018-06-29 09:39:54.906250,-44.17,72.37
105694,2018-06-29 09:39:54.937500,-50.92,72.37
105695,2018-06-29 09:39:54.968750,-60.72,72.37
105696,2018-06-29 09:39:55.000000,-71.82,72.37
105697,2018-06-29 09:39:55.031250,-76.83,72.37
105698,2018-06-29 09:39:55.062500,-67.36,72.37
105699,2018-06-29 09:39:55.093750,-43.87,72.37
105700,2018-06-29 09:39:55.125000,-16.39,72.37
105701,2018-06-29 09:39:55.156250,5.87,72.37
105702,2018-06-29 09:39:55.187500,21.15,72.37
105703,2018-06-29 09:39:55.218750,32.01,72.37
105704,2018-06-29 09:39:55.250000,40.11,72.37
105705,2018-06-29 09:39:55.281250,45.32,72.37
105706,2018-06-29 09:39:55.312500,47.15,72.37
105707,2018-06-29 09:39:55.343750,46.07,72.37
105708,2018-06-29 09:39:55.375000,43.16,72.37
105709,2018-06-29 09:39:55.406250,39.18,72.37
105710,2018-06-29 09:39:55.437500,34.79,72.37
105711,2018-06-29 09:39:55.468750,30.45,72.37
105712,2018-06-29 09:39:55.500000,25.89,72.37
105713,2018-06-29 09:39:55.531250,20.65,72.17
105714,2018-06-29 09:39:55.562500,14.7,72.17
105715,2018-06-29 09:39:55.593750,8.31,72.17
105716,2018-06-29 09:39:55.625000,2.03,72.17
105717,2018-06-29 09:39:55.656250,-3.31,72.17
105718,2018-06-29 09:39:55.687500,-8.02,72.17
105719,2018-06-29 09:39:55.718750,-13.56,72.17
105720,2018-06-29 09:39:55.750000,-20.56,72.17
105721,2018-06-29 09:39:55.781250,-28.32,72.17
105722,2018-06-29 09:39:55.812500,-35.7,72.17
105723,2018-06-29 09:39:55.843750,-42.36,72.17
105724,2018-06-29 09:39:55.875000,-49.67,72.17
105725,2018-06-29 09:39:55.906250,-59.62,72.17
105726,2018-06-29 09:39:55.937500,-70.61,72.17
105727,2018-06-29 09:39:55.968750,-74.89,72.17
105728,2018-06-29 09:39:56.000000,-64.13,72.17
105729,2018-06-29 09:39:56.031250,-38.93,72.17
105730,2018-06-29 09:39:56.062500,-9.8,72.17
105731,2018-06-29 09:39:56.093750,13.81,72.17
105732,2018-06-29 09:39:56.125000,30.64,72.17
105733,2018-06-29 09:39:56.156250,42.54,72.17
105734,2018-06-29 09:39:56.187500,49.1,72.17
105735,2018-06-29 09:39:56.218750,50.5,72.17
105736,2018-06-29 09:39:56.250000,49.57,72.17
105737,2018-06-29 09:39:56.281250,48.45,72.17
105738,2018-06-29 09:39:56.312500,46.71,72.17
105739,2018-06-29 09:39:56.343750,43.78,72.17
105740,2018-06-29 09:39:56.375000,40.03,72.17
105741,2018-06-29 09:39:56.406250,35.32,72.17
105742,2018-06-29 09:39:56.437500,28.78,72.17
105743,2018-06-29 09:39:56.468750,20.79,72.17
105744,2018-06-29 09:39:56.500000,13.6,72.17
105745,2018-06-29 09:39:56.531250,8.89,71.95
105746,2018-06-29 09:39:56.562500,5.17,71.95
105747,2018-06-29 09:39:56.593750,-0.39,71.95
105748,2018-06-29 09:39:56.625000,-7.58,71.95
105749,2018-06-29 09:39:56.656250,-13.74,71.95
105750,2018-06-29 09:39:56.687500,-18.49,71.95
105751,2018-06-29 09:39:56.718750,-24.33,71.95
105752,2018-06-29 09:39:56.750000,-32.41,71.95
105753,2018-06-29 09:39:56.781250,-40.2,71.95
105754,2018-06-29 09:39:56.812500,-42.35,71.95
105755,2018-06-29 09:39:56.843750,-34.09,71.95
105756,2018-06-29 09:39:56.875000,-16.2,71.95
105757,2018-06-29 09:39:56.906250,4.1,71.95
105758,2018-06-29 09:39:56.937500,19.88,71.95
105759,2018-06-29 09:39:56.968750,30.08,71.95
105760,2018-06-29 09:39:57.000000,36.75,71.95
105761,2018-06-29 09:39:57.031250,40.02,71.95
105762,2018-06-29 09:39:57.062500,39.22,71.95
105763,2018-06-29 09:39:57.093750,36.11,71.95
105764,2018-06-29 09:39:57.125000,33.12,71.95
105765,2018-06-29 09:39:57.156250,29.66,71.95
105766,2018-06-29 09:39:57.187500,23.89,71.95
105767,2018-06-29 09:39:57.218750,16.76,71.95
105768,2018-06-29 09:39:57.250000,10.74,71.95
105769,2018-06-29 09:39:57.281250,6.12,71.95
105770,2018-06-29 09:39:57.312500,1.64,71.95
105771,2018-06-29 09:39:57.343750,-2.63,71.95
105772,2018-06-29 09:39:57.375000,-5.8,71.95
105773,2018-06-29 09:39:57.406250,-8.27,71.95
105774,2018-06-29 09:39:57.437500,-11.55,71.95
105775,2018-06-29 09:39:57.468750,-16.89,71.95
105776,2018-06-29 09:39:57.500000,-23.75,71.95
105777,2018-06-29 09:39:57.531250,-30.17,71.73
105778,2018-06-29 09:39:57.562500,-35.16,71.73
105779,2018-06-29 09:39:57.593750,-40.23,71.73
105780,2018-06-29 09:39:57.625000,-47.51,71.73
105781,2018-06-29 09:39:57.656250,-56.19,71.73
105782,2018-06-29 09:39:57.687500,-60.81,71.73
105783,2018-06-29 09:39:57.718750,-53.75,71.73
105784,2018-06-29 09:39:57.750000,-33.29,71.73
105785,2018-06-29 09:39:57.781250,-7.81,71.73
105786,2018-06-29 09:39:57.812500,12.21,71.73
105787,2018-06-29 09:39:57.843750,23.94,71.73
105788,2018-06-29 09:39:57.875000,31.08,71.73
105789,2018-06-29 09:39:57.906250,36.49,71.73
105790,2018-06-29 09:39:57.937500,39.94,71.73
105791,2018-06-29 09:39:57.968750,41.23,71.73
105792,2018-06-29 09:39:58.000000,41.51,71.73
105793,2018-06-29 09:39:58.031250,41.7,71.73
105794,2018-06-29 09:39:58.062500,41.41,71.73
105795,2018-06-29 09:39:58.093750,39.93,71.73
105796,2018-06-29 09:39:58.125000,36.46,71.73
105797,2018-06-29 09:39:58.156250,29.98,71.73
105798,2018-06-29 09:39:58.187500,20.09,71.73
105799,2018-06-29 09:39:58.218750,7.78,71.73
105800,2018-06-29 09:39:58.250000,-4.67,71.73
105801,2018-06-29 09:39:58.281250,-15.11,71.73
105802,2018-06-29 09:39:58.312500,-23.72,71.73
105803,2018-06-29 09:39:58.343750,-31.99,71.73
105804,2018-06-29 09:39:58.375000,-39.36,71.73
105805,2018-06-29 09:39:58.406250,-43.52,71.73
105806,2018-06-29 09:39:58.437500,-44.16,71.73
105807,2018-06-29 09:39:58.468750,-44.03,71.73
105808,2018-06-29 09:39:58.500000,-46.44,71.73
105809,2018-06-29 09:39:58.531250,-52.47,71.53
105810,2018-06-29 09:39:58.562500,-58.62,71.53
105811,2018-06-29 09:39:58.593750,-57.19,71.53
105812,2018-06-29 09:39:58.625000,-43.61,71.53
105813,2018-06-29 09:39:58.656250,-23.29,71.53
105814,2018-06-29 09:39:58.687500,-6.06,71.53
105815,2018-06-29 09:39:58.718750,4.51,71.53
105816,2018-06-29 09:39:58.750000,10.91,71.53
105817,2018-06-29 09:39:58.781250,14.21,71.53
105818,2018-06-29 09:39:58.812500,13.14,71.53
105819,2018-06-29 09:39:58.843750,8.41,71.53
105820,2018-06-29 09:39:58.875000,3.02,71.53
105821,2018-06-29 09:39:58.906250,-1.15,71.53
105822,2018-06-29 09:39:58.937500,-3.94,71.53
105823,2018-06-29 09:39:58.968750,-5.27,71.53
105824,2018-06-29 09:39:59.000000,-5.9,71.53
105825,2018-06-29 09:39:59.031250,-8.18,71.53
105826,2018-06-29 09:39:59.062500,-13.46,71.53
105827,2018-06-29 09:39:59.093750,-19.79,71.53
105828,2018-06-29 09:39:59.125000,-24.76,71.53
105829,2018-06-29 09:39:59.156250,-28.51,71.53
105830,2018-06-29 09:39:59.187500,-31.96,71.53
105831,2018-06-29 09:39:59.218750,-34.92,71.53
105832,2018-06-29 09:39:59.250000,-37.72,71.53
105833,2018-06-29 09:39:59.281250,-42.75,71.53
105834,2018-06-29 09:39:59.312500,-52.44,71.53
105835,2018-06-29 09:39:59.343750,-65.71,71.53
105836,2018-06-29 09:39:59.375000,-75.99,71.53
105837,2018-06-29 09:39:59.406250,-74.49,71.53
105838,2018-06-29 09:39:59.437500,-58.43,71.53
105839,2018-06-29 09:39:59.468750,-34.64,71.53
105840,2018-06-29 09:39:59.500000,-12.23,71.53
105841,2018-06-29 09:39:59.531250,5.68,71.35
105842,2018-06-29 09:39:59.562500,20.82,71.35
105843,2018-06-29 09:39:59.593750,33.36,71.35
105844,2018-06-29 09:39:59.625000,41.29,71.35
105845,2018-06-29 09:39:59.656250,44.51,71.35
105846,2018-06-29 09:39:59.687500,45.83,71.35
105847,2018-06-29 09:39:59.718750,47.0,71.35
105848,2018-06-29 09:39:59.750000,46.66,71.35
105849,2018-06-29 09:39:59.781250,43.04,71.35
105850,2018-06-29 09:39:59.812500,36.39,71.35
105851,2018-06-29 09:39:59.843750,28.5,71.35
105852,2018-06-29 09:39:59.875000,20.44,71.35
105853,2018-06-29 09:39:59.906250,11.74,71.35
105854,2018-06-29 09:39:59.937500,1.79,71.35
105855,2018-06-29 09:39:59.968750,-8.48,71.35
105856,2018-06-29 09:40:00.000000,-17.15,71.35
105857,2018-06-29 09:40:00.031250,-23.28,71.35
105858,2018-06-29 09:40:00.062500,-27.99,71.35
105859,2018-06-29 09:40:00.093750,-34.14,71.35
105860,2018-06-29 09:40:00.125000,-43.33,71.35
105861,2018-06-29 09:40:00.156250,-51.38,71.35
105862,2018-06-29 09:40:00.187500,-49.81,71.35
105863,2018-06-29 09:40:00.218750,-35.19,71.35
105864,2018-06-29 09:40:00.250000,-14.14,71.35
105865,2018-06-29 09:40:00.281250,4.35,71.35
105866,2018-06-29 09:40:00.312500,17.81,71.35
105867,2018-06-29 09:40:00.343750,28.53,71.35
105868,2018-06-29 09:40:00.375000,37.5,71.35
105869,2018-06-29 09:40:00.406250,43.95,71.35
105870,2018-06-29 09:40:00.437500,48.34,71.35
105871,2018-06-29 09:40:00.468750,52.12,71.35
105872,2018-06-29 09:40:00.500000,55.43,71.35
105873,2018-06-29 09:40:00.531250,57.34,71.08
105874,2018-06-29 09:40:00.562500,57.35,71.08
105875,2018-06-29 09:40:00.593750,54.96,71.08
105876,2018-06-29 09:40:00.625000,49.54,71.08
105877,2018-06-29 09:40:00.656250,41.99,71.08
105878,2018-06-29 09:40:00.687500,34.67,71.08
105879,2018-06-29 09:40:00.718750,28.59,71.08
105880,2018-06-29 09:40:00.750000,22.72,71.08
105881,2018-06-29 09:40:00.781250,16.1,71.08
105882,2018-06-29 09:40:00.812500,8.77,71.08
105883,2018-06-29 09:40:00.843750,0.74,71.08
105884,2018-06-29 09:40:00.875000,-8.3,71.08
105885,2018-06-29 09:40:00.906250,-17.81,71.08
105886,2018-06-29 09:40:00.937500,-26.9,71.08
105887,2018-06-29 09:40:00.968750,-35.91,71.08
105888,2018-06-29 09:40:01.000000,-47.12,71.08
105889,2018-06-29 09:40:01.031250,-62.53,71.08
105890,2018-06-29 09:40:01.062500,-79.27,71.08
105891,2018-06-29 09:40:01.093750,-87.4,71.08
105892,2018-06-29 09:40:01.125000,-77.92,71.08
105893,2018-06-29 09:40:01.156250,-53.72,71.08
105894,2018-06-29 09:40:01.187500,-26.7,71.08
105895,2018-06-29 09:40:01.218750,-4.71,71.08
105896,2018-06-29 09:40:01.250000,12.27,71.08
105897,2018-06-29 09:40:01.281250,26.09,71.08
105898,2018-06-29 09:40:01.312500,36.69,71.08
105899,2018-06-29 09:40:01.343750,43.37,71.08
105900,2018-06-29 09:40:01.375000,46.1,71.08
105901,2018-06-29 09:40:01.406250,45.69,71.08
105902,2018-06-29 09:40:01.437500,43.38,71.08
105903,2018-06-29 09:40:01.468750,40.31,71.08
105904,2018-06-29 09:40:01.500000,37.71,71.08
105905,2018-06-29 09:40:01.531250,35.88,70.82
105906,2018-06-29 09:40:01.562500,33.83,70.82
105907,2018-06-29 09:40:01.593750,30.9,70.82
105908,2018-06-29 09:40:01.625000,27.73,70.82
105909,2018-06-29 09:40:01.656250,25.12,70.82
105910,2018-06-29 09:40:01.687500,23.15,70.82
105911,2018-06-29 09:40:01.718750,21.91,70.82
105912,2018-06-29 09:40:01.750000,21.23,70.82
105913,2018-06-29 09:40:01.781250,20.45,70.82
105914,2018-06-29 09:40:01.812500,19.12,70.82
105915,2018-06-29 09:40:01.843750,17.14,70.82
105916,2018-06-29 09:40:01.875000,14.11,70.82
105917,2018-06-29 09:40:01.906250,9.43,70.82
105918,2018-06-29 09:40:01.937500,3.57,70.82
105919,2018-06-29 09:40:01.968750,-1.75,70.82
105920,2018-06-29 09:40:02.000000,-5.23,70.82
105921,2018-06-29 09:40:02.031250,-7.82,70.82
105922,2018-06-29 09:40:02.062500,-13.17,70.82
105923,2018-06-29 09:40:02.093750,-25.43,70.82
105924,2018-06-29 09:40:02.125000,-44.03,70.82
105925,2018-06-29 09:40:02.156250,-59.57,70.82
105926,2018-06-29 09:40:02.187500,-59.87,70.82
105927,2018-06-29 09:40:02.218750,-42.7,70.82
105928,2018-06-29 09:40:02.250000,-18.08,70.82
105929,2018-06-29 09:40:02.281250,3.18,70.82
105930,2018-06-29 09:40:02.312500,18.51,70.82
105931,2018-06-29 09:40:02.343750,30.17,70.82
105932,2018-06-29 09:40:02.375000,39.03,70.82
105933,2018-06-29 09:40:02.406250,44.2,70.82
105934,2018-06-29 09:40:02.437500,45.6,70.82
105935,2018-06-29 09:40:02.468750,44.51,70.82
105936,2018-06-29 09:40:02.500000,42.37,70.82
105937,2018-06-29 09:40:02.531250,40.39,70.57
105938,2018-06-29 09:40:02.562500,38.98,70.57
105939,2018-06-29 09:40:02.593750,36.71,70.57
105940,2018-06-29 09:40:02.625000,31.61,70.57
105941,2018-06-29 09:40:02.656250,23.78,70.57
105942,2018-06-29 09:40:02.687500,15.52,70.57
105943,2018-06-29 09:40:02.718750,8.82,70.57
105944,2018-06-29 09:40:02.750000,4.25,70.57
105945,2018-06-29 09:40:02.781250,1.64,70.57
105946,2018-06-29 09:40:02.812500,0.6,70.57
105947,2018-06-29 09:40:02.843750,0.11,70.57
105948,2018-06-29 09:40:02.875000,-1.07,70.57
105949,2018-06-29 09:40:02.906250,-2.66,70.57
105950,2018-06-29 09:40:02.937500,-3.28,70.57
105951,2018-06-29 09:40:02.968750,-3.35,70.57
105952,2018-06-29 09:40:03.000000,-5.77,70.57
105953,2018-06-29 09:40:03.031250,-12.75,70.57
105954,2018-06-29 09:40:03.062500,-23.37,70.57
105955,2018-06-29 09:40:03.093750,-35.46,70.57
105956,2018-06-29 09:40:03.125000,-48.4,70.57
105957,2018-06-29 09:40:03.156250,-62.82,70.57
105958,2018-06-29 09:40:03.187500,-78.3,70.57
105959,2018-06-29 09:40:03.218750,-90.61,70.57
105960,2018-06-29 09:40:03.250000,-91.42,70.57
105961,2018-06-29 09:40:03.281250,-75.16,70.57
105962,2018-06-29 09:40:03.312500,-47.68,70.57
105963,2018-06-29 09:40:03.343750,-22.35,70.57
105964,2018-06-29 09:40:03.375000,-5.89,70.57
105965,2018-06-29 09:40:03.406250,5.6,70.57
105966,2018-06-29 09:40:03.437500,16.95,70.57
105967,2018-06-29 09:40:03.468750,28.01,70.57
105968,2018-06-29 09:40:03.500000,36.95,70.57
105969,2018-06-29 09:40:03.531250,43.21,70.33
105970,2018-06-29 09:40:03.562500,46.82,70.33
105971,2018-06-29 09:40:03.593750,47.88,70.33
105972,2018-06-29 09:40:03.625000,46.81,70.33
105973,2018-06-29 09:40:03.656250,43.98,70.33
105974,2018-06-29 09:40:03.687500,39.23,70.33
105975,2018-06-29 09:40:03.718750,32.16,70.33
105976,2018-06-29 09:40:03.750000,23.31,70.33
105977,2018-06-29 09:40:03.781250,13.73,70.33
105978,2018-06-29 09:40:03.812500,4.08,70.33
105979,2018-06-29 09:40:03.843750,-4.89,70.33
105980,2018-06-29 09:40:03.875000,-12.1,70.33
105981,2018-06-29 09:40:03.906250,-17.65,70.33
105982,2018-06-29 09:40:03.937500,-22.94,70.33
105983,2018-06-29 09:40:03.968750,-28.37,70.33
105984,2018-06-29 09:40:04.000000,-33.23,70.33
105985,2018-06-29 09:40:04.031250,-37.86,70.33
105986,2018-06-29 09:40:04.062500,-43.67,70.33
105987,2018-06-29 09:40:04.093750,-51.54,70.33
105988,2018-06-29 09:40:04.125000,-60.53,70.33
105989,2018-06-29 09:40:04.156250,-65.72,70.33
105990,2018-06-29 09:40:04.187500,-59.17,70.33
105991,2018-06-29 09:40:04.218750,-38.62,70.33
105992,2018-06-29 09:40:04.250000,-12.66,70.33
105993,2018-06-29 09:40:04.281250,8.09,70.33
105994,2018-06-29 09:40:04.312500,21.16,70.33
105995,2018-06-29 09:40:04.343750,29.52,70.33
105996,2018-06-29 09:40:04.375000,34.55,70.33
105997,2018-06-29 09:40:04.406250,36.23,70.33
105998,2018-06-29 09:40:04.437500,35.47,70.33
105999,2018-06-29 09:40:04.468750,33.69,70.33
106000,2018-06-29 09:40:04.500000,31.89,70.33
106001,2018-06-29 09:40:04.531250,30.24,70.12
106002,2018-06-29 09:40:04.562500,28.09,70.12
106003,2018-06-29 09:40:04.593750,25.08,70.12
106004,2018-06-29 09:40:04.625000,21.24,70.12
106005,2018-06-29 09:40:04.656250,15.96,70.12
106006,2018-06-29 09:40:04.687500,9.11,70.12
106007,2018-06-29 09:40:04.718750,2.51,70.12
106008,2018-06-29 09:40:04.750000,-2.23,70.12
106009,2018-06-29 09:40:04.781250,-6.47,70.12
106010,2018-06-29 09:40:04.812500,-12.97,70.12
106011,2018-06-29 09:40:04.843750,-21.88,70.12
106012,2018-06-29 09:40:04.875000,-30.55,70.12
106013,2018-06-29 09:40:04.906250,-36.74,70.12
106014,2018-06-29 09:40:04.937500,-40.66,70.12
106015,2018-06-29 09:40:04.968750,-44.56,70.12
106016,2018-06-29 09:40:05.000000,-51.46,70.12
106017,2018-06-29 09:40:05.031250,-62.02,70.12
106018,2018-06-29 09:40:05.062500,-70.19,70.12
106019,2018-06-29 09:40:05.093750,-65.57,70.12
106020,2018-06-29 09:40:05.125000,-44.58,70.12
106021,2018-06-29 09:40:05.156250,-16.0,70.12
106022,2018-06-29 09:40:05.187500,8.42,70.12
106023,2018-06-29 09:40:05.218750,24.82,70.12
106024,2018-06-29 09:40:05.250000,35.93,70.12
106025,2018-06-29 09:40:05.281250,44.31,70.12
106026,2018-06-29 09:40:05.312500,50.66,70.12
106027,2018-06-29 09:40:05.343750,54.66,70.12
106028,2018-06-29 09:40:05.375000,55.86,70.12
106029,2018-06-29 09:40:05.406250,54.33,70.12
106030,2018-06-29 09:40:05.437500,51.16,70.12
106031,2018-06-29 09:40:05.468750,48.01,70.12
106032,2018-06-29 09:40:05.500000,45.55,70.12
106033,2018-06-29 09:40:05.531250,42.64,69.9
106034,2018-06-29 09:40:05.562500,37.91,69.9
106035,2018-06-29 09:40:05.593750,31.28,69.9
106036,2018-06-29 09:40:05.625000,23.14,69.9
106037,2018-06-29 09:40:05.656250,13.45,69.9
106038,2018-06-29 09:40:05.687500,3.12,69.9
106039,2018-06-29 09:40:05.718750,-6.02,69.9
106040,2018-06-29 09:40:05.750000,-13.94,69.9
106041,2018-06-29 09:40:05.781250,-22.15,69.9
106042,2018-06-29 09:40:05.812500,-30.49,69.9
106043,2018-06-29 09:40:05.843750,-37.13,69.9
106044,2018-06-29 09:40:05.875000,-42.1,69.9
106045,2018-06-29 09:40:05.906250,-48.22,69.9
106046,2018-06-29 09:40:05.937500,-58.45,69.9
106047,2018-06-29 09:40:05.968750,-72.01,69.9
106048,2018-06-29 09:40:06.000000,-81.26,69.9
106049,2018-06-29 09:40:06.031250,-75.63,69.9
106050,2018-06-29 09:40:06.062500,-52.91,69.9
106051,2018-06-29 09:40:06.093750,-23.45,69.9
106052,2018-06-29 09:40:06.125000,0.87,69.9
106053,2018-06-29 09:40:06.156250,17.24,69.9
106054,2018-06-29 09:40:06.187500,28.98,69.9
106055,2018-06-29 09:40:06.218750,38.13,69.9
106056,2018-06-29 09:40:06.250000,44.12,69.9
106057,2018-06-29 09:40:06.281250,46.18,69.9
106058,2018-06-29 09:40:06.312500,44.94,69.9
106059,2018-06-29 09:40:06.343750,42.2,69.9
106060,2018-06-29 09:40:06.375000,39.89,69.9
106061,2018-06-29 09:40:06.406250,38.9,69.9
106062,2018-06-29 09:40:06.437500,38.49,69.9
106063,2018-06-29 09:40:06.468750,36.74,69.9
106064,2018-06-29 09:40:06.500000,32.48,69.9
106065,2018-06-29 09:40:06.531250,27.03,69.68
106066,2018-06-29 09:40:06.562500,22.7,69.68
106067,2018-06-29 09:40:06.593750,20.42,69.68
106068,2018-06-29 09:40:06.625000,20.04,69.68
106069,2018-06-29 09:40:06.656250,21.44,69.68
106070,2018-06-29 09:40:06.687500,23.83,69.68
106071,2018-06-29 09:40:06.718750,25.51,69.68
106072,2018-06-29 09:40:06.750000,25.47,69.68
106073,2018-06-29 09:40:06.781250,24.42,69.68
106074,2018-06-29 09:40:06.812500,24.58,69.68
106075,2018-06-29 09:40:06.843750,28.36,69.68
106076,2018-06-29 09:40:06.875000,34.59,69.68
106077,2018-06-29 09:40:06.906250,38.52,69.68
106078,2018-06-29 09:40:06.937500,37.29,69.68
106079,2018-06-29 09:40:06.968750,32.25,69.68
106080,2018-06-29 09:40:07.000000,25.84,69.68
106081,2018-06-29 09:40:07.031250,20.23,69.68
106082,2018-06-29 09:40:07.062500,17.65,69.68
106083,2018-06-29 09:40:07.093750,16.49,69.68
106084,2018-06-29 09:40:07.125000,9.92,69.68
106085,2018-06-29 09:40:07.156250,-6.82,69.68
106086,2018-06-29 09:40:07.187500,-30.01,69.68
106087,2018-06-29 09:40:07.218750,-51.69,69.68
106088,2018-06-29 09:40:07.250000,-65.39,69.68
106089,2018-06-29 09:40:07.281250,-65.89,69.68
106090,2018-06-29 09:40:07.312500,-52.25,69.68
106091,2018-06-29 09:40:07.343750,-31.8,69.68
106092,2018-06-29 09:40:07.375000,-13.49,69.68
106093,2018-06-29 09:40:07.406250,0.26,69.68
106094,2018-06-29 09:40:07.437500,9.87,69.68
106095,2018-06-29 09:40:07.468750,14.2,69.68
106096,2018-06-29 09:40:07.500000,14.46,69.68
106097,2018-06-29 09:40:07.531250,14.56,69.55
106098,2018-06-29 09:40:07.562500,16.18,69.55
106099,2018-06-29 09:40:07.593750,19.08,69.55
106100,2018-06-29 09:40:07.625000,25.92,69.55
106101,2018-06-29 09:40:07.656250,40.36,69.55
106102,2018-06-29 09:40:07.687500,59.3,69.55
106103,2018-06-29 09:40:07.718750,73.5,69.55
106104,2018-06-29 09:40:07.750000,78.5,69.55
106105,2018-06-29 09:40:07.781250,78.48,69.55
106106,2018-06-29 09:40:07.812500,77.09,69.55
106107,2018-06-29 09:40:07.843750,71.54,69.55
106108,2018-06-29 09:40:07.875000,57.75,69.55
106109,2018-06-29 09:40:07.906250,35.17,69.55
106110,2018-06-29 09:40:07.937500,6.52,69.55
106111,2018-06-29 09:40:07.968750,-21.27,69.55
106112,2018-06-29 09:40:08.000000,-38.97,69.55
106113,2018-06-29 09:40:08.031250,-44.11,69.55
106114,2018-06-29 09:40:08.062500,-44.32,69.55
106115,2018-06-29 09:40:08.093750,-47.56,69.55
106116,2018-06-29 09:40:08.125000,-54.04,69.55
106117,2018-06-29 09:40:08.156250,-59.41,69.55
106118,2018-06-29 09:40:08.187500,-59.76,69.55
106119,2018-06-29 09:40:08.218750,-53.61,69.55
106120,2018-06-29 09:40:08.250000,-43.81,69.55
106121,2018-06-29 09:40:08.281250,-35.52,69.55
106122,2018-06-29 09:40:08.312500,-30.28,69.55
106123,2018-06-29 09:40:08.343750,-24.74,69.55
106124,2018-06-29 09:40:08.375000,-16.61,69.55
106125,2018-06-29 09:40:08.406250,-8.64,69.55
106126,2018-06-29 09:40:08.437500,-5.26,69.55
106127,2018-06-29 09:40:08.468750,-7.61,69.55
106128,2018-06-29 09:40:08.500000,-13.15,69.55
106129,2018-06-29 09:40:08.531250,-18.89,69.38
106130,2018-06-29 09:40:08.562500,-24.96,69.38
106131,2018-06-29 09:40:08.593750,-33.46,69.38
106132,2018-06-29 09:40:08.625000,-43.79,69.38
106133,2018-06-29 09:40:08.656250,-52.0,69.38
106134,2018-06-29 09:40:08.687500,-56.56,69.38
106135,2018-06-29 09:40:08.718750,-60.34,69.38
106136,2018-06-29 09:40:08.750000,-64.56,69.38
106137,2018-06-29 09:40:08.781250,-65.22,69.38
106138,2018-06-29 09:40:08.812500,-58.13,69.38
106139,2018-06-29 09:40:08.843750,-45.06,69.38
106140,2018-06-29 09:40:08.875000,-32.74,69.38
106141,2018-06-29 09:40:08.906250,-24.58,69.38
106142,2018-06-29 09:40:08.937500,-13.94,69.38
106143,2018-06-29 09:40:08.968750,9.99,69.38
106144,2018-06-29 09:40:09.000000,47.28,69.38
106145,2018-06-29 09:40:09.031250,84.72,69.38
106146,2018-06-29 09:40:09.062500,110.5,69.38
106147,2018-06-29 09:40:09.093750,123.55,69.38
106148,2018-06-29 09:40:09.125000,127.03,69.38
106149,2018-06-29 09:40:09.156250,122.33,69.38
106150,2018-06-29 09:40:09.187500,111.62,69.38
106151,2018-06-29 09:40:09.218750,99.17,69.38
106152,2018-06-29 09:40:09.250000,87.9,69.38
106153,2018-06-29 09:40:09.281250,78.43,69.38
106154,2018-06-29 09:40:09.312500,71.38,69.38
106155,2018-06-29 09:40:09.343750,66.7,69.38
106156,2018-06-29 09:40:09.375000,61.01,69.38
106157,2018-06-29 09:40:09.406250,50.17,69.38
106158,2018-06-29 09:40:09.437500,34.99,69.38
106159,2018-06-29 09:40:09.468750,21.02,69.38
106160,2018-06-29 09:40:09.500000,11.71,69.38
106161,2018-06-29 09:40:09.531250,4.74,69.27
106162,2018-06-29 09:40:09.562500,-4.04,69.27
106163,2018-06-29 09:40:09.593750,-15.33,69.27
106164,2018-06-29 09:40:09.625000,-26.82,69.27
106165,2018-06-29 09:40:09.656250,-37.94,69.27
106166,2018-06-29 09:40:09.687500,-50.51,69.27
106167,2018-06-29 09:40:09.718750,-64.34,69.27
106168,2018-06-29 09:40:09.750000,-76.33,69.27
106169,2018-06-29 09:40:09.781250,-84.45,69.27
106170,2018-06-29 09:40:09.812500,-89.65,69.27
106171,2018-06-29 09:40:09.843750,-94.13,69.27
106172,2018-06-29 09:40:09.875000,-99.76,69.27
106173,2018-06-29 09:40:09.906250,-104.88,69.27
106174,2018-06-29 09:40:09.937500,-100.46,69.27
106175,2018-06-29 09:40:09.968750,-76.87,69.27
106176,2018-06-29 09:40:10.000000,-38.84,69.27
106177,2018-06-29 09:40:10.031250,-4.99,69.27
106178,2018-06-29 09:40:10.062500,12.06,69.27
106179,2018-06-29 09:40:10.093750,15.47,69.27
106180,2018-06-29 09:40:10.125000,12.87,69.27
106181,2018-06-29 09:40:10.156250,7.48,69.27
106182,2018-06-29 09:40:10.187500,2.43,69.27
106183,2018-06-29 09:40:10.218750,1.28,69.27
106184,2018-06-29 09:40:10.250000,2.82,69.27
106185,2018-06-29 09:40:10.281250,3.39,69.27
106186,2018-06-29 09:40:10.312500,2.61,69.27
106187,2018-06-29 09:40:10.343750,1.5,69.27
106188,2018-06-29 09:40:10.375000,-1.66,69.27
106189,2018-06-29 09:40:10.406250,-8.36,69.27
106190,2018-06-29 09:40:10.437500,-16.16,69.27
106191,2018-06-29 09:40:10.468750,-22.07,69.27
106192,2018-06-29 09:40:10.500000,-26.48,69.27
106193,2018-06-29 09:40:10.531250,-30.94,69.22
106194,2018-06-29 09:40:10.562500,-34.38,69.22
106195,2018-06-29 09:40:10.593750,-35.12,69.22
106196,2018-06-29 09:40:10.625000,-35.53,69.22
106197,2018-06-29 09:40:10.656250,-40.35,69.22
106198,2018-06-29 09:40:10.687500,-49.38,69.22
106199,2018-06-29 09:40:10.718750,-57.21,69.22
106200,2018-06-29 09:40:10.750000,-61.33,69.22
106201,2018-06-29 09:40:10.781250,-65.48,69.22
106202,2018-06-29 09:40:10.812500,-74.33,69.22
106203,2018-06-29 09:40:10.843750,-86.54,69.22
106204,2018-06-29 09:40:10.875000,-91.14,69.22
106205,2018-06-29 09:40:10.906250,-73.95,69.22
106206,2018-06-29 09:40:10.937500,-34.85,69.22
106207,2018-06-29 09:40:10.968750,7.21,69.22
106208,2018-06-29 09:40:11.000000,33.46,69.22
106209,2018-06-29 09:40:11.031250,41.85,69.22
106210,2018-06-29 09:40:11.062500,40.41,69.22
106211,2018-06-29 09:40:11.093750,34.64,69.22
106212,2018-06-29 09:40:11.125000,26.61,69.22
106213,2018-06-29 09:40:11.156250,18.51,69.22
106214,2018-06-29 09:40:11.187500,11.65,69.22
106215,2018-06-29 09:40:11.218750,5.57,69.22
106216,2018-06-29 09:40:11.250000,0.9,69.22
106217,2018-06-29 09:40:11.281250,-0.03,69.22
106218,2018-06-29 09:40:11.312500,1.7,69.22
106219,2018-06-29 09:40:11.343750,0.63,69.22
106220,2018-06-29 09:40:11.375000,-5.68,69.22
106221,2018-06-29 09:40:11.406250,-13.11,69.22
106222,2018-06-29 09:40:11.437500,-17.15,69.22
106223,2018-06-29 09:40:11.468750,-18.62,69.22
106224,2018-06-29 09:40:11.500000,-22.32,69.22
106225,2018-06-29 09:40:11.531250,-31.94,69.17
106226,2018-06-29 09:40:11.562500,-46.15,69.17
106227,2018-06-29 09:40:11.593750,-60.35,69.17
106228,2018-06-29 09:40:11.625000,-72.44,69.17
106229,2018-06-29 09:40:11.656250,-84.39,69.17
106230,2018-06-29 09:40:11.687500,-96.94,69.17
106231,2018-06-29 09:40:11.718750,-107.25,69.17
106232,2018-06-29 09:40:11.750000,-113.54,69.17
106233,2018-06-29 09:40:11.781250,-118.77,69.17
106234,2018-06-29 09:40:11.812500,-127.48,69.17
106235,2018-06-29 09:40:11.843750,-138.93,69.17
106236,2018-06-29 09:40:11.875000,-143.54,69.17
106237,2018-06-29 09:40:11.906250,-129.57,69.17
106238,2018-06-29 09:40:11.937500,-96.04,69.17
106239,2018-06-29 09:40:11.968750,-55.0,69.17
106240,2018-06-29 09:40:12.000000,-18.21,69.17
106241,2018-06-29 09:40:12.031250,11.97,69.17
106242,2018-06-29 09:40:12.062500,36.69,69.17
106243,2018-06-29 09:40:12.093750,54.54,69.17
106244,2018-06-29 09:40:12.125000,64.9,69.17
106245,2018-06-29 09:40:12.156250,70.62,69.17
106246,2018-06-29 09:40:12.187500,74.64,69.17
106247,2018-06-29 09:40:12.218750,77.5,69.17
106248,2018-06-29 09:40:12.250000,79.52,69.17
106249,2018-06-29 09:40:12.281250,82.92,69.17
106250,2018-06-29 09:40:12.312500,89.9,69.17
106251,2018-06-29 09:40:12.343750,98.04,69.17
106252,2018-06-29 09:40:12.375000,101.31,69.17
106253,2018-06-29 09:40:12.406250,98.15,69.17
106254,2018-06-29 09:40:12.437500,95.05,69.17
106255,2018-06-29 09:40:12.468750,97.43,69.17
106256,2018-06-29 09:40:12.500000,101.06,69.17
106257,2018-06-29 09:40:12.531250,99.02,69.18
106258,2018-06-29 09:40:12.562500,94.03,69.18
106259,2018-06-29 09:40:12.593750,95.53,69.18
106260,2018-06-29 09:40:12.625000,103.71,69.18
106261,2018-06-29 09:40:12.656250,105.36,69.18
106262,2018-06-29 09:40:12.687500,89.08,69.18
106263,2018-06-29 09:40:12.718750,60.04,69.18
106264,2018-06-29 09:40:12.750000,38.49,69.18
106265,2018-06-29 09:40:12.781250,41.74,69.18
106266,2018-06-29 09:40:12.812500,58.67,69.18
106267,2018-06-29 09:40:12.843750,50.49,69.18
106268,2018-06-29 09:40:12.875000,-2.65,69.18
106269,2018-06-29 09:40:12.906250,-65.58,69.18
106270,2018-06-29 09:40:12.937500,-89.24,69.18
106271,2018-06-29 09:40:12.968750,-75.19,69.18
106272,2018-06-29 09:40:13.000000,-64.88,69.18
106273,2018-06-29 09:40:13.031250,-79.4,69.18
106274,2018-06-29 09:40:13.062500,-104.19,69.18
106275,2018-06-29 09:40:13.093750,-120.51,69.18
106276,2018-06-29 09:40:13.125000,-121.44,69.18
106277,2018-06-29 09:40:13.156250,-106.51,69.18
106278,2018-06-29 09:40:13.187500,-79.26,69.18
106279,2018-06-29 09:40:13.218750,-43.22,69.18
106280,2018-06-29 09:40:13.250000,4.63,69.18
106281,2018-06-29 09:40:13.281250,68.72,69.18
106282,2018-06-29 09:40:13.312500,138.67,69.18
106283,2018-06-29 09:40:13.343750,185.55,69.18
106284,2018-06-29 09:40:13.375000,186.39,69.18
106285,2018-06-29 09:40:13.406250,155.72,69.18
106286,2018-06-29 09:40:13.437500,134.8,69.18
106287,2018-06-29 09:40:13.468750,139.42,69.18
106288,2018-06-29 09:40:13.500000,143.88,69.18
106289,2018-06-29 09:40:13.531250,127.4,69.2
106290,2018-06-29 09:40:13.562500,102.97,69.2
106291,2018-06-29 09:40:13.593750,85.22,69.2
106292,2018-06-29 09:40:13.625000,63.98,69.2
106293,2018-06-29 09:40:13.656250,27.24,69.2
106294,2018-06-29 09:40:13.687500,-17.14,69.2
106295,2018-06-29 09:40:13.718750,-53.41,69.2
106296,2018-06-29 09:40:13.750000,-71.43,69.2
106297,2018-06-29 09:40:13.781250,-65.35,69.2
106298,2018-06-29 09:40:13.812500,-43.21,69.2
106299,2018-06-29 09:40:13.843750,-37.58,69.2
106300,2018-06-29 09:40:13.875000,-78.29,69.2
106301,2018-06-29 09:40:13.906250,-159.13,69.2
106302,2018-06-29 09:40:13.937500,-254.1,69.2
106303,2018-06-29 09:40:13.968750,-342.91,69.2
106304,2018-06-29 09:40:14.000000,-399.15,69.2
106305,2018-06-29 09:40:14.031250,-391.71,69.2
106306,2018-06-29 09:40:14.062500,-321.7,69.2
106307,2018-06-29 09:40:14.093750,-226.68,69.2
106308,2018-06-29 09:40:14.125000,-141.1,69.2
106309,2018-06-29 09:40:14.156250,-77.26,69.2
106310,2018-06-29 09:40:14.187500,-36.2,69.2
106311,2018-06-29 09:40:14.218750,-11.68,69.2
106312,2018-06-29 09:40:14.250000,9.65,69.2
106313,2018-06-29 09:40:14.281250,33.48,69.2
106314,2018-06-29 09:40:14.312500,49.39,69.2
106315,2018-06-29 09:40:14.343750,48.16,69.2
106316,2018-06-29 09:40:14.375000,35.9,69.2
106317,2018-06-29 09:40:14.406250,21.83,69.2
106318,2018-06-29 09:40:14.437500,6.6,69.2
106319,2018-06-29 09:40:14.468750,-10.37,69.2
106320,2018-06-29 09:40:14.500000,-25.12,69.2
106321,2018-06-29 09:40:14.531250,-35.21,69.2
106322,2018-06-29 09:40:14.562500,-43.83,69.2
106323,2018-06-29 09:40:14.593750,-56.78,69.2
106324,2018-06-29 09:40:14.625000,-75.73,69.2
106325,2018-06-29 09:40:14.656250,-91.73,69.2
106326,2018-06-29 09:40:14.687500,-89.05,69.2
106327,2018-06-29 09:40:14.718750,-59.74,69.2
106328,2018-06-29 09:40:14.750000,-11.86,69.2
106329,2018-06-29 09:40:14.781250,38.87,69.2
106330,2018-06-29 09:40:14.812500,82.36,69.2
106331,2018-06-29 09:40:14.843750,116.66,69.2
106332,2018-06-29 09:40:14.875000,141.58,69.2
106333,2018-06-29 09:40:14.906250,155.64,69.2
106334,2018-06-29 09:40:14.937500,159.24,69.2
106335,2018-06-29 09:40:14.968750,157.32,69.2
106336,2018-06-29 09:40:15.000000,155.05,69.2
106337,2018-06-29 09:40:15.031250,153.93,69.2
106338,2018-06-29 09:40:15.062500,153.58,69.2
106339,2018-06-29 09:40:15.093750,153.59,69.2
106340,2018-06-29 09:40:15.125000,152.42,69.2
106341,2018-06-29 09:40:15.156250,148.23,69.2
106342,2018-06-29 09:40:15.187500,141.02,69.2
106343,2018-06-29 09:40:15.218750,132.13,69.2
106344,2018-06-29 09:40:15.250000,123.07,69.2
106345,2018-06-29 09:40:15.281250,114.55,69.2
106346,2018-06-29 09:40:15.312500,105.7,69.2
106347,2018-06-29 09:40:15.343750,95.59,69.2
106348,2018-06-29 09:40:15.375000,84.94,69.2
106349,2018-06-29 09:40:15.406250,75.16,69.2
106350,2018-06-29 09:40:15.437500,66.61,69.2
106351,2018-06-29 09:40:15.468750,58.19,69.2
106352,2018-06-29 09:40:15.500000,46.3,69.2
106353,2018-06-29 09:40:15.531250,27.01,69.17
106354,2018-06-29 09:40:15.562500,4.32,69.17
106355,2018-06-29 09:40:15.593750,-8.29,69.17
106356,2018-06-29 09:40:15.625000,-2.14,69.17
106357,2018-06-29 09:40:15.656250,15.43,69.17
106358,2018-06-29 09:40:15.687500,32.59,69.17
106359,2018-06-29 09:40:15.718750,48.0,69.17
106360,2018-06-29 09:40:15.750000,65.96,69.17
106361,2018-06-29 09:40:15.781250,85.5,69.17
106362,2018-06-29 09:40:15.812500,101.34,69.17
106363,2018-06-29 09:40:15.843750,108.67,69.17
106364,2018-06-29 09:40:15.875000,103.65,69.17
106365,2018-06-29 09:40:15.906250,85.95,69.17
106366,2018-06-29 09:40:15.937500,61.9,69.17
106367,2018-06-29 09:40:15.968750,40.05,69.17
106368,2018-06-29 09:40:16.000000,24.6,69.17
106369,2018-06-29 09:40:16.031250,15.37,69.17
106370,2018-06-29 09:40:16.062500,10.61,69.17
106371,2018-06-29 09:40:16.093750,5.3,69.17
106372,2018-06-29 09:40:16.125000,-7.15,69.17
106373,2018-06-29 09:40:16.156250,-25.4,69.17
106374,2018-06-29 09:40:16.187500,-38.15,69.17
106375,2018-06-29 09:40:16.218750,-36.52,69.17
106376,2018-06-29 09:40:16.250000,-24.5,69.17
106377,2018-06-29 09:40:16.281250,-13.78,69.17
106378,2018-06-29 09:40:16.312500,-11.62,69.17
106379,2018-06-29 09:40:16.343750,-17.02,69.17
106380,2018-06-29 09:40:16.375000,-27.34,69.17
106381,2018-06-29 09:40:16.406250,-43.85,69.17
106382,2018-06-29 09:40:16.437500,-69.31,69.17
106383,2018-06-29 09:40:16.468750,-101.35,69.17
106384,2018-06-29 09:40:16.500000,-129.39,69.17
106385,2018-06-29 09:40:16.531250,-141.04,69.23
106386,2018-06-29 09:40:16.562500,-134.18,69.23
106387,2018-06-29 09:40:16.593750,-117.52,69.23
106388,2018-06-29 09:40:16.625000,-98.68,69.23
106389,2018-06-29 09:40:16.656250,-78.89,69.23
106390,2018-06-29 09:40:16.687500,-58.29,69.23
106391,2018-06-29 09:40:16.718750,-38.35,69.23
106392,2018-06-29 09:40:16.750000,-19.48,69.23
106393,2018-06-29 09:40:16.781250,-1.06,69.23
106394,2018-06-29 09:40:16.812500,15.37,69.23
106395,2018-06-29 09:40:16.843750,26.33,69.23
106396,2018-06-29 09:40:16.875000,30.89,69.23
106397,2018-06-29 09:40:16.906250,32.37,69.23
106398,2018-06-29 09:40:16.937500,32.97,69.23
106399,2018-06-29 09:40:16.968750,30.89,69.23
106400,2018-06-29 09:40:17.000000,25.68,69.23
106401,2018-06-29 09:40:17.031250,20.64,69.23
106402,2018-06-29 09:40:17.062500,17.91,69.23
106403,2018-06-29 09:40:17.093750,15.2,69.23
106404,2018-06-29 09:40:17.125000,9.95,69.23
106405,2018-06-29 09:40:17.156250,3.03,69.23
106406,2018-06-29 09:40:17.187500,-3.31,69.23
106407,2018-06-29 09:40:17.218750,-9.11,69.23
106408,2018-06-29 09:40:17.250000,-17.2,69.23
106409,2018-06-29 09:40:17.281250,-30.25,69.23
106410,2018-06-29 09:40:17.312500,-46.64,69.23
106411,2018-06-29 09:40:17.343750,-57.51,69.23
106412,2018-06-29 09:40:17.375000,-52.34,69.23
106413,2018-06-29 09:40:17.406250,-30.92,69.23
106414,2018-06-29 09:40:17.437500,-4.63,69.23
106415,2018-06-29 09:40:17.468750,16.81,69.23
106416,2018-06-29 09:40:17.500000,33.04,69.23
106417,2018-06-29 09:40:17.531250,46.42,69.32
106418,2018-06-29 09:40:17.562500,56.38,69.32
106419,2018-06-29 09:40:17.593750,62.17,69.32
106420,2018-06-29 09:40:17.625000,64.59,69.32
106421,2018-06-29 09:40:17.656250,65.05,69.32
106422,2018-06-29 09:40:17.687500,64.82,69.32
106423,2018-06-29 09:40:17.718750,64.99,69.32
106424,2018-06-29 09:40:17.750000,65.84,69.32
106425,2018-06-29 09:40:17.781250,66.13,69.32
106426,2018-06-29 09:40:17.812500,64.11,69.32
106427,2018-06-29 09:40:17.843750,59.8,69.32
106428,2018-06-29 09:40:17.875000,54.95,69.32
106429,2018-06-29 09:40:17.906250,51.25,69.32
106430,2018-06-29 09:40:17.937500,49.0,69.32
106431,2018-06-29 09:40:17.968750,47.13,69.32
106432,2018-06-29 09:40:18.000000,43.49,69.32
106433,2018-06-29 09:40:18.031250,36.8,69.32
106434,2018-06-29 09:40:18.062500,28.55,69.32
106435,2018-06-29 09:40:18.093750,21.03,69.32
106436,2018-06-29 09:40:18.125000,14.38,69.32
106437,2018-06-29 09:40:18.156250,6.99,69.32
106438,2018-06-29 09:40:18.187500,-2.17,69.32
106439,2018-06-29 09:40:18.218750,-11.72,69.32
106440,2018-06-29 09:40:18.250000,-16.58,69.32
106441,2018-06-29 09:40:18.281250,-10.3,69.32
106442,2018-06-29 09:40:18.312500,8.48,69.32
106443,2018-06-29 09:40:18.343750,33.6,69.32
106444,2018-06-29 09:40:18.375000,57.38,69.32
106445,2018-06-29 09:40:18.406250,76.78,69.32
106446,2018-06-29 09:40:18.437500,92.65,69.32
106447,2018-06-29 09:40:18.468750,105.47,69.32
106448,2018-06-29 09:40:18.500000,114.58,69.32
106449,2018-06-29 09:40:18.531250,121.13,69.4
106450,2018-06-29 09:40:18.562500,126.97,69.4
106451,2018-06-29 09:40:18.593750,128.58,69.4
106452,2018-06-29 09:40:18.625000,118.82,69.4
106453,2018-06-29 09:40:18.656250,96.91,69.4
106454,2018-06-29 09:40:18.687500,69.11,69.4
106455,2018-06-29 09:40:18.718750,40.04,69.4
106456,2018-06-29 09:40:18.750000,11.49,69.4
106457,2018-06-29 09:40:18.781250,-13.53,69.4
106458,2018-06-29 09:40:18.812500,-33.59,69.4
106459,2018-06-29 09:40:18.843750,-52.31,69.4
106460,2018-06-29 09:40:18.875000,-72.49,69.4
106461,2018-06-29 09:40:18.906250,-90.12,69.4
106462,2018-06-29 09:40:18.937500,-99.59,69.4
106463,2018-06-29 09:40:18.968750,-100.97,69.4
106464,2018-06-29 09:40:19.000000,-98.24,69.4
106465,2018-06-29 09:40:19.031250,-95.94,69.4
106466,2018-06-29 09:40:19.062500,-103.65,69.4
106467,2018-06-29 09:40:19.093750,-132.16,69.4
106468,2018-06-29 09:40:19.125000,-178.0,69.4
106469,2018-06-29 09:40:19.156250,-224.88,69.4
106470,2018-06-29 09:40:19.187500,-260.82,69.4
106471,2018-06-29 09:40:19.218750,-277.99,69.4
106472,2018-06-29 09:40:19.250000,-267.67,69.4
106473,2018-06-29 09:40:19.281250,-233.45,69.4
106474,2018-06-29 09:40:19.312500,-188.91,69.4
106475,2018-06-29 09:40:19.343750,-137.88,69.4
106476,2018-06-29 09:40:19.375000,-82.83,69.4
106477,2018-06-29 09:40:19.406250,-39.86,69.4
106478,2018-06-29 09:40:19.437500,-17.23,69.4
106479,2018-06-29 09:40:19.468750,-0.76,69.4
106480,2018-06-29 09:40:19.500000,20.8,69.4
106481,2018-06-29 09:40:19.531250,41.19,69.42
106482,2018-06-29 09:40:19.562500,53.89,69.42
106483,2018-06-29 09:40:19.593750,61.1,69.42
106484,2018-06-29 09:40:19.625000,65.51,69.42
106485,2018-06-29 09:40:19.656250,65.92,69.42
106486,2018-06-29 09:40:19.687500,61.49,69.42
106487,2018-06-29 09:40:19.718750,55.18,69.42
106488,2018-06-29 09:40:19.750000,50.99,69.42
106489,2018-06-29 09:40:19.781250,48.82,69.42
106490,2018-06-29 09:40:19.812500,44.9,69.42
106491,2018-06-29 09:40:19.843750,37.46,69.42
106492,2018-06-29 09:40:19.875000,28.44,69.42
106493,2018-06-29 09:40:19.906250,19.74,69.42
106494,2018-06-29 09:40:19.937500,9.77,69.42
106495,2018-06-29 09:40:19.968750,-5.58,69.42
106496,2018-06-29 09:40:20.000000,-29.06,69.42
106497,2018-06-29 09:40:20.031250,-58.12,69.42
106498,2018-06-29 09:40:20.062500,-81.64,69.42
106499,2018-06-29 09:40:20.093750,-84.39,69.42
106500,2018-06-29 09:40:20.125000,-62.37,69.42
106501,2018-06-29 09:40:20.156250,-30.86,69.42
106502,2018-06-29 09:40:20.187500,-9.02,69.42
106503,2018-06-29 09:40:20.218750,-0.82,69.42
106504,2018-06-29 09:40:20.250000,1.65,69.42
106505,2018-06-29 09:40:20.281250,4.19,69.42
106506,2018-06-29 09:40:20.312500,7.31,69.42
106507,2018-06-29 09:40:20.343750,9.83,69.42
106508,2018-06-29 09:40:20.375000,10.59,69.42
106509,2018-06-29 09:40:20.406250,9.18,69.42
106510,2018-06-29 09:40:20.437500,7.1,69.42
106511,2018-06-29 09:40:20.468750,6.62,69.42
106512,2018-06-29 09:40:20.500000,7.01,69.42
106513,2018-06-29 09:40:20.531250,4.5,69.43
106514,2018-06-29 09:40:20.562500,-2.14,69.43
106515,2018-06-29 09:40:20.593750,-9.01,69.43
106516,2018-06-29 09:40:20.625000,-12.92,69.43
106517,2018-06-29 09:40:20.656250,-16.05,69.43
106518,2018-06-29 09:40:20.687500,-21.83,69.43
106519,2018-06-29 09:40:20.718750,-29.64,69.43
106520,2018-06-29 09:40:20.750000,-37.0,69.43
106521,2018-06-29 09:40:20.781250,-44.12,69.43
106522,2018-06-29 09:40:20.812500,-52.69,69.43
106523,2018-06-29 09:40:20.843750,-61.64,69.43
106524,2018-06-29 09:40:20.875000,-68.21,69.43
106525,2018-06-29 09:40:20.906250,-72.0,69.43
106526,2018-06-29 09:40:20.937500,-76.59,69.43
106527,2018-06-29 09:40:20.968750,-86.53,69.43
106528,2018-06-29 09:40:21.000000,-101.01,69.43
106529,2018-06-29 09:40:21.031250,-109.22,69.43
106530,2018-06-29 09:40:21.062500,-97.11,69.43
106531,2018-06-29 09:40:21.093750,-64.44,69.43
106532,2018-06-29 09:40:21.125000,-27.75,69.43
106533,2018-06-29 09:40:21.156250,-2.02,69.43
106534,2018-06-29 09:40:21.187500,12.57,69.43
106535,2018-06-29 09:40:21.218750,23.0,69.43
106536,2018-06-29 09:40:21.250000,32.49,69.43
106537,2018-06-29 09:40:21.281250,40.01,69.43
106538,2018-06-29 09:40:21.312500,44.28,69.43
106539,2018-06-29 09:40:21.343750,45.61,69.43
106540,2018-06-29 09:40:21.375000,45.48,69.43
106541,2018-06-29 09:40:21.406250,45.82,69.43
106542,2018-06-29 09:40:21.437500,48.21,69.43
106543,2018-06-29 09:40:21.468750,50.95,69.43
106544,2018-06-29 09:40:21.500000,49.28,69.43
106545,2018-06-29 09:40:21.531250,41.64,69.47
106546,2018-06-29 09:40:21.562500,31.62,69.47
106547,2018-06-29 09:40:21.593750,22.2,69.47
106548,2018-06-29 09:40:21.625000,13.05,69.47
106549,2018-06-29 09:40:21.656250,3.81,69.47
106550,2018-06-29 09:40:21.687500,-5.23,69.47
106551,2018-06-29 09:40:21.718750,-14.82,69.47
106552,2018-06-29 09:40:21.750000,-25.99,69.47
106553,2018-06-29 09:40:21.781250,-38.07,69.47
106554,2018-06-29 09:40:21.812500,-49.87,69.47
106555,2018-06-29 09:40:21.843750,-62.4,69.47
106556,2018-06-29 09:40:21.875000,-78.39,69.47
106557,2018-06-29 09:40:21.906250,-96.71,69.47
106558,2018-06-29 09:40:21.937500,-107.66,69.47
106559,2018-06-29 09:40:21.968750,-98.7,69.47
106560,2018-06-29 09:40:22.000000,-68.4,69.47
106561,2018-06-29 09:40:22.031250,-30.06,69.47
106562,2018-06-29 09:40:22.062500,2.24,69.47
106563,2018-06-29 09:40:22.093750,25.16,69.47
106564,2018-06-29 09:40:22.125000,41.54,69.47
106565,2018-06-29 09:40:22.156250,52.26,69.47
106566,2018-06-29 09:40:22.187500,56.93,69.47
106567,2018-06-29 09:40:22.218750,57.42,69.47
106568,2018-06-29 09:40:22.250000,56.91,69.47
106569,2018-06-29 09:40:22.281250,57.0,69.47
106570,2018-06-29 09:40:22.312500,57.63,69.47
106571,2018-06-29 09:40:22.343750,59.02,69.47
106572,2018-06-29 09:40:22.375000,60.76,69.47
106573,2018-06-29 09:40:22.406250,59.94,69.47
106574,2018-06-29 09:40:22.437500,54.15,69.47
106575,2018-06-29 09:40:22.468750,45.5,69.47
106576,2018-06-29 09:40:22.500000,37.64,69.47
106577,2018-06-29 09:40:22.531250,30.5,69.48
106578,2018-06-29 09:40:22.562500,21.5,69.48
106579,2018-06-29 09:40:22.593750,10.66,69.48
106580,2018-06-29 09:40:22.625000,0.68,69.48
106581,2018-06-29 09:40:22.656250,-7.71,69.48
106582,2018-06-29 09:40:22.687500,-16.91,69.48
106583,2018-06-29 09:40:22.718750,-28.63,69.48
106584,2018-06-29 09:40:22.750000,-41.14,69.48
106585,2018-06-29 09:40:22.781250,-52.1,69.48
106586,2018-06-29 09:40:22.812500,-62.27,69.48
106587,2018-06-29 09:40:22.843750,-75.15,69.48
106588,2018-06-29 09:40:22.875000,-93.11,69.48
106589,2018-06-29 09:40:22.906250,-111.24,69.48
106590,2018-06-29 09:40:22.937500,-115.3,69.48
106591,2018-06-29 09:40:22.968750,-93.12,69.48
106592,2018-06-29 09:40:23.000000,-50.36,69.48
106593,2018-06-29 09:40:23.031250,-6.56,69.48
106594,2018-06-29 09:40:23.062500,24.9,69.48
106595,2018-06-29 09:40:23.093750,44.13,69.48
106596,2018-06-29 09:40:23.125000,55.42,69.48
106597,2018-06-29 09:40:23.156250,61.15,69.48
106598,2018-06-29 09:40:23.187500,63.43,69.48
106599,2018-06-29 09:40:23.218750,64.14,69.48
106600,2018-06-29 09:40:23.250000,63.59,69.48
106601,2018-06-29 09:40:23.281250,61.82,69.48
106602,2018-06-29 09:40:23.312500,59.71,69.48
106603,2018-06-29 09:40:23.343750,57.25,69.48
106604,2018-06-29 09:40:23.375000,52.43,69.48
106605,2018-06-29 09:40:23.406250,44.06,69.48
106606,2018-06-29 09:40:23.437500,34.84,69.48
106607,2018-06-29 09:40:23.468750,28.69,69.48
106608,2018-06-29 09:40:23.500000,25.96,69.48
106609,2018-06-29 09:40:23.531250,23.89,69.2
106610,2018-06-29 09:40:23.562500,21.58,69.2
106611,2018-06-29 09:40:23.593750,20.44,69.2
106612,2018-06-29 09:40:23.625000,19.93,69.2
106613,2018-06-29 09:40:23.656250,17.26,69.2
106614,2018-06-29 09:40:23.687500,12.14,69.2
106615,2018-06-29 09:40:23.718750,7.62,69.2
106616,2018-06-29 09:40:23.750000,6.39,69.2
106617,2018-06-29 09:40:23.781250,7.4,69.2
106618,2018-06-29 09:40:23.812500,5.87,69.2
106619,2018-06-29 09:40:23.843750,-0.29,69.2
106620,2018-06-29 09:40:23.875000,-1.69,69.2
106621,2018-06-29 09:40:23.906250,15.54,69.2
106622,2018-06-29 09:40:23.937500,48.84,69.2
106623,2018-06-29 09:40:23.968750,75.26,69.2
106624,2018-06-29 09:40:24.000000,75.62,69.2
106625,2018-06-29 09:40:24.031250,53.13,69.2
106626,2018-06-29 09:40:24.062500,23.1,69.2
106627,2018-06-29 09:40:24.093750,-4.31,69.2
106628,2018-06-29 09:40:24.125000,-26.87,69.2
106629,2018-06-29 09:40:24.156250,-47.01,69.2
106630,2018-06-29 09:40:24.187500,-71.24,69.2
106631,2018-06-29 09:40:24.218750,-101.42,69.2
106632,2018-06-29 09:40:24.250000,-125.96,69.2
106633,2018-06-29 09:40:24.281250,-130.59,69.2
106634,2018-06-29 09:40:24.312500,-116.21,69.2
106635,2018-06-29 09:40:24.343750,-96.97,69.2
106636,2018-06-29 09:40:24.375000,-84.21,69.2
106637,2018-06-29 09:40:24.406250,-80.28,69.2
106638,2018-06-29 09:40:24.437500,-83.22,69.2
106639,2018-06-29 09:40:24.468750,-90.52,69.2
106640,2018-06-29 09:40:24.500000,-99.24,69.2
106641,2018-06-29 09:40:24.531250,-105.91,68.9
106642,2018-06-29 09:40:24.562500,-109.49,68.9
106643,2018-06-29 09:40:24.593750,-110.77,68.9
106644,2018-06-29 09:40:24.625000,-107.47,68.9
106645,2018-06-29 09:40:24.656250,-95.4,68.9
106646,2018-06-29 09:40:24.687500,-75.93,68.9
106647,2018-06-29 09:40:24.718750,-55.68,68.9
106648,2018-06-29 09:40:24.750000,-37.01,68.9
106649,2018-06-29 09:40:24.781250,-15.41,68.9
106650,2018-06-29 09:40:24.812500,15.95,68.9
106651,2018-06-29 09:40:24.843750,61.91,68.9
106652,2018-06-29 09:40:24.875000,119.76,68.9
106653,2018-06-29 09:40:24.906250,178.9,68.9
106654,2018-06-29 09:40:24.937500,234.34,68.9
106655,2018-06-29 09:40:24.968750,295.83,68.9
106656,2018-06-29 09:40:25.000000,370.46,68.9
106657,2018-06-29 09:40:25.031250,443.74,68.9
106658,2018-06-29 09:40:25.062500,492.0,68.9
106659,2018-06-29 09:40:25.093750,509.06,68.9
106660,2018-06-29 09:40:25.125000,506.01,68.9
106661,2018-06-29 09:40:25.156250,484.79,68.9
106662,2018-06-29 09:40:25.187500,433.65,68.9
106663,2018-06-29 09:40:25.218750,352.44,68.9
106664,2018-06-29 09:40:25.250000,254.34,68.9
106665,2018-06-29 09:40:25.281250,135.9,68.9
106666,2018-06-29 09:40:25.312500,-18.35,68.9
106667,2018-06-29 09:40:25.343750,-197.38,68.9
106668,2018-06-29 09:40:25.375000,-364.44,68.9
106669,2018-06-29 09:40:25.406250,-487.74,68.9
106670,2018-06-29 09:40:25.437500,-545.68,68.9
106671,2018-06-29 09:40:25.468750,-523.06,68.9
106672,2018-06-29 09:40:25.500000,-424.36,68.9
106673,2018-06-29 09:40:25.531250,-279.74,68.6
106674,2018-06-29 09:40:25.562500,-128.37,68.6
106675,2018-06-29 09:40:25.593750,-1.38,68.6
106676,2018-06-29 09:40:25.625000,85.25,68.6
106677,2018-06-29 09:40:25.656250,128.61,68.6
106678,2018-06-29 09:40:25.687500,136.79,68.6
106679,2018-06-29 09:40:25.718750,117.89,68.6
106680,2018-06-29 09:40:25.750000,62.56,68.6
106681,2018-06-29 09:40:25.781250,-34.22,68.6
106682,2018-06-29 09:40:25.812500,-135.65,68.6
106683,2018-06-29 09:40:25.843750,-191.11,68.6
106684,2018-06-29 09:40:25.875000,-194.05,68.6
106685,2018-06-29 09:40:25.906250,-170.89,68.6
106686,2018-06-29 09:40:25.937500,-136.37,68.6
106687,2018-06-29 09:40:25.968750,-96.89,68.6
106688,2018-06-29 09:40:26.000000,-67.08,68.6
106689,2018-06-29 09:40:26.031250,-54.2,68.6
106690,2018-06-29 09:40:26.062500,-49.65,68.6
106691,2018-06-29 09:40:26.093750,-43.93,68.6
106692,2018-06-29 09:40:26.125000,-38.74,68.6
106693,2018-06-29 09:40:26.156250,-39.18,68.6
106694,2018-06-29 09:40:26.187500,-43.61,68.6
106695,2018-06-29 09:40:26.218750,-47.7,68.6
106696,2018-06-29 09:40:26.250000,-52.67,68.6
106697,2018-06-29 09:40:26.281250,-62.94,68.6
106698,2018-06-29 09:40:26.312500,-77.91,68.6
106699,2018-06-29 09:40:26.343750,-90.41,68.6
106700,2018-06-29 09:40:26.375000,-94.8,68.6
106701,2018-06-29 09:40:26.406250,-92.9,68.6
106702,2018-06-29 09:40:26.437500,-89.75,68.6
106703,2018-06-29 09:40:26.468750,-87.59,68.6
106704,2018-06-29 09:40:26.500000,-86.41,68.6
106705,2018-06-29 09:40:26.531250,-83.96,68.28
106706,2018-06-29 09:40:26.562500,-72.07,68.28
106707,2018-06-29 09:40:26.593750,-42.81,68.28
106708,2018-06-29 09:40:26.625000,-0.03,68.28
106709,2018-06-29 09:40:26.656250,43.33,68.28
106710,2018-06-29 09:40:26.687500,78.31,68.28
106711,2018-06-29 09:40:26.718750,103.67,68.28
106712,2018-06-29 09:40:26.750000,119.84,68.28
106713,2018-06-29 09:40:26.781250,126.97,68.28
106714,2018-06-29 09:40:26.812500,127.68,68.28
106715,2018-06-29 09:40:26.843750,126.33,68.28
106716,2018-06-29 09:40:26.875000,125.04,68.28
106717,2018-06-29 09:40:26.906250,123.51,68.28
106718,2018-06-29 09:40:26.937500,122.45,68.28
106719,2018-06-29 09:40:26.968750,122.29,68.28
106720,2018-06-29 09:40:27.000000,119.9,68.28
106721,2018-06-29 09:40:27.031250,111.49,68.28
106722,2018-06-29 09:40:27.062500,96.72,68.28
106723,2018-06-29 09:40:27.093750,77.61,68.28
106724,2018-06-29 09:40:27.125000,56.17,68.28
106725,2018-06-29 09:40:27.156250,35.3,68.28
106726,2018-06-29 09:40:27.187500,17.99,68.28
106727,2018-06-29 09:40:27.218750,3.5,68.28
106728,2018-06-29 09:40:27.250000,-12.95,68.28
106729,2018-06-29 09:40:27.281250,-34.49,68.28
106730,2018-06-29 09:40:27.312500,-56.65,68.28
106731,2018-06-29 09:40:27.343750,-67.23,68.28
106732,2018-06-29 09:40:27.375000,-55.81,68.28
106733,2018-06-29 09:40:27.406250,-24.21,68.28
106734,2018-06-29 09:40:27.437500,15.69,68.28
106735,2018-06-29 09:40:27.468750,53.21,68.28
106736,2018-06-29 09:40:27.500000,84.27,68.28
106737,2018-06-29 09:40:27.531250,109.4,67.97
106738,2018-06-29 09:40:27.562500,131.37,67.97
106739,2018-06-29 09:40:27.593750,152.66,67.97
106740,2018-06-29 09:40:27.625000,172.9,67.97
106741,2018-06-29 09:40:27.656250,189.88,67.97
106742,2018-06-29 09:40:27.687500,203.02,67.97
106743,2018-06-29 09:40:27.718750,215.23,67.97
106744,2018-06-29 09:40:27.750000,231.19,67.97
106745,2018-06-29 09:40:27.781250,248.63,67.97
106746,2018-06-29 09:40:27.812500,250.39,67.97
106747,2018-06-29 09:40:27.843750,216.6,67.97
106748,2018-06-29 09:40:27.875000,152.26,67.97
106749,2018-06-29 09:40:27.906250,90.69,67.97
106750,2018-06-29 09:40:27.937500,57.85,67.97
106751,2018-06-29 09:40:27.968750,45.73,67.97
106752,2018-06-29 09:40:28.000000,30.64,67.97
106753,2018-06-29 09:40:28.031250,0.66,67.97
106754,2018-06-29 09:40:28.062500,-45.19,67.97
106755,2018-06-29 09:40:28.093750,-102.98,67.97
106756,2018-06-29 09:40:28.125000,-158.46,67.97
106757,2018-06-29 09:40:28.156250,-194.99,67.97
106758,2018-06-29 09:40:28.187500,-212.55,67.97
106759,2018-06-29 09:40:28.218750,-222.15,67.97
106760,2018-06-29 09:40:28.250000,-224.67,67.97
106761,2018-06-29 09:40:28.281250,-211.23,67.97
106762,2018-06-29 09:40:28.312500,-181.78,67.97
106763,2018-06-29 09:40:28.343750,-150.72,67.97
106764,2018-06-29 09:40:28.375000,-131.87,67.97
106765,2018-06-29 09:40:28.406250,-124.29,67.97
106766,2018-06-29 09:40:28.437500,-117.49,67.97
106767,2018-06-29 09:40:28.468750,-105.93,67.97
106768,2018-06-29 09:40:28.500000,-91.01,67.97
106769,2018-06-29 09:40:28.531250,-73.79,67.68
106770,2018-06-29 09:40:28.562500,-54.82,67.68
106771,2018-06-29 09:40:28.593750,-37.36,67.68
106772,2018-06-29 09:40:28.625000,-25.71,67.68
106773,2018-06-29 09:40:28.656250,-23.1,67.68
106774,2018-06-29 09:40:28.687500,-28.8,67.68
106775,2018-06-29 09:40:28.718750,-35.12,67.68
106776,2018-06-29 09:40:28.750000,-35.35,67.68
106777,2018-06-29 09:40:28.781250,-33.52,67.68
106778,2018-06-29 09:40:28.812500,-36.89,67.68
106779,2018-06-29 09:40:28.843750,-45.26,67.68
106780,2018-06-29 09:40:28.875000,-56.15,67.68
106781,2018-06-29 09:40:28.906250,-69.47,67.68
106782,2018-06-29 09:40:28.937500,-81.26,67.68
106783,2018-06-29 09:40:28.968750,-84.11,67.68
106784,2018-06-29 09:40:29.000000,-74.57,67.68
106785,2018-06-29 09:40:29.031250,-51.45,67.68
106786,2018-06-29 09:40:29.062500,-14.2,67.68
106787,2018-06-29 09:40:29.093750,30.02,67.68
106788,2018-06-29 09:40:29.125000,66.07,67.68
106789,2018-06-29 09:40:29.156250,83.58,67.68
106790,2018-06-29 09:40:29.187500,83.94,67.68
106791,2018-06-29 09:40:29.218750,75.29,67.68
106792,2018-06-29 09:40:29.250000,64.71,67.68
106793,2018-06-29 09:40:29.281250,54.18,67.68
106794,2018-06-29 09:40:29.312500,41.1,67.68
106795,2018-06-29 09:40:29.343750,23.11,67.68
106796,2018-06-29 09:40:29.375000,3.39,67.68
106797,2018-06-29 09:40:29.406250,-10.29,67.68
106798,2018-06-29 09:40:29.437500,-12.9,67.68
106799,2018-06-29 09:40:29.468750,-7.12,67.68
106800,2018-06-29 09:40:29.500000,0.79,67.68
106801,2018-06-29 09:40:29.531250,9.71,67.42
106802,2018-06-29 09:40:29.562500,23.1,67.42
106803,2018-06-29 09:40:29.593750,41.04,67.42
106804,2018-06-29 09:40:29.625000,58.97,67.42
106805,2018-06-29 09:40:29.656250,74.2,67.42
106806,2018-06-29 09:40:29.687500,86.96,67.42
106807,2018-06-29 09:40:29.718750,94.41,67.42
106808,2018-06-29 09:40:29.750000,90.32,67.42
106809,2018-06-29 09:40:29.781250,72.56,67.42
106810,2018-06-29 09:40:29.812500,46.68,67.42
106811,2018-06-29 09:40:29.843750,21.44,67.42
106812,2018-06-29 09:40:29.875000,2.31,67.42
106813,2018-06-29 09:40:29.906250,-11.69,67.42
106814,2018-06-29 09:40:29.937500,-24.37,67.42
106815,2018-06-29 09:40:29.968750,-33.38,67.42
106816,2018-06-29 09:40:30.000000,-28.92,67.42
106817,2018-06-29 09:40:30.031250,-5.35,67.42
106818,2018-06-29 09:40:30.062500,31.06,67.42
106819,2018-06-29 09:40:30.093750,68.21,67.42
106820,2018-06-29 09:40:30.125000,96.31,67.42
106821,2018-06-29 09:40:30.156250,110.76,67.42
106822,2018-06-29 09:40:30.187500,112.71,67.42
106823,2018-06-29 09:40:30.218750,107.57,67.42
106824,2018-06-29 09:40:30.250000,102.33,67.42
106825,2018-06-29 09:40:30.281250,101.03,67.42
106826,2018-06-29 09:40:30.312500,100.64,67.42
106827,2018-06-29 09:40:30.343750,93.77,67.42
106828,2018-06-29 09:40:30.375000,78.29,67.42
106829,2018-06-29 09:40:30.406250,59.05,67.42
106830,2018-06-29 09:40:30.437500,39.81,67.42
106831,2018-06-29 09:40:30.468750,21.04,67.42
106832,2018-06-29 09:40:30.500000,4.62,67.42
106833,2018-06-29 09:40:30.531250,-6.65,67.17
106834,2018-06-29 09:40:30.562500,-14.28,67.17
106835,2018-06-29 09:40:30.593750,-22.73,67.17
106836,2018-06-29 09:40:30.625000,-32.8,67.17
106837,2018-06-29 09:40:30.656250,-40.81,67.17
106838,2018-06-29 09:40:30.687500,-44.88,67.17
106839,2018-06-29 09:40:30.718750,-47.56,67.17
106840,2018-06-29 09:40:30.750000,-50.59,67.17
106841,2018-06-29 09:40:30.781250,-51.95,67.17
106842,2018-06-29 09:40:30.812500,-50.32,67.17
106843,2018-06-29 09:40:30.843750,-48.65,67.17
106844,2018-06-29 09:40:30.875000,-51.69,67.17
106845,2018-06-29 09:40:30.906250,-62.36,67.17
106846,2018-06-29 09:40:30.937500,-79.69,67.17
106847,2018-06-29 09:40:30.968750,-97.99,67.17
106848,2018-06-29 09:40:31.000000,-111.72,67.17
106849,2018-06-29 09:40:31.031250,-121.41,67.17
106850,2018-06-29 09:40:31.062500,-132.06,67.17
106851,2018-06-29 09:40:31.093750,-146.84,67.17
106852,2018-06-29 09:40:31.125000,-164.22,67.17
106853,2018-06-29 09:40:31.156250,-179.66,67.17
106854,2018-06-29 09:40:31.187500,-189.3,67.17
106855,2018-06-29 09:40:31.218750,-191.9,67.17
106856,2018-06-29 09:40:31.250000,-187.99,67.17
106857,2018-06-29 09:40:31.281250,-178.83,67.17
106858,2018-06-29 09:40:31.312500,-165.71,67.17
106859,2018-06-29 09:40:31.343750,-147.8,67.17
106860,2018-06-29 09:40:31.375000,-122.2,67.17
106861,2018-06-29 09:40:31.406250,-86.52,67.17
106862,2018-06-29 09:40:31.437500,-40.07,67.17
106863,2018-06-29 09:40:31.468750,16.18,67.17
106864,2018-06-29 09:40:31.500000,77.43,67.17
106865,2018-06-29 09:40:31.531250,133.46,66.97
106866,2018-06-29 09:40:31.562500,172.71,66.97
106867,2018-06-29 09:40:31.593750,190.59,66.97
106868,2018-06-29 09:40:31.625000,191.95,66.97
106869,2018-06-29 09:40:31.656250,183.71,66.97
106870,2018-06-29 09:40:31.687500,169.04,66.97
106871,2018-06-29 09:40:31.718750,151.27,66.97
106872,2018-06-29 09:40:31.750000,136.81,66.97
106873,2018-06-29 09:40:31.781250,128.59,66.97
106874,2018-06-29 09:40:31.812500,120.87,66.97
106875,2018-06-29 09:40:31.843750,106.01,66.97
106876,2018-06-29 09:40:31.875000,84.73,66.97
106877,2018-06-29 09:40:31.906250,67.15,66.97
106878,2018-06-29 09:40:31.937500,64.35,66.97
106879,2018-06-29 09:40:31.968750,77.81,66.97
106880,2018-06-29 09:40:32.000000,95.35,66.97
106881,2018-06-29 09:40:32.031250,102.19,66.97
106882,2018-06-29 09:40:32.062500,99.8,66.97
106883,2018-06-29 09:40:32.093750,105.37,66.97
106884,2018-06-29 09:40:32.125000,127.24,66.97
106885,2018-06-29 09:40:32.156250,151.03,66.97
106886,2018-06-29 09:40:32.187500,159.63,66.97
106887,2018-06-29 09:40:32.218750,156.15,66.97
106888,2018-06-29 09:40:32.250000,149.73,66.97
106889,2018-06-29 09:40:32.281250,130.56,66.97
106890,2018-06-29 09:40:32.312500,81.74,66.97
106891,2018-06-29 09:40:32.343750,5.31,66.97
106892,2018-06-29 09:40:32.375000,-85.19,66.97
106893,2018-06-29 09:40:32.406250,-190.52,66.97
106894,2018-06-29 09:40:32.437500,-316.74,66.97
106895,2018-06-29 09:40:32.468750,-436.71,66.97
106896,2018-06-29 09:40:32.500000,-493.71,66.97
106897,2018-06-29 09:40:32.531250,-458.41,66.83
106898,2018-06-29 09:40:32.562500,-356.26,66.83
106899,2018-06-29 09:40:32.593750,-228.79,66.83
106900,2018-06-29 09:40:32.625000,-104.9,66.83
106901,2018-06-29 09:40:32.656250,-10.14,66.83
106902,2018-06-29 09:40:32.687500,40.38,66.83
106903,2018-06-29 09:40:32.718750,51.98,66.83
106904,2018-06-29 09:40:32.750000,25.08,66.83
106905,2018-06-29 09:40:32.781250,-47.95,66.83
106906,2018-06-29 09:40:32.812500,-142.71,66.83
106907,2018-06-29 09:40:32.843750,-206.43,66.83
106908,2018-06-29 09:40:32.875000,-216.1,66.83
106909,2018-06-29 09:40:32.906250,-190.84,66.83
106910,2018-06-29 09:40:32.937500,-149.49,66.83
106911,2018-06-29 09:40:32.968750,-96.64,66.83
106912,2018-06-29 09:40:33.000000,-41.91,66.83
106913,2018-06-29 09:40:33.031250,1.13,66.83
106914,2018-06-29 09:40:33.062500,31.92,66.83
106915,2018-06-29 09:40:33.093750,62.62,66.83
106916,2018-06-29 09:40:33.125000,100.32,66.83
106917,2018-06-29 09:40:33.156250,139.22,66.83
106918,2018-06-29 09:40:33.187500,171.45,66.83
106919,2018-06-29 09:40:33.218750,193.62,66.83
106920,2018-06-29 09:40:33.250000,206.54,66.83
106921,2018-06-29 09:40:33.281250,219.08,66.83
106922,2018-06-29 09:40:33.312500,241.59,66.83
106923,2018-06-29 09:40:33.343750,267.07,66.83
106924,2018-06-29 09:40:33.375000,275.48,66.83
106925,2018-06-29 09:40:33.406250,260.35,66.83
106926,2018-06-29 09:40:33.437500,235.9,66.83
106927,2018-06-29 09:40:33.468750,219.25,66.83
106928,2018-06-29 09:40:33.500000,215.55,66.83
106929,2018-06-29 09:40:33.531250,214.21,66.65
106930,2018-06-29 09:40:33.562500,196.34,66.65
106931,2018-06-29 09:40:33.593750,153.89,66.65
106932,2018-06-29 09:40:33.625000,100.46,66.65
106933,2018-06-29 09:40:33.656250,57.27,66.65
106934,2018-06-29 09:40:33.687500,32.22,66.65
106935,2018-06-29 09:40:33.718750,16.2,66.65
106936,2018-06-29 09:40:33.750000,-4.7,66.65
106937,2018-06-29 09:40:33.781250,-34.53,66.65
106938,2018-06-29 09:40:33.812500,-63.66,66.65
106939,2018-06-29 09:40:33.843750,-80.46,66.65
106940,2018-06-29 09:40:33.875000,-83.03,66.65
106941,2018-06-29 09:40:33.906250,-77.02,66.65
106942,2018-06-29 09:40:33.937500,-69.76,66.65
106943,2018-06-29 09:40:33.968750,-70.44,66.65
106944,2018-06-29 09:40:34.000000,-83.7,66.65
106945,2018-06-29 09:40:34.031250,-101.48,66.65
106946,2018-06-29 09:40:34.062500,-113.1,66.65
106947,2018-06-29 09:40:34.093750,-120.87,66.65
106948,2018-06-29 09:40:34.125000,-134.59,66.65
106949,2018-06-29 09:40:34.156250,-155.53,66.65
106950,2018-06-29 09:40:34.187500,-175.08,66.65
106951,2018-06-29 09:40:34.218750,-186.06,66.65
106952,2018-06-29 09:40:34.250000,-192.25,66.65
106953,2018-06-29 09:40:34.281250,-209.69,66.65
106954,2018-06-29 09:40:34.312500,-254.74,66.65
106955,2018-06-29 09:40:34.343750,-315.05,66.65
106956,2018-06-29 09:40:34.375000,-341.77,66.65
106957,2018-06-29 09:40:34.406250,-300.16,66.65
106958,2018-06-29 09:40:34.437500,-217.57,66.65
106959,2018-06-29 09:40:34.468750,-146.99,66.65
106960,2018-06-29 09:40:34.500000,-104.27,66.65
106961,2018-06-29 09:40:34.531250,-76.89,66.55
106962,2018-06-29 09:40:34.562500,-59.8,66.55
106963,2018-06-29 09:40:34.593750,-48.65,66.55
106964,2018-06-29 09:40:34.625000,-29.69,66.55
106965,2018-06-29 09:40:34.656250,2.71,66.55
106966,2018-06-29 09:40:34.687500,38.45,66.55
106967,2018-06-29 09:40:34.718750,66.01,66.55
106968,2018-06-29 09:40:34.750000,83.71,66.55
106969,2018-06-29 09:40:34.781250,99.13,66.55
106970,2018-06-29 09:40:34.812500,118.51,66.55
106971,2018-06-29 09:40:34.843750,137.99,66.55
106972,2018-06-29 09:40:34.875000,151.82,66.55
106973,2018-06-29 09:40:34.906250,162.04,66.55
106974,2018-06-29 09:40:34.937500,169.58,66.55
106975,2018-06-29 09:40:34.968750,165.56,66.55
106976,2018-06-29 09:40:35.000000,143.02,66.55
106977,2018-06-29 09:40:35.031250,108.16,66.55
106978,2018-06-29 09:40:35.062500,71.57,66.55
106979,2018-06-29 09:40:35.093750,36.85,66.55
106980,2018-06-29 09:40:35.125000,3.04,66.55
106981,2018-06-29 09:40:35.156250,-28.09,66.55
106982,2018-06-29 09:40:35.187500,-52.45,66.55
106983,2018-06-29 09:40:35.218750,-68.53,66.55
106984,2018-06-29 09:40:35.250000,-79.96,66.55
106985,2018-06-29 09:40:35.281250,-92.93,66.55
106986,2018-06-29 09:40:35.312500,-109.22,66.55
106987,2018-06-29 09:40:35.343750,-121.26,66.55
106988,2018-06-29 09:40:35.375000,-117.26,66.55
106989,2018-06-29 09:40:35.406250,-94.24,66.55
106990,2018-06-29 09:40:35.437500,-62.05,66.55
106991,2018-06-29 09:40:35.468750,-32.27,66.55
106992,2018-06-29 09:40:35.500000,-7.94,66.55
106993,2018-06-29 09:40:35.531250,13.39,66.45
106994,2018-06-29 09:40:35.562500,32.59,66.45
106995,2018-06-29 09:40:35.593750,48.71,66.45
106996,2018-06-29 09:40:35.625000,61.55,66.45
106997,2018-06-29 09:40:35.656250,71.21,66.45
106998,2018-06-29 09:40:35.687500,76.69,66.45
106999,2018-06-29 09:40:35.718750,77.27,66.45
107000,2018-06-29 09:40:35.750000,75.25,66.45
107001,2018-06-29 09:40:35.781250,75.88,66.45
107002,2018-06-29 09:40:35.812500,82.83,66.45
107003,2018-06-29 09:40:35.843750,94.15,66.45
107004,2018-06-29 09:40:35.875000,104.38,66.45
107005,2018-06-29 09:40:35.906250,109.87,66.45
107006,2018-06-29 09:40:35.937500,110.15,66.45
107007,2018-06-29 09:40:35.968750,106.16,66.45
107008,2018-06-29 09:40:36.000000,98.84,66.45
107009,2018-06-29 09:40:36.031250,89.47,66.45
107010,2018-06-29 09:40:36.062500,80.4,66.45
107011,2018-06-29 09:40:36.093750,73.88,66.45
107012,2018-06-29 09:40:36.125000,69.64,66.45
107013,2018-06-29 09:40:36.156250,64.39,66.45
107014,2018-06-29 09:40:36.187500,54.67,66.45
107015,2018-06-29 09:40:36.218750,41.16,66.45
107016,2018-06-29 09:40:36.250000,32.01,66.45
107017,2018-06-29 09:40:36.281250,37.93,66.45
107018,2018-06-29 09:40:36.312500,61.22,66.45
107019,2018-06-29 09:40:36.343750,93.01,66.45
107020,2018-06-29 09:40:36.375000,120.4,66.45
107021,2018-06-29 09:40:36.406250,132.06,66.45
107022,2018-06-29 09:40:36.437500,122.11,66.45
107023,2018-06-29 09:40:36.468750,95.42,66.45
107024,2018-06-29 09:40:36.500000,65.35,66.45
107025,2018-06-29 09:40:36.531250,42.93,66.37
107026,2018-06-29 09:40:36.562500,30.03,66.37
107027,2018-06-29 09:40:36.593750,21.79,66.37
107028,2018-06-29 09:40:36.625000,14.3,66.37
107029,2018-06-29 09:40:36.656250,8.86,66.37
107030,2018-06-29 09:40:36.687500,7.27,66.37
107031,2018-06-29 09:40:36.718750,6.05,66.37
107032,2018-06-29 09:40:36.750000,0.58,66.37
107033,2018-06-29 09:40:36.781250,-8.3,66.37
107034,2018-06-29 09:40:36.812500,-16.92,66.37
107035,2018-06-29 09:40:36.843750,-24.0,66.37
107036,2018-06-29 09:40:36.875000,-31.17,66.37
107037,2018-06-29 09:40:36.906250,-41.76,66.37
107038,2018-06-29 09:40:36.937500,-61.13,66.37
107039,2018-06-29 09:40:36.968750,-94.9,66.37
107040,2018-06-29 09:40:37.000000,-143.58,66.37
107041,2018-06-29 09:40:37.031250,-197.89,66.37
107042,2018-06-29 09:40:37.062500,-238.77,66.37
107043,2018-06-29 09:40:37.093750,-246.9,66.37
107044,2018-06-29 09:40:37.125000,-218.42,66.37
107045,2018-06-29 09:40:37.156250,-168.37,66.37
107046,2018-06-29 09:40:37.187500,-115.59,66.37
107047,2018-06-29 09:40:37.218750,-68.68,66.37
107048,2018-06-29 09:40:37.250000,-28.81,66.37
107049,2018-06-29 09:40:37.281250,3.01,66.37
107050,2018-06-29 09:40:37.312500,26.44,66.37
107051,2018-06-29 09:40:37.343750,43.85,66.37
107052,2018-06-29 09:40:37.375000,57.66,66.37
107053,2018-06-29 09:40:37.406250,67.74,66.37
107054,2018-06-29 09:40:37.437500,73.64,66.37
107055,2018-06-29 09:40:37.468750,77.22,66.37
107056,2018-06-29 09:40:37.500000,80.54,66.37
107057,2018-06-29 09:40:37.531250,82.22,66.3
107058,2018-06-29 09:40:37.562500,79.23,66.3
107059,2018-06-29 09:40:37.593750,71.52,66.3
107060,2018-06-29 09:40:37.625000,61.78,66.3
107061,2018-06-29 09:40:37.656250,51.61,66.3
107062,2018-06-29 09:40:37.687500,40.02,66.3
107063,2018-06-29 09:40:37.718750,26.14,66.3
107064,2018-06-29 09:40:37.750000,11.17,66.3
107065,2018-06-29 09:40:37.781250,-3.16,66.3
107066,2018-06-29 09:40:37.812500,-16.76,66.3
107067,2018-06-29 09:40:37.843750,-30.89,66.3
107068,2018-06-29 09:40:37.875000,-46.9,66.3
107069,2018-06-29 09:40:37.906250,-63.38,66.3
107070,2018-06-29 09:40:37.937500,-72.6,66.3
107071,2018-06-29 09:40:37.968750,-65.51,66.3
107072,2018-06-29 09:40:38.000000,-42.46,66.3
107073,2018-06-29 09:40:38.031250,-13.91,66.3
107074,2018-06-29 09:40:38.062500,8.67,66.3
107075,2018-06-29 09:40:38.093750,19.54,66.3
107076,2018-06-29 09:40:38.125000,20.17,66.3
107077,2018-06-29 09:40:38.156250,16.4,66.3
107078,2018-06-29 09:40:38.187500,12.59,66.3
107079,2018-06-29 09:40:38.218750,9.54,66.3
107080,2018-06-29 09:40:38.250000,7.1,66.3
107081,2018-06-29 09:40:38.281250,4.25,66.3
107082,2018-06-29 09:40:38.312500,0.41,66.3
107083,2018-06-29 09:40:38.343750,-1.35,66.3
107084,2018-06-29 09:40:38.375000,1.94,66.3
107085,2018-06-29 09:40:38.406250,7.32,66.3
107086,2018-06-29 09:40:38.437500,9.5,66.3
107087,2018-06-29 09:40:38.468750,7.53,66.3
107088,2018-06-29 09:40:38.500000,3.72,66.3
107089,2018-06-29 09:40:38.531250,-1.32,66.33
107090,2018-06-29 09:40:38.562500,-8.47,66.33
107091,2018-06-29 09:40:38.593750,-17.35,66.33
107092,2018-06-29 09:40:38.625000,-25.88,66.33
107093,2018-06-29 09:40:38.656250,-31.53,66.33
107094,2018-06-29 09:40:38.687500,-33.31,66.33
107095,2018-06-29 09:40:38.718750,-32.88,66.33
107096,2018-06-29 09:40:38.750000,-33.59,66.33
107097,2018-06-29 09:40:38.781250,-37.82,66.33
107098,2018-06-29 09:40:38.812500,-42.77,66.33
107099,2018-06-29 09:40:38.843750,-39.73,66.33
107100,2018-06-29 09:40:38.875000,-22.46,66.33
107101,2018-06-29 09:40:38.906250,3.1,66.33
107102,2018-06-29 09:40:38.937500,24.12,66.33
107103,2018-06-29 09:40:38.968750,35.23,66.33
107104,2018-06-29 09:40:39.000000,40.17,66.33
107105,2018-06-29 09:40:39.031250,42.52,66.33
107106,2018-06-29 09:40:39.062500,42.48,66.33
107107,2018-06-29 09:40:39.093750,40.44,66.33
107108,2018-06-29 09:40:39.125000,37.7,66.33
107109,2018-06-29 09:40:39.156250,34.15,66.33
107110,2018-06-29 09:40:39.187500,28.93,66.33
107111,2018-06-29 09:40:39.218750,23.42,66.33
107112,2018-06-29 09:40:39.250000,20.56,66.33
107113,2018-06-29 09:40:39.281250,20.35,66.33
107114,2018-06-29 09:40:39.312500,19.67,66.33
107115,2018-06-29 09:40:39.343750,17.33,66.33
107116,2018-06-29 09:40:39.375000,13.86,66.33
107117,2018-06-29 09:40:39.406250,7.92,66.33
107118,2018-06-29 09:40:39.437500,-1.27,66.33
107119,2018-06-29 09:40:39.468750,-10.91,66.33
107120,2018-06-29 09:40:39.500000,-18.71,66.33
107121,2018-06-29 09:40:39.531250,-26.51,66.37
107122,2018-06-29 09:40:39.562500,-35.64,66.37
107123,2018-06-29 09:40:39.593750,-43.76,66.37
107124,2018-06-29 09:40:39.625000,-49.09,66.37
107125,2018-06-29 09:40:39.656250,-53.38,66.37
107126,2018-06-29 09:40:39.687500,-59.11,66.37
107127,2018-06-29 09:40:39.718750,-66.11,66.37
107128,2018-06-29 09:40:39.750000,-69.67,66.37
107129,2018-06-29 09:40:39.781250,-62.0,66.37
107130,2018-06-29 09:40:39.812500,-40.53,66.37
107131,2018-06-29 09:40:39.843750,-13.71,66.37
107132,2018-06-29 09:40:39.875000,7.04,66.37
107133,2018-06-29 09:40:39.906250,18.23,66.37
107134,2018-06-29 09:40:39.937500,22.82,66.37
107135,2018-06-29 09:40:39.968750,23.51,66.37
107136,2018-06-29 09:40:40.000000,22.22,66.37
107137,2018-06-29 09:40:40.031250,21.63,66.37
107138,2018-06-29 09:40:40.062500,22.84,66.37
107139,2018-06-29 09:40:40.093750,23.5,66.37
107140,2018-06-29 09:40:40.125000,21.2,66.37
107141,2018-06-29 09:40:40.156250,17.1,66.37
107142,2018-06-29 09:40:40.187500,13.54,66.37
107143,2018-06-29 09:40:40.218750,10.14,66.37
107144,2018-06-29 09:40:40.250000,5.35,66.37
107145,2018-06-29 09:40:40.281250,0.11,66.37
107146,2018-06-29 09:40:40.312500,-3.13,66.37
107147,2018-06-29 09:40:40.343750,-4.45,66.37
107148,2018-06-29 09:40:40.375000,-6.91,66.37
107149,2018-06-29 09:40:40.406250,-12.57,66.37
107150,2018-06-29 09:40:40.437500,-19.53,66.37
107151,2018-06-29 09:40:40.468750,-24.8,66.37
107152,2018-06-29 09:40:40.500000,-28.41,66.37
107153,2018-06-29 09:40:40.531250,-32.74,66.42
107154,2018-06-29 09:40:40.562500,-39.62,66.42
107155,2018-06-29 09:40:40.593750,-48.63,66.42
107156,2018-06-29 09:40:40.625000,-54.89,66.42
107157,2018-06-29 09:40:40.656250,-50.59,66.42
107158,2018-06-29 09:40:40.687500,-33.55,66.42
107159,2018-06-29 09:40:40.718750,-11.67,66.42
107160,2018-06-29 09:40:40.750000,5.59,66.42
107161,2018-06-29 09:40:40.781250,16.37,66.42
107162,2018-06-29 09:40:40.812500,23.45,66.42
107163,2018-06-29 09:40:40.843750,28.09,66.42
107164,2018-06-29 09:40:40.875000,30.52,66.42
107165,2018-06-29 09:40:40.906250,31.86,66.42
107166,2018-06-29 09:40:40.937500,32.53,66.42
107167,2018-06-29 09:40:40.968750,31.68,66.42
107168,2018-06-29 09:40:41.000000,29.62,66.42
107169,2018-06-29 09:40:41.031250,28.31,66.42
107170,2018-06-29 09:40:41.062500,28.15,66.42
107171,2018-06-29 09:40:41.093750,26.84,66.42
107172,2018-06-29 09:40:41.125000,22.88,66.42
107173,2018-06-29 09:40:41.156250,17.45,66.42
107174,2018-06-29 09:40:41.187500,11.21,66.42
107175,2018-06-29 09:40:41.218750,2.86,66.42
107176,2018-06-29 09:40:41.250000,-7.31,66.42
107177,2018-06-29 09:40:41.281250,-16.29,66.42
107178,2018-06-29 09:40:41.312500,-22.18,66.42
107179,2018-06-29 09:40:41.343750,-26.13,66.42
107180,2018-06-29 09:40:41.375000,-30.28,66.42
107181,2018-06-29 09:40:41.406250,-35.99,66.42
107182,2018-06-29 09:40:41.437500,-41.63,66.42
107183,2018-06-29 09:40:41.468750,-41.05,66.42
107184,2018-06-29 09:40:41.500000,-29.09,66.42
107185,2018-06-29 09:40:41.531250,-9.72,66.43
107186,2018-06-29 09:40:41.562500,6.82,66.43
107187,2018-06-29 09:40:41.593750,15.37,66.43
107188,2018-06-29 09:40:41.625000,19.01,66.43
107189,2018-06-29 09:40:41.656250,21.75,66.43
107190,2018-06-29 09:40:41.687500,23.96,66.43
107191,2018-06-29 09:40:41.718750,24.9,66.43
107192,2018-06-29 09:40:41.750000,24.84,66.43
107193,2018-06-29 09:40:41.781250,23.59,66.43
107194,2018-06-29 09:40:41.812500,20.66,66.43
107195,2018-06-29 09:40:41.843750,17.6,66.43
107196,2018-06-29 09:40:41.875000,16.83,66.43
107197,2018-06-29 09:40:41.906250,17.52,66.43
107198,2018-06-29 09:40:41.937500,15.81,66.43
107199,2018-06-29 09:40:41.968750,9.98,66.43
107200,2018-06-29 09:40:42.000000,2.11,66.43
107201,2018-06-29 09:40:42.031250,-5.44,66.43
107202,2018-06-29 09:40:42.062500,-12.5,66.43
107203,2018-06-29 09:40:42.093750,-20.69,66.43
107204,2018-06-29 09:40:42.125000,-31.48,66.43
107205,2018-06-29 09:40:42.156250,-44.02,66.43
107206,2018-06-29 09:40:42.187500,-56.19,66.43
107207,2018-06-29 09:40:42.218750,-67.27,66.43
107208,2018-06-29 09:40:42.250000,-78.28,66.43
107209,2018-06-29 09:40:42.281250,-89.93,66.43
107210,2018-06-29 09:40:42.312500,-99.96,66.43
107211,2018-06-29 09:40:42.343750,-100.94,66.43
107212,2018-06-29 09:40:42.375000,-85.97,66.43
107213,2018-06-29 09:40:42.406250,-58.7,66.43
107214,2018-06-29 09:40:42.437500,-30.97,66.43
107215,2018-06-29 09:40:42.468750,-9.9,66.43
107216,2018-06-29 09:40:42.500000,5.44,66.43
107217,2018-06-29 09:40:42.531250,17.26,66.45
107218,2018-06-29 09:40:42.562500,26.22,66.45
107219,2018-06-29 09:40:42.593750,33.46,66.45
107220,2018-06-29 09:40:42.625000,39.7,66.45
107221,2018-06-29 09:40:42.656250,44.15,66.45
107222,2018-06-29 09:40:42.687500,46.49,66.45
107223,2018-06-29 09:40:42.718750,47.97,66.45
107224,2018-06-29 09:40:42.750000,49.19,66.45
107225,2018-06-29 09:40:42.781250,49.01,66.45
107226,2018-06-29 09:40:42.812500,46.68,66.45
107227,2018-06-29 09:40:42.843750,43.32,66.45
107228,2018-06-29 09:40:42.875000,40.54,66.45
107229,2018-06-29 09:40:42.906250,38.36,66.45
107230,2018-06-29 09:40:42.937500,35.56,66.45
107231,2018-06-29 09:40:42.968750,31.19,66.45
107232,2018-06-29 09:40:43.000000,25.41,66.45
107233,2018-06-29 09:40:43.031250,18.29,66.45
107234,2018-06-29 09:40:43.062500,9.32,66.45
107235,2018-06-29 09:40:43.093750,-0.71,66.45
107236,2018-06-29 09:40:43.125000,-9.12,66.45
107237,2018-06-29 09:40:43.156250,-14.54,66.45
107238,2018-06-29 09:40:43.187500,-18.96,66.45
107239,2018-06-29 09:40:43.218750,-25.37,66.45
107240,2018-06-29 09:40:43.250000,-34.26,66.45
107241,2018-06-29 09:40:43.281250,-41.17,66.45
107242,2018-06-29 09:40:43.312500,-38.1,66.45
107243,2018-06-29 09:40:43.343750,-21.25,66.45
107244,2018-06-29 09:40:43.375000,3.12,66.45
107245,2018-06-29 09:40:43.406250,24.79,66.45
107246,2018-06-29 09:40:43.437500,39.12,66.45
107247,2018-06-29 09:40:43.468750,47.25,66.45
107248,2018-06-29 09:40:43.500000,50.56,66.45
107249,2018-06-29 09:40:43.531250,49.71,66.43
107250,2018-06-29 09:40:43.562500,46.49,66.43
107251,2018-06-29 09:40:43.593750,42.84,66.43
107252,2018-06-29 09:40:43.625000,38.9,66.43
107253,2018-06-29 09:40:43.656250,33.97,66.43
107254,2018-06-29 09:40:43.687500,29.17,66.43
107255,2018-06-29 09:40:43.718750,25.76,66.43
107256,2018-06-29 09:40:43.750000,22.38,66.43
107257,2018-06-29 09:40:43.781250,16.36,66.43
107258,2018-06-29 09:40:43.812500,7.47,66.43
107259,2018-06-29 09:40:43.843750,-1.89,66.43
107260,2018-06-29 09:40:43.875000,-9.7,66.43
107261,2018-06-29 09:40:43.906250,-17.08,66.43
107262,2018-06-29 09:40:43.937500,-26.37,66.43
107263,2018-06-29 09:40:43.968750,-36.56,66.43
107264,2018-06-29 09:40:44.000000,-43.99,66.43
107265,2018-06-29 09:40:44.031250,-47.93,66.43
107266,2018-06-29 09:40:44.062500,-52.03,66.43
107267,2018-06-29 09:40:44.093750,-60.22,66.43
107268,2018-06-29 09:40:44.125000,-71.22,66.43
107269,2018-06-29 09:40:44.156250,-76.7,66.43
107270,2018-06-29 09:40:44.187500,-67.7,66.43
107271,2018-06-29 09:40:44.218750,-45.5,66.43
107272,2018-06-29 09:40:44.250000,-21.2,66.43
107273,2018-06-29 09:40:44.281250,-3.5,66.43
107274,2018-06-29 09:40:44.312500,7.33,66.43
107275,2018-06-29 09:40:44.343750,14.42,66.43
107276,2018-06-29 09:40:44.375000,18.93,66.43
107277,2018-06-29 09:40:44.406250,20.72,66.43
107278,2018-06-29 09:40:44.437500,20.4,66.43
107279,2018-06-29 09:40:44.468750,19.23,66.43
107280,2018-06-29 09:40:44.500000,17.47,66.43
107281,2018-06-29 09:40:44.531250,15.03,66.42
107282,2018-06-29 09:40:44.562500,13.54,66.42
107283,2018-06-29 09:40:44.593750,14.04,66.42
107284,2018-06-29 09:40:44.625000,13.94,66.42
107285,2018-06-29 09:40:44.656250,9.83,66.42
107286,2018-06-29 09:40:44.687500,2.28,66.42
107287,2018-06-29 09:40:44.718750,-5.07,66.42
107288,2018-06-29 09:40:44.750000,-10.08,66.42
107289,2018-06-29 09:40:44.781250,-13.61,66.42
107290,2018-06-29 09:40:44.812500,-17.47,66.42
107291,2018-06-29 09:40:44.843750,-22.23,66.42
107292,2018-06-29 09:40:44.875000,-26.76,66.42
107293,2018-06-29 09:40:44.906250,-29.67,66.42
107294,2018-06-29 09:40:44.937500,-31.58,66.42
107295,2018-06-29 09:40:44.968750,-36.35,66.42
107296,2018-06-29 09:40:45.000000,-45.89,66.42
107297,2018-06-29 09:40:45.031250,-52.22,66.42
107298,2018-06-29 09:40:45.062500,-41.79,66.42
107299,2018-06-29 09:40:45.093750,-12.0,66.42
107300,2018-06-29 09:40:45.125000,23.95,66.42
107301,2018-06-29 09:40:45.156250,52.83,66.42
107302,2018-06-29 09:40:45.187500,74.75,66.42
107303,2018-06-29 09:40:45.218750,97.88,66.42
107304,2018-06-29 09:40:45.250000,126.35,66.42
107305,2018-06-29 09:40:45.281250,155.69,66.42
107306,2018-06-29 09:40:45.312500,176.98,66.42
107307,2018-06-29 09:40:45.343750,185.48,66.42
107308,2018-06-29 09:40:45.375000,185.8,66.42
107309,2018-06-29 09:40:45.406250,185.83,66.42
107310,2018-06-29 09:40:45.437500,186.4,66.42
107311,2018-06-29 09:40:45.468750,183.1,66.42
107312,2018-06-29 09:40:45.500000,176.11,66.42
107313,2018-06-29 09:40:45.531250,169.11,66.4
107314,2018-06-29 09:40:45.562500,159.54,66.4
107315,2018-06-29 09:40:45.593750,139.03,66.4
107316,2018-06-29 09:40:45.625000,102.92,66.4
107317,2018-06-29 09:40:45.656250,53.74,66.4
107318,2018-06-29 09:40:45.687500,-3.07,66.4
107319,2018-06-29 09:40:45.718750,-63.35,66.4
107320,2018-06-29 09:40:45.750000,-123.69,66.4
107321,2018-06-29 09:40:45.781250,-177.01,66.4
107322,2018-06-29 09:40:45.812500,-215.04,66.4
107323,2018-06-29 09:40:45.843750,-240.02,66.4
107324,2018-06-29 09:40:45.875000,-264.86,66.4
107325,2018-06-29 09:40:45.906250,-295.35,66.4
107326,2018-06-29 09:40:45.937500,-319.82,66.4
107327,2018-06-29 09:40:45.968750,-319.26,66.4
107328,2018-06-29 09:40:46.000000,-283.58,66.4
107329,2018-06-29 09:40:46.031250,-222.61,66.4
107330,2018-06-29 09:40:46.062500,-160.52,66.4
107331,2018-06-29 09:40:46.093750,-112.17,66.4
107332,2018-06-29 09:40:46.125000,-72.85,66.4
107333,2018-06-29 09:40:46.156250,-36.39,66.4
107334,2018-06-29 09:40:46.187500,-5.55,66.4
107335,2018-06-29 09:40:46.218750,18.64,66.4
107336,2018-06-29 09:40:46.250000,38.43,66.4
107337,2018-06-29 09:40:46.281250,50.6,66.4
107338,2018-06-29 09:40:46.312500,51.23,66.4
107339,2018-06-29 09:40:46.343750,43.5,66.4
107340,2018-06-29 09:40:46.375000,31.98,66.4
107341,2018-06-29 09:40:46.406250,17.38,66.4
107342,2018-06-29 09:40:46.437500,0.54,66.4
107343,2018-06-29 09:40:46.468750,-14.86,66.4
107344,2018-06-29 09:40:46.500000,-25.88,66.4
107345,2018-06-29 09:40:46.531250,-32.57,66.4
107346,2018-06-29 09:40:46.562500,-36.03,66.4
107347,2018-06-29 09:40:46.593750,-37.21,66.4
107348,2018-06-29 09:40:46.625000,-38.74,66.4
107349,2018-06-29 09:40:46.656250,-45.8,66.4
107350,2018-06-29 09:40:46.687500,-62.9,66.4
107351,2018-06-29 09:40:46.718750,-86.3,66.4
107352,2018-06-29 09:40:46.750000,-101.08,66.4
107353,2018-06-29 09:40:46.781250,-92.29,66.4
107354,2018-06-29 09:40:46.812500,-60.86,66.4
107355,2018-06-29 09:40:46.843750,-22.17,66.4
107356,2018-06-29 09:40:46.875000,10.83,66.4
107357,2018-06-29 09:40:46.906250,35.74,66.4
107358,2018-06-29 09:40:46.937500,53.9,66.4
107359,2018-06-29 09:40:46.968750,64.97,66.4
107360,2018-06-29 09:40:47.000000,69.51,66.4
107361,2018-06-29 09:40:47.031250,70.5,66.4
107362,2018-06-29 09:40:47.062500,70.16,66.4
107363,2018-06-29 09:40:47.093750,69.0,66.4
107364,2018-06-29 09:40:47.125000,68.47,66.4
107365,2018-06-29 09:40:47.156250,69.97,66.4
107366,2018-06-29 09:40:47.187500,71.12,66.4
107367,2018-06-29 09:40:47.218750,67.11,66.4
107368,2018-06-29 09:40:47.250000,56.33,66.4
107369,2018-06-29 09:40:47.281250,41.33,66.4
107370,2018-06-29 09:40:47.312500,24.4,66.4
107371,2018-06-29 09:40:47.343750,4.57,66.4
107372,2018-06-29 09:40:47.375000,-19.38,66.4
107373,2018-06-29 09:40:47.406250,-44.84,66.4
107374,2018-06-29 09:40:47.437500,-67.3,66.4
107375,2018-06-29 09:40:47.468750,-85.75,66.4
107376,2018-06-29 09:40:47.500000,-103.41,66.4
107377,2018-06-29 09:40:47.531250,-122.53,66.43
107378,2018-06-29 09:40:47.562500,-138.12,66.43
107379,2018-06-29 09:40:47.593750,-138.37,66.43
107380,2018-06-29 09:40:47.625000,-114.91,66.43
107381,2018-06-29 09:40:47.656250,-73.39,66.43
107382,2018-06-29 09:40:47.687500,-28.77,66.43
107383,2018-06-29 09:40:47.718750,8.82,66.43
107384,2018-06-29 09:40:47.750000,38.59,66.43
107385,2018-06-29 09:40:47.781250,62.75,66.43
107386,2018-06-29 09:40:47.812500,81.92,66.43
107387,2018-06-29 09:40:47.843750,95.62,66.43
107388,2018-06-29 09:40:47.875000,103.8,66.43
107389,2018-06-29 09:40:47.906250,107.58,66.43
107390,2018-06-29 09:40:47.937500,108.85,66.43
107391,2018-06-29 09:40:47.968750,109.04,66.43
107392,2018-06-29 09:40:48.000000,108.53,66.43
107393,2018-06-29 09:40:48.031250,106.38,66.43
107394,2018-06-29 09:40:48.062500,101.23,66.43
107395,2018-06-29 09:40:48.093750,93.15,66.43
107396,2018-06-29 09:40:48.125000,83.49,66.43
107397,2018-06-29 09:40:48.156250,72.41,66.43
107398,2018-06-29 09:40:48.187500,59.27,66.43
107399,2018-06-29 09:40:48.218750,44.97,66.43
107400,2018-06-29 09:40:48.250000,30.96,66.43
107401,2018-06-29 09:40:48.281250,17.0,66.43
107402,2018-06-29 09:40:48.312500,2.07,66.43
107403,2018-06-29 09:40:48.343750,-13.23,66.43
107404,2018-06-29 09:40:48.375000,-27.1,66.43
107405,2018-06-29 09:40:48.406250,-39.42,66.43
107406,2018-06-29 09:40:48.437500,-53.06,66.43
107407,2018-06-29 09:40:48.468750,-70.59,66.43
107408,2018-06-29 09:40:48.500000,-87.69,66.43
107409,2018-06-29 09:40:48.531250,-91.38,66.52
107410,2018-06-29 09:40:48.562500,-71.62,66.52
107411,2018-06-29 09:40:48.593750,-34.51,66.52
107412,2018-06-29 09:40:48.625000,3.13,66.52
107413,2018-06-29 09:40:48.656250,30.86,66.52
107414,2018-06-29 09:40:48.687500,49.06,66.52
107415,2018-06-29 09:40:48.718750,60.9,66.52
107416,2018-06-29 09:40:48.750000,67.77,66.52
107417,2018-06-29 09:40:48.781250,70.9,66.52
107418,2018-06-29 09:40:48.812500,71.97,66.52
107419,2018-06-29 09:40:48.843750,72.11,66.52
107420,2018-06-29 09:40:48.875000,71.93,66.52
107421,2018-06-29 09:40:48.906250,72.14,66.52
107422,2018-06-29 09:40:48.937500,72.59,66.52
107423,2018-06-29 09:40:48.968750,70.7,66.52
107424,2018-06-29 09:40:49.000000,63.97,66.52
107425,2018-06-29 09:40:49.031250,54.21,66.52
107426,2018-06-29 09:40:49.062500,45.03,66.52
107427,2018-06-29 09:40:49.093750,36.55,66.52
107428,2018-06-29 09:40:49.125000,26.24,66.52
107429,2018-06-29 09:40:49.156250,13.99,66.52
107430,2018-06-29 09:40:49.187500,1.86,66.52
107431,2018-06-29 09:40:49.218750,-9.7,66.52
107432,2018-06-29 09:40:49.250000,-21.48,66.52
107433,2018-06-29 09:40:49.281250,-32.8,66.52
107434,2018-06-29 09:40:49.312500,-42.01,66.52
107435,2018-06-29 09:40:49.343750,-49.55,66.52
107436,2018-06-29 09:40:49.375000,-58.43,66.52
107437,2018-06-29 09:40:49.406250,-71.97,66.52
107438,2018-06-29 09:40:49.437500,-88.97,66.52
107439,2018-06-29 09:40:49.468750,-99.08,66.52
107440,2018-06-29 09:40:49.500000,-88.73,66.52
107441,2018-06-29 09:40:49.531250,-56.2,66.62
107442,2018-06-29 09:40:49.562500,-15.65,66.62
107443,2018-06-29 09:40:49.593750,17.88,66.62
107444,2018-06-29 09:40:49.625000,40.31,66.62
107445,2018-06-29 09:40:49.656250,54.09,66.62
107446,2018-06-29 09:40:49.687500,60.98,66.62
107447,2018-06-29 09:40:49.718750,62.25,66.62
107448,2018-06-29 09:40:49.750000,60.35,66.62
107449,2018-06-29 09:40:49.781250,57.96,66.62
107450,2018-06-29 09:40:49.812500,56.72,66.62
107451,2018-06-29 09:40:49.843750,56.8,66.62
107452,2018-06-29 09:40:49.875000,57.31,66.62
107453,2018-06-29 09:40:49.906250,57.29,66.62
107454,2018-06-29 09:40:49.937500,55.64,66.62
107455,2018-06-29 09:40:49.968750,51.33,66.62
107456,2018-06-29 09:40:50.000000,45.22,66.62
107457,2018-06-29 09:40:50.031250,41.12,66.62
107458,2018-06-29 09:40:50.062500,42.2,66.62
107459,2018-06-29 09:40:50.093750,46.73,66.62
107460,2018-06-29 09:40:50.125000,49.71,66.62
107461,2018-06-29 09:40:50.156250,48.52,66.62
107462,2018-06-29 09:40:50.187500,44.45,66.62
107463,2018-06-29 09:40:50.218750,38.77,66.62
107464,2018-06-29 09:40:50.250000,30.73,66.62
107465,2018-06-29 09:40:50.281250,20.1,66.62
107466,2018-06-29 09:40:50.312500,10.98,66.62
107467,2018-06-29 09:40:50.343750,12.71,66.62
107468,2018-06-29 09:40:50.375000,34.85,66.62
107469,2018-06-29 09:40:50.406250,75.77,66.62
107470,2018-06-29 09:40:50.437500,117.09,66.62
107471,2018-06-29 09:40:50.468750,136.67,66.62
107472,2018-06-29 09:40:50.500000,128.48,66.62
107473,2018-06-29 09:40:50.531250,104.99,66.73
107474,2018-06-29 09:40:50.562500,81.41,66.73
107475,2018-06-29 09:40:50.593750,63.09,66.73
107476,2018-06-29 09:40:50.625000,46.14,66.73
107477,2018-06-29 09:40:50.656250,25.37,66.73
107478,2018-06-29 09:40:50.687500,0.63,66.73
107479,2018-06-29 09:40:50.718750,-23.41,66.73
107480,2018-06-29 09:40:50.750000,-40.99,66.73
107481,2018-06-29 09:40:50.781250,-48.7,66.73
107482,2018-06-29 09:40:50.812500,-48.36,66.73
107483,2018-06-29 09:40:50.843750,-47.99,66.73
107484,2018-06-29 09:40:50.875000,-54.5,66.73
107485,2018-06-29 09:40:50.906250,-65.35,66.73
107486,2018-06-29 09:40:50.937500,-74.62,66.73
107487,2018-06-29 09:40:50.968750,-82.17,66.73
107488,2018-06-29 09:40:51.000000,-89.58,66.73
107489,2018-06-29 09:40:51.031250,-94.65,66.73
107490,2018-06-29 09:40:51.062500,-96.45,66.73
107491,2018-06-29 09:40:51.093750,-97.55,66.73
107492,2018-06-29 09:40:51.125000,-98.02,66.73
107493,2018-06-29 09:40:51.156250,-96.11,66.73
107494,2018-06-29 09:40:51.187500,-94.73,66.73
107495,2018-06-29 09:40:51.218750,-98.84,66.73
107496,2018-06-29 09:40:51.250000,-107.79,66.73
107497,2018-06-29 09:40:51.281250,-115.0,66.73
107498,2018-06-29 09:40:51.312500,-111.91,66.73
107499,2018-06-29 09:40:51.343750,-92.43,66.73
107500,2018-06-29 09:40:51.375000,-60.24,66.73
107501,2018-06-29 09:40:51.406250,-28.88,66.73
107502,2018-06-29 09:40:51.437500,-8.45,66.73
107503,2018-06-29 09:40:51.468750,3.01,66.73
107504,2018-06-29 09:40:51.500000,11.71,66.73
107505,2018-06-29 09:40:51.531250,19.41,66.85
107506,2018-06-29 09:40:51.562500,25.67,66.85
107507,2018-06-29 09:40:51.593750,31.29,66.85
107508,2018-06-29 09:40:51.625000,37.37,66.85
107509,2018-06-29 09:40:51.656250,43.68,66.85
107510,2018-06-29 09:40:51.687500,49.1,66.85
107511,2018-06-29 09:40:51.718750,52.76,66.85
107512,2018-06-29 09:40:51.750000,53.81,66.85
107513,2018-06-29 09:40:51.781250,50.82,66.85
107514,2018-06-29 09:40:51.812500,43.7,66.85
107515,2018-06-29 09:40:51.843750,35.49,66.85
107516,2018-06-29 09:40:51.875000,29.17,66.85
107517,2018-06-29 09:40:51.906250,23.87,66.85
107518,2018-06-29 09:40:51.937500,17.66,66.85
107519,2018-06-29 09:40:51.968750,12.27,66.85
107520,2018-06-29 09:40:52.000000,11.16,66.85
107521,2018-06-29 09:40:52.031250,13.89,66.85
107522,2018-06-29 09:40:52.062500,16.38,66.85
107523,2018-06-29 09:40:52.093750,17.1,66.85
107524,2018-06-29 09:40:52.125000,17.61,66.85
107525,2018-06-29 09:40:52.156250,17.79,66.85
107526,2018-06-29 09:40:52.187500,17.2,66.85
107527,2018-06-29 09:40:52.218750,19.34,66.85
107528,2018-06-29 09:40:52.250000,27.99,66.85
107529,2018-06-29 09:40:52.281250,39.73,66.85
107530,2018-06-29 09:40:52.312500,43.66,66.85
107531,2018-06-29 09:40:52.343750,30.09,66.85
107532,2018-06-29 09:40:52.375000,0.83,66.85
107533,2018-06-29 09:40:52.406250,-27.01,66.85
107534,2018-06-29 09:40:52.437500,-29.12,66.85
107535,2018-06-29 09:40:52.468750,6.56,66.85
107536,2018-06-29 09:40:52.500000,62.61,66.85
107537,2018-06-29 09:40:52.531250,104.59,66.93
107538,2018-06-29 09:40:52.562500,118.1,66.93
107539,2018-06-29 09:40:52.593750,118.95,66.93
107540,2018-06-29 09:40:52.625000,121.0,66.93
107541,2018-06-29 09:40:52.656250,115.76,66.93
107542,2018-06-29 09:40:52.687500,90.64,66.93
107543,2018-06-29 09:40:52.718750,47.04,66.93
107544,2018-06-29 09:40:52.750000,-5.81,66.93
107545,2018-06-29 09:40:52.781250,-59.63,66.93
107546,2018-06-29 09:40:52.812500,-106.19,66.93
107547,2018-06-29 09:40:52.843750,-139.69,66.93
107548,2018-06-29 09:40:52.875000,-163.23,66.93
107549,2018-06-29 09:40:52.906250,-185.09,66.93
107550,2018-06-29 09:40:52.937500,-207.41,66.93
107551,2018-06-29 09:40:52.968750,-226.87,66.93
107552,2018-06-29 09:40:53.000000,-244.89,66.93
107553,2018-06-29 09:40:53.031250,-265.09,66.93
107554,2018-06-29 09:40:53.062500,-280.7,66.93
107555,2018-06-29 09:40:53.093750,-276.21,66.93
107556,2018-06-29 09:40:53.125000,-244.32,66.93
107557,2018-06-29 09:40:53.156250,-194.45,66.93
107558,2018-06-29 09:40:53.187500,-142.77,66.93
107559,2018-06-29 09:40:53.218750,-99.33,66.93
107560,2018-06-29 09:40:53.250000,-64.82,66.93
107561,2018-06-29 09:40:53.281250,-35.78,66.93
107562,2018-06-29 09:40:53.312500,-10.07,66.93
107563,2018-06-29 09:40:53.343750,13.38,66.93
107564,2018-06-29 09:40:53.375000,35.38,66.93
107565,2018-06-29 09:40:53.406250,55.05,66.93
107566,2018-06-29 09:40:53.437500,70.74,66.93
107567,2018-06-29 09:40:53.468750,82.89,66.93
107568,2018-06-29 09:40:53.500000,92.75,66.93
107569,2018-06-29 09:40:53.531250,99.75,66.98
107570,2018-06-29 09:40:53.562500,102.87,66.98
107571,2018-06-29 09:40:53.593750,102.24,66.98
107572,2018-06-29 09:40:53.625000,97.69,66.98
107573,2018-06-29 09:40:53.656250,87.9,66.98
107574,2018-06-29 09:40:53.687500,72.32,66.98
107575,2018-06-29 09:40:53.718750,52.23,66.98
107576,2018-06-29 09:40:53.750000,28.85,66.98
107577,2018-06-29 09:40:53.781250,2.88,66.98
107578,2018-06-29 09:40:53.812500,-23.2,66.98
107579,2018-06-29 09:40:53.843750,-45.72,66.98
107580,2018-06-29 09:40:53.875000,-63.61,66.98
107581,2018-06-29 09:40:53.906250,-79.21,66.98
107582,2018-06-29 09:40:53.937500,-95.59,66.98
107583,2018-06-29 09:40:53.968750,-113.78,66.98
107584,2018-06-29 09:40:54.000000,-128.24,66.98
107585,2018-06-29 09:40:54.031250,-127.42,66.98
107586,2018-06-29 09:40:54.062500,-106.23,66.98
107587,2018-06-29 09:40:54.093750,-74.45,66.98
107588,2018-06-29 09:40:54.125000,-46.09,66.98
107589,2018-06-29 09:40:54.156250,-25.92,66.98
107590,2018-06-29 09:40:54.187500,-12.19,66.98
107591,2018-06-29 09:40:54.218750,-4.4,66.98
107592,2018-06-29 09:40:54.250000,-2.57,66.98
107593,2018-06-29 09:40:54.281250,-3.56,66.98
107594,2018-06-29 09:40:54.312500,-2.7,66.98
107595,2018-06-29 09:40:54.343750,2.49,66.98
107596,2018-06-29 09:40:54.375000,11.41,66.98
107597,2018-06-29 09:40:54.406250,22.7,66.98
107598,2018-06-29 09:40:54.437500,34.86,66.98
107599,2018-06-29 09:40:54.468750,44.16,66.98
107600,2018-06-29 09:40:54.500000,45.86,66.98
107601,2018-06-29 09:40:54.531250,39.67,67.02
107602,2018-06-29 09:40:54.562500,30.15,67.02
107603,2018-06-29 09:40:54.593750,20.29,67.02
107604,2018-06-29 09:40:54.625000,8.79,67.02
107605,2018-06-29 09:40:54.656250,-4.59,67.02
107606,2018-06-29 09:40:54.687500,-16.31,67.02
107607,2018-06-29 09:40:54.718750,-24.25,67.02
107608,2018-06-29 09:40:54.750000,-32.09,67.02
107609,2018-06-29 09:40:54.781250,-45.84,67.02
107610,2018-06-29 09:40:54.812500,-64.97,67.02
107611,2018-06-29 09:40:54.843750,-78.02,67.02
107612,2018-06-29 09:40:54.875000,-70.4,67.02
107613,2018-06-29 09:40:54.906250,-39.87,67.02
107614,2018-06-29 09:40:54.937500,0.6,67.02
107615,2018-06-29 09:40:54.968750,37.22,67.02
107616,2018-06-29 09:40:55.000000,66.62,67.02
107617,2018-06-29 09:40:55.031250,91.47,67.02
107618,2018-06-29 09:40:55.062500,112.69,67.02
107619,2018-06-29 09:40:55.093750,128.81,67.02
107620,2018-06-29 09:40:55.125000,138.33,67.02
107621,2018-06-29 09:40:55.156250,141.17,67.02
107622,2018-06-29 09:40:55.187500,138.55,67.02
107623,2018-06-29 09:40:55.218750,131.11,67.02
107624,2018-06-29 09:40:55.250000,118.81,67.02
107625,2018-06-29 09:40:55.281250,101.72,67.02
107626,2018-06-29 09:40:55.312500,79.76,67.02
107627,2018-06-29 09:40:55.343750,53.12,67.02
107628,2018-06-29 09:40:55.375000,23.93,67.02
107629,2018-06-29 09:40:55.406250,-3.8,67.02
107630,2018-06-29 09:40:55.437500,-26.55,67.02
107631,2018-06-29 09:40:55.468750,-43.44,67.02
107632,2018-06-29 09:40:55.500000,-56.41,67.02
107633,2018-06-29 09:40:55.531250,-67.26,67.05
107634,2018-06-29 09:40:55.562500,-74.42,67.05
107635,2018-06-29 09:40:55.593750,-75.21,67.05
107636,2018-06-29 09:40:55.625000,-70.99,67.05
107637,2018-06-29 09:40:55.656250,-67.27,67.05
107638,2018-06-29 09:40:55.687500,-69.18,67.05
107639,2018-06-29 09:40:55.718750,-76.47,67.05
107640,2018-06-29 09:40:55.750000,-79.18,67.05
107641,2018-06-29 09:40:55.781250,-62.39,67.05
107642,2018-06-29 09:40:55.812500,-22.83,67.05
107643,2018-06-29 09:40:55.843750,24.31,67.05
107644,2018-06-29 09:40:55.875000,62.26,67.05
107645,2018-06-29 09:40:55.906250,87.93,67.05
107646,2018-06-29 09:40:55.937500,106.19,67.05
107647,2018-06-29 09:40:55.968750,119.09,67.05
107648,2018-06-29 09:40:56.000000,125.45,67.05
107649,2018-06-29 09:40:56.031250,124.92,67.05
107650,2018-06-29 09:40:56.062500,119.69,67.05
107651,2018-06-29 09:40:56.093750,113.17,67.05
107652,2018-06-29 09:40:56.125000,107.23,67.05
107653,2018-06-29 09:40:56.156250,101.55,67.05
107654,2018-06-29 09:40:56.187500,95.64,67.05
107655,2018-06-29 09:40:56.218750,89.44,67.05
107656,2018-06-29 09:40:56.250000,82.89,67.05
107657,2018-06-29 09:40:56.281250,76.2,67.05
107658,2018-06-29 09:40:56.312500,69.35,67.05
107659,2018-06-29 09:40:56.343750,61.71,67.05
107660,2018-06-29 09:40:56.375000,52.78,67.05
107661,2018-06-29 09:40:56.406250,42.67,67.05
107662,2018-06-29 09:40:56.437500,31.22,67.05
107663,2018-06-29 09:40:56.468750,17.38,67.05
107664,2018-06-29 09:40:56.500000,0.04,67.05
107665,2018-06-29 09:40:56.531250,-19.8,67.08
107666,2018-06-29 09:40:56.562500,-39.03,67.08
107667,2018-06-29 09:40:56.593750,-56.35,67.08
107668,2018-06-29 09:40:56.625000,-74.34,67.08
107669,2018-06-29 09:40:56.656250,-95.06,67.08
107670,2018-06-29 09:40:56.687500,-113.28,67.08
107671,2018-06-29 09:40:56.718750,-116.5,67.08
107672,2018-06-29 09:40:56.750000,-96.49,67.08
107673,2018-06-29 09:40:56.781250,-60.43,67.08
107674,2018-06-29 09:40:56.812500,-25.25,67.08
107675,2018-06-29 09:40:56.843750,-1.28,67.08
107676,2018-06-29 09:40:56.875000,12.64,67.08
107677,2018-06-29 09:40:56.906250,20.4,67.08
107678,2018-06-29 09:40:56.937500,23.37,67.08
107679,2018-06-29 09:40:56.968750,23.14,67.08
107680,2018-06-29 09:40:57.000000,22.49,67.08
107681,2018-06-29 09:40:57.031250,22.52,67.08
107682,2018-06-29 09:40:57.062500,22.74,67.08
107683,2018-06-29 09:40:57.093750,24.27,67.08
107684,2018-06-29 09:40:57.125000,28.26,67.08
107685,2018-06-29 09:40:57.156250,32.28,67.08
107686,2018-06-29 09:40:57.187500,32.11,67.08
107687,2018-06-29 09:40:57.218750,26.84,67.08
107688,2018-06-29 09:40:57.250000,19.59,67.08
107689,2018-06-29 09:40:57.281250,14.03,67.08
107690,2018-06-29 09:40:57.312500,11.51,67.08
107691,2018-06-29 09:40:57.343750,10.59,67.08
107692,2018-06-29 09:40:57.375000,8.82,67.08
107693,2018-06-29 09:40:57.406250,5.14,67.08
107694,2018-06-29 09:40:57.437500,0.02,67.08
107695,2018-06-29 09:40:57.468750,-6.12,67.08
107696,2018-06-29 09:40:57.500000,-14.6,67.08
107697,2018-06-29 09:40:57.531250,-26.82,67.12
107698,2018-06-29 09:40:57.562500,-38.91,67.12
107699,2018-06-29 09:40:57.593750,-39.35,67.12
107700,2018-06-29 09:40:57.625000,-18.2,67.12
107701,2018-06-29 09:40:57.656250,19.63,67.12
107702,2018-06-29 09:40:57.687500,55.71,67.12
107703,2018-06-29 09:40:57.718750,72.82,67.12
107704,2018-06-29 09:40:57.750000,66.59,67.12
107705,2018-06-29 09:40:57.781250,45.16,67.12
107706,2018-06-29 09:40:57.812500,20.58,67.12
107707,2018-06-29 09:40:57.843750,0.59,67.12
107708,2018-06-29 09:40:57.875000,-11.98,67.12
107709,2018-06-29 09:40:57.906250,-14.57,67.12
107710,2018-06-29 09:40:57.937500,-4.57,67.12
107711,2018-06-29 09:40:57.968750,17.46,67.12
107712,2018-06-29 09:40:58.000000,47.84,67.12
107713,2018-06-29 09:40:58.031250,80.75,67.12
107714,2018-06-29 09:40:58.062500,108.78,67.12
107715,2018-06-29 09:40:58.093750,125.81,67.12
107716,2018-06-29 09:40:58.125000,130.76,67.12
107717,2018-06-29 09:40:58.156250,126.42,67.12
107718,2018-06-29 09:40:58.187500,114.47,67.12
107719,2018-06-29 09:40:58.218750,95.42,67.12
107720,2018-06-29 09:40:58.250000,71.24,67.12
107721,2018-06-29 09:40:58.281250,44.12,67.12
107722,2018-06-29 09:40:58.312500,13.43,67.12
107723,2018-06-29 09:40:58.343750,-21.54,67.12
107724,2018-06-29 09:40:58.375000,-56.71,67.12
107725,2018-06-29 09:40:58.406250,-83.84,67.12
107726,2018-06-29 09:40:58.437500,-95.8,67.12
107727,2018-06-29 09:40:58.468750,-90.96,67.12
107728,2018-06-29 09:40:58.500000,-71.83,67.12
107729,2018-06-29 09:40:58.531250,-38.58,67.15
107730,2018-06-29 09:40:58.562500,11.47,67.15
107731,2018-06-29 09:40:58.593750,72.67,67.15
107732,2018-06-29 09:40:58.625000,124.97,67.15
107733,2018-06-29 09:40:58.656250,147.47,67.15
107734,2018-06-29 09:40:58.687500,136.17,67.15
107735,2018-06-29 09:40:58.718750,105.25,67.15
107736,2018-06-29 09:40:58.750000,74.0,67.15
107737,2018-06-29 09:40:58.781250,53.74,67.15
107738,2018-06-29 09:40:58.812500,42.67,67.15
107739,2018-06-29 09:40:58.843750,32.34,67.15
107740,2018-06-29 09:40:58.875000,18.02,67.15
107741,2018-06-29 09:40:58.906250,1.79,67.15
107742,2018-06-29 09:40:58.937500,-11.87,67.15
107743,2018-06-29 09:40:58.968750,-21.33,67.15
107744,2018-06-29 09:40:59.000000,-28.77,67.15
107745,2018-06-29 09:40:59.031250,-36.78,67.15
107746,2018-06-29 09:40:59.062500,-44.51,67.15
107747,2018-06-29 09:40:59.093750,-49.03,67.15
107748,2018-06-29 09:40:59.125000,-51.97,67.15
107749,2018-06-29 09:40:59.156250,-61.15,67.15
107750,2018-06-29 09:40:59.187500,-81.56,67.15
107751,2018-06-29 09:40:59.218750,-106.59,67.15
107752,2018-06-29 09:40:59.250000,-124.21,67.15
107753,2018-06-29 09:40:59.281250,-129.96,67.15
107754,2018-06-29 09:40:59.312500,-128.49,67.15
107755,2018-06-29 09:40:59.343750,-125.34,67.15
107756,2018-06-29 09:40:59.375000,-122.73,67.15
107757,2018-06-29 09:40:59.406250,-120.82,67.15
107758,2018-06-29 09:40:59.437500,-116.48,67.15
107759,2018-06-29 09:40:59.468750,-103.72,67.15
107760,2018-06-29 09:40:59.500000,-81.87,67.15
107761,2018-06-29 09:40:59.531250,-59.47,67.17
107762,2018-06-29 09:40:59.562500,-44.2,67.17
107763,2018-06-29 09:40:59.593750,-35.24,67.17
107764,2018-06-29 09:40:59.625000,-29.36,67.17
107765,2018-06-29 09:40:59.656250,-27.08,67.17
107766,2018-06-29 09:40:59.687500,-29.78,67.17
107767,2018-06-29 09:40:59.718750,-35.58,67.17
107768,2018-06-29 09:40:59.750000,-40.49,67.17
107769,2018-06-29 09:40:59.781250,-41.57,67.17
107770,2018-06-29 09:40:59.812500,-38.34,67.17
107771,2018-06-29 09:40:59.843750,-31.93,67.17
107772,2018-06-29 09:40:59.875000,-24.69,67.17
107773,2018-06-29 09:40:59.906250,-19.59,67.17
107774,2018-06-29 09:40:59.937500,-17.15,67.17
107775,2018-06-29 09:40:59.968750,-14.76,67.17
107776,2018-06-29 09:41:00.000000,-10.83,67.17
107777,2018-06-29 09:41:00.031250,-7.08,67.17
107778,2018-06-29 09:41:00.062500,-5.15,67.17
107779,2018-06-29 09:41:00.093750,-4.64,67.17
107780,2018-06-29 09:41:00.125000,-5.0,67.17
107781,2018-06-29 09:41:00.156250,-6.11,67.17
107782,2018-06-29 09:41:00.187500,-7.85,67.17
107783,2018-06-29 09:41:00.218750,-10.89,67.17
107784,2018-06-29 09:41:00.250000,-15.97,67.17
107785,2018-06-29 09:41:00.281250,-20.14,67.17
107786,2018-06-29 09:41:00.312500,-16.49,67.17
107787,2018-06-29 09:41:00.343750,-2.63,67.17
107788,2018-06-29 09:41:00.375000,14.75,67.17
107789,2018-06-29 09:41:00.406250,27.4,67.17
107790,2018-06-29 09:41:00.437500,33.78,67.17
107791,2018-06-29 09:41:00.468750,36.76,67.17
107792,2018-06-29 09:41:00.500000,37.82,67.17
107793,2018-06-29 09:41:00.531250,36.95,67.17
107794,2018-06-29 09:41:00.562500,34.94,67.17
107795,2018-06-29 09:41:00.593750,32.95,67.17
107796,2018-06-29 09:41:00.625000,31.59,67.17
107797,2018-06-29 09:41:00.656250,31.03,67.17
107798,2018-06-29 09:41:00.687500,31.05,67.17
107799,2018-06-29 09:41:00.718750,30.38,67.17
107800,2018-06-29 09:41:00.750000,26.88,67.17
107801,2018-06-29 09:41:00.781250,19.22,67.17
107802,2018-06-29 09:41:00.812500,8.4,67.17
107803,2018-06-29 09:41:00.843750,-2.35,67.17
107804,2018-06-29 09:41:00.875000,-9.37,67.17
107805,2018-06-29 09:41:00.906250,-11.15,67.17
107806,2018-06-29 09:41:00.937500,-8.42,67.17
107807,2018-06-29 09:41:00.968750,-2.23,67.17
107808,2018-06-29 09:41:01.000000,6.49,67.17
107809,2018-06-29 09:41:01.031250,15.93,67.17
107810,2018-06-29 09:41:01.062500,24.81,67.17
107811,2018-06-29 09:41:01.093750,34.72,67.17
107812,2018-06-29 09:41:01.125000,48.03,67.17
107813,2018-06-29 09:41:01.156250,64.33,67.17
107814,2018-06-29 09:41:01.187500,81.25,67.17
107815,2018-06-29 09:41:01.218750,95.79,67.17
107816,2018-06-29 09:41:01.250000,104.27,67.17
107817,2018-06-29 09:41:01.281250,104.76,67.17
107818,2018-06-29 09:41:01.312500,100.76,67.17
107819,2018-06-29 09:41:01.343750,98.46,67.17
107820,2018-06-29 09:41:01.375000,99.87,67.17
107821,2018-06-29 09:41:01.406250,101.61,67.17
107822,2018-06-29 09:41:01.437500,99.89,67.17
107823,2018-06-29 09:41:01.468750,93.37,67.17
107824,2018-06-29 09:41:01.500000,80.2,67.17
107825,2018-06-29 09:41:01.531250,58.49,67.18
107826,2018-06-29 09:41:01.562500,32.08,67.18
107827,2018-06-29 09:41:01.593750,8.67,67.18
107828,2018-06-29 09:41:01.625000,-10.37,67.18
107829,2018-06-29 09:41:01.656250,-31.78,67.18
107830,2018-06-29 09:41:01.687500,-61.5,67.18
107831,2018-06-29 09:41:01.718750,-99.37,67.18
107832,2018-06-29 09:41:01.750000,-141.43,67.18
107833,2018-06-29 09:41:01.781250,-183.05,67.18
107834,2018-06-29 09:41:01.812500,-220.31,67.18
107835,2018-06-29 09:41:01.843750,-251.45,67.18
107836,2018-06-29 09:41:01.875000,-274.61,67.18
107837,2018-06-29 09:41:01.906250,-281.39,67.18
107838,2018-06-29 09:41:01.937500,-261.54,67.18
107839,2018-06-29 09:41:01.968750,-220.53,67.18
107840,2018-06-29 09:41:02.000000,-182.06,67.18
107841,2018-06-29 09:41:02.031250,-163.64,67.18
107842,2018-06-29 09:41:02.062500,-158.33,67.18
107843,2018-06-29 09:41:02.093750,-147.97,67.18
107844,2018-06-29 09:41:02.125000,-124.99,67.18
107845,2018-06-29 09:41:02.156250,-95.35,67.18
107846,2018-06-29 09:41:02.187500,-68.26,67.18
107847,2018-06-29 09:41:02.218750,-49.72,67.18
107848,2018-06-29 09:41:02.250000,-41.23,67.18
107849,2018-06-29 09:41:02.281250,-38.95,67.18
107850,2018-06-29 09:41:02.312500,-36.53,67.18
107851,2018-06-29 09:41:02.343750,-31.19,67.18
107852,2018-06-29 09:41:02.375000,-24.95,67.18
107853,2018-06-29 09:41:02.406250,-20.0,67.18
107854,2018-06-29 09:41:02.437500,-15.28,67.18
107855,2018-06-29 09:41:02.468750,-7.6,67.18
107856,2018-06-29 09:41:02.500000,4.7,67.18
107857,2018-06-29 09:41:02.531250,19.59,67.18
107858,2018-06-29 09:41:02.562500,33.94,67.18
107859,2018-06-29 09:41:02.593750,46.91,67.18
107860,2018-06-29 09:41:02.625000,59.08,67.18
107861,2018-06-29 09:41:02.656250,69.2,67.18
107862,2018-06-29 09:41:02.687500,74.22,67.18
107863,2018-06-29 09:41:02.718750,71.67,67.18
107864,2018-06-29 09:41:02.750000,61.1,67.18
107865,2018-06-29 09:41:02.781250,43.66,67.18
107866,2018-06-29 09:41:02.812500,21.05,67.18
107867,2018-06-29 09:41:02.843750,-3.49,67.18
107868,2018-06-29 09:41:02.875000,-25.45,67.18
107869,2018-06-29 09:41:02.906250,-43.22,67.18
107870,2018-06-29 09:41:02.937500,-60.54,67.18
107871,2018-06-29 09:41:02.968750,-81.06,67.18
107872,2018-06-29 09:41:03.000000,-100.35,67.18
107873,2018-06-29 09:41:03.031250,-106.79,67.18
107874,2018-06-29 09:41:03.062500,-92.57,67.18
107875,2018-06-29 09:41:03.093750,-62.17,67.18
107876,2018-06-29 09:41:03.125000,-28.18,67.18
107877,2018-06-29 09:41:03.156250,0.48,67.18
107878,2018-06-29 09:41:03.187500,23.44,67.18
107879,2018-06-29 09:41:03.218750,43.63,67.18
107880,2018-06-29 09:41:03.250000,61.46,67.18
107881,2018-06-29 09:41:03.281250,74.58,67.18
107882,2018-06-29 09:41:03.312500,81.42,67.18
107883,2018-06-29 09:41:03.343750,83.66,67.18
107884,2018-06-29 09:41:03.375000,85.2,67.18
107885,2018-06-29 09:41:03.406250,88.36,67.18
107886,2018-06-29 09:41:03.437500,91.66,67.18
107887,2018-06-29 09:41:03.468750,92.34,67.18
107888,2018-06-29 09:41:03.500000,89.76,67.18
107889,2018-06-29 09:41:03.531250,84.8,67.17
107890,2018-06-29 09:41:03.562500,77.92,67.17
107891,2018-06-29 09:41:03.593750,69.05,67.17
107892,2018-06-29 09:41:03.625000,58.86,67.17
107893,2018-06-29 09:41:03.656250,48.56,67.17
107894,2018-06-29 09:41:03.687500,38.32,67.17
107895,2018-06-29 09:41:03.718750,27.07,67.17
107896,2018-06-29 09:41:03.750000,14.4,67.17
107897,2018-06-29 09:41:03.781250,1.55,67.17
107898,2018-06-29 09:41:03.812500,-10.64,67.17
107899,2018-06-29 09:41:03.843750,-23.46,67.17
107900,2018-06-29 09:41:03.875000,-39.06,67.17
107901,2018-06-29 09:41:03.906250,-57.54,67.17
107902,2018-06-29 09:41:03.937500,-72.79,67.17
107903,2018-06-29 09:41:03.968750,-72.88,67.17
107904,2018-06-29 09:41:04.000000,-50.9,67.17
107905,2018-06-29 09:41:04.031250,-14.25,67.17
107906,2018-06-29 09:41:04.062500,22.62,67.17
107907,2018-06-29 09:41:04.093750,51.44,67.17
107908,2018-06-29 09:41:04.125000,71.21,67.17
107909,2018-06-29 09:41:04.156250,82.7,67.17
107910,2018-06-29 09:41:04.187500,87.24,67.17
107911,2018-06-29 09:41:04.218750,87.06,67.17
107912,2018-06-29 09:41:04.250000,84.07,67.17
107913,2018-06-29 09:41:04.281250,79.45,67.17
107914,2018-06-29 09:41:04.312500,74.51,67.17
107915,2018-06-29 09:41:04.343750,70.39,67.17
107916,2018-06-29 09:41:04.375000,66.43,67.17
107917,2018-06-29 09:41:04.406250,59.83,67.17
107918,2018-06-29 09:41:04.437500,49.24,67.17
107919,2018-06-29 09:41:04.468750,37.65,67.17
107920,2018-06-29 09:41:04.500000,29.58,67.17
107921,2018-06-29 09:41:04.531250,26.2,67.4
107922,2018-06-29 09:41:04.562500,25.6,67.4
107923,2018-06-29 09:41:04.593750,26.55,67.4
107924,2018-06-29 09:41:04.625000,28.46,67.4
107925,2018-06-29 09:41:04.656250,29.53,67.4
107926,2018-06-29 09:41:04.687500,28.37,67.4
107927,2018-06-29 09:41:04.718750,24.89,67.4
107928,2018-06-29 09:41:04.750000,17.53,67.4
107929,2018-06-29 09:41:04.781250,3.55,67.4
107930,2018-06-29 09:41:04.812500,-16.5,67.4
107931,2018-06-29 09:41:04.843750,-39.05,67.4
107932,2018-06-29 09:41:04.875000,-59.42,67.4
107933,2018-06-29 09:41:04.906250,-67.37,67.4
107934,2018-06-29 09:41:04.937500,-51.86,67.4
107935,2018-06-29 09:41:04.968750,-16.12,67.4
107936,2018-06-29 09:41:05.000000,23.22,67.4
107937,2018-06-29 09:41:05.031250,53.25,67.4
107938,2018-06-29 09:41:05.062500,70.8,67.4
107939,2018-06-29 09:41:05.093750,76.91,67.4
107940,2018-06-29 09:41:05.125000,75.03,67.4
107941,2018-06-29 09:41:05.156250,69.47,67.4
107942,2018-06-29 09:41:05.187500,61.67,67.4
107943,2018-06-29 09:41:05.218750,52.15,67.4
107944,2018-06-29 09:41:05.250000,43.03,67.4
107945,2018-06-29 09:41:05.281250,36.82,67.4
107946,2018-06-29 09:41:05.312500,34.73,67.4
107947,2018-06-29 09:41:05.343750,36.02,67.4
107948,2018-06-29 09:41:05.375000,37.65,67.4
107949,2018-06-29 09:41:05.406250,35.59,67.4
107950,2018-06-29 09:41:05.437500,28.74,67.4
107951,2018-06-29 09:41:05.468750,19.37,67.4
107952,2018-06-29 09:41:05.500000,9.17,67.4
107953,2018-06-29 09:41:05.531250,-2.77,67.57
107954,2018-06-29 09:41:05.562500,-16.82,67.57
107955,2018-06-29 09:41:05.593750,-30.43,67.57
107956,2018-06-29 09:41:05.625000,-40.94,67.57
107957,2018-06-29 09:41:05.656250,-49.27,67.57
107958,2018-06-29 09:41:05.687500,-58.92,67.57
107959,2018-06-29 09:41:05.718750,-71.03,67.57
107960,2018-06-29 09:41:05.750000,-79.7,67.57
107961,2018-06-29 09:41:05.781250,-74.64,67.57
107962,2018-06-29 09:41:05.812500,-51.98,67.57
107963,2018-06-29 09:41:05.843750,-19.9,67.57
107964,2018-06-29 09:41:05.875000,9.83,67.57
107965,2018-06-29 09:41:05.906250,31.92,67.57
107966,2018-06-29 09:41:05.937500,47.06,67.57
107967,2018-06-29 09:41:05.968750,56.98,67.57
107968,2018-06-29 09:41:06.000000,62.78,67.57
107969,2018-06-29 09:41:06.031250,65.04,67.57
107970,2018-06-29 09:41:06.062500,64.18,67.57
107971,2018-06-29 09:41:06.093750,61.84,67.57
107972,2018-06-29 09:41:06.125000,60.71,67.57
107973,2018-06-29 09:41:06.156250,62.08,67.57
107974,2018-06-29 09:41:06.187500,64.24,67.57
107975,2018-06-29 09:41:06.218750,63.54,67.57
107976,2018-06-29 09:41:06.250000,57.95,67.57
107977,2018-06-29 09:41:06.281250,48.95,67.57
107978,2018-06-29 09:41:06.312500,38.76,67.57
107979,2018-06-29 09:41:06.343750,27.08,67.57
107980,2018-06-29 09:41:06.375000,12.62,67.57
107981,2018-06-29 09:41:06.406250,-3.48,67.57
107982,2018-06-29 09:41:06.437500,-18.94,67.57
107983,2018-06-29 09:41:06.468750,-32.92,67.57
107984,2018-06-29 09:41:06.500000,-46.38,67.57
107985,2018-06-29 09:41:06.531250,-60.9,67.77
107986,2018-06-29 09:41:06.562500,-75.21,67.77
107987,2018-06-29 09:41:06.593750,-81.79,67.77
107988,2018-06-29 09:41:06.625000,-72.25,67.77
107989,2018-06-29 09:41:06.656250,-48.53,67.77
107990,2018-06-29 09:41:06.687500,-22.42,67.77
107991,2018-06-29 09:41:06.718750,-2.48,67.77
107992,2018-06-29 09:41:06.750000,11.45,67.77
107993,2018-06-29 09:41:06.781250,21.27,67.77
107994,2018-06-29 09:41:06.812500,26.54,67.77
107995,2018-06-29 09:41:06.843750,27.32,67.77
107996,2018-06-29 09:41:06.875000,25.16,67.77
107997,2018-06-29 09:41:06.906250,21.06,67.77
107998,2018-06-29 09:41:06.937500,15.85,67.77
107999,2018-06-29 09:41:06.968750,11.35,67.77
108000,2018-06-29 09:41:07.000000,8.93,67.77
108001,2018-06-29 09:41:07.031250,7.3,67.77
108002,2018-06-29 09:41:07.062500,3.8,67.77
108003,2018-06-29 09:41:07.093750,-2.07,67.77
108004,2018-06-29 09:41:07.125000,-8.15,67.77
108005,2018-06-29 09:41:07.156250,-13.17,67.77
108006,2018-06-29 09:41:07.187500,-18.73,67.77
108007,2018-06-29 09:41:07.218750,-26.4,67.77
108008,2018-06-29 09:41:07.250000,-34.84,67.77
108009,2018-06-29 09:41:07.281250,-41.75,67.77
108010,2018-06-29 09:41:07.312500,-46.82,67.77
108011,2018-06-29 09:41:07.343750,-52.11,67.77
108012,2018-06-29 09:41:07.375000,-59.81,67.77
108013,2018-06-29 09:41:07.406250,-67.61,67.77
108014,2018-06-29 09:41:07.437500,-67.36,67.77
108015,2018-06-29 09:41:07.468750,-52.49,67.77
108016,2018-06-29 09:41:07.500000,-27.16,67.77
108017,2018-06-29 09:41:07.531250,-2.54,68.0
108018,2018-06-29 09:41:07.562500,14.83,68.0
108019,2018-06-29 09:41:07.593750,26.08,68.0
108020,2018-06-29 09:41:07.625000,33.47,68.0
108021,2018-06-29 09:41:07.656250,36.65,68.0
108022,2018-06-29 09:41:07.687500,35.09,68.0
108023,2018-06-29 09:41:07.718750,29.45,68.0
108024,2018-06-29 09:41:07.750000,20.59,68.0
108025,2018-06-29 09:41:07.781250,9.75,68.0
108026,2018-06-29 09:41:07.812500,-0.74,68.0
108027,2018-06-29 09:41:07.843750,-8.94,68.0
108028,2018-06-29 09:41:07.875000,-14.97,68.0
108029,2018-06-29 09:41:07.906250,-20.9,68.0
108030,2018-06-29 09:41:07.937500,-28.17,68.0
108031,2018-06-29 09:41:07.968750,-35.95,68.0
108032,2018-06-29 09:41:08.000000,-42.41,68.0
108033,2018-06-29 09:41:08.031250,-47.44,68.0
108034,2018-06-29 09:41:08.062500,-52.1,68.0
108035,2018-06-29 09:41:08.093750,-56.07,68.0
108036,2018-06-29 09:41:08.125000,-57.5,68.0
108037,2018-06-29 09:41:08.156250,-55.48,68.0
108038,2018-06-29 09:41:08.187500,-51.32,68.0
108039,2018-06-29 09:41:08.218750,-47.67,68.0
108040,2018-06-29 09:41:08.250000,-46.45,68.0
108041,2018-06-29 09:41:08.281250,-45.37,68.0
108042,2018-06-29 09:41:08.312500,-37.44,68.0
108043,2018-06-29 09:41:08.343750,-18.24,68.0
108044,2018-06-29 09:41:08.375000,7.24,68.0
108045,2018-06-29 09:41:08.406250,29.72,68.0
108046,2018-06-29 09:41:08.437500,45.38,68.0
108047,2018-06-29 09:41:08.468750,56.14,68.0
108048,2018-06-29 09:41:08.500000,63.97,68.0
108049,2018-06-29 09:41:08.531250,68.86,68.25
108050,2018-06-29 09:41:08.562500,69.72,68.25
108051,2018-06-29 09:41:08.593750,65.7,68.25
108052,2018-06-29 09:41:08.625000,57.26,68.25
108053,2018-06-29 09:41:08.656250,46.19,68.25
108054,2018-06-29 09:41:08.687500,34.09,68.25
108055,2018-06-29 09:41:08.718750,21.69,68.25
108056,2018-06-29 09:41:08.750000,8.86,68.25
108057,2018-06-29 09:41:08.781250,-4.49,68.25
108058,2018-06-29 09:41:08.812500,-17.22,68.25
108059,2018-06-29 09:41:08.843750,-27.56,68.25
108060,2018-06-29 09:41:08.875000,-34.9,68.25
108061,2018-06-29 09:41:08.906250,-39.95,68.25
108062,2018-06-29 09:41:08.937500,-43.41,68.25
108063,2018-06-29 09:41:08.968750,-45.44,68.25
108064,2018-06-29 09:41:09.000000,-46.33,68.25
108065,2018-06-29 09:41:09.031250,-47.15,68.25
108066,2018-06-29 09:41:09.062500,-48.51,68.25
108067,2018-06-29 09:41:09.093750,-49.12,68.25
108068,2018-06-29 09:41:09.125000,-47.83,68.25
108069,2018-06-29 09:41:09.156250,-46.18,68.25
108070,2018-06-29 09:41:09.187500,-47.72,68.25
108071,2018-06-29 09:41:09.218750,-53.61,68.25
108072,2018-06-29 09:41:09.250000,-58.61,68.25
108073,2018-06-29 09:41:09.281250,-53.78,68.25
108074,2018-06-29 09:41:09.312500,-36.43,68.25
108075,2018-06-29 09:41:09.343750,-13.71,68.25
108076,2018-06-29 09:41:09.375000,5.91,68.25
108077,2018-06-29 09:41:09.406250,19.62,68.25
108078,2018-06-29 09:41:09.437500,28.0,68.25
108079,2018-06-29 09:41:09.468750,32.03,68.25
108080,2018-06-29 09:41:09.500000,32.79,68.25
108081,2018-06-29 09:41:09.531250,31.45,68.48
108082,2018-06-29 09:41:09.562500,29.32,68.48
108083,2018-06-29 09:41:09.593750,27.62,68.48
108084,2018-06-29 09:41:09.625000,26.92,68.48
108085,2018-06-29 09:41:09.656250,27.66,68.48
108086,2018-06-29 09:41:09.687500,29.8,68.48
108087,2018-06-29 09:41:09.718750,31.42,68.48
108088,2018-06-29 09:41:09.750000,30.75,68.48
108089,2018-06-29 09:41:09.781250,28.62,68.48
108090,2018-06-29 09:41:09.812500,25.83,68.48
108091,2018-06-29 09:41:09.843750,20.69,68.48
108092,2018-06-29 09:41:09.875000,12.33,68.48
108093,2018-06-29 09:41:09.906250,3.24,68.48
108094,2018-06-29 09:41:09.937500,-4.24,68.48
108095,2018-06-29 09:41:09.968750,-10.57,68.48
108096,2018-06-29 09:41:10.000000,-16.6,68.48
108097,2018-06-29 09:41:10.031250,-21.64,68.48
108098,2018-06-29 09:41:10.062500,-25.31,68.48
108099,2018-06-29 09:41:10.093750,-29.37,68.48
108100,2018-06-29 09:41:10.125000,-36.71,68.48
108101,2018-06-29 09:41:10.156250,-48.47,68.48
108102,2018-06-29 09:41:10.187500,-59.94,68.48
108103,2018-06-29 09:41:10.218750,-61.03,68.48
108104,2018-06-29 09:41:10.250000,-46.29,68.48
108105,2018-06-29 09:41:10.281250,-22.25,68.48
108106,2018-06-29 09:41:10.312500,0.12,68.48
108107,2018-06-29 09:41:10.343750,17.39,68.48
108108,2018-06-29 09:41:10.375000,32.53,68.48
108109,2018-06-29 09:41:10.406250,46.95,68.48
108110,2018-06-29 09:41:10.437500,59.13,68.48
108111,2018-06-29 09:41:10.468750,67.5,68.48
108112,2018-06-29 09:41:10.500000,71.41,68.48
108113,2018-06-29 09:41:10.531250,71.0,68.72
108114,2018-06-29 09:41:10.562500,67.84,68.72
108115,2018-06-29 09:41:10.593750,64.19,68.72
108116,2018-06-29 09:41:10.625000,60.43,68.72
108117,2018-06-29 09:41:10.656250,54.85,68.72
108118,2018-06-29 09:41:10.687500,46.75,68.72
108119,2018-06-29 09:41:10.718750,37.88,68.72
108120,2018-06-29 09:41:10.750000,29.85,68.72
108121,2018-06-29 09:41:10.781250,21.84,68.72
108122,2018-06-29 09:41:10.812500,11.9,68.72
108123,2018-06-29 09:41:10.843750,-0.25,68.72
108124,2018-06-29 09:41:10.875000,-12.4,68.72
108125,2018-06-29 09:41:10.906250,-22.03,68.72
108126,2018-06-29 09:41:10.937500,-29.19,68.72
108127,2018-06-29 09:41:10.968750,-35.45,68.72
108128,2018-06-29 09:41:11.000000,-40.91,68.72
108129,2018-06-29 09:41:11.031250,-44.42,68.72
108130,2018-06-29 09:41:11.062500,-46.31,68.72
108131,2018-06-29 09:41:11.093750,-49.31,68.72
108132,2018-06-29 09:41:11.125000,-56.73,68.72
108133,2018-06-29 09:41:11.156250,-68.64,68.72
108134,2018-06-29 09:41:11.187500,-78.23,68.72
108135,2018-06-29 09:41:11.218750,-74.84,68.72
108136,2018-06-29 09:41:11.250000,-55.07,68.72
108137,2018-06-29 09:41:11.281250,-27.42,68.72
108138,2018-06-29 09:41:11.312500,-2.79,68.72
108139,2018-06-29 09:41:11.343750,14.92,68.72
108140,2018-06-29 09:41:11.375000,27.01,68.72
108141,2018-06-29 09:41:11.406250,34.69,68.72
108142,2018-06-29 09:41:11.437500,38.63,68.72
108143,2018-06-29 09:41:11.468750,39.71,68.72
108144,2018-06-29 09:41:11.500000,38.79,68.72
108145,2018-06-29 09:41:11.531250,36.4,68.88
108146,2018-06-29 09:41:11.562500,33.07,68.88
108147,2018-06-29 09:41:11.593750,29.44,68.88
108148,2018-06-29 09:41:11.625000,25.88,68.88
108149,2018-06-29 09:41:11.656250,21.81,68.88
108150,2018-06-29 09:41:11.687500,16.36,68.88
108151,2018-06-29 09:41:11.718750,10.26,68.88
108152,2018-06-29 09:41:11.750000,5.59,68.88
108153,2018-06-29 09:41:11.781250,3.09,68.88
108154,2018-06-29 09:41:11.812500,1.13,68.88
108155,2018-06-29 09:41:11.843750,-2.03,68.88
108156,2018-06-29 09:41:11.875000,-6.21,68.88
108157,2018-06-29 09:41:11.906250,-9.87,68.88
108158,2018-06-29 09:41:11.937500,-12.09,68.88
108159,2018-06-29 09:41:11.968750,-13.47,68.88
108160,2018-06-29 09:41:12.000000,-15.86,68.88
108161,2018-06-29 09:41:12.031250,-20.87,68.88
108162,2018-06-29 09:41:12.062500,-28.34,68.88
108163,2018-06-29 09:41:12.093750,-36.7,68.88
108164,2018-06-29 09:41:12.125000,-44.76,68.88
108165,2018-06-29 09:41:12.156250,-53.01,68.88
108166,2018-06-29 09:41:12.187500,-62.06,68.88
108167,2018-06-29 09:41:12.218750,-68.29,68.88
108168,2018-06-29 09:41:12.250000,-64.22,68.88
108169,2018-06-29 09:41:12.281250,-47.6,68.88
108170,2018-06-29 09:41:12.312500,-26.18,68.88
108171,2018-06-29 09:41:12.343750,-9.21,68.88
108172,2018-06-29 09:41:12.375000,1.2,68.88
108173,2018-06-29 09:41:12.406250,7.76,68.88
108174,2018-06-29 09:41:12.437500,12.43,68.88
108175,2018-06-29 09:41:12.468750,15.65,68.88
108176,2018-06-29 09:41:12.500000,17.86,68.88
108177,2018-06-29 09:41:12.531250,18.84,69.05
108178,2018-06-29 09:41:12.562500,17.16,69.05
108179,2018-06-29 09:41:12.593750,12.59,69.05
108180,2018-06-29 09:41:12.625000,8.04,69.05
108181,2018-06-29 09:41:12.656250,6.11,69.05
108182,2018-06-29 09:41:12.687500,6.18,69.05
108183,2018-06-29 09:41:12.718750,7.12,69.05
108184,2018-06-29 09:41:12.750000,9.78,69.05
108185,2018-06-29 09:41:12.781250,14.09,69.05
108186,2018-06-29 09:41:12.812500,16.34,69.05
108187,2018-06-29 09:41:12.843750,13.36,69.05
108188,2018-06-29 09:41:12.875000,6.9,69.05
108189,2018-06-29 09:41:12.906250,0.04,69.05
108190,2018-06-29 09:41:12.937500,-7.51,69.05
108191,2018-06-29 09:41:12.968750,-16.52,69.05
108192,2018-06-29 09:41:13.000000,-25.29,69.05
108193,2018-06-29 09:41:13.031250,-32.63,69.05
108194,2018-06-29 09:41:13.062500,-40.12,69.05
