,Time,ppg,hr
128000,2018-06-29 09:51:32.000000,13.7,75.33
128001,2018-06-29 09:51:32.031250,10.5,75.33
128002,2018-06-29 09:51:32.062500,7.39,75.33
128003,2018-06-29 09:51:32.093750,4.51,75.33
128004,2018-06-29 09:51:32.125000,2.32,75.33
128005,2018-06-29 09:51:32.156250,1.04,75.33
128006,2018-06-29 09:51:32.187500,0.67,75.33
128007,2018-06-29 09:51:32.218750,0.72,75.33
128008,2018-06-29 09:51:32.250000,0.05,75.33
128009,2018-06-29 09:51:32.281250,-2.28,75.33
128010,2018-06-29 09:51:32.312500,-5.6,75.33
128011,2018-06-29 09:51:32.343750,-8.48,75.33
128012,2018-06-29 09:51:32.375000,-10.96,75.33
128013,2018-06-29 09:51:32.406250,-14.42,75.33
128014,2018-06-29 09:51:32.437500,-18.78,75.33
128015,2018-06-29 09:51:32.468750,-22.01,75.33
128016,2018-06-29 09:51:32.500000,-23.27,75.33
128017,2018-06-29 09:51:32.531250,-24.13,75.12
128018,2018-06-29 09:51:32.562500,-26.88,75.12
128019,2018-06-29 09:51:32.593750,-31.83,75.12
128020,2018-06-29 09:51:32.625000,-35.42,75.12
128021,2018-06-29 09:51:32.656250,-32.05,75.12
128022,2018-06-29 09:51:32.687500,-20.09,75.12
128023,2018-06-29 09:51:32.718750,-4.53,75.12
128024,2018-06-29 09:51:32.750000,8.25,75.12
128025,2018-06-29 09:51:32.781250,15.96,75.12
128026,2018-06-29 09:51:32.812500,19.9,75.12
128027,2018-06-29 09:51:32.843750,21.96,75.12
128028,2018-06-29 09:51:32.875000,22.88,75.12
128029,2018-06-29 09:51:32.906250,22.78,75.12
128030,2018-06-29 09:51:32.937500,22.19,75.12
128031,2018-06-29 09:51:32.968750,22.0,75.12
128032,2018-06-29 09:51:33.000000,22.15,75.12
128033,2018-06-29 09:51:33.031250,22.15,75.12
128034,2018-06-29 09:51:33.062500,22.1,75.12
128035,2018-06-29 09:51:33.093750,21.74,75.12
128036,2018-06-29 09:51:33.125000,20.28,75.12
128037,2018-06-29 09:51:33.156250,17.61,75.12
128038,2018-06-29 09:51:33.187500,14.54,75.12
128039,2018-06-29 09:51:33.218750,11.73,75.12
128040,2018-06-29 09:51:33.250000,9.25,75.12
128041,2018-06-29 09:51:33.281250,7.18,75.12
128042,2018-06-29 09:51:33.312500,5.41,75.12
128043,2018-06-29 09:51:33.343750,3.55,75.12
128044,2018-06-29 09:51:33.375000,1.36,75.12
128045,2018-06-29 09:51:33.406250,-1.29,75.12
128046,2018-06-29 09:51:33.437500,-4.43,75.12
128047,2018-06-29 09:51:33.468750,-8.0,75.12
128048,2018-06-29 09:51:33.500000,-11.85,75.12
128049,2018-06-29 09:51:33.531250,-15.79,74.88
128050,2018-06-29 09:51:33.562500,-19.61,74.88
128051,2018-06-29 09:51:33.593750,-23.38,74.88
128052,2018-06-29 09:51:33.625000,-27.8,74.88
128053,2018-06-29 09:51:33.656250,-33.05,74.88
128054,2018-06-29 09:51:33.687500,-36.56,74.88
128055,2018-06-29 09:51:33.718750,-33.94,74.88
128056,2018-06-29 09:51:33.750000,-23.75,74.88
128057,2018-06-29 09:51:33.781250,-9.85,74.88
128058,2018-06-29 09:51:33.812500,2.5,74.88
128059,2018-06-29 09:51:33.843750,11.04,74.88
128060,2018-06-29 09:51:33.875000,16.42,74.88
128061,2018-06-29 09:51:33.906250,19.56,74.88
128062,2018-06-29 09:51:33.937500,20.71,74.88
128063,2018-06-29 09:51:33.968750,20.17,74.88
128064,2018-06-29 09:51:34.000000,18.77,74.88
128065,2018-06-29 09:51:34.031250,17.12,74.88
128066,2018-06-29 09:51:34.062500,15.58,74.88
128067,2018-06-29 09:51:34.093750,14.82,74.88
128068,2018-06-29 09:51:34.125000,15.04,74.88
128069,2018-06-29 09:51:34.156250,15.03,74.88
128070,2018-06-29 09:51:34.187500,13.61,74.88
128071,2018-06-29 09:51:34.218750,11.23,74.88
128072,2018-06-29 09:51:34.250000,9.07,74.88
128073,2018-06-29 09:51:34.281250,7.45,74.88
128074,2018-06-29 09:51:34.312500,5.99,74.88
128075,2018-06-29 09:51:34.343750,4.36,74.88
128076,2018-06-29 09:51:34.375000,2.9,74.88
128077,2018-06-29 09:51:34.406250,2.0,74.88
128078,2018-06-29 09:51:34.437500,1.22,74.88
128079,2018-06-29 09:51:34.468750,0.07,74.88
128080,2018-06-29 09:51:34.500000,-0.81,74.88
128081,2018-06-29 09:51:34.531250,-1.21,74.63
128082,2018-06-29 09:51:34.562500,-2.31,74.63
128083,2018-06-29 09:51:34.593750,-4.92,74.63
128084,2018-06-29 09:51:34.625000,-8.43,74.63
128085,2018-06-29 09:51:34.656250,-12.02,74.63
128086,2018-06-29 09:51:34.687500,-15.56,74.63
128087,2018-06-29 09:51:34.718750,-19.08,74.63
128088,2018-06-29 09:51:34.750000,-22.21,74.63
128089,2018-06-29 09:51:34.781250,-24.65,74.63
128090,2018-06-29 09:51:34.812500,-26.7,74.63
128091,2018-06-29 09:51:34.843750,-29.0,74.63
128092,2018-06-29 09:51:34.875000,-32.01,74.63
128093,2018-06-29 09:51:34.906250,-35.33,74.63
128094,2018-06-29 09:51:34.937500,-36.54,74.63
128095,2018-06-29 09:51:34.968750,-31.76,74.63
128096,2018-06-29 09:51:35.000000,-20.16,74.63
128097,2018-06-29 09:51:35.031250,-6.36,74.63
128098,2018-06-29 09:51:35.062500,4.1,74.63
128099,2018-06-29 09:51:35.093750,10.1,74.63
128100,2018-06-29 09:51:35.125000,13.57,74.63
128101,2018-06-29 09:51:35.156250,15.73,74.63
128102,2018-06-29 09:51:35.187500,16.86,74.63
128103,2018-06-29 09:51:35.218750,17.36,74.63
128104,2018-06-29 09:51:35.250000,17.47,74.63
128105,2018-06-29 09:51:35.281250,17.34,74.63
128106,2018-06-29 09:51:35.312500,17.42,74.63
128107,2018-06-29 09:51:35.343750,18.41,74.63
128108,2018-06-29 09:51:35.375000,20.63,74.63
128109,2018-06-29 09:51:35.406250,23.86,74.63
128110,2018-06-29 09:51:35.437500,27.6,74.63
128111,2018-06-29 09:51:35.468750,31.71,74.63
128112,2018-06-29 09:51:35.500000,36.59,74.63
128113,2018-06-29 09:51:35.531250,42.78,74.38
128114,2018-06-29 09:51:35.562500,50.52,74.38
128115,2018-06-29 09:51:35.593750,59.81,74.38
128116,2018-06-29 09:51:35.625000,69.91,74.38
128117,2018-06-29 09:51:35.656250,78.55,74.38
128118,2018-06-29 09:51:35.687500,82.1,74.38
128119,2018-06-29 09:51:35.718750,77.39,74.38
128120,2018-06-29 09:51:35.750000,64.27,74.38
128121,2018-06-29 09:51:35.781250,46.12,74.38
128122,2018-06-29 09:51:35.812500,27.01,74.38
128123,2018-06-29 09:51:35.843750,9.28,74.38
128124,2018-06-29 09:51:35.875000,-5.94,74.38
128125,2018-06-29 09:51:35.906250,-18.32,74.38
128126,2018-06-29 09:51:35.937500,-28.56,74.38
128127,2018-06-29 09:51:35.968750,-37.46,74.38
128128,2018-06-29 09:51:36.000000,-45.02,74.38
128129,2018-06-29 09:51:36.031250,-51.26,74.38
128130,2018-06-29 09:51:36.062500,-56.53,74.38
128131,2018-06-29 09:51:36.093750,-60.9,74.38
128132,2018-06-29 09:51:36.125000,-64.58,74.38
128133,2018-06-29 09:51:36.156250,-68.84,74.38
128134,2018-06-29 09:51:36.187500,-74.57,74.38
128135,2018-06-29 09:51:36.218750,-79.31,74.38
128136,2018-06-29 09:51:36.250000,-77.64,74.38
128137,2018-06-29 09:51:36.281250,-66.8,74.38
128138,2018-06-29 09:51:36.312500,-50.38,74.38
128139,2018-06-29 09:51:36.343750,-34.19,74.38
128140,2018-06-29 09:51:36.375000,-21.07,74.38
128141,2018-06-29 09:51:36.406250,-11.05,74.38
128142,2018-06-29 09:51:36.437500,-3.54,74.38
128143,2018-06-29 09:51:36.468750,2.29,74.38
128144,2018-06-29 09:51:36.500000,7.29,74.38
128145,2018-06-29 09:51:36.531250,11.38,74.12
128146,2018-06-29 09:51:36.562500,14.18,74.12
128147,2018-06-29 09:51:36.593750,15.7,74.12
128148,2018-06-29 09:51:36.625000,16.44,74.12
128149,2018-06-29 09:51:36.656250,17.16,74.12
128150,2018-06-29 09:51:36.687500,17.87,74.12
128151,2018-06-29 09:51:36.718750,17.54,74.12
128152,2018-06-29 09:51:36.750000,15.76,74.12
128153,2018-06-29 09:51:36.781250,13.6,74.12
128154,2018-06-29 09:51:36.812500,11.68,74.12
128155,2018-06-29 09:51:36.843750,9.37,74.12
128156,2018-06-29 09:51:36.875000,6.29,74.12
128157,2018-06-29 09:51:36.906250,2.89,74.12
128158,2018-06-29 09:51:36.937500,-0.02,74.12
128159,2018-06-29 09:51:36.968750,-2.18,74.12
128160,2018-06-29 09:51:37.000000,-4.42,74.12
128161,2018-06-29 09:51:37.031250,-8.06,74.12
128162,2018-06-29 09:51:37.062500,-13.35,74.12
128163,2018-06-29 09:51:37.093750,-19.13,74.12
128164,2018-06-29 09:51:37.125000,-24.02,74.12
128165,2018-06-29 09:51:37.156250,-27.33,74.12
128166,2018-06-29 09:51:37.187500,-29.36,74.12
128167,2018-06-29 09:51:37.218750,-31.07,74.12
128168,2018-06-29 09:51:37.250000,-31.72,74.12
128169,2018-06-29 09:51:37.281250,-28.19,74.12
128170,2018-06-29 09:51:37.312500,-18.81,74.12
128171,2018-06-29 09:51:37.343750,-6.75,74.12
128172,2018-06-29 09:51:37.375000,3.12,74.12
128173,2018-06-29 09:51:37.406250,9.33,74.12
128174,2018-06-29 09:51:37.437500,13.36,74.12
128175,2018-06-29 09:51:37.468750,16.35,74.12
128176,2018-06-29 09:51:37.500000,18.5,74.12
128177,2018-06-29 09:51:37.531250,20.17,73.85
128178,2018-06-29 09:51:37.562500,21.6,73.85
128179,2018-06-29 09:51:37.593750,22.85,73.85
128180,2018-06-29 09:51:37.625000,24.79,73.85
128181,2018-06-29 09:51:37.656250,28.11,73.85
128182,2018-06-29 09:51:37.687500,31.31,73.85
128183,2018-06-29 09:51:37.718750,31.93,73.85
128184,2018-06-29 09:51:37.750000,29.84,73.85
128185,2018-06-29 09:51:37.781250,26.59,73.85
128186,2018-06-29 09:51:37.812500,21.45,73.85
128187,2018-06-29 09:51:37.843750,11.82,73.85
128188,2018-06-29 09:51:37.875000,-1.68,73.85
128189,2018-06-29 09:51:37.906250,-13.68,73.85
128190,2018-06-29 09:51:37.937500,-19.08,73.85
128191,2018-06-29 09:51:37.968750,-17.72,73.85
128192,2018-06-29 09:51:38.000000,-12.76,73.85
128193,2018-06-29 09:51:38.031250,-7.11,73.85
128194,2018-06-29 09:51:38.062500,-2.38,73.85
128195,2018-06-29 09:51:38.093750,0.18,73.85
128196,2018-06-29 09:51:38.125000,-0.69,73.85
128197,2018-06-29 09:51:38.156250,-5.79,73.85
128198,2018-06-29 09:51:38.187500,-14.29,73.85
128199,2018-06-29 09:51:38.218750,-22.96,73.85
128200,2018-06-29 09:51:38.250000,-28.22,73.85
128201,2018-06-29 09:51:38.281250,-29.56,73.85
128202,2018-06-29 09:51:38.312500,-29.99,73.85
128203,2018-06-29 09:51:38.343750,-32.53,73.85
128204,2018-06-29 09:51:38.375000,-36.64,73.85
128205,2018-06-29 09:51:38.406250,-38.87,73.85
128206,2018-06-29 09:51:38.437500,-36.77,73.85
128207,2018-06-29 09:51:38.468750,-31.27,73.85
128208,2018-06-29 09:51:38.500000,-24.86,73.85
128209,2018-06-29 09:51:38.531250,-18.32,73.6
128210,2018-06-29 09:51:38.562500,-10.56,73.6
128211,2018-06-29 09:51:38.593750,-1.35,73.6
128212,2018-06-29 09:51:38.625000,7.65,73.6
128213,2018-06-29 09:51:38.656250,14.58,73.6
128214,2018-06-29 09:51:38.687500,19.03,73.6
128215,2018-06-29 09:51:38.718750,21.31,73.6
128216,2018-06-29 09:51:38.750000,22.08,73.6
128217,2018-06-29 09:51:38.781250,22.62,73.6
128218,2018-06-29 09:51:38.812500,23.85,73.6
128219,2018-06-29 09:51:38.843750,24.6,73.6
128220,2018-06-29 09:51:38.875000,23.07,73.6
128221,2018-06-29 09:51:38.906250,19.43,73.6
128222,2018-06-29 09:51:38.937500,15.25,73.6
128223,2018-06-29 09:51:38.968750,11.41,73.6
128224,2018-06-29 09:51:39.000000,8.48,73.6
128225,2018-06-29 09:51:39.031250,7.43,73.6
128226,2018-06-29 09:51:39.062500,7.95,73.6
128227,2018-06-29 09:51:39.093750,8.49,73.6
128228,2018-06-29 09:51:39.125000,7.85,73.6
128229,2018-06-29 09:51:39.156250,5.78,73.6
128230,2018-06-29 09:51:39.187500,2.63,73.6
128231,2018-06-29 09:51:39.218750,-0.67,73.6
128232,2018-06-29 09:51:39.250000,-3.21,73.6
128233,2018-06-29 09:51:39.281250,-4.87,73.6
128234,2018-06-29 09:51:39.312500,-6.36,73.6
128235,2018-06-29 09:51:39.343750,-8.32,73.6
128236,2018-06-29 09:51:39.375000,-10.41,73.6
128237,2018-06-29 09:51:39.406250,-12.03,73.6
128238,2018-06-29 09:51:39.437500,-13.86,73.6
128239,2018-06-29 09:51:39.468750,-16.91,73.6
128240,2018-06-29 09:51:39.500000,-20.97,73.6
128241,2018-06-29 09:51:39.531250,-25.48,73.33
128242,2018-06-29 09:51:39.562500,-30.26,73.33
128243,2018-06-29 09:51:39.593750,-33.48,73.33
128244,2018-06-29 09:51:39.625000,-31.15,73.33
128245,2018-06-29 09:51:39.656250,-21.69,73.33
128246,2018-06-29 09:51:39.687500,-8.91,73.33
128247,2018-06-29 09:51:39.718750,1.76,73.33
128248,2018-06-29 09:51:39.750000,8.11,73.33
128249,2018-06-29 09:51:39.781250,11.18,73.33
128250,2018-06-29 09:51:39.812500,13.21,73.33
128251,2018-06-29 09:51:39.843750,15.64,73.33
128252,2018-06-29 09:51:39.875000,18.35,73.33
128253,2018-06-29 09:51:39.906250,20.62,73.33
128254,2018-06-29 09:51:39.937500,21.92,73.33
128255,2018-06-29 09:51:39.968750,21.99,73.33
128256,2018-06-29 09:51:40.000000,21.14,73.33
128257,2018-06-29 09:51:40.031250,20.43,73.33
128258,2018-06-29 09:51:40.062500,20.48,73.33
128259,2018-06-29 09:51:40.093750,20.52,73.33
128260,2018-06-29 09:51:40.125000,19.13,73.33
128261,2018-06-29 09:51:40.156250,15.68,73.33
128262,2018-06-29 09:51:40.187500,11.11,73.33
128263,2018-06-29 09:51:40.218750,7.13,73.33
128264,2018-06-29 09:51:40.250000,4.62,73.33
128265,2018-06-29 09:51:40.281250,3.53,73.33
128266,2018-06-29 09:51:40.312500,3.49,73.33
128267,2018-06-29 09:51:40.343750,3.94,73.33
128268,2018-06-29 09:51:40.375000,4.05,73.33
128269,2018-06-29 09:51:40.406250,2.85,73.33
128270,2018-06-29 09:51:40.437500,-0.07,73.33
128271,2018-06-29 09:51:40.468750,-3.88,73.33
128272,2018-06-29 09:51:40.500000,-7.06,73.33
128273,2018-06-29 09:51:40.531250,-8.71,72.98
128274,2018-06-29 09:51:40.562500,-9.08,72.98
128275,2018-06-29 09:51:40.593750,-9.09,72.98
128276,2018-06-29 09:51:40.625000,-10.08,72.98
128277,2018-06-29 09:51:40.656250,-12.88,72.98
128278,2018-06-29 09:51:40.687500,-16.87,72.98
128279,2018-06-29 09:51:40.718750,-20.87,72.98
128280,2018-06-29 09:51:40.750000,-25.03,72.98
128281,2018-06-29 09:51:40.781250,-30.0,72.98
128282,2018-06-29 09:51:40.812500,-33.93,72.98
128283,2018-06-29 09:51:40.843750,-32.57,72.98
128284,2018-06-29 09:51:40.875000,-23.77,72.98
128285,2018-06-29 09:51:40.906250,-10.56,72.98
128286,2018-06-29 09:51:40.937500,1.49,72.98
128287,2018-06-29 09:51:40.968750,9.26,72.98
128288,2018-06-29 09:51:41.000000,13.46,72.98
128289,2018-06-29 09:51:41.031250,16.01,72.98
128290,2018-06-29 09:51:41.062500,17.88,72.98
128291,2018-06-29 09:51:41.093750,19.34,72.98
128292,2018-06-29 09:51:41.125000,20.6,72.98
128293,2018-06-29 09:51:41.156250,21.61,72.98
128294,2018-06-29 09:51:41.187500,22.01,72.98
128295,2018-06-29 09:51:41.218750,22.0,72.98
128296,2018-06-29 09:51:41.250000,21.89,72.98
128297,2018-06-29 09:51:41.281250,21.08,72.98
128298,2018-06-29 09:51:41.312500,19.02,72.98
128299,2018-06-29 09:51:41.343750,16.36,72.98
128300,2018-06-29 09:51:41.375000,14.21,72.98
128301,2018-06-29 09:51:41.406250,12.71,72.98
128302,2018-06-29 09:51:41.437500,11.28,72.98
128303,2018-06-29 09:51:41.468750,9.75,72.98
128304,2018-06-29 09:51:41.500000,8.64,72.98
128305,2018-06-29 09:51:41.531250,8.52,72.6
128306,2018-06-29 09:51:41.562500,9.11,72.6
128307,2018-06-29 09:51:41.593750,9.61,72.6
128308,2018-06-29 09:51:41.625000,9.14,72.6
128309,2018-06-29 09:51:41.656250,7.38,72.6
128310,2018-06-29 09:51:41.687500,4.86,72.6
128311,2018-06-29 09:51:41.718750,2.45,72.6
128312,2018-06-29 09:51:41.750000,-0.09,72.6
128313,2018-06-29 09:51:41.781250,-3.72,72.6
128314,2018-06-29 09:51:41.812500,-8.24,72.6
128315,2018-06-29 09:51:41.843750,-12.12,72.6
128316,2018-06-29 09:51:41.875000,-14.54,72.6
128317,2018-06-29 09:51:41.906250,-16.45,72.6
128318,2018-06-29 09:51:41.937500,-19.49,72.6
128319,2018-06-29 09:51:41.968750,-23.88,72.6
128320,2018-06-29 09:51:42.000000,-27.16,72.6
128321,2018-06-29 09:51:42.031250,-25.62,72.6
128322,2018-06-29 09:51:42.062500,-18.12,72.6
128323,2018-06-29 09:51:42.093750,-7.6,72.6
128324,2018-06-29 09:51:42.125000,1.67,72.6
128325,2018-06-29 09:51:42.156250,7.85,72.6
128326,2018-06-29 09:51:42.187500,11.64,72.6
128327,2018-06-29 09:51:42.218750,13.9,72.6
128328,2018-06-29 09:51:42.250000,14.82,72.6
128329,2018-06-29 09:51:42.281250,14.19,72.6
128330,2018-06-29 09:51:42.312500,12.47,72.6
128331,2018-06-29 09:51:42.343750,10.77,72.6
128332,2018-06-29 09:51:42.375000,9.88,72.6
128333,2018-06-29 09:51:42.406250,9.88,72.6
128334,2018-06-29 09:51:42.437500,10.57,72.6
128335,2018-06-29 09:51:42.468750,11.38,72.6
128336,2018-06-29 09:51:42.500000,11.19,72.6
128337,2018-06-29 09:51:42.531250,9.47,72.23
128338,2018-06-29 09:51:42.562500,7.11,72.23
128339,2018-06-29 09:51:42.593750,5.42,72.23
128340,2018-06-29 09:51:42.625000,4.69,72.23
128341,2018-06-29 09:51:42.656250,4.08,72.23
128342,2018-06-29 09:51:42.687500,2.68,72.23
128343,2018-06-29 09:51:42.718750,0.14,72.23
128344,2018-06-29 09:51:42.750000,-3.08,72.23
128345,2018-06-29 09:51:42.781250,-5.79,72.23
128346,2018-06-29 09:51:42.812500,-7.51,72.23
128347,2018-06-29 09:51:42.843750,-9.37,72.23
128348,2018-06-29 09:51:42.875000,-12.2,72.23
128349,2018-06-29 09:51:42.906250,-15.19,72.23
128350,2018-06-29 09:51:42.937500,-17.57,72.23
128351,2018-06-29 09:51:42.968750,-19.68,72.23
128352,2018-06-29 09:51:43.000000,-22.37,72.23
128353,2018-06-29 09:51:43.031250,-25.99,72.23
128354,2018-06-29 09:51:43.062500,-28.63,72.23
128355,2018-06-29 09:51:43.093750,-26.41,72.23
128356,2018-06-29 09:51:43.125000,-17.83,72.23
128357,2018-06-29 09:51:43.156250,-6.38,72.23
128358,2018-06-29 09:51:43.187500,3.47,72.23
128359,2018-06-29 09:51:43.218750,10.31,72.23
128360,2018-06-29 09:51:43.250000,14.62,72.23
128361,2018-06-29 09:51:43.281250,16.87,72.23
128362,2018-06-29 09:51:43.312500,17.84,72.23
128363,2018-06-29 09:51:43.343750,18.43,72.23
128364,2018-06-29 09:51:43.375000,18.45,72.23
128365,2018-06-29 09:51:43.406250,17.56,72.23
128366,2018-06-29 09:51:43.437500,16.5,72.23
128367,2018-06-29 09:51:43.468750,16.04,72.23
128368,2018-06-29 09:51:43.500000,16.07,72.23
128369,2018-06-29 09:51:43.531250,16.05,71.88
128370,2018-06-29 09:51:43.562500,15.43,71.88
128371,2018-06-29 09:51:43.593750,14.03,71.88
128372,2018-06-29 09:51:43.625000,12.28,71.88
128373,2018-06-29 09:51:43.656250,10.51,71.88
128374,2018-06-29 09:51:43.687500,8.46,71.88
128375,2018-06-29 09:51:43.718750,6.03,71.88
128376,2018-06-29 09:51:43.750000,3.47,71.88
128377,2018-06-29 09:51:43.781250,0.62,71.88
128378,2018-06-29 09:51:43.812500,-2.65,71.88
128379,2018-06-29 09:51:43.843750,-6.09,71.88
128380,2018-06-29 09:51:43.875000,-9.36,71.88
128381,2018-06-29 09:51:43.906250,-12.14,71.88
128382,2018-06-29 09:51:43.937500,-14.23,71.88
128383,2018-06-29 09:51:43.968750,-16.07,71.88
128384,2018-06-29 09:51:44.000000,-18.39,71.88
128385,2018-06-29 09:51:44.031250,-21.23,71.88
128386,2018-06-29 09:51:44.062500,-23.79,71.88
128387,2018-06-29 09:51:44.093750,-25.55,71.88
128388,2018-06-29 09:51:44.125000,-27.45,71.88
128389,2018-06-29 09:51:44.156250,-30.37,71.88
128390,2018-06-29 09:51:44.187500,-31.92,71.88
128391,2018-06-29 09:51:44.218750,-27.9,71.88
128392,2018-06-29 09:51:44.250000,-18.09,71.88
128393,2018-06-29 09:51:44.281250,-6.97,71.88
128394,2018-06-29 09:51:44.312500,1.83,71.88
128395,2018-06-29 09:51:44.343750,7.73,71.88
128396,2018-06-29 09:51:44.375000,11.24,71.88
128397,2018-06-29 09:51:44.406250,12.94,71.88
128398,2018-06-29 09:51:44.437500,13.9,71.88
128399,2018-06-29 09:51:44.468750,14.91,71.88
128400,2018-06-29 09:51:44.500000,15.73,71.88
128401,2018-06-29 09:51:44.531250,15.71,71.52
128402,2018-06-29 09:51:44.562500,14.92,71.52
128403,2018-06-29 09:51:44.593750,14.04,71.52
128404,2018-06-29 09:51:44.625000,13.33,71.52
128405,2018-06-29 09:51:44.656250,12.21,71.52
128406,2018-06-29 09:51:44.687500,10.44,71.52
128407,2018-06-29 09:51:44.718750,8.71,71.52
128408,2018-06-29 09:51:44.750000,7.38,71.52
128409,2018-06-29 09:51:44.781250,5.68,71.52
128410,2018-06-29 09:51:44.812500,2.75,71.52
128411,2018-06-29 09:51:44.843750,-1.13,71.52
128412,2018-06-29 09:51:44.875000,-4.82,71.52
128413,2018-06-29 09:51:44.906250,-7.9,71.52
128414,2018-06-29 09:51:44.937500,-11.21,71.52
128415,2018-06-29 09:51:44.968750,-14.98,71.52
128416,2018-06-29 09:51:45.000000,-18.08,71.52
128417,2018-06-29 09:51:45.031250,-20.05,71.52
128418,2018-06-29 09:51:45.062500,-22.07,71.52
128419,2018-06-29 09:51:45.093750,-25.51,71.52
128420,2018-06-29 09:51:45.125000,-30.29,71.52
128421,2018-06-29 09:51:45.156250,-34.03,71.52
128422,2018-06-29 09:51:45.187500,-32.78,71.52
128423,2018-06-29 09:51:45.218750,-24.63,71.52
128424,2018-06-29 09:51:45.250000,-12.22,71.52
128425,2018-06-29 09:51:45.281250,0.11,71.52
128426,2018-06-29 09:51:45.312500,9.69,71.52
128427,2018-06-29 09:51:45.343750,15.91,71.52
128428,2018-06-29 09:51:45.375000,19.15,71.52
128429,2018-06-29 09:51:45.406250,20.49,71.52
128430,2018-06-29 09:51:45.437500,20.82,71.52
128431,2018-06-29 09:51:45.468750,20.52,71.52
128432,2018-06-29 09:51:45.500000,20.09,71.52
128433,2018-06-29 09:51:45.531250,20.0,71.15
128434,2018-06-29 09:51:45.562500,20.2,71.15
128435,2018-06-29 09:51:45.593750,20.22,71.15
128436,2018-06-29 09:51:45.625000,19.84,71.15
128437,2018-06-29 09:51:45.656250,18.91,71.15
128438,2018-06-29 09:51:45.687500,17.17,71.15
128439,2018-06-29 09:51:45.718750,14.69,71.15
128440,2018-06-29 09:51:45.750000,12.02,71.15
128441,2018-06-29 09:51:45.781250,9.76,71.15
128442,2018-06-29 09:51:45.812500,8.03,71.15
128443,2018-06-29 09:51:45.843750,6.38,71.15
128444,2018-06-29 09:51:45.875000,4.29,71.15
128445,2018-06-29 09:51:45.906250,1.53,71.15
128446,2018-06-29 09:51:45.937500,-1.82,71.15
128447,2018-06-29 09:51:45.968750,-4.97,71.15
128448,2018-06-29 09:51:46.000000,-6.8,71.15
128449,2018-06-29 09:51:46.031250,-7.83,71.15
128450,2018-06-29 09:51:46.062500,-9.77,71.15
128451,2018-06-29 09:51:46.093750,-12.92,71.15
128452,2018-06-29 09:51:46.125000,-15.98,71.15
128453,2018-06-29 09:51:46.156250,-18.75,71.15
128454,2018-06-29 09:51:46.187500,-22.78,71.15
128455,2018-06-29 09:51:46.218750,-28.79,71.15
128456,2018-06-29 09:51:46.250000,-34.74,71.15
128457,2018-06-29 09:51:46.281250,-36.44,71.15
128458,2018-06-29 09:51:46.312500,-30.78,71.15
128459,2018-06-29 09:51:46.343750,-18.72,71.15
128460,2018-06-29 09:51:46.375000,-5.0,71.15
128461,2018-06-29 09:51:46.406250,5.91,71.15
128462,2018-06-29 09:51:46.437500,13.14,71.15
128463,2018-06-29 09:51:46.468750,18.03,71.15
128464,2018-06-29 09:51:46.500000,21.59,71.15
128465,2018-06-29 09:51:46.531250,23.83,70.72
128466,2018-06-29 09:51:46.562500,24.54,70.72
128467,2018-06-29 09:51:46.593750,23.48,70.72
128468,2018-06-29 09:51:46.625000,20.79,70.72
128469,2018-06-29 09:51:46.656250,17.8,70.72
128470,2018-06-29 09:51:46.687500,16.31,70.72
128471,2018-06-29 09:51:46.718750,16.39,70.72
128472,2018-06-29 09:51:46.750000,16.07,70.72
128473,2018-06-29 09:51:46.781250,13.86,70.72
128474,2018-06-29 09:51:46.812500,10.47,70.72
128475,2018-06-29 09:51:46.843750,7.35,70.72
128476,2018-06-29 09:51:46.875000,5.04,70.72
128477,2018-06-29 09:51:46.906250,3.61,70.72
128478,2018-06-29 09:51:46.937500,3.1,70.72
128479,2018-06-29 09:51:46.968750,3.02,70.72
128480,2018-06-29 09:51:47.000000,2.71,70.72
128481,2018-06-29 09:51:47.031250,2.19,70.72
128482,2018-06-29 09:51:47.062500,1.48,70.72
128483,2018-06-29 09:51:47.093750,0.06,70.72
128484,2018-06-29 09:51:47.125000,-2.45,70.72
128485,2018-06-29 09:51:47.156250,-5.34,70.72
128486,2018-06-29 09:51:47.187500,-8.0,70.72
128487,2018-06-29 09:51:47.218750,-10.67,70.72
128488,2018-06-29 09:51:47.250000,-14.02,70.72
128489,2018-06-29 09:51:47.281250,-18.04,70.72
128490,2018-06-29 09:51:47.312500,-21.89,70.72
128491,2018-06-29 09:51:47.343750,-24.73,70.72
128492,2018-06-29 09:51:47.375000,-26.86,70.72
128493,2018-06-29 09:51:47.406250,-30.0,70.72
128494,2018-06-29 09:51:47.437500,-35.22,70.72
128495,2018-06-29 09:51:47.468750,-39.41,70.72
128496,2018-06-29 09:51:47.500000,-37.0,70.72
128497,2018-06-29 09:51:47.531250,-26.55,70.3
128498,2018-06-29 09:51:47.562500,-12.62,70.3
128499,2018-06-29 09:51:47.593750,-0.28,70.3
128500,2018-06-29 09:51:47.625000,8.62,70.3
128501,2018-06-29 09:51:47.656250,14.65,70.3
128502,2018-06-29 09:51:47.687500,19.31,70.3
128503,2018-06-29 09:51:47.718750,23.17,70.3
128504,2018-06-29 09:51:47.750000,25.02,70.3
128505,2018-06-29 09:51:47.781250,24.41,70.3
128506,2018-06-29 09:51:47.812500,23.09,70.3
128507,2018-06-29 09:51:47.843750,22.29,70.3
128508,2018-06-29 09:51:47.875000,21.59,70.3
128509,2018-06-29 09:51:47.906250,20.82,70.3
128510,2018-06-29 09:51:47.937500,20.15,70.3
128511,2018-06-29 09:51:47.968750,18.83,70.3
128512,2018-06-29 09:51:48.000000,16.45,70.3
128513,2018-06-29 09:51:48.031250,14.04,70.3
128514,2018-06-29 09:51:48.062500,12.44,70.3
128515,2018-06-29 09:51:48.093750,11.26,70.3
128516,2018-06-29 09:51:48.125000,10.07,70.3
128517,2018-06-29 09:51:48.156250,8.69,70.3
128518,2018-06-29 09:51:48.187500,6.88,70.3
128519,2018-06-29 09:51:48.218750,4.8,70.3
128520,2018-06-29 09:51:48.250000,2.96,70.3
128521,2018-06-29 09:51:48.281250,1.52,70.3
128522,2018-06-29 09:51:48.312500,0.11,70.3
128523,2018-06-29 09:51:48.343750,-1.63,70.3
128524,2018-06-29 09:51:48.375000,-3.72,70.3
128525,2018-06-29 09:51:48.406250,-5.76,70.3
128526,2018-06-29 09:51:48.437500,-7.5,70.3
128527,2018-06-29 09:51:48.468750,-9.74,70.3
128528,2018-06-29 09:51:48.500000,-13.29,70.3
128529,2018-06-29 09:51:48.531250,-17.42,69.87
128530,2018-06-29 09:51:48.562500,-20.52,69.87
128531,2018-06-29 09:51:48.593750,-22.19,69.87
128532,2018-06-29 09:51:48.625000,-24.09,69.87
128533,2018-06-29 09:51:48.656250,-27.61,69.87
128534,2018-06-29 09:51:48.687500,-30.89,69.87
128535,2018-06-29 09:51:48.718750,-29.74,69.87
128536,2018-06-29 09:51:48.750000,-22.32,69.87
128537,2018-06-29 09:51:48.781250,-11.3,69.87
128538,2018-06-29 09:51:48.812500,-0.98,69.87
128539,2018-06-29 09:51:48.843750,6.53,69.87
128540,2018-06-29 09:51:48.875000,11.56,69.87
128541,2018-06-29 09:51:48.906250,15.3,69.87
128542,2018-06-29 09:51:48.937500,18.72,69.87
128543,2018-06-29 09:51:48.968750,21.85,69.87
128544,2018-06-29 09:51:49.000000,23.72,69.87
128545,2018-06-29 09:51:49.031250,23.35,69.87
128546,2018-06-29 09:51:49.062500,21.04,69.87
128547,2018-06-29 09:51:49.093750,18.34,69.87
128548,2018-06-29 09:51:49.125000,16.54,69.87
128549,2018-06-29 09:51:49.156250,15.57,69.87
128550,2018-06-29 09:51:49.187500,14.5,69.87
128551,2018-06-29 09:51:49.218750,12.83,69.87
128552,2018-06-29 09:51:49.250000,10.62,69.87
128553,2018-06-29 09:51:49.281250,8.43,69.87
128554,2018-06-29 09:51:49.312500,7.16,69.87
128555,2018-06-29 09:51:49.343750,7.0,69.87
128556,2018-06-29 09:51:49.375000,6.85,69.87
128557,2018-06-29 09:51:49.406250,6.01,69.87
128558,2018-06-29 09:51:49.437500,4.86,69.87
128559,2018-06-29 09:51:49.468750,3.75,69.87
128560,2018-06-29 09:51:49.500000,2.51,69.87
128561,2018-06-29 09:51:49.531250,1.51,69.43
128562,2018-06-29 09:51:49.562500,1.12,69.43
128563,2018-06-29 09:51:49.593750,0.55,69.43
128564,2018-06-29 09:51:49.625000,-1.17,69.43
128565,2018-06-29 09:51:49.656250,-3.69,69.43
128566,2018-06-29 09:51:49.687500,-6.1,69.43
128567,2018-06-29 09:51:49.718750,-8.41,69.43
128568,2018-06-29 09:51:49.750000,-11.17,69.43
128569,2018-06-29 09:51:49.781250,-14.35,69.43
128570,2018-06-29 09:51:49.812500,-17.35,69.43
128571,2018-06-29 09:51:49.843750,-19.77,69.43
128572,2018-06-29 09:51:49.875000,-21.9,69.43
128573,2018-06-29 09:51:49.906250,-24.56,69.43
128574,2018-06-29 09:51:49.937500,-27.91,69.43
128575,2018-06-29 09:51:49.968750,-29.82,69.43
128576,2018-06-29 09:51:50.000000,-26.88,69.43
128577,2018-06-29 09:51:50.031250,-18.52,69.43
128578,2018-06-29 09:51:50.062500,-7.98,69.43
128579,2018-06-29 09:51:50.093750,1.18,69.43
128580,2018-06-29 09:51:50.125000,7.92,69.43
128581,2018-06-29 09:51:50.156250,12.69,69.43
128582,2018-06-29 09:51:50.187500,15.91,69.43
128583,2018-06-29 09:51:50.218750,17.73,69.43
128584,2018-06-29 09:51:50.250000,17.98,69.43
128585,2018-06-29 09:51:50.281250,16.84,69.43
128586,2018-06-29 09:51:50.312500,14.94,69.43
128587,2018-06-29 09:51:50.343750,12.9,69.43
128588,2018-06-29 09:51:50.375000,11.38,69.43
128589,2018-06-29 09:51:50.406250,10.68,69.43
128590,2018-06-29 09:51:50.437500,10.11,69.43
128591,2018-06-29 09:51:50.468750,8.91,69.43
128592,2018-06-29 09:51:50.500000,7.59,69.43
128593,2018-06-29 09:51:50.531250,6.9,69.0
128594,2018-06-29 09:51:50.562500,6.24,69.0
128595,2018-06-29 09:51:50.593750,4.85,69.0
128596,2018-06-29 09:51:50.625000,3.09,69.0
128597,2018-06-29 09:51:50.656250,1.75,69.0
128598,2018-06-29 09:51:50.687500,1.18,69.0
128599,2018-06-29 09:51:50.718750,1.04,69.0
128600,2018-06-29 09:51:50.750000,0.75,69.0
128601,2018-06-29 09:51:50.781250,0.01,69.0
128602,2018-06-29 09:51:50.812500,-1.12,69.0
128603,2018-06-29 09:51:50.843750,-2.68,69.0
128604,2018-06-29 09:51:50.875000,-4.89,69.0
128605,2018-06-29 09:51:50.906250,-7.46,69.0
128606,2018-06-29 09:51:50.937500,-9.87,69.0
128607,2018-06-29 09:51:50.968750,-12.14,69.0
128608,2018-06-29 09:51:51.000000,-14.49,69.0
128609,2018-06-29 09:51:51.031250,-16.33,69.0
128610,2018-06-29 09:51:51.062500,-17.3,69.0
128611,2018-06-29 09:51:51.093750,-18.52,69.0
128612,2018-06-29 09:51:51.125000,-21.28,69.0
128613,2018-06-29 09:51:51.156250,-25.27,69.0
128614,2018-06-29 09:51:51.187500,-28.24,69.0
128615,2018-06-29 09:51:51.218750,-26.74,69.0
128616,2018-06-29 09:51:51.250000,-18.82,69.0
128617,2018-06-29 09:51:51.281250,-7.29,69.0
128618,2018-06-29 09:51:51.312500,2.61,69.0
128619,2018-06-29 09:51:51.343750,8.83,69.0
128620,2018-06-29 09:51:51.375000,12.5,69.0
128621,2018-06-29 09:51:51.406250,14.62,69.0
128622,2018-06-29 09:51:51.437500,15.79,69.0
128623,2018-06-29 09:51:51.468750,16.77,69.0
128624,2018-06-29 09:51:51.500000,17.86,69.0
128625,2018-06-29 09:51:51.531250,18.82,68.58
128626,2018-06-29 09:51:51.562500,19.48,68.58
128627,2018-06-29 09:51:51.593750,19.49,68.58
128628,2018-06-29 09:51:51.625000,18.3,68.58
128629,2018-06-29 09:51:51.656250,15.88,68.58
128630,2018-06-29 09:51:51.687500,12.85,68.58
128631,2018-06-29 09:51:51.718750,9.89,68.58
128632,2018-06-29 09:51:51.750000,7.67,68.58
128633,2018-06-29 09:51:51.781250,6.58,68.58
128634,2018-06-29 09:51:51.812500,6.42,68.58
128635,2018-06-29 09:51:51.843750,6.54,68.58
128636,2018-06-29 09:51:51.875000,6.32,68.58
128637,2018-06-29 09:51:51.906250,5.62,68.58
128638,2018-06-29 09:51:51.937500,4.39,68.58
128639,2018-06-29 09:51:51.968750,2.6,68.58
128640,2018-06-29 09:51:52.000000,0.56,68.58
128641,2018-06-29 09:51:52.031250,-1.22,68.58
128642,2018-06-29 09:51:52.062500,-2.98,68.58
128643,2018-06-29 09:51:52.093750,-5.34,68.58
128644,2018-06-29 09:51:52.125000,-7.68,68.58
128645,2018-06-29 09:51:52.156250,-8.88,68.58
128646,2018-06-29 09:51:52.187500,-9.31,68.58
128647,2018-06-29 09:51:52.218750,-10.48,68.58
128648,2018-06-29 09:51:52.250000,-12.94,68.58
128649,2018-06-29 09:51:52.281250,-15.72,68.58
128650,2018-06-29 09:51:52.312500,-18.11,68.58
128651,2018-06-29 09:51:52.343750,-20.56,68.58
128652,2018-06-29 09:51:52.375000,-24.14,68.58
128653,2018-06-29 09:51:52.406250,-28.77,68.58
128654,2018-06-29 09:51:52.437500,-31.39,68.58
128655,2018-06-29 09:51:52.468750,-28.11,68.58
128656,2018-06-29 09:51:52.500000,-18.97,68.58
128657,2018-06-29 09:51:52.531250,-8.5,68.13
128658,2018-06-29 09:51:52.562500,-0.89,68.13
128659,2018-06-29 09:51:52.593750,3.56,68.13
128660,2018-06-29 09:51:52.625000,6.81,68.13
128661,2018-06-29 09:51:52.656250,10.02,68.13
128662,2018-06-29 09:51:52.687500,12.88,68.13
128663,2018-06-29 09:51:52.718750,15.04,68.13
128664,2018-06-29 09:51:52.750000,16.64,68.13
128665,2018-06-29 09:51:52.781250,17.34,68.13
128666,2018-06-29 09:51:52.812500,16.55,68.13
128667,2018-06-29 09:51:52.843750,14.82,68.13
128668,2018-06-29 09:51:52.875000,13.52,68.13
128669,2018-06-29 09:51:52.906250,13.16,68.13
128670,2018-06-29 09:51:52.937500,12.83,68.13
128671,2018-06-29 09:51:52.968750,11.79,68.13
128672,2018-06-29 09:51:53.000000,10.48,68.13
128673,2018-06-29 09:51:53.031250,9.26,68.13
128674,2018-06-29 09:51:53.062500,7.5,68.13
128675,2018-06-29 09:51:53.093750,4.86,68.13
128676,2018-06-29 09:51:53.125000,2.18,68.13
128677,2018-06-29 09:51:53.156250,0.19,68.13
128678,2018-06-29 09:51:53.187500,-1.27,68.13
128679,2018-06-29 09:51:53.218750,-2.52,68.13
128680,2018-06-29 09:51:53.250000,-3.72,68.13
128681,2018-06-29 09:51:53.281250,-5.49,68.13
128682,2018-06-29 09:51:53.312500,-8.37,68.13
128683,2018-06-29 09:51:53.343750,-12.11,68.13
128684,2018-06-29 09:51:53.375000,-15.87,68.13
128685,2018-06-29 09:51:53.406250,-18.86,68.13
128686,2018-06-29 09:51:53.437500,-21.0,68.13
128687,2018-06-29 09:51:53.468750,-23.27,68.13
128688,2018-06-29 09:51:53.500000,-26.75,68.13
128689,2018-06-29 09:51:53.531250,-31.0,67.68
128690,2018-06-29 09:51:53.562500,-33.43,67.68
128691,2018-06-29 09:51:53.593750,-30.83,67.68
128692,2018-06-29 09:51:53.625000,-22.59,67.68
128693,2018-06-29 09:51:53.656250,-11.44,67.68
128694,2018-06-29 09:51:53.687500,-1.24,67.68
128695,2018-06-29 09:51:53.718750,5.96,67.68
128696,2018-06-29 09:51:53.750000,10.98,67.68
128697,2018-06-29 09:51:53.781250,15.86,67.68
128698,2018-06-29 09:51:53.812500,20.58,67.68
128699,2018-06-29 09:51:53.843750,22.84,67.68
128700,2018-06-29 09:51:53.875000,21.55,67.68
128701,2018-06-29 09:51:53.906250,18.29,67.68
128702,2018-06-29 09:51:53.937500,14.92,67.68
128703,2018-06-29 09:51:53.968750,12.55,67.68
128704,2018-06-29 09:51:54.000000,12.49,67.68
128705,2018-06-29 09:51:54.031250,14.91,67.68
128706,2018-06-29 09:51:54.062500,17.58,67.68
128707,2018-06-29 09:51:54.093750,17.96,67.68
128708,2018-06-29 09:51:54.125000,15.96,67.68
128709,2018-06-29 09:51:54.156250,12.85,67.68
128710,2018-06-29 09:51:54.187500,9.26,67.68
128711,2018-06-29 09:51:54.218750,5.55,67.68
128712,2018-06-29 09:51:54.250000,2.56,67.68
128713,2018-06-29 09:51:54.281250,0.76,67.68
128714,2018-06-29 09:51:54.312500,-0.34,67.68
128715,2018-06-29 09:51:54.343750,-1.45,67.68
128716,2018-06-29 09:51:54.375000,-2.82,67.68
128717,2018-06-29 09:51:54.406250,-4.21,67.68
128718,2018-06-29 09:51:54.437500,-5.53,67.68
128719,2018-06-29 09:51:54.468750,-7.29,67.68
128720,2018-06-29 09:51:54.500000,-10.29,67.68
128721,2018-06-29 09:51:54.531250,-14.24,67.2
128722,2018-06-29 09:51:54.562500,-17.72,67.2
128723,2018-06-29 09:51:54.593750,-20.08,67.2
128724,2018-06-29 09:51:54.625000,-22.14,67.2
128725,2018-06-29 09:51:54.656250,-25.01,67.2
128726,2018-06-29 09:51:54.687500,-28.67,67.2
128727,2018-06-29 09:51:54.718750,-31.35,67.2
128728,2018-06-29 09:51:54.750000,-29.66,67.2
128729,2018-06-29 09:51:54.781250,-21.63,67.2
128730,2018-06-29 09:51:54.812500,-9.84,67.2
128731,2018-06-29 09:51:54.843750,0.92,67.2
128732,2018-06-29 09:51:54.875000,8.57,67.2
128733,2018-06-29 09:51:54.906250,14.06,67.2
128734,2018-06-29 09:51:54.937500,18.23,67.2
128735,2018-06-29 09:51:54.968750,20.98,67.2
128736,2018-06-29 09:51:55.000000,22.18,67.2
128737,2018-06-29 09:51:55.031250,21.82,67.2
128738,2018-06-29 09:51:55.062500,20.25,67.2
128739,2018-06-29 09:51:55.093750,18.53,67.2
128740,2018-06-29 09:51:55.125000,17.85,67.2
128741,2018-06-29 09:51:55.156250,18.24,67.2
128742,2018-06-29 09:51:55.187500,18.48,67.2
128743,2018-06-29 09:51:55.218750,17.56,67.2
128744,2018-06-29 09:51:55.250000,15.54,67.2
128745,2018-06-29 09:51:55.281250,12.88,67.2
128746,2018-06-29 09:51:55.312500,9.85,67.2
128747,2018-06-29 09:51:55.343750,6.84,67.2
128748,2018-06-29 09:51:55.375000,4.53,67.2
128749,2018-06-29 09:51:55.406250,3.35,67.2
128750,2018-06-29 09:51:55.437500,3.18,67.2
128751,2018-06-29 09:51:55.468750,2.97,67.2
128752,2018-06-29 09:51:55.500000,1.67,67.2
128753,2018-06-29 09:51:55.531250,-0.46,66.77
128754,2018-06-29 09:51:55.562500,-2.29,66.77
128755,2018-06-29 09:51:55.593750,-3.23,66.77
128756,2018-06-29 09:51:55.625000,-3.4,66.77
128757,2018-06-29 09:51:55.656250,-3.46,66.77
128758,2018-06-29 09:51:55.687500,-4.65,66.77
128759,2018-06-29 09:51:55.718750,-7.62,66.77
128760,2018-06-29 09:51:55.750000,-11.5,66.77
128761,2018-06-29 09:51:55.781250,-15.26,66.77
128762,2018-06-29 09:51:55.812500,-18.8,66.77
128763,2018-06-29 09:51:55.843750,-21.89,66.77
128764,2018-06-29 09:51:55.875000,-24.34,66.77
128765,2018-06-29 09:51:55.906250,-27.15,66.77
128766,2018-06-29 09:51:55.937500,-30.47,66.77
128767,2018-06-29 09:51:55.968750,-30.92,66.77
128768,2018-06-29 09:51:56.000000,-24.87,66.77
128769,2018-06-29 09:51:56.031250,-13.45,66.77
128770,2018-06-29 09:51:56.062500,-1.6,66.77
128771,2018-06-29 09:51:56.093750,7.02,66.77
128772,2018-06-29 09:51:56.125000,12.05,66.77
128773,2018-06-29 09:51:56.156250,15.05,66.77
128774,2018-06-29 09:51:56.187500,17.49,66.77
128775,2018-06-29 09:51:56.218750,19.74,66.77
128776,2018-06-29 09:51:56.250000,21.37,66.77
128777,2018-06-29 09:51:56.281250,21.94,66.77
128778,2018-06-29 09:51:56.312500,21.31,66.77
128779,2018-06-29 09:51:56.343750,20.22,66.77
128780,2018-06-29 09:51:56.375000,19.54,66.77
128781,2018-06-29 09:51:56.406250,18.91,66.77
128782,2018-06-29 09:51:56.437500,17.43,66.77
128783,2018-06-29 09:51:56.468750,15.26,66.77
128784,2018-06-29 09:51:56.500000,13.11,66.77
128785,2018-06-29 09:51:56.531250,11.46,66.33
128786,2018-06-29 09:51:56.562500,10.69,66.33
128787,2018-06-29 09:51:56.593750,10.75,66.33
128788,2018-06-29 09:51:56.625000,10.88,66.33
128789,2018-06-29 09:51:56.656250,10.59,66.33
128790,2018-06-29 09:51:56.687500,9.99,66.33
128791,2018-06-29 09:51:56.718750,9.06,66.33
128792,2018-06-29 09:51:56.750000,7.68,66.33
128793,2018-06-29 09:51:56.781250,5.85,66.33
128794,2018-06-29 09:51:56.812500,3.55,66.33
128795,2018-06-29 09:51:56.843750,0.84,66.33
128796,2018-06-29 09:51:56.875000,-1.61,66.33
128797,2018-06-29 09:51:56.906250,-3.27,66.33
128798,2018-06-29 09:51:56.937500,-4.86,66.33
128799,2018-06-29 09:51:56.968750,-7.27,66.33
128800,2018-06-29 09:51:57.000000,-10.13,66.33
128801,2018-06-29 09:51:57.031250,-12.69,66.33
128802,2018-06-29 09:51:57.062500,-15.39,66.33
128803,2018-06-29 09:51:57.093750,-19.32,66.33
128804,2018-06-29 09:51:57.125000,-24.27,66.33
128805,2018-06-29 09:51:57.156250,-27.66,66.33
128806,2018-06-29 09:51:57.187500,-25.71,66.33
128807,2018-06-29 09:51:57.218750,-17.4,66.33
128808,2018-06-29 09:51:57.250000,-6.68,66.33
128809,2018-06-29 09:51:57.281250,1.55,66.33
128810,2018-06-29 09:51:57.312500,6.48,66.33
128811,2018-06-29 09:51:57.343750,9.82,66.33
128812,2018-06-29 09:51:57.375000,12.05,66.33
128813,2018-06-29 09:51:57.406250,13.13,66.33
128814,2018-06-29 09:51:57.437500,14.07,66.33
128815,2018-06-29 09:51:57.468750,15.33,66.33
128816,2018-06-29 09:51:57.500000,15.68,66.33
128817,2018-06-29 09:51:57.531250,14.39,65.9
128818,2018-06-29 09:51:57.562500,12.51,65.9
128819,2018-06-29 09:51:57.593750,11.16,65.9
128820,2018-06-29 09:51:57.625000,9.89,65.9
128821,2018-06-29 09:51:57.656250,8.16,65.9
128822,2018-06-29 09:51:57.687500,6.66,65.9
128823,2018-06-29 09:51:57.718750,6.04,65.9
128824,2018-06-29 09:51:57.750000,6.03,65.9
128825,2018-06-29 09:51:57.781250,6.15,65.9
128826,2018-06-29 09:51:57.812500,5.67,65.9
128827,2018-06-29 09:51:57.843750,3.94,65.9
128828,2018-06-29 09:51:57.875000,1.49,65.9
128829,2018-06-29 09:51:57.906250,-0.5,65.9
128830,2018-06-29 09:51:57.937500,-2.02,65.9
128831,2018-06-29 09:51:57.968750,-3.69,65.9
128832,2018-06-29 09:51:58.000000,-5.04,65.9
128833,2018-06-29 09:51:58.031250,-5.32,65.9
128834,2018-06-29 09:51:58.062500,-4.85,65.9
128835,2018-06-29 09:51:58.093750,-4.94,65.9
128836,2018-06-29 09:51:58.125000,-6.86,65.9
128837,2018-06-29 09:51:58.156250,-10.48,65.9
128838,2018-06-29 09:51:58.187500,-13.46,65.9
128839,2018-06-29 09:51:58.218750,-13.39,65.9
128840,2018-06-29 09:51:58.250000,-11.14,65.9
128841,2018-06-29 09:51:58.281250,-9.6,65.9
128842,2018-06-29 09:51:58.312500,-9.23,65.9
128843,2018-06-29 09:51:58.343750,-7.86,65.9
128844,2018-06-29 09:51:58.375000,-4.22,65.9
128845,2018-06-29 09:51:58.406250,0.56,65.9
128846,2018-06-29 09:51:58.437500,5.06,65.9
128847,2018-06-29 09:51:58.468750,9.37,65.9
128848,2018-06-29 09:51:58.500000,14.23,65.9
128849,2018-06-29 09:51:58.531250,19.33,65.47
128850,2018-06-29 09:51:58.562500,23.61,65.47
128851,2018-06-29 09:51:58.593750,26.69,65.47
128852,2018-06-29 09:51:58.625000,28.1,65.47
128853,2018-06-29 09:51:58.656250,26.5,65.47
128854,2018-06-29 09:51:58.687500,21.26,65.47
128855,2018-06-29 09:51:58.718750,13.23,65.47
128856,2018-06-29 09:51:58.750000,3.14,65.47
128857,2018-06-29 09:51:58.781250,-8.41,65.47
128858,2018-06-29 09:51:58.812500,-19.52,65.47
128859,2018-06-29 09:51:58.843750,-27.85,65.47
128860,2018-06-29 09:51:58.875000,-32.12,65.47
128861,2018-06-29 09:51:58.906250,-32.06,65.47
128862,2018-06-29 09:51:58.937500,-28.64,65.47
128863,2018-06-29 09:51:58.968750,-24.3,65.47
128864,2018-06-29 09:51:59.000000,-21.23,65.47
128865,2018-06-29 09:51:59.031250,-19.84,65.47
128866,2018-06-29 09:51:59.062500,-19.67,65.47
128867,2018-06-29 09:51:59.093750,-20.51,65.47
128868,2018-06-29 09:51:59.125000,-22.44,65.47
128869,2018-06-29 09:51:59.156250,-25.57,65.47
128870,2018-06-29 09:51:59.187500,-29.35,65.47
128871,2018-06-29 09:51:59.218750,-31.32,65.47
128872,2018-06-29 09:51:59.250000,-27.96,65.47
128873,2018-06-29 09:51:59.281250,-18.65,65.47
128874,2018-06-29 09:51:59.312500,-7.06,65.47
128875,2018-06-29 09:51:59.343750,2.54,65.47
128876,2018-06-29 09:51:59.375000,8.92,65.47
128877,2018-06-29 09:51:59.406250,12.76,65.47
128878,2018-06-29 09:51:59.437500,14.53,65.47
128879,2018-06-29 09:51:59.468750,14.73,65.47
128880,2018-06-29 09:51:59.500000,14.44,65.47
128881,2018-06-29 09:51:59.531250,14.42,65.08
128882,2018-06-29 09:51:59.562500,14.62,65.08
128883,2018-06-29 09:51:59.593750,15.06,65.08
128884,2018-06-29 09:51:59.625000,16.33,65.08
128885,2018-06-29 09:51:59.656250,18.16,65.08
128886,2018-06-29 09:51:59.687500,18.63,65.08
128887,2018-06-29 09:51:59.718750,16.5,65.08
128888,2018-06-29 09:51:59.750000,13.09,65.08
128889,2018-06-29 09:51:59.781250,10.6,65.08
128890,2018-06-29 09:51:59.812500,9.37,65.08
128891,2018-06-29 09:51:59.843750,8.2,65.08
128892,2018-06-29 09:51:59.875000,6.05,65.08
128893,2018-06-29 09:51:59.906250,3.03,65.08
128894,2018-06-29 09:51:59.937500,0.06,65.08
128895,2018-06-29 09:51:59.968750,-2.35,65.08
128896,2018-06-29 09:52:00.000000,-4.76,65.08
128897,2018-06-29 09:52:00.031250,-7.49,65.08
128898,2018-06-29 09:52:00.062500,-10.24,65.08
128899,2018-06-29 09:52:00.093750,-12.81,65.08
128900,2018-06-29 09:52:00.125000,-15.39,65.08
128901,2018-06-29 09:52:00.156250,-18.23,65.08
128902,2018-06-29 09:52:00.187500,-20.92,65.08
128903,2018-06-29 09:52:00.218750,-21.28,65.08
128904,2018-06-29 09:52:00.250000,-16.52,65.08
128905,2018-06-29 09:52:00.281250,-6.93,65.08
128906,2018-06-29 09:52:00.312500,3.68,65.08
128907,2018-06-29 09:52:00.343750,11.6,65.08
128908,2018-06-29 09:52:00.375000,15.68,65.08
128909,2018-06-29 09:52:00.406250,16.79,65.08
128910,2018-06-29 09:52:00.437500,16.88,65.08
128911,2018-06-29 09:52:00.468750,17.6,65.08
128912,2018-06-29 09:52:00.500000,18.89,65.08
128913,2018-06-29 09:52:00.531250,19.45,64.72
128914,2018-06-29 09:52:00.562500,18.49,64.72
128915,2018-06-29 09:52:00.593750,16.71,64.72
128916,2018-06-29 09:52:00.625000,15.11,64.72
128917,2018-06-29 09:52:00.656250,13.47,64.72
128918,2018-06-29 09:52:00.687500,10.64,64.72
128919,2018-06-29 09:52:00.718750,6.48,64.72
128920,2018-06-29 09:52:00.750000,2.68,64.72
128921,2018-06-29 09:52:00.781250,0.92,64.72
128922,2018-06-29 09:52:00.812500,0.97,64.72
128923,2018-06-29 09:52:00.843750,1.39,64.72
128924,2018-06-29 09:52:00.875000,1.41,64.72
128925,2018-06-29 09:52:00.906250,1.44,64.72
128926,2018-06-29 09:52:00.937500,1.92,64.72
128927,2018-06-29 09:52:00.968750,2.51,64.72
128928,2018-06-29 09:52:01.000000,2.47,64.72
128929,2018-06-29 09:52:01.031250,1.74,64.72
128930,2018-06-29 09:52:01.062500,0.66,64.72
128931,2018-06-29 09:52:01.093750,-1.05,64.72
128932,2018-06-29 09:52:01.125000,-3.53,64.72
128933,2018-06-29 09:52:01.156250,-6.19,64.72
128934,2018-06-29 09:52:01.187500,-8.82,64.72
128935,2018-06-29 09:52:01.218750,-11.74,64.72
128936,2018-06-29 09:52:01.250000,-14.94,64.72
128937,2018-06-29 09:52:01.281250,-18.21,64.72
128938,2018-06-29 09:52:01.312500,-21.66,64.72
128939,2018-06-29 09:52:01.343750,-24.9,64.72
128940,2018-06-29 09:52:01.375000,-27.35,64.72
128941,2018-06-29 09:52:01.406250,-29.71,64.72
128942,2018-06-29 09:52:01.437500,-33.22,64.72
128943,2018-06-29 09:52:01.468750,-37.1,64.72
128944,2018-06-29 09:52:01.500000,-38.04,64.72
128945,2018-06-29 09:52:01.531250,-33.01,64.32
128946,2018-06-29 09:52:01.562500,-22.76,64.32
128947,2018-06-29 09:52:01.593750,-11.29,64.32
128948,2018-06-29 09:52:01.625000,-2.08,64.32
128949,2018-06-29 09:52:01.656250,4.25,64.32
128950,2018-06-29 09:52:01.687500,8.55,64.32
128951,2018-06-29 09:52:01.718750,11.1,64.32
128952,2018-06-29 09:52:01.750000,11.62,64.32
128953,2018-06-29 09:52:01.781250,10.38,64.32
128954,2018-06-29 09:52:01.812500,8.62,64.32
128955,2018-06-29 09:52:01.843750,7.51,64.32
128956,2018-06-29 09:52:01.875000,7.16,64.32
128957,2018-06-29 09:52:01.906250,7.47,64.32
128958,2018-06-29 09:52:01.937500,8.59,64.32
128959,2018-06-29 09:52:01.968750,9.85,64.32
128960,2018-06-29 09:52:02.000000,10.38,64.32
128961,2018-06-29 09:52:02.031250,10.46,64.32
128962,2018-06-29 09:52:02.062500,10.84,64.32
128963,2018-06-29 09:52:02.093750,11.14,64.32
128964,2018-06-29 09:52:02.125000,10.82,64.32
128965,2018-06-29 09:52:02.156250,10.54,64.32
128966,2018-06-29 09:52:02.187500,11.28,64.32
128967,2018-06-29 09:52:02.218750,12.92,64.32
128968,2018-06-29 09:52:02.250000,14.43,64.32
128969,2018-06-29 09:52:02.281250,15.39,64.32
128970,2018-06-29 09:52:02.312500,16.07,64.32
128971,2018-06-29 09:52:02.343750,17.21,64.32
128972,2018-06-29 09:52:02.375000,19.56,64.32
128973,2018-06-29 09:52:02.406250,22.75,64.32
128974,2018-06-29 09:52:02.437500,25.51,64.32
128975,2018-06-29 09:52:02.468750,28.13,64.32
128976,2018-06-29 09:52:02.500000,32.79,64.32
128977,2018-06-29 09:52:02.531250,41.05,64.05
128978,2018-06-29 09:52:02.562500,53.32,64.05
128979,2018-06-29 09:52:02.593750,70.4,64.05
128980,2018-06-29 09:52:02.625000,91.45,64.05
128981,2018-06-29 09:52:02.656250,112.22,64.05
128982,2018-06-29 09:52:02.687500,126.37,64.05
128983,2018-06-29 09:52:02.718750,126.51,64.05
128984,2018-06-29 09:52:02.750000,105.81,64.05
128985,2018-06-29 09:52:02.781250,64.29,64.05
128986,2018-06-29 09:52:02.812500,12.44,64.05
128987,2018-06-29 09:52:02.843750,-35.88,64.05
128988,2018-06-29 09:52:02.875000,-72.31,64.05
128989,2018-06-29 09:52:02.906250,-95.2,64.05
128990,2018-06-29 09:52:02.937500,-106.18,64.05
128991,2018-06-29 09:52:02.968750,-108.03,64.05
128992,2018-06-29 09:52:03.000000,-104.31,64.05
128993,2018-06-29 09:52:03.031250,-98.38,64.05
128994,2018-06-29 09:52:03.062500,-91.05,64.05
128995,2018-06-29 09:52:03.093750,-79.74,64.05
128996,2018-06-29 09:52:03.125000,-61.78,64.05
128997,2018-06-29 09:52:03.156250,-38.64,64.05
128998,2018-06-29 09:52:03.187500,-16.2,64.05
128999,2018-06-29 09:52:03.218750,-0.28,64.05
129000,2018-06-29 09:52:03.250000,7.81,64.05
129001,2018-06-29 09:52:03.281250,11.16,64.05
129002,2018-06-29 09:52:03.312500,13.57,64.05
129003,2018-06-29 09:52:03.343750,15.77,64.05
129004,2018-06-29 09:52:03.375000,15.12,64.05
129005,2018-06-29 09:52:03.406250,9.62,64.05
129006,2018-06-29 09:52:03.437500,0.87,64.05
129007,2018-06-29 09:52:03.468750,-7.79,64.05
129008,2018-06-29 09:52:03.500000,-15.28,64.05
129009,2018-06-29 09:52:03.531250,-22.5,63.82
129010,2018-06-29 09:52:03.562500,-29.33,63.82
129011,2018-06-29 09:52:03.593750,-32.93,63.82
129012,2018-06-29 09:52:03.625000,-28.91,63.82
129013,2018-06-29 09:52:03.656250,-14.94,63.82
129014,2018-06-29 09:52:03.687500,5.59,63.82
129015,2018-06-29 09:52:03.718750,24.81,63.82
129016,2018-06-29 09:52:03.750000,36.57,63.82
129017,2018-06-29 09:52:03.781250,40.7,63.82
129018,2018-06-29 09:52:03.812500,40.25,63.82
129019,2018-06-29 09:52:03.843750,36.57,63.82
129020,2018-06-29 09:52:03.875000,29.35,63.82
129021,2018-06-29 09:52:03.906250,20.15,63.82
129022,2018-06-29 09:52:03.937500,12.06,63.82
129023,2018-06-29 09:52:03.968750,7.24,63.82
129024,2018-06-29 09:52:04.000000,6.12,63.82
129025,2018-06-29 09:52:04.031250,7.37,63.82
129026,2018-06-29 09:52:04.062500,7.87,63.82
129027,2018-06-29 09:52:04.093750,5.02,63.82
129028,2018-06-29 09:52:04.125000,-1.4,63.82
129029,2018-06-29 09:52:04.156250,-9.39,63.82
129030,2018-06-29 09:52:04.187500,-14.02,63.82
129031,2018-06-29 09:52:04.218750,-8.14,63.82
129032,2018-06-29 09:52:04.250000,13.22,63.82
129033,2018-06-29 09:52:04.281250,47.85,63.82
129034,2018-06-29 09:52:04.312500,84.73,63.82
129035,2018-06-29 09:52:04.343750,107.3,63.82
129036,2018-06-29 09:52:04.375000,105.16,63.82
129037,2018-06-29 09:52:04.406250,81.93,63.82
129038,2018-06-29 09:52:04.437500,47.44,63.82
129039,2018-06-29 09:52:04.468750,8.41,63.82
129040,2018-06-29 09:52:04.500000,-28.64,63.82
129041,2018-06-29 09:52:04.531250,-57.11,63.55
129042,2018-06-29 09:52:04.562500,-78.72,63.55
129043,2018-06-29 09:52:04.593750,-102.53,63.55
129044,2018-06-29 09:52:04.625000,-131.2,63.55
129045,2018-06-29 09:52:04.656250,-155.44,63.55
129046,2018-06-29 09:52:04.687500,-163.75,63.55
129047,2018-06-29 09:52:04.718750,-153.49,63.55
129048,2018-06-29 09:52:04.750000,-130.8,63.55
129049,2018-06-29 09:52:04.781250,-103.15,63.55
129050,2018-06-29 09:52:04.812500,-75.87,63.55
129051,2018-06-29 09:52:04.843750,-52.64,63.55
129052,2018-06-29 09:52:04.875000,-34.93,63.55
129053,2018-06-29 09:52:04.906250,-21.87,63.55
129054,2018-06-29 09:52:04.937500,-12.02,63.55
129055,2018-06-29 09:52:04.968750,-4.77,63.55
129056,2018-06-29 09:52:05.000000,0.52,63.55
129057,2018-06-29 09:52:05.031250,5.13,63.55
129058,2018-06-29 09:52:05.062500,10.02,63.55
129059,2018-06-29 09:52:05.093750,15.28,63.55
129060,2018-06-29 09:52:05.125000,19.95,63.55
129061,2018-06-29 09:52:05.156250,22.94,63.55
129062,2018-06-29 09:52:05.187500,24.45,63.55
129063,2018-06-29 09:52:05.218750,25.6,63.55
129064,2018-06-29 09:52:05.250000,26.62,63.55
129065,2018-06-29 09:52:05.281250,26.62,63.55
129066,2018-06-29 09:52:05.312500,25.38,63.55
129067,2018-06-29 09:52:05.343750,23.58,63.55
129068,2018-06-29 09:52:05.375000,21.64,63.55
129069,2018-06-29 09:52:05.406250,19.67,63.55
129070,2018-06-29 09:52:05.437500,17.48,63.55
129071,2018-06-29 09:52:05.468750,14.35,63.55
129072,2018-06-29 09:52:05.500000,9.74,63.55
129073,2018-06-29 09:52:05.531250,4.45,63.33
129074,2018-06-29 09:52:05.562500,-0.13,63.33
129075,2018-06-29 09:52:05.593750,-3.88,63.33
129076,2018-06-29 09:52:05.625000,-7.75,63.33
129077,2018-06-29 09:52:05.656250,-12.51,63.33
129078,2018-06-29 09:52:05.687500,-17.89,63.33
129079,2018-06-29 09:52:05.718750,-22.96,63.33
129080,2018-06-29 09:52:05.750000,-27.98,63.33
129081,2018-06-29 09:52:05.781250,-34.78,63.33
129082,2018-06-29 09:52:05.812500,-43.35,63.33
129083,2018-06-29 09:52:05.843750,-48.96,63.33
129084,2018-06-29 09:52:05.875000,-45.66,63.33
129085,2018-06-29 09:52:05.906250,-32.83,63.33
129086,2018-06-29 09:52:05.937500,-15.82,63.33
129087,2018-06-29 09:52:05.968750,-0.24,63.33
129088,2018-06-29 09:52:06.000000,12.11,63.33
129089,2018-06-29 09:52:06.031250,21.9,63.33
129090,2018-06-29 09:52:06.062500,29.81,63.33
129091,2018-06-29 09:52:06.093750,36.05,63.33
129092,2018-06-29 09:52:06.125000,40.07,63.33
129093,2018-06-29 09:52:06.156250,41.07,63.33
129094,2018-06-29 09:52:06.187500,39.61,63.33
129095,2018-06-29 09:52:06.218750,37.52,63.33
129096,2018-06-29 09:52:06.250000,35.91,63.33
129097,2018-06-29 09:52:06.281250,34.7,63.33
129098,2018-06-29 09:52:06.312500,33.75,63.33
129099,2018-06-29 09:52:06.343750,32.92,63.33
129100,2018-06-29 09:52:06.375000,31.59,63.33
129101,2018-06-29 09:52:06.406250,29.52,63.33
129102,2018-06-29 09:52:06.437500,27.08,63.33
129103,2018-06-29 09:52:06.468750,24.21,63.33
129104,2018-06-29 09:52:06.500000,20.76,63.33
129105,2018-06-29 09:52:06.531250,17.38,63.15
129106,2018-06-29 09:52:06.562500,14.96,63.15
129107,2018-06-29 09:52:06.593750,13.14,63.15
129108,2018-06-29 09:52:06.625000,10.99,63.15
129109,2018-06-29 09:52:06.656250,8.53,63.15
129110,2018-06-29 09:52:06.687500,6.15,63.15
129111,2018-06-29 09:52:06.718750,3.75,63.15
129112,2018-06-29 09:52:06.750000,1.14,63.15
129113,2018-06-29 09:52:06.781250,-1.5,63.15
129114,2018-06-29 09:52:06.812500,-4.49,63.15
129115,2018-06-29 09:52:06.843750,-8.34,63.15
129116,2018-06-29 09:52:06.875000,-12.19,63.15
129117,2018-06-29 09:52:06.906250,-14.99,63.15
129118,2018-06-29 09:52:06.937500,-17.96,63.15
129119,2018-06-29 09:52:06.968750,-23.11,63.15
129120,2018-06-29 09:52:07.000000,-29.72,63.15
129121,2018-06-29 09:52:07.031250,-35.45,63.15
129122,2018-06-29 09:52:07.062500,-40.1,63.15
129123,2018-06-29 09:52:07.093750,-45.54,63.15
129124,2018-06-29 09:52:07.125000,-52.97,63.15
129125,2018-06-29 09:52:07.156250,-60.13,63.15
129126,2018-06-29 09:52:07.187500,-61.12,63.15
129127,2018-06-29 09:52:07.218750,-51.23,63.15
129128,2018-06-29 09:52:07.250000,-32.49,63.15
129129,2018-06-29 09:52:07.281250,-11.85,63.15
129130,2018-06-29 09:52:07.312500,5.31,63.15
129131,2018-06-29 09:52:07.343750,17.71,63.15
129132,2018-06-29 09:52:07.375000,26.4,63.15
129133,2018-06-29 09:52:07.406250,32.74,63.15
129134,2018-06-29 09:52:07.437500,36.81,63.15
129135,2018-06-29 09:52:07.468750,37.99,63.15
129136,2018-06-29 09:52:07.500000,36.97,63.15
129137,2018-06-29 09:52:07.531250,35.74,62.95
129138,2018-06-29 09:52:07.562500,35.32,62.95
129139,2018-06-29 09:52:07.593750,35.09,62.95
129140,2018-06-29 09:52:07.625000,34.31,62.95
129141,2018-06-29 09:52:07.656250,33.04,62.95
129142,2018-06-29 09:52:07.687500,31.02,62.95
129143,2018-06-29 09:52:07.718750,27.84,62.95
129144,2018-06-29 09:52:07.750000,24.3,62.95
129145,2018-06-29 09:52:07.781250,21.34,62.95
129146,2018-06-29 09:52:07.812500,18.24,62.95
129147,2018-06-29 09:52:07.843750,13.9,62.95
129148,2018-06-29 09:52:07.875000,9.28,62.95
129149,2018-06-29 09:52:07.906250,6.4,62.95
129150,2018-06-29 09:52:07.937500,5.31,62.95
129151,2018-06-29 09:52:07.968750,4.03,62.95
129152,2018-06-29 09:52:08.000000,1.58,62.95
129153,2018-06-29 09:52:08.031250,-1.61,62.95
129154,2018-06-29 09:52:08.062500,-5.42,62.95
129155,2018-06-29 09:52:08.093750,-10.09,62.95
129156,2018-06-29 09:52:08.125000,-14.98,62.95
129157,2018-06-29 09:52:08.156250,-19.86,62.95
129158,2018-06-29 09:52:08.187500,-25.43,62.95
129159,2018-06-29 09:52:08.218750,-31.15,62.95
129160,2018-06-29 09:52:08.250000,-35.65,62.95
129161,2018-06-29 09:52:08.281250,-40.0,62.95
129162,2018-06-29 09:52:08.312500,-46.94,62.95
129163,2018-06-29 09:52:08.343750,-55.88,62.95
129164,2018-06-29 09:52:08.375000,-61.19,62.95
129165,2018-06-29 09:52:08.406250,-56.23,62.95
129166,2018-06-29 09:52:08.437500,-39.93,62.95
129167,2018-06-29 09:52:08.468750,-18.62,62.95
129168,2018-06-29 09:52:08.500000,-0.12,62.95
129169,2018-06-29 09:52:08.531250,12.54,62.73
129170,2018-06-29 09:52:08.562500,20.82,62.73
129171,2018-06-29 09:52:08.593750,26.79,62.73
129172,2018-06-29 09:52:08.625000,31.04,62.73
129173,2018-06-29 09:52:08.656250,33.29,62.73
129174,2018-06-29 09:52:08.687500,34.18,62.73
129175,2018-06-29 09:52:08.718750,35.08,62.73
129176,2018-06-29 09:52:08.750000,36.28,62.73
129177,2018-06-29 09:52:08.781250,37.07,62.73
129178,2018-06-29 09:52:08.812500,36.87,62.73
129179,2018-06-29 09:52:08.843750,35.42,62.73
129180,2018-06-29 09:52:08.875000,32.51,62.73
129181,2018-06-29 09:52:08.906250,28.55,62.73
129182,2018-06-29 09:52:08.937500,24.51,62.73
129183,2018-06-29 09:52:08.968750,20.95,62.73
129184,2018-06-29 09:52:09.000000,17.63,62.73
129185,2018-06-29 09:52:09.031250,14.07,62.73
129186,2018-06-29 09:52:09.062500,10.4,62.73
129187,2018-06-29 09:52:09.093750,7.0,62.73
129188,2018-06-29 09:52:09.125000,3.63,62.73
129189,2018-06-29 09:52:09.156250,-0.52,62.73
129190,2018-06-29 09:52:09.187500,-5.53,62.73
129191,2018-06-29 09:52:09.218750,-10.08,62.73
129192,2018-06-29 09:52:09.250000,-13.14,62.73
129193,2018-06-29 09:52:09.281250,-15.62,62.73
129194,2018-06-29 09:52:09.312500,-19.26,62.73
129195,2018-06-29 09:52:09.343750,-24.1,62.73
129196,2018-06-29 09:52:09.375000,-28.85,62.73
129197,2018-06-29 09:52:09.406250,-33.05,62.73
129198,2018-06-29 09:52:09.437500,-37.9,62.73
129199,2018-06-29 09:52:09.468750,-44.78,62.73
129200,2018-06-29 09:52:09.500000,-52.44,62.73
129201,2018-06-29 09:52:09.531250,-55.28,62.47
129202,2018-06-29 09:52:09.562500,-47.09,62.47
129203,2018-06-29 09:52:09.593750,-28.18,62.47
129204,2018-06-29 09:52:09.625000,-6.33,62.47
129205,2018-06-29 09:52:09.656250,10.68,62.47
129206,2018-06-29 09:52:09.687500,20.8,62.47
129207,2018-06-29 09:52:09.718750,26.17,62.47
129208,2018-06-29 09:52:09.750000,29.03,62.47
129209,2018-06-29 09:52:09.781250,30.39,62.47
129210,2018-06-29 09:52:09.812500,31.13,62.47
129211,2018-06-29 09:52:09.843750,31.59,62.47
129212,2018-06-29 09:52:09.875000,31.39,62.47
129213,2018-06-29 09:52:09.906250,30.77,62.47
129214,2018-06-29 09:52:09.937500,30.59,62.47
129215,2018-06-29 09:52:09.968750,30.26,62.47
129216,2018-06-29 09:52:10.000000,27.84,62.47
129217,2018-06-29 09:52:10.031250,22.95,62.47
129218,2018-06-29 09:52:10.062500,17.36,62.47
129219,2018-06-29 09:52:10.093750,12.55,62.47
129220,2018-06-29 09:52:10.125000,8.46,62.47
129221,2018-06-29 09:52:10.156250,4.12,62.47
129222,2018-06-29 09:52:10.187500,-0.96,62.47
129223,2018-06-29 09:52:10.218750,-6.43,62.47
129224,2018-06-29 09:52:10.250000,-11.94,62.47
129225,2018-06-29 09:52:10.281250,-17.39,62.47
129226,2018-06-29 09:52:10.312500,-22.57,62.47
129227,2018-06-29 09:52:10.343750,-27.51,62.47
129228,2018-06-29 09:52:10.375000,-32.68,62.47
129229,2018-06-29 09:52:10.406250,-38.74,62.47
129230,2018-06-29 09:52:10.437500,-45.57,62.47
129231,2018-06-29 09:52:10.468750,-49.81,62.47
129232,2018-06-29 09:52:10.500000,-45.31,62.47
129233,2018-06-29 09:52:10.531250,-29.65,62.2
129234,2018-06-29 09:52:10.562500,-8.39,62.2
129235,2018-06-29 09:52:10.593750,10.03,62.2
129236,2018-06-29 09:52:10.625000,21.54,62.2
129237,2018-06-29 09:52:10.656250,27.38,62.2
129238,2018-06-29 09:52:10.687500,30.29,62.2
129239,2018-06-29 09:52:10.718750,31.41,62.2
129240,2018-06-29 09:52:10.750000,31.18,62.2
129241,2018-06-29 09:52:10.781250,30.73,62.2
129242,2018-06-29 09:52:10.812500,30.94,62.2
129243,2018-06-29 09:52:10.843750,31.18,62.2
129244,2018-06-29 09:52:10.875000,30.53,62.2
129245,2018-06-29 09:52:10.906250,29.02,62.2
129246,2018-06-29 09:52:10.937500,26.87,62.2
129247,2018-06-29 09:52:10.968750,23.45,62.2
129248,2018-06-29 09:52:11.000000,18.12,62.2
129249,2018-06-29 09:52:11.031250,11.53,62.2
129250,2018-06-29 09:52:11.062500,5.22,62.2
129251,2018-06-29 09:52:11.093750,-0.12,62.2
129252,2018-06-29 09:52:11.125000,-4.22,62.2
129253,2018-06-29 09:52:11.156250,-6.94,62.2
129254,2018-06-29 09:52:11.187500,-9.58,62.2
129255,2018-06-29 09:52:11.218750,-14.13,62.2
129256,2018-06-29 09:52:11.250000,-20.71,62.2
129257,2018-06-29 09:52:11.281250,-27.6,62.2
129258,2018-06-29 09:52:11.312500,-33.93,62.2
129259,2018-06-29 09:52:11.343750,-40.47,62.2
129260,2018-06-29 09:52:11.375000,-48.4,62.2
129261,2018-06-29 09:52:11.406250,-56.71,62.2
129262,2018-06-29 09:52:11.437500,-59.87,62.2
129263,2018-06-29 09:52:11.468750,-51.01,62.2
129264,2018-06-29 09:52:11.500000,-30.04,62.2
129265,2018-06-29 09:52:11.531250,-5.66,61.92
129266,2018-06-29 09:52:11.562500,13.24,61.92
129267,2018-06-29 09:52:11.593750,24.72,61.92
129268,2018-06-29 09:52:11.625000,31.22,61.92
129269,2018-06-29 09:52:11.656250,34.96,61.92
129270,2018-06-29 09:52:11.687500,37.24,61.92
129271,2018-06-29 09:52:11.718750,38.48,61.92
129272,2018-06-29 09:52:11.750000,38.36,61.92
129273,2018-06-29 09:52:11.781250,37.26,61.92
129274,2018-06-29 09:52:11.812500,36.61,61.92
129275,2018-06-29 09:52:11.843750,36.97,61.92
129276,2018-06-29 09:52:11.875000,36.84,61.92
129277,2018-06-29 09:52:11.906250,34.34,61.92
129278,2018-06-29 09:52:11.937500,29.48,61.92
129279,2018-06-29 09:52:11.968750,23.94,61.92
129280,2018-06-29 09:52:12.000000,19.17,61.92
129281,2018-06-29 09:52:12.031250,15.55,61.92
129282,2018-06-29 09:52:12.062500,12.88,61.92
129283,2018-06-29 09:52:12.093750,10.54,61.92
129284,2018-06-29 09:52:12.125000,7.9,61.92
129285,2018-06-29 09:52:12.156250,5.12,61.92
129286,2018-06-29 09:52:12.187500,3.06,61.92
129287,2018-06-29 09:52:12.218750,1.96,61.92
129288,2018-06-29 09:52:12.250000,0.63,61.92
129289,2018-06-29 09:52:12.281250,-2.39,61.92
129290,2018-06-29 09:52:12.312500,-7.08,61.92
129291,2018-06-29 09:52:12.343750,-12.09,61.92
129292,2018-06-29 09:52:12.375000,-16.19,61.92
129293,2018-06-29 09:52:12.406250,-19.35,61.92
129294,2018-06-29 09:52:12.437500,-22.65,61.92
129295,2018-06-29 09:52:12.468750,-27.12,61.92
129296,2018-06-29 09:52:12.500000,-32.4,61.92
129297,2018-06-29 09:52:12.531250,-37.57,61.68
129298,2018-06-29 09:52:12.562500,-43.03,61.68
129299,2018-06-29 09:52:12.593750,-50.57,61.68
129300,2018-06-29 09:52:12.625000,-60.75,61.68
129301,2018-06-29 09:52:12.656250,-68.73,61.68
129302,2018-06-29 09:52:12.687500,-65.83,61.68
129303,2018-06-29 09:52:12.718750,-48.33,61.68
129304,2018-06-29 09:52:12.750000,-23.1,61.68
129305,2018-06-29 09:52:12.781250,-0.5,61.68
129306,2018-06-29 09:52:12.812500,14.96,61.68
129307,2018-06-29 09:52:12.843750,24.55,61.68
129308,2018-06-29 09:52:12.875000,30.55,61.68
129309,2018-06-29 09:52:12.906250,34.33,61.68
129310,2018-06-29 09:52:12.937500,36.8,61.68
129311,2018-06-29 09:52:12.968750,38.13,61.68
129312,2018-06-29 09:52:13.000000,37.89,61.68
129313,2018-06-29 09:52:13.031250,36.59,61.68
129314,2018-06-29 09:52:13.062500,35.57,61.68
129315,2018-06-29 09:52:13.093750,35.42,61.68
129316,2018-06-29 09:52:13.125000,34.81,61.68
129317,2018-06-29 09:52:13.156250,31.97,61.68
129318,2018-06-29 09:52:13.187500,27.12,61.68
129319,2018-06-29 09:52:13.218750,22.32,61.68
129320,2018-06-29 09:52:13.250000,19.05,61.68
129321,2018-06-29 09:52:13.281250,16.38,61.68
129322,2018-06-29 09:52:13.312500,12.85,61.68
129323,2018-06-29 09:52:13.343750,9.17,61.68
129324,2018-06-29 09:52:13.375000,6.93,61.68
129325,2018-06-29 09:52:13.406250,5.45,61.68
129326,2018-06-29 09:52:13.437500,2.44,61.68
129327,2018-06-29 09:52:13.468750,-2.36,61.68
129328,2018-06-29 09:52:13.500000,-6.77,61.68
129329,2018-06-29 09:52:13.531250,-9.83,61.4
129330,2018-06-29 09:52:13.562500,-13.28,61.4
129331,2018-06-29 09:52:13.593750,-18.56,61.4
129332,2018-06-29 09:52:13.625000,-24.49,61.4
129333,2018-06-29 09:52:13.656250,-29.47,61.4
129334,2018-06-29 09:52:13.687500,-33.95,61.4
129335,2018-06-29 09:52:13.718750,-39.49,61.4
129336,2018-06-29 09:52:13.750000,-46.94,61.4
129337,2018-06-29 09:52:13.781250,-54.63,61.4
129338,2018-06-29 09:52:13.812500,-56.56,61.4
129339,2018-06-29 09:52:13.843750,-46.62,61.4
129340,2018-06-29 09:52:13.875000,-26.2,61.4
129341,2018-06-29 09:52:13.906250,-4.18,61.4
129342,2018-06-29 09:52:13.937500,11.81,61.4
129343,2018-06-29 09:52:13.968750,20.8,61.4
129344,2018-06-29 09:52:14.000000,25.89,61.4
129345,2018-06-29 09:52:14.031250,29.5,61.4
129346,2018-06-29 09:52:14.062500,32.14,61.4
129347,2018-06-29 09:52:14.093750,33.76,61.4
129348,2018-06-29 09:52:14.125000,34.84,61.4
129349,2018-06-29 09:52:14.156250,35.33,61.4
129350,2018-06-29 09:52:14.187500,35.02,61.4
129351,2018-06-29 09:52:14.218750,34.2,61.4
129352,2018-06-29 09:52:14.250000,32.75,61.4
129353,2018-06-29 09:52:14.281250,29.8,61.4
129354,2018-06-29 09:52:14.312500,25.63,61.4
129355,2018-06-29 09:52:14.343750,21.55,61.4
129356,2018-06-29 09:52:14.375000,18.15,61.4
129357,2018-06-29 09:52:14.406250,15.18,61.4
129358,2018-06-29 09:52:14.437500,12.7,61.4
129359,2018-06-29 09:52:14.468750,10.47,61.4
129360,2018-06-29 09:52:14.500000,7.82,61.4
129361,2018-06-29 09:52:14.531250,4.81,61.08
129362,2018-06-29 09:52:14.562500,2.31,61.08
129363,2018-06-29 09:52:14.593750,0.21,61.08
129364,2018-06-29 09:52:14.625000,-2.79,61.08
129365,2018-06-29 09:52:14.656250,-7.0,61.08
129366,2018-06-29 09:52:14.687500,-11.35,61.08
129367,2018-06-29 09:52:14.718750,-15.41,61.08
129368,2018-06-29 09:52:14.750000,-20.08,61.08
129369,2018-06-29 09:52:14.781250,-25.64,61.08
129370,2018-06-29 09:52:14.812500,-30.55,61.08
129371,2018-06-29 09:52:14.843750,-33.51,61.08
129372,2018-06-29 09:52:14.875000,-35.63,61.08
129373,2018-06-29 09:52:14.906250,-39.5,61.08
129374,2018-06-29 09:52:14.937500,-46.52,61.08
129375,2018-06-29 09:52:14.968750,-53.95,61.08
129376,2018-06-29 09:52:15.000000,-54.9,61.08
129377,2018-06-29 09:52:15.031250,-44.53,61.08
129378,2018-06-29 09:52:15.062500,-25.86,61.08
129379,2018-06-29 09:52:15.093750,-6.71,61.08
129380,2018-06-29 09:52:15.125000,7.71,61.08
129381,2018-06-29 09:52:15.156250,16.71,61.08
129382,2018-06-29 09:52:15.187500,21.69,61.08
129383,2018-06-29 09:52:15.218750,24.26,61.08
129384,2018-06-29 09:52:15.250000,25.5,61.08
129385,2018-06-29 09:52:15.281250,25.93,61.08
129386,2018-06-29 09:52:15.312500,26.03,61.08
129387,2018-06-29 09:52:15.343750,25.95,61.08
129388,2018-06-29 09:52:15.375000,25.43,61.08
129389,2018-06-29 09:52:15.406250,24.5,61.08
129390,2018-06-29 09:52:15.437500,23.6,61.08
129391,2018-06-29 09:52:15.468750,22.51,61.08
129392,2018-06-29 09:52:15.500000,20.29,61.08
129393,2018-06-29 09:52:15.531250,16.86,60.73
129394,2018-06-29 09:52:15.562500,13.51,60.73
129395,2018-06-29 09:52:15.593750,11.53,60.73
129396,2018-06-29 09:52:15.625000,10.52,60.73
129397,2018-06-29 09:52:15.656250,8.7,60.73
129398,2018-06-29 09:52:15.687500,5.07,60.73
129399,2018-06-29 09:52:15.718750,0.71,60.73
129400,2018-06-29 09:52:15.750000,-2.65,60.73
129401,2018-06-29 09:52:15.781250,-4.71,60.73
129402,2018-06-29 09:52:15.812500,-6.26,60.73
129403,2018-06-29 09:52:15.843750,-7.46,60.73
129404,2018-06-29 09:52:15.875000,-8.1,60.73
129405,2018-06-29 09:52:15.906250,-8.75,60.73
129406,2018-06-29 09:52:15.937500,-10.6,60.73
129407,2018-06-29 09:52:15.968750,-14.05,60.73
129408,2018-06-29 09:52:16.000000,-18.01,60.73
129409,2018-06-29 09:52:16.031250,-21.49,60.73
129410,2018-06-29 09:52:16.062500,-25.03,60.73
129411,2018-06-29 09:52:16.093750,-29.42,60.73
129412,2018-06-29 09:52:16.125000,-34.58,60.73
129413,2018-06-29 09:52:16.156250,-38.86,60.73
129414,2018-06-29 09:52:16.187500,-38.43,60.73
129415,2018-06-29 09:52:16.218750,-29.65,60.73
129416,2018-06-29 09:52:16.250000,-14.22,60.73
129417,2018-06-29 09:52:16.281250,1.2,60.73
129418,2018-06-29 09:52:16.312500,11.94,60.73
129419,2018-06-29 09:52:16.343750,18.02,60.73
129420,2018-06-29 09:52:16.375000,20.81,60.73
129421,2018-06-29 09:52:16.406250,21.3,60.73
129422,2018-06-29 09:52:16.437500,21.32,60.73
129423,2018-06-29 09:52:16.468750,22.18,60.73
129424,2018-06-29 09:52:16.500000,23.07,60.73
129425,2018-06-29 09:52:16.531250,23.01,60.38
129426,2018-06-29 09:52:16.562500,22.64,60.38
129427,2018-06-29 09:52:16.593750,22.77,60.38
129428,2018-06-29 09:52:16.625000,22.92,60.38
129429,2018-06-29 09:52:16.656250,21.9,60.38
129430,2018-06-29 09:52:16.687500,19.34,60.38
129431,2018-06-29 09:52:16.718750,15.89,60.38
129432,2018-06-29 09:52:16.750000,12.54,60.38
129433,2018-06-29 09:52:16.781250,9.48,60.38
129434,2018-06-29 09:52:16.812500,6.02,60.38
129435,2018-06-29 09:52:16.843750,1.71,60.38
129436,2018-06-29 09:52:16.875000,-2.9,60.38
129437,2018-06-29 09:52:16.906250,-6.88,60.38
129438,2018-06-29 09:52:16.937500,-10.28,60.38
129439,2018-06-29 09:52:16.968750,-14.19,60.38
129440,2018-06-29 09:52:17.000000,-18.87,60.38
129441,2018-06-29 09:52:17.031250,-23.56,60.38
129442,2018-06-29 09:52:17.062500,-28.14,60.38
129443,2018-06-29 09:52:17.093750,-33.7,60.38
129444,2018-06-29 09:52:17.125000,-40.84,60.38
129445,2018-06-29 09:52:17.156250,-48.07,60.38
129446,2018-06-29 09:52:17.187500,-51.51,60.38
129447,2018-06-29 09:52:17.218750,-46.78,60.38
129448,2018-06-29 09:52:17.250000,-33.65,60.38
129449,2018-06-29 09:52:17.281250,-17.24,60.38
129450,2018-06-29 09:52:17.312500,-3.04,60.38
129451,2018-06-29 09:52:17.343750,6.9,60.38
129452,2018-06-29 09:52:17.375000,13.25,60.38
129453,2018-06-29 09:52:17.406250,17.7,60.38
129454,2018-06-29 09:52:17.437500,21.67,60.38
129455,2018-06-29 09:52:17.468750,24.68,60.38
129456,2018-06-29 09:52:17.500000,25.73,60.38
129457,2018-06-29 09:52:17.531250,25.4,60.0
129458,2018-06-29 09:52:17.562500,25.03,60.0
129459,2018-06-29 09:52:17.593750,25.28,60.0
129460,2018-06-29 09:52:17.625000,25.66,60.0
129461,2018-06-29 09:52:17.656250,24.6,60.0
129462,2018-06-29 09:52:17.687500,21.08,60.0
129463,2018-06-29 09:52:17.718750,16.28,60.0
129464,2018-06-29 09:52:17.750000,11.8,60.0
129465,2018-06-29 09:52:17.781250,7.83,60.0
129466,2018-06-29 09:52:17.812500,4.12,60.0
129467,2018-06-29 09:52:17.843750,0.89,60.0
129468,2018-06-29 09:52:17.875000,-2.06,60.0
129469,2018-06-29 09:52:17.906250,-5.35,60.0
129470,2018-06-29 09:52:17.937500,-9.36,60.0
129471,2018-06-29 09:52:17.968750,-13.91,60.0
129472,2018-06-29 09:52:18.000000,-18.6,60.0
129473,2018-06-29 09:52:18.031250,-23.28,60.0
129474,2018-06-29 09:52:18.062500,-27.77,60.0
129475,2018-06-29 09:52:18.093750,-31.74,60.0
129476,2018-06-29 09:52:18.125000,-35.49,60.0
129477,2018-06-29 09:52:18.156250,-40.86,60.0
129478,2018-06-29 09:52:18.187500,-48.18,60.0
129479,2018-06-29 09:52:18.218750,-52.79,60.0
129480,2018-06-29 09:52:18.250000,-47.89,60.0
129481,2018-06-29 09:52:18.281250,-32.01,60.0
129482,2018-06-29 09:52:18.312500,-11.23,60.0
129483,2018-06-29 09:52:18.343750,6.4,60.0
129484,2018-06-29 09:52:18.375000,17.18,60.0
129485,2018-06-29 09:52:18.406250,22.44,60.0
129486,2018-06-29 09:52:18.437500,25.36,60.0
129487,2018-06-29 09:52:18.468750,27.64,60.0
129488,2018-06-29 09:52:18.500000,29.36,60.0
129489,2018-06-29 09:52:18.531250,30.43,59.43
129490,2018-06-29 09:52:18.562500,30.88,59.43
129491,2018-06-29 09:52:18.593750,30.7,59.43
129492,2018-06-29 09:52:18.625000,30.16,59.43
129493,2018-06-29 09:52:18.656250,29.8,59.43
129494,2018-06-29 09:52:18.687500,29.14,59.43
129495,2018-06-29 09:52:18.718750,26.84,59.43
129496,2018-06-29 09:52:18.750000,22.74,59.43
129497,2018-06-29 09:52:18.781250,18.44,59.43
129498,2018-06-29 09:52:18.812500,14.77,59.43
129499,2018-06-29 09:52:18.843750,10.57,59.43
129500,2018-06-29 09:52:18.875000,5.03,59.43
129501,2018-06-29 09:52:18.906250,-0.64,59.43
129502,2018-06-29 09:52:18.937500,-5.16,59.43
129503,2018-06-29 09:52:18.968750,-9.11,59.43
129504,2018-06-29 09:52:19.000000,-13.8,59.43
129505,2018-06-29 09:52:19.031250,-19.19,59.43
129506,2018-06-29 09:52:19.062500,-24.45,59.43
129507,2018-06-29 09:52:19.093750,-29.39,59.43
129508,2018-06-29 09:52:19.125000,-34.62,59.43
129509,2018-06-29 09:52:19.156250,-40.96,59.43
129510,2018-06-29 09:52:19.187500,-47.93,59.43
129511,2018-06-29 09:52:19.218750,-51.49,59.43
129512,2018-06-29 09:52:19.250000,-45.89,59.43
129513,2018-06-29 09:52:19.281250,-30.28,59.43
129514,2018-06-29 09:52:19.312500,-10.89,59.43
129515,2018-06-29 09:52:19.343750,5.15,59.43
129516,2018-06-29 09:52:19.375000,15.52,59.43
129517,2018-06-29 09:52:19.406250,21.37,59.43
129518,2018-06-29 09:52:19.437500,24.43,59.43
129519,2018-06-29 09:52:19.468750,26.39,59.43
129520,2018-06-29 09:52:19.500000,28.51,59.43
129521,2018-06-29 09:52:19.531250,30.42,58.78
129522,2018-06-29 09:52:19.562500,30.93,58.78
129523,2018-06-29 09:52:19.593750,30.2,58.78
129524,2018-06-29 09:52:19.625000,29.38,58.78
129525,2018-06-29 09:52:19.656250,28.38,58.78
129526,2018-06-29 09:52:19.687500,25.87,58.78
129527,2018-06-29 09:52:19.718750,21.65,58.78
129528,2018-06-29 09:52:19.750000,17.17,58.78
129529,2018-06-29 09:52:19.781250,13.73,58.78
129530,2018-06-29 09:52:19.812500,11.55,58.78
129531,2018-06-29 09:52:19.843750,9.99,58.78
129532,2018-06-29 09:52:19.875000,8.2,58.78
129533,2018-06-29 09:52:19.906250,6.14,58.78
129534,2018-06-29 09:52:19.937500,4.81,58.78
129535,2018-06-29 09:52:19.968750,4.26,58.78
129536,2018-06-29 09:52:20.000000,2.88,58.78
129537,2018-06-29 09:52:20.031250,-0.52,58.78
129538,2018-06-29 09:52:20.062500,-5.07,58.78
129539,2018-06-29 09:52:20.093750,-9.34,58.78
129540,2018-06-29 09:52:20.125000,-13.36,58.78
129541,2018-06-29 09:52:20.156250,-17.77,58.78
129542,2018-06-29 09:52:20.187500,-22.4,58.78
129543,2018-06-29 09:52:20.218750,-26.86,58.78
129544,2018-06-29 09:52:20.250000,-31.81,58.78
129545,2018-06-29 09:52:20.281250,-38.22,58.78
129546,2018-06-29 09:52:20.312500,-46.1,58.78
129547,2018-06-29 09:52:20.343750,-53.64,58.78
129548,2018-06-29 09:52:20.375000,-56.23,58.78
129549,2018-06-29 09:52:20.406250,-48.98,58.78
129550,2018-06-29 09:52:20.437500,-32.44,58.78
129551,2018-06-29 09:52:20.468750,-12.93,58.78
129552,2018-06-29 09:52:20.500000,3.66,58.78
129553,2018-06-29 09:52:20.531250,15.74,58.08
129554,2018-06-29 09:52:20.562500,23.67,58.08
129555,2018-06-29 09:52:20.593750,27.9,58.08
129556,2018-06-29 09:52:20.625000,29.78,58.08
129557,2018-06-29 09:52:20.656250,31.14,58.08
129558,2018-06-29 09:52:20.687500,32.48,58.08
129559,2018-06-29 09:52:20.718750,32.96,58.08
129560,2018-06-29 09:52:20.750000,32.66,58.08
129561,2018-06-29 09:52:20.781250,32.48,58.08
129562,2018-06-29 09:52:20.812500,32.06,58.08
129563,2018-06-29 09:52:20.843750,30.03,58.08
129564,2018-06-29 09:52:20.875000,25.82,58.08
129565,2018-06-29 09:52:20.906250,20.7,58.08
129566,2018-06-29 09:52:20.937500,16.41,58.08
129567,2018-06-29 09:52:20.968750,13.69,58.08
129568,2018-06-29 09:52:21.000000,11.76,58.08
129569,2018-06-29 09:52:21.031250,9.61,58.08
129570,2018-06-29 09:52:21.062500,7.37,58.08
129571,2018-06-29 09:52:21.093750,5.42,58.08
129572,2018-06-29 09:52:21.125000,3.63,58.08
129573,2018-06-29 09:52:21.156250,1.9,58.08
129574,2018-06-29 09:52:21.187500,0.22,58.08
129575,2018-06-29 09:52:21.218750,-1.82,58.08
129576,2018-06-29 09:52:21.250000,-4.8,58.08
129577,2018-06-29 09:52:21.281250,-8.73,58.08
129578,2018-06-29 09:52:21.312500,-12.89,58.08
129579,2018-06-29 09:52:21.343750,-16.6,58.08
129580,2018-06-29 09:52:21.375000,-20.33,58.08
129581,2018-06-29 09:52:21.406250,-24.92,58.08
129582,2018-06-29 09:52:21.437500,-29.76,58.08
129583,2018-06-29 09:52:21.468750,-33.73,58.08
129584,2018-06-29 09:52:21.500000,-36.88,58.08
129585,2018-06-29 09:52:21.531250,-40.36,57.45
129586,2018-06-29 09:52:21.562500,-45.25,57.45
129587,2018-06-29 09:52:21.593750,-51.28,57.45
129588,2018-06-29 09:52:21.625000,-54.54,57.45
129589,2018-06-29 09:52:21.656250,-49.23,57.45
129590,2018-06-29 09:52:21.687500,-34.26,57.45
129591,2018-06-29 09:52:21.718750,-15.08,57.45
129592,2018-06-29 09:52:21.750000,1.64,57.45
129593,2018-06-29 09:52:21.781250,13.04,57.45
129594,2018-06-29 09:52:21.812500,19.79,57.45
129595,2018-06-29 09:52:21.843750,23.9,57.45
129596,2018-06-29 09:52:21.875000,27.0,57.45
129597,2018-06-29 09:52:21.906250,29.73,57.45
129598,2018-06-29 09:52:21.937500,31.65,57.45
129599,2018-06-29 09:52:21.968750,32.27,57.45
129600,2018-06-29 09:52:22.000000,32.2,57.45
129601,2018-06-29 09:52:22.031250,32.32,57.45
129602,2018-06-29 09:52:22.062500,32.29,57.45
129603,2018-06-29 09:52:22.093750,30.87,57.45
129604,2018-06-29 09:52:22.125000,27.54,57.45
129605,2018-06-29 09:52:22.156250,22.71,57.45
129606,2018-06-29 09:52:22.187500,17.56,57.45
129607,2018-06-29 09:52:22.218750,13.24,57.45
129608,2018-06-29 09:52:22.250000,9.91,57.45
129609,2018-06-29 09:52:22.281250,7.0,57.45
129610,2018-06-29 09:52:22.312500,4.39,57.45
129611,2018-06-29 09:52:22.343750,1.63,57.45
129612,2018-06-29 09:52:22.375000,-2.32,57.45
129613,2018-06-29 09:52:22.406250,-7.81,57.45
129614,2018-06-29 09:52:22.437500,-13.93,57.45
129615,2018-06-29 09:52:22.468750,-19.36,57.45
129616,2018-06-29 09:52:22.500000,-23.51,57.45
129617,2018-06-29 09:52:22.531250,-27.23,56.77
129618,2018-06-29 09:52:22.562500,-32.45,56.77
129619,2018-06-29 09:52:22.593750,-39.67,56.77
129620,2018-06-29 09:52:22.625000,-44.85,56.77
129621,2018-06-29 09:52:22.656250,-41.63,56.77
129622,2018-06-29 09:52:22.687500,-28.46,56.77
129623,2018-06-29 09:52:22.718750,-10.83,56.77
129624,2018-06-29 09:52:22.750000,4.62,56.77
129625,2018-06-29 09:52:22.781250,15.32,56.77
129626,2018-06-29 09:52:22.812500,21.75,56.77
129627,2018-06-29 09:52:22.843750,25.07,56.77
129628,2018-06-29 09:52:22.875000,26.4,56.77
129629,2018-06-29 09:52:22.906250,26.52,56.77
129630,2018-06-29 09:52:22.937500,25.84,56.77
129631,2018-06-29 09:52:22.968750,24.82,56.77
129632,2018-06-29 09:52:23.000000,24.07,56.77
129633,2018-06-29 09:52:23.031250,23.73,56.77
129634,2018-06-29 09:52:23.062500,23.02,56.77
129635,2018-06-29 09:52:23.093750,21.02,56.77
129636,2018-06-29 09:52:23.125000,17.78,56.77
129637,2018-06-29 09:52:23.156250,14.21,56.77
129638,2018-06-29 09:52:23.187500,10.96,56.77
129639,2018-06-29 09:52:23.218750,7.85,56.77
129640,2018-06-29 09:52:23.250000,4.55,56.77
129641,2018-06-29 09:52:23.281250,1.09,56.77
129642,2018-06-29 09:52:23.312500,-2.49,56.77
129643,2018-06-29 09:52:23.343750,-6.44,56.77
129644,2018-06-29 09:52:23.375000,-10.7,56.77
129645,2018-06-29 09:52:23.406250,-14.69,56.77
129646,2018-06-29 09:52:23.437500,-18.47,56.77
129647,2018-06-29 09:52:23.468750,-22.65,56.77
129648,2018-06-29 09:52:23.500000,-26.99,56.77
129649,2018-06-29 09:52:23.531250,-30.7,56.12
129650,2018-06-29 09:52:23.562500,-34.37,56.12
129651,2018-06-29 09:52:23.593750,-39.36,56.12
129652,2018-06-29 09:52:23.625000,-45.61,56.12
129653,2018-06-29 09:52:23.656250,-52.09,56.12
129654,2018-06-29 09:52:23.687500,-57.57,56.12
129655,2018-06-29 09:52:23.718750,-58.47,56.12
129656,2018-06-29 09:52:23.750000,-49.19,56.12
129657,2018-06-29 09:52:23.781250,-28.62,56.12
129658,2018-06-29 09:52:23.812500,-3.89,56.12
129659,2018-06-29 09:52:23.843750,15.48,56.12
129660,2018-06-29 09:52:23.875000,24.56,56.12
129661,2018-06-29 09:52:23.906250,23.55,56.12
129662,2018-06-29 09:52:23.937500,16.86,56.12
129663,2018-06-29 09:52:23.968750,11.88,56.12
129664,2018-06-29 09:52:24.000000,13.03,56.12
129665,2018-06-29 09:52:24.031250,17.7,56.12
129666,2018-06-29 09:52:24.062500,21.55,56.12
129667,2018-06-29 09:52:24.093750,24.63,56.12
129668,2018-06-29 09:52:24.125000,29.34,56.12
129669,2018-06-29 09:52:24.156250,35.63,56.12
129670,2018-06-29 09:52:24.187500,40.53,56.12
129671,2018-06-29 09:52:24.218750,40.47,56.12
129672,2018-06-29 09:52:24.250000,34.47,56.12
129673,2018-06-29 09:52:24.281250,25.49,56.12
129674,2018-06-29 09:52:24.312500,18.13,56.12
129675,2018-06-29 09:52:24.343750,15.07,56.12
129676,2018-06-29 09:52:24.375000,15.83,56.12
129677,2018-06-29 09:52:24.406250,17.15,56.12
129678,2018-06-29 09:52:24.437500,15.18,56.12
129679,2018-06-29 09:52:24.468750,9.32,56.12
129680,2018-06-29 09:52:24.500000,2.38,56.12
129681,2018-06-29 09:52:24.531250,-3.31,55.52
129682,2018-06-29 09:52:24.562500,-8.32,55.52
129683,2018-06-29 09:52:24.593750,-13.81,55.52
129684,2018-06-29 09:52:24.625000,-19.86,55.52
129685,2018-06-29 09:52:24.656250,-26.46,55.52
129686,2018-06-29 09:52:24.687500,-34.42,55.52
129687,2018-06-29 09:52:24.718750,-44.42,55.52
129688,2018-06-29 09:52:24.750000,-54.2,55.52
129689,2018-06-29 09:52:24.781250,-57.67,55.52
129690,2018-06-29 09:52:24.812500,-49.67,55.52
129691,2018-06-29 09:52:24.843750,-32.25,55.52
129692,2018-06-29 09:52:24.875000,-12.96,55.52
129693,2018-06-29 09:52:24.906250,2.43,55.52
129694,2018-06-29 09:52:24.937500,12.72,55.52
129695,2018-06-29 09:52:24.968750,19.42,55.52
129696,2018-06-29 09:52:25.000000,24.47,55.52
129697,2018-06-29 09:52:25.031250,28.72,55.52
129698,2018-06-29 09:52:25.062500,31.93,55.52
129699,2018-06-29 09:52:25.093750,34.16,55.52
129700,2018-06-29 09:52:25.125000,36.06,55.52
129701,2018-06-29 09:52:25.156250,37.72,55.52
129702,2018-06-29 09:52:25.187500,38.63,55.52
129703,2018-06-29 09:52:25.218750,38.15,55.52
129704,2018-06-29 09:52:25.250000,35.66,55.52
129705,2018-06-29 09:52:25.281250,30.97,55.52
129706,2018-06-29 09:52:25.312500,25.72,55.52
129707,2018-06-29 09:52:25.343750,22.02,55.52
129708,2018-06-29 09:52:25.375000,19.43,55.52
129709,2018-06-29 09:52:25.406250,15.93,55.52
129710,2018-06-29 09:52:25.437500,11.25,55.52
129711,2018-06-29 09:52:25.468750,7.0,55.52
129712,2018-06-29 09:52:25.500000,4.04,55.52
129713,2018-06-29 09:52:25.531250,2.05,54.9
129714,2018-06-29 09:52:25.562500,0.24,54.9
129715,2018-06-29 09:52:25.593750,-2.34,54.9
129716,2018-06-29 09:52:25.625000,-5.37,54.9
129717,2018-06-29 09:52:25.656250,-8.1,54.9
129718,2018-06-29 09:52:25.687500,-12.13,54.9
129719,2018-06-29 09:52:25.718750,-19.44,54.9
129720,2018-06-29 09:52:25.750000,-28.22,54.9
129721,2018-06-29 09:52:25.781250,-35.0,54.9
129722,2018-06-29 09:52:25.812500,-39.66,54.9
129723,2018-06-29 09:52:25.843750,-43.87,54.9
129724,2018-06-29 09:52:25.875000,-47.96,54.9
129725,2018-06-29 09:52:25.906250,-52.12,54.9
129726,2018-06-29 09:52:25.937500,-56.09,54.9
129727,2018-06-29 09:52:25.968750,-55.59,54.9
129728,2018-06-29 09:52:26.000000,-45.03,54.9
129729,2018-06-29 09:52:26.031250,-25.86,54.9
129730,2018-06-29 09:52:26.062500,-6.0,54.9
129731,2018-06-29 09:52:26.093750,8.97,54.9
129732,2018-06-29 09:52:26.125000,19.01,54.9
129733,2018-06-29 09:52:26.156250,26.07,54.9
129734,2018-06-29 09:52:26.187500,31.18,54.9
129735,2018-06-29 09:52:26.218750,34.22,54.9
129736,2018-06-29 09:52:26.250000,35.13,54.9
129737,2018-06-29 09:52:26.281250,34.9,54.9
129738,2018-06-29 09:52:26.312500,34.5,54.9
129739,2018-06-29 09:52:26.343750,33.91,54.9
129740,2018-06-29 09:52:26.375000,32.92,54.9
129741,2018-06-29 09:52:26.406250,31.6,54.9
129742,2018-06-29 09:52:26.437500,29.76,54.9
129743,2018-06-29 09:52:26.468750,27.19,54.9
129744,2018-06-29 09:52:26.500000,24.57,54.9
129745,2018-06-29 09:52:26.531250,22.5,54.3
129746,2018-06-29 09:52:26.562500,20.26,54.3
129747,2018-06-29 09:52:26.593750,16.76,54.3
129748,2018-06-29 09:52:26.625000,12.17,54.3
129749,2018-06-29 09:52:26.656250,7.63,54.3
129750,2018-06-29 09:52:26.687500,3.35,54.3
129751,2018-06-29 09:52:26.718750,-1.3,54.3
129752,2018-06-29 09:52:26.750000,-6.14,54.3
129753,2018-06-29 09:52:26.781250,-9.98,54.3
129754,2018-06-29 09:52:26.812500,-12.62,54.3
129755,2018-06-29 09:52:26.843750,-15.1,54.3
129756,2018-06-29 09:52:26.875000,-18.09,54.3
129757,2018-06-29 09:52:26.906250,-21.32,54.3
129758,2018-06-29 09:52:26.937500,-24.99,54.3
129759,2018-06-29 09:52:26.968750,-29.71,54.3
129760,2018-06-29 09:52:27.000000,-35.85,54.3
129761,2018-06-29 09:52:27.031250,-43.18,54.3
129762,2018-06-29 09:52:27.062500,-49.41,54.3
129763,2018-06-29 09:52:27.093750,-49.41,54.3
129764,2018-06-29 09:52:27.125000,-39.33,54.3
129765,2018-06-29 09:52:27.156250,-21.34,54.3
129766,2018-06-29 09:52:27.187500,-2.05,54.3
129767,2018-06-29 09:52:27.218750,12.88,54.3
129768,2018-06-29 09:52:27.250000,21.53,54.3
129769,2018-06-29 09:52:27.281250,25.06,54.3
129770,2018-06-29 09:52:27.312500,25.69,54.3
129771,2018-06-29 09:52:27.343750,25.02,54.3
129772,2018-06-29 09:52:27.375000,23.84,54.3
129773,2018-06-29 09:52:27.406250,22.81,54.3
129774,2018-06-29 09:52:27.437500,22.33,54.3
129775,2018-06-29 09:52:27.468750,22.54,54.3
129776,2018-06-29 09:52:27.500000,23.06,54.3
129777,2018-06-29 09:52:27.531250,23.35,53.7
129778,2018-06-29 09:52:27.562500,23.24,53.7
129779,2018-06-29 09:52:27.593750,22.35,53.7
129780,2018-06-29 09:52:27.625000,19.8,53.7
129781,2018-06-29 09:52:27.656250,15.68,53.7
129782,2018-06-29 09:52:27.687500,11.0,53.7
129783,2018-06-29 09:52:27.718750,6.14,53.7
129784,2018-06-29 09:52:27.750000,0.73,53.7
129785,2018-06-29 09:52:27.781250,-4.97,53.7
129786,2018-06-29 09:52:27.812500,-9.88,53.7
129787,2018-06-29 09:52:27.843750,-13.38,53.7
129788,2018-06-29 09:52:27.875000,-16.03,53.7
129789,2018-06-29 09:52:27.906250,-19.49,53.7
129790,2018-06-29 09:52:27.937500,-25.67,53.7
129791,2018-06-29 09:52:27.968750,-34.52,53.7
129792,2018-06-29 09:52:28.000000,-41.58,53.7
129793,2018-06-29 09:52:28.031250,-40.21,53.7
129794,2018-06-29 09:52:28.062500,-28.45,53.7
129795,2018-06-29 09:52:28.093750,-11.36,53.7
129796,2018-06-29 09:52:28.125000,4.39,53.7
129797,2018-06-29 09:52:28.156250,15.48,53.7
129798,2018-06-29 09:52:28.187500,21.25,53.7
129799,2018-06-29 09:52:28.218750,22.22,53.7
129800,2018-06-29 09:52:28.250000,20.28,53.7
129801,2018-06-29 09:52:28.281250,18.26,53.7
129802,2018-06-29 09:52:28.312500,17.57,53.7
129803,2018-06-29 09:52:28.343750,17.27,53.7
129804,2018-06-29 09:52:28.375000,16.56,53.7
129805,2018-06-29 09:52:28.406250,16.09,53.7
129806,2018-06-29 09:52:28.437500,16.08,53.7
129807,2018-06-29 09:52:28.468750,15.19,53.7
129808,2018-06-29 09:52:28.500000,12.18,53.7
129809,2018-06-29 09:52:28.531250,7.45,53.13
129810,2018-06-29 09:52:28.562500,2.76,53.13
129811,2018-06-29 09:52:28.593750,-0.8,53.13
129812,2018-06-29 09:52:28.625000,-4.31,53.13
129813,2018-06-29 09:52:28.656250,-9.45,53.13
129814,2018-06-29 09:52:28.687500,-15.25,53.13
129815,2018-06-29 09:52:28.718750,-19.46,53.13
129816,2018-06-29 09:52:28.750000,-22.4,53.13
129817,2018-06-29 09:52:28.781250,-26.51,53.13
129818,2018-06-29 09:52:28.812500,-32.86,53.13
129819,2018-06-29 09:52:28.843750,-39.36,53.13
129820,2018-06-29 09:52:28.875000,-41.17,53.13
129821,2018-06-29 09:52:28.906250,-34.2,53.13
129822,2018-06-29 09:52:28.937500,-19.52,53.13
129823,2018-06-29 09:52:28.968750,-3.16,53.13
129824,2018-06-29 09:52:29.000000,9.52,53.13
129825,2018-06-29 09:52:29.031250,17.07,53.13
129826,2018-06-29 09:52:29.062500,20.82,53.13
129827,2018-06-29 09:52:29.093750,22.37,53.13
129828,2018-06-29 09:52:29.125000,22.59,53.13
129829,2018-06-29 09:52:29.156250,22.18,53.13
129830,2018-06-29 09:52:29.187500,22.26,53.13
129831,2018-06-29 09:52:29.218750,23.19,53.13
129832,2018-06-29 09:52:29.250000,24.2,53.13
129833,2018-06-29 09:52:29.281250,24.56,53.13
129834,2018-06-29 09:52:29.312500,24.08,53.13
129835,2018-06-29 09:52:29.343750,22.65,53.13
129836,2018-06-29 09:52:29.375000,20.39,53.13
129837,2018-06-29 09:52:29.406250,17.57,53.13
129838,2018-06-29 09:52:29.437500,14.08,53.13
129839,2018-06-29 09:52:29.468750,10.13,53.13
129840,2018-06-29 09:52:29.500000,6.54,53.13
129841,2018-06-29 09:52:29.531250,3.25,52.62
129842,2018-06-29 09:52:29.562500,-0.44,52.62
129843,2018-06-29 09:52:29.593750,-4.05,52.62
129844,2018-06-29 09:52:29.625000,-6.89,52.62
129845,2018-06-29 09:52:29.656250,-9.84,52.62
129846,2018-06-29 09:52:29.687500,-14.21,52.62
129847,2018-06-29 09:52:29.718750,-19.68,52.62
129848,2018-06-29 09:52:29.750000,-25.22,52.62
129849,2018-06-29 09:52:29.781250,-30.22,52.62
129850,2018-06-29 09:52:29.812500,-34.53,52.62
129851,2018-06-29 09:52:29.843750,-38.99,52.62
129852,2018-06-29 09:52:29.875000,-44.42,52.62
129853,2018-06-29 09:52:29.906250,-48.34,52.62
129854,2018-06-29 09:52:29.937500,-45.21,52.62
129855,2018-06-29 09:52:29.968750,-32.41,52.62
129856,2018-06-29 09:52:30.000000,-14.14,52.62
129857,2018-06-29 09:52:30.031250,2.87,52.62
129858,2018-06-29 09:52:30.062500,15.26,52.62
129859,2018-06-29 09:52:30.093750,23.05,52.62
129860,2018-06-29 09:52:30.125000,26.9,52.62
129861,2018-06-29 09:52:30.156250,27.87,52.62
129862,2018-06-29 09:52:30.187500,27.92,52.62
129863,2018-06-29 09:52:30.218750,28.63,52.62
129864,2018-06-29 09:52:30.250000,29.53,52.62
129865,2018-06-29 09:52:30.281250,29.47,52.62
129866,2018-06-29 09:52:30.312500,28.48,52.62
129867,2018-06-29 09:52:30.343750,27.26,52.62
129868,2018-06-29 09:52:30.375000,25.68,52.62
129869,2018-06-29 09:52:30.406250,22.9,52.62
129870,2018-06-29 09:52:30.437500,19.0,52.62
129871,2018-06-29 09:52:30.468750,15.18,52.62
129872,2018-06-29 09:52:30.500000,12.1,52.62
129873,2018-06-29 09:52:30.531250,9.34,52.67
129874,2018-06-29 09:52:30.562500,6.59,52.67
129875,2018-06-29 09:52:30.593750,4.06,52.67
129876,2018-06-29 09:52:30.625000,1.34,52.67
129877,2018-06-29 09:52:30.656250,-2.45,52.67
129878,2018-06-29 09:52:30.687500,-7.02,52.67
129879,2018-06-29 09:52:30.718750,-11.04,52.67
129880,2018-06-29 09:52:30.750000,-13.76,52.67
129881,2018-06-29 09:52:30.781250,-15.36,52.67
129882,2018-06-29 09:52:30.812500,-16.53,52.67
129883,2018-06-29 09:52:30.843750,-18.29,52.67
129884,2018-06-29 09:52:30.875000,-21.39,52.67
129885,2018-06-29 09:52:30.906250,-25.5,52.67
129886,2018-06-29 09:52:30.937500,-29.58,52.67
129887,2018-06-29 09:52:30.968750,-33.37,52.67
129888,2018-06-29 09:52:31.000000,-37.9,52.67
129889,2018-06-29 09:52:31.031250,-43.56,52.67
129890,2018-06-29 09:52:31.062500,-47.39,52.67
129891,2018-06-29 09:52:31.093750,-44.02,52.67
129892,2018-06-29 09:52:31.125000,-31.7,52.67
129893,2018-06-29 09:52:31.156250,-15.16,52.67
129894,2018-06-29 09:52:31.187500,-0.62,52.67
129895,2018-06-29 09:52:31.218750,9.18,52.67
129896,2018-06-29 09:52:31.250000,14.59,52.67
129897,2018-06-29 09:52:31.281250,16.95,52.67
129898,2018-06-29 09:52:31.312500,17.48,52.67
129899,2018-06-29 09:52:31.343750,17.36,52.67
129900,2018-06-29 09:52:31.375000,17.77,52.67
129901,2018-06-29 09:52:31.406250,19.44,52.67
129902,2018-06-29 09:52:31.437500,21.89,52.67
129903,2018-06-29 09:52:31.468750,23.85,52.67
129904,2018-06-29 09:52:31.500000,24.57,52.67
129905,2018-06-29 09:52:31.531250,24.33,52.72
129906,2018-06-29 09:52:31.562500,23.75,52.72
129907,2018-06-29 09:52:31.593750,22.78,52.72
129908,2018-06-29 09:52:31.625000,21.05,52.72
129909,2018-06-29 09:52:31.656250,18.59,52.72
129910,2018-06-29 09:52:31.687500,15.55,52.72
129911,2018-06-29 09:52:31.718750,11.96,52.72
129912,2018-06-29 09:52:31.750000,8.13,52.72
129913,2018-06-29 09:52:31.781250,4.05,52.72
129914,2018-06-29 09:52:31.812500,-0.58,52.72
129915,2018-06-29 09:52:31.843750,-5.0,52.72
129916,2018-06-29 09:52:31.875000,-7.88,52.72
129917,2018-06-29 09:52:31.906250,-9.75,52.72
129918,2018-06-29 09:52:31.937500,-12.68,52.72
129919,2018-06-29 09:52:31.968750,-17.27,52.72
129920,2018-06-29 09:52:32.000000,-22.19,52.72
129921,2018-06-29 09:52:32.031250,-26.5,52.72
129922,2018-06-29 09:52:32.062500,-30.81,52.72
129923,2018-06-29 09:52:32.093750,-36.33,52.72
129924,2018-06-29 09:52:32.125000,-42.7,52.72
129925,2018-06-29 09:52:32.156250,-46.02,52.72
129926,2018-06-29 09:52:32.187500,-41.04,52.72
129927,2018-06-29 09:52:32.218750,-27.54,52.72
129928,2018-06-29 09:52:32.250000,-11.77,52.72
129929,2018-06-29 09:52:32.281250,0.51,52.72
129930,2018-06-29 09:52:32.312500,8.81,52.72
129931,2018-06-29 09:52:32.343750,14.87,52.72
129932,2018-06-29 09:52:32.375000,19.0,52.72
129933,2018-06-29 09:52:32.406250,20.87,52.72
129934,2018-06-29 09:52:32.437500,21.16,52.72
129935,2018-06-29 09:52:32.468750,21.06,52.72
129936,2018-06-29 09:52:32.500000,21.24,52.72
129937,2018-06-29 09:52:32.531250,22.0,52.77
129938,2018-06-29 09:52:32.562500,23.23,52.77
129939,2018-06-29 09:52:32.593750,24.15,52.77
129940,2018-06-29 09:52:32.625000,23.39,52.77
129941,2018-06-29 09:52:32.656250,20.58,52.77
129942,2018-06-29 09:52:32.687500,17.09,52.77
129943,2018-06-29 09:52:32.718750,14.39,52.77
129944,2018-06-29 09:52:32.750000,12.07,52.77
129945,2018-06-29 09:52:32.781250,9.18,52.77
129946,2018-06-29 09:52:32.812500,5.98,52.77
129947,2018-06-29 09:52:32.843750,2.92,52.77
129948,2018-06-29 09:52:32.875000,-0.19,52.77
129949,2018-06-29 09:52:32.906250,-2.93,52.77
129950,2018-06-29 09:52:32.937500,-4.59,52.77
129951,2018-06-29 09:52:32.968750,-6.11,52.77
129952,2018-06-29 09:52:33.000000,-9.11,52.77
129953,2018-06-29 09:52:33.031250,-13.33,52.77
129954,2018-06-29 09:52:33.062500,-17.93,52.77
129955,2018-06-29 09:52:33.093750,-22.74,52.77
129956,2018-06-29 09:52:33.125000,-26.98,52.77
129957,2018-06-29 09:52:33.156250,-30.35,52.77
129958,2018-06-29 09:52:33.187500,-34.43,52.77
129959,2018-06-29 09:52:33.218750,-39.97,52.77
129960,2018-06-29 09:52:33.250000,-43.75,52.77
129961,2018-06-29 09:52:33.281250,-40.89,52.77
129962,2018-06-29 09:52:33.312500,-29.5,52.77
129963,2018-06-29 09:52:33.343750,-12.94,52.77
129964,2018-06-29 09:52:33.375000,2.53,52.77
129965,2018-06-29 09:52:33.406250,12.84,52.77
129966,2018-06-29 09:52:33.437500,18.01,52.77
129967,2018-06-29 09:52:33.468750,19.71,52.77
129968,2018-06-29 09:52:33.500000,19.41,52.77
129969,2018-06-29 09:52:33.531250,18.99,53.05
129970,2018-06-29 09:52:33.562500,19.85,53.05
129971,2018-06-29 09:52:33.593750,21.57,53.05
129972,2018-06-29 09:52:33.625000,22.96,53.05
129973,2018-06-29 09:52:33.656250,23.82,53.05
129974,2018-06-29 09:52:33.687500,24.45,53.05
129975,2018-06-29 09:52:33.718750,24.21,53.05
129976,2018-06-29 09:52:33.750000,22.04,53.05
129977,2018-06-29 09:52:33.781250,18.34,53.05
129978,2018-06-29 09:52:33.812500,14.99,53.05
129979,2018-06-29 09:52:33.843750,13.19,53.05
129980,2018-06-29 09:52:33.875000,11.75,53.05
129981,2018-06-29 09:52:33.906250,8.78,53.05
129982,2018-06-29 09:52:33.937500,4.48,53.05
129983,2018-06-29 09:52:33.968750,1.15,53.05
129984,2018-06-29 09:52:34.000000,-0.19,53.05
129985,2018-06-29 09:52:34.031250,-1.61,53.05
129986,2018-06-29 09:52:34.062500,-5.02,53.05
129987,2018-06-29 09:52:34.093750,-8.34,53.05
129988,2018-06-29 09:52:34.125000,-8.71,53.05
129989,2018-06-29 09:52:34.156250,-7.67,53.05
129990,2018-06-29 09:52:34.187500,-8.6,53.05
129991,2018-06-29 09:52:34.218750,-10.48,53.05
129992,2018-06-29 09:52:34.250000,-8.97,53.05
129993,2018-06-29 09:52:34.281250,-2.7,53.05
129994,2018-06-29 09:52:34.312500,3.53,53.05
129995,2018-06-29 09:52:34.343750,2.09,53.05
129996,2018-06-29 09:52:34.375000,-7.64,53.05
129997,2018-06-29 09:52:34.406250,-13.58,53.05
129998,2018-06-29 09:52:34.437500,-3.68,53.05
129999,2018-06-29 09:52:34.468750,15.61,53.05
130000,2018-06-29 09:52:34.500000,24.83,53.05
130001,2018-06-29 09:52:34.531250,17.16,53.28
130002,2018-06-29 09:52:34.562500,5.59,53.28
130003,2018-06-29 09:52:34.593750,2.9,53.28
130004,2018-06-29 09:52:34.625000,6.17,53.28
130005,2018-06-29 09:52:34.656250,4.66,53.28
130006,2018-06-29 09:52:34.687500,-5.77,53.28
130007,2018-06-29 09:52:34.718750,-19.37,53.28
130008,2018-06-29 09:52:34.750000,-26.9,53.28
130009,2018-06-29 09:52:34.781250,-25.76,53.28
130010,2018-06-29 09:52:34.812500,-22.47,53.28
130011,2018-06-29 09:52:34.843750,-21.22,53.28
130012,2018-06-29 09:52:34.875000,-17.13,53.28
130013,2018-06-29 09:52:34.906250,-7.21,53.28
130014,2018-06-29 09:52:34.937500,1.65,53.28
130015,2018-06-29 09:52:34.968750,3.16,53.28
130016,2018-06-29 09:52:35.000000,-1.24,53.28
130017,2018-06-29 09:52:35.031250,-9.07,53.28
130018,2018-06-29 09:52:35.062500,-19.06,53.28
130019,2018-06-29 09:52:35.093750,-27.91,53.28
130020,2018-06-29 09:52:35.125000,-32.37,53.28
130021,2018-06-29 09:52:35.156250,-32.89,53.28
130022,2018-06-29 09:52:35.187500,-32.37,53.28
130023,2018-06-29 09:52:35.218750,-31.79,53.28
130024,2018-06-29 09:52:35.250000,-30.04,53.28
130025,2018-06-29 09:52:35.281250,-27.57,53.28
130026,2018-06-29 09:52:35.312500,-27.39,53.28
130027,2018-06-29 09:52:35.343750,-31.62,53.28
130028,2018-06-29 09:52:35.375000,-38.94,53.28
130029,2018-06-29 09:52:35.406250,-46.46,53.28
130030,2018-06-29 09:52:35.437500,-52.73,53.28
130031,2018-06-29 09:52:35.468750,-56.06,53.28
130032,2018-06-29 09:52:35.500000,-52.46,53.28
130033,2018-06-29 09:52:35.531250,-39.55,53.58
130034,2018-06-29 09:52:35.562500,-21.34,53.58
130035,2018-06-29 09:52:35.593750,-5.23,53.58
130036,2018-06-29 09:52:35.625000,5.41,53.58
130037,2018-06-29 09:52:35.656250,12.02,53.58
130038,2018-06-29 09:52:35.687500,16.38,53.58
130039,2018-06-29 09:52:35.718750,18.47,53.58
130040,2018-06-29 09:52:35.750000,18.73,53.58
130041,2018-06-29 09:52:35.781250,18.89,53.58
130042,2018-06-29 09:52:35.812500,20.11,53.58
130043,2018-06-29 09:52:35.843750,21.91,53.58
130044,2018-06-29 09:52:35.875000,23.65,53.58
130045,2018-06-29 09:52:35.906250,25.38,53.58
130046,2018-06-29 09:52:35.937500,26.76,53.58
130047,2018-06-29 09:52:35.968750,26.67,53.58
130048,2018-06-29 09:52:36.000000,24.76,53.58
130049,2018-06-29 09:52:36.031250,21.87,53.58
130050,2018-06-29 09:52:36.062500,18.95,53.58
130051,2018-06-29 09:52:36.093750,16.43,53.58
130052,2018-06-29 09:52:36.125000,14.41,53.58
130053,2018-06-29 09:52:36.156250,12.5,53.58
130054,2018-06-29 09:52:36.187500,10.37,53.58
130055,2018-06-29 09:52:36.218750,8.06,53.58
130056,2018-06-29 09:52:36.250000,5.1,53.58
130057,2018-06-29 09:52:36.281250,0.6,53.58
130058,2018-06-29 09:52:36.312500,-5.2,53.58
130059,2018-06-29 09:52:36.343750,-10.7,53.58
130060,2018-06-29 09:52:36.375000,-14.79,53.58
130061,2018-06-29 09:52:36.406250,-17.85,53.58
130062,2018-06-29 09:52:36.437500,-21.48,53.58
130063,2018-06-29 09:52:36.468750,-26.49,53.58
130064,2018-06-29 09:52:36.500000,-30.21,53.58
130065,2018-06-29 09:52:36.531250,-26.87,53.92
130066,2018-06-29 09:52:36.562500,-14.16,53.92
130067,2018-06-29 09:52:36.593750,2.13,53.92
130068,2018-06-29 09:52:36.625000,14.03,53.92
130069,2018-06-29 09:52:36.656250,19.93,53.92
130070,2018-06-29 09:52:36.687500,23.33,53.92
130071,2018-06-29 09:52:36.718750,26.49,53.92
130072,2018-06-29 09:52:36.750000,29.19,53.92
130073,2018-06-29 09:52:36.781250,30.97,53.92
130074,2018-06-29 09:52:36.812500,32.06,53.92
130075,2018-06-29 09:52:36.843750,32.95,53.92
130076,2018-06-29 09:52:36.875000,34.04,53.92
130077,2018-06-29 09:52:36.906250,35.33,53.92
130078,2018-06-29 09:52:36.937500,36.12,53.92
130079,2018-06-29 09:52:36.968750,35.25,53.92
130080,2018-06-29 09:52:37.000000,32.29,53.92
130081,2018-06-29 09:52:37.031250,28.2,53.92
130082,2018-06-29 09:52:37.062500,24.29,53.92
130083,2018-06-29 09:52:37.093750,21.13,53.92
130084,2018-06-29 09:52:37.125000,18.85,53.92
130085,2018-06-29 09:52:37.156250,16.74,53.92
130086,2018-06-29 09:52:37.187500,14.03,53.92
130087,2018-06-29 09:52:37.218750,11.15,53.92
130088,2018-06-29 09:52:37.250000,9.03,53.92
130089,2018-06-29 09:52:37.281250,6.92,53.92
130090,2018-06-29 09:52:37.312500,3.48,53.92
130091,2018-06-29 09:52:37.343750,-0.85,53.92
130092,2018-06-29 09:52:37.375000,-4.59,53.92
130093,2018-06-29 09:52:37.406250,-7.27,53.92
130094,2018-06-29 09:52:37.437500,-9.84,53.92
130095,2018-06-29 09:52:37.468750,-13.68,53.92
130096,2018-06-29 09:52:37.500000,-19.18,53.92
130097,2018-06-29 09:52:37.531250,-23.75,54.25
130098,2018-06-29 09:52:37.562500,-22.33,54.25
130099,2018-06-29 09:52:37.593750,-12.66,54.25
130100,2018-06-29 09:52:37.625000,1.05,54.25
130101,2018-06-29 09:52:37.656250,12.18,54.25
130102,2018-06-29 09:52:37.687500,18.14,54.25
130103,2018-06-29 09:52:37.718750,20.39,54.25
130104,2018-06-29 09:52:37.750000,20.43,54.25
130105,2018-06-29 09:52:37.781250,18.67,54.25
130106,2018-06-29 09:52:37.812500,15.87,54.25
130107,2018-06-29 09:52:37.843750,13.68,54.25
130108,2018-06-29 09:52:37.875000,13.05,54.25
130109,2018-06-29 09:52:37.906250,13.42,54.25
130110,2018-06-29 09:52:37.937500,13.93,54.25
130111,2018-06-29 09:52:37.968750,13.94,54.25
130112,2018-06-29 09:52:38.000000,12.12,54.25
130113,2018-06-29 09:52:38.031250,7.36,54.25
130114,2018-06-29 09:52:38.062500,0.58,54.25
130115,2018-06-29 09:52:38.093750,-6.11,54.25
130116,2018-06-29 09:52:38.125000,-11.6,54.25
130117,2018-06-29 09:52:38.156250,-15.72,54.25
130118,2018-06-29 09:52:38.187500,-18.13,54.25
130119,2018-06-29 09:52:38.218750,-18.68,54.25
130120,2018-06-29 09:52:38.250000,-18.22,54.25
130121,2018-06-29 09:52:38.281250,-17.6,54.25
130122,2018-06-29 09:52:38.312500,-16.09,54.25
130123,2018-06-29 09:52:38.343750,-12.74,54.25
130124,2018-06-29 09:52:38.375000,-9.36,54.25
130125,2018-06-29 09:52:38.406250,-9.11,54.25
130126,2018-06-29 09:52:38.437500,-11.61,54.25
130127,2018-06-29 09:52:38.468750,-13.09,54.25
130128,2018-06-29 09:52:38.500000,-11.33,54.25
130129,2018-06-29 09:52:38.531250,-6.71,54.58
130130,2018-06-29 09:52:38.562500,0.29,54.58
130131,2018-06-29 09:52:38.593750,8.39,54.58
130132,2018-06-29 09:52:38.625000,14.15,54.58
130133,2018-06-29 09:52:38.656250,15.34,54.58
130134,2018-06-29 09:52:38.687500,13.49,54.58
130135,2018-06-29 09:52:38.718750,11.62,54.58
130136,2018-06-29 09:52:38.750000,11.1,54.58
130137,2018-06-29 09:52:38.781250,11.67,54.58
130138,2018-06-29 09:52:38.812500,12.35,54.58
130139,2018-06-29 09:52:38.843750,12.1,54.58
130140,2018-06-29 09:52:38.875000,10.4,54.58
130141,2018-06-29 09:52:38.906250,7.17,54.58
130142,2018-06-29 09:52:38.937500,2.52,54.58
130143,2018-06-29 09:52:38.968750,-2.19,54.58
130144,2018-06-29 09:52:39.000000,-4.82,54.58
130145,2018-06-29 09:52:39.031250,-5.14,54.58
130146,2018-06-29 09:52:39.062500,-5.43,54.58
130147,2018-06-29 09:52:39.093750,-7.47,54.58
130148,2018-06-29 09:52:39.125000,-10.3,54.58
130149,2018-06-29 09:52:39.156250,-12.04,54.58
130150,2018-06-29 09:52:39.187500,-12.46,54.58
130151,2018-06-29 09:52:39.218750,-13.56,54.58
130152,2018-06-29 09:52:39.250000,-17.89,54.58
130153,2018-06-29 09:52:39.281250,-25.64,54.58
130154,2018-06-29 09:52:39.312500,-32.28,54.58
130155,2018-06-29 09:52:39.343750,-31.15,54.58
130156,2018-06-29 09:52:39.375000,-20.66,54.58
130157,2018-06-29 09:52:39.406250,-6.12,54.58
130158,2018-06-29 09:52:39.437500,6.58,54.58
130159,2018-06-29 09:52:39.468750,15.48,54.58
130160,2018-06-29 09:52:39.500000,20.83,54.58
130161,2018-06-29 09:52:39.531250,23.44,54.83
130162,2018-06-29 09:52:39.562500,24.61,54.83
130163,2018-06-29 09:52:39.593750,24.72,54.83
130164,2018-06-29 09:52:39.625000,23.46,54.83
130165,2018-06-29 09:52:39.656250,21.49,54.83
130166,2018-06-29 09:52:39.687500,20.17,54.83
130167,2018-06-29 09:52:39.718750,20.1,54.83
130168,2018-06-29 09:52:39.750000,20.76,54.83
130169,2018-06-29 09:52:39.781250,21.03,54.83
130170,2018-06-29 09:52:39.812500,20.67,54.83
130171,2018-06-29 09:52:39.843750,20.76,54.83
130172,2018-06-29 09:52:39.875000,21.5,54.83
130173,2018-06-29 09:52:39.906250,20.95,54.83
130174,2018-06-29 09:52:39.937500,17.42,54.83
130175,2018-06-29 09:52:39.968750,11.41,54.83
130176,2018-06-29 09:52:40.000000,4.52,54.83
130177,2018-06-29 09:52:40.031250,-1.99,54.83
130178,2018-06-29 09:52:40.062500,-8.0,54.83
130179,2018-06-29 09:52:40.093750,-14.26,54.83
130180,2018-06-29 09:52:40.125000,-20.56,54.83
130181,2018-06-29 09:52:40.156250,-25.48,54.83
130182,2018-06-29 09:52:40.187500,-28.53,54.83
130183,2018-06-29 09:52:40.218750,-31.08,54.83
130184,2018-06-29 09:52:40.250000,-33.55,54.83
130185,2018-06-29 09:52:40.281250,-32.99,54.83
130186,2018-06-29 09:52:40.312500,-26.5,54.83
130187,2018-06-29 09:52:40.343750,-15.66,54.83
130188,2018-06-29 09:52:40.375000,-5.02,54.83
130189,2018-06-29 09:52:40.406250,2.8,54.83
130190,2018-06-29 09:52:40.437500,8.31,54.83
130191,2018-06-29 09:52:40.468750,12.65,54.83
130192,2018-06-29 09:52:40.500000,16.01,54.83
130193,2018-06-29 09:52:40.531250,18.01,55.08
130194,2018-06-29 09:52:40.562500,18.41,55.08
130195,2018-06-29 09:52:40.593750,17.89,55.08
130196,2018-06-29 09:52:40.625000,17.72,55.08
130197,2018-06-29 09:52:40.656250,18.58,55.08
130198,2018-06-29 09:52:40.687500,19.78,55.08
130199,2018-06-29 09:52:40.718750,20.01,55.08
130200,2018-06-29 09:52:40.750000,18.36,55.08
130201,2018-06-29 09:52:40.781250,14.9,55.08
130202,2018-06-29 09:52:40.812500,10.67,55.08
130203,2018-06-29 09:52:40.843750,6.96,55.08
130204,2018-06-29 09:52:40.875000,4.09,55.08
130205,2018-06-29 09:52:40.906250,1.86,55.08
130206,2018-06-29 09:52:40.937500,0.72,55.08
130207,2018-06-29 09:52:40.968750,0.7,55.08
130208,2018-06-29 09:52:41.000000,0.22,55.08
130209,2018-06-29 09:52:41.031250,-2.37,55.08
130210,2018-06-29 09:52:41.062500,-6.53,55.08
130211,2018-06-29 09:52:41.093750,-10.58,55.08
130212,2018-06-29 09:52:41.125000,-14.01,55.08
130213,2018-06-29 09:52:41.156250,-17.81,55.08
130214,2018-06-29 09:52:41.187500,-22.61,55.08
130215,2018-06-29 09:52:41.218750,-26.97,55.08
130216,2018-06-29 09:52:41.250000,-27.51,55.08
130217,2018-06-29 09:52:41.281250,-21.66,55.08
130218,2018-06-29 09:52:41.312500,-11.0,55.08
130219,2018-06-29 09:52:41.343750,-0.71,55.08
130220,2018-06-29 09:52:41.375000,5.83,55.08
130221,2018-06-29 09:52:41.406250,9.51,55.08
130222,2018-06-29 09:52:41.437500,12.0,55.08
130223,2018-06-29 09:52:41.468750,13.53,55.08
130224,2018-06-29 09:52:41.500000,14.58,55.08
130225,2018-06-29 09:52:41.531250,15.69,55.35
130226,2018-06-29 09:52:41.562500,16.43,55.35
130227,2018-06-29 09:52:41.593750,16.34,55.35
130228,2018-06-29 09:52:41.625000,15.65,55.35
130229,2018-06-29 09:52:41.656250,14.28,55.35
130230,2018-06-29 09:52:41.687500,12.22,55.35
130231,2018-06-29 09:52:41.718750,10.01,55.35
130232,2018-06-29 09:52:41.750000,7.73,55.35
130233,2018-06-29 09:52:41.781250,4.99,55.35
130234,2018-06-29 09:52:41.812500,2.11,55.35
130235,2018-06-29 09:52:41.843750,-0.44,55.35
130236,2018-06-29 09:52:41.875000,-3.05,55.35
130237,2018-06-29 09:52:41.906250,-6.14,55.35
130238,2018-06-29 09:52:41.937500,-9.06,55.35
130239,2018-06-29 09:52:41.968750,-11.39,55.35
130240,2018-06-29 09:52:42.000000,-13.89,55.35
130241,2018-06-29 09:52:42.031250,-17.73,55.35
130242,2018-06-29 09:52:42.062500,-23.17,55.35
130243,2018-06-29 09:52:42.093750,-29.61,55.35
130244,2018-06-29 09:52:42.125000,-34.69,55.35
130245,2018-06-29 09:52:42.156250,-34.03,55.35
130246,2018-06-29 09:52:42.187500,-25.28,55.35
130247,2018-06-29 09:52:42.218750,-11.78,55.35
130248,2018-06-29 09:52:42.250000,0.79,55.35
130249,2018-06-29 09:52:42.281250,10.01,55.35
130250,2018-06-29 09:52:42.312500,16.3,55.35
130251,2018-06-29 09:52:42.343750,19.83,55.35
130252,2018-06-29 09:52:42.375000,21.12,55.35
130253,2018-06-29 09:52:42.406250,21.39,55.35
130254,2018-06-29 09:52:42.437500,21.18,55.35
130255,2018-06-29 09:52:42.468750,20.31,55.35
130256,2018-06-29 09:52:42.500000,19.12,55.35
130257,2018-06-29 09:52:42.531250,18.3,55.75
130258,2018-06-29 09:52:42.562500,17.79,55.75
130259,2018-06-29 09:52:42.593750,16.98,55.75
130260,2018-06-29 09:52:42.625000,15.42,55.75
130261,2018-06-29 09:52:42.656250,13.4,55.75
130262,2018-06-29 09:52:42.687500,11.35,55.75
130263,2018-06-29 09:52:42.718750,8.79,55.75
130264,2018-06-29 09:52:42.750000,4.95,55.75
130265,2018-06-29 09:52:42.781250,0.58,55.75
130266,2018-06-29 09:52:42.812500,-2.46,55.75
130267,2018-06-29 09:52:42.843750,-3.96,55.75
130268,2018-06-29 09:52:42.875000,-5.31,55.75
130269,2018-06-29 09:52:42.906250,-6.99,55.75
130270,2018-06-29 09:52:42.937500,-8.76,55.75
130271,2018-06-29 09:52:42.968750,-11.42,55.75
130272,2018-06-29 09:52:43.000000,-15.47,55.75
130273,2018-06-29 09:52:43.031250,-19.83,55.75
130274,2018-06-29 09:52:43.062500,-23.44,55.75
130275,2018-06-29 09:52:43.093750,-26.39,55.75
130276,2018-06-29 09:52:43.125000,-29.18,55.75
130277,2018-06-29 09:52:43.156250,-32.36,55.75
130278,2018-06-29 09:52:43.187500,-35.69,55.75
130279,2018-06-29 09:52:43.218750,-36.42,55.75
130280,2018-06-29 09:52:43.250000,-31.2,55.75
130281,2018-06-29 09:52:43.281250,-20.33,55.75
130282,2018-06-29 09:52:43.312500,-8.17,55.75
130283,2018-06-29 09:52:43.343750,1.01,55.75
130284,2018-06-29 09:52:43.375000,6.33,55.75
130285,2018-06-29 09:52:43.406250,9.49,55.75
130286,2018-06-29 09:52:43.437500,11.75,55.75
130287,2018-06-29 09:52:43.468750,13.18,55.75
130288,2018-06-29 09:52:43.500000,14.18,55.75
130289,2018-06-29 09:52:43.531250,15.35,55.92
130290,2018-06-29 09:52:43.562500,16.12,55.92
130291,2018-06-29 09:52:43.593750,15.9,55.92
130292,2018-06-29 09:52:43.625000,15.62,55.92
130293,2018-06-29 09:52:43.656250,16.19,55.92
130294,2018-06-29 09:52:43.687500,16.36,55.92
130295,2018-06-29 09:52:43.718750,14.66,55.92
130296,2018-06-29 09:52:43.750000,11.89,55.92
130297,2018-06-29 09:52:43.781250,9.65,55.92
130298,2018-06-29 09:52:43.812500,8.37,55.92
130299,2018-06-29 09:52:43.843750,7.8,55.92
130300,2018-06-29 09:52:43.875000,7.71,55.92
130301,2018-06-29 09:52:43.906250,7.61,55.92
130302,2018-06-29 09:52:43.937500,6.73,55.92
130303,2018-06-29 09:52:43.968750,4.88,55.92
130304,2018-06-29 09:52:44.000000,2.4,55.92
130305,2018-06-29 09:52:44.031250,-0.12,55.92
130306,2018-06-29 09:52:44.062500,-2.31,55.92
130307,2018-06-29 09:52:44.093750,-4.32,55.92
130308,2018-06-29 09:52:44.125000,-6.53,55.92
130309,2018-06-29 09:52:44.156250,-9.41,55.92
130310,2018-06-29 09:52:44.187500,-13.02,55.92
130311,2018-06-29 09:52:44.218750,-16.45,55.92
130312,2018-06-29 09:52:44.250000,-18.84,55.92
130313,2018-06-29 09:52:44.281250,-21.29,55.92
130314,2018-06-29 09:52:44.312500,-25.56,55.92
130315,2018-06-29 09:52:44.343750,-30.49,55.92
130316,2018-06-29 09:52:44.375000,-31.87,55.92
130317,2018-06-29 09:52:44.406250,-26.72,55.92
130318,2018-06-29 09:52:44.437500,-16.58,55.92
130319,2018-06-29 09:52:44.468750,-5.62,55.92
130320,2018-06-29 09:52:44.500000,3.06,55.92
130321,2018-06-29 09:52:44.531250,8.69,56.07
130322,2018-06-29 09:52:44.562500,11.95,56.07
130323,2018-06-29 09:52:44.593750,13.76,56.07
130324,2018-06-29 09:52:44.625000,14.7,56.07
130325,2018-06-29 09:52:44.656250,15.27,56.07
130326,2018-06-29 09:52:44.687500,15.63,56.07
130327,2018-06-29 09:52:44.718750,15.25,56.07
130328,2018-06-29 09:52:44.750000,14.21,56.07
130329,2018-06-29 09:52:44.781250,13.74,56.07
130330,2018-06-29 09:52:44.812500,14.09,56.07
130331,2018-06-29 09:52:44.843750,14.06,56.07
130332,2018-06-29 09:52:44.875000,12.97,56.07
130333,2018-06-29 09:52:44.906250,11.15,56.07
130334,2018-06-29 09:52:44.937500,9.16,56.07
130335,2018-06-29 09:52:44.968750,7.34,56.07
130336,2018-06-29 09:52:45.000000,5.58,56.07
130337,2018-06-29 09:52:45.031250,3.56,56.07
130338,2018-06-29 09:52:45.062500,1.54,56.07
130339,2018-06-29 09:52:45.093750,-0.12,56.07
130340,2018-06-29 09:52:45.125000,-2.08,56.07
130341,2018-06-29 09:52:45.156250,-4.96,56.07
130342,2018-06-29 09:52:45.187500,-8.23,56.07
130343,2018-06-29 09:52:45.218750,-10.86,56.07
130344,2018-06-29 09:52:45.250000,-12.72,56.07
130345,2018-06-29 09:52:45.281250,-14.43,56.07
130346,2018-06-29 09:52:45.312500,-16.2,56.07
130347,2018-06-29 09:52:45.343750,-17.88,56.07
130348,2018-06-29 09:52:45.375000,-19.9,56.07
130349,2018-06-29 09:52:45.406250,-23.19,56.07
130350,2018-06-29 09:52:45.437500,-27.58,56.07
130351,2018-06-29 09:52:45.468750,-30.47,56.07
130352,2018-06-29 09:52:45.500000,-28.01,56.07
130353,2018-06-29 09:52:45.531250,-19.16,56.2
130354,2018-06-29 09:52:45.562500,-7.43,56.2
130355,2018-06-29 09:52:45.593750,2.95,56.2
130356,2018-06-29 09:52:45.625000,10.09,56.2
130357,2018-06-29 09:52:45.656250,13.63,56.2
130358,2018-06-29 09:52:45.687500,14.18,56.2
130359,2018-06-29 09:52:45.718750,13.44,56.2
130360,2018-06-29 09:52:45.750000,12.79,56.2
130361,2018-06-29 09:52:45.781250,12.65,56.2
130362,2018-06-29 09:52:45.812500,13.07,56.2
130363,2018-06-29 09:52:45.843750,13.66,56.2
130364,2018-06-29 09:52:45.875000,13.93,56.2
130365,2018-06-29 09:52:45.906250,14.31,56.2
130366,2018-06-29 09:52:45.937500,15.24,56.2
130367,2018-06-29 09:52:45.968750,15.84,56.2
130368,2018-06-29 09:52:46.000000,14.77,56.2
130369,2018-06-29 09:52:46.031250,11.61,56.2
130370,2018-06-29 09:52:46.062500,7.09,56.2
130371,2018-06-29 09:52:46.093750,2.34,56.2
130372,2018-06-29 09:52:46.125000,-1.61,56.2
130373,2018-06-29 09:52:46.156250,-4.14,56.2
130374,2018-06-29 09:52:46.187500,-5.19,56.2
130375,2018-06-29 09:52:46.218750,-5.28,56.2
130376,2018-06-29 09:52:46.250000,-5.26,56.2
130377,2018-06-29 09:52:46.281250,-6.12,56.2
130378,2018-06-29 09:52:46.312500,-8.36,56.2
130379,2018-06-29 09:52:46.343750,-11.21,56.2
130380,2018-06-29 09:52:46.375000,-13.87,56.2
130381,2018-06-29 09:52:46.406250,-17.13,56.2
130382,2018-06-29 09:52:46.437500,-21.19,56.2
130383,2018-06-29 09:52:46.468750,-24.31,56.2
130384,2018-06-29 09:52:46.500000,-25.75,56.2
130385,2018-06-29 09:52:46.531250,-27.38,56.3
130386,2018-06-29 09:52:46.562500,-30.95,56.3
130387,2018-06-29 09:52:46.593750,-34.79,56.3
130388,2018-06-29 09:52:46.625000,-34.46,56.3
130389,2018-06-29 09:52:46.656250,-27.17,56.3
130390,2018-06-29 09:52:46.687500,-15.14,56.3
130391,2018-06-29 09:52:46.718750,-3.68,56.3
130392,2018-06-29 09:52:46.750000,3.56,56.3
130393,2018-06-29 09:52:46.781250,6.59,56.3
130394,2018-06-29 09:52:46.812500,7.97,56.3
130395,2018-06-29 09:52:46.843750,9.83,56.3
130396,2018-06-29 09:52:46.875000,11.84,56.3
130397,2018-06-29 09:52:46.906250,12.85,56.3
130398,2018-06-29 09:52:46.937500,13.1,56.3
130399,2018-06-29 09:52:46.968750,13.14,56.3
130400,2018-06-29 09:52:47.000000,12.86,56.3
130401,2018-06-29 09:52:47.031250,12.5,56.3
130402,2018-06-29 09:52:47.062500,12.56,56.3
130403,2018-06-29 09:52:47.093750,12.48,56.3
130404,2018-06-29 09:52:47.125000,11.54,56.3
130405,2018-06-29 09:52:47.156250,10.22,56.3
130406,2018-06-29 09:52:47.187500,9.14,56.3
130407,2018-06-29 09:52:47.218750,8.07,56.3
130408,2018-06-29 09:52:47.250000,6.65,56.3
130409,2018-06-29 09:52:47.281250,5.18,56.3
130410,2018-06-29 09:52:47.312500,3.66,56.3
130411,2018-06-29 09:52:47.343750,1.44,56.3
130412,2018-06-29 09:52:47.375000,-1.99,56.3
130413,2018-06-29 09:52:47.406250,-6.41,56.3
130414,2018-06-29 09:52:47.437500,-10.93,56.3
130415,2018-06-29 09:52:47.468750,-14.42,56.3
130416,2018-06-29 09:52:47.500000,-16.48,56.3
130417,2018-06-29 09:52:47.531250,-18.2,56.38
130418,2018-06-29 09:52:47.562500,-21.46,56.38
130419,2018-06-29 09:52:47.593750,-26.83,56.38
130420,2018-06-29 09:52:47.625000,-32.02,56.38
130421,2018-06-29 09:52:47.656250,-32.49,56.38
130422,2018-06-29 09:52:47.687500,-25.18,56.38
130423,2018-06-29 09:52:47.718750,-11.89,56.38
130424,2018-06-29 09:52:47.750000,1.98,56.38
130425,2018-06-29 09:52:47.781250,12.11,56.38
130426,2018-06-29 09:52:47.812500,17.67,56.38
130427,2018-06-29 09:52:47.843750,20.26,56.38
130428,2018-06-29 09:52:47.875000,21.81,56.38
130429,2018-06-29 09:52:47.906250,23.24,56.38
130430,2018-06-29 09:52:47.937500,24.72,56.38
130431,2018-06-29 09:52:47.968750,25.94,56.38
130432,2018-06-29 09:52:48.000000,26.5,56.38
130433,2018-06-29 09:52:48.031250,26.18,56.38
130434,2018-06-29 09:52:48.062500,25.32,56.38
130435,2018-06-29 09:52:48.093750,23.63,56.38
130436,2018-06-29 09:52:48.125000,20.4,56.38
130437,2018-06-29 09:52:48.156250,16.31,56.38
130438,2018-06-29 09:52:48.187500,13.2,56.38
130439,2018-06-29 09:52:48.218750,11.38,56.38
130440,2018-06-29 09:52:48.250000,9.35,56.38
130441,2018-06-29 09:52:48.281250,6.4,56.38
130442,2018-06-29 09:52:48.312500,3.0,56.38
130443,2018-06-29 09:52:48.343750,-0.65,56.38
130444,2018-06-29 09:52:48.375000,-4.79,56.38
130445,2018-06-29 09:52:48.406250,-9.44,56.38
130446,2018-06-29 09:52:48.437500,-13.79,56.38
130447,2018-06-29 09:52:48.468750,-16.81,56.38
130448,2018-06-29 09:52:48.500000,-18.84,56.38
130449,2018-06-29 09:52:48.531250,-21.5,56.45
130450,2018-06-29 09:52:48.562500,-25.72,56.45
130451,2018-06-29 09:52:48.593750,-30.51,56.45
130452,2018-06-29 09:52:48.625000,-32.96,56.45
130453,2018-06-29 09:52:48.656250,-29.55,56.45
130454,2018-06-29 09:52:48.687500,-19.48,56.45
130455,2018-06-29 09:52:48.718750,-6.42,56.45
130456,2018-06-29 09:52:48.750000,4.88,56.45
130457,2018-06-29 09:52:48.781250,12.37,56.45
130458,2018-06-29 09:52:48.812500,16.35,56.45
130459,2018-06-29 09:52:48.843750,17.79,56.45
130460,2018-06-29 09:52:48.875000,17.83,56.45
130461,2018-06-29 09:52:48.906250,17.51,56.45
130462,2018-06-29 09:52:48.937500,17.36,56.45
130463,2018-06-29 09:52:48.968750,17.35,56.45
130464,2018-06-29 09:52:49.000000,17.32,56.45
130465,2018-06-29 09:52:49.031250,17.19,56.45
130466,2018-06-29 09:52:49.062500,16.78,56.45
130467,2018-06-29 09:52:49.093750,15.86,56.45
130468,2018-06-29 09:52:49.125000,14.3,56.45
130469,2018-06-29 09:52:49.156250,12.36,56.45
130470,2018-06-29 09:52:49.187500,10.64,56.45
130471,2018-06-29 09:52:49.218750,9.73,56.45
130472,2018-06-29 09:52:49.250000,8.97,56.45
130473,2018-06-29 09:52:49.281250,6.8,56.45
130474,2018-06-29 09:52:49.312500,3.01,56.45
130475,2018-06-29 09:52:49.343750,-1.28,56.45
130476,2018-06-29 09:52:49.375000,-5.35,56.45
130477,2018-06-29 09:52:49.406250,-9.2,56.45
130478,2018-06-29 09:52:49.437500,-12.82,56.45
130479,2018-06-29 09:52:49.468750,-15.98,56.45
130480,2018-06-29 09:52:49.500000,-18.42,56.45
130481,2018-06-29 09:52:49.531250,-20.02,56.52
130482,2018-06-29 09:52:49.562500,-21.95,56.52
130483,2018-06-29 09:52:49.593750,-26.01,56.52
130484,2018-06-29 09:52:49.625000,-31.88,56.52
130485,2018-06-29 09:52:49.656250,-36.12,56.52
130486,2018-06-29 09:52:49.687500,-34.32,56.52
130487,2018-06-29 09:52:49.718750,-24.92,56.52
130488,2018-06-29 09:52:49.750000,-11.29,56.52
130489,2018-06-29 09:52:49.781250,0.65,56.52
130490,2018-06-29 09:52:49.812500,8.09,56.52
130491,2018-06-29 09:52:49.843750,12.91,56.52
130492,2018-06-29 09:52:49.875000,17.17,56.52
130493,2018-06-29 09:52:49.906250,20.1,56.52
130494,2018-06-29 09:52:49.937500,20.71,56.52
130495,2018-06-29 09:52:49.968750,20.02,56.52
130496,2018-06-29 09:52:50.000000,19.59,56.52
130497,2018-06-29 09:52:50.031250,19.87,56.52
130498,2018-06-29 09:52:50.062500,20.47,56.52
130499,2018-06-29 09:52:50.093750,20.73,56.52
130500,2018-06-29 09:52:50.125000,20.14,56.52
130501,2018-06-29 09:52:50.156250,18.62,56.52
130502,2018-06-29 09:52:50.187500,16.31,56.52
130503,2018-06-29 09:52:50.218750,13.52,56.52
130504,2018-06-29 09:52:50.250000,10.91,56.52
130505,2018-06-29 09:52:50.281250,9.02,56.52
130506,2018-06-29 09:52:50.312500,7.97,56.52
130507,2018-06-29 09:52:50.343750,7.38,56.52
130508,2018-06-29 09:52:50.375000,6.04,56.52
130509,2018-06-29 09:52:50.406250,3.0,56.52
130510,2018-06-29 09:52:50.437500,-0.88,56.52
130511,2018-06-29 09:52:50.468750,-3.94,56.52
130512,2018-06-29 09:52:50.500000,-5.86,56.52
130513,2018-06-29 09:52:50.531250,-7.98,56.58
130514,2018-06-29 09:52:50.562500,-11.19,56.58
130515,2018-06-29 09:52:50.593750,-14.46,56.58
130516,2018-06-29 09:52:50.625000,-16.15,56.58
130517,2018-06-29 09:52:50.656250,-16.89,56.58
130518,2018-06-29 09:52:50.687500,-19.45,56.58
130519,2018-06-29 09:52:50.718750,-24.25,56.58
130520,2018-06-29 09:52:50.750000,-26.73,56.58
130521,2018-06-29 09:52:50.781250,-21.8,56.58
130522,2018-06-29 09:52:50.812500,-10.48,56.58
130523,2018-06-29 09:52:50.843750,1.61,56.58
130524,2018-06-29 09:52:50.875000,11.24,56.58
130525,2018-06-29 09:52:50.906250,18.78,56.58
130526,2018-06-29 09:52:50.937500,23.92,56.58
130527,2018-06-29 09:52:50.968750,25.06,56.58
130528,2018-06-29 09:52:51.000000,22.67,56.58
130529,2018-06-29 09:52:51.031250,19.03,56.58
130530,2018-06-29 09:52:51.062500,15.8,56.58
130531,2018-06-29 09:52:51.093750,13.13,56.58
130532,2018-06-29 09:52:51.125000,10.25,56.58
130533,2018-06-29 09:52:51.156250,6.77,56.58
130534,2018-06-29 09:52:51.187500,4.01,56.58
130535,2018-06-29 09:52:51.218750,4.28,56.58
130536,2018-06-29 09:52:51.250000,7.87,56.58
130537,2018-06-29 09:52:51.281250,12.16,56.58
130538,2018-06-29 09:52:51.312500,13.65,56.58
130539,2018-06-29 09:52:51.343750,10.99,56.58
130540,2018-06-29 09:52:51.375000,6.19,56.58
130541,2018-06-29 09:52:51.406250,2.69,56.58
130542,2018-06-29 09:52:51.437500,2.06,56.58
130543,2018-06-29 09:52:51.468750,2.85,56.58
130544,2018-06-29 09:52:51.500000,3.03,56.58
130545,2018-06-29 09:52:51.531250,2.21,56.62
130546,2018-06-29 09:52:51.562500,1.07,56.62
130547,2018-06-29 09:52:51.593750,-0.29,56.62
130548,2018-06-29 09:52:51.625000,-2.18,56.62
130549,2018-06-29 09:52:51.656250,-4.72,56.62
130550,2018-06-29 09:52:51.687500,-8.18,56.62
130551,2018-06-29 09:52:51.718750,-12.36,56.62
130552,2018-06-29 09:52:51.750000,-16.21,56.62
130553,2018-06-29 09:52:51.781250,-19.38,56.62
130554,2018-06-29 09:52:51.812500,-22.9,56.62
130555,2018-06-29 09:52:51.843750,-26.77,56.62
130556,2018-06-29 09:52:51.875000,-28.12,56.62
130557,2018-06-29 09:52:51.906250,-24.06,56.62
130558,2018-06-29 09:52:51.937500,-15.41,56.62
130559,2018-06-29 09:52:51.968750,-6.28,56.62
130560,2018-06-29 09:52:52.000000,0.12,56.62
130561,2018-06-29 09:52:52.031250,3.62,56.62
130562,2018-06-29 09:52:52.062500,5.92,56.62
130563,2018-06-29 09:52:52.093750,8.67,56.62
130564,2018-06-29 09:52:52.125000,12.22,56.62
130565,2018-06-29 09:52:52.156250,15.5,56.62
130566,2018-06-29 09:52:52.187500,17.17,56.62
130567,2018-06-29 09:52:52.218750,16.87,56.62
130568,2018-06-29 09:52:52.250000,14.98,56.62
130569,2018-06-29 09:52:52.281250,12.31,56.62
130570,2018-06-29 09:52:52.312500,9.94,56.62
130571,2018-06-29 09:52:52.343750,8.54,56.62
130572,2018-06-29 09:52:52.375000,7.46,56.62
130573,2018-06-29 09:52:52.406250,5.52,56.62
130574,2018-06-29 09:52:52.437500,2.59,56.62
130575,2018-06-29 09:52:52.468750,-0.54,56.62
130576,2018-06-29 09:52:52.500000,-3.13,56.62
130577,2018-06-29 09:52:52.531250,-5.24,56.7
130578,2018-06-29 09:52:52.562500,-7.63,56.7
130579,2018-06-29 09:52:52.593750,-10.73,56.7
130580,2018-06-29 09:52:52.625000,-13.89,56.7
130581,2018-06-29 09:52:52.656250,-16.44,56.7
130582,2018-06-29 09:52:52.687500,-19.22,56.7
130583,2018-06-29 09:52:52.718750,-23.04,56.7
130584,2018-06-29 09:52:52.750000,-27.17,56.7
130585,2018-06-29 09:52:52.781250,-29.32,56.7
130586,2018-06-29 09:52:52.812500,-26.65,56.7
130587,2018-06-29 09:52:52.843750,-18.18,56.7
130588,2018-06-29 09:52:52.875000,-6.68,56.7
130589,2018-06-29 09:52:52.906250,3.55,56.7
130590,2018-06-29 09:52:52.937500,10.08,56.7
130591,2018-06-29 09:52:52.968750,12.91,56.7
130592,2018-06-29 09:52:53.000000,13.11,56.7
130593,2018-06-29 09:52:53.031250,12.52,56.7
130594,2018-06-29 09:52:53.062500,12.33,56.7
130595,2018-06-29 09:52:53.093750,12.43,56.7
130596,2018-06-29 09:52:53.125000,12.5,56.7
130597,2018-06-29 09:52:53.156250,12.31,56.7
130598,2018-06-29 09:52:53.187500,11.48,56.7
130599,2018-06-29 09:52:53.218750,10.0,56.7
130600,2018-06-29 09:52:53.250000,8.57,56.7
130601,2018-06-29 09:52:53.281250,6.9,56.7
130602,2018-06-29 09:52:53.312500,3.83,56.7
130603,2018-06-29 09:52:53.343750,-0.22,56.7
130604,2018-06-29 09:52:53.375000,-3.39,56.7
130605,2018-06-29 09:52:53.406250,-5.36,56.7
130606,2018-06-29 09:52:53.437500,-7.78,56.7
130607,2018-06-29 09:52:53.468750,-11.12,56.7
130608,2018-06-29 09:52:53.500000,-14.08,56.7
130609,2018-06-29 09:52:53.531250,-16.18,56.8
130610,2018-06-29 09:52:53.562500,-18.8,56.8
130611,2018-06-29 09:52:53.593750,-23.13,56.8
130612,2018-06-29 09:52:53.625000,-28.34,56.8
130613,2018-06-29 09:52:53.656250,-31.52,56.8
130614,2018-06-29 09:52:53.687500,-29.41,56.8
130615,2018-06-29 09:52:53.718750,-21.34,56.8
