,Time,ppg,hr
137600,2018-06-29 09:56:32.000000,-11.67,105.77
137601,2018-06-29 09:56:32.031250,-3.98,105.77
137602,2018-06-29 09:56:32.062500,2.96,105.77
137603,2018-06-29 09:56:32.093750,10.2,105.77
137604,2018-06-29 09:56:32.125000,18.85,105.77
137605,2018-06-29 09:56:32.156250,28.68,105.77
137606,2018-06-29 09:56:32.187500,37.84,105.77
137607,2018-06-29 09:56:32.218750,45.78,105.77
137608,2018-06-29 09:56:32.250000,54.75,105.77
137609,2018-06-29 09:56:32.281250,65.51,105.77
137610,2018-06-29 09:56:32.312500,76.39,105.77
137611,2018-06-29 09:56:32.343750,90.58,105.77
137612,2018-06-29 09:56:32.375000,116.12,105.77
137613,2018-06-29 09:56:32.406250,154.31,105.77
137614,2018-06-29 09:56:32.437500,192.1,105.77
137615,2018-06-29 09:56:32.468750,210.16,105.77
137616,2018-06-29 09:56:32.500000,200.5,105.77
137617,2018-06-29 09:56:32.531250,173.84,105.5
137618,2018-06-29 09:56:32.562500,146.0,105.5
137619,2018-06-29 09:56:32.593750,121.15,105.5
137620,2018-06-29 09:56:32.625000,92.47,105.5
137621,2018-06-29 09:56:32.656250,51.73,105.5
137622,2018-06-29 09:56:32.687500,-0.43,105.5
137623,2018-06-29 09:56:32.718750,-50.99,105.5
137624,2018-06-29 09:56:32.750000,-85.53,105.5
137625,2018-06-29 09:56:32.781250,-102.01,105.5
137626,2018-06-29 09:56:32.812500,-108.74,105.5
137627,2018-06-29 09:56:32.843750,-115.08,105.5
137628,2018-06-29 09:56:32.875000,-128.24,105.5
137629,2018-06-29 09:56:32.906250,-149.5,105.5
137630,2018-06-29 09:56:32.937500,-175.51,105.5
137631,2018-06-29 09:56:32.968750,-193.27,105.5
137632,2018-06-29 09:56:33.000000,-180.84,105.5
137633,2018-06-29 09:56:33.031250,-134.31,105.5
137634,2018-06-29 09:56:33.062500,-73.59,105.5
137635,2018-06-29 09:56:33.093750,-18.07,105.5
137636,2018-06-29 09:56:33.125000,28.41,105.5
137637,2018-06-29 09:56:33.156250,63.82,105.5
137638,2018-06-29 09:56:33.187500,79.91,105.5
137639,2018-06-29 09:56:33.218750,76.13,105.5
137640,2018-06-29 09:56:33.250000,65.0,105.5
137641,2018-06-29 09:56:33.281250,56.39,105.5
137642,2018-06-29 09:56:33.312500,46.6,105.5
137643,2018-06-29 09:56:33.343750,31.89,105.5
137644,2018-06-29 09:56:33.375000,15.74,105.5
137645,2018-06-29 09:56:33.406250,5.96,105.5
137646,2018-06-29 09:56:33.437500,4.51,105.5
137647,2018-06-29 09:56:33.468750,7.68,105.5
137648,2018-06-29 09:56:33.500000,10.72,105.5
137649,2018-06-29 09:56:33.531250,8.05,105.23
137650,2018-06-29 09:56:33.562500,-7.54,105.23
137651,2018-06-29 09:56:33.593750,-35.44,105.23
137652,2018-06-29 09:56:33.625000,-61.77,105.23
137653,2018-06-29 09:56:33.656250,-73.76,105.23
137654,2018-06-29 09:56:33.687500,-74.78,105.23
137655,2018-06-29 09:56:33.718750,-75.33,105.23
137656,2018-06-29 09:56:33.750000,-76.55,105.23
137657,2018-06-29 09:56:33.781250,-75.92,105.23
137658,2018-06-29 09:56:33.812500,-77.41,105.23
137659,2018-06-29 09:56:33.843750,-83.5,105.23
137660,2018-06-29 09:56:33.875000,-86.23,105.23
137661,2018-06-29 09:56:33.906250,-75.36,105.23
137662,2018-06-29 09:56:33.937500,-49.32,105.23
137663,2018-06-29 09:56:33.968750,-16.42,105.23
137664,2018-06-29 09:56:34.000000,8.76,105.23
137665,2018-06-29 09:56:34.031250,15.36,105.23
137666,2018-06-29 09:56:34.062500,7.26,105.23
137667,2018-06-29 09:56:34.093750,-3.7,105.23
137668,2018-06-29 09:56:34.125000,-14.67,105.23
137669,2018-06-29 09:56:34.156250,-31.59,105.23
137670,2018-06-29 09:56:34.187500,-55.85,105.23
137671,2018-06-29 09:56:34.218750,-80.62,105.23
137672,2018-06-29 09:56:34.250000,-97.06,105.23
137673,2018-06-29 09:56:34.281250,-98.59,105.23
137674,2018-06-29 09:56:34.312500,-85.44,105.23
137675,2018-06-29 09:56:34.343750,-66.43,105.23
137676,2018-06-29 09:56:34.375000,-49.48,105.23
137677,2018-06-29 09:56:34.406250,-31.1,105.23
137678,2018-06-29 09:56:34.437500,-3.76,105.23
137679,2018-06-29 09:56:34.468750,28.06,105.23
137680,2018-06-29 09:56:34.500000,49.74,105.23
137681,2018-06-29 09:56:34.531250,53.51,105.02
137682,2018-06-29 09:56:34.562500,43.14,105.02
137683,2018-06-29 09:56:34.593750,25.45,105.02
137684,2018-06-29 09:56:34.625000,5.77,105.02
137685,2018-06-29 09:56:34.656250,-12.82,105.02
137686,2018-06-29 09:56:34.687500,-31.3,105.02
137687,2018-06-29 09:56:34.718750,-49.66,105.02
137688,2018-06-29 09:56:34.750000,-58.61,105.02
137689,2018-06-29 09:56:34.781250,-45.88,105.02
137690,2018-06-29 09:56:34.812500,-11.79,105.02
137691,2018-06-29 09:56:34.843750,29.34,105.02
137692,2018-06-29 09:56:34.875000,63.37,105.02
137693,2018-06-29 09:56:34.906250,86.25,105.02
137694,2018-06-29 09:56:34.937500,100.42,105.02
137695,2018-06-29 09:56:34.968750,108.14,105.02
137696,2018-06-29 09:56:35.000000,110.05,105.02
137697,2018-06-29 09:56:35.031250,106.72,105.02
137698,2018-06-29 09:56:35.062500,99.89,105.02
137699,2018-06-29 09:56:35.093750,91.45,105.02
137700,2018-06-29 09:56:35.125000,81.73,105.02
137701,2018-06-29 09:56:35.156250,69.54,105.02
137702,2018-06-29 09:56:35.187500,53.91,105.02
137703,2018-06-29 09:56:35.218750,35.06,105.02
137704,2018-06-29 09:56:35.250000,16.37,105.02
137705,2018-06-29 09:56:35.281250,4.23,105.02
137706,2018-06-29 09:56:35.312500,0.89,105.02
137707,2018-06-29 09:56:35.343750,-0.2,105.02
137708,2018-06-29 09:56:35.375000,-7.22,105.02
137709,2018-06-29 09:56:35.406250,-21.91,105.02
137710,2018-06-29 09:56:35.437500,-41.89,105.02
137711,2018-06-29 09:56:35.468750,-63.95,105.02
137712,2018-06-29 09:56:35.500000,-81.51,105.02
137713,2018-06-29 09:56:35.531250,-85.71,104.72
137714,2018-06-29 09:56:35.562500,-72.82,104.72
137715,2018-06-29 09:56:35.593750,-48.24,104.72
137716,2018-06-29 09:56:35.625000,-21.4,104.72
137717,2018-06-29 09:56:35.656250,1.46,104.72
137718,2018-06-29 09:56:35.687500,17.96,104.72
137719,2018-06-29 09:56:35.718750,26.6,104.72
137720,2018-06-29 09:56:35.750000,26.63,104.72
137721,2018-06-29 09:56:35.781250,20.43,104.72
137722,2018-06-29 09:56:35.812500,12.74,104.72
137723,2018-06-29 09:56:35.843750,7.22,104.72
137724,2018-06-29 09:56:35.875000,5.12,104.72
137725,2018-06-29 09:56:35.906250,6.8,104.72
137726,2018-06-29 09:56:35.937500,12.86,104.72
137727,2018-06-29 09:56:35.968750,23.05,104.72
137728,2018-06-29 09:56:36.000000,34.39,104.72
137729,2018-06-29 09:56:36.031250,42.18,104.72
137730,2018-06-29 09:56:36.062500,45.03,104.72
137731,2018-06-29 09:56:36.093750,46.52,104.72
137732,2018-06-29 09:56:36.125000,48.48,104.72
137733,2018-06-29 09:56:36.156250,45.71,104.72
137734,2018-06-29 09:56:36.187500,31.07,104.72
137735,2018-06-29 09:56:36.218750,5.64,104.72
137736,2018-06-29 09:56:36.250000,-17.83,104.72
137737,2018-06-29 09:56:36.281250,-24.53,104.72
137738,2018-06-29 09:56:36.312500,-12.76,104.72
137739,2018-06-29 09:56:36.343750,3.94,104.72
137740,2018-06-29 09:56:36.375000,11.66,104.72
137741,2018-06-29 09:56:36.406250,8.48,104.72
137742,2018-06-29 09:56:36.437500,0.98,104.72
137743,2018-06-29 09:56:36.468750,-6.14,104.72
137744,2018-06-29 09:56:36.500000,-12.8,104.72
137745,2018-06-29 09:56:36.531250,-17.92,104.4
137746,2018-06-29 09:56:36.562500,-15.69,104.4
137747,2018-06-29 09:56:36.593750,-0.99,104.4
137748,2018-06-29 09:56:36.625000,24.14,104.4
137749,2018-06-29 09:56:36.656250,52.58,104.4
137750,2018-06-29 09:56:36.687500,77.54,104.4
137751,2018-06-29 09:56:36.718750,94.07,104.4
137752,2018-06-29 09:56:36.750000,99.64,104.4
137753,2018-06-29 09:56:36.781250,94.39,104.4
137754,2018-06-29 09:56:36.812500,77.66,104.4
137755,2018-06-29 09:56:36.843750,45.36,104.4
137756,2018-06-29 09:56:36.875000,-5.78,104.4
137757,2018-06-29 09:56:36.906250,-72.18,104.4
137758,2018-06-29 09:56:36.937500,-142.08,104.4
137759,2018-06-29 09:56:36.968750,-197.1,104.4
137760,2018-06-29 09:56:37.000000,-218.57,104.4
137761,2018-06-29 09:56:37.031250,-200.31,104.4
137762,2018-06-29 09:56:37.062500,-153.37,104.4
137763,2018-06-29 09:56:37.093750,-93.89,104.4
137764,2018-06-29 09:56:37.125000,-32.1,104.4
137765,2018-06-29 09:56:37.156250,25.12,104.4
137766,2018-06-29 09:56:37.187500,72.0,104.4
137767,2018-06-29 09:56:37.218750,106.89,104.4
137768,2018-06-29 09:56:37.250000,130.26,104.4
137769,2018-06-29 09:56:37.281250,140.11,104.4
137770,2018-06-29 09:56:37.312500,134.51,104.4
137771,2018-06-29 09:56:37.343750,115.58,104.4
137772,2018-06-29 09:56:37.375000,87.93,104.4
137773,2018-06-29 09:56:37.406250,56.22,104.4
137774,2018-06-29 09:56:37.437500,23.23,104.4
137775,2018-06-29 09:56:37.468750,-9.69,104.4
137776,2018-06-29 09:56:37.500000,-41.61,104.4
137777,2018-06-29 09:56:37.531250,-69.55,104.08
137778,2018-06-29 09:56:37.562500,-91.67,104.08
137779,2018-06-29 09:56:37.593750,-110.24,104.08
137780,2018-06-29 09:56:37.625000,-128.73,104.08
137781,2018-06-29 09:56:37.656250,-147.76,104.08
137782,2018-06-29 09:56:37.687500,-159.76,104.08
137783,2018-06-29 09:56:37.718750,-150.49,104.08
137784,2018-06-29 09:56:37.750000,-105.3,104.08
137785,2018-06-29 09:56:37.781250,-27.05,104.08
137786,2018-06-29 09:56:37.812500,63.52,104.08
137787,2018-06-29 09:56:37.843750,143.65,104.08
137788,2018-06-29 09:56:37.875000,200.02,104.08
137789,2018-06-29 09:56:37.906250,225.53,104.08
137790,2018-06-29 09:56:37.937500,211.07,104.08
137791,2018-06-29 09:56:37.968750,161.85,104.08
137792,2018-06-29 09:56:38.000000,92.58,104.08
137793,2018-06-29 09:56:38.031250,17.14,104.08
137794,2018-06-29 09:56:38.062500,-54.18,104.08
137795,2018-06-29 09:56:38.093750,-113.55,104.08
137796,2018-06-29 09:56:38.125000,-155.51,104.08
137797,2018-06-29 09:56:38.156250,-178.24,104.08
137798,2018-06-29 09:56:38.187500,-183.87,104.08
137799,2018-06-29 09:56:38.218750,-174.8,104.08
137800,2018-06-29 09:56:38.250000,-147.64,104.08
137801,2018-06-29 09:56:38.281250,-100.03,104.08
137802,2018-06-29 09:56:38.312500,-34.37,104.08
137803,2018-06-29 09:56:38.343750,37.09,104.08
137804,2018-06-29 09:56:38.375000,97.7,104.08
137805,2018-06-29 09:56:38.406250,133.91,104.08
137806,2018-06-29 09:56:38.437500,144.15,104.08
137807,2018-06-29 09:56:38.468750,136.22,104.08
137808,2018-06-29 09:56:38.500000,115.6,104.08
137809,2018-06-29 09:56:38.531250,84.72,103.8
137810,2018-06-29 09:56:38.562500,47.8,103.8
137811,2018-06-29 09:56:38.593750,15.23,103.8
137812,2018-06-29 09:56:38.625000,-10.49,103.8
137813,2018-06-29 09:56:38.656250,-37.13,103.8
137814,2018-06-29 09:56:38.687500,-72.5,103.8
137815,2018-06-29 09:56:38.718750,-108.9,103.8
137816,2018-06-29 09:56:38.750000,-130.21,103.8
137817,2018-06-29 09:56:38.781250,-129.72,103.8
137818,2018-06-29 09:56:38.812500,-95.41,103.8
137819,2018-06-29 09:56:38.843750,-39.17,103.8
137820,2018-06-29 09:56:38.875000,23.28,103.8
137821,2018-06-29 09:56:38.906250,105.37,103.8
137822,2018-06-29 09:56:38.937500,196.58,103.8
137823,2018-06-29 09:56:38.968750,253.29,103.8
137824,2018-06-29 09:56:39.000000,243.61,103.8
137825,2018-06-29 09:56:39.031250,174.75,103.8
137826,2018-06-29 09:56:39.062500,75.33,103.8
137827,2018-06-29 09:56:39.093750,-25.31,103.8
137828,2018-06-29 09:56:39.125000,-106.51,103.8
137829,2018-06-29 09:56:39.156250,-157.18,103.8
137830,2018-06-29 09:56:39.187500,-181.67,103.8
137831,2018-06-29 09:56:39.218750,-187.46,103.8
137832,2018-06-29 09:56:39.250000,-175.43,103.8
137833,2018-06-29 09:56:39.281250,-145.0,103.8
137834,2018-06-29 09:56:39.312500,-103.31,103.8
137835,2018-06-29 09:56:39.343750,-62.99,103.8
137836,2018-06-29 09:56:39.375000,-29.06,103.8
137837,2018-06-29 09:56:39.406250,3.23,103.8
137838,2018-06-29 09:56:39.437500,40.55,103.8
137839,2018-06-29 09:56:39.468750,81.39,103.8
137840,2018-06-29 09:56:39.500000,116.41,103.8
137841,2018-06-29 09:56:39.531250,135.02,103.52
137842,2018-06-29 09:56:39.562500,130.8,103.52
137843,2018-06-29 09:56:39.593750,104.19,103.52
137844,2018-06-29 09:56:39.625000,62.94,103.52
137845,2018-06-29 09:56:39.656250,19.12,103.52
137846,2018-06-29 09:56:39.687500,-16.96,103.52
137847,2018-06-29 09:56:39.718750,-41.29,103.52
137848,2018-06-29 09:56:39.750000,-55.85,103.52
137849,2018-06-29 09:56:39.781250,-64.37,103.52
137850,2018-06-29 09:56:39.812500,-68.1,103.52
137851,2018-06-29 09:56:39.843750,-65.89,103.52
137852,2018-06-29 09:56:39.875000,-56.91,103.52
137853,2018-06-29 09:56:39.906250,-43.6,103.52
137854,2018-06-29 09:56:39.937500,-31.96,103.52
137855,2018-06-29 09:56:39.968750,-24.4,103.52
137856,2018-06-29 09:56:40.000000,-14.36,103.52
137857,2018-06-29 09:56:40.031250,4.86,103.52
137858,2018-06-29 09:56:40.062500,28.83,103.52
137859,2018-06-29 09:56:40.093750,47.01,103.52
137860,2018-06-29 09:56:40.125000,54.59,103.52
137861,2018-06-29 09:56:40.156250,53.19,103.52
137862,2018-06-29 09:56:40.187500,44.98,103.52
137863,2018-06-29 09:56:40.218750,32.0,103.52
137864,2018-06-29 09:56:40.250000,17.95,103.52
137865,2018-06-29 09:56:40.281250,7.31,103.52
137866,2018-06-29 09:56:40.312500,2.99,103.52
137867,2018-06-29 09:56:40.343750,4.69,103.52
137868,2018-06-29 09:56:40.375000,9.18,103.52
137869,2018-06-29 09:56:40.406250,12.42,103.52
137870,2018-06-29 09:56:40.437500,11.62,103.52
137871,2018-06-29 09:56:40.468750,5.45,103.52
137872,2018-06-29 09:56:40.500000,-6.24,103.52
137873,2018-06-29 09:56:40.531250,-21.44,103.27
137874,2018-06-29 09:56:40.562500,-35.82,103.27
137875,2018-06-29 09:56:40.593750,-44.53,103.27
137876,2018-06-29 09:56:40.625000,-44.72,103.27
137877,2018-06-29 09:56:40.656250,-36.93,103.27
137878,2018-06-29 09:56:40.687500,-25.86,103.27
137879,2018-06-29 09:56:40.718750,-18.98,103.27
137880,2018-06-29 09:56:40.750000,-19.6,103.27
137881,2018-06-29 09:56:40.781250,-21.29,103.27
137882,2018-06-29 09:56:40.812500,-15.19,103.27
137883,2018-06-29 09:56:40.843750,-1.69,103.27
137884,2018-06-29 09:56:40.875000,11.78,103.27
137885,2018-06-29 09:56:40.906250,21.85,103.27
137886,2018-06-29 09:56:40.937500,30.53,103.27
137887,2018-06-29 09:56:40.968750,39.55,103.27
137888,2018-06-29 09:56:41.000000,49.48,103.27
137889,2018-06-29 09:56:41.031250,60.3,103.27
137890,2018-06-29 09:56:41.062500,68.83,103.27
137891,2018-06-29 09:56:41.093750,69.08,103.27
137892,2018-06-29 09:56:41.125000,58.39,103.27
137893,2018-06-29 09:56:41.156250,40.27,103.27
137894,2018-06-29 09:56:41.187500,21.32,103.27
137895,2018-06-29 09:56:41.218750,9.39,103.27
137896,2018-06-29 09:56:41.250000,11.65,103.27
137897,2018-06-29 09:56:41.281250,28.66,103.27
137898,2018-06-29 09:56:41.312500,52.45,103.27
137899,2018-06-29 09:56:41.343750,70.89,103.27
137900,2018-06-29 09:56:41.375000,70.95,103.27
137901,2018-06-29 09:56:41.406250,42.64,103.27
137902,2018-06-29 09:56:41.437500,-12.47,103.27
137903,2018-06-29 09:56:41.468750,-79.95,103.27
137904,2018-06-29 09:56:41.500000,-142.02,103.27
137905,2018-06-29 09:56:41.531250,-184.09,102.98
137906,2018-06-29 09:56:41.562500,-195.09,102.98
137907,2018-06-29 09:56:41.593750,-172.89,102.98
137908,2018-06-29 09:56:41.625000,-129.0,102.98
137909,2018-06-29 09:56:41.656250,-79.06,102.98
137910,2018-06-29 09:56:41.687500,-31.13,102.98
137911,2018-06-29 09:56:41.718750,11.11,102.98
137912,2018-06-29 09:56:41.750000,40.55,102.98
137913,2018-06-29 09:56:41.781250,52.57,102.98
137914,2018-06-29 09:56:41.812500,53.47,102.98
137915,2018-06-29 09:56:41.843750,52.65,102.98
137916,2018-06-29 09:56:41.875000,51.18,102.98
137917,2018-06-29 09:56:41.906250,41.4,102.98
137918,2018-06-29 09:56:41.937500,17.04,102.98
137919,2018-06-29 09:56:41.968750,-20.59,102.98
137920,2018-06-29 09:56:42.000000,-55.8,102.98
137921,2018-06-29 09:56:42.031250,-70.29,102.98
137922,2018-06-29 09:56:42.062500,-65.23,102.98
137923,2018-06-29 09:56:42.093750,-49.84,102.98
137924,2018-06-29 09:56:42.125000,-23.62,102.98
137925,2018-06-29 09:56:42.156250,21.15,102.98
137926,2018-06-29 09:56:42.187500,76.76,102.98
137927,2018-06-29 09:56:42.218750,120.67,102.98
137928,2018-06-29 09:56:42.250000,140.76,102.98
137929,2018-06-29 09:56:42.281250,147.77,102.98
137930,2018-06-29 09:56:42.312500,151.6,102.98
137931,2018-06-29 09:56:42.343750,132.55,102.98
137932,2018-06-29 09:56:42.375000,80.05,102.98
137933,2018-06-29 09:56:42.406250,14.45,102.98
137934,2018-06-29 09:56:42.437500,-37.4,102.98
137935,2018-06-29 09:56:42.468750,-70.88,102.98
137936,2018-06-29 09:56:42.500000,-89.43,102.98
137937,2018-06-29 09:56:42.531250,-92.38,102.75
137938,2018-06-29 09:56:42.562500,-85.02,102.75
137939,2018-06-29 09:56:42.593750,-80.69,102.75
137940,2018-06-29 09:56:42.625000,-86.57,102.75
137941,2018-06-29 09:56:42.656250,-90.65,102.75
137942,2018-06-29 09:56:42.687500,-82.04,102.75
137943,2018-06-29 09:56:42.718750,-65.71,102.75
137944,2018-06-29 09:56:42.750000,-52.39,102.75
137945,2018-06-29 09:56:42.781250,-41.49,102.75
137946,2018-06-29 09:56:42.812500,-27.99,102.75
137947,2018-06-29 09:56:42.843750,-12.7,102.75
137948,2018-06-29 09:56:42.875000,1.2,102.75
137949,2018-06-29 09:56:42.906250,16.46,102.75
137950,2018-06-29 09:56:42.937500,42.2,102.75
137951,2018-06-29 09:56:42.968750,84.66,102.75
137952,2018-06-29 09:56:43.000000,136.69,102.75
137953,2018-06-29 09:56:43.031250,173.16,102.75
137954,2018-06-29 09:56:43.062500,165.98,102.75
137955,2018-06-29 09:56:43.093750,107.9,102.75
137956,2018-06-29 09:56:43.125000,19.35,102.75
137957,2018-06-29 09:56:43.156250,-66.63,102.75
137958,2018-06-29 09:56:43.187500,-121.62,102.75
137959,2018-06-29 09:56:43.218750,-133.8,102.75
137960,2018-06-29 09:56:43.250000,-112.94,102.75
137961,2018-06-29 09:56:43.281250,-80.34,102.75
137962,2018-06-29 09:56:43.312500,-51.01,102.75
137963,2018-06-29 09:56:43.343750,-28.45,102.75
137964,2018-06-29 09:56:43.375000,-12.64,102.75
137965,2018-06-29 09:56:43.406250,-4.06,102.75
137966,2018-06-29 09:56:43.437500,-0.61,102.75
137967,2018-06-29 09:56:43.468750,3.87,102.75
137968,2018-06-29 09:56:43.500000,15.05,102.75
137969,2018-06-29 09:56:43.531250,31.39,102.52
137970,2018-06-29 09:56:43.562500,46.41,102.52
137971,2018-06-29 09:56:43.593750,59.39,102.52
137972,2018-06-29 09:56:43.625000,73.19,102.52
137973,2018-06-29 09:56:43.656250,80.06,102.52
137974,2018-06-29 09:56:43.687500,65.69,102.52
137975,2018-06-29 09:56:43.718750,28.99,102.52
137976,2018-06-29 09:56:43.750000,-16.64,102.52
137977,2018-06-29 09:56:43.781250,-58.82,102.52
137978,2018-06-29 09:56:43.812500,-90.02,102.52
137979,2018-06-29 09:56:43.843750,-104.04,102.52
137980,2018-06-29 09:56:43.875000,-101.11,102.52
137981,2018-06-29 09:56:43.906250,-91.09,102.52
137982,2018-06-29 09:56:43.937500,-83.63,102.52
137983,2018-06-29 09:56:43.968750,-77.06,102.52
137984,2018-06-29 09:56:44.000000,-61.53,102.52
137985,2018-06-29 09:56:44.031250,-32.35,102.52
137986,2018-06-29 09:56:44.062500,3.48,102.52
137987,2018-06-29 09:56:44.093750,34.27,102.52
137988,2018-06-29 09:56:44.125000,53.07,102.52
137989,2018-06-29 09:56:44.156250,58.88,102.52
137990,2018-06-29 09:56:44.187500,53.8,102.52
137991,2018-06-29 09:56:44.218750,43.07,102.52
137992,2018-06-29 09:56:44.250000,34.01,102.52
137993,2018-06-29 09:56:44.281250,31.35,102.52
137994,2018-06-29 09:56:44.312500,34.15,102.52
137995,2018-06-29 09:56:44.343750,39.67,102.52
137996,2018-06-29 09:56:44.375000,48.35,102.52
137997,2018-06-29 09:56:44.406250,61.52,102.52
137998,2018-06-29 09:56:44.437500,75.75,102.52
137999,2018-06-29 09:56:44.468750,83.83,102.52
138000,2018-06-29 09:56:44.500000,81.73,102.52
138001,2018-06-29 09:56:44.531250,73.08,102.28
138002,2018-06-29 09:56:44.562500,64.77,102.28
138003,2018-06-29 09:56:44.593750,57.74,102.28
138004,2018-06-29 09:56:44.625000,43.6,102.28
138005,2018-06-29 09:56:44.656250,15.39,102.28
138006,2018-06-29 09:56:44.687500,-18.28,102.28
138007,2018-06-29 09:56:44.718750,-34.2,102.28
138008,2018-06-29 09:56:44.750000,-16.4,102.28
138009,2018-06-29 09:56:44.781250,23.42,102.28
138010,2018-06-29 09:56:44.812500,52.97,102.28
138011,2018-06-29 09:56:44.843750,48.14,102.28
138012,2018-06-29 09:56:44.875000,10.44,102.28
138013,2018-06-29 09:56:44.906250,-40.07,102.28
138014,2018-06-29 09:56:44.937500,-81.76,102.28
138015,2018-06-29 09:56:44.968750,-103.18,102.28
138016,2018-06-29 09:56:45.000000,-104.56,102.28
138017,2018-06-29 09:56:45.031250,-91.45,102.28
138018,2018-06-29 09:56:45.062500,-69.77,102.28
138019,2018-06-29 09:56:45.093750,-45.39,102.28
138020,2018-06-29 09:56:45.125000,-22.41,102.28
138021,2018-06-29 09:56:45.156250,-1.56,102.28
138022,2018-06-29 09:56:45.187500,17.45,102.28
138023,2018-06-29 09:56:45.218750,31.66,102.28
138024,2018-06-29 09:56:45.250000,36.12,102.28
138025,2018-06-29 09:56:45.281250,31.54,102.28
138026,2018-06-29 09:56:45.312500,24.72,102.28
138027,2018-06-29 09:56:45.343750,21.32,102.28
138028,2018-06-29 09:56:45.375000,17.44,102.28
138029,2018-06-29 09:56:45.406250,6.93,102.28
138030,2018-06-29 09:56:45.437500,-7.73,102.28
138031,2018-06-29 09:56:45.468750,-12.55,102.28
138032,2018-06-29 09:56:45.500000,7.46,102.28
138033,2018-06-29 09:56:45.531250,49.1,102.05
138034,2018-06-29 09:56:45.562500,94.95,102.05
138035,2018-06-29 09:56:45.593750,132.71,102.05
138036,2018-06-29 09:56:45.625000,164.89,102.05
138037,2018-06-29 09:56:45.656250,186.74,102.05
138038,2018-06-29 09:56:45.687500,181.79,102.05
138039,2018-06-29 09:56:45.718750,139.74,102.05
138040,2018-06-29 09:56:45.750000,48.47,102.05
138041,2018-06-29 09:56:45.781250,-44.58,102.05
138042,2018-06-29 09:56:45.812500,-78.65,102.05
138043,2018-06-29 09:56:45.843750,-48.65,102.05
138044,2018-06-29 09:56:45.875000,12.14,102.05
138045,2018-06-29 09:56:45.906250,71.01,102.05
138046,2018-06-29 09:56:45.937500,90.37,102.05
138047,2018-06-29 09:56:45.968750,40.32,102.05
138048,2018-06-29 09:56:46.000000,-51.82,102.05
138049,2018-06-29 09:56:46.031250,-136.94,102.05
138050,2018-06-29 09:56:46.062500,-199.66,102.05
138051,2018-06-29 09:56:46.093750,-233.93,102.05
138052,2018-06-29 09:56:46.125000,-238.56,102.05
138053,2018-06-29 09:56:46.156250,-220.79,102.05
138054,2018-06-29 09:56:46.187500,-189.35,102.05
138055,2018-06-29 09:56:46.218750,-146.44,102.05
138056,2018-06-29 09:56:46.250000,-93.29,102.05
138057,2018-06-29 09:56:46.281250,-36.75,102.05
138058,2018-06-29 09:56:46.312500,11.17,102.05
138059,2018-06-29 09:56:46.343750,42.5,102.05
138060,2018-06-29 09:56:46.375000,55.57,102.05
138061,2018-06-29 09:56:46.406250,59.42,102.05
138062,2018-06-29 09:56:46.437500,64.42,102.05
138063,2018-06-29 09:56:46.468750,65.65,102.05
138064,2018-06-29 09:56:46.500000,55.6,102.05
138065,2018-06-29 09:56:46.531250,45.27,101.85
138066,2018-06-29 09:56:46.562500,49.83,101.85
138067,2018-06-29 09:56:46.593750,60.06,101.85
138068,2018-06-29 09:56:46.625000,58.65,101.85
138069,2018-06-29 09:56:46.656250,50.11,101.85
138070,2018-06-29 09:56:46.687500,47.46,101.85
138071,2018-06-29 09:56:46.718750,46.58,101.85
138072,2018-06-29 09:56:46.750000,32.86,101.85
138073,2018-06-29 09:56:46.781250,-0.26,101.85
138074,2018-06-29 09:56:46.812500,-53.89,101.85
138075,2018-06-29 09:56:46.843750,-116.37,101.85
138076,2018-06-29 09:56:46.875000,-147.53,101.85
138077,2018-06-29 09:56:46.906250,-129.04,101.85
138078,2018-06-29 09:56:46.937500,-90.51,101.85
138079,2018-06-29 09:56:46.968750,-51.26,101.85
138080,2018-06-29 09:56:47.000000,5.81,101.85
138081,2018-06-29 09:56:47.031250,83.23,101.85
138082,2018-06-29 09:56:47.062500,133.78,101.85
138083,2018-06-29 09:56:47.093750,123.63,101.85
138084,2018-06-29 09:56:47.125000,86.08,101.85
138085,2018-06-29 09:56:47.156250,66.97,101.85
138086,2018-06-29 09:56:47.187500,68.18,101.85
138087,2018-06-29 09:56:47.218750,82.25,101.85
138088,2018-06-29 09:56:47.250000,114.53,101.85
138089,2018-06-29 09:56:47.281250,153.77,101.85
138090,2018-06-29 09:56:47.312500,164.34,101.85
138091,2018-06-29 09:56:47.343750,130.55,101.85
138092,2018-06-29 09:56:47.375000,73.19,101.85
138093,2018-06-29 09:56:47.406250,17.88,101.85
138094,2018-06-29 09:56:47.437500,-27.52,101.85
138095,2018-06-29 09:56:47.468750,-61.82,101.85
138096,2018-06-29 09:56:47.500000,-80.4,101.85
138097,2018-06-29 09:56:47.531250,-87.75,101.62
138098,2018-06-29 09:56:47.562500,-102.7,101.62
138099,2018-06-29 09:56:47.593750,-136.16,101.62
138100,2018-06-29 09:56:47.625000,-173.68,101.62
138101,2018-06-29 09:56:47.656250,-191.38,101.62
138102,2018-06-29 09:56:47.687500,-181.95,101.62
138103,2018-06-29 09:56:47.718750,-156.17,101.62
138104,2018-06-29 09:56:47.750000,-126.43,101.62
138105,2018-06-29 09:56:47.781250,-99.02,101.62
138106,2018-06-29 09:56:47.812500,-76.69,101.62
138107,2018-06-29 09:56:47.843750,-59.72,101.62
138108,2018-06-29 09:56:47.875000,-45.48,101.62
138109,2018-06-29 09:56:47.906250,-29.59,101.62
138110,2018-06-29 09:56:47.937500,-8.97,101.62
138111,2018-06-29 09:56:47.968750,15.92,101.62
138112,2018-06-29 09:56:48.000000,43.97,101.62
138113,2018-06-29 09:56:48.031250,76.67,101.62
138114,2018-06-29 09:56:48.062500,109.26,101.62
138115,2018-06-29 09:56:48.093750,122.97,101.62
138116,2018-06-29 09:56:48.125000,100.31,101.62
138117,2018-06-29 09:56:48.156250,45.73,101.62
138118,2018-06-29 09:56:48.187500,-19.56,101.62
138119,2018-06-29 09:56:48.218750,-76.68,101.62
138120,2018-06-29 09:56:48.250000,-115.82,101.62
138121,2018-06-29 09:56:48.281250,-134.17,101.62
138122,2018-06-29 09:56:48.312500,-136.78,101.62
138123,2018-06-29 09:56:48.343750,-131.31,101.62
138124,2018-06-29 09:56:48.375000,-115.43,101.62
138125,2018-06-29 09:56:48.406250,-79.78,101.62
138126,2018-06-29 09:56:48.437500,-27.54,101.62
138127,2018-06-29 09:56:48.468750,22.53,101.62
138128,2018-06-29 09:56:48.500000,55.6,101.62
138129,2018-06-29 09:56:48.531250,71.93,101.37
138130,2018-06-29 09:56:48.562500,80.65,101.37
138131,2018-06-29 09:56:48.593750,89.3,101.37
138132,2018-06-29 09:56:48.625000,96.02,101.37
138133,2018-06-29 09:56:48.656250,92.81,101.37
138134,2018-06-29 09:56:48.687500,78.69,101.37
138135,2018-06-29 09:56:48.718750,61.43,101.37
138136,2018-06-29 09:56:48.750000,46.27,101.37
138137,2018-06-29 09:56:48.781250,33.99,101.37
138138,2018-06-29 09:56:48.812500,27.84,101.37
138139,2018-06-29 09:56:48.843750,32.09,101.37
138140,2018-06-29 09:56:48.875000,45.25,101.37
138141,2018-06-29 09:56:48.906250,60.56,101.37
138142,2018-06-29 09:56:48.937500,72.35,101.37
138143,2018-06-29 09:56:48.968750,80.02,101.37
138144,2018-06-29 09:56:49.000000,85.33,101.37
138145,2018-06-29 09:56:49.031250,85.82,101.37
138146,2018-06-29 09:56:49.062500,71.17,101.37
138147,2018-06-29 09:56:49.093750,31.58,101.37
138148,2018-06-29 09:56:49.125000,-21.57,101.37
138149,2018-06-29 09:56:49.156250,-51.38,101.37
138150,2018-06-29 09:56:49.187500,-26.62,101.37
138151,2018-06-29 09:56:49.218750,44.23,101.37
138152,2018-06-29 09:56:49.250000,117.06,101.37
138153,2018-06-29 09:56:49.281250,147.68,101.37
138154,2018-06-29 09:56:49.312500,120.52,101.37
138155,2018-06-29 09:56:49.343750,51.66,101.37
138156,2018-06-29 09:56:49.375000,-26.63,101.37
138157,2018-06-29 09:56:49.406250,-86.51,101.37
138158,2018-06-29 09:56:49.437500,-117.31,101.37
138159,2018-06-29 09:56:49.468750,-124.62,101.37
138160,2018-06-29 09:56:49.500000,-118.31,101.37
138161,2018-06-29 09:56:49.531250,-102.27,101.17
138162,2018-06-29 09:56:49.562500,-77.39,101.17
138163,2018-06-29 09:56:49.593750,-49.89,101.17
138164,2018-06-29 09:56:49.625000,-29.12,101.17
138165,2018-06-29 09:56:49.656250,-16.5,101.17
138166,2018-06-29 09:56:49.687500,-6.53,101.17
138167,2018-06-29 09:56:49.718750,0.5,101.17
138168,2018-06-29 09:56:49.750000,-3.2,101.17
138169,2018-06-29 09:56:49.781250,-21.34,101.17
138170,2018-06-29 09:56:49.812500,-48.65,101.17
138171,2018-06-29 09:56:49.843750,-75.12,101.17
138172,2018-06-29 09:56:49.875000,-88.66,101.17
138173,2018-06-29 09:56:49.906250,-79.28,101.17
138174,2018-06-29 09:56:49.937500,-47.43,101.17
138175,2018-06-29 09:56:49.968750,-4.45,101.17
138176,2018-06-29 09:56:50.000000,37.51,101.17
138177,2018-06-29 09:56:50.031250,72.63,101.17
138178,2018-06-29 09:56:50.062500,99.75,101.17
138179,2018-06-29 09:56:50.093750,118.5,101.17
138180,2018-06-29 09:56:50.125000,127.7,101.17
138181,2018-06-29 09:56:50.156250,125.53,101.17
138182,2018-06-29 09:56:50.187500,110.3,101.17
138183,2018-06-29 09:56:50.218750,82.93,101.17
138184,2018-06-29 09:56:50.250000,52.25,101.17
138185,2018-06-29 09:56:50.281250,36.29,101.17
138186,2018-06-29 09:56:50.312500,49.59,101.17
138187,2018-06-29 09:56:50.343750,83.86,101.17
138188,2018-06-29 09:56:50.375000,108.01,101.17
138189,2018-06-29 09:56:50.406250,95.11,101.17
138190,2018-06-29 09:56:50.437500,44.86,101.17
138191,2018-06-29 09:56:50.468750,-24.05,101.17
138192,2018-06-29 09:56:50.500000,-92.93,101.17
138193,2018-06-29 09:56:50.531250,-148.83,101.0
138194,2018-06-29 09:56:50.562500,-182.01,101.0
138195,2018-06-29 09:56:50.593750,-187.3,101.0
138196,2018-06-29 09:56:50.625000,-164.53,101.0
138197,2018-06-29 09:56:50.656250,-119.35,101.0
138198,2018-06-29 09:56:50.687500,-65.29,101.0
138199,2018-06-29 09:56:50.718750,-16.89,101.0
138200,2018-06-29 09:56:50.750000,21.43,101.0
138201,2018-06-29 09:56:50.781250,50.38,101.0
138202,2018-06-29 09:56:50.812500,63.58,101.0
138203,2018-06-29 09:56:50.843750,53.13,101.0
138204,2018-06-29 09:56:50.875000,23.69,101.0
138205,2018-06-29 09:56:50.906250,-10.63,101.0
138206,2018-06-29 09:56:50.937500,-44.57,101.0
138207,2018-06-29 09:56:50.968750,-79.55,101.0
138208,2018-06-29 09:56:51.000000,-100.24,101.0
138209,2018-06-29 09:56:51.031250,-87.64,101.0
138210,2018-06-29 09:56:51.062500,-49.29,101.0
138211,2018-06-29 09:56:51.093750,-9.01,101.0
138212,2018-06-29 09:56:51.125000,21.3,101.0
138213,2018-06-29 09:56:51.156250,41.3,101.0
138214,2018-06-29 09:56:51.187500,52.75,101.0
138215,2018-06-29 09:56:51.218750,63.6,101.0
138216,2018-06-29 09:56:51.250000,82.96,101.0
138217,2018-06-29 09:56:51.281250,107.22,101.0
138218,2018-06-29 09:56:51.312500,118.68,101.0
138219,2018-06-29 09:56:51.343750,109.72,101.0
138220,2018-06-29 09:56:51.375000,89.81,101.0
138221,2018-06-29 09:56:51.406250,66.01,101.0
138222,2018-06-29 09:56:51.437500,37.58,101.0
138223,2018-06-29 09:56:51.468750,-4.75,101.0
138224,2018-06-29 09:56:51.500000,-58.26,101.0
138225,2018-06-29 09:56:51.531250,-106.95,100.85
138226,2018-06-29 09:56:51.562500,-133.84,100.85
138227,2018-06-29 09:56:51.593750,-130.54,100.85
138228,2018-06-29 09:56:51.625000,-97.26,100.85
138229,2018-06-29 09:56:51.656250,-44.47,100.85
138230,2018-06-29 09:56:51.687500,10.63,100.85
138231,2018-06-29 09:56:51.718750,54.87,100.85
138232,2018-06-29 09:56:51.750000,85.68,100.85
138233,2018-06-29 09:56:51.781250,104.71,100.85
138234,2018-06-29 09:56:51.812500,111.78,100.85
138235,2018-06-29 09:56:51.843750,107.89,100.85
138236,2018-06-29 09:56:51.875000,96.31,100.85
138237,2018-06-29 09:56:51.906250,84.88,100.85
138238,2018-06-29 09:56:51.937500,81.19,100.85
138239,2018-06-29 09:56:51.968750,83.55,100.85
138240,2018-06-29 09:56:52.000000,80.6,100.85
138241,2018-06-29 09:56:52.031250,64.02,100.85
138242,2018-06-29 09:56:52.062500,36.79,100.85
138243,2018-06-29 09:56:52.093750,8.4,100.85
138244,2018-06-29 09:56:52.125000,-15.24,100.85
138245,2018-06-29 09:56:52.156250,-37.48,100.85
138246,2018-06-29 09:56:52.187500,-64.86,100.85
138247,2018-06-29 09:56:52.218750,-99.58,100.85
138248,2018-06-29 09:56:52.250000,-136.26,100.85
138249,2018-06-29 09:56:52.281250,-167.58,100.85
138250,2018-06-29 09:56:52.312500,-188.81,100.85
138251,2018-06-29 09:56:52.343750,-200.34,100.85
138252,2018-06-29 09:56:52.375000,-203.67,100.85
138253,2018-06-29 09:56:52.406250,-195.77,100.85
138254,2018-06-29 09:56:52.437500,-177.32,100.85
138255,2018-06-29 09:56:52.468750,-150.67,100.85
138256,2018-06-29 09:56:52.500000,-109.81,100.85
138257,2018-06-29 09:56:52.531250,-40.39,100.72
138258,2018-06-29 09:56:52.562500,52.99,100.72
138259,2018-06-29 09:56:52.593750,139.95,100.72
138260,2018-06-29 09:56:52.625000,187.01,100.72
138261,2018-06-29 09:56:52.656250,167.0,100.72
138262,2018-06-29 09:56:52.687500,97.42,100.72
138263,2018-06-29 09:56:52.718750,20.27,100.72
138264,2018-06-29 09:56:52.750000,-43.95,100.72
138265,2018-06-29 09:56:52.781250,-91.1,100.72
138266,2018-06-29 09:56:52.812500,-115.17,100.72
138267,2018-06-29 09:56:52.843750,-111.46,100.72
138268,2018-06-29 09:56:52.875000,-81.5,100.72
138269,2018-06-29 09:56:52.906250,-32.46,100.72
138270,2018-06-29 09:56:52.937500,20.93,100.72
138271,2018-06-29 09:56:52.968750,64.3,100.72
138272,2018-06-29 09:56:53.000000,89.43,100.72
138273,2018-06-29 09:56:53.031250,97.06,100.72
138274,2018-06-29 09:56:53.062500,91.28,100.72
138275,2018-06-29 09:56:53.093750,76.87,100.72
138276,2018-06-29 09:56:53.125000,56.21,100.72
138277,2018-06-29 09:56:53.156250,32.05,100.72
138278,2018-06-29 09:56:53.187500,8.95,100.72
138279,2018-06-29 09:56:53.218750,-9.27,100.72
138280,2018-06-29 09:56:53.250000,-20.83,100.72
138281,2018-06-29 09:56:53.281250,-25.8,100.72
138282,2018-06-29 09:56:53.312500,-25.28,100.72
138283,2018-06-29 09:56:53.343750,-22.8,100.72
138284,2018-06-29 09:56:53.375000,-22.73,100.72
138285,2018-06-29 09:56:53.406250,-27.61,100.72
138286,2018-06-29 09:56:53.437500,-36.72,100.72
138287,2018-06-29 09:56:53.468750,-47.41,100.72
138288,2018-06-29 09:56:53.500000,-56.16,100.72
138289,2018-06-29 09:56:53.531250,-61.16,100.68
138290,2018-06-29 09:56:53.562500,-60.99,100.68
138291,2018-06-29 09:56:53.593750,-45.4,100.68
138292,2018-06-29 09:56:53.625000,3.87,100.68
138293,2018-06-29 09:56:53.656250,89.71,100.68
138294,2018-06-29 09:56:53.687500,182.35,100.68
138295,2018-06-29 09:56:53.718750,237.7,100.68
138296,2018-06-29 09:56:53.750000,231.46,100.68
138297,2018-06-29 09:56:53.781250,171.1,100.68
138298,2018-06-29 09:56:53.812500,84.03,100.68
138299,2018-06-29 09:56:53.843750,1.19,100.68
138300,2018-06-29 09:56:53.875000,-55.65,100.68
138301,2018-06-29 09:56:53.906250,-81.64,100.68
138302,2018-06-29 09:56:53.937500,-85.91,100.68
138303,2018-06-29 09:56:53.968750,-79.61,100.68
138304,2018-06-29 09:56:54.000000,-67.78,100.68
138305,2018-06-29 09:56:54.031250,-52.04,100.68
138306,2018-06-29 09:56:54.062500,-35.99,100.68
138307,2018-06-29 09:56:54.093750,-24.5,100.68
138308,2018-06-29 09:56:54.125000,-19.77,100.68
138309,2018-06-29 09:56:54.156250,-20.32,100.68
138310,2018-06-29 09:56:54.187500,-23.91,100.68
138311,2018-06-29 09:56:54.218750,-30.91,100.68
138312,2018-06-29 09:56:54.250000,-43.54,100.68
138313,2018-06-29 09:56:54.281250,-59.71,100.68
138314,2018-06-29 09:56:54.312500,-69.65,100.68
138315,2018-06-29 09:56:54.343750,-63.43,100.68
138316,2018-06-29 09:56:54.375000,-41.7,100.68
138317,2018-06-29 09:56:54.406250,-14.25,100.68
138318,2018-06-29 09:56:54.437500,10.62,100.68
138319,2018-06-29 09:56:54.468750,30.1,100.68
138320,2018-06-29 09:56:54.500000,43.27,100.68
138321,2018-06-29 09:56:54.531250,49.89,100.67
138322,2018-06-29 09:56:54.562500,51.88,100.67
138323,2018-06-29 09:56:54.593750,52.44,100.67
138324,2018-06-29 09:56:54.625000,54.89,100.67
138325,2018-06-29 09:56:54.656250,60.95,100.67
138326,2018-06-29 09:56:54.687500,67.79,100.67
138327,2018-06-29 09:56:54.718750,70.3,100.67
138328,2018-06-29 09:56:54.750000,68.05,100.67
138329,2018-06-29 09:56:54.781250,63.53,100.67
138330,2018-06-29 09:56:54.812500,53.49,100.67
138331,2018-06-29 09:56:54.843750,30.74,100.67
138332,2018-06-29 09:56:54.875000,-4.26,100.67
138333,2018-06-29 09:56:54.906250,-41.74,100.67
138334,2018-06-29 09:56:54.937500,-72.44,100.67
138335,2018-06-29 09:56:54.968750,-93.81,100.67
138336,2018-06-29 09:56:55.000000,-107.14,100.67
138337,2018-06-29 09:56:55.031250,-110.83,100.67
138338,2018-06-29 09:56:55.062500,-98.06,100.67
138339,2018-06-29 09:56:55.093750,-63.64,100.67
138340,2018-06-29 09:56:55.125000,-15.39,100.67
138341,2018-06-29 09:56:55.156250,30.78,100.67
138342,2018-06-29 09:56:55.187500,65.82,100.67
138343,2018-06-29 09:56:55.218750,90.43,100.67
138344,2018-06-29 09:56:55.250000,104.89,100.67
138345,2018-06-29 09:56:55.281250,106.25,100.67
138346,2018-06-29 09:56:55.312500,98.37,100.67
138347,2018-06-29 09:56:55.343750,90.37,100.67
138348,2018-06-29 09:56:55.375000,88.16,100.67
138349,2018-06-29 09:56:55.406250,88.81,100.67
138350,2018-06-29 09:56:55.437500,88.54,100.67
138351,2018-06-29 09:56:55.468750,87.04,100.67
138352,2018-06-29 09:56:55.500000,87.01,100.67
138353,2018-06-29 09:56:55.531250,94.49,100.65
138354,2018-06-29 09:56:55.562500,107.42,100.65
138355,2018-06-29 09:56:55.593750,105.04,100.65
138356,2018-06-29 09:56:55.625000,47.84,100.65
138357,2018-06-29 09:56:55.656250,-58.63,100.65
138358,2018-06-29 09:56:55.687500,-139.94,100.65
138359,2018-06-29 09:56:55.718750,-163.94,100.65
138360,2018-06-29 09:56:55.750000,-149.82,100.65
138361,2018-06-29 09:56:55.781250,-106.81,100.65
138362,2018-06-29 09:56:55.812500,-40.11,100.65
138363,2018-06-29 09:56:55.843750,35.49,100.65
138364,2018-06-29 09:56:55.875000,102.82,100.65
138365,2018-06-29 09:56:55.906250,148.63,100.65
138366,2018-06-29 09:56:55.937500,151.58,100.65
138367,2018-06-29 09:56:55.968750,85.5,100.65
138368,2018-06-29 09:56:56.000000,-15.52,100.65
138369,2018-06-29 09:56:56.031250,-102.28,100.65
138370,2018-06-29 09:56:56.062500,-154.46,100.65
138371,2018-06-29 09:56:56.093750,-178.1,100.65
138372,2018-06-29 09:56:56.125000,-181.51,100.65
138373,2018-06-29 09:56:56.156250,-167.37,100.65
138374,2018-06-29 09:56:56.187500,-144.37,100.65
138375,2018-06-29 09:56:56.218750,-123.12,100.65
138376,2018-06-29 09:56:56.250000,-107.48,100.65
138377,2018-06-29 09:56:56.281250,-95.28,100.65
138378,2018-06-29 09:56:56.312500,-80.28,100.65
138379,2018-06-29 09:56:56.343750,-53.93,100.65
138380,2018-06-29 09:56:56.375000,-24.95,100.65
138381,2018-06-29 09:56:56.406250,-11.05,100.65
138382,2018-06-29 09:56:56.437500,-5.88,100.65
138383,2018-06-29 09:56:56.468750,23.62,100.65
138384,2018-06-29 09:56:56.500000,89.29,100.65
138385,2018-06-29 09:56:56.531250,161.3,100.62
138386,2018-06-29 09:56:56.562500,200.43,100.62
138387,2018-06-29 09:56:56.593750,189.75,100.62
138388,2018-06-29 09:56:56.625000,139.67,100.62
138389,2018-06-29 09:56:56.656250,79.37,100.62
138390,2018-06-29 09:56:56.687500,42.42,100.62
138391,2018-06-29 09:56:56.718750,44.34,100.62
138392,2018-06-29 09:56:56.750000,74.9,100.62
138393,2018-06-29 09:56:56.781250,108.55,100.62
138394,2018-06-29 09:56:56.812500,119.22,100.62
138395,2018-06-29 09:56:56.843750,92.94,100.62
138396,2018-06-29 09:56:56.875000,37.16,100.62
138397,2018-06-29 09:56:56.906250,-26.05,100.62
138398,2018-06-29 09:56:56.937500,-78.99,100.62
138399,2018-06-29 09:56:56.968750,-115.55,100.62
138400,2018-06-29 09:56:57.000000,-134.98,100.62
138401,2018-06-29 09:56:57.031250,-139.7,100.62
138402,2018-06-29 09:56:57.062500,-136.96,100.62
138403,2018-06-29 09:56:57.093750,-134.56,100.62
138404,2018-06-29 09:56:57.125000,-135.54,100.62
138405,2018-06-29 09:56:57.156250,-139.09,100.62
138406,2018-06-29 09:56:57.187500,-142.86,100.62
138407,2018-06-29 09:56:57.218750,-140.82,100.62
138408,2018-06-29 09:56:57.250000,-123.72,100.62
138409,2018-06-29 09:56:57.281250,-87.19,100.62
138410,2018-06-29 09:56:57.312500,-38.24,100.62
138411,2018-06-29 09:56:57.343750,10.35,100.62
138412,2018-06-29 09:56:57.375000,49.89,100.62
138413,2018-06-29 09:56:57.406250,77.11,100.62
138414,2018-06-29 09:56:57.437500,89.61,100.62
138415,2018-06-29 09:56:57.468750,86.16,100.62
138416,2018-06-29 09:56:57.500000,69.89,100.62
138417,2018-06-29 09:56:57.531250,47.16,100.6
138418,2018-06-29 09:56:57.562500,24.03,100.6
138419,2018-06-29 09:56:57.593750,5.6,100.6
138420,2018-06-29 09:56:57.625000,-4.95,100.6
138421,2018-06-29 09:56:57.656250,-8.51,100.6
138422,2018-06-29 09:56:57.687500,-8.05,100.6
138423,2018-06-29 09:56:57.718750,-4.94,100.6
138424,2018-06-29 09:56:57.750000,0.17,100.6
138425,2018-06-29 09:56:57.781250,4.96,100.6
138426,2018-06-29 09:56:57.812500,6.31,100.6
138427,2018-06-29 09:56:57.843750,2.1,100.6
138428,2018-06-29 09:56:57.875000,-7.33,100.6
138429,2018-06-29 09:56:57.906250,-17.47,100.6
138430,2018-06-29 09:56:57.937500,-20.95,100.6
138431,2018-06-29 09:56:57.968750,-14.39,100.6
138432,2018-06-29 09:56:58.000000,-1.35,100.6
138433,2018-06-29 09:56:58.031250,13.27,100.6
138434,2018-06-29 09:56:58.062500,26.85,100.6
138435,2018-06-29 09:56:58.093750,35.56,100.6
138436,2018-06-29 09:56:58.125000,35.1,100.6
138437,2018-06-29 09:56:58.156250,27.17,100.6
138438,2018-06-29 09:56:58.187500,18.08,100.6
138439,2018-06-29 09:56:58.218750,10.85,100.6
138440,2018-06-29 09:56:58.250000,4.99,100.6
138441,2018-06-29 09:56:58.281250,1.94,100.6
138442,2018-06-29 09:56:58.312500,4.48,100.6
138443,2018-06-29 09:56:58.343750,10.99,100.6
138444,2018-06-29 09:56:58.375000,15.04,100.6
138445,2018-06-29 09:56:58.406250,11.85,100.6
138446,2018-06-29 09:56:58.437500,4.21,100.6
138447,2018-06-29 09:56:58.468750,0.04,100.6
138448,2018-06-29 09:56:58.500000,2.38,100.6
138449,2018-06-29 09:56:58.531250,3.65,100.6
138450,2018-06-29 09:56:58.562500,-5.46,100.6
138451,2018-06-29 09:56:58.593750,-22.52,100.6
138452,2018-06-29 09:56:58.625000,-34.07,100.6
138453,2018-06-29 09:56:58.656250,-30.5,100.6
138454,2018-06-29 09:56:58.687500,-14.37,100.6
138455,2018-06-29 09:56:58.718750,6.48,100.6
138456,2018-06-29 09:56:58.750000,27.66,100.6
138457,2018-06-29 09:56:58.781250,48.62,100.6
138458,2018-06-29 09:56:58.812500,68.6,100.6
138459,2018-06-29 09:56:58.843750,85.57,100.6
138460,2018-06-29 09:56:58.875000,98.84,100.6
138461,2018-06-29 09:56:58.906250,108.92,100.6
138462,2018-06-29 09:56:58.937500,112.85,100.6
138463,2018-06-29 09:56:58.968750,104.37,100.6
138464,2018-06-29 09:56:59.000000,81.96,100.6
138465,2018-06-29 09:56:59.031250,51.9,100.6
138466,2018-06-29 09:56:59.062500,23.78,100.6
138467,2018-06-29 09:56:59.093750,7.33,100.6
138468,2018-06-29 09:56:59.125000,6.35,100.6
138469,2018-06-29 09:56:59.156250,9.96,100.6
138470,2018-06-29 09:56:59.187500,-1.23,100.6
138471,2018-06-29 09:56:59.218750,-35.38,100.6
138472,2018-06-29 09:56:59.250000,-83.54,100.6
138473,2018-06-29 09:56:59.281250,-130.56,100.6
138474,2018-06-29 09:56:59.312500,-162.34,100.6
138475,2018-06-29 09:56:59.343750,-167.57,100.6
138476,2018-06-29 09:56:59.375000,-144.68,100.6
138477,2018-06-29 09:56:59.406250,-105.21,100.6
138478,2018-06-29 09:56:59.437500,-63.66,100.6
138479,2018-06-29 09:56:59.468750,-27.04,100.6
138480,2018-06-29 09:56:59.500000,3.46,100.6
138481,2018-06-29 09:56:59.531250,26.13,100.55
138482,2018-06-29 09:56:59.562500,38.88,100.55
138483,2018-06-29 09:56:59.593750,42.46,100.55
138484,2018-06-29 09:56:59.625000,40.46,100.55
138485,2018-06-29 09:56:59.656250,35.92,100.55
138486,2018-06-29 09:56:59.687500,29.53,100.55
138487,2018-06-29 09:56:59.718750,22.15,100.55
138488,2018-06-29 09:56:59.750000,16.5,100.55
138489,2018-06-29 09:56:59.781250,13.93,100.55
138490,2018-06-29 09:56:59.812500,13.33,100.55
138491,2018-06-29 09:56:59.843750,15.16,100.55
138492,2018-06-29 09:56:59.875000,22.23,100.55
138493,2018-06-29 09:56:59.906250,34.41,100.55
138494,2018-06-29 09:56:59.937500,47.74,100.55
138495,2018-06-29 09:56:59.968750,58.0,100.55
138496,2018-06-29 09:57:00.000000,60.22,100.55
138497,2018-06-29 09:57:00.031250,49.97,100.55
138498,2018-06-29 09:57:00.062500,31.44,100.55
138499,2018-06-29 09:57:00.093750,17.51,100.55
138500,2018-06-29 09:57:00.125000,17.82,100.55
138501,2018-06-29 09:57:00.156250,34.22,100.55
138502,2018-06-29 09:57:00.187500,65.67,100.55
138503,2018-06-29 09:57:00.218750,104.7,100.55
138504,2018-06-29 09:57:00.250000,130.67,100.55
138505,2018-06-29 09:57:00.281250,120.87,100.55
138506,2018-06-29 09:57:00.312500,71.79,100.55
138507,2018-06-29 09:57:00.343750,2.75,100.55
138508,2018-06-29 09:57:00.375000,-61.86,100.55
138509,2018-06-29 09:57:00.406250,-107.65,100.55
138510,2018-06-29 09:57:00.437500,-130.17,100.55
138511,2018-06-29 09:57:00.468750,-131.57,100.55
138512,2018-06-29 09:57:00.500000,-120.48,100.55
138513,2018-06-29 09:57:00.531250,-106.89,100.48
138514,2018-06-29 09:57:00.562500,-93.77,100.48
138515,2018-06-29 09:57:00.593750,-78.33,100.48
138516,2018-06-29 09:57:00.625000,-61.05,100.48
138517,2018-06-29 09:57:00.656250,-47.79,100.48
138518,2018-06-29 09:57:00.687500,-42.65,100.48
138519,2018-06-29 09:57:00.718750,-43.63,100.48
138520,2018-06-29 09:57:00.750000,-45.25,100.48
138521,2018-06-29 09:57:00.781250,-42.05,100.48
138522,2018-06-29 09:57:00.812500,-31.95,100.48
138523,2018-06-29 09:57:00.843750,-18.3,100.48
138524,2018-06-29 09:57:00.875000,-6.0,100.48
138525,2018-06-29 09:57:00.906250,3.7,100.48
138526,2018-06-29 09:57:00.937500,11.72,100.48
138527,2018-06-29 09:57:00.968750,18.35,100.48
138528,2018-06-29 09:57:01.000000,24.92,100.48
138529,2018-06-29 09:57:01.031250,33.3,100.48
138530,2018-06-29 09:57:01.062500,41.9,100.48
138531,2018-06-29 09:57:01.093750,46.86,100.48
138532,2018-06-29 09:57:01.125000,47.8,100.48
138533,2018-06-29 09:57:01.156250,48.97,100.48
138534,2018-06-29 09:57:01.187500,54.84,100.48
138535,2018-06-29 09:57:01.218750,63.02,100.48
138536,2018-06-29 09:57:01.250000,61.01,100.48
138537,2018-06-29 09:57:01.281250,38.05,100.48
138538,2018-06-29 09:57:01.312500,3.17,100.48
138539,2018-06-29 09:57:01.343750,-21.75,100.48
138540,2018-06-29 09:57:01.375000,-29.68,100.48
138541,2018-06-29 09:57:01.406250,-33.55,100.48
138542,2018-06-29 09:57:01.437500,-44.46,100.48
138543,2018-06-29 09:57:01.468750,-59.79,100.48
138544,2018-06-29 09:57:01.500000,-70.49,100.48
138545,2018-06-29 09:57:01.531250,-69.71,100.45
138546,2018-06-29 09:57:01.562500,-56.38,100.45
138547,2018-06-29 09:57:01.593750,-36.2,100.45
138548,2018-06-29 09:57:01.625000,-17.52,100.45
138549,2018-06-29 09:57:01.656250,-4.19,100.45
138550,2018-06-29 09:57:01.687500,7.0,100.45
138551,2018-06-29 09:57:01.718750,19.44,100.45
138552,2018-06-29 09:57:01.750000,29.6,100.45
138553,2018-06-29 09:57:01.781250,34.2,100.45
138554,2018-06-29 09:57:01.812500,37.94,100.45
138555,2018-06-29 09:57:01.843750,45.87,100.45
138556,2018-06-29 09:57:01.875000,52.63,100.45
138557,2018-06-29 09:57:01.906250,50.88,100.45
138558,2018-06-29 09:57:01.937500,42.99,100.45
138559,2018-06-29 09:57:01.968750,37.31,100.45
138560,2018-06-29 09:57:02.000000,37.76,100.45
138561,2018-06-29 09:57:02.031250,39.27,100.45
138562,2018-06-29 09:57:02.062500,38.22,100.45
138563,2018-06-29 09:57:02.093750,39.38,100.45
138564,2018-06-29 09:57:02.125000,50.92,100.45
138565,2018-06-29 09:57:02.156250,67.46,100.45
138566,2018-06-29 09:57:02.187500,75.63,100.45
138567,2018-06-29 09:57:02.218750,76.92,100.45
138568,2018-06-29 09:57:02.250000,87.41,100.45
138569,2018-06-29 09:57:02.281250,114.88,100.45
138570,2018-06-29 09:57:02.312500,141.56,100.45
138571,2018-06-29 09:57:02.343750,143.14,100.45
138572,2018-06-29 09:57:02.375000,87.89,100.45
138573,2018-06-29 09:57:02.406250,-22.38,100.45
138574,2018-06-29 09:57:02.437500,-114.36,100.45
138575,2018-06-29 09:57:02.468750,-147.09,100.45
138576,2018-06-29 09:57:02.500000,-145.44,100.45
138577,2018-06-29 09:57:02.531250,-128.19,100.35
138578,2018-06-29 09:57:02.562500,-76.9,100.35
138579,2018-06-29 09:57:02.593750,10.5,100.35
138580,2018-06-29 09:57:02.625000,92.32,100.35
138581,2018-06-29 09:57:02.656250,124.66,100.35
138582,2018-06-29 09:57:02.687500,87.85,100.35
138583,2018-06-29 09:57:02.718750,5.78,100.35
138584,2018-06-29 09:57:02.750000,-83.05,100.35
138585,2018-06-29 09:57:02.781250,-150.99,100.35
138586,2018-06-29 09:57:02.812500,-181.45,100.35
138587,2018-06-29 09:57:02.843750,-178.48,100.35
138588,2018-06-29 09:57:02.875000,-160.67,100.35
138589,2018-06-29 09:57:02.906250,-146.5,100.35
138590,2018-06-29 09:57:02.937500,-133.19,100.35
138591,2018-06-29 09:57:02.968750,-106.51,100.35
138592,2018-06-29 09:57:03.000000,-62.51,100.35
138593,2018-06-29 09:57:03.031250,-14.42,100.35
138594,2018-06-29 09:57:03.062500,24.49,100.35
138595,2018-06-29 09:57:03.093750,53.13,100.35
138596,2018-06-29 09:57:03.125000,78.92,100.35
138597,2018-06-29 09:57:03.156250,102.7,100.35
138598,2018-06-29 09:57:03.187500,115.64,100.35
138599,2018-06-29 09:57:03.218750,108.4,100.35
138600,2018-06-29 09:57:03.250000,80.01,100.35
138601,2018-06-29 09:57:03.281250,41.25,100.35
138602,2018-06-29 09:57:03.312500,4.85,100.35
138603,2018-06-29 09:57:03.343750,-21.62,100.35
138604,2018-06-29 09:57:03.375000,-36.25,100.35
138605,2018-06-29 09:57:03.406250,-41.5,100.35
138606,2018-06-29 09:57:03.437500,-43.28,100.35
138607,2018-06-29 09:57:03.468750,-46.68,100.35
138608,2018-06-29 09:57:03.500000,-51.17,100.35
138609,2018-06-29 09:57:03.531250,-52.95,100.22
138610,2018-06-29 09:57:03.562500,-50.96,100.22
138611,2018-06-29 09:57:03.593750,-48.74,100.22
138612,2018-06-29 09:57:03.625000,-50.41,100.22
138613,2018-06-29 09:57:03.656250,-55.47,100.22
138614,2018-06-29 09:57:03.687500,-58.12,100.22
138615,2018-06-29 09:57:03.718750,-52.3,100.22
138616,2018-06-29 09:57:03.750000,-37.54,100.22
138617,2018-06-29 09:57:03.781250,-18.32,100.22
138618,2018-06-29 09:57:03.812500,2.07,100.22
138619,2018-06-29 09:57:03.843750,23.19,100.22
138620,2018-06-29 09:57:03.875000,43.09,100.22
138621,2018-06-29 09:57:03.906250,57.71,100.22
138622,2018-06-29 09:57:03.937500,66.26,100.22
138623,2018-06-29 09:57:03.968750,70.42,100.22
138624,2018-06-29 09:57:04.000000,67.94,100.22
138625,2018-06-29 09:57:04.031250,55.11,100.22
138626,2018-06-29 09:57:04.062500,34.62,100.22
138627,2018-06-29 09:57:04.093750,13.46,100.22
138628,2018-06-29 09:57:04.125000,-4.17,100.22
138629,2018-06-29 09:57:04.156250,-16.63,100.22
138630,2018-06-29 09:57:04.187500,-22.33,100.22
138631,2018-06-29 09:57:04.218750,-22.39,100.22
138632,2018-06-29 09:57:04.250000,-20.94,100.22
138633,2018-06-29 09:57:04.281250,-21.15,100.22
138634,2018-06-29 09:57:04.312500,-22.0,100.22
138635,2018-06-29 09:57:04.343750,-21.06,100.22
138636,2018-06-29 09:57:04.375000,-18.4,100.22
138637,2018-06-29 09:57:04.406250,-17.18,100.22
138638,2018-06-29 09:57:04.437500,-17.96,100.22
138639,2018-06-29 09:57:04.468750,-12.88,100.22
138640,2018-06-29 09:57:04.500000,5.49,100.22
138641,2018-06-29 09:57:04.531250,33.48,100.08
138642,2018-06-29 09:57:04.562500,56.14,100.08
138643,2018-06-29 09:57:04.593750,65.7,100.08
138644,2018-06-29 09:57:04.625000,70.8,100.08
138645,2018-06-29 09:57:04.656250,83.48,100.08
138646,2018-06-29 09:57:04.687500,101.68,100.08
138647,2018-06-29 09:57:04.718750,112.93,100.08
138648,2018-06-29 09:57:04.750000,116.19,100.08
138649,2018-06-29 09:57:04.781250,120.23,100.08
138650,2018-06-29 09:57:04.812500,132.55,100.08
138651,2018-06-29 09:57:04.843750,147.33,100.08
138652,2018-06-29 09:57:04.875000,146.87,100.08
138653,2018-06-29 09:57:04.906250,106.68,100.08
138654,2018-06-29 09:57:04.937500,4.66,100.08
138655,2018-06-29 09:57:04.968750,-103.79,100.08
138656,2018-06-29 09:57:05.000000,-156.45,100.08
138657,2018-06-29 09:57:05.031250,-159.58,100.08
138658,2018-06-29 09:57:05.062500,-134.46,100.08
138659,2018-06-29 09:57:05.093750,-83.23,100.08
138660,2018-06-29 09:57:05.125000,-23.14,100.08
138661,2018-06-29 09:57:05.156250,17.97,100.08
138662,2018-06-29 09:57:05.187500,30.21,100.08
138663,2018-06-29 09:57:05.218750,26.17,100.08
138664,2018-06-29 09:57:05.250000,19.7,100.08
138665,2018-06-29 09:57:05.281250,12.12,100.08
138666,2018-06-29 09:57:05.312500,3.5,100.08
138667,2018-06-29 09:57:05.343750,-3.3,100.08
138668,2018-06-29 09:57:05.375000,-7.18,100.08
138669,2018-06-29 09:57:05.406250,-9.95,100.08
138670,2018-06-29 09:57:05.437500,-11.19,100.08
138671,2018-06-29 09:57:05.468750,-6.61,100.08
138672,2018-06-29 09:57:05.500000,6.92,100.08
138673,2018-06-29 09:57:05.531250,26.16,99.87
138674,2018-06-29 09:57:05.562500,39.1,99.87
138675,2018-06-29 09:57:05.593750,35.31,99.87
138676,2018-06-29 09:57:05.625000,16.45,99.87
138677,2018-06-29 09:57:05.656250,-5.96,99.87
138678,2018-06-29 09:57:05.687500,-22.39,99.87
138679,2018-06-29 09:57:05.718750,-29.55,99.87
138680,2018-06-29 09:57:05.750000,-26.63,99.87
138681,2018-06-29 09:57:05.781250,-13.82,99.87
138682,2018-06-29 09:57:05.812500,6.94,99.87
138683,2018-06-29 09:57:05.843750,30.83,99.87
138684,2018-06-29 09:57:05.875000,50.94,99.87
138685,2018-06-29 09:57:05.906250,62.18,99.87
138686,2018-06-29 09:57:05.937500,64.08,99.87
138687,2018-06-29 09:57:05.968750,59.05,99.87
138688,2018-06-29 09:57:06.000000,49.56,99.87
138689,2018-06-29 09:57:06.031250,37.12,99.87
138690,2018-06-29 09:57:06.062500,24.04,99.87
138691,2018-06-29 09:57:06.093750,14.25,99.87
138692,2018-06-29 09:57:06.125000,10.03,99.87
138693,2018-06-29 09:57:06.156250,9.15,99.87
138694,2018-06-29 09:57:06.187500,7.86,99.87
138695,2018-06-29 09:57:06.218750,4.83,99.87
138696,2018-06-29 09:57:06.250000,0.02,99.87
138697,2018-06-29 09:57:06.281250,-6.72,99.87
138698,2018-06-29 09:57:06.312500,-13.91,99.87
138699,2018-06-29 09:57:06.343750,-19.83,99.87
138700,2018-06-29 09:57:06.375000,-25.51,99.87
138701,2018-06-29 09:57:06.406250,-32.15,99.87
138702,2018-06-29 09:57:06.437500,-37.79,99.87
138703,2018-06-29 09:57:06.468750,-40.26,99.87
138704,2018-06-29 09:57:06.500000,-40.62,99.87
138705,2018-06-29 09:57:06.531250,-40.33,99.6
138706,2018-06-29 09:57:06.562500,-39.3,99.6
138707,2018-06-29 09:57:06.593750,-39.21,99.6
138708,2018-06-29 09:57:06.625000,-44.28,99.6
138709,2018-06-29 09:57:06.656250,-57.16,99.6
138710,2018-06-29 09:57:06.687500,-76.51,99.6
138711,2018-06-29 09:57:06.718750,-96.85,99.6
138712,2018-06-29 09:57:06.750000,-109.28,99.6
138713,2018-06-29 09:57:06.781250,-107.46,99.6
138714,2018-06-29 09:57:06.812500,-95.17,99.6
138715,2018-06-29 09:57:06.843750,-82.62,99.6
138716,2018-06-29 09:57:06.875000,-74.62,99.6
138717,2018-06-29 09:57:06.906250,-66.58,99.6
138718,2018-06-29 09:57:06.937500,-51.94,99.6
138719,2018-06-29 09:57:06.968750,-31.08,99.6
138720,2018-06-29 09:57:07.000000,-12.86,99.6
138721,2018-06-29 09:57:07.031250,-5.68,99.6
138722,2018-06-29 09:57:07.062500,-5.77,99.6
138723,2018-06-29 09:57:07.093750,1.27,99.6
138724,2018-06-29 09:57:07.125000,23.11,99.6
138725,2018-06-29 09:57:07.156250,49.36,99.6
138726,2018-06-29 09:57:07.187500,63.89,99.6
138727,2018-06-29 09:57:07.218750,62.51,99.6
138728,2018-06-29 09:57:07.250000,51.14,99.6
138729,2018-06-29 09:57:07.281250,34.28,99.6
138730,2018-06-29 09:57:07.312500,15.08,99.6
138731,2018-06-29 09:57:07.343750,-0.4,99.6
138732,2018-06-29 09:57:07.375000,-7.9,99.6
138733,2018-06-29 09:57:07.406250,-10.25,99.6
138734,2018-06-29 09:57:07.437500,-12.91,99.6
138735,2018-06-29 09:57:07.468750,-18.03,99.6
138736,2018-06-29 09:57:07.500000,-25.01,99.6
138737,2018-06-29 09:57:07.531250,-33.57,99.35
138738,2018-06-29 09:57:07.562500,-43.53,99.35
138739,2018-06-29 09:57:07.593750,-53.53,99.35
138740,2018-06-29 09:57:07.625000,-61.99,99.35
138741,2018-06-29 09:57:07.656250,-67.5,99.35
138742,2018-06-29 09:57:07.687500,-67.49,99.35
138743,2018-06-29 09:57:07.718750,-59.64,99.35
138744,2018-06-29 09:57:07.750000,-45.87,99.35
138745,2018-06-29 09:57:07.781250,-31.43,99.35
138746,2018-06-29 09:57:07.812500,-19.29,99.35
138747,2018-06-29 09:57:07.843750,-8.06,99.35
138748,2018-06-29 09:57:07.875000,5.0,99.35
138749,2018-06-29 09:57:07.906250,21.65,99.35
138750,2018-06-29 09:57:07.937500,41.88,99.35
138751,2018-06-29 09:57:07.968750,62.58,99.35
138752,2018-06-29 09:57:08.000000,78.27,99.35
138753,2018-06-29 09:57:08.031250,84.68,99.35
138754,2018-06-29 09:57:08.062500,80.65,99.35
138755,2018-06-29 09:57:08.093750,65.97,99.35
138756,2018-06-29 09:57:08.125000,41.12,99.35
138757,2018-06-29 09:57:08.156250,10.52,99.35
138758,2018-06-29 09:57:08.187500,-17.8,99.35
138759,2018-06-29 09:57:08.218750,-38.62,99.35
138760,2018-06-29 09:57:08.250000,-52.8,99.35
138761,2018-06-29 09:57:08.281250,-64.37,99.35
138762,2018-06-29 09:57:08.312500,-76.73,99.35
138763,2018-06-29 09:57:08.343750,-88.47,99.35
138764,2018-06-29 09:57:08.375000,-91.37,99.35
138765,2018-06-29 09:57:08.406250,-76.56,99.35
138766,2018-06-29 09:57:08.437500,-47.65,99.35
138767,2018-06-29 09:57:08.468750,-18.99,99.35
138768,2018-06-29 09:57:08.500000,-1.18,99.35
138769,2018-06-29 09:57:08.531250,7.14,99.1
138770,2018-06-29 09:57:08.562500,10.48,99.1
138771,2018-06-29 09:57:08.593750,10.37,99.1
138772,2018-06-29 09:57:08.625000,9.63,99.1
138773,2018-06-29 09:57:08.656250,12.97,99.1
138774,2018-06-29 09:57:08.687500,24.14,99.1
138775,2018-06-29 09:57:08.718750,41.46,99.1
138776,2018-06-29 09:57:08.750000,63.66,99.1
138777,2018-06-29 09:57:08.781250,88.68,99.1
138778,2018-06-29 09:57:08.812500,112.66,99.1
138779,2018-06-29 09:57:08.843750,130.97,99.1
138780,2018-06-29 09:57:08.875000,139.04,99.1
138781,2018-06-29 09:57:08.906250,135.4,99.1
138782,2018-06-29 09:57:08.937500,105.39,99.1
138783,2018-06-29 09:57:08.968750,45.01,99.1
138784,2018-06-29 09:57:09.000000,-29.8,99.1
138785,2018-06-29 09:57:09.031250,-99.47,99.1
138786,2018-06-29 09:57:09.062500,-148.96,99.1
138787,2018-06-29 09:57:09.093750,-166.96,99.1
138788,2018-06-29 09:57:09.125000,-152.03,99.1
138789,2018-06-29 09:57:09.156250,-116.92,99.1
138790,2018-06-29 09:57:09.187500,-77.98,99.1
138791,2018-06-29 09:57:09.218750,-43.72,99.1
138792,2018-06-29 09:57:09.250000,-13.49,99.1
138793,2018-06-29 09:57:09.281250,11.29,99.1
138794,2018-06-29 09:57:09.312500,27.71,99.1
138795,2018-06-29 09:57:09.343750,35.6,99.1
138796,2018-06-29 09:57:09.375000,39.42,99.1
138797,2018-06-29 09:57:09.406250,43.13,99.1
138798,2018-06-29 09:57:09.437500,45.95,99.1
138799,2018-06-29 09:57:09.468750,44.59,99.1
138800,2018-06-29 09:57:09.500000,38.15,99.1
138801,2018-06-29 09:57:09.531250,30.51,98.73
138802,2018-06-29 09:57:09.562500,25.66,98.73
138803,2018-06-29 09:57:09.593750,24.89,98.73
138804,2018-06-29 09:57:09.625000,26.61,98.73
138805,2018-06-29 09:57:09.656250,28.31,98.73
138806,2018-06-29 09:57:09.687500,27.38,98.73
138807,2018-06-29 09:57:09.718750,21.71,98.73
138808,2018-06-29 09:57:09.750000,10.35,98.73
138809,2018-06-29 09:57:09.781250,-6.89,98.73
138810,2018-06-29 09:57:09.812500,-29.77,98.73
138811,2018-06-29 09:57:09.843750,-53.5,98.73
138812,2018-06-29 09:57:09.875000,-65.02,98.73
138813,2018-06-29 09:57:09.906250,-52.1,98.73
138814,2018-06-29 09:57:09.937500,-18.49,98.73
138815,2018-06-29 09:57:09.968750,18.29,98.73
138816,2018-06-29 09:57:10.000000,44.23,98.73
138817,2018-06-29 09:57:10.031250,56.2,98.73
138818,2018-06-29 09:57:10.062500,56.62,98.73
138819,2018-06-29 09:57:10.093750,50.4,98.73
138820,2018-06-29 09:57:10.125000,43.53,98.73
138821,2018-06-29 09:57:10.156250,38.53,98.73
138822,2018-06-29 09:57:10.187500,33.55,98.73
138823,2018-06-29 09:57:10.218750,27.48,98.73
138824,2018-06-29 09:57:10.250000,22.18,98.73
138825,2018-06-29 09:57:10.281250,18.59,98.73
138826,2018-06-29 09:57:10.312500,13.88,98.73
138827,2018-06-29 09:57:10.343750,5.14,98.73
138828,2018-06-29 09:57:10.375000,-6.22,98.73
138829,2018-06-29 09:57:10.406250,-16.57,98.73
138830,2018-06-29 09:57:10.437500,-24.97,98.73
138831,2018-06-29 09:57:10.468750,-32.96,98.73
138832,2018-06-29 09:57:10.500000,-41.15,98.73
138833,2018-06-29 09:57:10.531250,-48.52,98.4
138834,2018-06-29 09:57:10.562500,-54.57,98.4
138835,2018-06-29 09:57:10.593750,-60.49,98.4
138836,2018-06-29 09:57:10.625000,-68.76,98.4
138837,2018-06-29 09:57:10.656250,-79.74,98.4
138838,2018-06-29 09:57:10.687500,-86.32,98.4
138839,2018-06-29 09:57:10.718750,-76.81,98.4
138840,2018-06-29 09:57:10.750000,-48.24,98.4
138841,2018-06-29 09:57:10.781250,-11.81,98.4
138842,2018-06-29 09:57:10.812500,18.76,98.4
138843,2018-06-29 09:57:10.843750,38.51,98.4
138844,2018-06-29 09:57:10.875000,48.96,98.4
138845,2018-06-29 09:57:10.906250,52.34,98.4
138846,2018-06-29 09:57:10.937500,50.91,98.4
138847,2018-06-29 09:57:10.968750,47.46,98.4
138848,2018-06-29 09:57:11.000000,44.15,98.4
138849,2018-06-29 09:57:11.031250,41.58,98.4
138850,2018-06-29 09:57:11.062500,39.47,98.4
138851,2018-06-29 09:57:11.093750,37.78,98.4
138852,2018-06-29 09:57:11.125000,35.84,98.4
138853,2018-06-29 09:57:11.156250,31.41,98.4
138854,2018-06-29 09:57:11.187500,23.41,98.4
138855,2018-06-29 09:57:11.218750,13.98,98.4
138856,2018-06-29 09:57:11.250000,5.82,98.4
138857,2018-06-29 09:57:11.281250,-1.19,98.4
138858,2018-06-29 09:57:11.312500,-8.99,98.4
138859,2018-06-29 09:57:11.343750,-17.85,98.4
138860,2018-06-29 09:57:11.375000,-25.92,98.4
138861,2018-06-29 09:57:11.406250,-32.15,98.4
138862,2018-06-29 09:57:11.437500,-38.47,98.4
138863,2018-06-29 09:57:11.468750,-47.93,98.4
138864,2018-06-29 09:57:11.500000,-59.54,98.4
138865,2018-06-29 09:57:11.531250,-65.1,98.08
138866,2018-06-29 09:57:11.562500,-54.84,98.08
138867,2018-06-29 09:57:11.593750,-28.86,98.08
138868,2018-06-29 09:57:11.625000,1.21,98.08
138869,2018-06-29 09:57:11.656250,23.81,98.08
138870,2018-06-29 09:57:11.687500,35.65,98.08
138871,2018-06-29 09:57:11.718750,39.14,98.08
138872,2018-06-29 09:57:11.750000,37.85,98.08
138873,2018-06-29 09:57:11.781250,35.41,98.08
138874,2018-06-29 09:57:11.812500,34.3,98.08
138875,2018-06-29 09:57:11.843750,34.12,98.08
138876,2018-06-29 09:57:11.875000,32.9,98.08
138877,2018-06-29 09:57:11.906250,30.43,98.08
138878,2018-06-29 09:57:11.937500,27.99,98.08
138879,2018-06-29 09:57:11.968750,24.98,98.08
138880,2018-06-29 09:57:12.000000,19.53,98.08
138881,2018-06-29 09:57:12.031250,12.13,98.08
138882,2018-06-29 09:57:12.062500,4.93,98.08
138883,2018-06-29 09:57:12.093750,-1.59,98.08
138884,2018-06-29 09:57:12.125000,-7.81,98.08
138885,2018-06-29 09:57:12.156250,-12.82,98.08
138886,2018-06-29 09:57:12.187500,-15.65,98.08
138887,2018-06-29 09:57:12.218750,-17.53,98.08
138888,2018-06-29 09:57:12.250000,-20.95,98.08
138889,2018-06-29 09:57:12.281250,-27.36,98.08
138890,2018-06-29 09:57:12.312500,-33.81,98.08
138891,2018-06-29 09:57:12.343750,-32.06,98.08
138892,2018-06-29 09:57:12.375000,-15.97,98.08
138893,2018-06-29 09:57:12.406250,9.73,98.08
138894,2018-06-29 09:57:12.437500,33.32,98.08
138895,2018-06-29 09:57:12.468750,47.44,98.08
138896,2018-06-29 09:57:12.500000,51.93,98.08
138897,2018-06-29 09:57:12.531250,49.03,97.77
138898,2018-06-29 09:57:12.562500,41.87,97.77
138899,2018-06-29 09:57:12.593750,34.59,97.77
138900,2018-06-29 09:57:12.625000,30.09,97.77
138901,2018-06-29 09:57:12.656250,28.3,97.77
138902,2018-06-29 09:57:12.687500,27.65,97.77
138903,2018-06-29 09:57:12.718750,26.76,97.77
138904,2018-06-29 09:57:12.750000,24.42,97.77
138905,2018-06-29 09:57:12.781250,19.9,97.77
138906,2018-06-29 09:57:12.812500,13.68,97.77
138907,2018-06-29 09:57:12.843750,7.14,97.77
138908,2018-06-29 09:57:12.875000,1.0,97.77
138909,2018-06-29 09:57:12.906250,-5.51,97.77
138910,2018-06-29 09:57:12.937500,-12.94,97.77
138911,2018-06-29 09:57:12.968750,-20.13,97.77
138912,2018-06-29 09:57:13.000000,-25.88,97.77
138913,2018-06-29 09:57:13.031250,-31.51,97.77
138914,2018-06-29 09:57:13.062500,-39.57,97.77
138915,2018-06-29 09:57:13.093750,-49.82,97.77
138916,2018-06-29 09:57:13.125000,-56.3,97.77
138917,2018-06-29 09:57:13.156250,-50.56,97.77
138918,2018-06-29 09:57:13.187500,-30.73,97.77
138919,2018-06-29 09:57:13.218750,-5.49,97.77
138920,2018-06-29 09:57:13.250000,14.04,97.77
138921,2018-06-29 09:57:13.281250,23.99,97.77
138922,2018-06-29 09:57:13.312500,26.29,97.77
138923,2018-06-29 09:57:13.343750,23.4,97.77
138924,2018-06-29 09:57:13.375000,18.35,97.77
138925,2018-06-29 09:57:13.406250,15.38,97.77
138926,2018-06-29 09:57:13.437500,16.45,97.77
138927,2018-06-29 09:57:13.468750,19.32,97.77
138928,2018-06-29 09:57:13.500000,21.16,97.77
138929,2018-06-29 09:57:13.531250,21.67,97.47
138930,2018-06-29 09:57:13.562500,21.29,97.47
138931,2018-06-29 09:57:13.593750,19.45,97.47
138932,2018-06-29 09:57:13.625000,15.57,97.47
138933,2018-06-29 09:57:13.656250,10.06,97.47
138934,2018-06-29 09:57:13.687500,3.3,97.47
138935,2018-06-29 09:57:13.718750,-4.39,97.47
138936,2018-06-29 09:57:13.750000,-11.56,97.47
138937,2018-06-29 09:57:13.781250,-16.88,97.47
138938,2018-06-29 09:57:13.812500,-21.24,97.47
138939,2018-06-29 09:57:13.843750,-26.92,97.47
138940,2018-06-29 09:57:13.875000,-34.53,97.47
138941,2018-06-29 09:57:13.906250,-40.06,97.47
138942,2018-06-29 09:57:13.937500,-35.77,97.47
138943,2018-06-29 09:57:13.968750,-17.94,97.47
138944,2018-06-29 09:57:14.000000,6.56,97.47
138945,2018-06-29 09:57:14.031250,26.55,97.47
138946,2018-06-29 09:57:14.062500,37.47,97.47
138947,2018-06-29 09:57:14.093750,41.53,97.47
138948,2018-06-29 09:57:14.125000,41.37,97.47
138949,2018-06-29 09:57:14.156250,38.8,97.47
138950,2018-06-29 09:57:14.187500,36.29,97.47
138951,2018-06-29 09:57:14.218750,35.22,97.47
138952,2018-06-29 09:57:14.250000,34.78,97.47
138953,2018-06-29 09:57:14.281250,34.22,97.47
138954,2018-06-29 09:57:14.312500,33.94,97.47
138955,2018-06-29 09:57:14.343750,33.54,97.47
138956,2018-06-29 09:57:14.375000,31.77,97.47
138957,2018-06-29 09:57:14.406250,28.66,97.47
138958,2018-06-29 09:57:14.437500,25.54,97.47
138959,2018-06-29 09:57:14.468750,23.15,97.47
138960,2018-06-29 09:57:14.500000,21.05,97.47
138961,2018-06-29 09:57:14.531250,18.38,97.15
138962,2018-06-29 09:57:14.562500,14.11,97.15
138963,2018-06-29 09:57:14.593750,6.73,97.15
138964,2018-06-29 09:57:14.625000,-4.78,97.15
138965,2018-06-29 09:57:14.656250,-19.53,97.15
138966,2018-06-29 09:57:14.687500,-34.21,97.15
138967,2018-06-29 09:57:14.718750,-43.11,97.15
138968,2018-06-29 09:57:14.750000,-40.06,97.15
138969,2018-06-29 09:57:14.781250,-24.19,97.15
138970,2018-06-29 09:57:14.812500,-3.55,97.15
138971,2018-06-29 09:57:14.843750,11.32,97.15
138972,2018-06-29 09:57:14.875000,16.91,97.15
138973,2018-06-29 09:57:14.906250,16.35,97.15
138974,2018-06-29 09:57:14.937500,13.44,97.15
138975,2018-06-29 09:57:14.968750,10.45,97.15
138976,2018-06-29 09:57:15.000000,8.52,97.15
138977,2018-06-29 09:57:15.031250,7.13,97.15
138978,2018-06-29 09:57:15.062500,5.1,97.15
138979,2018-06-29 09:57:15.093750,2.11,97.15
138980,2018-06-29 09:57:15.125000,-2.01,97.15
138981,2018-06-29 09:57:15.156250,-7.79,97.15
138982,2018-06-29 09:57:15.187500,-14.89,97.15
138983,2018-06-29 09:57:15.218750,-21.84,97.15
138984,2018-06-29 09:57:15.250000,-27.58,97.15
138985,2018-06-29 09:57:15.281250,-32.55,97.15
138986,2018-06-29 09:57:15.312500,-37.5,97.15
138987,2018-06-29 09:57:15.343750,-42.02,97.15
138988,2018-06-29 09:57:15.375000,-45.02,97.15
138989,2018-06-29 09:57:15.406250,-46.71,97.15
138990,2018-06-29 09:57:15.437500,-49.37,97.15
138991,2018-06-29 09:57:15.468750,-55.0,97.15
138992,2018-06-29 09:57:15.500000,-61.04,97.15
138993,2018-06-29 09:57:15.531250,-59.32,96.8
138994,2018-06-29 09:57:15.562500,-43.97,96.8
138995,2018-06-29 09:57:15.593750,-19.65,96.8
138996,2018-06-29 09:57:15.625000,2.98,96.8
138997,2018-06-29 09:57:15.656250,18.02,96.8
138998,2018-06-29 09:57:15.687500,25.44,96.8
138999,2018-06-29 09:57:15.718750,26.1,96.8
139000,2018-06-29 09:57:15.750000,22.23,96.8
139001,2018-06-29 09:57:15.781250,18.57,96.8
139002,2018-06-29 09:57:15.812500,18.1,96.8
139003,2018-06-29 09:57:15.843750,19.5,96.8
139004,2018-06-29 09:57:15.875000,20.26,96.8
139005,2018-06-29 09:57:15.906250,19.98,96.8
139006,2018-06-29 09:57:15.937500,19.31,96.8
139007,2018-06-29 09:57:15.968750,17.53,96.8
139008,2018-06-29 09:57:16.000000,13.1,96.8
139009,2018-06-29 09:57:16.031250,6.51,96.8
139010,2018-06-29 09:57:16.062500,0.11,96.8
139011,2018-06-29 09:57:16.093750,-4.97,96.8
139012,2018-06-29 09:57:16.125000,-9.84,96.8
139013,2018-06-29 09:57:16.156250,-15.32,96.8
139014,2018-06-29 09:57:16.187500,-20.71,96.8
139015,2018-06-29 09:57:16.218750,-25.26,96.8
139016,2018-06-29 09:57:16.250000,-29.65,96.8
139017,2018-06-29 09:57:16.281250,-35.05,96.8
139018,2018-06-29 09:57:16.312500,-39.97,96.8
139019,2018-06-29 09:57:16.343750,-39.23,96.8
139020,2018-06-29 09:57:16.375000,-28.4,96.8
139021,2018-06-29 09:57:16.406250,-9.7,96.8
139022,2018-06-29 09:57:16.437500,8.91,96.8
139023,2018-06-29 09:57:16.468750,20.99,96.8
139024,2018-06-29 09:57:16.500000,25.56,96.8
139025,2018-06-29 09:57:16.531250,24.81,96.43
139026,2018-06-29 09:57:16.562500,21.62,96.43
139027,2018-06-29 09:57:16.593750,19.31,96.43
139028,2018-06-29 09:57:16.625000,19.98,96.43
139029,2018-06-29 09:57:16.656250,22.57,96.43
139030,2018-06-29 09:57:16.687500,24.57,96.43
139031,2018-06-29 09:57:16.718750,24.78,96.43
139032,2018-06-29 09:57:16.750000,23.35,96.43
139033,2018-06-29 09:57:16.781250,20.67,96.43
139034,2018-06-29 09:57:16.812500,17.32,96.43
139035,2018-06-29 09:57:16.843750,13.91,96.43
139036,2018-06-29 09:57:16.875000,10.3,96.43
139037,2018-06-29 09:57:16.906250,6.63,96.43
139038,2018-06-29 09:57:16.937500,3.9,96.43
139039,2018-06-29 09:57:16.968750,2.43,96.43
139040,2018-06-29 09:57:17.000000,1.22,96.43
139041,2018-06-29 09:57:17.031250,-0.67,96.43
139042,2018-06-29 09:57:17.062500,-3.47,96.43
139043,2018-06-29 09:57:17.093750,-6.02,96.43
139044,2018-06-29 09:57:17.125000,-4.17,96.43
139045,2018-06-29 09:57:17.156250,6.13,96.43
139046,2018-06-29 09:57:17.187500,22.55,96.43
139047,2018-06-29 09:57:17.218750,37.79,96.43
139048,2018-06-29 09:57:17.250000,47.25,96.43
139049,2018-06-29 09:57:17.281250,50.75,96.43
139050,2018-06-29 09:57:17.312500,48.88,96.43
139051,2018-06-29 09:57:17.343750,43.14,96.43
139052,2018-06-29 09:57:17.375000,37.14,96.43
139053,2018-06-29 09:57:17.406250,33.68,96.43
139054,2018-06-29 09:57:17.437500,31.66,96.43
139055,2018-06-29 09:57:17.468750,28.09,96.43
139056,2018-06-29 09:57:17.500000,21.68,96.43
139057,2018-06-29 09:57:17.531250,13.17,96.05
139058,2018-06-29 09:57:17.562500,3.86,96.05
139059,2018-06-29 09:57:17.593750,-4.92,96.05
139060,2018-06-29 09:57:17.625000,-12.17,96.05
139061,2018-06-29 09:57:17.656250,-18.15,96.05
139062,2018-06-29 09:57:17.687500,-24.59,96.05
139063,2018-06-29 09:57:17.718750,-33.07,96.05
139064,2018-06-29 09:57:17.750000,-43.73,96.05
139065,2018-06-29 09:57:17.781250,-55.22,96.05
139066,2018-06-29 09:57:17.812500,-63.48,96.05
139067,2018-06-29 09:57:17.843750,-62.38,96.05
139068,2018-06-29 09:57:17.875000,-49.84,96.05
139069,2018-06-29 09:57:17.906250,-32.04,96.05
139070,2018-06-29 09:57:17.937500,-17.06,96.05
139071,2018-06-29 09:57:17.968750,-7.52,96.05
139072,2018-06-29 09:57:18.000000,-2.58,96.05
139073,2018-06-29 09:57:18.031250,-1.65,96.05
139074,2018-06-29 09:57:18.062500,-3.07,96.05
139075,2018-06-29 09:57:18.093750,-3.46,96.05
139076,2018-06-29 09:57:18.125000,-1.14,96.05
139077,2018-06-29 09:57:18.156250,1.99,96.05
139078,2018-06-29 09:57:18.187500,3.39,96.05
139079,2018-06-29 09:57:18.218750,3.33,96.05
139080,2018-06-29 09:57:18.250000,3.45,96.05
139081,2018-06-29 09:57:18.281250,2.68,96.05
139082,2018-06-29 09:57:18.312500,-1.25,96.05
139083,2018-06-29 09:57:18.343750,-7.12,96.05
139084,2018-06-29 09:57:18.375000,-11.39,96.05
139085,2018-06-29 09:57:18.406250,-13.26,96.05
139086,2018-06-29 09:57:18.437500,-14.93,96.05
139087,2018-06-29 09:57:18.468750,-17.98,96.05
139088,2018-06-29 09:57:18.500000,-21.74,96.05
139089,2018-06-29 09:57:18.531250,-22.55,95.67
139090,2018-06-29 09:57:18.562500,-15.01,95.67
139091,2018-06-29 09:57:18.593750,2.02,95.67
139092,2018-06-29 09:57:18.625000,21.36,95.67
139093,2018-06-29 09:57:18.656250,34.21,95.67
139094,2018-06-29 09:57:18.687500,39.31,95.67
139095,2018-06-29 09:57:18.718750,40.99,95.67
139096,2018-06-29 09:57:18.750000,41.46,95.67
139097,2018-06-29 09:57:18.781250,40.41,95.67
139098,2018-06-29 09:57:18.812500,38.37,95.67
139099,2018-06-29 09:57:18.843750,35.75,95.67
139100,2018-06-29 09:57:18.875000,30.68,95.67
139101,2018-06-29 09:57:18.906250,21.51,95.67
139102,2018-06-29 09:57:18.937500,10.08,95.67
139103,2018-06-29 09:57:18.968750,-0.38,95.67
139104,2018-06-29 09:57:19.000000,-9.55,95.67
139105,2018-06-29 09:57:19.031250,-19.15,95.67
139106,2018-06-29 09:57:19.062500,-29.21,95.67
139107,2018-06-29 09:57:19.093750,-38.17,95.67
139108,2018-06-29 09:57:19.125000,-45.53,95.67
139109,2018-06-29 09:57:19.156250,-52.13,95.67
139110,2018-06-29 09:57:19.187500,-58.48,95.67
139111,2018-06-29 09:57:19.218750,-64.01,95.67
139112,2018-06-29 09:57:19.250000,-67.24,95.67
139113,2018-06-29 09:57:19.281250,-64.52,95.67
139114,2018-06-29 09:57:19.312500,-49.92,95.67
139115,2018-06-29 09:57:19.343750,-21.03,95.67
139116,2018-06-29 09:57:19.375000,14.48,95.67
139117,2018-06-29 09:57:19.406250,43.42,95.67
139118,2018-06-29 09:57:19.437500,58.38,95.67
139119,2018-06-29 09:57:19.468750,60.59,95.67
139120,2018-06-29 09:57:19.500000,54.92,95.67
139121,2018-06-29 09:57:19.531250,46.84,95.32
139122,2018-06-29 09:57:19.562500,40.97,95.32
139123,2018-06-29 09:57:19.593750,38.33,95.32
139124,2018-06-29 09:57:19.625000,36.66,95.32
139125,2018-06-29 09:57:19.656250,34.13,95.32
139126,2018-06-29 09:57:19.687500,31.35,95.32
139127,2018-06-29 09:57:19.718750,29.78,95.32
139128,2018-06-29 09:57:19.750000,28.6,95.32
139129,2018-06-29 09:57:19.781250,24.41,95.32
139130,2018-06-29 09:57:19.812500,15.87,95.32
139131,2018-06-29 09:57:19.843750,6.36,95.32
139132,2018-06-29 09:57:19.875000,-0.73,95.32
139133,2018-06-29 09:57:19.906250,-6.28,95.32
139134,2018-06-29 09:57:19.937500,-12.15,95.32
139135,2018-06-29 09:57:19.968750,-17.86,95.32
139136,2018-06-29 09:57:20.000000,-23.17,95.32
139137,2018-06-29 09:57:20.031250,-30.29,95.32
139138,2018-06-29 09:57:20.062500,-41.55,95.32
139139,2018-06-29 09:57:20.093750,-56.14,95.32
139140,2018-06-29 09:57:20.125000,-68.67,95.32
139141,2018-06-29 09:57:20.156250,-70.47,95.32
139142,2018-06-29 09:57:20.187500,-56.7,95.32
139143,2018-06-29 09:57:20.218750,-33.4,95.32
139144,2018-06-29 09:57:20.250000,-12.67,95.32
139145,2018-06-29 09:57:20.281250,-0.82,95.32
139146,2018-06-29 09:57:20.312500,4.45,95.32
139147,2018-06-29 09:57:20.343750,7.45,95.32
139148,2018-06-29 09:57:20.375000,10.6,95.32
139149,2018-06-29 09:57:20.406250,15.37,95.32
139150,2018-06-29 09:57:20.437500,21.32,95.32
139151,2018-06-29 09:57:20.468750,25.87,95.32
139152,2018-06-29 09:57:20.500000,27.34,95.32
139153,2018-06-29 09:57:20.531250,26.86,95.02
139154,2018-06-29 09:57:20.562500,26.27,95.02
139155,2018-06-29 09:57:20.593750,26.52,95.02
139156,2018-06-29 09:57:20.625000,28.01,95.02
139157,2018-06-29 09:57:20.656250,30.28,95.02
139158,2018-06-29 09:57:20.687500,31.43,95.02
139159,2018-06-29 09:57:20.718750,29.54,95.02
139160,2018-06-29 09:57:20.750000,24.3,95.02
139161,2018-06-29 09:57:20.781250,16.59,95.02
139162,2018-06-29 09:57:20.812500,8.26,95.02
139163,2018-06-29 09:57:20.843750,1.42,95.02
139164,2018-06-29 09:57:20.875000,-3.57,95.02
139165,2018-06-29 09:57:20.906250,-8.8,95.02
139166,2018-06-29 09:57:20.937500,-17.26,95.02
139167,2018-06-29 09:57:20.968750,-30.24,95.02
139168,2018-06-29 09:57:21.000000,-44.04,95.02
139169,2018-06-29 09:57:21.031250,-50.5,95.02
139170,2018-06-29 09:57:21.062500,-45.01,95.02
139171,2018-06-29 09:57:21.093750,-32.68,95.02
139172,2018-06-29 09:57:21.125000,-22.39,95.02
139173,2018-06-29 09:57:21.156250,-17.62,95.02
139174,2018-06-29 09:57:21.187500,-17.0,95.02
139175,2018-06-29 09:57:21.218750,-18.99,95.02
139176,2018-06-29 09:57:21.250000,-21.43,95.02
139177,2018-06-29 09:57:21.281250,-21.09,95.02
139178,2018-06-29 09:57:21.312500,-17.31,95.02
139179,2018-06-29 09:57:21.343750,-12.57,95.02
139180,2018-06-29 09:57:21.375000,-8.34,95.02
139181,2018-06-29 09:57:21.406250,-4.43,95.02
139182,2018-06-29 09:57:21.437500,-1.8,95.02
139183,2018-06-29 09:57:21.468750,-1.52,95.02
139184,2018-06-29 09:57:21.500000,-2.8,95.02
139185,2018-06-29 09:57:21.531250,-4.64,94.75
139186,2018-06-29 09:57:21.562500,-7.71,94.75
139187,2018-06-29 09:57:21.593750,-12.68,94.75
139188,2018-06-29 09:57:21.625000,-18.44,94.75
139189,2018-06-29 09:57:21.656250,-23.24,94.75
139190,2018-06-29 09:57:21.687500,-26.87,94.75
139191,2018-06-29 09:57:21.718750,-31.22,94.75
139192,2018-06-29 09:57:21.750000,-38.05,94.75
139193,2018-06-29 09:57:21.781250,-46.05,94.75
139194,2018-06-29 09:57:21.812500,-49.36,94.75
139195,2018-06-29 09:57:21.843750,-41.59,94.75
139196,2018-06-29 09:57:21.875000,-23.42,94.75
139197,2018-06-29 09:57:21.906250,-3.27,94.75
139198,2018-06-29 09:57:21.937500,11.2,94.75
139199,2018-06-29 09:57:21.968750,19.6,94.75
139200,2018-06-29 09:57:22.000000,25.14,94.75
139201,2018-06-29 09:57:22.031250,28.82,94.75
139202,2018-06-29 09:57:22.062500,29.93,94.75
139203,2018-06-29 09:57:22.093750,29.08,94.75
139204,2018-06-29 09:57:22.125000,28.08,94.75
139205,2018-06-29 09:57:22.156250,27.21,94.75
139206,2018-06-29 09:57:22.187500,24.97,94.75
139207,2018-06-29 09:57:22.218750,20.59,94.75
139208,2018-06-29 09:57:22.250000,15.09,94.75
139209,2018-06-29 09:57:22.281250,9.51,94.75
139210,2018-06-29 09:57:22.312500,3.3,94.75
139211,2018-06-29 09:57:22.343750,-4.09,94.75
139212,2018-06-29 09:57:22.375000,-11.46,94.75
139213,2018-06-29 09:57:22.406250,-17.62,94.75
139214,2018-06-29 09:57:22.437500,-23.16,94.75
139215,2018-06-29 09:57:22.468750,-29.06,94.75
139216,2018-06-29 09:57:22.500000,-35.86,94.75
139217,2018-06-29 09:57:22.531250,-44.07,94.5
139218,2018-06-29 09:57:22.562500,-51.23,94.5
139219,2018-06-29 09:57:22.593750,-49.72,94.5
139220,2018-06-29 09:57:22.625000,-34.67,94.5
139221,2018-06-29 09:57:22.656250,-12.25,94.5
139222,2018-06-29 09:57:22.687500,6.31,94.5
139223,2018-06-29 09:57:22.718750,16.86,94.5
139224,2018-06-29 09:57:22.750000,22.14,94.5
139225,2018-06-29 09:57:22.781250,23.94,94.5
139226,2018-06-29 09:57:22.812500,22.45,94.5
139227,2018-06-29 09:57:22.843750,20.06,94.5
139228,2018-06-29 09:57:22.875000,19.62,94.5
139229,2018-06-29 09:57:22.906250,20.76,94.5
139230,2018-06-29 09:57:22.937500,21.18,94.5
139231,2018-06-29 09:57:22.968750,19.75,94.5
139232,2018-06-29 09:57:23.000000,16.84,94.5
139233,2018-06-29 09:57:23.031250,13.04,94.5
139234,2018-06-29 09:57:23.062500,8.14,94.5
139235,2018-06-29 09:57:23.093750,1.66,94.5
139236,2018-06-29 09:57:23.125000,-5.14,94.5
139237,2018-06-29 09:57:23.156250,-10.17,94.5
139238,2018-06-29 09:57:23.187500,-13.62,94.5
139239,2018-06-29 09:57:23.218750,-17.55,94.5
139240,2018-06-29 09:57:23.250000,-23.54,94.5
139241,2018-06-29 09:57:23.281250,-32.02,94.5
139242,2018-06-29 09:57:23.312500,-40.1,94.5
139243,2018-06-29 09:57:23.343750,-40.17,94.5
139244,2018-06-29 09:57:23.375000,-26.72,94.5
139245,2018-06-29 09:57:23.406250,-4.61,94.5
139246,2018-06-29 09:57:23.437500,15.28,94.5
139247,2018-06-29 09:57:23.468750,26.85,94.5
139248,2018-06-29 09:57:23.500000,30.95,94.5
139249,2018-06-29 09:57:23.531250,30.65,94.18
139250,2018-06-29 09:57:23.562500,28.6,94.18
139251,2018-06-29 09:57:23.593750,26.76,94.18
139252,2018-06-29 09:57:23.625000,25.96,94.18
139253,2018-06-29 09:57:23.656250,26.01,94.18
139254,2018-06-29 09:57:23.687500,26.33,94.18
139255,2018-06-29 09:57:23.718750,26.2,94.18
139256,2018-06-29 09:57:23.750000,25.05,94.18
139257,2018-06-29 09:57:23.781250,23.01,94.18
139258,2018-06-29 09:57:23.812500,21.07,94.18
139259,2018-06-29 09:57:23.843750,20.11,94.18
139260,2018-06-29 09:57:23.875000,19.45,94.18
139261,2018-06-29 09:57:23.906250,16.92,94.18
139262,2018-06-29 09:57:23.937500,11.1,94.18
139263,2018-06-29 09:57:23.968750,2.68,94.18
139264,2018-06-29 09:57:24.000000,-6.9,94.18
139265,2018-06-29 09:57:24.031250,-17.14,94.18
139266,2018-06-29 09:57:24.062500,-28.45,94.18
139267,2018-06-29 09:57:24.093750,-40.26,94.18
139268,2018-06-29 09:57:24.125000,-48.19,94.18
139269,2018-06-29 09:57:24.156250,-45.34,94.18
139270,2018-06-29 09:57:24.187500,-29.79,94.18
139271,2018-06-29 09:57:24.218750,-8.62,94.18
139272,2018-06-29 09:57:24.250000,9.0,94.18
139273,2018-06-29 09:57:24.281250,19.79,94.18
139274,2018-06-29 09:57:24.312500,24.88,94.18
139275,2018-06-29 09:57:24.343750,25.45,94.18
139276,2018-06-29 09:57:24.375000,23.67,94.18
139277,2018-06-29 09:57:24.406250,23.27,94.18
139278,2018-06-29 09:57:24.437500,25.46,94.18
139279,2018-06-29 09:57:24.468750,27.57,94.18
139280,2018-06-29 09:57:24.500000,27.5,94.18
139281,2018-06-29 09:57:24.531250,26.32,93.85
139282,2018-06-29 09:57:24.562500,25.34,93.85
139283,2018-06-29 09:57:24.593750,23.46,93.85
139284,2018-06-29 09:57:24.625000,19.23,93.85
139285,2018-06-29 09:57:24.656250,13.83,93.85
139286,2018-06-29 09:57:24.687500,9.93,93.85
139287,2018-06-29 09:57:24.718750,7.62,93.85
139288,2018-06-29 09:57:24.750000,4.42,93.85
139289,2018-06-29 09:57:24.781250,-0.84,93.85
139290,2018-06-29 09:57:24.812500,-7.12,93.85
139291,2018-06-29 09:57:24.843750,-14.03,93.85
139292,2018-06-29 09:57:24.875000,-22.21,93.85
139293,2018-06-29 09:57:24.906250,-31.55,93.85
139294,2018-06-29 09:57:24.937500,-40.28,93.85
139295,2018-06-29 09:57:24.968750,-44.18,93.85
139296,2018-06-29 09:57:25.000000,-38.44,93.85
139297,2018-06-29 09:57:25.031250,-23.59,93.85
139298,2018-06-29 09:57:25.062500,-6.7,93.85
139299,2018-06-29 09:57:25.093750,5.87,93.85
139300,2018-06-29 09:57:25.125000,13.02,93.85
139301,2018-06-29 09:57:25.156250,15.35,93.85
139302,2018-06-29 09:57:25.187500,13.5,93.85
139303,2018-06-29 09:57:25.218750,10.47,93.85
139304,2018-06-29 09:57:25.250000,9.6,93.85
139305,2018-06-29 09:57:25.281250,11.06,93.85
139306,2018-06-29 09:57:25.312500,12.97,93.85
139307,2018-06-29 09:57:25.343750,14.67,93.85
139308,2018-06-29 09:57:25.375000,15.81,93.85
139309,2018-06-29 09:57:25.406250,15.2,93.85
139310,2018-06-29 09:57:25.437500,12.44,93.85
139311,2018-06-29 09:57:25.468750,8.35,93.85
139312,2018-06-29 09:57:25.500000,3.47,93.85
139313,2018-06-29 09:57:25.531250,-1.95,93.55
139314,2018-06-29 09:57:25.562500,-6.41,93.55
139315,2018-06-29 09:57:25.593750,-8.65,93.55
139316,2018-06-29 09:57:25.625000,-9.56,93.55
139317,2018-06-29 09:57:25.656250,-11.32,93.55
139318,2018-06-29 09:57:25.687500,-15.12,93.55
139319,2018-06-29 09:57:25.718750,-19.75,93.55
139320,2018-06-29 09:57:25.750000,-21.58,93.55
139321,2018-06-29 09:57:25.781250,-16.54,93.55
139322,2018-06-29 09:57:25.812500,-4.5,93.55
139323,2018-06-29 09:57:25.843750,9.32,93.55
139324,2018-06-29 09:57:25.875000,18.8,93.55
139325,2018-06-29 09:57:25.906250,22.06,93.55
139326,2018-06-29 09:57:25.937500,21.34,93.55
139327,2018-06-29 09:57:25.968750,19.5,93.55
139328,2018-06-29 09:57:26.000000,18.27,93.55
139329,2018-06-29 09:57:26.031250,18.4,93.55
139330,2018-06-29 09:57:26.062500,19.34,93.55
139331,2018-06-29 09:57:26.093750,19.13,93.55
139332,2018-06-29 09:57:26.125000,17.16,93.55
139333,2018-06-29 09:57:26.156250,15.81,93.55
139334,2018-06-29 09:57:26.187500,15.73,93.55
139335,2018-06-29 09:57:26.218750,12.63,93.55
139336,2018-06-29 09:57:26.250000,3.55,93.55
139337,2018-06-29 09:57:26.281250,-7.47,93.55
139338,2018-06-29 09:57:26.312500,-14.31,93.55
139339,2018-06-29 09:57:26.343750,-15.64,93.55
139340,2018-06-29 09:57:26.375000,-14.2,93.55
139341,2018-06-29 09:57:26.406250,-13.83,93.55
139342,2018-06-29 09:57:26.437500,-17.86,93.55
139343,2018-06-29 09:57:26.468750,-25.65,93.55
139344,2018-06-29 09:57:26.500000,-30.07,93.55
139345,2018-06-29 09:57:26.531250,-23.98,93.25
139346,2018-06-29 09:57:26.562500,-9.09,93.25
139347,2018-06-29 09:57:26.593750,6.25,93.25
139348,2018-06-29 09:57:26.625000,16.47,93.25
139349,2018-06-29 09:57:26.656250,21.53,93.25
139350,2018-06-29 09:57:26.687500,23.0,93.25
139351,2018-06-29 09:57:26.718750,22.35,93.25
139352,2018-06-29 09:57:26.750000,21.76,93.25
139353,2018-06-29 09:57:26.781250,23.2,93.25
139354,2018-06-29 09:57:26.812500,26.19,93.25
139355,2018-06-29 09:57:26.843750,27.85,93.25
139356,2018-06-29 09:57:26.875000,25.84,93.25
139357,2018-06-29 09:57:26.906250,20.18,93.25
139358,2018-06-29 09:57:26.937500,11.82,93.25
139359,2018-06-29 09:57:26.968750,1.35,93.25
139360,2018-06-29 09:57:27.000000,-9.6,93.25
139361,2018-06-29 09:57:27.031250,-17.65,93.25
139362,2018-06-29 09:57:27.062500,-21.17,93.25
139363,2018-06-29 09:57:27.093750,-22.62,93.25
139364,2018-06-29 09:57:27.125000,-25.51,93.25
139365,2018-06-29 09:57:27.156250,-31.19,93.25
139366,2018-06-29 09:57:27.187500,-39.09,93.25
139367,2018-06-29 09:57:27.218750,-45.67,93.25
139368,2018-06-29 09:57:27.250000,-44.31,93.25
139369,2018-06-29 09:57:27.281250,-32.65,93.25
139370,2018-06-29 09:57:27.312500,-16.58,93.25
139371,2018-06-29 09:57:27.343750,-3.3,93.25
139372,2018-06-29 09:57:27.375000,4.93,93.25
139373,2018-06-29 09:57:27.406250,8.63,93.25
139374,2018-06-29 09:57:27.437500,8.58,93.25
139375,2018-06-29 09:57:27.468750,7.01,93.25
139376,2018-06-29 09:57:27.500000,6.43,93.25
139377,2018-06-29 09:57:27.531250,6.69,92.9
139378,2018-06-29 09:57:27.562500,6.17,92.9
139379,2018-06-29 09:57:27.593750,4.75,92.9
139380,2018-06-29 09:57:27.625000,3.87,92.9
139381,2018-06-29 09:57:27.656250,4.08,92.9
139382,2018-06-29 09:57:27.687500,3.88,92.9
139383,2018-06-29 09:57:27.718750,1.64,92.9
139384,2018-06-29 09:57:27.750000,-2.71,92.9
139385,2018-06-29 09:57:27.781250,-7.89,92.9
139386,2018-06-29 09:57:27.812500,-12.65,92.9
139387,2018-06-29 09:57:27.843750,-16.73,92.9
139388,2018-06-29 09:57:27.875000,-20.89,92.9
139389,2018-06-29 09:57:27.906250,-25.4,92.9
139390,2018-06-29 09:57:27.937500,-28.04,92.9
139391,2018-06-29 09:57:27.968750,-25.43,92.9
139392,2018-06-29 09:57:28.000000,-16.97,92.9
139393,2018-06-29 09:57:28.031250,-5.57,92.9
139394,2018-06-29 09:57:28.062500,5.43,92.9
139395,2018-06-29 09:57:28.093750,14.08,92.9
139396,2018-06-29 09:57:28.125000,18.93,92.9
139397,2018-06-29 09:57:28.156250,19.5,92.9
139398,2018-06-29 09:57:28.187500,17.14,92.9
139399,2018-06-29 09:57:28.218750,13.55,92.9
139400,2018-06-29 09:57:28.250000,9.7,92.9
139401,2018-06-29 09:57:28.281250,7.04,92.9
139402,2018-06-29 09:57:28.312500,7.16,92.9
139403,2018-06-29 09:57:28.343750,9.49,92.9
139404,2018-06-29 09:57:28.375000,11.19,92.9
139405,2018-06-29 09:57:28.406250,10.18,92.9
139406,2018-06-29 09:57:28.437500,6.89,92.9
139407,2018-06-29 09:57:28.468750,2.45,92.9
139408,2018-06-29 09:57:28.500000,-3.42,92.9
139409,2018-06-29 09:57:28.531250,-11.26,92.45
139410,2018-06-29 09:57:28.562500,-20.03,92.45
139411,2018-06-29 09:57:28.593750,-26.93,92.45
139412,2018-06-29 09:57:28.625000,-28.02,92.45
139413,2018-06-29 09:57:28.656250,-20.38,92.45
139414,2018-06-29 09:57:28.687500,-6.5,92.45
139415,2018-06-29 09:57:28.718750,6.63,92.45
139416,2018-06-29 09:57:28.750000,14.5,92.45
139417,2018-06-29 09:57:28.781250,17.77,92.45
139418,2018-06-29 09:57:28.812500,18.14,92.45
139419,2018-06-29 09:57:28.843750,16.35,92.45
139420,2018-06-29 09:57:28.875000,13.68,92.45
139421,2018-06-29 09:57:28.906250,11.6,92.45
139422,2018-06-29 09:57:28.937500,10.15,92.45
139423,2018-06-29 09:57:28.968750,8.78,92.45
139424,2018-06-29 09:57:29.000000,7.4,92.45
139425,2018-06-29 09:57:29.031250,5.72,92.45
139426,2018-06-29 09:57:29.062500,2.52,92.45
139427,2018-06-29 09:57:29.093750,-2.92,92.45
139428,2018-06-29 09:57:29.125000,-9.46,92.45
139429,2018-06-29 09:57:29.156250,-15.02,92.45
139430,2018-06-29 09:57:29.187500,-18.71,92.45
139431,2018-06-29 09:57:29.218750,-22.13,92.45
139432,2018-06-29 09:57:29.250000,-27.87,92.45
139433,2018-06-29 09:57:29.281250,-35.35,92.45
139434,2018-06-29 09:57:29.312500,-38.92,92.45
139435,2018-06-29 09:57:29.343750,-33.31,92.45
139436,2018-06-29 09:57:29.375000,-20.03,92.45
139437,2018-06-29 09:57:29.406250,-5.84,92.45
139438,2018-06-29 09:57:29.437500,4.27,92.45
139439,2018-06-29 09:57:29.468750,9.72,92.45
139440,2018-06-29 09:57:29.500000,11.33,92.45
139441,2018-06-29 09:57:29.531250,10.06,92.05
139442,2018-06-29 09:57:29.562500,8.49,92.05
139443,2018-06-29 09:57:29.593750,9.72,92.05
139444,2018-06-29 09:57:29.625000,13.8,92.05
139445,2018-06-29 09:57:29.656250,17.77,92.05
139446,2018-06-29 09:57:29.687500,19.33,92.05
139447,2018-06-29 09:57:29.718750,18.51,92.05
139448,2018-06-29 09:57:29.750000,15.66,92.05
139449,2018-06-29 09:57:29.781250,10.38,92.05
139450,2018-06-29 09:57:29.812500,3.3,92.05
139451,2018-06-29 09:57:29.843750,-2.92,92.05
139452,2018-06-29 09:57:29.875000,-6.33,92.05
139453,2018-06-29 09:57:29.906250,-8.12,92.05
139454,2018-06-29 09:57:29.937500,-10.96,92.05
139455,2018-06-29 09:57:29.968750,-16.76,92.05
139456,2018-06-29 09:57:30.000000,-24.9,92.05
139457,2018-06-29 09:57:30.031250,-30.09,92.05
139458,2018-06-29 09:57:30.062500,-25.24,92.05
139459,2018-06-29 09:57:30.093750,-9.73,92.05
139460,2018-06-29 09:57:30.125000,8.83,92.05
139461,2018-06-29 09:57:30.156250,22.89,92.05
139462,2018-06-29 09:57:30.187500,30.5,92.05
139463,2018-06-29 09:57:30.218750,33.04,92.05
139464,2018-06-29 09:57:30.250000,32.41,92.05
139465,2018-06-29 09:57:30.281250,30.98,92.05
139466,2018-06-29 09:57:30.312500,30.52,92.05
139467,2018-06-29 09:57:30.343750,30.66,92.05
139468,2018-06-29 09:57:30.375000,29.99,92.05
139469,2018-06-29 09:57:30.406250,28.37,92.05
139470,2018-06-29 09:57:30.437500,26.7,92.05
139471,2018-06-29 09:57:30.468750,24.49,92.05
139472,2018-06-29 09:57:30.500000,20.06,92.05
139473,2018-06-29 09:57:30.531250,13.66,91.85
139474,2018-06-29 09:57:30.562500,7.83,91.85
139475,2018-06-29 09:57:30.593750,3.87,91.85
139476,2018-06-29 09:57:30.625000,0.04,91.85
139477,2018-06-29 09:57:30.656250,-5.51,91.85
139478,2018-06-29 09:57:30.687500,-11.99,91.85
139479,2018-06-29 09:57:30.718750,-17.35,91.85
139480,2018-06-29 09:57:30.750000,-21.25,91.85
139481,2018-06-29 09:57:30.781250,-25.36,91.85
139482,2018-06-29 09:57:30.812500,-31.16,91.85
139483,2018-06-29 09:57:30.843750,-37.77,91.85
139484,2018-06-29 09:57:30.875000,-40.86,91.85
139485,2018-06-29 09:57:30.906250,-35.13,91.85
139486,2018-06-29 09:57:30.937500,-20.18,91.85
139487,2018-06-29 09:57:30.968750,-2.2,91.85
139488,2018-06-29 09:57:31.000000,12.45,91.85
139489,2018-06-29 09:57:31.031250,23.44,91.85
139490,2018-06-29 09:57:31.062500,33.63,91.85
139491,2018-06-29 09:57:31.093750,43.07,91.85
139492,2018-06-29 09:57:31.125000,49.38,91.85
139493,2018-06-29 09:57:31.156250,51.22,91.85
139494,2018-06-29 09:57:31.187500,48.72,91.85
139495,2018-06-29 09:57:31.218750,42.7,91.85
139496,2018-06-29 09:57:31.250000,36.09,91.85
139497,2018-06-29 09:57:31.281250,33.15,91.85
139498,2018-06-29 09:57:31.312500,34.76,91.85
139499,2018-06-29 09:57:31.343750,36.17,91.85
139500,2018-06-29 09:57:31.375000,32.25,91.85
139501,2018-06-29 09:57:31.406250,23.53,91.85
139502,2018-06-29 09:57:31.437500,12.7,91.85
139503,2018-06-29 09:57:31.468750,-1.99,91.85
139504,2018-06-29 09:57:31.500000,-22.58,91.85
139505,2018-06-29 09:57:31.531250,-43.32,91.67
139506,2018-06-29 09:57:31.562500,-56.15,91.67
139507,2018-06-29 09:57:31.593750,-61.44,91.67
139508,2018-06-29 09:57:31.625000,-65.11,91.67
139509,2018-06-29 09:57:31.656250,-69.63,91.67
139510,2018-06-29 09:57:31.687500,-72.47,91.67
139511,2018-06-29 09:57:31.718750,-68.89,91.67
139512,2018-06-29 09:57:31.750000,-55.98,91.67
139513,2018-06-29 09:57:31.781250,-37.76,91.67
139514,2018-06-29 09:57:31.812500,-23.03,91.67
139515,2018-06-29 09:57:31.843750,-15.87,91.67
139516,2018-06-29 09:57:31.875000,-13.31,91.67
139517,2018-06-29 09:57:31.906250,-11.44,91.67
139518,2018-06-29 09:57:31.937500,-8.0,91.67
139519,2018-06-29 09:57:31.968750,-1.66,91.67
139520,2018-06-29 09:57:32.000000,6.33,91.67
139521,2018-06-29 09:57:32.031250,12.78,91.67
139522,2018-06-29 09:57:32.062500,16.85,91.67
139523,2018-06-29 09:57:32.093750,20.06,91.67
139524,2018-06-29 09:57:32.125000,22.02,91.67
139525,2018-06-29 09:57:32.156250,21.02,91.67
139526,2018-06-29 09:57:32.187500,18.09,91.67
139527,2018-06-29 09:57:32.218750,16.11,91.67
139528,2018-06-29 09:57:32.250000,15.54,91.67
139529,2018-06-29 09:57:32.281250,14.41,91.67
139530,2018-06-29 09:57:32.312500,11.69,91.67
139531,2018-06-29 09:57:32.343750,7.86,91.67
139532,2018-06-29 09:57:32.375000,3.62,91.67
139533,2018-06-29 09:57:32.406250,-0.57,91.67
139534,2018-06-29 09:57:32.437500,-5.76,91.67
139535,2018-06-29 09:57:32.468750,-14.89,91.67
139536,2018-06-29 09:57:32.500000,-28.68,91.67
139537,2018-06-29 09:57:32.531250,-41.63,91.45
139538,2018-06-29 09:57:32.562500,-46.44,91.45
139539,2018-06-29 09:57:32.593750,-42.98,91.45
139540,2018-06-29 09:57:32.625000,-38.13,91.45
139541,2018-06-29 09:57:32.656250,-36.38,91.45
139542,2018-06-29 09:57:32.687500,-34.66,91.45
139543,2018-06-29 09:57:32.718750,-27.64,91.45
139544,2018-06-29 09:57:32.750000,-13.57,91.45
139545,2018-06-29 09:57:32.781250,5.86,91.45
139546,2018-06-29 09:57:32.812500,27.58,91.45
139547,2018-06-29 09:57:32.843750,48.28,91.45
139548,2018-06-29 09:57:32.875000,66.97,91.45
139549,2018-06-29 09:57:32.906250,86.12,91.45
139550,2018-06-29 09:57:32.937500,106.77,91.45
139551,2018-06-29 09:57:32.968750,123.94,91.45
139552,2018-06-29 09:57:33.000000,130.87,91.45
139553,2018-06-29 09:57:33.031250,125.47,91.45
139554,2018-06-29 09:57:33.062500,108.96,91.45
139555,2018-06-29 09:57:33.093750,82.75,91.45
139556,2018-06-29 09:57:33.125000,49.85,91.45
139557,2018-06-29 09:57:33.156250,15.4,91.45
139558,2018-06-29 09:57:33.187500,-15.47,91.45
139559,2018-06-29 09:57:33.218750,-38.41,91.45
139560,2018-06-29 09:57:33.250000,-52.07,91.45
139561,2018-06-29 09:57:33.281250,-60.51,91.45
139562,2018-06-29 09:57:33.312500,-67.89,91.45
139563,2018-06-29 09:57:33.343750,-72.03,91.45
139564,2018-06-29 09:57:33.375000,-70.27,91.45
139565,2018-06-29 09:57:33.406250,-67.13,91.45
139566,2018-06-29 09:57:33.437500,-68.47,91.45
139567,2018-06-29 09:57:33.468750,-72.16,91.45
139568,2018-06-29 09:57:33.500000,-70.86,91.45
139569,2018-06-29 09:57:33.531250,-60.43,91.22
139570,2018-06-29 09:57:33.562500,-41.97,91.22
139571,2018-06-29 09:57:33.593750,-18.89,91.22
139572,2018-06-29 09:57:33.625000,4.49,91.22
139573,2018-06-29 09:57:33.656250,23.98,91.22
139574,2018-06-29 09:57:33.687500,37.37,91.22
139575,2018-06-29 09:57:33.718750,45.01,91.22
139576,2018-06-29 09:57:33.750000,47.89,91.22
139577,2018-06-29 09:57:33.781250,45.7,91.22
139578,2018-06-29 09:57:33.812500,38.44,91.22
139579,2018-06-29 09:57:33.843750,28.49,91.22
139580,2018-06-29 09:57:33.875000,19.62,91.22
139581,2018-06-29 09:57:33.906250,14.18,91.22
139582,2018-06-29 09:57:33.937500,11.47,91.22
139583,2018-06-29 09:57:33.968750,9.18,91.22
139584,2018-06-29 09:57:34.000000,5.53,91.22
139585,2018-06-29 09:57:34.031250,0.7,91.22
139586,2018-06-29 09:57:34.062500,-4.31,91.22
139587,2018-06-29 09:57:34.093750,-9.07,91.22
139588,2018-06-29 09:57:34.125000,-13.01,91.22
139589,2018-06-29 09:57:34.156250,-14.73,91.22
139590,2018-06-29 09:57:34.187500,-13.47,91.22
139591,2018-06-29 09:57:34.218750,-9.86,91.22
139592,2018-06-29 09:57:34.250000,-5.25,91.22
139593,2018-06-29 09:57:34.281250,-1.36,91.22
139594,2018-06-29 09:57:34.312500,-0.11,91.22
139595,2018-06-29 09:57:34.343750,-2.96,91.22
139596,2018-06-29 09:57:34.375000,-10.37,91.22
139597,2018-06-29 09:57:34.406250,-19.68,91.22
139598,2018-06-29 09:57:34.437500,-24.55,91.22
139599,2018-06-29 09:57:34.468750,-20.33,91.22
139600,2018-06-29 09:57:34.500000,-8.76,91.22
139601,2018-06-29 09:57:34.531250,6.06,90.92
139602,2018-06-29 09:57:34.562500,22.88,90.92
139603,2018-06-29 09:57:34.593750,38.3,90.92
139604,2018-06-29 09:57:34.625000,43.26,90.92
139605,2018-06-29 09:57:34.656250,33.54,90.92
139606,2018-06-29 09:57:34.687500,16.96,90.92
139607,2018-06-29 09:57:34.718750,3.32,90.92
139608,2018-06-29 09:57:34.750000,-4.73,90.92
139609,2018-06-29 09:57:34.781250,-7.24,90.92
139610,2018-06-29 09:57:34.812500,-3.18,90.92
139611,2018-06-29 09:57:34.843750,5.6,90.92
139612,2018-06-29 09:57:34.875000,12.91,90.92
139613,2018-06-29 09:57:34.906250,12.23,90.92
139614,2018-06-29 09:57:34.937500,1.93,90.92
139615,2018-06-29 09:57:34.968750,-12.99,90.92
139616,2018-06-29 09:57:35.000000,-25.06,90.92
139617,2018-06-29 09:57:35.031250,-28.68,90.92
139618,2018-06-29 09:57:35.062500,-22.53,90.92
139619,2018-06-29 09:57:35.093750,-9.65,90.92
139620,2018-06-29 09:57:35.125000,6.83,90.92
139621,2018-06-29 09:57:35.156250,27.4,90.92
139622,2018-06-29 09:57:35.187500,51.16,90.92
139623,2018-06-29 09:57:35.218750,70.16,90.92
139624,2018-06-29 09:57:35.250000,74.74,90.92
139625,2018-06-29 09:57:35.281250,62.71,90.92
139626,2018-06-29 09:57:35.312500,39.48,90.92
139627,2018-06-29 09:57:35.343750,11.74,90.92
139628,2018-06-29 09:57:35.375000,-16.02,90.92
139629,2018-06-29 09:57:35.406250,-40.53,90.92
139630,2018-06-29 09:57:35.437500,-59.83,90.92
139631,2018-06-29 09:57:35.468750,-73.53,90.92
139632,2018-06-29 09:57:35.500000,-81.02,90.92
139633,2018-06-29 09:57:35.531250,-80.18,90.68
139634,2018-06-29 09:57:35.562500,-70.0,90.68
139635,2018-06-29 09:57:35.593750,-53.1,90.68
139636,2018-06-29 09:57:35.625000,-31.35,90.68
139637,2018-06-29 09:57:35.656250,-4.13,90.68
139638,2018-06-29 09:57:35.687500,26.5,90.68
139639,2018-06-29 09:57:35.718750,50.02,90.68
139640,2018-06-29 09:57:35.750000,56.16,90.68
139641,2018-06-29 09:57:35.781250,43.84,90.68
139642,2018-06-29 09:57:35.812500,19.9,90.68
139643,2018-06-29 09:57:35.843750,-8.1,90.68
139644,2018-06-29 09:57:35.875000,-36.25,90.68
139645,2018-06-29 09:57:35.906250,-58.81,90.68
139646,2018-06-29 09:57:35.937500,-75.2,90.68
139647,2018-06-29 09:57:35.968750,-87.56,90.68
139648,2018-06-29 09:57:36.000000,-100.22,90.68
139649,2018-06-29 09:57:36.031250,-109.53,90.68
139650,2018-06-29 09:57:36.062500,-110.24,90.68
139651,2018-06-29 09:57:36.093750,-106.44,90.68
139652,2018-06-29 09:57:36.125000,-103.73,90.68
139653,2018-06-29 09:57:36.156250,-103.24,90.68
139654,2018-06-29 09:57:36.187500,-97.24,90.68
139655,2018-06-29 09:57:36.218750,-96.94,90.68
139656,2018-06-29 09:57:36.250000,-90.84,90.68
139657,2018-06-29 09:57:36.281250,-43.66,90.68
139658,2018-06-29 09:57:36.312500,31.68,90.68
139659,2018-06-29 09:57:36.343750,134.23,90.68
139660,2018-06-29 09:57:36.375000,236.1,90.68
139661,2018-06-29 09:57:36.406250,302.71,90.68
139662,2018-06-29 09:57:36.437500,297.69,90.68
139663,2018-06-29 09:57:36.468750,213.25,90.68
139664,2018-06-29 09:57:36.500000,104.4,90.68
139665,2018-06-29 09:57:36.531250,9.13,90.52
139666,2018-06-29 09:57:36.562500,-65.01,90.52
139667,2018-06-29 09:57:36.593750,-109.35,90.52
139668,2018-06-29 09:57:36.625000,-120.96,90.52
139669,2018-06-29 09:57:36.656250,-114.31,90.52
139670,2018-06-29 09:57:36.687500,-103.38,90.52
139671,2018-06-29 09:57:36.718750,-93.94,90.52
139672,2018-06-29 09:57:36.750000,-79.23,90.52
139673,2018-06-29 09:57:36.781250,-55.36,90.52
139674,2018-06-29 09:57:36.812500,-24.85,90.52
139675,2018-06-29 09:57:36.843750,6.79,90.52
139676,2018-06-29 09:57:36.875000,35.72,90.52
139677,2018-06-29 09:57:36.906250,63.75,90.52
139678,2018-06-29 09:57:36.937500,87.66,90.52
139679,2018-06-29 09:57:36.968750,100.02,90.52
139680,2018-06-29 09:57:37.000000,98.18,90.52
139681,2018-06-29 09:57:37.031250,87.92,90.52
139682,2018-06-29 09:57:37.062500,71.48,90.52
139683,2018-06-29 09:57:37.093750,47.32,90.52
139684,2018-06-29 09:57:37.125000,22.29,90.52
139685,2018-06-29 09:57:37.156250,6.26,90.52
139686,2018-06-29 09:57:37.187500,-1.64,90.52
139687,2018-06-29 09:57:37.218750,-11.17,90.52
139688,2018-06-29 09:57:37.250000,-26.92,90.52
139689,2018-06-29 09:57:37.281250,-44.14,90.52
139690,2018-06-29 09:57:37.312500,-55.43,90.52
139691,2018-06-29 09:57:37.343750,-58.61,90.52
139692,2018-06-29 09:57:37.375000,-61.98,90.52
139693,2018-06-29 09:57:37.406250,-77.09,90.52
139694,2018-06-29 09:57:37.437500,-100.26,90.52
139695,2018-06-29 09:57:37.468750,-107.97,90.52
139696,2018-06-29 09:57:37.500000,-79.31,90.52
139697,2018-06-29 09:57:37.531250,-18.28,90.38
139698,2018-06-29 09:57:37.562500,51.6,90.38
139699,2018-06-29 09:57:37.593750,107.42,90.38
139700,2018-06-29 09:57:37.625000,136.17,90.38
139701,2018-06-29 09:57:37.656250,135.07,90.38
139702,2018-06-29 09:57:37.687500,112.77,90.38
139703,2018-06-29 09:57:37.718750,85.06,90.38
139704,2018-06-29 09:57:37.750000,62.58,90.38
139705,2018-06-29 09:57:37.781250,46.43,90.38
139706,2018-06-29 09:57:37.812500,35.35,90.38
139707,2018-06-29 09:57:37.843750,29.87,90.38
139708,2018-06-29 09:57:37.875000,30.11,90.38
139709,2018-06-29 09:57:37.906250,35.48,90.38
139710,2018-06-29 09:57:37.937500,44.57,90.38
139711,2018-06-29 09:57:37.968750,52.84,90.38
139712,2018-06-29 09:57:38.000000,53.83,90.38
139713,2018-06-29 09:57:38.031250,42.56,90.38
139714,2018-06-29 09:57:38.062500,17.22,90.38
139715,2018-06-29 09:57:38.093750,-16.28,90.38
139716,2018-06-29 09:57:38.125000,-43.58,90.38
139717,2018-06-29 09:57:38.156250,-54.84,90.38
139718,2018-06-29 09:57:38.187500,-54.7,90.38
139719,2018-06-29 09:57:38.218750,-52.87,90.38
139720,2018-06-29 09:57:38.250000,-51.58,90.38
139721,2018-06-29 09:57:38.281250,-47.75,90.38
139722,2018-06-29 09:57:38.312500,-41.1,90.38
139723,2018-06-29 09:57:38.343750,-35.99,90.38
139724,2018-06-29 09:57:38.375000,-37.3,90.38
139725,2018-06-29 09:57:38.406250,-45.4,90.38
139726,2018-06-29 09:57:38.437500,-54.62,90.38
139727,2018-06-29 09:57:38.468750,-57.62,90.38
139728,2018-06-29 09:57:38.500000,-52.31,90.38
139729,2018-06-29 09:57:38.531250,-42.92,90.37
139730,2018-06-29 09:57:38.562500,-33.43,90.37
139731,2018-06-29 09:57:38.593750,-23.06,90.37
139732,2018-06-29 09:57:38.625000,-10.92,90.37
139733,2018-06-29 09:57:38.656250,-1.81,90.37
139734,2018-06-29 09:57:38.687500,-1.12,90.37
139735,2018-06-29 09:57:38.718750,-10.35,90.37
139736,2018-06-29 09:57:38.750000,-29.04,90.37
139737,2018-06-29 09:57:38.781250,-52.15,90.37
139738,2018-06-29 09:57:38.812500,-67.42,90.37
139739,2018-06-29 09:57:38.843750,-66.42,90.37
139740,2018-06-29 09:57:38.875000,-54.53,90.37
139741,2018-06-29 09:57:38.906250,-40.88,90.37
139742,2018-06-29 09:57:38.937500,-26.56,90.37
139743,2018-06-29 09:57:38.968750,-9.9,90.37
139744,2018-06-29 09:57:39.000000,6.86,90.37
139745,2018-06-29 09:57:39.031250,21.18,90.37
139746,2018-06-29 09:57:39.062500,33.62,90.37
139747,2018-06-29 09:57:39.093750,44.38,90.37
139748,2018-06-29 09:57:39.125000,52.79,90.37
139749,2018-06-29 09:57:39.156250,60.38,90.37
139750,2018-06-29 09:57:39.187500,68.27,90.37
139751,2018-06-29 09:57:39.218750,72.23,90.37
139752,2018-06-29 09:57:39.250000,66.31,90.37
139753,2018-06-29 09:57:39.281250,50.03,90.37
139754,2018-06-29 09:57:39.312500,27.66,90.37
139755,2018-06-29 09:57:39.343750,3.19,90.37
139756,2018-06-29 09:57:39.375000,-21.19,90.37
139757,2018-06-29 09:57:39.406250,-43.53,90.37
139758,2018-06-29 09:57:39.437500,-60.3,90.37
139759,2018-06-29 09:57:39.468750,-65.58,90.37
139760,2018-06-29 09:57:39.500000,-55.59,90.37
139761,2018-06-29 09:57:39.531250,-33.95,90.33
139762,2018-06-29 09:57:39.562500,-9.33,90.33
139763,2018-06-29 09:57:39.593750,11.12,90.33
139764,2018-06-29 09:57:39.625000,25.15,90.33
139765,2018-06-29 09:57:39.656250,35.38,90.33
139766,2018-06-29 09:57:39.687500,46.63,90.33
139767,2018-06-29 09:57:39.718750,60.79,90.33
139768,2018-06-29 09:57:39.750000,73.28,90.33
139769,2018-06-29 09:57:39.781250,77.09,90.33
139770,2018-06-29 09:57:39.812500,74.04,90.33
139771,2018-06-29 09:57:39.843750,76.38,90.33
139772,2018-06-29 09:57:39.875000,88.64,90.33
139773,2018-06-29 09:57:39.906250,95.22,90.33
139774,2018-06-29 09:57:39.937500,77.13,90.33
139775,2018-06-29 09:57:39.968750,33.92,90.33
139776,2018-06-29 09:57:40.000000,-19.96,90.33
139777,2018-06-29 09:57:40.031250,-71.09,90.33
139778,2018-06-29 09:57:40.062500,-111.56,90.33
139779,2018-06-29 09:57:40.093750,-135.48,90.33
139780,2018-06-29 09:57:40.125000,-138.72,90.33
139781,2018-06-29 09:57:40.156250,-121.12,90.33
139782,2018-06-29 09:57:40.187500,-87.74,90.33
139783,2018-06-29 09:57:40.218750,-47.59,90.33
139784,2018-06-29 09:57:40.250000,-9.89,90.33
139785,2018-06-29 09:57:40.281250,19.21,90.33
139786,2018-06-29 09:57:40.312500,36.92,90.33
139787,2018-06-29 09:57:40.343750,42.56,90.33
139788,2018-06-29 09:57:40.375000,37.64,90.33
139789,2018-06-29 09:57:40.406250,26.4,90.33
139790,2018-06-29 09:57:40.437500,14.78,90.33
139791,2018-06-29 09:57:40.468750,7.16,90.33
139792,2018-06-29 09:57:40.500000,3.23,90.33
139793,2018-06-29 09:57:40.531250,-0.76,90.28
139794,2018-06-29 09:57:40.562500,-6.3,90.28
139795,2018-06-29 09:57:40.593750,-9.55,90.28
139796,2018-06-29 09:57:40.625000,-6.42,90.28
139797,2018-06-29 09:57:40.656250,0.73,90.28
139798,2018-06-29 09:57:40.687500,5.02,90.28
139799,2018-06-29 09:57:40.718750,3.68,90.28
139800,2018-06-29 09:57:40.750000,2.65,90.28
139801,2018-06-29 09:57:40.781250,8.12,90.28
139802,2018-06-29 09:57:40.812500,13.16,90.28
139803,2018-06-29 09:57:40.843750,1.06,90.28
139804,2018-06-29 09:57:40.875000,-31.32,90.28
139805,2018-06-29 09:57:40.906250,-58.24,90.28
139806,2018-06-29 09:57:40.937500,-43.28,90.28
139807,2018-06-29 09:57:40.968750,23.28,90.28
139808,2018-06-29 09:57:41.000000,107.49,90.28
139809,2018-06-29 09:57:41.031250,159.19,90.28
139810,2018-06-29 09:57:41.062500,155.5,90.28
139811,2018-06-29 09:57:41.093750,111.25,90.28
139812,2018-06-29 09:57:41.125000,54.77,90.28
139813,2018-06-29 09:57:41.156250,7.26,90.28
139814,2018-06-29 09:57:41.187500,-22.32,90.28
139815,2018-06-29 09:57:41.218750,-37.29,90.28
139816,2018-06-29 09:57:41.250000,-46.73,90.28
139817,2018-06-29 09:57:41.281250,-53.87,90.28
139818,2018-06-29 09:57:41.312500,-55.94,90.28
139819,2018-06-29 09:57:41.343750,-53.59,90.28
139820,2018-06-29 09:57:41.375000,-52.74,90.28
139821,2018-06-29 09:57:41.406250,-56.28,90.28
139822,2018-06-29 09:57:41.437500,-59.68,90.28
139823,2018-06-29 09:57:41.468750,-57.5,90.28
139824,2018-06-29 09:57:41.500000,-50.63,90.28
139825,2018-06-29 09:57:41.531250,-42.7,90.25
139826,2018-06-29 09:57:41.562500,-33.4,90.25
139827,2018-06-29 09:57:41.593750,-21.58,90.25
139828,2018-06-29 09:57:41.625000,-10.51,90.25
139829,2018-06-29 09:57:41.656250,-3.65,90.25
139830,2018-06-29 09:57:41.687500,0.68,90.25
139831,2018-06-29 09:57:41.718750,8.19,90.25
139832,2018-06-29 09:57:41.750000,23.34,90.25
139833,2018-06-29 09:57:41.781250,40.28,90.25
139834,2018-06-29 09:57:41.812500,46.98,90.25
139835,2018-06-29 09:57:41.843750,49.6,90.25
139836,2018-06-29 09:57:41.875000,77.18,90.25
139837,2018-06-29 09:57:41.906250,139.43,90.25
139838,2018-06-29 09:57:41.937500,198.61,90.25
139839,2018-06-29 09:57:41.968750,206.97,90.25
139840,2018-06-29 09:57:42.000000,154.51,90.25
139841,2018-06-29 09:57:42.031250,65.32,90.25
139842,2018-06-29 09:57:42.062500,-31.07,90.25
139843,2018-06-29 09:57:42.093750,-112.14,90.25
139844,2018-06-29 09:57:42.125000,-164.36,90.25
139845,2018-06-29 09:57:42.156250,-185.29,90.25
139846,2018-06-29 09:57:42.187500,-180.22,90.25
139847,2018-06-29 09:57:42.218750,-157.14,90.25
139848,2018-06-29 09:57:42.250000,-124.26,90.25
139849,2018-06-29 09:57:42.281250,-87.24,90.25
139850,2018-06-29 09:57:42.312500,-49.39,90.25
139851,2018-06-29 09:57:42.343750,-15.52,90.25
139852,2018-06-29 09:57:42.375000,10.77,90.25
139853,2018-06-29 09:57:42.406250,31.75,90.25
139854,2018-06-29 09:57:42.437500,48.74,90.25
139855,2018-06-29 09:57:42.468750,57.37,90.25
139856,2018-06-29 09:57:42.500000,58.57,90.25
139857,2018-06-29 09:57:42.531250,62.47,90.18
139858,2018-06-29 09:57:42.562500,72.53,90.18
139859,2018-06-29 09:57:42.593750,78.19,90.18
139860,2018-06-29 09:57:42.625000,69.38,90.18
139861,2018-06-29 09:57:42.656250,48.39,90.18
139862,2018-06-29 09:57:42.687500,25.07,90.18
139863,2018-06-29 09:57:42.718750,7.34,90.18
139864,2018-06-29 09:57:42.750000,-2.86,90.18
139865,2018-06-29 09:57:42.781250,-9.41,90.18
139866,2018-06-29 09:57:42.812500,-18.06,90.18
139867,2018-06-29 09:57:42.843750,-29.26,90.18
139868,2018-06-29 09:57:42.875000,-34.27,90.18
139869,2018-06-29 09:57:42.906250,-21.99,90.18
139870,2018-06-29 09:57:42.937500,5.13,90.18
139871,2018-06-29 09:57:42.968750,31.12,90.18
139872,2018-06-29 09:57:43.000000,50.07,90.18
139873,2018-06-29 09:57:43.031250,73.89,90.18
139874,2018-06-29 09:57:43.062500,105.01,90.18
139875,2018-06-29 09:57:43.093750,124.91,90.18
139876,2018-06-29 09:57:43.125000,121.06,90.18
139877,2018-06-29 09:57:43.156250,100.94,90.18
139878,2018-06-29 09:57:43.187500,73.56,90.18
139879,2018-06-29 09:57:43.218750,41.4,90.18
139880,2018-06-29 09:57:43.250000,10.04,90.18
139881,2018-06-29 09:57:43.281250,-13.18,90.18
139882,2018-06-29 09:57:43.312500,-28.31,90.18
139883,2018-06-29 09:57:43.343750,-39.6,90.18
139884,2018-06-29 09:57:43.375000,-47.86,90.18
139885,2018-06-29 09:57:43.406250,-51.4,90.18
139886,2018-06-29 09:57:43.437500,-51.25,90.18
139887,2018-06-29 09:57:43.468750,-50.69,90.18
139888,2018-06-29 09:57:43.500000,-50.96,90.18
139889,2018-06-29 09:57:43.531250,-49.79,90.12
139890,2018-06-29 09:57:43.562500,-44.65,90.12
139891,2018-06-29 09:57:43.593750,-36.93,90.12
139892,2018-06-29 09:57:43.625000,-30.85,90.12
139893,2018-06-29 09:57:43.656250,-28.52,90.12
139894,2018-06-29 09:57:43.687500,-28.38,90.12
139895,2018-06-29 09:57:43.718750,-28.9,90.12
139896,2018-06-29 09:57:43.750000,-30.81,90.12
139897,2018-06-29 09:57:43.781250,-34.72,90.12
139898,2018-06-29 09:57:43.812500,-39.15,90.12
139899,2018-06-29 09:57:43.843750,-42.3,90.12
139900,2018-06-29 09:57:43.875000,-44.03,90.12
139901,2018-06-29 09:57:43.906250,-44.78,90.12
139902,2018-06-29 09:57:43.937500,-42.88,90.12
139903,2018-06-29 09:57:43.968750,-35.45,90.12
139904,2018-06-29 09:57:44.000000,-21.51,90.12
139905,2018-06-29 09:57:44.031250,-3.79,90.12
139906,2018-06-29 09:57:44.062500,12.89,90.12
139907,2018-06-29 09:57:44.093750,25.45,90.12
139908,2018-06-29 09:57:44.125000,34.86,90.12
139909,2018-06-29 09:57:44.156250,44.46,90.12
139910,2018-06-29 09:57:44.187500,55.43,90.12
139911,2018-06-29 09:57:44.218750,64.76,90.12
139912,2018-06-29 09:57:44.250000,68.46,90.12
139913,2018-06-29 09:57:44.281250,66.97,90.12
139914,2018-06-29 09:57:44.312500,62.69,90.12
139915,2018-06-29 09:57:44.343750,51.15,90.12
139916,2018-06-29 09:57:44.375000,23.83,90.12
139917,2018-06-29 09:57:44.406250,-17.72,90.12
139918,2018-06-29 09:57:44.437500,-60.07,90.12
139919,2018-06-29 09:57:44.468750,-91.98,90.12
139920,2018-06-29 09:57:44.500000,-112.14,90.12
139921,2018-06-29 09:57:44.531250,-121.75,90.05
139922,2018-06-29 09:57:44.562500,-118.35,90.05
139923,2018-06-29 09:57:44.593750,-100.89,90.05
139924,2018-06-29 09:57:44.625000,-74.69,90.05
139925,2018-06-29 09:57:44.656250,-46.34,90.05
139926,2018-06-29 09:57:44.687500,-18.31,90.05
139927,2018-06-29 09:57:44.718750,8.34,90.05
139928,2018-06-29 09:57:44.750000,30.79,90.05
139929,2018-06-29 09:57:44.781250,47.37,90.05
139930,2018-06-29 09:57:44.812500,58.87,90.05
139931,2018-06-29 09:57:44.843750,65.29,90.05
139932,2018-06-29 09:57:44.875000,64.81,90.05
139933,2018-06-29 09:57:44.906250,57.61,90.05
139934,2018-06-29 09:57:44.937500,47.98,90.05
139935,2018-06-29 09:57:44.968750,39.59,90.05
139936,2018-06-29 09:57:45.000000,29.88,90.05
139937,2018-06-29 09:57:45.031250,14.08,90.05
139938,2018-06-29 09:57:45.062500,-4.99,90.05
139939,2018-06-29 09:57:45.093750,-17.76,90.05
139940,2018-06-29 09:57:45.125000,-20.19,90.05
139941,2018-06-29 09:57:45.156250,-19.56,90.05
139942,2018-06-29 09:57:45.187500,-24.71,90.05
139943,2018-06-29 09:57:45.218750,-35.48,90.05
139944,2018-06-29 09:57:45.250000,-44.02,90.05
139945,2018-06-29 09:57:45.281250,-43.13,90.05
139946,2018-06-29 09:57:45.312500,-34.69,90.05
139947,2018-06-29 09:57:45.343750,-29.97,90.05
139948,2018-06-29 09:57:45.375000,-33.54,90.05
139949,2018-06-29 09:57:45.406250,-28.88,90.05
139950,2018-06-29 09:57:45.437500,2.16,90.05
139951,2018-06-29 09:57:45.468750,46.88,90.05
139952,2018-06-29 09:57:45.500000,71.03,90.05
139953,2018-06-29 09:57:45.531250,59.06,89.93
139954,2018-06-29 09:57:45.562500,24.62,89.93
139955,2018-06-29 09:57:45.593750,-12.28,89.93
139956,2018-06-29 09:57:45.625000,-38.24,89.93
139957,2018-06-29 09:57:45.656250,-44.83,89.93
139958,2018-06-29 09:57:45.687500,-33.19,89.93
139959,2018-06-29 09:57:45.718750,-16.6,89.93
139960,2018-06-29 09:57:45.750000,-6.71,89.93
139961,2018-06-29 09:57:45.781250,-0.9,89.93
139962,2018-06-29 09:57:45.812500,8.73,89.93
139963,2018-06-29 09:57:45.843750,20.19,89.93
139964,2018-06-29 09:57:45.875000,26.01,89.93
139965,2018-06-29 09:57:45.906250,26.6,89.93
139966,2018-06-29 09:57:45.937500,27.93,89.93
139967,2018-06-29 09:57:45.968750,29.15,89.93
139968,2018-06-29 09:57:46.000000,23.11,89.93
139969,2018-06-29 09:57:46.031250,8.47,89.93
139970,2018-06-29 09:57:46.062500,-6.12,89.93
139971,2018-06-29 09:57:46.093750,-12.74,89.93
139972,2018-06-29 09:57:46.125000,-15.97,89.93
139973,2018-06-29 09:57:46.156250,-25.71,89.93
139974,2018-06-29 09:57:46.187500,-40.55,89.93
139975,2018-06-29 09:57:46.218750,-45.63,89.93
139976,2018-06-29 09:57:46.250000,-32.73,89.93
139977,2018-06-29 09:57:46.281250,-13.39,89.93
139978,2018-06-29 09:57:46.312500,-5.0,89.93
139979,2018-06-29 09:57:46.343750,-8.12,89.93
139980,2018-06-29 09:57:46.375000,-2.34,89.93
139981,2018-06-29 09:57:46.406250,25.47,89.93
139982,2018-06-29 09:57:46.437500,53.41,89.93
139983,2018-06-29 09:57:46.468750,39.13,89.93
139984,2018-06-29 09:57:46.500000,-22.39,89.93
139985,2018-06-29 09:57:46.531250,-63.46,89.8
139986,2018-06-29 09:57:46.562500,-20.81,89.8
139987,2018-06-29 09:57:46.593750,95.68,89.8
139988,2018-06-29 09:57:46.625000,211.71,89.8
139989,2018-06-29 09:57:46.656250,260.67,89.8
139990,2018-06-29 09:57:46.687500,227.68,89.8
139991,2018-06-29 09:57:46.718750,140.09,89.8
139992,2018-06-29 09:57:46.750000,37.26,89.8
139993,2018-06-29 09:57:46.781250,-45.1,89.8
139994,2018-06-29 09:57:46.812500,-89.8,89.8
139995,2018-06-29 09:57:46.843750,-106.71,89.8
139996,2018-06-29 09:57:46.875000,-114.78,89.8
139997,2018-06-29 09:57:46.906250,-117.47,89.8
139998,2018-06-29 09:57:46.937500,-107.81,89.8
139999,2018-06-29 09:57:46.968750,-89.84,89.8
140000,2018-06-29 09:57:47.000000,-76.78,89.8
140001,2018-06-29 09:57:47.031250,-72.83,89.8
140002,2018-06-29 09:57:47.062500,-68.55,89.8
140003,2018-06-29 09:57:47.093750,-54.93,89.8
140004,2018-06-29 09:57:47.125000,-35.31,89.8
140005,2018-06-29 09:57:47.156250,-21.02,89.8
140006,2018-06-29 09:57:47.187500,-17.84,89.8
140007,2018-06-29 09:57:47.218750,-20.02,89.8
140008,2018-06-29 09:57:47.250000,-19.36,89.8
140009,2018-06-29 09:57:47.281250,-14.11,89.8
140010,2018-06-29 09:57:47.312500,-7.09,89.8
140011,2018-06-29 09:57:47.343750,0.04,89.8
140012,2018-06-29 09:57:47.375000,7.76,89.8
140013,2018-06-29 09:57:47.406250,16.49,89.8
140014,2018-06-29 09:57:47.437500,25.32,89.8
140015,2018-06-29 09:57:47.468750,32.99,89.8
140016,2018-06-29 09:57:47.500000,39.66,89.8
140017,2018-06-29 09:57:47.531250,46.71,89.67
140018,2018-06-29 09:57:47.562500,55.24,89.67
140019,2018-06-29 09:57:47.593750,64.98,89.67
140020,2018-06-29 09:57:47.625000,71.37,89.67
140021,2018-06-29 09:57:47.656250,66.31,89.67
140022,2018-06-29 09:57:47.687500,49.53,89.67
140023,2018-06-29 09:57:47.718750,32.72,89.67
140024,2018-06-29 09:57:47.750000,22.32,89.67
140025,2018-06-29 09:57:47.781250,9.45,89.67
140026,2018-06-29 09:57:47.812500,-14.87,89.67
140027,2018-06-29 09:57:47.843750,-47.21,89.67
140028,2018-06-29 09:57:47.875000,-78.92,89.67
140029,2018-06-29 09:57:47.906250,-102.18,89.67
140030,2018-06-29 09:57:47.937500,-108.84,89.67
140031,2018-06-29 09:57:47.968750,-95.8,89.67
140032,2018-06-29 09:57:48.000000,-71.44,89.67
140033,2018-06-29 09:57:48.031250,-47.79,89.67
140034,2018-06-29 09:57:48.062500,-27.81,89.67
140035,2018-06-29 09:57:48.093750,-7.46,89.67
140036,2018-06-29 09:57:48.125000,12.87,89.67
140037,2018-06-29 09:57:48.156250,28.06,89.67
140038,2018-06-29 09:57:48.187500,36.6,89.67
140039,2018-06-29 09:57:48.218750,40.86,89.67
140040,2018-06-29 09:57:48.250000,41.49,89.67
140041,2018-06-29 09:57:48.281250,37.49,89.67
140042,2018-06-29 09:57:48.312500,30.02,89.67
140043,2018-06-29 09:57:48.343750,21.9,89.67
140044,2018-06-29 09:57:48.375000,14.04,89.67
140045,2018-06-29 09:57:48.406250,5.56,89.67
140046,2018-06-29 09:57:48.437500,-2.79,89.67
140047,2018-06-29 09:57:48.468750,-8.34,89.67
140048,2018-06-29 09:57:48.500000,-10.25,89.67
140049,2018-06-29 09:57:48.531250,-10.16,89.53
140050,2018-06-29 09:57:48.562500,-8.97,89.53
140051,2018-06-29 09:57:48.593750,-6.22,89.53
140052,2018-06-29 09:57:48.625000,-3.42,89.53
140053,2018-06-29 09:57:48.656250,-4.81,89.53
140054,2018-06-29 09:57:48.687500,-11.76,89.53
140055,2018-06-29 09:57:48.718750,-17.68,89.53
140056,2018-06-29 09:57:48.750000,-12.14,89.53
140057,2018-06-29 09:57:48.781250,8.28,89.53
140058,2018-06-29 09:57:48.812500,34.05,89.53
140059,2018-06-29 09:57:48.843750,49.57,89.53
140060,2018-06-29 09:57:48.875000,47.62,89.53
140061,2018-06-29 09:57:48.906250,35.11,89.53
140062,2018-06-29 09:57:48.937500,22.67,89.53
140063,2018-06-29 09:57:48.968750,13.23,89.53
140064,2018-06-29 09:57:49.000000,4.24,89.53
140065,2018-06-29 09:57:49.031250,-4.96,89.53
140066,2018-06-29 09:57:49.062500,-12.92,89.53
140067,2018-06-29 09:57:49.093750,-18.55,89.53
140068,2018-06-29 09:57:49.125000,-20.82,89.53
140069,2018-06-29 09:57:49.156250,-18.78,89.53
140070,2018-06-29 09:57:49.187500,-13.03,89.53
140071,2018-06-29 09:57:49.218750,-6.25,89.53
140072,2018-06-29 09:57:49.250000,-1.5,89.53
140073,2018-06-29 09:57:49.281250,1.04,89.53
140074,2018-06-29 09:57:49.312500,3.62,89.53
140075,2018-06-29 09:57:49.343750,5.95,89.53
140076,2018-06-29 09:57:49.375000,5.0,89.53
140077,2018-06-29 09:57:49.406250,0.4,89.53
140078,2018-06-29 09:57:49.437500,-5.46,89.53
140079,2018-06-29 09:57:49.468750,-11.98,89.53
140080,2018-06-29 09:57:49.500000,-18.87,89.53
140081,2018-06-29 09:57:49.531250,-21.8,89.33
140082,2018-06-29 09:57:49.562500,-16.83,89.33
140083,2018-06-29 09:57:49.593750,-7.09,89.33
140084,2018-06-29 09:57:49.625000,1.59,89.33
140085,2018-06-29 09:57:49.656250,9.0,89.33
140086,2018-06-29 09:57:49.687500,18.82,89.33
140087,2018-06-29 09:57:49.718750,31.39,89.33
140088,2018-06-29 09:57:49.750000,43.86,89.33
140089,2018-06-29 09:57:49.781250,54.62,89.33
140090,2018-06-29 09:57:49.812500,63.51,89.33
140091,2018-06-29 09:57:49.843750,71.22,89.33
140092,2018-06-29 09:57:49.875000,79.8,89.33
140093,2018-06-29 09:57:49.906250,87.54,89.33
140094,2018-06-29 09:57:49.937500,84.62,89.33
140095,2018-06-29 09:57:49.968750,65.09,89.33
140096,2018-06-29 09:57:50.000000,39.48,89.33
140097,2018-06-29 09:57:50.031250,21.48,89.33
140098,2018-06-29 09:57:50.062500,8.01,89.33
140099,2018-06-29 09:57:50.093750,-12.31,89.33
140100,2018-06-29 09:57:50.125000,-39.12,89.33
140101,2018-06-29 09:57:50.156250,-63.17,89.33
140102,2018-06-29 09:57:50.187500,-80.75,89.33
140103,2018-06-29 09:57:50.218750,-93.32,89.33
140104,2018-06-29 09:57:50.250000,-100.08,89.33
140105,2018-06-29 09:57:50.281250,-99.38,89.33
140106,2018-06-29 09:57:50.312500,-90.99,89.33
140107,2018-06-29 09:57:50.343750,-72.98,89.33
140108,2018-06-29 09:57:50.375000,-45.36,89.33
140109,2018-06-29 09:57:50.406250,-16.61,89.33
140110,2018-06-29 09:57:50.437500,5.08,89.33
140111,2018-06-29 09:57:50.468750,22.47,89.33
140112,2018-06-29 09:57:50.500000,39.56,89.33
140113,2018-06-29 09:57:50.531250,50.14,89.07
140114,2018-06-29 09:57:50.562500,47.15,89.07
140115,2018-06-29 09:57:50.593750,33.35,89.07
140116,2018-06-29 09:57:50.625000,16.02,89.07
140117,2018-06-29 09:57:50.656250,0.25,89.07
140118,2018-06-29 09:57:50.687500,-9.56,89.07
140119,2018-06-29 09:57:50.718750,-10.08,89.07
140120,2018-06-29 09:57:50.750000,-2.93,89.07
140121,2018-06-29 09:57:50.781250,6.82,89.07
140122,2018-06-29 09:57:50.812500,16.47,89.07
140123,2018-06-29 09:57:50.843750,26.88,89.07
140124,2018-06-29 09:57:50.875000,39.23,89.07
140125,2018-06-29 09:57:50.906250,53.13,89.07
140126,2018-06-29 09:57:50.937500,66.59,89.07
140127,2018-06-29 09:57:50.968750,76.53,89.07
140128,2018-06-29 09:57:51.000000,79.25,89.07
140129,2018-06-29 09:57:51.031250,71.53,89.07
140130,2018-06-29 09:57:51.062500,53.62,89.07
140131,2018-06-29 09:57:51.093750,32.81,89.07
140132,2018-06-29 09:57:51.125000,20.81,89.07
140133,2018-06-29 09:57:51.156250,24.28,89.07
140134,2018-06-29 09:57:51.187500,36.98,89.07
140135,2018-06-29 09:57:51.218750,43.12,89.07
140136,2018-06-29 09:57:51.250000,30.19,89.07
140137,2018-06-29 09:57:51.281250,-1.12,89.07
140138,2018-06-29 09:57:51.312500,-39.33,89.07
140139,2018-06-29 09:57:51.343750,-72.04,89.07
140140,2018-06-29 09:57:51.375000,-92.2,89.07
140141,2018-06-29 09:57:51.406250,-98.63,89.07
140142,2018-06-29 09:57:51.437500,-94.33,89.07
140143,2018-06-29 09:57:51.468750,-83.56,89.07
140144,2018-06-29 09:57:51.500000,-69.58,89.07
140145,2018-06-29 09:57:51.531250,-54.6,88.8
140146,2018-06-29 09:57:51.562500,-40.36,88.8
140147,2018-06-29 09:57:51.593750,-27.43,88.8
140148,2018-06-29 09:57:51.625000,-15.13,88.8
140149,2018-06-29 09:57:51.656250,-3.67,88.8
140150,2018-06-29 09:57:51.687500,3.84,88.8
140151,2018-06-29 09:57:51.718750,3.24,88.8
140152,2018-06-29 09:57:51.750000,-7.17,88.8
140153,2018-06-29 09:57:51.781250,-23.68,88.8
140154,2018-06-29 09:57:51.812500,-36.65,88.8
140155,2018-06-29 09:57:51.843750,-37.15,88.8
140156,2018-06-29 09:57:51.875000,-26.18,88.8
140157,2018-06-29 09:57:51.906250,-12.74,88.8
140158,2018-06-29 09:57:51.937500,-1.35,88.8
140159,2018-06-29 09:57:51.968750,11.55,88.8
140160,2018-06-29 09:57:52.000000,27.99,88.8
140161,2018-06-29 09:57:52.031250,42.69,88.8
140162,2018-06-29 09:57:52.062500,49.89,88.8
140163,2018-06-29 09:57:52.093750,51.19,88.8
140164,2018-06-29 09:57:52.125000,53.92,88.8
140165,2018-06-29 09:57:52.156250,64.28,88.8
140166,2018-06-29 09:57:52.187500,77.92,88.8
140167,2018-06-29 09:57:52.218750,79.02,88.8
140168,2018-06-29 09:57:52.250000,60.05,88.8
140169,2018-06-29 09:57:52.281250,40.59,88.8
140170,2018-06-29 09:57:52.312500,46.41,88.8
140171,2018-06-29 09:57:52.343750,69.76,88.8
140172,2018-06-29 09:57:52.375000,75.08,88.8
140173,2018-06-29 09:57:52.406250,42.68,88.8
140174,2018-06-29 09:57:52.437500,-15.73,88.8
