,Time,ppg,hr
147200,2018-06-29 10:01:32.000000,-139.98,88.62
147201,2018-06-29 10:01:32.031250,-131.16,88.62
147202,2018-06-29 10:01:32.062500,-113.07,88.62
147203,2018-06-29 10:01:32.093750,-92.79,88.62
147204,2018-06-29 10:01:32.125000,-75.49,88.62
147205,2018-06-29 10:01:32.156250,-59.87,88.62
147206,2018-06-29 10:01:32.187500,-45.13,88.62
147207,2018-06-29 10:01:32.218750,-31.78,88.62
147208,2018-06-29 10:01:32.250000,-21.25,88.62
147209,2018-06-29 10:01:32.281250,-16.35,88.62
147210,2018-06-29 10:01:32.312500,-19.2,88.62
147211,2018-06-29 10:01:32.343750,-27.5,88.62
147212,2018-06-29 10:01:32.375000,-36.73,88.62
147213,2018-06-29 10:01:32.406250,-44.19,88.62
147214,2018-06-29 10:01:32.437500,-49.03,88.62
147215,2018-06-29 10:01:32.468750,-50.4,88.62
147216,2018-06-29 10:01:32.500000,-47.28,88.62
147217,2018-06-29 10:01:32.531250,-40.83,88.28
147218,2018-06-29 10:01:32.562500,-33.64,88.28
147219,2018-06-29 10:01:32.593750,-28.17,88.28
147220,2018-06-29 10:01:32.625000,-25.51,88.28
147221,2018-06-29 10:01:32.656250,-25.94,88.28
147222,2018-06-29 10:01:32.687500,-27.99,88.28
147223,2018-06-29 10:01:32.718750,-26.87,88.28
147224,2018-06-29 10:01:32.750000,-17.37,88.28
147225,2018-06-29 10:01:32.781250,0.77,88.28
147226,2018-06-29 10:01:32.812500,22.45,88.28
147227,2018-06-29 10:01:32.843750,42.95,88.28
147228,2018-06-29 10:01:32.875000,60.49,88.28
147229,2018-06-29 10:01:32.906250,73.66,88.28
147230,2018-06-29 10:01:32.937500,80.77,88.28
147231,2018-06-29 10:01:32.968750,82.67,88.28
147232,2018-06-29 10:01:33.000000,82.61,88.28
147233,2018-06-29 10:01:33.031250,82.08,88.28
147234,2018-06-29 10:01:33.062500,79.85,88.28
147235,2018-06-29 10:01:33.093750,75.79,88.28
147236,2018-06-29 10:01:33.125000,72.06,88.28
147237,2018-06-29 10:01:33.156250,69.43,88.28
147238,2018-06-29 10:01:33.187500,66.28,88.28
147239,2018-06-29 10:01:33.218750,61.86,88.28
147240,2018-06-29 10:01:33.250000,57.33,88.28
147241,2018-06-29 10:01:33.281250,53.45,88.28
147242,2018-06-29 10:01:33.312500,49.89,88.28
147243,2018-06-29 10:01:33.343750,46.68,88.28
147244,2018-06-29 10:01:33.375000,44.29,88.28
147245,2018-06-29 10:01:33.406250,41.95,88.28
147246,2018-06-29 10:01:33.437500,37.67,88.28
147247,2018-06-29 10:01:33.468750,30.73,88.28
147248,2018-06-29 10:01:33.500000,22.69,88.28
147249,2018-06-29 10:01:33.531250,15.12,87.98
147250,2018-06-29 10:01:33.562500,8.18,87.98
147251,2018-06-29 10:01:33.593750,1.73,87.98
147252,2018-06-29 10:01:33.625000,-3.91,87.98
147253,2018-06-29 10:01:33.656250,-8.31,87.98
147254,2018-06-29 10:01:33.687500,-11.1,87.98
147255,2018-06-29 10:01:33.718750,-12.58,87.98
147256,2018-06-29 10:01:33.750000,-14.11,87.98
147257,2018-06-29 10:01:33.781250,-15.85,87.98
147258,2018-06-29 10:01:33.812500,-14.78,87.98
147259,2018-06-29 10:01:33.843750,-8.18,87.98
147260,2018-06-29 10:01:33.875000,1.47,87.98
147261,2018-06-29 10:01:33.906250,8.81,87.98
147262,2018-06-29 10:01:33.937500,12.47,87.98
147263,2018-06-29 10:01:33.968750,15.08,87.98
147264,2018-06-29 10:01:34.000000,17.29,87.98
147265,2018-06-29 10:01:34.031250,16.96,87.98
147266,2018-06-29 10:01:34.062500,14.0,87.98
147267,2018-06-29 10:01:34.093750,11.13,87.98
147268,2018-06-29 10:01:34.125000,9.97,87.98
147269,2018-06-29 10:01:34.156250,10.01,87.98
147270,2018-06-29 10:01:34.187500,10.65,87.98
147271,2018-06-29 10:01:34.218750,11.45,87.98
147272,2018-06-29 10:01:34.250000,11.28,87.98
147273,2018-06-29 10:01:34.281250,9.4,87.98
147274,2018-06-29 10:01:34.312500,6.59,87.98
147275,2018-06-29 10:01:34.343750,4.53,87.98
147276,2018-06-29 10:01:34.375000,3.88,87.98
147277,2018-06-29 10:01:34.406250,3.87,87.98
147278,2018-06-29 10:01:34.437500,3.16,87.98
147279,2018-06-29 10:01:34.468750,1.38,87.98
147280,2018-06-29 10:01:34.500000,-0.39,87.98
147281,2018-06-29 10:01:34.531250,-1.02,87.65
147282,2018-06-29 10:01:34.562500,-1.05,87.65
147283,2018-06-29 10:01:34.593750,-1.65,87.65
147284,2018-06-29 10:01:34.625000,-2.64,87.65
147285,2018-06-29 10:01:34.656250,-3.19,87.65
147286,2018-06-29 10:01:34.687500,-4.01,87.65
147287,2018-06-29 10:01:34.718750,-6.36,87.65
147288,2018-06-29 10:01:34.750000,-9.67,87.65
147289,2018-06-29 10:01:34.781250,-12.34,87.65
147290,2018-06-29 10:01:34.812500,-13.94,87.65
147291,2018-06-29 10:01:34.843750,-14.92,87.65
147292,2018-06-29 10:01:34.875000,-15.66,87.65
147293,2018-06-29 10:01:34.906250,-16.59,87.65
147294,2018-06-29 10:01:34.937500,-17.21,87.65
147295,2018-06-29 10:01:34.968750,-15.31,87.65
147296,2018-06-29 10:01:35.000000,-9.51,87.65
147297,2018-06-29 10:01:35.031250,-1.8,87.65
147298,2018-06-29 10:01:35.062500,4.65,87.65
147299,2018-06-29 10:01:35.093750,9.04,87.65
147300,2018-06-29 10:01:35.125000,12.31,87.65
147301,2018-06-29 10:01:35.156250,14.4,87.65
147302,2018-06-29 10:01:35.187500,14.29,87.65
147303,2018-06-29 10:01:35.218750,12.3,87.65
147304,2018-06-29 10:01:35.250000,10.05,87.65
147305,2018-06-29 10:01:35.281250,8.53,87.65
147306,2018-06-29 10:01:35.312500,7.37,87.65
147307,2018-06-29 10:01:35.343750,6.1,87.65
147308,2018-06-29 10:01:35.375000,5.13,87.65
147309,2018-06-29 10:01:35.406250,4.79,87.65
147310,2018-06-29 10:01:35.437500,4.49,87.65
147311,2018-06-29 10:01:35.468750,3.71,87.65
147312,2018-06-29 10:01:35.500000,3.05,87.65
147313,2018-06-29 10:01:35.531250,2.92,87.33
147314,2018-06-29 10:01:35.562500,2.47,87.33
147315,2018-06-29 10:01:35.593750,1.3,87.33
147316,2018-06-29 10:01:35.625000,0.41,87.33
147317,2018-06-29 10:01:35.656250,0.24,87.33
147318,2018-06-29 10:01:35.687500,-0.26,87.33
147319,2018-06-29 10:01:35.718750,-1.92,87.33
147320,2018-06-29 10:01:35.750000,-4.33,87.33
147321,2018-06-29 10:01:35.781250,-6.48,87.33
147322,2018-06-29 10:01:35.812500,-7.69,87.33
147323,2018-06-29 10:01:35.843750,-8.31,87.33
147324,2018-06-29 10:01:35.875000,-9.43,87.33
147325,2018-06-29 10:01:35.906250,-11.21,87.33
147326,2018-06-29 10:01:35.937500,-12.8,87.33
147327,2018-06-29 10:01:35.968750,-13.79,87.33
147328,2018-06-29 10:01:36.000000,-14.65,87.33
147329,2018-06-29 10:01:36.031250,-15.95,87.33
147330,2018-06-29 10:01:36.062500,-18.14,87.33
147331,2018-06-29 10:01:36.093750,-19.95,87.33
147332,2018-06-29 10:01:36.125000,-18.09,87.33
147333,2018-06-29 10:01:36.156250,-11.53,87.33
147334,2018-06-29 10:01:36.187500,-3.71,87.33
147335,2018-06-29 10:01:36.218750,2.31,87.33
147336,2018-06-29 10:01:36.250000,7.03,87.33
147337,2018-06-29 10:01:36.281250,11.03,87.33
147338,2018-06-29 10:01:36.312500,13.12,87.33
147339,2018-06-29 10:01:36.343750,12.72,87.33
147340,2018-06-29 10:01:36.375000,10.55,87.33
147341,2018-06-29 10:01:36.406250,7.54,87.33
147342,2018-06-29 10:01:36.437500,4.72,87.33
147343,2018-06-29 10:01:36.468750,3.26,87.33
147344,2018-06-29 10:01:36.500000,3.75,87.33
147345,2018-06-29 10:01:36.531250,5.19,87.02
147346,2018-06-29 10:01:36.562500,5.23,87.02
147347,2018-06-29 10:01:36.593750,2.83,87.02
147348,2018-06-29 10:01:36.625000,-0.38,87.02
147349,2018-06-29 10:01:36.656250,-2.15,87.02
147350,2018-06-29 10:01:36.687500,-2.23,87.02
147351,2018-06-29 10:01:36.718750,-1.73,87.02
147352,2018-06-29 10:01:36.750000,-1.56,87.02
147353,2018-06-29 10:01:36.781250,-1.97,87.02
147354,2018-06-29 10:01:36.812500,-2.72,87.02
147355,2018-06-29 10:01:36.843750,-3.42,87.02
147356,2018-06-29 10:01:36.875000,-4.02,87.02
147357,2018-06-29 10:01:36.906250,-4.9,87.02
147358,2018-06-29 10:01:36.937500,-6.2,87.02
147359,2018-06-29 10:01:36.968750,-7.27,87.02
147360,2018-06-29 10:01:37.000000,-7.34,87.02
147361,2018-06-29 10:01:37.031250,-6.74,87.02
147362,2018-06-29 10:01:37.062500,-6.72,87.02
147363,2018-06-29 10:01:37.093750,-7.65,87.02
147364,2018-06-29 10:01:37.125000,-7.38,87.02
147365,2018-06-29 10:01:37.156250,-2.81,87.02
147366,2018-06-29 10:01:37.187500,6.12,87.02
147367,2018-06-29 10:01:37.218750,15.53,87.02
147368,2018-06-29 10:01:37.250000,21.7,87.02
147369,2018-06-29 10:01:37.281250,24.14,87.02
147370,2018-06-29 10:01:37.312500,24.41,87.02
147371,2018-06-29 10:01:37.343750,24.07,87.02
147372,2018-06-29 10:01:37.375000,24.8,87.02
147373,2018-06-29 10:01:37.406250,27.62,87.02
147374,2018-06-29 10:01:37.437500,31.7,87.02
147375,2018-06-29 10:01:37.468750,35.64,87.02
147376,2018-06-29 10:01:37.500000,38.45,87.02
147377,2018-06-29 10:01:37.531250,38.71,86.8
147378,2018-06-29 10:01:37.562500,35.84,86.8
147379,2018-06-29 10:01:37.593750,31.29,86.8
147380,2018-06-29 10:01:37.625000,26.27,86.8
147381,2018-06-29 10:01:37.656250,20.81,86.8
147382,2018-06-29 10:01:37.687500,15.34,86.8
147383,2018-06-29 10:01:37.718750,8.91,86.8
147384,2018-06-29 10:01:37.750000,-2.45,86.8
147385,2018-06-29 10:01:37.781250,-20.43,86.8
147386,2018-06-29 10:01:37.812500,-40.42,86.8
147387,2018-06-29 10:01:37.843750,-56.22,86.8
147388,2018-06-29 10:01:37.875000,-65.92,86.8
147389,2018-06-29 10:01:37.906250,-72.34,86.8
147390,2018-06-29 10:01:37.937500,-80.37,86.8
147391,2018-06-29 10:01:37.968750,-90.51,86.8
147392,2018-06-29 10:01:38.000000,-94.02,86.8
147393,2018-06-29 10:01:38.031250,-80.93,86.8
147394,2018-06-29 10:01:38.062500,-51.54,86.8
147395,2018-06-29 10:01:38.093750,-15.5,86.8
147396,2018-06-29 10:01:38.125000,18.06,86.8
147397,2018-06-29 10:01:38.156250,43.7,86.8
147398,2018-06-29 10:01:38.187500,60.69,86.8
147399,2018-06-29 10:01:38.218750,72.8,86.8
147400,2018-06-29 10:01:38.250000,84.63,86.8
147401,2018-06-29 10:01:38.281250,95.96,86.8
147402,2018-06-29 10:01:38.312500,103.06,86.8
147403,2018-06-29 10:01:38.343750,105.59,86.8
147404,2018-06-29 10:01:38.375000,102.59,86.8
147405,2018-06-29 10:01:38.406250,91.31,86.8
147406,2018-06-29 10:01:38.437500,68.36,86.8
147407,2018-06-29 10:01:38.468750,41.92,86.8
147408,2018-06-29 10:01:38.500000,24.69,86.8
147409,2018-06-29 10:01:38.531250,19.51,86.55
147410,2018-06-29 10:01:38.562500,15.67,86.55
147411,2018-06-29 10:01:38.593750,0.72,86.55
147412,2018-06-29 10:01:38.625000,-21.07,86.55
147413,2018-06-29 10:01:38.656250,-45.19,86.55
147414,2018-06-29 10:01:38.687500,-76.48,86.55
147415,2018-06-29 10:01:38.718750,-128.48,86.55
147416,2018-06-29 10:01:38.750000,-193.82,86.55
147417,2018-06-29 10:01:38.781250,-256.93,86.55
147418,2018-06-29 10:01:38.812500,-307.15,86.55
147419,2018-06-29 10:01:38.843750,-276.51,86.55
147420,2018-06-29 10:01:38.875000,-181.49,86.55
147421,2018-06-29 10:01:38.906250,-91.19,86.55
147422,2018-06-29 10:01:38.937500,-17.37,86.55
147423,2018-06-29 10:01:38.968750,46.15,86.55
147424,2018-06-29 10:01:39.000000,78.26,86.55
147425,2018-06-29 10:01:39.031250,73.23,86.55
147426,2018-06-29 10:01:39.062500,60.66,86.55
147427,2018-06-29 10:01:39.093750,66.82,86.55
147428,2018-06-29 10:01:39.125000,84.64,86.55
147429,2018-06-29 10:01:39.156250,95.77,86.55
147430,2018-06-29 10:01:39.187500,101.21,86.55
147431,2018-06-29 10:01:39.218750,108.27,86.55
147432,2018-06-29 10:01:39.250000,122.26,86.55
147433,2018-06-29 10:01:39.281250,136.44,86.55
147434,2018-06-29 10:01:39.312500,122.65,86.55
147435,2018-06-29 10:01:39.343750,52.71,86.55
147436,2018-06-29 10:01:39.375000,-50.18,86.55
147437,2018-06-29 10:01:39.406250,-127.75,86.55
147438,2018-06-29 10:01:39.437500,-143.63,86.55
147439,2018-06-29 10:01:39.468750,-98.23,86.55
147440,2018-06-29 10:01:39.500000,-26.91,86.55
147441,2018-06-29 10:01:39.531250,47.12,86.28
147442,2018-06-29 10:01:39.562500,101.95,86.28
147443,2018-06-29 10:01:39.593750,127.42,86.28
147444,2018-06-29 10:01:39.625000,132.84,86.28
147445,2018-06-29 10:01:39.656250,133.94,86.28
147446,2018-06-29 10:01:39.687500,131.9,86.28
147447,2018-06-29 10:01:39.718750,123.3,86.28
147448,2018-06-29 10:01:39.750000,111.11,86.28
147449,2018-06-29 10:01:39.781250,105.17,86.28
147450,2018-06-29 10:01:39.812500,111.93,86.28
147451,2018-06-29 10:01:39.843750,125.47,86.28
147452,2018-06-29 10:01:39.875000,138.21,86.28
147453,2018-06-29 10:01:39.906250,143.35,86.28
147454,2018-06-29 10:01:39.937500,136.41,86.28
147455,2018-06-29 10:01:39.968750,125.69,86.28
147456,2018-06-29 10:01:40.000000,110.09,86.28
147457,2018-06-29 10:01:40.031250,86.65,86.28
147458,2018-06-29 10:01:40.062500,52.82,86.28
147459,2018-06-29 10:01:40.093750,15.61,86.28
147460,2018-06-29 10:01:40.125000,-16.31,86.28
147461,2018-06-29 10:01:40.156250,-35.49,86.28
147462,2018-06-29 10:01:40.187500,-48.6,86.28
147463,2018-06-29 10:01:40.218750,-60.62,86.28
147464,2018-06-29 10:01:40.250000,-66.78,86.28
147465,2018-06-29 10:01:40.281250,-68.39,86.28
147466,2018-06-29 10:01:40.312500,-78.54,86.28
147467,2018-06-29 10:01:40.343750,-124.48,86.28
147468,2018-06-29 10:01:40.375000,-192.3,86.28
147469,2018-06-29 10:01:40.406250,-261.07,86.28
147470,2018-06-29 10:01:40.437500,-323.06,86.28
147471,2018-06-29 10:01:40.468750,-402.45,86.28
147472,2018-06-29 10:01:40.500000,-503.98,86.28
147473,2018-06-29 10:01:40.531250,-604.43,86.05
147474,2018-06-29 10:01:40.562500,-693.19,86.05
147475,2018-06-29 10:01:40.593750,-738.62,86.05
147476,2018-06-29 10:01:40.625000,-722.89,86.05
147477,2018-06-29 10:01:40.656250,-624.21,86.05
147478,2018-06-29 10:01:40.687500,-484.96,86.05
147479,2018-06-29 10:01:40.718750,-305.83,86.05
147480,2018-06-29 10:01:40.750000,37.9,86.05
147481,2018-06-29 10:01:40.781250,300.27,86.05
147482,2018-06-29 10:01:40.812500,391.79,86.05
147483,2018-06-29 10:01:40.843750,403.02,86.05
147484,2018-06-29 10:01:40.875000,385.68,86.05
147485,2018-06-29 10:01:40.906250,326.99,86.05
147486,2018-06-29 10:01:40.937500,272.68,86.05
147487,2018-06-29 10:01:40.968750,259.65,86.05
147488,2018-06-29 10:01:41.000000,280.79,86.05
147489,2018-06-29 10:01:41.031250,293.55,86.05
147490,2018-06-29 10:01:41.062500,284.35,86.05
147491,2018-06-29 10:01:41.093750,284.43,86.05
147492,2018-06-29 10:01:41.125000,303.36,86.05
147493,2018-06-29 10:01:41.156250,318.17,86.05
147494,2018-06-29 10:01:41.187500,290.53,86.05
147495,2018-06-29 10:01:41.218750,224.5,86.05
147496,2018-06-29 10:01:41.250000,130.41,86.05
147497,2018-06-29 10:01:41.281250,80.27,86.05
147498,2018-06-29 10:01:41.312500,87.79,86.05
147499,2018-06-29 10:01:41.343750,129.18,86.05
147500,2018-06-29 10:01:41.375000,197.6,86.05
147501,2018-06-29 10:01:41.406250,266.28,86.05
147502,2018-06-29 10:01:41.437500,292.2,86.05
147503,2018-06-29 10:01:41.468750,261.92,86.05
147504,2018-06-29 10:01:41.500000,190.46,86.05
147505,2018-06-29 10:01:41.531250,118.87,85.82
147506,2018-06-29 10:01:41.562500,65.59,85.82
147507,2018-06-29 10:01:41.593750,28.98,85.82
147508,2018-06-29 10:01:41.625000,11.32,85.82
147509,2018-06-29 10:01:41.656250,17.21,85.82
147510,2018-06-29 10:01:41.687500,42.05,85.82
147511,2018-06-29 10:01:41.718750,71.98,85.82
147512,2018-06-29 10:01:41.750000,96.95,85.82
147513,2018-06-29 10:01:41.781250,113.12,85.82
147514,2018-06-29 10:01:41.812500,117.11,85.82
147515,2018-06-29 10:01:41.843750,105.66,85.82
147516,2018-06-29 10:01:41.875000,80.29,85.82
147517,2018-06-29 10:01:41.906250,47.95,85.82
147518,2018-06-29 10:01:41.937500,16.18,85.82
147519,2018-06-29 10:01:41.968750,-11.4,85.82
147520,2018-06-29 10:01:42.000000,-33.21,85.82
147521,2018-06-29 10:01:42.031250,-47.83,85.82
147522,2018-06-29 10:01:42.062500,-54.46,85.82
147523,2018-06-29 10:01:42.093750,-54.83,85.82
147524,2018-06-29 10:01:42.125000,-52.45,85.82
147525,2018-06-29 10:01:42.156250,-50.28,85.82
147526,2018-06-29 10:01:42.187500,-49.79,85.82
147527,2018-06-29 10:01:42.218750,-51.31,85.82
147528,2018-06-29 10:01:42.250000,-56.37,85.82
147529,2018-06-29 10:01:42.281250,-68.47,85.82
147530,2018-06-29 10:01:42.312500,-91.18,85.82
147531,2018-06-29 10:01:42.343750,-125.89,85.82
147532,2018-06-29 10:01:42.375000,-172.79,85.82
147533,2018-06-29 10:01:42.406250,-233.22,85.82
147534,2018-06-29 10:01:42.437500,-307.98,85.82
147535,2018-06-29 10:01:42.468750,-392.76,85.82
147536,2018-06-29 10:01:42.500000,-480.21,85.82
147537,2018-06-29 10:01:42.531250,-566.7,85.82
147538,2018-06-29 10:01:42.562500,-648.52,85.82
147539,2018-06-29 10:01:42.593750,-713.7,85.82
147540,2018-06-29 10:01:42.625000,-745.89,85.82
147541,2018-06-29 10:01:42.656250,-729.12,85.82
147542,2018-06-29 10:01:42.687500,-652.59,85.82
147543,2018-06-29 10:01:42.718750,-528.25,85.82
147544,2018-06-29 10:01:42.750000,-394.96,85.82
147545,2018-06-29 10:01:42.781250,-286.23,85.82
147546,2018-06-29 10:01:42.812500,-206.11,85.82
147547,2018-06-29 10:01:42.843750,-145.56,85.82
147548,2018-06-29 10:01:42.875000,-99.64,85.82
147549,2018-06-29 10:01:42.906250,-63.52,85.82
147550,2018-06-29 10:01:42.937500,-31.5,85.82
147551,2018-06-29 10:01:42.968750,-3.52,85.82
147552,2018-06-29 10:01:43.000000,16.73,85.82
147553,2018-06-29 10:01:43.031250,28.73,85.82
147554,2018-06-29 10:01:43.062500,35.03,85.82
147555,2018-06-29 10:01:43.093750,36.51,85.82
147556,2018-06-29 10:01:43.125000,32.21,85.82
147557,2018-06-29 10:01:43.156250,24.03,85.82
147558,2018-06-29 10:01:43.187500,17.76,85.82
147559,2018-06-29 10:01:43.218750,18.15,85.82
147560,2018-06-29 10:01:43.250000,25.7,85.82
147561,2018-06-29 10:01:43.281250,39.22,85.82
147562,2018-06-29 10:01:43.312500,59.04,85.82
147563,2018-06-29 10:01:43.343750,85.18,85.82
147564,2018-06-29 10:01:43.375000,113.74,85.82
147565,2018-06-29 10:01:43.406250,137.5,85.82
147566,2018-06-29 10:01:43.437500,150.03,85.82
147567,2018-06-29 10:01:43.468750,148.28,85.82
147568,2018-06-29 10:01:43.500000,132.93,85.82
147569,2018-06-29 10:01:43.531250,109.28,85.83
147570,2018-06-29 10:01:43.562500,87.33,85.83
147571,2018-06-29 10:01:43.593750,77.1,85.83
147572,2018-06-29 10:01:43.625000,82.14,85.83
147573,2018-06-29 10:01:43.656250,99.53,85.83
147574,2018-06-29 10:01:43.687500,125.11,85.83
147575,2018-06-29 10:01:43.718750,156.58,85.83
147576,2018-06-29 10:01:43.750000,193.89,85.83
147577,2018-06-29 10:01:43.781250,239.49,85.83
147578,2018-06-29 10:01:43.812500,290.09,85.83
147579,2018-06-29 10:01:43.843750,325.77,85.83
147580,2018-06-29 10:01:43.875000,321.69,85.83
147581,2018-06-29 10:01:43.906250,274.08,85.83
147582,2018-06-29 10:01:43.937500,204.91,85.83
147583,2018-06-29 10:01:43.968750,143.54,85.83
147584,2018-06-29 10:01:44.000000,111.78,85.83
147585,2018-06-29 10:01:44.031250,117.74,85.83
147586,2018-06-29 10:01:44.062500,152.01,85.83
147587,2018-06-29 10:01:44.093750,197.08,85.83
147588,2018-06-29 10:01:44.125000,245.06,85.83
147589,2018-06-29 10:01:44.156250,297.84,85.83
147590,2018-06-29 10:01:44.187500,350.62,85.83
147591,2018-06-29 10:01:44.218750,389.58,85.83
147592,2018-06-29 10:01:44.250000,409.64,85.83
147593,2018-06-29 10:01:44.281250,419.94,85.83
147594,2018-06-29 10:01:44.312500,424.82,85.83
147595,2018-06-29 10:01:44.343750,408.94,85.83
147596,2018-06-29 10:01:44.375000,353.64,85.83
147597,2018-06-29 10:01:44.406250,266.87,85.83
147598,2018-06-29 10:01:44.437500,182.66,85.83
147599,2018-06-29 10:01:44.468750,128.79,85.83
147600,2018-06-29 10:01:44.500000,108.44,85.83
147601,2018-06-29 10:01:44.531250,110.38,85.85
147602,2018-06-29 10:01:44.562500,119.78,85.85
147603,2018-06-29 10:01:44.593750,122.68,85.85
147604,2018-06-29 10:01:44.625000,114.57,85.85
147605,2018-06-29 10:01:44.656250,101.1,85.85
147606,2018-06-29 10:01:44.687500,84.78,85.85
147607,2018-06-29 10:01:44.718750,58.89,85.85
147608,2018-06-29 10:01:44.750000,17.87,85.85
147609,2018-06-29 10:01:44.781250,-36.31,85.85
147610,2018-06-29 10:01:44.812500,-100.59,85.85
147611,2018-06-29 10:01:44.843750,-178.54,85.85
147612,2018-06-29 10:01:44.875000,-279.27,85.85
147613,2018-06-29 10:01:44.906250,-398.16,85.85
147614,2018-06-29 10:01:44.937500,-494.56,85.85
147615,2018-06-29 10:01:44.968750,-517.61,85.85
147616,2018-06-29 10:01:45.000000,-465.89,85.85
147617,2018-06-29 10:01:45.031250,-389.23,85.85
147618,2018-06-29 10:01:45.062500,-328.79,85.85
147619,2018-06-29 10:01:45.093750,-289.37,85.85
147620,2018-06-29 10:01:45.125000,-259.24,85.85
147621,2018-06-29 10:01:45.156250,-222.29,85.85
147622,2018-06-29 10:01:45.187500,-165.07,85.85
147623,2018-06-29 10:01:45.218750,-94.18,85.85
147624,2018-06-29 10:01:45.250000,-33.21,85.85
147625,2018-06-29 10:01:45.281250,3.37,85.85
147626,2018-06-29 10:01:45.312500,20.89,85.85
147627,2018-06-29 10:01:45.343750,30.4,85.85
147628,2018-06-29 10:01:45.375000,35.95,85.85
147629,2018-06-29 10:01:45.406250,37.88,85.85
147630,2018-06-29 10:01:45.437500,40.31,85.85
147631,2018-06-29 10:01:45.468750,48.46,85.85
147632,2018-06-29 10:01:45.500000,61.2,85.85
147633,2018-06-29 10:01:45.531250,71.98,85.92
147634,2018-06-29 10:01:45.562500,76.36,85.92
147635,2018-06-29 10:01:45.593750,74.16,85.92
147636,2018-06-29 10:01:45.625000,65.87,85.92
147637,2018-06-29 10:01:45.656250,51.49,85.92
147638,2018-06-29 10:01:45.687500,32.45,85.92
147639,2018-06-29 10:01:45.718750,10.96,85.92
147640,2018-06-29 10:01:45.750000,-11.28,85.92
147641,2018-06-29 10:01:45.781250,-34.04,85.92
147642,2018-06-29 10:01:45.812500,-60.19,85.92
147643,2018-06-29 10:01:45.843750,-92.16,85.92
147644,2018-06-29 10:01:45.875000,-121.66,85.92
147645,2018-06-29 10:01:45.906250,-130.26,85.92
147646,2018-06-29 10:01:45.937500,-109.08,85.92
147647,2018-06-29 10:01:45.968750,-70.03,85.92
147648,2018-06-29 10:01:46.000000,-31.83,85.92
147649,2018-06-29 10:01:46.031250,-4.13,85.92
147650,2018-06-29 10:01:46.062500,11.45,85.92
147651,2018-06-29 10:01:46.093750,16.11,85.92
147652,2018-06-29 10:01:46.125000,14.6,85.92
147653,2018-06-29 10:01:46.156250,13.81,85.92
147654,2018-06-29 10:01:46.187500,16.63,85.92
147655,2018-06-29 10:01:46.218750,20.36,85.92
147656,2018-06-29 10:01:46.250000,21.74,85.92
147657,2018-06-29 10:01:46.281250,21.42,85.92
147658,2018-06-29 10:01:46.312500,21.96,85.92
147659,2018-06-29 10:01:46.343750,22.87,85.92
147660,2018-06-29 10:01:46.375000,20.02,85.92
147661,2018-06-29 10:01:46.406250,10.75,85.92
147662,2018-06-29 10:01:46.437500,-2.31,85.92
147663,2018-06-29 10:01:46.468750,-15.1,85.92
147664,2018-06-29 10:01:46.500000,-27.44,85.92
147665,2018-06-29 10:01:46.531250,-42.29,86.05
147666,2018-06-29 10:01:46.562500,-62.1,86.05
147667,2018-06-29 10:01:46.593750,-84.56,86.05
147668,2018-06-29 10:01:46.625000,-97.49,86.05
147669,2018-06-29 10:01:46.656250,-85.1,86.05
147670,2018-06-29 10:01:46.687500,-46.88,86.05
147671,2018-06-29 10:01:46.718750,-1.69,86.05
147672,2018-06-29 10:01:46.750000,32.26,86.05
147673,2018-06-29 10:01:46.781250,50.88,86.05
147674,2018-06-29 10:01:46.812500,57.67,86.05
147675,2018-06-29 10:01:46.843750,57.55,86.05
147676,2018-06-29 10:01:46.875000,57.67,86.05
147677,2018-06-29 10:01:46.906250,63.05,86.05
147678,2018-06-29 10:01:46.937500,71.97,86.05
147679,2018-06-29 10:01:46.968750,79.98,86.05
147680,2018-06-29 10:01:47.000000,84.81,86.05
147681,2018-06-29 10:01:47.031250,85.31,86.05
147682,2018-06-29 10:01:47.062500,80.61,86.05
147683,2018-06-29 10:01:47.093750,72.05,86.05
147684,2018-06-29 10:01:47.125000,61.86,86.05
147685,2018-06-29 10:01:47.156250,50.18,86.05
147686,2018-06-29 10:01:47.187500,35.98,86.05
147687,2018-06-29 10:01:47.218750,19.85,86.05
147688,2018-06-29 10:01:47.250000,3.18,86.05
147689,2018-06-29 10:01:47.281250,-14.47,86.05
147690,2018-06-29 10:01:47.312500,-35.49,86.05
147691,2018-06-29 10:01:47.343750,-61.78,86.05
147692,2018-06-29 10:01:47.375000,-88.86,86.05
147693,2018-06-29 10:01:47.406250,-101.98,86.05
147694,2018-06-29 10:01:47.437500,-86.39,86.05
147695,2018-06-29 10:01:47.468750,-45.11,86.05
147696,2018-06-29 10:01:47.500000,2.14,86.05
147697,2018-06-29 10:01:47.531250,38.34,86.17
147698,2018-06-29 10:01:47.562500,58.7,86.17
147699,2018-06-29 10:01:47.593750,64.36,86.17
147700,2018-06-29 10:01:47.625000,59.75,86.17
147701,2018-06-29 10:01:47.656250,53.53,86.17
147702,2018-06-29 10:01:47.687500,51.46,86.17
147703,2018-06-29 10:01:47.718750,50.81,86.17
147704,2018-06-29 10:01:47.750000,47.33,86.17
147705,2018-06-29 10:01:47.781250,41.74,86.17
147706,2018-06-29 10:01:47.812500,35.42,86.17
147707,2018-06-29 10:01:47.843750,26.85,86.17
147708,2018-06-29 10:01:47.875000,15.04,86.17
147709,2018-06-29 10:01:47.906250,1.43,86.17
147710,2018-06-29 10:01:47.937500,-11.92,86.17
147711,2018-06-29 10:01:47.968750,-23.08,86.17
147712,2018-06-29 10:01:48.000000,-31.04,86.17
147713,2018-06-29 10:01:48.031250,-36.12,86.17
147714,2018-06-29 10:01:48.062500,-38.33,86.17
147715,2018-06-29 10:01:48.093750,-37.26,86.17
147716,2018-06-29 10:01:48.125000,-35.84,86.17
147717,2018-06-29 10:01:48.156250,-40.21,86.17
147718,2018-06-29 10:01:48.187500,-53.39,86.17
147719,2018-06-29 10:01:48.218750,-68.9,86.17
147720,2018-06-29 10:01:48.250000,-72.12,86.17
147721,2018-06-29 10:01:48.281250,-51.79,86.17
147722,2018-06-29 10:01:48.312500,-13.19,86.17
147723,2018-06-29 10:01:48.343750,24.83,86.17
147724,2018-06-29 10:01:48.375000,48.07,86.17
147725,2018-06-29 10:01:48.406250,55.09,86.17
147726,2018-06-29 10:01:48.437500,49.21,86.17
147727,2018-06-29 10:01:48.468750,35.33,86.17
147728,2018-06-29 10:01:48.500000,24.32,86.17
147729,2018-06-29 10:01:48.531250,26.96,86.28
147730,2018-06-29 10:01:48.562500,41.91,86.28
147731,2018-06-29 10:01:48.593750,58.27,86.28
147732,2018-06-29 10:01:48.625000,68.78,86.28
147733,2018-06-29 10:01:48.656250,73.69,86.28
147734,2018-06-29 10:01:48.687500,74.35,86.28
147735,2018-06-29 10:01:48.718750,70.77,86.28
147736,2018-06-29 10:01:48.750000,64.82,86.28
147737,2018-06-29 10:01:48.781250,60.05,86.28
147738,2018-06-29 10:01:48.812500,57.34,86.28
147739,2018-06-29 10:01:48.843750,54.78,86.28
147740,2018-06-29 10:01:48.875000,52.23,86.28
147741,2018-06-29 10:01:48.906250,52.7,86.28
147742,2018-06-29 10:01:48.937500,59.04,86.28
147743,2018-06-29 10:01:48.968750,70.18,86.28
147744,2018-06-29 10:01:49.000000,79.26,86.28
147745,2018-06-29 10:01:49.031250,81.26,86.28
147746,2018-06-29 10:01:49.062500,88.1,86.28
147747,2018-06-29 10:01:49.093750,124.43,86.28
147748,2018-06-29 10:01:49.125000,195.45,86.28
147749,2018-06-29 10:01:49.156250,267.58,86.28
147750,2018-06-29 10:01:49.187500,293.24,86.28
147751,2018-06-29 10:01:49.218750,252.14,86.28
147752,2018-06-29 10:01:49.250000,164.9,86.28
147753,2018-06-29 10:01:49.281250,69.41,86.28
147754,2018-06-29 10:01:49.312500,-10.7,86.28
147755,2018-06-29 10:01:49.343750,-71.78,86.28
147756,2018-06-29 10:01:49.375000,-116.99,86.28
147757,2018-06-29 10:01:49.406250,-152.49,86.28
147758,2018-06-29 10:01:49.437500,-189.23,86.28
147759,2018-06-29 10:01:49.468750,-237.6,86.28
147760,2018-06-29 10:01:49.500000,-303.63,86.28
147761,2018-06-29 10:01:49.531250,-379.76,86.4
147762,2018-06-29 10:01:49.562500,-430.11,86.4
147763,2018-06-29 10:01:49.593750,-413.61,86.4
147764,2018-06-29 10:01:49.625000,-334.23,86.4
147765,2018-06-29 10:01:49.656250,-238.51,86.4
147766,2018-06-29 10:01:49.687500,-163.65,86.4
147767,2018-06-29 10:01:49.718750,-119.42,86.4
147768,2018-06-29 10:01:49.750000,-106.5,86.4
147769,2018-06-29 10:01:49.781250,-118.26,86.4
147770,2018-06-29 10:01:49.812500,-137.73,86.4
147771,2018-06-29 10:01:49.843750,-154.13,86.4
147772,2018-06-29 10:01:49.875000,-167.71,86.4
147773,2018-06-29 10:01:49.906250,-168.44,86.4
147774,2018-06-29 10:01:49.937500,-133.44,86.4
147775,2018-06-29 10:01:49.968750,-59.1,86.4
147776,2018-06-29 10:01:50.000000,24.59,86.4
147777,2018-06-29 10:01:50.031250,85.73,86.4
147778,2018-06-29 10:01:50.062500,120.02,86.4
147779,2018-06-29 10:01:50.093750,139.47,86.4
147780,2018-06-29 10:01:50.125000,149.9,86.4
147781,2018-06-29 10:01:50.156250,151.3,86.4
147782,2018-06-29 10:01:50.187500,147.71,86.4
147783,2018-06-29 10:01:50.218750,145.19,86.4
147784,2018-06-29 10:01:50.250000,144.28,86.4
147785,2018-06-29 10:01:50.281250,141.74,86.4
147786,2018-06-29 10:01:50.312500,136.27,86.4
147787,2018-06-29 10:01:50.343750,127.72,86.4
147788,2018-06-29 10:01:50.375000,115.04,86.4
147789,2018-06-29 10:01:50.406250,98.97,86.4
147790,2018-06-29 10:01:50.437500,83.24,86.4
147791,2018-06-29 10:01:50.468750,69.89,86.4
147792,2018-06-29 10:01:50.500000,56.65,86.4
147793,2018-06-29 10:01:50.531250,40.81,86.42
147794,2018-06-29 10:01:50.562500,23.23,86.42
147795,2018-06-29 10:01:50.593750,6.22,86.42
147796,2018-06-29 10:01:50.625000,-10.93,86.42
147797,2018-06-29 10:01:50.656250,-31.67,86.42
147798,2018-06-29 10:01:50.687500,-56.48,86.42
147799,2018-06-29 10:01:50.718750,-80.65,86.42
147800,2018-06-29 10:01:50.750000,-99.64,86.42
147801,2018-06-29 10:01:50.781250,-114.56,86.42
147802,2018-06-29 10:01:50.812500,-130.29,86.42
147803,2018-06-29 10:01:50.843750,-147.68,86.42
147804,2018-06-29 10:01:50.875000,-156.04,86.42
147805,2018-06-29 10:01:50.906250,-137.06,86.42
147806,2018-06-29 10:01:50.937500,-84.92,86.42
147807,2018-06-29 10:01:50.968750,-18.76,86.42
147808,2018-06-29 10:01:51.000000,34.83,86.42
147809,2018-06-29 10:01:51.031250,65.36,86.42
147810,2018-06-29 10:01:51.062500,77.02,86.42
147811,2018-06-29 10:01:51.093750,75.79,86.42
147812,2018-06-29 10:01:51.125000,68.23,86.42
147813,2018-06-29 10:01:51.156250,63.18,86.42
147814,2018-06-29 10:01:51.187500,65.15,86.42
147815,2018-06-29 10:01:51.218750,70.28,86.42
147816,2018-06-29 10:01:51.250000,72.71,86.42
147817,2018-06-29 10:01:51.281250,70.43,86.42
147818,2018-06-29 10:01:51.312500,62.33,86.42
147819,2018-06-29 10:01:51.343750,45.89,86.42
147820,2018-06-29 10:01:51.375000,23.59,86.42
147821,2018-06-29 10:01:51.406250,6.33,86.42
147822,2018-06-29 10:01:51.437500,3.82,86.42
147823,2018-06-29 10:01:51.468750,13.67,86.42
147824,2018-06-29 10:01:51.500000,24.19,86.42
147825,2018-06-29 10:01:51.531250,25.69,86.4
147826,2018-06-29 10:01:51.562500,16.18,86.4
147827,2018-06-29 10:01:51.593750,-1.37,86.4
147828,2018-06-29 10:01:51.625000,-23.19,86.4
147829,2018-06-29 10:01:51.656250,-47.17,86.4
147830,2018-06-29 10:01:51.687500,-72.5,86.4
147831,2018-06-29 10:01:51.718750,-94.48,86.4
147832,2018-06-29 10:01:51.750000,-100.33,86.4
147833,2018-06-29 10:01:51.781250,-78.3,86.4
147834,2018-06-29 10:01:51.812500,-32.92,86.4
147835,2018-06-29 10:01:51.843750,16.56,86.4
147836,2018-06-29 10:01:51.875000,54.31,86.4
147837,2018-06-29 10:01:51.906250,77.36,86.4
147838,2018-06-29 10:01:51.937500,88.22,86.4
147839,2018-06-29 10:01:51.968750,88.82,86.4
147840,2018-06-29 10:01:52.000000,82.98,86.4
147841,2018-06-29 10:01:52.031250,75.78,86.4
147842,2018-06-29 10:01:52.062500,68.32,86.4
147843,2018-06-29 10:01:52.093750,59.05,86.4
147844,2018-06-29 10:01:52.125000,49.16,86.4
147845,2018-06-29 10:01:52.156250,40.33,86.4
147846,2018-06-29 10:01:52.187500,30.44,86.4
147847,2018-06-29 10:01:52.218750,17.14,86.4
147848,2018-06-29 10:01:52.250000,2.59,86.4
147849,2018-06-29 10:01:52.281250,-9.39,86.4
147850,2018-06-29 10:01:52.312500,-18.41,86.4
147851,2018-06-29 10:01:52.343750,-27.8,86.4
147852,2018-06-29 10:01:52.375000,-39.65,86.4
147853,2018-06-29 10:01:52.406250,-51.37,86.4
147854,2018-06-29 10:01:52.437500,-59.87,86.4
147855,2018-06-29 10:01:52.468750,-67.98,86.4
147856,2018-06-29 10:01:52.500000,-82.14,86.4
147857,2018-06-29 10:01:52.531250,-101.09,86.28
147858,2018-06-29 10:01:52.562500,-109.49,86.28
147859,2018-06-29 10:01:52.593750,-89.93,86.28
147860,2018-06-29 10:01:52.625000,-43.37,86.28
147861,2018-06-29 10:01:52.656250,9.29,86.28
147862,2018-06-29 10:01:52.687500,48.06,86.28
147863,2018-06-29 10:01:52.718750,68.87,86.28
147864,2018-06-29 10:01:52.750000,77.03,86.28
147865,2018-06-29 10:01:52.781250,76.47,86.28
147866,2018-06-29 10:01:52.812500,69.97,86.28
147867,2018-06-29 10:01:52.843750,62.3,86.28
147868,2018-06-29 10:01:52.875000,57.06,86.28
147869,2018-06-29 10:01:52.906250,53.82,86.28
147870,2018-06-29 10:01:52.937500,51.05,86.28
147871,2018-06-29 10:01:52.968750,48.04,86.28
147872,2018-06-29 10:01:53.000000,43.17,86.28
147873,2018-06-29 10:01:53.031250,34.97,86.28
147874,2018-06-29 10:01:53.062500,24.04,86.28
147875,2018-06-29 10:01:53.093750,10.64,86.28
147876,2018-06-29 10:01:53.125000,-6.61,86.28
147877,2018-06-29 10:01:53.156250,-26.86,86.28
147878,2018-06-29 10:01:53.187500,-46.33,86.28
147879,2018-06-29 10:01:53.218750,-63.14,86.28
147880,2018-06-29 10:01:53.250000,-79.41,86.28
147881,2018-06-29 10:01:53.281250,-98.2,86.28
147882,2018-06-29 10:01:53.312500,-118.34,86.28
147883,2018-06-29 10:01:53.343750,-128.45,86.28
147884,2018-06-29 10:01:53.375000,-111.52,86.28
147885,2018-06-29 10:01:53.406250,-64.39,86.28
147886,2018-06-29 10:01:53.437500,-6.36,86.28
147887,2018-06-29 10:01:53.468750,40.69,86.28
147888,2018-06-29 10:01:53.500000,71.27,86.28
147889,2018-06-29 10:01:53.531250,89.29,86.2
147890,2018-06-29 10:01:53.562500,96.37,86.2
147891,2018-06-29 10:01:53.593750,95.64,86.2
147892,2018-06-29 10:01:53.625000,94.65,86.2
147893,2018-06-29 10:01:53.656250,96.24,86.2
147894,2018-06-29 10:01:53.687500,95.1,86.2
147895,2018-06-29 10:01:53.718750,87.25,86.2
147896,2018-06-29 10:01:53.750000,75.08,86.2
147897,2018-06-29 10:01:53.781250,60.7,86.2
147898,2018-06-29 10:01:53.812500,42.31,86.2
147899,2018-06-29 10:01:53.843750,20.34,86.2
147900,2018-06-29 10:01:53.875000,1.05,86.2
147901,2018-06-29 10:01:53.906250,-10.42,86.2
147902,2018-06-29 10:01:53.937500,-17.48,86.2
147903,2018-06-29 10:01:53.968750,-27.58,86.2
147904,2018-06-29 10:01:54.000000,-41.64,86.2
147905,2018-06-29 10:01:54.031250,-54.0,86.2
147906,2018-06-29 10:01:54.062500,-62.31,86.2
147907,2018-06-29 10:01:54.093750,-71.49,86.2
147908,2018-06-29 10:01:54.125000,-87.2,86.2
147909,2018-06-29 10:01:54.156250,-107.79,86.2
147910,2018-06-29 10:01:54.187500,-120.6,86.2
147911,2018-06-29 10:01:54.218750,-108.98,86.2
147912,2018-06-29 10:01:54.250000,-69.76,86.2
147913,2018-06-29 10:01:54.281250,-20.15,86.2
147914,2018-06-29 10:01:54.312500,19.11,86.2
147915,2018-06-29 10:01:54.343750,41.75,86.2
147916,2018-06-29 10:01:54.375000,52.27,86.2
147917,2018-06-29 10:01:54.406250,54.41,86.2
147918,2018-06-29 10:01:54.437500,51.48,86.2
147919,2018-06-29 10:01:54.468750,49.89,86.2
147920,2018-06-29 10:01:54.500000,53.17,86.2
147921,2018-06-29 10:01:54.531250,57.56,86.12
147922,2018-06-29 10:01:54.562500,58.31,86.12
147923,2018-06-29 10:01:54.593750,56.25,86.12
147924,2018-06-29 10:01:54.625000,53.99,86.12
147925,2018-06-29 10:01:54.656250,49.88,86.12
147926,2018-06-29 10:01:54.687500,40.25,86.12
147927,2018-06-29 10:01:54.718750,25.9,86.12
147928,2018-06-29 10:01:54.750000,11.91,86.12
147929,2018-06-29 10:01:54.781250,0.91,86.12
147930,2018-06-29 10:01:54.812500,-9.66,86.12
147931,2018-06-29 10:01:54.843750,-22.64,86.12
147932,2018-06-29 10:01:54.875000,-36.91,86.12
147933,2018-06-29 10:01:54.906250,-49.66,86.12
147934,2018-06-29 10:01:54.937500,-60.48,86.12
147935,2018-06-29 10:01:54.968750,-71.63,86.12
147936,2018-06-29 10:01:55.000000,-85.92,86.12
147937,2018-06-29 10:01:55.031250,-103.52,86.12
147938,2018-06-29 10:01:55.062500,-115.78,86.12
147939,2018-06-29 10:01:55.093750,-106.49,86.12
147940,2018-06-29 10:01:55.125000,-69.33,86.12
147941,2018-06-29 10:01:55.156250,-20.08,86.12
147942,2018-06-29 10:01:55.187500,18.92,86.12
147943,2018-06-29 10:01:55.218750,40.31,86.12
147944,2018-06-29 10:01:55.250000,49.48,86.12
147945,2018-06-29 10:01:55.281250,51.19,86.12
147946,2018-06-29 10:01:55.312500,49.14,86.12
147947,2018-06-29 10:01:55.343750,49.54,86.12
147948,2018-06-29 10:01:55.375000,54.98,86.12
147949,2018-06-29 10:01:55.406250,60.34,86.12
147950,2018-06-29 10:01:55.437500,60.73,86.12
147951,2018-06-29 10:01:55.468750,57.86,86.12
147952,2018-06-29 10:01:55.500000,54.39,86.12
147953,2018-06-29 10:01:55.531250,48.21,86.07
147954,2018-06-29 10:01:55.562500,36.92,86.07
147955,2018-06-29 10:01:55.593750,23.34,86.07
147956,2018-06-29 10:01:55.625000,12.34,86.07
147957,2018-06-29 10:01:55.656250,4.16,86.07
147958,2018-06-29 10:01:55.687500,-5.25,86.07
147959,2018-06-29 10:01:55.718750,-17.63,86.07
147960,2018-06-29 10:01:55.750000,-30.06,86.07
147961,2018-06-29 10:01:55.781250,-39.64,86.07
147962,2018-06-29 10:01:55.812500,-47.58,86.07
147963,2018-06-29 10:01:55.843750,-58.16,86.07
147964,2018-06-29 10:01:55.875000,-73.31,86.07
147965,2018-06-29 10:01:55.906250,-86.33,86.07
147966,2018-06-29 10:01:55.937500,-83.28,86.07
147967,2018-06-29 10:01:55.968750,-56.25,86.07
147968,2018-06-29 10:01:56.000000,-14.67,86.07
147969,2018-06-29 10:01:56.031250,22.69,86.07
147970,2018-06-29 10:01:56.062500,45.74,86.07
147971,2018-06-29 10:01:56.093750,56.85,86.07
147972,2018-06-29 10:01:56.125000,60.49,86.07
147973,2018-06-29 10:01:56.156250,58.46,86.07
147974,2018-06-29 10:01:56.187500,54.21,86.07
147975,2018-06-29 10:01:56.218750,52.4,86.07
147976,2018-06-29 10:01:56.250000,52.84,86.07
147977,2018-06-29 10:01:56.281250,50.57,86.07
147978,2018-06-29 10:01:56.312500,42.31,86.07
147979,2018-06-29 10:01:56.343750,28.8,86.07
147980,2018-06-29 10:01:56.375000,13.85,86.07
147981,2018-06-29 10:01:56.406250,3.91,86.07
147982,2018-06-29 10:01:56.437500,4.21,86.07
147983,2018-06-29 10:01:56.468750,14.62,86.07
147984,2018-06-29 10:01:56.500000,31.7,86.07
147985,2018-06-29 10:01:56.531250,50.93,86.05
147986,2018-06-29 10:01:56.562500,64.82,86.05
147987,2018-06-29 10:01:56.593750,66.46,86.05
147988,2018-06-29 10:01:56.625000,56.92,86.05
147989,2018-06-29 10:01:56.656250,42.72,86.05
147990,2018-06-29 10:01:56.687500,26.9,86.05
147991,2018-06-29 10:01:56.718750,7.9,86.05
147992,2018-06-29 10:01:56.750000,-15.69,86.05
147993,2018-06-29 10:01:56.781250,-42.04,86.05
147994,2018-06-29 10:01:56.812500,-62.8,86.05
147995,2018-06-29 10:01:56.843750,-64.18,86.05
147996,2018-06-29 10:01:56.875000,-39.32,86.05
147997,2018-06-29 10:01:56.906250,0.8,86.05
147998,2018-06-29 10:01:56.937500,35.91,86.05
147999,2018-06-29 10:01:56.968750,53.74,86.05
148000,2018-06-29 10:01:57.000000,53.27,86.05
148001,2018-06-29 10:01:57.031250,38.93,86.05
148002,2018-06-29 10:01:57.062500,19.46,86.05
148003,2018-06-29 10:01:57.093750,5.0,86.05
148004,2018-06-29 10:01:57.125000,-1.17,86.05
148005,2018-06-29 10:01:57.156250,-3.67,86.05
148006,2018-06-29 10:01:57.187500,-6.12,86.05
148007,2018-06-29 10:01:57.218750,-7.3,86.05
148008,2018-06-29 10:01:57.250000,-6.68,86.05
148009,2018-06-29 10:01:57.281250,-7.32,86.05
148010,2018-06-29 10:01:57.312500,-11.45,86.05
148011,2018-06-29 10:01:57.343750,-16.57,86.05
148012,2018-06-29 10:01:57.375000,-18.53,86.05
148013,2018-06-29 10:01:57.406250,-16.2,86.05
148014,2018-06-29 10:01:57.437500,-12.84,86.05
148015,2018-06-29 10:01:57.468750,-13.81,86.05
148016,2018-06-29 10:01:57.500000,-22.38,86.05
148017,2018-06-29 10:01:57.531250,-37.5,86.02
148018,2018-06-29 10:01:57.562500,-57.11,86.02
148019,2018-06-29 10:01:57.593750,-82.34,86.02
148020,2018-06-29 10:01:57.625000,-114.26,86.02
148021,2018-06-29 10:01:57.656250,-147.35,86.02
148022,2018-06-29 10:01:57.687500,-171.93,86.02
148023,2018-06-29 10:01:57.718750,-183.53,86.02
148024,2018-06-29 10:01:57.750000,-182.33,86.02
148025,2018-06-29 10:01:57.781250,-164.03,86.02
148026,2018-06-29 10:01:57.812500,-124.3,86.02
148027,2018-06-29 10:01:57.843750,-72.47,86.02
148028,2018-06-29 10:01:57.875000,-26.63,86.02
148029,2018-06-29 10:01:57.906250,4.21,86.02
148030,2018-06-29 10:01:57.937500,22.25,86.02
148031,2018-06-29 10:01:57.968750,29.58,86.02
148032,2018-06-29 10:01:58.000000,28.08,86.02
148033,2018-06-29 10:01:58.031250,28.82,86.02
148034,2018-06-29 10:01:58.062500,46.74,86.02
148035,2018-06-29 10:01:58.093750,80.03,86.02
148036,2018-06-29 10:01:58.125000,107.31,86.02
148037,2018-06-29 10:01:58.156250,112.29,86.02
148038,2018-06-29 10:01:58.187500,99.2,86.02
148039,2018-06-29 10:01:58.218750,79.89,86.02
148040,2018-06-29 10:01:58.250000,60.07,86.02
148041,2018-06-29 10:01:58.281250,42.12,86.02
148042,2018-06-29 10:01:58.312500,29.24,86.02
148043,2018-06-29 10:01:58.343750,22.23,86.02
148044,2018-06-29 10:01:58.375000,17.75,86.02
148045,2018-06-29 10:01:58.406250,12.74,86.02
148046,2018-06-29 10:01:58.437500,7.62,86.02
148047,2018-06-29 10:01:58.468750,3.3,86.02
148048,2018-06-29 10:01:58.500000,-1.65,86.02
148049,2018-06-29 10:01:58.531250,-8.06,85.97
148050,2018-06-29 10:01:58.562500,-14.68,85.97
148051,2018-06-29 10:01:58.593750,-22.33,85.97
148052,2018-06-29 10:01:58.625000,-34.49,85.97
148053,2018-06-29 10:01:58.656250,-49.6,85.97
148054,2018-06-29 10:01:58.687500,-56.46,85.97
148055,2018-06-29 10:01:58.718750,-43.41,85.97
148056,2018-06-29 10:01:58.750000,-12.49,85.97
148057,2018-06-29 10:01:58.781250,21.1,85.97
148058,2018-06-29 10:01:58.812500,44.47,85.97
148059,2018-06-29 10:01:58.843750,55.93,85.97
148060,2018-06-29 10:01:58.875000,59.33,85.97
148061,2018-06-29 10:01:58.906250,58.74,85.97
148062,2018-06-29 10:01:58.937500,59.03,85.97
148063,2018-06-29 10:01:58.968750,64.59,85.97
148064,2018-06-29 10:01:59.000000,75.52,85.97
148065,2018-06-29 10:01:59.031250,88.06,85.97
148066,2018-06-29 10:01:59.062500,98.33,85.97
148067,2018-06-29 10:01:59.093750,104.07,85.97
148068,2018-06-29 10:01:59.125000,103.84,85.97
148069,2018-06-29 10:01:59.156250,96.87,85.97
148070,2018-06-29 10:01:59.187500,84.28,85.97
148071,2018-06-29 10:01:59.218750,69.22,85.97
148072,2018-06-29 10:01:59.250000,54.96,85.97
148073,2018-06-29 10:01:59.281250,42.01,85.97
148074,2018-06-29 10:01:59.312500,27.35,85.97
148075,2018-06-29 10:01:59.343750,7.91,85.97
148076,2018-06-29 10:01:59.375000,-16.11,85.97
148077,2018-06-29 10:01:59.406250,-44.27,85.97
148078,2018-06-29 10:01:59.437500,-80.17,85.97
148079,2018-06-29 10:01:59.468750,-127.09,85.97
148080,2018-06-29 10:01:59.500000,-181.74,85.97
148081,2018-06-29 10:01:59.531250,-235.85,85.83
148082,2018-06-29 10:01:59.562500,-279.38,85.83
148083,2018-06-29 10:01:59.593750,-301.69,85.83
148084,2018-06-29 10:01:59.625000,-298.34,85.83
148085,2018-06-29 10:01:59.656250,-278.11,85.83
148086,2018-06-29 10:01:59.687500,-255.13,85.83
148087,2018-06-29 10:01:59.718750,-234.72,85.83
148088,2018-06-29 10:01:59.750000,-212.14,85.83
148089,2018-06-29 10:01:59.781250,-181.27,85.83
148090,2018-06-29 10:01:59.812500,-138.23,85.83
148091,2018-06-29 10:01:59.843750,-81.63,85.83
148092,2018-06-29 10:01:59.875000,-17.15,85.83
148093,2018-06-29 10:01:59.906250,44.08,85.83
148094,2018-06-29 10:01:59.937500,96.05,85.83
148095,2018-06-29 10:01:59.968750,138.0,85.83
148096,2018-06-29 10:02:00.000000,162.43,85.83
148097,2018-06-29 10:02:00.031250,158.0,85.83
148098,2018-06-29 10:02:00.062500,126.1,85.83
148099,2018-06-29 10:02:00.093750,79.36,85.83
148100,2018-06-29 10:02:00.125000,26.78,85.83
148101,2018-06-29 10:02:00.156250,-26.15,85.83
148102,2018-06-29 10:02:00.187500,-68.83,85.83
148103,2018-06-29 10:02:00.218750,-90.77,85.83
148104,2018-06-29 10:02:00.250000,-93.14,85.83
148105,2018-06-29 10:02:00.281250,-87.37,85.83
148106,2018-06-29 10:02:00.312500,-83.96,85.83
148107,2018-06-29 10:02:00.343750,-85.06,85.83
148108,2018-06-29 10:02:00.375000,-82.96,85.83
148109,2018-06-29 10:02:00.406250,-64.84,85.83
148110,2018-06-29 10:02:00.437500,-25.78,85.83
148111,2018-06-29 10:02:00.468750,22.3,85.83
148112,2018-06-29 10:02:00.500000,60.74,85.83
148113,2018-06-29 10:02:00.531250,81.63,85.73
148114,2018-06-29 10:02:00.562500,89.62,85.73
148115,2018-06-29 10:02:00.593750,90.69,85.73
148116,2018-06-29 10:02:00.625000,87.01,85.73
148117,2018-06-29 10:02:00.656250,80.56,85.73
148118,2018-06-29 10:02:00.687500,74.68,85.73
148119,2018-06-29 10:02:00.718750,70.33,85.73
148120,2018-06-29 10:02:00.750000,63.85,85.73
148121,2018-06-29 10:02:00.781250,51.32,85.73
148122,2018-06-29 10:02:00.812500,33.38,85.73
148123,2018-06-29 10:02:00.843750,14.33,85.73
148124,2018-06-29 10:02:00.875000,-2.11,85.73
148125,2018-06-29 10:02:00.906250,-14.79,85.73
148126,2018-06-29 10:02:00.937500,-25.8,85.73
148127,2018-06-29 10:02:00.968750,-38.01,85.73
148128,2018-06-29 10:02:01.000000,-48.14,85.73
148129,2018-06-29 10:02:01.031250,-45.9,85.73
148130,2018-06-29 10:02:01.062500,-27.67,85.73
148131,2018-06-29 10:02:01.093750,-4.62,85.73
148132,2018-06-29 10:02:01.125000,12.48,85.73
148133,2018-06-29 10:02:01.156250,28.37,85.73
148134,2018-06-29 10:02:01.187500,51.32,85.73
148135,2018-06-29 10:02:01.218750,75.89,85.73
148136,2018-06-29 10:02:01.250000,90.54,85.73
148137,2018-06-29 10:02:01.281250,93.68,85.73
148138,2018-06-29 10:02:01.312500,89.7,85.73
148139,2018-06-29 10:02:01.343750,77.46,85.73
148140,2018-06-29 10:02:01.375000,55.26,85.73
148141,2018-06-29 10:02:01.406250,30.96,85.73
148142,2018-06-29 10:02:01.437500,16.79,85.73
148143,2018-06-29 10:02:01.468750,17.73,85.73
148144,2018-06-29 10:02:01.500000,29.82,85.73
148145,2018-06-29 10:02:01.531250,44.74,85.62
148146,2018-06-29 10:02:01.562500,55.53,85.62
148147,2018-06-29 10:02:01.593750,62.54,85.62
148148,2018-06-29 10:02:01.625000,70.69,85.62
148149,2018-06-29 10:02:01.656250,78.13,85.62
148150,2018-06-29 10:02:01.687500,74.46,85.62
148151,2018-06-29 10:02:01.718750,51.16,85.62
148152,2018-06-29 10:02:01.750000,8.3,85.62
148153,2018-06-29 10:02:01.781250,-45.85,85.62
148154,2018-06-29 10:02:01.812500,-98.11,85.62
148155,2018-06-29 10:02:01.843750,-137.49,85.62
148156,2018-06-29 10:02:01.875000,-160.48,85.62
148157,2018-06-29 10:02:01.906250,-167.58,85.62
148158,2018-06-29 10:02:01.937500,-158.75,85.62
148159,2018-06-29 10:02:01.968750,-135.13,85.62
148160,2018-06-29 10:02:02.000000,-102.03,85.62
148161,2018-06-29 10:02:02.031250,-67.42,85.62
148162,2018-06-29 10:02:02.062500,-36.9,85.62
148163,2018-06-29 10:02:02.093750,-10.86,85.62
148164,2018-06-29 10:02:02.125000,13.37,85.62
148165,2018-06-29 10:02:02.156250,36.51,85.62
148166,2018-06-29 10:02:02.187500,55.64,85.62
148167,2018-06-29 10:02:02.218750,66.54,85.62
148168,2018-06-29 10:02:02.250000,66.52,85.62
148169,2018-06-29 10:02:02.281250,55.77,85.62
148170,2018-06-29 10:02:02.312500,37.62,85.62
148171,2018-06-29 10:02:02.343750,16.99,85.62
148172,2018-06-29 10:02:02.375000,-2.44,85.62
148173,2018-06-29 10:02:02.406250,-18.78,85.62
148174,2018-06-29 10:02:02.437500,-30.88,85.62
148175,2018-06-29 10:02:02.468750,-39.19,85.62
148176,2018-06-29 10:02:02.500000,-46.67,85.62
148177,2018-06-29 10:02:02.531250,-56.96,85.55
148178,2018-06-29 10:02:02.562500,-71.5,85.55
148179,2018-06-29 10:02:02.593750,-87.96,85.55
148180,2018-06-29 10:02:02.625000,-99.36,85.55
148181,2018-06-29 10:02:02.656250,-97.24,85.55
148182,2018-06-29 10:02:02.687500,-78.37,85.55
148183,2018-06-29 10:02:02.718750,-46.42,85.55
148184,2018-06-29 10:02:02.750000,-4.25,85.55
148185,2018-06-29 10:02:02.781250,48.49,85.55
148186,2018-06-29 10:02:02.812500,103.92,85.55
148187,2018-06-29 10:02:02.843750,142.97,85.55
148188,2018-06-29 10:02:02.875000,152.35,85.55
148189,2018-06-29 10:02:02.906250,135.21,85.55
148190,2018-06-29 10:02:02.937500,103.94,85.55
148191,2018-06-29 10:02:02.968750,73.21,85.55
148192,2018-06-29 10:02:03.000000,55.94,85.55
148193,2018-06-29 10:02:03.031250,55.1,85.55
148194,2018-06-29 10:02:03.062500,62.26,85.55
148195,2018-06-29 10:02:03.093750,66.87,85.55
148196,2018-06-29 10:02:03.125000,62.24,85.55
148197,2018-06-29 10:02:03.156250,46.26,85.55
148198,2018-06-29 10:02:03.187500,20.68,85.55
148199,2018-06-29 10:02:03.218750,-10.37,85.55
148200,2018-06-29 10:02:03.250000,-39.96,85.55
148201,2018-06-29 10:02:03.281250,-58.61,85.55
148202,2018-06-29 10:02:03.312500,-59.27,85.55
148203,2018-06-29 10:02:03.343750,-41.5,85.55
148204,2018-06-29 10:02:03.375000,-11.63,85.55
148205,2018-06-29 10:02:03.406250,18.87,85.55
148206,2018-06-29 10:02:03.437500,39.78,85.55
148207,2018-06-29 10:02:03.468750,50.58,85.55
148208,2018-06-29 10:02:03.500000,58.27,85.55
148209,2018-06-29 10:02:03.531250,67.59,85.5
148210,2018-06-29 10:02:03.562500,77.33,85.5
148211,2018-06-29 10:02:03.593750,84.15,85.5
148212,2018-06-29 10:02:03.625000,85.61,85.5
148213,2018-06-29 10:02:03.656250,79.99,85.5
148214,2018-06-29 10:02:03.687500,65.98,85.5
148215,2018-06-29 10:02:03.718750,43.18,85.5
148216,2018-06-29 10:02:03.750000,13.55,85.5
148217,2018-06-29 10:02:03.781250,-17.48,85.5
148218,2018-06-29 10:02:03.812500,-43.11,85.5
148219,2018-06-29 10:02:03.843750,-60.27,85.5
148220,2018-06-29 10:02:03.875000,-70.38,85.5
148221,2018-06-29 10:02:03.906250,-76.38,85.5
148222,2018-06-29 10:02:03.937500,-82.91,85.5
148223,2018-06-29 10:02:03.968750,-93.81,85.5
148224,2018-06-29 10:02:04.000000,-102.31,85.5
148225,2018-06-29 10:02:04.031250,-92.11,85.5
148226,2018-06-29 10:02:04.062500,-56.64,85.5
148227,2018-06-29 10:02:04.093750,-9.17,85.5
148228,2018-06-29 10:02:04.125000,32.78,85.5
148229,2018-06-29 10:02:04.156250,63.28,85.5
148230,2018-06-29 10:02:04.187500,84.39,85.5
148231,2018-06-29 10:02:04.218750,95.64,85.5
148232,2018-06-29 10:02:04.250000,94.93,85.5
148233,2018-06-29 10:02:04.281250,85.51,85.5
148234,2018-06-29 10:02:04.312500,73.71,85.5
148235,2018-06-29 10:02:04.343750,61.1,85.5
148236,2018-06-29 10:02:04.375000,45.68,85.5
148237,2018-06-29 10:02:04.406250,29.3,85.5
148238,2018-06-29 10:02:04.437500,16.36,85.5
148239,2018-06-29 10:02:04.468750,7.94,85.5
148240,2018-06-29 10:02:04.500000,3.38,85.5
148241,2018-06-29 10:02:04.531250,4.71,85.48
148242,2018-06-29 10:02:04.562500,12.95,85.48
148243,2018-06-29 10:02:04.593750,21.66,85.48
148244,2018-06-29 10:02:04.625000,20.26,85.48
148245,2018-06-29 10:02:04.656250,3.91,85.48
148246,2018-06-29 10:02:04.687500,-23.9,85.48
148247,2018-06-29 10:02:04.718750,-55.13,85.48
148248,2018-06-29 10:02:04.750000,-77.59,85.48
148249,2018-06-29 10:02:04.781250,-77.68,85.48
148250,2018-06-29 10:02:04.812500,-53.3,85.48
148251,2018-06-29 10:02:04.843750,-18.65,85.48
148252,2018-06-29 10:02:04.875000,11.0,85.48
148253,2018-06-29 10:02:04.906250,31.62,85.48
148254,2018-06-29 10:02:04.937500,43.53,85.48
148255,2018-06-29 10:02:04.968750,44.54,85.48
148256,2018-06-29 10:02:05.000000,35.82,85.48
148257,2018-06-29 10:02:05.031250,24.85,85.48
148258,2018-06-29 10:02:05.062500,17.81,85.48
148259,2018-06-29 10:02:05.093750,14.99,85.48
148260,2018-06-29 10:02:05.125000,14.74,85.48
148261,2018-06-29 10:02:05.156250,16.31,85.48
148262,2018-06-29 10:02:05.187500,17.69,85.48
148263,2018-06-29 10:02:05.218750,14.67,85.48
148264,2018-06-29 10:02:05.250000,4.27,85.48
148265,2018-06-29 10:02:05.281250,-11.93,85.48
148266,2018-06-29 10:02:05.312500,-28.91,85.48
148267,2018-06-29 10:02:05.343750,-42.57,85.48
148268,2018-06-29 10:02:05.375000,-52.52,85.48
148269,2018-06-29 10:02:05.406250,-60.25,85.48
148270,2018-06-29 10:02:05.437500,-66.5,85.48
148271,2018-06-29 10:02:05.468750,-69.83,85.48
148272,2018-06-29 10:02:05.500000,-65.55,85.48
148273,2018-06-29 10:02:05.531250,-48.24,85.5
148274,2018-06-29 10:02:05.562500,-19.44,85.5
148275,2018-06-29 10:02:05.593750,10.64,85.5
148276,2018-06-29 10:02:05.625000,33.35,85.5
148277,2018-06-29 10:02:05.656250,48.77,85.5
148278,2018-06-29 10:02:05.687500,59.85,85.5
148279,2018-06-29 10:02:05.718750,66.35,85.5
148280,2018-06-29 10:02:05.750000,67.48,85.5
148281,2018-06-29 10:02:05.781250,65.22,85.5
148282,2018-06-29 10:02:05.812500,61.63,85.5
148283,2018-06-29 10:02:05.843750,56.36,85.5
148284,2018-06-29 10:02:05.875000,48.34,85.5
148285,2018-06-29 10:02:05.906250,37.48,85.5
148286,2018-06-29 10:02:05.937500,24.3,85.5
148287,2018-06-29 10:02:05.968750,9.72,85.5
148288,2018-06-29 10:02:06.000000,-4.65,85.5
148289,2018-06-29 10:02:06.031250,-17.35,85.5
148290,2018-06-29 10:02:06.062500,-28.32,85.5
148291,2018-06-29 10:02:06.093750,-38.1,85.5
148292,2018-06-29 10:02:06.125000,-46.86,85.5
148293,2018-06-29 10:02:06.156250,-55.26,85.5
148294,2018-06-29 10:02:06.187500,-65.22,85.5
148295,2018-06-29 10:02:06.218750,-76.7,85.5
148296,2018-06-29 10:02:06.250000,-83.61,85.5
148297,2018-06-29 10:02:06.281250,-76.36,85.5
148298,2018-06-29 10:02:06.312500,-51.49,85.5
148299,2018-06-29 10:02:06.343750,-16.66,85.5
148300,2018-06-29 10:02:06.375000,16.49,85.5
148301,2018-06-29 10:02:06.406250,42.05,85.5
148302,2018-06-29 10:02:06.437500,59.55,85.5
148303,2018-06-29 10:02:06.468750,68.29,85.5
148304,2018-06-29 10:02:06.500000,67.11,85.5
148305,2018-06-29 10:02:06.531250,58.24,85.52
148306,2018-06-29 10:02:06.562500,46.75,85.52
148307,2018-06-29 10:02:06.593750,36.11,85.52
148308,2018-06-29 10:02:06.625000,27.16,85.52
148309,2018-06-29 10:02:06.656250,20.12,85.52
148310,2018-06-29 10:02:06.687500,14.92,85.52
148311,2018-06-29 10:02:06.718750,10.53,85.52
148312,2018-06-29 10:02:06.750000,6.19,85.52
148313,2018-06-29 10:02:06.781250,2.8,85.52
148314,2018-06-29 10:02:06.812500,1.08,85.52
148315,2018-06-29 10:02:06.843750,-0.24,85.52
148316,2018-06-29 10:02:06.875000,-2.42,85.52
148317,2018-06-29 10:02:06.906250,-4.73,85.52
148318,2018-06-29 10:02:06.937500,-6.45,85.52
148319,2018-06-29 10:02:06.968750,-8.66,85.52
148320,2018-06-29 10:02:07.000000,-12.82,85.52
148321,2018-06-29 10:02:07.031250,-19.08,85.52
148322,2018-06-29 10:02:07.062500,-26.45,85.52
148323,2018-06-29 10:02:07.093750,-34.1,85.52
148324,2018-06-29 10:02:07.125000,-42.87,85.52
148325,2018-06-29 10:02:07.156250,-54.25,85.52
148326,2018-06-29 10:02:07.187500,-66.61,85.52
148327,2018-06-29 10:02:07.218750,-72.29,85.52
148328,2018-06-29 10:02:07.250000,-62.39,85.52
148329,2018-06-29 10:02:07.281250,-37.31,85.52
148330,2018-06-29 10:02:07.312500,-7.99,85.52
148331,2018-06-29 10:02:07.343750,16.45,85.52
148332,2018-06-29 10:02:07.375000,35.35,85.52
148333,2018-06-29 10:02:07.406250,49.07,85.52
148334,2018-06-29 10:02:07.437500,55.15,85.52
148335,2018-06-29 10:02:07.468750,54.41,85.52
148336,2018-06-29 10:02:07.500000,51.71,85.52
148337,2018-06-29 10:02:07.531250,49.46,85.53
148338,2018-06-29 10:02:07.562500,46.52,85.53
148339,2018-06-29 10:02:07.593750,42.34,85.53
148340,2018-06-29 10:02:07.625000,37.9,85.53
148341,2018-06-29 10:02:07.656250,33.5,85.53
148342,2018-06-29 10:02:07.687500,27.97,85.53
148343,2018-06-29 10:02:07.718750,20.81,85.53
148344,2018-06-29 10:02:07.750000,13.77,85.53
148345,2018-06-29 10:02:07.781250,8.42,85.53
148346,2018-06-29 10:02:07.812500,3.65,85.53
148347,2018-06-29 10:02:07.843750,-2.05,85.53
148348,2018-06-29 10:02:07.875000,-7.52,85.53
148349,2018-06-29 10:02:07.906250,-12.31,85.53
148350,2018-06-29 10:02:07.937500,-19.31,85.53
148351,2018-06-29 10:02:07.968750,-29.83,85.53
148352,2018-06-29 10:02:08.000000,-40.42,85.53
148353,2018-06-29 10:02:08.031250,-48.11,85.53
148354,2018-06-29 10:02:08.062500,-55.07,85.53
148355,2018-06-29 10:02:08.093750,-65.03,85.53
148356,2018-06-29 10:02:08.125000,-77.17,85.53
148357,2018-06-29 10:02:08.156250,-84.49,85.53
148358,2018-06-29 10:02:08.187500,-78.3,85.53
148359,2018-06-29 10:02:08.218750,-56.31,85.53
148360,2018-06-29 10:02:08.250000,-25.65,85.53
148361,2018-06-29 10:02:08.281250,3.2,85.53
148362,2018-06-29 10:02:08.312500,25.15,85.53
148363,2018-06-29 10:02:08.343750,40.68,85.53
148364,2018-06-29 10:02:08.375000,49.78,85.53
148365,2018-06-29 10:02:08.406250,50.98,85.53
148366,2018-06-29 10:02:08.437500,46.48,85.53
148367,2018-06-29 10:02:08.468750,41.75,85.53
148368,2018-06-29 10:02:08.500000,39.16,85.53
148369,2018-06-29 10:02:08.531250,37.22,85.6
148370,2018-06-29 10:02:08.562500,35.04,85.6
148371,2018-06-29 10:02:08.593750,33.04,85.6
148372,2018-06-29 10:02:08.625000,30.99,85.6
148373,2018-06-29 10:02:08.656250,28.26,85.6
148374,2018-06-29 10:02:08.687500,25.05,85.6
148375,2018-06-29 10:02:08.718750,22.17,85.6
148376,2018-06-29 10:02:08.750000,19.92,85.6
148377,2018-06-29 10:02:08.781250,16.96,85.6
148378,2018-06-29 10:02:08.812500,12.1,85.6
148379,2018-06-29 10:02:08.843750,6.59,85.6
148380,2018-06-29 10:02:08.875000,2.21,85.6
148381,2018-06-29 10:02:08.906250,-1.76,85.6
148382,2018-06-29 10:02:08.937500,-6.97,85.6
148383,2018-06-29 10:02:08.968750,-13.29,85.6
148384,2018-06-29 10:02:09.000000,-19.2,85.6
148385,2018-06-29 10:02:09.031250,-23.22,85.6
148386,2018-06-29 10:02:09.062500,-25.1,85.6
148387,2018-06-29 10:02:09.093750,-26.58,85.6
148388,2018-06-29 10:02:09.125000,-29.39,85.6
148389,2018-06-29 10:02:09.156250,-33.18,85.6
148390,2018-06-29 10:02:09.187500,-37.48,85.6
148391,2018-06-29 10:02:09.218750,-43.61,85.6
148392,2018-06-29 10:02:09.250000,-53.2,85.6
148393,2018-06-29 10:02:09.281250,-66.15,85.6
148394,2018-06-29 10:02:09.312500,-77.92,85.6
148395,2018-06-29 10:02:09.343750,-78.38,85.6
148396,2018-06-29 10:02:09.375000,-60.4,85.6
148397,2018-06-29 10:02:09.406250,-30.16,85.6
148398,2018-06-29 10:02:09.437500,-1.42,85.6
148399,2018-06-29 10:02:09.468750,19.04,85.6
148400,2018-06-29 10:02:09.500000,32.92,85.6
148401,2018-06-29 10:02:09.531250,41.66,85.58
148402,2018-06-29 10:02:09.562500,44.92,85.58
148403,2018-06-29 10:02:09.593750,44.56,85.58
148404,2018-06-29 10:02:09.625000,43.7,85.58
148405,2018-06-29 10:02:09.656250,42.94,85.58
148406,2018-06-29 10:02:09.687500,41.25,85.58
148407,2018-06-29 10:02:09.718750,38.78,85.58
148408,2018-06-29 10:02:09.750000,36.07,85.58
148409,2018-06-29 10:02:09.781250,32.23,85.58
148410,2018-06-29 10:02:09.812500,26.32,85.58
148411,2018-06-29 10:02:09.843750,19.7,85.58
148412,2018-06-29 10:02:09.875000,14.76,85.58
148413,2018-06-29 10:02:09.906250,12.05,85.58
148414,2018-06-29 10:02:09.937500,10.13,85.58
148415,2018-06-29 10:02:09.968750,7.74,85.58
148416,2018-06-29 10:02:10.000000,5.27,85.58
148417,2018-06-29 10:02:10.031250,3.84,85.58
148418,2018-06-29 10:02:10.062500,2.93,85.58
148419,2018-06-29 10:02:10.093750,0.14,85.58
148420,2018-06-29 10:02:10.125000,-5.6,85.58
148421,2018-06-29 10:02:10.156250,-12.19,85.58
148422,2018-06-29 10:02:10.187500,-17.37,85.58
148423,2018-06-29 10:02:10.218750,-21.55,85.58
148424,2018-06-29 10:02:10.250000,-26.02,85.58
148425,2018-06-29 10:02:10.281250,-30.34,85.58
148426,2018-06-29 10:02:10.312500,-33.13,85.58
148427,2018-06-29 10:02:10.343750,-34.31,85.58
148428,2018-06-29 10:02:10.375000,-35.17,85.58
148429,2018-06-29 10:02:10.406250,-37.04,85.58
148430,2018-06-29 10:02:10.437500,-39.68,85.58
148431,2018-06-29 10:02:10.468750,-39.13,85.58
148432,2018-06-29 10:02:10.500000,-27.99,85.58
148433,2018-06-29 10:02:10.531250,-2.6,85.53
148434,2018-06-29 10:02:10.562500,30.12,85.53
148435,2018-06-29 10:02:10.593750,57.92,85.53
148436,2018-06-29 10:02:10.625000,75.08,85.53
148437,2018-06-29 10:02:10.656250,84.29,85.53
148438,2018-06-29 10:02:10.687500,89.28,85.53
148439,2018-06-29 10:02:10.718750,91.59,85.53
148440,2018-06-29 10:02:10.750000,92.8,85.53
148441,2018-06-29 10:02:10.781250,94.89,85.53
148442,2018-06-29 10:02:10.812500,97.61,85.53
148443,2018-06-29 10:02:10.843750,99.27,85.53
148444,2018-06-29 10:02:10.875000,99.5,85.53
148445,2018-06-29 10:02:10.906250,98.39,85.53
148446,2018-06-29 10:02:10.937500,94.21,85.53
148447,2018-06-29 10:02:10.968750,85.56,85.53
148448,2018-06-29 10:02:11.000000,74.21,85.53
148449,2018-06-29 10:02:11.031250,60.55,85.53
148450,2018-06-29 10:02:11.062500,40.76,85.53
148451,2018-06-29 10:02:11.093750,15.75,85.53
148452,2018-06-29 10:02:11.125000,-0.52,85.53
148453,2018-06-29 10:02:11.156250,6.01,85.53
148454,2018-06-29 10:02:11.187500,29.83,85.53
148455,2018-06-29 10:02:11.218750,51.52,85.53
148456,2018-06-29 10:02:11.250000,58.94,85.53
148457,2018-06-29 10:02:11.281250,51.77,85.53
148458,2018-06-29 10:02:11.312500,32.55,85.53
148459,2018-06-29 10:02:11.343750,5.62,85.53
148460,2018-06-29 10:02:11.375000,-22.13,85.53
148461,2018-06-29 10:02:11.406250,-47.62,85.53
148462,2018-06-29 10:02:11.437500,-71.28,85.53
148463,2018-06-29 10:02:11.468750,-92.65,85.53
148464,2018-06-29 10:02:11.500000,-110.81,85.53
148465,2018-06-29 10:02:11.531250,-123.7,85.52
148466,2018-06-29 10:02:11.562500,-125.74,85.52
148467,2018-06-29 10:02:11.593750,-112.83,85.52
148468,2018-06-29 10:02:11.625000,-89.85,85.52
148469,2018-06-29 10:02:11.656250,-67.12,85.52
148470,2018-06-29 10:02:11.687500,-51.85,85.52
148471,2018-06-29 10:02:11.718750,-44.75,85.52
148472,2018-06-29 10:02:11.750000,-41.15,85.52
148473,2018-06-29 10:02:11.781250,-35.34,85.52
148474,2018-06-29 10:02:11.812500,-26.68,85.52
148475,2018-06-29 10:02:11.843750,-20.08,85.52
148476,2018-06-29 10:02:11.875000,-19.33,85.52
148477,2018-06-29 10:02:11.906250,-23.27,85.52
148478,2018-06-29 10:02:11.937500,-30.02,85.52
148479,2018-06-29 10:02:11.968750,-40.06,85.52
148480,2018-06-29 10:02:12.000000,-53.54,85.52
148481,2018-06-29 10:02:12.031250,-66.9,85.52
148482,2018-06-29 10:02:12.062500,-74.19,85.52
148483,2018-06-29 10:02:12.093750,-72.74,85.52
148484,2018-06-29 10:02:12.125000,-66.19,85.52
148485,2018-06-29 10:02:12.156250,-59.62,85.52
148486,2018-06-29 10:02:12.187500,-54.52,85.52
148487,2018-06-29 10:02:12.218750,-52.0,85.52
148488,2018-06-29 10:02:12.250000,-55.53,85.52
148489,2018-06-29 10:02:12.281250,-66.02,85.52
148490,2018-06-29 10:02:12.312500,-79.04,85.52
148491,2018-06-29 10:02:12.343750,-88.94,85.52
148492,2018-06-29 10:02:12.375000,-92.82,85.52
148493,2018-06-29 10:02:12.406250,-91.96,85.52
148494,2018-06-29 10:02:12.437500,-90.53,85.52
148495,2018-06-29 10:02:12.468750,-88.57,85.52
148496,2018-06-29 10:02:12.500000,-78.15,85.52
148497,2018-06-29 10:02:12.531250,-53.65,85.3
148498,2018-06-29 10:02:12.562500,-22.62,85.3
148499,2018-06-29 10:02:12.593750,2.52,85.3
148500,2018-06-29 10:02:12.625000,18.21,85.3
148501,2018-06-29 10:02:12.656250,27.63,85.3
148502,2018-06-29 10:02:12.687500,32.37,85.3
148503,2018-06-29 10:02:12.718750,34.37,85.3
148504,2018-06-29 10:02:12.750000,39.12,85.3
148505,2018-06-29 10:02:12.781250,49.52,85.3
148506,2018-06-29 10:02:12.812500,61.41,85.3
148507,2018-06-29 10:02:12.843750,69.76,85.3
148508,2018-06-29 10:02:12.875000,75.43,85.3
148509,2018-06-29 10:02:12.906250,81.99,85.3
148510,2018-06-29 10:02:12.937500,89.7,85.3
148511,2018-06-29 10:02:12.968750,96.61,85.3
148512,2018-06-29 10:02:13.000000,102.3,85.3
148513,2018-06-29 10:02:13.031250,106.74,85.3
148514,2018-06-29 10:02:13.062500,108.49,85.3
148515,2018-06-29 10:02:13.093750,107.1,85.3
148516,2018-06-29 10:02:13.125000,103.64,85.3
148517,2018-06-29 10:02:13.156250,97.71,85.3
148518,2018-06-29 10:02:13.187500,87.01,85.3
148519,2018-06-29 10:02:13.218750,70.75,85.3
148520,2018-06-29 10:02:13.250000,50.76,85.3
148521,2018-06-29 10:02:13.281250,28.38,85.3
148522,2018-06-29 10:02:13.312500,1.12,85.3
148523,2018-06-29 10:02:13.343750,-33.36,85.3
148524,2018-06-29 10:02:13.375000,-67.24,85.3
148525,2018-06-29 10:02:13.406250,-84.23,85.3
148526,2018-06-29 10:02:13.437500,-77.79,85.3
148527,2018-06-29 10:02:13.468750,-59.23,85.3
148528,2018-06-29 10:02:13.500000,-43.75,85.3
148529,2018-06-29 10:02:13.531250,-37.7,85.02
148530,2018-06-29 10:02:13.562500,-39.96,85.02
148531,2018-06-29 10:02:13.593750,-45.7,85.02
148532,2018-06-29 10:02:13.625000,-48.14,85.02
148533,2018-06-29 10:02:13.656250,-43.39,85.02
148534,2018-06-29 10:02:13.687500,-33.88,85.02
148535,2018-06-29 10:02:13.718750,-24.69,85.02
148536,2018-06-29 10:02:13.750000,-17.59,85.02
148537,2018-06-29 10:02:13.781250,-11.71,85.02
148538,2018-06-29 10:02:13.812500,-7.48,85.02
148539,2018-06-29 10:02:13.843750,-5.21,85.02
148540,2018-06-29 10:02:13.875000,-2.29,85.02
148541,2018-06-29 10:02:13.906250,3.18,85.02
148542,2018-06-29 10:02:13.937500,9.03,85.02
148543,2018-06-29 10:02:13.968750,12.53,85.02
148544,2018-06-29 10:02:14.000000,14.22,85.02
148545,2018-06-29 10:02:14.031250,16.73,85.02
148546,2018-06-29 10:02:14.062500,21.3,85.02
148547,2018-06-29 10:02:14.093750,25.14,85.02
148548,2018-06-29 10:02:14.125000,23.65,85.02
148549,2018-06-29 10:02:14.156250,17.99,85.02
148550,2018-06-29 10:02:14.187500,18.27,85.02
148551,2018-06-29 10:02:14.218750,32.81,85.02
148552,2018-06-29 10:02:14.250000,56.48,85.02
148553,2018-06-29 10:02:14.281250,75.88,85.02
148554,2018-06-29 10:02:14.312500,83.3,85.02
148555,2018-06-29 10:02:14.343750,78.81,85.02
148556,2018-06-29 10:02:14.375000,63.62,85.02
148557,2018-06-29 10:02:14.406250,40.37,85.02
148558,2018-06-29 10:02:14.437500,16.51,85.02
148559,2018-06-29 10:02:14.468750,0.16,85.02
148560,2018-06-29 10:02:14.500000,-6.46,85.02
148561,2018-06-29 10:02:14.531250,-6.63,84.78
148562,2018-06-29 10:02:14.562500,-5.02,84.78
148563,2018-06-29 10:02:14.593750,-6.64,84.78
148564,2018-06-29 10:02:14.625000,-17.44,84.78
148565,2018-06-29 10:02:14.656250,-40.82,84.78
148566,2018-06-29 10:02:14.687500,-72.46,84.78
148567,2018-06-29 10:02:14.718750,-101.92,84.78
148568,2018-06-29 10:02:14.750000,-121.95,84.78
148569,2018-06-29 10:02:14.781250,-134.15,84.78
148570,2018-06-29 10:02:14.812500,-144.84,84.78
148571,2018-06-29 10:02:14.843750,-158.35,84.78
148572,2018-06-29 10:02:14.875000,-172.32,84.78
148573,2018-06-29 10:02:14.906250,-176.07,84.78
148574,2018-06-29 10:02:14.937500,-158.58,84.78
148575,2018-06-29 10:02:14.968750,-122.44,84.78
148576,2018-06-29 10:02:15.000000,-83.78,84.78
148577,2018-06-29 10:02:15.031250,-55.53,84.78
148578,2018-06-29 10:02:15.062500,-38.6,84.78
148579,2018-06-29 10:02:15.093750,-29.84,84.78
148580,2018-06-29 10:02:15.125000,-27.64,84.78
148581,2018-06-29 10:02:15.156250,-28.38,84.78
148582,2018-06-29 10:02:15.187500,-26.93,84.78
148583,2018-06-29 10:02:15.218750,-22.93,84.78
148584,2018-06-29 10:02:15.250000,-20.6,84.78
148585,2018-06-29 10:02:15.281250,-21.86,84.78
148586,2018-06-29 10:02:15.312500,-24.88,84.78
148587,2018-06-29 10:02:15.343750,-29.7,84.78
148588,2018-06-29 10:02:15.375000,-39.48,84.78
148589,2018-06-29 10:02:15.406250,-54.84,84.78
148590,2018-06-29 10:02:15.437500,-70.73,84.78
148591,2018-06-29 10:02:15.468750,-82.0,84.78
148592,2018-06-29 10:02:15.500000,-90.0,84.78
148593,2018-06-29 10:02:15.531250,-101.15,84.57
148594,2018-06-29 10:02:15.562500,-117.78,84.57
148595,2018-06-29 10:02:15.593750,-130.16,84.57
148596,2018-06-29 10:02:15.625000,-121.61,84.57
148597,2018-06-29 10:02:15.656250,-86.6,84.57
148598,2018-06-29 10:02:15.687500,-39.11,84.57
148599,2018-06-29 10:02:15.718750,2.09,84.57
148600,2018-06-29 10:02:15.750000,30.6,84.57
148601,2018-06-29 10:02:15.781250,49.76,84.57
148602,2018-06-29 10:02:15.812500,61.85,84.57
148603,2018-06-29 10:02:15.843750,67.45,84.57
148604,2018-06-29 10:02:15.875000,69.57,84.57
148605,2018-06-29 10:02:15.906250,71.63,84.57
148606,2018-06-29 10:02:15.937500,73.09,84.57
148607,2018-06-29 10:02:15.968750,71.11,84.57
148608,2018-06-29 10:02:16.000000,65.53,84.57
148609,2018-06-29 10:02:16.031250,58.03,84.57
148610,2018-06-29 10:02:16.062500,47.2,84.57
148611,2018-06-29 10:02:16.093750,28.96,84.57
148612,2018-06-29 10:02:16.125000,3.62,84.57
148613,2018-06-29 10:02:16.156250,-21.97,84.57
148614,2018-06-29 10:02:16.187500,-42.14,84.57
148615,2018-06-29 10:02:16.218750,-58.76,84.57
148616,2018-06-29 10:02:16.250000,-77.9,84.57
148617,2018-06-29 10:02:16.281250,-102.07,84.57
148618,2018-06-29 10:02:16.312500,-124.36,84.57
148619,2018-06-29 10:02:16.343750,-128.38,84.57
148620,2018-06-29 10:02:16.375000,-100.2,84.57
148621,2018-06-29 10:02:16.406250,-45.17,84.57
148622,2018-06-29 10:02:16.437500,14.25,84.57
148623,2018-06-29 10:02:16.468750,61.19,84.57
148624,2018-06-29 10:02:16.500000,95.8,84.57
148625,2018-06-29 10:02:16.531250,122.32,84.35
148626,2018-06-29 10:02:16.562500,138.81,84.35
148627,2018-06-29 10:02:16.593750,144.55,84.35
148628,2018-06-29 10:02:16.625000,145.42,84.35
148629,2018-06-29 10:02:16.656250,146.36,84.35
148630,2018-06-29 10:02:16.687500,146.44,84.35
148631,2018-06-29 10:02:16.718750,143.98,84.35
148632,2018-06-29 10:02:16.750000,139.72,84.35
148633,2018-06-29 10:02:16.781250,133.46,84.35
148634,2018-06-29 10:02:16.812500,123.34,84.35
148635,2018-06-29 10:02:16.843750,109.33,84.35
148636,2018-06-29 10:02:16.875000,94.23,84.35
148637,2018-06-29 10:02:16.906250,80.83,84.35
148638,2018-06-29 10:02:16.937500,69.56,84.35
148639,2018-06-29 10:02:16.968750,58.73,84.35
148640,2018-06-29 10:02:17.000000,46.55,84.35
148641,2018-06-29 10:02:17.031250,32.58,84.35
148642,2018-06-29 10:02:17.062500,17.83,84.35
148643,2018-06-29 10:02:17.093750,3.23,84.35
148644,2018-06-29 10:02:17.125000,-11.95,84.35
148645,2018-06-29 10:02:17.156250,-30.24,84.35
148646,2018-06-29 10:02:17.187500,-52.59,84.35
148647,2018-06-29 10:02:17.218750,-75.21,84.35
148648,2018-06-29 10:02:17.250000,-93.9,84.35
148649,2018-06-29 10:02:17.281250,-111.03,84.35
148650,2018-06-29 10:02:17.312500,-134.28,84.35
148651,2018-06-29 10:02:17.343750,-167.12,84.35
148652,2018-06-29 10:02:17.375000,-199.09,84.35
148653,2018-06-29 10:02:17.406250,-206.69,84.35
148654,2018-06-29 10:02:17.437500,-173.17,84.35
148655,2018-06-29 10:02:17.468750,-109.23,84.35
148656,2018-06-29 10:02:17.500000,-42.98,84.35
148657,2018-06-29 10:02:17.531250,9.83,84.07
148658,2018-06-29 10:02:17.562500,52.99,84.07
148659,2018-06-29 10:02:17.593750,91.95,84.07
148660,2018-06-29 10:02:17.625000,123.69,84.07
148661,2018-06-29 10:02:17.656250,143.96,84.07
148662,2018-06-29 10:02:17.687500,153.74,84.07
148663,2018-06-29 10:02:17.718750,156.78,84.07
148664,2018-06-29 10:02:17.750000,155.95,84.07
148665,2018-06-29 10:02:17.781250,153.51,84.07
148666,2018-06-29 10:02:17.812500,151.11,84.07
148667,2018-06-29 10:02:17.843750,147.12,84.07
148668,2018-06-29 10:02:17.875000,137.97,84.07
148669,2018-06-29 10:02:17.906250,123.9,84.07
148670,2018-06-29 10:02:17.937500,109.63,84.07
148671,2018-06-29 10:02:17.968750,98.17,84.07
148672,2018-06-29 10:02:18.000000,87.74,84.07
148673,2018-06-29 10:02:18.031250,75.65,84.07
148674,2018-06-29 10:02:18.062500,61.76,84.07
148675,2018-06-29 10:02:18.093750,47.84,84.07
148676,2018-06-29 10:02:18.125000,35.37,84.07
148677,2018-06-29 10:02:18.156250,23.62,84.07
148678,2018-06-29 10:02:18.187500,9.77,84.07
148679,2018-06-29 10:02:18.218750,-7.17,84.07
148680,2018-06-29 10:02:18.250000,-24.32,84.07
148681,2018-06-29 10:02:18.281250,-39.21,84.07
148682,2018-06-29 10:02:18.312500,-54.16,84.07
148683,2018-06-29 10:02:18.343750,-73.07,84.07
148684,2018-06-29 10:02:18.375000,-94.94,84.07
148685,2018-06-29 10:02:18.406250,-114.32,84.07
148686,2018-06-29 10:02:18.437500,-129.36,84.07
148687,2018-06-29 10:02:18.468750,-145.68,84.07
148688,2018-06-29 10:02:18.500000,-170.15,84.07
148689,2018-06-29 10:02:18.531250,-200.37,83.9
148690,2018-06-29 10:02:18.562500,-218.18,83.9
148691,2018-06-29 10:02:18.593750,-199.8,83.9
148692,2018-06-29 10:02:18.625000,-141.97,83.9
148693,2018-06-29 10:02:18.656250,-69.92,83.9
148694,2018-06-29 10:02:18.687500,-10.0,83.9
148695,2018-06-29 10:02:18.718750,34.45,83.9
148696,2018-06-29 10:02:18.750000,71.69,83.9
148697,2018-06-29 10:02:18.781250,102.34,83.9
148698,2018-06-29 10:02:18.812500,122.19,83.9
148699,2018-06-29 10:02:18.843750,131.88,83.9
148700,2018-06-29 10:02:18.875000,135.66,83.9
148701,2018-06-29 10:02:18.906250,136.3,83.9
148702,2018-06-29 10:02:18.937500,135.33,83.9
148703,2018-06-29 10:02:18.968750,133.94,83.9
148704,2018-06-29 10:02:19.000000,130.97,83.9
148705,2018-06-29 10:02:19.031250,123.22,83.9
148706,2018-06-29 10:02:19.062500,109.55,83.9
148707,2018-06-29 10:02:19.093750,92.75,83.9
148708,2018-06-29 10:02:19.125000,75.92,83.9
148709,2018-06-29 10:02:19.156250,59.12,83.9
148710,2018-06-29 10:02:19.187500,40.49,83.9
148711,2018-06-29 10:02:19.218750,18.98,83.9
148712,2018-06-29 10:02:19.250000,-5.4,83.9
148713,2018-06-29 10:02:19.281250,-32.55,83.9
148714,2018-06-29 10:02:19.312500,-61.72,83.9
148715,2018-06-29 10:02:19.343750,-90.62,83.9
148716,2018-06-29 10:02:19.375000,-116.64,83.9
148717,2018-06-29 10:02:19.406250,-138.56,83.9
148718,2018-06-29 10:02:19.437500,-155.73,83.9
148719,2018-06-29 10:02:19.468750,-165.58,83.9
148720,2018-06-29 10:02:19.500000,-163.66,83.9
148721,2018-06-29 10:02:19.531250,-145.89,83.73
148722,2018-06-29 10:02:19.562500,-111.57,83.73
148723,2018-06-29 10:02:19.593750,-66.43,83.73
148724,2018-06-29 10:02:19.625000,-19.21,83.73
148725,2018-06-29 10:02:19.656250,27.06,83.73
148726,2018-06-29 10:02:19.687500,74.23,83.73
148727,2018-06-29 10:02:19.718750,118.42,83.73
148728,2018-06-29 10:02:19.750000,149.31,83.73
148729,2018-06-29 10:02:19.781250,159.66,83.73
148730,2018-06-29 10:02:19.812500,149.47,83.73
148731,2018-06-29 10:02:19.843750,125.1,83.73
148732,2018-06-29 10:02:19.875000,99.11,83.73
148733,2018-06-29 10:02:19.906250,84.35,83.73
148734,2018-06-29 10:02:19.937500,83.14,83.73
148735,2018-06-29 10:02:19.968750,85.95,83.73
148736,2018-06-29 10:02:20.000000,82.06,83.73
148737,2018-06-29 10:02:20.031250,67.57,83.73
148738,2018-06-29 10:02:20.062500,43.74,83.73
148739,2018-06-29 10:02:20.093750,16.35,83.73
148740,2018-06-29 10:02:20.125000,-2.87,83.73
148741,2018-06-29 10:02:20.156250,-4.9,83.73
148742,2018-06-29 10:02:20.187500,4.48,83.73
148743,2018-06-29 10:02:20.218750,9.41,83.73
148744,2018-06-29 10:02:20.250000,-0.63,83.73
148745,2018-06-29 10:02:20.281250,-25.1,83.73
148746,2018-06-29 10:02:20.312500,-55.52,83.73
148747,2018-06-29 10:02:20.343750,-79.16,83.73
148748,2018-06-29 10:02:20.375000,-87.46,83.73
148749,2018-06-29 10:02:20.406250,-85.6,83.73
148750,2018-06-29 10:02:20.437500,-84.8,83.73
148751,2018-06-29 10:02:20.468750,-82.82,83.73
148752,2018-06-29 10:02:20.500000,-63.54,83.73
148753,2018-06-29 10:02:20.531250,-18.74,83.55
148754,2018-06-29 10:02:20.562500,40.3,83.55
148755,2018-06-29 10:02:20.593750,94.82,83.55
148756,2018-06-29 10:02:20.625000,132.96,83.55
148757,2018-06-29 10:02:20.656250,151.81,83.55
148758,2018-06-29 10:02:20.687500,156.23,83.55
148759,2018-06-29 10:02:20.718750,158.18,83.55
148760,2018-06-29 10:02:20.750000,168.22,83.55
148761,2018-06-29 10:02:20.781250,184.26,83.55
148762,2018-06-29 10:02:20.812500,194.49,83.55
148763,2018-06-29 10:02:20.843750,189.57,83.55
148764,2018-06-29 10:02:20.875000,165.61,83.55
148765,2018-06-29 10:02:20.906250,121.6,83.55
148766,2018-06-29 10:02:20.937500,63.16,83.55
148767,2018-06-29 10:02:20.968750,5.59,83.55
148768,2018-06-29 10:02:21.000000,-34.84,83.55
148769,2018-06-29 10:02:21.031250,-52.35,83.55
148770,2018-06-29 10:02:21.062500,-54.88,83.55
148771,2018-06-29 10:02:21.093750,-58.43,83.55
148772,2018-06-29 10:02:21.125000,-78.14,83.55
148773,2018-06-29 10:02:21.156250,-120.67,83.55
148774,2018-06-29 10:02:21.187500,-180.24,83.55
148775,2018-06-29 10:02:21.218750,-238.51,83.55
148776,2018-06-29 10:02:21.250000,-270.32,83.55
148777,2018-06-29 10:02:21.281250,-259.64,83.55
148778,2018-06-29 10:02:21.312500,-215.21,83.55
148779,2018-06-29 10:02:21.343750,-162.75,83.55
148780,2018-06-29 10:02:21.375000,-118.87,83.55
148781,2018-06-29 10:02:21.406250,-82.77,83.55
148782,2018-06-29 10:02:21.437500,-52.97,83.55
148783,2018-06-29 10:02:21.468750,-37.5,83.55
148784,2018-06-29 10:02:21.500000,-43.16,83.55
148785,2018-06-29 10:02:21.531250,-63.24,83.35
148786,2018-06-29 10:02:21.562500,-80.35,83.35
148787,2018-06-29 10:02:21.593750,-83.56,83.35
148788,2018-06-29 10:02:21.625000,-78.5,83.35
148789,2018-06-29 10:02:21.656250,-75.47,83.35
148790,2018-06-29 10:02:21.687500,-70.71,83.35
148791,2018-06-29 10:02:21.718750,-51.25,83.35
148792,2018-06-29 10:02:21.750000,-13.41,83.35
148793,2018-06-29 10:02:21.781250,31.52,83.35
148794,2018-06-29 10:02:21.812500,68.31,83.35
148795,2018-06-29 10:02:21.843750,92.83,83.35
148796,2018-06-29 10:02:21.875000,111.74,83.35
148797,2018-06-29 10:02:21.906250,130.52,83.35
148798,2018-06-29 10:02:21.937500,142.75,83.35
148799,2018-06-29 10:02:21.968750,138.88,83.35
148800,2018-06-29 10:02:22.000000,119.91,83.35
148801,2018-06-29 10:02:22.031250,104.48,83.35
148802,2018-06-29 10:02:22.062500,111.95,83.35
148803,2018-06-29 10:02:22.093750,134.05,83.35
148804,2018-06-29 10:02:22.125000,149.49,83.35
148805,2018-06-29 10:02:22.156250,145.09,83.35
148806,2018-06-29 10:02:22.187500,125.74,83.35
148807,2018-06-29 10:02:22.218750,82.49,83.35
148808,2018-06-29 10:02:22.250000,8.47,83.35
148809,2018-06-29 10:02:22.281250,-83.25,83.35
148810,2018-06-29 10:02:22.312500,-164.03,83.35
148811,2018-06-29 10:02:22.343750,-211.83,83.35
148812,2018-06-29 10:02:22.375000,-232.87,83.35
148813,2018-06-29 10:02:22.406250,-222.74,83.35
148814,2018-06-29 10:02:22.437500,-175.44,83.35
148815,2018-06-29 10:02:22.468750,-78.02,83.35
148816,2018-06-29 10:02:22.500000,49.13,83.35
148817,2018-06-29 10:02:22.531250,177.75,83.35
148818,2018-06-29 10:02:22.562500,273.35,83.35
148819,2018-06-29 10:02:22.593750,236.84,83.35
148820,2018-06-29 10:02:22.625000,165.52,83.35
148821,2018-06-29 10:02:22.656250,111.24,83.35
148822,2018-06-29 10:02:22.687500,48.37,83.35
148823,2018-06-29 10:02:22.718750,-22.02,83.35
148824,2018-06-29 10:02:22.750000,-82.32,83.35
148825,2018-06-29 10:02:22.781250,-106.7,83.35
148826,2018-06-29 10:02:22.812500,-55.4,83.35
148827,2018-06-29 10:02:22.843750,22.5,83.35
148828,2018-06-29 10:02:22.875000,75.95,83.35
148829,2018-06-29 10:02:22.906250,114.01,83.35
148830,2018-06-29 10:02:22.937500,138.19,83.35
148831,2018-06-29 10:02:22.968750,141.53,83.35
148832,2018-06-29 10:02:23.000000,128.82,83.35
148833,2018-06-29 10:02:23.031250,122.94,83.35
148834,2018-06-29 10:02:23.062500,123.91,83.35
148835,2018-06-29 10:02:23.093750,114.55,83.35
148836,2018-06-29 10:02:23.125000,92.39,83.35
148837,2018-06-29 10:02:23.156250,72.78,83.35
148838,2018-06-29 10:02:23.187500,65.16,83.35
148839,2018-06-29 10:02:23.218750,55.82,83.35
148840,2018-06-29 10:02:23.250000,29.86,83.35
148841,2018-06-29 10:02:23.281250,-13.8,83.35
148842,2018-06-29 10:02:23.312500,-66.05,83.35
148843,2018-06-29 10:02:23.343750,-121.47,83.35
148844,2018-06-29 10:02:23.375000,-178.72,83.35
148845,2018-06-29 10:02:23.406250,-237.99,83.35
148846,2018-06-29 10:02:23.437500,-301.04,83.35
148847,2018-06-29 10:02:23.468750,-361.79,83.35
148848,2018-06-29 10:02:23.500000,-398.89,83.35
148849,2018-06-29 10:02:23.531250,-389.75,83.27
148850,2018-06-29 10:02:23.562500,-328.88,83.27
148851,2018-06-29 10:02:23.593750,-232.63,83.27
148852,2018-06-29 10:02:23.625000,-132.02,83.27
148853,2018-06-29 10:02:23.656250,-54.64,83.27
148854,2018-06-29 10:02:23.687500,-6.57,83.27
148855,2018-06-29 10:02:23.718750,23.08,83.27
148856,2018-06-29 10:02:23.750000,42.82,83.27
148857,2018-06-29 10:02:23.781250,54.2,83.27
148858,2018-06-29 10:02:23.812500,59.21,83.27
148859,2018-06-29 10:02:23.843750,60.99,83.27
148860,2018-06-29 10:02:23.875000,61.61,83.27
148861,2018-06-29 10:02:23.906250,61.25,83.27
148862,2018-06-29 10:02:23.937500,56.15,83.27
148863,2018-06-29 10:02:23.968750,39.71,83.27
148864,2018-06-29 10:02:24.000000,9.61,83.27
148865,2018-06-29 10:02:24.031250,-28.27,83.27
148866,2018-06-29 10:02:24.062500,-65.62,83.27
148867,2018-06-29 10:02:24.093750,-98.12,83.27
148868,2018-06-29 10:02:24.125000,-124.35,83.27
148869,2018-06-29 10:02:24.156250,-142.31,83.27
148870,2018-06-29 10:02:24.187500,-149.37,83.27
148871,2018-06-29 10:02:24.218750,-144.04,83.27
148872,2018-06-29 10:02:24.250000,-130.47,83.27
148873,2018-06-29 10:02:24.281250,-121.24,83.27
148874,2018-06-29 10:02:24.312500,-122.83,83.27
148875,2018-06-29 10:02:24.343750,-115.79,83.27
148876,2018-06-29 10:02:24.375000,-70.65,83.27
148877,2018-06-29 10:02:24.406250,10.54,83.27
148878,2018-06-29 10:02:24.437500,90.29,83.27
148879,2018-06-29 10:02:24.468750,137.95,83.27
148880,2018-06-29 10:02:24.500000,153.55,83.27
148881,2018-06-29 10:02:24.531250,149.16,83.02
148882,2018-06-29 10:02:24.562500,131.75,83.02
148883,2018-06-29 10:02:24.593750,109.72,83.02
148884,2018-06-29 10:02:24.625000,95.61,83.02
148885,2018-06-29 10:02:24.656250,94.9,83.02
148886,2018-06-29 10:02:24.687500,102.01,83.02
148887,2018-06-29 10:02:24.718750,109.26,83.02
148888,2018-06-29 10:02:24.750000,112.68,83.02
148889,2018-06-29 10:02:24.781250,109.09,83.02
148890,2018-06-29 10:02:24.812500,93.9,83.02
148891,2018-06-29 10:02:24.843750,64.73,83.02
148892,2018-06-29 10:02:24.875000,27.35,83.02
148893,2018-06-29 10:02:24.906250,-6.71,83.02
148894,2018-06-29 10:02:24.937500,-31.3,83.02
148895,2018-06-29 10:02:24.968750,-50.98,83.02
148896,2018-06-29 10:02:25.000000,-74.45,83.02
148897,2018-06-29 10:02:25.031250,-104.86,83.02
148898,2018-06-29 10:02:25.062500,-131.65,83.02
148899,2018-06-29 10:02:25.093750,-133.51,83.02
148900,2018-06-29 10:02:25.125000,-99.46,83.02
148901,2018-06-29 10:02:25.156250,-44.04,83.02
148902,2018-06-29 10:02:25.187500,8.66,83.02
148903,2018-06-29 10:02:25.218750,49.16,83.02
148904,2018-06-29 10:02:25.250000,80.55,83.02
148905,2018-06-29 10:02:25.281250,103.11,83.02
148906,2018-06-29 10:02:25.312500,113.6,83.02
148907,2018-06-29 10:02:25.343750,113.16,83.02
148908,2018-06-29 10:02:25.375000,106.56,83.02
148909,2018-06-29 10:02:25.406250,96.3,83.02
148910,2018-06-29 10:02:25.437500,83.06,83.02
148911,2018-06-29 10:02:25.468750,68.98,83.02
148912,2018-06-29 10:02:25.500000,56.12,83.02
148913,2018-06-29 10:02:25.531250,43.85,82.78
148914,2018-06-29 10:02:25.562500,30.3,82.78
148915,2018-06-29 10:02:25.593750,15.6,82.78
148916,2018-06-29 10:02:25.625000,1.85,82.78
148917,2018-06-29 10:02:25.656250,-10.66,82.78
148918,2018-06-29 10:02:25.687500,-24.98,82.78
148919,2018-06-29 10:02:25.718750,-43.05,82.78
148920,2018-06-29 10:02:25.750000,-59.31,82.78
148921,2018-06-29 10:02:25.781250,-58.8,82.78
148922,2018-06-29 10:02:25.812500,-26.79,82.78
148923,2018-06-29 10:02:25.843750,33.46,82.78
148924,2018-06-29 10:02:25.875000,98.13,82.78
148925,2018-06-29 10:02:25.906250,145.68,82.78
148926,2018-06-29 10:02:25.937500,174.97,82.78
148927,2018-06-29 10:02:25.968750,193.36,82.78
148928,2018-06-29 10:02:26.000000,198.26,82.78
148929,2018-06-29 10:02:26.031250,182.92,82.78
148930,2018-06-29 10:02:26.062500,151.29,82.78
148931,2018-06-29 10:02:26.093750,113.94,82.78
148932,2018-06-29 10:02:26.125000,75.12,82.78
148933,2018-06-29 10:02:26.156250,35.47,82.78
148934,2018-06-29 10:02:26.187500,0.87,82.78
148935,2018-06-29 10:02:26.218750,-23.82,82.78
148936,2018-06-29 10:02:26.250000,-44.25,82.78
148937,2018-06-29 10:02:26.281250,-69.24,82.78
148938,2018-06-29 10:02:26.312500,-97.79,82.78
148939,2018-06-29 10:02:26.343750,-121.89,82.78
148940,2018-06-29 10:02:26.375000,-139.1,82.78
148941,2018-06-29 10:02:26.406250,-156.09,82.78
148942,2018-06-29 10:02:26.437500,-179.27,82.78
148943,2018-06-29 10:02:26.468750,-203.56,82.78
148944,2018-06-29 10:02:26.500000,-210.81,82.78
148945,2018-06-29 10:02:26.531250,-183.94,82.58
148946,2018-06-29 10:02:26.562500,-127.2,82.58
148947,2018-06-29 10:02:26.593750,-65.95,82.58
148948,2018-06-29 10:02:26.625000,-21.23,82.58
148949,2018-06-29 10:02:26.656250,6.64,82.58
148950,2018-06-29 10:02:26.687500,25.78,82.58
148951,2018-06-29 10:02:26.718750,36.81,82.58
148952,2018-06-29 10:02:26.750000,36.57,82.58
148953,2018-06-29 10:02:26.781250,28.54,82.58
148954,2018-06-29 10:02:26.812500,21.23,82.58
148955,2018-06-29 10:02:26.843750,19.34,82.58
148956,2018-06-29 10:02:26.875000,20.68,82.58
148957,2018-06-29 10:02:26.906250,20.69,82.58
148958,2018-06-29 10:02:26.937500,16.83,82.58
148959,2018-06-29 10:02:26.968750,9.3,82.58
148960,2018-06-29 10:02:27.000000,-1.07,82.58
148961,2018-06-29 10:02:27.031250,-14.71,82.58
148962,2018-06-29 10:02:27.062500,-31.83,82.58
148963,2018-06-29 10:02:27.093750,-50.36,82.58
148964,2018-06-29 10:02:27.125000,-68.24,82.58
148965,2018-06-29 10:02:27.156250,-86.67,82.58
148966,2018-06-29 10:02:27.187500,-108.88,82.58
148967,2018-06-29 10:02:27.218750,-137.42,82.58
148968,2018-06-29 10:02:27.250000,-169.01,82.58
148969,2018-06-29 10:02:27.281250,-187.23,82.58
148970,2018-06-29 10:02:27.312500,-171.44,82.58
148971,2018-06-29 10:02:27.343750,-122.94,82.58
148972,2018-06-29 10:02:27.375000,-68.76,82.58
148973,2018-06-29 10:02:27.406250,-32.07,82.58
148974,2018-06-29 10:02:27.437500,-14.09,82.58
148975,2018-06-29 10:02:27.468750,-7.8,82.58
148976,2018-06-29 10:02:27.500000,-11.15,82.58
148977,2018-06-29 10:02:27.531250,-22.38,82.35
148978,2018-06-29 10:02:27.562500,-35.81,82.35
148979,2018-06-29 10:02:27.593750,-47.37,82.35
148980,2018-06-29 10:02:27.625000,-58.44,82.35
148981,2018-06-29 10:02:27.656250,-72.12,82.35
148982,2018-06-29 10:02:27.687500,-87.1,82.35
148983,2018-06-29 10:02:27.718750,-97.85,82.35
148984,2018-06-29 10:02:27.750000,-100.98,82.35
148985,2018-06-29 10:02:27.781250,-101.53,82.35
148986,2018-06-29 10:02:27.812500,-104.75,82.35
148987,2018-06-29 10:02:27.843750,-101.2,82.35
148988,2018-06-29 10:02:27.875000,-76.99,82.35
148989,2018-06-29 10:02:27.906250,-35.04,82.35
148990,2018-06-29 10:02:27.937500,4.81,82.35
148991,2018-06-29 10:02:27.968750,33.52,82.35
148992,2018-06-29 10:02:28.000000,53.67,82.35
148993,2018-06-29 10:02:28.031250,63.71,82.35
148994,2018-06-29 10:02:28.062500,69.29,82.35
148995,2018-06-29 10:02:28.093750,97.2,82.35
148996,2018-06-29 10:02:28.125000,166.03,82.35
148997,2018-06-29 10:02:28.156250,255.6,82.35
148998,2018-06-29 10:02:28.187500,344.43,82.35
148999,2018-06-29 10:02:28.218750,408.79,82.35
149000,2018-06-29 10:02:28.250000,417.0,82.35
149001,2018-06-29 10:02:28.281250,347.07,82.35
149002,2018-06-29 10:02:28.312500,240.61,82.35
149003,2018-06-29 10:02:28.343750,164.68,82.35
149004,2018-06-29 10:02:28.375000,131.41,82.35
149005,2018-06-29 10:02:28.406250,120.42,82.35
149006,2018-06-29 10:02:28.437500,114.94,82.35
149007,2018-06-29 10:02:28.468750,141.75,82.35
149008,2018-06-29 10:02:28.500000,175.78,82.35
149009,2018-06-29 10:02:28.531250,185.16,82.18
149010,2018-06-29 10:02:28.562500,180.97,82.18
149011,2018-06-29 10:02:28.593750,227.13,82.18
149012,2018-06-29 10:02:28.625000,336.99,82.18
149013,2018-06-29 10:02:28.656250,435.25,82.18
149014,2018-06-29 10:02:28.687500,508.61,82.18
149015,2018-06-29 10:02:28.718750,394.31,82.18
149016,2018-06-29 10:02:28.750000,91.22,82.18
149017,2018-06-29 10:02:28.781250,-146.19,82.18
149018,2018-06-29 10:02:28.812500,-292.18,82.18
149019,2018-06-29 10:02:28.843750,-375.07,82.18
149020,2018-06-29 10:02:28.875000,-377.19,82.18
149021,2018-06-29 10:02:28.906250,-313.66,82.18
149022,2018-06-29 10:02:28.937500,-262.49,82.18
149023,2018-06-29 10:02:28.968750,-243.95,82.18
149024,2018-06-29 10:02:29.000000,-237.48,82.18
149025,2018-06-29 10:02:29.031250,-204.29,82.18
149026,2018-06-29 10:02:29.062500,-175.3,82.18
149027,2018-06-29 10:02:29.093750,-177.57,82.18
149028,2018-06-29 10:02:29.125000,-203.42,82.18
149029,2018-06-29 10:02:29.156250,-219.18,82.18
149030,2018-06-29 10:02:29.187500,-167.93,82.18
149031,2018-06-29 10:02:29.218750,-49.52,82.18
149032,2018-06-29 10:02:29.250000,80.82,82.18
149033,2018-06-29 10:02:29.281250,176.25,82.18
149034,2018-06-29 10:02:29.312500,249.07,82.18
149035,2018-06-29 10:02:29.343750,307.79,82.18
149036,2018-06-29 10:02:29.375000,296.1,82.18
149037,2018-06-29 10:02:29.406250,205.6,82.18
149038,2018-06-29 10:02:29.437500,98.29,82.18
149039,2018-06-29 10:02:29.468750,31.57,82.18
149040,2018-06-29 10:02:29.500000,-11.24,82.18
149041,2018-06-29 10:02:29.531250,-53.06,82.02
149042,2018-06-29 10:02:29.562500,-86.01,82.02
149043,2018-06-29 10:02:29.593750,-94.46,82.02
149044,2018-06-29 10:02:29.625000,-80.39,82.02
149045,2018-06-29 10:02:29.656250,-68.27,82.02
149046,2018-06-29 10:02:29.687500,-52.49,82.02
149047,2018-06-29 10:02:29.718750,-35.3,82.02
149048,2018-06-29 10:02:29.750000,-31.85,82.02
149049,2018-06-29 10:02:29.781250,-45.43,82.02
149050,2018-06-29 10:02:29.812500,-72.12,82.02
149051,2018-06-29 10:02:29.843750,-112.9,82.02
149052,2018-06-29 10:02:29.875000,-182.06,82.02
149053,2018-06-29 10:02:29.906250,-253.81,82.02
149054,2018-06-29 10:02:29.937500,-294.82,82.02
149055,2018-06-29 10:02:29.968750,-300.18,82.02
149056,2018-06-29 10:02:30.000000,-309.29,82.02
149057,2018-06-29 10:02:30.031250,-345.43,82.02
149058,2018-06-29 10:02:30.062500,-381.05,82.02
149059,2018-06-29 10:02:30.093750,-396.2,82.02
149060,2018-06-29 10:02:30.125000,-288.0,82.02
149061,2018-06-29 10:02:30.156250,-78.37,82.02
149062,2018-06-29 10:02:30.187500,64.13,82.02
149063,2018-06-29 10:02:30.218750,133.69,82.02
149064,2018-06-29 10:02:30.250000,178.32,82.02
149065,2018-06-29 10:02:30.281250,197.27,82.02
149066,2018-06-29 10:02:30.312500,189.96,82.02
149067,2018-06-29 10:02:30.343750,185.03,82.02
149068,2018-06-29 10:02:30.375000,196.1,82.02
149069,2018-06-29 10:02:30.406250,230.5,82.02
149070,2018-06-29 10:02:30.437500,271.05,82.02
149071,2018-06-29 10:02:30.468750,306.99,82.02
149072,2018-06-29 10:02:30.500000,317.82,82.02
149073,2018-06-29 10:02:30.531250,285.78,81.78
149074,2018-06-29 10:02:30.562500,208.81,81.78
149075,2018-06-29 10:02:30.593750,101.94,81.78
149076,2018-06-29 10:02:30.625000,-4.76,81.78
149077,2018-06-29 10:02:30.656250,-91.14,81.78
149078,2018-06-29 10:02:30.687500,-144.92,81.78
149079,2018-06-29 10:02:30.718750,-164.57,81.78
149080,2018-06-29 10:02:30.750000,-150.02,81.78
149081,2018-06-29 10:02:30.781250,-111.75,81.78
149082,2018-06-29 10:02:30.812500,-68.23,81.78
149083,2018-06-29 10:02:30.843750,-34.87,81.78
149084,2018-06-29 10:02:30.875000,-15.85,81.78
149085,2018-06-29 10:02:30.906250,-5.68,81.78
149086,2018-06-29 10:02:30.937500,-0.52,81.78
149087,2018-06-29 10:02:30.968750,1.32,81.78
149088,2018-06-29 10:02:31.000000,1.74,81.78
149089,2018-06-29 10:02:31.031250,1.03,81.78
149090,2018-06-29 10:02:31.062500,-4.34,81.78
149091,2018-06-29 10:02:31.093750,-17.02,81.78
149092,2018-06-29 10:02:31.125000,-33.7,81.78
149093,2018-06-29 10:02:31.156250,-41.05,81.78
149094,2018-06-29 10:02:31.187500,-20.13,81.78
149095,2018-06-29 10:02:31.218750,31.34,81.78
149096,2018-06-29 10:02:31.250000,86.7,81.78
149097,2018-06-29 10:02:31.281250,116.83,81.78
149098,2018-06-29 10:02:31.312500,118.67,81.78
149099,2018-06-29 10:02:31.343750,103.74,81.78
149100,2018-06-29 10:02:31.375000,78.17,81.78
149101,2018-06-29 10:02:31.406250,49.23,81.78
149102,2018-06-29 10:02:31.437500,29.63,81.78
149103,2018-06-29 10:02:31.468750,20.82,81.78
149104,2018-06-29 10:02:31.500000,9.11,81.78
149105,2018-06-29 10:02:31.531250,-14.07,81.5
149106,2018-06-29 10:02:31.562500,-41.39,81.5
149107,2018-06-29 10:02:31.593750,-63.54,81.5
149108,2018-06-29 10:02:31.625000,-82.33,81.5
149109,2018-06-29 10:02:31.656250,-104.36,81.5
149110,2018-06-29 10:02:31.687500,-128.9,81.5
149111,2018-06-29 10:02:31.718750,-148.71,81.5
149112,2018-06-29 10:02:31.750000,-160.99,81.5
149113,2018-06-29 10:02:31.781250,-172.0,81.5
149114,2018-06-29 10:02:31.812500,-189.35,81.5
149115,2018-06-29 10:02:31.843750,-212.05,81.5
149116,2018-06-29 10:02:31.875000,-225.94,81.5
149117,2018-06-29 10:02:31.906250,-210.75,81.5
149118,2018-06-29 10:02:31.937500,-160.55,81.5
149119,2018-06-29 10:02:31.968750,-93.41,81.5
149120,2018-06-29 10:02:32.000000,-32.59,81.5
149121,2018-06-29 10:02:32.031250,14.13,81.5
149122,2018-06-29 10:02:32.062500,49.6,81.5
149123,2018-06-29 10:02:32.093750,74.85,81.5
149124,2018-06-29 10:02:32.125000,91.57,81.5
149125,2018-06-29 10:02:32.156250,106.18,81.5
149126,2018-06-29 10:02:32.187500,122.29,81.5
149127,2018-06-29 10:02:32.218750,136.18,81.5
149128,2018-06-29 10:02:32.250000,145.33,81.5
149129,2018-06-29 10:02:32.281250,152.72,81.5
149130,2018-06-29 10:02:32.312500,157.12,81.5
149131,2018-06-29 10:02:32.343750,151.47,81.5
149132,2018-06-29 10:02:32.375000,135.17,81.5
149133,2018-06-29 10:02:32.406250,116.89,81.5
149134,2018-06-29 10:02:32.437500,104.67,81.5
149135,2018-06-29 10:02:32.468750,100.11,81.5
149136,2018-06-29 10:02:32.500000,99.61,81.5
149137,2018-06-29 10:02:32.531250,98.31,81.22
149138,2018-06-29 10:02:32.562500,97.69,81.22
149139,2018-06-29 10:02:32.593750,106.39,81.22
149140,2018-06-29 10:02:32.625000,124.62,81.22
149141,2018-06-29 10:02:32.656250,138.2,81.22
149142,2018-06-29 10:02:32.687500,138.76,81.22
149143,2018-06-29 10:02:32.718750,136.44,81.22
149144,2018-06-29 10:02:32.750000,141.91,81.22
149145,2018-06-29 10:02:32.781250,150.22,81.22
149146,2018-06-29 10:02:32.812500,150.33,81.22
149147,2018-06-29 10:02:32.843750,138.39,81.22
149148,2018-06-29 10:02:32.875000,115.93,81.22
149149,2018-06-29 10:02:32.906250,85.56,81.22
149150,2018-06-29 10:02:32.937500,50.93,81.22
149151,2018-06-29 10:02:32.968750,15.72,81.22
149152,2018-06-29 10:02:33.000000,-18.36,81.22
149153,2018-06-29 10:02:33.031250,-50.27,81.22
149154,2018-06-29 10:02:33.062500,-78.02,81.22
149155,2018-06-29 10:02:33.093750,-98.28,81.22
149156,2018-06-29 10:02:33.125000,-106.92,81.22
149157,2018-06-29 10:02:33.156250,-105.59,81.22
149158,2018-06-29 10:02:33.187500,-104.67,81.22
149159,2018-06-29 10:02:33.218750,-111.73,81.22
149160,2018-06-29 10:02:33.250000,-123.48,81.22
149161,2018-06-29 10:02:33.281250,-135.39,81.22
149162,2018-06-29 10:02:33.312500,-148.74,81.22
149163,2018-06-29 10:02:33.343750,-164.68,81.22
149164,2018-06-29 10:02:33.375000,-180.89,81.22
149165,2018-06-29 10:02:33.406250,-195.33,81.22
149166,2018-06-29 10:02:33.437500,-207.93,81.22
149167,2018-06-29 10:02:33.468750,-219.53,81.22
149168,2018-06-29 10:02:33.500000,-230.3,81.22
149169,2018-06-29 10:02:33.531250,-237.02,80.88
149170,2018-06-29 10:02:33.562500,-229.72,80.88
149171,2018-06-29 10:02:33.593750,-196.64,80.88
149172,2018-06-29 10:02:33.625000,-139.91,80.88
149173,2018-06-29 10:02:33.656250,-82.0,80.88
149174,2018-06-29 10:02:33.687500,-47.27,80.88
149175,2018-06-29 10:02:33.718750,-40.77,80.88
149176,2018-06-29 10:02:33.750000,-51.08,80.88
149177,2018-06-29 10:02:33.781250,-64.88,80.88
149178,2018-06-29 10:02:33.812500,-72.19,80.88
149179,2018-06-29 10:02:33.843750,-67.61,80.88
149180,2018-06-29 10:02:33.875000,-54.29,80.88
149181,2018-06-29 10:02:33.906250,-41.63,80.88
149182,2018-06-29 10:02:33.937500,-35.58,80.88
149183,2018-06-29 10:02:33.968750,-34.28,80.88
149184,2018-06-29 10:02:34.000000,-33.69,80.88
149185,2018-06-29 10:02:34.031250,-33.66,80.88
149186,2018-06-29 10:02:34.062500,-36.71,80.88
149187,2018-06-29 10:02:34.093750,-42.98,80.88
149188,2018-06-29 10:02:34.125000,-49.68,80.88
149189,2018-06-29 10:02:34.156250,-55.43,80.88
149190,2018-06-29 10:02:34.187500,-61.69,80.88
149191,2018-06-29 10:02:34.218750,-70.5,80.88
149192,2018-06-29 10:02:34.250000,-82.59,80.88
149193,2018-06-29 10:02:34.281250,-91.38,80.88
149194,2018-06-29 10:02:34.312500,-79.43,80.88
149195,2018-06-29 10:02:34.343750,-32.63,80.88
149196,2018-06-29 10:02:34.375000,41.75,80.88
149197,2018-06-29 10:02:34.406250,120.08,80.88
149198,2018-06-29 10:02:34.437500,181.55,80.88
149199,2018-06-29 10:02:34.468750,217.45,80.88
149200,2018-06-29 10:02:34.500000,229.41,80.88
149201,2018-06-29 10:02:34.531250,226.24,80.53
149202,2018-06-29 10:02:34.562500,218.14,80.53
149203,2018-06-29 10:02:34.593750,209.95,80.53
149204,2018-06-29 10:02:34.625000,200.2,80.53
149205,2018-06-29 10:02:34.656250,186.94,80.53
149206,2018-06-29 10:02:34.687500,172.01,80.53
149207,2018-06-29 10:02:34.718750,156.84,80.53
149208,2018-06-29 10:02:34.750000,138.88,80.53
149209,2018-06-29 10:02:34.781250,115.89,80.53
149210,2018-06-29 10:02:34.812500,89.94,80.53
149211,2018-06-29 10:02:34.843750,66.01,80.53
149212,2018-06-29 10:02:34.875000,48.03,80.53
149213,2018-06-29 10:02:34.906250,36.5,80.53
149214,2018-06-29 10:02:34.937500,31.52,80.53
149215,2018-06-29 10:02:34.968750,34.86,80.53
149216,2018-06-29 10:02:35.000000,41.96,80.53
149217,2018-06-29 10:02:35.031250,40.8,80.53
149218,2018-06-29 10:02:35.062500,30.84,80.53
149219,2018-06-29 10:02:35.093750,32.16,80.53
149220,2018-06-29 10:02:35.125000,62.52,80.53
149221,2018-06-29 10:02:35.156250,114.8,80.53
149222,2018-06-29 10:02:35.187500,166.16,80.53
149223,2018-06-29 10:02:35.218750,201.27,80.53
149224,2018-06-29 10:02:35.250000,219.35,80.53
149225,2018-06-29 10:02:35.281250,222.79,80.53
149226,2018-06-29 10:02:35.312500,209.61,80.53
149227,2018-06-29 10:02:35.343750,181.37,80.53
149228,2018-06-29 10:02:35.375000,147.55,80.53
149229,2018-06-29 10:02:35.406250,114.96,80.53
149230,2018-06-29 10:02:35.437500,81.0,80.53
149231,2018-06-29 10:02:35.468750,41.39,80.53
149232,2018-06-29 10:02:35.500000,-2.06,80.53
149233,2018-06-29 10:02:35.531250,-44.04,80.2
149234,2018-06-29 10:02:35.562500,-81.4,80.2
149235,2018-06-29 10:02:35.593750,-114.87,80.2
149236,2018-06-29 10:02:35.625000,-147.07,80.2
149237,2018-06-29 10:02:35.656250,-178.22,80.2
149238,2018-06-29 10:02:35.687500,-203.82,80.2
149239,2018-06-29 10:02:35.718750,-218.95,80.2
149240,2018-06-29 10:02:35.750000,-225.29,80.2
149241,2018-06-29 10:02:35.781250,-231.62,80.2
149242,2018-06-29 10:02:35.812500,-244.28,80.2
149243,2018-06-29 10:02:35.843750,-252.62,80.2
149244,2018-06-29 10:02:35.875000,-229.72,80.2
149245,2018-06-29 10:02:35.906250,-162.69,80.2
149246,2018-06-29 10:02:35.937500,-76.03,80.2
149247,2018-06-29 10:02:35.968750,-6.29,80.2
149248,2018-06-29 10:02:36.000000,35.01,80.2
149249,2018-06-29 10:02:36.031250,56.39,80.2
149250,2018-06-29 10:02:36.062500,63.5,80.2
149251,2018-06-29 10:02:36.093750,60.5,80.2
149252,2018-06-29 10:02:36.125000,57.1,80.2
149253,2018-06-29 10:02:36.156250,58.87,80.2
149254,2018-06-29 10:02:36.187500,61.44,80.2
149255,2018-06-29 10:02:36.218750,61.27,80.2
149256,2018-06-29 10:02:36.250000,63.5,80.2
149257,2018-06-29 10:02:36.281250,74.39,80.2
149258,2018-06-29 10:02:36.312500,93.25,80.2
149259,2018-06-29 10:02:36.343750,115.35,80.2
149260,2018-06-29 10:02:36.375000,136.53,80.2
149261,2018-06-29 10:02:36.406250,152.85,80.2
149262,2018-06-29 10:02:36.437500,158.17,80.2
149263,2018-06-29 10:02:36.468750,143.87,80.2
149264,2018-06-29 10:02:36.500000,102.73,80.2
149265,2018-06-29 10:02:36.531250,33.95,79.88
149266,2018-06-29 10:02:36.562500,-55.7,79.88
149267,2018-06-29 10:02:36.593750,-151.39,79.88
149268,2018-06-29 10:02:36.625000,-228.46,79.88
149269,2018-06-29 10:02:36.656250,-261.39,79.88
149270,2018-06-29 10:02:36.687500,-243.88,79.88
149271,2018-06-29 10:02:36.718750,-193.77,79.88
149272,2018-06-29 10:02:36.750000,-133.95,79.88
149273,2018-06-29 10:02:36.781250,-74.92,79.88
149274,2018-06-29 10:02:36.812500,-18.16,79.88
149275,2018-06-29 10:02:36.843750,34.31,79.88
149276,2018-06-29 10:02:36.875000,79.27,79.88
149277,2018-06-29 10:02:36.906250,115.35,79.88
149278,2018-06-29 10:02:36.937500,142.83,79.88
149279,2018-06-29 10:02:36.968750,161.83,79.88
149280,2018-06-29 10:02:37.000000,172.83,79.88
149281,2018-06-29 10:02:37.031250,176.98,79.88
149282,2018-06-29 10:02:37.062500,174.51,79.88
149283,2018-06-29 10:02:37.093750,163.97,79.88
149284,2018-06-29 10:02:37.125000,143.69,79.88
149285,2018-06-29 10:02:37.156250,112.88,79.88
149286,2018-06-29 10:02:37.187500,72.39,79.88
149287,2018-06-29 10:02:37.218750,26.58,79.88
149288,2018-06-29 10:02:37.250000,-18.79,79.88
149289,2018-06-29 10:02:37.281250,-61.27,79.88
149290,2018-06-29 10:02:37.312500,-101.62,79.88
149291,2018-06-29 10:02:37.343750,-139.77,79.88
149292,2018-06-29 10:02:37.375000,-171.39,79.88
149293,2018-06-29 10:02:37.406250,-184.7,79.88
149294,2018-06-29 10:02:37.437500,-166.99,79.88
149295,2018-06-29 10:02:37.468750,-121.67,79.88
149296,2018-06-29 10:02:37.500000,-71.49,79.88
149297,2018-06-29 10:02:37.531250,-38.16,79.57
149298,2018-06-29 10:02:37.562500,-26.39,79.57
149299,2018-06-29 10:02:37.593750,-29.84,79.57
149300,2018-06-29 10:02:37.625000,-42.33,79.57
149301,2018-06-29 10:02:37.656250,-58.03,79.57
149302,2018-06-29 10:02:37.687500,-67.97,79.57
149303,2018-06-29 10:02:37.718750,-65.38,79.57
149304,2018-06-29 10:02:37.750000,-53.2,79.57
149305,2018-06-29 10:02:37.781250,-39.6,79.57
149306,2018-06-29 10:02:37.812500,-29.98,79.57
149307,2018-06-29 10:02:37.843750,-28.84,79.57
149308,2018-06-29 10:02:37.875000,-40.55,79.57
149309,2018-06-29 10:02:37.906250,-61.98,79.57
149310,2018-06-29 10:02:37.937500,-84.64,79.57
149311,2018-06-29 10:02:37.968750,-107.74,79.57
149312,2018-06-29 10:02:38.000000,-137.93,79.57
149313,2018-06-29 10:02:38.031250,-174.48,79.57
149314,2018-06-29 10:02:38.062500,-206.57,79.57
149315,2018-06-29 10:02:38.093750,-225.3,79.57
149316,2018-06-29 10:02:38.125000,-230.28,79.57
149317,2018-06-29 10:02:38.156250,-227.44,79.57
149318,2018-06-29 10:02:38.187500,-222.68,79.57
149319,2018-06-29 10:02:38.218750,-209.1,79.57
149320,2018-06-29 10:02:38.250000,-166.3,79.57
149321,2018-06-29 10:02:38.281250,-85.99,79.57
149322,2018-06-29 10:02:38.312500,11.37,79.57
149323,2018-06-29 10:02:38.343750,98.3,79.57
149324,2018-06-29 10:02:38.375000,165.6,79.57
149325,2018-06-29 10:02:38.406250,218.86,79.57
149326,2018-06-29 10:02:38.437500,262.97,79.57
149327,2018-06-29 10:02:38.468750,297.22,79.57
149328,2018-06-29 10:02:38.500000,321.21,79.57
149329,2018-06-29 10:02:38.531250,336.13,79.28
149330,2018-06-29 10:02:38.562500,345.36,79.28
149331,2018-06-29 10:02:38.593750,349.98,79.28
149332,2018-06-29 10:02:38.625000,349.99,79.28
149333,2018-06-29 10:02:38.656250,348.66,79.28
149334,2018-06-29 10:02:38.687500,356.87,79.28
149335,2018-06-29 10:02:38.718750,385.45,79.28
149336,2018-06-29 10:02:38.750000,433.95,79.28
149337,2018-06-29 10:02:38.781250,490.98,79.28
149338,2018-06-29 10:02:38.812500,525.54,79.28
149339,2018-06-29 10:02:38.843750,507.46,79.28
149340,2018-06-29 10:02:38.875000,412.24,79.28
149341,2018-06-29 10:02:38.906250,238.59,79.28
149342,2018-06-29 10:02:38.937500,4.46,79.28
149343,2018-06-29 10:02:38.968750,-241.75,79.28
149344,2018-06-29 10:02:39.000000,-438.82,79.28
149345,2018-06-29 10:02:39.031250,-571.8,79.28
149346,2018-06-29 10:02:39.062500,-668.24,79.28
149347,2018-06-29 10:02:39.093750,-776.71,79.28
149348,2018-06-29 10:02:39.125000,-861.86,79.28
149349,2018-06-29 10:02:39.156250,-866.89,79.28
149350,2018-06-29 10:02:39.187500,-790.25,79.28
149351,2018-06-29 10:02:39.218750,-708.94,79.28
149352,2018-06-29 10:02:39.250000,-662.17,79.28
149353,2018-06-29 10:02:39.281250,-600.22,79.28
149354,2018-06-29 10:02:39.312500,-501.47,79.28
149355,2018-06-29 10:02:39.343750,-235.5,79.28
149356,2018-06-29 10:02:39.375000,111.74,79.28
149357,2018-06-29 10:02:39.406250,299.33,79.28
149358,2018-06-29 10:02:39.437500,362.13,79.28
149359,2018-06-29 10:02:39.468750,369.45,79.28
149360,2018-06-29 10:02:39.500000,324.22,79.28
149361,2018-06-29 10:02:39.531250,262.5,79.03
149362,2018-06-29 10:02:39.562500,245.81,79.03
149363,2018-06-29 10:02:39.593750,251.43,79.03
149364,2018-06-29 10:02:39.625000,235.56,79.03
149365,2018-06-29 10:02:39.656250,181.86,79.03
149366,2018-06-29 10:02:39.687500,141.1,79.03
149367,2018-06-29 10:02:39.718750,132.6,79.03
149368,2018-06-29 10:02:39.750000,127.78,79.03
149369,2018-06-29 10:02:39.781250,94.85,79.03
149370,2018-06-29 10:02:39.812500,39.99,79.03
149371,2018-06-29 10:02:39.843750,-1.36,79.03
149372,2018-06-29 10:02:39.875000,-18.94,79.03
149373,2018-06-29 10:02:39.906250,-18.1,79.03
149374,2018-06-29 10:02:39.937500,-9.64,79.03
149375,2018-06-29 10:02:39.968750,9.08,79.03
149376,2018-06-29 10:02:40.000000,36.81,79.03
149377,2018-06-29 10:02:40.031250,63.13,79.03
149378,2018-06-29 10:02:40.062500,78.52,79.03
149379,2018-06-29 10:02:40.093750,83.71,79.03
149380,2018-06-29 10:02:40.125000,84.92,79.03
149381,2018-06-29 10:02:40.156250,81.2,79.03
149382,2018-06-29 10:02:40.187500,71.12,79.03
149383,2018-06-29 10:02:40.218750,58.57,79.03
149384,2018-06-29 10:02:40.250000,49.14,79.03
149385,2018-06-29 10:02:40.281250,43.88,79.03
149386,2018-06-29 10:02:40.312500,38.41,79.03
149387,2018-06-29 10:02:40.343750,28.8,79.03
149388,2018-06-29 10:02:40.375000,14.95,79.03
149389,2018-06-29 10:02:40.406250,-1.98,79.03
149390,2018-06-29 10:02:40.437500,-22.15,79.03
149391,2018-06-29 10:02:40.468750,-43.48,79.03
149392,2018-06-29 10:02:40.500000,-61.09,79.03
149393,2018-06-29 10:02:40.531250,-73.44,78.75
149394,2018-06-29 10:02:40.562500,-84.32,78.75
149395,2018-06-29 10:02:40.593750,-96.81,78.75
149396,2018-06-29 10:02:40.625000,-108.91,78.75
149397,2018-06-29 10:02:40.656250,-115.97,78.75
149398,2018-06-29 10:02:40.687500,-115.66,78.75
149399,2018-06-29 10:02:40.718750,-111.67,78.75
149400,2018-06-29 10:02:40.750000,-112.18,78.75
149401,2018-06-29 10:02:40.781250,-119.6,78.75
149402,2018-06-29 10:02:40.812500,-121.38,78.75
149403,2018-06-29 10:02:40.843750,-98.32,78.75
149404,2018-06-29 10:02:40.875000,-46.83,78.75
149405,2018-06-29 10:02:40.906250,14.44,78.75
149406,2018-06-29 10:02:40.937500,65.49,78.75
149407,2018-06-29 10:02:40.968750,101.78,78.75
149408,2018-06-29 10:02:41.000000,125.66,78.75
149409,2018-06-29 10:02:41.031250,136.08,78.75
149410,2018-06-29 10:02:41.062500,134.06,78.75
149411,2018-06-29 10:02:41.093750,126.44,78.75
149412,2018-06-29 10:02:41.125000,119.3,78.75
149413,2018-06-29 10:02:41.156250,113.71,78.75
149414,2018-06-29 10:02:41.187500,108.41,78.75
149415,2018-06-29 10:02:41.218750,102.3,78.75
149416,2018-06-29 10:02:41.250000,94.31,78.75
149417,2018-06-29 10:02:41.281250,83.0,78.75
149418,2018-06-29 10:02:41.312500,69.22,78.75
149419,2018-06-29 10:02:41.343750,57.89,78.75
149420,2018-06-29 10:02:41.375000,52.04,78.75
149421,2018-06-29 10:02:41.406250,46.19,78.75
149422,2018-06-29 10:02:41.437500,33.85,78.75
149423,2018-06-29 10:02:41.468750,18.68,78.75
149424,2018-06-29 10:02:41.500000,9.34,78.75
149425,2018-06-29 10:02:41.531250,6.79,78.45
149426,2018-06-29 10:02:41.562500,5.18,78.45
149427,2018-06-29 10:02:41.593750,-0.29,78.45
149428,2018-06-29 10:02:41.625000,-9.88,78.45
149429,2018-06-29 10:02:41.656250,-16.88,78.45
149430,2018-06-29 10:02:41.687500,-11.08,78.45
149431,2018-06-29 10:02:41.718750,6.8,78.45
149432,2018-06-29 10:02:41.750000,22.58,78.45
149433,2018-06-29 10:02:41.781250,26.62,78.45
149434,2018-06-29 10:02:41.812500,22.44,78.45
149435,2018-06-29 10:02:41.843750,15.21,78.45
149436,2018-06-29 10:02:41.875000,5.58,78.45
149437,2018-06-29 10:02:41.906250,-4.23,78.45
149438,2018-06-29 10:02:41.937500,-9.87,78.45
149439,2018-06-29 10:02:41.968750,-10.58,78.45
149440,2018-06-29 10:02:42.000000,-8.78,78.45
149441,2018-06-29 10:02:42.031250,-5.24,78.45
149442,2018-06-29 10:02:42.062500,-0.3,78.45
149443,2018-06-29 10:02:42.093750,2.01,78.45
149444,2018-06-29 10:02:42.125000,-2.17,78.45
149445,2018-06-29 10:02:42.156250,-9.96,78.45
149446,2018-06-29 10:02:42.187500,-15.38,78.45
149447,2018-06-29 10:02:42.218750,-18.11,78.45
149448,2018-06-29 10:02:42.250000,-23.27,78.45
149449,2018-06-29 10:02:42.281250,-34.78,78.45
149450,2018-06-29 10:02:42.312500,-52.84,78.45
149451,2018-06-29 10:02:42.343750,-75.06,78.45
149452,2018-06-29 10:02:42.375000,-98.71,78.45
149453,2018-06-29 10:02:42.406250,-123.67,78.45
149454,2018-06-29 10:02:42.437500,-149.96,78.45
149455,2018-06-29 10:02:42.468750,-168.66,78.45
149456,2018-06-29 10:02:42.500000,-163.95,78.45
149457,2018-06-29 10:02:42.531250,-131.99,78.13
149458,2018-06-29 10:02:42.562500,-89.06,78.13
149459,2018-06-29 10:02:42.593750,-53.16,78.13
149460,2018-06-29 10:02:42.625000,-27.59,78.13
149461,2018-06-29 10:02:42.656250,-7.93,78.13
149462,2018-06-29 10:02:42.687500,7.33,78.13
149463,2018-06-29 10:02:42.718750,19.02,78.13
149464,2018-06-29 10:02:42.750000,29.66,78.13
149465,2018-06-29 10:02:42.781250,38.9,78.13
149466,2018-06-29 10:02:42.812500,43.44,78.13
149467,2018-06-29 10:02:42.843750,43.21,78.13
149468,2018-06-29 10:02:42.875000,41.93,78.13
149469,2018-06-29 10:02:42.906250,40.73,78.13
149470,2018-06-29 10:02:42.937500,36.09,78.13
149471,2018-06-29 10:02:42.968750,25.99,78.13
149472,2018-06-29 10:02:43.000000,14.22,78.13
149473,2018-06-29 10:02:43.031250,5.15,78.13
149474,2018-06-29 10:02:43.062500,-2.77,78.13
149475,2018-06-29 10:02:43.093750,-13.65,78.13
149476,2018-06-29 10:02:43.125000,-26.93,78.13
149477,2018-06-29 10:02:43.156250,-38.71,78.13
149478,2018-06-29 10:02:43.187500,-48.73,78.13
149479,2018-06-29 10:02:43.218750,-61.61,78.13
149480,2018-06-29 10:02:43.250000,-80.35,78.13
149481,2018-06-29 10:02:43.281250,-98.17,78.13
149482,2018-06-29 10:02:43.312500,-99.25,78.13
149483,2018-06-29 10:02:43.343750,-73.38,78.13
149484,2018-06-29 10:02:43.375000,-28.28,78.13
149485,2018-06-29 10:02:43.406250,18.03,78.13
149486,2018-06-29 10:02:43.437500,54.0,78.13
149487,2018-06-29 10:02:43.468750,78.4,78.13
149488,2018-06-29 10:02:43.500000,93.4,78.13
149489,2018-06-29 10:02:43.531250,100.99,77.83
149490,2018-06-29 10:02:43.562500,103.33,77.83
149491,2018-06-29 10:02:43.593750,102.29,77.83
149492,2018-06-29 10:02:43.625000,99.41,77.83
149493,2018-06-29 10:02:43.656250,96.13,77.83
149494,2018-06-29 10:02:43.687500,92.9,77.83
149495,2018-06-29 10:02:43.718750,88.52,77.83
149496,2018-06-29 10:02:43.750000,81.25,77.83
149497,2018-06-29 10:02:43.781250,70.73,77.83
149498,2018-06-29 10:02:43.812500,59.0,77.83
149499,2018-06-29 10:02:43.843750,48.67,77.83
149500,2018-06-29 10:02:43.875000,39.56,77.83
149501,2018-06-29 10:02:43.906250,29.34,77.83
149502,2018-06-29 10:02:43.937500,17.88,77.83
149503,2018-06-29 10:02:43.968750,7.53,77.83
149504,2018-06-29 10:02:44.000000,-1.93,77.83
149505,2018-06-29 10:02:44.031250,-15.17,77.83
149506,2018-06-29 10:02:44.062500,-35.57,77.83
149507,2018-06-29 10:02:44.093750,-56.52,77.83
149508,2018-06-29 10:02:44.125000,-61.63,77.83
149509,2018-06-29 10:02:44.156250,-40.37,77.83
149510,2018-06-29 10:02:44.187500,-1.9,77.83
149511,2018-06-29 10:02:44.218750,35.21,77.83
149512,2018-06-29 10:02:44.250000,62.62,77.83
149513,2018-06-29 10:02:44.281250,82.37,77.83
149514,2018-06-29 10:02:44.312500,94.49,77.83
149515,2018-06-29 10:02:44.343750,97.58,77.83
149516,2018-06-29 10:02:44.375000,96.81,77.83
149517,2018-06-29 10:02:44.406250,98.97,77.83
149518,2018-06-29 10:02:44.437500,103.33,77.83
149519,2018-06-29 10:02:44.468750,106.06,77.83
149520,2018-06-29 10:02:44.500000,108.67,77.83
149521,2018-06-29 10:02:44.531250,113.32,77.55
149522,2018-06-29 10:02:44.562500,114.64,77.55
149523,2018-06-29 10:02:44.593750,104.96,77.55
149524,2018-06-29 10:02:44.625000,85.49,77.55
149525,2018-06-29 10:02:44.656250,66.61,77.55
149526,2018-06-29 10:02:44.687500,55.2,77.55
149527,2018-06-29 10:02:44.718750,46.2,77.55
149528,2018-06-29 10:02:44.750000,31.43,77.55
149529,2018-06-29 10:02:44.781250,11.86,77.55
149530,2018-06-29 10:02:44.812500,-6.03,77.55
149531,2018-06-29 10:02:44.843750,-21.31,77.55
149532,2018-06-29 10:02:44.875000,-40.42,77.55
149533,2018-06-29 10:02:44.906250,-71.21,77.55
149534,2018-06-29 10:02:44.937500,-112.43,77.55
149535,2018-06-29 10:02:44.968750,-146.98,77.55
149536,2018-06-29 10:02:45.000000,-155.9,77.55
149537,2018-06-29 10:02:45.031250,-140.85,77.55
149538,2018-06-29 10:02:45.062500,-120.36,77.55
149539,2018-06-29 10:02:45.093750,-106.31,77.55
149540,2018-06-29 10:02:45.125000,-98.46,77.55
149541,2018-06-29 10:02:45.156250,-97.16,77.55
149542,2018-06-29 10:02:45.187500,-105.52,77.55
149543,2018-06-29 10:02:45.218750,-119.02,77.55
149544,2018-06-29 10:02:45.250000,-125.6,77.55
149545,2018-06-29 10:02:45.281250,-119.03,77.55
149546,2018-06-29 10:02:45.312500,-103.46,77.55
149547,2018-06-29 10:02:45.343750,-84.0,77.55
149548,2018-06-29 10:02:45.375000,-63.26,77.55
149549,2018-06-29 10:02:45.406250,-46.58,77.55
149550,2018-06-29 10:02:45.437500,-38.36,77.55
149551,2018-06-29 10:02:45.468750,-34.32,77.55
149552,2018-06-29 10:02:45.500000,-27.79,77.55
149553,2018-06-29 10:02:45.531250,-20.89,77.22
149554,2018-06-29 10:02:45.562500,-20.4,77.22
149555,2018-06-29 10:02:45.593750,-26.92,77.22
149556,2018-06-29 10:02:45.625000,-35.66,77.22
149557,2018-06-29 10:02:45.656250,-44.76,77.22
149558,2018-06-29 10:02:45.687500,-56.29,77.22
149559,2018-06-29 10:02:45.718750,-70.53,77.22
149560,2018-06-29 10:02:45.750000,-81.47,77.22
149561,2018-06-29 10:02:45.781250,-77.14,77.22
149562,2018-06-29 10:02:45.812500,-49.43,77.22
149563,2018-06-29 10:02:45.843750,-3.8,77.22
149564,2018-06-29 10:02:45.875000,44.88,77.22
149565,2018-06-29 10:02:45.906250,87.37,77.22
149566,2018-06-29 10:02:45.937500,122.49,77.22
149567,2018-06-29 10:02:45.968750,148.53,77.22
149568,2018-06-29 10:02:46.000000,162.02,77.22
149569,2018-06-29 10:02:46.031250,164.05,77.22
149570,2018-06-29 10:02:46.062500,159.86,77.22
149571,2018-06-29 10:02:46.093750,148.45,77.22
149572,2018-06-29 10:02:46.125000,127.43,77.22
149573,2018-06-29 10:02:46.156250,99.17,77.22
149574,2018-06-29 10:02:46.187500,73.06,77.22
149575,2018-06-29 10:02:46.218750,52.06,77.22
149576,2018-06-29 10:02:46.250000,28.37,77.22
149577,2018-06-29 10:02:46.281250,-2.94,77.22
149578,2018-06-29 10:02:46.312500,-33.47,77.22
149579,2018-06-29 10:02:46.343750,-48.46,77.22
149580,2018-06-29 10:02:46.375000,-60.68,77.22
149581,2018-06-29 10:02:46.406250,-86.76,77.22
149582,2018-06-29 10:02:46.437500,-115.3,77.22
149583,2018-06-29 10:02:46.468750,-109.85,77.22
149584,2018-06-29 10:02:46.500000,-54.16,77.22
149585,2018-06-29 10:02:46.531250,41.75,76.92
149586,2018-06-29 10:02:46.562500,160.06,76.92
149587,2018-06-29 10:02:46.593750,213.91,76.92
149588,2018-06-29 10:02:46.625000,179.1,76.92
149589,2018-06-29 10:02:46.656250,113.54,76.92
149590,2018-06-29 10:02:46.687500,43.5,76.92
149591,2018-06-29 10:02:46.718750,-17.62,76.92
149592,2018-06-29 10:02:46.750000,-44.7,76.92
149593,2018-06-29 10:02:46.781250,-28.38,76.92
149594,2018-06-29 10:02:46.812500,0.25,76.92
149595,2018-06-29 10:02:46.843750,5.34,76.92
149596,2018-06-29 10:02:46.875000,-15.32,76.92
149597,2018-06-29 10:02:46.906250,-20.97,76.92
149598,2018-06-29 10:02:46.937500,6.88,76.92
149599,2018-06-29 10:02:46.968750,55.21,76.92
149600,2018-06-29 10:02:47.000000,98.07,76.92
149601,2018-06-29 10:02:47.031250,112.35,76.92
149602,2018-06-29 10:02:47.062500,81.01,76.92
149603,2018-06-29 10:02:47.093750,14.51,76.92
149604,2018-06-29 10:02:47.125000,-29.35,76.92
149605,2018-06-29 10:02:47.156250,-8.02,76.92
149606,2018-06-29 10:02:47.187500,66.37,76.92
149607,2018-06-29 10:02:47.218750,137.16,76.92
149608,2018-06-29 10:02:47.250000,167.76,76.92
149609,2018-06-29 10:02:47.281250,155.55,76.92
149610,2018-06-29 10:02:47.312500,111.95,76.92
149611,2018-06-29 10:02:47.343750,98.33,76.92
149612,2018-06-29 10:02:47.375000,98.84,76.92
149613,2018-06-29 10:02:47.406250,46.59,76.92
149614,2018-06-29 10:02:47.437500,-45.57,76.92
149615,2018-06-29 10:02:47.468750,-131.27,76.92
149616,2018-06-29 10:02:47.500000,-207.46,76.92
149617,2018-06-29 10:02:47.531250,-273.78,76.58
149618,2018-06-29 10:02:47.562500,-315.79,76.58
149619,2018-06-29 10:02:47.593750,-329.6,76.58
149620,2018-06-29 10:02:47.625000,-333.11,76.58
149621,2018-06-29 10:02:47.656250,-353.58,76.58
149622,2018-06-29 10:02:47.687500,-400.18,76.58
149623,2018-06-29 10:02:47.718750,-467.46,76.58
149624,2018-06-29 10:02:47.750000,-516.46,76.58
149625,2018-06-29 10:02:47.781250,-497.07,76.58
149626,2018-06-29 10:02:47.812500,-401.91,76.58
149627,2018-06-29 10:02:47.843750,-278.63,76.58
149628,2018-06-29 10:02:47.875000,-176.77,76.58
149629,2018-06-29 10:02:47.906250,-108.07,76.58
149630,2018-06-29 10:02:47.937500,-72.29,76.58
149631,2018-06-29 10:02:47.968750,-56.8,76.58
149632,2018-06-29 10:02:48.000000,-43.25,76.58
149633,2018-06-29 10:02:48.031250,-16.48,76.58
149634,2018-06-29 10:02:48.062500,17.78,76.58
149635,2018-06-29 10:02:48.093750,56.34,76.58
149636,2018-06-29 10:02:48.125000,109.58,76.58
149637,2018-06-29 10:02:48.156250,176.6,76.58
149638,2018-06-29 10:02:48.187500,239.36,76.58
149639,2018-06-29 10:02:48.218750,264.51,76.58
149640,2018-06-29 10:02:48.250000,259.27,76.58
149641,2018-06-29 10:02:48.281250,250.26,76.58
149642,2018-06-29 10:02:48.312500,272.57,76.58
149643,2018-06-29 10:02:48.343750,317.96,76.58
149644,2018-06-29 10:02:48.375000,296.26,76.58
149645,2018-06-29 10:02:48.406250,244.33,76.58
149646,2018-06-29 10:02:48.437500,281.86,76.58
149647,2018-06-29 10:02:48.468750,407.91,76.58
149648,2018-06-29 10:02:48.500000,538.43,76.58
149649,2018-06-29 10:02:48.531250,627.14,76.22
149650,2018-06-29 10:02:48.562500,525.47,76.22
149651,2018-06-29 10:02:48.593750,219.99,76.22
149652,2018-06-29 10:02:48.625000,-72.42,76.22
149653,2018-06-29 10:02:48.656250,-251.69,76.22
149654,2018-06-29 10:02:48.687500,-336.13,76.22
149655,2018-06-29 10:02:48.718750,-361.35,76.22
149656,2018-06-29 10:02:48.750000,-347.64,76.22
149657,2018-06-29 10:02:48.781250,-336.29,76.22
149658,2018-06-29 10:02:48.812500,-323.91,76.22
149659,2018-06-29 10:02:48.843750,-292.76,76.22
149660,2018-06-29 10:02:48.875000,-228.42,76.22
149661,2018-06-29 10:02:48.906250,-156.18,76.22
149662,2018-06-29 10:02:48.937500,-102.33,76.22
149663,2018-06-29 10:02:48.968750,-69.26,76.22
149664,2018-06-29 10:02:49.000000,-44.62,76.22
149665,2018-06-29 10:02:49.031250,-23.57,76.22
149666,2018-06-29 10:02:49.062500,-17.1,76.22
149667,2018-06-29 10:02:49.093750,-16.8,76.22
149668,2018-06-29 10:02:49.125000,-2.38,76.22
149669,2018-06-29 10:02:49.156250,36.67,76.22
149670,2018-06-29 10:02:49.187500,78.58,76.22
149671,2018-06-29 10:02:49.218750,99.53,76.22
149672,2018-06-29 10:02:49.250000,97.92,76.22
149673,2018-06-29 10:02:49.281250,86.52,76.22
149674,2018-06-29 10:02:49.312500,75.3,76.22
149675,2018-06-29 10:02:49.343750,67.19,76.22
149676,2018-06-29 10:02:49.375000,62.81,76.22
149677,2018-06-29 10:02:49.406250,58.98,76.22
149678,2018-06-29 10:02:49.437500,52.4,76.22
149679,2018-06-29 10:02:49.468750,44.91,76.22
149680,2018-06-29 10:02:49.500000,42.98,76.22
149681,2018-06-29 10:02:49.531250,50.65,76.02
149682,2018-06-29 10:02:49.562500,64.85,76.02
149683,2018-06-29 10:02:49.593750,79.75,76.02
149684,2018-06-29 10:02:49.625000,92.6,76.02
149685,2018-06-29 10:02:49.656250,101.27,76.02
149686,2018-06-29 10:02:49.687500,100.61,76.02
149687,2018-06-29 10:02:49.718750,87.04,76.02
149688,2018-06-29 10:02:49.750000,63.1,76.02
149689,2018-06-29 10:02:49.781250,35.35,76.02
149690,2018-06-29 10:02:49.812500,9.22,76.02
149691,2018-06-29 10:02:49.843750,-14.89,76.02
149692,2018-06-29 10:02:49.875000,-41.77,76.02
149693,2018-06-29 10:02:49.906250,-74.22,76.02
149694,2018-06-29 10:02:49.937500,-105.71,76.02
149695,2018-06-29 10:02:49.968750,-124.47,76.02
149696,2018-06-29 10:02:50.000000,-124.55,76.02
149697,2018-06-29 10:02:50.031250,-108.18,76.02
149698,2018-06-29 10:02:50.062500,-79.98,76.02
149699,2018-06-29 10:02:50.093750,-44.34,76.02
149700,2018-06-29 10:02:50.125000,-6.83,76.02
149701,2018-06-29 10:02:50.156250,27.11,76.02
149702,2018-06-29 10:02:50.187500,55.33,76.02
149703,2018-06-29 10:02:50.218750,78.48,76.02
149704,2018-06-29 10:02:50.250000,96.32,76.02
149705,2018-06-29 10:02:50.281250,107.38,76.02
149706,2018-06-29 10:02:50.312500,111.91,76.02
149707,2018-06-29 10:02:50.343750,112.16,76.02
149708,2018-06-29 10:02:50.375000,108.51,76.02
149709,2018-06-29 10:02:50.406250,98.42,76.02
149710,2018-06-29 10:02:50.437500,80.32,76.02
149711,2018-06-29 10:02:50.468750,56.12,76.02
149712,2018-06-29 10:02:50.500000,29.63,76.02
149713,2018-06-29 10:02:50.531250,4.16,75.8
149714,2018-06-29 10:02:50.562500,-17.75,75.8
149715,2018-06-29 10:02:50.593750,-34.74,75.8
149716,2018-06-29 10:02:50.625000,-47.37,75.8
149717,2018-06-29 10:02:50.656250,-57.79,75.8
149718,2018-06-29 10:02:50.687500,-68.34,75.8
149719,2018-06-29 10:02:50.718750,-77.18,75.8
149720,2018-06-29 10:02:50.750000,-75.33,75.8
149721,2018-06-29 10:02:50.781250,-54.44,75.8
149722,2018-06-29 10:02:50.812500,-16.64,75.8
149723,2018-06-29 10:02:50.843750,26.8,75.8
149724,2018-06-29 10:02:50.875000,64.54,75.8
149725,2018-06-29 10:02:50.906250,90.04,75.8
149726,2018-06-29 10:02:50.937500,102.83,75.8
149727,2018-06-29 10:02:50.968750,105.95,75.8
149728,2018-06-29 10:02:51.000000,99.97,75.8
149729,2018-06-29 10:02:51.031250,82.21,75.8
149730,2018-06-29 10:02:51.062500,51.54,75.8
149731,2018-06-29 10:02:51.093750,8.95,75.8
149732,2018-06-29 10:02:51.125000,-45.61,75.8
149733,2018-06-29 10:02:51.156250,-107.29,75.8
149734,2018-06-29 10:02:51.187500,-156.09,75.8
149735,2018-06-29 10:02:51.218750,-165.22,75.8
149736,2018-06-29 10:02:51.250000,-124.48,75.8
149737,2018-06-29 10:02:51.281250,-49.33,75.8
149738,2018-06-29 10:02:51.312500,32.54,75.8
149739,2018-06-29 10:02:51.343750,95.69,75.8
149740,2018-06-29 10:02:51.375000,122.61,75.8
149741,2018-06-29 10:02:51.406250,108.88,75.8
149742,2018-06-29 10:02:51.437500,65.6,75.8
149743,2018-06-29 10:02:51.468750,11.39,75.8
149744,2018-06-29 10:02:51.500000,-38.69,75.8
149745,2018-06-29 10:02:51.531250,-73.27,75.65
149746,2018-06-29 10:02:51.562500,-81.99,75.65
149747,2018-06-29 10:02:51.593750,-66.19,75.65
149748,2018-06-29 10:02:51.625000,-45.51,75.65
149749,2018-06-29 10:02:51.656250,-40.51,75.65
149750,2018-06-29 10:02:51.687500,-52.91,75.65
149751,2018-06-29 10:02:51.718750,-69.61,75.65
149752,2018-06-29 10:02:51.750000,-78.09,75.65
149753,2018-06-29 10:02:51.781250,-71.74,75.65
149754,2018-06-29 10:02:51.812500,-47.49,75.65
149755,2018-06-29 10:02:51.843750,-6.32,75.65
149756,2018-06-29 10:02:51.875000,43.53,75.65
149757,2018-06-29 10:02:51.906250,84.53,75.65
149758,2018-06-29 10:02:51.937500,97.28,75.65
149759,2018-06-29 10:02:51.968750,74.43,75.65
149760,2018-06-29 10:02:52.000000,25.74,75.65
149761,2018-06-29 10:02:52.031250,-28.85,75.65
149762,2018-06-29 10:02:52.062500,-71.94,75.65
149763,2018-06-29 10:02:52.093750,-96.23,75.65
149764,2018-06-29 10:02:52.125000,-105.54,75.65
149765,2018-06-29 10:02:52.156250,-106.29,75.65
149766,2018-06-29 10:02:52.187500,-101.61,75.65
149767,2018-06-29 10:02:52.218750,-92.6,75.65
149768,2018-06-29 10:02:52.250000,-78.49,75.65
149769,2018-06-29 10:02:52.281250,-57.14,75.65
149770,2018-06-29 10:02:52.312500,-24.81,75.65
149771,2018-06-29 10:02:52.343750,13.91,75.65
149772,2018-06-29 10:02:52.375000,51.3,75.65
149773,2018-06-29 10:02:52.406250,78.62,75.65
149774,2018-06-29 10:02:52.437500,89.58,75.65
149775,2018-06-29 10:02:52.468750,81.16,75.65
149776,2018-06-29 10:02:52.500000,57.14,75.65
149777,2018-06-29 10:02:52.531250,31.0,75.57
149778,2018-06-29 10:02:52.562500,6.75,75.57
149779,2018-06-29 10:02:52.593750,-20.74,75.57
149780,2018-06-29 10:02:52.625000,-62.64,75.57
149781,2018-06-29 10:02:52.656250,-112.13,75.57
149782,2018-06-29 10:02:52.687500,-154.89,75.57
149783,2018-06-29 10:02:52.718750,-178.71,75.57
