,Time,ppg,hr
150400,2018-06-29 10:03:12.000000,-53.55,74.47
150401,2018-06-29 10:03:12.031250,-49.8,74.47
150402,2018-06-29 10:03:12.062500,-47.77,74.47
150403,2018-06-29 10:03:12.093750,-44.19,74.47
150404,2018-06-29 10:03:12.125000,-35.29,74.47
150405,2018-06-29 10:03:12.156250,-18.63,74.47
150406,2018-06-29 10:03:12.187500,4.47,74.47
150407,2018-06-29 10:03:12.218750,28.47,74.47
150408,2018-06-29 10:03:12.250000,47.85,74.47
150409,2018-06-29 10:03:12.281250,60.69,74.47
150410,2018-06-29 10:03:12.312500,66.46,74.47
150411,2018-06-29 10:03:12.343750,65.85,74.47
150412,2018-06-29 10:03:12.375000,61.97,74.47
150413,2018-06-29 10:03:12.406250,58.11,74.47
150414,2018-06-29 10:03:12.437500,54.58,74.47
150415,2018-06-29 10:03:12.468750,50.8,74.47
150416,2018-06-29 10:03:12.500000,48.34,74.47
150417,2018-06-29 10:03:12.531250,49.81,74.3
150418,2018-06-29 10:03:12.562500,55.82,74.3
150419,2018-06-29 10:03:12.593750,62.6,74.3
150420,2018-06-29 10:03:12.625000,68.22,74.3
150421,2018-06-29 10:03:12.656250,75.34,74.3
150422,2018-06-29 10:03:12.687500,87.29,74.3
150423,2018-06-29 10:03:12.718750,100.01,74.3
150424,2018-06-29 10:03:12.750000,106.36,74.3
150425,2018-06-29 10:03:12.781250,107.8,74.3
150426,2018-06-29 10:03:12.812500,111.41,74.3
150427,2018-06-29 10:03:12.843750,119.62,74.3
150428,2018-06-29 10:03:12.875000,122.05,74.3
150429,2018-06-29 10:03:12.906250,112.18,74.3
150430,2018-06-29 10:03:12.937500,93.92,74.3
150431,2018-06-29 10:03:12.968750,77.62,74.3
150432,2018-06-29 10:03:13.000000,63.42,74.3
150433,2018-06-29 10:03:13.031250,36.42,74.3
150434,2018-06-29 10:03:13.062500,-17.94,74.3
150435,2018-06-29 10:03:13.093750,-106.06,74.3
150436,2018-06-29 10:03:13.125000,-175.64,74.3
150437,2018-06-29 10:03:13.156250,-179.39,74.3
150438,2018-06-29 10:03:13.187500,-144.35,74.3
150439,2018-06-29 10:03:13.218750,-105.37,74.3
150440,2018-06-29 10:03:13.250000,-68.04,74.3
150441,2018-06-29 10:03:13.281250,-32.57,74.3
150442,2018-06-29 10:03:13.312500,-4.74,74.3
150443,2018-06-29 10:03:13.343750,19.82,74.3
150444,2018-06-29 10:03:13.375000,48.81,74.3
150445,2018-06-29 10:03:13.406250,83.25,74.3
150446,2018-06-29 10:03:13.437500,114.28,74.3
150447,2018-06-29 10:03:13.468750,137.54,74.3
150448,2018-06-29 10:03:13.500000,142.77,74.3
150449,2018-06-29 10:03:13.531250,118.11,74.18
150450,2018-06-29 10:03:13.562500,69.47,74.18
150451,2018-06-29 10:03:13.593750,15.78,74.18
150452,2018-06-29 10:03:13.625000,-29.23,74.18
150453,2018-06-29 10:03:13.656250,-68.61,74.18
150454,2018-06-29 10:03:13.687500,-110.18,74.18
150455,2018-06-29 10:03:13.718750,-154.77,74.18
150456,2018-06-29 10:03:13.750000,-186.81,74.18
150457,2018-06-29 10:03:13.781250,-196.24,74.18
150458,2018-06-29 10:03:13.812500,-184.57,74.18
150459,2018-06-29 10:03:13.843750,-169.38,74.18
150460,2018-06-29 10:03:13.875000,-177.72,74.18
150461,2018-06-29 10:03:13.906250,-220.6,74.18
150462,2018-06-29 10:03:13.937500,-285.65,74.18
150463,2018-06-29 10:03:13.968750,-283.57,74.18
150464,2018-06-29 10:03:14.000000,-169.29,74.18
150465,2018-06-29 10:03:14.031250,-42.46,74.18
150466,2018-06-29 10:03:14.062500,54.75,74.18
150467,2018-06-29 10:03:14.093750,131.99,74.18
150468,2018-06-29 10:03:14.125000,181.79,74.18
150469,2018-06-29 10:03:14.156250,212.88,74.18
150470,2018-06-29 10:03:14.187500,248.6,74.18
150471,2018-06-29 10:03:14.218750,285.77,74.18
150472,2018-06-29 10:03:14.250000,288.49,74.18
150473,2018-06-29 10:03:14.281250,219.04,74.18
150474,2018-06-29 10:03:14.312500,125.81,74.18
150475,2018-06-29 10:03:14.343750,43.7,74.18
150476,2018-06-29 10:03:14.375000,-19.21,74.18
150477,2018-06-29 10:03:14.406250,-55.08,74.18
150478,2018-06-29 10:03:14.437500,-66.42,74.18
150479,2018-06-29 10:03:14.468750,-74.69,74.18
150480,2018-06-29 10:03:14.500000,-90.57,74.18
150481,2018-06-29 10:03:14.531250,-107.85,74.07
150482,2018-06-29 10:03:14.562500,-118.24,74.07
150483,2018-06-29 10:03:14.593750,-116.43,74.07
150484,2018-06-29 10:03:14.625000,-104.37,74.07
150485,2018-06-29 10:03:14.656250,-87.87,74.07
150486,2018-06-29 10:03:14.687500,-75.12,74.07
150487,2018-06-29 10:03:14.718750,-67.04,74.07
150488,2018-06-29 10:03:14.750000,-59.98,74.07
150489,2018-06-29 10:03:14.781250,-49.67,74.07
150490,2018-06-29 10:03:14.812500,-39.12,74.07
150491,2018-06-29 10:03:14.843750,-32.42,74.07
150492,2018-06-29 10:03:14.875000,-28.34,74.07
150493,2018-06-29 10:03:14.906250,-24.53,74.07
150494,2018-06-29 10:03:14.937500,-21.73,74.07
150495,2018-06-29 10:03:14.968750,-18.81,74.07
150496,2018-06-29 10:03:15.000000,-6.27,74.07
150497,2018-06-29 10:03:15.031250,23.47,74.07
150498,2018-06-29 10:03:15.062500,70.18,74.07
150499,2018-06-29 10:03:15.093750,128.33,74.07
150500,2018-06-29 10:03:15.125000,183.25,74.07
150501,2018-06-29 10:03:15.156250,209.63,74.07
150502,2018-06-29 10:03:15.187500,192.42,74.07
150503,2018-06-29 10:03:15.218750,140.71,74.07
150504,2018-06-29 10:03:15.250000,71.31,74.07
150505,2018-06-29 10:03:15.281250,-4.94,74.07
150506,2018-06-29 10:03:15.312500,-74.31,74.07
150507,2018-06-29 10:03:15.343750,-120.76,74.07
150508,2018-06-29 10:03:15.375000,-141.11,74.07
150509,2018-06-29 10:03:15.406250,-141.89,74.07
150510,2018-06-29 10:03:15.437500,-124.38,74.07
150511,2018-06-29 10:03:15.468750,-89.46,74.07
150512,2018-06-29 10:03:15.500000,-49.97,74.07
150513,2018-06-29 10:03:15.531250,-20.33,73.95
150514,2018-06-29 10:03:15.562500,0.54,73.95
150515,2018-06-29 10:03:15.593750,27.27,73.95
150516,2018-06-29 10:03:15.625000,69.35,73.95
150517,2018-06-29 10:03:15.656250,117.25,73.95
150518,2018-06-29 10:03:15.687500,152.01,73.95
150519,2018-06-29 10:03:15.718750,167.88,73.95
150520,2018-06-29 10:03:15.750000,175.26,73.95
150521,2018-06-29 10:03:15.781250,177.72,73.95
150522,2018-06-29 10:03:15.812500,169.78,73.95
150523,2018-06-29 10:03:15.843750,152.51,73.95
150524,2018-06-29 10:03:15.875000,134.26,73.95
150525,2018-06-29 10:03:15.906250,113.47,73.95
150526,2018-06-29 10:03:15.937500,80.95,73.95
150527,2018-06-29 10:03:15.968750,39.81,73.95
150528,2018-06-29 10:03:16.000000,3.0,73.95
150529,2018-06-29 10:03:16.031250,-22.72,73.95
150530,2018-06-29 10:03:16.062500,-49.18,73.95
150531,2018-06-29 10:03:16.093750,-90.43,73.95
150532,2018-06-29 10:03:16.125000,-150.37,73.95
150533,2018-06-29 10:03:16.156250,-208.18,73.95
150534,2018-06-29 10:03:16.187500,-211.7,73.95
150535,2018-06-29 10:03:16.218750,-160.83,73.95
150536,2018-06-29 10:03:16.250000,-93.14,73.95
150537,2018-06-29 10:03:16.281250,-34.17,73.95
150538,2018-06-29 10:03:16.312500,6.65,73.95
150539,2018-06-29 10:03:16.343750,27.94,73.95
150540,2018-06-29 10:03:16.375000,35.06,73.95
150541,2018-06-29 10:03:16.406250,34.93,73.95
150542,2018-06-29 10:03:16.437500,36.73,73.95
150543,2018-06-29 10:03:16.468750,46.65,73.95
150544,2018-06-29 10:03:16.500000,52.69,73.95
150545,2018-06-29 10:03:16.531250,41.92,73.83
150546,2018-06-29 10:03:16.562500,20.03,73.83
150547,2018-06-29 10:03:16.593750,3.42,73.83
150548,2018-06-29 10:03:16.625000,-4.56,73.83
150549,2018-06-29 10:03:16.656250,-16.67,73.83
150550,2018-06-29 10:03:16.687500,-40.97,73.83
150551,2018-06-29 10:03:16.718750,-71.74,73.83
150552,2018-06-29 10:03:16.750000,-99.66,73.83
150553,2018-06-29 10:03:16.781250,-117.48,73.83
150554,2018-06-29 10:03:16.812500,-132.08,73.83
150555,2018-06-29 10:03:16.843750,-153.97,73.83
150556,2018-06-29 10:03:16.875000,-180.52,73.83
150557,2018-06-29 10:03:16.906250,-185.99,73.83
150558,2018-06-29 10:03:16.937500,-152.81,73.83
150559,2018-06-29 10:03:16.968750,-85.62,73.83
150560,2018-06-29 10:03:17.000000,-4.84,73.83
150561,2018-06-29 10:03:17.031250,77.62,73.83
150562,2018-06-29 10:03:17.062500,158.83,73.83
150563,2018-06-29 10:03:17.093750,224.14,73.83
150564,2018-06-29 10:03:17.125000,275.75,73.83
150565,2018-06-29 10:03:17.156250,278.94,73.83
150566,2018-06-29 10:03:17.187500,215.86,73.83
150567,2018-06-29 10:03:17.218750,144.01,73.83
150568,2018-06-29 10:03:17.250000,80.12,73.83
150569,2018-06-29 10:03:17.281250,14.97,73.83
150570,2018-06-29 10:03:17.312500,-47.43,73.83
150571,2018-06-29 10:03:17.343750,-84.84,73.83
150572,2018-06-29 10:03:17.375000,-87.48,73.83
150573,2018-06-29 10:03:17.406250,-66.62,73.83
150574,2018-06-29 10:03:17.437500,-47.59,73.83
150575,2018-06-29 10:03:17.468750,-37.56,73.83
150576,2018-06-29 10:03:17.500000,-39.02,73.83
150577,2018-06-29 10:03:17.531250,-55.01,73.83
150578,2018-06-29 10:03:17.562500,-82.73,73.83
150579,2018-06-29 10:03:17.593750,-108.26,73.83
150580,2018-06-29 10:03:17.625000,-117.29,73.83
150581,2018-06-29 10:03:17.656250,-111.56,73.83
150582,2018-06-29 10:03:17.687500,-101.64,73.83
150583,2018-06-29 10:03:17.718750,-94.43,73.83
150584,2018-06-29 10:03:17.750000,-87.33,73.83
150585,2018-06-29 10:03:17.781250,-82.45,73.83
150586,2018-06-29 10:03:17.812500,-84.22,73.83
150587,2018-06-29 10:03:17.843750,-90.2,73.83
150588,2018-06-29 10:03:17.875000,-90.74,73.83
150589,2018-06-29 10:03:17.906250,-81.05,73.83
150590,2018-06-29 10:03:17.937500,-63.88,73.83
150591,2018-06-29 10:03:17.968750,-41.3,73.83
150592,2018-06-29 10:03:18.000000,-14.83,73.83
150593,2018-06-29 10:03:18.031250,16.23,73.83
150594,2018-06-29 10:03:18.062500,43.56,73.83
150595,2018-06-29 10:03:18.093750,57.99,73.83
150596,2018-06-29 10:03:18.125000,56.99,73.83
150597,2018-06-29 10:03:18.156250,45.21,73.83
150598,2018-06-29 10:03:18.187500,38.81,73.83
150599,2018-06-29 10:03:18.218750,53.24,73.83
150600,2018-06-29 10:03:18.250000,85.19,73.83
150601,2018-06-29 10:03:18.281250,116.87,73.83
150602,2018-06-29 10:03:18.312500,131.98,73.83
150603,2018-06-29 10:03:18.343750,118.26,73.83
150604,2018-06-29 10:03:18.375000,71.63,73.83
150605,2018-06-29 10:03:18.406250,2.29,73.83
150606,2018-06-29 10:03:18.437500,-63.86,73.83
150607,2018-06-29 10:03:18.468750,-100.09,73.83
150608,2018-06-29 10:03:18.500000,-91.23,73.83
150609,2018-06-29 10:03:18.531250,-36.6,73.92
150610,2018-06-29 10:03:18.562500,48.93,73.92
150611,2018-06-29 10:03:18.593750,135.4,73.92
150612,2018-06-29 10:03:18.625000,190.08,73.92
150613,2018-06-29 10:03:18.656250,195.19,73.92
150614,2018-06-29 10:03:18.687500,152.26,73.92
150615,2018-06-29 10:03:18.718750,79.73,73.92
150616,2018-06-29 10:03:18.750000,4.76,73.92
150617,2018-06-29 10:03:18.781250,-50.04,73.92
150618,2018-06-29 10:03:18.812500,-79.33,73.92
150619,2018-06-29 10:03:18.843750,-90.74,73.92
150620,2018-06-29 10:03:18.875000,-91.96,73.92
150621,2018-06-29 10:03:18.906250,-80.58,73.92
150622,2018-06-29 10:03:18.937500,-49.9,73.92
150623,2018-06-29 10:03:18.968750,-2.42,73.92
150624,2018-06-29 10:03:19.000000,52.5,73.92
150625,2018-06-29 10:03:19.031250,104.51,73.92
150626,2018-06-29 10:03:19.062500,151.73,73.92
150627,2018-06-29 10:03:19.093750,186.17,73.92
150628,2018-06-29 10:03:19.125000,199.64,73.92
150629,2018-06-29 10:03:19.156250,193.82,73.92
150630,2018-06-29 10:03:19.187500,181.25,73.92
150631,2018-06-29 10:03:19.218750,168.48,73.92
150632,2018-06-29 10:03:19.250000,145.35,73.92
150633,2018-06-29 10:03:19.281250,111.78,73.92
150634,2018-06-29 10:03:19.312500,73.02,73.92
150635,2018-06-29 10:03:19.343750,41.91,73.92
150636,2018-06-29 10:03:19.375000,15.87,73.92
150637,2018-06-29 10:03:19.406250,-6.9,73.92
150638,2018-06-29 10:03:19.437500,-35.62,73.92
150639,2018-06-29 10:03:19.468750,-122.62,73.92
150640,2018-06-29 10:03:19.500000,-200.41,73.92
150641,2018-06-29 10:03:19.531250,-216.28,74.02
150642,2018-06-29 10:03:19.562500,-192.3,74.02
150643,2018-06-29 10:03:19.593750,-149.44,74.02
150644,2018-06-29 10:03:19.625000,-99.12,74.02
150645,2018-06-29 10:03:19.656250,-63.46,74.02
150646,2018-06-29 10:03:19.687500,-47.72,74.02
150647,2018-06-29 10:03:19.718750,-36.4,74.02
150648,2018-06-29 10:03:19.750000,-15.84,74.02
150649,2018-06-29 10:03:19.781250,10.26,74.02
150650,2018-06-29 10:03:19.812500,20.95,74.02
150651,2018-06-29 10:03:19.843750,12.76,74.02
150652,2018-06-29 10:03:19.875000,-4.12,74.02
150653,2018-06-29 10:03:19.906250,-14.95,74.02
150654,2018-06-29 10:03:19.937500,-19.39,74.02
150655,2018-06-29 10:03:19.968750,-20.77,74.02
150656,2018-06-29 10:03:20.000000,-17.94,74.02
150657,2018-06-29 10:03:20.031250,-10.92,74.02
150658,2018-06-29 10:03:20.062500,-2.92,74.02
150659,2018-06-29 10:03:20.093750,1.56,74.02
150660,2018-06-29 10:03:20.125000,4.37,74.02
150661,2018-06-29 10:03:20.156250,7.78,74.02
150662,2018-06-29 10:03:20.187500,11.47,74.02
150663,2018-06-29 10:03:20.218750,12.47,74.02
150664,2018-06-29 10:03:20.250000,9.34,74.02
150665,2018-06-29 10:03:20.281250,2.44,74.02
150666,2018-06-29 10:03:20.312500,-8.16,74.02
150667,2018-06-29 10:03:20.343750,-21.05,74.02
150668,2018-06-29 10:03:20.375000,-33.22,74.02
150669,2018-06-29 10:03:20.406250,-42.98,74.02
150670,2018-06-29 10:03:20.437500,-52.1,74.02
150671,2018-06-29 10:03:20.468750,-63.89,74.02
150672,2018-06-29 10:03:20.500000,-79.75,74.02
150673,2018-06-29 10:03:20.531250,-96.78,74.13
150674,2018-06-29 10:03:20.562500,-106.5,74.13
150675,2018-06-29 10:03:20.593750,-98.16,74.13
150676,2018-06-29 10:03:20.625000,-68.55,74.13
150677,2018-06-29 10:03:20.656250,-27.43,74.13
150678,2018-06-29 10:03:20.687500,11.62,74.13
150679,2018-06-29 10:03:20.718750,42.65,74.13
150680,2018-06-29 10:03:20.750000,65.77,74.13
150681,2018-06-29 10:03:20.781250,80.75,74.13
150682,2018-06-29 10:03:20.812500,88.06,74.13
150683,2018-06-29 10:03:20.843750,91.06,74.13
150684,2018-06-29 10:03:20.875000,92.32,74.13
150685,2018-06-29 10:03:20.906250,91.05,74.13
150686,2018-06-29 10:03:20.937500,86.01,74.13
150687,2018-06-29 10:03:20.968750,78.25,74.13
150688,2018-06-29 10:03:21.000000,69.41,74.13
150689,2018-06-29 10:03:21.031250,59.91,74.13
150690,2018-06-29 10:03:21.062500,49.44,74.13
150691,2018-06-29 10:03:21.093750,38.63,74.13
150692,2018-06-29 10:03:21.125000,28.98,74.13
150693,2018-06-29 10:03:21.156250,21.09,74.13
150694,2018-06-29 10:03:21.187500,13.76,74.13
150695,2018-06-29 10:03:21.218750,5.72,74.13
150696,2018-06-29 10:03:21.250000,-3.69,74.13
150697,2018-06-29 10:03:21.281250,-14.93,74.13
150698,2018-06-29 10:03:21.312500,-26.84,74.13
150699,2018-06-29 10:03:21.343750,-36.44,74.13
150700,2018-06-29 10:03:21.375000,-43.21,74.13
150701,2018-06-29 10:03:21.406250,-50.88,74.13
150702,2018-06-29 10:03:21.437500,-62.5,74.13
150703,2018-06-29 10:03:21.468750,-73.78,74.13
150704,2018-06-29 10:03:21.500000,-74.29,74.13
150705,2018-06-29 10:03:21.531250,-58.18,74.25
150706,2018-06-29 10:03:21.562500,-32.41,74.25
150707,2018-06-29 10:03:21.593750,-10.19,74.25
150708,2018-06-29 10:03:21.625000,1.73,74.25
150709,2018-06-29 10:03:21.656250,5.2,74.25
150710,2018-06-29 10:03:21.687500,4.22,74.25
150711,2018-06-29 10:03:21.718750,1.61,74.25
150712,2018-06-29 10:03:21.750000,-0.04,74.25
150713,2018-06-29 10:03:21.781250,0.96,74.25
150714,2018-06-29 10:03:21.812500,4.37,74.25
150715,2018-06-29 10:03:21.843750,9.05,74.25
150716,2018-06-29 10:03:21.875000,13.68,74.25
150717,2018-06-29 10:03:21.906250,17.07,74.25
150718,2018-06-29 10:03:21.937500,19.5,74.25
150719,2018-06-29 10:03:21.968750,23.07,74.25
150720,2018-06-29 10:03:22.000000,29.26,74.25
150721,2018-06-29 10:03:22.031250,37.9,74.25
150722,2018-06-29 10:03:22.062500,48.07,74.25
150723,2018-06-29 10:03:22.093750,56.95,74.25
150724,2018-06-29 10:03:22.125000,59.01,74.25
150725,2018-06-29 10:03:22.156250,50.62,74.25
150726,2018-06-29 10:03:22.187500,35.45,74.25
150727,2018-06-29 10:03:22.218750,20.91,74.25
150728,2018-06-29 10:03:22.250000,10.13,74.25
150729,2018-06-29 10:03:22.281250,1.03,74.25
150730,2018-06-29 10:03:22.312500,-9.2,74.25
150731,2018-06-29 10:03:22.343750,-21.93,74.25
150732,2018-06-29 10:03:22.375000,-34.99,74.25
150733,2018-06-29 10:03:22.406250,-40.42,74.25
150734,2018-06-29 10:03:22.437500,-31.46,74.25
150735,2018-06-29 10:03:22.468750,-12.12,74.25
150736,2018-06-29 10:03:22.500000,6.26,74.25
150737,2018-06-29 10:03:22.531250,16.23,74.3
150738,2018-06-29 10:03:22.562500,16.96,74.3
150739,2018-06-29 10:03:22.593750,10.11,74.3
150740,2018-06-29 10:03:22.625000,-0.43,74.3
150741,2018-06-29 10:03:22.656250,-9.03,74.3
150742,2018-06-29 10:03:22.687500,-13.03,74.3
150743,2018-06-29 10:03:22.718750,-14.19,74.3
150744,2018-06-29 10:03:22.750000,-13.54,74.3
150745,2018-06-29 10:03:22.781250,-9.29,74.3
150746,2018-06-29 10:03:22.812500,-1.13,74.3
150747,2018-06-29 10:03:22.843750,8.6,74.3
150748,2018-06-29 10:03:22.875000,17.91,74.3
150749,2018-06-29 10:03:22.906250,24.96,74.3
150750,2018-06-29 10:03:22.937500,27.41,74.3
150751,2018-06-29 10:03:22.968750,25.63,74.3
150752,2018-06-29 10:03:23.000000,23.2,74.3
150753,2018-06-29 10:03:23.031250,22.16,74.3
150754,2018-06-29 10:03:23.062500,22.63,74.3
150755,2018-06-29 10:03:23.093750,25.85,74.3
150756,2018-06-29 10:03:23.125000,30.67,74.3
150757,2018-06-29 10:03:23.156250,31.44,74.3
150758,2018-06-29 10:03:23.187500,27.76,74.3
150759,2018-06-29 10:03:23.218750,30.55,74.3
150760,2018-06-29 10:03:23.250000,48.19,74.3
150761,2018-06-29 10:03:23.281250,72.23,74.3
150762,2018-06-29 10:03:23.312500,87.15,74.3
150763,2018-06-29 10:03:23.343750,86.3,74.3
150764,2018-06-29 10:03:23.375000,67.69,74.3
150765,2018-06-29 10:03:23.406250,28.31,74.3
150766,2018-06-29 10:03:23.437500,-25.41,74.3
150767,2018-06-29 10:03:23.468750,-73.96,74.3
150768,2018-06-29 10:03:23.500000,-101.93,74.3
150769,2018-06-29 10:03:23.531250,-106.75,74.45
150770,2018-06-29 10:03:23.562500,-93.41,74.45
150771,2018-06-29 10:03:23.593750,-72.31,74.45
150772,2018-06-29 10:03:23.625000,-55.43,74.45
150773,2018-06-29 10:03:23.656250,-47.31,74.45
150774,2018-06-29 10:03:23.687500,-44.07,74.45
150775,2018-06-29 10:03:23.718750,-44.84,74.45
150776,2018-06-29 10:03:23.750000,-52.58,74.45
150777,2018-06-29 10:03:23.781250,-67.76,74.45
150778,2018-06-29 10:03:23.812500,-84.91,74.45
150779,2018-06-29 10:03:23.843750,-100.35,74.45
150780,2018-06-29 10:03:23.875000,-118.7,74.45
150781,2018-06-29 10:03:23.906250,-146.02,74.45
150782,2018-06-29 10:03:23.937500,-182.25,74.45
150783,2018-06-29 10:03:23.968750,-211.84,74.45
150784,2018-06-29 10:03:24.000000,-220.84,74.45
150785,2018-06-29 10:03:24.031250,-208.34,74.45
150786,2018-06-29 10:03:24.062500,-189.26,74.45
150787,2018-06-29 10:03:24.093750,-171.0,74.45
150788,2018-06-29 10:03:24.125000,-147.66,74.45
150789,2018-06-29 10:03:24.156250,-117.65,74.45
150790,2018-06-29 10:03:24.187500,-85.5,74.45
150791,2018-06-29 10:03:24.218750,-57.2,74.45
150792,2018-06-29 10:03:24.250000,-20.76,74.45
150793,2018-06-29 10:03:24.281250,29.6,74.45
150794,2018-06-29 10:03:24.312500,100.47,74.45
150795,2018-06-29 10:03:24.343750,199.32,74.45
150796,2018-06-29 10:03:24.375000,255.01,74.45
150797,2018-06-29 10:03:24.406250,257.02,74.45
150798,2018-06-29 10:03:24.437500,228.03,74.45
150799,2018-06-29 10:03:24.468750,176.44,74.45
150800,2018-06-29 10:03:24.500000,109.87,74.45
150801,2018-06-29 10:03:24.531250,56.87,74.58
150802,2018-06-29 10:03:24.562500,26.81,74.58
150803,2018-06-29 10:03:24.593750,7.65,74.58
150804,2018-06-29 10:03:24.625000,-13.92,74.58
150805,2018-06-29 10:03:24.656250,-35.65,74.58
150806,2018-06-29 10:03:24.687500,-42.82,74.58
150807,2018-06-29 10:03:24.718750,-32.83,74.58
150808,2018-06-29 10:03:24.750000,-14.1,74.58
150809,2018-06-29 10:03:24.781250,-1.37,74.58
150810,2018-06-29 10:03:24.812500,2.72,74.58
150811,2018-06-29 10:03:24.843750,0.98,74.58
150812,2018-06-29 10:03:24.875000,-3.51,74.58
150813,2018-06-29 10:03:24.906250,-10.76,74.58
150814,2018-06-29 10:03:24.937500,-17.39,74.58
150815,2018-06-29 10:03:24.968750,-17.81,74.58
150816,2018-06-29 10:03:25.000000,-15.12,74.58
150817,2018-06-29 10:03:25.031250,-12.44,74.58
150818,2018-06-29 10:03:25.062500,-10.69,74.58
150819,2018-06-29 10:03:25.093750,-8.21,74.58
150820,2018-06-29 10:03:25.125000,-5.86,74.58
150821,2018-06-29 10:03:25.156250,-6.0,74.58
150822,2018-06-29 10:03:25.187500,-9.83,74.58
150823,2018-06-29 10:03:25.218750,-15.66,74.58
150824,2018-06-29 10:03:25.250000,-20.31,74.58
150825,2018-06-29 10:03:25.281250,-22.38,74.58
150826,2018-06-29 10:03:25.312500,-23.57,74.58
150827,2018-06-29 10:03:25.343750,-26.52,74.58
150828,2018-06-29 10:03:25.375000,-32.41,74.58
150829,2018-06-29 10:03:25.406250,-39.53,74.58
150830,2018-06-29 10:03:25.437500,-40.69,74.58
150831,2018-06-29 10:03:25.468750,-28.07,74.58
150832,2018-06-29 10:03:25.500000,-3.88,74.58
150833,2018-06-29 10:03:25.531250,19.9,74.72
150834,2018-06-29 10:03:25.562500,35.13,74.72
150835,2018-06-29 10:03:25.593750,43.39,74.72
150836,2018-06-29 10:03:25.625000,48.04,74.72
150837,2018-06-29 10:03:25.656250,49.42,74.72
150838,2018-06-29 10:03:25.687500,48.42,74.72
150839,2018-06-29 10:03:25.718750,47.07,74.72
150840,2018-06-29 10:03:25.750000,45.03,74.72
150841,2018-06-29 10:03:25.781250,40.5,74.72
150842,2018-06-29 10:03:25.812500,33.82,74.72
150843,2018-06-29 10:03:25.843750,26.29,74.72
150844,2018-06-29 10:03:25.875000,16.66,74.72
150845,2018-06-29 10:03:25.906250,3.57,74.72
150846,2018-06-29 10:03:25.937500,-10.31,74.72
150847,2018-06-29 10:03:25.968750,-20.54,74.72
150848,2018-06-29 10:03:26.000000,-25.42,74.72
150849,2018-06-29 10:03:26.031250,-25.61,74.72
150850,2018-06-29 10:03:26.062500,-21.82,74.72
150851,2018-06-29 10:03:26.093750,-15.67,74.72
150852,2018-06-29 10:03:26.125000,-10.91,74.72
150853,2018-06-29 10:03:26.156250,-11.27,74.72
150854,2018-06-29 10:03:26.187500,-16.95,74.72
150855,2018-06-29 10:03:26.218750,-22.19,74.72
150856,2018-06-29 10:03:26.250000,-17.73,74.72
150857,2018-06-29 10:03:26.281250,0.14,74.72
150858,2018-06-29 10:03:26.312500,23.97,74.72
150859,2018-06-29 10:03:26.343750,43.01,74.72
150860,2018-06-29 10:03:26.375000,53.55,74.72
150861,2018-06-29 10:03:26.406250,57.31,74.72
150862,2018-06-29 10:03:26.437500,55.05,74.72
150863,2018-06-29 10:03:26.468750,47.81,74.72
150864,2018-06-29 10:03:26.500000,39.53,74.72
150865,2018-06-29 10:03:26.531250,33.29,74.8
150866,2018-06-29 10:03:26.562500,28.91,74.8
150867,2018-06-29 10:03:26.593750,26.18,74.8
150868,2018-06-29 10:03:26.625000,25.95,74.8
150869,2018-06-29 10:03:26.656250,26.83,74.8
150870,2018-06-29 10:03:26.687500,26.0,74.8
150871,2018-06-29 10:03:26.718750,23.62,74.8
150872,2018-06-29 10:03:26.750000,22.07,74.8
150873,2018-06-29 10:03:26.781250,21.98,74.8
150874,2018-06-29 10:03:26.812500,22.05,74.8
150875,2018-06-29 10:03:26.843750,21.18,74.8
150876,2018-06-29 10:03:26.875000,19.19,74.8
150877,2018-06-29 10:03:26.906250,16.17,74.8
150878,2018-06-29 10:03:26.937500,11.89,74.8
150879,2018-06-29 10:03:26.968750,5.88,74.8
150880,2018-06-29 10:03:27.000000,-1.42,74.8
150881,2018-06-29 10:03:27.031250,-6.79,74.8
150882,2018-06-29 10:03:27.062500,-5.22,74.8
150883,2018-06-29 10:03:27.093750,4.48,74.8
150884,2018-06-29 10:03:27.125000,18.55,74.8
150885,2018-06-29 10:03:27.156250,32.04,74.8
150886,2018-06-29 10:03:27.187500,42.59,74.8
150887,2018-06-29 10:03:27.218750,50.01,74.8
150888,2018-06-29 10:03:27.250000,54.41,74.8
150889,2018-06-29 10:03:27.281250,55.96,74.8
150890,2018-06-29 10:03:27.312500,55.58,74.8
150891,2018-06-29 10:03:27.343750,56.12,74.8
150892,2018-06-29 10:03:27.375000,57.85,74.8
150893,2018-06-29 10:03:27.406250,59.65,74.8
150894,2018-06-29 10:03:27.437500,61.88,74.8
150895,2018-06-29 10:03:27.468750,67.45,74.8
150896,2018-06-29 10:03:27.500000,74.85,74.8
150897,2018-06-29 10:03:27.531250,79.08,74.92
150898,2018-06-29 10:03:27.562500,81.37,74.92
150899,2018-06-29 10:03:27.593750,86.55,74.92
150900,2018-06-29 10:03:27.625000,99.33,74.92
150901,2018-06-29 10:03:27.656250,111.12,74.92
150902,2018-06-29 10:03:27.687500,117.91,74.92
150903,2018-06-29 10:03:27.718750,125.79,74.92
150904,2018-06-29 10:03:27.750000,145.68,74.92
150905,2018-06-29 10:03:27.781250,172.91,74.92
150906,2018-06-29 10:03:27.812500,189.83,74.92
150907,2018-06-29 10:03:27.843750,194.67,74.92
150908,2018-06-29 10:03:27.875000,195.0,74.92
150909,2018-06-29 10:03:27.906250,198.17,74.92
150910,2018-06-29 10:03:27.937500,180.64,74.92
150911,2018-06-29 10:03:27.968750,122.11,74.92
150912,2018-06-29 10:03:28.000000,8.61,74.92
150913,2018-06-29 10:03:28.031250,-177.29,74.92
150914,2018-06-29 10:03:28.062500,-304.48,74.92
150915,2018-06-29 10:03:28.093750,-311.72,74.92
150916,2018-06-29 10:03:28.125000,-255.72,74.92
150917,2018-06-29 10:03:28.156250,-195.83,74.92
150918,2018-06-29 10:03:28.187500,-151.81,74.92
150919,2018-06-29 10:03:28.218750,-141.51,74.92
150920,2018-06-29 10:03:28.250000,-159.37,74.92
150921,2018-06-29 10:03:28.281250,-180.41,74.92
150922,2018-06-29 10:03:28.312500,-188.87,74.92
150923,2018-06-29 10:03:28.343750,-195.83,74.92
150924,2018-06-29 10:03:28.375000,-214.12,74.92
150925,2018-06-29 10:03:28.406250,-214.15,74.92
150926,2018-06-29 10:03:28.437500,-174.24,74.92
150927,2018-06-29 10:03:28.468750,-107.87,74.92
150928,2018-06-29 10:03:28.500000,-48.11,74.92
150929,2018-06-29 10:03:28.531250,-8.64,75.03
150930,2018-06-29 10:03:28.562500,12.1,75.03
150931,2018-06-29 10:03:28.593750,21.69,75.03
150932,2018-06-29 10:03:28.625000,34.19,75.03
150933,2018-06-29 10:03:28.656250,58.78,75.03
150934,2018-06-29 10:03:28.687500,84.04,75.03
150935,2018-06-29 10:03:28.718750,89.4,75.03
150936,2018-06-29 10:03:28.750000,65.92,75.03
150937,2018-06-29 10:03:28.781250,26.9,75.03
150938,2018-06-29 10:03:28.812500,-1.49,75.03
150939,2018-06-29 10:03:28.843750,-0.89,75.03
150940,2018-06-29 10:03:28.875000,19.77,75.03
150941,2018-06-29 10:03:28.906250,42.85,75.03
150942,2018-06-29 10:03:28.937500,76.79,75.03
150943,2018-06-29 10:03:28.968750,130.94,75.03
150944,2018-06-29 10:03:29.000000,191.68,75.03
150945,2018-06-29 10:03:29.031250,223.08,75.03
150946,2018-06-29 10:03:29.062500,198.27,75.03
150947,2018-06-29 10:03:29.093750,131.2,75.03
150948,2018-06-29 10:03:29.125000,41.97,75.03
150949,2018-06-29 10:03:29.156250,-38.65,75.03
150950,2018-06-29 10:03:29.187500,-84.82,75.03
150951,2018-06-29 10:03:29.218750,-82.67,75.03
150952,2018-06-29 10:03:29.250000,-53.35,75.03
150953,2018-06-29 10:03:29.281250,-35.22,75.03
150954,2018-06-29 10:03:29.312500,-55.15,75.03
150955,2018-06-29 10:03:29.343750,-96.32,75.03
150956,2018-06-29 10:03:29.375000,-136.09,75.03
150957,2018-06-29 10:03:29.406250,-184.94,75.03
150958,2018-06-29 10:03:29.437500,-256.43,75.03
150959,2018-06-29 10:03:29.468750,-331.21,75.03
150960,2018-06-29 10:03:29.500000,-364.17,75.03
150961,2018-06-29 10:03:29.531250,-343.81,75.22
150962,2018-06-29 10:03:29.562500,-303.96,75.22
150963,2018-06-29 10:03:29.593750,-264.36,75.22
150964,2018-06-29 10:03:29.625000,-217.13,75.22
150965,2018-06-29 10:03:29.656250,-143.47,75.22
150966,2018-06-29 10:03:29.687500,-55.98,75.22
150967,2018-06-29 10:03:29.718750,37.61,75.22
150968,2018-06-29 10:03:29.750000,140.28,75.22
150969,2018-06-29 10:03:29.781250,257.0,75.22
150970,2018-06-29 10:03:29.812500,379.43,75.22
150971,2018-06-29 10:03:29.843750,479.47,75.22
150972,2018-06-29 10:03:29.875000,546.66,75.22
150973,2018-06-29 10:03:29.906250,494.22,75.22
150974,2018-06-29 10:03:29.937500,314.07,75.22
150975,2018-06-29 10:03:29.968750,142.61,75.22
150976,2018-06-29 10:03:30.000000,-15.05,75.22
150977,2018-06-29 10:03:30.031250,-143.48,75.22
150978,2018-06-29 10:03:30.062500,-216.57,75.22
150979,2018-06-29 10:03:30.093750,-231.36,75.22
150980,2018-06-29 10:03:30.125000,-222.15,75.22
150981,2018-06-29 10:03:30.156250,-201.47,75.22
150982,2018-06-29 10:03:30.187500,-173.68,75.22
150983,2018-06-29 10:03:30.218750,-131.15,75.22
150984,2018-06-29 10:03:30.250000,-90.07,75.22
150985,2018-06-29 10:03:30.281250,-60.23,75.22
150986,2018-06-29 10:03:30.312500,-39.66,75.22
150987,2018-06-29 10:03:30.343750,-21.1,75.22
150988,2018-06-29 10:03:30.375000,-2.09,75.22
150989,2018-06-29 10:03:30.406250,5.54,75.22
150990,2018-06-29 10:03:30.437500,3.08,75.22
150991,2018-06-29 10:03:30.468750,-1.89,75.22
150992,2018-06-29 10:03:30.500000,0.98,75.22
150993,2018-06-29 10:03:30.531250,9.68,75.47
150994,2018-06-29 10:03:30.562500,21.06,75.47
150995,2018-06-29 10:03:30.593750,36.46,75.47
150996,2018-06-29 10:03:30.625000,58.03,75.47
150997,2018-06-29 10:03:30.656250,84.83,75.47
150998,2018-06-29 10:03:30.687500,112.41,75.47
150999,2018-06-29 10:03:30.718750,137.35,75.47
151000,2018-06-29 10:03:30.750000,152.57,75.47
151001,2018-06-29 10:03:30.781250,148.83,75.47
151002,2018-06-29 10:03:30.812500,123.71,75.47
151003,2018-06-29 10:03:30.843750,85.35,75.47
151004,2018-06-29 10:03:30.875000,45.35,75.47
151005,2018-06-29 10:03:30.906250,10.85,75.47
151006,2018-06-29 10:03:30.937500,-16.61,75.47
151007,2018-06-29 10:03:30.968750,-39.1,75.47
151008,2018-06-29 10:03:31.000000,-58.18,75.47
151009,2018-06-29 10:03:31.031250,-70.74,75.47
151010,2018-06-29 10:03:31.062500,-72.0,75.47
151011,2018-06-29 10:03:31.093750,-63.17,75.47
151012,2018-06-29 10:03:31.125000,-51.0,75.47
151013,2018-06-29 10:03:31.156250,-39.75,75.47
151014,2018-06-29 10:03:31.187500,-29.31,75.47
151015,2018-06-29 10:03:31.218750,-20.11,75.47
151016,2018-06-29 10:03:31.250000,-14.54,75.47
151017,2018-06-29 10:03:31.281250,-13.12,75.47
151018,2018-06-29 10:03:31.312500,-13.03,75.47
151019,2018-06-29 10:03:31.343750,-11.14,75.47
151020,2018-06-29 10:03:31.375000,-6.68,75.47
151021,2018-06-29 10:03:31.406250,-0.71,75.47
151022,2018-06-29 10:03:31.437500,4.7,75.47
151023,2018-06-29 10:03:31.468750,7.31,75.47
151024,2018-06-29 10:03:31.500000,6.64,75.47
151025,2018-06-29 10:03:31.531250,5.19,75.72
151026,2018-06-29 10:03:31.562500,5.77,75.72
151027,2018-06-29 10:03:31.593750,8.29,75.72
151028,2018-06-29 10:03:31.625000,9.6,75.72
151029,2018-06-29 10:03:31.656250,6.81,75.72
151030,2018-06-29 10:03:31.687500,0.57,75.72
151031,2018-06-29 10:03:31.718750,-6.34,75.72
151032,2018-06-29 10:03:31.750000,-13.48,75.72
151033,2018-06-29 10:03:31.781250,-23.45,75.72
151034,2018-06-29 10:03:31.812500,-37.0,75.72
151035,2018-06-29 10:03:31.843750,-47.96,75.72
151036,2018-06-29 10:03:31.875000,-46.24,75.72
151037,2018-06-29 10:03:31.906250,-28.52,75.72
151038,2018-06-29 10:03:31.937500,-3.26,75.72
151039,2018-06-29 10:03:31.968750,18.55,75.72
151040,2018-06-29 10:03:32.000000,33.61,75.72
151041,2018-06-29 10:03:32.031250,44.08,75.72
151042,2018-06-29 10:03:32.062500,50.79,75.72
151043,2018-06-29 10:03:32.093750,52.16,75.72
151044,2018-06-29 10:03:32.125000,46.98,75.72
151045,2018-06-29 10:03:32.156250,35.72,75.72
151046,2018-06-29 10:03:32.187500,20.66,75.72
151047,2018-06-29 10:03:32.218750,5.64,75.72
151048,2018-06-29 10:03:32.250000,-5.82,75.72
151049,2018-06-29 10:03:32.281250,-13.25,75.72
151050,2018-06-29 10:03:32.312500,-19.22,75.72
151051,2018-06-29 10:03:32.343750,-25.92,75.72
151052,2018-06-29 10:03:32.375000,-33.52,75.72
151053,2018-06-29 10:03:32.406250,-41.74,75.72
151054,2018-06-29 10:03:32.437500,-50.55,75.72
151055,2018-06-29 10:03:32.468750,-58.91,75.72
151056,2018-06-29 10:03:32.500000,-65.03,75.72
151057,2018-06-29 10:03:32.531250,-68.07,75.95
151058,2018-06-29 10:03:32.562500,-68.33,75.95
151059,2018-06-29 10:03:32.593750,-67.16,75.95
151060,2018-06-29 10:03:32.625000,-66.14,75.95
151061,2018-06-29 10:03:32.656250,-63.2,75.95
151062,2018-06-29 10:03:32.687500,-51.98,75.95
151063,2018-06-29 10:03:32.718750,-29.96,75.95
151064,2018-06-29 10:03:32.750000,-4.3,75.95
151065,2018-06-29 10:03:32.781250,15.23,75.95
151066,2018-06-29 10:03:32.812500,25.83,75.95
151067,2018-06-29 10:03:32.843750,30.95,75.95
151068,2018-06-29 10:03:32.875000,33.55,75.95
151069,2018-06-29 10:03:32.906250,34.12,75.95
151070,2018-06-29 10:03:32.937500,33.08,75.95
151071,2018-06-29 10:03:32.968750,31.22,75.95
151072,2018-06-29 10:03:33.000000,28.89,75.95
151073,2018-06-29 10:03:33.031250,27.14,75.95
151074,2018-06-29 10:03:33.062500,27.64,75.95
151075,2018-06-29 10:03:33.093750,29.46,75.95
151076,2018-06-29 10:03:33.125000,28.94,75.95
151077,2018-06-29 10:03:33.156250,24.16,75.95
151078,2018-06-29 10:03:33.187500,16.98,75.95
151079,2018-06-29 10:03:33.218750,10.3,75.95
151080,2018-06-29 10:03:33.250000,5.45,75.95
151081,2018-06-29 10:03:33.281250,1.97,75.95
151082,2018-06-29 10:03:33.312500,-1.84,75.95
151083,2018-06-29 10:03:33.343750,-7.64,75.95
151084,2018-06-29 10:03:33.375000,-15.94,75.95
151085,2018-06-29 10:03:33.406250,-26.75,75.95
151086,2018-06-29 10:03:33.437500,-39.58,75.95
151087,2018-06-29 10:03:33.468750,-49.9,75.95
151088,2018-06-29 10:03:33.500000,-49.28,75.95
151089,2018-06-29 10:03:33.531250,-34.92,76.25
151090,2018-06-29 10:03:33.562500,-14.59,76.25
151091,2018-06-29 10:03:33.593750,2.36,76.25
151092,2018-06-29 10:03:33.625000,14.01,76.25
151093,2018-06-29 10:03:33.656250,22.18,76.25
151094,2018-06-29 10:03:33.687500,26.86,76.25
151095,2018-06-29 10:03:33.718750,27.74,76.25
151096,2018-06-29 10:03:33.750000,26.38,76.25
151097,2018-06-29 10:03:33.781250,24.51,76.25
151098,2018-06-29 10:03:33.812500,22.44,76.25
151099,2018-06-29 10:03:33.843750,20.44,76.25
151100,2018-06-29 10:03:33.875000,19.92,76.25
151101,2018-06-29 10:03:33.906250,21.44,76.25
151102,2018-06-29 10:03:33.937500,22.39,76.25
151103,2018-06-29 10:03:33.968750,19.48,76.25
151104,2018-06-29 10:03:34.000000,13.24,76.25
151105,2018-06-29 10:03:34.031250,7.06,76.25
151106,2018-06-29 10:03:34.062500,1.91,76.25
151107,2018-06-29 10:03:34.093750,-4.46,76.25
151108,2018-06-29 10:03:34.125000,-12.96,76.25
151109,2018-06-29 10:03:34.156250,-21.32,76.25
151110,2018-06-29 10:03:34.187500,-27.85,76.25
151111,2018-06-29 10:03:34.218750,-34.0,76.25
151112,2018-06-29 10:03:34.250000,-41.93,76.25
151113,2018-06-29 10:03:34.281250,-50.24,76.25
151114,2018-06-29 10:03:34.312500,-52.23,76.25
151115,2018-06-29 10:03:34.343750,-41.24,76.25
151116,2018-06-29 10:03:34.375000,-18.96,76.25
151117,2018-06-29 10:03:34.406250,5.45,76.25
151118,2018-06-29 10:03:34.437500,25.37,76.25
151119,2018-06-29 10:03:34.468750,41.07,76.25
151120,2018-06-29 10:03:34.500000,54.65,76.25
151121,2018-06-29 10:03:34.531250,65.7,76.53
151122,2018-06-29 10:03:34.562500,72.78,76.53
151123,2018-06-29 10:03:34.593750,75.73,76.53
151124,2018-06-29 10:03:34.625000,75.22,76.53
151125,2018-06-29 10:03:34.656250,72.36,76.53
151126,2018-06-29 10:03:34.687500,69.68,76.53
151127,2018-06-29 10:03:34.718750,70.33,76.53
151128,2018-06-29 10:03:34.750000,74.7,76.53
151129,2018-06-29 10:03:34.781250,80.05,76.53
151130,2018-06-29 10:03:34.812500,83.96,76.53
151131,2018-06-29 10:03:34.843750,85.98,76.53
151132,2018-06-29 10:03:34.875000,85.17,76.53
151133,2018-06-29 10:03:34.906250,78.47,76.53
151134,2018-06-29 10:03:34.937500,63.29,76.53
151135,2018-06-29 10:03:34.968750,40.5,76.53
151136,2018-06-29 10:03:35.000000,13.67,76.53
151137,2018-06-29 10:03:35.031250,-13.25,76.53
151138,2018-06-29 10:03:35.062500,-37.83,76.53
151139,2018-06-29 10:03:35.093750,-60.25,76.53
151140,2018-06-29 10:03:35.125000,-80.01,76.53
151141,2018-06-29 10:03:35.156250,-91.29,76.53
151142,2018-06-29 10:03:35.187500,-87.94,76.53
151143,2018-06-29 10:03:35.218750,-71.78,76.53
151144,2018-06-29 10:03:35.250000,-49.3,76.53
151145,2018-06-29 10:03:35.281250,-26.16,76.53
151146,2018-06-29 10:03:35.312500,-9.09,76.53
151147,2018-06-29 10:03:35.343750,-2.89,76.53
151148,2018-06-29 10:03:35.375000,-2.99,76.53
151149,2018-06-29 10:03:35.406250,-1.16,76.53
151150,2018-06-29 10:03:35.437500,3.12,76.53
151151,2018-06-29 10:03:35.468750,4.98,76.53
151152,2018-06-29 10:03:35.500000,3.21,76.53
151153,2018-06-29 10:03:35.531250,0.04,76.8
151154,2018-06-29 10:03:35.562500,-3.28,76.8
151155,2018-06-29 10:03:35.593750,-6.48,76.8
151156,2018-06-29 10:03:35.625000,-8.31,76.8
151157,2018-06-29 10:03:35.656250,-7.57,76.8
151158,2018-06-29 10:03:35.687500,-5.16,76.8
151159,2018-06-29 10:03:35.718750,-3.89,76.8
151160,2018-06-29 10:03:35.750000,-6.08,76.8
151161,2018-06-29 10:03:35.781250,-11.47,76.8
151162,2018-06-29 10:03:35.812500,-17.98,76.8
151163,2018-06-29 10:03:35.843750,-23.18,76.8
151164,2018-06-29 10:03:35.875000,-25.0,76.8
151165,2018-06-29 10:03:35.906250,-24.69,76.8
151166,2018-06-29 10:03:35.937500,-26.84,76.8
151167,2018-06-29 10:03:35.968750,-30.25,76.8
151168,2018-06-29 10:03:36.000000,-24.56,76.8
151169,2018-06-29 10:03:36.031250,-4.68,76.8
151170,2018-06-29 10:03:36.062500,20.0,76.8
151171,2018-06-29 10:03:36.093750,37.68,76.8
151172,2018-06-29 10:03:36.125000,45.43,76.8
151173,2018-06-29 10:03:36.156250,44.72,76.8
151174,2018-06-29 10:03:36.187500,36.69,76.8
151175,2018-06-29 10:03:36.218750,24.37,76.8
151176,2018-06-29 10:03:36.250000,13.01,76.8
151177,2018-06-29 10:03:36.281250,5.06,76.8
151178,2018-06-29 10:03:36.312500,-1.1,76.8
151179,2018-06-29 10:03:36.343750,-6.6,76.8
151180,2018-06-29 10:03:36.375000,-10.46,76.8
151181,2018-06-29 10:03:36.406250,-12.9,76.8
151182,2018-06-29 10:03:36.437500,-14.93,76.8
151183,2018-06-29 10:03:36.468750,-15.4,76.8
151184,2018-06-29 10:03:36.500000,-13.33,76.8
151185,2018-06-29 10:03:36.531250,-11.26,77.05
151186,2018-06-29 10:03:36.562500,-12.75,77.05
151187,2018-06-29 10:03:36.593750,-19.13,77.05
151188,2018-06-29 10:03:36.625000,-28.48,77.05
151189,2018-06-29 10:03:36.656250,-35.62,77.05
151190,2018-06-29 10:03:36.687500,-36.03,77.05
151191,2018-06-29 10:03:36.718750,-32.0,77.05
151192,2018-06-29 10:03:36.750000,-29.85,77.05
151193,2018-06-29 10:03:36.781250,-29.7,77.05
151194,2018-06-29 10:03:36.812500,-24.96,77.05
151195,2018-06-29 10:03:36.843750,-13.07,77.05
151196,2018-06-29 10:03:36.875000,1.45,77.05
151197,2018-06-29 10:03:36.906250,15.53,77.05
151198,2018-06-29 10:03:36.937500,30.26,77.05
151199,2018-06-29 10:03:36.968750,44.45,77.05
151200,2018-06-29 10:03:37.000000,53.78,77.05
151201,2018-06-29 10:03:37.031250,57.36,77.05
151202,2018-06-29 10:03:37.062500,59.22,77.05
151203,2018-06-29 10:03:37.093750,61.48,77.05
151204,2018-06-29 10:03:37.125000,60.03,77.05
151205,2018-06-29 10:03:37.156250,50.09,77.05
151206,2018-06-29 10:03:37.187500,33.7,77.05
151207,2018-06-29 10:03:37.218750,18.54,77.05
151208,2018-06-29 10:03:37.250000,10.45,77.05
151209,2018-06-29 10:03:37.281250,9.03,77.05
151210,2018-06-29 10:03:37.312500,9.33,77.05
151211,2018-06-29 10:03:37.343750,4.89,77.05
151212,2018-06-29 10:03:37.375000,-8.72,77.05
151213,2018-06-29 10:03:37.406250,-30.0,77.05
151214,2018-06-29 10:03:37.437500,-51.8,77.05
151215,2018-06-29 10:03:37.468750,-67.77,77.05
151216,2018-06-29 10:03:37.500000,-77.44,77.05
151217,2018-06-29 10:03:37.531250,-83.17,77.25
151218,2018-06-29 10:03:37.562500,-84.58,77.25
151219,2018-06-29 10:03:37.593750,-78.26,77.25
151220,2018-06-29 10:03:37.625000,-62.79,77.25
151221,2018-06-29 10:03:37.656250,-41.63,77.25
151222,2018-06-29 10:03:37.687500,-20.13,77.25
151223,2018-06-29 10:03:37.718750,-2.15,77.25
151224,2018-06-29 10:03:37.750000,11.43,77.25
151225,2018-06-29 10:03:37.781250,23.27,77.25
151226,2018-06-29 10:03:37.812500,37.2,77.25
151227,2018-06-29 10:03:37.843750,52.68,77.25
151228,2018-06-29 10:03:37.875000,64.1,77.25
151229,2018-06-29 10:03:37.906250,66.49,77.25
151230,2018-06-29 10:03:37.937500,60.3,77.25
151231,2018-06-29 10:03:37.968750,50.22,77.25
151232,2018-06-29 10:03:38.000000,41.11,77.25
151233,2018-06-29 10:03:38.031250,34.83,77.25
151234,2018-06-29 10:03:38.062500,30.5,77.25
151235,2018-06-29 10:03:38.093750,26.49,77.25
151236,2018-06-29 10:03:38.125000,22.06,77.25
151237,2018-06-29 10:03:38.156250,17.26,77.25
151238,2018-06-29 10:03:38.187500,12.25,77.25
151239,2018-06-29 10:03:38.218750,7.44,77.25
151240,2018-06-29 10:03:38.250000,2.1,77.25
151241,2018-06-29 10:03:38.281250,-7.89,77.25
151242,2018-06-29 10:03:38.312500,-26.53,77.25
151243,2018-06-29 10:03:38.343750,-50.05,77.25
151244,2018-06-29 10:03:38.375000,-66.41,77.25
151245,2018-06-29 10:03:38.406250,-64.99,77.25
151246,2018-06-29 10:03:38.437500,-47.09,77.25
151247,2018-06-29 10:03:38.468750,-25.3,77.25
151248,2018-06-29 10:03:38.500000,-11.86,77.25
151249,2018-06-29 10:03:38.531250,-9.39,77.42
151250,2018-06-29 10:03:38.562500,-13.47,77.42
151251,2018-06-29 10:03:38.593750,-18.97,77.42
151252,2018-06-29 10:03:38.625000,-22.34,77.42
151253,2018-06-29 10:03:38.656250,-22.54,77.42
151254,2018-06-29 10:03:38.687500,-21.38,77.42
151255,2018-06-29 10:03:38.718750,-21.03,77.42
151256,2018-06-29 10:03:38.750000,-21.58,77.42
151257,2018-06-29 10:03:38.781250,-21.9,77.42
151258,2018-06-29 10:03:38.812500,-21.36,77.42
151259,2018-06-29 10:03:38.843750,-19.56,77.42
151260,2018-06-29 10:03:38.875000,-15.77,77.42
151261,2018-06-29 10:03:38.906250,-10.4,77.42
151262,2018-06-29 10:03:38.937500,-5.32,77.42
151263,2018-06-29 10:03:38.968750,-1.46,77.42
151264,2018-06-29 10:03:39.000000,1.8,77.42
151265,2018-06-29 10:03:39.031250,4.11,77.42
151266,2018-06-29 10:03:39.062500,3.05,77.42
151267,2018-06-29 10:03:39.093750,-3.66,77.42
151268,2018-06-29 10:03:39.125000,-15.68,77.42
151269,2018-06-29 10:03:39.156250,-28.76,77.42
151270,2018-06-29 10:03:39.187500,-34.66,77.42
151271,2018-06-29 10:03:39.218750,-25.67,77.42
151272,2018-06-29 10:03:39.250000,-2.27,77.42
151273,2018-06-29 10:03:39.281250,25.36,77.42
151274,2018-06-29 10:03:39.312500,46.51,77.42
151275,2018-06-29 10:03:39.343750,58.4,77.42
151276,2018-06-29 10:03:39.375000,64.29,77.42
151277,2018-06-29 10:03:39.406250,67.97,77.42
151278,2018-06-29 10:03:39.437500,72.04,77.42
151279,2018-06-29 10:03:39.468750,74.93,77.42
151280,2018-06-29 10:03:39.500000,69.2,77.42
151281,2018-06-29 10:03:39.531250,51.24,77.55
151282,2018-06-29 10:03:39.562500,30.21,77.55
151283,2018-06-29 10:03:39.593750,19.02,77.55
151284,2018-06-29 10:03:39.625000,20.53,77.55
151285,2018-06-29 10:03:39.656250,27.63,77.55
151286,2018-06-29 10:03:39.687500,31.0,77.55
151287,2018-06-29 10:03:39.718750,24.35,77.55
151288,2018-06-29 10:03:39.750000,7.45,77.55
151289,2018-06-29 10:03:39.781250,-13.94,77.55
151290,2018-06-29 10:03:39.812500,-32.41,77.55
151291,2018-06-29 10:03:39.843750,-43.73,77.55
151292,2018-06-29 10:03:39.875000,-49.49,77.55
151293,2018-06-29 10:03:39.906250,-56.4,77.55
151294,2018-06-29 10:03:39.937500,-69.74,77.55
151295,2018-06-29 10:03:39.968750,-85.15,77.55
151296,2018-06-29 10:03:40.000000,-91.16,77.55
151297,2018-06-29 10:03:40.031250,-83.08,77.55
151298,2018-06-29 10:03:40.062500,-66.83,77.55
151299,2018-06-29 10:03:40.093750,-47.82,77.55
151300,2018-06-29 10:03:40.125000,-25.65,77.55
151301,2018-06-29 10:03:40.156250,-0.23,77.55
151302,2018-06-29 10:03:40.187500,26.0,77.55
151303,2018-06-29 10:03:40.218750,51.07,77.55
151304,2018-06-29 10:03:40.250000,71.25,77.55
151305,2018-06-29 10:03:40.281250,82.73,77.55
151306,2018-06-29 10:03:40.312500,87.27,77.55
151307,2018-06-29 10:03:40.343750,91.98,77.55
151308,2018-06-29 10:03:40.375000,98.5,77.55
151309,2018-06-29 10:03:40.406250,101.02,77.55
151310,2018-06-29 10:03:40.437500,96.67,77.55
151311,2018-06-29 10:03:40.468750,90.15,77.55
151312,2018-06-29 10:03:40.500000,87.97,77.55
151313,2018-06-29 10:03:40.531250,86.92,77.77
151314,2018-06-29 10:03:40.562500,83.92,77.77
151315,2018-06-29 10:03:40.593750,81.93,77.77
151316,2018-06-29 10:03:40.625000,84.94,77.77
151317,2018-06-29 10:03:40.656250,86.21,77.77
151318,2018-06-29 10:03:40.687500,76.53,77.77
151319,2018-06-29 10:03:40.718750,58.84,77.77
151320,2018-06-29 10:03:40.750000,38.0,77.77
151321,2018-06-29 10:03:40.781250,17.15,77.77
151322,2018-06-29 10:03:40.812500,-8.04,77.77
151323,2018-06-29 10:03:40.843750,-40.73,77.77
151324,2018-06-29 10:03:40.875000,-91.13,77.77
151325,2018-06-29 10:03:40.906250,-161.3,77.77
151326,2018-06-29 10:03:40.937500,-191.5,77.77
151327,2018-06-29 10:03:40.968750,-174.22,77.77
151328,2018-06-29 10:03:41.000000,-139.44,77.77
151329,2018-06-29 10:03:41.031250,-95.71,77.77
151330,2018-06-29 10:03:41.062500,-40.99,77.77
151331,2018-06-29 10:03:41.093750,4.52,77.77
151332,2018-06-29 10:03:41.125000,27.46,77.77
151333,2018-06-29 10:03:41.156250,39.38,77.77
151334,2018-06-29 10:03:41.187500,48.22,77.77
151335,2018-06-29 10:03:41.218750,49.98,77.77
151336,2018-06-29 10:03:41.250000,40.32,77.77
151337,2018-06-29 10:03:41.281250,25.65,77.77
151338,2018-06-29 10:03:41.312500,9.58,77.77
151339,2018-06-29 10:03:41.343750,-6.97,77.77
151340,2018-06-29 10:03:41.375000,-25.3,77.77
151341,2018-06-29 10:03:41.406250,-44.31,77.77
151342,2018-06-29 10:03:41.437500,-58.34,77.77
151343,2018-06-29 10:03:41.468750,-66.12,77.77
151344,2018-06-29 10:03:41.500000,-70.43,77.77
151345,2018-06-29 10:03:41.531250,-76.59,77.98
151346,2018-06-29 10:03:41.562500,-84.75,77.98
151347,2018-06-29 10:03:41.593750,-85.87,77.98
151348,2018-06-29 10:03:41.625000,-69.53,77.98
151349,2018-06-29 10:03:41.656250,-37.98,77.98
151350,2018-06-29 10:03:41.687500,-6.88,77.98
151351,2018-06-29 10:03:41.718750,14.31,77.98
151352,2018-06-29 10:03:41.750000,29.83,77.98
151353,2018-06-29 10:03:41.781250,48.49,77.98
151354,2018-06-29 10:03:41.812500,72.32,77.98
151355,2018-06-29 10:03:41.843750,95.86,77.98
151356,2018-06-29 10:03:41.875000,113.77,77.98
151357,2018-06-29 10:03:41.906250,112.91,77.98
151358,2018-06-29 10:03:41.937500,87.96,77.98
151359,2018-06-29 10:03:41.968750,52.82,77.98
151360,2018-06-29 10:03:42.000000,20.26,77.98
151361,2018-06-29 10:03:42.031250,-2.71,77.98
151362,2018-06-29 10:03:42.062500,-19.57,77.98
151363,2018-06-29 10:03:42.093750,-29.9,77.98
151364,2018-06-29 10:03:42.125000,-35.61,77.98
151365,2018-06-29 10:03:42.156250,-40.15,77.98
151366,2018-06-29 10:03:42.187500,-51.41,77.98
151367,2018-06-29 10:03:42.218750,-64.39,77.98
151368,2018-06-29 10:03:42.250000,-76.29,77.98
151369,2018-06-29 10:03:42.281250,-90.51,77.98
151370,2018-06-29 10:03:42.312500,-108.95,77.98
151371,2018-06-29 10:03:42.343750,-128.22,77.98
151372,2018-06-29 10:03:42.375000,-138.87,77.98
151373,2018-06-29 10:03:42.406250,-129.18,77.98
151374,2018-06-29 10:03:42.437500,-92.14,77.98
151375,2018-06-29 10:03:42.468750,-35.7,77.98
151376,2018-06-29 10:03:42.500000,24.18,77.98
151377,2018-06-29 10:03:42.531250,73.68,78.17
151378,2018-06-29 10:03:42.562500,107.56,78.17
151379,2018-06-29 10:03:42.593750,123.33,78.17
151380,2018-06-29 10:03:42.625000,121.52,78.17
151381,2018-06-29 10:03:42.656250,107.65,78.17
151382,2018-06-29 10:03:42.687500,88.44,78.17
151383,2018-06-29 10:03:42.718750,68.41,78.17
151384,2018-06-29 10:03:42.750000,49.88,78.17
151385,2018-06-29 10:03:42.781250,34.16,78.17
151386,2018-06-29 10:03:42.812500,19.65,78.17
151387,2018-06-29 10:03:42.843750,4.31,78.17
151388,2018-06-29 10:03:42.875000,-11.71,78.17
151389,2018-06-29 10:03:42.906250,-26.89,78.17
151390,2018-06-29 10:03:42.937500,-40.75,78.17
151391,2018-06-29 10:03:42.968750,-53.48,78.17
151392,2018-06-29 10:03:43.000000,-64.35,78.17
151393,2018-06-29 10:03:43.031250,-72.51,78.17
151394,2018-06-29 10:03:43.062500,-78.79,78.17
151395,2018-06-29 10:03:43.093750,-85.98,78.17
151396,2018-06-29 10:03:43.125000,-95.5,78.17
151397,2018-06-29 10:03:43.156250,-103.26,78.17
151398,2018-06-29 10:03:43.187500,-100.91,78.17
151399,2018-06-29 10:03:43.218750,-83.75,78.17
151400,2018-06-29 10:03:43.250000,-55.91,78.17
151401,2018-06-29 10:03:43.281250,-26.02,78.17
151402,2018-06-29 10:03:43.312500,-0.25,78.17
151403,2018-06-29 10:03:43.343750,18.52,78.17
151404,2018-06-29 10:03:43.375000,28.38,78.17
151405,2018-06-29 10:03:43.406250,28.97,78.17
151406,2018-06-29 10:03:43.437500,23.35,78.17
151407,2018-06-29 10:03:43.468750,16.4,78.17
151408,2018-06-29 10:03:43.500000,11.52,78.17
151409,2018-06-29 10:03:43.531250,9.59,78.35
151410,2018-06-29 10:03:43.562500,10.16,78.35
151411,2018-06-29 10:03:43.593750,12.32,78.35
151412,2018-06-29 10:03:43.625000,14.21,78.35
151413,2018-06-29 10:03:43.656250,12.84,78.35
151414,2018-06-29 10:03:43.687500,5.86,78.35
151415,2018-06-29 10:03:43.718750,-5.42,78.35
151416,2018-06-29 10:03:43.750000,-16.33,78.35
151417,2018-06-29 10:03:43.781250,-23.8,78.35
151418,2018-06-29 10:03:43.812500,-29.99,78.35
151419,2018-06-29 10:03:43.843750,-39.16,78.35
151420,2018-06-29 10:03:43.875000,-50.83,78.35
151421,2018-06-29 10:03:43.906250,-56.62,78.35
151422,2018-06-29 10:03:43.937500,-47.04,78.35
151423,2018-06-29 10:03:43.968750,-22.56,78.35
151424,2018-06-29 10:03:44.000000,5.72,78.35
151425,2018-06-29 10:03:44.031250,27.68,78.35
151426,2018-06-29 10:03:44.062500,41.08,78.35
151427,2018-06-29 10:03:44.093750,47.38,78.35
151428,2018-06-29 10:03:44.125000,47.67,78.35
151429,2018-06-29 10:03:44.156250,43.65,78.35
151430,2018-06-29 10:03:44.187500,37.96,78.35
151431,2018-06-29 10:03:44.218750,31.99,78.35
151432,2018-06-29 10:03:44.250000,25.67,78.35
151433,2018-06-29 10:03:44.281250,19.35,78.35
151434,2018-06-29 10:03:44.312500,14.5,78.35
151435,2018-06-29 10:03:44.343750,11.76,78.35
151436,2018-06-29 10:03:44.375000,8.72,78.35
151437,2018-06-29 10:03:44.406250,2.25,78.35
151438,2018-06-29 10:03:44.437500,-6.96,78.35
151439,2018-06-29 10:03:44.468750,-15.19,78.35
151440,2018-06-29 10:03:44.500000,-21.48,78.35
151441,2018-06-29 10:03:44.531250,-28.99,78.53
151442,2018-06-29 10:03:44.562500,-40.71,78.53
151443,2018-06-29 10:03:44.593750,-55.5,78.53
151444,2018-06-29 10:03:44.625000,-66.34,78.53
151445,2018-06-29 10:03:44.656250,-63.45,78.53
151446,2018-06-29 10:03:44.687500,-44.0,78.53
151447,2018-06-29 10:03:44.718750,-16.48,78.53
151448,2018-06-29 10:03:44.750000,8.12,78.53
151449,2018-06-29 10:03:44.781250,25.61,78.53
151450,2018-06-29 10:03:44.812500,37.05,78.53
151451,2018-06-29 10:03:44.843750,43.84,78.53
151452,2018-06-29 10:03:44.875000,47.43,78.53
151453,2018-06-29 10:03:44.906250,49.39,78.53
151454,2018-06-29 10:03:44.937500,49.72,78.53
151455,2018-06-29 10:03:44.968750,47.32,78.53
151456,2018-06-29 10:03:45.000000,42.94,78.53
151457,2018-06-29 10:03:45.031250,39.09,78.53
151458,2018-06-29 10:03:45.062500,36.06,78.53
151459,2018-06-29 10:03:45.093750,30.54,78.53
151460,2018-06-29 10:03:45.125000,19.79,78.53
151461,2018-06-29 10:03:45.156250,6.18,78.53
151462,2018-06-29 10:03:45.187500,-5.01,78.53
151463,2018-06-29 10:03:45.218750,-11.72,78.53
151464,2018-06-29 10:03:45.250000,-16.71,78.53
151465,2018-06-29 10:03:45.281250,-22.11,78.53
151466,2018-06-29 10:03:45.312500,-24.66,78.53
151467,2018-06-29 10:03:45.343750,-16.68,78.53
151468,2018-06-29 10:03:45.375000,8.07,78.53
151469,2018-06-29 10:03:45.406250,45.62,78.53
151470,2018-06-29 10:03:45.437500,81.1,78.53
151471,2018-06-29 10:03:45.468750,102.16,78.53
151472,2018-06-29 10:03:45.500000,109.61,78.53
151473,2018-06-29 10:03:45.531250,110.21,78.73
151474,2018-06-29 10:03:45.562500,105.22,78.73
151475,2018-06-29 10:03:45.593750,92.37,78.73
151476,2018-06-29 10:03:45.625000,73.93,78.73
151477,2018-06-29 10:03:45.656250,55.66,78.73
151478,2018-06-29 10:03:45.687500,40.62,78.73
151479,2018-06-29 10:03:45.718750,27.49,78.73
151480,2018-06-29 10:03:45.750000,13.64,78.73
151481,2018-06-29 10:03:45.781250,-1.37,78.73
151482,2018-06-29 10:03:45.812500,-14.83,78.73
151483,2018-06-29 10:03:45.843750,-23.93,78.73
151484,2018-06-29 10:03:45.875000,-29.29,78.73
151485,2018-06-29 10:03:45.906250,-33.77,78.73
151486,2018-06-29 10:03:45.937500,-39.83,78.73
151487,2018-06-29 10:03:45.968750,-49.23,78.73
151488,2018-06-29 10:03:46.000000,-62.1,78.73
151489,2018-06-29 10:03:46.031250,-76.52,78.73
151490,2018-06-29 10:03:46.062500,-90.8,78.73
151491,2018-06-29 10:03:46.093750,-103.22,78.73
151492,2018-06-29 10:03:46.125000,-107.58,78.73
151493,2018-06-29 10:03:46.156250,-95.35,78.73
151494,2018-06-29 10:03:46.187500,-66.88,78.73
151495,2018-06-29 10:03:46.218750,-34.59,78.73
151496,2018-06-29 10:03:46.250000,-10.83,78.73
151497,2018-06-29 10:03:46.281250,2.71,78.73
151498,2018-06-29 10:03:46.312500,10.65,78.73
151499,2018-06-29 10:03:46.343750,15.16,78.73
151500,2018-06-29 10:03:46.375000,15.41,78.73
151501,2018-06-29 10:03:46.406250,11.55,78.73
151502,2018-06-29 10:03:46.437500,5.85,78.73
151503,2018-06-29 10:03:46.468750,1.33,78.73
151504,2018-06-29 10:03:46.500000,1.03,78.73
151505,2018-06-29 10:03:46.531250,6.19,78.92
151506,2018-06-29 10:03:46.562500,13.57,78.92
151507,2018-06-29 10:03:46.593750,17.98,78.92
151508,2018-06-29 10:03:46.625000,18.67,78.92
151509,2018-06-29 10:03:46.656250,18.76,78.92
151510,2018-06-29 10:03:46.687500,19.41,78.92
151511,2018-06-29 10:03:46.718750,19.36,78.92
151512,2018-06-29 10:03:46.750000,17.99,78.92
151513,2018-06-29 10:03:46.781250,15.58,78.92
151514,2018-06-29 10:03:46.812500,12.31,78.92
151515,2018-06-29 10:03:46.843750,7.99,78.92
151516,2018-06-29 10:03:46.875000,2.16,78.92
151517,2018-06-29 10:03:46.906250,-2.64,78.92
151518,2018-06-29 10:03:46.937500,0.02,78.92
151519,2018-06-29 10:03:46.968750,13.14,78.92
151520,2018-06-29 10:03:47.000000,31.54,78.92
151521,2018-06-29 10:03:47.031250,47.79,78.92
151522,2018-06-29 10:03:47.062500,58.85,78.92
151523,2018-06-29 10:03:47.093750,65.98,78.92
151524,2018-06-29 10:03:47.125000,71.6,78.92
151525,2018-06-29 10:03:47.156250,74.47,78.92
151526,2018-06-29 10:03:47.187500,68.78,78.92
151527,2018-06-29 10:03:47.218750,52.97,78.92
151528,2018-06-29 10:03:47.250000,34.56,78.92
151529,2018-06-29 10:03:47.281250,20.52,78.92
151530,2018-06-29 10:03:47.312500,10.25,78.92
151531,2018-06-29 10:03:47.343750,1.92,78.92
151532,2018-06-29 10:03:47.375000,-3.61,78.92
151533,2018-06-29 10:03:47.406250,-7.82,78.92
151534,2018-06-29 10:03:47.437500,-14.62,78.92
151535,2018-06-29 10:03:47.468750,-24.15,78.92
151536,2018-06-29 10:03:47.500000,-33.21,78.92
151537,2018-06-29 10:03:47.531250,-40.77,79.07
151538,2018-06-29 10:03:47.562500,-47.31,79.07
151539,2018-06-29 10:03:47.593750,-50.48,79.07
151540,2018-06-29 10:03:47.625000,-47.18,79.07
151541,2018-06-29 10:03:47.656250,-38.27,79.07
151542,2018-06-29 10:03:47.687500,-26.93,79.07
151543,2018-06-29 10:03:47.718750,-16.12,79.07
151544,2018-06-29 10:03:47.750000,-9.77,79.07
151545,2018-06-29 10:03:47.781250,-10.19,79.07
151546,2018-06-29 10:03:47.812500,-14.93,79.07
151547,2018-06-29 10:03:47.843750,-18.26,79.07
151548,2018-06-29 10:03:47.875000,-11.16,79.07
151549,2018-06-29 10:03:47.906250,18.48,79.07
151550,2018-06-29 10:03:47.937500,74.42,79.07
151551,2018-06-29 10:03:47.968750,141.03,79.07
151552,2018-06-29 10:03:48.000000,191.0,79.07
151553,2018-06-29 10:03:48.031250,203.03,79.07
151554,2018-06-29 10:03:48.062500,172.29,79.07
151555,2018-06-29 10:03:48.093750,111.15,79.07
151556,2018-06-29 10:03:48.125000,41.54,79.07
151557,2018-06-29 10:03:48.156250,-16.63,79.07
151558,2018-06-29 10:03:48.187500,-52.92,79.07
151559,2018-06-29 10:03:48.218750,-67.0,79.07
151560,2018-06-29 10:03:48.250000,-65.48,79.07
151561,2018-06-29 10:03:48.281250,-56.19,79.07
151562,2018-06-29 10:03:48.312500,-43.51,79.07
151563,2018-06-29 10:03:48.343750,-30.52,79.07
151564,2018-06-29 10:03:48.375000,-22.54,79.07
151565,2018-06-29 10:03:48.406250,-23.09,79.07
151566,2018-06-29 10:03:48.437500,-27.97,79.07
151567,2018-06-29 10:03:48.468750,-29.31,79.07
151568,2018-06-29 10:03:48.500000,-25.15,79.07
151569,2018-06-29 10:03:48.531250,-19.5,79.25
151570,2018-06-29 10:03:48.562500,-14.57,79.25
151571,2018-06-29 10:03:48.593750,-9.2,79.25
151572,2018-06-29 10:03:48.625000,-3.76,79.25
151573,2018-06-29 10:03:48.656250,-0.62,79.25
151574,2018-06-29 10:03:48.687500,-0.28,79.25
151575,2018-06-29 10:03:48.718750,-0.83,79.25
151576,2018-06-29 10:03:48.750000,-0.94,79.25
151577,2018-06-29 10:03:48.781250,-2.0,79.25
151578,2018-06-29 10:03:48.812500,-7.03,79.25
151579,2018-06-29 10:03:48.843750,-16.59,79.25
151580,2018-06-29 10:03:48.875000,-25.47,79.25
151581,2018-06-29 10:03:48.906250,-26.36,79.25
151582,2018-06-29 10:03:48.937500,-20.24,79.25
151583,2018-06-29 10:03:48.968750,-18.71,79.25
151584,2018-06-29 10:03:49.000000,-29.22,79.25
151585,2018-06-29 10:03:49.031250,-43.14,79.25
151586,2018-06-29 10:03:49.062500,-47.64,79.25
151587,2018-06-29 10:03:49.093750,-43.09,79.25
151588,2018-06-29 10:03:49.125000,-39.48,79.25
151589,2018-06-29 10:03:49.156250,-42.63,79.25
151590,2018-06-29 10:03:49.187500,-50.63,79.25
151591,2018-06-29 10:03:49.218750,-56.91,79.25
151592,2018-06-29 10:03:49.250000,-54.95,79.25
151593,2018-06-29 10:03:49.281250,-44.53,79.25
151594,2018-06-29 10:03:49.312500,-31.49,79.25
151595,2018-06-29 10:03:49.343750,-20.57,79.25
151596,2018-06-29 10:03:49.375000,-11.8,79.25
151597,2018-06-29 10:03:49.406250,-3.44,79.25
151598,2018-06-29 10:03:49.437500,5.1,79.25
151599,2018-06-29 10:03:49.468750,13.18,79.25
151600,2018-06-29 10:03:49.500000,20.02,79.25
151601,2018-06-29 10:03:49.531250,25.18,79.32
151602,2018-06-29 10:03:49.562500,27.61,79.32
151603,2018-06-29 10:03:49.593750,26.31,79.32
151604,2018-06-29 10:03:49.625000,22.66,79.32
151605,2018-06-29 10:03:49.656250,20.56,79.32
151606,2018-06-29 10:03:49.687500,21.87,79.32
151607,2018-06-29 10:03:49.718750,23.89,79.32
151608,2018-06-29 10:03:49.750000,23.72,79.32
151609,2018-06-29 10:03:49.781250,22.21,79.32
151610,2018-06-29 10:03:49.812500,20.66,79.32
151611,2018-06-29 10:03:49.843750,16.75,79.32
151612,2018-06-29 10:03:49.875000,8.34,79.32
151613,2018-06-29 10:03:49.906250,-3.75,79.32
151614,2018-06-29 10:03:49.937500,-16.15,79.32
151615,2018-06-29 10:03:49.968750,-24.39,79.32
151616,2018-06-29 10:03:50.000000,-25.01,79.32
151617,2018-06-29 10:03:50.031250,-19.83,79.32
151618,2018-06-29 10:03:50.062500,-14.04,79.32
151619,2018-06-29 10:03:50.093750,-10.19,79.32
151620,2018-06-29 10:03:50.125000,-8.8,79.32
151621,2018-06-29 10:03:50.156250,-8.92,79.32
151622,2018-06-29 10:03:50.187500,-10.79,79.32
151623,2018-06-29 10:03:50.218750,-11.51,79.32
151624,2018-06-29 10:03:50.250000,-8.5,79.32
151625,2018-06-29 10:03:50.281250,-2.38,79.32
151626,2018-06-29 10:03:50.312500,1.64,79.32
151627,2018-06-29 10:03:50.343750,-0.54,79.32
151628,2018-06-29 10:03:50.375000,-5.2,79.32
151629,2018-06-29 10:03:50.406250,-12.14,79.32
151630,2018-06-29 10:03:50.437500,-27.0,79.32
151631,2018-06-29 10:03:50.468750,-57.42,79.32
151632,2018-06-29 10:03:50.500000,-94.49,79.32
151633,2018-06-29 10:03:50.531250,-128.47,79.4
151634,2018-06-29 10:03:50.562500,-153.18,79.4
151635,2018-06-29 10:03:50.593750,-129.72,79.4
151636,2018-06-29 10:03:50.625000,-68.05,79.4
151637,2018-06-29 10:03:50.656250,-2.67,79.4
151638,2018-06-29 10:03:50.687500,59.85,79.4
151639,2018-06-29 10:03:50.718750,120.22,79.4
151640,2018-06-29 10:03:50.750000,170.88,79.4
151641,2018-06-29 10:03:50.781250,206.4,79.4
151642,2018-06-29 10:03:50.812500,219.49,79.4
151643,2018-06-29 10:03:50.843750,211.76,79.4
151644,2018-06-29 10:03:50.875000,179.25,79.4
151645,2018-06-29 10:03:50.906250,109.84,79.4
151646,2018-06-29 10:03:50.937500,37.17,79.4
151647,2018-06-29 10:03:50.968750,-21.0,79.4
151648,2018-06-29 10:03:51.000000,-63.13,79.4
151649,2018-06-29 10:03:51.031250,-97.39,79.4
151650,2018-06-29 10:03:51.062500,-118.55,79.4
151651,2018-06-29 10:03:51.093750,-124.92,79.4
151652,2018-06-29 10:03:51.125000,-118.11,79.4
151653,2018-06-29 10:03:51.156250,-104.89,79.4
151654,2018-06-29 10:03:51.187500,-93.32,79.4
151655,2018-06-29 10:03:51.218750,-79.44,79.4
151656,2018-06-29 10:03:51.250000,-65.11,79.4
151657,2018-06-29 10:03:51.281250,-48.13,79.4
151658,2018-06-29 10:03:51.312500,-31.48,79.4
151659,2018-06-29 10:03:51.343750,-19.08,79.4
151660,2018-06-29 10:03:51.375000,-15.45,79.4
151661,2018-06-29 10:03:51.406250,-18.54,79.4
151662,2018-06-29 10:03:51.437500,-6.11,79.4
151663,2018-06-29 10:03:51.468750,42.48,79.4
151664,2018-06-29 10:03:51.500000,103.56,79.4
151665,2018-06-29 10:03:51.531250,144.49,79.43
151666,2018-06-29 10:03:51.562500,159.43,79.43
151667,2018-06-29 10:03:51.593750,150.71,79.43
151668,2018-06-29 10:03:51.625000,126.95,79.43
151669,2018-06-29 10:03:51.656250,102.72,79.43
151670,2018-06-29 10:03:51.687500,86.9,79.43
151671,2018-06-29 10:03:51.718750,73.44,79.43
151672,2018-06-29 10:03:51.750000,45.71,79.43
151673,2018-06-29 10:03:51.781250,7.95,79.43
151674,2018-06-29 10:03:51.812500,-25.82,79.43
151675,2018-06-29 10:03:51.843750,-15.84,79.43
151676,2018-06-29 10:03:51.875000,48.99,79.43
151677,2018-06-29 10:03:51.906250,104.47,79.43
151678,2018-06-29 10:03:51.937500,138.05,79.43
151679,2018-06-29 10:03:51.968750,167.1,79.43
151680,2018-06-29 10:03:52.000000,186.18,79.43
151681,2018-06-29 10:03:52.031250,174.94,79.43
151682,2018-06-29 10:03:52.062500,131.31,79.43
151683,2018-06-29 10:03:52.093750,61.94,79.43
151684,2018-06-29 10:03:52.125000,-8.8,79.43
151685,2018-06-29 10:03:52.156250,-43.89,79.43
151686,2018-06-29 10:03:52.187500,-31.33,79.43
151687,2018-06-29 10:03:52.218750,-8.32,79.43
151688,2018-06-29 10:03:52.250000,-1.84,79.43
151689,2018-06-29 10:03:52.281250,8.12,79.43
151690,2018-06-29 10:03:52.312500,32.14,79.43
151691,2018-06-29 10:03:52.343750,45.47,79.43
151692,2018-06-29 10:03:52.375000,30.89,79.43
151693,2018-06-29 10:03:52.406250,-0.85,79.43
151694,2018-06-29 10:03:52.437500,-47.26,79.43
151695,2018-06-29 10:03:52.468750,-109.81,79.43
151696,2018-06-29 10:03:52.500000,-179.63,79.43
151697,2018-06-29 10:03:52.531250,-236.65,79.52
151698,2018-06-29 10:03:52.562500,-279.69,79.52
151699,2018-06-29 10:03:52.593750,-321.25,79.52
151700,2018-06-29 10:03:52.625000,-372.97,79.52
151701,2018-06-29 10:03:52.656250,-446.8,79.52
151702,2018-06-29 10:03:52.687500,-536.77,79.52
151703,2018-06-29 10:03:52.718750,-604.57,79.52
151704,2018-06-29 10:03:52.750000,-588.62,79.52
151705,2018-06-29 10:03:52.781250,-498.06,79.52
151706,2018-06-29 10:03:52.812500,-389.3,79.52
151707,2018-06-29 10:03:52.843750,-297.58,79.52
151708,2018-06-29 10:03:52.875000,-203.17,79.52
151709,2018-06-29 10:03:52.906250,-87.86,79.52
151710,2018-06-29 10:03:52.937500,33.18,79.52
151711,2018-06-29 10:03:52.968750,215.05,79.52
151712,2018-06-29 10:03:53.000000,376.46,79.52
151713,2018-06-29 10:03:53.031250,418.54,79.52
151714,2018-06-29 10:03:53.062500,383.84,79.52
151715,2018-06-29 10:03:53.093750,329.45,79.52
151716,2018-06-29 10:03:53.125000,275.04,79.52
151717,2018-06-29 10:03:53.156250,230.86,79.52
151718,2018-06-29 10:03:53.187500,200.18,79.52
151719,2018-06-29 10:03:53.218750,170.92,79.52
151720,2018-06-29 10:03:53.250000,139.56,79.52
151721,2018-06-29 10:03:53.281250,101.62,79.52
151722,2018-06-29 10:03:53.312500,69.82,79.52
151723,2018-06-29 10:03:53.343750,45.58,79.52
151724,2018-06-29 10:03:53.375000,29.19,79.52
151725,2018-06-29 10:03:53.406250,21.34,79.52
151726,2018-06-29 10:03:53.437500,26.3,79.52
151727,2018-06-29 10:03:53.468750,43.08,79.52
151728,2018-06-29 10:03:53.500000,52.08,79.52
151729,2018-06-29 10:03:53.531250,38.54,79.6
151730,2018-06-29 10:03:53.562500,10.36,79.6
151731,2018-06-29 10:03:53.593750,-5.95,79.6
151732,2018-06-29 10:03:53.625000,-5.84,79.6
151733,2018-06-29 10:03:53.656250,-3.53,79.6
151734,2018-06-29 10:03:53.687500,-6.22,79.6
151735,2018-06-29 10:03:53.718750,-10.07,79.6
151736,2018-06-29 10:03:53.750000,-12.47,79.6
151737,2018-06-29 10:03:53.781250,-16.98,79.6
151738,2018-06-29 10:03:53.812500,-21.92,79.6
151739,2018-06-29 10:03:53.843750,-23.28,79.6
151740,2018-06-29 10:03:53.875000,-22.03,79.6
151741,2018-06-29 10:03:53.906250,-20.4,79.6
151742,2018-06-29 10:03:53.937500,-17.28,79.6
151743,2018-06-29 10:03:53.968750,-12.74,79.6
151744,2018-06-29 10:03:54.000000,-11.02,79.6
151745,2018-06-29 10:03:54.031250,-14.23,79.6
151746,2018-06-29 10:03:54.062500,-19.25,79.6
151747,2018-06-29 10:03:54.093750,-22.98,79.6
151748,2018-06-29 10:03:54.125000,-28.51,79.6
151749,2018-06-29 10:03:54.156250,-41.28,79.6
151750,2018-06-29 10:03:54.187500,-60.35,79.6
151751,2018-06-29 10:03:54.218750,-73.37,79.6
151752,2018-06-29 10:03:54.250000,-65.3,79.6
151753,2018-06-29 10:03:54.281250,-34.72,79.6
151754,2018-06-29 10:03:54.312500,4.03,79.6
151755,2018-06-29 10:03:54.343750,36.26,79.6
151756,2018-06-29 10:03:54.375000,57.74,79.6
151757,2018-06-29 10:03:54.406250,71.19,79.6
151758,2018-06-29 10:03:54.437500,78.34,79.6
151759,2018-06-29 10:03:54.468750,79.09,79.6
151760,2018-06-29 10:03:54.500000,74.19,79.6
151761,2018-06-29 10:03:54.531250,66.37,79.72
151762,2018-06-29 10:03:54.562500,57.39,79.72
151763,2018-06-29 10:03:54.593750,47.05,79.72
151764,2018-06-29 10:03:54.625000,36.09,79.72
151765,2018-06-29 10:03:54.656250,25.58,79.72
151766,2018-06-29 10:03:54.687500,17.93,79.72
151767,2018-06-29 10:03:54.718750,11.2,79.72
151768,2018-06-29 10:03:54.750000,5.65,79.72
151769,2018-06-29 10:03:54.781250,4.89,79.72
151770,2018-06-29 10:03:54.812500,13.62,79.72
151771,2018-06-29 10:03:54.843750,26.57,79.72
151772,2018-06-29 10:03:54.875000,35.6,79.72
151773,2018-06-29 10:03:54.906250,51.71,79.72
151774,2018-06-29 10:03:54.937500,90.34,79.72
151775,2018-06-29 10:03:54.968750,152.24,79.72
151776,2018-06-29 10:03:55.000000,207.7,79.72
151777,2018-06-29 10:03:55.031250,236.19,79.72
151778,2018-06-29 10:03:55.062500,235.95,79.72
151779,2018-06-29 10:03:55.093750,218.47,79.72
151780,2018-06-29 10:03:55.125000,195.44,79.72
151781,2018-06-29 10:03:55.156250,164.44,79.72
151782,2018-06-29 10:03:55.187500,113.3,79.72
151783,2018-06-29 10:03:55.218750,-19.71,79.72
151784,2018-06-29 10:03:55.250000,-189.51,79.72
151785,2018-06-29 10:03:55.281250,-258.16,79.72
151786,2018-06-29 10:03:55.312500,-211.76,79.72
151787,2018-06-29 10:03:55.343750,-99.97,79.72
151788,2018-06-29 10:03:55.375000,36.41,79.72
151789,2018-06-29 10:03:55.406250,134.52,79.72
151790,2018-06-29 10:03:55.437500,142.54,79.72
151791,2018-06-29 10:03:55.468750,86.71,79.72
151792,2018-06-29 10:03:55.500000,18.74,79.72
151793,2018-06-29 10:03:55.531250,-29.61,79.85
151794,2018-06-29 10:03:55.562500,-63.93,79.85
151795,2018-06-29 10:03:55.593750,-89.83,79.85
151796,2018-06-29 10:03:55.625000,-104.38,79.85
151797,2018-06-29 10:03:55.656250,-110.41,79.85
151798,2018-06-29 10:03:55.687500,-116.92,79.85
151799,2018-06-29 10:03:55.718750,-118.85,79.85
151800,2018-06-29 10:03:55.750000,-105.25,79.85
151801,2018-06-29 10:03:55.781250,-89.63,79.85
151802,2018-06-29 10:03:55.812500,-85.14,79.85
151803,2018-06-29 10:03:55.843750,-81.19,79.85
151804,2018-06-29 10:03:55.875000,-67.94,79.85
151805,2018-06-29 10:03:55.906250,-58.79,79.85
151806,2018-06-29 10:03:55.937500,-61.51,79.85
151807,2018-06-29 10:03:55.968750,-61.87,79.85
151808,2018-06-29 10:03:56.000000,-48.96,79.85
151809,2018-06-29 10:03:56.031250,-30.5,79.85
151810,2018-06-29 10:03:56.062500,-18.14,79.85
151811,2018-06-29 10:03:56.093750,-14.13,79.85
151812,2018-06-29 10:03:56.125000,-15.03,79.85
151813,2018-06-29 10:03:56.156250,-19.05,79.85
151814,2018-06-29 10:03:56.187500,-25.82,79.85
151815,2018-06-29 10:03:56.218750,-33.3,79.85
151816,2018-06-29 10:03:56.250000,-40.24,79.85
151817,2018-06-29 10:03:56.281250,-45.3,79.85
151818,2018-06-29 10:03:56.312500,-40.46,79.85
151819,2018-06-29 10:03:56.343750,-16.88,79.85
151820,2018-06-29 10:03:56.375000,20.21,79.85
151821,2018-06-29 10:03:56.406250,54.52,79.85
151822,2018-06-29 10:03:56.437500,76.14,79.85
151823,2018-06-29 10:03:56.468750,85.75,79.85
151824,2018-06-29 10:03:56.500000,85.8,79.85
151825,2018-06-29 10:03:56.531250,77.92,80.0
151826,2018-06-29 10:03:56.562500,65.93,80.0
151827,2018-06-29 10:03:56.593750,54.05,80.0
151828,2018-06-29 10:03:56.625000,42.49,80.0
151829,2018-06-29 10:03:56.656250,28.7,80.0
151830,2018-06-29 10:03:56.687500,12.96,80.0
151831,2018-06-29 10:03:56.718750,-1.46,80.0
151832,2018-06-29 10:03:56.750000,-13.57,80.0
151833,2018-06-29 10:03:56.781250,-24.91,80.0
151834,2018-06-29 10:03:56.812500,-34.72,80.0
151835,2018-06-29 10:03:56.843750,-39.7,80.0
151836,2018-06-29 10:03:56.875000,-39.24,80.0
151837,2018-06-29 10:03:56.906250,-36.94,80.0
151838,2018-06-29 10:03:56.937500,-36.67,80.0
151839,2018-06-29 10:03:56.968750,-40.21,80.0
151840,2018-06-29 10:03:57.000000,-45.34,80.0
151841,2018-06-29 10:03:57.031250,-43.87,80.0
151842,2018-06-29 10:03:57.062500,-27.7,80.0
151843,2018-06-29 10:03:57.093750,0.21,80.0
151844,2018-06-29 10:03:57.125000,27.27,80.0
151845,2018-06-29 10:03:57.156250,44.27,80.0
151846,2018-06-29 10:03:57.187500,50.96,80.0
151847,2018-06-29 10:03:57.218750,50.17,80.0
151848,2018-06-29 10:03:57.250000,44.04,80.0
151849,2018-06-29 10:03:57.281250,35.99,80.0
151850,2018-06-29 10:03:57.312500,30.1,80.0
151851,2018-06-29 10:03:57.343750,26.93,80.0
151852,2018-06-29 10:03:57.375000,22.85,80.0
151853,2018-06-29 10:03:57.406250,15.75,80.0
151854,2018-06-29 10:03:57.437500,8.35,80.0
151855,2018-06-29 10:03:57.468750,3.1,80.0
151856,2018-06-29 10:03:57.500000,-2.62,80.0
151857,2018-06-29 10:03:57.531250,-12.09,80.15
151858,2018-06-29 10:03:57.562500,-23.56,80.15
151859,2018-06-29 10:03:57.593750,-33.17,80.15
151860,2018-06-29 10:03:57.625000,-40.03,80.15
151861,2018-06-29 10:03:57.656250,-45.99,80.15
151862,2018-06-29 10:03:57.687500,-53.32,80.15
151863,2018-06-29 10:03:57.718750,-61.69,80.15
151864,2018-06-29 10:03:57.750000,-64.89,80.15
151865,2018-06-29 10:03:57.781250,-54.74,80.15
151866,2018-06-29 10:03:57.812500,-31.41,80.15
151867,2018-06-29 10:03:57.843750,-4.82,80.15
151868,2018-06-29 10:03:57.875000,15.64,80.15
151869,2018-06-29 10:03:57.906250,27.29,80.15
151870,2018-06-29 10:03:57.937500,30.65,80.15
151871,2018-06-29 10:03:57.968750,27.2,80.15
151872,2018-06-29 10:03:58.000000,21.06,80.15
151873,2018-06-29 10:03:58.031250,16.91,80.15
151874,2018-06-29 10:03:58.062500,15.39,80.15
151875,2018-06-29 10:03:58.093750,13.94,80.15
151876,2018-06-29 10:03:58.125000,11.51,80.15
151877,2018-06-29 10:03:58.156250,9.25,80.15
151878,2018-06-29 10:03:58.187500,7.08,80.15
151879,2018-06-29 10:03:58.218750,3.12,80.15
151880,2018-06-29 10:03:58.250000,-3.09,80.15
151881,2018-06-29 10:03:58.281250,-9.25,80.15
151882,2018-06-29 10:03:58.312500,-13.14,80.15
151883,2018-06-29 10:03:58.343750,-15.72,80.15
151884,2018-06-29 10:03:58.375000,-20.24,80.15
151885,2018-06-29 10:03:58.406250,-28.09,80.15
151886,2018-06-29 10:03:58.437500,-35.93,80.15
151887,2018-06-29 10:03:58.468750,-36.42,80.15
151888,2018-06-29 10:03:58.500000,-24.53,80.15
151889,2018-06-29 10:03:58.531250,-4.34,80.2
151890,2018-06-29 10:03:58.562500,13.86,80.2
151891,2018-06-29 10:03:58.593750,23.99,80.2
151892,2018-06-29 10:03:58.625000,27.17,80.2
151893,2018-06-29 10:03:58.656250,25.44,80.2
151894,2018-06-29 10:03:58.687500,19.82,80.2
151895,2018-06-29 10:03:58.718750,13.57,80.2
151896,2018-06-29 10:03:58.750000,10.44,80.2
151897,2018-06-29 10:03:58.781250,9.97,80.2
151898,2018-06-29 10:03:58.812500,9.19,80.2
151899,2018-06-29 10:03:58.843750,7.45,80.2
151900,2018-06-29 10:03:58.875000,5.78,80.2
151901,2018-06-29 10:03:58.906250,3.37,80.2
151902,2018-06-29 10:03:58.937500,-1.36,80.2
151903,2018-06-29 10:03:58.968750,-7.34,80.2
151904,2018-06-29 10:03:59.000000,-12.08,80.2
151905,2018-06-29 10:03:59.031250,-15.72,80.2
151906,2018-06-29 10:03:59.062500,-20.77,80.2
151907,2018-06-29 10:03:59.093750,-28.46,80.2
151908,2018-06-29 10:03:59.125000,-36.35,80.2
151909,2018-06-29 10:03:59.156250,-38.06,80.2
151910,2018-06-29 10:03:59.187500,-28.2,80.2
151911,2018-06-29 10:03:59.218750,-9.6,80.2
151912,2018-06-29 10:03:59.250000,8.8,80.2
151913,2018-06-29 10:03:59.281250,21.23,80.2
151914,2018-06-29 10:03:59.312500,26.99,80.2
151915,2018-06-29 10:03:59.343750,26.32,80.2
151916,2018-06-29 10:03:59.375000,20.86,80.2
151917,2018-06-29 10:03:59.406250,15.03,80.2
151918,2018-06-29 10:03:59.437500,12.11,80.2
151919,2018-06-29 10:03:59.468750,11.1,80.2
151920,2018-06-29 10:03:59.500000,9.63,80.2
151921,2018-06-29 10:03:59.531250,7.39,80.27
151922,2018-06-29 10:03:59.562500,4.8,80.27
151923,2018-06-29 10:03:59.593750,1.04,80.27
151924,2018-06-29 10:03:59.625000,-4.72,80.27
151925,2018-06-29 10:03:59.656250,-11.27,80.27
151926,2018-06-29 10:03:59.687500,-16.64,80.27
151927,2018-06-29 10:03:59.718750,-20.77,80.27
151928,2018-06-29 10:03:59.750000,-25.85,80.27
151929,2018-06-29 10:03:59.781250,-33.69,80.27
151930,2018-06-29 10:03:59.812500,-42.14,80.27
151931,2018-06-29 10:03:59.843750,-43.97,80.27
151932,2018-06-29 10:03:59.875000,-33.03,80.27
151933,2018-06-29 10:03:59.906250,-12.56,80.27
151934,2018-06-29 10:03:59.937500,7.29,80.27
151935,2018-06-29 10:03:59.968750,19.96,80.27
151936,2018-06-29 10:04:00.000000,25.14,80.27
151937,2018-06-29 10:04:00.031250,23.84,80.27
151938,2018-06-29 10:04:00.062500,17.7,80.27
151939,2018-06-29 10:04:00.093750,10.89,80.27
151940,2018-06-29 10:04:00.125000,6.89,80.27
151941,2018-06-29 10:04:00.156250,5.22,80.27
151942,2018-06-29 10:04:00.187500,3.84,80.27
151943,2018-06-29 10:04:00.218750,2.26,80.27
151944,2018-06-29 10:04:00.250000,-0.01,80.27
151945,2018-06-29 10:04:00.281250,-4.92,80.27
151946,2018-06-29 10:04:00.312500,-13.24,80.27
151947,2018-06-29 10:04:00.343750,-22.55,80.27
151948,2018-06-29 10:04:00.375000,-29.51,80.27
151949,2018-06-29 10:04:00.406250,-33.97,80.27
151950,2018-06-29 10:04:00.437500,-37.97,80.27
151951,2018-06-29 10:04:00.468750,-42.15,80.27
151952,2018-06-29 10:04:00.500000,-42.72,80.27
151953,2018-06-29 10:04:00.531250,-32.83,80.33
151954,2018-06-29 10:04:00.562500,-8.8,80.33
151955,2018-06-29 10:04:00.593750,24.5,80.33
151956,2018-06-29 10:04:00.625000,57.67,80.33
151957,2018-06-29 10:04:00.656250,86.51,80.33
151958,2018-06-29 10:04:00.687500,109.68,80.33
151959,2018-06-29 10:04:00.718750,127.02,80.33
151960,2018-06-29 10:04:00.750000,139.3,80.33
151961,2018-06-29 10:04:00.781250,149.3,80.33
151962,2018-06-29 10:04:00.812500,154.69,80.33
151963,2018-06-29 10:04:00.843750,150.82,80.33
151964,2018-06-29 10:04:00.875000,140.25,80.33
151965,2018-06-29 10:04:00.906250,126.94,80.33
151966,2018-06-29 10:04:00.937500,113.05,80.33
151967,2018-06-29 10:04:00.968750,96.39,80.33
151968,2018-06-29 10:04:01.000000,83.77,80.33
151969,2018-06-29 10:04:01.031250,79.95,80.33
151970,2018-06-29 10:04:01.062500,79.56,80.33
151971,2018-06-29 10:04:01.093750,67.62,80.33
151972,2018-06-29 10:04:01.125000,32.0,80.33
151973,2018-06-29 10:04:01.156250,-24.07,80.33
151974,2018-06-29 10:04:01.187500,-108.12,80.33
151975,2018-06-29 10:04:01.218750,-174.98,80.33
151976,2018-06-29 10:04:01.250000,-173.76,80.33
151977,2018-06-29 10:04:01.281250,-129.32,80.33
151978,2018-06-29 10:04:01.312500,-78.79,80.33
151979,2018-06-29 10:04:01.343750,-31.91,80.33
151980,2018-06-29 10:04:01.375000,10.37,80.33
151981,2018-06-29 10:04:01.406250,38.19,80.33
151982,2018-06-29 10:04:01.437500,53.06,80.33
151983,2018-06-29 10:04:01.468750,61.67,80.33
151984,2018-06-29 10:04:01.500000,65.92,80.33
151985,2018-06-29 10:04:01.531250,59.46,80.43
151986,2018-06-29 10:04:01.562500,43.76,80.43
151987,2018-06-29 10:04:01.593750,28.0,80.43
151988,2018-06-29 10:04:01.625000,12.33,80.43
151989,2018-06-29 10:04:01.656250,-11.88,80.43
151990,2018-06-29 10:04:01.687500,-45.36,80.43
151991,2018-06-29 10:04:01.718750,-76.63,80.43
151992,2018-06-29 10:04:01.750000,-101.67,80.43
151993,2018-06-29 10:04:01.781250,-124.15,80.43
151994,2018-06-29 10:04:01.812500,-146.39,80.43
151995,2018-06-29 10:04:01.843750,-161.21,80.43
151996,2018-06-29 10:04:01.875000,-159.93,80.43
151997,2018-06-29 10:04:01.906250,-141.6,80.43
151998,2018-06-29 10:04:01.937500,-114.1,80.43
151999,2018-06-29 10:04:01.968750,-88.46,80.43
152000,2018-06-29 10:04:02.000000,-66.49,80.43
152001,2018-06-29 10:04:02.031250,-48.3,80.43
152002,2018-06-29 10:04:02.062500,-39.74,80.43
152003,2018-06-29 10:04:02.093750,-55.19,80.43
152004,2018-06-29 10:04:02.125000,-89.11,80.43
152005,2018-06-29 10:04:02.156250,-108.28,80.43
152006,2018-06-29 10:04:02.187500,-87.03,80.43
152007,2018-06-29 10:04:02.218750,-47.3,80.43
152008,2018-06-29 10:04:02.250000,-38.67,80.43
152009,2018-06-29 10:04:02.281250,-53.54,80.43
152010,2018-06-29 10:04:02.312500,-26.65,80.43
152011,2018-06-29 10:04:02.343750,84.9,80.43
152012,2018-06-29 10:04:02.375000,233.11,80.43
152013,2018-06-29 10:04:02.406250,344.21,80.43
152014,2018-06-29 10:04:02.437500,377.16,80.43
152015,2018-06-29 10:04:02.468750,280.7,80.43
152016,2018-06-29 10:04:02.500000,127.35,80.43
152017,2018-06-29 10:04:02.531250,4.25,80.5
152018,2018-06-29 10:04:02.562500,-80.9,80.5
152019,2018-06-29 10:04:02.593750,-133.94,80.5
152020,2018-06-29 10:04:02.625000,-152.04,80.5
152021,2018-06-29 10:04:02.656250,-153.51,80.5
152022,2018-06-29 10:04:02.687500,-145.6,80.5
152023,2018-06-29 10:04:02.718750,-122.91,80.5
152024,2018-06-29 10:04:02.750000,-87.97,80.5
152025,2018-06-29 10:04:02.781250,-50.29,80.5
152026,2018-06-29 10:04:02.812500,-20.14,80.5
152027,2018-06-29 10:04:02.843750,3.41,80.5
152028,2018-06-29 10:04:02.875000,21.68,80.5
152029,2018-06-29 10:04:02.906250,35.87,80.5
152030,2018-06-29 10:04:02.937500,42.19,80.5
152031,2018-06-29 10:04:02.968750,39.37,80.5
152032,2018-06-29 10:04:03.000000,31.69,80.5
152033,2018-06-29 10:04:03.031250,24.19,80.5
152034,2018-06-29 10:04:03.062500,19.15,80.5
152035,2018-06-29 10:04:03.093750,12.91,80.5
152036,2018-06-29 10:04:03.125000,3.27,80.5
152037,2018-06-29 10:04:03.156250,-9.44,80.5
152038,2018-06-29 10:04:03.187500,-23.17,80.5
152039,2018-06-29 10:04:03.218750,-34.02,80.5
152040,2018-06-29 10:04:03.250000,-34.57,80.5
152041,2018-06-29 10:04:03.281250,-19.81,80.5
152042,2018-06-29 10:04:03.312500,5.01,80.5
152043,2018-06-29 10:04:03.343750,30.44,80.5
152044,2018-06-29 10:04:03.375000,50.08,80.5
152045,2018-06-29 10:04:03.406250,61.56,80.5
152046,2018-06-29 10:04:03.437500,63.39,80.5
152047,2018-06-29 10:04:03.468750,58.9,80.5
152048,2018-06-29 10:04:03.500000,53.63,80.5
152049,2018-06-29 10:04:03.531250,49.85,80.55
152050,2018-06-29 10:04:03.562500,48.27,80.55
152051,2018-06-29 10:04:03.593750,47.2,80.55
152052,2018-06-29 10:04:03.625000,46.9,80.55
152053,2018-06-29 10:04:03.656250,43.78,80.55
152054,2018-06-29 10:04:03.687500,43.96,80.55
152055,2018-06-29 10:04:03.718750,50.54,80.55
152056,2018-06-29 10:04:03.750000,58.14,80.55
152057,2018-06-29 10:04:03.781250,57.97,80.55
152058,2018-06-29 10:04:03.812500,48.11,80.55
152059,2018-06-29 10:04:03.843750,32.0,80.55
152060,2018-06-29 10:04:03.875000,-6.91,80.55
152061,2018-06-29 10:04:03.906250,-80.99,80.55
152062,2018-06-29 10:04:03.937500,-192.7,80.55
152063,2018-06-29 10:04:03.968750,-309.2,80.55
152064,2018-06-29 10:04:04.000000,-392.17,80.55
152065,2018-06-29 10:04:04.031250,-408.61,80.55
152066,2018-06-29 10:04:04.062500,-283.64,80.55
152067,2018-06-29 10:04:04.093750,-112.94,80.55
152068,2018-06-29 10:04:04.125000,16.46,80.55
152069,2018-06-29 10:04:04.156250,110.49,80.55
152070,2018-06-29 10:04:04.187500,168.15,80.55
152071,2018-06-29 10:04:04.218750,178.99,80.55
152072,2018-06-29 10:04:04.250000,175.58,80.55
152073,2018-06-29 10:04:04.281250,183.63,80.55
152074,2018-06-29 10:04:04.312500,189.29,80.55
152075,2018-06-29 10:04:04.343750,173.17,80.55
152076,2018-06-29 10:04:04.375000,129.42,80.55
152077,2018-06-29 10:04:04.406250,73.0,80.55
152078,2018-06-29 10:04:04.437500,12.79,80.55
152079,2018-06-29 10:04:04.468750,-51.32,80.55
152080,2018-06-29 10:04:04.500000,-129.41,80.55
152081,2018-06-29 10:04:04.531250,-215.1,80.63
152082,2018-06-29 10:04:04.562500,-280.94,80.63
152083,2018-06-29 10:04:04.593750,-295.67,80.63
152084,2018-06-29 10:04:04.625000,-255.5,80.63
152085,2018-06-29 10:04:04.656250,-179.23,80.63
152086,2018-06-29 10:04:04.687500,-78.0,80.63
152087,2018-06-29 10:04:04.718750,32.85,80.63
152088,2018-06-29 10:04:04.750000,119.55,80.63
152089,2018-06-29 10:04:04.781250,156.44,80.63
152090,2018-06-29 10:04:04.812500,159.81,80.63
152091,2018-06-29 10:04:04.843750,167.07,80.63
152092,2018-06-29 10:04:04.875000,194.27,80.63
152093,2018-06-29 10:04:04.906250,233.01,80.63
152094,2018-06-29 10:04:04.937500,274.17,80.63
152095,2018-06-29 10:04:04.968750,312.97,80.63
152096,2018-06-29 10:04:05.000000,342.98,80.63
152097,2018-06-29 10:04:05.031250,355.47,80.63
152098,2018-06-29 10:04:05.062500,329.66,80.63
152099,2018-06-29 10:04:05.093750,233.32,80.63
152100,2018-06-29 10:04:05.125000,66.05,80.63
152101,2018-06-29 10:04:05.156250,-107.07,80.63
152102,2018-06-29 10:04:05.187500,-203.94,80.63
152103,2018-06-29 10:04:05.218750,-195.85,80.63
152104,2018-06-29 10:04:05.250000,-105.29,80.63
152105,2018-06-29 10:04:05.281250,27.22,80.63
152106,2018-06-29 10:04:05.312500,141.97,80.63
152107,2018-06-29 10:04:05.343750,172.49,80.63
152108,2018-06-29 10:04:05.375000,102.88,80.63
152109,2018-06-29 10:04:05.406250,-14.22,80.63
152110,2018-06-29 10:04:05.437500,-115.35,80.63
152111,2018-06-29 10:04:05.468750,-170.61,80.63
152112,2018-06-29 10:04:05.500000,-175.81,80.63
152113,2018-06-29 10:04:05.531250,-140.3,80.8
152114,2018-06-29 10:04:05.562500,-84.64,80.8
152115,2018-06-29 10:04:05.593750,-28.35,80.8
152116,2018-06-29 10:04:05.625000,15.47,80.8
152117,2018-06-29 10:04:05.656250,34.0,80.8
152118,2018-06-29 10:04:05.687500,21.22,80.8
152119,2018-06-29 10:04:05.718750,-12.64,80.8
152120,2018-06-29 10:04:05.750000,-50.59,80.8
152121,2018-06-29 10:04:05.781250,-80.48,80.8
152122,2018-06-29 10:04:05.812500,-94.77,80.8
152123,2018-06-29 10:04:05.843750,-91.71,80.8
152124,2018-06-29 10:04:05.875000,-78.14,80.8
152125,2018-06-29 10:04:05.906250,-64.23,80.8
152126,2018-06-29 10:04:05.937500,-54.98,80.8
152127,2018-06-29 10:04:05.968750,-48.3,80.8
152128,2018-06-29 10:04:06.000000,-40.6,80.8
152129,2018-06-29 10:04:06.031250,-32.57,80.8
152130,2018-06-29 10:04:06.062500,-27.7,80.8
152131,2018-06-29 10:04:06.093750,-26.35,80.8
152132,2018-06-29 10:04:06.125000,-25.69,80.8
152133,2018-06-29 10:04:06.156250,-25.97,80.8
152134,2018-06-29 10:04:06.187500,-30.17,80.8
152135,2018-06-29 10:04:06.218750,-36.56,80.8
152136,2018-06-29 10:04:06.250000,-40.6,80.8
152137,2018-06-29 10:04:06.281250,-43.36,80.8
152138,2018-06-29 10:04:06.312500,-49.2,80.8
152139,2018-06-29 10:04:06.343750,-56.33,80.8
152140,2018-06-29 10:04:06.375000,-59.4,80.8
152141,2018-06-29 10:04:06.406250,-58.7,80.8
152142,2018-06-29 10:04:06.437500,-59.45,80.8
152143,2018-06-29 10:04:06.468750,-59.63,80.8
152144,2018-06-29 10:04:06.500000,-45.78,80.8
152145,2018-06-29 10:04:06.531250,-8.61,80.98
152146,2018-06-29 10:04:06.562500,41.66,80.98
152147,2018-06-29 10:04:06.593750,77.65,80.98
152148,2018-06-29 10:04:06.625000,69.98,80.98
152149,2018-06-29 10:04:06.656250,10.74,80.98
152150,2018-06-29 10:04:06.687500,-64.5,80.98
152151,2018-06-29 10:04:06.718750,-94.65,80.98
152152,2018-06-29 10:04:06.750000,-57.77,80.98
152153,2018-06-29 10:04:06.781250,1.59,80.98
152154,2018-06-29 10:04:06.812500,29.58,80.98
152155,2018-06-29 10:04:06.843750,19.78,80.98
152156,2018-06-29 10:04:06.875000,-3.23,80.98
152157,2018-06-29 10:04:06.906250,-22.45,80.98
152158,2018-06-29 10:04:06.937500,-28.87,80.98
152159,2018-06-29 10:04:06.968750,-17.08,80.98
152160,2018-06-29 10:04:07.000000,1.53,80.98
152161,2018-06-29 10:04:07.031250,6.22,80.98
152162,2018-06-29 10:04:07.062500,-6.29,80.98
152163,2018-06-29 10:04:07.093750,-23.54,80.98
152164,2018-06-29 10:04:07.125000,-43.84,80.98
152165,2018-06-29 10:04:07.156250,-73.75,80.98
152166,2018-06-29 10:04:07.187500,-101.38,80.98
152167,2018-06-29 10:04:07.218750,-103.07,80.98
152168,2018-06-29 10:04:07.250000,-77.65,80.98
152169,2018-06-29 10:04:07.281250,-49.56,80.98
152170,2018-06-29 10:04:07.312500,-37.81,80.98
152171,2018-06-29 10:04:07.343750,-40.63,80.98
152172,2018-06-29 10:04:07.375000,-46.2,80.98
152173,2018-06-29 10:04:07.406250,-48.92,80.98
152174,2018-06-29 10:04:07.437500,-60.77,80.98
152175,2018-06-29 10:04:07.468750,-104.63,80.98
152176,2018-06-29 10:04:07.500000,-182.49,80.98
152177,2018-06-29 10:04:07.531250,-251.72,81.17
152178,2018-06-29 10:04:07.562500,-251.24,81.17
152179,2018-06-29 10:04:07.593750,-162.03,81.17
152180,2018-06-29 10:04:07.625000,-26.85,81.17
152181,2018-06-29 10:04:07.656250,97.9,81.17
152182,2018-06-29 10:04:07.687500,189.1,81.17
152183,2018-06-29 10:04:07.718750,248.37,81.17
152184,2018-06-29 10:04:07.750000,279.91,81.17
152185,2018-06-29 10:04:07.781250,289.53,81.17
152186,2018-06-29 10:04:07.812500,279.46,81.17
152187,2018-06-29 10:04:07.843750,241.51,81.17
152188,2018-06-29 10:04:07.875000,176.96,81.17
152189,2018-06-29 10:04:07.906250,110.59,81.17
152190,2018-06-29 10:04:07.937500,65.39,81.17
152191,2018-06-29 10:04:07.968750,38.24,81.17
152192,2018-06-29 10:04:08.000000,17.53,81.17
152193,2018-06-29 10:04:08.031250,8.01,81.17
152194,2018-06-29 10:04:08.062500,19.41,81.17
152195,2018-06-29 10:04:08.093750,43.98,81.17
152196,2018-06-29 10:04:08.125000,61.52,81.17
152197,2018-06-29 10:04:08.156250,64.7,81.17
152198,2018-06-29 10:04:08.187500,73.06,81.17
152199,2018-06-29 10:04:08.218750,113.14,81.17
152200,2018-06-29 10:04:08.250000,175.06,81.17
152201,2018-06-29 10:04:08.281250,207.08,81.17
152202,2018-06-29 10:04:08.312500,176.22,81.17
152203,2018-06-29 10:04:08.343750,107.75,81.17
152204,2018-06-29 10:04:08.375000,40.17,81.17
152205,2018-06-29 10:04:08.406250,-21.89,81.17
152206,2018-06-29 10:04:08.437500,-90.45,81.17
152207,2018-06-29 10:04:08.468750,-170.97,81.17
152208,2018-06-29 10:04:08.500000,-254.62,81.17
152209,2018-06-29 10:04:08.531250,-299.55,81.43
152210,2018-06-29 10:04:08.562500,-253.86,81.43
152211,2018-06-29 10:04:08.593750,-122.83,81.43
152212,2018-06-29 10:04:08.625000,34.5,81.43
152213,2018-06-29 10:04:08.656250,174.24,81.43
152214,2018-06-29 10:04:08.687500,279.48,81.43
152215,2018-06-29 10:04:08.718750,330.32,81.43
152216,2018-06-29 10:04:08.750000,320.09,81.43
152217,2018-06-29 10:04:08.781250,271.82,81.43
152218,2018-06-29 10:04:08.812500,204.01,81.43
152219,2018-06-29 10:04:08.843750,118.51,81.43
152220,2018-06-29 10:04:08.875000,24.99,81.43
152221,2018-06-29 10:04:08.906250,-58.82,81.43
152222,2018-06-29 10:04:08.937500,-130.39,81.43
152223,2018-06-29 10:04:08.968750,-197.1,81.43
152224,2018-06-29 10:04:09.000000,-259.76,81.43
152225,2018-06-29 10:04:09.031250,-318.58,81.43
152226,2018-06-29 10:04:09.062500,-370.49,81.43
152227,2018-06-29 10:04:09.093750,-390.34,81.43
152228,2018-06-29 10:04:09.125000,-346.66,81.43
152229,2018-06-29 10:04:09.156250,-253.21,81.43
152230,2018-06-29 10:04:09.187500,-147.14,81.43
152231,2018-06-29 10:04:09.218750,-47.09,81.43
152232,2018-06-29 10:04:09.250000,38.47,81.43
152233,2018-06-29 10:04:09.281250,81.21,81.43
152234,2018-06-29 10:04:09.312500,66.27,81.43
152235,2018-06-29 10:04:09.343750,40.29,81.43
152236,2018-06-29 10:04:09.375000,54.67,81.43
152237,2018-06-29 10:04:09.406250,114.12,81.43
152238,2018-06-29 10:04:09.437500,174.43,81.43
152239,2018-06-29 10:04:09.468750,224.87,81.43
152240,2018-06-29 10:04:09.500000,268.45,81.43
152241,2018-06-29 10:04:09.531250,269.23,81.62
152242,2018-06-29 10:04:09.562500,160.13,81.62
152243,2018-06-29 10:04:09.593750,-70.89,81.62
152244,2018-06-29 10:04:09.625000,-328.9,81.62
152245,2018-06-29 10:04:09.656250,-531.75,81.62
152246,2018-06-29 10:04:09.687500,-537.37,81.62
152247,2018-06-29 10:04:09.718750,-307.31,81.62
152248,2018-06-29 10:04:09.750000,-88.67,81.62
152249,2018-06-29 10:04:09.781250,45.04,81.62
152250,2018-06-29 10:04:09.812500,165.17,81.62
152251,2018-06-29 10:04:09.843750,268.27,81.62
152252,2018-06-29 10:04:09.875000,322.18,81.62
152253,2018-06-29 10:04:09.906250,296.39,81.62
152254,2018-06-29 10:04:09.937500,172.89,81.62
152255,2018-06-29 10:04:09.968750,41.5,81.62
152256,2018-06-29 10:04:10.000000,-128.33,81.62
152257,2018-06-29 10:04:10.031250,-342.21,81.62
152258,2018-06-29 10:04:10.062500,-496.11,81.62
152259,2018-06-29 10:04:10.093750,-517.17,81.62
152260,2018-06-29 10:04:10.125000,-401.82,81.62
152261,2018-06-29 10:04:10.156250,-191.68,81.62
152262,2018-06-29 10:04:10.187500,-19.99,81.62
152263,2018-06-29 10:04:10.218750,136.12,81.62
152264,2018-06-29 10:04:10.250000,248.21,81.62
152265,2018-06-29 10:04:10.281250,284.36,81.62
152266,2018-06-29 10:04:10.312500,260.45,81.62
152267,2018-06-29 10:04:10.343750,228.79,81.62
152268,2018-06-29 10:04:10.375000,199.84,81.62
152269,2018-06-29 10:04:10.406250,166.44,81.62
152270,2018-06-29 10:04:10.437500,118.53,81.62
152271,2018-06-29 10:04:10.468750,73.28,81.62
152272,2018-06-29 10:04:10.500000,43.39,81.62
152273,2018-06-29 10:04:10.531250,24.4,81.88
152274,2018-06-29 10:04:10.562500,0.85,81.88
152275,2018-06-29 10:04:10.593750,-33.83,81.88
152276,2018-06-29 10:04:10.625000,-54.66,81.88
152277,2018-06-29 10:04:10.656250,-45.15,81.88
152278,2018-06-29 10:04:10.687500,-9.28,81.88
152279,2018-06-29 10:04:10.718750,31.35,81.88
152280,2018-06-29 10:04:10.750000,66.85,81.88
152281,2018-06-29 10:04:10.781250,99.3,81.88
152282,2018-06-29 10:04:10.812500,132.59,81.88
152283,2018-06-29 10:04:10.843750,164.26,81.88
152284,2018-06-29 10:04:10.875000,189.47,81.88
152285,2018-06-29 10:04:10.906250,210.84,81.88
152286,2018-06-29 10:04:10.937500,231.24,81.88
152287,2018-06-29 10:04:10.968750,249.61,81.88
152288,2018-06-29 10:04:11.000000,261.12,81.88
152289,2018-06-29 10:04:11.031250,261.09,81.88
152290,2018-06-29 10:04:11.062500,248.11,81.88
152291,2018-06-29 10:04:11.093750,225.92,81.88
152292,2018-06-29 10:04:11.125000,200.82,81.88
152293,2018-06-29 10:04:11.156250,170.41,81.88
152294,2018-06-29 10:04:11.187500,117.74,81.88
152295,2018-06-29 10:04:11.218750,26.18,81.88
152296,2018-06-29 10:04:11.250000,-96.84,81.88
152297,2018-06-29 10:04:11.281250,-218.63,81.88
152298,2018-06-29 10:04:11.312500,-307.45,81.88
152299,2018-06-29 10:04:11.343750,-355.35,81.88
152300,2018-06-29 10:04:11.375000,-373.26,81.88
152301,2018-06-29 10:04:11.406250,-370.75,81.88
152302,2018-06-29 10:04:11.437500,-349.7,81.88
152303,2018-06-29 10:04:11.468750,-312.94,81.88
152304,2018-06-29 10:04:11.500000,-267.0,81.88
152305,2018-06-29 10:04:11.531250,-217.79,82.08
152306,2018-06-29 10:04:11.562500,-168.72,82.08
152307,2018-06-29 10:04:11.593750,-123.87,82.08
152308,2018-06-29 10:04:11.625000,-87.51,82.08
152309,2018-06-29 10:04:11.656250,-59.28,82.08
152310,2018-06-29 10:04:11.687500,-36.56,82.08
152311,2018-06-29 10:04:11.718750,-20.76,82.08
152312,2018-06-29 10:04:11.750000,-14.28,82.08
152313,2018-06-29 10:04:11.781250,-14.71,82.08
152314,2018-06-29 10:04:11.812500,-19.84,82.08
152315,2018-06-29 10:04:11.843750,-30.63,82.08
152316,2018-06-29 10:04:11.875000,-44.11,82.08
152317,2018-06-29 10:04:11.906250,-54.47,82.08
152318,2018-06-29 10:04:11.937500,-60.4,82.08
152319,2018-06-29 10:04:11.968750,-62.95,82.08
152320,2018-06-29 10:04:12.000000,-61.78,82.08
152321,2018-06-29 10:04:12.031250,-54.66,82.08
152322,2018-06-29 10:04:12.062500,-36.29,82.08
152323,2018-06-29 10:04:12.093750,-1.94,82.08
152324,2018-06-29 10:04:12.125000,42.54,82.08
152325,2018-06-29 10:04:12.156250,82.27,82.08
152326,2018-06-29 10:04:12.187500,110.78,82.08
152327,2018-06-29 10:04:12.218750,133.2,82.08
152328,2018-06-29 10:04:12.250000,154.58,82.08
152329,2018-06-29 10:04:12.281250,170.78,82.08
152330,2018-06-29 10:04:12.312500,174.91,82.08
152331,2018-06-29 10:04:12.343750,166.01,82.08
152332,2018-06-29 10:04:12.375000,148.06,82.08
152333,2018-06-29 10:04:12.406250,128.39,82.08
152334,2018-06-29 10:04:12.437500,114.16,82.08
152335,2018-06-29 10:04:12.468750,108.58,82.08
152336,2018-06-29 10:04:12.500000,99.66,82.08
152337,2018-06-29 10:04:12.531250,73.92,82.3
152338,2018-06-29 10:04:12.562500,32.93,82.3
152339,2018-06-29 10:04:12.593750,-4.99,82.3
152340,2018-06-29 10:04:12.625000,-28.17,82.3
152341,2018-06-29 10:04:12.656250,-47.74,82.3
152342,2018-06-29 10:04:12.687500,-71.44,82.3
152343,2018-06-29 10:04:12.718750,-94.41,82.3
152344,2018-06-29 10:04:12.750000,-88.11,82.3
152345,2018-06-29 10:04:12.781250,-52.69,82.3
152346,2018-06-29 10:04:12.812500,-8.38,82.3
152347,2018-06-29 10:04:12.843750,25.06,82.3
152348,2018-06-29 10:04:12.875000,57.96,82.3
152349,2018-06-29 10:04:12.906250,104.45,82.3
152350,2018-06-29 10:04:12.937500,130.45,82.3
152351,2018-06-29 10:04:12.968750,122.81,82.3
152352,2018-06-29 10:04:13.000000,114.78,82.3
152353,2018-06-29 10:04:13.031250,186.73,82.3
152354,2018-06-29 10:04:13.062500,333.25,82.3
152355,2018-06-29 10:04:13.093750,504.98,82.3
152356,2018-06-29 10:04:13.125000,626.85,82.3
152357,2018-06-29 10:04:13.156250,457.12,82.3
152358,2018-06-29 10:04:13.187500,153.89,82.3
152359,2018-06-29 10:04:13.218750,-80.64,82.3
152360,2018-06-29 10:04:13.250000,-225.85,82.3
152361,2018-06-29 10:04:13.281250,-298.53,82.3
152362,2018-06-29 10:04:13.312500,-299.66,82.3
152363,2018-06-29 10:04:13.343750,-283.14,82.3
152364,2018-06-29 10:04:13.375000,-286.58,82.3
152365,2018-06-29 10:04:13.406250,-306.5,82.3
152366,2018-06-29 10:04:13.437500,-318.66,82.3
152367,2018-06-29 10:04:13.468750,-295.43,82.3
152368,2018-06-29 10:04:13.500000,-256.93,82.3
152369,2018-06-29 10:04:13.531250,-211.64,82.52
152370,2018-06-29 10:04:13.562500,-148.51,82.52
152371,2018-06-29 10:04:13.593750,-63.48,82.52
152372,2018-06-29 10:04:13.625000,16.87,82.52
152373,2018-06-29 10:04:13.656250,62.45,82.52
152374,2018-06-29 10:04:13.687500,70.44,82.52
152375,2018-06-29 10:04:13.718750,56.7,82.52
152376,2018-06-29 10:04:13.750000,46.34,82.52
152377,2018-06-29 10:04:13.781250,43.74,82.52
152378,2018-06-29 10:04:13.812500,42.6,82.52
152379,2018-06-29 10:04:13.843750,32.43,82.52
152380,2018-06-29 10:04:13.875000,13.79,82.52
152381,2018-06-29 10:04:13.906250,-3.51,82.52
152382,2018-06-29 10:04:13.937500,-10.35,82.52
152383,2018-06-29 10:04:13.968750,-4.64,82.52
152384,2018-06-29 10:04:14.000000,6.02,82.52
152385,2018-06-29 10:04:14.031250,13.22,82.52
152386,2018-06-29 10:04:14.062500,13.72,82.52
152387,2018-06-29 10:04:14.093750,10.16,82.52
152388,2018-06-29 10:04:14.125000,4.21,82.52
152389,2018-06-29 10:04:14.156250,-6.45,82.52
152390,2018-06-29 10:04:14.187500,-23.93,82.52
152391,2018-06-29 10:04:14.218750,-42.1,82.52
152392,2018-06-29 10:04:14.250000,-45.35,82.52
152393,2018-06-29 10:04:14.281250,-23.45,82.52
152394,2018-06-29 10:04:14.312500,14.98,82.52
152395,2018-06-29 10:04:14.343750,51.19,82.52
152396,2018-06-29 10:04:14.375000,75.29,82.52
152397,2018-06-29 10:04:14.406250,88.19,82.52
152398,2018-06-29 10:04:14.437500,91.63,82.52
152399,2018-06-29 10:04:14.468750,85.09,82.52
152400,2018-06-29 10:04:14.500000,70.28,82.52
152401,2018-06-29 10:04:14.531250,51.24,82.73
152402,2018-06-29 10:04:14.562500,32.17,82.73
152403,2018-06-29 10:04:14.593750,15.61,82.73
152404,2018-06-29 10:04:14.625000,3.08,82.73
152405,2018-06-29 10:04:14.656250,-6.13,82.73
152406,2018-06-29 10:04:14.687500,-14.25,82.73
152407,2018-06-29 10:04:14.718750,-23.97,82.73
152408,2018-06-29 10:04:14.750000,-40.99,82.73
152409,2018-06-29 10:04:14.781250,-69.53,82.73
152410,2018-06-29 10:04:14.812500,-109.03,82.73
152411,2018-06-29 10:04:14.843750,-147.31,82.73
152412,2018-06-29 10:04:14.875000,-176.39,82.73
152413,2018-06-29 10:04:14.906250,-194.07,82.73
152414,2018-06-29 10:04:14.937500,-199.63,82.73
152415,2018-06-29 10:04:14.968750,-190.58,82.73
152416,2018-06-29 10:04:15.000000,-166.5,82.73
152417,2018-06-29 10:04:15.031250,-131.62,82.73
152418,2018-06-29 10:04:15.062500,-76.7,82.73
152419,2018-06-29 10:04:15.093750,5.39,82.73
152420,2018-06-29 10:04:15.125000,112.4,82.73
152421,2018-06-29 10:04:15.156250,222.1,82.73
152422,2018-06-29 10:04:15.187500,318.07,82.73
152423,2018-06-29 10:04:15.218750,386.3,82.73
152424,2018-06-29 10:04:15.250000,348.19,82.73
152425,2018-06-29 10:04:15.281250,238.99,82.73
152426,2018-06-29 10:04:15.312500,124.78,82.73
152427,2018-06-29 10:04:15.343750,19.81,82.73
152428,2018-06-29 10:04:15.375000,-63.39,82.73
152429,2018-06-29 10:04:15.406250,-117.29,82.73
152430,2018-06-29 10:04:15.437500,-152.23,82.73
152431,2018-06-29 10:04:15.468750,-178.6,82.73
152432,2018-06-29 10:04:15.500000,-202.82,82.73
152433,2018-06-29 10:04:15.531250,-190.42,82.95
152434,2018-06-29 10:04:15.562500,-127.69,82.95
152435,2018-06-29 10:04:15.593750,-51.55,82.95
152436,2018-06-29 10:04:15.625000,1.77,82.95
152437,2018-06-29 10:04:15.656250,28.83,82.95
152438,2018-06-29 10:04:15.687500,46.75,82.95
152439,2018-06-29 10:04:15.718750,59.63,82.95
152440,2018-06-29 10:04:15.750000,64.0,82.95
152441,2018-06-29 10:04:15.781250,63.76,82.95
152442,2018-06-29 10:04:15.812500,60.55,82.95
152443,2018-06-29 10:04:15.843750,45.15,82.95
152444,2018-06-29 10:04:15.875000,13.98,82.95
152445,2018-06-29 10:04:15.906250,-25.27,82.95
152446,2018-06-29 10:04:15.937500,-57.95,82.95
152447,2018-06-29 10:04:15.968750,-72.11,82.95
152448,2018-06-29 10:04:16.000000,-65.22,82.95
152449,2018-06-29 10:04:16.031250,-44.92,82.95
152450,2018-06-29 10:04:16.062500,-22.36,82.95
152451,2018-06-29 10:04:16.093750,-4.27,82.95
152452,2018-06-29 10:04:16.125000,6.7,82.95
152453,2018-06-29 10:04:16.156250,8.26,82.95
152454,2018-06-29 10:04:16.187500,5.94,82.95
152455,2018-06-29 10:04:16.218750,10.26,82.95
152456,2018-06-29 10:04:16.250000,25.25,82.95
152457,2018-06-29 10:04:16.281250,42.1,82.95
152458,2018-06-29 10:04:16.312500,46.14,82.95
152459,2018-06-29 10:04:16.343750,28.96,82.95
152460,2018-06-29 10:04:16.375000,-3.77,82.95
152461,2018-06-29 10:04:16.406250,-36.84,82.95
152462,2018-06-29 10:04:16.437500,-56.68,82.95
152463,2018-06-29 10:04:16.468750,-60.16,82.95
152464,2018-06-29 10:04:16.500000,-53.6,82.95
152465,2018-06-29 10:04:16.531250,-45.93,83.15
152466,2018-06-29 10:04:16.562500,-44.03,83.15
152467,2018-06-29 10:04:16.593750,-50.87,83.15
152468,2018-06-29 10:04:16.625000,-66.93,83.15
152469,2018-06-29 10:04:16.656250,-89.5,83.15
152470,2018-06-29 10:04:16.687500,-107.99,83.15
152471,2018-06-29 10:04:16.718750,-106.51,83.15
152472,2018-06-29 10:04:16.750000,-80.03,83.15
152473,2018-06-29 10:04:16.781250,-41.89,83.15
152474,2018-06-29 10:04:16.812500,-8.53,83.15
152475,2018-06-29 10:04:16.843750,14.57,83.15
152476,2018-06-29 10:04:16.875000,28.9,83.15
152477,2018-06-29 10:04:16.906250,36.44,83.15
152478,2018-06-29 10:04:16.937500,40.64,83.15
152479,2018-06-29 10:04:16.968750,44.89,83.15
152480,2018-06-29 10:04:17.000000,48.12,83.15
152481,2018-06-29 10:04:17.031250,47.32,83.15
152482,2018-06-29 10:04:17.062500,42.66,83.15
152483,2018-06-29 10:04:17.093750,36.19,83.15
152484,2018-06-29 10:04:17.125000,27.48,83.15
152485,2018-06-29 10:04:17.156250,13.76,83.15
152486,2018-06-29 10:04:17.187500,-5.95,83.15
152487,2018-06-29 10:04:17.218750,-28.01,83.15
152488,2018-06-29 10:04:17.250000,-45.66,83.15
152489,2018-06-29 10:04:17.281250,-54.08,83.15
152490,2018-06-29 10:04:17.312500,-53.43,83.15
152491,2018-06-29 10:04:17.343750,-46.28,83.15
152492,2018-06-29 10:04:17.375000,-35.46,83.15
152493,2018-06-29 10:04:17.406250,-26.2,83.15
152494,2018-06-29 10:04:17.437500,-25.75,83.15
152495,2018-06-29 10:04:17.468750,-36.52,83.15
152496,2018-06-29 10:04:17.500000,-49.83,83.15
152497,2018-06-29 10:04:17.531250,-50.89,83.37
152498,2018-06-29 10:04:17.562500,-32.61,83.37
152499,2018-06-29 10:04:17.593750,-2.1,83.37
152500,2018-06-29 10:04:17.625000,28.83,83.37
152501,2018-06-29 10:04:17.656250,55.56,83.37
152502,2018-06-29 10:04:17.687500,79.31,83.37
152503,2018-06-29 10:04:17.718750,99.17,83.37
152504,2018-06-29 10:04:17.750000,111.7,83.37
152505,2018-06-29 10:04:17.781250,116.1,83.37
152506,2018-06-29 10:04:17.812500,114.42,83.37
152507,2018-06-29 10:04:17.843750,108.77,83.37
152508,2018-06-29 10:04:17.875000,101.33,83.37
152509,2018-06-29 10:04:17.906250,93.75,83.37
152510,2018-06-29 10:04:17.937500,84.84,83.37
152511,2018-06-29 10:04:17.968750,72.28,83.37
152512,2018-06-29 10:04:18.000000,56.7,83.37
152513,2018-06-29 10:04:18.031250,40.65,83.37
152514,2018-06-29 10:04:18.062500,25.1,83.37
152515,2018-06-29 10:04:18.093750,9.42,83.37
152516,2018-06-29 10:04:18.125000,-6.57,83.37
152517,2018-06-29 10:04:18.156250,-21.89,83.37
152518,2018-06-29 10:04:18.187500,-35.92,83.37
152519,2018-06-29 10:04:18.218750,-50.53,83.37
152520,2018-06-29 10:04:18.250000,-69.32,83.37
152521,2018-06-29 10:04:18.281250,-90.63,83.37
152522,2018-06-29 10:04:18.312500,-102.07,83.37
152523,2018-06-29 10:04:18.343750,-89.91,83.37
152524,2018-06-29 10:04:18.375000,-55.45,83.37
152525,2018-06-29 10:04:18.406250,-14.21,83.37
152526,2018-06-29 10:04:18.437500,20.89,83.37
152527,2018-06-29 10:04:18.468750,47.4,83.37
152528,2018-06-29 10:04:18.500000,66.47,83.37
152529,2018-06-29 10:04:18.531250,77.01,83.42
152530,2018-06-29 10:04:18.562500,78.03,83.42
152531,2018-06-29 10:04:18.593750,72.32,83.42
152532,2018-06-29 10:04:18.625000,65.18,83.42
152533,2018-06-29 10:04:18.656250,59.72,83.42
152534,2018-06-29 10:04:18.687500,54.86,83.42
152535,2018-06-29 10:04:18.718750,48.71,83.42
152536,2018-06-29 10:04:18.750000,41.55,83.42
152537,2018-06-29 10:04:18.781250,33.35,83.42
152538,2018-06-29 10:04:18.812500,21.62,83.42
152539,2018-06-29 10:04:18.843750,5.43,83.42
152540,2018-06-29 10:04:18.875000,-11.48,83.42
152541,2018-06-29 10:04:18.906250,-25.56,83.42
152542,2018-06-29 10:04:18.937500,-38.11,83.42
152543,2018-06-29 10:04:18.968750,-52.62,83.42
152544,2018-06-29 10:04:19.000000,-71.08,83.42
152545,2018-06-29 10:04:19.031250,-91.49,83.42
152546,2018-06-29 10:04:19.062500,-103.52,83.42
152547,2018-06-29 10:04:19.093750,-93.08,83.42
152548,2018-06-29 10:04:19.125000,-58.44,83.42
152549,2018-06-29 10:04:19.156250,-14.22,83.42
152550,2018-06-29 10:04:19.187500,24.7,83.42
152551,2018-06-29 10:04:19.218750,54.18,83.42
152552,2018-06-29 10:04:19.250000,74.79,83.42
152553,2018-06-29 10:04:19.281250,85.38,83.42
152554,2018-06-29 10:04:19.312500,85.98,83.42
152555,2018-06-29 10:04:19.343750,80.84,83.42
152556,2018-06-29 10:04:19.375000,75.08,83.42
152557,2018-06-29 10:04:19.406250,70.24,83.42
152558,2018-06-29 10:04:19.437500,65.66,83.42
152559,2018-06-29 10:04:19.468750,61.92,83.42
152560,2018-06-29 10:04:19.500000,58.76,83.42
152561,2018-06-29 10:04:19.531250,52.64,83.47
152562,2018-06-29 10:04:19.562500,40.75,83.47
152563,2018-06-29 10:04:19.593750,25.55,83.47
152564,2018-06-29 10:04:19.625000,11.62,83.47
152565,2018-06-29 10:04:19.656250,-0.43,83.47
152566,2018-06-29 10:04:19.687500,-13.98,83.47
152567,2018-06-29 10:04:19.718750,-30.43,83.47
152568,2018-06-29 10:04:19.750000,-46.22,83.47
152569,2018-06-29 10:04:19.781250,-57.88,83.47
152570,2018-06-29 10:04:19.812500,-67.62,83.47
152571,2018-06-29 10:04:19.843750,-81.13,83.47
152572,2018-06-29 10:04:19.875000,-100.83,83.47
152573,2018-06-29 10:04:19.906250,-119.82,83.47
152574,2018-06-29 10:04:19.937500,-122.19,83.47
152575,2018-06-29 10:04:19.968750,-96.13,83.47
152576,2018-06-29 10:04:20.000000,-48.65,83.47
152577,2018-06-29 10:04:20.031250,-0.08,83.47
152578,2018-06-29 10:04:20.062500,36.31,83.47
152579,2018-06-29 10:04:20.093750,60.9,83.47
152580,2018-06-29 10:04:20.125000,77.17,83.47
152581,2018-06-29 10:04:20.156250,84.56,83.47
152582,2018-06-29 10:04:20.187500,82.69,83.47
152583,2018-06-29 10:04:20.218750,75.53,83.47
152584,2018-06-29 10:04:20.250000,68.23,83.47
152585,2018-06-29 10:04:20.281250,62.87,83.47
152586,2018-06-29 10:04:20.312500,59.78,83.47
152587,2018-06-29 10:04:20.343750,58.96,83.47
152588,2018-06-29 10:04:20.375000,57.79,83.47
152589,2018-06-29 10:04:20.406250,51.86,83.47
152590,2018-06-29 10:04:20.437500,40.84,83.47
152591,2018-06-29 10:04:20.468750,28.88,83.47
152592,2018-06-29 10:04:20.500000,18.41,83.47
152593,2018-06-29 10:04:20.531250,9.01,83.55
152594,2018-06-29 10:04:20.562500,1.66,83.55
152595,2018-06-29 10:04:20.593750,-1.92,83.55
152596,2018-06-29 10:04:20.625000,-4.23,83.55
152597,2018-06-29 10:04:20.656250,-10.43,83.55
152598,2018-06-29 10:04:20.687500,-21.63,83.55
152599,2018-06-29 10:04:20.718750,-34.46,83.55
152600,2018-06-29 10:04:20.750000,-46.95,83.55
152601,2018-06-29 10:04:20.781250,-60.37,83.55
152602,2018-06-29 10:04:20.812500,-76.13,83.55
152603,2018-06-29 10:04:20.843750,-92.83,83.55
152604,2018-06-29 10:04:20.875000,-102.37,83.55
152605,2018-06-29 10:04:20.906250,-91.37,83.55
152606,2018-06-29 10:04:20.937500,-55.84,83.55
152607,2018-06-29 10:04:20.968750,-9.83,83.55
152608,2018-06-29 10:04:21.000000,29.0,83.55
152609,2018-06-29 10:04:21.031250,55.51,83.55
152610,2018-06-29 10:04:21.062500,73.4,83.55
152611,2018-06-29 10:04:21.093750,84.74,83.55
152612,2018-06-29 10:04:21.125000,89.42,83.55
152613,2018-06-29 10:04:21.156250,88.56,83.55
152614,2018-06-29 10:04:21.187500,84.95,83.55
152615,2018-06-29 10:04:21.218750,82.0,83.55
152616,2018-06-29 10:04:21.250000,82.49,83.55
152617,2018-06-29 10:04:21.281250,85.78,83.55
152618,2018-06-29 10:04:21.312500,87.11,83.55
152619,2018-06-29 10:04:21.343750,81.99,83.55
152620,2018-06-29 10:04:21.375000,71.14,83.55
152621,2018-06-29 10:04:21.406250,57.97,83.55
152622,2018-06-29 10:04:21.437500,42.51,83.55
152623,2018-06-29 10:04:21.468750,21.16,83.55
152624,2018-06-29 10:04:21.500000,-6.51,83.55
152625,2018-06-29 10:04:21.531250,-32.02,83.62
152626,2018-06-29 10:04:21.562500,-46.17,83.62
152627,2018-06-29 10:04:21.593750,-52.72,83.62
152628,2018-06-29 10:04:21.625000,-66.3,83.62
152629,2018-06-29 10:04:21.656250,-90.58,83.62
152630,2018-06-29 10:04:21.687500,-114.9,83.62
152631,2018-06-29 10:04:21.718750,-132.52,83.62
152632,2018-06-29 10:04:21.750000,-150.63,83.62
152633,2018-06-29 10:04:21.781250,-177.37,83.62
152634,2018-06-29 10:04:21.812500,-200.35,83.62
152635,2018-06-29 10:04:21.843750,-189.57,83.62
152636,2018-06-29 10:04:21.875000,-120.77,83.62
152637,2018-06-29 10:04:21.906250,-11.16,83.62
152638,2018-06-29 10:04:21.937500,92.11,83.62
152639,2018-06-29 10:04:21.968750,149.3,83.62
152640,2018-06-29 10:04:22.000000,151.56,83.62
152641,2018-06-29 10:04:22.031250,107.3,83.62
152642,2018-06-29 10:04:22.062500,27.32,83.62
152643,2018-06-29 10:04:22.093750,-62.57,83.62
152644,2018-06-29 10:04:22.125000,-131.45,83.62
152645,2018-06-29 10:04:22.156250,-145.93,83.62
152646,2018-06-29 10:04:22.187500,-95.82,83.62
152647,2018-06-29 10:04:22.218750,-21.13,83.62
152648,2018-06-29 10:04:22.250000,65.2,83.62
152649,2018-06-29 10:04:22.281250,137.97,83.62
152650,2018-06-29 10:04:22.312500,169.18,83.62
152651,2018-06-29 10:04:22.343750,152.64,83.62
152652,2018-06-29 10:04:22.375000,114.51,83.62
152653,2018-06-29 10:04:22.406250,77.06,83.62
152654,2018-06-29 10:04:22.437500,44.12,83.62
152655,2018-06-29 10:04:22.468750,8.99,83.62
152656,2018-06-29 10:04:22.500000,-24.06,83.62
152657,2018-06-29 10:04:22.531250,-50.05,83.67
152658,2018-06-29 10:04:22.562500,-73.14,83.67
152659,2018-06-29 10:04:22.593750,-97.76,83.67
152660,2018-06-29 10:04:22.625000,-121.17,83.67
152661,2018-06-29 10:04:22.656250,-132.67,83.67
152662,2018-06-29 10:04:22.687500,-126.18,83.67
152663,2018-06-29 10:04:22.718750,-101.69,83.67
152664,2018-06-29 10:04:22.750000,-67.07,83.67
152665,2018-06-29 10:04:22.781250,-33.54,83.67
152666,2018-06-29 10:04:22.812500,-9.89,83.67
152667,2018-06-29 10:04:22.843750,3.37,83.67
152668,2018-06-29 10:04:22.875000,11.55,83.67
152669,2018-06-29 10:04:22.906250,17.32,83.67
152670,2018-06-29 10:04:22.937500,20.68,83.67
152671,2018-06-29 10:04:22.968750,23.01,83.67
152672,2018-06-29 10:04:23.000000,26.56,83.67
152673,2018-06-29 10:04:23.031250,30.19,83.67
152674,2018-06-29 10:04:23.062500,30.95,83.67
152675,2018-06-29 10:04:23.093750,28.33,83.67
152676,2018-06-29 10:04:23.125000,23.65,83.67
152677,2018-06-29 10:04:23.156250,17.18,83.67
152678,2018-06-29 10:04:23.187500,9.17,83.67
152679,2018-06-29 10:04:23.218750,1.13,83.67
152680,2018-06-29 10:04:23.250000,-6.76,83.67
152681,2018-06-29 10:04:23.281250,-15.57,83.67
152682,2018-06-29 10:04:23.312500,-23.95,83.67
152683,2018-06-29 10:04:23.343750,-29.55,83.67
152684,2018-06-29 10:04:23.375000,-34.53,83.67
152685,2018-06-29 10:04:23.406250,-43.66,83.67
152686,2018-06-29 10:04:23.437500,-55.09,83.67
152687,2018-06-29 10:04:23.468750,-57.99,83.67
152688,2018-06-29 10:04:23.500000,-43.59,83.67
152689,2018-06-29 10:04:23.531250,-15.85,83.67
152690,2018-06-29 10:04:23.562500,13.15,83.67
152691,2018-06-29 10:04:23.593750,35.84,83.67
152692,2018-06-29 10:04:23.625000,52.35,83.67
152693,2018-06-29 10:04:23.656250,63.9,83.67
152694,2018-06-29 10:04:23.687500,69.13,83.67
152695,2018-06-29 10:04:23.718750,67.79,83.67
152696,2018-06-29 10:04:23.750000,62.86,83.67
152697,2018-06-29 10:04:23.781250,57.21,83.67
152698,2018-06-29 10:04:23.812500,51.81,83.67
152699,2018-06-29 10:04:23.843750,48.55,83.67
152700,2018-06-29 10:04:23.875000,49.33,83.67
152701,2018-06-29 10:04:23.906250,51.39,83.67
152702,2018-06-29 10:04:23.937500,48.67,83.67
152703,2018-06-29 10:04:23.968750,39.24,83.67
152704,2018-06-29 10:04:24.000000,27.49,83.67
152705,2018-06-29 10:04:24.031250,18.09,83.67
152706,2018-06-29 10:04:24.062500,11.37,83.67
152707,2018-06-29 10:04:24.093750,5.6,83.67
152708,2018-06-29 10:04:24.125000,0.47,83.67
152709,2018-06-29 10:04:24.156250,-3.69,83.67
152710,2018-06-29 10:04:24.187500,-8.18,83.67
152711,2018-06-29 10:04:24.218750,-14.66,83.67
152712,2018-06-29 10:04:24.250000,-22.63,83.67
152713,2018-06-29 10:04:24.281250,-31.33,83.67
152714,2018-06-29 10:04:24.312500,-43.46,83.67
152715,2018-06-29 10:04:24.343750,-62.06,83.67
152716,2018-06-29 10:04:24.375000,-82.6,83.67
152717,2018-06-29 10:04:24.406250,-93.31,83.67
152718,2018-06-29 10:04:24.437500,-86.21,83.67
152719,2018-06-29 10:04:24.468750,-64.75,83.67
152720,2018-06-29 10:04:24.500000,-38.26,83.67
152721,2018-06-29 10:04:24.531250,-12.36,83.65
152722,2018-06-29 10:04:24.562500,12.08,83.65
152723,2018-06-29 10:04:24.593750,34.19,83.65
152724,2018-06-29 10:04:24.625000,51.98,83.65
152725,2018-06-29 10:04:24.656250,64.23,83.65
152726,2018-06-29 10:04:24.687500,70.44,83.65
152727,2018-06-29 10:04:24.718750,70.37,83.65
152728,2018-06-29 10:04:24.750000,65.02,83.65
152729,2018-06-29 10:04:24.781250,56.63,83.65
152730,2018-06-29 10:04:24.812500,46.74,83.65
152731,2018-06-29 10:04:24.843750,35.44,83.65
152732,2018-06-29 10:04:24.875000,22.05,83.65
152733,2018-06-29 10:04:24.906250,6.36,83.65
152734,2018-06-29 10:04:24.937500,-10.25,83.65
152735,2018-06-29 10:04:24.968750,-25.53,83.65
152736,2018-06-29 10:04:25.000000,-38.13,83.65
152737,2018-06-29 10:04:25.031250,-47.41,83.65
152738,2018-06-29 10:04:25.062500,-52.66,83.65
152739,2018-06-29 10:04:25.093750,-53.95,83.65
152740,2018-06-29 10:04:25.125000,-53.14,83.65
152741,2018-06-29 10:04:25.156250,-52.06,83.65
152742,2018-06-29 10:04:25.187500,-50.26,83.65
152743,2018-06-29 10:04:25.218750,-46.78,83.65
152744,2018-06-29 10:04:25.250000,-43.65,83.65
152745,2018-06-29 10:04:25.281250,-45.05,83.65
152746,2018-06-29 10:04:25.312500,-52.67,83.65
152747,2018-06-29 10:04:25.343750,-62.61,83.65
152748,2018-06-29 10:04:25.375000,-65.46,83.65
152749,2018-06-29 10:04:25.406250,-52.1,83.65
152750,2018-06-29 10:04:25.437500,-24.41,83.65
152751,2018-06-29 10:04:25.468750,4.08,83.65
152752,2018-06-29 10:04:25.500000,22.99,83.65
152753,2018-06-29 10:04:25.531250,33.93,83.57
152754,2018-06-29 10:04:25.562500,41.74,83.57
152755,2018-06-29 10:04:25.593750,46.26,83.57
152756,2018-06-29 10:04:25.625000,46.38,83.57
152757,2018-06-29 10:04:25.656250,44.34,83.57
152758,2018-06-29 10:04:25.687500,42.77,83.57
152759,2018-06-29 10:04:25.718750,41.58,83.57
152760,2018-06-29 10:04:25.750000,39.28,83.57
152761,2018-06-29 10:04:25.781250,35.4,83.57
152762,2018-06-29 10:04:25.812500,31.13,83.57
152763,2018-06-29 10:04:25.843750,27.41,83.57
152764,2018-06-29 10:04:25.875000,23.43,83.57
152765,2018-06-29 10:04:25.906250,17.6,83.57
152766,2018-06-29 10:04:25.937500,9.66,83.57
152767,2018-06-29 10:04:25.968750,0.65,83.57
152768,2018-06-29 10:04:26.000000,-8.94,83.57
152769,2018-06-29 10:04:26.031250,-19.93,83.57
152770,2018-06-29 10:04:26.062500,-32.9,83.57
152771,2018-06-29 10:04:26.093750,-47.15,83.57
152772,2018-06-29 10:04:26.125000,-61.81,83.57
152773,2018-06-29 10:04:26.156250,-76.3,83.57
152774,2018-06-29 10:04:26.187500,-88.58,83.57
152775,2018-06-29 10:04:26.218750,-95.07,83.57
152776,2018-06-29 10:04:26.250000,-91.98,83.57
152777,2018-06-29 10:04:26.281250,-76.38,83.57
152778,2018-06-29 10:04:26.312500,-49.21,83.57
152779,2018-06-29 10:04:26.343750,-18.28,83.57
152780,2018-06-29 10:04:26.375000,7.04,83.57
152781,2018-06-29 10:04:26.406250,23.92,83.57
152782,2018-06-29 10:04:26.437500,34.22,83.57
152783,2018-06-29 10:04:26.468750,38.61,83.57
152784,2018-06-29 10:04:26.500000,38.02,83.57
152785,2018-06-29 10:04:26.531250,35.79,83.47
152786,2018-06-29 10:04:26.562500,33.59,83.47
152787,2018-06-29 10:04:26.593750,29.7,83.47
152788,2018-06-29 10:04:26.625000,24.22,83.47
152789,2018-06-29 10:04:26.656250,21.52,83.47
152790,2018-06-29 10:04:26.687500,25.15,83.47
152791,2018-06-29 10:04:26.718750,33.06,83.47
152792,2018-06-29 10:04:26.750000,39.67,83.47
152793,2018-06-29 10:04:26.781250,40.27,83.47
152794,2018-06-29 10:04:26.812500,32.5,83.47
152795,2018-06-29 10:04:26.843750,16.01,83.47
152796,2018-06-29 10:04:26.875000,-6.24,83.47
152797,2018-06-29 10:04:26.906250,-27.42,83.47
152798,2018-06-29 10:04:26.937500,-41.59,83.47
152799,2018-06-29 10:04:26.968750,-48.87,83.47
152800,2018-06-29 10:04:27.000000,-54.24,83.47
152801,2018-06-29 10:04:27.031250,-62.52,83.47
152802,2018-06-29 10:04:27.062500,-73.53,83.47
152803,2018-06-29 10:04:27.093750,-79.3,83.47
152804,2018-06-29 10:04:27.125000,-69.38,83.47
152805,2018-06-29 10:04:27.156250,-43.16,83.47
152806,2018-06-29 10:04:27.187500,-12.2,83.47
152807,2018-06-29 10:04:27.218750,12.14,83.47
152808,2018-06-29 10:04:27.250000,27.79,83.47
152809,2018-06-29 10:04:27.281250,37.61,83.47
152810,2018-06-29 10:04:27.312500,42.86,83.47
152811,2018-06-29 10:04:27.343750,43.93,83.47
152812,2018-06-29 10:04:27.375000,42.6,83.47
152813,2018-06-29 10:04:27.406250,41.22,83.47
152814,2018-06-29 10:04:27.437500,40.92,83.47
152815,2018-06-29 10:04:27.468750,40.98,83.47
152816,2018-06-29 10:04:27.500000,39.34,83.47
152817,2018-06-29 10:04:27.531250,34.11,83.35
152818,2018-06-29 10:04:27.562500,25.76,83.35
152819,2018-06-29 10:04:27.593750,16.47,83.35
152820,2018-06-29 10:04:27.625000,7.42,83.35
152821,2018-06-29 10:04:27.656250,-2.19,83.35
152822,2018-06-29 10:04:27.687500,-13.05,83.35
152823,2018-06-29 10:04:27.718750,-23.77,83.35
152824,2018-06-29 10:04:27.750000,-32.74,83.35
152825,2018-06-29 10:04:27.781250,-40.57,83.35
152826,2018-06-29 10:04:27.812500,-49.63,83.35
152827,2018-06-29 10:04:27.843750,-61.87,83.35
152828,2018-06-29 10:04:27.875000,-74.65,83.35
152829,2018-06-29 10:04:27.906250,-78.11,83.35
152830,2018-06-29 10:04:27.937500,-63.19,83.35
152831,2018-06-29 10:04:27.968750,-33.9,83.35
152832,2018-06-29 10:04:28.000000,-3.81,83.35
152833,2018-06-29 10:04:28.031250,19.17,83.35
152834,2018-06-29 10:04:28.062500,36.37,83.35
152835,2018-06-29 10:04:28.093750,49.74,83.35
152836,2018-06-29 10:04:28.125000,58.2,83.35
152837,2018-06-29 10:04:28.156250,60.77,83.35
152838,2018-06-29 10:04:28.187500,58.1,83.35
152839,2018-06-29 10:04:28.218750,52.21,83.35
152840,2018-06-29 10:04:28.250000,46.23,83.35
152841,2018-06-29 10:04:28.281250,42.27,83.35
152842,2018-06-29 10:04:28.312500,39.1,83.35
152843,2018-06-29 10:04:28.343750,33.46,83.35
152844,2018-06-29 10:04:28.375000,23.71,83.35
152845,2018-06-29 10:04:28.406250,11.53,83.35
152846,2018-06-29 10:04:28.437500,0.23,83.35
152847,2018-06-29 10:04:28.468750,-9.19,83.35
152848,2018-06-29 10:04:28.500000,-18.57,83.35
152849,2018-06-29 10:04:28.531250,-29.09,83.22
152850,2018-06-29 10:04:28.562500,-39.88,83.22
152851,2018-06-29 10:04:28.593750,-50.93,83.22
152852,2018-06-29 10:04:28.625000,-64.42,83.22
152853,2018-06-29 10:04:28.656250,-80.76,83.22
152854,2018-06-29 10:04:28.687500,-93.35,83.22
152855,2018-06-29 10:04:28.718750,-90.9,83.22
152856,2018-06-29 10:04:28.750000,-69.48,83.22
152857,2018-06-29 10:04:28.781250,-38.34,83.22
152858,2018-06-29 10:04:28.812500,-8.85,83.22
152859,2018-06-29 10:04:28.843750,16.91,83.22
152860,2018-06-29 10:04:28.875000,42.2,83.22
152861,2018-06-29 10:04:28.906250,66.33,83.22
152862,2018-06-29 10:04:28.937500,84.17,83.22
152863,2018-06-29 10:04:28.968750,92.91,83.22
152864,2018-06-29 10:04:29.000000,96.04,83.22
152865,2018-06-29 10:04:29.031250,100.86,83.22
152866,2018-06-29 10:04:29.062500,113.44,83.22
152867,2018-06-29 10:04:29.093750,135.36,83.22
152868,2018-06-29 10:04:29.125000,160.28,83.22
152869,2018-06-29 10:04:29.156250,175.33,83.22
152870,2018-06-29 10:04:29.187500,172.0,83.22
152871,2018-06-29 10:04:29.218750,153.15,83.22
152872,2018-06-29 10:04:29.250000,125.48,83.22
152873,2018-06-29 10:04:29.281250,92.78,83.22
152874,2018-06-29 10:04:29.312500,59.91,83.22
152875,2018-06-29 10:04:29.343750,32.9,83.22
152876,2018-06-29 10:04:29.375000,10.97,83.22
152877,2018-06-29 10:04:29.406250,-13.66,83.22
152878,2018-06-29 10:04:29.437500,-47.86,83.22
152879,2018-06-29 10:04:29.468750,-92.19,83.22
152880,2018-06-29 10:04:29.500000,-138.39,83.22
152881,2018-06-29 10:04:29.531250,-169.67,83.03
152882,2018-06-29 10:04:29.562500,-171.27,83.03
152883,2018-06-29 10:04:29.593750,-143.88,83.03
152884,2018-06-29 10:04:29.625000,-101.25,83.03
152885,2018-06-29 10:04:29.656250,-55.4,83.03
152886,2018-06-29 10:04:29.687500,-10.57,83.03
152887,2018-06-29 10:04:29.718750,30.24,83.03
152888,2018-06-29 10:04:29.750000,61.35,83.03
152889,2018-06-29 10:04:29.781250,79.58,83.03
152890,2018-06-29 10:04:29.812500,89.08,83.03
152891,2018-06-29 10:04:29.843750,97.87,83.03
152892,2018-06-29 10:04:29.875000,109.75,83.03
152893,2018-06-29 10:04:29.906250,122.73,83.03
152894,2018-06-29 10:04:29.937500,133.7,83.03
152895,2018-06-29 10:04:29.968750,139.58,83.03
152896,2018-06-29 10:04:30.000000,136.93,83.03
152897,2018-06-29 10:04:30.031250,126.15,83.03
152898,2018-06-29 10:04:30.062500,114.18,83.03
152899,2018-06-29 10:04:30.093750,101.08,83.03
152900,2018-06-29 10:04:30.125000,78.35,83.03
152901,2018-06-29 10:04:30.156250,41.38,83.03
152902,2018-06-29 10:04:30.187500,-2.27,83.03
152903,2018-06-29 10:04:30.218750,-39.27,83.03
152904,2018-06-29 10:04:30.250000,-59.18,83.03
152905,2018-06-29 10:04:30.281250,-55.52,83.03
152906,2018-06-29 10:04:30.312500,-31.36,83.03
152907,2018-06-29 10:04:30.343750,5.34,83.03
152908,2018-06-29 10:04:30.375000,39.97,83.03
152909,2018-06-29 10:04:30.406250,58.82,83.03
152910,2018-06-29 10:04:30.437500,48.13,83.03
152911,2018-06-29 10:04:30.468750,12.36,83.03
152912,2018-06-29 10:04:30.500000,-27.16,83.03
152913,2018-06-29 10:04:30.531250,-67.71,82.88
152914,2018-06-29 10:04:30.562500,-128.83,82.88
152915,2018-06-29 10:04:30.593750,-233.01,82.88
152916,2018-06-29 10:04:30.625000,-340.65,82.88
152917,2018-06-29 10:04:30.656250,-416.15,82.88
152918,2018-06-29 10:04:30.687500,-464.12,82.88
152919,2018-06-29 10:04:30.718750,-531.03,82.88
152920,2018-06-29 10:04:30.750000,-626.61,82.88
152921,2018-06-29 10:04:30.781250,-702.97,82.88
152922,2018-06-29 10:04:30.812500,-720.42,82.88
152923,2018-06-29 10:04:30.843750,-664.85,82.88
152924,2018-06-29 10:04:30.875000,-587.06,82.88
152925,2018-06-29 10:04:30.906250,-490.2,82.88
152926,2018-06-29 10:04:30.937500,-379.47,82.88
152927,2018-06-29 10:04:30.968750,-213.44,82.88
152928,2018-06-29 10:04:31.000000,145.95,82.88
152929,2018-06-29 10:04:31.031250,407.6,82.88
152930,2018-06-29 10:04:31.062500,477.67,82.88
152931,2018-06-29 10:04:31.093750,456.81,82.88
152932,2018-06-29 10:04:31.125000,390.98,82.88
152933,2018-06-29 10:04:31.156250,261.5,82.88
152934,2018-06-29 10:04:31.187500,139.22,82.88
152935,2018-06-29 10:04:31.218750,70.5,82.88
152936,2018-06-29 10:04:31.250000,82.13,82.88
152937,2018-06-29 10:04:31.281250,136.69,82.88
152938,2018-06-29 10:04:31.312500,185.97,82.88
152939,2018-06-29 10:04:31.343750,250.75,82.88
152940,2018-06-29 10:04:31.375000,323.45,82.88
152941,2018-06-29 10:04:31.406250,375.82,82.88
152942,2018-06-29 10:04:31.437500,348.99,82.88
152943,2018-06-29 10:04:31.468750,284.7,82.88
152944,2018-06-29 10:04:31.500000,241.95,82.88
152945,2018-06-29 10:04:31.531250,252.98,82.77
152946,2018-06-29 10:04:31.562500,292.92,82.77
152947,2018-06-29 10:04:31.593750,323.32,82.77
152948,2018-06-29 10:04:31.625000,344.85,82.77
152949,2018-06-29 10:04:31.656250,291.21,82.77
152950,2018-06-29 10:04:31.687500,156.12,82.77
152951,2018-06-29 10:04:31.718750,20.14,82.77
152952,2018-06-29 10:04:31.750000,-91.89,82.77
152953,2018-06-29 10:04:31.781250,-176.78,82.77
152954,2018-06-29 10:04:31.812500,-220.65,82.77
152955,2018-06-29 10:04:31.843750,-236.29,82.77
152956,2018-06-29 10:04:31.875000,-249.53,82.77
152957,2018-06-29 10:04:31.906250,-257.01,82.77
152958,2018-06-29 10:04:31.937500,-241.59,82.77
152959,2018-06-29 10:04:31.968750,-168.85,82.77
152960,2018-06-29 10:04:32.000000,-73.14,82.77
152961,2018-06-29 10:04:32.031250,-1.31,82.77
152962,2018-06-29 10:04:32.062500,22.41,82.77
152963,2018-06-29 10:04:32.093750,43.21,82.77
152964,2018-06-29 10:04:32.125000,106.88,82.77
152965,2018-06-29 10:04:32.156250,206.93,82.77
152966,2018-06-29 10:04:32.187500,293.74,82.77
152967,2018-06-29 10:04:32.218750,263.96,82.77
152968,2018-06-29 10:04:32.250000,164.63,82.77
152969,2018-06-29 10:04:32.281250,43.06,82.77
152970,2018-06-29 10:04:32.312500,-91.49,82.77
152971,2018-06-29 10:04:32.343750,-218.75,82.77
152972,2018-06-29 10:04:32.375000,-296.7,82.77
152973,2018-06-29 10:04:32.406250,-316.79,82.77
152974,2018-06-29 10:04:32.437500,-277.39,82.77
152975,2018-06-29 10:04:32.468750,-142.42,82.77
152976,2018-06-29 10:04:32.500000,-6.95,82.77
152977,2018-06-29 10:04:32.531250,75.29,82.65
152978,2018-06-29 10:04:32.562500,123.23,82.65
152979,2018-06-29 10:04:32.593750,170.83,82.65
152980,2018-06-29 10:04:32.625000,226.38,82.65
152981,2018-06-29 10:04:32.656250,302.62,82.65
152982,2018-06-29 10:04:32.687500,360.68,82.65
152983,2018-06-29 10:04:32.718750,363.28,82.65
152984,2018-06-29 10:04:32.750000,307.93,82.65
152985,2018-06-29 10:04:32.781250,224.61,82.65
152986,2018-06-29 10:04:32.812500,144.53,82.65
