,Time,ppg,hr
160000,2018-06-29 10:08:12.000000,53.03,67.37
160001,2018-06-29 10:08:12.031250,14.64,67.37
160002,2018-06-29 10:08:12.062500,-28.84,67.37
160003,2018-06-29 10:08:12.093750,-62.62,67.37
160004,2018-06-29 10:08:12.125000,-78.89,67.37
160005,2018-06-29 10:08:12.156250,-87.65,67.37
160006,2018-06-29 10:08:12.187500,-102.93,67.37
160007,2018-06-29 10:08:12.218750,-124.78,67.37
160008,2018-06-29 10:08:12.250000,-139.77,67.37
160009,2018-06-29 10:08:12.281250,-135.32,67.37
160010,2018-06-29 10:08:12.312500,-113.63,67.37
160011,2018-06-29 10:08:12.343750,-89.7,67.37
160012,2018-06-29 10:08:12.375000,-73.41,67.37
160013,2018-06-29 10:08:12.406250,-63.9,67.37
160014,2018-06-29 10:08:12.437500,-61.93,67.37
160015,2018-06-29 10:08:12.468750,-71.92,67.37
160016,2018-06-29 10:08:12.500000,-91.96,67.37
160017,2018-06-29 10:08:12.531250,-113.57,67.35
160018,2018-06-29 10:08:12.562500,-127.58,67.35
160019,2018-06-29 10:08:12.593750,-128.23,67.35
160020,2018-06-29 10:08:12.625000,-119.73,67.35
160021,2018-06-29 10:08:12.656250,-114.39,67.35
160022,2018-06-29 10:08:12.687500,-115.43,67.35
160023,2018-06-29 10:08:12.718750,-109.84,67.35
160024,2018-06-29 10:08:12.750000,-86.28,67.35
160025,2018-06-29 10:08:12.781250,-51.01,67.35
160026,2018-06-29 10:08:12.812500,-21.13,67.35
160027,2018-06-29 10:08:12.843750,-6.92,67.35
160028,2018-06-29 10:08:12.875000,-5.31,67.35
160029,2018-06-29 10:08:12.906250,-9.75,67.35
160030,2018-06-29 10:08:12.937500,-17.69,67.35
160031,2018-06-29 10:08:12.968750,-26.77,67.35
160032,2018-06-29 10:08:13.000000,-34.6,67.35
160033,2018-06-29 10:08:13.031250,-43.06,67.35
160034,2018-06-29 10:08:13.062500,-54.51,67.35
160035,2018-06-29 10:08:13.093750,-66.22,67.35
160036,2018-06-29 10:08:13.125000,-74.74,67.35
160037,2018-06-29 10:08:13.156250,-80.81,67.35
160038,2018-06-29 10:08:13.187500,-85.58,67.35
160039,2018-06-29 10:08:13.218750,-86.53,67.35
160040,2018-06-29 10:08:13.250000,-79.53,67.35
160041,2018-06-29 10:08:13.281250,-63.99,67.35
160042,2018-06-29 10:08:13.312500,-42.89,67.35
160043,2018-06-29 10:08:13.343750,-17.52,67.35
160044,2018-06-29 10:08:13.375000,12.94,67.35
160045,2018-06-29 10:08:13.406250,46.28,67.35
160046,2018-06-29 10:08:13.437500,77.39,67.35
160047,2018-06-29 10:08:13.468750,102.53,67.35
160048,2018-06-29 10:08:13.500000,117.82,67.35
160049,2018-06-29 10:08:13.531250,116.81,67.38
160050,2018-06-29 10:08:13.562500,95.87,67.38
160051,2018-06-29 10:08:13.593750,61.52,67.38
160052,2018-06-29 10:08:13.625000,26.92,67.38
160053,2018-06-29 10:08:13.656250,0.08,67.38
160054,2018-06-29 10:08:13.687500,-19.53,67.38
160055,2018-06-29 10:08:13.718750,-32.98,67.38
160056,2018-06-29 10:08:13.750000,-39.1,67.38
160057,2018-06-29 10:08:13.781250,-40.74,67.38
160058,2018-06-29 10:08:13.812500,-44.17,67.38
160059,2018-06-29 10:08:13.843750,-50.58,67.38
160060,2018-06-29 10:08:13.875000,-54.48,67.38
160061,2018-06-29 10:08:13.906250,-50.2,67.38
160062,2018-06-29 10:08:13.937500,-36.65,67.38
160063,2018-06-29 10:08:13.968750,-17.63,67.38
160064,2018-06-29 10:08:14.000000,0.1,67.38
160065,2018-06-29 10:08:14.031250,11.72,67.38
160066,2018-06-29 10:08:14.062500,16.28,67.38
160067,2018-06-29 10:08:14.093750,13.21,67.38
160068,2018-06-29 10:08:14.125000,2.35,67.38
160069,2018-06-29 10:08:14.156250,-13.15,67.38
160070,2018-06-29 10:08:14.187500,-29.53,67.38
160071,2018-06-29 10:08:14.218750,-45.97,67.38
160072,2018-06-29 10:08:14.250000,-61.02,67.38
160073,2018-06-29 10:08:14.281250,-71.18,67.38
160074,2018-06-29 10:08:14.312500,-77.04,67.38
160075,2018-06-29 10:08:14.343750,-84.0,67.38
160076,2018-06-29 10:08:14.375000,-92.69,67.38
160077,2018-06-29 10:08:14.406250,-93.39,67.38
160078,2018-06-29 10:08:14.437500,-75.29,67.38
160079,2018-06-29 10:08:14.468750,-40.29,67.38
160080,2018-06-29 10:08:14.500000,-3.0,67.38
160081,2018-06-29 10:08:14.531250,23.56,67.42
160082,2018-06-29 10:08:14.562500,37.05,67.42
160083,2018-06-29 10:08:14.593750,39.79,67.42
160084,2018-06-29 10:08:14.625000,33.07,67.42
160085,2018-06-29 10:08:14.656250,21.66,67.42
160086,2018-06-29 10:08:14.687500,14.72,67.42
160087,2018-06-29 10:08:14.718750,16.54,67.42
160088,2018-06-29 10:08:14.750000,22.2,67.42
160089,2018-06-29 10:08:14.781250,25.61,67.42
160090,2018-06-29 10:08:14.812500,25.82,67.42
160091,2018-06-29 10:08:14.843750,23.74,67.42
160092,2018-06-29 10:08:14.875000,19.03,67.42
160093,2018-06-29 10:08:14.906250,11.51,67.42
160094,2018-06-29 10:08:14.937500,2.17,67.42
160095,2018-06-29 10:08:14.968750,-8.12,67.42
160096,2018-06-29 10:08:15.000000,-18.8,67.42
160097,2018-06-29 10:08:15.031250,-28.97,67.42
160098,2018-06-29 10:08:15.062500,-38.34,67.42
160099,2018-06-29 10:08:15.093750,-48.71,67.42
160100,2018-06-29 10:08:15.125000,-61.43,67.42
160101,2018-06-29 10:08:15.156250,-70.72,67.42
160102,2018-06-29 10:08:15.187500,-64.42,67.42
160103,2018-06-29 10:08:15.218750,-38.01,67.42
160104,2018-06-29 10:08:15.250000,-2.42,67.42
160105,2018-06-29 10:08:15.281250,28.11,67.42
160106,2018-06-29 10:08:15.312500,49.43,67.42
160107,2018-06-29 10:08:15.343750,63.3,67.42
160108,2018-06-29 10:08:15.375000,69.16,67.42
160109,2018-06-29 10:08:15.406250,67.52,67.42
160110,2018-06-29 10:08:15.437500,64.27,67.42
160111,2018-06-29 10:08:15.468750,65.25,67.42
160112,2018-06-29 10:08:15.500000,69.58,67.42
160113,2018-06-29 10:08:15.531250,71.82,67.43
160114,2018-06-29 10:08:15.562500,68.93,67.43
160115,2018-06-29 10:08:15.593750,62.0,67.43
160116,2018-06-29 10:08:15.625000,52.9,67.43
160117,2018-06-29 10:08:15.656250,41.71,67.43
160118,2018-06-29 10:08:15.687500,28.06,67.43
160119,2018-06-29 10:08:15.718750,13.16,67.43
160120,2018-06-29 10:08:15.750000,-0.94,67.43
160121,2018-06-29 10:08:15.781250,-13.91,67.43
160122,2018-06-29 10:08:15.812500,-27.65,67.43
160123,2018-06-29 10:08:15.843750,-44.4,67.43
160124,2018-06-29 10:08:15.875000,-64.16,67.43
160125,2018-06-29 10:08:15.906250,-80.77,67.43
160126,2018-06-29 10:08:15.937500,-82.11,67.43
160127,2018-06-29 10:08:15.968750,-60.88,67.43
160128,2018-06-29 10:08:16.000000,-24.59,67.43
160129,2018-06-29 10:08:16.031250,11.53,67.43
160130,2018-06-29 10:08:16.062500,39.52,67.43
160131,2018-06-29 10:08:16.093750,60.73,67.43
160132,2018-06-29 10:08:16.125000,77.19,67.43
160133,2018-06-29 10:08:16.156250,87.57,67.43
160134,2018-06-29 10:08:16.187500,90.86,67.43
160135,2018-06-29 10:08:16.218750,88.95,67.43
160136,2018-06-29 10:08:16.250000,84.38,67.43
160137,2018-06-29 10:08:16.281250,78.52,67.43
160138,2018-06-29 10:08:16.312500,72.47,67.43
160139,2018-06-29 10:08:16.343750,66.74,67.43
160140,2018-06-29 10:08:16.375000,59.81,67.43
160141,2018-06-29 10:08:16.406250,50.56,67.43
160142,2018-06-29 10:08:16.437500,40.94,67.43
160143,2018-06-29 10:08:16.468750,32.92,67.43
160144,2018-06-29 10:08:16.500000,25.6,67.43
160145,2018-06-29 10:08:16.531250,17.7,67.43
160146,2018-06-29 10:08:16.562500,9.64,67.43
160147,2018-06-29 10:08:16.593750,0.44,67.43
160148,2018-06-29 10:08:16.625000,-13.66,67.43
160149,2018-06-29 10:08:16.656250,-35.7,67.43
160150,2018-06-29 10:08:16.687500,-62.86,67.43
160151,2018-06-29 10:08:16.718750,-82.8,67.43
160152,2018-06-29 10:08:16.750000,-78.85,67.43
160153,2018-06-29 10:08:16.781250,-46.71,67.43
160154,2018-06-29 10:08:16.812500,-2.47,67.43
160155,2018-06-29 10:08:16.843750,33.62,67.43
160156,2018-06-29 10:08:16.875000,55.49,67.43
160157,2018-06-29 10:08:16.906250,67.79,67.43
160158,2018-06-29 10:08:16.937500,73.65,67.43
160159,2018-06-29 10:08:16.968750,73.92,67.43
160160,2018-06-29 10:08:17.000000,72.11,67.43
160161,2018-06-29 10:08:17.031250,72.61,67.43
160162,2018-06-29 10:08:17.062500,75.9,67.43
160163,2018-06-29 10:08:17.093750,78.94,67.43
160164,2018-06-29 10:08:17.125000,78.85,67.43
160165,2018-06-29 10:08:17.156250,74.23,67.43
160166,2018-06-29 10:08:17.187500,65.03,67.43
160167,2018-06-29 10:08:17.218750,53.08,67.43
160168,2018-06-29 10:08:17.250000,41.12,67.43
160169,2018-06-29 10:08:17.281250,30.68,67.43
160170,2018-06-29 10:08:17.312500,22.12,67.43
160171,2018-06-29 10:08:17.343750,15.21,67.43
160172,2018-06-29 10:08:17.375000,8.3,67.43
160173,2018-06-29 10:08:17.406250,-0.84,67.43
160174,2018-06-29 10:08:17.437500,-12.61,67.43
160175,2018-06-29 10:08:17.468750,-25.27,67.43
160176,2018-06-29 10:08:17.500000,-37.33,67.43
160177,2018-06-29 10:08:17.531250,-49.14,67.42
160178,2018-06-29 10:08:17.562500,-62.66,67.42
160179,2018-06-29 10:08:17.593750,-78.88,67.42
160180,2018-06-29 10:08:17.625000,-92.44,67.42
160181,2018-06-29 10:08:17.656250,-90.92,67.42
160182,2018-06-29 10:08:17.687500,-66.92,67.42
160183,2018-06-29 10:08:17.718750,-29.2,67.42
160184,2018-06-29 10:08:17.750000,5.54,67.42
160185,2018-06-29 10:08:17.781250,29.78,67.42
160186,2018-06-29 10:08:17.812500,46.6,67.42
160187,2018-06-29 10:08:17.843750,59.17,67.42
160188,2018-06-29 10:08:17.875000,67.48,67.42
160189,2018-06-29 10:08:17.906250,72.4,67.42
160190,2018-06-29 10:08:17.937500,76.05,67.42
160191,2018-06-29 10:08:17.968750,79.21,67.42
160192,2018-06-29 10:08:18.000000,81.66,67.42
160193,2018-06-29 10:08:18.031250,83.4,67.42
160194,2018-06-29 10:08:18.062500,82.9,67.42
160195,2018-06-29 10:08:18.093750,77.22,67.42
160196,2018-06-29 10:08:18.125000,66.12,67.42
160197,2018-06-29 10:08:18.156250,53.39,67.42
160198,2018-06-29 10:08:18.187500,41.99,67.42
160199,2018-06-29 10:08:18.218750,31.45,67.42
160200,2018-06-29 10:08:18.250000,20.83,67.42
160201,2018-06-29 10:08:18.281250,10.86,67.42
160202,2018-06-29 10:08:18.312500,2.55,67.42
160203,2018-06-29 10:08:18.343750,-4.35,67.42
160204,2018-06-29 10:08:18.375000,-11.33,67.42
160205,2018-06-29 10:08:18.406250,-19.43,67.42
160206,2018-06-29 10:08:18.437500,-28.14,67.42
160207,2018-06-29 10:08:18.468750,-36.68,67.42
160208,2018-06-29 10:08:18.500000,-45.95,67.42
160209,2018-06-29 10:08:18.531250,-57.83,67.42
160210,2018-06-29 10:08:18.562500,-71.19,67.42
160211,2018-06-29 10:08:18.593750,-78.37,67.42
160212,2018-06-29 10:08:18.625000,-69.44,67.42
160213,2018-06-29 10:08:18.656250,-43.31,67.42
160214,2018-06-29 10:08:18.687500,-10.93,67.42
160215,2018-06-29 10:08:18.718750,15.49,67.42
160216,2018-06-29 10:08:18.750000,31.8,67.42
160217,2018-06-29 10:08:18.781250,39.14,67.42
160218,2018-06-29 10:08:18.812500,38.81,67.42
160219,2018-06-29 10:08:18.843750,33.62,67.42
160220,2018-06-29 10:08:18.875000,28.69,67.42
160221,2018-06-29 10:08:18.906250,26.79,67.42
160222,2018-06-29 10:08:18.937500,26.41,67.42
160223,2018-06-29 10:08:18.968750,26.18,67.42
160224,2018-06-29 10:08:19.000000,26.86,67.42
160225,2018-06-29 10:08:19.031250,28.03,67.42
160226,2018-06-29 10:08:19.062500,27.21,67.42
160227,2018-06-29 10:08:19.093750,23.29,67.42
160228,2018-06-29 10:08:19.125000,17.75,67.42
160229,2018-06-29 10:08:19.156250,11.71,67.42
160230,2018-06-29 10:08:19.187500,3.88,67.42
160231,2018-06-29 10:08:19.218750,-6.77,67.42
160232,2018-06-29 10:08:19.250000,-18.17,67.42
160233,2018-06-29 10:08:19.281250,-28.22,67.42
160234,2018-06-29 10:08:19.312500,-39.23,67.42
160235,2018-06-29 10:08:19.343750,-54.78,67.42
160236,2018-06-29 10:08:19.375000,-73.3,67.42
160237,2018-06-29 10:08:19.406250,-86.66,67.42
160238,2018-06-29 10:08:19.437500,-84.59,67.42
160239,2018-06-29 10:08:19.468750,-62.49,67.42
160240,2018-06-29 10:08:19.500000,-27.21,67.42
160241,2018-06-29 10:08:19.531250,8.38,67.4
160242,2018-06-29 10:08:19.562500,36.52,67.4
160243,2018-06-29 10:08:19.593750,56.21,67.4
160244,2018-06-29 10:08:19.625000,66.31,67.4
160245,2018-06-29 10:08:19.656250,65.14,67.4
160246,2018-06-29 10:08:19.687500,55.76,67.4
160247,2018-06-29 10:08:19.718750,44.88,67.4
160248,2018-06-29 10:08:19.750000,36.91,67.4
160249,2018-06-29 10:08:19.781250,32.7,67.4
160250,2018-06-29 10:08:19.812500,32.1,67.4
160251,2018-06-29 10:08:19.843750,33.74,67.4
160252,2018-06-29 10:08:19.875000,34.39,67.4
160253,2018-06-29 10:08:19.906250,31.52,67.4
160254,2018-06-29 10:08:19.937500,25.82,67.4
160255,2018-06-29 10:08:19.968750,19.11,67.4
160256,2018-06-29 10:08:20.000000,10.58,67.4
160257,2018-06-29 10:08:20.031250,-2.5,67.4
160258,2018-06-29 10:08:20.062500,-20.67,67.4
160259,2018-06-29 10:08:20.093750,-41.22,67.4
160260,2018-06-29 10:08:20.125000,-61.53,67.4
160261,2018-06-29 10:08:20.156250,-82.23,67.4
160262,2018-06-29 10:08:20.187500,-105.87,67.4
160263,2018-06-29 10:08:20.218750,-131.94,67.4
160264,2018-06-29 10:08:20.250000,-152.7,67.4
160265,2018-06-29 10:08:20.281250,-155.49,67.4
160266,2018-06-29 10:08:20.312500,-132.69,67.4
160267,2018-06-29 10:08:20.343750,-90.0,67.4
160268,2018-06-29 10:08:20.375000,-42.09,67.4
160269,2018-06-29 10:08:20.406250,-0.08,67.4
160270,2018-06-29 10:08:20.437500,32.73,67.4
160271,2018-06-29 10:08:20.468750,55.56,67.4
160272,2018-06-29 10:08:20.500000,67.47,67.4
160273,2018-06-29 10:08:20.531250,69.79,67.38
160274,2018-06-29 10:08:20.562500,66.4,67.38
160275,2018-06-29 10:08:20.593750,61.17,67.38
160276,2018-06-29 10:08:20.625000,56.39,67.38
160277,2018-06-29 10:08:20.656250,52.33,67.38
160278,2018-06-29 10:08:20.687500,47.94,67.38
160279,2018-06-29 10:08:20.718750,42.62,67.38
160280,2018-06-29 10:08:20.750000,36.63,67.38
160281,2018-06-29 10:08:20.781250,30.31,67.38
160282,2018-06-29 10:08:20.812500,23.81,67.38
160283,2018-06-29 10:08:20.843750,16.93,67.38
160284,2018-06-29 10:08:20.875000,9.2,67.38
160285,2018-06-29 10:08:20.906250,0.4,67.38
160286,2018-06-29 10:08:20.937500,-9.35,67.38
160287,2018-06-29 10:08:20.968750,-19.79,67.38
160288,2018-06-29 10:08:21.000000,-30.34,67.38
160289,2018-06-29 10:08:21.031250,-40.17,67.38
160290,2018-06-29 10:08:21.062500,-48.81,67.38
160291,2018-06-29 10:08:21.093750,-56.72,67.38
160292,2018-06-29 10:08:21.125000,-64.59,67.38
160293,2018-06-29 10:08:21.156250,-70.53,67.38
160294,2018-06-29 10:08:21.187500,-68.72,67.38
160295,2018-06-29 10:08:21.218750,-55.4,67.38
160296,2018-06-29 10:08:21.250000,-35.62,67.38
160297,2018-06-29 10:08:21.281250,-18.94,67.38
160298,2018-06-29 10:08:21.312500,-9.06,67.38
160299,2018-06-29 10:08:21.343750,-1.81,67.38
160300,2018-06-29 10:08:21.375000,7.64,67.38
160301,2018-06-29 10:08:21.406250,19.76,67.38
160302,2018-06-29 10:08:21.437500,32.6,67.38
160303,2018-06-29 10:08:21.468750,44.97,67.38
160304,2018-06-29 10:08:21.500000,55.81,67.38
160305,2018-06-29 10:08:21.531250,63.31,67.37
160306,2018-06-29 10:08:21.562500,66.87,67.37
160307,2018-06-29 10:08:21.593750,67.88,67.37
160308,2018-06-29 10:08:21.625000,66.61,67.37
160309,2018-06-29 10:08:21.656250,61.48,67.37
160310,2018-06-29 10:08:21.687500,52.76,67.37
160311,2018-06-29 10:08:21.718750,43.25,67.37
160312,2018-06-29 10:08:21.750000,34.06,67.37
160313,2018-06-29 10:08:21.781250,23.59,67.37
160314,2018-06-29 10:08:21.812500,11.82,67.37
160315,2018-06-29 10:08:21.843750,1.73,67.37
160316,2018-06-29 10:08:21.875000,-4.86,67.37
160317,2018-06-29 10:08:21.906250,-9.08,67.37
160318,2018-06-29 10:08:21.937500,-12.74,67.37
160319,2018-06-29 10:08:21.968750,-16.54,67.37
160320,2018-06-29 10:08:22.000000,-20.46,67.37
160321,2018-06-29 10:08:22.031250,-25.18,67.37
160322,2018-06-29 10:08:22.062500,-33.15,67.37
160323,2018-06-29 10:08:22.093750,-46.25,67.37
160324,2018-06-29 10:08:22.125000,-60.38,67.37
160325,2018-06-29 10:08:22.156250,-65.86,67.37
160326,2018-06-29 10:08:22.187500,-56.64,67.37
160327,2018-06-29 10:08:22.218750,-36.32,67.37
160328,2018-06-29 10:08:22.250000,-13.65,67.37
160329,2018-06-29 10:08:22.281250,4.76,67.37
160330,2018-06-29 10:08:22.312500,16.41,67.37
160331,2018-06-29 10:08:22.343750,21.17,67.37
160332,2018-06-29 10:08:22.375000,19.93,67.37
160333,2018-06-29 10:08:22.406250,15.05,67.37
160334,2018-06-29 10:08:22.437500,10.37,67.37
160335,2018-06-29 10:08:22.468750,8.55,67.37
160336,2018-06-29 10:08:22.500000,9.18,67.37
160337,2018-06-29 10:08:22.531250,10.83,67.33
160338,2018-06-29 10:08:22.562500,12.97,67.33
160339,2018-06-29 10:08:22.593750,14.82,67.33
160340,2018-06-29 10:08:22.625000,14.6,67.33
160341,2018-06-29 10:08:22.656250,11.65,67.33
160342,2018-06-29 10:08:22.687500,7.41,67.33
160343,2018-06-29 10:08:22.718750,3.31,67.33
160344,2018-06-29 10:08:22.750000,-1.13,67.33
160345,2018-06-29 10:08:22.781250,-7.35,67.33
160346,2018-06-29 10:08:22.812500,-15.09,67.33
160347,2018-06-29 10:08:22.843750,-22.28,67.33
160348,2018-06-29 10:08:22.875000,-27.81,67.33
160349,2018-06-29 10:08:22.906250,-33.0,67.33
160350,2018-06-29 10:08:22.937500,-39.42,67.33
160351,2018-06-29 10:08:22.968750,-46.12,67.33
160352,2018-06-29 10:08:23.000000,-48.98,67.33
160353,2018-06-29 10:08:23.031250,-42.96,67.33
160354,2018-06-29 10:08:23.062500,-26.92,67.33
160355,2018-06-29 10:08:23.093750,-6.3,67.33
160356,2018-06-29 10:08:23.125000,11.32,67.33
160357,2018-06-29 10:08:23.156250,22.01,67.33
160358,2018-06-29 10:08:23.187500,25.42,67.33
160359,2018-06-29 10:08:23.218750,22.8,67.33
160360,2018-06-29 10:08:23.250000,17.58,67.33
160361,2018-06-29 10:08:23.281250,14.1,67.33
160362,2018-06-29 10:08:23.312500,14.13,67.33
160363,2018-06-29 10:08:23.343750,16.33,67.33
160364,2018-06-29 10:08:23.375000,18.68,67.33
160365,2018-06-29 10:08:23.406250,20.01,67.33
160366,2018-06-29 10:08:23.437500,19.62,67.33
160367,2018-06-29 10:08:23.468750,17.05,67.33
160368,2018-06-29 10:08:23.500000,12.83,67.33
160369,2018-06-29 10:08:23.531250,8.65,67.3
160370,2018-06-29 10:08:23.562500,5.36,67.3
160371,2018-06-29 10:08:23.593750,1.95,67.3
160372,2018-06-29 10:08:23.625000,-2.82,67.3
160373,2018-06-29 10:08:23.656250,-8.64,67.3
160374,2018-06-29 10:08:23.687500,-14.42,67.3
160375,2018-06-29 10:08:23.718750,-20.3,67.3
160376,2018-06-29 10:08:23.750000,-28.19,67.3
160377,2018-06-29 10:08:23.781250,-39.09,67.3
160378,2018-06-29 10:08:23.812500,-48.35,67.3
160379,2018-06-29 10:08:23.843750,-47.43,67.3
160380,2018-06-29 10:08:23.875000,-33.75,67.3
160381,2018-06-29 10:08:23.906250,-14.97,67.3
160382,2018-06-29 10:08:23.937500,-0.8,67.3
160383,2018-06-29 10:08:23.968750,5.45,67.3
160384,2018-06-29 10:08:24.000000,5.94,67.3
160385,2018-06-29 10:08:24.031250,4.17,67.3
160386,2018-06-29 10:08:24.062500,2.56,67.3
160387,2018-06-29 10:08:24.093750,0.7,67.3
160388,2018-06-29 10:08:24.125000,-2.83,67.3
160389,2018-06-29 10:08:24.156250,-7.02,67.3
160390,2018-06-29 10:08:24.187500,-8.69,67.3
160391,2018-06-29 10:08:24.218750,-5.22,67.3
160392,2018-06-29 10:08:24.250000,3.32,67.3
160393,2018-06-29 10:08:24.281250,13.6,67.3
160394,2018-06-29 10:08:24.312500,21.31,67.3
160395,2018-06-29 10:08:24.343750,25.69,67.3
160396,2018-06-29 10:08:24.375000,30.45,67.3
160397,2018-06-29 10:08:24.406250,36.69,67.3
160398,2018-06-29 10:08:24.437500,36.3,67.3
160399,2018-06-29 10:08:24.468750,18.5,67.3
160400,2018-06-29 10:08:24.500000,-13.53,67.3
160401,2018-06-29 10:08:24.531250,-40.92,67.27
160402,2018-06-29 10:08:24.562500,-48.08,67.27
160403,2018-06-29 10:08:24.593750,-35.94,67.27
160404,2018-06-29 10:08:24.625000,-15.8,67.27
160405,2018-06-29 10:08:24.656250,2.26,67.27
160406,2018-06-29 10:08:24.687500,14.68,67.27
160407,2018-06-29 10:08:24.718750,22.68,67.27
160408,2018-06-29 10:08:24.750000,25.86,67.27
160409,2018-06-29 10:08:24.781250,21.4,67.27
160410,2018-06-29 10:08:24.812500,11.54,67.27
160411,2018-06-29 10:08:24.843750,4.53,67.27
160412,2018-06-29 10:08:24.875000,5.18,67.27
160413,2018-06-29 10:08:24.906250,10.07,67.27
160414,2018-06-29 10:08:24.937500,13.51,67.27
160415,2018-06-29 10:08:24.968750,13.69,67.27
160416,2018-06-29 10:08:25.000000,11.43,67.27
160417,2018-06-29 10:08:25.031250,7.68,67.27
160418,2018-06-29 10:08:25.062500,4.79,67.27
160419,2018-06-29 10:08:25.093750,6.17,67.27
160420,2018-06-29 10:08:25.125000,11.89,67.27
160421,2018-06-29 10:08:25.156250,17.57,67.27
160422,2018-06-29 10:08:25.187500,18.95,67.27
160423,2018-06-29 10:08:25.218750,14.95,67.27
160424,2018-06-29 10:08:25.250000,6.39,67.27
160425,2018-06-29 10:08:25.281250,-4.95,67.27
160426,2018-06-29 10:08:25.312500,-16.9,67.27
160427,2018-06-29 10:08:25.343750,-28.52,67.27
160428,2018-06-29 10:08:25.375000,-39.79,67.27
160429,2018-06-29 10:08:25.406250,-49.56,67.27
160430,2018-06-29 10:08:25.437500,-55.89,67.27
160431,2018-06-29 10:08:25.468750,-58.59,67.27
160432,2018-06-29 10:08:25.500000,-60.71,67.27
160433,2018-06-29 10:08:25.531250,-66.97,67.2
160434,2018-06-29 10:08:25.562500,-78.1,67.2
160435,2018-06-29 10:08:25.593750,-86.45,67.2
160436,2018-06-29 10:08:25.625000,-82.05,67.2
160437,2018-06-29 10:08:25.656250,-64.07,67.2
160438,2018-06-29 10:08:25.687500,-40.9,67.2
160439,2018-06-29 10:08:25.718750,-19.34,67.2
160440,2018-06-29 10:08:25.750000,-0.28,67.2
160441,2018-06-29 10:08:25.781250,15.65,67.2
160442,2018-06-29 10:08:25.812500,25.31,67.2
160443,2018-06-29 10:08:25.843750,27.69,67.2
160444,2018-06-29 10:08:25.875000,26.6,67.2
160445,2018-06-29 10:08:25.906250,26.56,67.2
160446,2018-06-29 10:08:25.937500,29.06,67.2
160447,2018-06-29 10:08:25.968750,33.83,67.2
160448,2018-06-29 10:08:26.000000,40.26,67.2
160449,2018-06-29 10:08:26.031250,45.89,67.2
160450,2018-06-29 10:08:26.062500,46.81,67.2
160451,2018-06-29 10:08:26.093750,41.43,67.2
160452,2018-06-29 10:08:26.125000,33.11,67.2
160453,2018-06-29 10:08:26.156250,26.94,67.2
160454,2018-06-29 10:08:26.187500,24.61,67.2
160455,2018-06-29 10:08:26.218750,23.59,67.2
160456,2018-06-29 10:08:26.250000,20.53,67.2
160457,2018-06-29 10:08:26.281250,13.9,67.2
160458,2018-06-29 10:08:26.312500,4.33,67.2
160459,2018-06-29 10:08:26.343750,-7.17,67.2
160460,2018-06-29 10:08:26.375000,-21.28,67.2
160461,2018-06-29 10:08:26.406250,-39.78,67.2
160462,2018-06-29 10:08:26.437500,-61.53,67.2
160463,2018-06-29 10:08:26.468750,-79.39,67.2
160464,2018-06-29 10:08:26.500000,-83.47,67.2
160465,2018-06-29 10:08:26.531250,-69.93,67.15
160466,2018-06-29 10:08:26.562500,-45.44,67.15
160467,2018-06-29 10:08:26.593750,-20.49,67.15
160468,2018-06-29 10:08:26.625000,-0.33,67.15
160469,2018-06-29 10:08:26.656250,14.96,67.15
160470,2018-06-29 10:08:26.687500,25.63,67.15
160471,2018-06-29 10:08:26.718750,31.35,67.15
160472,2018-06-29 10:08:26.750000,33.25,67.15
160473,2018-06-29 10:08:26.781250,33.81,67.15
160474,2018-06-29 10:08:26.812500,34.41,67.15
160475,2018-06-29 10:08:26.843750,35.1,67.15
160476,2018-06-29 10:08:26.875000,35.93,67.15
160477,2018-06-29 10:08:26.906250,36.24,67.15
160478,2018-06-29 10:08:26.937500,33.66,67.15
160479,2018-06-29 10:08:26.968750,26.97,67.15
160480,2018-06-29 10:08:27.000000,18.38,67.15
160481,2018-06-29 10:08:27.031250,10.84,67.15
160482,2018-06-29 10:08:27.062500,4.2,67.15
160483,2018-06-29 10:08:27.093750,-3.55,67.15
160484,2018-06-29 10:08:27.125000,-12.51,67.15
160485,2018-06-29 10:08:27.156250,-20.58,67.15
160486,2018-06-29 10:08:27.187500,-26.95,67.15
160487,2018-06-29 10:08:27.218750,-33.19,67.15
160488,2018-06-29 10:08:27.250000,-41.14,67.15
160489,2018-06-29 10:08:27.281250,-50.27,67.15
160490,2018-06-29 10:08:27.312500,-55.53,67.15
160491,2018-06-29 10:08:27.343750,-49.38,67.15
160492,2018-06-29 10:08:27.375000,-30.3,67.15
160493,2018-06-29 10:08:27.406250,-6.59,67.15
160494,2018-06-29 10:08:27.437500,13.07,67.15
160495,2018-06-29 10:08:27.468750,27.56,67.15
160496,2018-06-29 10:08:27.500000,37.66,67.15
160497,2018-06-29 10:08:27.531250,40.73,67.12
160498,2018-06-29 10:08:27.562500,36.89,67.12
160499,2018-06-29 10:08:27.593750,32.4,67.12
160500,2018-06-29 10:08:27.625000,32.06,67.12
160501,2018-06-29 10:08:27.656250,34.07,67.12
160502,2018-06-29 10:08:27.687500,34.89,67.12
160503,2018-06-29 10:08:27.718750,33.62,67.12
160504,2018-06-29 10:08:27.750000,29.83,67.12
160505,2018-06-29 10:08:27.781250,22.56,67.12
160506,2018-06-29 10:08:27.812500,12.59,67.12
160507,2018-06-29 10:08:27.843750,2.14,67.12
160508,2018-06-29 10:08:27.875000,-8.0,67.12
160509,2018-06-29 10:08:27.906250,-18.12,67.12
160510,2018-06-29 10:08:27.937500,-27.78,67.12
160511,2018-06-29 10:08:27.968750,-36.71,67.12
160512,2018-06-29 10:08:28.000000,-46.3,67.12
160513,2018-06-29 10:08:28.031250,-58.7,67.12
160514,2018-06-29 10:08:28.062500,-73.4,67.12
160515,2018-06-29 10:08:28.093750,-83.12,67.12
160516,2018-06-29 10:08:28.125000,-77.2,67.12
160517,2018-06-29 10:08:28.156250,-53.42,67.12
160518,2018-06-29 10:08:28.187500,-22.19,67.12
160519,2018-06-29 10:08:28.218750,5.02,67.12
160520,2018-06-29 10:08:28.250000,25.35,67.12
160521,2018-06-29 10:08:28.281250,40.54,67.12
160522,2018-06-29 10:08:28.312500,50.57,67.12
160523,2018-06-29 10:08:28.343750,55.15,67.12
160524,2018-06-29 10:08:28.375000,56.44,67.12
160525,2018-06-29 10:08:28.406250,57.1,67.12
160526,2018-06-29 10:08:28.437500,57.44,67.12
160527,2018-06-29 10:08:28.468750,56.73,67.12
160528,2018-06-29 10:08:28.500000,55.53,67.12
160529,2018-06-29 10:08:28.531250,54.05,67.1
160530,2018-06-29 10:08:28.562500,49.85,67.1
160531,2018-06-29 10:08:28.593750,40.74,67.1
160532,2018-06-29 10:08:28.625000,29.05,67.1
160533,2018-06-29 10:08:28.656250,18.73,67.1
160534,2018-06-29 10:08:28.687500,9.84,67.1
160535,2018-06-29 10:08:28.718750,-0.32,67.1
160536,2018-06-29 10:08:28.750000,-12.24,67.1
160537,2018-06-29 10:08:28.781250,-23.63,67.1
160538,2018-06-29 10:08:28.812500,-33.52,67.1
160539,2018-06-29 10:08:28.843750,-44.47,67.1
160540,2018-06-29 10:08:28.875000,-59.48,67.1
160541,2018-06-29 10:08:28.906250,-76.24,67.1
160542,2018-06-29 10:08:28.937500,-85.04,67.1
160543,2018-06-29 10:08:28.968750,-76.07,67.1
160544,2018-06-29 10:08:29.000000,-50.4,67.1
160545,2018-06-29 10:08:29.031250,-19.62,67.1
160546,2018-06-29 10:08:29.062500,6.81,67.1
160547,2018-06-29 10:08:29.093750,27.83,67.1
160548,2018-06-29 10:08:29.125000,44.54,67.1
160549,2018-06-29 10:08:29.156250,55.31,67.1
160550,2018-06-29 10:08:29.187500,59.53,67.1
160551,2018-06-29 10:08:29.218750,60.45,67.1
160552,2018-06-29 10:08:29.250000,61.35,67.1
160553,2018-06-29 10:08:29.281250,62.53,67.1
160554,2018-06-29 10:08:29.312500,63.47,67.1
160555,2018-06-29 10:08:29.343750,64.15,67.1
160556,2018-06-29 10:08:29.375000,63.37,67.1
160557,2018-06-29 10:08:29.406250,59.46,67.1
160558,2018-06-29 10:08:29.437500,52.73,67.1
160559,2018-06-29 10:08:29.468750,44.77,67.1
160560,2018-06-29 10:08:29.500000,36.53,67.1
160561,2018-06-29 10:08:29.531250,28.48,67.1
160562,2018-06-29 10:08:29.562500,21.0,67.1
160563,2018-06-29 10:08:29.593750,14.33,67.1
160564,2018-06-29 10:08:29.625000,8.24,67.1
160565,2018-06-29 10:08:29.656250,1.74,67.1
160566,2018-06-29 10:08:29.687500,-5.83,67.1
160567,2018-06-29 10:08:29.718750,-13.41,67.1
160568,2018-06-29 10:08:29.750000,-20.04,67.1
160569,2018-06-29 10:08:29.781250,-27.03,67.1
160570,2018-06-29 10:08:29.812500,-35.94,67.1
160571,2018-06-29 10:08:29.843750,-45.63,67.1
160572,2018-06-29 10:08:29.875000,-54.32,67.1
160573,2018-06-29 10:08:29.906250,-62.78,67.1
160574,2018-06-29 10:08:29.937500,-73.21,67.1
160575,2018-06-29 10:08:29.968750,-85.71,67.1
160576,2018-06-29 10:08:30.000000,-95.34,67.1
160577,2018-06-29 10:08:30.031250,-92.88,67.1
160578,2018-06-29 10:08:30.062500,-72.79,67.1
160579,2018-06-29 10:08:30.093750,-41.3,67.1
160580,2018-06-29 10:08:30.125000,-11.34,67.1
160581,2018-06-29 10:08:30.156250,10.62,67.1
160582,2018-06-29 10:08:30.187500,26.85,67.1
160583,2018-06-29 10:08:30.218750,39.8,67.1
160584,2018-06-29 10:08:30.250000,48.26,67.1
160585,2018-06-29 10:08:30.281250,51.46,67.1
160586,2018-06-29 10:08:30.312500,51.54,67.1
160587,2018-06-29 10:08:30.343750,51.08,67.1
160588,2018-06-29 10:08:30.375000,51.18,67.1
160589,2018-06-29 10:08:30.406250,52.09,67.1
160590,2018-06-29 10:08:30.437500,52.94,67.1
160591,2018-06-29 10:08:30.468750,51.62,67.1
160592,2018-06-29 10:08:30.500000,46.98,67.1
160593,2018-06-29 10:08:30.531250,40.26,67.12
160594,2018-06-29 10:08:30.562500,33.42,67.12
160595,2018-06-29 10:08:30.593750,27.23,67.12
160596,2018-06-29 10:08:30.625000,21.51,67.12
160597,2018-06-29 10:08:30.656250,15.68,67.12
160598,2018-06-29 10:08:30.687500,9.14,67.12
160599,2018-06-29 10:08:30.718750,1.67,67.12
160600,2018-06-29 10:08:30.750000,-6.28,67.12
160601,2018-06-29 10:08:30.781250,-13.59,67.12
160602,2018-06-29 10:08:30.812500,-19.85,67.12
160603,2018-06-29 10:08:30.843750,-26.48,67.12
160604,2018-06-29 10:08:30.875000,-34.47,67.12
160605,2018-06-29 10:08:30.906250,-42.31,67.12
160606,2018-06-29 10:08:30.937500,-48.68,67.12
160607,2018-06-29 10:08:30.968750,-54.98,67.12
160608,2018-06-29 10:08:31.000000,-63.23,67.12
160609,2018-06-29 10:08:31.031250,-73.32,67.12
160610,2018-06-29 10:08:31.062500,-81.69,67.12
160611,2018-06-29 10:08:31.093750,-81.38,67.12
160612,2018-06-29 10:08:31.125000,-67.61,67.12
160613,2018-06-29 10:08:31.156250,-44.71,67.12
160614,2018-06-29 10:08:31.187500,-22.56,67.12
160615,2018-06-29 10:08:31.218750,-6.29,67.12
160616,2018-06-29 10:08:31.250000,5.32,67.12
160617,2018-06-29 10:08:31.281250,13.35,67.12
160618,2018-06-29 10:08:31.312500,17.53,67.12
160619,2018-06-29 10:08:31.343750,19.98,67.12
160620,2018-06-29 10:08:31.375000,24.55,67.12
160621,2018-06-29 10:08:31.406250,31.77,67.12
160622,2018-06-29 10:08:31.437500,37.92,67.12
160623,2018-06-29 10:08:31.468750,39.9,67.12
160624,2018-06-29 10:08:31.500000,37.87,67.12
160625,2018-06-29 10:08:31.531250,32.74,67.08
160626,2018-06-29 10:08:31.562500,25.01,67.08
160627,2018-06-29 10:08:31.593750,16.97,67.08
160628,2018-06-29 10:08:31.625000,11.98,67.08
160629,2018-06-29 10:08:31.656250,10.32,67.08
160630,2018-06-29 10:08:31.687500,8.75,67.08
160631,2018-06-29 10:08:31.718750,5.18,67.08
160632,2018-06-29 10:08:31.750000,0.58,67.08
160633,2018-06-29 10:08:31.781250,-4.18,67.08
160634,2018-06-29 10:08:31.812500,-10.84,67.08
160635,2018-06-29 10:08:31.843750,-21.55,67.08
160636,2018-06-29 10:08:31.875000,-35.59,67.08
160637,2018-06-29 10:08:31.906250,-49.37,67.08
160638,2018-06-29 10:08:31.937500,-60.19,67.08
160639,2018-06-29 10:08:31.968750,-68.95,67.08
160640,2018-06-29 10:08:32.000000,-78.16,67.08
160641,2018-06-29 10:08:32.031250,-86.86,67.08
160642,2018-06-29 10:08:32.062500,-88.6,67.08
160643,2018-06-29 10:08:32.093750,-76.54,67.08
160644,2018-06-29 10:08:32.125000,-51.69,67.08
160645,2018-06-29 10:08:32.156250,-23.17,67.08
160646,2018-06-29 10:08:32.187500,0.83,67.08
160647,2018-06-29 10:08:32.218750,19.12,67.08
160648,2018-06-29 10:08:32.250000,33.4,67.08
160649,2018-06-29 10:08:32.281250,43.73,67.08
160650,2018-06-29 10:08:32.312500,50.15,67.08
160651,2018-06-29 10:08:32.343750,54.29,67.08
160652,2018-06-29 10:08:32.375000,57.74,67.08
160653,2018-06-29 10:08:32.406250,61.33,67.08
160654,2018-06-29 10:08:32.437500,65.48,67.08
160655,2018-06-29 10:08:32.468750,69.33,67.08
160656,2018-06-29 10:08:32.500000,70.87,67.08
160657,2018-06-29 10:08:32.531250,68.68,67.0
160658,2018-06-29 10:08:32.562500,62.8,67.0
160659,2018-06-29 10:08:32.593750,54.47,67.0
160660,2018-06-29 10:08:32.625000,45.62,67.0
160661,2018-06-29 10:08:32.656250,37.31,67.0
160662,2018-06-29 10:08:32.687500,28.76,67.0
160663,2018-06-29 10:08:32.718750,19.3,67.0
160664,2018-06-29 10:08:32.750000,9.76,67.0
160665,2018-06-29 10:08:32.781250,1.6,67.0
160666,2018-06-29 10:08:32.812500,-4.71,67.0
160667,2018-06-29 10:08:32.843750,-10.44,67.0
160668,2018-06-29 10:08:32.875000,-17.45,67.0
160669,2018-06-29 10:08:32.906250,-25.78,67.0
160670,2018-06-29 10:08:32.937500,-33.82,67.0
160671,2018-06-29 10:08:32.968750,-40.68,67.0
160672,2018-06-29 10:08:33.000000,-47.45,67.0
160673,2018-06-29 10:08:33.031250,-56.31,67.0
160674,2018-06-29 10:08:33.062500,-67.5,67.0
160675,2018-06-29 10:08:33.093750,-75.18,67.0
160676,2018-06-29 10:08:33.125000,-70.24,67.0
160677,2018-06-29 10:08:33.156250,-50.89,67.0
160678,2018-06-29 10:08:33.187500,-25.65,67.0
160679,2018-06-29 10:08:33.218750,-3.89,67.0
160680,2018-06-29 10:08:33.250000,11.61,67.0
160681,2018-06-29 10:08:33.281250,21.8,67.0
160682,2018-06-29 10:08:33.312500,27.01,67.0
160683,2018-06-29 10:08:33.343750,27.55,67.0
160684,2018-06-29 10:08:33.375000,26.03,67.0
160685,2018-06-29 10:08:33.406250,25.87,67.0
160686,2018-06-29 10:08:33.437500,27.52,67.0
160687,2018-06-29 10:08:33.468750,28.92,67.0
160688,2018-06-29 10:08:33.500000,29.65,67.0
160689,2018-06-29 10:08:33.531250,30.68,66.87
160690,2018-06-29 10:08:33.562500,31.06,66.87
160691,2018-06-29 10:08:33.593750,28.75,66.87
160692,2018-06-29 10:08:33.625000,23.93,66.87
160693,2018-06-29 10:08:33.656250,18.4,66.87
160694,2018-06-29 10:08:33.687500,12.76,66.87
160695,2018-06-29 10:08:33.718750,6.4,66.87
160696,2018-06-29 10:08:33.750000,-0.76,66.87
160697,2018-06-29 10:08:33.781250,-8.05,66.87
160698,2018-06-29 10:08:33.812500,-14.77,66.87
160699,2018-06-29 10:08:33.843750,-20.69,66.87
160700,2018-06-29 10:08:33.875000,-26.71,66.87
160701,2018-06-29 10:08:33.906250,-34.34,66.87
160702,2018-06-29 10:08:33.937500,-43.78,66.87
160703,2018-06-29 10:08:33.968750,-51.87,66.87
160704,2018-06-29 10:08:34.000000,-52.22,66.87
160705,2018-06-29 10:08:34.031250,-40.48,66.87
160706,2018-06-29 10:08:34.062500,-20.44,66.87
160707,2018-06-29 10:08:34.093750,-1.29,66.87
160708,2018-06-29 10:08:34.125000,11.61,66.87
160709,2018-06-29 10:08:34.156250,18.63,66.87
160710,2018-06-29 10:08:34.187500,20.6,66.87
160711,2018-06-29 10:08:34.218750,18.46,66.87
160712,2018-06-29 10:08:34.250000,16.08,66.87
160713,2018-06-29 10:08:34.281250,16.98,66.87
160714,2018-06-29 10:08:34.312500,20.07,66.87
160715,2018-06-29 10:08:34.343750,22.53,66.87
160716,2018-06-29 10:08:34.375000,23.73,66.87
160717,2018-06-29 10:08:34.406250,23.45,66.87
160718,2018-06-29 10:08:34.437500,20.3,66.87
160719,2018-06-29 10:08:34.468750,14.16,66.87
160720,2018-06-29 10:08:34.500000,7.22,66.87
160721,2018-06-29 10:08:34.531250,1.05,66.73
160722,2018-06-29 10:08:34.562500,-5.15,66.73
160723,2018-06-29 10:08:34.593750,-13.04,66.73
160724,2018-06-29 10:08:34.625000,-22.51,66.73
160725,2018-06-29 10:08:34.656250,-31.58,66.73
160726,2018-06-29 10:08:34.687500,-39.34,66.73
160727,2018-06-29 10:08:34.718750,-47.41,66.73
160728,2018-06-29 10:08:34.750000,-57.56,66.73
160729,2018-06-29 10:08:34.781250,-68.11,66.73
160730,2018-06-29 10:08:34.812500,-72.53,66.73
160731,2018-06-29 10:08:34.843750,-63.71,66.73
160732,2018-06-29 10:08:34.875000,-42.25,66.73
160733,2018-06-29 10:08:34.906250,-17.51,66.73
160734,2018-06-29 10:08:34.937500,2.4,66.73
160735,2018-06-29 10:08:34.968750,16.71,66.73
160736,2018-06-29 10:08:35.000000,27.2,66.73
160737,2018-06-29 10:08:35.031250,33.79,66.73
160738,2018-06-29 10:08:35.062500,36.67,66.73
160739,2018-06-29 10:08:35.093750,37.88,66.73
160740,2018-06-29 10:08:35.125000,38.99,66.73
160741,2018-06-29 10:08:35.156250,39.62,66.73
160742,2018-06-29 10:08:35.187500,39.35,66.73
160743,2018-06-29 10:08:35.218750,39.06,66.73
160744,2018-06-29 10:08:35.250000,39.11,66.73
160745,2018-06-29 10:08:35.281250,37.64,66.73
160746,2018-06-29 10:08:35.312500,32.82,66.73
160747,2018-06-29 10:08:35.343750,25.08,66.73
160748,2018-06-29 10:08:35.375000,15.92,66.73
160749,2018-06-29 10:08:35.406250,6.65,66.73
160750,2018-06-29 10:08:35.437500,-1.67,66.73
160751,2018-06-29 10:08:35.468750,-9.24,66.73
160752,2018-06-29 10:08:35.500000,-17.56,66.73
160753,2018-06-29 10:08:35.531250,-26.92,66.58
160754,2018-06-29 10:08:35.562500,-36.05,66.58
160755,2018-06-29 10:08:35.593750,-44.49,66.58
160756,2018-06-29 10:08:35.625000,-53.65,66.58
160757,2018-06-29 10:08:35.656250,-65.41,66.58
160758,2018-06-29 10:08:35.687500,-78.6,66.58
160759,2018-06-29 10:08:35.718750,-85.28,66.58
160760,2018-06-29 10:08:35.750000,-75.93,66.58
160761,2018-06-29 10:08:35.781250,-51.56,66.58
160762,2018-06-29 10:08:35.812500,-23.61,66.58
160763,2018-06-29 10:08:35.843750,-0.6,66.58
160764,2018-06-29 10:08:35.875000,17.46,66.58
160765,2018-06-29 10:08:35.906250,32.06,66.58
160766,2018-06-29 10:08:35.937500,41.95,66.58
160767,2018-06-29 10:08:35.968750,46.39,66.58
160768,2018-06-29 10:08:36.000000,47.09,66.58
160769,2018-06-29 10:08:36.031250,46.58,66.58
160770,2018-06-29 10:08:36.062500,46.53,66.58
160771,2018-06-29 10:08:36.093750,47.36,66.58
160772,2018-06-29 10:08:36.125000,48.62,66.58
160773,2018-06-29 10:08:36.156250,49.13,66.58
160774,2018-06-29 10:08:36.187500,47.33,66.58
160775,2018-06-29 10:08:36.218750,42.68,66.58
160776,2018-06-29 10:08:36.250000,36.44,66.58
160777,2018-06-29 10:08:36.281250,30.75,66.58
160778,2018-06-29 10:08:36.312500,26.74,66.58
160779,2018-06-29 10:08:36.343750,23.34,66.58
160780,2018-06-29 10:08:36.375000,18.05,66.58
160781,2018-06-29 10:08:36.406250,9.99,66.58
160782,2018-06-29 10:08:36.437500,1.25,66.58
160783,2018-06-29 10:08:36.468750,-6.24,66.58
160784,2018-06-29 10:08:36.500000,-13.72,66.58
160785,2018-06-29 10:08:36.531250,-22.95,66.45
160786,2018-06-29 10:08:36.562500,-32.75,66.45
160787,2018-06-29 10:08:36.593750,-41.03,66.45
160788,2018-06-29 10:08:36.625000,-48.54,66.45
160789,2018-06-29 10:08:36.656250,-58.01,66.45
160790,2018-06-29 10:08:36.687500,-70.6,66.45
160791,2018-06-29 10:08:36.718750,-83.37,66.45
160792,2018-06-29 10:08:36.750000,-88.31,66.45
160793,2018-06-29 10:08:36.781250,-77.34,66.45
160794,2018-06-29 10:08:36.812500,-51.72,66.45
160795,2018-06-29 10:08:36.843750,-22.52,66.45
160796,2018-06-29 10:08:36.875000,0.99,66.45
160797,2018-06-29 10:08:36.906250,18.4,66.45
160798,2018-06-29 10:08:36.937500,32.54,66.45
160799,2018-06-29 10:08:36.968750,43.52,66.45
160800,2018-06-29 10:08:37.000000,50.36,66.45
160801,2018-06-29 10:08:37.031250,54.26,66.45
160802,2018-06-29 10:08:37.062500,57.36,66.45
160803,2018-06-29 10:08:37.093750,60.22,66.45
160804,2018-06-29 10:08:37.125000,62.26,66.45
160805,2018-06-29 10:08:37.156250,63.28,66.45
160806,2018-06-29 10:08:37.187500,62.69,66.45
160807,2018-06-29 10:08:37.218750,59.0,66.45
160808,2018-06-29 10:08:37.250000,51.99,66.45
160809,2018-06-29 10:08:37.281250,43.68,66.45
160810,2018-06-29 10:08:37.312500,35.86,66.45
160811,2018-06-29 10:08:37.343750,28.51,66.45
160812,2018-06-29 10:08:37.375000,20.89,66.45
160813,2018-06-29 10:08:37.406250,13.45,66.45
160814,2018-06-29 10:08:37.437500,7.57,66.45
160815,2018-06-29 10:08:37.468750,3.46,66.45
160816,2018-06-29 10:08:37.500000,-0.99,66.45
160817,2018-06-29 10:08:37.531250,-8.0,66.32
160818,2018-06-29 10:08:37.562500,-17.21,66.32
160819,2018-06-29 10:08:37.593750,-26.68,66.32
160820,2018-06-29 10:08:37.625000,-35.57,66.32
160821,2018-06-29 10:08:37.656250,-44.61,66.32
160822,2018-06-29 10:08:37.687500,-55.08,66.32
160823,2018-06-29 10:08:37.718750,-66.49,66.32
160824,2018-06-29 10:08:37.750000,-73.48,66.32
160825,2018-06-29 10:08:37.781250,-68.35,66.32
160826,2018-06-29 10:08:37.812500,-49.79,66.32
160827,2018-06-29 10:08:37.843750,-25.75,66.32
160828,2018-06-29 10:08:37.875000,-5.12,66.32
160829,2018-06-29 10:08:37.906250,9.39,66.32
160830,2018-06-29 10:08:37.937500,18.63,66.32
160831,2018-06-29 10:08:37.968750,22.66,66.32
160832,2018-06-29 10:08:38.000000,22.29,66.32
160833,2018-06-29 10:08:38.031250,20.86,66.32
160834,2018-06-29 10:08:38.062500,20.92,66.32
160835,2018-06-29 10:08:38.093750,21.57,66.32
160836,2018-06-29 10:08:38.125000,21.99,66.32
160837,2018-06-29 10:08:38.156250,23.16,66.32
160838,2018-06-29 10:08:38.187500,24.44,66.32
160839,2018-06-29 10:08:38.218750,23.32,66.32
160840,2018-06-29 10:08:38.250000,19.25,66.32
160841,2018-06-29 10:08:38.281250,13.8,66.32
160842,2018-06-29 10:08:38.312500,7.92,66.32
160843,2018-06-29 10:08:38.343750,1.89,66.32
160844,2018-06-29 10:08:38.375000,-3.54,66.32
160845,2018-06-29 10:08:38.406250,-8.52,66.32
160846,2018-06-29 10:08:38.437500,-14.55,66.32
160847,2018-06-29 10:08:38.468750,-21.96,66.32
160848,2018-06-29 10:08:38.500000,-29.14,66.32
160849,2018-06-29 10:08:38.531250,-35.47,66.27
160850,2018-06-29 10:08:38.562500,-42.94,66.27
160851,2018-06-29 10:08:38.593750,-53.58,66.27
160852,2018-06-29 10:08:38.625000,-66.44,66.27
160853,2018-06-29 10:08:38.656250,-75.87,66.27
160854,2018-06-29 10:08:38.687500,-73.81,66.27
160855,2018-06-29 10:08:38.718750,-57.54,66.27
160856,2018-06-29 10:08:38.750000,-33.99,66.27
160857,2018-06-29 10:08:38.781250,-12.94,66.27
160858,2018-06-29 10:08:38.812500,1.85,66.27
160859,2018-06-29 10:08:38.843750,12.27,66.27
160860,2018-06-29 10:08:38.875000,19.75,66.27
160861,2018-06-29 10:08:38.906250,23.34,66.27
160862,2018-06-29 10:08:38.937500,23.32,66.27
160863,2018-06-29 10:08:38.968750,23.26,66.27
160864,2018-06-29 10:08:39.000000,26.73,66.27
160865,2018-06-29 10:08:39.031250,33.76,66.27
160866,2018-06-29 10:08:39.062500,41.17,66.27
160867,2018-06-29 10:08:39.093750,45.67,66.27
160868,2018-06-29 10:08:39.125000,46.63,66.27
160869,2018-06-29 10:08:39.156250,46.66,66.27
160870,2018-06-29 10:08:39.187500,48.26,66.27
160871,2018-06-29 10:08:39.218750,50.74,66.27
160872,2018-06-29 10:08:39.250000,51.67,66.27
160873,2018-06-29 10:08:39.281250,49.5,66.27
160874,2018-06-29 10:08:39.312500,43.61,66.27
160875,2018-06-29 10:08:39.343750,33.95,66.27
160876,2018-06-29 10:08:39.375000,21.54,66.27
160877,2018-06-29 10:08:39.406250,7.8,66.27
160878,2018-06-29 10:08:39.437500,-6.77,66.27
160879,2018-06-29 10:08:39.468750,-22.88,66.27
160880,2018-06-29 10:08:39.500000,-41.54,66.27
160881,2018-06-29 10:08:39.531250,-63.01,66.23
160882,2018-06-29 10:08:39.562500,-84.72,66.23
160883,2018-06-29 10:08:39.593750,-99.1,66.23
160884,2018-06-29 10:08:39.625000,-97.6,66.23
160885,2018-06-29 10:08:39.656250,-79.98,66.23
160886,2018-06-29 10:08:39.687500,-55.08,66.23
160887,2018-06-29 10:08:39.718750,-30.75,66.23
160888,2018-06-29 10:08:39.750000,-8.83,66.23
160889,2018-06-29 10:08:39.781250,10.38,66.23
160890,2018-06-29 10:08:39.812500,25.46,66.23
160891,2018-06-29 10:08:39.843750,35.52,66.23
160892,2018-06-29 10:08:39.875000,40.98,66.23
160893,2018-06-29 10:08:39.906250,43.73,66.23
160894,2018-06-29 10:08:39.937500,46.15,66.23
160895,2018-06-29 10:08:39.968750,48.95,66.23
160896,2018-06-29 10:08:40.000000,51.04,66.23
160897,2018-06-29 10:08:40.031250,51.75,66.23
160898,2018-06-29 10:08:40.062500,51.3,66.23
160899,2018-06-29 10:08:40.093750,49.73,66.23
160900,2018-06-29 10:08:40.125000,47.05,66.23
160901,2018-06-29 10:08:40.156250,43.76,66.23
160902,2018-06-29 10:08:40.187500,39.79,66.23
160903,2018-06-29 10:08:40.218750,34.38,66.23
160904,2018-06-29 10:08:40.250000,27.58,66.23
160905,2018-06-29 10:08:40.281250,19.69,66.23
160906,2018-06-29 10:08:40.312500,9.87,66.23
160907,2018-06-29 10:08:40.343750,-2.18,66.23
160908,2018-06-29 10:08:40.375000,-14.72,66.23
160909,2018-06-29 10:08:40.406250,-26.28,66.23
160910,2018-06-29 10:08:40.437500,-37.85,66.23
160911,2018-06-29 10:08:40.468750,-51.35,66.23
160912,2018-06-29 10:08:40.500000,-65.8,66.23
160913,2018-06-29 10:08:40.531250,-74.42,66.23
160914,2018-06-29 10:08:40.562500,-69.0,66.23
160915,2018-06-29 10:08:40.593750,-49.66,66.23
160916,2018-06-29 10:08:40.625000,-25.98,66.23
160917,2018-06-29 10:08:40.656250,-7.1,66.23
160918,2018-06-29 10:08:40.687500,5.07,66.23
160919,2018-06-29 10:08:40.718750,13.04,66.23
160920,2018-06-29 10:08:40.750000,18.91,66.23
160921,2018-06-29 10:08:40.781250,23.09,66.23
160922,2018-06-29 10:08:40.812500,25.47,66.23
160923,2018-06-29 10:08:40.843750,26.6,66.23
160924,2018-06-29 10:08:40.875000,27.43,66.23
160925,2018-06-29 10:08:40.906250,28.69,66.23
160926,2018-06-29 10:08:40.937500,30.34,66.23
160927,2018-06-29 10:08:40.968750,30.62,66.23
160928,2018-06-29 10:08:41.000000,27.01,66.23
160929,2018-06-29 10:08:41.031250,19.57,66.23
160930,2018-06-29 10:08:41.062500,11.35,66.23
160931,2018-06-29 10:08:41.093750,4.5,66.23
160932,2018-06-29 10:08:41.125000,-1.58,66.23
160933,2018-06-29 10:08:41.156250,-7.84,66.23
160934,2018-06-29 10:08:41.187500,-13.72,66.23
160935,2018-06-29 10:08:41.218750,-18.76,66.23
160936,2018-06-29 10:08:41.250000,-24.24,66.23
160937,2018-06-29 10:08:41.281250,-32.58,66.23
160938,2018-06-29 10:08:41.312500,-44.71,66.23
160939,2018-06-29 10:08:41.343750,-56.36,66.23
160940,2018-06-29 10:08:41.375000,-59.1,66.23
160941,2018-06-29 10:08:41.406250,-49.04,66.23
160942,2018-06-29 10:08:41.437500,-31.39,66.23
160943,2018-06-29 10:08:41.468750,-13.47,66.23
160944,2018-06-29 10:08:41.500000,2.17,66.23
160945,2018-06-29 10:08:41.531250,15.13,66.25
160946,2018-06-29 10:08:41.562500,23.88,66.25
160947,2018-06-29 10:08:41.593750,27.94,66.25
160948,2018-06-29 10:08:41.625000,29.42,66.25
160949,2018-06-29 10:08:41.656250,30.88,66.25
160950,2018-06-29 10:08:41.687500,32.84,66.25
160951,2018-06-29 10:08:41.718750,34.14,66.25
160952,2018-06-29 10:08:41.750000,33.75,66.25
160953,2018-06-29 10:08:41.781250,31.19,66.25
160954,2018-06-29 10:08:41.812500,25.74,66.25
160955,2018-06-29 10:08:41.843750,17.8,66.25
160956,2018-06-29 10:08:41.875000,10.1,66.25
160957,2018-06-29 10:08:41.906250,4.82,66.25
160958,2018-06-29 10:08:41.937500,0.11,66.25
160959,2018-06-29 10:08:41.968750,-7.41,66.25
160960,2018-06-29 10:08:42.000000,-17.98,66.25
160961,2018-06-29 10:08:42.031250,-29.01,66.25
160962,2018-06-29 10:08:42.062500,-38.72,66.25
160963,2018-06-29 10:08:42.093750,-47.96,66.25
160964,2018-06-29 10:08:42.125000,-59.01,66.25
160965,2018-06-29 10:08:42.156250,-71.66,66.25
160966,2018-06-29 10:08:42.187500,-79.22,66.25
160967,2018-06-29 10:08:42.218750,-72.5,66.25
160968,2018-06-29 10:08:42.250000,-50.54,66.25
160969,2018-06-29 10:08:42.281250,-23.31,66.25
160970,2018-06-29 10:08:42.312500,-0.53,66.25
160971,2018-06-29 10:08:42.343750,16.45,66.25
160972,2018-06-29 10:08:42.375000,29.48,66.25
160973,2018-06-29 10:08:42.406250,37.29,66.25
160974,2018-06-29 10:08:42.437500,37.67,66.25
160975,2018-06-29 10:08:42.468750,30.91,66.25
160976,2018-06-29 10:08:42.500000,19.04,66.25
160977,2018-06-29 10:08:42.531250,5.13,66.3
160978,2018-06-29 10:08:42.562500,-6.15,66.3
160979,2018-06-29 10:08:42.593750,-11.3,66.3
160980,2018-06-29 10:08:42.625000,-11.62,66.3
160981,2018-06-29 10:08:42.656250,-10.43,66.3
160982,2018-06-29 10:08:42.687500,-7.85,66.3
160983,2018-06-29 10:08:42.718750,-1.99,66.3
160984,2018-06-29 10:08:42.750000,5.9,66.3
160985,2018-06-29 10:08:42.781250,11.39,66.3
160986,2018-06-29 10:08:42.812500,11.73,66.3
160987,2018-06-29 10:08:42.843750,7.4,66.3
160988,2018-06-29 10:08:42.875000,-0.31,66.3
160989,2018-06-29 10:08:42.906250,-11.66,66.3
160990,2018-06-29 10:08:42.937500,-27.98,66.3
160991,2018-06-29 10:08:42.968750,-47.93,66.3
160992,2018-06-29 10:08:43.000000,-63.6,66.3
160993,2018-06-29 10:08:43.031250,-65.04,66.3
160994,2018-06-29 10:08:43.062500,-51.21,66.3
160995,2018-06-29 10:08:43.093750,-31.23,66.3
160996,2018-06-29 10:08:43.125000,-13.46,66.3
160997,2018-06-29 10:08:43.156250,2.72,66.3
160998,2018-06-29 10:08:43.187500,23.28,66.3
160999,2018-06-29 10:08:43.218750,50.89,66.3
161000,2018-06-29 10:08:43.250000,81.85,66.3
161001,2018-06-29 10:08:43.281250,111.03,66.3
161002,2018-06-29 10:08:43.312500,138.89,66.3
161003,2018-06-29 10:08:43.343750,173.89,66.3
161004,2018-06-29 10:08:43.375000,227.36,66.3
161005,2018-06-29 10:08:43.406250,302.56,66.3
161006,2018-06-29 10:08:43.437500,388.21,66.3
161007,2018-06-29 10:08:43.468750,466.09,66.3
161008,2018-06-29 10:08:43.500000,524.07,66.3
161009,2018-06-29 10:08:43.531250,558.49,66.37
161010,2018-06-29 10:08:43.562500,564.73,66.37
161011,2018-06-29 10:08:43.593750,532.19,66.37
161012,2018-06-29 10:08:43.625000,454.66,66.37
161013,2018-06-29 10:08:43.656250,342.98,66.37
161014,2018-06-29 10:08:43.687500,220.21,66.37
161015,2018-06-29 10:08:43.718750,105.32,66.37
161016,2018-06-29 10:08:43.750000,7.13,66.37
161017,2018-06-29 10:08:43.781250,-70.86,66.37
161018,2018-06-29 10:08:43.812500,-128.75,66.37
161019,2018-06-29 10:08:43.843750,-171.07,66.37
161020,2018-06-29 10:08:43.875000,-202.72,66.37
161021,2018-06-29 10:08:43.906250,-225.05,66.37
161022,2018-06-29 10:08:43.937500,-238.25,66.37
161023,2018-06-29 10:08:43.968750,-244.15,66.37
161024,2018-06-29 10:08:44.000000,-243.03,66.37
161025,2018-06-29 10:08:44.031250,-231.33,66.37
161026,2018-06-29 10:08:44.062500,-205.81,66.37
161027,2018-06-29 10:08:44.093750,-169.0,66.37
161028,2018-06-29 10:08:44.125000,-128.24,66.37
161029,2018-06-29 10:08:44.156250,-90.24,66.37
161030,2018-06-29 10:08:44.187500,-58.63,66.37
161031,2018-06-29 10:08:44.218750,-36.27,66.37
161032,2018-06-29 10:08:44.250000,-26.31,66.37
161033,2018-06-29 10:08:44.281250,-29.84,66.37
161034,2018-06-29 10:08:44.312500,-45.2,66.37
161035,2018-06-29 10:08:44.343750,-71.33,66.37
161036,2018-06-29 10:08:44.375000,-109.02,66.37
161037,2018-06-29 10:08:44.406250,-156.63,66.37
161038,2018-06-29 10:08:44.437500,-207.27,66.37
161039,2018-06-29 10:08:44.468750,-253.8,66.37
161040,2018-06-29 10:08:44.500000,-294.27,66.37
161041,2018-06-29 10:08:44.531250,-330.69,66.47
161042,2018-06-29 10:08:44.562500,-367.28,66.47
161043,2018-06-29 10:08:44.593750,-407.28,66.47
161044,2018-06-29 10:08:44.625000,-443.21,66.47
161045,2018-06-29 10:08:44.656250,-455.94,66.47
161046,2018-06-29 10:08:44.687500,-433.41,66.47
161047,2018-06-29 10:08:44.718750,-383.44,66.47
161048,2018-06-29 10:08:44.750000,-322.66,66.47
161049,2018-06-29 10:08:44.781250,-263.35,66.47
161050,2018-06-29 10:08:44.812500,-214.64,66.47
161051,2018-06-29 10:08:44.843750,-182.62,66.47
161052,2018-06-29 10:08:44.875000,-163.42,66.47
161053,2018-06-29 10:08:44.906250,-152.83,66.47
161054,2018-06-29 10:08:44.937500,-161.28,66.47
161055,2018-06-29 10:08:44.968750,-189.84,66.47
161056,2018-06-29 10:08:45.000000,-203.9,66.47
161057,2018-06-29 10:08:45.031250,-171.89,66.47
161058,2018-06-29 10:08:45.062500,-110.96,66.47
161059,2018-06-29 10:08:45.093750,-61.0,66.47
161060,2018-06-29 10:08:45.125000,-41.84,66.47
161061,2018-06-29 10:08:45.156250,-51.29,66.47
161062,2018-06-29 10:08:45.187500,-71.48,66.47
161063,2018-06-29 10:08:45.218750,-82.13,66.47
161064,2018-06-29 10:08:45.250000,-86.12,66.47
161065,2018-06-29 10:08:45.281250,-97.37,66.47
161066,2018-06-29 10:08:45.312500,-106.2,66.47
161067,2018-06-29 10:08:45.343750,-92.34,66.47
161068,2018-06-29 10:08:45.375000,-57.44,66.47
161069,2018-06-29 10:08:45.406250,-14.69,66.47
161070,2018-06-29 10:08:45.437500,32.59,66.47
161071,2018-06-29 10:08:45.468750,81.87,66.47
161072,2018-06-29 10:08:45.500000,121.39,66.47
161073,2018-06-29 10:08:45.531250,143.4,66.58
161074,2018-06-29 10:08:45.562500,154.12,66.58
161075,2018-06-29 10:08:45.593750,162.84,66.58
161076,2018-06-29 10:08:45.625000,170.09,66.58
161077,2018-06-29 10:08:45.656250,172.63,66.58
161078,2018-06-29 10:08:45.687500,172.94,66.58
161079,2018-06-29 10:08:45.718750,175.22,66.58
161080,2018-06-29 10:08:45.750000,176.33,66.58
161081,2018-06-29 10:08:45.781250,169.34,66.58
161082,2018-06-29 10:08:45.812500,154.08,66.58
161083,2018-06-29 10:08:45.843750,137.18,66.58
161084,2018-06-29 10:08:45.875000,122.45,66.58
161085,2018-06-29 10:08:45.906250,107.07,66.58
161086,2018-06-29 10:08:45.937500,87.95,66.58
161087,2018-06-29 10:08:45.968750,66.26,66.58
161088,2018-06-29 10:08:46.000000,43.22,66.58
161089,2018-06-29 10:08:46.031250,15.72,66.58
161090,2018-06-29 10:08:46.062500,-19.65,66.58
161091,2018-06-29 10:08:46.093750,-58.6,66.58
161092,2018-06-29 10:08:46.125000,-86.61,66.58
161093,2018-06-29 10:08:46.156250,-88.41,66.58
161094,2018-06-29 10:08:46.187500,-62.72,66.58
161095,2018-06-29 10:08:46.218750,-23.44,66.58
161096,2018-06-29 10:08:46.250000,15.9,66.58
161097,2018-06-29 10:08:46.281250,51.93,66.58
161098,2018-06-29 10:08:46.312500,84.1,66.58
161099,2018-06-29 10:08:46.343750,107.53,66.58
161100,2018-06-29 10:08:46.375000,118.13,66.58
161101,2018-06-29 10:08:46.406250,118.64,66.58
161102,2018-06-29 10:08:46.437500,115.76,66.58
161103,2018-06-29 10:08:46.468750,114.22,66.58
161104,2018-06-29 10:08:46.500000,115.76,66.58
161105,2018-06-29 10:08:46.531250,120.8,66.77
161106,2018-06-29 10:08:46.562500,127.84,66.77
161107,2018-06-29 10:08:46.593750,133.21,66.77
161108,2018-06-29 10:08:46.625000,134.14,66.77
161109,2018-06-29 10:08:46.656250,130.35,66.77
161110,2018-06-29 10:08:46.687500,122.23,66.77
161111,2018-06-29 10:08:46.718750,109.93,66.77
161112,2018-06-29 10:08:46.750000,94.55,66.77
161113,2018-06-29 10:08:46.781250,78.33,66.77
161114,2018-06-29 10:08:46.812500,62.99,66.77
161115,2018-06-29 10:08:46.843750,47.67,66.77
161116,2018-06-29 10:08:46.875000,29.0,66.77
161117,2018-06-29 10:08:46.906250,4.65,66.77
161118,2018-06-29 10:08:46.937500,-19.9,66.77
161119,2018-06-29 10:08:46.968750,-30.92,66.77
161120,2018-06-29 10:08:47.000000,-19.94,66.77
161121,2018-06-29 10:08:47.031250,5.22,66.77
161122,2018-06-29 10:08:47.062500,29.38,66.77
161123,2018-06-29 10:08:47.093750,44.94,66.77
161124,2018-06-29 10:08:47.125000,52.43,66.77
161125,2018-06-29 10:08:47.156250,53.92,66.77
161126,2018-06-29 10:08:47.187500,52.31,66.77
161127,2018-06-29 10:08:47.218750,52.17,66.77
161128,2018-06-29 10:08:47.250000,56.49,66.77
161129,2018-06-29 10:08:47.281250,63.89,66.77
161130,2018-06-29 10:08:47.312500,71.27,66.77
161131,2018-06-29 10:08:47.343750,77.88,66.77
161132,2018-06-29 10:08:47.375000,84.18,66.77
161133,2018-06-29 10:08:47.406250,88.49,66.77
161134,2018-06-29 10:08:47.437500,89.35,66.77
161135,2018-06-29 10:08:47.468750,88.43,66.77
161136,2018-06-29 10:08:47.500000,87.24,66.77
161137,2018-06-29 10:08:47.531250,83.74,66.97
161138,2018-06-29 10:08:47.562500,75.35,66.97
161139,2018-06-29 10:08:47.593750,62.42,66.97
161140,2018-06-29 10:08:47.625000,46.83,66.97
161141,2018-06-29 10:08:47.656250,29.57,66.97
161142,2018-06-29 10:08:47.687500,10.23,66.97
161143,2018-06-29 10:08:47.718750,-12.41,66.97
161144,2018-06-29 10:08:47.750000,-37.24,66.97
161145,2018-06-29 10:08:47.781250,-55.88,66.97
161146,2018-06-29 10:08:47.812500,-56.46,66.97
161147,2018-06-29 10:08:47.843750,-36.71,66.97
161148,2018-06-29 10:08:47.875000,-7.47,66.97
161149,2018-06-29 10:08:47.906250,19.54,66.97
161150,2018-06-29 10:08:47.937500,40.36,66.97
161151,2018-06-29 10:08:47.968750,53.78,66.97
161152,2018-06-29 10:08:48.000000,57.48,66.97
161153,2018-06-29 10:08:48.031250,52.48,66.97
161154,2018-06-29 10:08:48.062500,44.56,66.97
161155,2018-06-29 10:08:48.093750,38.89,66.97
161156,2018-06-29 10:08:48.125000,36.62,66.97
161157,2018-06-29 10:08:48.156250,36.98,66.97
161158,2018-06-29 10:08:48.187500,39.31,66.97
161159,2018-06-29 10:08:48.218750,41.5,66.97
161160,2018-06-29 10:08:48.250000,39.85,66.97
161161,2018-06-29 10:08:48.281250,32.78,66.97
161162,2018-06-29 10:08:48.312500,22.67,66.97
161163,2018-06-29 10:08:48.343750,12.22,66.97
161164,2018-06-29 10:08:48.375000,1.13,66.97
161165,2018-06-29 10:08:48.406250,-11.8,66.97
161166,2018-06-29 10:08:48.437500,-25.17,66.97
161167,2018-06-29 10:08:48.468750,-36.03,66.97
161168,2018-06-29 10:08:48.500000,-43.7,66.97
161169,2018-06-29 10:08:48.531250,-51.13,67.15
161170,2018-06-29 10:08:48.562500,-61.95,67.15
161171,2018-06-29 10:08:48.593750,-74.2,67.15
161172,2018-06-29 10:08:48.625000,-77.87,67.15
161173,2018-06-29 10:08:48.656250,-64.45,67.15
161174,2018-06-29 10:08:48.687500,-38.34,67.15
161175,2018-06-29 10:08:48.718750,-11.62,67.15
161176,2018-06-29 10:08:48.750000,9.0,67.15
161177,2018-06-29 10:08:48.781250,23.5,67.15
161178,2018-06-29 10:08:48.812500,31.92,67.15
161179,2018-06-29 10:08:48.843750,34.1,67.15
161180,2018-06-29 10:08:48.875000,32.7,67.15
161181,2018-06-29 10:08:48.906250,31.02,67.15
161182,2018-06-29 10:08:48.937500,29.88,67.15
161183,2018-06-29 10:08:48.968750,29.38,67.15
161184,2018-06-29 10:08:49.000000,30.54,67.15
161185,2018-06-29 10:08:49.031250,33.11,67.15
161186,2018-06-29 10:08:49.062500,34.28,67.15
161187,2018-06-29 10:08:49.093750,31.16,67.15
161188,2018-06-29 10:08:49.125000,23.02,67.15
161189,2018-06-29 10:08:49.156250,11.21,67.15
161190,2018-06-29 10:08:49.187500,-2.02,67.15
161191,2018-06-29 10:08:49.218750,-14.46,67.15
161192,2018-06-29 10:08:49.250000,-24.08,67.15
161193,2018-06-29 10:08:49.281250,-29.43,67.15
161194,2018-06-29 10:08:49.312500,-31.34,67.15
161195,2018-06-29 10:08:49.343750,-33.35,67.15
161196,2018-06-29 10:08:49.375000,-39.63,67.15
161197,2018-06-29 10:08:49.406250,-51.41,67.15
161198,2018-06-29 10:08:49.437500,-63.74,67.15
161199,2018-06-29 10:08:49.468750,-67.83,67.15
161200,2018-06-29 10:08:49.500000,-59.88,67.15
161201,2018-06-29 10:08:49.531250,-45.38,67.35
161202,2018-06-29 10:08:49.562500,-31.53,67.35
161203,2018-06-29 10:08:49.593750,-19.15,67.35
161204,2018-06-29 10:08:49.625000,-5.53,67.35
161205,2018-06-29 10:08:49.656250,8.81,67.35
161206,2018-06-29 10:08:49.687500,20.56,67.35
161207,2018-06-29 10:08:49.718750,28.32,67.35
161208,2018-06-29 10:08:49.750000,33.06,67.35
161209,2018-06-29 10:08:49.781250,35.41,67.35
161210,2018-06-29 10:08:49.812500,35.4,67.35
161211,2018-06-29 10:08:49.843750,33.54,67.35
161212,2018-06-29 10:08:49.875000,30.13,67.35
161213,2018-06-29 10:08:49.906250,24.69,67.35
161214,2018-06-29 10:08:49.937500,17.43,67.35
161215,2018-06-29 10:08:49.968750,9.59,67.35
161216,2018-06-29 10:08:50.000000,1.71,67.35
161217,2018-06-29 10:08:50.031250,-6.95,67.35
161218,2018-06-29 10:08:50.062500,-16.58,67.35
161219,2018-06-29 10:08:50.093750,-26.0,67.35
161220,2018-06-29 10:08:50.125000,-34.38,67.35
161221,2018-06-29 10:08:50.156250,-43.14,67.35
161222,2018-06-29 10:08:50.187500,-54.41,67.35
161223,2018-06-29 10:08:50.218750,-66.22,67.35
161224,2018-06-29 10:08:50.250000,-71.33,67.35
161225,2018-06-29 10:08:50.281250,-64.04,67.35
161226,2018-06-29 10:08:50.312500,-46.93,67.35
161227,2018-06-29 10:08:50.343750,-28.26,67.35
161228,2018-06-29 10:08:50.375000,-13.46,67.35
161229,2018-06-29 10:08:50.406250,-3.08,67.35
161230,2018-06-29 10:08:50.437500,2.26,67.35
161231,2018-06-29 10:08:50.468750,0.32,67.35
161232,2018-06-29 10:08:50.500000,-8.42,67.35
161233,2018-06-29 10:08:50.531250,-19.63,67.52
161234,2018-06-29 10:08:50.562500,-29.51,67.52
161235,2018-06-29 10:08:50.593750,-37.25,67.52
161236,2018-06-29 10:08:50.625000,-42.76,67.52
161237,2018-06-29 10:08:50.656250,-44.2,67.52
161238,2018-06-29 10:08:50.687500,-38.85,67.52
161239,2018-06-29 10:08:50.718750,-26.17,67.52
161240,2018-06-29 10:08:50.750000,-9.71,67.52
161241,2018-06-29 10:08:50.781250,5.59,67.52
161242,2018-06-29 10:08:50.812500,17.03,67.52
161243,2018-06-29 10:08:50.843750,23.73,67.52
161244,2018-06-29 10:08:50.875000,24.43,67.52
161245,2018-06-29 10:08:50.906250,18.82,67.52
161246,2018-06-29 10:08:50.937500,9.12,67.52
161247,2018-06-29 10:08:50.968750,-1.38,67.52
161248,2018-06-29 10:08:51.000000,-9.05,67.52
161249,2018-06-29 10:08:51.031250,-9.39,67.52
161250,2018-06-29 10:08:51.062500,-0.05,67.52
161251,2018-06-29 10:08:51.093750,15.31,67.52
161252,2018-06-29 10:08:51.125000,31.48,67.52
161253,2018-06-29 10:08:51.156250,48.06,67.52
161254,2018-06-29 10:08:51.187500,65.15,67.52
161255,2018-06-29 10:08:51.218750,77.5,67.52
161256,2018-06-29 10:08:51.250000,81.26,67.52
161257,2018-06-29 10:08:51.281250,81.76,67.52
161258,2018-06-29 10:08:51.312500,86.9,67.52
161259,2018-06-29 10:08:51.343750,97.65,67.52
161260,2018-06-29 10:08:51.375000,110.59,67.52
161261,2018-06-29 10:08:51.406250,124.51,67.52
161262,2018-06-29 10:08:51.437500,139.9,67.52
161263,2018-06-29 10:08:51.468750,156.11,67.52
161264,2018-06-29 10:08:51.500000,171.92,67.52
161265,2018-06-29 10:08:51.531250,185.42,67.7
161266,2018-06-29 10:08:51.562500,192.99,67.7
161267,2018-06-29 10:08:51.593750,191.98,67.7
161268,2018-06-29 10:08:51.625000,185.12,67.7
161269,2018-06-29 10:08:51.656250,179.85,67.7
161270,2018-06-29 10:08:51.687500,182.12,67.7
161271,2018-06-29 10:08:51.718750,189.38,67.7
161272,2018-06-29 10:08:51.750000,190.64,67.7
161273,2018-06-29 10:08:51.781250,177.43,67.7
161274,2018-06-29 10:08:51.812500,153.03,67.7
161275,2018-06-29 10:08:51.843750,127.26,67.7
161276,2018-06-29 10:08:51.875000,106.1,67.7
161277,2018-06-29 10:08:51.906250,88.73,67.7
161278,2018-06-29 10:08:51.937500,69.85,67.7
161279,2018-06-29 10:08:51.968750,45.21,67.7
161280,2018-06-29 10:08:52.000000,16.6,67.7
161281,2018-06-29 10:08:52.031250,-11.98,67.7
161282,2018-06-29 10:08:52.062500,-41.34,67.7
161283,2018-06-29 10:08:52.093750,-73.37,67.7
161284,2018-06-29 10:08:52.125000,-104.99,67.7
161285,2018-06-29 10:08:52.156250,-133.34,67.7
161286,2018-06-29 10:08:52.187500,-161.6,67.7
161287,2018-06-29 10:08:52.218750,-192.05,67.7
161288,2018-06-29 10:08:52.250000,-218.85,67.7
161289,2018-06-29 10:08:52.281250,-235.2,67.7
161290,2018-06-29 10:08:52.312500,-243.55,67.7
161291,2018-06-29 10:08:52.343750,-255.71,67.7
161292,2018-06-29 10:08:52.375000,-287.33,67.7
161293,2018-06-29 10:08:52.406250,-340.09,67.7
161294,2018-06-29 10:08:52.437500,-379.93,67.7
161295,2018-06-29 10:08:52.468750,-362.74,67.7
161296,2018-06-29 10:08:52.500000,-292.42,67.7
161297,2018-06-29 10:08:52.531250,-218.35,67.87
161298,2018-06-29 10:08:52.562500,-176.15,67.87
161299,2018-06-29 10:08:52.593750,-164.08,67.87
161300,2018-06-29 10:08:52.625000,-162.03,67.87
161301,2018-06-29 10:08:52.656250,-144.89,67.87
161302,2018-06-29 10:08:52.687500,-97.6,67.87
161303,2018-06-29 10:08:52.718750,-33.37,67.87
161304,2018-06-29 10:08:52.750000,19.7,67.87
161305,2018-06-29 10:08:52.781250,49.39,67.87
161306,2018-06-29 10:08:52.812500,65.3,67.87
161307,2018-06-29 10:08:52.843750,78.98,67.87
161308,2018-06-29 10:08:52.875000,88.92,67.87
161309,2018-06-29 10:08:52.906250,84.26,67.87
161310,2018-06-29 10:08:52.937500,57.23,67.87
161311,2018-06-29 10:08:52.968750,11.58,67.87
161312,2018-06-29 10:08:53.000000,-40.85,67.87
161313,2018-06-29 10:08:53.031250,-89.14,67.87
161314,2018-06-29 10:08:53.062500,-125.36,67.87
161315,2018-06-29 10:08:53.093750,-145.02,67.87
161316,2018-06-29 10:08:53.125000,-155.07,67.87
161317,2018-06-29 10:08:53.156250,-170.18,67.87
161318,2018-06-29 10:08:53.187500,-190.34,67.87
161319,2018-06-29 10:08:53.218750,-196.68,67.87
161320,2018-06-29 10:08:53.250000,-175.59,67.87
161321,2018-06-29 10:08:53.281250,-130.96,67.87
161322,2018-06-29 10:08:53.312500,-74.61,67.87
161323,2018-06-29 10:08:53.343750,-17.29,67.87
161324,2018-06-29 10:08:53.375000,34.66,67.87
161325,2018-06-29 10:08:53.406250,78.67,67.87
161326,2018-06-29 10:08:53.437500,110.3,67.87
161327,2018-06-29 10:08:53.468750,122.26,67.87
161328,2018-06-29 10:08:53.500000,110.62,67.87
161329,2018-06-29 10:08:53.531250,77.53,68.07
161330,2018-06-29 10:08:53.562500,32.38,68.07
161331,2018-06-29 10:08:53.593750,-5.71,68.07
161332,2018-06-29 10:08:53.625000,-16.92,68.07
161333,2018-06-29 10:08:53.656250,0.54,68.07
161334,2018-06-29 10:08:53.687500,29.63,68.07
161335,2018-06-29 10:08:53.718750,57.2,68.07
161336,2018-06-29 10:08:53.750000,85.06,68.07
161337,2018-06-29 10:08:53.781250,114.36,68.07
161338,2018-06-29 10:08:53.812500,136.62,68.07
161339,2018-06-29 10:08:53.843750,145.72,68.07
161340,2018-06-29 10:08:53.875000,140.2,68.07
161341,2018-06-29 10:08:53.906250,114.17,68.07
161342,2018-06-29 10:08:53.937500,65.25,68.07
161343,2018-06-29 10:08:53.968750,6.32,68.07
161344,2018-06-29 10:08:54.000000,-45.25,68.07
161345,2018-06-29 10:08:54.031250,-83.14,68.07
161346,2018-06-29 10:08:54.062500,-110.47,68.07
161347,2018-06-29 10:08:54.093750,-131.42,68.07
161348,2018-06-29 10:08:54.125000,-147.35,68.07
161349,2018-06-29 10:08:54.156250,-152.68,68.07
161350,2018-06-29 10:08:54.187500,-134.27,68.07
161351,2018-06-29 10:08:54.218750,-85.31,68.07
161352,2018-06-29 10:08:54.250000,-20.88,68.07
161353,2018-06-29 10:08:54.281250,30.9,68.07
161354,2018-06-29 10:08:54.312500,53.43,68.07
161355,2018-06-29 10:08:54.343750,50.22,68.07
161356,2018-06-29 10:08:54.375000,36.27,68.07
161357,2018-06-29 10:08:54.406250,29.03,68.07
161358,2018-06-29 10:08:54.437500,41.14,68.07
161359,2018-06-29 10:08:54.468750,74.55,68.07
161360,2018-06-29 10:08:54.500000,117.71,68.07
161361,2018-06-29 10:08:54.531250,149.96,68.22
161362,2018-06-29 10:08:54.562500,160.56,68.22
161363,2018-06-29 10:08:54.593750,161.24,68.22
161364,2018-06-29 10:08:54.625000,165.92,68.22
161365,2018-06-29 10:08:54.656250,168.81,68.22
161366,2018-06-29 10:08:54.687500,158.04,68.22
161367,2018-06-29 10:08:54.718750,133.73,68.22
161368,2018-06-29 10:08:54.750000,101.75,68.22
161369,2018-06-29 10:08:54.781250,67.22,68.22
161370,2018-06-29 10:08:54.812500,36.52,68.22
161371,2018-06-29 10:08:54.843750,10.76,68.22
161372,2018-06-29 10:08:54.875000,-17.61,68.22
161373,2018-06-29 10:08:54.906250,-53.84,68.22
161374,2018-06-29 10:08:54.937500,-95.08,68.22
161375,2018-06-29 10:08:54.968750,-135.28,68.22
161376,2018-06-29 10:08:55.000000,-166.26,68.22
161377,2018-06-29 10:08:55.031250,-178.5,68.22
161378,2018-06-29 10:08:55.062500,-171.17,68.22
161379,2018-06-29 10:08:55.093750,-156.34,68.22
161380,2018-06-29 10:08:55.125000,-144.63,68.22
161381,2018-06-29 10:08:55.156250,-131.95,68.22
161382,2018-06-29 10:08:55.187500,-108.92,68.22
161383,2018-06-29 10:08:55.218750,-77.7,68.22
161384,2018-06-29 10:08:55.250000,-45.9,68.22
161385,2018-06-29 10:08:55.281250,-10.33,68.22
161386,2018-06-29 10:08:55.312500,33.77,68.22
161387,2018-06-29 10:08:55.343750,73.95,68.22
161388,2018-06-29 10:08:55.375000,91.41,68.22
161389,2018-06-29 10:08:55.406250,82.64,68.22
161390,2018-06-29 10:08:55.437500,55.89,68.22
161391,2018-06-29 10:08:55.468750,21.74,68.22
161392,2018-06-29 10:08:55.500000,-3.86,68.22
161393,2018-06-29 10:08:55.531250,-7.75,68.42
161394,2018-06-29 10:08:55.562500,3.16,68.42
161395,2018-06-29 10:08:55.593750,9.79,68.42
161396,2018-06-29 10:08:55.625000,2.84,68.42
161397,2018-06-29 10:08:55.656250,-17.14,68.42
161398,2018-06-29 10:08:55.687500,-49.95,68.42
161399,2018-06-29 10:08:55.718750,-91.61,68.42
161400,2018-06-29 10:08:55.750000,-129.93,68.42
161401,2018-06-29 10:08:55.781250,-153.81,68.42
161402,2018-06-29 10:08:55.812500,-162.12,68.42
161403,2018-06-29 10:08:55.843750,-162.07,68.42
161404,2018-06-29 10:08:55.875000,-163.58,68.42
161405,2018-06-29 10:08:55.906250,-174.7,68.42
161406,2018-06-29 10:08:55.937500,-197.31,68.42
161407,2018-06-29 10:08:55.968750,-225.56,68.42
161408,2018-06-29 10:08:56.000000,-249.95,68.42
161409,2018-06-29 10:08:56.031250,-263.56,68.42
161410,2018-06-29 10:08:56.062500,-260.66,68.42
161411,2018-06-29 10:08:56.093750,-233.2,68.42
161412,2018-06-29 10:08:56.125000,-181.49,68.42
161413,2018-06-29 10:08:56.156250,-125.31,68.42
161414,2018-06-29 10:08:56.187500,-88.75,68.42
161415,2018-06-29 10:08:56.218750,-74.7,68.42
161416,2018-06-29 10:08:56.250000,-67.9,68.42
161417,2018-06-29 10:08:56.281250,-55.37,68.42
161418,2018-06-29 10:08:56.312500,-30.61,68.42
161419,2018-06-29 10:08:56.343750,7.99,68.42
161420,2018-06-29 10:08:56.375000,50.65,68.42
161421,2018-06-29 10:08:56.406250,80.65,68.42
161422,2018-06-29 10:08:56.437500,92.24,68.42
161423,2018-06-29 10:08:56.468750,92.47,68.42
161424,2018-06-29 10:08:56.500000,85.48,68.42
161425,2018-06-29 10:08:56.531250,68.8,68.63
161426,2018-06-29 10:08:56.562500,49.47,68.63
161427,2018-06-29 10:08:56.593750,50.0,68.63
161428,2018-06-29 10:08:56.625000,82.13,68.63
161429,2018-06-29 10:08:56.656250,124.61,68.63
161430,2018-06-29 10:08:56.687500,147.44,68.63
161431,2018-06-29 10:08:56.718750,146.62,68.63
161432,2018-06-29 10:08:56.750000,136.34,68.63
161433,2018-06-29 10:08:56.781250,124.59,68.63
161434,2018-06-29 10:08:56.812500,111.79,68.63
161435,2018-06-29 10:08:56.843750,94.22,68.63
161436,2018-06-29 10:08:56.875000,62.75,68.63
161437,2018-06-29 10:08:56.906250,16.08,68.63
161438,2018-06-29 10:08:56.937500,-25.83,68.63
161439,2018-06-29 10:08:56.968750,-37.28,68.63
161440,2018-06-29 10:08:57.000000,-15.24,68.63
161441,2018-06-29 10:08:57.031250,18.36,68.63
161442,2018-06-29 10:08:57.062500,42.07,68.63
161443,2018-06-29 10:08:57.093750,54.42,68.63
161444,2018-06-29 10:08:57.125000,66.92,68.63
161445,2018-06-29 10:08:57.156250,84.92,68.63
161446,2018-06-29 10:08:57.187500,100.81,68.63
161447,2018-06-29 10:08:57.218750,105.92,68.63
161448,2018-06-29 10:08:57.250000,103.31,68.63
161449,2018-06-29 10:08:57.281250,103.35,68.63
161450,2018-06-29 10:08:57.312500,111.49,68.63
161451,2018-06-29 10:08:57.343750,126.37,68.63
161452,2018-06-29 10:08:57.375000,142.87,68.63
161453,2018-06-29 10:08:57.406250,150.96,68.63
161454,2018-06-29 10:08:57.437500,141.28,68.63
161455,2018-06-29 10:08:57.468750,117.16,68.63
161456,2018-06-29 10:08:57.500000,92.1,68.63
161457,2018-06-29 10:08:57.531250,74.55,68.88
161458,2018-06-29 10:08:57.562500,62.66,68.88
161459,2018-06-29 10:08:57.593750,52.13,68.88
161460,2018-06-29 10:08:57.625000,42.46,68.88
161461,2018-06-29 10:08:57.656250,34.58,68.88
161462,2018-06-29 10:08:57.687500,26.24,68.88
161463,2018-06-29 10:08:57.718750,13.61,68.88
161464,2018-06-29 10:08:57.750000,-5.58,68.88
161465,2018-06-29 10:08:57.781250,-33.04,68.88
161466,2018-06-29 10:08:57.812500,-67.02,68.88
161467,2018-06-29 10:08:57.843750,-94.55,68.88
161468,2018-06-29 10:08:57.875000,-98.8,68.88
161469,2018-06-29 10:08:57.906250,-78.26,68.88
161470,2018-06-29 10:08:57.937500,-47.36,68.88
161471,2018-06-29 10:08:57.968750,-18.06,68.88
161472,2018-06-29 10:08:58.000000,8.06,68.88
161473,2018-06-29 10:08:58.031250,31.7,68.88
161474,2018-06-29 10:08:58.062500,51.05,68.88
161475,2018-06-29 10:08:58.093750,65.0,68.88
161476,2018-06-29 10:08:58.125000,73.49,68.88
161477,2018-06-29 10:08:58.156250,75.89,68.88
161478,2018-06-29 10:08:58.187500,73.88,68.88
161479,2018-06-29 10:08:58.218750,73.27,68.88
161480,2018-06-29 10:08:58.250000,77.38,68.88
161481,2018-06-29 10:08:58.281250,81.28,68.88
161482,2018-06-29 10:08:58.312500,77.97,68.88
161483,2018-06-29 10:08:58.343750,66.57,68.88
161484,2018-06-29 10:08:58.375000,50.05,68.88
161485,2018-06-29 10:08:58.406250,28.33,68.88
161486,2018-06-29 10:08:58.437500,-0.31,68.88
161487,2018-06-29 10:08:58.468750,-32.45,68.88
161488,2018-06-29 10:08:58.500000,-61.42,68.88
161489,2018-06-29 10:08:58.531250,-86.31,69.13
161490,2018-06-29 10:08:58.562500,-111.68,69.13
161491,2018-06-29 10:08:58.593750,-136.09,69.13
161492,2018-06-29 10:08:58.625000,-147.56,69.13
161493,2018-06-29 10:08:58.656250,-134.61,69.13
161494,2018-06-29 10:08:58.687500,-98.98,69.13
161495,2018-06-29 10:08:58.718750,-54.29,69.13
161496,2018-06-29 10:08:58.750000,-13.79,69.13
161497,2018-06-29 10:08:58.781250,17.23,69.13
161498,2018-06-29 10:08:58.812500,38.01,69.13
161499,2018-06-29 10:08:58.843750,48.01,69.13
161500,2018-06-29 10:08:58.875000,49.42,69.13
161501,2018-06-29 10:08:58.906250,48.01,69.13
161502,2018-06-29 10:08:58.937500,47.46,69.13
161503,2018-06-29 10:08:58.968750,46.39,69.13
161504,2018-06-29 10:08:59.000000,43.65,69.13
161505,2018-06-29 10:08:59.031250,41.25,69.13
161506,2018-06-29 10:08:59.062500,40.07,69.13
161507,2018-06-29 10:08:59.093750,36.84,69.13
161508,2018-06-29 10:08:59.125000,27.99,69.13
161509,2018-06-29 10:08:59.156250,14.38,69.13
161510,2018-06-29 10:08:59.187500,-0.43,69.13
161511,2018-06-29 10:08:59.218750,-14.8,69.13
161512,2018-06-29 10:08:59.250000,-29.47,69.13
161513,2018-06-29 10:08:59.281250,-45.36,69.13
161514,2018-06-29 10:08:59.312500,-62.54,69.13
161515,2018-06-29 10:08:59.343750,-77.55,69.13
161516,2018-06-29 10:08:59.375000,-80.51,69.13
161517,2018-06-29 10:08:59.406250,-63.15,69.13
161518,2018-06-29 10:08:59.437500,-30.46,69.13
161519,2018-06-29 10:08:59.468750,3.74,69.13
161520,2018-06-29 10:08:59.500000,31.34,69.13
161521,2018-06-29 10:08:59.531250,51.98,69.37
161522,2018-06-29 10:08:59.562500,64.82,69.37
161523,2018-06-29 10:08:59.593750,68.33,69.37
161524,2018-06-29 10:08:59.625000,65.85,69.37
161525,2018-06-29 10:08:59.656250,63.75,69.37
161526,2018-06-29 10:08:59.687500,64.2,69.37
161527,2018-06-29 10:08:59.718750,64.58,69.37
161528,2018-06-29 10:08:59.750000,63.39,69.37
161529,2018-06-29 10:08:59.781250,61.88,69.37
161530,2018-06-29 10:08:59.812500,59.87,69.37
161531,2018-06-29 10:08:59.843750,54.16,69.37
161532,2018-06-29 10:08:59.875000,43.06,69.37
161533,2018-06-29 10:08:59.906250,29.7,69.37
161534,2018-06-29 10:08:59.937500,17.81,69.37
161535,2018-06-29 10:08:59.968750,6.19,69.37
161536,2018-06-29 10:09:00.000000,-9.48,69.37
161537,2018-06-29 10:09:00.031250,-30.12,69.37
161538,2018-06-29 10:09:00.062500,-49.96,69.37
161539,2018-06-29 10:09:00.093750,-58.79,69.37
161540,2018-06-29 10:09:00.125000,-49.7,69.37
161541,2018-06-29 10:09:00.156250,-26.41,69.37
161542,2018-06-29 10:09:00.187500,0.18,69.37
161543,2018-06-29 10:09:00.218750,22.51,69.37
161544,2018-06-29 10:09:00.250000,38.9,69.37
161545,2018-06-29 10:09:00.281250,47.57,69.37
161546,2018-06-29 10:09:00.312500,46.41,69.37
161547,2018-06-29 10:09:00.343750,38.84,69.37
161548,2018-06-29 10:09:00.375000,32.49,69.37
161549,2018-06-29 10:09:00.406250,30.47,69.37
161550,2018-06-29 10:09:00.437500,29.55,69.37
161551,2018-06-29 10:09:00.468750,27.15,69.37
161552,2018-06-29 10:09:00.500000,24.23,69.37
161553,2018-06-29 10:09:00.531250,20.53,69.47
161554,2018-06-29 10:09:00.562500,13.18,69.47
161555,2018-06-29 10:09:00.593750,1.61,69.47
161556,2018-06-29 10:09:00.625000,-10.51,69.47
161557,2018-06-29 10:09:00.656250,-20.41,69.47
161558,2018-06-29 10:09:00.687500,-30.08,69.47
161559,2018-06-29 10:09:00.718750,-42.67,69.47
161560,2018-06-29 10:09:00.750000,-57.27,69.47
161561,2018-06-29 10:09:00.781250,-67.98,69.47
161562,2018-06-29 10:09:00.812500,-66.57,69.47
161563,2018-06-29 10:09:00.843750,-48.61,69.47
161564,2018-06-29 10:09:00.875000,-19.15,69.47
161565,2018-06-29 10:09:00.906250,10.74,69.47
161566,2018-06-29 10:09:00.937500,33.96,69.47
161567,2018-06-29 10:09:00.968750,49.82,69.47
161568,2018-06-29 10:09:01.000000,57.59,69.47
161569,2018-06-29 10:09:01.031250,55.94,69.47
161570,2018-06-29 10:09:01.062500,49.32,69.47
161571,2018-06-29 10:09:01.093750,45.47,69.47
161572,2018-06-29 10:09:01.125000,45.69,69.47
161573,2018-06-29 10:09:01.156250,44.68,69.47
161574,2018-06-29 10:09:01.187500,39.62,69.47
161575,2018-06-29 10:09:01.218750,32.84,69.47
161576,2018-06-29 10:09:01.250000,26.07,69.47
161577,2018-06-29 10:09:01.281250,17.64,69.47
161578,2018-06-29 10:09:01.312500,5.88,69.47
161579,2018-06-29 10:09:01.343750,-7.53,69.47
161580,2018-06-29 10:09:01.375000,-19.83,69.47
161581,2018-06-29 10:09:01.406250,-31.07,69.47
161582,2018-06-29 10:09:01.437500,-43.68,69.47
161583,2018-06-29 10:09:01.468750,-59.54,69.47
161584,2018-06-29 10:09:01.500000,-76.95,69.47
161585,2018-06-29 10:09:01.531250,-87.88,69.6
161586,2018-06-29 10:09:01.562500,-81.42,69.6
161587,2018-06-29 10:09:01.593750,-55.27,69.6
161588,2018-06-29 10:09:01.625000,-20.21,69.6
161589,2018-06-29 10:09:01.656250,10.85,69.6
161590,2018-06-29 10:09:01.687500,33.52,69.6
161591,2018-06-29 10:09:01.718750,49.43,69.6
161592,2018-06-29 10:09:01.750000,59.17,69.6
161593,2018-06-29 10:09:01.781250,62.04,69.6
161594,2018-06-29 10:09:01.812500,59.66,69.6
161595,2018-06-29 10:09:01.843750,56.14,69.6
161596,2018-06-29 10:09:01.875000,54.38,69.6
161597,2018-06-29 10:09:01.906250,53.65,69.6
161598,2018-06-29 10:09:01.937500,51.4,69.6
161599,2018-06-29 10:09:01.968750,46.44,69.6
161600,2018-06-29 10:09:02.000000,39.13,69.6
161601,2018-06-29 10:09:02.031250,29.89,69.6
161602,2018-06-29 10:09:02.062500,18.8,69.6
161603,2018-06-29 10:09:02.093750,6.29,69.6
161604,2018-06-29 10:09:02.125000,-7.04,69.6
161605,2018-06-29 10:09:02.156250,-20.48,69.6
161606,2018-06-29 10:09:02.187500,-33.28,69.6
161607,2018-06-29 10:09:02.218750,-45.45,69.6
161608,2018-06-29 10:09:02.250000,-58.27,69.6
161609,2018-06-29 10:09:02.281250,-71.64,69.6
161610,2018-06-29 10:09:02.312500,-79.68,69.6
161611,2018-06-29 10:09:02.343750,-73.15,69.6
161612,2018-06-29 10:09:02.375000,-49.82,69.6
161613,2018-06-29 10:09:02.406250,-18.76,69.6
161614,2018-06-29 10:09:02.437500,9.14,69.6
161615,2018-06-29 10:09:02.468750,30.38,69.6
161616,2018-06-29 10:09:02.500000,46.3,69.6
161617,2018-06-29 10:09:02.531250,56.89,69.82
161618,2018-06-29 10:09:02.562500,61.39,69.82
161619,2018-06-29 10:09:02.593750,61.45,69.82
161620,2018-06-29 10:09:02.625000,59.97,69.82
161621,2018-06-29 10:09:02.656250,58.35,69.82
161622,2018-06-29 10:09:02.687500,56.82,69.82
161623,2018-06-29 10:09:02.718750,55.81,69.82
161624,2018-06-29 10:09:02.750000,54.85,69.82
161625,2018-06-29 10:09:02.781250,51.8,69.82
161626,2018-06-29 10:09:02.812500,45.36,69.82
161627,2018-06-29 10:09:02.843750,36.64,69.82
161628,2018-06-29 10:09:02.875000,27.28,69.82
161629,2018-06-29 10:09:02.906250,18.06,69.82
161630,2018-06-29 10:09:02.937500,9.44,69.82
161631,2018-06-29 10:09:02.968750,1.4,69.82
161632,2018-06-29 10:09:03.000000,-7.46,69.82
161633,2018-06-29 10:09:03.031250,-18.19,69.82
161634,2018-06-29 10:09:03.062500,-28.89,69.82
161635,2018-06-29 10:09:03.093750,-37.02,69.82
161636,2018-06-29 10:09:03.125000,-43.21,69.82
161637,2018-06-29 10:09:03.156250,-50.52,69.82
161638,2018-06-29 10:09:03.187500,-60.28,69.82
161639,2018-06-29 10:09:03.218750,-69.37,69.82
161640,2018-06-29 10:09:03.250000,-70.46,69.82
161641,2018-06-29 10:09:03.281250,-56.78,69.82
161642,2018-06-29 10:09:03.312500,-30.27,69.82
161643,2018-06-29 10:09:03.343750,-1.91,69.82
161644,2018-06-29 10:09:03.375000,18.94,69.82
161645,2018-06-29 10:09:03.406250,31.83,69.82
161646,2018-06-29 10:09:03.437500,39.7,69.82
161647,2018-06-29 10:09:03.468750,42.6,69.82
161648,2018-06-29 10:09:03.500000,41.31,69.82
161649,2018-06-29 10:09:03.531250,41.14,70.02
161650,2018-06-29 10:09:03.562500,46.38,70.02
161651,2018-06-29 10:09:03.593750,54.89,70.02
161652,2018-06-29 10:09:03.625000,61.78,70.02
161653,2018-06-29 10:09:03.656250,63.71,70.02
161654,2018-06-29 10:09:03.687500,57.87,70.02
161655,2018-06-29 10:09:03.718750,42.95,70.02
161656,2018-06-29 10:09:03.750000,22.66,70.02
161657,2018-06-29 10:09:03.781250,3.25,70.02
161658,2018-06-29 10:09:03.812500,-12.9,70.02
161659,2018-06-29 10:09:03.843750,-27.8,70.02
161660,2018-06-29 10:09:03.875000,-43.07,70.02
161661,2018-06-29 10:09:03.906250,-57.56,70.02
161662,2018-06-29 10:09:03.937500,-69.56,70.02
161663,2018-06-29 10:09:03.968750,-79.64,70.02
161664,2018-06-29 10:09:04.000000,-90.85,70.02
161665,2018-06-29 10:09:04.031250,-104.71,70.02
161666,2018-06-29 10:09:04.062500,-115.9,70.02
161667,2018-06-29 10:09:04.093750,-114.18,70.02
161668,2018-06-29 10:09:04.125000,-95.33,70.02
161669,2018-06-29 10:09:04.156250,-66.86,70.02
161670,2018-06-29 10:09:04.187500,-39.11,70.02
161671,2018-06-29 10:09:04.218750,-15.67,70.02
161672,2018-06-29 10:09:04.250000,3.86,70.02
161673,2018-06-29 10:09:04.281250,17.67,70.02
161674,2018-06-29 10:09:04.312500,23.79,70.02
161675,2018-06-29 10:09:04.343750,24.45,70.02
161676,2018-06-29 10:09:04.375000,24.19,70.02
161677,2018-06-29 10:09:04.406250,25.29,70.02
161678,2018-06-29 10:09:04.437500,27.16,70.02
161679,2018-06-29 10:09:04.468750,28.55,70.02
161680,2018-06-29 10:09:04.500000,28.09,70.02
161681,2018-06-29 10:09:04.531250,24.18,70.32
161682,2018-06-29 10:09:04.562500,16.98,70.32
161683,2018-06-29 10:09:04.593750,9.28,70.32
161684,2018-06-29 10:09:04.625000,2.81,70.32
161685,2018-06-29 10:09:04.656250,-4.29,70.32
161686,2018-06-29 10:09:04.687500,-13.83,70.32
161687,2018-06-29 10:09:04.718750,-24.46,70.32
161688,2018-06-29 10:09:04.750000,-34.25,70.32
161689,2018-06-29 10:09:04.781250,-43.68,70.32
161690,2018-06-29 10:09:04.812500,-54.85,70.32
161691,2018-06-29 10:09:04.843750,-68.66,70.32
161692,2018-06-29 10:09:04.875000,-80.61,70.32
161693,2018-06-29 10:09:04.906250,-80.64,70.32
161694,2018-06-29 10:09:04.937500,-62.81,70.32
161695,2018-06-29 10:09:04.968750,-33.52,70.32
161696,2018-06-29 10:09:05.000000,-4.54,70.32
161697,2018-06-29 10:09:05.031250,18.42,70.32
161698,2018-06-29 10:09:05.062500,35.74,70.32
161699,2018-06-29 10:09:05.093750,47.4,70.32
161700,2018-06-29 10:09:05.125000,51.79,70.32
161701,2018-06-29 10:09:05.156250,49.57,70.32
161702,2018-06-29 10:09:05.187500,45.33,70.32
161703,2018-06-29 10:09:05.218750,43.33,70.32
161704,2018-06-29 10:09:05.250000,43.53,70.32
161705,2018-06-29 10:09:05.281250,43.48,70.32
161706,2018-06-29 10:09:05.312500,41.32,70.32
161707,2018-06-29 10:09:05.343750,35.9,70.32
161708,2018-06-29 10:09:05.375000,27.16,70.32
161709,2018-06-29 10:09:05.406250,16.68,70.32
161710,2018-06-29 10:09:05.437500,5.82,70.32
161711,2018-06-29 10:09:05.468750,-5.23,70.32
161712,2018-06-29 10:09:05.500000,-16.13,70.32
161713,2018-06-29 10:09:05.531250,-26.54,70.62
161714,2018-06-29 10:09:05.562500,-37.38,70.62
161715,2018-06-29 10:09:05.593750,-50.06,70.62
161716,2018-06-29 10:09:05.625000,-63.74,70.62
161717,2018-06-29 10:09:05.656250,-72.72,70.62
161718,2018-06-29 10:09:05.687500,-69.01,70.62
161719,2018-06-29 10:09:05.718750,-50.54,70.62
161720,2018-06-29 10:09:05.750000,-24.8,70.62
161721,2018-06-29 10:09:05.781250,-1.12,70.62
161722,2018-06-29 10:09:05.812500,17.02,70.62
161723,2018-06-29 10:09:05.843750,30.02,70.62
161724,2018-06-29 10:09:05.875000,37.63,70.62
161725,2018-06-29 10:09:05.906250,40.06,70.62
161726,2018-06-29 10:09:05.937500,40.13,70.62
161727,2018-06-29 10:09:05.968750,40.53,70.62
161728,2018-06-29 10:09:06.000000,41.25,70.62
161729,2018-06-29 10:09:06.031250,41.36,70.62
161730,2018-06-29 10:09:06.062500,40.5,70.62
161731,2018-06-29 10:09:06.093750,37.72,70.62
161732,2018-06-29 10:09:06.125000,31.78,70.62
161733,2018-06-29 10:09:06.156250,23.51,70.62
161734,2018-06-29 10:09:06.187500,15.09,70.62
161735,2018-06-29 10:09:06.218750,6.88,70.62
161736,2018-06-29 10:09:06.250000,-2.5,70.62
161737,2018-06-29 10:09:06.281250,-13.02,70.62
161738,2018-06-29 10:09:06.312500,-22.44,70.62
161739,2018-06-29 10:09:06.343750,-29.57,70.62
161740,2018-06-29 10:09:06.375000,-35.89,70.62
161741,2018-06-29 10:09:06.406250,-43.85,70.62
161742,2018-06-29 10:09:06.437500,-54.39,70.62
161743,2018-06-29 10:09:06.468750,-63.77,70.62
161744,2018-06-29 10:09:06.500000,-63.54,70.62
161745,2018-06-29 10:09:06.531250,-48.84,70.92
161746,2018-06-29 10:09:06.562500,-25.21,70.92
161747,2018-06-29 10:09:06.593750,-2.47,70.92
161748,2018-06-29 10:09:06.625000,14.94,70.92
161749,2018-06-29 10:09:06.656250,27.94,70.92
161750,2018-06-29 10:09:06.687500,37.04,70.92
161751,2018-06-29 10:09:06.718750,40.96,70.92
161752,2018-06-29 10:09:06.750000,40.36,70.92
161753,2018-06-29 10:09:06.781250,38.74,70.92
161754,2018-06-29 10:09:06.812500,38.5,70.92
161755,2018-06-29 10:09:06.843750,38.67,70.92
161756,2018-06-29 10:09:06.875000,37.91,70.92
161757,2018-06-29 10:09:06.906250,36.36,70.92
161758,2018-06-29 10:09:06.937500,33.57,70.92
161759,2018-06-29 10:09:06.968750,28.26,70.92
161760,2018-06-29 10:09:07.000000,20.52,70.92
161761,2018-06-29 10:09:07.031250,12.42,70.92
161762,2018-06-29 10:09:07.062500,5.72,70.92
161763,2018-06-29 10:09:07.093750,-0.06,70.92
161764,2018-06-29 10:09:07.125000,-6.89,70.92
161765,2018-06-29 10:09:07.156250,-15.57,70.92
161766,2018-06-29 10:09:07.187500,-24.54,70.92
161767,2018-06-29 10:09:07.218750,-32.01,70.92
161768,2018-06-29 10:09:07.250000,-38.09,70.92
161769,2018-06-29 10:09:07.281250,-44.73,70.92
161770,2018-06-29 10:09:07.312500,-54.13,70.92
161771,2018-06-29 10:09:07.343750,-65.95,70.92
161772,2018-06-29 10:09:07.375000,-74.05,70.92
161773,2018-06-29 10:09:07.406250,-69.27,70.92
161774,2018-06-29 10:09:07.437500,-49.34,70.92
161775,2018-06-29 10:09:07.468750,-22.75,70.92
161776,2018-06-29 10:09:07.500000,0.1,70.92
161777,2018-06-29 10:09:07.531250,15.74,71.2
161778,2018-06-29 10:09:07.562500,25.92,71.2
161779,2018-06-29 10:09:07.593750,31.6,71.2
161780,2018-06-29 10:09:07.625000,33.1,71.2
161781,2018-06-29 10:09:07.656250,33.12,71.2
161782,2018-06-29 10:09:07.687500,34.99,71.2
161783,2018-06-29 10:09:07.718750,38.67,71.2
161784,2018-06-29 10:09:07.750000,41.49,71.2
161785,2018-06-29 10:09:07.781250,41.97,71.2
161786,2018-06-29 10:09:07.812500,40.17,71.2
161787,2018-06-29 10:09:07.843750,35.82,71.2
161788,2018-06-29 10:09:07.875000,28.63,71.2
161789,2018-06-29 10:09:07.906250,19.75,71.2
161790,2018-06-29 10:09:07.937500,11.05,71.2
161791,2018-06-29 10:09:07.968750,3.94,71.2
161792,2018-06-29 10:09:08.000000,-1.46,71.2
161793,2018-06-29 10:09:08.031250,-6.43,71.2
161794,2018-06-29 10:09:08.062500,-12.52,71.2
161795,2018-06-29 10:09:08.093750,-19.63,71.2
161796,2018-06-29 10:09:08.125000,-26.41,71.2
161797,2018-06-29 10:09:08.156250,-32.87,71.2
161798,2018-06-29 10:09:08.187500,-40.44,71.2
161799,2018-06-29 10:09:08.218750,-49.42,71.2
161800,2018-06-29 10:09:08.250000,-57.7,71.2
161801,2018-06-29 10:09:08.281250,-60.06,71.2
161802,2018-06-29 10:09:08.312500,-50.74,71.2
161803,2018-06-29 10:09:08.343750,-29.58,71.2
161804,2018-06-29 10:09:08.375000,-4.03,71.2
161805,2018-06-29 10:09:08.406250,18.09,71.2
161806,2018-06-29 10:09:08.437500,34.22,71.2
161807,2018-06-29 10:09:08.468750,44.17,71.2
161808,2018-06-29 10:09:08.500000,47.44,71.2
161809,2018-06-29 10:09:08.531250,46.02,71.5
161810,2018-06-29 10:09:08.562500,44.62,71.5
161811,2018-06-29 10:09:08.593750,46.09,71.5
161812,2018-06-29 10:09:08.625000,49.49,71.5
161813,2018-06-29 10:09:08.656250,53.13,71.5
161814,2018-06-29 10:09:08.687500,56.6,71.5
161815,2018-06-29 10:09:08.718750,59.25,71.5
161816,2018-06-29 10:09:08.750000,59.47,71.5
161817,2018-06-29 10:09:08.781250,57.45,71.5
161818,2018-06-29 10:09:08.812500,56.24,71.5
161819,2018-06-29 10:09:08.843750,58.05,71.5
161820,2018-06-29 10:09:08.875000,62.63,71.5
161821,2018-06-29 10:09:08.906250,70.94,71.5
161822,2018-06-29 10:09:08.937500,87.14,71.5
161823,2018-06-29 10:09:08.968750,114.93,71.5
161824,2018-06-29 10:09:09.000000,153.76,71.5
161825,2018-06-29 10:09:09.031250,199.12,71.5
161826,2018-06-29 10:09:09.062500,243.55,71.5
161827,2018-06-29 10:09:09.093750,279.75,71.5
161828,2018-06-29 10:09:09.125000,305.35,71.5
161829,2018-06-29 10:09:09.156250,320.45,71.5
161830,2018-06-29 10:09:09.187500,319.31,71.5
161831,2018-06-29 10:09:09.218750,292.19,71.5
161832,2018-06-29 10:09:09.250000,237.72,71.5
161833,2018-06-29 10:09:09.281250,165.35,71.5
161834,2018-06-29 10:09:09.312500,84.42,71.5
161835,2018-06-29 10:09:09.343750,-0.65,71.5
161836,2018-06-29 10:09:09.375000,-83.07,71.5
161837,2018-06-29 10:09:09.406250,-151.15,71.5
161838,2018-06-29 10:09:09.437500,-196.51,71.5
161839,2018-06-29 10:09:09.468750,-219.84,71.5
161840,2018-06-29 10:09:09.500000,-228.37,71.5
161841,2018-06-29 10:09:09.531250,-231.91,71.83
161842,2018-06-29 10:09:09.562500,-238.87,71.83
161843,2018-06-29 10:09:09.593750,-251.06,71.83
161844,2018-06-29 10:09:09.625000,-262.32,71.83
161845,2018-06-29 10:09:09.656250,-264.91,71.83
161846,2018-06-29 10:09:09.687500,-257.52,71.83
161847,2018-06-29 10:09:09.718750,-245.29,71.83
161848,2018-06-29 10:09:09.750000,-232.5,71.83
161849,2018-06-29 10:09:09.781250,-220.19,71.83
161850,2018-06-29 10:09:09.812500,-210.89,71.83
161851,2018-06-29 10:09:09.843750,-207.09,71.83
161852,2018-06-29 10:09:09.875000,-201.78,71.83
161853,2018-06-29 10:09:09.906250,-181.05,71.83
161854,2018-06-29 10:09:09.937500,-142.28,71.83
161855,2018-06-29 10:09:09.968750,-99.83,71.83
161856,2018-06-29 10:09:10.000000,-66.08,71.83
161857,2018-06-29 10:09:10.031250,-36.74,71.83
161858,2018-06-29 10:09:10.062500,-5.96,71.83
161859,2018-06-29 10:09:10.093750,16.69,71.83
161860,2018-06-29 10:09:10.125000,19.53,71.83
161861,2018-06-29 10:09:10.156250,7.06,71.83
161862,2018-06-29 10:09:10.187500,-8.66,71.83
161863,2018-06-29 10:09:10.218750,-22.41,71.83
161864,2018-06-29 10:09:10.250000,-31.39,71.83
161865,2018-06-29 10:09:10.281250,-30.15,71.83
161866,2018-06-29 10:09:10.312500,-18.45,71.83
161867,2018-06-29 10:09:10.343750,-4.41,71.83
161868,2018-06-29 10:09:10.375000,5.67,71.83
161869,2018-06-29 10:09:10.406250,15.13,71.83
161870,2018-06-29 10:09:10.437500,30.92,71.83
161871,2018-06-29 10:09:10.468750,52.81,71.83
161872,2018-06-29 10:09:10.500000,73.89,71.83
161873,2018-06-29 10:09:10.531250,88.91,72.15
161874,2018-06-29 10:09:10.562500,96.58,72.15
161875,2018-06-29 10:09:10.593750,99.67,72.15
161876,2018-06-29 10:09:10.625000,106.82,72.15
161877,2018-06-29 10:09:10.656250,124.39,72.15
161878,2018-06-29 10:09:10.687500,145.18,72.15
161879,2018-06-29 10:09:10.718750,156.94,72.15
161880,2018-06-29 10:09:10.750000,158.16,72.15
161881,2018-06-29 10:09:10.781250,154.63,72.15
161882,2018-06-29 10:09:10.812500,148.37,72.15
161883,2018-06-29 10:09:10.843750,141.48,72.15
161884,2018-06-29 10:09:10.875000,140.35,72.15
161885,2018-06-29 10:09:10.906250,144.22,72.15
161886,2018-06-29 10:09:10.937500,137.52,72.15
161887,2018-06-29 10:09:10.968750,104.64,72.15
161888,2018-06-29 10:09:11.000000,46.71,72.15
161889,2018-06-29 10:09:11.031250,-21.66,72.15
161890,2018-06-29 10:09:11.062500,-84.19,72.15
161891,2018-06-29 10:09:11.093750,-129.26,72.15
161892,2018-06-29 10:09:11.125000,-154.66,72.15
161893,2018-06-29 10:09:11.156250,-167.71,72.15
161894,2018-06-29 10:09:11.187500,-175.22,72.15
161895,2018-06-29 10:09:11.218750,-178.24,72.15
161896,2018-06-29 10:09:11.250000,-177.64,72.15
161897,2018-06-29 10:09:11.281250,-175.51,72.15
161898,2018-06-29 10:09:11.312500,-173.54,72.15
161899,2018-06-29 10:09:11.343750,-176.36,72.15
161900,2018-06-29 10:09:11.375000,-186.82,72.15
161901,2018-06-29 10:09:11.406250,-194.41,72.15
161902,2018-06-29 10:09:11.437500,-182.65,72.15
161903,2018-06-29 10:09:11.468750,-152.31,72.15
161904,2018-06-29 10:09:11.500000,-124.13,72.15
161905,2018-06-29 10:09:11.531250,-109.71,72.3
161906,2018-06-29 10:09:11.562500,-91.52,72.3
161907,2018-06-29 10:09:11.593750,-52.37,72.3
161908,2018-06-29 10:09:11.625000,-10.55,72.3
161909,2018-06-29 10:09:11.656250,4.15,72.3
161910,2018-06-29 10:09:11.687500,-7.93,72.3
161911,2018-06-29 10:09:11.718750,-24.64,72.3
161912,2018-06-29 10:09:11.750000,-31.98,72.3
161913,2018-06-29 10:09:11.781250,-29.26,72.3
161914,2018-06-29 10:09:11.812500,-23.85,72.3
161915,2018-06-29 10:09:11.843750,-26.49,72.3
161916,2018-06-29 10:09:11.875000,-41.41,72.3
161917,2018-06-29 10:09:11.906250,-65.12,72.3
161918,2018-06-29 10:09:11.937500,-93.79,72.3
161919,2018-06-29 10:09:11.968750,-123.69,72.3
161920,2018-06-29 10:09:12.000000,-146.09,72.3
161921,2018-06-29 10:09:12.031250,-144.64,72.3
161922,2018-06-29 10:09:12.062500,-106.57,72.3
161923,2018-06-29 10:09:12.093750,-44.49,72.3
161924,2018-06-29 10:09:12.125000,7.49,72.3
161925,2018-06-29 10:09:12.156250,27.97,72.3
161926,2018-06-29 10:09:12.187500,21.97,72.3
161927,2018-06-29 10:09:12.218750,1.74,72.3
161928,2018-06-29 10:09:12.250000,-24.91,72.3
161929,2018-06-29 10:09:12.281250,-49.74,72.3
161930,2018-06-29 10:09:12.312500,-62.68,72.3
161931,2018-06-29 10:09:12.343750,-57.36,72.3
161932,2018-06-29 10:09:12.375000,-35.84,72.3
161933,2018-06-29 10:09:12.406250,-7.32,72.3
161934,2018-06-29 10:09:12.437500,20.63,72.3
161935,2018-06-29 10:09:12.468750,43.23,72.3
161936,2018-06-29 10:09:12.500000,52.62,72.3
161937,2018-06-29 10:09:12.531250,44.91,72.48
161938,2018-06-29 10:09:12.562500,30.08,72.48
161939,2018-06-29 10:09:12.593750,22.68,72.48
161940,2018-06-29 10:09:12.625000,28.04,72.48
161941,2018-06-29 10:09:12.656250,41.92,72.48
161942,2018-06-29 10:09:12.687500,56.56,72.48
161943,2018-06-29 10:09:12.718750,65.46,72.48
161944,2018-06-29 10:09:12.750000,67.16,72.48
161945,2018-06-29 10:09:12.781250,66.2,72.48
161946,2018-06-29 10:09:12.812500,69.2,72.48
161947,2018-06-29 10:09:12.843750,77.97,72.48
161948,2018-06-29 10:09:12.875000,82.4,72.48
161949,2018-06-29 10:09:12.906250,65.87,72.48
161950,2018-06-29 10:09:12.937500,25.74,72.48
161951,2018-06-29 10:09:12.968750,-19.09,72.48
161952,2018-06-29 10:09:13.000000,-48.46,72.48
161953,2018-06-29 10:09:13.031250,-56.74,72.48
161954,2018-06-29 10:09:13.062500,-45.95,72.48
161955,2018-06-29 10:09:13.093750,-21.0,72.48
161956,2018-06-29 10:09:13.125000,6.29,72.48
161957,2018-06-29 10:09:13.156250,24.48,72.48
161958,2018-06-29 10:09:13.187500,33.32,72.48
161959,2018-06-29 10:09:13.218750,37.65,72.48
161960,2018-06-29 10:09:13.250000,37.58,72.48
161961,2018-06-29 10:09:13.281250,33.54,72.48
161962,2018-06-29 10:09:13.312500,34.34,72.48
161963,2018-06-29 10:09:13.343750,50.1,72.48
161964,2018-06-29 10:09:13.375000,78.72,72.48
161965,2018-06-29 10:09:13.406250,107.06,72.48
161966,2018-06-29 10:09:13.437500,124.29,72.48
161967,2018-06-29 10:09:13.468750,127.67,72.48
161968,2018-06-29 10:09:13.500000,118.85,72.48
161969,2018-06-29 10:09:13.531250,101.9,72.68
161970,2018-06-29 10:09:13.562500,82.26,72.68
161971,2018-06-29 10:09:13.593750,62.99,72.68
161972,2018-06-29 10:09:13.625000,43.9,72.68
161973,2018-06-29 10:09:13.656250,24.86,72.68
161974,2018-06-29 10:09:13.687500,7.29,72.68
161975,2018-06-29 10:09:13.718750,-8.96,72.68
161976,2018-06-29 10:09:13.750000,-26.79,72.68
161977,2018-06-29 10:09:13.781250,-45.78,72.68
161978,2018-06-29 10:09:13.812500,-58.18,72.68
161979,2018-06-29 10:09:13.843750,-56.99,72.68
161980,2018-06-29 10:09:13.875000,-48.09,72.68
161981,2018-06-29 10:09:13.906250,-49.44,72.68
161982,2018-06-29 10:09:13.937500,-74.53,72.68
161983,2018-06-29 10:09:13.968750,-115.17,72.68
161984,2018-06-29 10:09:14.000000,-145.2,72.68
161985,2018-06-29 10:09:14.031250,-146.19,72.68
161986,2018-06-29 10:09:14.062500,-122.91,72.68
161987,2018-06-29 10:09:14.093750,-89.43,72.68
161988,2018-06-29 10:09:14.125000,-52.24,72.68
161989,2018-06-29 10:09:14.156250,-13.05,72.68
161990,2018-06-29 10:09:14.187500,24.81,72.68
161991,2018-06-29 10:09:14.218750,59.37,72.68
161992,2018-06-29 10:09:14.250000,90.81,72.68
161993,2018-06-29 10:09:14.281250,119.16,72.68
161994,2018-06-29 10:09:14.312500,144.39,72.68
161995,2018-06-29 10:09:14.343750,163.06,72.68
161996,2018-06-29 10:09:14.375000,165.59,72.68
161997,2018-06-29 10:09:14.406250,144.76,72.68
161998,2018-06-29 10:09:14.437500,107.88,72.68
161999,2018-06-29 10:09:14.468750,73.8,72.68
162000,2018-06-29 10:09:14.500000,56.4,72.68
162001,2018-06-29 10:09:14.531250,54.04,72.77
162002,2018-06-29 10:09:14.562500,55.46,72.77
162003,2018-06-29 10:09:14.593750,51.47,72.77
162004,2018-06-29 10:09:14.625000,40.42,72.77
162005,2018-06-29 10:09:14.656250,27.44,72.77
162006,2018-06-29 10:09:14.687500,19.74,72.77
162007,2018-06-29 10:09:14.718750,19.59,72.77
162008,2018-06-29 10:09:14.750000,22.74,72.77
162009,2018-06-29 10:09:14.781250,23.75,72.77
162010,2018-06-29 10:09:14.812500,19.72,72.77
162011,2018-06-29 10:09:14.843750,9.98,72.77
162012,2018-06-29 10:09:14.875000,-4.8,72.77
162013,2018-06-29 10:09:14.906250,-24.17,72.77
162014,2018-06-29 10:09:14.937500,-48.2,72.77
162015,2018-06-29 10:09:14.968750,-73.25,72.77
162016,2018-06-29 10:09:15.000000,-90.18,72.77
162017,2018-06-29 10:09:15.031250,-91.26,72.77
162018,2018-06-29 10:09:15.062500,-76.58,72.77
162019,2018-06-29 10:09:15.093750,-51.85,72.77
162020,2018-06-29 10:09:15.125000,-23.24,72.77
162021,2018-06-29 10:09:15.156250,4.47,72.77
162022,2018-06-29 10:09:15.187500,28.19,72.77
162023,2018-06-29 10:09:15.218750,46.44,72.77
162024,2018-06-29 10:09:15.250000,58.93,72.77
162025,2018-06-29 10:09:15.281250,67.6,72.77
162026,2018-06-29 10:09:15.312500,76.41,72.77
162027,2018-06-29 10:09:15.343750,87.52,72.77
162028,2018-06-29 10:09:15.375000,98.82,72.77
162029,2018-06-29 10:09:15.406250,106.96,72.77
162030,2018-06-29 10:09:15.437500,110.36,72.77
162031,2018-06-29 10:09:15.468750,108.22,72.77
162032,2018-06-29 10:09:15.500000,99.92,72.77
162033,2018-06-29 10:09:15.531250,86.11,72.83
162034,2018-06-29 10:09:15.562500,68.28,72.83
162035,2018-06-29 10:09:15.593750,47.76,72.83
162036,2018-06-29 10:09:15.625000,27.13,72.83
162037,2018-06-29 10:09:15.656250,9.63,72.83
162038,2018-06-29 10:09:15.687500,-4.25,72.83
162039,2018-06-29 10:09:15.718750,-16.57,72.83
162040,2018-06-29 10:09:15.750000,-27.97,72.83
162041,2018-06-29 10:09:15.781250,-37.33,72.83
162042,2018-06-29 10:09:15.812500,-44.95,72.83
162043,2018-06-29 10:09:15.843750,-53.61,72.83
162044,2018-06-29 10:09:15.875000,-66.92,72.83
162045,2018-06-29 10:09:15.906250,-87.15,72.83
162046,2018-06-29 10:09:15.937500,-111.58,72.83
162047,2018-06-29 10:09:15.968750,-128.97,72.83
162048,2018-06-29 10:09:16.000000,-126.03,72.83
162049,2018-06-29 10:09:16.031250,-100.73,72.83
162050,2018-06-29 10:09:16.062500,-63.74,72.83
162051,2018-06-29 10:09:16.093750,-26.41,72.83
162052,2018-06-29 10:09:16.125000,6.31,72.83
162053,2018-06-29 10:09:16.156250,32.19,72.83
162054,2018-06-29 10:09:16.187500,49.38,72.83
162055,2018-06-29 10:09:16.218750,58.92,72.83
162056,2018-06-29 10:09:16.250000,64.05,72.83
162057,2018-06-29 10:09:16.281250,66.8,72.83
162058,2018-06-29 10:09:16.312500,67.88,72.83
162059,2018-06-29 10:09:16.343750,68.07,72.83
162060,2018-06-29 10:09:16.375000,67.5,72.83
162061,2018-06-29 10:09:16.406250,65.37,72.83
162062,2018-06-29 10:09:16.437500,61.3,72.83
162063,2018-06-29 10:09:16.468750,54.88,72.83
162064,2018-06-29 10:09:16.500000,44.37,72.83
162065,2018-06-29 10:09:16.531250,27.66,72.9
162066,2018-06-29 10:09:16.562500,5.09,72.9
162067,2018-06-29 10:09:16.593750,-19.07,72.9
162068,2018-06-29 10:09:16.625000,-39.42,72.9
162069,2018-06-29 10:09:16.656250,-53.95,72.9
162070,2018-06-29 10:09:16.687500,-63.2,72.9
162071,2018-06-29 10:09:16.718750,-66.54,72.9
162072,2018-06-29 10:09:16.750000,-63.52,72.9
162073,2018-06-29 10:09:16.781250,-57.71,72.9
162074,2018-06-29 10:09:16.812500,-54.59,72.9
162075,2018-06-29 10:09:16.843750,-55.54,72.9
162076,2018-06-29 10:09:16.875000,-54.72,72.9
162077,2018-06-29 10:09:16.906250,-41.32,72.9
162078,2018-06-29 10:09:16.937500,-7.79,72.9
162079,2018-06-29 10:09:16.968750,41.37,72.9
162080,2018-06-29 10:09:17.000000,91.74,72.9
162081,2018-06-29 10:09:17.031250,131.53,72.9
162082,2018-06-29 10:09:17.062500,158.95,72.9
162083,2018-06-29 10:09:17.093750,177.38,72.9
162084,2018-06-29 10:09:17.125000,188.0,72.9
162085,2018-06-29 10:09:17.156250,190.33,72.9
162086,2018-06-29 10:09:17.187500,187.2,72.9
162087,2018-06-29 10:09:17.218750,182.67,72.9
162088,2018-06-29 10:09:17.250000,175.04,72.9
162089,2018-06-29 10:09:17.281250,159.48,72.9
162090,2018-06-29 10:09:17.312500,137.94,72.9
162091,2018-06-29 10:09:17.343750,117.2,72.9
162092,2018-06-29 10:09:17.375000,98.08,72.9
162093,2018-06-29 10:09:17.406250,75.46,72.9
162094,2018-06-29 10:09:17.437500,47.82,72.9
162095,2018-06-29 10:09:17.468750,19.25,72.9
162096,2018-06-29 10:09:17.500000,-7.28,72.9
162097,2018-06-29 10:09:17.531250,-32.42,72.97
162098,2018-06-29 10:09:17.562500,-56.23,72.97
162099,2018-06-29 10:09:17.593750,-76.46,72.97
162100,2018-06-29 10:09:17.625000,-92.3,72.97
162101,2018-06-29 10:09:17.656250,-105.5,72.97
162102,2018-06-29 10:09:17.687500,-117.49,72.97
162103,2018-06-29 10:09:17.718750,-128.29,72.97
162104,2018-06-29 10:09:17.750000,-136.21,72.97
162105,2018-06-29 10:09:17.781250,-136.33,72.97
162106,2018-06-29 10:09:17.812500,-123.55,72.97
162107,2018-06-29 10:09:17.843750,-99.04,72.97
162108,2018-06-29 10:09:17.875000,-70.2,72.97
162109,2018-06-29 10:09:17.906250,-44.47,72.97
162110,2018-06-29 10:09:17.937500,-25.96,72.97
162111,2018-06-29 10:09:17.968750,-15.53,72.97
162112,2018-06-29 10:09:18.000000,-11.19,72.97
162113,2018-06-29 10:09:18.031250,-9.25,72.97
162114,2018-06-29 10:09:18.062500,-7.02,72.97
162115,2018-06-29 10:09:18.093750,-4.57,72.97
162116,2018-06-29 10:09:18.125000,-2.91,72.97
162117,2018-06-29 10:09:18.156250,-2.03,72.97
162118,2018-06-29 10:09:18.187500,-1.77,72.97
162119,2018-06-29 10:09:18.218750,-3.11,72.97
162120,2018-06-29 10:09:18.250000,-7.11,72.97
162121,2018-06-29 10:09:18.281250,-13.16,72.97
162122,2018-06-29 10:09:18.312500,-19.38,72.97
162123,2018-06-29 10:09:18.343750,-24.7,72.97
162124,2018-06-29 10:09:18.375000,-30.08,72.97
162125,2018-06-29 10:09:18.406250,-37.12,72.97
162126,2018-06-29 10:09:18.437500,-45.91,72.97
162127,2018-06-29 10:09:18.468750,-55.79,72.97
162128,2018-06-29 10:09:18.500000,-67.2,72.97
162129,2018-06-29 10:09:18.531250,-81.35,73.03
162130,2018-06-29 10:09:18.562500,-97.62,73.03
162131,2018-06-29 10:09:18.593750,-111.95,73.03
162132,2018-06-29 10:09:18.625000,-118.97,73.03
162133,2018-06-29 10:09:18.656250,-118.21,73.03
162134,2018-06-29 10:09:18.687500,-117.24,73.03
162135,2018-06-29 10:09:18.718750,-124.76,73.03
162136,2018-06-29 10:09:18.750000,-140.18,73.03
162137,2018-06-29 10:09:18.781250,-153.78,73.03
162138,2018-06-29 10:09:18.812500,-156.13,73.03
162139,2018-06-29 10:09:18.843750,-142.59,73.03
162140,2018-06-29 10:09:18.875000,-111.6,73.03
162141,2018-06-29 10:09:18.906250,-65.82,73.03
162142,2018-06-29 10:09:18.937500,-15.18,73.03
162143,2018-06-29 10:09:18.968750,27.18,73.03
162144,2018-06-29 10:09:19.000000,53.79,73.03
162145,2018-06-29 10:09:19.031250,66.25,73.03
162146,2018-06-29 10:09:19.062500,70.89,73.03
162147,2018-06-29 10:09:19.093750,74.04,73.03
162148,2018-06-29 10:09:19.125000,80.05,73.03
162149,2018-06-29 10:09:19.156250,89.16,73.03
162150,2018-06-29 10:09:19.187500,97.16,73.03
162151,2018-06-29 10:09:19.218750,99.67,73.03
162152,2018-06-29 10:09:19.250000,96.1,73.03
162153,2018-06-29 10:09:19.281250,88.2,73.03
162154,2018-06-29 10:09:19.312500,76.29,73.03
162155,2018-06-29 10:09:19.343750,59.44,73.03
162156,2018-06-29 10:09:19.375000,38.49,73.03
162157,2018-06-29 10:09:19.406250,18.62,73.03
162158,2018-06-29 10:09:19.437500,8.14,73.03
162159,2018-06-29 10:09:19.468750,12.12,73.03
162160,2018-06-29 10:09:19.500000,26.38,73.03
162161,2018-06-29 10:09:19.531250,41.33,73.13
162162,2018-06-29 10:09:19.562500,51.55,73.13
162163,2018-06-29 10:09:19.593750,57.24,73.13
162164,2018-06-29 10:09:19.625000,58.3,73.13
162165,2018-06-29 10:09:19.656250,53.47,73.13
162166,2018-06-29 10:09:19.687500,44.24,73.13
162167,2018-06-29 10:09:19.718750,34.61,73.13
162168,2018-06-29 10:09:19.750000,27.12,73.13
162169,2018-06-29 10:09:19.781250,21.64,73.13
162170,2018-06-29 10:09:19.812500,17.62,73.13
162171,2018-06-29 10:09:19.843750,15.45,73.13
162172,2018-06-29 10:09:19.875000,14.92,73.13
162173,2018-06-29 10:09:19.906250,13.65,73.13
162174,2018-06-29 10:09:19.937500,9.48,73.13
162175,2018-06-29 10:09:19.968750,3.36,73.13
162176,2018-06-29 10:09:20.000000,-2.78,73.13
162177,2018-06-29 10:09:20.031250,-9.92,73.13
162178,2018-06-29 10:09:20.062500,-20.8,73.13
162179,2018-06-29 10:09:20.093750,-36.14,73.13
162180,2018-06-29 10:09:20.125000,-52.16,73.13
162181,2018-06-29 10:09:20.156250,-60.94,73.13
162182,2018-06-29 10:09:20.187500,-55.65,73.13
162183,2018-06-29 10:09:20.218750,-37.13,73.13
162184,2018-06-29 10:09:20.250000,-13.76,73.13
162185,2018-06-29 10:09:20.281250,5.99,73.13
162186,2018-06-29 10:09:20.312500,19.45,73.13
162187,2018-06-29 10:09:20.343750,28.29,73.13
162188,2018-06-29 10:09:20.375000,33.61,73.13
162189,2018-06-29 10:09:20.406250,34.88,73.13
162190,2018-06-29 10:09:20.437500,33.03,73.13
162191,2018-06-29 10:09:20.468750,30.42,73.13
162192,2018-06-29 10:09:20.500000,27.71,73.13
162193,2018-06-29 10:09:20.531250,23.95,73.23
162194,2018-06-29 10:09:20.562500,18.34,73.23
162195,2018-06-29 10:09:20.593750,9.92,73.23
162196,2018-06-29 10:09:20.625000,-1.38,73.23
162197,2018-06-29 10:09:20.656250,-12.71,73.23
162198,2018-06-29 10:09:20.687500,-21.13,73.23
162199,2018-06-29 10:09:20.718750,-27.03,73.23
162200,2018-06-29 10:09:20.750000,-31.88,73.23
162201,2018-06-29 10:09:20.781250,-35.57,73.23
162202,2018-06-29 10:09:20.812500,-38.53,73.23
162203,2018-06-29 10:09:20.843750,-42.92,73.23
162204,2018-06-29 10:09:20.875000,-50.1,73.23
162205,2018-06-29 10:09:20.906250,-58.17,73.23
162206,2018-06-29 10:09:20.937500,-61.08,73.23
162207,2018-06-29 10:09:20.968750,-52.32,73.23
162208,2018-06-29 10:09:21.000000,-32.29,73.23
162209,2018-06-29 10:09:21.031250,-9.13,73.23
162210,2018-06-29 10:09:21.062500,10.19,73.23
162211,2018-06-29 10:09:21.093750,25.02,73.23
162212,2018-06-29 10:09:21.125000,35.99,73.23
162213,2018-06-29 10:09:21.156250,41.03,73.23
162214,2018-06-29 10:09:21.187500,39.39,73.23
162215,2018-06-29 10:09:21.218750,35.25,73.23
162216,2018-06-29 10:09:21.250000,33.48,73.23
162217,2018-06-29 10:09:21.281250,34.32,73.23
162218,2018-06-29 10:09:21.312500,35.6,73.23
162219,2018-06-29 10:09:21.343750,36.86,73.23
162220,2018-06-29 10:09:21.375000,37.87,73.23
162221,2018-06-29 10:09:21.406250,36.45,73.23
162222,2018-06-29 10:09:21.437500,31.34,73.23
162223,2018-06-29 10:09:21.468750,24.41,73.23
162224,2018-06-29 10:09:21.500000,18.15,73.23
162225,2018-06-29 10:09:21.531250,12.83,73.35
162226,2018-06-29 10:09:21.562500,6.74,73.35
162227,2018-06-29 10:09:21.593750,-1.03,73.35
162228,2018-06-29 10:09:21.625000,-8.89,73.35
162229,2018-06-29 10:09:21.656250,-14.73,73.35
162230,2018-06-29 10:09:21.687500,-19.0,73.35
162231,2018-06-29 10:09:21.718750,-23.98,73.35
162232,2018-06-29 10:09:21.750000,-30.61,73.35
162233,2018-06-29 10:09:21.781250,-37.88,73.35
162234,2018-06-29 10:09:21.812500,-44.8,73.35
162235,2018-06-29 10:09:21.843750,-51.96,73.35
162236,2018-06-29 10:09:21.875000,-60.85,73.35
162237,2018-06-29 10:09:21.906250,-71.81,73.35
162238,2018-06-29 10:09:21.937500,-81.64,73.35
162239,2018-06-29 10:09:21.968750,-82.67,73.35
162240,2018-06-29 10:09:22.000000,-68.76,73.35
162241,2018-06-29 10:09:22.031250,-43.46,73.35
162242,2018-06-29 10:09:22.062500,-17.68,73.35
162243,2018-06-29 10:09:22.093750,1.73,73.35
162244,2018-06-29 10:09:22.125000,15.51,73.35
162245,2018-06-29 10:09:22.156250,25.05,73.35
162246,2018-06-29 10:09:22.187500,29.24,73.35
162247,2018-06-29 10:09:22.218750,29.01,73.35
162248,2018-06-29 10:09:22.250000,28.46,73.35
162249,2018-06-29 10:09:22.281250,29.69,73.35
162250,2018-06-29 10:09:22.312500,31.01,73.35
162251,2018-06-29 10:09:22.343750,31.03,73.35
162252,2018-06-29 10:09:22.375000,30.44,73.35
162253,2018-06-29 10:09:22.406250,29.34,73.35
162254,2018-06-29 10:09:22.437500,26.27,73.35
162255,2018-06-29 10:09:22.468750,20.74,73.35
162256,2018-06-29 10:09:22.500000,13.98,73.35
162257,2018-06-29 10:09:22.531250,6.88,73.37
162258,2018-06-29 10:09:22.562500,-0.9,73.37
162259,2018-06-29 10:09:22.593750,-9.85,73.37
162260,2018-06-29 10:09:22.625000,-19.85,73.37
162261,2018-06-29 10:09:22.656250,-30.42,73.37
162262,2018-06-29 10:09:22.687500,-41.31,73.37
162263,2018-06-29 10:09:22.718750,-52.37,73.37
162264,2018-06-29 10:09:22.750000,-63.44,73.37
162265,2018-06-29 10:09:22.781250,-75.46,73.37
162266,2018-06-29 10:09:22.812500,-89.57,73.37
162267,2018-06-29 10:09:22.843750,-102.17,73.37
162268,2018-06-29 10:09:22.875000,-103.4,73.37
162269,2018-06-29 10:09:22.906250,-86.17,73.37
162270,2018-06-29 10:09:22.937500,-55.16,73.37
162271,2018-06-29 10:09:22.968750,-22.76,73.37
162272,2018-06-29 10:09:23.000000,1.6,73.37
162273,2018-06-29 10:09:23.031250,15.59,73.37
162274,2018-06-29 10:09:23.062500,21.18,73.37
162275,2018-06-29 10:09:23.093750,22.72,73.37
162276,2018-06-29 10:09:23.125000,25.8,73.37
162277,2018-06-29 10:09:23.156250,34.64,73.37
162278,2018-06-29 10:09:23.187500,50.19,73.37
162279,2018-06-29 10:09:23.218750,70.93,73.37
162280,2018-06-29 10:09:23.250000,93.41,73.37
162281,2018-06-29 10:09:23.281250,111.6,73.37
162282,2018-06-29 10:09:23.312500,118.59,73.37
162283,2018-06-29 10:09:23.343750,110.53,73.37
162284,2018-06-29 10:09:23.375000,88.66,73.37
162285,2018-06-29 10:09:23.406250,57.59,73.37
162286,2018-06-29 10:09:23.437500,22.24,73.37
162287,2018-06-29 10:09:23.468750,-13.43,73.37
162288,2018-06-29 10:09:23.500000,-46.17,73.37
162289,2018-06-29 10:09:23.531250,-73.8,73.38
162290,2018-06-29 10:09:23.562500,-95.69,73.38
162291,2018-06-29 10:09:23.593750,-111.0,73.38
162292,2018-06-29 10:09:23.625000,-117.28,73.38
162293,2018-06-29 10:09:23.656250,-112.48,73.38
162294,2018-06-29 10:09:23.687500,-98.98,73.38
162295,2018-06-29 10:09:23.718750,-83.97,73.38
162296,2018-06-29 10:09:23.750000,-73.95,73.38
162297,2018-06-29 10:09:23.781250,-68.78,73.38
162298,2018-06-29 10:09:23.812500,-60.7,73.38
162299,2018-06-29 10:09:23.843750,-39.79,73.38
162300,2018-06-29 10:09:23.875000,-2.98,73.38
162301,2018-06-29 10:09:23.906250,40.91,73.38
162302,2018-06-29 10:09:23.937500,78.22,73.38
162303,2018-06-29 10:09:23.968750,101.8,73.38
162304,2018-06-29 10:09:24.000000,112.51,73.38
162305,2018-06-29 10:09:24.031250,113.73,73.38
162306,2018-06-29 10:09:24.062500,108.22,73.38
162307,2018-06-29 10:09:24.093750,97.36,73.38
162308,2018-06-29 10:09:24.125000,81.15,73.38
162309,2018-06-29 10:09:24.156250,60.45,73.38
162310,2018-06-29 10:09:24.187500,38.77,73.38
162311,2018-06-29 10:09:24.218750,20.79,73.38
162312,2018-06-29 10:09:24.250000,8.96,73.38
162313,2018-06-29 10:09:24.281250,1.48,73.38
162314,2018-06-29 10:09:24.312500,-5.17,73.38
162315,2018-06-29 10:09:24.343750,-11.95,73.38
162316,2018-06-29 10:09:24.375000,-17.18,73.38
162317,2018-06-29 10:09:24.406250,-20.06,73.38
162318,2018-06-29 10:09:24.437500,-20.75,73.38
162319,2018-06-29 10:09:24.468750,-18.32,73.38
162320,2018-06-29 10:09:24.500000,-12.38,73.38
162321,2018-06-29 10:09:24.531250,-5.41,73.42
162322,2018-06-29 10:09:24.562500,-0.5,73.42
162323,2018-06-29 10:09:24.593750,2.35,73.42
162324,2018-06-29 10:09:24.625000,5.13,73.42
162325,2018-06-29 10:09:24.656250,7.72,73.42
162326,2018-06-29 10:09:24.687500,6.7,73.42
162327,2018-06-29 10:09:24.718750,-0.68,73.42
162328,2018-06-29 10:09:24.750000,-10.94,73.42
162329,2018-06-29 10:09:24.781250,-14.93,73.42
162330,2018-06-29 10:09:24.812500,-6.9,73.42
162331,2018-06-29 10:09:24.843750,8.36,73.42
162332,2018-06-29 10:09:24.875000,21.26,73.42
162333,2018-06-29 10:09:24.906250,27.98,73.42
162334,2018-06-29 10:09:24.937500,30.37,73.42
162335,2018-06-29 10:09:24.968750,28.93,73.42
162336,2018-06-29 10:09:25.000000,22.36,73.42
162337,2018-06-29 10:09:25.031250,12.52,73.42
162338,2018-06-29 10:09:25.062500,3.74,73.42
162339,2018-06-29 10:09:25.093750,-1.82,73.42
162340,2018-06-29 10:09:25.125000,-4.72,73.42
162341,2018-06-29 10:09:25.156250,-5.88,73.42
162342,2018-06-29 10:09:25.187500,-6.61,73.42
162343,2018-06-29 10:09:25.218750,-8.37,73.42
162344,2018-06-29 10:09:25.250000,-11.24,73.42
162345,2018-06-29 10:09:25.281250,-14.35,73.42
162346,2018-06-29 10:09:25.312500,-16.73,73.42
162347,2018-06-29 10:09:25.343750,-17.32,73.42
162348,2018-06-29 10:09:25.375000,-16.44,73.42
162349,2018-06-29 10:09:25.406250,-16.96,73.42
162350,2018-06-29 10:09:25.437500,-21.15,73.42
162351,2018-06-29 10:09:25.468750,-27.74,73.42
162352,2018-06-29 10:09:25.500000,-34.41,73.42
162353,2018-06-29 10:09:25.531250,-40.92,73.47
162354,2018-06-29 10:09:25.562500,-48.52,73.47
162355,2018-06-29 10:09:25.593750,-58.07,73.47
162356,2018-06-29 10:09:25.625000,-68.97,73.47
162357,2018-06-29 10:09:25.656250,-77.23,73.47
162358,2018-06-29 10:09:25.687500,-75.1,73.47
162359,2018-06-29 10:09:25.718750,-57.73,73.47
162360,2018-06-29 10:09:25.750000,-30.71,73.47
162361,2018-06-29 10:09:25.781250,-5.57,73.47
162362,2018-06-29 10:09:25.812500,12.34,73.47
162363,2018-06-29 10:09:25.843750,25.81,73.47
162364,2018-06-29 10:09:25.875000,36.94,73.47
162365,2018-06-29 10:09:25.906250,43.96,73.47
162366,2018-06-29 10:09:25.937500,46.65,73.47
162367,2018-06-29 10:09:25.968750,48.3,73.47
162368,2018-06-29 10:09:26.000000,51.09,73.47
162369,2018-06-29 10:09:26.031250,54.12,73.47
162370,2018-06-29 10:09:26.062500,56.14,73.47
162371,2018-06-29 10:09:26.093750,56.67,73.47
162372,2018-06-29 10:09:26.125000,54.61,73.47
162373,2018-06-29 10:09:26.156250,48.62,73.47
162374,2018-06-29 10:09:26.187500,39.2,73.47
162375,2018-06-29 10:09:26.218750,28.77,73.47
162376,2018-06-29 10:09:26.250000,19.15,73.47
162377,2018-06-29 10:09:26.281250,9.89,73.47
162378,2018-06-29 10:09:26.312500,-0.12,73.47
162379,2018-06-29 10:09:26.343750,-9.94,73.47
162380,2018-06-29 10:09:26.375000,-17.33,73.47
162381,2018-06-29 10:09:26.406250,-22.31,73.47
162382,2018-06-29 10:09:26.437500,-27.32,73.47
162383,2018-06-29 10:09:26.468750,-34.62,73.47
162384,2018-06-29 10:09:26.500000,-44.57,73.47
162385,2018-06-29 10:09:26.531250,-53.89,73.5
162386,2018-06-29 10:09:26.562500,-55.02,73.5
162387,2018-06-29 10:09:26.593750,-42.53,73.5
162388,2018-06-29 10:09:26.625000,-20.39,73.5
162389,2018-06-29 10:09:26.656250,1.58,73.5
162390,2018-06-29 10:09:26.687500,17.19,73.5
162391,2018-06-29 10:09:26.718750,25.7,73.5
162392,2018-06-29 10:09:26.750000,27.93,73.5
162393,2018-06-29 10:09:26.781250,25.64,73.5
162394,2018-06-29 10:09:26.812500,22.82,73.5
162395,2018-06-29 10:09:26.843750,22.85,73.5
162396,2018-06-29 10:09:26.875000,25.05,73.5
162397,2018-06-29 10:09:26.906250,26.82,73.5
162398,2018-06-29 10:09:26.937500,27.26,73.5
162399,2018-06-29 10:09:26.968750,26.3,73.5
162400,2018-06-29 10:09:27.000000,23.09,73.5
162401,2018-06-29 10:09:27.031250,17.51,73.5
162402,2018-06-29 10:09:27.062500,10.64,73.5
162403,2018-06-29 10:09:27.093750,2.81,73.5
162404,2018-06-29 10:09:27.125000,-6.39,73.5
162405,2018-06-29 10:09:27.156250,-16.35,73.5
162406,2018-06-29 10:09:27.187500,-25.48,73.5
162407,2018-06-29 10:09:27.218750,-33.05,73.5
162408,2018-06-29 10:09:27.250000,-40.59,73.5
162409,2018-06-29 10:09:27.281250,-50.63,73.5
162410,2018-06-29 10:09:27.312500,-62.12,73.5
162411,2018-06-29 10:09:27.343750,-67.61,73.5
162412,2018-06-29 10:09:27.375000,-58.83,73.5
162413,2018-06-29 10:09:27.406250,-36.12,73.5
162414,2018-06-29 10:09:27.437500,-8.8,73.5
162415,2018-06-29 10:09:27.468750,14.11,73.5
162416,2018-06-29 10:09:27.500000,29.93,73.5
162417,2018-06-29 10:09:27.531250,39.62,73.5
162418,2018-06-29 10:09:27.562500,43.64,73.5
162419,2018-06-29 10:09:27.593750,42.73,73.5
162420,2018-06-29 10:09:27.625000,39.95,73.5
162421,2018-06-29 10:09:27.656250,38.57,73.5
162422,2018-06-29 10:09:27.687500,38.48,73.5
162423,2018-06-29 10:09:27.718750,37.12,73.5
162424,2018-06-29 10:09:27.750000,32.8,73.5
162425,2018-06-29 10:09:27.781250,25.38,73.5
162426,2018-06-29 10:09:27.812500,15.32,73.5
162427,2018-06-29 10:09:27.843750,3.87,73.5
162428,2018-06-29 10:09:27.875000,-7.26,73.5
162429,2018-06-29 10:09:27.906250,-17.38,73.5
162430,2018-06-29 10:09:27.937500,-26.64,73.5
162431,2018-06-29 10:09:27.968750,-35.12,73.5
162432,2018-06-29 10:09:28.000000,-42.7,73.5
162433,2018-06-29 10:09:28.031250,-50.37,73.5
162434,2018-06-29 10:09:28.062500,-61.07,73.5
162435,2018-06-29 10:09:28.093750,-75.71,73.5
162436,2018-06-29 10:09:28.125000,-87.19,73.5
162437,2018-06-29 10:09:28.156250,-83.84,73.5
162438,2018-06-29 10:09:28.187500,-62.44,73.5
162439,2018-06-29 10:09:28.218750,-31.94,73.5
162440,2018-06-29 10:09:28.250000,-2.8,73.5
162441,2018-06-29 10:09:28.281250,21.1,73.5
162442,2018-06-29 10:09:28.312500,40.12,73.5
162443,2018-06-29 10:09:28.343750,54.33,73.5
162444,2018-06-29 10:09:28.375000,62.89,73.5
162445,2018-06-29 10:09:28.406250,65.64,73.5
162446,2018-06-29 10:09:28.437500,64.48,73.5
162447,2018-06-29 10:09:28.468750,62.03,73.5
162448,2018-06-29 10:09:28.500000,59.6,73.5
162449,2018-06-29 10:09:28.531250,57.34,73.47
162450,2018-06-29 10:09:28.562500,54.84,73.47
162451,2018-06-29 10:09:28.593750,50.57,73.47
162452,2018-06-29 10:09:28.625000,42.93,73.47
162453,2018-06-29 10:09:28.656250,32.66,73.47
162454,2018-06-29 10:09:28.687500,22.46,73.47
162455,2018-06-29 10:09:28.718750,13.11,73.47
162456,2018-06-29 10:09:28.750000,2.62,73.47
162457,2018-06-29 10:09:28.781250,-9.81,73.47
162458,2018-06-29 10:09:28.812500,-21.88,73.47
162459,2018-06-29 10:09:28.843750,-31.83,73.47
162460,2018-06-29 10:09:28.875000,-41.08,73.47
162461,2018-06-29 10:09:28.906250,-52.35,73.47
162462,2018-06-29 10:09:28.937500,-66.76,73.47
162463,2018-06-29 10:09:28.968750,-80.2,73.47
162464,2018-06-29 10:09:29.000000,-82.49,73.47
162465,2018-06-29 10:09:29.031250,-66.39,73.47
162466,2018-06-29 10:09:29.062500,-37.07,73.47
162467,2018-06-29 10:09:29.093750,-6.75,73.47
162468,2018-06-29 10:09:29.125000,17.81,73.47
162469,2018-06-29 10:09:29.156250,36.87,73.47
162470,2018-06-29 10:09:29.187500,50.42,73.47
162471,2018-06-29 10:09:29.218750,56.74,73.47
162472,2018-06-29 10:09:29.250000,56.56,73.47
162473,2018-06-29 10:09:29.281250,53.42,73.47
162474,2018-06-29 10:09:29.312500,49.96,73.47
162475,2018-06-29 10:09:29.343750,46.7,73.47
162476,2018-06-29 10:09:29.375000,44.04,73.47
162477,2018-06-29 10:09:29.406250,42.52,73.47
162478,2018-06-29 10:09:29.437500,41.04,73.47
162479,2018-06-29 10:09:29.468750,37.15,73.47
162480,2018-06-29 10:09:29.500000,29.88,73.47
162481,2018-06-29 10:09:29.531250,21.01,73.43
162482,2018-06-29 10:09:29.562500,12.72,73.43
162483,2018-06-29 10:09:29.593750,4.84,73.43
162484,2018-06-29 10:09:29.625000,-4.36,73.43
162485,2018-06-29 10:09:29.656250,-14.97,73.43
162486,2018-06-29 10:09:29.687500,-24.82,73.43
162487,2018-06-29 10:09:29.718750,-32.39,73.43
162488,2018-06-29 10:09:29.750000,-39.49,73.43
162489,2018-06-29 10:09:29.781250,-49.51,73.43
162490,2018-06-29 10:09:29.812500,-62.68,73.43
162491,2018-06-29 10:09:29.843750,-72.83,73.43
162492,2018-06-29 10:09:29.875000,-69.82,73.43
162493,2018-06-29 10:09:29.906250,-49.07,73.43
162494,2018-06-29 10:09:29.937500,-18.32,73.43
162495,2018-06-29 10:09:29.968750,10.38,73.43
162496,2018-06-29 10:09:30.000000,31.97,73.43
162497,2018-06-29 10:09:30.031250,46.24,73.43
162498,2018-06-29 10:09:30.062500,51.42,73.43
162499,2018-06-29 10:09:30.093750,48.05,73.43
162500,2018-06-29 10:09:30.125000,42.82,73.43
162501,2018-06-29 10:09:30.156250,41.42,73.43
162502,2018-06-29 10:09:30.187500,42.58,73.43
162503,2018-06-29 10:09:30.218750,42.81,73.43
162504,2018-06-29 10:09:30.250000,41.44,73.43
162505,2018-06-29 10:09:30.281250,38.51,73.43
162506,2018-06-29 10:09:30.312500,32.52,73.43
162507,2018-06-29 10:09:30.343750,22.8,73.43
162508,2018-06-29 10:09:30.375000,11.15,73.43
162509,2018-06-29 10:09:30.406250,0.02,73.43
162510,2018-06-29 10:09:30.437500,-9.41,73.43
162511,2018-06-29 10:09:30.468750,-17.48,73.43
162512,2018-06-29 10:09:30.500000,-25.4,73.43
162513,2018-06-29 10:09:30.531250,-34.1,73.42
162514,2018-06-29 10:09:30.562500,-43.25,73.42
162515,2018-06-29 10:09:30.593750,-52.14,73.42
162516,2018-06-29 10:09:30.625000,-61.47,73.42
162517,2018-06-29 10:09:30.656250,-73.83,73.42
162518,2018-06-29 10:09:30.687500,-89.53,73.42
162519,2018-06-29 10:09:30.718750,-101.04,73.42
162520,2018-06-29 10:09:30.750000,-96.39,73.42
162521,2018-06-29 10:09:30.781250,-71.62,73.42
162522,2018-06-29 10:09:30.812500,-35.99,73.42
162523,2018-06-29 10:09:30.843750,-2.15,73.42
162524,2018-06-29 10:09:30.875000,24.28,73.42
162525,2018-06-29 10:09:30.906250,43.72,73.42
162526,2018-06-29 10:09:30.937500,57.3,73.42
162527,2018-06-29 10:09:30.968750,65.38,73.42
162528,2018-06-29 10:09:31.000000,68.87,73.42
162529,2018-06-29 10:09:31.031250,69.68,73.42
162530,2018-06-29 10:09:31.062500,69.41,73.42
162531,2018-06-29 10:09:31.093750,68.94,73.42
162532,2018-06-29 10:09:31.125000,68.87,73.42
162533,2018-06-29 10:09:31.156250,68.77,73.42
162534,2018-06-29 10:09:31.187500,66.32,73.42
162535,2018-06-29 10:09:31.218750,59.79,73.42
162536,2018-06-29 10:09:31.250000,50.42,73.42
162537,2018-06-29 10:09:31.281250,40.18,73.42
162538,2018-06-29 10:09:31.312500,29.05,73.42
162539,2018-06-29 10:09:31.343750,16.87,73.42
162540,2018-06-29 10:09:31.375000,5.43,73.42
162541,2018-06-29 10:09:31.406250,-3.62,73.42
162542,2018-06-29 10:09:31.437500,-11.59,73.42
162543,2018-06-29 10:09:31.468750,-21.32,73.42
162544,2018-06-29 10:09:31.500000,-33.93,73.42
162545,2018-06-29 10:09:31.531250,-48.06,73.42
162546,2018-06-29 10:09:31.562500,-62.24,73.42
162547,2018-06-29 10:09:31.593750,-76.98,73.42
162548,2018-06-29 10:09:31.625000,-94.13,73.42
162549,2018-06-29 10:09:31.656250,-112.69,73.42
162550,2018-06-29 10:09:31.687500,-123.22,73.42
162551,2018-06-29 10:09:31.718750,-112.31,73.42
162552,2018-06-29 10:09:31.750000,-77.84,73.42
162553,2018-06-29 10:09:31.781250,-33.49,73.42
162554,2018-06-29 10:09:31.812500,5.88,73.42
162555,2018-06-29 10:09:31.843750,35.53,73.42
162556,2018-06-29 10:09:31.875000,56.01,73.42
162557,2018-06-29 10:09:31.906250,67.0,73.42
162558,2018-06-29 10:09:31.937500,68.57,73.42
162559,2018-06-29 10:09:31.968750,63.26,73.42
162560,2018-06-29 10:09:32.000000,55.55,73.42
162561,2018-06-29 10:09:32.031250,50.09,73.42
162562,2018-06-29 10:09:32.062500,49.43,73.42
162563,2018-06-29 10:09:32.093750,52.66,73.42
162564,2018-06-29 10:09:32.125000,56.72,73.42
162565,2018-06-29 10:09:32.156250,58.69,73.42
162566,2018-06-29 10:09:32.187500,57.03,73.42
162567,2018-06-29 10:09:32.218750,51.91,73.42
162568,2018-06-29 10:09:32.250000,45.04,73.42
162569,2018-06-29 10:09:32.281250,38.34,73.42
162570,2018-06-29 10:09:32.312500,31.83,73.42
162571,2018-06-29 10:09:32.343750,23.33,73.42
162572,2018-06-29 10:09:32.375000,10.7,73.42
162573,2018-06-29 10:09:32.406250,-5.85,73.42
162574,2018-06-29 10:09:32.437500,-22.61,73.42
162575,2018-06-29 10:09:32.468750,-34.21,73.42
162576,2018-06-29 10:09:32.500000,-38.66,73.42
162577,2018-06-29 10:09:32.531250,-39.69,73.47
162578,2018-06-29 10:09:32.562500,-42.4,73.47
162579,2018-06-29 10:09:32.593750,-47.85,73.47
162580,2018-06-29 10:09:32.625000,-54.01,73.47
162581,2018-06-29 10:09:32.656250,-60.35,73.47
162582,2018-06-29 10:09:32.687500,-68.46,73.47
162583,2018-06-29 10:09:32.718750,-78.48,73.47
162584,2018-06-29 10:09:32.750000,-85.26,73.47
162585,2018-06-29 10:09:32.781250,-80.04,73.47
162586,2018-06-29 10:09:32.812500,-58.97,73.47
162587,2018-06-29 10:09:32.843750,-28.72,73.47
162588,2018-06-29 10:09:32.875000,-0.2,73.47
162589,2018-06-29 10:09:32.906250,21.42,73.47
162590,2018-06-29 10:09:32.937500,37.18,73.47
162591,2018-06-29 10:09:32.968750,47.99,73.47
162592,2018-06-29 10:09:33.000000,53.19,73.47
162593,2018-06-29 10:09:33.031250,53.99,73.47
162594,2018-06-29 10:09:33.062500,53.83,73.47
162595,2018-06-29 10:09:33.093750,54.84,73.47
162596,2018-06-29 10:09:33.125000,56.63,73.47
162597,2018-06-29 10:09:33.156250,58.05,73.47
