,Time,ppg,hr
192000,2018-06-29 10:24:52.000000,94.07,67.22
192001,2018-06-29 10:24:52.031250,110.38,67.22
192002,2018-06-29 10:24:52.062500,118.25,67.22
192003,2018-06-29 10:24:52.093750,127.78,67.22
192004,2018-06-29 10:24:52.125000,143.53,67.22
192005,2018-06-29 10:24:52.156250,161.11,67.22
192006,2018-06-29 10:24:52.187500,173.56,67.22
192007,2018-06-29 10:24:52.218750,176.67,67.22
192008,2018-06-29 10:24:52.250000,170.85,67.22
192009,2018-06-29 10:24:52.281250,159.57,67.22
192010,2018-06-29 10:24:52.312500,146.29,67.22
192011,2018-06-29 10:24:52.343750,133.71,67.22
192012,2018-06-29 10:24:52.375000,121.86,67.22
192013,2018-06-29 10:24:52.406250,106.46,67.22
192014,2018-06-29 10:24:52.437500,84.44,67.22
192015,2018-06-29 10:24:52.468750,60.0,67.22
192016,2018-06-29 10:24:52.500000,39.38,67.22
192017,2018-06-29 10:24:52.531250,22.79,67.17
192018,2018-06-29 10:24:52.562500,6.16,67.17
192019,2018-06-29 10:24:52.593750,-13.41,67.17
192020,2018-06-29 10:24:52.625000,-35.12,67.17
192021,2018-06-29 10:24:52.656250,-51.53,67.17
192022,2018-06-29 10:24:52.687500,-49.99,67.17
192023,2018-06-29 10:24:52.718750,-25.06,67.17
192024,2018-06-29 10:24:52.750000,12.59,67.17
192025,2018-06-29 10:24:52.781250,46.05,67.17
192026,2018-06-29 10:24:52.812500,67.95,67.17
192027,2018-06-29 10:24:52.843750,81.37,67.17
192028,2018-06-29 10:24:52.875000,90.27,67.17
192029,2018-06-29 10:24:52.906250,96.24,67.17
192030,2018-06-29 10:24:52.937500,101.62,67.17
192031,2018-06-29 10:24:52.968750,109.29,67.17
192032,2018-06-29 10:24:53.000000,118.73,67.17
192033,2018-06-29 10:24:53.031250,125.32,67.17
192034,2018-06-29 10:24:53.062500,124.74,67.17
192035,2018-06-29 10:24:53.093750,115.27,67.17
192036,2018-06-29 10:24:53.125000,95.31,67.17
192037,2018-06-29 10:24:53.156250,64.59,67.17
192038,2018-06-29 10:24:53.187500,28.72,67.17
192039,2018-06-29 10:24:53.218750,-3.84,67.17
192040,2018-06-29 10:24:53.250000,-30.0,67.17
192041,2018-06-29 10:24:53.281250,-51.98,67.17
192042,2018-06-29 10:24:53.312500,-71.0,67.17
192043,2018-06-29 10:24:53.343750,-85.81,67.17
192044,2018-06-29 10:24:53.375000,-95.61,67.17
192045,2018-06-29 10:24:53.406250,-101.44,67.17
192046,2018-06-29 10:24:53.437500,-105.66,67.17
192047,2018-06-29 10:24:53.468750,-111.19,67.17
192048,2018-06-29 10:24:53.500000,-120.25,67.17
192049,2018-06-29 10:24:53.531250,-129.58,67.1
192050,2018-06-29 10:24:53.562500,-126.96,67.1
192051,2018-06-29 10:24:53.593750,-100.43,67.1
192052,2018-06-29 10:24:53.625000,-53.3,67.1
192053,2018-06-29 10:24:53.656250,-2.77,67.1
192054,2018-06-29 10:24:53.687500,37.5,67.1
192055,2018-06-29 10:24:53.718750,65.51,67.1
192056,2018-06-29 10:24:53.750000,83.35,67.1
192057,2018-06-29 10:24:53.781250,91.54,67.1
192058,2018-06-29 10:24:53.812500,92.61,67.1
192059,2018-06-29 10:24:53.843750,93.07,67.1
192060,2018-06-29 10:24:53.875000,98.46,67.1
192061,2018-06-29 10:24:53.906250,108.58,67.1
192062,2018-06-29 10:24:53.937500,119.09,67.1
192063,2018-06-29 10:24:53.968750,125.88,67.1
192064,2018-06-29 10:24:54.000000,126.7,67.1
192065,2018-06-29 10:24:54.031250,120.66,67.1
192066,2018-06-29 10:24:54.062500,107.99,67.1
192067,2018-06-29 10:24:54.093750,88.52,67.1
192068,2018-06-29 10:24:54.125000,60.66,67.1
192069,2018-06-29 10:24:54.156250,25.18,67.1
192070,2018-06-29 10:24:54.187500,-11.7,67.1
192071,2018-06-29 10:24:54.218750,-43.05,67.1
192072,2018-06-29 10:24:54.250000,-67.11,67.1
192073,2018-06-29 10:24:54.281250,-84.9,67.1
192074,2018-06-29 10:24:54.312500,-95.85,67.1
192075,2018-06-29 10:24:54.343750,-100.61,67.1
192076,2018-06-29 10:24:54.375000,-104.63,67.1
192077,2018-06-29 10:24:54.406250,-113.55,67.1
192078,2018-06-29 10:24:54.437500,-123.16,67.1
192079,2018-06-29 10:24:54.468750,-118.24,67.1
192080,2018-06-29 10:24:54.500000,-87.46,67.1
192081,2018-06-29 10:24:54.531250,-37.83,67.05
192082,2018-06-29 10:24:54.562500,11.96,67.05
192083,2018-06-29 10:24:54.593750,49.57,67.05
192084,2018-06-29 10:24:54.625000,73.43,67.05
192085,2018-06-29 10:24:54.656250,84.37,67.05
192086,2018-06-29 10:24:54.687500,82.14,67.05
192087,2018-06-29 10:24:54.718750,68.89,67.05
192088,2018-06-29 10:24:54.750000,50.07,67.05
192089,2018-06-29 10:24:54.781250,31.11,67.05
192090,2018-06-29 10:24:54.812500,15.9,67.05
192091,2018-06-29 10:24:54.843750,6.86,67.05
192092,2018-06-29 10:24:54.875000,3.32,67.05
192093,2018-06-29 10:24:54.906250,0.75,67.05
192094,2018-06-29 10:24:54.937500,-5.0,67.05
192095,2018-06-29 10:24:54.968750,-13.12,67.05
192096,2018-06-29 10:24:55.000000,-19.56,67.05
192097,2018-06-29 10:24:55.031250,-21.4,67.05
192098,2018-06-29 10:24:55.062500,-18.16,67.05
192099,2018-06-29 10:24:55.093750,-11.36,67.05
192100,2018-06-29 10:24:55.125000,-5.06,67.05
192101,2018-06-29 10:24:55.156250,-3.9,67.05
192102,2018-06-29 10:24:55.187500,-8.49,67.05
192103,2018-06-29 10:24:55.218750,-15.55,67.05
192104,2018-06-29 10:24:55.250000,-23.15,67.05
192105,2018-06-29 10:24:55.281250,-33.15,67.05
192106,2018-06-29 10:24:55.312500,-48.23,67.05
192107,2018-06-29 10:24:55.343750,-67.17,67.05
192108,2018-06-29 10:24:55.375000,-80.86,67.05
192109,2018-06-29 10:24:55.406250,-75.98,67.05
192110,2018-06-29 10:24:55.437500,-48.86,67.05
192111,2018-06-29 10:24:55.468750,-11.74,67.05
192112,2018-06-29 10:24:55.500000,19.4,67.05
192113,2018-06-29 10:24:55.531250,38.67,66.98
192114,2018-06-29 10:24:55.562500,47.96,66.98
192115,2018-06-29 10:24:55.593750,48.7,66.98
192116,2018-06-29 10:24:55.625000,41.35,66.98
192117,2018-06-29 10:24:55.656250,28.92,66.98
192118,2018-06-29 10:24:55.687500,16.33,66.98
192119,2018-06-29 10:24:55.718750,7.33,66.98
192120,2018-06-29 10:24:55.750000,4.06,66.98
192121,2018-06-29 10:24:55.781250,7.55,66.98
192122,2018-06-29 10:24:55.812500,16.91,66.98
192123,2018-06-29 10:24:55.843750,29.68,66.98
192124,2018-06-29 10:24:55.875000,43.76,66.98
192125,2018-06-29 10:24:55.906250,57.75,66.98
192126,2018-06-29 10:24:55.937500,69.07,66.98
192127,2018-06-29 10:24:55.968750,73.59,66.98
192128,2018-06-29 10:24:56.000000,68.86,66.98
192129,2018-06-29 10:24:56.031250,57.42,66.98
192130,2018-06-29 10:24:56.062500,45.13,66.98
192131,2018-06-29 10:24:56.093750,35.45,66.98
192132,2018-06-29 10:24:56.125000,26.44,66.98
192133,2018-06-29 10:24:56.156250,14.24,66.98
192134,2018-06-29 10:24:56.187500,0.66,66.98
192135,2018-06-29 10:24:56.218750,-4.23,66.98
192136,2018-06-29 10:24:56.250000,7.23,66.98
192137,2018-06-29 10:24:56.281250,28.21,66.98
192138,2018-06-29 10:24:56.312500,43.22,66.98
192139,2018-06-29 10:24:56.343750,44.49,66.98
192140,2018-06-29 10:24:56.375000,35.36,66.98
192141,2018-06-29 10:24:56.406250,20.7,66.98
192142,2018-06-29 10:24:56.437500,2.58,66.98
192143,2018-06-29 10:24:56.468750,-15.94,66.98
192144,2018-06-29 10:24:56.500000,-29.64,66.98
192145,2018-06-29 10:24:56.531250,-36.14,66.92
192146,2018-06-29 10:24:56.562500,-38.24,66.92
192147,2018-06-29 10:24:56.593750,-39.84,66.92
192148,2018-06-29 10:24:56.625000,-42.57,66.92
192149,2018-06-29 10:24:56.656250,-47.38,66.92
192150,2018-06-29 10:24:56.687500,-55.3,66.92
192151,2018-06-29 10:24:56.718750,-64.86,66.92
192152,2018-06-29 10:24:56.750000,-72.11,66.92
192153,2018-06-29 10:24:56.781250,-74.75,66.92
192154,2018-06-29 10:24:56.812500,-74.75,66.92
192155,2018-06-29 10:24:56.843750,-75.72,66.92
192156,2018-06-29 10:24:56.875000,-78.48,66.92
192157,2018-06-29 10:24:56.906250,-80.78,66.92
192158,2018-06-29 10:24:56.937500,-81.37,66.92
192159,2018-06-29 10:24:56.968750,-82.03,66.92
192160,2018-06-29 10:24:57.000000,-85.43,66.92
192161,2018-06-29 10:24:57.031250,-93.33,66.92
192162,2018-06-29 10:24:57.062500,-104.41,66.92
192163,2018-06-29 10:24:57.093750,-109.95,66.92
192164,2018-06-29 10:24:57.125000,-97.65,66.92
192165,2018-06-29 10:24:57.156250,-64.95,66.92
192166,2018-06-29 10:24:57.187500,-22.26,66.92
192167,2018-06-29 10:24:57.218750,19.8,66.92
192168,2018-06-29 10:24:57.250000,57.84,66.92
192169,2018-06-29 10:24:57.281250,89.46,66.92
192170,2018-06-29 10:24:57.312500,110.0,66.92
192171,2018-06-29 10:24:57.343750,117.93,66.92
192172,2018-06-29 10:24:57.375000,116.39,66.92
192173,2018-06-29 10:24:57.406250,109.62,66.92
192174,2018-06-29 10:24:57.437500,100.95,66.92
192175,2018-06-29 10:24:57.468750,91.96,66.92
192176,2018-06-29 10:24:57.500000,82.05,66.92
192177,2018-06-29 10:24:57.531250,70.32,66.92
192178,2018-06-29 10:24:57.562500,57.28,66.92
192179,2018-06-29 10:24:57.593750,44.65,66.92
192180,2018-06-29 10:24:57.625000,34.8,66.92
192181,2018-06-29 10:24:57.656250,29.38,66.92
192182,2018-06-29 10:24:57.687500,25.94,66.92
192183,2018-06-29 10:24:57.718750,19.87,66.92
192184,2018-06-29 10:24:57.750000,10.89,66.92
192185,2018-06-29 10:24:57.781250,2.88,66.92
192186,2018-06-29 10:24:57.812500,-3.01,66.92
192187,2018-06-29 10:24:57.843750,-10.17,66.92
192188,2018-06-29 10:24:57.875000,-20.69,66.92
192189,2018-06-29 10:24:57.906250,-32.42,66.92
192190,2018-06-29 10:24:57.937500,-42.72,66.92
192191,2018-06-29 10:24:57.968750,-52.1,66.92
192192,2018-06-29 10:24:58.000000,-63.44,66.92
192193,2018-06-29 10:24:58.031250,-79.07,66.92
192194,2018-06-29 10:24:58.062500,-96.53,66.92
192195,2018-06-29 10:24:58.093750,-105.83,66.92
192196,2018-06-29 10:24:58.125000,-96.31,66.92
192197,2018-06-29 10:24:58.156250,-69.38,66.92
192198,2018-06-29 10:24:58.187500,-38.55,66.92
192199,2018-06-29 10:24:58.218750,-15.77,66.92
192200,2018-06-29 10:24:58.250000,-3.98,66.92
192201,2018-06-29 10:24:58.281250,-1.5,66.92
192202,2018-06-29 10:24:58.312500,-6.2,66.92
192203,2018-06-29 10:24:58.343750,-15.27,66.92
192204,2018-06-29 10:24:58.375000,-25.53,66.92
192205,2018-06-29 10:24:58.406250,-34.87,66.92
192206,2018-06-29 10:24:58.437500,-42.88,66.92
192207,2018-06-29 10:24:58.468750,-49.22,66.92
192208,2018-06-29 10:24:58.500000,-51.8,66.92
192209,2018-06-29 10:24:58.531250,-48.21,66.95
192210,2018-06-29 10:24:58.562500,-37.78,66.95
192211,2018-06-29 10:24:58.593750,-21.4,66.95
192212,2018-06-29 10:24:58.625000,-1.36,66.95
192213,2018-06-29 10:24:58.656250,18.15,66.95
192214,2018-06-29 10:24:58.687500,32.14,66.95
192215,2018-06-29 10:24:58.718750,37.88,66.95
192216,2018-06-29 10:24:58.750000,36.83,66.95
192217,2018-06-29 10:24:58.781250,33.46,66.95
192218,2018-06-29 10:24:58.812500,30.91,66.95
192219,2018-06-29 10:24:58.843750,27.96,66.95
192220,2018-06-29 10:24:58.875000,22.12,66.95
192221,2018-06-29 10:24:58.906250,14.01,66.95
192222,2018-06-29 10:24:58.937500,6.21,66.95
192223,2018-06-29 10:24:58.968750,-0.89,66.95
192224,2018-06-29 10:24:59.000000,-10.31,66.95
192225,2018-06-29 10:24:59.031250,-24.72,66.95
192226,2018-06-29 10:24:59.062500,-39.95,66.95
192227,2018-06-29 10:24:59.093750,-43.07,66.95
192228,2018-06-29 10:24:59.125000,-23.83,66.95
192229,2018-06-29 10:24:59.156250,11.68,66.95
192230,2018-06-29 10:24:59.187500,46.44,66.95
192231,2018-06-29 10:24:59.218750,70.34,66.95
192232,2018-06-29 10:24:59.250000,84.72,66.95
192233,2018-06-29 10:24:59.281250,92.95,66.95
192234,2018-06-29 10:24:59.312500,95.28,66.95
192235,2018-06-29 10:24:59.343750,91.53,66.95
192236,2018-06-29 10:24:59.375000,83.24,66.95
192237,2018-06-29 10:24:59.406250,73.38,66.95
192238,2018-06-29 10:24:59.437500,64.75,66.95
192239,2018-06-29 10:24:59.468750,58.77,66.95
192240,2018-06-29 10:24:59.500000,54.97,66.95
192241,2018-06-29 10:24:59.531250,50.79,66.93
192242,2018-06-29 10:24:59.562500,43.42,66.93
192243,2018-06-29 10:24:59.593750,32.63,66.93
192244,2018-06-29 10:24:59.625000,20.6,66.93
192245,2018-06-29 10:24:59.656250,8.77,66.93
192246,2018-06-29 10:24:59.687500,-3.44,66.93
192247,2018-06-29 10:24:59.718750,-16.17,66.93
192248,2018-06-29 10:24:59.750000,-27.89,66.93
192249,2018-06-29 10:24:59.781250,-37.71,66.93
192250,2018-06-29 10:24:59.812500,-47.25,66.93
192251,2018-06-29 10:24:59.843750,-57.82,66.93
192252,2018-06-29 10:24:59.875000,-67.73,66.93
192253,2018-06-29 10:24:59.906250,-74.99,66.93
192254,2018-06-29 10:24:59.937500,-81.65,66.93
192255,2018-06-29 10:24:59.968750,-92.62,66.93
192256,2018-06-29 10:25:00.000000,-108.19,66.93
192257,2018-06-29 10:25:00.031250,-118.5,66.93
192258,2018-06-29 10:25:00.062500,-109.91,66.93
192259,2018-06-29 10:25:00.093750,-79.82,66.93
192260,2018-06-29 10:25:00.125000,-40.29,66.93
192261,2018-06-29 10:25:00.156250,-5.66,66.93
192262,2018-06-29 10:25:00.187500,18.35,66.93
192263,2018-06-29 10:25:00.218750,32.72,66.93
192264,2018-06-29 10:25:00.250000,39.5,66.93
192265,2018-06-29 10:25:00.281250,40.74,66.93
192266,2018-06-29 10:25:00.312500,39.83,66.93
192267,2018-06-29 10:25:00.343750,40.28,66.93
192268,2018-06-29 10:25:00.375000,43.46,66.93
192269,2018-06-29 10:25:00.406250,48.86,66.93
192270,2018-06-29 10:25:00.437500,55.07,66.93
192271,2018-06-29 10:25:00.468750,59.41,66.93
192272,2018-06-29 10:25:00.500000,59.37,66.93
192273,2018-06-29 10:25:00.531250,54.85,66.87
192274,2018-06-29 10:25:00.562500,47.32,66.87
192275,2018-06-29 10:25:00.593750,38.65,66.87
192276,2018-06-29 10:25:00.625000,31.28,66.87
192277,2018-06-29 10:25:00.656250,26.9,66.87
192278,2018-06-29 10:25:00.687500,23.85,66.87
192279,2018-06-29 10:25:00.718750,18.18,66.87
192280,2018-06-29 10:25:00.750000,6.85,66.87
192281,2018-06-29 10:25:00.781250,-10.01,66.87
192282,2018-06-29 10:25:00.812500,-29.71,66.87
192283,2018-06-29 10:25:00.843750,-49.88,66.87
192284,2018-06-29 10:25:00.875000,-70.21,66.87
192285,2018-06-29 10:25:00.906250,-91.06,66.87
192286,2018-06-29 10:25:00.937500,-109.03,66.87
192287,2018-06-29 10:25:00.968750,-114.22,66.87
192288,2018-06-29 10:25:01.000000,-97.05,66.87
192289,2018-06-29 10:25:01.031250,-60.83,66.87
192290,2018-06-29 10:25:01.062500,-21.96,66.87
192291,2018-06-29 10:25:01.093750,5.1,66.87
192292,2018-06-29 10:25:01.125000,17.73,66.87
192293,2018-06-29 10:25:01.156250,19.61,66.87
192294,2018-06-29 10:25:01.187500,14.25,66.87
192295,2018-06-29 10:25:01.218750,6.32,66.87
192296,2018-06-29 10:25:01.250000,2.04,66.87
192297,2018-06-29 10:25:01.281250,4.56,66.87
192298,2018-06-29 10:25:01.312500,12.51,66.87
192299,2018-06-29 10:25:01.343750,24.33,66.87
192300,2018-06-29 10:25:01.375000,39.29,66.87
192301,2018-06-29 10:25:01.406250,53.86,66.87
192302,2018-06-29 10:25:01.437500,62.41,66.87
192303,2018-06-29 10:25:01.468750,63.6,66.87
192304,2018-06-29 10:25:01.500000,61.18,66.87
192305,2018-06-29 10:25:01.531250,57.44,66.78
192306,2018-06-29 10:25:01.562500,50.34,66.78
192307,2018-06-29 10:25:01.593750,38.12,66.78
192308,2018-06-29 10:25:01.625000,21.69,66.78
192309,2018-06-29 10:25:01.656250,2.08,66.78
192310,2018-06-29 10:25:01.687500,-20.15,66.78
192311,2018-06-29 10:25:01.718750,-42.95,66.78
192312,2018-06-29 10:25:01.750000,-60.32,66.78
192313,2018-06-29 10:25:01.781250,-62.75,66.78
192314,2018-06-29 10:25:01.812500,-45.0,66.78
192315,2018-06-29 10:25:01.843750,-14.2,66.78
192316,2018-06-29 10:25:01.875000,15.56,66.78
192317,2018-06-29 10:25:01.906250,36.34,66.78
192318,2018-06-29 10:25:01.937500,48.43,66.78
192319,2018-06-29 10:25:01.968750,52.81,66.78
192320,2018-06-29 10:25:02.000000,49.13,66.78
192321,2018-06-29 10:25:02.031250,40.51,66.78
192322,2018-06-29 10:25:02.062500,33.52,66.78
192323,2018-06-29 10:25:02.093750,31.01,66.78
192324,2018-06-29 10:25:02.125000,29.64,66.78
192325,2018-06-29 10:25:02.156250,25.85,66.78
192326,2018-06-29 10:25:02.187500,19.43,66.78
192327,2018-06-29 10:25:02.218750,11.15,66.78
192328,2018-06-29 10:25:02.250000,0.9,66.78
192329,2018-06-29 10:25:02.281250,-11.47,66.78
192330,2018-06-29 10:25:02.312500,-25.09,66.78
192331,2018-06-29 10:25:02.343750,-37.91,66.78
192332,2018-06-29 10:25:02.375000,-48.14,66.78
192333,2018-06-29 10:25:02.406250,-56.44,66.78
192334,2018-06-29 10:25:02.437500,-65.52,66.78
192335,2018-06-29 10:25:02.468750,-77.16,66.78
192336,2018-06-29 10:25:02.500000,-87.92,66.78
192337,2018-06-29 10:25:02.531250,-88.06,66.62
192338,2018-06-29 10:25:02.562500,-69.75,66.62
192339,2018-06-29 10:25:02.593750,-37.56,66.62
192340,2018-06-29 10:25:02.625000,-5.4,66.62
192341,2018-06-29 10:25:02.656250,16.57,66.62
192342,2018-06-29 10:25:02.687500,27.36,66.62
192343,2018-06-29 10:25:02.718750,30.0,66.62
192344,2018-06-29 10:25:02.750000,27.09,66.62
192345,2018-06-29 10:25:02.781250,21.1,66.62
192346,2018-06-29 10:25:02.812500,15.19,66.62
192347,2018-06-29 10:25:02.843750,11.43,66.62
192348,2018-06-29 10:25:02.875000,8.95,66.62
192349,2018-06-29 10:25:02.906250,5.58,66.62
192350,2018-06-29 10:25:02.937500,1.21,66.62
192351,2018-06-29 10:25:02.968750,-2.0,66.62
192352,2018-06-29 10:25:03.000000,-1.93,66.62
192353,2018-06-29 10:25:03.031250,1.03,66.62
192354,2018-06-29 10:25:03.062500,3.96,66.62
192355,2018-06-29 10:25:03.093750,4.26,66.62
192356,2018-06-29 10:25:03.125000,1.87,66.62
192357,2018-06-29 10:25:03.156250,-2.7,66.62
192358,2018-06-29 10:25:03.187500,-10.33,66.62
192359,2018-06-29 10:25:03.218750,-21.81,66.62
192360,2018-06-29 10:25:03.250000,-34.18,66.62
192361,2018-06-29 10:25:03.281250,-37.71,66.62
192362,2018-06-29 10:25:03.312500,-19.74,66.62
192363,2018-06-29 10:25:03.343750,23.15,66.62
192364,2018-06-29 10:25:03.375000,78.97,66.62
192365,2018-06-29 10:25:03.406250,130.51,66.62
192366,2018-06-29 10:25:03.437500,169.32,66.62
192367,2018-06-29 10:25:03.468750,196.13,66.62
192368,2018-06-29 10:25:03.500000,210.65,66.62
192369,2018-06-29 10:25:03.531250,207.73,66.48
192370,2018-06-29 10:25:03.562500,185.06,66.48
192371,2018-06-29 10:25:03.593750,149.57,66.48
192372,2018-06-29 10:25:03.625000,111.88,66.48
192373,2018-06-29 10:25:03.656250,77.82,66.48
192374,2018-06-29 10:25:03.687500,47.97,66.48
192375,2018-06-29 10:25:03.718750,20.77,66.48
192376,2018-06-29 10:25:03.750000,-6.89,66.48
192377,2018-06-29 10:25:03.781250,-39.38,66.48
192378,2018-06-29 10:25:03.812500,-78.31,66.48
192379,2018-06-29 10:25:03.843750,-118.89,66.48
192380,2018-06-29 10:25:03.875000,-153.36,66.48
192381,2018-06-29 10:25:03.906250,-177.98,66.48
192382,2018-06-29 10:25:03.937500,-192.89,66.48
192383,2018-06-29 10:25:03.968750,-197.01,66.48
192384,2018-06-29 10:25:04.000000,-189.28,66.48
192385,2018-06-29 10:25:04.031250,-174.51,66.48
192386,2018-06-29 10:25:04.062500,-162.12,66.48
192387,2018-06-29 10:25:04.093750,-157.65,66.48
192388,2018-06-29 10:25:04.125000,-156.0,66.48
192389,2018-06-29 10:25:04.156250,-143.8,66.48
192390,2018-06-29 10:25:04.187500,-111.96,66.48
192391,2018-06-29 10:25:04.218750,-66.08,66.48
192392,2018-06-29 10:25:04.250000,-20.14,66.48
192393,2018-06-29 10:25:04.281250,18.86,66.48
192394,2018-06-29 10:25:04.312500,54.22,66.48
192395,2018-06-29 10:25:04.343750,88.81,66.48
192396,2018-06-29 10:25:04.375000,116.59,66.48
192397,2018-06-29 10:25:04.406250,127.1,66.48
192398,2018-06-29 10:25:04.437500,116.92,66.48
192399,2018-06-29 10:25:04.468750,94.39,66.48
192400,2018-06-29 10:25:04.500000,71.06,66.48
192401,2018-06-29 10:25:04.531250,51.39,66.38
192402,2018-06-29 10:25:04.562500,33.57,66.38
192403,2018-06-29 10:25:04.593750,16.94,66.38
192404,2018-06-29 10:25:04.625000,4.77,66.38
192405,2018-06-29 10:25:04.656250,1.66,66.38
192406,2018-06-29 10:25:04.687500,9.25,66.38
192407,2018-06-29 10:25:04.718750,23.92,66.38
192408,2018-06-29 10:25:04.750000,39.12,66.38
192409,2018-06-29 10:25:04.781250,50.26,66.38
192410,2018-06-29 10:25:04.812500,55.77,66.38
192411,2018-06-29 10:25:04.843750,54.49,66.38
192412,2018-06-29 10:25:04.875000,45.58,66.38
192413,2018-06-29 10:25:04.906250,30.83,66.38
192414,2018-06-29 10:25:04.937500,15.75,66.38
192415,2018-06-29 10:25:04.968750,6.34,66.38
192416,2018-06-29 10:25:05.000000,3.62,66.38
192417,2018-06-29 10:25:05.031250,2.34,66.38
192418,2018-06-29 10:25:05.062500,-3.18,66.38
192419,2018-06-29 10:25:05.093750,-14.0,66.38
192420,2018-06-29 10:25:05.125000,-29.74,66.38
192421,2018-06-29 10:25:05.156250,-51.37,66.38
192422,2018-06-29 10:25:05.187500,-75.02,66.38
192423,2018-06-29 10:25:05.218750,-88.49,66.38
192424,2018-06-29 10:25:05.250000,-81.45,66.38
192425,2018-06-29 10:25:05.281250,-57.36,66.38
192426,2018-06-29 10:25:05.312500,-29.24,66.38
192427,2018-06-29 10:25:05.343750,-5.9,66.38
192428,2018-06-29 10:25:05.375000,12.53,66.38
192429,2018-06-29 10:25:05.406250,27.19,66.38
192430,2018-06-29 10:25:05.437500,35.7,66.38
192431,2018-06-29 10:25:05.468750,37.14,66.38
192432,2018-06-29 10:25:05.500000,36.12,66.38
192433,2018-06-29 10:25:05.531250,37.61,66.28
192434,2018-06-29 10:25:05.562500,41.63,66.28
192435,2018-06-29 10:25:05.593750,46.47,66.28
192436,2018-06-29 10:25:05.625000,52.13,66.28
192437,2018-06-29 10:25:05.656250,57.3,66.28
192438,2018-06-29 10:25:05.687500,57.69,66.28
192439,2018-06-29 10:25:05.718750,50.36,66.28
192440,2018-06-29 10:25:05.750000,36.53,66.28
192441,2018-06-29 10:25:05.781250,18.57,66.28
192442,2018-06-29 10:25:05.812500,-1.8,66.28
192443,2018-06-29 10:25:05.843750,-21.66,66.28
192444,2018-06-29 10:25:05.875000,-37.2,66.28
192445,2018-06-29 10:25:05.906250,-47.7,66.28
192446,2018-06-29 10:25:05.937500,-55.94,66.28
192447,2018-06-29 10:25:05.968750,-64.53,66.28
192448,2018-06-29 10:25:06.000000,-74.91,66.28
192449,2018-06-29 10:25:06.031250,-89.43,66.28
192450,2018-06-29 10:25:06.062500,-109.99,66.28
192451,2018-06-29 10:25:06.093750,-131.96,66.28
192452,2018-06-29 10:25:06.125000,-143.83,66.28
192453,2018-06-29 10:25:06.156250,-135.39,66.28
192454,2018-06-29 10:25:06.187500,-105.05,66.28
192455,2018-06-29 10:25:06.218750,-60.37,66.28
192456,2018-06-29 10:25:06.250000,-14.17,66.28
192457,2018-06-29 10:25:06.281250,22.94,66.28
192458,2018-06-29 10:25:06.312500,49.75,66.28
192459,2018-06-29 10:25:06.343750,71.47,66.28
192460,2018-06-29 10:25:06.375000,90.33,66.28
192461,2018-06-29 10:25:06.406250,105.47,66.28
192462,2018-06-29 10:25:06.437500,118.8,66.28
192463,2018-06-29 10:25:06.468750,132.78,66.28
192464,2018-06-29 10:25:06.500000,144.52,66.28
192465,2018-06-29 10:25:06.531250,147.83,66.1
192466,2018-06-29 10:25:06.562500,139.83,66.1
192467,2018-06-29 10:25:06.593750,121.64,66.1
192468,2018-06-29 10:25:06.625000,94.58,66.1
192469,2018-06-29 10:25:06.656250,59.59,66.1
192470,2018-06-29 10:25:06.687500,20.0,66.1
192471,2018-06-29 10:25:06.718750,-18.47,66.1
192472,2018-06-29 10:25:06.750000,-51.31,66.1
192473,2018-06-29 10:25:06.781250,-77.12,66.1
192474,2018-06-29 10:25:06.812500,-96.99,66.1
192475,2018-06-29 10:25:06.843750,-112.71,66.1
192476,2018-06-29 10:25:06.875000,-124.0,66.1
192477,2018-06-29 10:25:06.906250,-129.16,66.1
192478,2018-06-29 10:25:06.937500,-129.29,66.1
192479,2018-06-29 10:25:06.968750,-128.27,66.1
192480,2018-06-29 10:25:07.000000,-128.12,66.1
192481,2018-06-29 10:25:07.031250,-125.78,66.1
192482,2018-06-29 10:25:07.062500,-112.89,66.1
192483,2018-06-29 10:25:07.093750,-81.18,66.1
192484,2018-06-29 10:25:07.125000,-33.05,66.1
192485,2018-06-29 10:25:07.156250,17.78,66.1
192486,2018-06-29 10:25:07.187500,60.05,66.1
192487,2018-06-29 10:25:07.218750,92.77,66.1
192488,2018-06-29 10:25:07.250000,117.92,66.1
192489,2018-06-29 10:25:07.281250,133.63,66.1
192490,2018-06-29 10:25:07.312500,136.9,66.1
192491,2018-06-29 10:25:07.343750,127.68,66.1
192492,2018-06-29 10:25:07.375000,109.19,66.1
192493,2018-06-29 10:25:07.406250,86.86,66.1
192494,2018-06-29 10:25:07.437500,67.42,66.1
192495,2018-06-29 10:25:07.468750,56.21,66.1
192496,2018-06-29 10:25:07.500000,53.63,66.1
192497,2018-06-29 10:25:07.531250,55.14,65.9
192498,2018-06-29 10:25:07.562500,55.71,65.9
192499,2018-06-29 10:25:07.593750,52.73,65.9
192500,2018-06-29 10:25:07.625000,45.26,65.9
192501,2018-06-29 10:25:07.656250,32.65,65.9
192502,2018-06-29 10:25:07.687500,14.79,65.9
192503,2018-06-29 10:25:07.718750,-6.26,65.9
192504,2018-06-29 10:25:07.750000,-25.56,65.9
192505,2018-06-29 10:25:07.781250,-38.48,65.9
192506,2018-06-29 10:25:07.812500,-45.42,65.9
192507,2018-06-29 10:25:07.843750,-50.72,65.9
192508,2018-06-29 10:25:07.875000,-56.94,65.9
192509,2018-06-29 10:25:07.906250,-63.4,65.9
192510,2018-06-29 10:25:07.937500,-69.42,65.9
192511,2018-06-29 10:25:07.968750,-75.65,65.9
192512,2018-06-29 10:25:08.000000,-83.91,65.9
192513,2018-06-29 10:25:08.031250,-95.7,65.9
192514,2018-06-29 10:25:08.062500,-106.7,65.9
192515,2018-06-29 10:25:08.093750,-105.1,65.9
192516,2018-06-29 10:25:08.125000,-83.35,65.9
192517,2018-06-29 10:25:08.156250,-48.93,65.9
192518,2018-06-29 10:25:08.187500,-16.45,65.9
192519,2018-06-29 10:25:08.218750,7.14,65.9
192520,2018-06-29 10:25:08.250000,24.16,65.9
192521,2018-06-29 10:25:08.281250,37.6,65.9
192522,2018-06-29 10:25:08.312500,46.98,65.9
192523,2018-06-29 10:25:08.343750,51.33,65.9
192524,2018-06-29 10:25:08.375000,51.99,65.9
192525,2018-06-29 10:25:08.406250,51.56,65.9
192526,2018-06-29 10:25:08.437500,51.76,65.9
192527,2018-06-29 10:25:08.468750,52.98,65.9
192528,2018-06-29 10:25:08.500000,54.84,65.9
192529,2018-06-29 10:25:08.531250,56.08,65.68
192530,2018-06-29 10:25:08.562500,54.88,65.68
192531,2018-06-29 10:25:08.593750,51.27,65.68
192532,2018-06-29 10:25:08.625000,47.63,65.68
192533,2018-06-29 10:25:08.656250,44.32,65.68
192534,2018-06-29 10:25:08.687500,37.69,65.68
192535,2018-06-29 10:25:08.718750,24.79,65.68
192536,2018-06-29 10:25:08.750000,7.24,65.68
192537,2018-06-29 10:25:08.781250,-11.25,65.68
192538,2018-06-29 10:25:08.812500,-28.07,65.68
192539,2018-06-29 10:25:08.843750,-42.07,65.68
192540,2018-06-29 10:25:08.875000,-53.42,65.68
192541,2018-06-29 10:25:08.906250,-62.92,65.68
192542,2018-06-29 10:25:08.937500,-70.7,65.68
192543,2018-06-29 10:25:08.968750,-76.59,65.68
192544,2018-06-29 10:25:09.000000,-81.26,65.68
192545,2018-06-29 10:25:09.031250,-86.05,65.68
192546,2018-06-29 10:25:09.062500,-92.63,65.68
192547,2018-06-29 10:25:09.093750,-102.38,65.68
192548,2018-06-29 10:25:09.125000,-112.57,65.68
192549,2018-06-29 10:25:09.156250,-115.05,65.68
192550,2018-06-29 10:25:09.187500,-104.17,65.68
192551,2018-06-29 10:25:09.218750,-82.49,65.68
192552,2018-06-29 10:25:09.250000,-56.06,65.68
192553,2018-06-29 10:25:09.281250,-30.05,65.68
192554,2018-06-29 10:25:09.312500,-8.11,65.68
192555,2018-06-29 10:25:09.343750,10.86,65.68
192556,2018-06-29 10:25:09.375000,31.52,65.68
192557,2018-06-29 10:25:09.406250,52.97,65.68
192558,2018-06-29 10:25:09.437500,68.05,65.68
192559,2018-06-29 10:25:09.468750,72.95,65.68
192560,2018-06-29 10:25:09.500000,71.44,65.68
192561,2018-06-29 10:25:09.531250,70.94,65.52
192562,2018-06-29 10:25:09.562500,78.01,65.52
192563,2018-06-29 10:25:09.593750,94.01,65.52
192564,2018-06-29 10:25:09.625000,112.35,65.52
192565,2018-06-29 10:25:09.656250,123.27,65.52
192566,2018-06-29 10:25:09.687500,123.53,65.52
192567,2018-06-29 10:25:09.718750,118.03,65.52
192568,2018-06-29 10:25:09.750000,109.6,65.52
192569,2018-06-29 10:25:09.781250,92.92,65.52
192570,2018-06-29 10:25:09.812500,63.34,65.52
192571,2018-06-29 10:25:09.843750,26.03,65.52
192572,2018-06-29 10:25:09.875000,-8.82,65.52
192573,2018-06-29 10:25:09.906250,-36.15,65.52
192574,2018-06-29 10:25:09.937500,-57.69,65.52
192575,2018-06-29 10:25:09.968750,-76.39,65.52
192576,2018-06-29 10:25:10.000000,-91.12,65.52
192577,2018-06-29 10:25:10.031250,-96.4,65.52
192578,2018-06-29 10:25:10.062500,-89.52,65.52
192579,2018-06-29 10:25:10.093750,-78.33,65.52
192580,2018-06-29 10:25:10.125000,-75.9,65.52
192581,2018-06-29 10:25:10.156250,-83.04,65.52
192582,2018-06-29 10:25:10.187500,-82.83,65.52
192583,2018-06-29 10:25:10.218750,-59.69,65.52
192584,2018-06-29 10:25:10.250000,-17.42,65.52
192585,2018-06-29 10:25:10.281250,28.05,65.52
192586,2018-06-29 10:25:10.312500,65.07,65.52
192587,2018-06-29 10:25:10.343750,89.95,65.52
192588,2018-06-29 10:25:10.375000,103.4,65.52
192589,2018-06-29 10:25:10.406250,107.13,65.52
192590,2018-06-29 10:25:10.437500,100.63,65.52
192591,2018-06-29 10:25:10.468750,83.98,65.52
192592,2018-06-29 10:25:10.500000,63.98,65.52
192593,2018-06-29 10:25:10.531250,51.09,65.28
192594,2018-06-29 10:25:10.562500,51.28,65.28
192595,2018-06-29 10:25:10.593750,63.93,65.28
192596,2018-06-29 10:25:10.625000,84.12,65.28
192597,2018-06-29 10:25:10.656250,104.69,65.28
192598,2018-06-29 10:25:10.687500,116.82,65.28
192599,2018-06-29 10:25:10.718750,109.36,65.28
192600,2018-06-29 10:25:10.750000,72.37,65.28
192601,2018-06-29 10:25:10.781250,5.24,65.28
192602,2018-06-29 10:25:10.812500,-81.41,65.28
192603,2018-06-29 10:25:10.843750,-170.53,65.28
192604,2018-06-29 10:25:10.875000,-242.43,65.28
192605,2018-06-29 10:25:10.906250,-280.59,65.28
192606,2018-06-29 10:25:10.937500,-279.99,65.28
192607,2018-06-29 10:25:10.968750,-247.83,65.28
192608,2018-06-29 10:25:11.000000,-196.48,65.28
192609,2018-06-29 10:25:11.031250,-139.02,65.28
192610,2018-06-29 10:25:11.062500,-87.35,65.28
192611,2018-06-29 10:25:11.093750,-48.12,65.28
192612,2018-06-29 10:25:11.125000,-20.27,65.28
192613,2018-06-29 10:25:11.156250,2.02,65.28
192614,2018-06-29 10:25:11.187500,24.06,65.28
192615,2018-06-29 10:25:11.218750,47.1,65.28
192616,2018-06-29 10:25:11.250000,68.01,65.28
192617,2018-06-29 10:25:11.281250,82.61,65.28
192618,2018-06-29 10:25:11.312500,90.44,65.28
192619,2018-06-29 10:25:11.343750,94.45,65.28
192620,2018-06-29 10:25:11.375000,95.43,65.28
192621,2018-06-29 10:25:11.406250,90.82,65.28
192622,2018-06-29 10:25:11.437500,80.13,65.28
192623,2018-06-29 10:25:11.468750,66.76,65.28
192624,2018-06-29 10:25:11.500000,53.66,65.28
192625,2018-06-29 10:25:11.531250,41.59,65.05
192626,2018-06-29 10:25:11.562500,31.85,65.05
192627,2018-06-29 10:25:11.593750,24.99,65.05
192628,2018-06-29 10:25:11.625000,17.06,65.05
192629,2018-06-29 10:25:11.656250,3.81,65.05
192630,2018-06-29 10:25:11.687500,-12.31,65.05
192631,2018-06-29 10:25:11.718750,-24.06,65.05
192632,2018-06-29 10:25:11.750000,-26.02,65.05
192633,2018-06-29 10:25:11.781250,-17.09,65.05
192634,2018-06-29 10:25:11.812500,-0.91,65.05
192635,2018-06-29 10:25:11.843750,16.58,65.05
192636,2018-06-29 10:25:11.875000,33.27,65.05
192637,2018-06-29 10:25:11.906250,50.1,65.05
192638,2018-06-29 10:25:11.937500,63.64,65.05
192639,2018-06-29 10:25:11.968750,67.03,65.05
192640,2018-06-29 10:25:12.000000,59.23,65.05
192641,2018-06-29 10:25:12.031250,47.5,65.05
192642,2018-06-29 10:25:12.062500,40.94,65.05
192643,2018-06-29 10:25:12.093750,43.61,65.05
192644,2018-06-29 10:25:12.125000,52.77,65.05
192645,2018-06-29 10:25:12.156250,62.43,65.05
192646,2018-06-29 10:25:12.187500,68.22,65.05
192647,2018-06-29 10:25:12.218750,69.39,65.05
192648,2018-06-29 10:25:12.250000,66.52,65.05
192649,2018-06-29 10:25:12.281250,59.48,65.05
192650,2018-06-29 10:25:12.312500,49.08,65.05
192651,2018-06-29 10:25:12.343750,38.93,65.05
192652,2018-06-29 10:25:12.375000,32.62,65.05
192653,2018-06-29 10:25:12.406250,29.39,65.05
192654,2018-06-29 10:25:12.437500,25.58,65.05
192655,2018-06-29 10:25:12.468750,18.6,65.05
192656,2018-06-29 10:25:12.500000,6.74,65.05
192657,2018-06-29 10:25:12.531250,-11.83,64.83
192658,2018-06-29 10:25:12.562500,-36.54,64.83
192659,2018-06-29 10:25:12.593750,-63.69,64.83
192660,2018-06-29 10:25:12.625000,-89.87,64.83
192661,2018-06-29 10:25:12.656250,-112.86,64.83
192662,2018-06-29 10:25:12.687500,-130.0,64.83
192663,2018-06-29 10:25:12.718750,-139.38,64.83
192664,2018-06-29 10:25:12.750000,-142.36,64.83
192665,2018-06-29 10:25:12.781250,-141.53,64.83
192666,2018-06-29 10:25:12.812500,-135.46,64.83
192667,2018-06-29 10:25:12.843750,-119.4,64.83
192668,2018-06-29 10:25:12.875000,-93.17,64.83
192669,2018-06-29 10:25:12.906250,-64.22,64.83
192670,2018-06-29 10:25:12.937500,-39.03,64.83
192671,2018-06-29 10:25:12.968750,-16.87,64.83
192672,2018-06-29 10:25:13.000000,3.86,64.83
192673,2018-06-29 10:25:13.031250,20.93,64.83
192674,2018-06-29 10:25:13.062500,34.42,64.83
192675,2018-06-29 10:25:13.093750,51.02,64.83
192676,2018-06-29 10:25:13.125000,75.64,64.83
192677,2018-06-29 10:25:13.156250,101.49,64.83
192678,2018-06-29 10:25:13.187500,115.37,64.83
192679,2018-06-29 10:25:13.218750,113.46,64.83
192680,2018-06-29 10:25:13.250000,104.26,64.83
192681,2018-06-29 10:25:13.281250,95.46,64.83
192682,2018-06-29 10:25:13.312500,85.58,64.83
192683,2018-06-29 10:25:13.343750,69.6,64.83
192684,2018-06-29 10:25:13.375000,47.3,64.83
192685,2018-06-29 10:25:13.406250,24.72,64.83
192686,2018-06-29 10:25:13.437500,7.19,64.83
192687,2018-06-29 10:25:13.468750,-7.62,64.83
192688,2018-06-29 10:25:13.500000,-27.09,64.83
192689,2018-06-29 10:25:13.531250,-55.1,64.67
192690,2018-06-29 10:25:13.562500,-86.63,64.67
192691,2018-06-29 10:25:13.593750,-109.08,64.67
192692,2018-06-29 10:25:13.625000,-114.74,64.67
192693,2018-06-29 10:25:13.656250,-112.91,64.67
192694,2018-06-29 10:25:13.687500,-119.55,64.67
192695,2018-06-29 10:25:13.718750,-136.27,64.67
192696,2018-06-29 10:25:13.750000,-150.83,64.67
192697,2018-06-29 10:25:13.781250,-153.31,64.67
192698,2018-06-29 10:25:13.812500,-143.14,64.67
192699,2018-06-29 10:25:13.843750,-124.89,64.67
192700,2018-06-29 10:25:13.875000,-102.98,64.67
192701,2018-06-29 10:25:13.906250,-79.04,64.67
192702,2018-06-29 10:25:13.937500,-54.52,64.67
192703,2018-06-29 10:25:13.968750,-33.28,64.67
192704,2018-06-29 10:25:14.000000,-19.38,64.67
192705,2018-06-29 10:25:14.031250,-13.81,64.67
192706,2018-06-29 10:25:14.062500,-14.36,64.67
192707,2018-06-29 10:25:14.093750,-17.8,64.67
192708,2018-06-29 10:25:14.125000,-22.86,64.67
192709,2018-06-29 10:25:14.156250,-30.78,64.67
192710,2018-06-29 10:25:14.187500,-41.76,64.67
192711,2018-06-29 10:25:14.218750,-52.73,64.67
192712,2018-06-29 10:25:14.250000,-60.06,64.67
192713,2018-06-29 10:25:14.281250,-64.94,64.67
192714,2018-06-29 10:25:14.312500,-73.97,64.67
192715,2018-06-29 10:25:14.343750,-90.48,64.67
192716,2018-06-29 10:25:14.375000,-105.96,64.67
192717,2018-06-29 10:25:14.406250,-106.19,64.67
192718,2018-06-29 10:25:14.437500,-85.79,64.67
192719,2018-06-29 10:25:14.468750,-51.92,64.67
192720,2018-06-29 10:25:14.500000,-14.92,64.67
192721,2018-06-29 10:25:14.531250,19.38,64.58
192722,2018-06-29 10:25:14.562500,49.43,64.58
192723,2018-06-29 10:25:14.593750,74.36,64.58
192724,2018-06-29 10:25:14.625000,92.6,64.58
192725,2018-06-29 10:25:14.656250,103.87,64.58
192726,2018-06-29 10:25:14.687500,110.38,64.58
192727,2018-06-29 10:25:14.718750,114.94,64.58
192728,2018-06-29 10:25:14.750000,119.45,64.58
192729,2018-06-29 10:25:14.781250,124.77,64.58
192730,2018-06-29 10:25:14.812500,128.8,64.58
192731,2018-06-29 10:25:14.843750,127.58,64.58
192732,2018-06-29 10:25:14.875000,121.87,64.58
192733,2018-06-29 10:25:14.906250,117.47,64.58
192734,2018-06-29 10:25:14.937500,117.53,64.58
192735,2018-06-29 10:25:14.968750,119.57,64.58
192736,2018-06-29 10:25:15.000000,120.32,64.58
192737,2018-06-29 10:25:15.031250,118.12,64.58
192738,2018-06-29 10:25:15.062500,111.36,64.58
192739,2018-06-29 10:25:15.093750,99.74,64.58
192740,2018-06-29 10:25:15.125000,85.61,64.58
192741,2018-06-29 10:25:15.156250,70.81,64.58
192742,2018-06-29 10:25:15.187500,53.85,64.58
192743,2018-06-29 10:25:15.218750,32.32,64.58
192744,2018-06-29 10:25:15.250000,5.87,64.58
192745,2018-06-29 10:25:15.281250,-24.6,64.58
192746,2018-06-29 10:25:15.312500,-54.5,64.58
192747,2018-06-29 10:25:15.343750,-71.8,64.58
192748,2018-06-29 10:25:15.375000,-67.03,64.58
192749,2018-06-29 10:25:15.406250,-49.11,64.58
192750,2018-06-29 10:25:15.437500,-38.82,64.58
192751,2018-06-29 10:25:15.468750,-45.46,64.58
192752,2018-06-29 10:25:15.500000,-61.84,64.58
192753,2018-06-29 10:25:15.531250,-78.77,64.43
192754,2018-06-29 10:25:15.562500,-91.2,64.43
192755,2018-06-29 10:25:15.593750,-93.22,64.43
192756,2018-06-29 10:25:15.625000,-80.13,64.43
192757,2018-06-29 10:25:15.656250,-55.02,64.43
192758,2018-06-29 10:25:15.687500,-26.17,64.43
192759,2018-06-29 10:25:15.718750,0.55,64.43
192760,2018-06-29 10:25:15.750000,23.5,64.43
192761,2018-06-29 10:25:15.781250,42.07,64.43
192762,2018-06-29 10:25:15.812500,54.89,64.43
192763,2018-06-29 10:25:15.843750,60.87,64.43
192764,2018-06-29 10:25:15.875000,60.61,64.43
192765,2018-06-29 10:25:15.906250,55.26,64.43
192766,2018-06-29 10:25:15.937500,44.79,64.43
192767,2018-06-29 10:25:15.968750,29.89,64.43
192768,2018-06-29 10:25:16.000000,13.57,64.43
192769,2018-06-29 10:25:16.031250,-0.98,64.43
192770,2018-06-29 10:25:16.062500,-12.94,64.43
192771,2018-06-29 10:25:16.093750,-23.35,64.43
192772,2018-06-29 10:25:16.125000,-32.9,64.43
192773,2018-06-29 10:25:16.156250,-41.45,64.43
192774,2018-06-29 10:25:16.187500,-47.33,64.43
192775,2018-06-29 10:25:16.218750,-44.89,64.43
192776,2018-06-29 10:25:16.250000,-26.3,64.43
192777,2018-06-29 10:25:16.281250,9.1,64.43
192778,2018-06-29 10:25:16.312500,50.54,64.43
192779,2018-06-29 10:25:16.343750,85.23,64.43
192780,2018-06-29 10:25:16.375000,108.66,64.43
192781,2018-06-29 10:25:16.406250,123.72,64.43
192782,2018-06-29 10:25:16.437500,134.37,64.43
192783,2018-06-29 10:25:16.468750,143.32,64.43
192784,2018-06-29 10:25:16.500000,151.8,64.43
192785,2018-06-29 10:25:16.531250,158.26,64.2
192786,2018-06-29 10:25:16.562500,159.58,64.2
192787,2018-06-29 10:25:16.593750,155.22,64.2
192788,2018-06-29 10:25:16.625000,146.81,64.2
192789,2018-06-29 10:25:16.656250,132.39,64.2
192790,2018-06-29 10:25:16.687500,107.27,64.2
192791,2018-06-29 10:25:16.718750,73.89,64.2
192792,2018-06-29 10:25:16.750000,45.56,64.2
192793,2018-06-29 10:25:16.781250,32.91,64.2
192794,2018-06-29 10:25:16.812500,28.29,64.2
192795,2018-06-29 10:25:16.843750,13.05,64.2
192796,2018-06-29 10:25:16.875000,-20.24,64.2
192797,2018-06-29 10:25:16.906250,-60.68,64.2
192798,2018-06-29 10:25:16.937500,-91.25,64.2
192799,2018-06-29 10:25:16.968750,-103.63,64.2
192800,2018-06-29 10:25:17.000000,-105.55,64.2
192801,2018-06-29 10:25:17.031250,-113.57,64.2
192802,2018-06-29 10:25:17.062500,-136.17,64.2
192803,2018-06-29 10:25:17.093750,-167.56,64.2
192804,2018-06-29 10:25:17.125000,-194.5,64.2
192805,2018-06-29 10:25:17.156250,-201.94,64.2
192806,2018-06-29 10:25:17.187500,-181.08,64.2
192807,2018-06-29 10:25:17.218750,-138.78,64.2
192808,2018-06-29 10:25:17.250000,-91.39,64.2
192809,2018-06-29 10:25:17.281250,-49.03,64.2
192810,2018-06-29 10:25:17.312500,-12.99,64.2
192811,2018-06-29 10:25:17.343750,16.43,64.2
192812,2018-06-29 10:25:17.375000,37.55,64.2
192813,2018-06-29 10:25:17.406250,51.06,64.2
192814,2018-06-29 10:25:17.437500,60.45,64.2
192815,2018-06-29 10:25:17.468750,67.27,64.2
192816,2018-06-29 10:25:17.500000,69.68,64.2
192817,2018-06-29 10:25:17.531250,66.4,63.98
192818,2018-06-29 10:25:17.562500,58.78,63.98
192819,2018-06-29 10:25:17.593750,48.43,63.98
192820,2018-06-29 10:25:17.625000,36.65,63.98
192821,2018-06-29 10:25:17.656250,24.4,63.98
192822,2018-06-29 10:25:17.687500,10.98,63.98
192823,2018-06-29 10:25:17.718750,-5.39,63.98
192824,2018-06-29 10:25:17.750000,-24.69,63.98
192825,2018-06-29 10:25:17.781250,-44.37,63.98
192826,2018-06-29 10:25:17.812500,-60.05,63.98
192827,2018-06-29 10:25:17.843750,-67.11,63.98
192828,2018-06-29 10:25:17.875000,-64.3,63.98
192829,2018-06-29 10:25:17.906250,-55.6,63.98
192830,2018-06-29 10:25:17.937500,-47.24,63.98
192831,2018-06-29 10:25:17.968750,-43.84,63.98
192832,2018-06-29 10:25:18.000000,-46.03,63.98
192833,2018-06-29 10:25:18.031250,-46.85,63.98
192834,2018-06-29 10:25:18.062500,-33.96,63.98
192835,2018-06-29 10:25:18.093750,-2.93,63.98
192836,2018-06-29 10:25:18.125000,35.15,63.98
192837,2018-06-29 10:25:18.156250,65.4,63.98
192838,2018-06-29 10:25:18.187500,83.5,63.98
192839,2018-06-29 10:25:18.218750,93.61,63.98
192840,2018-06-29 10:25:18.250000,98.69,63.98
192841,2018-06-29 10:25:18.281250,98.32,63.98
192842,2018-06-29 10:25:18.312500,92.32,63.98
192843,2018-06-29 10:25:18.343750,82.05,63.98
192844,2018-06-29 10:25:18.375000,68.91,63.98
192845,2018-06-29 10:25:18.406250,52.76,63.98
192846,2018-06-29 10:25:18.437500,32.01,63.98
192847,2018-06-29 10:25:18.468750,5.59,63.98
192848,2018-06-29 10:25:18.500000,-23.99,63.98
192849,2018-06-29 10:25:18.531250,-50.97,64.02
192850,2018-06-29 10:25:18.562500,-70.55,64.02
192851,2018-06-29 10:25:18.593750,-80.56,64.02
192852,2018-06-29 10:25:18.625000,-79.87,64.02
192853,2018-06-29 10:25:18.656250,-69.21,64.02
192854,2018-06-29 10:25:18.687500,-53.61,64.02
192855,2018-06-29 10:25:18.718750,-39.79,64.02
192856,2018-06-29 10:25:18.750000,-31.45,64.02
192857,2018-06-29 10:25:18.781250,-29.13,64.02
192858,2018-06-29 10:25:18.812500,-32.52,64.02
192859,2018-06-29 10:25:18.843750,-40.27,64.02
192860,2018-06-29 10:25:18.875000,-49.46,64.02
192861,2018-06-29 10:25:18.906250,-57.2,64.02
192862,2018-06-29 10:25:18.937500,-60.22,64.02
192863,2018-06-29 10:25:18.968750,-53.41,64.02
192864,2018-06-29 10:25:19.000000,-34.65,64.02
192865,2018-06-29 10:25:19.031250,-10.98,64.02
192866,2018-06-29 10:25:19.062500,5.84,64.02
192867,2018-06-29 10:25:19.093750,10.1,64.02
192868,2018-06-29 10:25:19.125000,3.91,64.02
192869,2018-06-29 10:25:19.156250,-8.83,64.02
192870,2018-06-29 10:25:19.187500,-23.47,64.02
192871,2018-06-29 10:25:19.218750,-32.3,64.02
192872,2018-06-29 10:25:19.250000,-29.41,64.02
192873,2018-06-29 10:25:19.281250,-17.37,64.02
192874,2018-06-29 10:25:19.312500,-3.31,64.02
192875,2018-06-29 10:25:19.343750,8.97,64.02
192876,2018-06-29 10:25:19.375000,18.27,64.02
192877,2018-06-29 10:25:19.406250,22.11,64.02
192878,2018-06-29 10:25:19.437500,18.96,64.02
192879,2018-06-29 10:25:19.468750,10.52,64.02
192880,2018-06-29 10:25:19.500000,-1.26,64.02
192881,2018-06-29 10:25:19.531250,-15.56,64.08
192882,2018-06-29 10:25:19.562500,-30.61,64.08
192883,2018-06-29 10:25:19.593750,-44.05,64.08
192884,2018-06-29 10:25:19.625000,-55.44,64.08
192885,2018-06-29 10:25:19.656250,-66.57,64.08
192886,2018-06-29 10:25:19.687500,-79.49,64.08
192887,2018-06-29 10:25:19.718750,-94.42,64.08
192888,2018-06-29 10:25:19.750000,-107.05,64.08
192889,2018-06-29 10:25:19.781250,-107.52,64.08
192890,2018-06-29 10:25:19.812500,-86.96,64.08
192891,2018-06-29 10:25:19.843750,-47.19,64.08
192892,2018-06-29 10:25:19.875000,-0.29,64.08
192893,2018-06-29 10:25:19.906250,42.07,64.08
192894,2018-06-29 10:25:19.937500,74.74,64.08
192895,2018-06-29 10:25:19.968750,95.88,64.08
192896,2018-06-29 10:25:20.000000,104.8,64.08
192897,2018-06-29 10:25:20.031250,104.27,64.08
192898,2018-06-29 10:25:20.062500,100.19,64.08
192899,2018-06-29 10:25:20.093750,97.1,64.08
192900,2018-06-29 10:25:20.125000,95.5,64.08
192901,2018-06-29 10:25:20.156250,93.5,64.08
192902,2018-06-29 10:25:20.187500,88.67,64.08
192903,2018-06-29 10:25:20.218750,79.13,64.08
192904,2018-06-29 10:25:20.250000,64.9,64.08
192905,2018-06-29 10:25:20.281250,48.25,64.08
192906,2018-06-29 10:25:20.312500,31.77,64.08
192907,2018-06-29 10:25:20.343750,16.43,64.08
192908,2018-06-29 10:25:20.375000,1.78,64.08
192909,2018-06-29 10:25:20.406250,-12.13,64.08
192910,2018-06-29 10:25:20.437500,-24.03,64.08
192911,2018-06-29 10:25:20.468750,-33.48,64.08
192912,2018-06-29 10:25:20.500000,-42.96,64.08
192913,2018-06-29 10:25:20.531250,-55.67,64.18
192914,2018-06-29 10:25:20.562500,-69.97,64.18
192915,2018-06-29 10:25:20.593750,-77.08,64.18
192916,2018-06-29 10:25:20.625000,-67.47,64.18
192917,2018-06-29 10:25:20.656250,-41.09,64.18
192918,2018-06-29 10:25:20.687500,-8.1,64.18
192919,2018-06-29 10:25:20.718750,21.84,64.18
192920,2018-06-29 10:25:20.750000,46.4,64.18
192921,2018-06-29 10:25:20.781250,65.51,64.18
192922,2018-06-29 10:25:20.812500,76.37,64.18
192923,2018-06-29 10:25:20.843750,77.61,64.18
192924,2018-06-29 10:25:20.875000,73.32,64.18
192925,2018-06-29 10:25:20.906250,68.18,64.18
192926,2018-06-29 10:25:20.937500,62.61,64.18
192927,2018-06-29 10:25:20.968750,55.19,64.18
192928,2018-06-29 10:25:21.000000,44.58,64.18
192929,2018-06-29 10:25:21.031250,27.93,64.18
192930,2018-06-29 10:25:21.062500,3.43,64.18
192931,2018-06-29 10:25:21.093750,-24.52,64.18
192932,2018-06-29 10:25:21.125000,-47.37,64.18
192933,2018-06-29 10:25:21.156250,-59.2,64.18
192934,2018-06-29 10:25:21.187500,-59.24,64.18
192935,2018-06-29 10:25:21.218750,-51.14,64.18
192936,2018-06-29 10:25:21.250000,-41.53,64.18
192937,2018-06-29 10:25:21.281250,-35.79,64.18
192938,2018-06-29 10:25:21.312500,-34.77,64.18
192939,2018-06-29 10:25:21.343750,-37.08,64.18
192940,2018-06-29 10:25:21.375000,-41.88,64.18
192941,2018-06-29 10:25:21.406250,-48.0,64.18
192942,2018-06-29 10:25:21.437500,-54.99,64.18
192943,2018-06-29 10:25:21.468750,-65.61,64.18
192944,2018-06-29 10:25:21.500000,-82.97,64.18
192945,2018-06-29 10:25:21.531250,-102.81,64.32
192946,2018-06-29 10:25:21.562500,-112.71,64.32
192947,2018-06-29 10:25:21.593750,-103.02,64.32
192948,2018-06-29 10:25:21.625000,-77.4,64.32
192949,2018-06-29 10:25:21.656250,-48.79,64.32
192950,2018-06-29 10:25:21.687500,-26.01,64.32
192951,2018-06-29 10:25:21.718750,-9.4,64.32
192952,2018-06-29 10:25:21.750000,3.43,64.32
192953,2018-06-29 10:25:21.781250,12.15,64.32
192954,2018-06-29 10:25:21.812500,15.77,64.32
192955,2018-06-29 10:25:21.843750,16.25,64.32
192956,2018-06-29 10:25:21.875000,17.7,64.32
192957,2018-06-29 10:25:21.906250,21.45,64.32
192958,2018-06-29 10:25:21.937500,26.3,64.32
192959,2018-06-29 10:25:21.968750,34.13,64.32
192960,2018-06-29 10:25:22.000000,46.92,64.32
192961,2018-06-29 10:25:22.031250,63.61,64.32
192962,2018-06-29 10:25:22.062500,79.42,64.32
192963,2018-06-29 10:25:22.093750,91.25,64.32
192964,2018-06-29 10:25:22.125000,93.26,64.32
192965,2018-06-29 10:25:22.156250,80.34,64.32
192966,2018-06-29 10:25:22.187500,58.36,64.32
192967,2018-06-29 10:25:22.218750,38.77,64.32
192968,2018-06-29 10:25:22.250000,24.2,64.32
192969,2018-06-29 10:25:22.281250,2.5,64.32
192970,2018-06-29 10:25:22.312500,-24.34,64.32
192971,2018-06-29 10:25:22.343750,-38.56,64.32
192972,2018-06-29 10:25:22.375000,-22.57,64.32
192973,2018-06-29 10:25:22.406250,19.45,64.32
192974,2018-06-29 10:25:22.437500,69.19,64.32
192975,2018-06-29 10:25:22.468750,104.44,64.32
192976,2018-06-29 10:25:22.500000,78.93,64.32
192977,2018-06-29 10:25:22.531250,8.56,64.45
192978,2018-06-29 10:25:22.562500,-63.33,64.45
192979,2018-06-29 10:25:22.593750,-126.58,64.45
192980,2018-06-29 10:25:22.625000,-165.9,64.45
192981,2018-06-29 10:25:22.656250,-171.18,64.45
192982,2018-06-29 10:25:22.687500,-147.38,64.45
192983,2018-06-29 10:25:22.718750,-104.21,64.45
192984,2018-06-29 10:25:22.750000,-47.5,64.45
192985,2018-06-29 10:25:22.781250,13.87,64.45
192986,2018-06-29 10:25:22.812500,71.45,64.45
192987,2018-06-29 10:25:22.843750,114.85,64.45
192988,2018-06-29 10:25:22.875000,142.75,64.45
192989,2018-06-29 10:25:22.906250,157.28,64.45
192990,2018-06-29 10:25:22.937500,161.55,64.45
192991,2018-06-29 10:25:22.968750,156.46,64.45
192992,2018-06-29 10:25:23.000000,143.24,64.45
192993,2018-06-29 10:25:23.031250,126.22,64.45
192994,2018-06-29 10:25:23.062500,106.51,64.45
192995,2018-06-29 10:25:23.093750,80.26,64.45
192996,2018-06-29 10:25:23.125000,41.03,64.45
192997,2018-06-29 10:25:23.156250,-10.93,64.45
192998,2018-06-29 10:25:23.187500,-71.01,64.45
192999,2018-06-29 10:25:23.218750,-135.62,64.45
193000,2018-06-29 10:25:23.250000,-199.49,64.45
193001,2018-06-29 10:25:23.281250,-251.73,64.45
193002,2018-06-29 10:25:23.312500,-283.52,64.45
193003,2018-06-29 10:25:23.343750,-294.89,64.45
193004,2018-06-29 10:25:23.375000,-288.57,64.45
193005,2018-06-29 10:25:23.406250,-264.32,64.45
193006,2018-06-29 10:25:23.437500,-220.27,64.45
193007,2018-06-29 10:25:23.468750,-155.99,64.45
193008,2018-06-29 10:25:23.500000,-79.67,64.45
193009,2018-06-29 10:25:23.531250,-10.56,64.53
193010,2018-06-29 10:25:23.562500,36.21,64.53
193011,2018-06-29 10:25:23.593750,61.75,64.53
193012,2018-06-29 10:25:23.625000,73.02,64.53
193013,2018-06-29 10:25:23.656250,73.77,64.53
193014,2018-06-29 10:25:23.687500,70.9,64.53
193015,2018-06-29 10:25:23.718750,75.39,64.53
193016,2018-06-29 10:25:23.750000,91.93,64.53
193017,2018-06-29 10:25:23.781250,118.23,64.53
193018,2018-06-29 10:25:23.812500,151.81,64.53
193019,2018-06-29 10:25:23.843750,186.45,64.53
193020,2018-06-29 10:25:23.875000,207.43,64.53
193021,2018-06-29 10:25:23.906250,201.71,64.53
193022,2018-06-29 10:25:23.937500,171.14,64.53
193023,2018-06-29 10:25:23.968750,128.57,64.53
193024,2018-06-29 10:25:24.000000,86.22,64.53
193025,2018-06-29 10:25:24.031250,53.95,64.53
193026,2018-06-29 10:25:24.062500,37.55,64.53
193027,2018-06-29 10:25:24.093750,29.85,64.53
193028,2018-06-29 10:25:24.125000,17.52,64.53
193029,2018-06-29 10:25:24.156250,3.31,64.53
193030,2018-06-29 10:25:24.187500,4.2,64.53
193031,2018-06-29 10:25:24.218750,21.97,64.53
193032,2018-06-29 10:25:24.250000,35.16,64.53
193033,2018-06-29 10:25:24.281250,26.22,64.53
193034,2018-06-29 10:25:24.312500,-0.18,64.53
193035,2018-06-29 10:25:24.343750,-28.29,64.53
193036,2018-06-29 10:25:24.375000,-46.16,64.53
193037,2018-06-29 10:25:24.406250,-48.54,64.53
193038,2018-06-29 10:25:24.437500,-36.29,64.53
193039,2018-06-29 10:25:24.468750,-16.7,64.53
193040,2018-06-29 10:25:24.500000,2.29,64.53
193041,2018-06-29 10:25:24.531250,18.06,64.6
193042,2018-06-29 10:25:24.562500,31.25,64.6
193043,2018-06-29 10:25:24.593750,42.07,64.6
193044,2018-06-29 10:25:24.625000,51.16,64.6
193045,2018-06-29 10:25:24.656250,59.85,64.6
193046,2018-06-29 10:25:24.687500,68.1,64.6
193047,2018-06-29 10:25:24.718750,75.36,64.6
193048,2018-06-29 10:25:24.750000,82.4,64.6
193049,2018-06-29 10:25:24.781250,89.32,64.6
193050,2018-06-29 10:25:24.812500,93.97,64.6
193051,2018-06-29 10:25:24.843750,94.77,64.6
193052,2018-06-29 10:25:24.875000,92.34,64.6
193053,2018-06-29 10:25:24.906250,88.01,64.6
193054,2018-06-29 10:25:24.937500,82.85,64.6
193055,2018-06-29 10:25:24.968750,77.71,64.6
193056,2018-06-29 10:25:25.000000,71.35,64.6
193057,2018-06-29 10:25:25.031250,59.69,64.6
193058,2018-06-29 10:25:25.062500,37.95,64.6
193059,2018-06-29 10:25:25.093750,4.94,64.6
193060,2018-06-29 10:25:25.125000,-33.85,64.6
193061,2018-06-29 10:25:25.156250,-70.75,64.6
193062,2018-06-29 10:25:25.187500,-99.56,64.6
193063,2018-06-29 10:25:25.218750,-108.77,64.6
193064,2018-06-29 10:25:25.250000,-83.99,64.6
193065,2018-06-29 10:25:25.281250,-29.19,64.6
193066,2018-06-29 10:25:25.312500,29.74,64.6
193067,2018-06-29 10:25:25.343750,73.71,64.6
193068,2018-06-29 10:25:25.375000,104.66,64.6
193069,2018-06-29 10:25:25.406250,125.5,64.6
193070,2018-06-29 10:25:25.437500,126.14,64.6
193071,2018-06-29 10:25:25.468750,95.38,64.6
193072,2018-06-29 10:25:25.500000,34.17,64.6
193073,2018-06-29 10:25:25.531250,-42.13,64.73
193074,2018-06-29 10:25:25.562500,-109.57,64.73
193075,2018-06-29 10:25:25.593750,-150.91,64.73
193076,2018-06-29 10:25:25.625000,-167.8,64.73
193077,2018-06-29 10:25:25.656250,-171.95,64.73
193078,2018-06-29 10:25:25.687500,-168.71,64.73
193079,2018-06-29 10:25:25.718750,-156.13,64.73
193080,2018-06-29 10:25:25.750000,-133.26,64.73
193081,2018-06-29 10:25:25.781250,-104.22,64.73
193082,2018-06-29 10:25:25.812500,-78.21,64.73
193083,2018-06-29 10:25:25.843750,-65.62,64.73
193084,2018-06-29 10:25:25.875000,-70.37,64.73
193085,2018-06-29 10:25:25.906250,-85.8,64.73
193086,2018-06-29 10:25:25.937500,-99.52,64.73
193087,2018-06-29 10:25:25.968750,-103.86,64.73
193088,2018-06-29 10:25:26.000000,-103.51,64.73
193089,2018-06-29 10:25:26.031250,-109.91,64.73
193090,2018-06-29 10:25:26.062500,-123.23,64.73
193091,2018-06-29 10:25:26.093750,-126.09,64.73
193092,2018-06-29 10:25:26.125000,-103.47,64.73
193093,2018-06-29 10:25:26.156250,-63.2,64.73
193094,2018-06-29 10:25:26.187500,-27.39,64.73
193095,2018-06-29 10:25:26.218750,-8.34,64.73
193096,2018-06-29 10:25:26.250000,-0.24,64.73
193097,2018-06-29 10:25:26.281250,9.56,64.73
193098,2018-06-29 10:25:26.312500,26.24,64.73
193099,2018-06-29 10:25:26.343750,44.78,64.73
193100,2018-06-29 10:25:26.375000,59.08,64.73
193101,2018-06-29 10:25:26.406250,67.85,64.73
193102,2018-06-29 10:25:26.437500,69.34,64.73
193103,2018-06-29 10:25:26.468750,58.65,64.73
193104,2018-06-29 10:25:26.500000,34.18,64.73
193105,2018-06-29 10:25:26.531250,0.91,64.88
193106,2018-06-29 10:25:26.562500,-32.67,64.88
193107,2018-06-29 10:25:26.593750,-57.56,64.88
193108,2018-06-29 10:25:26.625000,-68.3,64.88
193109,2018-06-29 10:25:26.656250,-64.99,64.88
193110,2018-06-29 10:25:26.687500,-49.54,64.88
193111,2018-06-29 10:25:26.718750,-25.7,64.88
193112,2018-06-29 10:25:26.750000,-2.96,64.88
193113,2018-06-29 10:25:26.781250,8.27,64.88
193114,2018-06-29 10:25:26.812500,6.1,64.88
193115,2018-06-29 10:25:26.843750,-1.86,64.88
193116,2018-06-29 10:25:26.875000,-4.07,64.88
193117,2018-06-29 10:25:26.906250,6.16,64.88
193118,2018-06-29 10:25:26.937500,25.89,64.88
193119,2018-06-29 10:25:26.968750,49.06,64.88
193120,2018-06-29 10:25:27.000000,74.3,64.88
193121,2018-06-29 10:25:27.031250,101.02,64.88
193122,2018-06-29 10:25:27.062500,125.85,64.88
193123,2018-06-29 10:25:27.093750,148.02,64.88
193124,2018-06-29 10:25:27.125000,170.95,64.88
193125,2018-06-29 10:25:27.156250,196.76,64.88
193126,2018-06-29 10:25:27.187500,222.92,64.88
193127,2018-06-29 10:25:27.218750,241.97,64.88
193128,2018-06-29 10:25:27.250000,243.32,64.88
193129,2018-06-29 10:25:27.281250,220.88,64.88
193130,2018-06-29 10:25:27.312500,181.09,64.88
193131,2018-06-29 10:25:27.343750,139.56,64.88
193132,2018-06-29 10:25:27.375000,107.87,64.88
193133,2018-06-29 10:25:27.406250,85.18,64.88
193134,2018-06-29 10:25:27.437500,61.25,64.88
193135,2018-06-29 10:25:27.468750,25.63,64.88
193136,2018-06-29 10:25:27.500000,-25.75,64.88
193137,2018-06-29 10:25:27.531250,-89.49,65.03
193138,2018-06-29 10:25:27.562500,-159.19,65.03
193139,2018-06-29 10:25:27.593750,-231.3,65.03
193140,2018-06-29 10:25:27.625000,-299.27,65.03
193141,2018-06-29 10:25:27.656250,-341.61,65.03
193142,2018-06-29 10:25:27.687500,-335.23,65.03
193143,2018-06-29 10:25:27.718750,-286.01,65.03
193144,2018-06-29 10:25:27.750000,-225.42,65.03
193145,2018-06-29 10:25:27.781250,-173.67,65.03
193146,2018-06-29 10:25:27.812500,-128.18,65.03
193147,2018-06-29 10:25:27.843750,-85.97,65.03
193148,2018-06-29 10:25:27.875000,-53.25,65.03
193149,2018-06-29 10:25:27.906250,-33.81,65.03
193150,2018-06-29 10:25:27.937500,-25.03,65.03
193151,2018-06-29 10:25:27.968750,-23.75,65.03
193152,2018-06-29 10:25:28.000000,-26.56,65.03
193153,2018-06-29 10:25:28.031250,-28.44,65.03
193154,2018-06-29 10:25:28.062500,-26.83,65.03
193155,2018-06-29 10:25:28.093750,-24.16,65.03
193156,2018-06-29 10:25:28.125000,-23.86,65.03
193157,2018-06-29 10:25:28.156250,-25.07,65.03
193158,2018-06-29 10:25:28.187500,-22.61,65.03
193159,2018-06-29 10:25:28.218750,-14.01,65.03
193160,2018-06-29 10:25:28.250000,-4.85,65.03
193161,2018-06-29 10:25:28.281250,-2.21,65.03
193162,2018-06-29 10:25:28.312500,-5.44,65.03
193163,2018-06-29 10:25:28.343750,-9.42,65.03
193164,2018-06-29 10:25:28.375000,-13.75,65.03
193165,2018-06-29 10:25:28.406250,-22.97,65.03
193166,2018-06-29 10:25:28.437500,-39.82,65.03
193167,2018-06-29 10:25:28.468750,-59.44,65.03
193168,2018-06-29 10:25:28.500000,-69.22,65.03
193169,2018-06-29 10:25:28.531250,-58.55,65.18
193170,2018-06-29 10:25:28.562500,-30.53,65.18
193171,2018-06-29 10:25:28.593750,1.43,65.18
193172,2018-06-29 10:25:28.625000,28.52,65.18
193173,2018-06-29 10:25:28.656250,50.68,65.18
193174,2018-06-29 10:25:28.687500,68.93,65.18
193175,2018-06-29 10:25:28.718750,82.09,65.18
193176,2018-06-29 10:25:28.750000,90.17,65.18
193177,2018-06-29 10:25:28.781250,94.89,65.18
193178,2018-06-29 10:25:28.812500,97.58,65.18
193179,2018-06-29 10:25:28.843750,98.63,65.18
193180,2018-06-29 10:25:28.875000,98.49,65.18
193181,2018-06-29 10:25:28.906250,96.97,65.18
193182,2018-06-29 10:25:28.937500,92.54,65.18
193183,2018-06-29 10:25:28.968750,84.71,65.18
193184,2018-06-29 10:25:29.000000,75.17,65.18
193185,2018-06-29 10:25:29.031250,65.7,65.18
193186,2018-06-29 10:25:29.062500,56.82,65.18
193187,2018-06-29 10:25:29.093750,48.56,65.18
193188,2018-06-29 10:25:29.125000,40.5,65.18
193189,2018-06-29 10:25:29.156250,31.57,65.18
193190,2018-06-29 10:25:29.187500,21.55,65.18
193191,2018-06-29 10:25:29.218750,11.56,65.18
193192,2018-06-29 10:25:29.250000,2.44,65.18
193193,2018-06-29 10:25:29.281250,-6.9,65.18
193194,2018-06-29 10:25:29.312500,-18.33,65.18
193195,2018-06-29 10:25:29.343750,-31.27,65.18
193196,2018-06-29 10:25:29.375000,-42.6,65.18
193197,2018-06-29 10:25:29.406250,-51.1,65.18
193198,2018-06-29 10:25:29.437500,-59.75,65.18
193199,2018-06-29 10:25:29.468750,-72.07,65.18
193200,2018-06-29 10:25:29.500000,-88.3,65.18
193201,2018-06-29 10:25:29.531250,-102.95,65.32
193202,2018-06-29 10:25:29.562500,-104.61,65.32
193203,2018-06-29 10:25:29.593750,-85.29,65.32
193204,2018-06-29 10:25:29.625000,-51.6,65.32
193205,2018-06-29 10:25:29.656250,-17.99,65.32
193206,2018-06-29 10:25:29.687500,9.36,65.32
193207,2018-06-29 10:25:29.718750,32.92,65.32
193208,2018-06-29 10:25:29.750000,53.86,65.32
193209,2018-06-29 10:25:29.781250,71.45,65.32
193210,2018-06-29 10:25:29.812500,87.13,65.32
193211,2018-06-29 10:25:29.843750,102.71,65.32
193212,2018-06-29 10:25:29.875000,117.25,65.32
193213,2018-06-29 10:25:29.906250,128.19,65.32
193214,2018-06-29 10:25:29.937500,134.17,65.32
193215,2018-06-29 10:25:29.968750,135.66,65.32
193216,2018-06-29 10:25:30.000000,133.53,65.32
193217,2018-06-29 10:25:30.031250,128.02,65.32
193218,2018-06-29 10:25:30.062500,119.27,65.32
193219,2018-06-29 10:25:30.093750,108.35,65.32
193220,2018-06-29 10:25:30.125000,97.1,65.32
193221,2018-06-29 10:25:30.156250,87.18,65.32
193222,2018-06-29 10:25:30.187500,78.78,65.32
193223,2018-06-29 10:25:30.218750,71.32,65.32
193224,2018-06-29 10:25:30.250000,65.22,65.32
193225,2018-06-29 10:25:30.281250,61.19,65.32
193226,2018-06-29 10:25:30.312500,59.05,65.32
193227,2018-06-29 10:25:30.343750,58.73,65.32
193228,2018-06-29 10:25:30.375000,60.57,65.32
193229,2018-06-29 10:25:30.406250,63.66,65.32
193230,2018-06-29 10:25:30.437500,64.08,65.32
193231,2018-06-29 10:25:30.468750,57.12,65.32
193232,2018-06-29 10:25:30.500000,42.09,65.32
193233,2018-06-29 10:25:30.531250,24.12,65.48
193234,2018-06-29 10:25:30.562500,9.8,65.48
193235,2018-06-29 10:25:30.593750,2.2,65.48
193236,2018-06-29 10:25:30.625000,-0.7,65.48
193237,2018-06-29 10:25:30.656250,-4.59,65.48
193238,2018-06-29 10:25:30.687500,-14.98,65.48
193239,2018-06-29 10:25:30.718750,-33.91,65.48
193240,2018-06-29 10:25:30.750000,-61.02,65.48
193241,2018-06-29 10:25:30.781250,-95.71,65.48
193242,2018-06-29 10:25:30.812500,-135.53,65.48
193243,2018-06-29 10:25:30.843750,-173.12,65.48
193244,2018-06-29 10:25:30.875000,-199.02,65.48
193245,2018-06-29 10:25:30.906250,-208.42,65.48
193246,2018-06-29 10:25:30.937500,-201.9,65.48
193247,2018-06-29 10:25:30.968750,-181.26,65.48
193248,2018-06-29 10:25:31.000000,-149.34,65.48
193249,2018-06-29 10:25:31.031250,-112.09,65.48
193250,2018-06-29 10:25:31.062500,-76.13,65.48
193251,2018-06-29 10:25:31.093750,-46.39,65.48
193252,2018-06-29 10:25:31.125000,-27.03,65.48
193253,2018-06-29 10:25:31.156250,-19.81,65.48
193254,2018-06-29 10:25:31.187500,-21.1,65.48
193255,2018-06-29 10:25:31.218750,-23.63,65.48
193256,2018-06-29 10:25:31.250000,-21.65,65.48
193257,2018-06-29 10:25:31.281250,-12.8,65.48
193258,2018-06-29 10:25:31.312500,3.02,65.48
193259,2018-06-29 10:25:31.343750,23.03,65.48
193260,2018-06-29 10:25:31.375000,40.76,65.48
193261,2018-06-29 10:25:31.406250,49.2,65.48
193262,2018-06-29 10:25:31.437500,45.01,65.48
193263,2018-06-29 10:25:31.468750,31.16,65.48
193264,2018-06-29 10:25:31.500000,17.23,65.48
193265,2018-06-29 10:25:31.531250,13.65,65.65
193266,2018-06-29 10:25:31.562500,21.65,65.65
193267,2018-06-29 10:25:31.593750,32.56,65.65
193268,2018-06-29 10:25:31.625000,38.52,65.65
193269,2018-06-29 10:25:31.656250,39.46,65.65
193270,2018-06-29 10:25:31.687500,38.93,65.65
193271,2018-06-29 10:25:31.718750,39.74,65.65
193272,2018-06-29 10:25:31.750000,45.02,65.65
193273,2018-06-29 10:25:31.781250,57.46,65.65
193274,2018-06-29 10:25:31.812500,75.52,65.65
193275,2018-06-29 10:25:31.843750,96.23,65.65
193276,2018-06-29 10:25:31.875000,121.49,65.65
193277,2018-06-29 10:25:31.906250,153.03,65.65
193278,2018-06-29 10:25:31.937500,182.44,65.65
193279,2018-06-29 10:25:31.968750,196.51,65.65
193280,2018-06-29 10:25:32.000000,189.74,65.65
193281,2018-06-29 10:25:32.031250,162.93,65.65
193282,2018-06-29 10:25:32.062500,117.85,65.65
193283,2018-06-29 10:25:32.093750,59.28,65.65
193284,2018-06-29 10:25:32.125000,-6.97,65.65
193285,2018-06-29 10:25:32.156250,-77.33,65.65
193286,2018-06-29 10:25:32.187500,-144.21,65.65
193287,2018-06-29 10:25:32.218750,-197.04,65.65
193288,2018-06-29 10:25:32.250000,-235.63,65.65
193289,2018-06-29 10:25:32.281250,-267.52,65.65
193290,2018-06-29 10:25:32.312500,-289.89,65.65
193291,2018-06-29 10:25:32.343750,-286.3,65.65
193292,2018-06-29 10:25:32.375000,-243.97,65.65
193293,2018-06-29 10:25:32.406250,-170.99,65.65
193294,2018-06-29 10:25:32.437500,-93.85,65.65
193295,2018-06-29 10:25:32.468750,-34.51,65.65
193296,2018-06-29 10:25:32.500000,4.53,65.65
193297,2018-06-29 10:25:32.531250,29.18,65.7
193298,2018-06-29 10:25:32.562500,42.47,65.7
193299,2018-06-29 10:25:32.593750,47.17,65.7
193300,2018-06-29 10:25:32.625000,48.14,65.7
193301,2018-06-29 10:25:32.656250,46.76,65.7
193302,2018-06-29 10:25:32.687500,41.14,65.7
193303,2018-06-29 10:25:32.718750,30.71,65.7
193304,2018-06-29 10:25:32.750000,17.63,65.7
193305,2018-06-29 10:25:32.781250,4.55,65.7
193306,2018-06-29 10:25:32.812500,-8.39,65.7
193307,2018-06-29 10:25:32.843750,-20.77,65.7
193308,2018-06-29 10:25:32.875000,-32.18,65.7
193309,2018-06-29 10:25:32.906250,-41.75,65.7
193310,2018-06-29 10:25:32.937500,-51.89,65.7
193311,2018-06-29 10:25:32.968750,-65.2,65.7
193312,2018-06-29 10:25:33.000000,-81.78,65.7
193313,2018-06-29 10:25:33.031250,-99.24,65.7
193314,2018-06-29 10:25:33.062500,-111.9,65.7
193315,2018-06-29 10:25:33.093750,-124.08,65.7
193316,2018-06-29 10:25:33.125000,-143.76,65.7
193317,2018-06-29 10:25:33.156250,-177.23,65.7
193318,2018-06-29 10:25:33.187500,-216.33,65.7
193319,2018-06-29 10:25:33.218750,-255.33,65.7
193320,2018-06-29 10:25:33.250000,-286.58,65.7
193321,2018-06-29 10:25:33.281250,-284.53,65.7
193322,2018-06-29 10:25:33.312500,-217.92,65.7
193323,2018-06-29 10:25:33.343750,-77.29,65.7
193324,2018-06-29 10:25:33.375000,97.97,65.7
193325,2018-06-29 10:25:33.406250,268.58,65.7
193326,2018-06-29 10:25:33.437500,385.8,65.7
193327,2018-06-29 10:25:33.468750,388.01,65.7
193328,2018-06-29 10:25:33.500000,329.71,65.7
193329,2018-06-29 10:25:33.531250,267.47,65.72
193330,2018-06-29 10:25:33.562500,214.84,65.72
193331,2018-06-29 10:25:33.593750,162.89,65.72
193332,2018-06-29 10:25:33.625000,118.27,65.72
193333,2018-06-29 10:25:33.656250,89.52,65.72
193334,2018-06-29 10:25:33.687500,76.43,65.72
193335,2018-06-29 10:25:33.718750,64.59,65.72
193336,2018-06-29 10:25:33.750000,55.41,65.72
193337,2018-06-29 10:25:33.781250,46.05,65.72
193338,2018-06-29 10:25:33.812500,30.76,65.72
193339,2018-06-29 10:25:33.843750,11.35,65.72
193340,2018-06-29 10:25:33.875000,-2.91,65.72
193341,2018-06-29 10:25:33.906250,-1.46,65.72
193342,2018-06-29 10:25:33.937500,10.31,65.72
193343,2018-06-29 10:25:33.968750,23.97,65.72
193344,2018-06-29 10:25:34.000000,32.49,65.72
193345,2018-06-29 10:25:34.031250,28.88,65.72
193346,2018-06-29 10:25:34.062500,2.72,65.72
193347,2018-06-29 10:25:34.093750,-50.87,65.72
193348,2018-06-29 10:25:34.125000,-118.74,65.72
193349,2018-06-29 10:25:34.156250,-177.78,65.72
193350,2018-06-29 10:25:34.187500,-201.51,65.72
193351,2018-06-29 10:25:34.218750,-182.81,65.72
193352,2018-06-29 10:25:34.250000,-133.42,65.72
193353,2018-06-29 10:25:34.281250,-82.22,65.72
193354,2018-06-29 10:25:34.312500,-59.45,65.72
193355,2018-06-29 10:25:34.343750,-76.55,65.72
193356,2018-06-29 10:25:34.375000,-122.49,65.72
193357,2018-06-29 10:25:34.406250,-170.32,65.72
193358,2018-06-29 10:25:34.437500,-206.81,65.72
193359,2018-06-29 10:25:34.468750,-185.9,65.72
193360,2018-06-29 10:25:34.500000,-90.32,65.72
193361,2018-06-29 10:25:34.531250,9.66,65.73
193362,2018-06-29 10:25:34.562500,79.4,65.73
193363,2018-06-29 10:25:34.593750,134.11,65.73
193364,2018-06-29 10:25:34.625000,179.68,65.73
193365,2018-06-29 10:25:34.656250,192.32,65.73
193366,2018-06-29 10:25:34.687500,165.58,65.73
193367,2018-06-29 10:25:34.718750,117.11,65.73
193368,2018-06-29 10:25:34.750000,77.34,65.73
193369,2018-06-29 10:25:34.781250,45.01,65.73
193370,2018-06-29 10:25:34.812500,15.47,65.73
193371,2018-06-29 10:25:34.843750,-1.71,65.73
193372,2018-06-29 10:25:34.875000,10.92,65.73
193373,2018-06-29 10:25:34.906250,51.09,65.73
193374,2018-06-29 10:25:34.937500,82.68,65.73
193375,2018-06-29 10:25:34.968750,101.34,65.73
193376,2018-06-29 10:25:35.000000,125.54,65.73
193377,2018-06-29 10:25:35.031250,191.74,65.73
193378,2018-06-29 10:25:35.062500,293.94,65.73
193379,2018-06-29 10:25:35.093750,413.51,65.73
193380,2018-06-29 10:25:35.125000,504.15,65.73
193381,2018-06-29 10:25:35.156250,393.92,65.73
193382,2018-06-29 10:25:35.187500,182.74,65.73
193383,2018-06-29 10:25:35.218750,12.83,65.73
193384,2018-06-29 10:25:35.250000,-109.95,65.73
193385,2018-06-29 10:25:35.281250,-198.83,65.73
193386,2018-06-29 10:25:35.312500,-235.52,65.73
193387,2018-06-29 10:25:35.343750,-247.05,65.73
193388,2018-06-29 10:25:35.375000,-265.19,65.73
193389,2018-06-29 10:25:35.406250,-279.52,65.73
193390,2018-06-29 10:25:35.437500,-259.13,65.73
193391,2018-06-29 10:25:35.468750,-200.74,65.73
193392,2018-06-29 10:25:35.500000,-126.86,65.73
193393,2018-06-29 10:25:35.531250,-59.62,65.7
193394,2018-06-29 10:25:35.562500,2.47,65.7
193395,2018-06-29 10:25:35.593750,69.98,65.7
193396,2018-06-29 10:25:35.625000,124.37,65.7
193397,2018-06-29 10:25:35.656250,141.05,65.7
193398,2018-06-29 10:25:35.687500,128.02,65.7
193399,2018-06-29 10:25:35.718750,102.79,65.7
193400,2018-06-29 10:25:35.750000,76.94,65.7
193401,2018-06-29 10:25:35.781250,54.8,65.7
193402,2018-06-29 10:25:35.812500,38.83,65.7
193403,2018-06-29 10:25:35.843750,24.56,65.7
193404,2018-06-29 10:25:35.875000,6.11,65.7
193405,2018-06-29 10:25:35.906250,-10.91,65.7
193406,2018-06-29 10:25:35.937500,-13.29,65.7
193407,2018-06-29 10:25:35.968750,4.2,65.7
193408,2018-06-29 10:25:36.000000,28.78,65.7
193409,2018-06-29 10:25:36.031250,44.47,65.7
193410,2018-06-29 10:25:36.062500,46.92,65.7
193411,2018-06-29 10:25:36.093750,40.17,65.7
193412,2018-06-29 10:25:36.125000,27.14,65.7
193413,2018-06-29 10:25:36.156250,8.05,65.7
193414,2018-06-29 10:25:36.187500,-14.68,65.7
193415,2018-06-29 10:25:36.218750,-38.29,65.7
193416,2018-06-29 10:25:36.250000,-62.88,65.7
193417,2018-06-29 10:25:36.281250,-87.35,65.7
193418,2018-06-29 10:25:36.312500,-105.32,65.7
193419,2018-06-29 10:25:36.343750,-110.85,65.7
193420,2018-06-29 10:25:36.375000,-103.72,65.7
193421,2018-06-29 10:25:36.406250,-87.39,65.7
193422,2018-06-29 10:25:36.437500,-65.72,65.7
193423,2018-06-29 10:25:36.468750,-41.29,65.7
193424,2018-06-29 10:25:36.500000,-14.38,65.7
193425,2018-06-29 10:25:36.531250,12.89,65.65
193426,2018-06-29 10:25:36.562500,33.42,65.65
193427,2018-06-29 10:25:36.593750,41.79,65.65
193428,2018-06-29 10:25:36.625000,40.36,65.65
193429,2018-06-29 10:25:36.656250,34.3,65.65
193430,2018-06-29 10:25:36.687500,25.49,65.65
193431,2018-06-29 10:25:36.718750,14.8,65.65
193432,2018-06-29 10:25:36.750000,3.15,65.65
193433,2018-06-29 10:25:36.781250,-9.96,65.65
193434,2018-06-29 10:25:36.812500,-22.65,65.65
193435,2018-06-29 10:25:36.843750,-28.7,65.65
193436,2018-06-29 10:25:36.875000,-24.73,65.65
193437,2018-06-29 10:25:36.906250,-14.65,65.65
193438,2018-06-29 10:25:36.937500,-4.38,65.65
193439,2018-06-29 10:25:36.968750,3.69,65.65
193440,2018-06-29 10:25:37.000000,10.05,65.65
193441,2018-06-29 10:25:37.031250,15.19,65.65
193442,2018-06-29 10:25:37.062500,18.26,65.65
193443,2018-06-29 10:25:37.093750,18.97,65.65
193444,2018-06-29 10:25:37.125000,18.98,65.65
193445,2018-06-29 10:25:37.156250,19.59,65.65
193446,2018-06-29 10:25:37.187500,19.98,65.65
193447,2018-06-29 10:25:37.218750,19.61,65.65
193448,2018-06-29 10:25:37.250000,19.1,65.65
193449,2018-06-29 10:25:37.281250,18.02,65.65
193450,2018-06-29 10:25:37.312500,15.04,65.65
193451,2018-06-29 10:25:37.343750,10.06,65.65
193452,2018-06-29 10:25:37.375000,4.04,65.65
193453,2018-06-29 10:25:37.406250,-2.07,65.65
193454,2018-06-29 10:25:37.437500,-7.35,65.65
193455,2018-06-29 10:25:37.468750,-11.86,65.65
193456,2018-06-29 10:25:37.500000,-16.9,65.65
193457,2018-06-29 10:25:37.531250,-22.39,65.57
193458,2018-06-29 10:25:37.562500,-27.01,65.57
193459,2018-06-29 10:25:37.593750,-31.77,65.57
193460,2018-06-29 10:25:37.625000,-39.49,65.57
193461,2018-06-29 10:25:37.656250,-50.22,65.57
193462,2018-06-29 10:25:37.687500,-59.28,65.57
193463,2018-06-29 10:25:37.718750,-59.76,65.57
193464,2018-06-29 10:25:37.750000,-47.31,65.57
193465,2018-06-29 10:25:37.781250,-23.94,65.57
193466,2018-06-29 10:25:37.812500,2.84,65.57
193467,2018-06-29 10:25:37.843750,25.25,65.57
193468,2018-06-29 10:25:37.875000,39.6,65.57
193469,2018-06-29 10:25:37.906250,46.46,65.57
193470,2018-06-29 10:25:37.937500,48.17,65.57
193471,2018-06-29 10:25:37.968750,46.84,65.57
193472,2018-06-29 10:25:38.000000,44.51,65.57
193473,2018-06-29 10:25:38.031250,42.41,65.57
193474,2018-06-29 10:25:38.062500,40.2,65.57
193475,2018-06-29 10:25:38.093750,37.51,65.57
193476,2018-06-29 10:25:38.125000,34.22,65.57
193477,2018-06-29 10:25:38.156250,28.24,65.57
193478,2018-06-29 10:25:38.187500,17.96,65.57
193479,2018-06-29 10:25:38.218750,6.01,65.57
193480,2018-06-29 10:25:38.250000,-4.42,65.57
193481,2018-06-29 10:25:38.281250,-13.75,65.57
193482,2018-06-29 10:25:38.312500,-22.77,65.57
193483,2018-06-29 10:25:38.343750,-30.41,65.57
193484,2018-06-29 10:25:38.375000,-36.43,65.57
193485,2018-06-29 10:25:38.406250,-42.04,65.57
193486,2018-06-29 10:25:38.437500,-47.67,65.57
193487,2018-06-29 10:25:38.468750,-52.16,65.57
193488,2018-06-29 10:25:38.500000,-54.26,65.57
193489,2018-06-29 10:25:38.531250,-54.97,65.35
193490,2018-06-29 10:25:38.562500,-58.29,65.35
193491,2018-06-29 10:25:38.593750,-66.89,65.35
193492,2018-06-29 10:25:38.625000,-76.32,65.35
193493,2018-06-29 10:25:38.656250,-77.54,65.35
193494,2018-06-29 10:25:38.687500,-66.81,65.35
193495,2018-06-29 10:25:38.718750,-49.95,65.35
193496,2018-06-29 10:25:38.750000,-35.45,65.35
193497,2018-06-29 10:25:38.781250,-26.54,65.35
193498,2018-06-29 10:25:38.812500,-21.35,65.35
193499,2018-06-29 10:25:38.843750,-18.49,65.35
193500,2018-06-29 10:25:38.875000,-19.74,65.35
193501,2018-06-29 10:25:38.906250,-26.23,65.35
193502,2018-06-29 10:25:38.937500,-34.63,65.35
193503,2018-06-29 10:25:38.968750,-40.56,65.35
193504,2018-06-29 10:25:39.000000,-43.98,65.35
193505,2018-06-29 10:25:39.031250,-48.4,65.35
193506,2018-06-29 10:25:39.062500,-56.56,65.35
193507,2018-06-29 10:25:39.093750,-68.43,65.35
193508,2018-06-29 10:25:39.125000,-79.87,65.35
193509,2018-06-29 10:25:39.156250,-84.42,65.35
193510,2018-06-29 10:25:39.187500,-79.42,65.35
193511,2018-06-29 10:25:39.218750,-67.54,65.35
193512,2018-06-29 10:25:39.250000,-50.84,65.35
193513,2018-06-29 10:25:39.281250,-28.94,65.35
193514,2018-06-29 10:25:39.312500,-3.96,65.35
193515,2018-06-29 10:25:39.343750,18.77,65.35
193516,2018-06-29 10:25:39.375000,35.25,65.35
193517,2018-06-29 10:25:39.406250,44.23,65.35
193518,2018-06-29 10:25:39.437500,44.75,65.35
193519,2018-06-29 10:25:39.468750,35.31,65.35
193520,2018-06-29 10:25:39.500000,15.17,65.35
193521,2018-06-29 10:25:39.531250,-14.39,65.18
193522,2018-06-29 10:25:39.562500,-47.77,65.18
193523,2018-06-29 10:25:39.593750,-73.8,65.18
193524,2018-06-29 10:25:39.625000,-82.1,65.18
193525,2018-06-29 10:25:39.656250,-72.81,65.18
193526,2018-06-29 10:25:39.687500,-55.54,65.18
193527,2018-06-29 10:25:39.718750,-36.84,65.18
193528,2018-06-29 10:25:39.750000,-14.47,65.18
193529,2018-06-29 10:25:39.781250,14.26,65.18
193530,2018-06-29 10:25:39.812500,45.34,65.18
193531,2018-06-29 10:25:39.843750,72.76,65.18
193532,2018-06-29 10:25:39.875000,95.17,65.18
193533,2018-06-29 10:25:39.906250,114.37,65.18
193534,2018-06-29 10:25:39.937500,130.52,65.18
193535,2018-06-29 10:25:39.968750,141.12,65.18
193536,2018-06-29 10:25:40.000000,143.12,65.18
193537,2018-06-29 10:25:40.031250,134.91,65.18
193538,2018-06-29 10:25:40.062500,117.68,65.18
193539,2018-06-29 10:25:40.093750,95.46,65.18
193540,2018-06-29 10:25:40.125000,72.89,65.18
193541,2018-06-29 10:25:40.156250,51.98,65.18
193542,2018-06-29 10:25:40.187500,32.1,65.18
193543,2018-06-29 10:25:40.218750,13.05,65.18
193544,2018-06-29 10:25:40.250000,-4.47,65.18
193545,2018-06-29 10:25:40.281250,-20.63,65.18
193546,2018-06-29 10:25:40.312500,-35.56,65.18
193547,2018-06-29 10:25:40.343750,-48.06,65.18
193548,2018-06-29 10:25:40.375000,-57.54,65.18
193549,2018-06-29 10:25:40.406250,-65.49,65.18
193550,2018-06-29 10:25:40.437500,-74.22,65.18
193551,2018-06-29 10:25:40.468750,-84.68,65.18
193552,2018-06-29 10:25:40.500000,-92.43,65.18
193553,2018-06-29 10:25:40.531250,-86.92,65.08
193554,2018-06-29 10:25:40.562500,-62.23,65.08
193555,2018-06-29 10:25:40.593750,-26.28,65.08
193556,2018-06-29 10:25:40.625000,8.15,65.08
193557,2018-06-29 10:25:40.656250,35.92,65.08
193558,2018-06-29 10:25:40.687500,57.15,65.08
193559,2018-06-29 10:25:40.718750,71.19,65.08
193560,2018-06-29 10:25:40.750000,78.57,65.08
193561,2018-06-29 10:25:40.781250,82.55,65.08
193562,2018-06-29 10:25:40.812500,85.6,65.08
193563,2018-06-29 10:25:40.843750,87.85,65.08
193564,2018-06-29 10:25:40.875000,89.1,65.08
193565,2018-06-29 10:25:40.906250,89.47,65.08
193566,2018-06-29 10:25:40.937500,87.49,65.08
193567,2018-06-29 10:25:40.968750,80.38,65.08
193568,2018-06-29 10:25:41.000000,67.79,65.08
193569,2018-06-29 10:25:41.031250,53.36,65.08
193570,2018-06-29 10:25:41.062500,40.54,65.08
193571,2018-06-29 10:25:41.093750,29.04,65.08
193572,2018-06-29 10:25:41.125000,17.42,65.08
193573,2018-06-29 10:25:41.156250,6.34,65.08
193574,2018-06-29 10:25:41.187500,-3.42,65.08
193575,2018-06-29 10:25:41.218750,-13.57,65.08
193576,2018-06-29 10:25:41.250000,-26.07,65.08
193577,2018-06-29 10:25:41.281250,-40.04,65.08
193578,2018-06-29 10:25:41.312500,-53.21,65.08
193579,2018-06-29 10:25:41.343750,-65.19,65.08
193580,2018-06-29 10:25:41.375000,-77.9,65.08
193581,2018-06-29 10:25:41.406250,-92.97,65.08
193582,2018-06-29 10:25:41.437500,-106.62,65.08
193583,2018-06-29 10:25:41.468750,-107.71,65.08
193584,2018-06-29 10:25:41.500000,-87.6,65.08
193585,2018-06-29 10:25:41.531250,-52.44,65.0
193586,2018-06-29 10:25:41.562500,-18.49,65.0
193587,2018-06-29 10:25:41.593750,4.33,65.0
193588,2018-06-29 10:25:41.625000,17.02,65.0
193589,2018-06-29 10:25:41.656250,21.82,65.0
193590,2018-06-29 10:25:41.687500,18.21,65.0
193591,2018-06-29 10:25:41.718750,9.12,65.0
193592,2018-06-29 10:25:41.750000,2.13,65.0
193593,2018-06-29 10:25:41.781250,2.3,65.0
193594,2018-06-29 10:25:41.812500,8.54,65.0
193595,2018-06-29 10:25:41.843750,18.01,65.0
193596,2018-06-29 10:25:41.875000,28.93,65.0
193597,2018-06-29 10:25:41.906250,38.58,65.0
193598,2018-06-29 10:25:41.937500,43.52,65.0
193599,2018-06-29 10:25:41.968750,42.96,65.0
193600,2018-06-29 10:25:42.000000,38.71,65.0
193601,2018-06-29 10:25:42.031250,32.41,65.0
193602,2018-06-29 10:25:42.062500,25.44,65.0
193603,2018-06-29 10:25:42.093750,19.24,65.0
193604,2018-06-29 10:25:42.125000,13.05,65.0
193605,2018-06-29 10:25:42.156250,3.86,65.0
193606,2018-06-29 10:25:42.187500,-10.09,65.0
193607,2018-06-29 10:25:42.218750,-27.46,65.0
193608,2018-06-29 10:25:42.250000,-45.04,65.0
193609,2018-06-29 10:25:42.281250,-60.01,65.0
193610,2018-06-29 10:25:42.312500,-72.29,65.0
193611,2018-06-29 10:25:42.343750,-80.67,65.0
193612,2018-06-29 10:25:42.375000,-76.14,65.0
193613,2018-06-29 10:25:42.406250,-48.64,65.0
193614,2018-06-29 10:25:42.437500,-2.39,65.0
193615,2018-06-29 10:25:42.468750,45.01,65.0
193616,2018-06-29 10:25:42.500000,79.21,65.0
193617,2018-06-29 10:25:42.531250,97.08,64.93
193618,2018-06-29 10:25:42.562500,101.31,64.93
193619,2018-06-29 10:25:42.593750,96.09,64.93
193620,2018-06-29 10:25:42.625000,88.01,64.93
193621,2018-06-29 10:25:42.656250,84.76,64.93
193622,2018-06-29 10:25:42.687500,89.81,64.93
193623,2018-06-29 10:25:42.718750,100.41,64.93
193624,2018-06-29 10:25:42.750000,110.82,64.93
193625,2018-06-29 10:25:42.781250,115.99,64.93
193626,2018-06-29 10:25:42.812500,112.48,64.93
193627,2018-06-29 10:25:42.843750,98.74,64.93
193628,2018-06-29 10:25:42.875000,75.29,64.93
193629,2018-06-29 10:25:42.906250,45.04,64.93
193630,2018-06-29 10:25:42.937500,13.59,64.93
193631,2018-06-29 10:25:42.968750,-13.02,64.93
193632,2018-06-29 10:25:43.000000,-32.22,64.93
193633,2018-06-29 10:25:43.031250,-45.24,64.93
193634,2018-06-29 10:25:43.062500,-54.52,64.93
193635,2018-06-29 10:25:43.093750,-62.47,64.93
193636,2018-06-29 10:25:43.125000,-70.95,64.93
193637,2018-06-29 10:25:43.156250,-79.96,64.93
193638,2018-06-29 10:25:43.187500,-88.32,64.93
193639,2018-06-29 10:25:43.218750,-96.9,64.93
193640,2018-06-29 10:25:43.250000,-107.6,64.93
193641,2018-06-29 10:25:43.281250,-116.54,64.93
193642,2018-06-29 10:25:43.312500,-112.51,64.93
193643,2018-06-29 10:25:43.343750,-88.03,64.93
193644,2018-06-29 10:25:43.375000,-50.17,64.93
193645,2018-06-29 10:25:43.406250,-13.87,64.93
193646,2018-06-29 10:25:43.437500,12.67,64.93
193647,2018-06-29 10:25:43.468750,30.48,64.93
193648,2018-06-29 10:25:43.500000,42.48,64.93
193649,2018-06-29 10:25:43.531250,50.12,64.88
193650,2018-06-29 10:25:43.562500,54.87,64.88
193651,2018-06-29 10:25:43.593750,58.42,64.88
193652,2018-06-29 10:25:43.625000,61.4,64.88
193653,2018-06-29 10:25:43.656250,63.64,64.88
193654,2018-06-29 10:25:43.687500,65.5,64.88
193655,2018-06-29 10:25:43.718750,67.33,64.88
193656,2018-06-29 10:25:43.750000,67.39,64.88
193657,2018-06-29 10:25:43.781250,62.84,64.88
193658,2018-06-29 10:25:43.812500,53.77,64.88
193659,2018-06-29 10:25:43.843750,43.82,64.88
193660,2018-06-29 10:25:43.875000,35.25,64.88
193661,2018-06-29 10:25:43.906250,26.21,64.88
193662,2018-06-29 10:25:43.937500,15.27,64.88
193663,2018-06-29 10:25:43.968750,5.59,64.88
193664,2018-06-29 10:25:44.000000,0.7,64.88
193665,2018-06-29 10:25:44.031250,-0.78,64.88
193666,2018-06-29 10:25:44.062500,-3.05,64.88
193667,2018-06-29 10:25:44.093750,-8.18,64.88
193668,2018-06-29 10:25:44.125000,-14.93,64.88
193669,2018-06-29 10:25:44.156250,-21.26,64.88
193670,2018-06-29 10:25:44.187500,-27.79,64.88
193671,2018-06-29 10:25:44.218750,-37.86,64.88
193672,2018-06-29 10:25:44.250000,-51.77,64.88
193673,2018-06-29 10:25:44.281250,-61.57,64.88
193674,2018-06-29 10:25:44.312500,-56.64,64.88
193675,2018-06-29 10:25:44.343750,-35.56,64.88
193676,2018-06-29 10:25:44.375000,-9.02,64.88
193677,2018-06-29 10:25:44.406250,10.38,64.88
193678,2018-06-29 10:25:44.437500,18.14,64.88
193679,2018-06-29 10:25:44.468750,17.5,64.88
193680,2018-06-29 10:25:44.500000,13.13,64.88
193681,2018-06-29 10:25:44.531250,7.8,64.9
193682,2018-06-29 10:25:44.562500,3.44,64.9
193683,2018-06-29 10:25:44.593750,1.75,64.9
193684,2018-06-29 10:25:44.625000,2.47,64.9
193685,2018-06-29 10:25:44.656250,3.57,64.9
193686,2018-06-29 10:25:44.687500,3.87,64.9
193687,2018-06-29 10:25:44.718750,3.37,64.9
193688,2018-06-29 10:25:44.750000,1.1,64.9
193689,2018-06-29 10:25:44.781250,-4.9,64.9
193690,2018-06-29 10:25:44.812500,-14.57,64.9
193691,2018-06-29 10:25:44.843750,-25.0,64.9
193692,2018-06-29 10:25:44.875000,-33.87,64.9
193693,2018-06-29 10:25:44.906250,-42.15,64.9
193694,2018-06-29 10:25:44.937500,-51.21,64.9
193695,2018-06-29 10:25:44.968750,-59.0,64.9
193696,2018-06-29 10:25:45.000000,-62.78,64.9
193697,2018-06-29 10:25:45.031250,-63.35,64.9
193698,2018-06-29 10:25:45.062500,-63.2,64.9
193699,2018-06-29 10:25:45.093750,-63.19,64.9
193700,2018-06-29 10:25:45.125000,-62.63,64.9
193701,2018-06-29 10:25:45.156250,-58.31,64.9
193702,2018-06-29 10:25:45.187500,-44.8,64.9
193703,2018-06-29 10:25:45.218750,-21.05,64.9
193704,2018-06-29 10:25:45.250000,5.74,64.9
193705,2018-06-29 10:25:45.281250,26.94,64.9
193706,2018-06-29 10:25:45.312500,39.16,64.9
193707,2018-06-29 10:25:45.343750,42.56,64.9
193708,2018-06-29 10:25:45.375000,38.68,64.9
193709,2018-06-29 10:25:45.406250,31.18,64.9
193710,2018-06-29 10:25:45.437500,24.28,64.9
193711,2018-06-29 10:25:45.468750,19.09,64.9
193712,2018-06-29 10:25:45.500000,13.88,64.9
193713,2018-06-29 10:25:45.531250,8.15,64.98
193714,2018-06-29 10:25:45.562500,3.86,64.98
193715,2018-06-29 10:25:45.593750,1.64,64.98
193716,2018-06-29 10:25:45.625000,-1.39,64.98
193717,2018-06-29 10:25:45.656250,-8.47,64.98
193718,2018-06-29 10:25:45.687500,-19.46,64.98
193719,2018-06-29 10:25:45.718750,-31.39,64.98
193720,2018-06-29 10:25:45.750000,-41.18,64.98
193721,2018-06-29 10:25:45.781250,-47.03,64.98
193722,2018-06-29 10:25:45.812500,-48.43,64.98
193723,2018-06-29 10:25:45.843750,-46.41,64.98
193724,2018-06-29 10:25:45.875000,-43.78,64.98
193725,2018-06-29 10:25:45.906250,-43.72,64.98
193726,2018-06-29 10:25:45.937500,-46.2,64.98
193727,2018-06-29 10:25:45.968750,-45.07,64.98
193728,2018-06-29 10:25:46.000000,-32.24,64.98
193729,2018-06-29 10:25:46.031250,-7.32,64.98
193730,2018-06-29 10:25:46.062500,20.68,64.98
193731,2018-06-29 10:25:46.093750,42.54,64.98
193732,2018-06-29 10:25:46.125000,55.12,64.98
193733,2018-06-29 10:25:46.156250,58.83,64.98
193734,2018-06-29 10:25:46.187500,54.97,64.98
193735,2018-06-29 10:25:46.218750,46.71,64.98
193736,2018-06-29 10:25:46.250000,38.33,64.98
193737,2018-06-29 10:25:46.281250,32.77,64.98
193738,2018-06-29 10:25:46.312500,30.68,64.98
193739,2018-06-29 10:25:46.343750,31.38,64.98
193740,2018-06-29 10:25:46.375000,33.64,64.98
193741,2018-06-29 10:25:46.406250,35.37,64.98
193742,2018-06-29 10:25:46.437500,34.13,64.98
193743,2018-06-29 10:25:46.468750,29.95,64.98
193744,2018-06-29 10:25:46.500000,25.82,64.98
193745,2018-06-29 10:25:46.531250,22.97,65.08
193746,2018-06-29 10:25:46.562500,18.0,65.08
193747,2018-06-29 10:25:46.593750,8.07,65.08
193748,2018-06-29 10:25:46.625000,-4.28,65.08
193749,2018-06-29 10:25:46.656250,-15.13,65.08
193750,2018-06-29 10:25:46.687500,-24.53,65.08
193751,2018-06-29 10:25:46.718750,-34.76,65.08
193752,2018-06-29 10:25:46.750000,-47.07,65.08
193753,2018-06-29 10:25:46.781250,-60.48,65.08
193754,2018-06-29 10:25:46.812500,-69.15,65.08
193755,2018-06-29 10:25:46.843750,-64.2,65.08
193756,2018-06-29 10:25:46.875000,-44.23,65.08
193757,2018-06-29 10:25:46.906250,-19.64,65.08
193758,2018-06-29 10:25:46.937500,-1.36,65.08
193759,2018-06-29 10:25:46.968750,9.43,65.08
193760,2018-06-29 10:25:47.000000,16.86,65.08
193761,2018-06-29 10:25:47.031250,22.57,65.08
193762,2018-06-29 10:25:47.062500,27.03,65.08
193763,2018-06-29 10:25:47.093750,32.77,65.08
193764,2018-06-29 10:25:47.125000,41.2,65.08
193765,2018-06-29 10:25:47.156250,48.94,65.08
193766,2018-06-29 10:25:47.187500,52.28,65.08
193767,2018-06-29 10:25:47.218750,52.65,65.08
193768,2018-06-29 10:25:47.250000,52.97,65.08
193769,2018-06-29 10:25:47.281250,51.67,65.08
193770,2018-06-29 10:25:47.312500,45.57,65.08
193771,2018-06-29 10:25:47.343750,35.67,65.08
193772,2018-06-29 10:25:47.375000,25.66,65.08
193773,2018-06-29 10:25:47.406250,16.45,65.08
193774,2018-06-29 10:25:47.437500,5.87,65.08
193775,2018-06-29 10:25:47.468750,-7.58,65.08
193776,2018-06-29 10:25:47.500000,-22.71,65.08
193777,2018-06-29 10:25:47.531250,-37.22,65.2
193778,2018-06-29 10:25:47.562500,-50.06,65.2
193779,2018-06-29 10:25:47.593750,-62.73,65.2
193780,2018-06-29 10:25:47.625000,-77.48,65.2
193781,2018-06-29 10:25:47.656250,-91.83,65.2
193782,2018-06-29 10:25:47.687500,-96.02,65.2
193783,2018-06-29 10:25:47.718750,-80.49,65.2
193784,2018-06-29 10:25:47.750000,-46.79,65.2
193785,2018-06-29 10:25:47.781250,-7.22,65.2
193786,2018-06-29 10:25:47.812500,26.15,65.2
193787,2018-06-29 10:25:47.843750,48.47,65.2
193788,2018-06-29 10:25:47.875000,59.85,65.2
193789,2018-06-29 10:25:47.906250,61.47,65.2
193790,2018-06-29 10:25:47.937500,55.73,65.2
193791,2018-06-29 10:25:47.968750,47.17,65.2
193792,2018-06-29 10:25:48.000000,39.8,65.2
193793,2018-06-29 10:25:48.031250,34.59,65.2
193794,2018-06-29 10:25:48.062500,30.82,65.2
193795,2018-06-29 10:25:48.093750,27.74,65.2
193796,2018-06-29 10:25:48.125000,23.73,65.2
193797,2018-06-29 10:25:48.156250,16.36,65.2
193798,2018-06-29 10:25:48.187500,5.79,65.2
193799,2018-06-29 10:25:48.218750,-3.47,65.2
193800,2018-06-29 10:25:48.250000,-7.54,65.2
193801,2018-06-29 10:25:48.281250,-9.3,65.2
193802,2018-06-29 10:25:48.312500,-15.97,65.2
193803,2018-06-29 10:25:48.343750,-29.38,65.2
193804,2018-06-29 10:25:48.375000,-43.28,65.2
193805,2018-06-29 10:25:48.406250,-51.27,65.2
193806,2018-06-29 10:25:48.437500,-53.31,65.2
193807,2018-06-29 10:25:48.468750,-54.02,65.2
193808,2018-06-29 10:25:48.500000,-58.56,65.2
193809,2018-06-29 10:25:48.531250,-68.43,65.32
193810,2018-06-29 10:25:48.562500,-75.85,65.32
193811,2018-06-29 10:25:48.593750,-66.77,65.32
193812,2018-06-29 10:25:48.625000,-36.11,65.32
193813,2018-06-29 10:25:48.656250,3.81,65.32
193814,2018-06-29 10:25:48.687500,36.67,65.32
193815,2018-06-29 10:25:48.718750,57.95,65.32
193816,2018-06-29 10:25:48.750000,72.23,65.32
193817,2018-06-29 10:25:48.781250,82.48,65.32
193818,2018-06-29 10:25:48.812500,88.27,65.32
193819,2018-06-29 10:25:48.843750,89.49,65.32
193820,2018-06-29 10:25:48.875000,88.15,65.32
193821,2018-06-29 10:25:48.906250,86.9,65.32
193822,2018-06-29 10:25:48.937500,86.7,65.32
193823,2018-06-29 10:25:48.968750,86.32,65.32
193824,2018-06-29 10:25:49.000000,84.46,65.32
193825,2018-06-29 10:25:49.031250,81.51,65.32
193826,2018-06-29 10:25:49.062500,79.09,65.32
193827,2018-06-29 10:25:49.093750,78.09,65.32
193828,2018-06-29 10:25:49.125000,77.08,65.32
193829,2018-06-29 10:25:49.156250,73.11,65.32
193830,2018-06-29 10:25:49.187500,64.66,65.32
193831,2018-06-29 10:25:49.218750,52.34,65.32
193832,2018-06-29 10:25:49.250000,37.5,65.32
193833,2018-06-29 10:25:49.281250,21.38,65.32
193834,2018-06-29 10:25:49.312500,4.81,65.32
193835,2018-06-29 10:25:49.343750,-12.55,65.32
193836,2018-06-29 10:25:49.375000,-31.46,65.32
193837,2018-06-29 10:25:49.406250,-51.78,65.32
193838,2018-06-29 10:25:49.437500,-74.26,65.32
193839,2018-06-29 10:25:49.468750,-100.16,65.32
193840,2018-06-29 10:25:49.500000,-124.2,65.32
193841,2018-06-29 10:25:49.531250,-133.47,65.45
193842,2018-06-29 10:25:49.562500,-121.24,65.45
193843,2018-06-29 10:25:49.593750,-95.74,65.45
193844,2018-06-29 10:25:49.625000,-69.01,65.45
193845,2018-06-29 10:25:49.656250,-45.44,65.45
193846,2018-06-29 10:25:49.687500,-24.84,65.45
193847,2018-06-29 10:25:49.718750,-8.14,65.45
193848,2018-06-29 10:25:49.750000,3.77,65.45
193849,2018-06-29 10:25:49.781250,12.3,65.45
193850,2018-06-29 10:25:49.812500,19.87,65.45
193851,2018-06-29 10:25:49.843750,27.8,65.45
193852,2018-06-29 10:25:49.875000,35.66,65.45
193853,2018-06-29 10:25:49.906250,42.75,65.45
193854,2018-06-29 10:25:49.937500,48.81,65.45
193855,2018-06-29 10:25:49.968750,52.25,65.45
193856,2018-06-29 10:25:50.000000,50.74,65.45
193857,2018-06-29 10:25:50.031250,43.61,65.45
193858,2018-06-29 10:25:50.062500,31.95,65.45
193859,2018-06-29 10:25:50.093750,17.41,65.45
193860,2018-06-29 10:25:50.125000,2.05,65.45
193861,2018-06-29 10:25:50.156250,-13.03,65.45
193862,2018-06-29 10:25:50.187500,-29.62,65.45
193863,2018-06-29 10:25:50.218750,-49.56,65.45
193864,2018-06-29 10:25:50.250000,-70.67,65.45
193865,2018-06-29 10:25:50.281250,-89.17,65.45
193866,2018-06-29 10:25:50.312500,-105.1,65.45
193867,2018-06-29 10:25:50.343750,-122.7,65.45
193868,2018-06-29 10:25:50.375000,-146.36,65.45
193869,2018-06-29 10:25:50.406250,-174.94,65.45
193870,2018-06-29 10:25:50.437500,-196.08,65.45
193871,2018-06-29 10:25:50.468750,-193.01,65.45
193872,2018-06-29 10:25:50.500000,-164.11,65.45
193873,2018-06-29 10:25:50.531250,-126.4,65.45
193874,2018-06-29 10:25:50.562500,-93.27,65.45
193875,2018-06-29 10:25:50.593750,-61.71,65.45
193876,2018-06-29 10:25:50.625000,-26.29,65.45
193877,2018-06-29 10:25:50.656250,8.41,65.45
193878,2018-06-29 10:25:50.687500,35.42,65.45
193879,2018-06-29 10:25:50.718750,54.96,65.45
193880,2018-06-29 10:25:50.750000,70.74,65.45
193881,2018-06-29 10:25:50.781250,84.24,65.45
193882,2018-06-29 10:25:50.812500,97.05,65.45
193883,2018-06-29 10:25:50.843750,111.82,65.45
193884,2018-06-29 10:25:50.875000,125.93,65.45
193885,2018-06-29 10:25:50.906250,131.47,65.45
193886,2018-06-29 10:25:50.937500,125.51,65.45
193887,2018-06-29 10:25:50.968750,113.87,65.45
193888,2018-06-29 10:25:51.000000,102.81,65.45
193889,2018-06-29 10:25:51.031250,92.61,65.45
193890,2018-06-29 10:25:51.062500,79.92,65.45
193891,2018-06-29 10:25:51.093750,62.86,65.45
193892,2018-06-29 10:25:51.125000,42.87,65.45
193893,2018-06-29 10:25:51.156250,23.15,65.45
193894,2018-06-29 10:25:51.187500,5.18,65.45
193895,2018-06-29 10:25:51.218750,-13.01,65.45
193896,2018-06-29 10:25:51.250000,-33.88,65.45
193897,2018-06-29 10:25:51.281250,-54.06,65.45
193898,2018-06-29 10:25:51.312500,-63.15,65.45
193899,2018-06-29 10:25:51.343750,-54.49,65.45
193900,2018-06-29 10:25:51.375000,-35.14,65.45
193901,2018-06-29 10:25:51.406250,-18.25,65.45
193902,2018-06-29 10:25:51.437500,-8.32,65.45
193903,2018-06-29 10:25:51.468750,-1.8,65.45
193904,2018-06-29 10:25:51.500000,1.55,65.45
193905,2018-06-29 10:25:51.531250,-2.76,65.48
193906,2018-06-29 10:25:51.562500,-15.87,65.48
193907,2018-06-29 10:25:51.593750,-32.63,65.48
193908,2018-06-29 10:25:51.625000,-45.48,65.48
193909,2018-06-29 10:25:51.656250,-49.68,65.48
193910,2018-06-29 10:25:51.687500,-48.04,65.48
193911,2018-06-29 10:25:51.718750,-49.12,65.48
193912,2018-06-29 10:25:51.750000,-56.65,65.48
193913,2018-06-29 10:25:51.781250,-63.51,65.48
193914,2018-06-29 10:25:51.812500,-60.13,65.48
193915,2018-06-29 10:25:51.843750,-45.82,65.48
193916,2018-06-29 10:25:51.875000,-28.09,65.48
193917,2018-06-29 10:25:51.906250,-14.18,65.48
193918,2018-06-29 10:25:51.937500,-5.73,65.48
193919,2018-06-29 10:25:51.968750,-0.12,65.48
193920,2018-06-29 10:25:52.000000,5.76,65.48
193921,2018-06-29 10:25:52.031250,12.41,65.48
193922,2018-06-29 10:25:52.062500,16.26,65.48
193923,2018-06-29 10:25:52.093750,12.74,65.48
193924,2018-06-29 10:25:52.125000,4.27,65.48
193925,2018-06-29 10:25:52.156250,2.01,65.48
193926,2018-06-29 10:25:52.187500,13.67,65.48
193927,2018-06-29 10:25:52.218750,33.36,65.48
193928,2018-06-29 10:25:52.250000,48.9,65.48
193929,2018-06-29 10:25:52.281250,54.69,65.48
193930,2018-06-29 10:25:52.312500,51.47,65.48
193931,2018-06-29 10:25:52.343750,39.34,65.48
193932,2018-06-29 10:25:52.375000,18.92,65.48
193933,2018-06-29 10:25:52.406250,-2.23,65.48
193934,2018-06-29 10:25:52.437500,-11.0,65.48
193935,2018-06-29 10:25:52.468750,-0.27,65.48
193936,2018-06-29 10:25:52.500000,24.18,65.48
193937,2018-06-29 10:25:52.531250,51.09,65.55
193938,2018-06-29 10:25:52.562500,73.67,65.55
193939,2018-06-29 10:25:52.593750,89.4,65.55
193940,2018-06-29 10:25:52.625000,96.85,65.55
193941,2018-06-29 10:25:52.656250,96.95,65.55
193942,2018-06-29 10:25:52.687500,92.8,65.55
193943,2018-06-29 10:25:52.718750,86.46,65.55
193944,2018-06-29 10:25:52.750000,78.86,65.55
193945,2018-06-29 10:25:52.781250,71.99,65.55
193946,2018-06-29 10:25:52.812500,67.24,65.55
193947,2018-06-29 10:25:52.843750,62.39,65.55
193948,2018-06-29 10:25:52.875000,52.77,65.55
193949,2018-06-29 10:25:52.906250,36.78,65.55
193950,2018-06-29 10:25:52.937500,18.03,65.55
193951,2018-06-29 10:25:52.968750,0.82,65.55
193952,2018-06-29 10:25:53.000000,-15.27,65.55
193953,2018-06-29 10:25:53.031250,-34.88,65.55
193954,2018-06-29 10:25:53.062500,-60.92,65.55
193955,2018-06-29 10:25:53.093750,-88.14,65.55
193956,2018-06-29 10:25:53.125000,-102.77,65.55
193957,2018-06-29 10:25:53.156250,-95.34,65.55
193958,2018-06-29 10:25:53.187500,-73.86,65.55
193959,2018-06-29 10:25:53.218750,-55.71,65.55
193960,2018-06-29 10:25:53.250000,-48.41,65.55
193961,2018-06-29 10:25:53.281250,-47.63,65.55
193962,2018-06-29 10:25:53.312500,-49.78,65.55
193963,2018-06-29 10:25:53.343750,-56.3,65.55
193964,2018-06-29 10:25:53.375000,-67.99,65.55
193965,2018-06-29 10:25:53.406250,-81.29,65.55
193966,2018-06-29 10:25:53.437500,-89.49,65.55
193967,2018-06-29 10:25:53.468750,-86.91,65.55
193968,2018-06-29 10:25:53.500000,-72.89,65.55
193969,2018-06-29 10:25:53.531250,-51.96,65.6
193970,2018-06-29 10:25:53.562500,-30.01,65.6
193971,2018-06-29 10:25:53.593750,-10.98,65.6
193972,2018-06-29 10:25:53.625000,3.32,65.6
193973,2018-06-29 10:25:53.656250,12.8,65.6
193974,2018-06-29 10:25:53.687500,18.91,65.6
193975,2018-06-29 10:25:53.718750,22.69,65.6
193976,2018-06-29 10:25:53.750000,23.39,65.6
193977,2018-06-29 10:25:53.781250,20.56,65.6
193978,2018-06-29 10:25:53.812500,15.96,65.6
193979,2018-06-29 10:25:53.843750,12.0,65.6
193980,2018-06-29 10:25:53.875000,8.48,65.6
193981,2018-06-29 10:25:53.906250,2.07,65.6
193982,2018-06-29 10:25:53.937500,-9.65,65.6
193983,2018-06-29 10:25:53.968750,-24.41,65.6
193984,2018-06-29 10:25:54.000000,-37.34,65.6
193985,2018-06-29 10:25:54.031250,-46.89,65.6
193986,2018-06-29 10:25:54.062500,-57.19,65.6
193987,2018-06-29 10:25:54.093750,-73.98,65.6
193988,2018-06-29 10:25:54.125000,-96.56,65.6
193989,2018-06-29 10:25:54.156250,-112.86,65.6
193990,2018-06-29 10:25:54.187500,-108.23,65.6
193991,2018-06-29 10:25:54.218750,-81.16,65.6
193992,2018-06-29 10:25:54.250000,-44.44,65.6
193993,2018-06-29 10:25:54.281250,-10.06,65.6
193994,2018-06-29 10:25:54.312500,19.03,65.6
193995,2018-06-29 10:25:54.343750,43.13,65.6
193996,2018-06-29 10:25:54.375000,61.21,65.6
193997,2018-06-29 10:25:54.406250,73.07,65.6
193998,2018-06-29 10:25:54.437500,80.72,65.6
193999,2018-06-29 10:25:54.468750,85.53,65.6
194000,2018-06-29 10:25:54.500000,87.71,65.6
194001,2018-06-29 10:25:54.531250,87.99,65.62
194002,2018-06-29 10:25:54.562500,87.73,65.62
194003,2018-06-29 10:25:54.593750,85.94,65.62
194004,2018-06-29 10:25:54.625000,79.62,65.62
194005,2018-06-29 10:25:54.656250,67.93,65.62
194006,2018-06-29 10:25:54.687500,52.25,65.62
194007,2018-06-29 10:25:54.718750,34.63,65.62
194008,2018-06-29 10:25:54.750000,16.95,65.62
194009,2018-06-29 10:25:54.781250,3.0,65.62
194010,2018-06-29 10:25:54.812500,-6.43,65.62
194011,2018-06-29 10:25:54.843750,-11.44,65.62
194012,2018-06-29 10:25:54.875000,-11.1,65.62
194013,2018-06-29 10:25:54.906250,-3.46,65.62
194014,2018-06-29 10:25:54.937500,8.98,65.62
194015,2018-06-29 10:25:54.968750,16.51,65.62
194016,2018-06-29 10:25:55.000000,16.71,65.62
194017,2018-06-29 10:25:55.031250,13.18,65.62
194018,2018-06-29 10:25:55.062500,11.59,65.62
194019,2018-06-29 10:25:55.093750,7.49,65.62
194020,2018-06-29 10:25:55.125000,2.66,65.62
194021,2018-06-29 10:25:55.156250,5.97,65.62
194022,2018-06-29 10:25:55.187500,22.63,65.62
194023,2018-06-29 10:25:55.218750,50.72,65.62
194024,2018-06-29 10:25:55.250000,82.0,65.62
194025,2018-06-29 10:25:55.281250,115.01,65.62
194026,2018-06-29 10:25:55.312500,121.12,65.62
194027,2018-06-29 10:25:55.343750,88.22,65.62
194028,2018-06-29 10:25:55.375000,58.14,65.62
194029,2018-06-29 10:25:55.406250,17.5,65.62
194030,2018-06-29 10:25:55.437500,-37.79,65.62
194031,2018-06-29 10:25:55.468750,-88.4,65.62
194032,2018-06-29 10:25:55.500000,-116.35,65.62
194033,2018-06-29 10:25:55.531250,-125.08,65.6
194034,2018-06-29 10:25:55.562500,-123.89,65.6
194035,2018-06-29 10:25:55.593750,-113.88,65.6
194036,2018-06-29 10:25:55.625000,-86.91,65.6
194037,2018-06-29 10:25:55.656250,-41.44,65.6
194038,2018-06-29 10:25:55.687500,27.46,65.6
194039,2018-06-29 10:25:55.718750,86.17,65.6
194040,2018-06-29 10:25:55.750000,129.05,65.6
194041,2018-06-29 10:25:55.781250,171.91,65.6
194042,2018-06-29 10:25:55.812500,211.39,65.6
194043,2018-06-29 10:25:55.843750,244.09,65.6
194044,2018-06-29 10:25:55.875000,268.34,65.6
194045,2018-06-29 10:25:55.906250,287.23,65.6
194046,2018-06-29 10:25:55.937500,296.48,65.6
194047,2018-06-29 10:25:55.968750,288.15,65.6
194048,2018-06-29 10:25:56.000000,257.95,65.6
194049,2018-06-29 10:25:56.031250,213.02,65.6
194050,2018-06-29 10:25:56.062500,164.48,65.6
194051,2018-06-29 10:25:56.093750,120.55,65.6
194052,2018-06-29 10:25:56.125000,81.28,65.6
194053,2018-06-29 10:25:56.156250,45.32,65.6
194054,2018-06-29 10:25:56.187500,10.5,65.6
194055,2018-06-29 10:25:56.218750,-22.96,65.6
194056,2018-06-29 10:25:56.250000,-49.43,65.6
194057,2018-06-29 10:25:56.281250,-65.55,65.6
194058,2018-06-29 10:25:56.312500,-76.44,65.6
194059,2018-06-29 10:25:56.343750,-90.43,65.6
194060,2018-06-29 10:25:56.375000,-107.78,65.6
194061,2018-06-29 10:25:56.406250,-123.5,65.6
194062,2018-06-29 10:25:56.437500,-132.5,65.6
194063,2018-06-29 10:25:56.468750,-132.94,65.6
194064,2018-06-29 10:25:56.500000,-129.55,65.6
194065,2018-06-29 10:25:56.531250,-133.2,65.55
194066,2018-06-29 10:25:56.562500,-150.17,65.55
194067,2018-06-29 10:25:56.593750,-176.93,65.55
194068,2018-06-29 10:25:56.625000,-205.87,65.55
194069,2018-06-29 10:25:56.656250,-231.41,65.55
194070,2018-06-29 10:25:56.687500,-250.71,65.55
194071,2018-06-29 10:25:56.718750,-263.67,65.55
194072,2018-06-29 10:25:56.750000,-274.06,65.55
194073,2018-06-29 10:25:56.781250,-282.81,65.55
194074,2018-06-29 10:25:56.812500,-287.6,65.55
194075,2018-06-29 10:25:56.843750,-285.8,65.55
194076,2018-06-29 10:25:56.875000,-281.15,65.55
194077,2018-06-29 10:25:56.906250,-272.81,65.55
194078,2018-06-29 10:25:56.937500,-253.69,65.55
194079,2018-06-29 10:25:56.968750,-226.01,65.55
194080,2018-06-29 10:25:57.000000,-202.86,65.55
194081,2018-06-29 10:25:57.031250,-195.48,65.55
194082,2018-06-29 10:25:57.062500,-189.86,65.55
194083,2018-06-29 10:25:57.093750,-181.12,65.55
194084,2018-06-29 10:25:57.125000,-176.07,65.55
194085,2018-06-29 10:25:57.156250,-181.77,65.55
194086,2018-06-29 10:25:57.187500,-182.14,65.55
194087,2018-06-29 10:25:57.218750,-163.19,65.55
194088,2018-06-29 10:25:57.250000,-138.84,65.55
194089,2018-06-29 10:25:57.281250,-119.11,65.55
194090,2018-06-29 10:25:57.312500,-100.99,65.55
194091,2018-06-29 10:25:57.343750,-53.11,65.55
194092,2018-06-29 10:25:57.375000,23.28,65.55
194093,2018-06-29 10:25:57.406250,131.0,65.55
194094,2018-06-29 10:25:57.437500,296.28,65.55
194095,2018-06-29 10:25:57.468750,378.91,65.55
194096,2018-06-29 10:25:57.500000,357.43,65.55
194097,2018-06-29 10:25:57.531250,286.41,65.4
194098,2018-06-29 10:25:57.562500,207.03,65.4
194099,2018-06-29 10:25:57.593750,132.68,65.4
194100,2018-06-29 10:25:57.625000,93.17,65.4
194101,2018-06-29 10:25:57.656250,90.78,65.4
194102,2018-06-29 10:25:57.687500,103.47,65.4
194103,2018-06-29 10:25:57.718750,109.24,65.4
194104,2018-06-29 10:25:57.750000,112.25,65.4
194105,2018-06-29 10:25:57.781250,127.08,65.4
194106,2018-06-29 10:25:57.812500,134.26,65.4
194107,2018-06-29 10:25:57.843750,108.79,65.4
194108,2018-06-29 10:25:57.875000,56.19,65.4
194109,2018-06-29 10:25:57.906250,18.01,65.4
194110,2018-06-29 10:25:57.937500,10.33,65.4
194111,2018-06-29 10:25:57.968750,23.5,65.4
194112,2018-06-29 10:25:58.000000,47.93,65.4
194113,2018-06-29 10:25:58.031250,80.52,65.4
194114,2018-06-29 10:25:58.062500,111.24,65.4
194115,2018-06-29 10:25:58.093750,124.24,65.4
194116,2018-06-29 10:25:58.125000,115.93,65.4
194117,2018-06-29 10:25:58.156250,92.2,65.4
194118,2018-06-29 10:25:58.187500,63.07,65.4
194119,2018-06-29 10:25:58.218750,36.99,65.4
194120,2018-06-29 10:25:58.250000,20.21,65.4
194121,2018-06-29 10:25:58.281250,14.26,65.4
194122,2018-06-29 10:25:58.312500,15.37,65.4
194123,2018-06-29 10:25:58.343750,17.51,65.4
194124,2018-06-29 10:25:58.375000,16.7,65.4
194125,2018-06-29 10:25:58.406250,13.37,65.4
194126,2018-06-29 10:25:58.437500,9.93,65.4
194127,2018-06-29 10:25:58.468750,6.76,65.4
194128,2018-06-29 10:25:58.500000,2.04,65.4
194129,2018-06-29 10:25:58.531250,-5.46,65.33
194130,2018-06-29 10:25:58.562500,-15.28,65.33
194131,2018-06-29 10:25:58.593750,-25.99,65.33
194132,2018-06-29 10:25:58.625000,-36.4,65.33
194133,2018-06-29 10:25:58.656250,-47.57,65.33
194134,2018-06-29 10:25:58.687500,-61.6,65.33
194135,2018-06-29 10:25:58.718750,-74.92,65.33
194136,2018-06-29 10:25:58.750000,-76.13,65.33
194137,2018-06-29 10:25:58.781250,-57.65,65.33
194138,2018-06-29 10:25:58.812500,-26.17,65.33
194139,2018-06-29 10:25:58.843750,4.06,65.33
194140,2018-06-29 10:25:58.875000,23.95,65.33
194141,2018-06-29 10:25:58.906250,30.97,65.33
194142,2018-06-29 10:25:58.937500,26.06,65.33
194143,2018-06-29 10:25:58.968750,16.21,65.33
194144,2018-06-29 10:25:59.000000,12.28,65.33
194145,2018-06-29 10:25:59.031250,18.18,65.33
194146,2018-06-29 10:25:59.062500,28.24,65.33
194147,2018-06-29 10:25:59.093750,36.35,65.33
194148,2018-06-29 10:25:59.125000,40.39,65.33
194149,2018-06-29 10:25:59.156250,38.87,65.33
194150,2018-06-29 10:25:59.187500,32.02,65.33
194151,2018-06-29 10:25:59.218750,24.26,65.33
194152,2018-06-29 10:25:59.250000,18.72,65.33
194153,2018-06-29 10:25:59.281250,12.31,65.33
194154,2018-06-29 10:25:59.312500,0.6,65.33
194155,2018-06-29 10:25:59.343750,-15.87,65.33
194156,2018-06-29 10:25:59.375000,-33.75,65.33
194157,2018-06-29 10:25:59.406250,-52.34,65.33
194158,2018-06-29 10:25:59.437500,-73.51,65.33
194159,2018-06-29 10:25:59.468750,-96.2,65.33
194160,2018-06-29 10:25:59.500000,-111.06,65.33
194161,2018-06-29 10:25:59.531250,-102.99,65.35
194162,2018-06-29 10:25:59.562500,-63.64,65.35
194163,2018-06-29 10:25:59.593750,-3.61,65.35
194164,2018-06-29 10:25:59.625000,54.36,65.35
194165,2018-06-29 10:25:59.656250,97.45,65.35
194166,2018-06-29 10:25:59.687500,130.35,65.35
194167,2018-06-29 10:25:59.718750,159.42,65.35
194168,2018-06-29 10:25:59.750000,180.86,65.35
194169,2018-06-29 10:25:59.781250,187.33,65.35
194170,2018-06-29 10:25:59.812500,175.99,65.35
194171,2018-06-29 10:25:59.843750,148.99,65.35
194172,2018-06-29 10:25:59.875000,114.42,65.35
194173,2018-06-29 10:25:59.906250,82.49,65.35
194174,2018-06-29 10:25:59.937500,55.65,65.35
194175,2018-06-29 10:25:59.968750,28.79,65.35
194176,2018-06-29 10:26:00.000000,2.33,65.35
194177,2018-06-29 10:26:00.031250,-13.78,65.35
194178,2018-06-29 10:26:00.062500,-12.03,65.35
194179,2018-06-29 10:26:00.093750,4.22,65.35
194180,2018-06-29 10:26:00.125000,24.93,65.35
194181,2018-06-29 10:26:00.156250,40.66,65.35
194182,2018-06-29 10:26:00.187500,45.26,65.35
194183,2018-06-29 10:26:00.218750,34.4,65.35
194184,2018-06-29 10:26:00.250000,3.5,65.35
194185,2018-06-29 10:26:00.281250,-48.3,65.35
194186,2018-06-29 10:26:00.312500,-109.38,65.35
194187,2018-06-29 10:26:00.343750,-155.23,65.35
194188,2018-06-29 10:26:00.375000,-164.31,65.35
194189,2018-06-29 10:26:00.406250,-135.03,65.35
194190,2018-06-29 10:26:00.437500,-83.86,65.35
194191,2018-06-29 10:26:00.468750,-30.43,65.35
194192,2018-06-29 10:26:00.500000,11.72,65.35
194193,2018-06-29 10:26:00.531250,36.13,65.28
194194,2018-06-29 10:26:00.562500,44.39,65.28
194195,2018-06-29 10:26:00.593750,45.17,65.28
194196,2018-06-29 10:26:00.625000,46.82,65.28
194197,2018-06-29 10:26:00.656250,50.39,65.28
194198,2018-06-29 10:26:00.687500,52.09,65.28
194199,2018-06-29 10:26:00.718750,51.47,65.28
194200,2018-06-29 10:26:00.750000,52.3,65.28
194201,2018-06-29 10:26:00.781250,55.8,65.28
194202,2018-06-29 10:26:00.812500,58.27,65.28
194203,2018-06-29 10:26:00.843750,56.38,65.28
194204,2018-06-29 10:26:00.875000,50.16,65.28
194205,2018-06-29 10:26:00.906250,40.97,65.28
194206,2018-06-29 10:26:00.937500,30.47,65.28
194207,2018-06-29 10:26:00.968750,21.75,65.28
194208,2018-06-29 10:26:01.000000,17.73,65.28
194209,2018-06-29 10:26:01.031250,17.36,65.28
194210,2018-06-29 10:26:01.062500,15.46,65.28
194211,2018-06-29 10:26:01.093750,7.55,65.28
194212,2018-06-29 10:26:01.125000,-5.63,65.28
194213,2018-06-29 10:26:01.156250,-20.31,65.28
194214,2018-06-29 10:26:01.187500,-35.27,65.28
194215,2018-06-29 10:26:01.218750,-51.89,65.28
194216,2018-06-29 10:26:01.250000,-69.12,65.28
194217,2018-06-29 10:26:01.281250,-82.35,65.28
194218,2018-06-29 10:26:01.312500,-84.22,65.28
194219,2018-06-29 10:26:01.343750,-66.52,65.28
194220,2018-06-29 10:26:01.375000,-29.33,65.28
194221,2018-06-29 10:26:01.406250,12.75,65.28
194222,2018-06-29 10:26:01.437500,42.93,65.28
194223,2018-06-29 10:26:01.468750,57.56,65.28
194224,2018-06-29 10:26:01.500000,62.26,65.28
194225,2018-06-29 10:26:01.531250,60.71,65.22
194226,2018-06-29 10:26:01.562500,53.97,65.22
194227,2018-06-29 10:26:01.593750,43.73,65.22
194228,2018-06-29 10:26:01.625000,31.82,65.22
194229,2018-06-29 10:26:01.656250,19.64,65.22
194230,2018-06-29 10:26:01.687500,9.02,65.22
194231,2018-06-29 10:26:01.718750,1.39,65.22
194232,2018-06-29 10:26:01.750000,-4.2,65.22
194233,2018-06-29 10:26:01.781250,-10.08,65.22
194234,2018-06-29 10:26:01.812500,-17.5,65.22
194235,2018-06-29 10:26:01.843750,-26.05,65.22
194236,2018-06-29 10:26:01.875000,-34.61,65.22
194237,2018-06-29 10:26:01.906250,-42.19,65.22
194238,2018-06-29 10:26:01.937500,-49.37,65.22
194239,2018-06-29 10:26:01.968750,-58.43,65.22
194240,2018-06-29 10:26:02.000000,-69.75,65.22
194241,2018-06-29 10:26:02.031250,-78.92,65.22
194242,2018-06-29 10:26:02.062500,-79.63,65.22
194243,2018-06-29 10:26:02.093750,-68.14,65.22
194244,2018-06-29 10:26:02.125000,-45.2,65.22
194245,2018-06-29 10:26:02.156250,-16.89,65.22
194246,2018-06-29 10:26:02.187500,7.04,65.22
194247,2018-06-29 10:26:02.218750,20.06,65.22
194248,2018-06-29 10:26:02.250000,22.81,65.22
194249,2018-06-29 10:26:02.281250,17.81,65.22
194250,2018-06-29 10:26:02.312500,5.46,65.22
194251,2018-06-29 10:26:02.343750,-10.1,65.22
194252,2018-06-29 10:26:02.375000,-17.62,65.22
194253,2018-06-29 10:26:02.406250,-9.35,65.22
194254,2018-06-29 10:26:02.437500,8.96,65.22
194255,2018-06-29 10:26:02.468750,25.61,65.22
194256,2018-06-29 10:26:02.500000,35.21,65.22
194257,2018-06-29 10:26:02.531250,37.74,65.13
194258,2018-06-29 10:26:02.562500,33.14,65.13
194259,2018-06-29 10:26:02.593750,23.56,65.13
194260,2018-06-29 10:26:02.625000,14.33,65.13
194261,2018-06-29 10:26:02.656250,8.4,65.13
194262,2018-06-29 10:26:02.687500,4.43,65.13
194263,2018-06-29 10:26:02.718750,1.91,65.13
194264,2018-06-29 10:26:02.750000,3.61,65.13
194265,2018-06-29 10:26:02.781250,10.9,65.13
194266,2018-06-29 10:26:02.812500,20.75,65.13
194267,2018-06-29 10:26:02.843750,29.64,65.13
194268,2018-06-29 10:26:02.875000,37.28,65.13
194269,2018-06-29 10:26:02.906250,43.95,65.13
194270,2018-06-29 10:26:02.937500,47.14,65.13
194271,2018-06-29 10:26:02.968750,43.23,65.13
194272,2018-06-29 10:26:03.000000,31.08,65.13
194273,2018-06-29 10:26:03.031250,12.61,65.13
194274,2018-06-29 10:26:03.062500,-8.42,65.13
194275,2018-06-29 10:26:03.093750,-27.7,65.13
194276,2018-06-29 10:26:03.125000,-42.55,65.13
194277,2018-06-29 10:26:03.156250,-53.55,65.13
194278,2018-06-29 10:26:03.187500,-62.47,65.13
194279,2018-06-29 10:26:03.218750,-69.04,65.13
194280,2018-06-29 10:26:03.250000,-72.51,65.13
194281,2018-06-29 10:26:03.281250,-74.71,65.13
194282,2018-06-29 10:26:03.312500,-78.58,65.13
194283,2018-06-29 10:26:03.343750,-84.6,65.13
194284,2018-06-29 10:26:03.375000,-89.54,65.13
194285,2018-06-29 10:26:03.406250,-87.06,65.13
194286,2018-06-29 10:26:03.437500,-72.33,65.13
194287,2018-06-29 10:26:03.468750,-48.62,65.13
194288,2018-06-29 10:26:03.500000,-25.79,65.13
194289,2018-06-29 10:26:03.531250,-11.25,65.07
194290,2018-06-29 10:26:03.562500,-6.17,65.07
194291,2018-06-29 10:26:03.593750,-8.91,65.07
194292,2018-06-29 10:26:03.625000,-17.2,65.07
194293,2018-06-29 10:26:03.656250,-27.5,65.07
194294,2018-06-29 10:26:03.687500,-36.06,65.07
194295,2018-06-29 10:26:03.718750,-42.13,65.07
194296,2018-06-29 10:26:03.750000,-48.8,65.07
194297,2018-06-29 10:26:03.781250,-59.17,65.07
194298,2018-06-29 10:26:03.812500,-72.87,65.07
194299,2018-06-29 10:26:03.843750,-87.16,65.07
194300,2018-06-29 10:26:03.875000,-99.03,65.07
194301,2018-06-29 10:26:03.906250,-104.52,65.07
194302,2018-06-29 10:26:03.937500,-98.96,65.07
194303,2018-06-29 10:26:03.968750,-80.07,65.07
194304,2018-06-29 10:26:04.000000,-50.22,65.07
194305,2018-06-29 10:26:04.031250,-14.75,65.07
194306,2018-06-29 10:26:04.062500,20.23,65.07
194307,2018-06-29 10:26:04.093750,48.46,65.07
194308,2018-06-29 10:26:04.125000,66.17,65.07
194309,2018-06-29 10:26:04.156250,74.54,65.07
194310,2018-06-29 10:26:04.187500,76.83,65.07
194311,2018-06-29 10:26:04.218750,73.87,65.07
194312,2018-06-29 10:26:04.250000,63.73,65.07
194313,2018-06-29 10:26:04.281250,46.39,65.07
194314,2018-06-29 10:26:04.312500,29.53,65.07
194315,2018-06-29 10:26:04.343750,24.77,65.07
194316,2018-06-29 10:26:04.375000,34.1,65.07
194317,2018-06-29 10:26:04.406250,46.15,65.07
194318,2018-06-29 10:26:04.437500,49.96,65.07
194319,2018-06-29 10:26:04.468750,44.59,65.07
194320,2018-06-29 10:26:04.500000,33.72,65.07
194321,2018-06-29 10:26:04.531250,19.27,64.97
194322,2018-06-29 10:26:04.562500,3.1,64.97
194323,2018-06-29 10:26:04.593750,-10.61,64.97
194324,2018-06-29 10:26:04.625000,-18.34,64.97
194325,2018-06-29 10:26:04.656250,-20.47,64.97
194326,2018-06-29 10:26:04.687500,-19.35,64.97
194327,2018-06-29 10:26:04.718750,-16.3,64.97
194328,2018-06-29 10:26:04.750000,-12.43,64.97
194329,2018-06-29 10:26:04.781250,-9.71,64.97
194330,2018-06-29 10:26:04.812500,-9.41,64.97
194331,2018-06-29 10:26:04.843750,-10.79,64.97
194332,2018-06-29 10:26:04.875000,-12.1,64.97
194333,2018-06-29 10:26:04.906250,-12.39,64.97
194334,2018-06-29 10:26:04.937500,-11.94,64.97
194335,2018-06-29 10:26:04.968750,-11.78,64.97
194336,2018-06-29 10:26:05.000000,-13.1,64.97
194337,2018-06-29 10:26:05.031250,-16.84,64.97
194338,2018-06-29 10:26:05.062500,-22.8,64.97
194339,2018-06-29 10:26:05.093750,-30.2,64.97
194340,2018-06-29 10:26:05.125000,-39.18,64.97
194341,2018-06-29 10:26:05.156250,-50.63,64.97
194342,2018-06-29 10:26:05.187500,-64.41,64.97
194343,2018-06-29 10:26:05.218750,-76.52,64.97
194344,2018-06-29 10:26:05.250000,-78.37,64.97
194345,2018-06-29 10:26:05.281250,-63.66,64.97
194346,2018-06-29 10:26:05.312500,-37.18,64.97
194347,2018-06-29 10:26:05.343750,-10.96,64.97
194348,2018-06-29 10:26:05.375000,8.54,64.97
194349,2018-06-29 10:26:05.406250,23.46,64.97
194350,2018-06-29 10:26:05.437500,36.65,64.97
194351,2018-06-29 10:26:05.468750,47.82,64.97
194352,2018-06-29 10:26:05.500000,56.01,64.97
194353,2018-06-29 10:26:05.531250,61.63,64.88
194354,2018-06-29 10:26:05.562500,66.58,64.88
194355,2018-06-29 10:26:05.593750,72.58,64.88
194356,2018-06-29 10:26:05.625000,79.64,64.88
194357,2018-06-29 10:26:05.656250,86.04,64.88
194358,2018-06-29 10:26:05.687500,89.01,64.88
194359,2018-06-29 10:26:05.718750,86.1,64.88
194360,2018-06-29 10:26:05.750000,77.79,64.88
194361,2018-06-29 10:26:05.781250,67.48,64.88
194362,2018-06-29 10:26:05.812500,57.42,64.88
194363,2018-06-29 10:26:05.843750,46.61,64.88
194364,2018-06-29 10:26:05.875000,33.83,64.88
194365,2018-06-29 10:26:05.906250,20.49,64.88
194366,2018-06-29 10:26:05.937500,8.87,64.88
194367,2018-06-29 10:26:05.968750,-1.14,64.88
194368,2018-06-29 10:26:06.000000,-11.99,64.88
194369,2018-06-29 10:26:06.031250,-24.77,64.88
194370,2018-06-29 10:26:06.062500,-37.2,64.88
194371,2018-06-29 10:26:06.093750,-47.37,64.88
194372,2018-06-29 10:26:06.125000,-57.47,64.88
194373,2018-06-29 10:26:06.156250,-71.6,64.88
194374,2018-06-29 10:26:06.187500,-89.1,64.88
194375,2018-06-29 10:26:06.218750,-100.75,64.88
194376,2018-06-29 10:26:06.250000,-94.54,64.88
194377,2018-06-29 10:26:06.281250,-68.06,64.88
194378,2018-06-29 10:26:06.312500,-32.15,64.88
194379,2018-06-29 10:26:06.343750,0.52,64.88
194380,2018-06-29 10:26:06.375000,25.96,64.88
194381,2018-06-29 10:26:06.406250,45.69,64.88
194382,2018-06-29 10:26:06.437500,59.26,64.88
194383,2018-06-29 10:26:06.468750,64.34,64.88
194384,2018-06-29 10:26:06.500000,62.26,64.88
194385,2018-06-29 10:26:06.531250,59.16,64.77
194386,2018-06-29 10:26:06.562500,59.81,64.77
194387,2018-06-29 10:26:06.593750,62.92,64.77
194388,2018-06-29 10:26:06.625000,64.71,64.77
194389,2018-06-29 10:26:06.656250,63.53,64.77
194390,2018-06-29 10:26:06.687500,59.33,64.77
194391,2018-06-29 10:26:06.718750,52.14,64.77
194392,2018-06-29 10:26:06.750000,43.41,64.77
194393,2018-06-29 10:26:06.781250,35.94,64.77
194394,2018-06-29 10:26:06.812500,29.9,64.77
194395,2018-06-29 10:26:06.843750,21.56,64.77
194396,2018-06-29 10:26:06.875000,8.84,64.77
194397,2018-06-29 10:26:06.906250,-4.65,64.77
194398,2018-06-29 10:26:06.937500,-14.46,64.77
194399,2018-06-29 10:26:06.968750,-20.62,64.77
194400,2018-06-29 10:26:07.000000,-26.26,64.77
194401,2018-06-29 10:26:07.031250,-35.2,64.77
194402,2018-06-29 10:26:07.062500,-49.35,64.77
194403,2018-06-29 10:26:07.093750,-63.04,64.77
194404,2018-06-29 10:26:07.125000,-64.8,64.77
194405,2018-06-29 10:26:07.156250,-51.21,64.77
194406,2018-06-29 10:26:07.187500,-31.89,64.77
194407,2018-06-29 10:26:07.218750,-16.0,64.77
194408,2018-06-29 10:26:07.250000,-3.11,64.77
194409,2018-06-29 10:26:07.281250,9.45,64.77
194410,2018-06-29 10:26:07.312500,19.54,64.77
194411,2018-06-29 10:26:07.343750,24.24,64.77
194412,2018-06-29 10:26:07.375000,24.75,64.77
194413,2018-06-29 10:26:07.406250,24.39,64.77
194414,2018-06-29 10:26:07.437500,24.57,64.77
194415,2018-06-29 10:26:07.468750,24.94,64.77
194416,2018-06-29 10:26:07.500000,25.63,64.77
194417,2018-06-29 10:26:07.531250,26.95,64.67
194418,2018-06-29 10:26:07.562500,27.43,64.67
194419,2018-06-29 10:26:07.593750,25.07,64.67
194420,2018-06-29 10:26:07.625000,20.17,64.67
194421,2018-06-29 10:26:07.656250,14.88,64.67
194422,2018-06-29 10:26:07.687500,10.03,64.67
194423,2018-06-29 10:26:07.718750,4.26,64.67
194424,2018-06-29 10:26:07.750000,-3.73,64.67
194425,2018-06-29 10:26:07.781250,-13.25,64.67
194426,2018-06-29 10:26:07.812500,-22.77,64.67
194427,2018-06-29 10:26:07.843750,-32.81,64.67
194428,2018-06-29 10:26:07.875000,-46.16,64.67
194429,2018-06-29 10:26:07.906250,-64.5,64.67
194430,2018-06-29 10:26:07.937500,-87.36,64.67
194431,2018-06-29 10:26:07.968750,-112.74,64.67
194432,2018-06-29 10:26:08.000000,-133.97,64.67
194433,2018-06-29 10:26:08.031250,-139.22,64.67
194434,2018-06-29 10:26:08.062500,-121.7,64.67
194435,2018-06-29 10:26:08.093750,-88.47,64.67
194436,2018-06-29 10:26:08.125000,-54.11,64.67
194437,2018-06-29 10:26:08.156250,-27.92,64.67
194438,2018-06-29 10:26:08.187500,-8.54,64.67
194439,2018-06-29 10:26:08.218750,12.16,64.67
194440,2018-06-29 10:26:08.250000,40.78,64.67
194441,2018-06-29 10:26:08.281250,74.14,64.67
194442,2018-06-29 10:26:08.312500,96.55,64.67
194443,2018-06-29 10:26:08.343750,90.68,64.67
194444,2018-06-29 10:26:08.375000,56.08,64.67
194445,2018-06-29 10:26:08.406250,10.0,64.67
194446,2018-06-29 10:26:08.437500,-31.84,64.67
194447,2018-06-29 10:26:08.468750,-64.7,64.67
194448,2018-06-29 10:26:08.500000,-87.4,64.67
194449,2018-06-29 10:26:08.531250,-101.45,64.58
194450,2018-06-29 10:26:08.562500,-115.15,64.58
194451,2018-06-29 10:26:08.593750,-134.35,64.58
194452,2018-06-29 10:26:08.625000,-150.21,64.58
194453,2018-06-29 10:26:08.656250,-144.85,64.58
194454,2018-06-29 10:26:08.687500,-110.61,64.58
194455,2018-06-29 10:26:08.718750,-59.43,64.58
194456,2018-06-29 10:26:08.750000,-12.16,64.58
194457,2018-06-29 10:26:08.781250,18.31,64.58
194458,2018-06-29 10:26:08.812500,31.39,64.58
194459,2018-06-29 10:26:08.843750,31.19,64.58
194460,2018-06-29 10:26:08.875000,21.65,64.58
194461,2018-06-29 10:26:08.906250,8.49,64.58
194462,2018-06-29 10:26:08.937500,0.47,64.58
194463,2018-06-29 10:26:08.968750,7.92,64.58
194464,2018-06-29 10:26:09.000000,36.0,64.58
194465,2018-06-29 10:26:09.031250,77.4,64.58
194466,2018-06-29 10:26:09.062500,117.34,64.58
194467,2018-06-29 10:26:09.093750,146.8,64.58
194468,2018-06-29 10:26:09.125000,164.8,64.58
194469,2018-06-29 10:26:09.156250,171.62,64.58
194470,2018-06-29 10:26:09.187500,168.11,64.58
194471,2018-06-29 10:26:09.218750,157.64,64.58
194472,2018-06-29 10:26:09.250000,143.96,64.58
194473,2018-06-29 10:26:09.281250,130.72,64.58
194474,2018-06-29 10:26:09.312500,122.3,64.58
194475,2018-06-29 10:26:09.343750,120.86,64.58
194476,2018-06-29 10:26:09.375000,123.64,64.58
194477,2018-06-29 10:26:09.406250,125.22,64.58
194478,2018-06-29 10:26:09.437500,121.98,64.58
194479,2018-06-29 10:26:09.468750,114.58,64.58
194480,2018-06-29 10:26:09.500000,106.28,64.58
194481,2018-06-29 10:26:09.531250,99.25,64.45
194482,2018-06-29 10:26:09.562500,93.84,64.45
194483,2018-06-29 10:26:09.593750,91.17,64.45
194484,2018-06-29 10:26:09.625000,93.82,64.45
194485,2018-06-29 10:26:09.656250,100.73,64.45
194486,2018-06-29 10:26:09.687500,102.83,64.45
194487,2018-06-29 10:26:09.718750,88.66,64.45
194488,2018-06-29 10:26:09.750000,56.0,64.45
194489,2018-06-29 10:26:09.781250,14.92,64.45
194490,2018-06-29 10:26:09.812500,-23.18,64.45
194491,2018-06-29 10:26:09.843750,-56.32,64.45
194492,2018-06-29 10:26:09.875000,-88.24,64.45
194493,2018-06-29 10:26:09.906250,-114.86,64.45
194494,2018-06-29 10:26:09.937500,-120.57,64.45
194495,2018-06-29 10:26:09.968750,-93.29,64.45
194496,2018-06-29 10:26:10.000000,-37.77,64.45
194497,2018-06-29 10:26:10.031250,31.48,64.45
194498,2018-06-29 10:26:10.062500,103.27,64.45
194499,2018-06-29 10:26:10.093750,169.54,64.45
194500,2018-06-29 10:26:10.125000,218.05,64.45
194501,2018-06-29 10:26:10.156250,230.53,64.45
194502,2018-06-29 10:26:10.187500,193.71,64.45
194503,2018-06-29 10:26:10.218750,117.31,64.45
194504,2018-06-29 10:26:10.250000,31.35,64.45
194505,2018-06-29 10:26:10.281250,-41.18,64.45
194506,2018-06-29 10:26:10.312500,-98.47,64.45
194507,2018-06-29 10:26:10.343750,-145.91,64.45
194508,2018-06-29 10:26:10.375000,-183.54,64.45
194509,2018-06-29 10:26:10.406250,-208.86,64.45
194510,2018-06-29 10:26:10.437500,-223.0,64.45
194511,2018-06-29 10:26:10.468750,-232.04,64.45
194512,2018-06-29 10:26:10.500000,-240.41,64.45
194513,2018-06-29 10:26:10.531250,-243.71,64.33
194514,2018-06-29 10:26:10.562500,-232.28,64.33
194515,2018-06-29 10:26:10.593750,-200.32,64.33
194516,2018-06-29 10:26:10.625000,-150.12,64.33
194517,2018-06-29 10:26:10.656250,-93.37,64.33
194518,2018-06-29 10:26:10.687500,-48.03,64.33
194519,2018-06-29 10:26:10.718750,-27.86,64.33
194520,2018-06-29 10:26:10.750000,-34.14,64.33
194521,2018-06-29 10:26:10.781250,-56.82,64.33
194522,2018-06-29 10:26:10.812500,-78.83,64.33
194523,2018-06-29 10:26:10.843750,-83.29,64.33
194524,2018-06-29 10:26:10.875000,-65.14,64.33
194525,2018-06-29 10:26:10.906250,-34.77,64.33
194526,2018-06-29 10:26:10.937500,-6.36,64.33
194527,2018-06-29 10:26:10.968750,13.52,64.33
194528,2018-06-29 10:26:11.000000,24.32,64.33
194529,2018-06-29 10:26:11.031250,25.15,64.33
194530,2018-06-29 10:26:11.062500,15.08,64.33
194531,2018-06-29 10:26:11.093750,-3.0,64.33
194532,2018-06-29 10:26:11.125000,-22.28,64.33
194533,2018-06-29 10:26:11.156250,-35.1,64.33
194534,2018-06-29 10:26:11.187500,-36.01,64.33
194535,2018-06-29 10:26:11.218750,-25.2,64.33
194536,2018-06-29 10:26:11.250000,-11.05,64.33
194537,2018-06-29 10:26:11.281250,-5.42,64.33
194538,2018-06-29 10:26:11.312500,-11.66,64.33
194539,2018-06-29 10:26:11.343750,-20.66,64.33
194540,2018-06-29 10:26:11.375000,-21.06,64.33
194541,2018-06-29 10:26:11.406250,-11.26,64.33
194542,2018-06-29 10:26:11.437500,0.16,64.33
194543,2018-06-29 10:26:11.468750,4.25,64.33
194544,2018-06-29 10:26:11.500000,0.33,64.33
194545,2018-06-29 10:26:11.531250,-5.34,64.28
194546,2018-06-29 10:26:11.562500,-7.51,64.28
194547,2018-06-29 10:26:11.593750,-6.7,64.28
194548,2018-06-29 10:26:11.625000,-7.13,64.28
194549,2018-06-29 10:26:11.656250,-10.31,64.28
194550,2018-06-29 10:26:11.687500,-9.25,64.28
194551,2018-06-29 10:26:11.718750,5.87,64.28
194552,2018-06-29 10:26:11.750000,33.83,64.28
194553,2018-06-29 10:26:11.781250,61.52,64.28
194554,2018-06-29 10:26:11.812500,79.75,64.28
194555,2018-06-29 10:26:11.843750,91.59,64.28
194556,2018-06-29 10:26:11.875000,103.02,64.28
194557,2018-06-29 10:26:11.906250,115.02,64.28
194558,2018-06-29 10:26:11.937500,127.45,64.28
194559,2018-06-29 10:26:11.968750,142.1,64.28
194560,2018-06-29 10:26:12.000000,158.93,64.28
194561,2018-06-29 10:26:12.031250,172.18,64.28
194562,2018-06-29 10:26:12.062500,170.78,64.28
194563,2018-06-29 10:26:12.093750,145.05,64.28
194564,2018-06-29 10:26:12.125000,99.73,64.28
194565,2018-06-29 10:26:12.156250,55.91,64.28
194566,2018-06-29 10:26:12.187500,30.21,64.28
194567,2018-06-29 10:26:12.218750,18.82,64.28
194568,2018-06-29 10:26:12.250000,9.3,64.28
194569,2018-06-29 10:26:12.281250,-3.75,64.28
194570,2018-06-29 10:26:12.312500,-20.34,64.28
194571,2018-06-29 10:26:12.343750,-38.72,64.28
194572,2018-06-29 10:26:12.375000,-53.99,64.28
194573,2018-06-29 10:26:12.406250,-63.47,64.28
194574,2018-06-29 10:26:12.437500,-72.56,64.28
194575,2018-06-29 10:26:12.468750,-87.47,64.28
194576,2018-06-29 10:26:12.500000,-103.68,64.28
194577,2018-06-29 10:26:12.531250,-109.19,64.22
194578,2018-06-29 10:26:12.562500,-101.02,64.22
194579,2018-06-29 10:26:12.593750,-89.87,64.22
194580,2018-06-29 10:26:12.625000,-85.47,64.22
194581,2018-06-29 10:26:12.656250,-84.39,64.22
194582,2018-06-29 10:26:12.687500,-76.52,64.22
194583,2018-06-29 10:26:12.718750,-56.18,64.22
194584,2018-06-29 10:26:12.750000,-23.92,64.22
194585,2018-06-29 10:26:12.781250,15.15,64.22
194586,2018-06-29 10:26:12.812500,52.27,64.22
194587,2018-06-29 10:26:12.843750,79.73,64.22
194588,2018-06-29 10:26:12.875000,95.94,64.22
194589,2018-06-29 10:26:12.906250,102.71,64.22
194590,2018-06-29 10:26:12.937500,100.15,64.22
