,Time,ppg,hr
201600,2018-06-29 10:29:52.000000,-20.16,60.58
201601,2018-06-29 10:29:52.031250,9.07,60.58
201602,2018-06-29 10:29:52.062500,28.83,60.58
201603,2018-06-29 10:29:52.093750,41.33,60.58
201604,2018-06-29 10:29:52.125000,47.79,60.58
201605,2018-06-29 10:29:52.156250,48.96,60.58
201606,2018-06-29 10:29:52.187500,46.91,60.58
201607,2018-06-29 10:29:52.218750,44.4,60.58
201608,2018-06-29 10:29:52.250000,42.4,60.58
201609,2018-06-29 10:29:52.281250,39.93,60.58
201610,2018-06-29 10:29:52.312500,36.39,60.58
201611,2018-06-29 10:29:52.343750,31.92,60.58
201612,2018-06-29 10:29:52.375000,25.35,60.58
201613,2018-06-29 10:29:52.406250,15.13,60.58
201614,2018-06-29 10:29:52.437500,2.92,60.58
201615,2018-06-29 10:29:52.468750,-7.26,60.58
201616,2018-06-29 10:29:52.500000,-14.25,60.58
201617,2018-06-29 10:29:52.531250,-21.08,60.52
201618,2018-06-29 10:29:52.562500,-29.44,60.52
201619,2018-06-29 10:29:52.593750,-36.3,60.52
201620,2018-06-29 10:29:52.625000,-38.96,60.52
201621,2018-06-29 10:29:52.656250,-39.54,60.52
201622,2018-06-29 10:29:52.687500,-42.47,60.52
201623,2018-06-29 10:29:52.718750,-49.85,60.52
201624,2018-06-29 10:29:52.750000,-57.9,60.52
201625,2018-06-29 10:29:52.781250,-57.25,60.52
201626,2018-06-29 10:29:52.812500,-41.27,60.52
201627,2018-06-29 10:29:52.843750,-14.75,60.52
201628,2018-06-29 10:29:52.875000,10.57,60.52
201629,2018-06-29 10:29:52.906250,27.31,60.52
201630,2018-06-29 10:29:52.937500,35.26,60.52
201631,2018-06-29 10:29:52.968750,36.25,60.52
201632,2018-06-29 10:29:53.000000,32.12,60.52
201633,2018-06-29 10:29:53.031250,26.48,60.52
201634,2018-06-29 10:29:53.062500,23.78,60.52
201635,2018-06-29 10:29:53.093750,25.51,60.52
201636,2018-06-29 10:29:53.125000,29.33,60.52
201637,2018-06-29 10:29:53.156250,32.36,60.52
201638,2018-06-29 10:29:53.187500,33.66,60.52
201639,2018-06-29 10:29:53.218750,32.79,60.52
201640,2018-06-29 10:29:53.250000,28.23,60.52
201641,2018-06-29 10:29:53.281250,19.42,60.52
201642,2018-06-29 10:29:53.312500,8.95,60.52
201643,2018-06-29 10:29:53.343750,0.3,60.52
201644,2018-06-29 10:29:53.375000,-6.19,60.52
201645,2018-06-29 10:29:53.406250,-13.05,60.52
201646,2018-06-29 10:29:53.437500,-21.6,60.52
201647,2018-06-29 10:29:53.468750,-29.88,60.52
201648,2018-06-29 10:29:53.500000,-36.29,60.52
201649,2018-06-29 10:29:53.531250,-43.19,60.48
201650,2018-06-29 10:29:53.562500,-54.23,60.48
201651,2018-06-29 10:29:53.593750,-68.77,60.48
201652,2018-06-29 10:29:53.625000,-80.15,60.48
201653,2018-06-29 10:29:53.656250,-79.0,60.48
201654,2018-06-29 10:29:53.687500,-61.08,60.48
201655,2018-06-29 10:29:53.718750,-33.06,60.48
201656,2018-06-29 10:29:53.750000,-6.45,60.48
201657,2018-06-29 10:29:53.781250,13.25,60.48
201658,2018-06-29 10:29:53.812500,26.84,60.48
201659,2018-06-29 10:29:53.843750,34.93,60.48
201660,2018-06-29 10:29:53.875000,37.66,60.48
201661,2018-06-29 10:29:53.906250,37.21,60.48
201662,2018-06-29 10:29:53.937500,35.92,60.48
201663,2018-06-29 10:29:53.968750,34.17,60.48
201664,2018-06-29 10:29:54.000000,31.84,60.48
201665,2018-06-29 10:29:54.031250,30.04,60.48
201666,2018-06-29 10:29:54.062500,29.53,60.48
201667,2018-06-29 10:29:54.093750,28.85,60.48
201668,2018-06-29 10:29:54.125000,25.21,60.48
201669,2018-06-29 10:29:54.156250,17.95,60.48
201670,2018-06-29 10:29:54.187500,9.76,60.48
201671,2018-06-29 10:29:54.218750,3.37,60.48
201672,2018-06-29 10:29:54.250000,-1.81,60.48
201673,2018-06-29 10:29:54.281250,-8.37,60.48
201674,2018-06-29 10:29:54.312500,-16.89,60.48
201675,2018-06-29 10:29:54.343750,-25.01,60.48
201676,2018-06-29 10:29:54.375000,-31.15,60.48
201677,2018-06-29 10:29:54.406250,-36.99,60.48
201678,2018-06-29 10:29:54.437500,-45.28,60.48
201679,2018-06-29 10:29:54.468750,-55.87,60.48
201680,2018-06-29 10:29:54.500000,-63.51,60.48
201681,2018-06-29 10:29:54.531250,-60.3,60.47
201682,2018-06-29 10:29:54.562500,-43.8,60.47
201683,2018-06-29 10:29:54.593750,-21.26,60.47
201684,2018-06-29 10:29:54.625000,-2.31,60.47
201685,2018-06-29 10:29:54.656250,9.87,60.47
201686,2018-06-29 10:29:54.687500,16.88,60.47
201687,2018-06-29 10:29:54.718750,20.01,60.47
201688,2018-06-29 10:29:54.750000,20.34,60.47
201689,2018-06-29 10:29:54.781250,20.5,60.47
201690,2018-06-29 10:29:54.812500,22.84,60.47
201691,2018-06-29 10:29:54.843750,27.08,60.47
201692,2018-06-29 10:29:54.875000,31.0,60.47
201693,2018-06-29 10:29:54.906250,32.69,60.47
201694,2018-06-29 10:29:54.937500,31.15,60.47
201695,2018-06-29 10:29:54.968750,25.13,60.47
201696,2018-06-29 10:29:55.000000,14.7,60.47
201697,2018-06-29 10:29:55.031250,3.42,60.47
201698,2018-06-29 10:29:55.062500,-5.18,60.47
201699,2018-06-29 10:29:55.093750,-12.15,60.47
201700,2018-06-29 10:29:55.125000,-20.1,60.47
201701,2018-06-29 10:29:55.156250,-28.09,60.47
201702,2018-06-29 10:29:55.187500,-33.98,60.47
201703,2018-06-29 10:29:55.218750,-38.68,60.47
201704,2018-06-29 10:29:55.250000,-45.38,60.47
201705,2018-06-29 10:29:55.281250,-55.74,60.47
201706,2018-06-29 10:29:55.312500,-65.94,60.47
201707,2018-06-29 10:29:55.343750,-66.58,60.47
201708,2018-06-29 10:29:55.375000,-51.36,60.47
201709,2018-06-29 10:29:55.406250,-25.56,60.47
201710,2018-06-29 10:29:55.437500,-0.82,60.47
201711,2018-06-29 10:29:55.468750,16.81,60.47
201712,2018-06-29 10:29:55.500000,28.76,60.47
201713,2018-06-29 10:29:55.531250,36.89,60.47
201714,2018-06-29 10:29:55.562500,40.34,60.47
201715,2018-06-29 10:29:55.593750,39.11,60.47
201716,2018-06-29 10:29:55.625000,36.26,60.47
201717,2018-06-29 10:29:55.656250,34.61,60.47
201718,2018-06-29 10:29:55.687500,33.94,60.47
201719,2018-06-29 10:29:55.718750,33.39,60.47
201720,2018-06-29 10:29:55.750000,33.45,60.47
201721,2018-06-29 10:29:55.781250,33.5,60.47
201722,2018-06-29 10:29:55.812500,30.78,60.47
201723,2018-06-29 10:29:55.843750,23.98,60.47
201724,2018-06-29 10:29:55.875000,15.15,60.47
201725,2018-06-29 10:29:55.906250,6.69,60.47
201726,2018-06-29 10:29:55.937500,-1.64,60.47
201727,2018-06-29 10:29:55.968750,-11.58,60.47
201728,2018-06-29 10:29:56.000000,-23.07,60.47
201729,2018-06-29 10:29:56.031250,-33.7,60.47
201730,2018-06-29 10:29:56.062500,-41.67,60.47
201731,2018-06-29 10:29:56.093750,-48.35,60.47
201732,2018-06-29 10:29:56.125000,-56.73,60.47
201733,2018-06-29 10:29:56.156250,-68.08,60.47
201734,2018-06-29 10:29:56.187500,-78.69,60.47
201735,2018-06-29 10:29:56.218750,-79.72,60.47
201736,2018-06-29 10:29:56.250000,-65.0,60.47
201737,2018-06-29 10:29:56.281250,-38.98,60.47
201738,2018-06-29 10:29:56.312500,-12.47,60.47
201739,2018-06-29 10:29:56.343750,8.11,60.47
201740,2018-06-29 10:29:56.375000,22.88,60.47
201741,2018-06-29 10:29:56.406250,32.98,60.47
201742,2018-06-29 10:29:56.437500,38.18,60.47
201743,2018-06-29 10:29:56.468750,38.94,60.47
201744,2018-06-29 10:29:56.500000,37.3,60.47
201745,2018-06-29 10:29:56.531250,34.77,60.58
201746,2018-06-29 10:29:56.562500,31.41,60.58
201747,2018-06-29 10:29:56.593750,27.91,60.58
201748,2018-06-29 10:29:56.625000,25.39,60.58
201749,2018-06-29 10:29:56.656250,22.94,60.58
201750,2018-06-29 10:29:56.687500,18.05,60.58
201751,2018-06-29 10:29:56.718750,10.63,60.58
201752,2018-06-29 10:29:56.750000,3.79,60.58
201753,2018-06-29 10:29:56.781250,0.39,60.58
201754,2018-06-29 10:29:56.812500,-0.21,60.58
201755,2018-06-29 10:29:56.843750,-0.42,60.58
201756,2018-06-29 10:29:56.875000,0.41,60.58
201757,2018-06-29 10:29:56.906250,5.7,60.58
201758,2018-06-29 10:29:56.937500,16.61,60.58
201759,2018-06-29 10:29:56.968750,29.92,60.58
201760,2018-06-29 10:29:57.000000,41.1,60.58
201761,2018-06-29 10:29:57.031250,50.5,60.58
201762,2018-06-29 10:29:57.062500,64.67,60.58
201763,2018-06-29 10:29:57.093750,88.74,60.58
201764,2018-06-29 10:29:57.125000,118.73,60.58
201765,2018-06-29 10:29:57.156250,144.28,60.58
201766,2018-06-29 10:29:57.187500,156.44,60.58
201767,2018-06-29 10:29:57.218750,152.89,60.58
201768,2018-06-29 10:29:57.250000,139.32,60.58
201769,2018-06-29 10:29:57.281250,124.13,60.58
201770,2018-06-29 10:29:57.312500,110.76,60.58
201771,2018-06-29 10:29:57.343750,97.11,60.58
201772,2018-06-29 10:29:57.375000,78.19,60.58
201773,2018-06-29 10:29:57.406250,48.22,60.58
201774,2018-06-29 10:29:57.437500,7.36,60.58
201775,2018-06-29 10:29:57.468750,-33.31,60.58
201776,2018-06-29 10:29:57.500000,-61.8,60.58
201777,2018-06-29 10:29:57.531250,-77.5,60.58
201778,2018-06-29 10:29:57.562500,-87.06,60.58
201779,2018-06-29 10:29:57.593750,-92.39,60.58
201780,2018-06-29 10:29:57.625000,-88.69,60.58
201781,2018-06-29 10:29:57.656250,-74.2,60.58
201782,2018-06-29 10:29:57.687500,-56.3,60.58
201783,2018-06-29 10:29:57.718750,-43.65,60.58
201784,2018-06-29 10:29:57.750000,-37.07,60.58
201785,2018-06-29 10:29:57.781250,-33.71,60.58
201786,2018-06-29 10:29:57.812500,-34.34,60.58
201787,2018-06-29 10:29:57.843750,-40.46,60.58
201788,2018-06-29 10:29:57.875000,-49.73,60.58
201789,2018-06-29 10:29:57.906250,-57.34,60.58
201790,2018-06-29 10:29:57.937500,-59.13,60.58
201791,2018-06-29 10:29:57.968750,-54.56,60.58
201792,2018-06-29 10:29:58.000000,-46.15,60.58
201793,2018-06-29 10:29:58.031250,-35.25,60.58
201794,2018-06-29 10:29:58.062500,-22.23,60.58
201795,2018-06-29 10:29:58.093750,-9.62,60.58
201796,2018-06-29 10:29:58.125000,0.98,60.58
201797,2018-06-29 10:29:58.156250,11.58,60.58
201798,2018-06-29 10:29:58.187500,22.5,60.58
201799,2018-06-29 10:29:58.218750,29.34,60.58
201800,2018-06-29 10:29:58.250000,28.58,60.58
201801,2018-06-29 10:29:58.281250,19.74,60.58
201802,2018-06-29 10:29:58.312500,2.93,60.58
201803,2018-06-29 10:29:58.343750,-19.94,60.58
201804,2018-06-29 10:29:58.375000,-44.09,60.58
201805,2018-06-29 10:29:58.406250,-64.42,60.58
201806,2018-06-29 10:29:58.437500,-76.35,60.58
201807,2018-06-29 10:29:58.468750,-76.35,60.58
201808,2018-06-29 10:29:58.500000,-65.45,60.58
201809,2018-06-29 10:29:58.531250,-49.64,60.58
201810,2018-06-29 10:29:58.562500,-34.29,60.58
201811,2018-06-29 10:29:58.593750,-20.71,60.58
201812,2018-06-29 10:29:58.625000,-9.72,60.58
201813,2018-06-29 10:29:58.656250,-4.38,60.58
201814,2018-06-29 10:29:58.687500,-7.1,60.58
201815,2018-06-29 10:29:58.718750,-16.29,60.58
201816,2018-06-29 10:29:58.750000,-28.35,60.58
201817,2018-06-29 10:29:58.781250,-41.52,60.58
201818,2018-06-29 10:29:58.812500,-56.29,60.58
201819,2018-06-29 10:29:58.843750,-72.19,60.58
201820,2018-06-29 10:29:58.875000,-84.88,60.58
201821,2018-06-29 10:29:58.906250,-87.23,60.58
201822,2018-06-29 10:29:58.937500,-75.75,60.58
201823,2018-06-29 10:29:58.968750,-55.53,60.58
201824,2018-06-29 10:29:59.000000,-35.94,60.58
201825,2018-06-29 10:29:59.031250,-22.25,60.58
201826,2018-06-29 10:29:59.062500,-14.04,60.58
201827,2018-06-29 10:29:59.093750,-9.82,60.58
201828,2018-06-29 10:29:59.125000,-9.21,60.58
201829,2018-06-29 10:29:59.156250,-10.9,60.58
201830,2018-06-29 10:29:59.187500,-11.96,60.58
201831,2018-06-29 10:29:59.218750,-10.03,60.58
201832,2018-06-29 10:29:59.250000,-4.5,60.58
201833,2018-06-29 10:29:59.281250,4.85,60.58
201834,2018-06-29 10:29:59.312500,17.28,60.58
201835,2018-06-29 10:29:59.343750,29.13,60.58
201836,2018-06-29 10:29:59.375000,35.93,60.58
201837,2018-06-29 10:29:59.406250,36.48,60.58
201838,2018-06-29 10:29:59.437500,32.92,60.58
201839,2018-06-29 10:29:59.468750,27.81,60.58
201840,2018-06-29 10:29:59.500000,22.36,60.58
201841,2018-06-29 10:29:59.531250,16.32,60.57
201842,2018-06-29 10:29:59.562500,9.3,60.57
201843,2018-06-29 10:29:59.593750,1.65,60.57
201844,2018-06-29 10:29:59.625000,-6.06,60.57
201845,2018-06-29 10:29:59.656250,-14.21,60.57
201846,2018-06-29 10:29:59.687500,-23.59,60.57
201847,2018-06-29 10:29:59.718750,-33.55,60.57
201848,2018-06-29 10:29:59.750000,-42.65,60.57
201849,2018-06-29 10:29:59.781250,-50.99,60.57
201850,2018-06-29 10:29:59.812500,-59.91,60.57
201851,2018-06-29 10:29:59.843750,-70.85,60.57
201852,2018-06-29 10:29:59.875000,-84.73,60.57
201853,2018-06-29 10:29:59.906250,-97.61,60.57
201854,2018-06-29 10:29:59.937500,-98.58,60.57
201855,2018-06-29 10:29:59.968750,-80.3,60.57
201856,2018-06-29 10:30:00.000000,-49.84,60.57
201857,2018-06-29 10:30:00.031250,-20.79,60.57
201858,2018-06-29 10:30:00.062500,1.22,60.57
201859,2018-06-29 10:30:00.093750,17.95,60.57
201860,2018-06-29 10:30:00.125000,30.12,60.57
201861,2018-06-29 10:30:00.156250,36.83,60.57
201862,2018-06-29 10:30:00.187500,39.43,60.57
201863,2018-06-29 10:30:00.218750,41.23,60.57
201864,2018-06-29 10:30:00.250000,44.22,60.57
201865,2018-06-29 10:30:00.281250,48.28,60.57
201866,2018-06-29 10:30:00.312500,52.98,60.57
201867,2018-06-29 10:30:00.343750,58.08,60.57
201868,2018-06-29 10:30:00.375000,61.48,60.57
201869,2018-06-29 10:30:00.406250,59.98,60.57
201870,2018-06-29 10:30:00.437500,53.49,60.57
201871,2018-06-29 10:30:00.468750,45.62,60.57
201872,2018-06-29 10:30:00.500000,38.69,60.57
201873,2018-06-29 10:30:00.531250,31.36,60.55
201874,2018-06-29 10:30:00.562500,22.5,60.55
201875,2018-06-29 10:30:00.593750,13.88,60.55
201876,2018-06-29 10:30:00.625000,7.39,60.55
201877,2018-06-29 10:30:00.656250,2.13,60.55
201878,2018-06-29 10:30:00.687500,-4.25,60.55
201879,2018-06-29 10:30:00.718750,-12.26,60.55
201880,2018-06-29 10:30:00.750000,-20.05,60.55
201881,2018-06-29 10:30:00.781250,-26.01,60.55
201882,2018-06-29 10:30:00.812500,-31.9,60.55
201883,2018-06-29 10:30:00.843750,-42.67,60.55
201884,2018-06-29 10:30:00.875000,-61.24,60.55
201885,2018-06-29 10:30:00.906250,-81.56,60.55
201886,2018-06-29 10:30:00.937500,-88.29,60.55
201887,2018-06-29 10:30:00.968750,-68.54,60.55
201888,2018-06-29 10:30:01.000000,-24.43,60.55
201889,2018-06-29 10:30:01.031250,30.55,60.55
201890,2018-06-29 10:30:01.062500,86.3,60.55
201891,2018-06-29 10:30:01.093750,138.51,60.55
201892,2018-06-29 10:30:01.125000,177.44,60.55
201893,2018-06-29 10:30:01.156250,187.61,60.55
201894,2018-06-29 10:30:01.187500,164.13,60.55
201895,2018-06-29 10:30:01.218750,121.99,60.55
201896,2018-06-29 10:30:01.250000,84.67,60.55
201897,2018-06-29 10:30:01.281250,66.44,60.55
201898,2018-06-29 10:30:01.312500,66.79,60.55
201899,2018-06-29 10:30:01.343750,76.15,60.55
201900,2018-06-29 10:30:01.375000,82.97,60.55
201901,2018-06-29 10:30:01.406250,78.3,60.55
201902,2018-06-29 10:30:01.437500,58.71,60.55
201903,2018-06-29 10:30:01.468750,24.0,60.55
201904,2018-06-29 10:30:01.500000,-27.37,60.55
201905,2018-06-29 10:30:01.531250,-90.55,60.53
201906,2018-06-29 10:30:01.562500,-143.81,60.53
201907,2018-06-29 10:30:01.593750,-160.65,60.53
201908,2018-06-29 10:30:01.625000,-134.95,60.53
201909,2018-06-29 10:30:01.656250,-84.06,60.53
201910,2018-06-29 10:30:01.687500,-30.61,60.53
201911,2018-06-29 10:30:01.718750,8.93,60.53
201912,2018-06-29 10:30:01.750000,26.28,60.53
201913,2018-06-29 10:30:01.781250,24.24,60.53
201914,2018-06-29 10:30:01.812500,14.15,60.53
201915,2018-06-29 10:30:01.843750,6.91,60.53
201916,2018-06-29 10:30:01.875000,9.57,60.53
201917,2018-06-29 10:30:01.906250,27.27,60.53
201918,2018-06-29 10:30:01.937500,58.57,60.53
201919,2018-06-29 10:30:01.968750,91.09,60.53
201920,2018-06-29 10:30:02.000000,110.88,60.53
201921,2018-06-29 10:30:02.031250,113.01,60.53
201922,2018-06-29 10:30:02.062500,99.19,60.53
201923,2018-06-29 10:30:02.093750,73.2,60.53
201924,2018-06-29 10:30:02.125000,41.52,60.53
201925,2018-06-29 10:30:02.156250,11.1,60.53
201926,2018-06-29 10:30:02.187500,-14.26,60.53
201927,2018-06-29 10:30:02.218750,-32.37,60.53
201928,2018-06-29 10:30:02.250000,-41.94,60.53
201929,2018-06-29 10:30:02.281250,-46.33,60.53
201930,2018-06-29 10:30:02.312500,-52.0,60.53
201931,2018-06-29 10:30:02.343750,-61.36,60.53
201932,2018-06-29 10:30:02.375000,-70.78,60.53
201933,2018-06-29 10:30:02.406250,-76.02,60.53
201934,2018-06-29 10:30:02.437500,-76.67,60.53
201935,2018-06-29 10:30:02.468750,-75.41,60.53
201936,2018-06-29 10:30:02.500000,-74.85,60.53
201937,2018-06-29 10:30:02.531250,-76.09,60.52
201938,2018-06-29 10:30:02.562500,-79.02,60.52
201939,2018-06-29 10:30:02.593750,-82.3,60.52
201940,2018-06-29 10:30:02.625000,-84.16,60.52
201941,2018-06-29 10:30:02.656250,-84.06,60.52
201942,2018-06-29 10:30:02.687500,-82.42,60.52
201943,2018-06-29 10:30:02.718750,-80.38,60.52
201944,2018-06-29 10:30:02.750000,-80.51,60.52
201945,2018-06-29 10:30:02.781250,-85.23,60.52
201946,2018-06-29 10:30:02.812500,-90.64,60.52
201947,2018-06-29 10:30:02.843750,-84.98,60.52
201948,2018-06-29 10:30:02.875000,-60.48,60.52
201949,2018-06-29 10:30:02.906250,-25.8,60.52
201950,2018-06-29 10:30:02.937500,2.26,60.52
201951,2018-06-29 10:30:02.968750,16.96,60.52
201952,2018-06-29 10:30:03.000000,22.45,60.52
201953,2018-06-29 10:30:03.031250,21.88,60.52
201954,2018-06-29 10:30:03.062500,17.55,60.52
201955,2018-06-29 10:30:03.093750,15.84,60.52
201956,2018-06-29 10:30:03.125000,20.13,60.52
201957,2018-06-29 10:30:03.156250,24.78,60.52
201958,2018-06-29 10:30:03.187500,24.24,60.52
201959,2018-06-29 10:30:03.218750,21.36,60.52
201960,2018-06-29 10:30:03.250000,19.91,60.52
201961,2018-06-29 10:30:03.281250,16.02,60.52
201962,2018-06-29 10:30:03.312500,4.26,60.52
201963,2018-06-29 10:30:03.343750,-13.34,60.52
201964,2018-06-29 10:30:03.375000,-30.07,60.52
201965,2018-06-29 10:30:03.406250,-40.05,60.52
201966,2018-06-29 10:30:03.437500,-38.78,60.52
201967,2018-06-29 10:30:03.468750,-28.53,60.52
201968,2018-06-29 10:30:03.500000,-22.58,60.52
201969,2018-06-29 10:30:03.531250,-31.94,60.78
201970,2018-06-29 10:30:03.562500,-52.22,60.78
201971,2018-06-29 10:30:03.593750,-73.97,60.78
201972,2018-06-29 10:30:03.625000,-93.17,60.78
201973,2018-06-29 10:30:03.656250,-102.23,60.78
201974,2018-06-29 10:30:03.687500,-89.34,60.78
201975,2018-06-29 10:30:03.718750,-56.83,60.78
201976,2018-06-29 10:30:03.750000,-22.25,60.78
201977,2018-06-29 10:30:03.781250,4.24,60.78
201978,2018-06-29 10:30:03.812500,27.36,60.78
201979,2018-06-29 10:30:03.843750,49.69,60.78
201980,2018-06-29 10:30:03.875000,62.8,60.78
201981,2018-06-29 10:30:03.906250,58.47,60.78
201982,2018-06-29 10:30:03.937500,40.01,60.78
201983,2018-06-29 10:30:03.968750,20.09,60.78
201984,2018-06-29 10:30:04.000000,11.53,60.78
201985,2018-06-29 10:30:04.031250,18.67,60.78
201986,2018-06-29 10:30:04.062500,34.07,60.78
201987,2018-06-29 10:30:04.093750,45.3,60.78
201988,2018-06-29 10:30:04.125000,46.9,60.78
201989,2018-06-29 10:30:04.156250,41.36,60.78
201990,2018-06-29 10:30:04.187500,30.01,60.78
201991,2018-06-29 10:30:04.218750,12.26,60.78
201992,2018-06-29 10:30:04.250000,-8.51,60.78
201993,2018-06-29 10:30:04.281250,-27.76,60.78
201994,2018-06-29 10:30:04.312500,-45.44,60.78
201995,2018-06-29 10:30:04.343750,-63.66,60.78
201996,2018-06-29 10:30:04.375000,-82.84,60.78
201997,2018-06-29 10:30:04.406250,-99.78,60.78
201998,2018-06-29 10:30:04.437500,-103.67,60.78
201999,2018-06-29 10:30:04.468750,-80.19,60.78
202000,2018-06-29 10:30:04.500000,-26.9,60.78
202001,2018-06-29 10:30:04.531250,42.11,61.07
202002,2018-06-29 10:30:04.562500,109.55,61.07
202003,2018-06-29 10:30:04.593750,164.94,61.07
202004,2018-06-29 10:30:04.625000,204.31,61.07
202005,2018-06-29 10:30:04.656250,228.95,61.07
202006,2018-06-29 10:30:04.687500,243.79,61.07
202007,2018-06-29 10:30:04.718750,254.72,61.07
202008,2018-06-29 10:30:04.750000,263.45,61.07
202009,2018-06-29 10:30:04.781250,260.16,61.07
202010,2018-06-29 10:30:04.812500,231.85,61.07
202011,2018-06-29 10:30:04.843750,186.35,61.07
202012,2018-06-29 10:30:04.875000,148.46,61.07
202013,2018-06-29 10:30:04.906250,125.15,61.07
202014,2018-06-29 10:30:04.937500,99.62,61.07
202015,2018-06-29 10:30:04.968750,61.77,61.07
202016,2018-06-29 10:30:05.000000,17.7,61.07
202017,2018-06-29 10:30:05.031250,-27.35,61.07
202018,2018-06-29 10:30:05.062500,-72.33,61.07
202019,2018-06-29 10:30:05.093750,-111.71,61.07
202020,2018-06-29 10:30:05.125000,-139.69,61.07
202021,2018-06-29 10:30:05.156250,-159.93,61.07
202022,2018-06-29 10:30:05.187500,-182.42,61.07
202023,2018-06-29 10:30:05.218750,-210.27,61.07
202024,2018-06-29 10:30:05.250000,-231.0,61.07
202025,2018-06-29 10:30:05.281250,-224.09,61.07
202026,2018-06-29 10:30:05.312500,-182.94,61.07
202027,2018-06-29 10:30:05.343750,-128.09,61.07
202028,2018-06-29 10:30:05.375000,-89.46,61.07
202029,2018-06-29 10:30:05.406250,-77.14,61.07
202030,2018-06-29 10:30:05.437500,-78.01,61.07
202031,2018-06-29 10:30:05.468750,-77.23,61.07
202032,2018-06-29 10:30:05.500000,-71.33,61.07
202033,2018-06-29 10:30:05.531250,-60.86,61.28
202034,2018-06-29 10:30:05.562500,-43.45,61.28
202035,2018-06-29 10:30:05.593750,-19.44,61.28
202036,2018-06-29 10:30:05.625000,5.05,61.28
202037,2018-06-29 10:30:05.656250,25.69,61.28
202038,2018-06-29 10:30:05.687500,42.44,61.28
202039,2018-06-29 10:30:05.718750,52.4,61.28
202040,2018-06-29 10:30:05.750000,49.97,61.28
202041,2018-06-29 10:30:05.781250,35.76,61.28
202042,2018-06-29 10:30:05.812500,17.82,61.28
202043,2018-06-29 10:30:05.843750,2.0,61.28
202044,2018-06-29 10:30:05.875000,-12.93,61.28
202045,2018-06-29 10:30:05.906250,-28.87,61.28
202046,2018-06-29 10:30:05.937500,-42.31,61.28
202047,2018-06-29 10:30:05.968750,-48.53,61.28
202048,2018-06-29 10:30:06.000000,-49.09,61.28
202049,2018-06-29 10:30:06.031250,-51.05,61.28
202050,2018-06-29 10:30:06.062500,-61.27,61.28
202051,2018-06-29 10:30:06.093750,-80.71,61.28
202052,2018-06-29 10:30:06.125000,-98.16,61.28
202053,2018-06-29 10:30:06.156250,-93.23,61.28
202054,2018-06-29 10:30:06.187500,-56.77,61.28
202055,2018-06-29 10:30:06.218750,-4.1,61.28
202056,2018-06-29 10:30:06.250000,42.08,61.28
202057,2018-06-29 10:30:06.281250,73.72,61.28
202058,2018-06-29 10:30:06.312500,94.15,61.28
202059,2018-06-29 10:30:06.343750,104.97,61.28
202060,2018-06-29 10:30:06.375000,105.9,61.28
202061,2018-06-29 10:30:06.406250,100.27,61.28
202062,2018-06-29 10:30:06.437500,94.02,61.28
202063,2018-06-29 10:30:06.468750,91.31,61.28
202064,2018-06-29 10:30:06.500000,92.39,61.28
202065,2018-06-29 10:30:06.531250,94.8,61.48
202066,2018-06-29 10:30:06.562500,95.49,61.48
202067,2018-06-29 10:30:06.593750,91.84,61.48
202068,2018-06-29 10:30:06.625000,82.99,61.48
202069,2018-06-29 10:30:06.656250,70.33,61.48
202070,2018-06-29 10:30:06.687500,55.72,61.48
202071,2018-06-29 10:30:06.718750,39.94,61.48
202072,2018-06-29 10:30:06.750000,23.64,61.48
202073,2018-06-29 10:30:06.781250,7.77,61.48
202074,2018-06-29 10:30:06.812500,-7.4,61.48
202075,2018-06-29 10:30:06.843750,-21.99,61.48
202076,2018-06-29 10:30:06.875000,-35.28,61.48
202077,2018-06-29 10:30:06.906250,-46.88,61.48
202078,2018-06-29 10:30:06.937500,-58.64,61.48
202079,2018-06-29 10:30:06.968750,-73.49,61.48
202080,2018-06-29 10:30:07.000000,-92.87,61.48
202081,2018-06-29 10:30:07.031250,-111.79,61.48
202082,2018-06-29 10:30:07.062500,-115.51,61.48
202083,2018-06-29 10:30:07.093750,-90.7,61.48
202084,2018-06-29 10:30:07.125000,-43.58,61.48
202085,2018-06-29 10:30:07.156250,3.31,61.48
202086,2018-06-29 10:30:07.187500,34.38,61.48
202087,2018-06-29 10:30:07.218750,50.17,61.48
202088,2018-06-29 10:30:07.250000,54.8,61.48
202089,2018-06-29 10:30:07.281250,47.52,61.48
202090,2018-06-29 10:30:07.312500,28.91,61.48
202091,2018-06-29 10:30:07.343750,6.26,61.48
202092,2018-06-29 10:30:07.375000,-11.32,61.48
202093,2018-06-29 10:30:07.406250,-18.13,61.48
202094,2018-06-29 10:30:07.437500,-13.09,61.48
202095,2018-06-29 10:30:07.468750,-2.84,61.48
202096,2018-06-29 10:30:07.500000,2.68,61.48
202097,2018-06-29 10:30:07.531250,9.58,61.6
202098,2018-06-29 10:30:07.562500,40.9,61.6
202099,2018-06-29 10:30:07.593750,101.76,61.6
202100,2018-06-29 10:30:07.625000,162.57,61.6
202101,2018-06-29 10:30:07.656250,193.0,61.6
202102,2018-06-29 10:30:07.687500,193.73,61.6
202103,2018-06-29 10:30:07.718750,182.41,61.6
202104,2018-06-29 10:30:07.750000,169.11,61.6
202105,2018-06-29 10:30:07.781250,155.71,61.6
202106,2018-06-29 10:30:07.812500,142.88,61.6
202107,2018-06-29 10:30:07.843750,128.38,61.6
202108,2018-06-29 10:30:07.875000,107.99,61.6
202109,2018-06-29 10:30:07.906250,83.76,61.6
202110,2018-06-29 10:30:07.937500,64.93,61.6
202111,2018-06-29 10:30:07.968750,55.36,61.6
202112,2018-06-29 10:30:08.000000,47.65,61.6
202113,2018-06-29 10:30:08.031250,34.62,61.6
202114,2018-06-29 10:30:08.062500,19.61,61.6
202115,2018-06-29 10:30:08.093750,9.31,61.6
202116,2018-06-29 10:30:08.125000,3.01,61.6
202117,2018-06-29 10:30:08.156250,-4.67,61.6
202118,2018-06-29 10:30:08.187500,-15.5,61.6
202119,2018-06-29 10:30:08.218750,-26.25,61.6
202120,2018-06-29 10:30:08.250000,-32.3,61.6
202121,2018-06-29 10:30:08.281250,-31.04,61.6
202122,2018-06-29 10:30:08.312500,-23.66,61.6
202123,2018-06-29 10:30:08.343750,-14.6,61.6
202124,2018-06-29 10:30:08.375000,-8.25,61.6
202125,2018-06-29 10:30:08.406250,-5.84,61.6
202126,2018-06-29 10:30:08.437500,-6.16,61.6
202127,2018-06-29 10:30:08.468750,-7.91,61.6
202128,2018-06-29 10:30:08.500000,-10.6,61.6
202129,2018-06-29 10:30:08.531250,-14.17,61.7
202130,2018-06-29 10:30:08.562500,-19.23,61.7
202131,2018-06-29 10:30:08.593750,-25.53,61.7
202132,2018-06-29 10:30:08.625000,-29.67,61.7
202133,2018-06-29 10:30:08.656250,-28.3,61.7
202134,2018-06-29 10:30:08.687500,-23.24,61.7
202135,2018-06-29 10:30:08.718750,-19.83,61.7
202136,2018-06-29 10:30:08.750000,-21.16,61.7
202137,2018-06-29 10:30:08.781250,-24.88,61.7
202138,2018-06-29 10:30:08.812500,-26.04,61.7
202139,2018-06-29 10:30:08.843750,-26.01,61.7
202140,2018-06-29 10:30:08.875000,-35.48,61.7
202141,2018-06-29 10:30:08.906250,-57.46,61.7
202142,2018-06-29 10:30:08.937500,-75.86,61.7
202143,2018-06-29 10:30:08.968750,-75.83,61.7
202144,2018-06-29 10:30:09.000000,-66.37,61.7
202145,2018-06-29 10:30:09.031250,-69.82,61.7
202146,2018-06-29 10:30:09.062500,-98.1,61.7
202147,2018-06-29 10:30:09.093750,-143.14,61.7
202148,2018-06-29 10:30:09.125000,-180.31,61.7
202149,2018-06-29 10:30:09.156250,-183.69,61.7
202150,2018-06-29 10:30:09.187500,-149.89,61.7
202151,2018-06-29 10:30:09.218750,-101.68,61.7
202152,2018-06-29 10:30:09.250000,-62.71,61.7
202153,2018-06-29 10:30:09.281250,-38.38,61.7
202154,2018-06-29 10:30:09.312500,-24.43,61.7
202155,2018-06-29 10:30:09.343750,-18.05,61.7
202156,2018-06-29 10:30:09.375000,-14.9,61.7
202157,2018-06-29 10:30:09.406250,-9.86,61.7
202158,2018-06-29 10:30:09.437500,-4.26,61.7
202159,2018-06-29 10:30:09.468750,-0.01,61.7
202160,2018-06-29 10:30:09.500000,9.93,61.7
202161,2018-06-29 10:30:09.531250,31.26,61.78
202162,2018-06-29 10:30:09.562500,52.61,61.78
202163,2018-06-29 10:30:09.593750,53.73,61.78
202164,2018-06-29 10:30:09.625000,27.29,61.78
202165,2018-06-29 10:30:09.656250,-16.96,61.78
202166,2018-06-29 10:30:09.687500,-62.03,61.78
202167,2018-06-29 10:30:09.718750,-89.99,61.78
202168,2018-06-29 10:30:09.750000,-90.07,61.78
202169,2018-06-29 10:30:09.781250,-68.48,61.78
202170,2018-06-29 10:30:09.812500,-41.29,61.78
202171,2018-06-29 10:30:09.843750,-17.35,61.78
202172,2018-06-29 10:30:09.875000,2.86,61.78
202173,2018-06-29 10:30:09.906250,18.76,61.78
202174,2018-06-29 10:30:09.937500,29.89,61.78
202175,2018-06-29 10:30:09.968750,38.15,61.78
202176,2018-06-29 10:30:10.000000,44.13,61.78
202177,2018-06-29 10:30:10.031250,46.1,61.78
202178,2018-06-29 10:30:10.062500,44.06,61.78
202179,2018-06-29 10:30:10.093750,40.0,61.78
202180,2018-06-29 10:30:10.125000,33.92,61.78
202181,2018-06-29 10:30:10.156250,22.61,61.78
202182,2018-06-29 10:30:10.187500,2.1,61.78
202183,2018-06-29 10:30:10.218750,-25.31,61.78
202184,2018-06-29 10:30:10.250000,-46.84,61.78
202185,2018-06-29 10:30:10.281250,-49.57,61.78
202186,2018-06-29 10:30:10.312500,-33.94,61.78
202187,2018-06-29 10:30:10.343750,-8.9,61.78
202188,2018-06-29 10:30:10.375000,20.54,61.78
202189,2018-06-29 10:30:10.406250,50.75,61.78
202190,2018-06-29 10:30:10.437500,73.36,61.78
202191,2018-06-29 10:30:10.468750,83.52,61.78
202192,2018-06-29 10:30:10.500000,86.88,61.78
202193,2018-06-29 10:30:10.531250,91.06,61.82
202194,2018-06-29 10:30:10.562500,95.99,61.82
202195,2018-06-29 10:30:10.593750,96.42,61.82
202196,2018-06-29 10:30:10.625000,89.77,61.82
202197,2018-06-29 10:30:10.656250,80.87,61.82
202198,2018-06-29 10:30:10.687500,80.16,61.82
202199,2018-06-29 10:30:10.718750,94.24,61.82
202200,2018-06-29 10:30:10.750000,117.4,61.82
202201,2018-06-29 10:30:10.781250,135.08,61.82
202202,2018-06-29 10:30:10.812500,136.51,61.82
202203,2018-06-29 10:30:10.843750,122.87,61.82
202204,2018-06-29 10:30:10.875000,103.31,61.82
202205,2018-06-29 10:30:10.906250,82.83,61.82
202206,2018-06-29 10:30:10.937500,56.63,61.82
202207,2018-06-29 10:30:10.968750,18.43,61.82
202208,2018-06-29 10:30:11.000000,-31.23,61.82
202209,2018-06-29 10:30:11.031250,-86.22,61.82
202210,2018-06-29 10:30:11.062500,-136.38,61.82
202211,2018-06-29 10:30:11.093750,-169.19,61.82
202212,2018-06-29 10:30:11.125000,-180.66,61.82
202213,2018-06-29 10:30:11.156250,-181.6,61.82
202214,2018-06-29 10:30:11.187500,-181.47,61.82
202215,2018-06-29 10:30:11.218750,-174.88,61.82
202216,2018-06-29 10:30:11.250000,-157.21,61.82
202217,2018-06-29 10:30:11.281250,-139.71,61.82
202218,2018-06-29 10:30:11.312500,-133.28,61.82
202219,2018-06-29 10:30:11.343750,-130.89,61.82
202220,2018-06-29 10:30:11.375000,-118.93,61.82
202221,2018-06-29 10:30:11.406250,-93.85,61.82
202222,2018-06-29 10:30:11.437500,-60.67,61.82
202223,2018-06-29 10:30:11.468750,-22.51,61.82
202224,2018-06-29 10:30:11.500000,17.88,61.82
202225,2018-06-29 10:30:11.531250,52.71,61.78
202226,2018-06-29 10:30:11.562500,72.61,61.78
202227,2018-06-29 10:30:11.593750,76.79,61.78
202228,2018-06-29 10:30:11.625000,73.26,61.78
202229,2018-06-29 10:30:11.656250,69.2,61.78
202230,2018-06-29 10:30:11.687500,71.51,61.78
202231,2018-06-29 10:30:11.718750,88.04,61.78
202232,2018-06-29 10:30:11.750000,120.2,61.78
202233,2018-06-29 10:30:11.781250,152.56,61.78
202234,2018-06-29 10:30:11.812500,172.0,61.78
202235,2018-06-29 10:30:11.843750,181.56,61.78
202236,2018-06-29 10:30:11.875000,190.46,61.78
202237,2018-06-29 10:30:11.906250,199.16,61.78
202238,2018-06-29 10:30:11.937500,202.17,61.78
202239,2018-06-29 10:30:11.968750,208.78,61.78
202240,2018-06-29 10:30:12.000000,222.33,61.78
202241,2018-06-29 10:30:12.031250,234.5,61.78
202242,2018-06-29 10:30:12.062500,224.89,61.78
202243,2018-06-29 10:30:12.093750,193.9,61.78
202244,2018-06-29 10:30:12.125000,149.42,61.78
202245,2018-06-29 10:30:12.156250,81.15,61.78
202246,2018-06-29 10:30:12.187500,-24.5,61.78
202247,2018-06-29 10:30:12.218750,-162.2,61.78
202248,2018-06-29 10:30:12.250000,-289.08,61.78
202249,2018-06-29 10:30:12.281250,-383.0,61.78
202250,2018-06-29 10:30:12.312500,-391.24,61.78
202251,2018-06-29 10:30:12.343750,-291.1,61.78
202252,2018-06-29 10:30:12.375000,-209.41,61.78
202253,2018-06-29 10:30:12.406250,-151.42,61.78
202254,2018-06-29 10:30:12.437500,-93.53,61.78
202255,2018-06-29 10:30:12.468750,-58.72,61.78
202256,2018-06-29 10:30:12.500000,-84.75,61.78
202257,2018-06-29 10:30:12.531250,-163.21,61.73
202258,2018-06-29 10:30:12.562500,-254.4,61.73
202259,2018-06-29 10:30:12.593750,-292.59,61.73
202260,2018-06-29 10:30:12.625000,-253.06,61.73
202261,2018-06-29 10:30:12.656250,-170.14,61.73
202262,2018-06-29 10:30:12.687500,-91.42,61.73
202263,2018-06-29 10:30:12.718750,-32.34,61.73
202264,2018-06-29 10:30:12.750000,12.97,61.73
202265,2018-06-29 10:30:12.781250,38.85,61.73
202266,2018-06-29 10:30:12.812500,52.52,61.73
202267,2018-06-29 10:30:12.843750,71.03,61.73
202268,2018-06-29 10:30:12.875000,105.22,61.73
202269,2018-06-29 10:30:12.906250,142.68,61.73
202270,2018-06-29 10:30:12.937500,166.62,61.73
202271,2018-06-29 10:30:12.968750,171.54,61.73
202272,2018-06-29 10:30:13.000000,158.1,61.73
202273,2018-06-29 10:30:13.031250,128.09,61.73
202274,2018-06-29 10:30:13.062500,85.65,61.73
202275,2018-06-29 10:30:13.093750,42.06,61.73
202276,2018-06-29 10:30:13.125000,7.1,61.73
202277,2018-06-29 10:30:13.156250,-15.4,61.73
202278,2018-06-29 10:30:13.187500,-22.82,61.73
202279,2018-06-29 10:30:13.218750,-8.09,61.73
202280,2018-06-29 10:30:13.250000,34.28,61.73
202281,2018-06-29 10:30:13.281250,91.6,61.73
202282,2018-06-29 10:30:13.312500,128.56,61.73
202283,2018-06-29 10:30:13.343750,110.61,61.73
202284,2018-06-29 10:30:13.375000,34.58,61.73
202285,2018-06-29 10:30:13.406250,-65.46,61.73
202286,2018-06-29 10:30:13.437500,-144.06,61.73
202287,2018-06-29 10:30:13.468750,-176.41,61.73
202288,2018-06-29 10:30:13.500000,-167.58,61.73
202289,2018-06-29 10:30:13.531250,-136.06,61.68
202290,2018-06-29 10:30:13.562500,-97.43,61.68
202291,2018-06-29 10:30:13.593750,-64.07,61.68
202292,2018-06-29 10:30:13.625000,-41.79,61.68
202293,2018-06-29 10:30:13.656250,-23.19,61.68
202294,2018-06-29 10:30:13.687500,2.02,61.68
202295,2018-06-29 10:30:13.718750,33.8,61.68
202296,2018-06-29 10:30:13.750000,67.93,61.68
202297,2018-06-29 10:30:13.781250,100.8,61.68
202298,2018-06-29 10:30:13.812500,121.35,61.68
202299,2018-06-29 10:30:13.843750,117.14,61.68
202300,2018-06-29 10:30:13.875000,91.74,61.68
202301,2018-06-29 10:30:13.906250,61.45,61.68
202302,2018-06-29 10:30:13.937500,37.92,61.68
202303,2018-06-29 10:30:13.968750,22.42,61.68
202304,2018-06-29 10:30:14.000000,12.0,61.68
202305,2018-06-29 10:30:14.031250,2.25,61.68
202306,2018-06-29 10:30:14.062500,-10.6,61.68
202307,2018-06-29 10:30:14.093750,-24.33,61.68
202308,2018-06-29 10:30:14.125000,-32.2,61.68
202309,2018-06-29 10:30:14.156250,-33.26,61.68
202310,2018-06-29 10:30:14.187500,-36.11,61.68
202311,2018-06-29 10:30:14.218750,-49.68,61.68
202312,2018-06-29 10:30:14.250000,-72.66,61.68
202313,2018-06-29 10:30:14.281250,-91.67,61.68
202314,2018-06-29 10:30:14.312500,-92.87,61.68
202315,2018-06-29 10:30:14.343750,-77.11,61.68
202316,2018-06-29 10:30:14.375000,-57.35,61.68
202317,2018-06-29 10:30:14.406250,-41.35,61.68
202318,2018-06-29 10:30:14.437500,-27.04,61.68
202319,2018-06-29 10:30:14.468750,-14.36,61.68
202320,2018-06-29 10:30:14.500000,-8.22,61.68
202321,2018-06-29 10:30:14.531250,-8.75,61.65
202322,2018-06-29 10:30:14.562500,-8.0,61.65
202323,2018-06-29 10:30:14.593750,2.5,61.65
202324,2018-06-29 10:30:14.625000,25.21,61.65
202325,2018-06-29 10:30:14.656250,55.95,61.65
202326,2018-06-29 10:30:14.687500,86.92,61.65
202327,2018-06-29 10:30:14.718750,109.4,61.65
202328,2018-06-29 10:30:14.750000,115.45,61.65
202329,2018-06-29 10:30:14.781250,101.31,61.65
202330,2018-06-29 10:30:14.812500,70.87,61.65
202331,2018-06-29 10:30:14.843750,34.25,61.65
202332,2018-06-29 10:30:14.875000,1.55,61.65
202333,2018-06-29 10:30:14.906250,-21.49,61.65
202334,2018-06-29 10:30:14.937500,-32.96,61.65
202335,2018-06-29 10:30:14.968750,-33.86,61.65
202336,2018-06-29 10:30:15.000000,-28.92,61.65
202337,2018-06-29 10:30:15.031250,-25.52,61.65
202338,2018-06-29 10:30:15.062500,-29.06,61.65
202339,2018-06-29 10:30:15.093750,-38.13,61.65
202340,2018-06-29 10:30:15.125000,-44.03,61.65
202341,2018-06-29 10:30:15.156250,-36.75,61.65
202342,2018-06-29 10:30:15.187500,-15.69,61.65
202343,2018-06-29 10:30:15.218750,8.95,61.65
202344,2018-06-29 10:30:15.250000,28.73,61.65
202345,2018-06-29 10:30:15.281250,43.77,61.65
202346,2018-06-29 10:30:15.312500,54.31,61.65
202347,2018-06-29 10:30:15.343750,56.43,61.65
202348,2018-06-29 10:30:15.375000,50.29,61.65
202349,2018-06-29 10:30:15.406250,42.71,61.65
202350,2018-06-29 10:30:15.437500,38.98,61.65
202351,2018-06-29 10:30:15.468750,39.4,61.65
202352,2018-06-29 10:30:15.500000,44.07,61.65
202353,2018-06-29 10:30:15.531250,53.96,61.6
202354,2018-06-29 10:30:15.562500,66.8,61.6
202355,2018-06-29 10:30:15.593750,76.85,61.6
202356,2018-06-29 10:30:15.625000,80.75,61.6
202357,2018-06-29 10:30:15.656250,80.78,61.6
202358,2018-06-29 10:30:15.687500,79.7,61.6
202359,2018-06-29 10:30:15.718750,72.95,61.6
202360,2018-06-29 10:30:15.750000,51.87,61.6
202361,2018-06-29 10:30:15.781250,15.41,61.6
202362,2018-06-29 10:30:15.812500,-25.83,61.6
202363,2018-06-29 10:30:15.843750,-59.34,61.6
202364,2018-06-29 10:30:15.875000,-81.41,61.6
202365,2018-06-29 10:30:15.906250,-97.87,61.6
202366,2018-06-29 10:30:15.937500,-117.1,61.6
202367,2018-06-29 10:30:15.968750,-140.74,61.6
202368,2018-06-29 10:30:16.000000,-159.33,61.6
202369,2018-06-29 10:30:16.031250,-160.42,61.6
202370,2018-06-29 10:30:16.062500,-140.89,61.6
202371,2018-06-29 10:30:16.093750,-107.04,61.6
202372,2018-06-29 10:30:16.125000,-65.21,61.6
202373,2018-06-29 10:30:16.156250,-19.04,61.6
202374,2018-06-29 10:30:16.187500,26.74,61.6
202375,2018-06-29 10:30:16.218750,66.19,61.6
202376,2018-06-29 10:30:16.250000,96.3,61.6
202377,2018-06-29 10:30:16.281250,118.74,61.6
202378,2018-06-29 10:30:16.312500,136.65,61.6
202379,2018-06-29 10:30:16.343750,151.3,61.6
202380,2018-06-29 10:30:16.375000,162.81,61.6
202381,2018-06-29 10:30:16.406250,171.39,61.6
202382,2018-06-29 10:30:16.437500,176.31,61.6
202383,2018-06-29 10:30:16.468750,175.37,61.6
202384,2018-06-29 10:30:16.500000,166.12,61.6
202385,2018-06-29 10:30:16.531250,147.38,61.52
202386,2018-06-29 10:30:16.562500,121.16,61.52
202387,2018-06-29 10:30:16.593750,92.47,61.52
202388,2018-06-29 10:30:16.625000,65.92,61.52
202389,2018-06-29 10:30:16.656250,41.78,61.52
202390,2018-06-29 10:30:16.687500,15.27,61.52
202391,2018-06-29 10:30:16.718750,-21.07,61.52
202392,2018-06-29 10:30:16.750000,-71.54,61.52
202393,2018-06-29 10:30:16.781250,-133.53,61.52
202394,2018-06-29 10:30:16.812500,-201.62,61.52
202395,2018-06-29 10:30:16.843750,-271.52,61.52
202396,2018-06-29 10:30:16.875000,-334.76,61.52
202397,2018-06-29 10:30:16.906250,-374.98,61.52
202398,2018-06-29 10:30:16.937500,-378.67,61.52
202399,2018-06-29 10:30:16.968750,-346.82,61.52
202400,2018-06-29 10:30:17.000000,-292.64,61.52
202401,2018-06-29 10:30:17.031250,-230.71,61.52
202402,2018-06-29 10:30:17.062500,-169.5,61.52
202403,2018-06-29 10:30:17.093750,-110.95,61.52
202404,2018-06-29 10:30:17.125000,-55.12,61.52
202405,2018-06-29 10:30:17.156250,-2.92,61.52
202406,2018-06-29 10:30:17.187500,45.59,61.52
202407,2018-06-29 10:30:17.218750,89.11,61.52
202408,2018-06-29 10:30:17.250000,120.27,61.52
202409,2018-06-29 10:30:17.281250,131.81,61.52
202410,2018-06-29 10:30:17.312500,127.96,61.52
202411,2018-06-29 10:30:17.343750,120.54,61.52
202412,2018-06-29 10:30:17.375000,115.22,61.52
202413,2018-06-29 10:30:17.406250,110.42,61.52
202414,2018-06-29 10:30:17.437500,107.29,61.52
202415,2018-06-29 10:30:17.468750,112.26,61.52
202416,2018-06-29 10:30:17.500000,130.52,61.52
202417,2018-06-29 10:30:17.531250,160.1,61.45
202418,2018-06-29 10:30:17.562500,189.36,61.45
202419,2018-06-29 10:30:17.593750,199.98,61.45
202420,2018-06-29 10:30:17.625000,179.41,61.45
202421,2018-06-29 10:30:17.656250,129.64,61.45
202422,2018-06-29 10:30:17.687500,60.0,61.45
202423,2018-06-29 10:30:17.718750,-21.56,61.45
202424,2018-06-29 10:30:17.750000,-105.26,61.45
202425,2018-06-29 10:30:17.781250,-177.32,61.45
202426,2018-06-29 10:30:17.812500,-228.08,61.45
202427,2018-06-29 10:30:17.843750,-257.32,61.45
202428,2018-06-29 10:30:17.875000,-269.41,61.45
202429,2018-06-29 10:30:17.906250,-263.53,61.45
202430,2018-06-29 10:30:17.937500,-232.3,61.45
202431,2018-06-29 10:30:17.968750,-173.97,61.45
202432,2018-06-29 10:30:18.000000,-100.95,61.45
202433,2018-06-29 10:30:18.031250,-29.2,61.45
202434,2018-06-29 10:30:18.062500,33.77,61.45
202435,2018-06-29 10:30:18.093750,84.35,61.45
202436,2018-06-29 10:30:18.125000,116.92,61.45
202437,2018-06-29 10:30:18.156250,129.78,61.45
202438,2018-06-29 10:30:18.187500,129.97,61.45
202439,2018-06-29 10:30:18.218750,126.89,61.45
202440,2018-06-29 10:30:18.250000,124.06,61.45
202441,2018-06-29 10:30:18.281250,119.66,61.45
202442,2018-06-29 10:30:18.312500,112.95,61.45
202443,2018-06-29 10:30:18.343750,105.98,61.45
202444,2018-06-29 10:30:18.375000,99.27,61.45
202445,2018-06-29 10:30:18.406250,90.55,61.45
202446,2018-06-29 10:30:18.437500,79.37,61.45
202447,2018-06-29 10:30:18.468750,68.75,61.45
202448,2018-06-29 10:30:18.500000,60.73,61.45
202449,2018-06-29 10:30:18.531250,53.49,62.1
202450,2018-06-29 10:30:18.562500,45.27,62.1
202451,2018-06-29 10:30:18.593750,37.73,62.1
202452,2018-06-29 10:30:18.625000,33.46,62.1
202453,2018-06-29 10:30:18.656250,32.51,62.1
202454,2018-06-29 10:30:18.687500,31.84,62.1
202455,2018-06-29 10:30:18.718750,26.4,62.1
202456,2018-06-29 10:30:18.750000,12.58,62.1
202457,2018-06-29 10:30:18.781250,-8.3,62.1
202458,2018-06-29 10:30:18.812500,-33.1,62.1
202459,2018-06-29 10:30:18.843750,-61.72,62.1
202460,2018-06-29 10:30:18.875000,-94.24,62.1
202461,2018-06-29 10:30:18.906250,-124.93,62.1
202462,2018-06-29 10:30:18.937500,-142.85,62.1
202463,2018-06-29 10:30:18.968750,-137.79,62.1
202464,2018-06-29 10:30:19.000000,-109.14,62.1
202465,2018-06-29 10:30:19.031250,-71.37,62.1
202466,2018-06-29 10:30:19.062500,-43.57,62.1
202467,2018-06-29 10:30:19.093750,-30.85,62.1
202468,2018-06-29 10:30:19.125000,-23.46,62.1
202469,2018-06-29 10:30:19.156250,-13.3,62.1
202470,2018-06-29 10:30:19.187500,-1.02,62.1
202471,2018-06-29 10:30:19.218750,13.1,62.1
202472,2018-06-29 10:30:19.250000,34.78,62.1
202473,2018-06-29 10:30:19.281250,68.88,62.1
202474,2018-06-29 10:30:19.312500,113.84,62.1
202475,2018-06-29 10:30:19.343750,163.29,62.1
202476,2018-06-29 10:30:19.375000,206.0,62.1
202477,2018-06-29 10:30:19.406250,228.97,62.1
202478,2018-06-29 10:30:19.437500,228.91,62.1
202479,2018-06-29 10:30:19.468750,213.92,62.1
202480,2018-06-29 10:30:19.500000,188.69,62.1
202481,2018-06-29 10:30:19.531250,149.74,62.75
202482,2018-06-29 10:30:19.562500,97.83,62.75
202483,2018-06-29 10:30:19.593750,40.34,62.75
202484,2018-06-29 10:30:19.625000,-18.24,62.75
202485,2018-06-29 10:30:19.656250,-75.25,62.75
202486,2018-06-29 10:30:19.687500,-123.55,62.75
202487,2018-06-29 10:30:19.718750,-156.78,62.75
202488,2018-06-29 10:30:19.750000,-176.38,62.75
202489,2018-06-29 10:30:19.781250,-186.92,62.75
202490,2018-06-29 10:30:19.812500,-188.51,62.75
202491,2018-06-29 10:30:19.843750,-175.57,62.75
202492,2018-06-29 10:30:19.875000,-141.37,62.75
202493,2018-06-29 10:30:19.906250,-86.91,62.75
202494,2018-06-29 10:30:19.937500,-26.83,62.75
202495,2018-06-29 10:30:19.968750,18.28,62.75
202496,2018-06-29 10:30:20.000000,38.02,62.75
202497,2018-06-29 10:30:20.031250,37.34,62.75
202498,2018-06-29 10:30:20.062500,26.7,62.75
202499,2018-06-29 10:30:20.093750,12.45,62.75
202500,2018-06-29 10:30:20.125000,-2.34,62.75
202501,2018-06-29 10:30:20.156250,-13.82,62.75
202502,2018-06-29 10:30:20.187500,-18.47,62.75
202503,2018-06-29 10:30:20.218750,-16.47,62.75
202504,2018-06-29 10:30:20.250000,-12.27,62.75
202505,2018-06-29 10:30:20.281250,-12.63,62.75
202506,2018-06-29 10:30:20.312500,-22.28,62.75
202507,2018-06-29 10:30:20.343750,-39.22,62.75
202508,2018-06-29 10:30:20.375000,-56.18,62.75
202509,2018-06-29 10:30:20.406250,-68.26,62.75
202510,2018-06-29 10:30:20.437500,-76.75,62.75
202511,2018-06-29 10:30:20.468750,-84.96,62.75
202512,2018-06-29 10:30:20.500000,-92.72,62.75
202513,2018-06-29 10:30:20.531250,-96.46,63.37
202514,2018-06-29 10:30:20.562500,-93.13,63.37
202515,2018-06-29 10:30:20.593750,-81.84,63.37
202516,2018-06-29 10:30:20.625000,-63.57,63.37
202517,2018-06-29 10:30:20.656250,-41.4,63.37
202518,2018-06-29 10:30:20.687500,-19.63,63.37
202519,2018-06-29 10:30:20.718750,-0.95,63.37
202520,2018-06-29 10:30:20.750000,15.65,63.37
202521,2018-06-29 10:30:20.781250,36.15,63.37
202522,2018-06-29 10:30:20.812500,67.82,63.37
202523,2018-06-29 10:30:20.843750,109.27,63.37
202524,2018-06-29 10:30:20.875000,148.18,63.37
202525,2018-06-29 10:30:20.906250,173.91,63.37
202526,2018-06-29 10:30:20.937500,185.9,63.37
202527,2018-06-29 10:30:20.968750,186.72,63.37
202528,2018-06-29 10:30:21.000000,176.23,63.37
202529,2018-06-29 10:30:21.031250,156.95,63.37
202530,2018-06-29 10:30:21.062500,137.28,63.37
202531,2018-06-29 10:30:21.093750,124.38,63.37
202532,2018-06-29 10:30:21.125000,117.54,63.37
202533,2018-06-29 10:30:21.156250,111.5,63.37
202534,2018-06-29 10:30:21.187500,103.18,63.37
202535,2018-06-29 10:30:21.218750,91.72,63.37
202536,2018-06-29 10:30:21.250000,75.03,63.37
202537,2018-06-29 10:30:21.281250,50.81,63.37
202538,2018-06-29 10:30:21.312500,20.13,63.37
202539,2018-06-29 10:30:21.343750,-13.04,63.37
202540,2018-06-29 10:30:21.375000,-45.72,63.37
202541,2018-06-29 10:30:21.406250,-76.21,63.37
202542,2018-06-29 10:30:21.437500,-101.69,63.37
202543,2018-06-29 10:30:21.468750,-118.43,63.37
202544,2018-06-29 10:30:21.500000,-125.09,63.37
202545,2018-06-29 10:30:21.531250,-124.63,63.98
202546,2018-06-29 10:30:21.562500,-123.03,63.98
202547,2018-06-29 10:30:21.593750,-125.26,63.98
202548,2018-06-29 10:30:21.625000,-130.59,63.98
202549,2018-06-29 10:30:21.656250,-131.4,63.98
202550,2018-06-29 10:30:21.687500,-119.05,63.98
202551,2018-06-29 10:30:21.718750,-92.81,63.98
202552,2018-06-29 10:30:21.750000,-61.35,63.98
202553,2018-06-29 10:30:21.781250,-34.12,63.98
202554,2018-06-29 10:30:21.812500,-13.83,63.98
202555,2018-06-29 10:30:21.843750,1.1,63.98
202556,2018-06-29 10:30:21.875000,10.78,63.98
202557,2018-06-29 10:30:21.906250,14.52,63.98
202558,2018-06-29 10:30:21.937500,14.5,63.98
202559,2018-06-29 10:30:21.968750,14.76,63.98
202560,2018-06-29 10:30:22.000000,17.29,63.98
202561,2018-06-29 10:30:22.031250,21.14,63.98
202562,2018-06-29 10:30:22.062500,24.62,63.98
202563,2018-06-29 10:30:22.093750,26.28,63.98
202564,2018-06-29 10:30:22.125000,24.58,63.98
202565,2018-06-29 10:30:22.156250,19.33,63.98
202566,2018-06-29 10:30:22.187500,12.6,63.98
202567,2018-06-29 10:30:22.218750,6.04,63.98
202568,2018-06-29 10:30:22.250000,-0.93,63.98
202569,2018-06-29 10:30:22.281250,-9.08,63.98
202570,2018-06-29 10:30:22.312500,-17.88,63.98
202571,2018-06-29 10:30:22.343750,-26.52,63.98
202572,2018-06-29 10:30:22.375000,-34.31,63.98
202573,2018-06-29 10:30:22.406250,-40.4,63.98
202574,2018-06-29 10:30:22.437500,-44.71,63.98
202575,2018-06-29 10:30:22.468750,-47.51,63.98
202576,2018-06-29 10:30:22.500000,-49.31,63.98
202577,2018-06-29 10:30:22.531250,-52.81,64.53
202578,2018-06-29 10:30:22.562500,-59.5,64.53
202579,2018-06-29 10:30:22.593750,-60.43,64.53
202580,2018-06-29 10:30:22.625000,-41.13,64.53
202581,2018-06-29 10:30:22.656250,-0.62,64.53
202582,2018-06-29 10:30:22.687500,46.69,64.53
202583,2018-06-29 10:30:22.718750,90.29,64.53
202584,2018-06-29 10:30:22.750000,128.52,64.53
202585,2018-06-29 10:30:22.781250,154.71,64.53
202586,2018-06-29 10:30:22.812500,157.52,64.53
202587,2018-06-29 10:30:22.843750,137.63,64.53
202588,2018-06-29 10:30:22.875000,109.31,64.53
202589,2018-06-29 10:30:22.906250,84.35,64.53
202590,2018-06-29 10:30:22.937500,64.67,64.53
202591,2018-06-29 10:30:22.968750,49.52,64.53
202592,2018-06-29 10:30:23.000000,39.33,64.53
202593,2018-06-29 10:30:23.031250,31.91,64.53
202594,2018-06-29 10:30:23.062500,22.92,64.53
202595,2018-06-29 10:30:23.093750,11.54,64.53
202596,2018-06-29 10:30:23.125000,0.69,64.53
202597,2018-06-29 10:30:23.156250,-8.83,64.53
202598,2018-06-29 10:30:23.187500,-19.13,64.53
202599,2018-06-29 10:30:23.218750,-30.23,64.53
202600,2018-06-29 10:30:23.250000,-39.34,64.53
202601,2018-06-29 10:30:23.281250,-46.38,64.53
202602,2018-06-29 10:30:23.312500,-54.87,64.53
202603,2018-06-29 10:30:23.343750,-66.12,64.53
202604,2018-06-29 10:30:23.375000,-77.33,64.53
202605,2018-06-29 10:30:23.406250,-86.64,64.53
202606,2018-06-29 10:30:23.437500,-96.12,64.53
202607,2018-06-29 10:30:23.468750,-108.59,64.53
202608,2018-06-29 10:30:23.500000,-123.52,64.53
202609,2018-06-29 10:30:23.531250,-134.05,65.12
202610,2018-06-29 10:30:23.562500,-129.08,65.12
202611,2018-06-29 10:30:23.593750,-104.47,65.12
202612,2018-06-29 10:30:23.625000,-69.86,65.12
202613,2018-06-29 10:30:23.656250,-38.19,65.12
202614,2018-06-29 10:30:23.687500,-13.3,65.12
202615,2018-06-29 10:30:23.718750,7.23,65.12
202616,2018-06-29 10:30:23.750000,24.01,65.12
202617,2018-06-29 10:30:23.781250,36.07,65.12
202618,2018-06-29 10:30:23.812500,44.33,65.12
202619,2018-06-29 10:30:23.843750,50.95,65.12
202620,2018-06-29 10:30:23.875000,57.18,65.12
202621,2018-06-29 10:30:23.906250,64.12,65.12
202622,2018-06-29 10:30:23.937500,71.74,65.12
202623,2018-06-29 10:30:23.968750,76.03,65.12
202624,2018-06-29 10:30:24.000000,71.15,65.12
202625,2018-06-29 10:30:24.031250,56.82,65.12
202626,2018-06-29 10:30:24.062500,39.58,65.12
202627,2018-06-29 10:30:24.093750,24.94,65.12
202628,2018-06-29 10:30:24.125000,11.71,65.12
202629,2018-06-29 10:30:24.156250,-3.71,65.12
202630,2018-06-29 10:30:24.187500,-20.1,65.12
202631,2018-06-29 10:30:24.218750,-34.01,65.12
202632,2018-06-29 10:30:24.250000,-50.57,65.12
202633,2018-06-29 10:30:24.281250,-83.58,65.12
202634,2018-06-29 10:30:24.312500,-138.85,65.12
202635,2018-06-29 10:30:24.343750,-201.21,65.12
202636,2018-06-29 10:30:24.375000,-245.03,65.12
202637,2018-06-29 10:30:24.406250,-257.58,65.12
202638,2018-06-29 10:30:24.437500,-253.75,65.12
202639,2018-06-29 10:30:24.468750,-267.23,65.12
202640,2018-06-29 10:30:24.500000,-317.54,65.12
202641,2018-06-29 10:30:24.531250,-384.2,65.75
202642,2018-06-29 10:30:24.562500,-424.22,65.75
202643,2018-06-29 10:30:24.593750,-408.95,65.75
202644,2018-06-29 10:30:24.625000,-328.96,65.75
202645,2018-06-29 10:30:24.656250,-180.99,65.75
202646,2018-06-29 10:30:24.687500,18.59,65.75
202647,2018-06-29 10:30:24.718750,220.72,65.75
202648,2018-06-29 10:30:24.750000,375.26,65.75
202649,2018-06-29 10:30:24.781250,469.52,65.75
202650,2018-06-29 10:30:24.812500,517.26,65.75
202651,2018-06-29 10:30:24.843750,524.67,65.75
202652,2018-06-29 10:30:24.875000,488.28,65.75
202653,2018-06-29 10:30:24.906250,414.32,65.75
202654,2018-06-29 10:30:24.937500,318.52,65.75
202655,2018-06-29 10:30:24.968750,209.39,65.75
202656,2018-06-29 10:30:25.000000,88.84,65.75
202657,2018-06-29 10:30:25.031250,-27.85,65.75
202658,2018-06-29 10:30:25.062500,-111.98,65.75
202659,2018-06-29 10:30:25.093750,-146.85,65.75
202660,2018-06-29 10:30:25.125000,-136.01,65.75
202661,2018-06-29 10:30:25.156250,-92.58,65.75
202662,2018-06-29 10:30:25.187500,-36.73,65.75
202663,2018-06-29 10:30:25.218750,8.77,65.75
202664,2018-06-29 10:30:25.250000,33.07,65.75
202665,2018-06-29 10:30:25.281250,37.59,65.75
202666,2018-06-29 10:30:25.312500,24.24,65.75
202667,2018-06-29 10:30:25.343750,-4.59,65.75
202668,2018-06-29 10:30:25.375000,-42.12,65.75
202669,2018-06-29 10:30:25.406250,-77.89,65.75
202670,2018-06-29 10:30:25.437500,-96.3,65.75
202671,2018-06-29 10:30:25.468750,-83.8,65.75
202672,2018-06-29 10:30:25.500000,-43.79,65.75
202673,2018-06-29 10:30:25.531250,3.71,66.4
202674,2018-06-29 10:30:25.562500,40.9,66.4
202675,2018-06-29 10:30:25.593750,63.06,66.4
202676,2018-06-29 10:30:25.625000,72.64,66.4
202677,2018-06-29 10:30:25.656250,72.21,66.4
202678,2018-06-29 10:30:25.687500,65.45,66.4
202679,2018-06-29 10:30:25.718750,58.13,66.4
202680,2018-06-29 10:30:25.750000,54.72,66.4
202681,2018-06-29 10:30:25.781250,55.15,66.4
202682,2018-06-29 10:30:25.812500,57.02,66.4
202683,2018-06-29 10:30:25.843750,59.46,66.4
202684,2018-06-29 10:30:25.875000,63.28,66.4
202685,2018-06-29 10:30:25.906250,66.09,66.4
202686,2018-06-29 10:30:25.937500,63.62,66.4
202687,2018-06-29 10:30:25.968750,57.09,66.4
202688,2018-06-29 10:30:26.000000,50.91,66.4
202689,2018-06-29 10:30:26.031250,45.92,66.4
202690,2018-06-29 10:30:26.062500,36.35,66.4
202691,2018-06-29 10:30:26.093750,20.28,66.4
202692,2018-06-29 10:30:26.125000,2.74,66.4
202693,2018-06-29 10:30:26.156250,-11.75,66.4
202694,2018-06-29 10:30:26.187500,-30.36,66.4
202695,2018-06-29 10:30:26.218750,-66.62,66.4
202696,2018-06-29 10:30:26.250000,-122.14,66.4
202697,2018-06-29 10:30:26.281250,-183.43,66.4
202698,2018-06-29 10:30:26.312500,-226.0,66.4
202699,2018-06-29 10:30:26.343750,-246.46,66.4
202700,2018-06-29 10:30:26.375000,-253.0,66.4
202701,2018-06-29 10:30:26.406250,-252.23,66.4
202702,2018-06-29 10:30:26.437500,-228.53,66.4
202703,2018-06-29 10:30:26.468750,-171.99,66.4
202704,2018-06-29 10:30:26.500000,-103.2,66.4
202705,2018-06-29 10:30:26.531250,-39.33,67.02
202706,2018-06-29 10:30:26.562500,26.98,67.02
202707,2018-06-29 10:30:26.593750,147.83,67.02
202708,2018-06-29 10:30:26.625000,323.73,67.02
202709,2018-06-29 10:30:26.656250,511.22,67.02
202710,2018-06-29 10:30:26.687500,649.53,67.02
202711,2018-06-29 10:30:26.718750,719.98,67.02
202712,2018-06-29 10:30:26.750000,724.8,67.02
202713,2018-06-29 10:30:26.781250,659.41,67.02
202714,2018-06-29 10:30:26.812500,567.2,67.02
202715,2018-06-29 10:30:26.843750,337.8,67.02
202716,2018-06-29 10:30:26.875000,20.25,67.02
202717,2018-06-29 10:30:26.906250,-186.32,67.02
202718,2018-06-29 10:30:26.937500,-309.59,67.02
202719,2018-06-29 10:30:26.968750,-397.38,67.02
202720,2018-06-29 10:30:27.000000,-433.33,67.02
202721,2018-06-29 10:30:27.031250,-427.7,67.02
202722,2018-06-29 10:30:27.062500,-426.85,67.02
202723,2018-06-29 10:30:27.093750,-433.83,67.02
202724,2018-06-29 10:30:27.125000,-420.6,67.02
202725,2018-06-29 10:30:27.156250,-346.39,67.02
202726,2018-06-29 10:30:27.187500,-223.4,67.02
202727,2018-06-29 10:30:27.218750,-90.97,67.02
202728,2018-06-29 10:30:27.250000,18.55,67.02
202729,2018-06-29 10:30:27.281250,101.21,67.02
202730,2018-06-29 10:30:27.312500,159.41,67.02
202731,2018-06-29 10:30:27.343750,185.05,67.02
202732,2018-06-29 10:30:27.375000,186.01,67.02
202733,2018-06-29 10:30:27.406250,170.13,67.02
202734,2018-06-29 10:30:27.437500,150.79,67.02
202735,2018-06-29 10:30:27.468750,138.04,67.02
202736,2018-06-29 10:30:27.500000,138.54,67.02
202737,2018-06-29 10:30:27.531250,149.31,67.63
202738,2018-06-29 10:30:27.562500,156.61,67.63
202739,2018-06-29 10:30:27.593750,144.14,67.63
202740,2018-06-29 10:30:27.625000,102.37,67.63
202741,2018-06-29 10:30:27.656250,42.77,67.63
202742,2018-06-29 10:30:27.687500,-15.38,67.63
202743,2018-06-29 10:30:27.718750,-65.37,67.63
202744,2018-06-29 10:30:27.750000,-111.13,67.63
202745,2018-06-29 10:30:27.781250,-155.86,67.63
202746,2018-06-29 10:30:27.812500,-196.79,67.63
202747,2018-06-29 10:30:27.843750,-228.91,67.63
202748,2018-06-29 10:30:27.875000,-251.4,67.63
202749,2018-06-29 10:30:27.906250,-270.93,67.63
202750,2018-06-29 10:30:27.937500,-292.46,67.63
202751,2018-06-29 10:30:27.968750,-307.31,67.63
202752,2018-06-29 10:30:28.000000,-296.54,67.63
202753,2018-06-29 10:30:28.031250,-247.38,67.63
202754,2018-06-29 10:30:28.062500,-164.96,67.63
202755,2018-06-29 10:30:28.093750,-69.85,67.63
202756,2018-06-29 10:30:28.125000,15.23,67.63
202757,2018-06-29 10:30:28.156250,77.83,67.63
202758,2018-06-29 10:30:28.187500,118.63,67.63
202759,2018-06-29 10:30:28.218750,143.94,67.63
202760,2018-06-29 10:30:28.250000,156.6,67.63
202761,2018-06-29 10:30:28.281250,156.37,67.63
202762,2018-06-29 10:30:28.312500,146.29,67.63
202763,2018-06-29 10:30:28.343750,132.11,67.63
202764,2018-06-29 10:30:28.375000,117.06,67.63
202765,2018-06-29 10:30:28.406250,101.42,67.63
202766,2018-06-29 10:30:28.437500,84.81,67.63
202767,2018-06-29 10:30:28.468750,66.24,67.63
202768,2018-06-29 10:30:28.500000,44.3,67.63
202769,2018-06-29 10:30:28.531250,18.77,68.27
202770,2018-06-29 10:30:28.562500,-8.34,68.27
202771,2018-06-29 10:30:28.593750,-33.44,68.27
202772,2018-06-29 10:30:28.625000,-52.8,68.27
202773,2018-06-29 10:30:28.656250,-63.34,68.27
202774,2018-06-29 10:30:28.687500,-63.26,68.27
202775,2018-06-29 10:30:28.718750,-54.35,68.27
202776,2018-06-29 10:30:28.750000,-42.1,68.27
202777,2018-06-29 10:30:28.781250,-29.81,68.27
202778,2018-06-29 10:30:28.812500,-13.02,68.27
202779,2018-06-29 10:30:28.843750,15.48,68.27
202780,2018-06-29 10:30:28.875000,54.19,68.27
202781,2018-06-29 10:30:28.906250,89.83,68.27
202782,2018-06-29 10:30:28.937500,108.39,68.27
202783,2018-06-29 10:30:28.968750,107.78,68.27
202784,2018-06-29 10:30:29.000000,96.48,68.27
202785,2018-06-29 10:30:29.031250,81.07,68.27
202786,2018-06-29 10:30:29.062500,62.2,68.27
202787,2018-06-29 10:30:29.093750,42.75,68.27
202788,2018-06-29 10:30:29.125000,28.64,68.27
202789,2018-06-29 10:30:29.156250,19.46,68.27
202790,2018-06-29 10:30:29.187500,8.79,68.27
202791,2018-06-29 10:30:29.218750,-5.28,68.27
202792,2018-06-29 10:30:29.250000,-18.66,68.27
202793,2018-06-29 10:30:29.281250,-28.32,68.27
202794,2018-06-29 10:30:29.312500,-35.45,68.27
202795,2018-06-29 10:30:29.343750,-43.69,68.27
202796,2018-06-29 10:30:29.375000,-55.45,68.27
202797,2018-06-29 10:30:29.406250,-68.93,68.27
202798,2018-06-29 10:30:29.437500,-80.46,68.27
202799,2018-06-29 10:30:29.468750,-89.71,68.27
202800,2018-06-29 10:30:29.500000,-98.46,68.27
202801,2018-06-29 10:30:29.531250,-105.02,68.75
202802,2018-06-29 10:30:29.562500,-102.51,68.75
202803,2018-06-29 10:30:29.593750,-83.5,68.75
202804,2018-06-29 10:30:29.625000,-48.49,68.75
202805,2018-06-29 10:30:29.656250,-8.33,68.75
202806,2018-06-29 10:30:29.687500,25.02,68.75
202807,2018-06-29 10:30:29.718750,47.17,68.75
202808,2018-06-29 10:30:29.750000,58.94,68.75
202809,2018-06-29 10:30:29.781250,62.26,68.75
202810,2018-06-29 10:30:29.812500,61.31,68.75
202811,2018-06-29 10:30:29.843750,62.05,68.75
202812,2018-06-29 10:30:29.875000,66.82,68.75
202813,2018-06-29 10:30:29.906250,71.23,68.75
202814,2018-06-29 10:30:29.937500,69.39,68.75
202815,2018-06-29 10:30:29.968750,60.35,68.75
202816,2018-06-29 10:30:30.000000,46.99,68.75
202817,2018-06-29 10:30:30.031250,32.28,68.75
202818,2018-06-29 10:30:30.062500,19.62,68.75
202819,2018-06-29 10:30:30.093750,11.87,68.75
202820,2018-06-29 10:30:30.125000,7.82,68.75
202821,2018-06-29 10:30:30.156250,3.31,68.75
202822,2018-06-29 10:30:30.187500,-5.04,68.75
202823,2018-06-29 10:30:30.218750,-19.2,68.75
202824,2018-06-29 10:30:30.250000,-38.88,68.75
202825,2018-06-29 10:30:30.281250,-58.22,68.75
202826,2018-06-29 10:30:30.312500,-65.92,68.75
202827,2018-06-29 10:30:30.343750,-53.72,68.75
202828,2018-06-29 10:30:30.375000,-25.43,68.75
202829,2018-06-29 10:30:30.406250,5.84,68.75
202830,2018-06-29 10:30:30.437500,29.07,68.75
202831,2018-06-29 10:30:30.468750,40.91,68.75
202832,2018-06-29 10:30:30.500000,42.2,68.75
202833,2018-06-29 10:30:30.531250,34.91,69.3
202834,2018-06-29 10:30:30.562500,23.17,69.3
202835,2018-06-29 10:30:30.593750,13.4,69.3
202836,2018-06-29 10:30:30.625000,10.59,69.3
202837,2018-06-29 10:30:30.656250,14.2,69.3
202838,2018-06-29 10:30:30.687500,19.1,69.3
202839,2018-06-29 10:30:30.718750,21.01,69.3
202840,2018-06-29 10:30:30.750000,18.88,69.3
202841,2018-06-29 10:30:30.781250,12.22,69.3
202842,2018-06-29 10:30:30.812500,0.31,69.3
202843,2018-06-29 10:30:30.843750,-15.08,69.3
202844,2018-06-29 10:30:30.875000,-29.93,69.3
202845,2018-06-29 10:30:30.906250,-42.03,69.3
202846,2018-06-29 10:30:30.937500,-52.16,69.3
202847,2018-06-29 10:30:30.968750,-60.63,69.3
202848,2018-06-29 10:30:31.000000,-63.93,69.3
202849,2018-06-29 10:30:31.031250,-56.03,69.3
202850,2018-06-29 10:30:31.062500,-34.08,69.3
202851,2018-06-29 10:30:31.093750,-2.74,69.3
202852,2018-06-29 10:30:31.125000,29.04,69.3
202853,2018-06-29 10:30:31.156250,54.33,69.3
202854,2018-06-29 10:30:31.187500,69.5,69.3
202855,2018-06-29 10:30:31.218750,72.93,69.3
202856,2018-06-29 10:30:31.250000,65.92,69.3
202857,2018-06-29 10:30:31.281250,53.31,69.3
202858,2018-06-29 10:30:31.312500,40.29,69.3
202859,2018-06-29 10:30:31.343750,29.43,69.3
202860,2018-06-29 10:30:31.375000,20.85,69.3
202861,2018-06-29 10:30:31.406250,13.89,69.3
202862,2018-06-29 10:30:31.437500,7.63,69.3
202863,2018-06-29 10:30:31.468750,0.07,69.3
202864,2018-06-29 10:30:31.500000,-11.05,69.3
202865,2018-06-29 10:30:31.531250,-24.99,69.78
202866,2018-06-29 10:30:31.562500,-38.07,69.78
202867,2018-06-29 10:30:31.593750,-48.7,69.78
202868,2018-06-29 10:30:31.625000,-60.1,69.78
202869,2018-06-29 10:30:31.656250,-75.61,69.78
202870,2018-06-29 10:30:31.687500,-92.73,69.78
202871,2018-06-29 10:30:31.718750,-102.45,69.78
202872,2018-06-29 10:30:31.750000,-95.21,69.78
202873,2018-06-29 10:30:31.781250,-70.06,69.78
202874,2018-06-29 10:30:31.812500,-36.4,69.78
202875,2018-06-29 10:30:31.843750,-5.13,69.78
202876,2018-06-29 10:30:31.875000,19.03,69.78
202877,2018-06-29 10:30:31.906250,36.35,69.78
202878,2018-06-29 10:30:31.937500,47.51,69.78
202879,2018-06-29 10:30:31.968750,52.21,69.78
202880,2018-06-29 10:30:32.000000,50.66,69.78
202881,2018-06-29 10:30:32.031250,45.19,69.78
202882,2018-06-29 10:30:32.062500,38.85,69.78
202883,2018-06-29 10:30:32.093750,33.25,69.78
202884,2018-06-29 10:30:32.125000,29.08,69.78
202885,2018-06-29 10:30:32.156250,26.23,69.78
202886,2018-06-29 10:30:32.187500,22.15,69.78
202887,2018-06-29 10:30:32.218750,13.84,69.78
202888,2018-06-29 10:30:32.250000,1.7,69.78
202889,2018-06-29 10:30:32.281250,-11.46,69.78
202890,2018-06-29 10:30:32.312500,-24.41,69.78
202891,2018-06-29 10:30:32.343750,-38.21,69.78
202892,2018-06-29 10:30:32.375000,-53.99,69.78
202893,2018-06-29 10:30:32.406250,-69.65,69.78
202894,2018-06-29 10:30:32.437500,-77.74,69.78
202895,2018-06-29 10:30:32.468750,-69.99,69.78
202896,2018-06-29 10:30:32.500000,-46.49,69.78
202897,2018-06-29 10:30:32.531250,-16.34,70.27
202898,2018-06-29 10:30:32.562500,11.9,70.27
202899,2018-06-29 10:30:32.593750,35.27,70.27
202900,2018-06-29 10:30:32.625000,52.84,70.27
202901,2018-06-29 10:30:32.656250,63.06,70.27
202902,2018-06-29 10:30:32.687500,65.63,70.27
202903,2018-06-29 10:30:32.718750,62.86,70.27
202904,2018-06-29 10:30:32.750000,58.11,70.27
202905,2018-06-29 10:30:32.781250,53.8,70.27
202906,2018-06-29 10:30:32.812500,51.32,70.27
202907,2018-06-29 10:30:32.843750,51.0,70.27
202908,2018-06-29 10:30:32.875000,51.26,70.27
202909,2018-06-29 10:30:32.906250,49.28,70.27
202910,2018-06-29 10:30:32.937500,44.13,70.27
202911,2018-06-29 10:30:32.968750,37.64,70.27
202912,2018-06-29 10:30:33.000000,31.89,70.27
202913,2018-06-29 10:30:33.031250,26.7,70.27
202914,2018-06-29 10:30:33.062500,20.39,70.27
202915,2018-06-29 10:30:33.093750,12.57,70.27
202916,2018-06-29 10:30:33.125000,4.84,70.27
202917,2018-06-29 10:30:33.156250,-1.61,70.27
202918,2018-06-29 10:30:33.187500,-7.83,70.27
202919,2018-06-29 10:30:33.218750,-15.06,70.27
202920,2018-06-29 10:30:33.250000,-22.19,70.27
202921,2018-06-29 10:30:33.281250,-27.37,70.27
202922,2018-06-29 10:30:33.312500,-31.95,70.27
202923,2018-06-29 10:30:33.343750,-39.19,70.27
202924,2018-06-29 10:30:33.375000,-49.17,70.27
202925,2018-06-29 10:30:33.406250,-58.97,70.27
202926,2018-06-29 10:30:33.437500,-67.8,70.27
202927,2018-06-29 10:30:33.468750,-77.52,70.27
202928,2018-06-29 10:30:33.500000,-89.91,70.27
202929,2018-06-29 10:30:33.531250,-104.14,70.73
202930,2018-06-29 10:30:33.562500,-113.17,70.73
202931,2018-06-29 10:30:33.593750,-105.89,70.73
202932,2018-06-29 10:30:33.625000,-78.95,70.73
202933,2018-06-29 10:30:33.656250,-42.26,70.73
202934,2018-06-29 10:30:33.687500,-8.24,70.73
202935,2018-06-29 10:30:33.718750,18.75,70.73
202936,2018-06-29 10:30:33.750000,39.87,70.73
202937,2018-06-29 10:30:33.781250,55.14,70.73
202938,2018-06-29 10:30:33.812500,62.98,70.73
202939,2018-06-29 10:30:33.843750,64.04,70.73
202940,2018-06-29 10:30:33.875000,62.02,70.73
202941,2018-06-29 10:30:33.906250,60.44,70.73
202942,2018-06-29 10:30:33.937500,60.58,70.73
202943,2018-06-29 10:30:33.968750,62.25,70.73
202944,2018-06-29 10:30:34.000000,64.03,70.73
202945,2018-06-29 10:30:34.031250,63.45,70.73
202946,2018-06-29 10:30:34.062500,59.42,70.73
202947,2018-06-29 10:30:34.093750,53.24,70.73
202948,2018-06-29 10:30:34.125000,46.41,70.73
202949,2018-06-29 10:30:34.156250,38.75,70.73
202950,2018-06-29 10:30:34.187500,29.55,70.73
202951,2018-06-29 10:30:34.218750,19.63,70.73
202952,2018-06-29 10:30:34.250000,10.66,70.73
202953,2018-06-29 10:30:34.281250,2.87,70.73
202954,2018-06-29 10:30:34.312500,-4.71,70.73
202955,2018-06-29 10:30:34.343750,-12.4,70.73
202956,2018-06-29 10:30:34.375000,-19.89,70.73
202957,2018-06-29 10:30:34.406250,-27.87,70.73
202958,2018-06-29 10:30:34.437500,-37.41,70.73
202959,2018-06-29 10:30:34.468750,-48.34,70.73
202960,2018-06-29 10:30:34.500000,-59.01,70.73
202961,2018-06-29 10:30:34.531250,-68.01,71.18
202962,2018-06-29 10:30:34.562500,-76.26,71.18
202963,2018-06-29 10:30:34.593750,-86.73,71.18
202964,2018-06-29 10:30:34.625000,-100.05,71.18
202965,2018-06-29 10:30:34.656250,-109.29,71.18
202966,2018-06-29 10:30:34.687500,-103.4,71.18
202967,2018-06-29 10:30:34.718750,-78.59,71.18
202968,2018-06-29 10:30:34.750000,-43.32,71.18
202969,2018-06-29 10:30:34.781250,-9.65,71.18
202970,2018-06-29 10:30:34.812500,16.32,71.18
202971,2018-06-29 10:30:34.843750,34.58,71.18
202972,2018-06-29 10:30:34.875000,46.65,71.18
202973,2018-06-29 10:30:34.906250,53.54,71.18
202974,2018-06-29 10:30:34.937500,56.06,71.18
202975,2018-06-29 10:30:34.968750,55.92,71.18
202976,2018-06-29 10:30:35.000000,55.31,71.18
202977,2018-06-29 10:30:35.031250,55.27,71.18
202978,2018-06-29 10:30:35.062500,55.61,71.18
202979,2018-06-29 10:30:35.093750,55.85,71.18
202980,2018-06-29 10:30:35.125000,55.0,71.18
202981,2018-06-29 10:30:35.156250,51.49,71.18
202982,2018-06-29 10:30:35.187500,45.2,71.18
202983,2018-06-29 10:30:35.218750,38.05,71.18
202984,2018-06-29 10:30:35.250000,31.31,71.18
202985,2018-06-29 10:30:35.281250,23.65,71.18
202986,2018-06-29 10:30:35.312500,13.99,71.18
202987,2018-06-29 10:30:35.343750,4.03,71.18
202988,2018-06-29 10:30:35.375000,-4.78,71.18
202989,2018-06-29 10:30:35.406250,-13.95,71.18
202990,2018-06-29 10:30:35.437500,-24.84,71.18
202991,2018-06-29 10:30:35.468750,-35.78,71.18
202992,2018-06-29 10:30:35.500000,-45.22,71.18
202993,2018-06-29 10:30:35.531250,-54.86,71.65
202994,2018-06-29 10:30:35.562500,-67.46,71.65
202995,2018-06-29 10:30:35.593750,-82.62,71.65
202996,2018-06-29 10:30:35.625000,-93.62,71.65
202997,2018-06-29 10:30:35.656250,-89.97,71.65
202998,2018-06-29 10:30:35.687500,-67.28,71.65
202999,2018-06-29 10:30:35.718750,-33.12,71.65
203000,2018-06-29 10:30:35.750000,0.42,71.65
203001,2018-06-29 10:30:35.781250,26.43,71.65
203002,2018-06-29 10:30:35.812500,43.98,71.65
203003,2018-06-29 10:30:35.843750,53.98,71.65
203004,2018-06-29 10:30:35.875000,57.47,71.65
203005,2018-06-29 10:30:35.906250,56.08,71.65
203006,2018-06-29 10:30:35.937500,52.84,71.65
203007,2018-06-29 10:30:35.968750,50.61,71.65
203008,2018-06-29 10:30:36.000000,50.06,71.65
203009,2018-06-29 10:30:36.031250,50.74,71.65
203010,2018-06-29 10:30:36.062500,52.22,71.65
203011,2018-06-29 10:30:36.093750,52.68,71.65
203012,2018-06-29 10:30:36.125000,49.25,71.65
203013,2018-06-29 10:30:36.156250,41.51,71.65
203014,2018-06-29 10:30:36.187500,32.08,71.65
203015,2018-06-29 10:30:36.218750,23.64,71.65
203016,2018-06-29 10:30:36.250000,16.48,71.65
203017,2018-06-29 10:30:36.281250,9.05,71.65
203018,2018-06-29 10:30:36.312500,0.69,71.65
203019,2018-06-29 10:30:36.343750,-7.14,71.65
203020,2018-06-29 10:30:36.375000,-13.35,71.65
203021,2018-06-29 10:30:36.406250,-19.52,71.65
203022,2018-06-29 10:30:36.437500,-27.71,71.65
203023,2018-06-29 10:30:36.468750,-37.44,71.65
203024,2018-06-29 10:30:36.500000,-46.68,71.65
203025,2018-06-29 10:30:36.531250,-54.62,72.18
203026,2018-06-29 10:30:36.562500,-63.07,72.18
203027,2018-06-29 10:30:36.593750,-74.45,72.18
203028,2018-06-29 10:30:36.625000,-87.12,72.18
203029,2018-06-29 10:30:36.656250,-92.95,72.18
203030,2018-06-29 10:30:36.687500,-82.65,72.18
203031,2018-06-29 10:30:36.718750,-55.37,72.18
203032,2018-06-29 10:30:36.750000,-20.78,72.18
203033,2018-06-29 10:30:36.781250,9.97,72.18
203034,2018-06-29 10:30:36.812500,32.07,72.18
203035,2018-06-29 10:30:36.843750,45.88,72.18
203036,2018-06-29 10:30:36.875000,52.77,72.18
203037,2018-06-29 10:30:36.906250,54.82,72.18
203038,2018-06-29 10:30:36.937500,55.0,72.18
203039,2018-06-29 10:30:36.968750,55.66,72.18
203040,2018-06-29 10:30:37.000000,57.51,72.18
203041,2018-06-29 10:30:37.031250,60.52,72.18
203042,2018-06-29 10:30:37.062500,64.25,72.18
203043,2018-06-29 10:30:37.093750,66.62,72.18
203044,2018-06-29 10:30:37.125000,64.66,72.18
203045,2018-06-29 10:30:37.156250,57.43,72.18
203046,2018-06-29 10:30:37.187500,47.11,72.18
203047,2018-06-29 10:30:37.218750,36.48,72.18
203048,2018-06-29 10:30:37.250000,26.74,72.18
203049,2018-06-29 10:30:37.281250,18.04,72.18
203050,2018-06-29 10:30:37.312500,10.59,72.18
203051,2018-06-29 10:30:37.343750,4.36,72.18
203052,2018-06-29 10:30:37.375000,-1.6,72.18
203053,2018-06-29 10:30:37.406250,-8.09,72.18
203054,2018-06-29 10:30:37.437500,-14.49,72.18
203055,2018-06-29 10:30:37.468750,-20.18,72.18
203056,2018-06-29 10:30:37.500000,-26.56,72.18
203057,2018-06-29 10:30:37.531250,-34.95,72.78
203058,2018-06-29 10:30:37.562500,-43.72,72.78
203059,2018-06-29 10:30:37.593750,-50.84,72.78
203060,2018-06-29 10:30:37.625000,-57.12,72.78
203061,2018-06-29 10:30:37.656250,-64.88,72.78
203062,2018-06-29 10:30:37.687500,-75.1,72.78
203063,2018-06-29 10:30:37.718750,-85.05,72.78
203064,2018-06-29 10:30:37.750000,-86.73,72.78
203065,2018-06-29 10:30:37.781250,-72.7,72.78
203066,2018-06-29 10:30:37.812500,-45.6,72.78
203067,2018-06-29 10:30:37.843750,-16.51,72.78
203068,2018-06-29 10:30:37.875000,5.99,72.78
203069,2018-06-29 10:30:37.906250,20.42,72.78
203070,2018-06-29 10:30:37.937500,28.2,72.78
203071,2018-06-29 10:30:37.968750,30.54,72.78
203072,2018-06-29 10:30:38.000000,29.6,72.78
203073,2018-06-29 10:30:38.031250,28.9,72.78
203074,2018-06-29 10:30:38.062500,30.32,72.78
203075,2018-06-29 10:30:38.093750,32.42,72.78
203076,2018-06-29 10:30:38.125000,33.35,72.78
203077,2018-06-29 10:30:38.156250,33.04,72.78
203078,2018-06-29 10:30:38.187500,30.93,72.78
203079,2018-06-29 10:30:38.218750,25.31,72.78
203080,2018-06-29 10:30:38.250000,16.22,72.78
203081,2018-06-29 10:30:38.281250,6.22,72.78
203082,2018-06-29 10:30:38.312500,-2.89,72.78
203083,2018-06-29 10:30:38.343750,-11.96,72.78
203084,2018-06-29 10:30:38.375000,-21.86,72.78
203085,2018-06-29 10:30:38.406250,-30.93,72.78
203086,2018-06-29 10:30:38.437500,-37.33,72.78
203087,2018-06-29 10:30:38.468750,-42.14,72.78
203088,2018-06-29 10:30:38.500000,-48.48,72.78
203089,2018-06-29 10:30:38.531250,-58.78,73.32
203090,2018-06-29 10:30:38.562500,-71.62,73.32
203091,2018-06-29 10:30:38.593750,-78.85,73.32
203092,2018-06-29 10:30:38.625000,-70.25,73.32
203093,2018-06-29 10:30:38.656250,-44.69,73.32
203094,2018-06-29 10:30:38.687500,-12.52,73.32
203095,2018-06-29 10:30:38.718750,15.17,73.32
203096,2018-06-29 10:30:38.750000,34.14,73.32
203097,2018-06-29 10:30:38.781250,44.55,73.32
203098,2018-06-29 10:30:38.812500,47.53,73.32
203099,2018-06-29 10:30:38.843750,44.92,73.32
203100,2018-06-29 10:30:38.875000,39.69,73.32
203101,2018-06-29 10:30:38.906250,35.2,73.32
203102,2018-06-29 10:30:38.937500,33.07,73.32
203103,2018-06-29 10:30:38.968750,32.43,73.32
203104,2018-06-29 10:30:39.000000,31.9,73.32
203105,2018-06-29 10:30:39.031250,29.99,73.32
203106,2018-06-29 10:30:39.062500,24.55,73.32
203107,2018-06-29 10:30:39.093750,15.23,73.32
203108,2018-06-29 10:30:39.125000,4.59,73.32
203109,2018-06-29 10:30:39.156250,-5.86,73.32
203110,2018-06-29 10:30:39.187500,-17.33,73.32
203111,2018-06-29 10:30:39.218750,-30.11,73.32
203112,2018-06-29 10:30:39.250000,-41.78,73.32
203113,2018-06-29 10:30:39.281250,-50.85,73.32
203114,2018-06-29 10:30:39.312500,-59.57,73.32
203115,2018-06-29 10:30:39.343750,-71.75,73.32
203116,2018-06-29 10:30:39.375000,-85.75,73.32
203117,2018-06-29 10:30:39.406250,-90.64,73.32
203118,2018-06-29 10:30:39.437500,-75.22,73.32
203119,2018-06-29 10:30:39.468750,-42.04,73.32
203120,2018-06-29 10:30:39.500000,-5.59,73.32
203121,2018-06-29 10:30:39.531250,23.1,73.83
203122,2018-06-29 10:30:39.562500,42.59,73.83
203123,2018-06-29 10:30:39.593750,54.0,73.83
203124,2018-06-29 10:30:39.625000,57.52,73.83
203125,2018-06-29 10:30:39.656250,55.35,73.83
203126,2018-06-29 10:30:39.687500,51.19,73.83
203127,2018-06-29 10:30:39.718750,46.94,73.83
203128,2018-06-29 10:30:39.750000,43.4,73.83
203129,2018-06-29 10:30:39.781250,42.01,73.83
203130,2018-06-29 10:30:39.812500,42.92,73.83
203131,2018-06-29 10:30:39.843750,43.22,73.83
203132,2018-06-29 10:30:39.875000,39.1,73.83
203133,2018-06-29 10:30:39.906250,30.09,73.83
203134,2018-06-29 10:30:39.937500,19.32,73.83
203135,2018-06-29 10:30:39.968750,9.15,73.83
203136,2018-06-29 10:30:40.000000,-1.53,73.83
203137,2018-06-29 10:30:40.031250,-14.32,73.83
203138,2018-06-29 10:30:40.062500,-27.94,73.83
203139,2018-06-29 10:30:40.093750,-39.74,73.83
203140,2018-06-29 10:30:40.125000,-49.35,73.83
203141,2018-06-29 10:30:40.156250,-59.76,73.83
203142,2018-06-29 10:30:40.187500,-74.65,73.83
203143,2018-06-29 10:30:40.218750,-92.67,73.83
203144,2018-06-29 10:30:40.250000,-103.63,73.83
203145,2018-06-29 10:30:40.281250,-95.42,73.83
203146,2018-06-29 10:30:40.312500,-67.2,73.83
203147,2018-06-29 10:30:40.343750,-31.21,73.83
203148,2018-06-29 10:30:40.375000,-0.06,73.83
203149,2018-06-29 10:30:40.406250,22.39,73.83
203150,2018-06-29 10:30:40.437500,37.06,73.83
203151,2018-06-29 10:30:40.468750,44.77,73.83
203152,2018-06-29 10:30:40.500000,47.21,73.83
203153,2018-06-29 10:30:40.531250,47.47,74.32
203154,2018-06-29 10:30:40.562500,47.12,74.32
203155,2018-06-29 10:30:40.593750,45.63,74.32
203156,2018-06-29 10:30:40.625000,43.15,74.32
203157,2018-06-29 10:30:40.656250,40.89,74.32
203158,2018-06-29 10:30:40.687500,38.36,74.32
203159,2018-06-29 10:30:40.718750,33.19,74.32
203160,2018-06-29 10:30:40.750000,24.37,74.32
203161,2018-06-29 10:30:40.781250,13.46,74.32
203162,2018-06-29 10:30:40.812500,2.4,74.32
203163,2018-06-29 10:30:40.843750,-8.17,74.32
203164,2018-06-29 10:30:40.875000,-18.89,74.32
203165,2018-06-29 10:30:40.906250,-30.53,74.32
203166,2018-06-29 10:30:40.937500,-42.03,74.32
203167,2018-06-29 10:30:40.968750,-51.26,74.32
203168,2018-06-29 10:30:41.000000,-59.07,74.32
203169,2018-06-29 10:30:41.031250,-70.06,74.32
203170,2018-06-29 10:30:41.062500,-85.64,74.32
203171,2018-06-29 10:30:41.093750,-96.42,74.32
203172,2018-06-29 10:30:41.125000,-87.64,74.32
203173,2018-06-29 10:30:41.156250,-55.3,74.32
203174,2018-06-29 10:30:41.187500,-12.02,74.32
203175,2018-06-29 10:30:41.218750,25.98,74.32
203176,2018-06-29 10:30:41.250000,52.11,74.32
203177,2018-06-29 10:30:41.281250,67.76,74.32
203178,2018-06-29 10:30:41.312500,75.25,74.32
203179,2018-06-29 10:30:41.343750,76.38,74.32
203180,2018-06-29 10:30:41.375000,74.15,74.32
203181,2018-06-29 10:30:41.406250,72.02,74.32
203182,2018-06-29 10:30:41.437500,71.45,74.32
203183,2018-06-29 10:30:41.468750,71.75,74.32
203184,2018-06-29 10:30:41.500000,71.83,74.32
203185,2018-06-29 10:30:41.531250,70.44,74.88
203186,2018-06-29 10:30:41.562500,65.66,74.88
203187,2018-06-29 10:30:41.593750,56.64,74.88
203188,2018-06-29 10:30:41.625000,44.91,74.88
203189,2018-06-29 10:30:41.656250,32.0,74.88
203190,2018-06-29 10:30:41.687500,17.44,74.88
203191,2018-06-29 10:30:41.718750,1.04,74.88
203192,2018-06-29 10:30:41.750000,-15.22,74.88
203193,2018-06-29 10:30:41.781250,-29.42,74.88
203194,2018-06-29 10:30:41.812500,-41.75,74.88
203195,2018-06-29 10:30:41.843750,-52.58,74.88
203196,2018-06-29 10:30:41.875000,-61.02,74.88
203197,2018-06-29 10:30:41.906250,-66.72,74.88
203198,2018-06-29 10:30:41.937500,-71.58,74.88
203199,2018-06-29 10:30:41.968750,-78.85,74.88
203200,2018-06-29 10:30:42.000000,-88.95,74.88
203201,2018-06-29 10:30:42.031250,-94.38,74.88
203202,2018-06-29 10:30:42.062500,-82.74,74.88
203203,2018-06-29 10:30:42.093750,-50.21,74.88
203204,2018-06-29 10:30:42.125000,-8.43,74.88
203205,2018-06-29 10:30:42.156250,26.98,74.88
203206,2018-06-29 10:30:42.187500,50.12,74.88
203207,2018-06-29 10:30:42.218750,63.01,74.88
203208,2018-06-29 10:30:42.250000,67.25,74.88
203209,2018-06-29 10:30:42.281250,63.98,74.88
203210,2018-06-29 10:30:42.312500,57.75,74.88
203211,2018-06-29 10:30:42.343750,54.24,74.88
203212,2018-06-29 10:30:42.375000,54.78,74.88
203213,2018-06-29 10:30:42.406250,56.76,74.88
203214,2018-06-29 10:30:42.437500,57.69,74.88
203215,2018-06-29 10:30:42.468750,56.27,74.88
203216,2018-06-29 10:30:42.500000,51.49,74.88
203217,2018-06-29 10:30:42.531250,43.02,75.73
203218,2018-06-29 10:30:42.562500,31.94,75.73
203219,2018-06-29 10:30:42.593750,20.25,75.73
203220,2018-06-29 10:30:42.625000,9.6,75.73
203221,2018-06-29 10:30:42.656250,0.2,75.73
203222,2018-06-29 10:30:42.687500,-8.93,75.73
203223,2018-06-29 10:30:42.718750,-18.36,75.73
203224,2018-06-29 10:30:42.750000,-27.17,75.73
203225,2018-06-29 10:30:42.781250,-34.6,75.73
203226,2018-06-29 10:30:42.812500,-42.5,75.73
203227,2018-06-29 10:30:42.843750,-54.86,75.73
203228,2018-06-29 10:30:42.875000,-74.19,75.73
203229,2018-06-29 10:30:42.906250,-96.52,75.73
203230,2018-06-29 10:30:42.937500,-109.03,75.73
203231,2018-06-29 10:30:42.968750,-98.33,75.73
203232,2018-06-29 10:30:43.000000,-64.68,75.73
203233,2018-06-29 10:30:43.031250,-22.99,75.73
203234,2018-06-29 10:30:43.062500,11.86,75.73
203235,2018-06-29 10:30:43.093750,34.75,75.73
203236,2018-06-29 10:30:43.125000,46.87,75.73
203237,2018-06-29 10:30:43.156250,51.12,75.73
203238,2018-06-29 10:30:43.187500,51.29,75.73
203239,2018-06-29 10:30:43.218750,51.05,75.73
203240,2018-06-29 10:30:43.250000,52.15,75.73
203241,2018-06-29 10:30:43.281250,54.13,75.73
203242,2018-06-29 10:30:43.312500,55.88,75.73
203243,2018-06-29 10:30:43.343750,56.85,75.73
203244,2018-06-29 10:30:43.375000,56.37,75.73
203245,2018-06-29 10:30:43.406250,52.63,75.73
203246,2018-06-29 10:30:43.437500,43.91,75.73
203247,2018-06-29 10:30:43.468750,31.62,75.73
203248,2018-06-29 10:30:43.500000,19.97,75.73
203249,2018-06-29 10:30:43.531250,10.54,76.88
203250,2018-06-29 10:30:43.562500,0.6,76.88
203251,2018-06-29 10:30:43.593750,-11.38,76.88
203252,2018-06-29 10:30:43.625000,-22.73,76.88
203253,2018-06-29 10:30:43.656250,-31.31,76.88
203254,2018-06-29 10:30:43.687500,-39.19,76.88
203255,2018-06-29 10:30:43.718750,-50.31,76.88
203256,2018-06-29 10:30:43.750000,-66.19,76.88
203257,2018-06-29 10:30:43.781250,-81.52,76.88
203258,2018-06-29 10:30:43.812500,-83.94,76.88
203259,2018-06-29 10:30:43.843750,-64.53,76.88
203260,2018-06-29 10:30:43.875000,-28.97,76.88
203261,2018-06-29 10:30:43.906250,7.34,76.88
203262,2018-06-29 10:30:43.937500,33.65,76.88
203263,2018-06-29 10:30:43.968750,48.57,76.88
203264,2018-06-29 10:30:44.000000,54.17,76.88
203265,2018-06-29 10:30:44.031250,52.36,76.88
203266,2018-06-29 10:30:44.062500,46.64,76.88
203267,2018-06-29 10:30:44.093750,41.88,76.88
203268,2018-06-29 10:30:44.125000,40.56,76.88
203269,2018-06-29 10:30:44.156250,41.62,76.88
203270,2018-06-29 10:30:44.187500,43.49,76.88
203271,2018-06-29 10:30:44.218750,45.11,76.88
203272,2018-06-29 10:30:44.250000,44.12,76.88
203273,2018-06-29 10:30:44.281250,38.37,76.88
203274,2018-06-29 10:30:44.312500,28.71,76.88
203275,2018-06-29 10:30:44.343750,17.89,76.88
203276,2018-06-29 10:30:44.375000,7.57,76.88
203277,2018-06-29 10:30:44.406250,-2.21,76.88
203278,2018-06-29 10:30:44.437500,-12.28,76.88
203279,2018-06-29 10:30:44.468750,-23.68,76.88
203280,2018-06-29 10:30:44.500000,-35.83,76.88
203281,2018-06-29 10:30:44.531250,-46.35,78.08
203282,2018-06-29 10:30:44.562500,-54.56,78.08
203283,2018-06-29 10:30:44.593750,-63.42,78.08
203284,2018-06-29 10:30:44.625000,-76.19,78.08
203285,2018-06-29 10:30:44.656250,-90.84,78.08
203286,2018-06-29 10:30:44.687500,-97.71,78.08
203287,2018-06-29 10:30:44.718750,-85.44,78.08
203288,2018-06-29 10:30:44.750000,-53.16,78.08
203289,2018-06-29 10:30:44.781250,-13.37,78.08
203290,2018-06-29 10:30:44.812500,19.78,78.08
203291,2018-06-29 10:30:44.843750,40.56,78.08
203292,2018-06-29 10:30:44.875000,49.92,78.08
203293,2018-06-29 10:30:44.906250,50.73,78.08
203294,2018-06-29 10:30:44.937500,46.81,78.08
203295,2018-06-29 10:30:44.968750,42.07,78.08
203296,2018-06-29 10:30:45.000000,39.17,78.08
203297,2018-06-29 10:30:45.031250,39.39,78.08
203298,2018-06-29 10:30:45.062500,41.76,78.08
203299,2018-06-29 10:30:45.093750,43.53,78.08
203300,2018-06-29 10:30:45.125000,43.01,78.08
203301,2018-06-29 10:30:45.156250,40.96,78.08
203302,2018-06-29 10:30:45.187500,37.77,78.08
203303,2018-06-29 10:30:45.218750,32.01,78.08
203304,2018-06-29 10:30:45.250000,22.84,78.08
203305,2018-06-29 10:30:45.281250,11.13,78.08
203306,2018-06-29 10:30:45.312500,-1.92,78.08
203307,2018-06-29 10:30:45.343750,-15.21,78.08
203308,2018-06-29 10:30:45.375000,-27.69,78.08
203309,2018-06-29 10:30:45.406250,-38.95,78.08
203310,2018-06-29 10:30:45.437500,-48.84,78.08
203311,2018-06-29 10:30:45.468750,-56.89,78.08
203312,2018-06-29 10:30:45.500000,-63.77,78.08
203313,2018-06-29 10:30:45.531250,-72.18,78.15
203314,2018-06-29 10:30:45.562500,-84.35,78.15
203315,2018-06-29 10:30:45.593750,-96.3,78.15
203316,2018-06-29 10:30:45.625000,-96.13,78.15
203317,2018-06-29 10:30:45.656250,-74.33,78.15
203318,2018-06-29 10:30:45.687500,-36.36,78.15
203319,2018-06-29 10:30:45.718750,1.76,78.15
203320,2018-06-29 10:30:45.750000,29.2,78.15
203321,2018-06-29 10:30:45.781250,45.32,78.15
203322,2018-06-29 10:30:45.812500,52.43,78.15
203323,2018-06-29 10:30:45.843750,52.4,78.15
203324,2018-06-29 10:30:45.875000,48.69,78.15
203325,2018-06-29 10:30:45.906250,45.44,78.15
203326,2018-06-29 10:30:45.937500,43.92,78.15
203327,2018-06-29 10:30:45.968750,42.45,78.15
203328,2018-06-29 10:30:46.000000,39.4,78.15
203329,2018-06-29 10:30:46.031250,34.36,78.15
203330,2018-06-29 10:30:46.062500,26.99,78.15
203331,2018-06-29 10:30:46.093750,16.68,78.15
203332,2018-06-29 10:30:46.125000,4.6,78.15
203333,2018-06-29 10:30:46.156250,-5.34,78.15
203334,2018-06-29 10:30:46.187500,-9.4,78.15
203335,2018-06-29 10:30:46.218750,-8.22,78.15
203336,2018-06-29 10:30:46.250000,-5.45,78.15
203337,2018-06-29 10:30:46.281250,-4.47,78.15
203338,2018-06-29 10:30:46.312500,-7.82,78.15
203339,2018-06-29 10:30:46.343750,-15.83,78.15
203340,2018-06-29 10:30:46.375000,-22.63,78.15
203341,2018-06-29 10:30:46.406250,-20.94,78.15
203342,2018-06-29 10:30:46.437500,-13.89,78.15
203343,2018-06-29 10:30:46.468750,-11.45,78.15
203344,2018-06-29 10:30:46.500000,-12.6,78.15
203345,2018-06-29 10:30:46.531250,-3.68,78.25
203346,2018-06-29 10:30:46.562500,23.2,78.25
203347,2018-06-29 10:30:46.593750,63.54,78.25
203348,2018-06-29 10:30:46.625000,107.19,78.25
203349,2018-06-29 10:30:46.656250,141.78,78.25
203350,2018-06-29 10:30:46.687500,154.52,78.25
203351,2018-06-29 10:30:46.718750,142.21,78.25
203352,2018-06-29 10:30:46.750000,112.56,78.25
203353,2018-06-29 10:30:46.781250,67.83,78.25
203354,2018-06-29 10:30:46.812500,3.08,78.25
203355,2018-06-29 10:30:46.843750,-75.08,78.25
203356,2018-06-29 10:30:46.875000,-141.62,78.25
203357,2018-06-29 10:30:46.906250,-186.69,78.25
203358,2018-06-29 10:30:46.937500,-223.02,78.25
203359,2018-06-29 10:30:46.968750,-251.28,78.25
203360,2018-06-29 10:30:47.000000,-249.69,78.25
203361,2018-06-29 10:30:47.031250,-210.75,78.25
203362,2018-06-29 10:30:47.062500,-151.62,78.25
203363,2018-06-29 10:30:47.093750,-82.03,78.25
203364,2018-06-29 10:30:47.125000,-9.83,78.25
203365,2018-06-29 10:30:47.156250,54.25,78.25
203366,2018-06-29 10:30:47.187500,114.22,78.25
203367,2018-06-29 10:30:47.218750,138.16,78.25
203368,2018-06-29 10:30:47.250000,107.06,78.25
203369,2018-06-29 10:30:47.281250,36.06,78.25
203370,2018-06-29 10:30:47.312500,-42.82,78.25
203371,2018-06-29 10:30:47.343750,-110.26,78.25
203372,2018-06-29 10:30:47.375000,-163.44,78.25
203373,2018-06-29 10:30:47.406250,-200.37,78.25
203374,2018-06-29 10:30:47.437500,-192.41,78.25
203375,2018-06-29 10:30:47.468750,-143.72,78.25
203376,2018-06-29 10:30:47.500000,-76.64,78.25
203377,2018-06-29 10:30:47.531250,-8.34,78.35
203378,2018-06-29 10:30:47.562500,55.84,78.35
203379,2018-06-29 10:30:47.593750,109.02,78.35
203380,2018-06-29 10:30:47.625000,144.9,78.35
203381,2018-06-29 10:30:47.656250,167.47,78.35
203382,2018-06-29 10:30:47.687500,187.42,78.35
203383,2018-06-29 10:30:47.718750,206.85,78.35
203384,2018-06-29 10:30:47.750000,217.08,78.35
203385,2018-06-29 10:30:47.781250,214.81,78.35
203386,2018-06-29 10:30:47.812500,207.96,78.35
203387,2018-06-29 10:30:47.843750,202.97,78.35
203388,2018-06-29 10:30:47.875000,190.22,78.35
203389,2018-06-29 10:30:47.906250,152.51,78.35
203390,2018-06-29 10:30:47.937500,87.1,78.35
203391,2018-06-29 10:30:47.968750,16.47,78.35
203392,2018-06-29 10:30:48.000000,-29.01,78.35
203393,2018-06-29 10:30:48.031250,-40.3,78.35
203394,2018-06-29 10:30:48.062500,-38.86,78.35
203395,2018-06-29 10:30:48.093750,-51.37,78.35
203396,2018-06-29 10:30:48.125000,-79.28,78.35
203397,2018-06-29 10:30:48.156250,-104.79,78.35
203398,2018-06-29 10:30:48.187500,-119.12,78.35
203399,2018-06-29 10:30:48.218750,-129.2,78.35
203400,2018-06-29 10:30:48.250000,-139.24,78.35
203401,2018-06-29 10:30:48.281250,-143.06,78.35
203402,2018-06-29 10:30:48.312500,-135.53,78.35
203403,2018-06-29 10:30:48.343750,-120.2,78.35
203404,2018-06-29 10:30:48.375000,-103.2,78.35
203405,2018-06-29 10:30:48.406250,-86.31,78.35
203406,2018-06-29 10:30:48.437500,-70.0,78.35
203407,2018-06-29 10:30:48.468750,-56.99,78.35
203408,2018-06-29 10:30:48.500000,-47.05,78.35
203409,2018-06-29 10:30:48.531250,-33.53,78.43
203410,2018-06-29 10:30:48.562500,-11.26,78.43
203411,2018-06-29 10:30:48.593750,15.22,78.43
203412,2018-06-29 10:30:48.625000,35.38,78.43
203413,2018-06-29 10:30:48.656250,43.89,78.43
203414,2018-06-29 10:30:48.687500,47.67,78.43
203415,2018-06-29 10:30:48.718750,59.14,78.43
203416,2018-06-29 10:30:48.750000,78.62,78.43
203417,2018-06-29 10:30:48.781250,90.07,78.43
203418,2018-06-29 10:30:48.812500,81.51,78.43
203419,2018-06-29 10:30:48.843750,61.02,78.43
203420,2018-06-29 10:30:48.875000,44.55,78.43
203421,2018-06-29 10:30:48.906250,37.78,78.43
203422,2018-06-29 10:30:48.937500,37.57,78.43
203423,2018-06-29 10:30:48.968750,38.59,78.43
203424,2018-06-29 10:30:49.000000,29.39,78.43
203425,2018-06-29 10:30:49.031250,-1.94,78.43
203426,2018-06-29 10:30:49.062500,-47.05,78.43
203427,2018-06-29 10:30:49.093750,-76.76,78.43
203428,2018-06-29 10:30:49.125000,-72.08,78.43
203429,2018-06-29 10:30:49.156250,-44.53,78.43
203430,2018-06-29 10:30:49.187500,-19.0,78.43
203431,2018-06-29 10:30:49.218750,-8.2,78.43
203432,2018-06-29 10:30:49.250000,-10.14,78.43
203433,2018-06-29 10:30:49.281250,-19.48,78.43
203434,2018-06-29 10:30:49.312500,-31.2,78.43
203435,2018-06-29 10:30:49.343750,-38.2,78.43
203436,2018-06-29 10:30:49.375000,-34.29,78.43
203437,2018-06-29 10:30:49.406250,-20.39,78.43
203438,2018-06-29 10:30:49.437500,-3.64,78.43
203439,2018-06-29 10:30:49.468750,11.02,78.43
203440,2018-06-29 10:30:49.500000,24.17,78.43
203441,2018-06-29 10:30:49.531250,36.07,78.53
203442,2018-06-29 10:30:49.562500,42.7,78.53
203443,2018-06-29 10:30:49.593750,40.92,78.53
203444,2018-06-29 10:30:49.625000,33.66,78.53
203445,2018-06-29 10:30:49.656250,26.94,78.53
203446,2018-06-29 10:30:49.687500,24.08,78.53
203447,2018-06-29 10:30:49.718750,23.5,78.53
203448,2018-06-29 10:30:49.750000,21.08,78.53
203449,2018-06-29 10:30:49.781250,14.6,78.53
203450,2018-06-29 10:30:49.812500,5.89,78.53
203451,2018-06-29 10:30:49.843750,-3.04,78.53
203452,2018-06-29 10:30:49.875000,-13.7,78.53
203453,2018-06-29 10:30:49.906250,-28.64,78.53
203454,2018-06-29 10:30:49.937500,-45.48,78.53
203455,2018-06-29 10:30:49.968750,-55.46,78.53
203456,2018-06-29 10:30:50.000000,-50.92,78.53
203457,2018-06-29 10:30:50.031250,-34.4,78.53
203458,2018-06-29 10:30:50.062500,-15.78,78.53
203459,2018-06-29 10:30:50.093750,-1.0,78.53
203460,2018-06-29 10:30:50.125000,10.6,78.53
203461,2018-06-29 10:30:50.156250,20.17,78.53
203462,2018-06-29 10:30:50.187500,27.24,78.53
203463,2018-06-29 10:30:50.218750,32.67,78.53
203464,2018-06-29 10:30:50.250000,38.79,78.53
203465,2018-06-29 10:30:50.281250,46.59,78.53
203466,2018-06-29 10:30:50.312500,54.69,78.53
203467,2018-06-29 10:30:50.343750,61.42,78.53
203468,2018-06-29 10:30:50.375000,66.14,78.53
203469,2018-06-29 10:30:50.406250,67.87,78.53
203470,2018-06-29 10:30:50.437500,64.55,78.53
203471,2018-06-29 10:30:50.468750,55.38,78.53
203472,2018-06-29 10:30:50.500000,42.37,78.53
203473,2018-06-29 10:30:50.531250,28.24,78.65
203474,2018-06-29 10:30:50.562500,14.2,78.65
203475,2018-06-29 10:30:50.593750,0.65,78.65
203476,2018-06-29 10:30:50.625000,-11.93,78.65
203477,2018-06-29 10:30:50.656250,-23.52,78.65
203478,2018-06-29 10:30:50.687500,-34.4,78.65
203479,2018-06-29 10:30:50.718750,-44.46,78.65
203480,2018-06-29 10:30:50.750000,-53.81,78.65
203481,2018-06-29 10:30:50.781250,-63.44,78.65
203482,2018-06-29 10:30:50.812500,-74.81,78.65
203483,2018-06-29 10:30:50.843750,-87.92,78.65
203484,2018-06-29 10:30:50.875000,-96.73,78.65
203485,2018-06-29 10:30:50.906250,-90.45,78.65
203486,2018-06-29 10:30:50.937500,-65.49,78.65
203487,2018-06-29 10:30:50.968750,-31.26,78.65
203488,2018-06-29 10:30:51.000000,0.39,78.65
203489,2018-06-29 10:30:51.031250,24.66,78.65
203490,2018-06-29 10:30:51.062500,40.64,78.65
203491,2018-06-29 10:30:51.093750,48.18,78.65
203492,2018-06-29 10:30:51.125000,49.84,78.65
203493,2018-06-29 10:30:51.156250,50.04,78.65
203494,2018-06-29 10:30:51.187500,51.74,78.65
203495,2018-06-29 10:30:51.218750,54.65,78.65
203496,2018-06-29 10:30:51.250000,56.33,78.65
203497,2018-06-29 10:30:51.281250,55.54,78.65
203498,2018-06-29 10:30:51.312500,53.17,78.65
203499,2018-06-29 10:30:51.343750,49.33,78.65
203500,2018-06-29 10:30:51.375000,42.59,78.65
203501,2018-06-29 10:30:51.406250,33.09,78.65
203502,2018-06-29 10:30:51.437500,23.05,78.65
203503,2018-06-29 10:30:51.468750,13.94,78.65
203504,2018-06-29 10:30:51.500000,5.76,78.65
203505,2018-06-29 10:30:51.531250,-1.69,78.78
203506,2018-06-29 10:30:51.562500,-9.17,78.78
203507,2018-06-29 10:30:51.593750,-18.05,78.78
203508,2018-06-29 10:30:51.625000,-28.04,78.78
203509,2018-06-29 10:30:51.656250,-36.94,78.78
203510,2018-06-29 10:30:51.687500,-44.6,78.78
203511,2018-06-29 10:30:51.718750,-54.08,78.78
203512,2018-06-29 10:30:51.750000,-67.57,78.78
203513,2018-06-29 10:30:51.781250,-81.41,78.78
203514,2018-06-29 10:30:51.812500,-85.78,78.78
203515,2018-06-29 10:30:51.843750,-71.75,78.78
203516,2018-06-29 10:30:51.875000,-41.06,78.78
203517,2018-06-29 10:30:51.906250,-5.85,78.78
203518,2018-06-29 10:30:51.937500,23.35,78.78
203519,2018-06-29 10:30:51.968750,44.39,78.78
203520,2018-06-29 10:30:52.000000,58.64,78.78
203521,2018-06-29 10:30:52.031250,66.4,78.78
203522,2018-06-29 10:30:52.062500,68.95,78.78
203523,2018-06-29 10:30:52.093750,70.06,78.78
203524,2018-06-29 10:30:52.125000,73.78,78.78
203525,2018-06-29 10:30:52.156250,81.71,78.78
203526,2018-06-29 10:30:52.187500,92.81,78.78
203527,2018-06-29 10:30:52.218750,106.14,78.78
203528,2018-06-29 10:30:52.250000,122.77,78.78
203529,2018-06-29 10:30:52.281250,141.23,78.78
203530,2018-06-29 10:30:52.312500,152.9,78.78
203531,2018-06-29 10:30:52.343750,148.86,78.78
203532,2018-06-29 10:30:52.375000,129.48,78.78
203533,2018-06-29 10:30:52.406250,102.18,78.78
203534,2018-06-29 10:30:52.437500,74.39,78.78
203535,2018-06-29 10:30:52.468750,52.46,78.78
203536,2018-06-29 10:30:52.500000,40.48,78.78
203537,2018-06-29 10:30:52.531250,36.55,78.9
203538,2018-06-29 10:30:52.562500,35.09,78.9
203539,2018-06-29 10:30:52.593750,31.85,78.9
203540,2018-06-29 10:30:52.625000,24.04,78.9
203541,2018-06-29 10:30:52.656250,9.59,78.9
203542,2018-06-29 10:30:52.687500,-10.83,78.9
203543,2018-06-29 10:30:52.718750,-32.94,78.9
203544,2018-06-29 10:30:52.750000,-52.35,78.9
203545,2018-06-29 10:30:52.781250,-69.11,78.9
203546,2018-06-29 10:30:52.812500,-87.7,78.9
203547,2018-06-29 10:30:52.843750,-108.84,78.9
203548,2018-06-29 10:30:52.875000,-122.86,78.9
203549,2018-06-29 10:30:52.906250,-118.68,78.9
203550,2018-06-29 10:30:52.937500,-99.74,78.9
203551,2018-06-29 10:30:52.968750,-81.32,78.9
203552,2018-06-29 10:30:53.000000,-71.05,78.9
203553,2018-06-29 10:30:53.031250,-63.86,78.9
203554,2018-06-29 10:30:53.062500,-54.94,78.9
203555,2018-06-29 10:30:53.093750,-46.09,78.9
203556,2018-06-29 10:30:53.125000,-39.79,78.9
203557,2018-06-29 10:30:53.156250,-36.04,78.9
203558,2018-06-29 10:30:53.187500,-34.47,78.9
203559,2018-06-29 10:30:53.218750,-33.97,78.9
203560,2018-06-29 10:30:53.250000,-31.88,78.9
203561,2018-06-29 10:30:53.281250,-26.48,78.9
203562,2018-06-29 10:30:53.312500,-19.94,78.9
203563,2018-06-29 10:30:53.343750,-16.09,78.9
203564,2018-06-29 10:30:53.375000,-15.55,78.9
203565,2018-06-29 10:30:53.406250,-15.65,78.9
203566,2018-06-29 10:30:53.437500,-15.22,78.9
203567,2018-06-29 10:30:53.468750,-16.27,78.9
203568,2018-06-29 10:30:53.500000,-20.23,78.9
203569,2018-06-29 10:30:53.531250,-25.67,78.98
203570,2018-06-29 10:30:53.562500,-29.89,78.98
203571,2018-06-29 10:30:53.593750,-31.72,78.98
203572,2018-06-29 10:30:53.625000,-32.75,78.98
203573,2018-06-29 10:30:53.656250,-35.63,78.98
203574,2018-06-29 10:30:53.687500,-40.58,78.98
203575,2018-06-29 10:30:53.718750,-45.16,78.98
203576,2018-06-29 10:30:53.750000,-48.7,78.98
203577,2018-06-29 10:30:53.781250,-53.97,78.98
203578,2018-06-29 10:30:53.812500,-63.5,78.98
203579,2018-06-29 10:30:53.843750,-74.52,78.98
203580,2018-06-29 10:30:53.875000,-78.16,78.98
203581,2018-06-29 10:30:53.906250,-66.18,78.98
203582,2018-06-29 10:30:53.937500,-40.38,78.98
203583,2018-06-29 10:30:53.968750,-11.76,78.98
203584,2018-06-29 10:30:54.000000,10.69,78.98
203585,2018-06-29 10:30:54.031250,25.78,78.98
203586,2018-06-29 10:30:54.062500,35.45,78.98
203587,2018-06-29 10:30:54.093750,40.27,78.98
203588,2018-06-29 10:30:54.125000,40.59,78.98
203589,2018-06-29 10:30:54.156250,38.7,78.98
203590,2018-06-29 10:30:54.187500,37.59,78.98
203591,2018-06-29 10:30:54.218750,38.15,78.98
203592,2018-06-29 10:30:54.250000,39.34,78.98
203593,2018-06-29 10:30:54.281250,40.64,78.98
203594,2018-06-29 10:30:54.312500,41.61,78.98
203595,2018-06-29 10:30:54.343750,40.12,78.98
203596,2018-06-29 10:30:54.375000,34.52,78.98
203597,2018-06-29 10:30:54.406250,26.66,78.98
203598,2018-06-29 10:30:54.437500,19.8,78.98
203599,2018-06-29 10:30:54.468750,14.18,78.98
203600,2018-06-29 10:30:54.500000,7.83,78.98
203601,2018-06-29 10:30:54.531250,0.38,79.05
203602,2018-06-29 10:30:54.562500,-6.52,79.05
203603,2018-06-29 10:30:54.593750,-11.97,79.05
203604,2018-06-29 10:30:54.625000,-17.44,79.05
203605,2018-06-29 10:30:54.656250,-24.78,79.05
203606,2018-06-29 10:30:54.687500,-33.39,79.05
203607,2018-06-29 10:30:54.718750,-41.0,79.05
203608,2018-06-29 10:30:54.750000,-47.27,79.05
203609,2018-06-29 10:30:54.781250,-54.6,79.05
203610,2018-06-29 10:30:54.812500,-65.46,79.05
203611,2018-06-29 10:30:54.843750,-78.89,79.05
203612,2018-06-29 10:30:54.875000,-87.04,79.05
203613,2018-06-29 10:30:54.906250,-78.98,79.05
203614,2018-06-29 10:30:54.937500,-52.91,79.05
203615,2018-06-29 10:30:54.968750,-19.96,79.05
203616,2018-06-29 10:30:55.000000,7.78,79.05
203617,2018-06-29 10:30:55.031250,26.59,79.05
203618,2018-06-29 10:30:55.062500,37.81,79.05
203619,2018-06-29 10:30:55.093750,42.84,79.05
203620,2018-06-29 10:30:55.125000,43.35,79.05
203621,2018-06-29 10:30:55.156250,42.16,79.05
203622,2018-06-29 10:30:55.187500,41.79,79.05
203623,2018-06-29 10:30:55.218750,43.01,79.05
203624,2018-06-29 10:30:55.250000,45.0,79.05
203625,2018-06-29 10:30:55.281250,46.85,79.05
203626,2018-06-29 10:30:55.312500,47.98,79.05
203627,2018-06-29 10:30:55.343750,47.36,79.05
203628,2018-06-29 10:30:55.375000,43.66,79.05
203629,2018-06-29 10:30:55.406250,36.9,79.05
203630,2018-06-29 10:30:55.437500,28.9,79.05
203631,2018-06-29 10:30:55.468750,21.83,79.05
203632,2018-06-29 10:30:55.500000,16.24,79.05
203633,2018-06-29 10:30:55.531250,10.8,79.08
203634,2018-06-29 10:30:55.562500,4.2,79.08
203635,2018-06-29 10:30:55.593750,-3.04,79.08
203636,2018-06-29 10:30:55.625000,-9.45,79.08
203637,2018-06-29 10:30:55.656250,-15.39,79.08
203638,2018-06-29 10:30:55.687500,-22.8,79.08
203639,2018-06-29 10:30:55.718750,-31.84,79.08
203640,2018-06-29 10:30:55.750000,-40.72,79.08
203641,2018-06-29 10:30:55.781250,-49.0,79.08
203642,2018-06-29 10:30:55.812500,-58.07,79.08
203643,2018-06-29 10:30:55.843750,-68.99,79.08
203644,2018-06-29 10:30:55.875000,-81.26,79.08
203645,2018-06-29 10:30:55.906250,-90.41,79.08
203646,2018-06-29 10:30:55.937500,-87.37,79.08
203647,2018-06-29 10:30:55.968750,-66.7,79.08
203648,2018-06-29 10:30:56.000000,-34.77,79.08
203649,2018-06-29 10:30:56.031250,-4.03,79.08
203650,2018-06-29 10:30:56.062500,18.57,79.08
203651,2018-06-29 10:30:56.093750,33.36,79.08
203652,2018-06-29 10:30:56.125000,42.47,79.08
203653,2018-06-29 10:30:56.156250,46.8,79.08
203654,2018-06-29 10:30:56.187500,46.59,79.08
203655,2018-06-29 10:30:56.218750,43.38,79.08
203656,2018-06-29 10:30:56.250000,40.02,79.08
203657,2018-06-29 10:30:56.281250,37.79,79.08
203658,2018-06-29 10:30:56.312500,35.51,79.08
203659,2018-06-29 10:30:56.343750,32.14,79.08
203660,2018-06-29 10:30:56.375000,27.68,79.08
203661,2018-06-29 10:30:56.406250,21.65,79.08
203662,2018-06-29 10:30:56.437500,13.61,79.08
203663,2018-06-29 10:30:56.468750,5.25,79.08
203664,2018-06-29 10:30:56.500000,-0.76,79.08
203665,2018-06-29 10:30:56.531250,-4.06,79.1
203666,2018-06-29 10:30:56.562500,-7.19,79.1
203667,2018-06-29 10:30:56.593750,-12.73,79.1
203668,2018-06-29 10:30:56.625000,-20.51,79.1
203669,2018-06-29 10:30:56.656250,-28.11,79.1
203670,2018-06-29 10:30:56.687500,-34.46,79.1
203671,2018-06-29 10:30:56.718750,-41.61,79.1
203672,2018-06-29 10:30:56.750000,-52.65,79.1
203673,2018-06-29 10:30:56.781250,-67.89,79.1
203674,2018-06-29 10:30:56.812500,-80.98,79.1
203675,2018-06-29 10:30:56.843750,-79.52,79.1
203676,2018-06-29 10:30:56.875000,-56.13,79.1
203677,2018-06-29 10:30:56.906250,-18.61,79.1
203678,2018-06-29 10:30:56.937500,17.04,79.1
203679,2018-06-29 10:30:56.968750,42.25,79.1
203680,2018-06-29 10:30:57.000000,58.31,79.1
203681,2018-06-29 10:30:57.031250,67.8,79.1
203682,2018-06-29 10:30:57.062500,71.11,79.1
203683,2018-06-29 10:30:57.093750,70.45,79.1
203684,2018-06-29 10:30:57.125000,70.69,79.1
203685,2018-06-29 10:30:57.156250,73.98,79.1
203686,2018-06-29 10:30:57.187500,77.55,79.1
203687,2018-06-29 10:30:57.218750,78.61,79.1
203688,2018-06-29 10:30:57.250000,77.24,79.1
203689,2018-06-29 10:30:57.281250,73.17,79.1
203690,2018-06-29 10:30:57.312500,64.58,79.1
203691,2018-06-29 10:30:57.343750,51.76,79.1
203692,2018-06-29 10:30:57.375000,38.1,79.1
203693,2018-06-29 10:30:57.406250,26.3,79.1
203694,2018-06-29 10:30:57.437500,15.63,79.1
203695,2018-06-29 10:30:57.468750,4.35,79.1
203696,2018-06-29 10:30:57.500000,-6.15,79.1
203697,2018-06-29 10:30:57.531250,-11.95,79.13
203698,2018-06-29 10:30:57.562500,-11.39,79.13
203699,2018-06-29 10:30:57.593750,-8.22,79.13
203700,2018-06-29 10:30:57.625000,-9.03,79.13
203701,2018-06-29 10:30:57.656250,-19.53,79.13
203702,2018-06-29 10:30:57.687500,-40.11,79.13
203703,2018-06-29 10:30:57.718750,-61.77,79.13
203704,2018-06-29 10:30:57.750000,-71.81,79.13
203705,2018-06-29 10:30:57.781250,-67.45,79.13
203706,2018-06-29 10:30:57.812500,-57.44,79.13
203707,2018-06-29 10:30:57.843750,-48.58,79.13
203708,2018-06-29 10:30:57.875000,-39.29,79.13
203709,2018-06-29 10:30:57.906250,-27.5,79.13
203710,2018-06-29 10:30:57.937500,-16.39,79.13
203711,2018-06-29 10:30:57.968750,-10.08,79.13
203712,2018-06-29 10:30:58.000000,-8.41,79.13
203713,2018-06-29 10:30:58.031250,-7.52,79.13
203714,2018-06-29 10:30:58.062500,-3.47,79.13
203715,2018-06-29 10:30:58.093750,5.32,79.13
203716,2018-06-29 10:30:58.125000,17.72,79.13
203717,2018-06-29 10:30:58.156250,30.72,79.13
203718,2018-06-29 10:30:58.187500,40.47,79.13
203719,2018-06-29 10:30:58.218750,44.69,79.13
203720,2018-06-29 10:30:58.250000,44.07,79.13
203721,2018-06-29 10:30:58.281250,40.56,79.13
203722,2018-06-29 10:30:58.312500,35.33,79.13
203723,2018-06-29 10:30:58.343750,28.71,79.13
203724,2018-06-29 10:30:58.375000,19.85,79.13
203725,2018-06-29 10:30:58.406250,7.58,79.13
203726,2018-06-29 10:30:58.437500,-6.93,79.13
203727,2018-06-29 10:30:58.468750,-20.55,79.13
203728,2018-06-29 10:30:58.500000,-32.73,79.13
203729,2018-06-29 10:30:58.531250,-47.03,79.15
203730,2018-06-29 10:30:58.562500,-66.81,79.15
203731,2018-06-29 10:30:58.593750,-88.71,79.15
203732,2018-06-29 10:30:58.625000,-100.62,79.15
203733,2018-06-29 10:30:58.656250,-91.3,79.15
203734,2018-06-29 10:30:58.687500,-63.44,79.15
203735,2018-06-29 10:30:58.718750,-31.1,79.15
203736,2018-06-29 10:30:58.750000,-4.0,79.15
203737,2018-06-29 10:30:58.781250,18.7,79.15
203738,2018-06-29 10:30:58.812500,39.95,79.15
203739,2018-06-29 10:30:58.843750,58.46,79.15
203740,2018-06-29 10:30:58.875000,72.33,79.15
203741,2018-06-29 10:30:58.906250,83.74,79.15
203742,2018-06-29 10:30:58.937500,96.74,79.15
203743,2018-06-29 10:30:58.968750,111.48,79.15
203744,2018-06-29 10:30:59.000000,122.89,79.15
203745,2018-06-29 10:30:59.031250,124.78,79.15
203746,2018-06-29 10:30:59.062500,113.54,79.15
203747,2018-06-29 10:30:59.093750,90.09,79.15
203748,2018-06-29 10:30:59.125000,60.88,79.15
203749,2018-06-29 10:30:59.156250,34.81,79.15
203750,2018-06-29 10:30:59.187500,16.65,79.15
203751,2018-06-29 10:30:59.218750,4.71,79.15
203752,2018-06-29 10:30:59.250000,-4.9,79.15
203753,2018-06-29 10:30:59.281250,-13.11,79.15
203754,2018-06-29 10:30:59.312500,-17.69,79.15
203755,2018-06-29 10:30:59.343750,-17.17,79.15
203756,2018-06-29 10:30:59.375000,-14.32,79.15
203757,2018-06-29 10:30:59.406250,-13.08,79.15
203758,2018-06-29 10:30:59.437500,-13.29,79.15
203759,2018-06-29 10:30:59.468750,-12.62,79.15
203760,2018-06-29 10:30:59.500000,-13.36,79.15
203761,2018-06-29 10:30:59.531250,-22.07,79.17
203762,2018-06-29 10:30:59.562500,-41.56,79.17
203763,2018-06-29 10:30:59.593750,-64.27,79.17
203764,2018-06-29 10:30:59.625000,-73.12,79.17
203765,2018-06-29 10:30:59.656250,-54.49,79.17
203766,2018-06-29 10:30:59.687500,-14.25,79.17
203767,2018-06-29 10:30:59.718750,26.75,79.17
203768,2018-06-29 10:30:59.750000,54.48,79.17
203769,2018-06-29 10:30:59.781250,69.79,79.17
203770,2018-06-29 10:30:59.812500,77.24,79.17
203771,2018-06-29 10:30:59.843750,78.31,79.17
203772,2018-06-29 10:30:59.875000,74.72,79.17
203773,2018-06-29 10:30:59.906250,69.24,79.17
203774,2018-06-29 10:30:59.937500,62.97,79.17
203775,2018-06-29 10:30:59.968750,56.0,79.17
203776,2018-06-29 10:31:00.000000,49.38,79.17
203777,2018-06-29 10:31:00.031250,44.19,79.17
203778,2018-06-29 10:31:00.062500,39.73,79.17
203779,2018-06-29 10:31:00.093750,33.7,79.17
203780,2018-06-29 10:31:00.125000,23.0,79.17
203781,2018-06-29 10:31:00.156250,6.59,79.17
203782,2018-06-29 10:31:00.187500,-11.85,79.17
203783,2018-06-29 10:31:00.218750,-27.44,79.17
203784,2018-06-29 10:31:00.250000,-40.19,79.17
203785,2018-06-29 10:31:00.281250,-53.58,79.17
203786,2018-06-29 10:31:00.312500,-68.32,79.17
203787,2018-06-29 10:31:00.343750,-82.46,79.17
203788,2018-06-29 10:31:00.375000,-96.15,79.17
203789,2018-06-29 10:31:00.406250,-111.98,79.17
203790,2018-06-29 10:31:00.437500,-130.14,79.17
203791,2018-06-29 10:31:00.468750,-145.95,79.17
203792,2018-06-29 10:31:00.500000,-150.25,79.17
203793,2018-06-29 10:31:00.531250,-130.61,79.22
203794,2018-06-29 10:31:00.562500,-80.91,79.22
203795,2018-06-29 10:31:00.593750,-14.29,79.22
203796,2018-06-29 10:31:00.625000,43.52,79.22
203797,2018-06-29 10:31:00.656250,77.64,79.22
203798,2018-06-29 10:31:00.687500,92.57,79.22
203799,2018-06-29 10:31:00.718750,98.07,79.22
203800,2018-06-29 10:31:00.750000,97.5,79.22
203801,2018-06-29 10:31:00.781250,90.85,79.22
203802,2018-06-29 10:31:00.812500,81.2,79.22
203803,2018-06-29 10:31:00.843750,74.2,79.22
203804,2018-06-29 10:31:00.875000,72.23,79.22
203805,2018-06-29 10:31:00.906250,72.3,79.22
203806,2018-06-29 10:31:00.937500,69.49,79.22
203807,2018-06-29 10:31:00.968750,60.01,79.22
203808,2018-06-29 10:31:01.000000,42.62,79.22
203809,2018-06-29 10:31:01.031250,20.38,79.22
203810,2018-06-29 10:31:01.062500,-1.18,79.22
203811,2018-06-29 10:31:01.093750,-19.18,79.22
203812,2018-06-29 10:31:01.125000,-33.91,79.22
203813,2018-06-29 10:31:01.156250,-45.35,79.22
203814,2018-06-29 10:31:01.187500,-52.69,79.22
203815,2018-06-29 10:31:01.218750,-56.44,79.22
203816,2018-06-29 10:31:01.250000,-59.25,79.22
203817,2018-06-29 10:31:01.281250,-63.54,79.22
203818,2018-06-29 10:31:01.312500,-68.98,79.22
203819,2018-06-29 10:31:01.343750,-74.16,79.22
203820,2018-06-29 10:31:01.375000,-81.32,79.22
203821,2018-06-29 10:31:01.406250,-95.12,79.22
203822,2018-06-29 10:31:01.437500,-112.86,79.22
203823,2018-06-29 10:31:01.468750,-119.01,79.22
203824,2018-06-29 10:31:01.500000,-98.04,79.22
203825,2018-06-29 10:31:01.531250,-54.31,79.28
203826,2018-06-29 10:31:01.562500,-10.57,79.28
203827,2018-06-29 10:31:01.593750,15.76,79.28
203828,2018-06-29 10:31:01.625000,25.29,79.28
203829,2018-06-29 10:31:01.656250,26.13,79.28
203830,2018-06-29 10:31:01.687500,22.54,79.28
203831,2018-06-29 10:31:01.718750,15.55,79.28
203832,2018-06-29 10:31:01.750000,7.15,79.28
203833,2018-06-29 10:31:01.781250,1.13,79.28
203834,2018-06-29 10:31:01.812500,0.04,79.28
203835,2018-06-29 10:31:01.843750,2.76,79.28
203836,2018-06-29 10:31:01.875000,7.46,79.28
203837,2018-06-29 10:31:01.906250,13.09,79.28
203838,2018-06-29 10:31:01.937500,16.38,79.28
203839,2018-06-29 10:31:01.968750,14.02,79.28
203840,2018-06-29 10:31:02.000000,8.42,79.28
203841,2018-06-29 10:31:02.031250,3.64,79.28
203842,2018-06-29 10:31:02.062500,-1.92,79.28
203843,2018-06-29 10:31:02.093750,-11.18,79.28
203844,2018-06-29 10:31:02.125000,-20.45,79.28
203845,2018-06-29 10:31:02.156250,-25.06,79.28
203846,2018-06-29 10:31:02.187500,-29.51,79.28
203847,2018-06-29 10:31:02.218750,-43.06,79.28
203848,2018-06-29 10:31:02.250000,-66.18,79.28
203849,2018-06-29 10:31:02.281250,-90.11,79.28
203850,2018-06-29 10:31:02.312500,-109.68,79.28
203851,2018-06-29 10:31:02.343750,-128.23,79.28
203852,2018-06-29 10:31:02.375000,-150.64,79.28
203853,2018-06-29 10:31:02.406250,-175.52,79.28
203854,2018-06-29 10:31:02.437500,-188.31,79.28
203855,2018-06-29 10:31:02.468750,-166.95,79.28
203856,2018-06-29 10:31:02.500000,-108.78,79.28
203857,2018-06-29 10:31:02.531250,-42.02,79.35
203858,2018-06-29 10:31:02.562500,5.22,79.35
203859,2018-06-29 10:31:02.593750,33.04,79.35
203860,2018-06-29 10:31:02.625000,54.73,79.35
203861,2018-06-29 10:31:02.656250,73.28,79.35
203862,2018-06-29 10:31:02.687500,85.46,79.35
203863,2018-06-29 10:31:02.718750,93.06,79.35
203864,2018-06-29 10:31:02.750000,99.0,79.35
203865,2018-06-29 10:31:02.781250,101.33,79.35
203866,2018-06-29 10:31:02.812500,97.94,79.35
203867,2018-06-29 10:31:02.843750,91.68,79.35
203868,2018-06-29 10:31:02.875000,86.09,79.35
203869,2018-06-29 10:31:02.906250,80.26,79.35
203870,2018-06-29 10:31:02.937500,71.84,79.35
203871,2018-06-29 10:31:02.968750,61.26,79.35
203872,2018-06-29 10:31:03.000000,51.01,79.35
203873,2018-06-29 10:31:03.031250,43.56,79.35
203874,2018-06-29 10:31:03.062500,40.61,79.35
203875,2018-06-29 10:31:03.093750,41.5,79.35
203876,2018-06-29 10:31:03.125000,42.33,79.35
203877,2018-06-29 10:31:03.156250,39.88,79.35
203878,2018-06-29 10:31:03.187500,35.78,79.35
203879,2018-06-29 10:31:03.218750,33.22,79.35
203880,2018-06-29 10:31:03.250000,30.78,79.35
203881,2018-06-29 10:31:03.281250,23.27,79.35
203882,2018-06-29 10:31:03.312500,9.48,79.35
203883,2018-06-29 10:31:03.343750,0.88,79.35
203884,2018-06-29 10:31:03.375000,17.9,79.35
203885,2018-06-29 10:31:03.406250,65.74,79.35
203886,2018-06-29 10:31:03.437500,119.45,79.35
203887,2018-06-29 10:31:03.468750,149.09,79.35
203888,2018-06-29 10:31:03.500000,151.2,79.35
203889,2018-06-29 10:31:03.531250,139.91,79.17
203890,2018-06-29 10:31:03.562500,122.01,79.17
203891,2018-06-29 10:31:03.593750,97.02,79.17
203892,2018-06-29 10:31:03.625000,68.41,79.17
203893,2018-06-29 10:31:03.656250,42.29,79.17
203894,2018-06-29 10:31:03.687500,22.17,79.17
203895,2018-06-29 10:31:03.718750,10.3,79.17
203896,2018-06-29 10:31:03.750000,8.12,79.17
203897,2018-06-29 10:31:03.781250,12.77,79.17
203898,2018-06-29 10:31:03.812500,16.81,79.17
203899,2018-06-29 10:31:03.843750,13.1,79.17
203900,2018-06-29 10:31:03.875000,1.09,79.17
203901,2018-06-29 10:31:03.906250,-10.19,79.17
203902,2018-06-29 10:31:03.937500,-10.43,79.17
203903,2018-06-29 10:31:03.968750,-2.66,79.17
203904,2018-06-29 10:31:04.000000,0.99,79.17
203905,2018-06-29 10:31:04.031250,-2.13,79.17
203906,2018-06-29 10:31:04.062500,-6.19,79.17
203907,2018-06-29 10:31:04.093750,-12.81,79.17
203908,2018-06-29 10:31:04.125000,-28.96,79.17
203909,2018-06-29 10:31:04.156250,-52.98,79.17
203910,2018-06-29 10:31:04.187500,-75.41,79.17
203911,2018-06-29 10:31:04.218750,-90.06,79.17
203912,2018-06-29 10:31:04.250000,-98.12,79.17
203913,2018-06-29 10:31:04.281250,-105.17,79.17
203914,2018-06-29 10:31:04.312500,-113.17,79.17
203915,2018-06-29 10:31:04.343750,-113.14,79.17
203916,2018-06-29 10:31:04.375000,-91.04,79.17
203917,2018-06-29 10:31:04.406250,-46.99,79.17
203918,2018-06-29 10:31:04.437500,-1.95,79.17
203919,2018-06-29 10:31:04.468750,24.46,79.17
203920,2018-06-29 10:31:04.500000,32.88,79.17
203921,2018-06-29 10:31:04.531250,33.4,79.03
203922,2018-06-29 10:31:04.562500,29.37,79.03
203923,2018-06-29 10:31:04.593750,21.55,79.03
203924,2018-06-29 10:31:04.625000,15.28,79.03
203925,2018-06-29 10:31:04.656250,14.02,79.03
203926,2018-06-29 10:31:04.687500,14.02,79.03
203927,2018-06-29 10:31:04.718750,11.64,79.03
203928,2018-06-29 10:31:04.750000,8.06,79.03
203929,2018-06-29 10:31:04.781250,2.73,79.03
203930,2018-06-29 10:31:04.812500,-8.15,79.03
203931,2018-06-29 10:31:04.843750,-21.44,79.03
203932,2018-06-29 10:31:04.875000,-25.83,79.03
203933,2018-06-29 10:31:04.906250,-17.37,79.03
203934,2018-06-29 10:31:04.937500,-7.2,79.03
203935,2018-06-29 10:31:04.968750,-7.43,79.03
203936,2018-06-29 10:31:05.000000,-16.64,79.03
203937,2018-06-29 10:31:05.031250,-26.07,79.03
203938,2018-06-29 10:31:05.062500,-33.63,79.03
203939,2018-06-29 10:31:05.093750,-44.56,79.03
203940,2018-06-29 10:31:05.125000,-60.8,79.03
203941,2018-06-29 10:31:05.156250,-77.01,79.03
203942,2018-06-29 10:31:05.187500,-88.34,79.03
203943,2018-06-29 10:31:05.218750,-97.12,79.03
203944,2018-06-29 10:31:05.250000,-108.95,79.03
203945,2018-06-29 10:31:05.281250,-124.64,79.03
203946,2018-06-29 10:31:05.312500,-135.19,79.03
203947,2018-06-29 10:31:05.343750,-123.81,79.03
203948,2018-06-29 10:31:05.375000,-82.78,79.03
203949,2018-06-29 10:31:05.406250,-29.39,79.03
203950,2018-06-29 10:31:05.437500,8.63,79.03
203951,2018-06-29 10:31:05.468750,22.87,79.03
203952,2018-06-29 10:31:05.500000,24.63,79.03
203953,2018-06-29 10:31:05.531250,22.71,78.92
203954,2018-06-29 10:31:05.562500,17.2,78.92
203955,2018-06-29 10:31:05.593750,9.29,78.92
203956,2018-06-29 10:31:05.625000,2.98,78.92
203957,2018-06-29 10:31:05.656250,-0.58,78.92
203958,2018-06-29 10:31:05.687500,-2.78,78.92
203959,2018-06-29 10:31:05.718750,-2.58,78.92
203960,2018-06-29 10:31:05.750000,0.89,78.92
203961,2018-06-29 10:31:05.781250,2.01,78.92
203962,2018-06-29 10:31:05.812500,-5.92,78.92
203963,2018-06-29 10:31:05.843750,-19.39,78.92
203964,2018-06-29 10:31:05.875000,-27.69,78.92
203965,2018-06-29 10:31:05.906250,-27.26,78.92
203966,2018-06-29 10:31:05.937500,-25.7,78.92
203967,2018-06-29 10:31:05.968750,-30.54,78.92
203968,2018-06-29 10:31:06.000000,-39.8,78.92
203969,2018-06-29 10:31:06.031250,-47.1,78.92
203970,2018-06-29 10:31:06.062500,-51.76,78.92
203971,2018-06-29 10:31:06.093750,-58.36,78.92
203972,2018-06-29 10:31:06.125000,-68.23,78.92
203973,2018-06-29 10:31:06.156250,-77.05,78.92
203974,2018-06-29 10:31:06.187500,-80.83,78.92
203975,2018-06-29 10:31:06.218750,-81.16,78.92
203976,2018-06-29 10:31:06.250000,-83.71,78.92
203977,2018-06-29 10:31:06.281250,-91.85,78.92
203978,2018-06-29 10:31:06.312500,-98.24,78.92
203979,2018-06-29 10:31:06.343750,-84.97,78.92
203980,2018-06-29 10:31:06.375000,-42.64,78.92
203981,2018-06-29 10:31:06.406250,12.8,78.92
203982,2018-06-29 10:31:06.437500,55.01,78.92
203983,2018-06-29 10:31:06.468750,75.32,78.92
203984,2018-06-29 10:31:06.500000,83.32,78.92
203985,2018-06-29 10:31:06.531250,86.62,78.82
203986,2018-06-29 10:31:06.562500,83.54,78.82
203987,2018-06-29 10:31:06.593750,72.91,78.82
203988,2018-06-29 10:31:06.625000,60.79,78.82
203989,2018-06-29 10:31:06.656250,54.69,78.82
203990,2018-06-29 10:31:06.687500,55.77,78.82
203991,2018-06-29 10:31:06.718750,60.0,78.82
203992,2018-06-29 10:31:06.750000,62.97,78.82
203993,2018-06-29 10:31:06.781250,61.5,78.82
203994,2018-06-29 10:31:06.812500,55.69,78.82
203995,2018-06-29 10:31:06.843750,49.42,78.82
203996,2018-06-29 10:31:06.875000,44.39,78.82
203997,2018-06-29 10:31:06.906250,37.13,78.82
203998,2018-06-29 10:31:06.937500,26.39,78.82
203999,2018-06-29 10:31:06.968750,17.02,78.82
204000,2018-06-29 10:31:07.000000,12.01,78.82
204001,2018-06-29 10:31:07.031250,6.36,78.82
204002,2018-06-29 10:31:07.062500,-5.74,78.82
204003,2018-06-29 10:31:07.093750,-21.55,78.82
204004,2018-06-29 10:31:07.125000,-31.66,78.82
204005,2018-06-29 10:31:07.156250,-32.76,78.82
204006,2018-06-29 10:31:07.187500,-35.73,78.82
204007,2018-06-29 10:31:07.218750,-53.52,78.82
204008,2018-06-29 10:31:07.250000,-78.83,78.82
204009,2018-06-29 10:31:07.281250,-85.06,78.82
204010,2018-06-29 10:31:07.312500,-56.52,78.82
204011,2018-06-29 10:31:07.343750,-7.19,78.82
204012,2018-06-29 10:31:07.375000,37.12,78.82
204013,2018-06-29 10:31:07.406250,63.25,78.82
204014,2018-06-29 10:31:07.437500,71.78,78.82
204015,2018-06-29 10:31:07.468750,66.19,78.82
204016,2018-06-29 10:31:07.500000,51.15,78.82
204017,2018-06-29 10:31:07.531250,35.81,78.75
204018,2018-06-29 10:31:07.562500,29.69,78.75
204019,2018-06-29 10:31:07.593750,34.61,78.75
204020,2018-06-29 10:31:07.625000,45.48,78.75
204021,2018-06-29 10:31:07.656250,57.75,78.75
204022,2018-06-29 10:31:07.687500,68.16,78.75
204023,2018-06-29 10:31:07.718750,71.13,78.75
204024,2018-06-29 10:31:07.750000,62.67,78.75
204025,2018-06-29 10:31:07.781250,45.46,78.75
204026,2018-06-29 10:31:07.812500,25.28,78.75
204027,2018-06-29 10:31:07.843750,5.52,78.75
204028,2018-06-29 10:31:07.875000,-12.73,78.75
204029,2018-06-29 10:31:07.906250,-27.99,78.75
204030,2018-06-29 10:31:07.937500,-37.75,78.75
204031,2018-06-29 10:31:07.968750,-41.84,78.75
204032,2018-06-29 10:31:08.000000,-45.07,78.75
204033,2018-06-29 10:31:08.031250,-52.56,78.75
204034,2018-06-29 10:31:08.062500,-63.49,78.75
204035,2018-06-29 10:31:08.093750,-74.36,78.75
204036,2018-06-29 10:31:08.125000,-86.11,78.75
204037,2018-06-29 10:31:08.156250,-102.19,78.75
204038,2018-06-29 10:31:08.187500,-116.9,78.75
204039,2018-06-29 10:31:08.218750,-110.65,78.75
204040,2018-06-29 10:31:08.250000,-69.45,78.75
204041,2018-06-29 10:31:08.281250,-8.52,78.75
204042,2018-06-29 10:31:08.312500,40.74,78.75
204043,2018-06-29 10:31:08.343750,66.47,78.75
204044,2018-06-29 10:31:08.375000,79.9,78.75
204045,2018-06-29 10:31:08.406250,88.89,78.75
204046,2018-06-29 10:31:08.437500,90.15,78.75
204047,2018-06-29 10:31:08.468750,83.88,78.75
204048,2018-06-29 10:31:08.500000,77.29,78.75
204049,2018-06-29 10:31:08.531250,73.84,78.68
204050,2018-06-29 10:31:08.562500,70.48,78.68
204051,2018-06-29 10:31:08.593750,65.64,78.68
204052,2018-06-29 10:31:08.625000,61.03,78.68
204053,2018-06-29 10:31:08.656250,55.75,78.68
204054,2018-06-29 10:31:08.687500,46.28,78.68
204055,2018-06-29 10:31:08.718750,33.48,78.68
204056,2018-06-29 10:31:08.750000,22.6,78.68
204057,2018-06-29 10:31:08.781250,14.97,78.68
204058,2018-06-29 10:31:08.812500,5.87,78.68
204059,2018-06-29 10:31:08.843750,-6.31,78.68
204060,2018-06-29 10:31:08.875000,-16.65,78.68
204061,2018-06-29 10:31:08.906250,-25.51,78.68
204062,2018-06-29 10:31:08.937500,-42.69,78.68
204063,2018-06-29 10:31:08.968750,-71.79,78.68
204064,2018-06-29 10:31:09.000000,-101.94,78.68
204065,2018-06-29 10:31:09.031250,-122.02,78.68
204066,2018-06-29 10:31:09.062500,-132.3,78.68
204067,2018-06-29 10:31:09.093750,-139.42,78.68
204068,2018-06-29 10:31:09.125000,-149.48,78.68
204069,2018-06-29 10:31:09.156250,-162.26,78.68
204070,2018-06-29 10:31:09.187500,-163.01,78.68
204071,2018-06-29 10:31:09.218750,-130.39,78.68
204072,2018-06-29 10:31:09.250000,-64.13,78.68
204073,2018-06-29 10:31:09.281250,7.94,78.68
204074,2018-06-29 10:31:09.312500,59.83,78.68
204075,2018-06-29 10:31:09.343750,89.99,78.68
204076,2018-06-29 10:31:09.375000,108.02,78.68
204077,2018-06-29 10:31:09.406250,116.44,78.68
204078,2018-06-29 10:31:09.437500,115.1,78.68
204079,2018-06-29 10:31:09.468750,109.77,78.68
204080,2018-06-29 10:31:09.500000,107.14,78.68
204081,2018-06-29 10:31:09.531250,107.21,78.62
204082,2018-06-29 10:31:09.562500,106.96,78.62
204083,2018-06-29 10:31:09.593750,106.12,78.62
204084,2018-06-29 10:31:09.625000,104.09,78.62
204085,2018-06-29 10:31:09.656250,96.87,78.62
204086,2018-06-29 10:31:09.687500,82.3,78.62
204087,2018-06-29 10:31:09.718750,64.82,78.62
204088,2018-06-29 10:31:09.750000,50.84,78.62
204089,2018-06-29 10:31:09.781250,41.15,78.62
204090,2018-06-29 10:31:09.812500,31.33,78.62
204091,2018-06-29 10:31:09.843750,19.81,78.62
204092,2018-06-29 10:31:09.875000,10.33,78.62
204093,2018-06-29 10:31:09.906250,4.45,78.62
204094,2018-06-29 10:31:09.937500,-2.57,78.62
204095,2018-06-29 10:31:09.968750,-13.97,78.62
204096,2018-06-29 10:31:10.000000,-25.74,78.62
204097,2018-06-29 10:31:10.031250,-33.32,78.62
204098,2018-06-29 10:31:10.062500,-39.29,78.62
204099,2018-06-29 10:31:10.093750,-50.14,78.62
204100,2018-06-29 10:31:10.125000,-67.84,78.62
204101,2018-06-29 10:31:10.156250,-82.95,78.62
204102,2018-06-29 10:31:10.187500,-76.38,78.62
204103,2018-06-29 10:31:10.218750,-38.03,78.62
204104,2018-06-29 10:31:10.250000,15.53,78.62
204105,2018-06-29 10:31:10.281250,55.31,78.62
204106,2018-06-29 10:31:10.312500,71.0,78.62
204107,2018-06-29 10:31:10.343750,74.13,78.62
204108,2018-06-29 10:31:10.375000,73.93,78.62
204109,2018-06-29 10:31:10.406250,66.59,78.62
204110,2018-06-29 10:31:10.437500,48.21,78.62
204111,2018-06-29 10:31:10.468750,24.79,78.62
204112,2018-06-29 10:31:10.500000,6.39,78.62
204113,2018-06-29 10:31:10.531250,-1.36,78.58
204114,2018-06-29 10:31:10.562500,1.73,78.58
204115,2018-06-29 10:31:10.593750,11.3,78.58
204116,2018-06-29 10:31:10.625000,19.06,78.58
204117,2018-06-29 10:31:10.656250,18.85,78.58
204118,2018-06-29 10:31:10.687500,12.3,78.58
204119,2018-06-29 10:31:10.718750,5.18,78.58
204120,2018-06-29 10:31:10.750000,-0.17,78.58
204121,2018-06-29 10:31:10.781250,-5.01,78.58
204122,2018-06-29 10:31:10.812500,-9.47,78.58
204123,2018-06-29 10:31:10.843750,-12.71,78.58
204124,2018-06-29 10:31:10.875000,-16.17,78.58
204125,2018-06-29 10:31:10.906250,-21.88,78.58
204126,2018-06-29 10:31:10.937500,-28.74,78.58
204127,2018-06-29 10:31:10.968750,-34.38,78.58
204128,2018-06-29 10:31:11.000000,-39.16,78.58
204129,2018-06-29 10:31:11.031250,-45.24,78.58
204130,2018-06-29 10:31:11.062500,-53.68,78.58
204131,2018-06-29 10:31:11.093750,-60.48,78.58
204132,2018-06-29 10:31:11.125000,-53.05,78.58
204133,2018-06-29 10:31:11.156250,-19.22,78.58
204134,2018-06-29 10:31:11.187500,34.15,78.58
204135,2018-06-29 10:31:11.218750,82.57,78.58
204136,2018-06-29 10:31:11.250000,108.84,78.58
204137,2018-06-29 10:31:11.281250,114.7,78.58
204138,2018-06-29 10:31:11.312500,107.66,78.58
204139,2018-06-29 10:31:11.343750,92.77,78.58
204140,2018-06-29 10:31:11.375000,78.19,78.58
204141,2018-06-29 10:31:11.406250,71.88,78.58
204142,2018-06-29 10:31:11.437500,70.8,78.58
204143,2018-06-29 10:31:11.468750,65.16,78.58
204144,2018-06-29 10:31:11.500000,53.42,78.58
204145,2018-06-29 10:31:11.531250,41.29,78.62
204146,2018-06-29 10:31:11.562500,28.18,78.62
204147,2018-06-29 10:31:11.593750,8.49,78.62
204148,2018-06-29 10:31:11.625000,-14.89,78.62
204149,2018-06-29 10:31:11.656250,-32.57,78.62
204150,2018-06-29 10:31:11.687500,-44.22,78.62
204151,2018-06-29 10:31:11.718750,-58.5,78.62
204152,2018-06-29 10:31:11.750000,-77.38,78.62
204153,2018-06-29 10:31:11.781250,-93.72,78.62
204154,2018-06-29 10:31:11.812500,-104.54,78.62
204155,2018-06-29 10:31:11.843750,-115.38,78.62
204156,2018-06-29 10:31:11.875000,-132.44,78.62
204157,2018-06-29 10:31:11.906250,-155.52,78.62
204158,2018-06-29 10:31:11.937500,-172.91,78.62
204159,2018-06-29 10:31:11.968750,-164.5,78.62
204160,2018-06-29 10:31:12.000000,-122.21,78.62
204161,2018-06-29 10:31:12.031250,-64.84,78.62
204162,2018-06-29 10:31:12.062500,-20.53,78.62
204163,2018-06-29 10:31:12.093750,-0.1,78.62
204164,2018-06-29 10:31:12.125000,2.82,78.62
204165,2018-06-29 10:31:12.156250,-5.16,78.62
204166,2018-06-29 10:31:12.187500,-21.68,78.62
204167,2018-06-29 10:31:12.218750,-41.63,78.62
204168,2018-06-29 10:31:12.250000,-58.5,78.62
204169,2018-06-29 10:31:12.281250,-72.66,78.62
204170,2018-06-29 10:31:12.312500,-89.95,78.62
204171,2018-06-29 10:31:12.343750,-112.83,78.62
204172,2018-06-29 10:31:12.375000,-139.39,78.62
204173,2018-06-29 10:31:12.406250,-165.95,78.62
204174,2018-06-29 10:31:12.437500,-185.26,78.62
204175,2018-06-29 10:31:12.468750,-189.18,78.62
204176,2018-06-29 10:31:12.500000,-174.76,78.62
204177,2018-06-29 10:31:12.531250,-143.92,78.67
204178,2018-06-29 10:31:12.562500,-100.86,78.67
204179,2018-06-29 10:31:12.593750,-53.93,78.67
204180,2018-06-29 10:31:12.625000,-16.47,78.67
204181,2018-06-29 10:31:12.656250,-1.35,78.67
204182,2018-06-29 10:31:12.687500,-15.23,78.67
204183,2018-06-29 10:31:12.718750,-54.7,78.67
204184,2018-06-29 10:31:12.750000,-102.32,78.67
204185,2018-06-29 10:31:12.781250,-131.14,78.67
204186,2018-06-29 10:31:12.812500,-125.19,78.67
204187,2018-06-29 10:31:12.843750,-92.93,78.67
