,Time,ppg,hr
204800,2018-06-29 10:31:32.000000,40.42,72.13
204801,2018-06-29 10:31:32.031250,29.13,72.13
204802,2018-06-29 10:31:32.062500,14.83,72.13
204803,2018-06-29 10:31:32.093750,0.29,72.13
204804,2018-06-29 10:31:32.125000,-7.86,72.13
204805,2018-06-29 10:31:32.156250,-7.88,72.13
204806,2018-06-29 10:31:32.187500,-6.01,72.13
204807,2018-06-29 10:31:32.218750,-10.69,72.13
204808,2018-06-29 10:31:32.250000,-26.25,72.13
204809,2018-06-29 10:31:32.281250,-48.83,72.13
204810,2018-06-29 10:31:32.312500,-65.9,72.13
204811,2018-06-29 10:31:32.343750,-65.25,72.13
204812,2018-06-29 10:31:32.375000,-47.4,72.13
204813,2018-06-29 10:31:32.406250,-23.86,72.13
204814,2018-06-29 10:31:32.437500,-4.34,72.13
204815,2018-06-29 10:31:32.468750,9.15,72.13
204816,2018-06-29 10:31:32.500000,18.11,72.13
204817,2018-06-29 10:31:32.531250,23.59,71.73
204818,2018-06-29 10:31:32.562500,25.79,71.73
204819,2018-06-29 10:31:32.593750,25.04,71.73
204820,2018-06-29 10:31:32.625000,21.97,71.73
204821,2018-06-29 10:31:32.656250,17.23,71.73
204822,2018-06-29 10:31:32.687500,11.4,71.73
204823,2018-06-29 10:31:32.718750,4.53,71.73
204824,2018-06-29 10:31:32.750000,-5.97,71.73
204825,2018-06-29 10:31:32.781250,-23.72,71.73
204826,2018-06-29 10:31:32.812500,-47.38,71.73
204827,2018-06-29 10:31:32.843750,-69.47,71.73
204828,2018-06-29 10:31:32.875000,-83.55,71.73
204829,2018-06-29 10:31:32.906250,-88.93,71.73
204830,2018-06-29 10:31:32.937500,-87.37,71.73
204831,2018-06-29 10:31:32.968750,-78.84,71.73
204832,2018-06-29 10:31:33.000000,-63.72,71.73
204833,2018-06-29 10:31:33.031250,-47.54,71.73
204834,2018-06-29 10:31:33.062500,-39.35,71.73
204835,2018-06-29 10:31:33.093750,-42.2,71.73
204836,2018-06-29 10:31:33.125000,-48.11,71.73
204837,2018-06-29 10:31:33.156250,-45.71,71.73
204838,2018-06-29 10:31:33.187500,-33.88,71.73
204839,2018-06-29 10:31:33.218750,-25.72,71.73
204840,2018-06-29 10:31:33.250000,-35.12,71.73
204841,2018-06-29 10:31:33.281250,-57.7,71.73
204842,2018-06-29 10:31:33.312500,-72.48,71.73
204843,2018-06-29 10:31:33.343750,-66.9,71.73
204844,2018-06-29 10:31:33.375000,-48.3,71.73
204845,2018-06-29 10:31:33.406250,-27.16,71.73
204846,2018-06-29 10:31:33.437500,-4.86,71.73
204847,2018-06-29 10:31:33.468750,18.27,71.73
204848,2018-06-29 10:31:33.500000,39.37,71.73
204849,2018-06-29 10:31:33.531250,61.34,71.35
204850,2018-06-29 10:31:33.562500,92.04,71.35
204851,2018-06-29 10:31:33.593750,133.49,71.35
204852,2018-06-29 10:31:33.625000,174.6,71.35
204853,2018-06-29 10:31:33.656250,195.36,71.35
204854,2018-06-29 10:31:33.687500,183.49,71.35
204855,2018-06-29 10:31:33.718750,146.23,71.35
204856,2018-06-29 10:31:33.750000,100.71,71.35
204857,2018-06-29 10:31:33.781250,59.27,71.35
204858,2018-06-29 10:31:33.812500,28.65,71.35
204859,2018-06-29 10:31:33.843750,11.7,71.35
204860,2018-06-29 10:31:33.875000,6.1,71.35
204861,2018-06-29 10:31:33.906250,7.55,71.35
204862,2018-06-29 10:31:33.937500,10.68,71.35
204863,2018-06-29 10:31:33.968750,7.21,71.35
204864,2018-06-29 10:31:34.000000,-7.87,71.35
204865,2018-06-29 10:31:34.031250,-31.06,71.35
204866,2018-06-29 10:31:34.062500,-55.52,71.35
204867,2018-06-29 10:31:34.093750,-73.81,71.35
204868,2018-06-29 10:31:34.125000,-77.9,71.35
204869,2018-06-29 10:31:34.156250,-68.87,71.35
204870,2018-06-29 10:31:34.187500,-59.74,71.35
204871,2018-06-29 10:31:34.218750,-56.97,71.35
204872,2018-06-29 10:31:34.250000,-50.58,71.35
204873,2018-06-29 10:31:34.281250,-33.84,71.35
204874,2018-06-29 10:31:34.312500,-19.77,71.35
204875,2018-06-29 10:31:34.343750,-25.84,71.35
204876,2018-06-29 10:31:34.375000,-51.03,71.35
204877,2018-06-29 10:31:34.406250,-77.66,71.35
204878,2018-06-29 10:31:34.437500,-91.79,71.35
204879,2018-06-29 10:31:34.468750,-92.63,71.35
204880,2018-06-29 10:31:34.500000,-83.89,71.35
204881,2018-06-29 10:31:34.531250,-67.71,70.97
204882,2018-06-29 10:31:34.562500,-50.3,70.97
204883,2018-06-29 10:31:34.593750,-41.69,70.97
204884,2018-06-29 10:31:34.625000,-43.71,70.97
204885,2018-06-29 10:31:34.656250,-48.16,70.97
204886,2018-06-29 10:31:34.687500,-50.9,70.97
204887,2018-06-29 10:31:34.718750,-57.66,70.97
204888,2018-06-29 10:31:34.750000,-72.64,70.97
204889,2018-06-29 10:31:34.781250,-89.47,70.97
204890,2018-06-29 10:31:34.812500,-93.64,70.97
204891,2018-06-29 10:31:34.843750,-70.96,70.97
204892,2018-06-29 10:31:34.875000,-24.69,70.97
204893,2018-06-29 10:31:34.906250,15.18,70.97
204894,2018-06-29 10:31:34.937500,17.11,70.97
204895,2018-06-29 10:31:34.968750,-17.62,70.97
204896,2018-06-29 10:31:35.000000,-62.58,70.97
204897,2018-06-29 10:31:35.031250,-100.75,70.97
204898,2018-06-29 10:31:35.062500,-132.67,70.97
204899,2018-06-29 10:31:35.093750,-161.07,70.97
204900,2018-06-29 10:31:35.125000,-183.96,70.97
204901,2018-06-29 10:31:35.156250,-194.95,70.97
204902,2018-06-29 10:31:35.187500,-185.08,70.97
204903,2018-06-29 10:31:35.218750,-152.98,70.97
204904,2018-06-29 10:31:35.250000,-112.06,70.97
204905,2018-06-29 10:31:35.281250,-77.46,70.97
204906,2018-06-29 10:31:35.312500,-50.71,70.97
204907,2018-06-29 10:31:35.343750,-23.14,70.97
204908,2018-06-29 10:31:35.375000,9.86,70.97
204909,2018-06-29 10:31:35.406250,42.81,70.97
204910,2018-06-29 10:31:35.437500,68.01,70.97
204911,2018-06-29 10:31:35.468750,86.03,70.97
204912,2018-06-29 10:31:35.500000,102.43,70.97
204913,2018-06-29 10:31:35.531250,117.62,70.55
204914,2018-06-29 10:31:35.562500,127.8,70.55
204915,2018-06-29 10:31:35.593750,131.28,70.55
204916,2018-06-29 10:31:35.625000,128.17,70.55
204917,2018-06-29 10:31:35.656250,119.0,70.55
204918,2018-06-29 10:31:35.687500,105.96,70.55
204919,2018-06-29 10:31:35.718750,91.38,70.55
204920,2018-06-29 10:31:35.750000,75.2,70.55
204921,2018-06-29 10:31:35.781250,56.92,70.55
204922,2018-06-29 10:31:35.812500,37.96,70.55
204923,2018-06-29 10:31:35.843750,19.92,70.55
204924,2018-06-29 10:31:35.875000,2.42,70.55
204925,2018-06-29 10:31:35.906250,-15.22,70.55
204926,2018-06-29 10:31:35.937500,-31.35,70.55
204927,2018-06-29 10:31:35.968750,-44.14,70.55
204928,2018-06-29 10:31:36.000000,-55.33,70.55
204929,2018-06-29 10:31:36.031250,-68.99,70.55
204930,2018-06-29 10:31:36.062500,-86.0,70.55
204931,2018-06-29 10:31:36.093750,-99.01,70.55
204932,2018-06-29 10:31:36.125000,-95.01,70.55
204933,2018-06-29 10:31:36.156250,-68.2,70.55
204934,2018-06-29 10:31:36.187500,-28.32,70.55
204935,2018-06-29 10:31:36.218750,9.73,70.55
204936,2018-06-29 10:31:36.250000,39.75,70.55
204937,2018-06-29 10:31:36.281250,62.34,70.55
204938,2018-06-29 10:31:36.312500,76.97,70.55
204939,2018-06-29 10:31:36.343750,82.96,70.55
204940,2018-06-29 10:31:36.375000,83.94,70.55
204941,2018-06-29 10:31:36.406250,84.96,70.55
204942,2018-06-29 10:31:36.437500,87.2,70.55
204943,2018-06-29 10:31:36.468750,88.88,70.55
204944,2018-06-29 10:31:36.500000,89.67,70.55
204945,2018-06-29 10:31:36.531250,89.55,70.08
204946,2018-06-29 10:31:36.562500,85.39,70.08
204947,2018-06-29 10:31:36.593750,74.39,70.08
204948,2018-06-29 10:31:36.625000,60.01,70.08
204949,2018-06-29 10:31:36.656250,47.57,70.08
204950,2018-06-29 10:31:36.687500,35.1,70.08
204951,2018-06-29 10:31:36.718750,15.18,70.08
204952,2018-06-29 10:31:36.750000,-14.61,70.08
204953,2018-06-29 10:31:36.781250,-48.39,70.08
204954,2018-06-29 10:31:36.812500,-76.18,70.08
204955,2018-06-29 10:31:36.843750,-87.24,70.08
204956,2018-06-29 10:31:36.875000,-75.64,70.08
204957,2018-06-29 10:31:36.906250,-45.05,70.08
204958,2018-06-29 10:31:36.937500,-2.81,70.08
204959,2018-06-29 10:31:36.968750,42.65,70.08
204960,2018-06-29 10:31:37.000000,74.2,70.08
204961,2018-06-29 10:31:37.031250,77.63,70.08
204962,2018-06-29 10:31:37.062500,66.13,70.08
204963,2018-06-29 10:31:37.093750,68.21,70.08
204964,2018-06-29 10:31:37.125000,90.79,70.08
204965,2018-06-29 10:31:37.156250,116.92,70.08
204966,2018-06-29 10:31:37.187500,132.07,70.08
204967,2018-06-29 10:31:37.218750,134.8,70.08
204968,2018-06-29 10:31:37.250000,131.02,70.08
204969,2018-06-29 10:31:37.281250,127.82,70.08
204970,2018-06-29 10:31:37.312500,128.08,70.08
204971,2018-06-29 10:31:37.343750,129.09,70.08
204972,2018-06-29 10:31:37.375000,126.96,70.08
204973,2018-06-29 10:31:37.406250,120.7,70.08
204974,2018-06-29 10:31:37.437500,112.91,70.08
204975,2018-06-29 10:31:37.468750,106.17,70.08
204976,2018-06-29 10:31:37.500000,96.7,70.08
204977,2018-06-29 10:31:37.531250,75.46,69.55
204978,2018-06-29 10:31:37.562500,39.8,69.55
204979,2018-06-29 10:31:37.593750,-0.03,69.55
204980,2018-06-29 10:31:37.625000,-30.98,69.55
204981,2018-06-29 10:31:37.656250,-50.99,69.55
204982,2018-06-29 10:31:37.687500,-69.46,69.55
204983,2018-06-29 10:31:37.718750,-93.19,69.55
204984,2018-06-29 10:31:37.750000,-114.05,69.55
204985,2018-06-29 10:31:37.781250,-116.68,69.55
204986,2018-06-29 10:31:37.812500,-98.12,69.55
204987,2018-06-29 10:31:37.843750,-71.73,69.55
204988,2018-06-29 10:31:37.875000,-50.82,69.55
204989,2018-06-29 10:31:37.906250,-37.57,69.55
204990,2018-06-29 10:31:37.937500,-29.02,69.55
204991,2018-06-29 10:31:37.968750,-24.66,69.55
204992,2018-06-29 10:31:38.000000,-24.65,69.55
204993,2018-06-29 10:31:38.031250,-26.13,69.55
204994,2018-06-29 10:31:38.062500,-25.35,69.55
204995,2018-06-29 10:31:38.093750,-21.74,69.55
204996,2018-06-29 10:31:38.125000,-17.32,69.55
204997,2018-06-29 10:31:38.156250,-13.14,69.55
204998,2018-06-29 10:31:38.187500,-8.76,69.55
204999,2018-06-29 10:31:38.218750,-4.57,69.55
205000,2018-06-29 10:31:38.250000,-1.42,69.55
205001,2018-06-29 10:31:38.281250,2.36,69.55
205002,2018-06-29 10:31:38.312500,10.67,69.55
205003,2018-06-29 10:31:38.343750,24.18,69.55
205004,2018-06-29 10:31:38.375000,37.74,69.55
205005,2018-06-29 10:31:38.406250,44.68,69.55
205006,2018-06-29 10:31:38.437500,40.97,69.55
205007,2018-06-29 10:31:38.468750,24.95,69.55
205008,2018-06-29 10:31:38.500000,-3.77,69.55
205009,2018-06-29 10:31:38.531250,-43.5,69.08
205010,2018-06-29 10:31:38.562500,-90.76,69.08
205011,2018-06-29 10:31:38.593750,-140.48,69.08
205012,2018-06-29 10:31:38.625000,-182.29,69.08
205013,2018-06-29 10:31:38.656250,-201.08,69.08
205014,2018-06-29 10:31:38.687500,-189.81,69.08
205015,2018-06-29 10:31:38.718750,-158.4,69.08
205016,2018-06-29 10:31:38.750000,-122.48,69.08
205017,2018-06-29 10:31:38.781250,-88.67,69.08
205018,2018-06-29 10:31:38.812500,-57.0,69.08
205019,2018-06-29 10:31:38.843750,-29.62,69.08
205020,2018-06-29 10:31:38.875000,-9.4,69.08
205021,2018-06-29 10:31:38.906250,5.35,69.08
205022,2018-06-29 10:31:38.937500,18.93,69.08
205023,2018-06-29 10:31:38.968750,33.1,69.08
205024,2018-06-29 10:31:39.000000,46.43,69.08
205025,2018-06-29 10:31:39.031250,56.88,69.08
205026,2018-06-29 10:31:39.062500,63.11,69.08
205027,2018-06-29 10:31:39.093750,64.68,69.08
205028,2018-06-29 10:31:39.125000,62.67,69.08
205029,2018-06-29 10:31:39.156250,59.59,69.08
205030,2018-06-29 10:31:39.187500,56.74,69.08
205031,2018-06-29 10:31:39.218750,53.11,69.08
205032,2018-06-29 10:31:39.250000,48.02,69.08
205033,2018-06-29 10:31:39.281250,42.87,69.08
205034,2018-06-29 10:31:39.312500,38.32,69.08
205035,2018-06-29 10:31:39.343750,32.23,69.08
205036,2018-06-29 10:31:39.375000,23.26,69.08
205037,2018-06-29 10:31:39.406250,13.46,69.08
205038,2018-06-29 10:31:39.437500,4.58,69.08
205039,2018-06-29 10:31:39.468750,-5.08,69.08
205040,2018-06-29 10:31:39.500000,-18.23,69.08
205041,2018-06-29 10:31:39.531250,-33.94,68.63
205042,2018-06-29 10:31:39.562500,-44.41,68.63
205043,2018-06-29 10:31:39.593750,-38.3,68.63
205044,2018-06-29 10:31:39.625000,-12.21,68.63
205045,2018-06-29 10:31:39.656250,23.36,68.63
205046,2018-06-29 10:31:39.687500,54.17,68.63
205047,2018-06-29 10:31:39.718750,74.97,68.63
205048,2018-06-29 10:31:39.750000,88.13,68.63
205049,2018-06-29 10:31:39.781250,95.38,68.63
205050,2018-06-29 10:31:39.812500,94.61,68.63
205051,2018-06-29 10:31:39.843750,84.81,68.63
205052,2018-06-29 10:31:39.875000,71.48,68.63
205053,2018-06-29 10:31:39.906250,60.79,68.63
205054,2018-06-29 10:31:39.937500,53.46,68.63
205055,2018-06-29 10:31:39.968750,47.84,68.63
205056,2018-06-29 10:31:40.000000,43.64,68.63
205057,2018-06-29 10:31:40.031250,35.44,68.63
205058,2018-06-29 10:31:40.062500,16.76,68.63
205059,2018-06-29 10:31:40.093750,-8.45,68.63
205060,2018-06-29 10:31:40.125000,-29.74,68.63
205061,2018-06-29 10:31:40.156250,-44.36,68.63
205062,2018-06-29 10:31:40.187500,-61.59,68.63
205063,2018-06-29 10:31:40.218750,-81.56,68.63
205064,2018-06-29 10:31:40.250000,-95.73,68.63
205065,2018-06-29 10:31:40.281250,-97.54,68.63
205066,2018-06-29 10:31:40.312500,-96.73,68.63
205067,2018-06-29 10:31:40.343750,-103.4,68.63
205068,2018-06-29 10:31:40.375000,-115.48,68.63
205069,2018-06-29 10:31:40.406250,-125.85,68.63
205070,2018-06-29 10:31:40.437500,-123.43,68.63
205071,2018-06-29 10:31:40.468750,-109.45,68.63
205072,2018-06-29 10:31:40.500000,-79.92,68.63
205073,2018-06-29 10:31:40.531250,-35.73,68.23
205074,2018-06-29 10:31:40.562500,29.45,68.23
205075,2018-06-29 10:31:40.593750,108.39,68.23
205076,2018-06-29 10:31:40.625000,180.2,68.23
205077,2018-06-29 10:31:40.656250,225.96,68.23
205078,2018-06-29 10:31:40.687500,200.7,68.23
205079,2018-06-29 10:31:40.718750,149.69,68.23
205080,2018-06-29 10:31:40.750000,104.33,68.23
205081,2018-06-29 10:31:40.781250,56.98,68.23
205082,2018-06-29 10:31:40.812500,10.2,68.23
205083,2018-06-29 10:31:40.843750,-21.48,68.23
205084,2018-06-29 10:31:40.875000,-39.04,68.23
205085,2018-06-29 10:31:40.906250,-51.23,68.23
205086,2018-06-29 10:31:40.937500,-59.68,68.23
205087,2018-06-29 10:31:40.968750,-63.51,68.23
205088,2018-06-29 10:31:41.000000,-60.84,68.23
205089,2018-06-29 10:31:41.031250,-64.02,68.23
205090,2018-06-29 10:31:41.062500,-71.6,68.23
205091,2018-06-29 10:31:41.093750,-77.56,68.23
205092,2018-06-29 10:31:41.125000,-74.94,68.23
205093,2018-06-29 10:31:41.156250,-66.54,68.23
205094,2018-06-29 10:31:41.187500,-56.04,68.23
205095,2018-06-29 10:31:41.218750,-43.4,68.23
205096,2018-06-29 10:31:41.250000,-31.31,68.23
205097,2018-06-29 10:31:41.281250,-22.33,68.23
205098,2018-06-29 10:31:41.312500,-19.0,68.23
205099,2018-06-29 10:31:41.343750,-18.71,68.23
205100,2018-06-29 10:31:41.375000,-21.18,68.23
205101,2018-06-29 10:31:41.406250,-27.66,68.23
205102,2018-06-29 10:31:41.437500,-39.03,68.23
205103,2018-06-29 10:31:41.468750,-51.72,68.23
205104,2018-06-29 10:31:41.500000,-56.09,68.23
205105,2018-06-29 10:31:41.531250,-44.86,67.75
205106,2018-06-29 10:31:41.562500,-22.95,67.75
205107,2018-06-29 10:31:41.593750,-2.51,67.75
205108,2018-06-29 10:31:41.625000,10.86,67.75
205109,2018-06-29 10:31:41.656250,20.47,67.75
205110,2018-06-29 10:31:41.687500,29.61,67.75
205111,2018-06-29 10:31:41.718750,37.13,67.75
205112,2018-06-29 10:31:41.750000,40.7,67.75
205113,2018-06-29 10:31:41.781250,40.54,67.75
205114,2018-06-29 10:31:41.812500,39.39,67.75
205115,2018-06-29 10:31:41.843750,39.35,67.75
205116,2018-06-29 10:31:41.875000,40.26,67.75
205117,2018-06-29 10:31:41.906250,40.99,67.75
205118,2018-06-29 10:31:41.937500,40.77,67.75
205119,2018-06-29 10:31:41.968750,38.57,67.75
205120,2018-06-29 10:31:42.000000,32.88,67.75
205121,2018-06-29 10:31:42.031250,23.72,67.75
205122,2018-06-29 10:31:42.062500,13.27,67.75
205123,2018-06-29 10:31:42.093750,2.84,67.75
205124,2018-06-29 10:31:42.125000,-8.79,67.75
205125,2018-06-29 10:31:42.156250,-22.31,67.75
205126,2018-06-29 10:31:42.187500,-35.33,67.75
205127,2018-06-29 10:31:42.218750,-44.87,67.75
205128,2018-06-29 10:31:42.250000,-51.4,67.75
205129,2018-06-29 10:31:42.281250,-58.76,67.75
205130,2018-06-29 10:31:42.312500,-70.56,67.75
205131,2018-06-29 10:31:42.343750,-84.77,67.75
205132,2018-06-29 10:31:42.375000,-90.5,67.75
205133,2018-06-29 10:31:42.406250,-75.16,67.75
205134,2018-06-29 10:31:42.437500,-38.23,67.75
205135,2018-06-29 10:31:42.468750,6.99,67.75
205136,2018-06-29 10:31:42.500000,46.33,67.75
205137,2018-06-29 10:31:42.531250,74.18,66.97
205138,2018-06-29 10:31:42.562500,91.29,66.97
205139,2018-06-29 10:31:42.593750,99.63,66.97
205140,2018-06-29 10:31:42.625000,101.01,66.97
205141,2018-06-29 10:31:42.656250,98.42,66.97
205142,2018-06-29 10:31:42.687500,95.36,66.97
205143,2018-06-29 10:31:42.718750,92.43,66.97
205144,2018-06-29 10:31:42.750000,87.15,66.97
205145,2018-06-29 10:31:42.781250,78.15,66.97
205146,2018-06-29 10:31:42.812500,66.46,66.97
205147,2018-06-29 10:31:42.843750,52.35,66.97
205148,2018-06-29 10:31:42.875000,34.74,66.97
205149,2018-06-29 10:31:42.906250,14.38,66.97
205150,2018-06-29 10:31:42.937500,-6.16,66.97
205151,2018-06-29 10:31:42.968750,-26.2,66.97
205152,2018-06-29 10:31:43.000000,-48.53,66.97
205153,2018-06-29 10:31:43.031250,-75.8,66.97
205154,2018-06-29 10:31:43.062500,-106.45,66.97
205155,2018-06-29 10:31:43.093750,-134.76,66.97
205156,2018-06-29 10:31:43.125000,-155.03,66.97
205157,2018-06-29 10:31:43.156250,-165.1,66.97
205158,2018-06-29 10:31:43.187500,-165.28,66.97
205159,2018-06-29 10:31:43.218750,-155.16,66.97
205160,2018-06-29 10:31:43.250000,-132.32,66.97
205161,2018-06-29 10:31:43.281250,-94.38,66.97
205162,2018-06-29 10:31:43.312500,-43.83,66.97
205163,2018-06-29 10:31:43.343750,8.97,66.97
205164,2018-06-29 10:31:43.375000,51.47,66.97
205165,2018-06-29 10:31:43.406250,79.12,66.97
205166,2018-06-29 10:31:43.437500,96.61,66.97
205167,2018-06-29 10:31:43.468750,109.37,66.97
205168,2018-06-29 10:31:43.500000,117.84,66.97
205169,2018-06-29 10:31:43.531250,121.02,65.88
205170,2018-06-29 10:31:43.562500,120.85,65.88
205171,2018-06-29 10:31:43.593750,119.95,65.88
205172,2018-06-29 10:31:43.625000,118.58,65.88
205173,2018-06-29 10:31:43.656250,116.26,65.88
205174,2018-06-29 10:31:43.687500,112.69,65.88
205175,2018-06-29 10:31:43.718750,106.28,65.88
205176,2018-06-29 10:31:43.750000,96.28,65.88
205177,2018-06-29 10:31:43.781250,84.46,65.88
205178,2018-06-29 10:31:43.812500,71.79,65.88
205179,2018-06-29 10:31:43.843750,57.03,65.88
205180,2018-06-29 10:31:43.875000,39.79,65.88
205181,2018-06-29 10:31:43.906250,21.96,65.88
205182,2018-06-29 10:31:43.937500,6.72,65.88
205183,2018-06-29 10:31:43.968750,-2.93,65.88
205184,2018-06-29 10:31:44.000000,-6.95,65.88
205185,2018-06-29 10:31:44.031250,-8.76,65.88
205186,2018-06-29 10:31:44.062500,-10.67,65.88
205187,2018-06-29 10:31:44.093750,-14.18,65.88
205188,2018-06-29 10:31:44.125000,-25.73,65.88
205189,2018-06-29 10:31:44.156250,-54.38,65.88
205190,2018-06-29 10:31:44.187500,-100.18,65.88
205191,2018-06-29 10:31:44.218750,-147.8,65.88
205192,2018-06-29 10:31:44.250000,-175.84,65.88
205193,2018-06-29 10:31:44.281250,-172.2,65.88
205194,2018-06-29 10:31:44.312500,-140.81,65.88
205195,2018-06-29 10:31:44.343750,-94.96,65.88
205196,2018-06-29 10:31:44.375000,-48.36,65.88
205197,2018-06-29 10:31:44.406250,-10.69,65.88
205198,2018-06-29 10:31:44.437500,16.34,65.88
205199,2018-06-29 10:31:44.468750,36.86,65.88
205200,2018-06-29 10:31:44.500000,50.26,65.88
205201,2018-06-29 10:31:44.531250,50.07,64.75
205202,2018-06-29 10:31:44.562500,35.93,64.75
205203,2018-06-29 10:31:44.593750,17.98,64.75
205204,2018-06-29 10:31:44.625000,6.1,64.75
205205,2018-06-29 10:31:44.656250,2.73,64.75
205206,2018-06-29 10:31:44.687500,5.82,64.75
205207,2018-06-29 10:31:44.718750,11.85,64.75
205208,2018-06-29 10:31:44.750000,17.03,64.75
205209,2018-06-29 10:31:44.781250,19.03,64.75
205210,2018-06-29 10:31:44.812500,16.66,64.75
205211,2018-06-29 10:31:44.843750,10.18,64.75
205212,2018-06-29 10:31:44.875000,4.77,64.75
205213,2018-06-29 10:31:44.906250,9.29,64.75
205214,2018-06-29 10:31:44.937500,27.26,64.75
205215,2018-06-29 10:31:44.968750,51.48,64.75
205216,2018-06-29 10:31:45.000000,69.32,64.75
205217,2018-06-29 10:31:45.031250,70.44,64.75
205218,2018-06-29 10:31:45.062500,51.27,64.75
205219,2018-06-29 10:31:45.093750,17.63,64.75
205220,2018-06-29 10:31:45.125000,-15.78,64.75
205221,2018-06-29 10:31:45.156250,-33.19,64.75
205222,2018-06-29 10:31:45.187500,-27.25,64.75
205223,2018-06-29 10:31:45.218750,-2.05,64.75
205224,2018-06-29 10:31:45.250000,30.34,64.75
205225,2018-06-29 10:31:45.281250,55.93,64.75
205226,2018-06-29 10:31:45.312500,65.83,64.75
205227,2018-06-29 10:31:45.343750,60.05,64.75
205228,2018-06-29 10:31:45.375000,44.6,64.75
205229,2018-06-29 10:31:45.406250,25.64,64.75
205230,2018-06-29 10:31:45.437500,7.4,64.75
205231,2018-06-29 10:31:45.468750,-8.07,64.75
205232,2018-06-29 10:31:45.500000,-22.75,64.75
205233,2018-06-29 10:31:45.531250,-41.03,64.73
205234,2018-06-29 10:31:45.562500,-64.83,64.73
205235,2018-06-29 10:31:45.593750,-91.96,64.73
205236,2018-06-29 10:31:45.625000,-117.36,64.73
205237,2018-06-29 10:31:45.656250,-132.94,64.73
205238,2018-06-29 10:31:45.687500,-131.54,64.73
205239,2018-06-29 10:31:45.718750,-115.31,64.73
205240,2018-06-29 10:31:45.750000,-94.78,64.73
205241,2018-06-29 10:31:45.781250,-77.68,64.73
205242,2018-06-29 10:31:45.812500,-64.56,64.73
205243,2018-06-29 10:31:45.843750,-54.3,64.73
205244,2018-06-29 10:31:45.875000,-46.83,64.73
205245,2018-06-29 10:31:45.906250,-40.84,64.73
205246,2018-06-29 10:31:45.937500,-33.79,64.73
205247,2018-06-29 10:31:45.968750,-24.29,64.73
205248,2018-06-29 10:31:46.000000,-12.57,64.73
205249,2018-06-29 10:31:46.031250,0.62,64.73
205250,2018-06-29 10:31:46.062500,14.08,64.73
205251,2018-06-29 10:31:46.093750,26.39,64.73
205252,2018-06-29 10:31:46.125000,36.83,64.73
205253,2018-06-29 10:31:46.156250,46.24,64.73
205254,2018-06-29 10:31:46.187500,56.58,64.73
205255,2018-06-29 10:31:46.218750,68.71,64.73
205256,2018-06-29 10:31:46.250000,80.02,64.73
205257,2018-06-29 10:31:46.281250,85.68,64.73
205258,2018-06-29 10:31:46.312500,83.38,64.73
205259,2018-06-29 10:31:46.343750,74.7,64.73
205260,2018-06-29 10:31:46.375000,61.76,64.73
205261,2018-06-29 10:31:46.406250,45.37,64.73
205262,2018-06-29 10:31:46.437500,26.87,64.73
205263,2018-06-29 10:31:46.468750,8.53,64.73
205264,2018-06-29 10:31:46.500000,-9.19,64.73
205265,2018-06-29 10:31:46.531250,-28.64,64.68
205266,2018-06-29 10:31:46.562500,-52.35,64.68
205267,2018-06-29 10:31:46.593750,-78.46,64.68
205268,2018-06-29 10:31:46.625000,-97.74,64.68
205269,2018-06-29 10:31:46.656250,-98.85,64.68
205270,2018-06-29 10:31:46.687500,-80.82,64.68
205271,2018-06-29 10:31:46.718750,-55.84,64.68
205272,2018-06-29 10:31:46.750000,-35.77,64.68
205273,2018-06-29 10:31:46.781250,-21.66,64.68
205274,2018-06-29 10:31:46.812500,-9.04,64.68
205275,2018-06-29 10:31:46.843750,3.63,64.68
205276,2018-06-29 10:31:46.875000,15.36,64.68
205277,2018-06-29 10:31:46.906250,26.63,64.68
205278,2018-06-29 10:31:46.937500,39.34,64.68
205279,2018-06-29 10:31:46.968750,54.01,64.68
205280,2018-06-29 10:31:47.000000,69.1,64.68
205281,2018-06-29 10:31:47.031250,82.41,64.68
205282,2018-06-29 10:31:47.062500,90.72,64.68
205283,2018-06-29 10:31:47.093750,90.29,64.68
205284,2018-06-29 10:31:47.125000,81.18,64.68
205285,2018-06-29 10:31:47.156250,69.5,64.68
205286,2018-06-29 10:31:47.187500,61.99,64.68
205287,2018-06-29 10:31:47.218750,59.55,64.68
205288,2018-06-29 10:31:47.250000,57.95,64.68
205289,2018-06-29 10:31:47.281250,53.58,64.68
205290,2018-06-29 10:31:47.312500,45.48,64.68
205291,2018-06-29 10:31:47.343750,32.5,64.68
205292,2018-06-29 10:31:47.375000,12.71,64.68
205293,2018-06-29 10:31:47.406250,-13.77,64.68
205294,2018-06-29 10:31:47.437500,-42.98,64.68
205295,2018-06-29 10:31:47.468750,-68.54,64.68
205296,2018-06-29 10:31:47.500000,-85.11,64.68
205297,2018-06-29 10:31:47.531250,-91.99,64.65
205298,2018-06-29 10:31:47.562500,-92.28,64.65
205299,2018-06-29 10:31:47.593750,-87.58,64.65
205300,2018-06-29 10:31:47.625000,-74.84,64.65
205301,2018-06-29 10:31:47.656250,-50.87,64.65
205302,2018-06-29 10:31:47.687500,-19.42,64.65
205303,2018-06-29 10:31:47.718750,9.83,64.65
205304,2018-06-29 10:31:47.750000,30.12,64.65
205305,2018-06-29 10:31:47.781250,41.32,64.65
205306,2018-06-29 10:31:47.812500,45.66,64.65
205307,2018-06-29 10:31:47.843750,44.82,64.65
205308,2018-06-29 10:31:47.875000,40.84,64.65
205309,2018-06-29 10:31:47.906250,35.74,64.65
205310,2018-06-29 10:31:47.937500,30.54,64.65
205311,2018-06-29 10:31:47.968750,26.01,64.65
205312,2018-06-29 10:31:48.000000,22.86,64.65
205313,2018-06-29 10:31:48.031250,20.93,64.65
205314,2018-06-29 10:31:48.062500,19.15,64.65
205315,2018-06-29 10:31:48.093750,16.53,64.65
205316,2018-06-29 10:31:48.125000,12.22,64.65
205317,2018-06-29 10:31:48.156250,3.64,64.65
205318,2018-06-29 10:31:48.187500,-11.86,64.65
205319,2018-06-29 10:31:48.218750,-33.02,64.65
205320,2018-06-29 10:31:48.250000,-56.65,64.65
205321,2018-06-29 10:31:48.281250,-82.4,64.65
205322,2018-06-29 10:31:48.312500,-110.88,64.65
205323,2018-06-29 10:31:48.343750,-138.43,64.65
205324,2018-06-29 10:31:48.375000,-158.44,64.65
205325,2018-06-29 10:31:48.406250,-167.0,64.65
205326,2018-06-29 10:31:48.437500,-166.54,64.65
205327,2018-06-29 10:31:48.468750,-162.81,64.65
205328,2018-06-29 10:31:48.500000,-157.62,64.65
205329,2018-06-29 10:31:48.531250,-145.98,64.67
205330,2018-06-29 10:31:48.562500,-120.57,64.67
205331,2018-06-29 10:31:48.593750,-79.4,64.67
205332,2018-06-29 10:31:48.625000,-28.98,64.67
205333,2018-06-29 10:31:48.656250,21.98,64.67
205334,2018-06-29 10:31:48.687500,72.36,64.67
205335,2018-06-29 10:31:48.718750,122.86,64.67
205336,2018-06-29 10:31:48.750000,162.26,64.67
205337,2018-06-29 10:31:48.781250,175.58,64.67
205338,2018-06-29 10:31:48.812500,166.85,64.67
205339,2018-06-29 10:31:48.843750,156.43,64.67
205340,2018-06-29 10:31:48.875000,156.18,64.67
205341,2018-06-29 10:31:48.906250,162.73,64.67
205342,2018-06-29 10:31:48.937500,171.46,64.67
205343,2018-06-29 10:31:48.968750,180.31,64.67
205344,2018-06-29 10:31:49.000000,183.55,64.67
205345,2018-06-29 10:31:49.031250,174.46,64.67
205346,2018-06-29 10:31:49.062500,153.36,64.67
205347,2018-06-29 10:31:49.093750,126.19,64.67
205348,2018-06-29 10:31:49.125000,97.67,64.67
205349,2018-06-29 10:31:49.156250,68.56,64.67
205350,2018-06-29 10:31:49.187500,38.26,64.67
205351,2018-06-29 10:31:49.218750,8.18,64.67
205352,2018-06-29 10:31:49.250000,-19.14,64.67
205353,2018-06-29 10:31:49.281250,-43.05,64.67
205354,2018-06-29 10:31:49.312500,-64.69,64.67
205355,2018-06-29 10:31:49.343750,-85.78,64.67
205356,2018-06-29 10:31:49.375000,-107.27,64.67
205357,2018-06-29 10:31:49.406250,-124.87,64.67
205358,2018-06-29 10:31:49.437500,-130.64,64.67
205359,2018-06-29 10:31:49.468750,-122.09,64.67
205360,2018-06-29 10:31:49.500000,-101.51,64.67
205361,2018-06-29 10:31:49.531250,-67.1,64.67
205362,2018-06-29 10:31:49.562500,-18.12,64.67
205363,2018-06-29 10:31:49.593750,35.52,64.67
205364,2018-06-29 10:31:49.625000,81.99,64.67
205365,2018-06-29 10:31:49.656250,119.11,64.67
205366,2018-06-29 10:31:49.687500,148.89,64.67
205367,2018-06-29 10:31:49.718750,169.24,64.67
205368,2018-06-29 10:31:49.750000,177.84,64.67
205369,2018-06-29 10:31:49.781250,178.42,64.67
205370,2018-06-29 10:31:49.812500,174.72,64.67
205371,2018-06-29 10:31:49.843750,159.3,64.67
205372,2018-06-29 10:31:49.875000,119.53,64.67
205373,2018-06-29 10:31:49.906250,57.49,64.67
205374,2018-06-29 10:31:49.937500,-9.37,64.67
205375,2018-06-29 10:31:49.968750,-66.43,64.67
205376,2018-06-29 10:31:50.000000,-107.53,64.67
205377,2018-06-29 10:31:50.031250,-130.84,64.67
205378,2018-06-29 10:31:50.062500,-142.85,64.67
205379,2018-06-29 10:31:50.093750,-158.18,64.67
205380,2018-06-29 10:31:50.125000,-185.68,64.67
205381,2018-06-29 10:31:50.156250,-217.74,64.67
205382,2018-06-29 10:31:50.187500,-233.28,64.67
205383,2018-06-29 10:31:50.218750,-212.58,64.67
205384,2018-06-29 10:31:50.250000,-155.86,64.67
205385,2018-06-29 10:31:50.281250,-85.6,64.67
205386,2018-06-29 10:31:50.312500,-26.14,64.67
205387,2018-06-29 10:31:50.343750,14.29,64.67
205388,2018-06-29 10:31:50.375000,41.46,64.67
205389,2018-06-29 10:31:50.406250,61.43,64.67
205390,2018-06-29 10:31:50.437500,68.23,64.67
205391,2018-06-29 10:31:50.468750,45.34,64.67
205392,2018-06-29 10:31:50.500000,-10.87,64.67
205393,2018-06-29 10:31:50.531250,-74.05,64.7
205394,2018-06-29 10:31:50.562500,-109.06,64.7
205395,2018-06-29 10:31:50.593750,-104.86,64.7
205396,2018-06-29 10:31:50.625000,-75.92,64.7
205397,2018-06-29 10:31:50.656250,-41.34,64.7
205398,2018-06-29 10:31:50.687500,-13.62,64.7
205399,2018-06-29 10:31:50.718750,1.59,64.7
205400,2018-06-29 10:31:50.750000,6.01,64.7
205401,2018-06-29 10:31:50.781250,6.25,64.7
205402,2018-06-29 10:31:50.812500,7.0,64.7
205403,2018-06-29 10:31:50.843750,7.86,64.7
205404,2018-06-29 10:31:50.875000,8.06,64.7
205405,2018-06-29 10:31:50.906250,10.15,64.7
205406,2018-06-29 10:31:50.937500,16.46,64.7
205407,2018-06-29 10:31:50.968750,24.85,64.7
205408,2018-06-29 10:31:51.000000,30.47,64.7
205409,2018-06-29 10:31:51.031250,30.28,64.7
205410,2018-06-29 10:31:51.062500,24.8,64.7
205411,2018-06-29 10:31:51.093750,16.48,64.7
205412,2018-06-29 10:31:51.125000,7.09,64.7
205413,2018-06-29 10:31:51.156250,-2.81,64.7
205414,2018-06-29 10:31:51.187500,-12.3,64.7
205415,2018-06-29 10:31:51.218750,-18.68,64.7
205416,2018-06-29 10:31:51.250000,-20.21,64.7
205417,2018-06-29 10:31:51.281250,-20.18,64.7
205418,2018-06-29 10:31:51.312500,-24.01,64.7
205419,2018-06-29 10:31:51.343750,-32.27,64.7
205420,2018-06-29 10:31:51.375000,-41.64,64.7
205421,2018-06-29 10:31:51.406250,-51.99,64.7
205422,2018-06-29 10:31:51.437500,-66.36,64.7
205423,2018-06-29 10:31:51.468750,-84.58,64.7
205424,2018-06-29 10:31:51.500000,-99.81,64.7
205425,2018-06-29 10:31:51.531250,-100.89,64.7
205426,2018-06-29 10:31:51.562500,-81.11,64.7
205427,2018-06-29 10:31:51.593750,-46.65,64.7
205428,2018-06-29 10:31:51.625000,-11.75,64.7
205429,2018-06-29 10:31:51.656250,14.33,64.7
205430,2018-06-29 10:31:51.687500,31.18,64.7
205431,2018-06-29 10:31:51.718750,41.27,64.7
205432,2018-06-29 10:31:51.750000,45.86,64.7
205433,2018-06-29 10:31:51.781250,46.21,64.7
205434,2018-06-29 10:31:51.812500,44.89,64.7
205435,2018-06-29 10:31:51.843750,44.5,64.7
205436,2018-06-29 10:31:51.875000,45.64,64.7
205437,2018-06-29 10:31:51.906250,47.39,64.7
205438,2018-06-29 10:31:51.937500,48.81,64.7
205439,2018-06-29 10:31:51.968750,48.7,64.7
205440,2018-06-29 10:31:52.000000,45.28,64.7
205441,2018-06-29 10:31:52.031250,37.86,64.7
205442,2018-06-29 10:31:52.062500,28.41,64.7
205443,2018-06-29 10:31:52.093750,19.61,64.7
205444,2018-06-29 10:31:52.125000,11.73,64.7
205445,2018-06-29 10:31:52.156250,2.82,64.7
205446,2018-06-29 10:31:52.187500,-7.86,64.7
205447,2018-06-29 10:31:52.218750,-18.52,64.7
205448,2018-06-29 10:31:52.250000,-27.51,64.7
205449,2018-06-29 10:31:52.281250,-35.57,64.7
205450,2018-06-29 10:31:52.312500,-45.36,64.7
205451,2018-06-29 10:31:52.343750,-59.65,64.7
205452,2018-06-29 10:31:52.375000,-78.05,64.7
205453,2018-06-29 10:31:52.406250,-94.73,64.7
205454,2018-06-29 10:31:52.437500,-103.58,64.7
205455,2018-06-29 10:31:52.468750,-105.01,64.7
205456,2018-06-29 10:31:52.500000,-102.46,64.7
205457,2018-06-29 10:31:52.531250,-96.01,64.68
205458,2018-06-29 10:31:52.562500,-83.32,64.68
205459,2018-06-29 10:31:52.593750,-60.74,64.68
205460,2018-06-29 10:31:52.625000,-23.62,64.68
205461,2018-06-29 10:31:52.656250,27.87,64.68
205462,2018-06-29 10:31:52.687500,84.82,64.68
205463,2018-06-29 10:31:52.718750,135.06,64.68
205464,2018-06-29 10:31:52.750000,169.41,64.68
205465,2018-06-29 10:31:52.781250,185.99,64.68
205466,2018-06-29 10:31:52.812500,192.05,64.68
205467,2018-06-29 10:31:52.843750,194.9,64.68
205468,2018-06-29 10:31:52.875000,189.18,64.68
205469,2018-06-29 10:31:52.906250,161.44,64.68
205470,2018-06-29 10:31:52.937500,107.95,64.68
205471,2018-06-29 10:31:52.968750,40.26,64.68
205472,2018-06-29 10:31:53.000000,-28.13,64.68
205473,2018-06-29 10:31:53.031250,-93.65,64.68
205474,2018-06-29 10:31:53.062500,-156.99,64.68
205475,2018-06-29 10:31:53.093750,-212.61,64.68
205476,2018-06-29 10:31:53.125000,-252.86,64.68
205477,2018-06-29 10:31:53.156250,-275.8,64.68
205478,2018-06-29 10:31:53.187500,-280.74,64.68
205479,2018-06-29 10:31:53.218750,-263.39,64.68
205480,2018-06-29 10:31:53.250000,-219.42,64.68
205481,2018-06-29 10:31:53.281250,-146.66,64.68
205482,2018-06-29 10:31:53.312500,-49.59,64.68
205483,2018-06-29 10:31:53.343750,49.79,64.68
205484,2018-06-29 10:31:53.375000,119.61,64.68
205485,2018-06-29 10:31:53.406250,148.55,64.68
205486,2018-06-29 10:31:53.437500,155.56,64.68
205487,2018-06-29 10:31:53.468750,162.57,64.68
205488,2018-06-29 10:31:53.500000,170.89,64.68
205489,2018-06-29 10:31:53.531250,171.14,64.65
205490,2018-06-29 10:31:53.562500,163.83,64.65
205491,2018-06-29 10:31:53.593750,158.7,64.65
205492,2018-06-29 10:31:53.625000,160.74,64.65
205493,2018-06-29 10:31:53.656250,165.91,64.65
205494,2018-06-29 10:31:53.687500,166.06,64.65
205495,2018-06-29 10:31:53.718750,152.57,64.65
205496,2018-06-29 10:31:53.750000,123.33,64.65
205497,2018-06-29 10:31:53.781250,89.41,64.65
205498,2018-06-29 10:31:53.812500,66.34,64.65
205499,2018-06-29 10:31:53.843750,58.3,64.65
205500,2018-06-29 10:31:53.875000,57.19,64.65
205501,2018-06-29 10:31:53.906250,54.83,64.65
205502,2018-06-29 10:31:53.937500,49.16,64.65
205503,2018-06-29 10:31:53.968750,40.69,64.65
205504,2018-06-29 10:31:54.000000,29.57,64.65
205505,2018-06-29 10:31:54.031250,16.62,64.65
205506,2018-06-29 10:31:54.062500,2.99,64.65
205507,2018-06-29 10:31:54.093750,-9.87,64.65
205508,2018-06-29 10:31:54.125000,-17.5,64.65
205509,2018-06-29 10:31:54.156250,-14.63,64.65
205510,2018-06-29 10:31:54.187500,-2.02,64.65
205511,2018-06-29 10:31:54.218750,14.13,64.65
205512,2018-06-29 10:31:54.250000,30.03,64.65
205513,2018-06-29 10:31:54.281250,45.11,64.65
205514,2018-06-29 10:31:54.312500,55.91,64.65
205515,2018-06-29 10:31:54.343750,57.07,64.65
205516,2018-06-29 10:31:54.375000,47.72,64.65
205517,2018-06-29 10:31:54.406250,30.95,64.65
205518,2018-06-29 10:31:54.437500,9.18,64.65
205519,2018-06-29 10:31:54.468750,-14.52,64.65
205520,2018-06-29 10:31:54.500000,-33.94,64.65
205521,2018-06-29 10:31:54.531250,-44.42,64.63
205522,2018-06-29 10:31:54.562500,-48.23,64.63
205523,2018-06-29 10:31:54.593750,-51.13,64.63
205524,2018-06-29 10:31:54.625000,-55.8,64.63
205525,2018-06-29 10:31:54.656250,-61.58,64.63
205526,2018-06-29 10:31:54.687500,-68.47,64.63
205527,2018-06-29 10:31:54.718750,-77.54,64.63
205528,2018-06-29 10:31:54.750000,-87.8,64.63
205529,2018-06-29 10:31:54.781250,-96.72,64.63
205530,2018-06-29 10:31:54.812500,-103.95,64.63
205531,2018-06-29 10:31:54.843750,-112.19,64.63
205532,2018-06-29 10:31:54.875000,-123.24,64.63
205533,2018-06-29 10:31:54.906250,-131.89,64.63
205534,2018-06-29 10:31:54.937500,-124.89,64.63
205535,2018-06-29 10:31:54.968750,-92.99,64.63
205536,2018-06-29 10:31:55.000000,-45.44,64.63
205537,2018-06-29 10:31:55.031250,-3.11,64.63
205538,2018-06-29 10:31:55.062500,23.53,64.63
205539,2018-06-29 10:31:55.093750,39.79,64.63
205540,2018-06-29 10:31:55.125000,52.47,64.63
205541,2018-06-29 10:31:55.156250,61.25,64.63
205542,2018-06-29 10:31:55.187500,64.09,64.63
205543,2018-06-29 10:31:55.218750,62.95,64.63
205544,2018-06-29 10:31:55.250000,63.11,64.63
205545,2018-06-29 10:31:55.281250,68.89,64.63
205546,2018-06-29 10:31:55.312500,80.62,64.63
205547,2018-06-29 10:31:55.343750,95.89,64.63
205548,2018-06-29 10:31:55.375000,112.24,64.63
205549,2018-06-29 10:31:55.406250,126.44,64.63
205550,2018-06-29 10:31:55.437500,132.2,64.63
205551,2018-06-29 10:31:55.468750,121.47,64.63
205552,2018-06-29 10:31:55.500000,88.28,64.63
205553,2018-06-29 10:31:55.531250,31.42,64.67
205554,2018-06-29 10:31:55.562500,-43.62,64.67
205555,2018-06-29 10:31:55.593750,-124.92,64.67
205556,2018-06-29 10:31:55.625000,-199.03,64.67
205557,2018-06-29 10:31:55.656250,-255.46,64.67
205558,2018-06-29 10:31:55.687500,-285.14,64.67
205559,2018-06-29 10:31:55.718750,-280.24,64.67
205560,2018-06-29 10:31:55.750000,-241.67,64.67
205561,2018-06-29 10:31:55.781250,-182.79,64.67
205562,2018-06-29 10:31:55.812500,-120.47,64.67
205563,2018-06-29 10:31:55.843750,-64.34,64.67
205564,2018-06-29 10:31:55.875000,-16.95,64.67
205565,2018-06-29 10:31:55.906250,19.37,64.67
205566,2018-06-29 10:31:55.937500,40.97,64.67
205567,2018-06-29 10:31:55.968750,47.89,64.67
205568,2018-06-29 10:31:56.000000,46.09,64.67
205569,2018-06-29 10:31:56.031250,43.21,64.67
205570,2018-06-29 10:31:56.062500,43.88,64.67
205571,2018-06-29 10:31:56.093750,49.71,64.67
205572,2018-06-29 10:31:56.125000,60.95,64.67
205573,2018-06-29 10:31:56.156250,76.56,64.67
205574,2018-06-29 10:31:56.187500,93.54,64.67
205575,2018-06-29 10:31:56.218750,106.19,64.67
205576,2018-06-29 10:31:56.250000,104.42,64.67
205577,2018-06-29 10:31:56.281250,76.55,64.67
205578,2018-06-29 10:31:56.312500,20.11,64.67
205579,2018-06-29 10:31:56.343750,-49.35,64.67
205580,2018-06-29 10:31:56.375000,-104.06,64.67
205581,2018-06-29 10:31:56.406250,-122.36,64.67
205582,2018-06-29 10:31:56.437500,-104.22,64.67
205583,2018-06-29 10:31:56.468750,-70.09,64.67
205584,2018-06-29 10:31:56.500000,-45.2,64.67
205585,2018-06-29 10:31:56.531250,-41.81,64.7
205586,2018-06-29 10:31:56.562500,-49.37,64.7
205587,2018-06-29 10:31:56.593750,-44.24,64.7
205588,2018-06-29 10:31:56.625000,-15.55,64.7
205589,2018-06-29 10:31:56.656250,23.94,64.7
205590,2018-06-29 10:31:56.687500,55.96,64.7
205591,2018-06-29 10:31:56.718750,74.88,64.7
205592,2018-06-29 10:31:56.750000,83.97,64.7
205593,2018-06-29 10:31:56.781250,86.66,64.7
205594,2018-06-29 10:31:56.812500,85.82,64.7
205595,2018-06-29 10:31:56.843750,84.13,64.7
205596,2018-06-29 10:31:56.875000,81.18,64.7
205597,2018-06-29 10:31:56.906250,73.28,64.7
205598,2018-06-29 10:31:56.937500,60.18,64.7
205599,2018-06-29 10:31:56.968750,47.92,64.7
205600,2018-06-29 10:31:57.000000,38.39,64.7
205601,2018-06-29 10:31:57.031250,24.54,64.7
205602,2018-06-29 10:31:57.062500,7.52,64.7
205603,2018-06-29 10:31:57.093750,6.43,64.7
205604,2018-06-29 10:31:57.125000,34.35,64.7
205605,2018-06-29 10:31:57.156250,78.28,64.7
205606,2018-06-29 10:31:57.187500,115.22,64.7
205607,2018-06-29 10:31:57.218750,132.07,64.7
205608,2018-06-29 10:31:57.250000,123.59,64.7
205609,2018-06-29 10:31:57.281250,90.59,64.7
205610,2018-06-29 10:31:57.312500,44.71,64.7
205611,2018-06-29 10:31:57.343750,0.54,64.7
205612,2018-06-29 10:31:57.375000,-36.97,64.7
205613,2018-06-29 10:31:57.406250,-70.09,64.7
205614,2018-06-29 10:31:57.437500,-100.37,64.7
205615,2018-06-29 10:31:57.468750,-127.89,64.7
205616,2018-06-29 10:31:57.500000,-149.33,64.7
205617,2018-06-29 10:31:57.531250,-154.26,64.75
205618,2018-06-29 10:31:57.562500,-134.49,64.75
205619,2018-06-29 10:31:57.593750,-98.76,64.75
205620,2018-06-29 10:31:57.625000,-66.47,64.75
205621,2018-06-29 10:31:57.656250,-46.72,64.75
205622,2018-06-29 10:31:57.687500,-34.47,64.75
205623,2018-06-29 10:31:57.718750,-25.11,64.75
205624,2018-06-29 10:31:57.750000,-20.76,64.75
205625,2018-06-29 10:31:57.781250,-22.44,64.75
205626,2018-06-29 10:31:57.812500,-24.98,64.75
205627,2018-06-29 10:31:57.843750,-21.71,64.75
205628,2018-06-29 10:31:57.875000,-12.66,64.75
205629,2018-06-29 10:31:57.906250,-7.6,64.75
205630,2018-06-29 10:31:57.937500,-17.68,64.75
205631,2018-06-29 10:31:57.968750,-40.94,64.75
205632,2018-06-29 10:31:58.000000,-62.05,64.75
205633,2018-06-29 10:31:58.031250,-75.15,64.75
205634,2018-06-29 10:31:58.062500,-93.83,64.75
205635,2018-06-29 10:31:58.093750,-122.31,64.75
205636,2018-06-29 10:31:58.125000,-134.51,64.75
205637,2018-06-29 10:31:58.156250,-102.01,64.75
205638,2018-06-29 10:31:58.187500,-27.01,64.75
205639,2018-06-29 10:31:58.218750,66.7,64.75
205640,2018-06-29 10:31:58.250000,156.27,64.75
205641,2018-06-29 10:31:58.281250,223.71,64.75
205642,2018-06-29 10:31:58.312500,257.19,64.75
205643,2018-06-29 10:31:58.343750,254.55,64.75
205644,2018-06-29 10:31:58.375000,215.5,64.75
205645,2018-06-29 10:31:58.406250,134.39,64.75
205646,2018-06-29 10:31:58.437500,15.83,64.75
205647,2018-06-29 10:31:58.468750,-106.2,64.75
205648,2018-06-29 10:31:58.500000,-184.51,64.75
205649,2018-06-29 10:31:58.531250,-198.45,64.83
205650,2018-06-29 10:31:58.562500,-165.94,64.83
205651,2018-06-29 10:31:58.593750,-115.78,64.83
205652,2018-06-29 10:31:58.625000,-64.62,64.83
205653,2018-06-29 10:31:58.656250,-20.02,64.83
205654,2018-06-29 10:31:58.687500,14.1,64.83
205655,2018-06-29 10:31:58.718750,39.38,64.83
205656,2018-06-29 10:31:58.750000,59.99,64.83
205657,2018-06-29 10:31:58.781250,77.33,64.83
205658,2018-06-29 10:31:58.812500,91.96,64.83
205659,2018-06-29 10:31:58.843750,106.95,64.83
205660,2018-06-29 10:31:58.875000,123.87,64.83
205661,2018-06-29 10:31:58.906250,138.87,64.83
205662,2018-06-29 10:31:58.937500,145.57,64.83
205663,2018-06-29 10:31:58.968750,141.12,64.83
205664,2018-06-29 10:31:59.000000,127.45,64.83
205665,2018-06-29 10:31:59.031250,106.69,64.83
205666,2018-06-29 10:31:59.062500,79.2,64.83
205667,2018-06-29 10:31:59.093750,47.05,64.83
205668,2018-06-29 10:31:59.125000,15.52,64.83
205669,2018-06-29 10:31:59.156250,-10.52,64.83
205670,2018-06-29 10:31:59.187500,-29.49,64.83
205671,2018-06-29 10:31:59.218750,-43.03,64.83
205672,2018-06-29 10:31:59.250000,-54.94,64.83
205673,2018-06-29 10:31:59.281250,-67.99,64.83
205674,2018-06-29 10:31:59.312500,-80.56,64.83
205675,2018-06-29 10:31:59.343750,-88.59,64.83
205676,2018-06-29 10:31:59.375000,-90.6,64.83
205677,2018-06-29 10:31:59.406250,-90.02,64.83
205678,2018-06-29 10:31:59.437500,-91.85,64.83
205679,2018-06-29 10:31:59.468750,-94.53,64.83
205680,2018-06-29 10:31:59.500000,-87.55,64.83
205681,2018-06-29 10:31:59.531250,-63.62,64.93
205682,2018-06-29 10:31:59.562500,-29.45,64.93
205683,2018-06-29 10:31:59.593750,2.25,64.93
205684,2018-06-29 10:31:59.625000,25.94,64.93
205685,2018-06-29 10:31:59.656250,42.98,64.93
205686,2018-06-29 10:31:59.687500,54.66,64.93
205687,2018-06-29 10:31:59.718750,61.08,64.93
205688,2018-06-29 10:31:59.750000,63.32,64.93
205689,2018-06-29 10:31:59.781250,63.61,64.93
205690,2018-06-29 10:31:59.812500,64.02,64.93
205691,2018-06-29 10:31:59.843750,64.95,64.93
205692,2018-06-29 10:31:59.875000,65.35,64.93
205693,2018-06-29 10:31:59.906250,64.19,64.93
205694,2018-06-29 10:31:59.937500,60.79,64.93
205695,2018-06-29 10:31:59.968750,54.75,64.93
205696,2018-06-29 10:32:00.000000,46.96,64.93
205697,2018-06-29 10:32:00.031250,39.67,64.93
205698,2018-06-29 10:32:00.062500,33.88,64.93
205699,2018-06-29 10:32:00.093750,28.56,64.93
205700,2018-06-29 10:32:00.125000,22.79,64.93
205701,2018-06-29 10:32:00.156250,16.45,64.93
205702,2018-06-29 10:32:00.187500,9.4,64.93
205703,2018-06-29 10:32:00.218750,1.8,64.93
205704,2018-06-29 10:32:00.250000,-5.94,64.93
205705,2018-06-29 10:32:00.281250,-14.25,64.93
205706,2018-06-29 10:32:00.312500,-23.89,64.93
205707,2018-06-29 10:32:00.343750,-34.61,64.93
205708,2018-06-29 10:32:00.375000,-45.31,64.93
205709,2018-06-29 10:32:00.406250,-55.42,64.93
205710,2018-06-29 10:32:00.437500,-65.16,64.93
205711,2018-06-29 10:32:00.468750,-75.13,64.93
205712,2018-06-29 10:32:00.500000,-86.4,64.93
205713,2018-06-29 10:32:00.531250,-97.62,65.02
205714,2018-06-29 10:32:00.562500,-100.81,65.02
205715,2018-06-29 10:32:00.593750,-86.92,65.02
205716,2018-06-29 10:32:00.625000,-57.57,65.02
205717,2018-06-29 10:32:00.656250,-25.11,65.02
205718,2018-06-29 10:32:00.687500,0.47,65.02
205719,2018-06-29 10:32:00.718750,18.23,65.02
205720,2018-06-29 10:32:00.750000,31.0,65.02
205721,2018-06-29 10:32:00.781250,39.8,65.02
205722,2018-06-29 10:32:00.812500,44.26,65.02
205723,2018-06-29 10:32:00.843750,44.92,65.02
205724,2018-06-29 10:32:00.875000,43.46,65.02
205725,2018-06-29 10:32:00.906250,40.93,65.02
205726,2018-06-29 10:32:00.937500,36.58,65.02
205727,2018-06-29 10:32:00.968750,27.93,65.02
205728,2018-06-29 10:32:01.000000,11.37,65.02
205729,2018-06-29 10:32:01.031250,-15.79,65.02
205730,2018-06-29 10:32:01.062500,-51.51,65.02
205731,2018-06-29 10:32:01.093750,-87.96,65.02
205732,2018-06-29 10:32:01.125000,-117.12,65.02
205733,2018-06-29 10:32:01.156250,-134.54,65.02
205734,2018-06-29 10:32:01.187500,-134.74,65.02
205735,2018-06-29 10:32:01.218750,-110.81,65.02
205736,2018-06-29 10:32:01.250000,-63.58,65.02
205737,2018-06-29 10:32:01.281250,-4.49,65.02
205738,2018-06-29 10:32:01.312500,52.71,65.02
205739,2018-06-29 10:32:01.343750,98.13,65.02
205740,2018-06-29 10:32:01.375000,126.06,65.02
205741,2018-06-29 10:32:01.406250,135.29,65.02
205742,2018-06-29 10:32:01.437500,128.7,65.02
205743,2018-06-29 10:32:01.468750,110.78,65.02
205744,2018-06-29 10:32:01.500000,84.91,65.02
205745,2018-06-29 10:32:01.531250,52.62,65.08
205746,2018-06-29 10:32:01.562500,17.68,65.08
205747,2018-06-29 10:32:01.593750,-9.59,65.08
205748,2018-06-29 10:32:01.625000,-18.49,65.08
205749,2018-06-29 10:32:01.656250,-9.55,65.08
205750,2018-06-29 10:32:01.687500,6.3,65.08
205751,2018-06-29 10:32:01.718750,20.1,65.08
205752,2018-06-29 10:32:01.750000,29.41,65.08
205753,2018-06-29 10:32:01.781250,32.77,65.08
205754,2018-06-29 10:32:01.812500,27.45,65.08
205755,2018-06-29 10:32:01.843750,12.49,65.08
205756,2018-06-29 10:32:01.875000,-9.3,65.08
205757,2018-06-29 10:32:01.906250,-32.92,65.08
205758,2018-06-29 10:32:01.937500,-52.2,65.08
205759,2018-06-29 10:32:01.968750,-61.35,65.08
205760,2018-06-29 10:32:02.000000,-56.35,65.08
205761,2018-06-29 10:32:02.031250,-36.29,65.08
205762,2018-06-29 10:32:02.062500,-3.33,65.08
205763,2018-06-29 10:32:02.093750,37.47,65.08
205764,2018-06-29 10:32:02.125000,76.27,65.08
205765,2018-06-29 10:32:02.156250,101.88,65.08
205766,2018-06-29 10:32:02.187500,106.13,65.08
205767,2018-06-29 10:32:02.218750,92.27,65.08
205768,2018-06-29 10:32:02.250000,68.68,65.08
205769,2018-06-29 10:32:02.281250,42.55,65.08
205770,2018-06-29 10:32:02.312500,15.35,65.08
205771,2018-06-29 10:32:02.343750,-13.61,65.08
205772,2018-06-29 10:32:02.375000,-39.29,65.08
205773,2018-06-29 10:32:02.406250,-59.85,65.08
205774,2018-06-29 10:32:02.437500,-76.0,65.08
205775,2018-06-29 10:32:02.468750,-96.42,65.08
205776,2018-06-29 10:32:02.500000,-119.87,65.08
205777,2018-06-29 10:32:02.531250,-142.52,65.18
205778,2018-06-29 10:32:02.562500,-165.27,65.18
205779,2018-06-29 10:32:02.593750,-190.95,65.18
205780,2018-06-29 10:32:02.625000,-218.56,65.18
205781,2018-06-29 10:32:02.656250,-238.12,65.18
205782,2018-06-29 10:32:02.687500,-254.45,65.18
205783,2018-06-29 10:32:02.718750,-216.84,65.18
205784,2018-06-29 10:32:02.750000,-101.26,65.18
205785,2018-06-29 10:32:02.781250,11.99,65.18
205786,2018-06-29 10:32:02.812500,102.71,65.18
205787,2018-06-29 10:32:02.843750,175.84,65.18
205788,2018-06-29 10:32:02.875000,231.71,65.18
205789,2018-06-29 10:32:02.906250,272.04,65.18
205790,2018-06-29 10:32:02.937500,314.7,65.18
205791,2018-06-29 10:32:02.968750,361.99,65.18
205792,2018-06-29 10:32:03.000000,365.17,65.18
205793,2018-06-29 10:32:03.031250,305.31,65.18
205794,2018-06-29 10:32:03.062500,211.07,65.18
205795,2018-06-29 10:32:03.093750,125.39,65.18
205796,2018-06-29 10:32:03.125000,61.25,65.18
205797,2018-06-29 10:32:03.156250,10.64,65.18
205798,2018-06-29 10:32:03.187500,-27.52,65.18
205799,2018-06-29 10:32:03.218750,-48.88,65.18
205800,2018-06-29 10:32:03.250000,-61.69,65.18
205801,2018-06-29 10:32:03.281250,-95.98,65.18
205802,2018-06-29 10:32:03.312500,-153.07,65.18
205803,2018-06-29 10:32:03.343750,-219.55,65.18
205804,2018-06-29 10:32:03.375000,-282.0,65.18
205805,2018-06-29 10:32:03.406250,-345.39,65.18
205806,2018-06-29 10:32:03.437500,-406.77,65.18
205807,2018-06-29 10:32:03.468750,-444.99,65.18
205808,2018-06-29 10:32:03.500000,-471.07,65.18
205809,2018-06-29 10:32:03.531250,-407.41,65.28
205810,2018-06-29 10:32:03.562500,-212.46,65.28
205811,2018-06-29 10:32:03.593750,-10.79,65.28
205812,2018-06-29 10:32:03.625000,129.8,65.28
205813,2018-06-29 10:32:03.656250,210.6,65.28
205814,2018-06-29 10:32:03.687500,248.19,65.28
205815,2018-06-29 10:32:03.718750,249.53,65.28
205816,2018-06-29 10:32:03.750000,238.36,65.28
205817,2018-06-29 10:32:03.781250,233.66,65.28
205818,2018-06-29 10:32:03.812500,231.61,65.28
205819,2018-06-29 10:32:03.843750,206.94,65.28
205820,2018-06-29 10:32:03.875000,164.96,65.28
205821,2018-06-29 10:32:03.906250,126.31,65.28
205822,2018-06-29 10:32:03.937500,100.24,65.28
205823,2018-06-29 10:32:03.968750,77.78,65.28
205824,2018-06-29 10:32:04.000000,48.19,65.28
205825,2018-06-29 10:32:04.031250,18.71,65.28
205826,2018-06-29 10:32:04.062500,-5.1,65.28
205827,2018-06-29 10:32:04.093750,-24.34,65.28
205828,2018-06-29 10:32:04.125000,-45.42,65.28
205829,2018-06-29 10:32:04.156250,-68.56,65.28
205830,2018-06-29 10:32:04.187500,-89.37,65.28
205831,2018-06-29 10:32:04.218750,-101.36,65.28
205832,2018-06-29 10:32:04.250000,-97.74,65.28
205833,2018-06-29 10:32:04.281250,-79.36,65.28
205834,2018-06-29 10:32:04.312500,-54.68,65.28
205835,2018-06-29 10:32:04.343750,-32.93,65.28
205836,2018-06-29 10:32:04.375000,-16.57,65.28
205837,2018-06-29 10:32:04.406250,-3.39,65.28
205838,2018-06-29 10:32:04.437500,7.34,65.28
205839,2018-06-29 10:32:04.468750,15.07,65.28
205840,2018-06-29 10:32:04.500000,20.64,65.28
205841,2018-06-29 10:32:04.531250,25.94,65.38
205842,2018-06-29 10:32:04.562500,31.12,65.38
205843,2018-06-29 10:32:04.593750,34.44,65.38
205844,2018-06-29 10:32:04.625000,35.48,65.38
205845,2018-06-29 10:32:04.656250,35.25,65.38
205846,2018-06-29 10:32:04.687500,33.24,65.38
205847,2018-06-29 10:32:04.718750,28.11,65.38
205848,2018-06-29 10:32:04.750000,21.03,65.38
205849,2018-06-29 10:32:04.781250,14.6,65.38
205850,2018-06-29 10:32:04.812500,8.46,65.38
205851,2018-06-29 10:32:04.843750,0.17,65.38
205852,2018-06-29 10:32:04.875000,-10.24,65.38
205853,2018-06-29 10:32:04.906250,-20.04,65.38
205854,2018-06-29 10:32:04.937500,-27.71,65.38
205855,2018-06-29 10:32:04.968750,-34.26,65.38
205856,2018-06-29 10:32:05.000000,-41.76,65.38
205857,2018-06-29 10:32:05.031250,-51.77,65.38
205858,2018-06-29 10:32:05.062500,-61.96,65.38
205859,2018-06-29 10:32:05.093750,-64.09,65.38
205860,2018-06-29 10:32:05.125000,-51.54,65.38
205861,2018-06-29 10:32:05.156250,-28.93,65.38
205862,2018-06-29 10:32:05.187500,-7.44,65.38
205863,2018-06-29 10:32:05.218750,7.78,65.38
205864,2018-06-29 10:32:05.250000,18.96,65.38
205865,2018-06-29 10:32:05.281250,27.75,65.38
205866,2018-06-29 10:32:05.312500,32.96,65.38
205867,2018-06-29 10:32:05.343750,34.39,65.38
205868,2018-06-29 10:32:05.375000,33.98,65.38
205869,2018-06-29 10:32:05.406250,33.49,65.38
205870,2018-06-29 10:32:05.437500,33.7,65.38
205871,2018-06-29 10:32:05.468750,35.0,65.38
205872,2018-06-29 10:32:05.500000,36.96,65.38
205873,2018-06-29 10:32:05.531250,37.52,65.6
205874,2018-06-29 10:32:05.562500,34.84,65.6
205875,2018-06-29 10:32:05.593750,29.5,65.6
205876,2018-06-29 10:32:05.625000,23.25,65.6
205877,2018-06-29 10:32:05.656250,16.93,65.6
205878,2018-06-29 10:32:05.687500,10.76,65.6
205879,2018-06-29 10:32:05.718750,5.07,65.6
205880,2018-06-29 10:32:05.750000,-0.47,65.6
205881,2018-06-29 10:32:05.781250,-6.78,65.6
205882,2018-06-29 10:32:05.812500,-13.95,65.6
205883,2018-06-29 10:32:05.843750,-21.08,65.6
205884,2018-06-29 10:32:05.875000,-27.6,65.6
205885,2018-06-29 10:32:05.906250,-34.47,65.6
205886,2018-06-29 10:32:05.937500,-43.74,65.6
205887,2018-06-29 10:32:05.968750,-54.34,65.6
205888,2018-06-29 10:32:06.000000,-58.5,65.6
205889,2018-06-29 10:32:06.031250,-48.01,65.6
205890,2018-06-29 10:32:06.062500,-25.3,65.6
205891,2018-06-29 10:32:06.093750,-2.17,65.6
205892,2018-06-29 10:32:06.125000,13.52,65.6
205893,2018-06-29 10:32:06.156250,23.4,65.6
205894,2018-06-29 10:32:06.187500,31.21,65.6
205895,2018-06-29 10:32:06.218750,36.92,65.6
205896,2018-06-29 10:32:06.250000,39.36,65.6
205897,2018-06-29 10:32:06.281250,40.01,65.6
205898,2018-06-29 10:32:06.312500,42.15,65.6
205899,2018-06-29 10:32:06.343750,47.17,65.6
205900,2018-06-29 10:32:06.375000,53.61,65.6
205901,2018-06-29 10:32:06.406250,59.91,65.6
205902,2018-06-29 10:32:06.437500,66.19,65.6
205903,2018-06-29 10:32:06.468750,74.0,65.6
205904,2018-06-29 10:32:06.500000,85.44,65.6
205905,2018-06-29 10:32:06.531250,97.9,65.78
205906,2018-06-29 10:32:06.562500,101.61,65.78
205907,2018-06-29 10:32:06.593750,91.79,65.78
205908,2018-06-29 10:32:06.625000,78.08,65.78
205909,2018-06-29 10:32:06.656250,72.62,65.78
205910,2018-06-29 10:32:06.687500,77.16,65.78
205911,2018-06-29 10:32:06.718750,88.81,65.78
205912,2018-06-29 10:32:06.750000,105.61,65.78
205913,2018-06-29 10:32:06.781250,120.22,65.78
205914,2018-06-29 10:32:06.812500,118.76,65.78
205915,2018-06-29 10:32:06.843750,90.5,65.78
205916,2018-06-29 10:32:06.875000,36.17,65.78
205917,2018-06-29 10:32:06.906250,-34.68,65.78
205918,2018-06-29 10:32:06.937500,-110.23,65.78
205919,2018-06-29 10:32:06.968750,-177.03,65.78
205920,2018-06-29 10:32:07.000000,-220.92,65.78
205921,2018-06-29 10:32:07.031250,-235.79,65.78
205922,2018-06-29 10:32:07.062500,-228.53,65.78
205923,2018-06-29 10:32:07.093750,-210.81,65.78
205924,2018-06-29 10:32:07.125000,-189.49,65.78
205925,2018-06-29 10:32:07.156250,-167.29,65.78
205926,2018-06-29 10:32:07.187500,-150.11,65.78
205927,2018-06-29 10:32:07.218750,-148.12,65.78
205928,2018-06-29 10:32:07.250000,-164.61,65.78
205929,2018-06-29 10:32:07.281250,-186.98,65.78
205930,2018-06-29 10:32:07.312500,-196.08,65.78
205931,2018-06-29 10:32:07.343750,-181.45,65.78
205932,2018-06-29 10:32:07.375000,-143.38,65.78
205933,2018-06-29 10:32:07.406250,-86.96,65.78
205934,2018-06-29 10:32:07.437500,-18.73,65.78
205935,2018-06-29 10:32:07.468750,54.5,65.78
205936,2018-06-29 10:32:07.500000,124.92,65.78
205937,2018-06-29 10:32:07.531250,182.22,66.02
205938,2018-06-29 10:32:07.562500,217.09,66.02
205939,2018-06-29 10:32:07.593750,228.43,66.02
205940,2018-06-29 10:32:07.625000,223.04,66.02
205941,2018-06-29 10:32:07.656250,207.33,66.02
205942,2018-06-29 10:32:07.687500,183.36,66.02
205943,2018-06-29 10:32:07.718750,151.19,66.02
205944,2018-06-29 10:32:07.750000,113.75,66.02
205945,2018-06-29 10:32:07.781250,75.66,66.02
205946,2018-06-29 10:32:07.812500,41.71,66.02
205947,2018-06-29 10:32:07.843750,14.71,66.02
205948,2018-06-29 10:32:07.875000,-5.7,66.02
205949,2018-06-29 10:32:07.906250,-20.73,66.02
205950,2018-06-29 10:32:07.937500,-29.91,66.02
205951,2018-06-29 10:32:07.968750,-29.95,66.02
205952,2018-06-29 10:32:08.000000,-21.04,66.02
205953,2018-06-29 10:32:08.031250,-5.23,66.02
205954,2018-06-29 10:32:08.062500,14.08,66.02
205955,2018-06-29 10:32:08.093750,34.1,66.02
205956,2018-06-29 10:32:08.125000,46.93,66.02
205957,2018-06-29 10:32:08.156250,46.12,66.02
205958,2018-06-29 10:32:08.187500,36.54,66.02
205959,2018-06-29 10:32:08.218750,20.13,66.02
205960,2018-06-29 10:32:08.250000,-6.03,66.02
205961,2018-06-29 10:32:08.281250,-51.27,66.02
205962,2018-06-29 10:32:08.312500,-97.96,66.02
205963,2018-06-29 10:32:08.343750,-127.22,66.02
205964,2018-06-29 10:32:08.375000,-138.76,66.02
205965,2018-06-29 10:32:08.406250,-154.57,66.02
205966,2018-06-29 10:32:08.437500,-186.45,66.02
205967,2018-06-29 10:32:08.468750,-212.12,66.02
205968,2018-06-29 10:32:08.500000,-224.26,66.02
205969,2018-06-29 10:32:08.531250,-233.08,66.32
205970,2018-06-29 10:32:08.562500,-271.44,66.32
205971,2018-06-29 10:32:08.593750,-322.99,66.32
205972,2018-06-29 10:32:08.625000,-360.23,66.32
205973,2018-06-29 10:32:08.656250,-343.21,66.32
205974,2018-06-29 10:32:08.687500,-131.05,66.32
205975,2018-06-29 10:32:08.718750,127.34,66.32
205976,2018-06-29 10:32:08.750000,291.09,66.32
205977,2018-06-29 10:32:08.781250,367.12,66.32
205978,2018-06-29 10:32:08.812500,384.2,66.32
205979,2018-06-29 10:32:08.843750,353.26,66.32
205980,2018-06-29 10:32:08.875000,318.53,66.32
205981,2018-06-29 10:32:08.906250,303.79,66.32
205982,2018-06-29 10:32:08.937500,299.09,66.32
205983,2018-06-29 10:32:08.968750,282.9,66.32
205984,2018-06-29 10:32:09.000000,246.25,66.32
205985,2018-06-29 10:32:09.031250,213.22,66.32
205986,2018-06-29 10:32:09.062500,192.5,66.32
205987,2018-06-29 10:32:09.093750,175.66,66.32
205988,2018-06-29 10:32:09.125000,149.78,66.32
205989,2018-06-29 10:32:09.156250,114.23,66.32
205990,2018-06-29 10:32:09.187500,75.5,66.32
205991,2018-06-29 10:32:09.218750,36.61,66.32
205992,2018-06-29 10:32:09.250000,-4.37,66.32
205993,2018-06-29 10:32:09.281250,-52.35,66.32
205994,2018-06-29 10:32:09.312500,-103.18,66.32
205995,2018-06-29 10:32:09.343750,-149.81,66.32
205996,2018-06-29 10:32:09.375000,-177.69,66.32
205997,2018-06-29 10:32:09.406250,-176.06,66.32
205998,2018-06-29 10:32:09.437500,-147.92,66.32
205999,2018-06-29 10:32:09.468750,-110.42,66.32
206000,2018-06-29 10:32:09.500000,-79.95,66.32
206001,2018-06-29 10:32:09.531250,-59.59,66.63
206002,2018-06-29 10:32:09.562500,-45.01,66.63
206003,2018-06-29 10:32:09.593750,-32.93,66.63
206004,2018-06-29 10:32:09.625000,-27.25,66.63
206005,2018-06-29 10:32:09.656250,-35.11,66.63
206006,2018-06-29 10:32:09.687500,-56.43,66.63
206007,2018-06-29 10:32:09.718750,-80.82,66.63
206008,2018-06-29 10:32:09.750000,-96.6,66.63
206009,2018-06-29 10:32:09.781250,-99.8,66.63
206010,2018-06-29 10:32:09.812500,-94.42,66.63
206011,2018-06-29 10:32:09.843750,-88.02,66.63
206012,2018-06-29 10:32:09.875000,-84.7,66.63
206013,2018-06-29 10:32:09.906250,-81.05,66.63
206014,2018-06-29 10:32:09.937500,-72.35,66.63
206015,2018-06-29 10:32:09.968750,-60.62,66.63
206016,2018-06-29 10:32:10.000000,-52.18,66.63
206017,2018-06-29 10:32:10.031250,-49.9,66.63
206018,2018-06-29 10:32:10.062500,-46.66,66.63
206019,2018-06-29 10:32:10.093750,-26.37,66.63
206020,2018-06-29 10:32:10.125000,18.68,66.63
206021,2018-06-29 10:32:10.156250,73.03,66.63
206022,2018-06-29 10:32:10.187500,112.4,66.63
206023,2018-06-29 10:32:10.218750,125.31,66.63
206024,2018-06-29 10:32:10.250000,111.61,66.63
206025,2018-06-29 10:32:10.281250,76.74,66.63
206026,2018-06-29 10:32:10.312500,36.76,66.63
206027,2018-06-29 10:32:10.343750,11.69,66.63
206028,2018-06-29 10:32:10.375000,8.12,66.63
206029,2018-06-29 10:32:10.406250,18.38,66.63
206030,2018-06-29 10:32:10.437500,33.54,66.63
206031,2018-06-29 10:32:10.468750,48.97,66.63
206032,2018-06-29 10:32:10.500000,59.76,66.63
206033,2018-06-29 10:32:10.531250,58.88,66.95
206034,2018-06-29 10:32:10.562500,42.11,66.95
206035,2018-06-29 10:32:10.593750,11.9,66.95
206036,2018-06-29 10:32:10.625000,-24.44,66.95
206037,2018-06-29 10:32:10.656250,-57.73,66.95
206038,2018-06-29 10:32:10.687500,-80.82,66.95
206039,2018-06-29 10:32:10.718750,-93.67,66.95
206040,2018-06-29 10:32:10.750000,-102.26,66.95
206041,2018-06-29 10:32:10.781250,-109.66,66.95
206042,2018-06-29 10:32:10.812500,-111.58,66.95
206043,2018-06-29 10:32:10.843750,-103.23,66.95
206044,2018-06-29 10:32:10.875000,-87.23,66.95
206045,2018-06-29 10:32:10.906250,-71.56,66.95
206046,2018-06-29 10:32:10.937500,-60.72,66.95
206047,2018-06-29 10:32:10.968750,-52.45,66.95
206048,2018-06-29 10:32:11.000000,-42.87,66.95
206049,2018-06-29 10:32:11.031250,-32.48,66.95
206050,2018-06-29 10:32:11.062500,-28.46,66.95
206051,2018-06-29 10:32:11.093750,-38.06,66.95
206052,2018-06-29 10:32:11.125000,-54.1,66.95
206053,2018-06-29 10:32:11.156250,-56.29,66.95
206054,2018-06-29 10:32:11.187500,-38.57,66.95
206055,2018-06-29 10:32:11.218750,-20.89,66.95
206056,2018-06-29 10:32:11.250000,-21.62,66.95
206057,2018-06-29 10:32:11.281250,-36.05,66.95
206058,2018-06-29 10:32:11.312500,-51.05,66.95
206059,2018-06-29 10:32:11.343750,-60.93,66.95
206060,2018-06-29 10:32:11.375000,-62.86,66.95
206061,2018-06-29 10:32:11.406250,-53.52,66.95
206062,2018-06-29 10:32:11.437500,-35.75,66.95
206063,2018-06-29 10:32:11.468750,-18.61,66.95
206064,2018-06-29 10:32:11.500000,-9.13,66.95
206065,2018-06-29 10:32:11.531250,-6.8,67.25
206066,2018-06-29 10:32:11.562500,-6.73,67.25
206067,2018-06-29 10:32:11.593750,-6.75,67.25
206068,2018-06-29 10:32:11.625000,-8.64,67.25
206069,2018-06-29 10:32:11.656250,-12.87,67.25
206070,2018-06-29 10:32:11.687500,-15.63,67.25
206071,2018-06-29 10:32:11.718750,-13.61,67.25
206072,2018-06-29 10:32:11.750000,-8.9,67.25
206073,2018-06-29 10:32:11.781250,-6.02,67.25
206074,2018-06-29 10:32:11.812500,-6.04,67.25
206075,2018-06-29 10:32:11.843750,-7.56,67.25
206076,2018-06-29 10:32:11.875000,-10.91,67.25
206077,2018-06-29 10:32:11.906250,-17.3,67.25
206078,2018-06-29 10:32:11.937500,-25.81,67.25
206079,2018-06-29 10:32:11.968750,-36.0,67.25
206080,2018-06-29 10:32:12.000000,-51.87,67.25
206081,2018-06-29 10:32:12.031250,-78.23,67.25
206082,2018-06-29 10:32:12.062500,-110.8,67.25
206083,2018-06-29 10:32:12.093750,-132.09,67.25
206084,2018-06-29 10:32:12.125000,-123.18,67.25
206085,2018-06-29 10:32:12.156250,-82.53,67.25
206086,2018-06-29 10:32:12.187500,-28.74,67.25
206087,2018-06-29 10:32:12.218750,17.16,67.25
206088,2018-06-29 10:32:12.250000,46.3,67.25
206089,2018-06-29 10:32:12.281250,59.17,67.25
206090,2018-06-29 10:32:12.312500,56.98,67.25
206091,2018-06-29 10:32:12.343750,41.09,67.25
206092,2018-06-29 10:32:12.375000,17.29,67.25
206093,2018-06-29 10:32:12.406250,-6.05,67.25
206094,2018-06-29 10:32:12.437500,-25.56,67.25
206095,2018-06-29 10:32:12.468750,-44.17,67.25
206096,2018-06-29 10:32:12.500000,-65.07,67.25
206097,2018-06-29 10:32:12.531250,-87.54,67.55
206098,2018-06-29 10:32:12.562500,-105.34,67.55
206099,2018-06-29 10:32:12.593750,-106.27,67.55
206100,2018-06-29 10:32:12.625000,-78.79,67.55
206101,2018-06-29 10:32:12.656250,-22.14,67.55
206102,2018-06-29 10:32:12.687500,52.05,67.55
206103,2018-06-29 10:32:12.718750,126.61,67.55
206104,2018-06-29 10:32:12.750000,186.85,67.55
206105,2018-06-29 10:32:12.781250,226.49,67.55
206106,2018-06-29 10:32:12.812500,247.93,67.55
206107,2018-06-29 10:32:12.843750,254.65,67.55
206108,2018-06-29 10:32:12.875000,245.07,67.55
206109,2018-06-29 10:32:12.906250,217.05,67.55
206110,2018-06-29 10:32:12.937500,175.29,67.55
206111,2018-06-29 10:32:12.968750,128.21,67.55
206112,2018-06-29 10:32:13.000000,77.93,67.55
206113,2018-06-29 10:32:13.031250,19.12,67.55
206114,2018-06-29 10:32:13.062500,-49.99,67.55
206115,2018-06-29 10:32:13.093750,-116.58,67.55
206116,2018-06-29 10:32:13.125000,-157.24,67.55
206117,2018-06-29 10:32:13.156250,-157.29,67.55
206118,2018-06-29 10:32:13.187500,-123.81,67.55
206119,2018-06-29 10:32:13.218750,-76.09,67.55
206120,2018-06-29 10:32:13.250000,-28.69,67.55
206121,2018-06-29 10:32:13.281250,12.46,67.55
206122,2018-06-29 10:32:13.312500,44.45,67.55
206123,2018-06-29 10:32:13.343750,65.28,67.55
206124,2018-06-29 10:32:13.375000,75.81,67.55
206125,2018-06-29 10:32:13.406250,79.8,67.55
206126,2018-06-29 10:32:13.437500,81.39,67.55
206127,2018-06-29 10:32:13.468750,83.16,67.55
206128,2018-06-29 10:32:13.500000,86.06,67.55
206129,2018-06-29 10:32:13.531250,88.99,67.82
206130,2018-06-29 10:32:13.562500,89.0,67.82
206131,2018-06-29 10:32:13.593750,83.93,67.82
206132,2018-06-29 10:32:13.625000,75.29,67.82
206133,2018-06-29 10:32:13.656250,66.69,67.82
206134,2018-06-29 10:32:13.687500,59.52,67.82
206135,2018-06-29 10:32:13.718750,52.04,67.82
206136,2018-06-29 10:32:13.750000,42.83,67.82
206137,2018-06-29 10:32:13.781250,32.57,67.82
206138,2018-06-29 10:32:13.812500,21.84,67.82
206139,2018-06-29 10:32:13.843750,9.81,67.82
206140,2018-06-29 10:32:13.875000,-3.76,67.82
206141,2018-06-29 10:32:13.906250,-16.78,67.82
206142,2018-06-29 10:32:13.937500,-27.22,67.82
206143,2018-06-29 10:32:13.968750,-37.19,67.82
206144,2018-06-29 10:32:14.000000,-51.58,67.82
206145,2018-06-29 10:32:14.031250,-70.66,67.82
206146,2018-06-29 10:32:14.062500,-83.91,67.82
206147,2018-06-29 10:32:14.093750,-75.9,67.82
206148,2018-06-29 10:32:14.125000,-42.16,67.82
206149,2018-06-29 10:32:14.156250,4.21,67.82
206150,2018-06-29 10:32:14.187500,45.77,67.82
206151,2018-06-29 10:32:14.218750,76.29,67.82
206152,2018-06-29 10:32:14.250000,97.81,67.82
206153,2018-06-29 10:32:14.281250,109.82,67.82
206154,2018-06-29 10:32:14.312500,110.96,67.82
206155,2018-06-29 10:32:14.343750,106.19,67.82
206156,2018-06-29 10:32:14.375000,102.99,67.82
206157,2018-06-29 10:32:14.406250,102.79,67.82
206158,2018-06-29 10:32:14.437500,102.69,67.82
206159,2018-06-29 10:32:14.468750,101.19,67.82
206160,2018-06-29 10:32:14.500000,97.67,67.82
206161,2018-06-29 10:32:14.531250,90.48,68.07
206162,2018-06-29 10:32:14.562500,79.17,68.07
206163,2018-06-29 10:32:14.593750,66.04,68.07
206164,2018-06-29 10:32:14.625000,53.61,68.07
206165,2018-06-29 10:32:14.656250,41.24,68.07
206166,2018-06-29 10:32:14.687500,26.7,68.07
206167,2018-06-29 10:32:14.718750,11.19,68.07
206168,2018-06-29 10:32:14.750000,-1.67,68.07
206169,2018-06-29 10:32:14.781250,-11.91,68.07
206170,2018-06-29 10:32:14.812500,-23.02,68.07
206171,2018-06-29 10:32:14.843750,-35.95,68.07
206172,2018-06-29 10:32:14.875000,-48.62,68.07
206173,2018-06-29 10:32:14.906250,-60.66,68.07
206174,2018-06-29 10:32:14.937500,-75.07,68.07
206175,2018-06-29 10:32:14.968750,-94.26,68.07
206176,2018-06-29 10:32:15.000000,-113.38,68.07
206177,2018-06-29 10:32:15.031250,-118.76,68.07
206178,2018-06-29 10:32:15.062500,-99.1,68.07
206179,2018-06-29 10:32:15.093750,-58.62,68.07
206180,2018-06-29 10:32:15.125000,-12.82,68.07
206181,2018-06-29 10:32:15.156250,26.99,68.07
206182,2018-06-29 10:32:15.187500,58.84,68.07
206183,2018-06-29 10:32:15.218750,83.16,68.07
206184,2018-06-29 10:32:15.250000,98.16,68.07
206185,2018-06-29 10:32:15.281250,102.79,68.07
206186,2018-06-29 10:32:15.312500,100.15,68.07
206187,2018-06-29 10:32:15.343750,95.59,68.07
206188,2018-06-29 10:32:15.375000,91.72,68.07
206189,2018-06-29 10:32:15.406250,87.46,68.07
206190,2018-06-29 10:32:15.437500,81.62,68.07
206191,2018-06-29 10:32:15.468750,73.97,68.07
206192,2018-06-29 10:32:15.500000,63.83,68.07
206193,2018-06-29 10:32:15.531250,51.22,68.3
206194,2018-06-29 10:32:15.562500,38.7,68.3
206195,2018-06-29 10:32:15.593750,28.52,68.3
206196,2018-06-29 10:32:15.625000,19.03,68.3
206197,2018-06-29 10:32:15.656250,7.64,68.3
206198,2018-06-29 10:32:15.687500,-4.35,68.3
206199,2018-06-29 10:32:15.718750,-13.78,68.3
206200,2018-06-29 10:32:15.750000,-21.35,68.3
206201,2018-06-29 10:32:15.781250,-30.96,68.3
206202,2018-06-29 10:32:15.812500,-43.66,68.3
206203,2018-06-29 10:32:15.843750,-56.31,68.3
206204,2018-06-29 10:32:15.875000,-66.49,68.3
206205,2018-06-29 10:32:15.906250,-76.2,68.3
206206,2018-06-29 10:32:15.937500,-89.14,68.3
206207,2018-06-29 10:32:15.968750,-104.03,68.3
206208,2018-06-29 10:32:16.000000,-110.88,68.3
206209,2018-06-29 10:32:16.031250,-98.17,68.3
206210,2018-06-29 10:32:16.062500,-66.35,68.3
206211,2018-06-29 10:32:16.093750,-28.78,68.3
206212,2018-06-29 10:32:16.125000,2.33,68.3
206213,2018-06-29 10:32:16.156250,24.3,68.3
206214,2018-06-29 10:32:16.187500,38.86,68.3
206215,2018-06-29 10:32:16.218750,46.61,68.3
206216,2018-06-29 10:32:16.250000,48.13,68.3
206217,2018-06-29 10:32:16.281250,46.25,68.3
206218,2018-06-29 10:32:16.312500,44.97,68.3
206219,2018-06-29 10:32:16.343750,46.05,68.3
206220,2018-06-29 10:32:16.375000,48.04,68.3
206221,2018-06-29 10:32:16.406250,49.31,68.3
206222,2018-06-29 10:32:16.437500,49.5,68.3
206223,2018-06-29 10:32:16.468750,47.3,68.3
206224,2018-06-29 10:32:16.500000,41.34,68.3
206225,2018-06-29 10:32:16.531250,33.3,68.55
206226,2018-06-29 10:32:16.562500,26.12,68.55
206227,2018-06-29 10:32:16.593750,19.9,68.55
206228,2018-06-29 10:32:16.625000,12.69,68.55
206229,2018-06-29 10:32:16.656250,4.46,68.55
206230,2018-06-29 10:32:16.687500,-2.72,68.55
206231,2018-06-29 10:32:16.718750,-8.08,68.55
206232,2018-06-29 10:32:16.750000,-13.31,68.55
206233,2018-06-29 10:32:16.781250,-20.41,68.55
206234,2018-06-29 10:32:16.812500,-29.29,68.55
206235,2018-06-29 10:32:16.843750,-37.81,68.55
206236,2018-06-29 10:32:16.875000,-44.84,68.55
206237,2018-06-29 10:32:16.906250,-52.92,68.55
206238,2018-06-29 10:32:16.937500,-65.65,68.55
206239,2018-06-29 10:32:16.968750,-80.88,68.55
206240,2018-06-29 10:32:17.000000,-88.29,68.55
206241,2018-06-29 10:32:17.031250,-77.58,68.55
206242,2018-06-29 10:32:17.062500,-50.45,68.55
206243,2018-06-29 10:32:17.093750,-20.49,68.55
206244,2018-06-29 10:32:17.125000,0.79,68.55
206245,2018-06-29 10:32:17.156250,13.09,68.55
206246,2018-06-29 10:32:17.187500,20.65,68.55
206247,2018-06-29 10:32:17.218750,24.16,68.55
206248,2018-06-29 10:32:17.250000,23.3,68.55
206249,2018-06-29 10:32:17.281250,21.0,68.55
206250,2018-06-29 10:32:17.312500,20.36,68.55
206251,2018-06-29 10:32:17.343750,21.52,68.55
206252,2018-06-29 10:32:17.375000,23.41,68.55
206253,2018-06-29 10:32:17.406250,25.06,68.55
206254,2018-06-29 10:32:17.437500,24.59,68.55
206255,2018-06-29 10:32:17.468750,20.64,68.55
206256,2018-06-29 10:32:17.500000,14.59,68.55
206257,2018-06-29 10:32:17.531250,8.61,68.8
206258,2018-06-29 10:32:17.562500,2.64,68.8
206259,2018-06-29 10:32:17.593750,-4.16,68.8
206260,2018-06-29 10:32:17.625000,-10.8,68.8
206261,2018-06-29 10:32:17.656250,-15.91,68.8
206262,2018-06-29 10:32:17.687500,-20.24,68.8
206263,2018-06-29 10:32:17.718750,-25.13,68.8
206264,2018-06-29 10:32:17.750000,-30.03,68.8
206265,2018-06-29 10:32:17.781250,-33.55,68.8
206266,2018-06-29 10:32:17.812500,-35.08,68.8
206267,2018-06-29 10:32:17.843750,-35.74,68.8
206268,2018-06-29 10:32:17.875000,-38.51,68.8
206269,2018-06-29 10:32:17.906250,-43.95,68.8
206270,2018-06-29 10:32:17.937500,-44.29,68.8
206271,2018-06-29 10:32:17.968750,-29.3,68.8
206272,2018-06-29 10:32:18.000000,-0.97,68.8
206273,2018-06-29 10:32:18.031250,25.62,68.8
206274,2018-06-29 10:32:18.062500,39.2,68.8
206275,2018-06-29 10:32:18.093750,43.07,68.8
206276,2018-06-29 10:32:18.125000,45.45,68.8
206277,2018-06-29 10:32:18.156250,47.24,68.8
206278,2018-06-29 10:32:18.187500,46.91,68.8
206279,2018-06-29 10:32:18.218750,51.07,68.8
206280,2018-06-29 10:32:18.250000,67.79,68.8
206281,2018-06-29 10:32:18.281250,92.31,68.8
206282,2018-06-29 10:32:18.312500,110.18,68.8
206283,2018-06-29 10:32:18.343750,112.43,68.8
206284,2018-06-29 10:32:18.375000,103.29,68.8
206285,2018-06-29 10:32:18.406250,102.54,68.8
206286,2018-06-29 10:32:18.437500,136.83,68.8
206287,2018-06-29 10:32:18.468750,206.14,68.8
206288,2018-06-29 10:32:18.500000,266.55,68.8
206289,2018-06-29 10:32:18.531250,271.74,69.05
206290,2018-06-29 10:32:18.562500,217.35,69.05
206291,2018-06-29 10:32:18.593750,127.03,69.05
206292,2018-06-29 10:32:18.625000,22.49,69.05
206293,2018-06-29 10:32:18.656250,-75.83,69.05
206294,2018-06-29 10:32:18.687500,-149.33,69.05
206295,2018-06-29 10:32:18.718750,-199.05,69.05
206296,2018-06-29 10:32:18.750000,-247.3,69.05
206297,2018-06-29 10:32:18.781250,-314.71,69.05
206298,2018-06-29 10:32:18.812500,-391.82,69.05
206299,2018-06-29 10:32:18.843750,-437.41,69.05
206300,2018-06-29 10:32:18.875000,-424.97,69.05
206301,2018-06-29 10:32:18.906250,-379.12,69.05
206302,2018-06-29 10:32:18.937500,-337.44,69.05
206303,2018-06-29 10:32:18.968750,-301.73,69.05
206304,2018-06-29 10:32:19.000000,-258.82,69.05
206305,2018-06-29 10:32:19.031250,-212.87,69.05
206306,2018-06-29 10:32:19.062500,-168.61,69.05
206307,2018-06-29 10:32:19.093750,-117.99,69.05
206308,2018-06-29 10:32:19.125000,-60.45,69.05
206309,2018-06-29 10:32:19.156250,-10.41,69.05
206310,2018-06-29 10:32:19.187500,22.4,69.05
206311,2018-06-29 10:32:19.218750,43.85,69.05
206312,2018-06-29 10:32:19.250000,62.1,69.05
206313,2018-06-29 10:32:19.281250,75.3,69.05
206314,2018-06-29 10:32:19.312500,78.27,69.05
206315,2018-06-29 10:32:19.343750,72.56,69.05
206316,2018-06-29 10:32:19.375000,64.68,69.05
206317,2018-06-29 10:32:19.406250,57.94,69.05
206318,2018-06-29 10:32:19.437500,50.59,69.05
206319,2018-06-29 10:32:19.468750,40.64,69.05
206320,2018-06-29 10:32:19.500000,29.5,69.05
206321,2018-06-29 10:32:19.531250,19.68,69.3
206322,2018-06-29 10:32:19.562500,11.54,69.3
206323,2018-06-29 10:32:19.593750,3.81,69.3
206324,2018-06-29 10:32:19.625000,-5.25,69.3
206325,2018-06-29 10:32:19.656250,-17.58,69.3
206326,2018-06-29 10:32:19.687500,-30.88,69.3
206327,2018-06-29 10:32:19.718750,-34.88,69.3
206328,2018-06-29 10:32:19.750000,-19.12,69.3
206329,2018-06-29 10:32:19.781250,13.97,69.3
206330,2018-06-29 10:32:19.812500,50.75,69.3
206331,2018-06-29 10:32:19.843750,82.09,69.3
206332,2018-06-29 10:32:19.875000,109.26,69.3
206333,2018-06-29 10:32:19.906250,134.19,69.3
206334,2018-06-29 10:32:19.937500,152.77,69.3
206335,2018-06-29 10:32:19.968750,160.9,69.3
206336,2018-06-29 10:32:20.000000,160.59,69.3
206337,2018-06-29 10:32:20.031250,156.35,69.3
206338,2018-06-29 10:32:20.062500,147.71,69.3
206339,2018-06-29 10:32:20.093750,127.63,69.3
206340,2018-06-29 10:32:20.125000,90.26,69.3
206341,2018-06-29 10:32:20.156250,41.32,69.3
206342,2018-06-29 10:32:20.187500,-3.05,69.3
206343,2018-06-29 10:32:20.218750,-30.15,69.3
206344,2018-06-29 10:32:20.250000,-39.66,69.3
206345,2018-06-29 10:32:20.281250,-38.37,69.3
206346,2018-06-29 10:32:20.312500,-32.57,69.3
206347,2018-06-29 10:32:20.343750,-26.21,69.3
206348,2018-06-29 10:32:20.375000,-20.04,69.3
206349,2018-06-29 10:32:20.406250,-11.51,69.3
206350,2018-06-29 10:32:20.437500,0.81,69.3
206351,2018-06-29 10:32:20.468750,12.65,69.3
206352,2018-06-29 10:32:20.500000,16.38,69.3
206353,2018-06-29 10:32:20.531250,8.66,69.55
206354,2018-06-29 10:32:20.562500,-6.63,69.55
206355,2018-06-29 10:32:20.593750,-23.36,69.55
206356,2018-06-29 10:32:20.625000,-39.17,69.55
206357,2018-06-29 10:32:20.656250,-55.94,69.55
206358,2018-06-29 10:32:20.687500,-75.25,69.55
206359,2018-06-29 10:32:20.718750,-92.35,69.55
206360,2018-06-29 10:32:20.750000,-95.67,69.55
206361,2018-06-29 10:32:20.781250,-77.51,69.55
206362,2018-06-29 10:32:20.812500,-44.86,69.55
206363,2018-06-29 10:32:20.843750,-13.54,69.55
206364,2018-06-29 10:32:20.875000,7.42,69.55
206365,2018-06-29 10:32:20.906250,19.21,69.55
206366,2018-06-29 10:32:20.937500,24.5,69.55
206367,2018-06-29 10:32:20.968750,23.91,69.55
206368,2018-06-29 10:32:21.000000,19.7,69.55
206369,2018-06-29 10:32:21.031250,15.83,69.55
206370,2018-06-29 10:32:21.062500,14.15,69.55
206371,2018-06-29 10:32:21.093750,13.99,69.55
206372,2018-06-29 10:32:21.125000,14.27,69.55
206373,2018-06-29 10:32:21.156250,14.12,69.55
206374,2018-06-29 10:32:21.187500,12.38,69.55
206375,2018-06-29 10:32:21.218750,8.19,69.55
206376,2018-06-29 10:32:21.250000,1.97,69.55
206377,2018-06-29 10:32:21.281250,-5.05,69.55
206378,2018-06-29 10:32:21.312500,-11.43,69.55
206379,2018-06-29 10:32:21.343750,-15.75,69.55
206380,2018-06-29 10:32:21.375000,-16.76,69.55
206381,2018-06-29 10:32:21.406250,-13.96,69.55
206382,2018-06-29 10:32:21.437500,-8.47,69.55
206383,2018-06-29 10:32:21.468750,-2.82,69.55
206384,2018-06-29 10:32:21.500000,0.82,69.55
206385,2018-06-29 10:32:21.531250,1.58,69.78
206386,2018-06-29 10:32:21.562500,-1.96,69.78
206387,2018-06-29 10:32:21.593750,-12.34,69.78
206388,2018-06-29 10:32:21.625000,-28.8,69.78
206389,2018-06-29 10:32:21.656250,-42.88,69.78
206390,2018-06-29 10:32:21.687500,-42.28,69.78
206391,2018-06-29 10:32:21.718750,-22.36,69.78
206392,2018-06-29 10:32:21.750000,7.86,69.78
206393,2018-06-29 10:32:21.781250,34.62,69.78
206394,2018-06-29 10:32:21.812500,52.19,69.78
206395,2018-06-29 10:32:21.843750,63.06,69.78
206396,2018-06-29 10:32:21.875000,69.64,69.78
206397,2018-06-29 10:32:21.906250,72.91,69.78
206398,2018-06-29 10:32:21.937500,76.26,69.78
206399,2018-06-29 10:32:21.968750,83.71,69.78
206400,2018-06-29 10:32:22.000000,95.03,69.78
206401,2018-06-29 10:32:22.031250,107.15,69.78
206402,2018-06-29 10:32:22.062500,120.38,69.78
206403,2018-06-29 10:32:22.093750,138.18,69.78
206404,2018-06-29 10:32:22.125000,160.83,69.78
206405,2018-06-29 10:32:22.156250,182.65,69.78
206406,2018-06-29 10:32:22.187500,194.92,69.78
206407,2018-06-29 10:32:22.218750,193.77,69.78
206408,2018-06-29 10:32:22.250000,189.56,69.78
206409,2018-06-29 10:32:22.281250,199.66,69.78
206410,2018-06-29 10:32:22.312500,223.72,69.78
206411,2018-06-29 10:32:22.343750,239.73,69.78
206412,2018-06-29 10:32:22.375000,230.13,69.78
206413,2018-06-29 10:32:22.406250,196.33,69.78
206414,2018-06-29 10:32:22.437500,147.69,69.78
206415,2018-06-29 10:32:22.468750,88.87,69.78
206416,2018-06-29 10:32:22.500000,15.9,69.78
206417,2018-06-29 10:32:22.531250,-77.4,70.02
206418,2018-06-29 10:32:22.562500,-179.3,70.02
206419,2018-06-29 10:32:22.593750,-256.92,70.02
206420,2018-06-29 10:32:22.625000,-290.93,70.02
206421,2018-06-29 10:32:22.656250,-301.84,70.02
206422,2018-06-29 10:32:22.687500,-323.7,70.02
206423,2018-06-29 10:32:22.718750,-360.86,70.02
206424,2018-06-29 10:32:22.750000,-388.34,70.02
206425,2018-06-29 10:32:22.781250,-388.54,70.02
206426,2018-06-29 10:32:22.812500,-368.16,70.02
206427,2018-06-29 10:32:22.843750,-341.36,70.02
206428,2018-06-29 10:32:22.875000,-313.01,70.02
206429,2018-06-29 10:32:22.906250,-281.15,70.02
206430,2018-06-29 10:32:22.937500,-240.68,70.02
206431,2018-06-29 10:32:22.968750,-183.72,70.02
206432,2018-06-29 10:32:23.000000,-109.76,70.02
206433,2018-06-29 10:32:23.031250,-35.89,70.02
206434,2018-06-29 10:32:23.062500,16.45,70.02
206435,2018-06-29 10:32:23.093750,42.64,70.02
206436,2018-06-29 10:32:23.125000,52.19,70.02
206437,2018-06-29 10:32:23.156250,49.76,70.02
206438,2018-06-29 10:32:23.187500,31.33,70.02
206439,2018-06-29 10:32:23.218750,-1.88,70.02
206440,2018-06-29 10:32:23.250000,-38.42,70.02
206441,2018-06-29 10:32:23.281250,-68.33,70.02
206442,2018-06-29 10:32:23.312500,-91.28,70.02
206443,2018-06-29 10:32:23.343750,-111.22,70.02
206444,2018-06-29 10:32:23.375000,-129.21,70.02
206445,2018-06-29 10:32:23.406250,-144.33,70.02
206446,2018-06-29 10:32:23.437500,-157.44,70.02
206447,2018-06-29 10:32:23.468750,-170.44,70.02
206448,2018-06-29 10:32:23.500000,-179.75,70.02
206449,2018-06-29 10:32:23.531250,-172.27,70.23
206450,2018-06-29 10:32:23.562500,-135.59,70.23
206451,2018-06-29 10:32:23.593750,-73.23,70.23
206452,2018-06-29 10:32:23.625000,-2.98,70.23
206453,2018-06-29 10:32:23.656250,59.2,70.23
206454,2018-06-29 10:32:23.687500,107.23,70.23
206455,2018-06-29 10:32:23.718750,140.45,70.23
206456,2018-06-29 10:32:23.750000,159.03,70.23
206457,2018-06-29 10:32:23.781250,164.79,70.23
206458,2018-06-29 10:32:23.812500,163.33,70.23
206459,2018-06-29 10:32:23.843750,161.25,70.23
206460,2018-06-29 10:32:23.875000,160.2,70.23
206461,2018-06-29 10:32:23.906250,157.4,70.23
206462,2018-06-29 10:32:23.937500,151.75,70.23
206463,2018-06-29 10:32:23.968750,143.59,70.23
206464,2018-06-29 10:32:24.000000,130.87,70.23
206465,2018-06-29 10:32:24.031250,112.53,70.23
206466,2018-06-29 10:32:24.062500,92.86,70.23
206467,2018-06-29 10:32:24.093750,76.88,70.23
206468,2018-06-29 10:32:24.125000,64.06,70.23
206469,2018-06-29 10:32:24.156250,51.18,70.23
206470,2018-06-29 10:32:24.187500,38.96,70.23
206471,2018-06-29 10:32:24.218750,31.45,70.23
206472,2018-06-29 10:32:24.250000,29.69,70.23
206473,2018-06-29 10:32:24.281250,29.83,70.23
206474,2018-06-29 10:32:24.312500,28.67,70.23
206475,2018-06-29 10:32:24.343750,27.14,70.23
206476,2018-06-29 10:32:24.375000,25.93,70.23
206477,2018-06-29 10:32:24.406250,21.21,70.23
206478,2018-06-29 10:32:24.437500,8.14,70.23
206479,2018-06-29 10:32:24.468750,-12.53,70.23
206480,2018-06-29 10:32:24.500000,-31.08,70.23
206481,2018-06-29 10:32:24.531250,-33.73,70.45
206482,2018-06-29 10:32:24.562500,-16.12,70.45
206483,2018-06-29 10:32:24.593750,10.72,70.45
206484,2018-06-29 10:32:24.625000,32.85,70.45
206485,2018-06-29 10:32:24.656250,46.34,70.45
206486,2018-06-29 10:32:24.687500,53.02,70.45
206487,2018-06-29 10:32:24.718750,52.97,70.45
206488,2018-06-29 10:32:24.750000,47.67,70.45
206489,2018-06-29 10:32:24.781250,42.31,70.45
206490,2018-06-29 10:32:24.812500,40.18,70.45
206491,2018-06-29 10:32:24.843750,39.99,70.45
206492,2018-06-29 10:32:24.875000,40.27,70.45
206493,2018-06-29 10:32:24.906250,41.96,70.45
206494,2018-06-29 10:32:24.937500,45.12,70.45
206495,2018-06-29 10:32:24.968750,47.07,70.45
206496,2018-06-29 10:32:25.000000,45.1,70.45
206497,2018-06-29 10:32:25.031250,39.45,70.45
206498,2018-06-29 10:32:25.062500,32.34,70.45
206499,2018-06-29 10:32:25.093750,25.31,70.45
206500,2018-06-29 10:32:25.125000,18.02,70.45
206501,2018-06-29 10:32:25.156250,8.81,70.45
206502,2018-06-29 10:32:25.187500,-2.88,70.45
206503,2018-06-29 10:32:25.218750,-14.79,70.45
206504,2018-06-29 10:32:25.250000,-24.5,70.45
206505,2018-06-29 10:32:25.281250,-33.58,70.45
206506,2018-06-29 10:32:25.312500,-45.71,70.45
206507,2018-06-29 10:32:25.343750,-61.0,70.45
206508,2018-06-29 10:32:25.375000,-73.13,70.45
206509,2018-06-29 10:32:25.406250,-71.67,70.45
206510,2018-06-29 10:32:25.437500,-50.61,70.45
206511,2018-06-29 10:32:25.468750,-16.49,70.45
206512,2018-06-29 10:32:25.500000,16.45,70.45
206513,2018-06-29 10:32:25.531250,40.02,70.62
206514,2018-06-29 10:32:25.562500,55.34,70.62
206515,2018-06-29 10:32:25.593750,64.01,70.62
206516,2018-06-29 10:32:25.625000,65.62,70.62
206517,2018-06-29 10:32:25.656250,63.17,70.62
206518,2018-06-29 10:32:25.687500,62.55,70.62
206519,2018-06-29 10:32:25.718750,65.07,70.62
206520,2018-06-29 10:32:25.750000,66.51,70.62
206521,2018-06-29 10:32:25.781250,64.21,70.62
206522,2018-06-29 10:32:25.812500,59.38,70.62
206523,2018-06-29 10:32:25.843750,52.73,70.62
206524,2018-06-29 10:32:25.875000,42.91,70.62
206525,2018-06-29 10:32:25.906250,30.04,70.62
206526,2018-06-29 10:32:25.937500,16.89,70.62
206527,2018-06-29 10:32:25.968750,4.83,70.62
206528,2018-06-29 10:32:26.000000,-8.65,70.62
206529,2018-06-29 10:32:26.031250,-25.69,70.62
206530,2018-06-29 10:32:26.062500,-43.25,70.62
206531,2018-06-29 10:32:26.093750,-56.41,70.62
206532,2018-06-29 10:32:26.125000,-65.82,70.62
206533,2018-06-29 10:32:26.156250,-77.76,70.62
206534,2018-06-29 10:32:26.187500,-95.36,70.62
206535,2018-06-29 10:32:26.218750,-112.13,70.62
206536,2018-06-29 10:32:26.250000,-115.62,70.62
206537,2018-06-29 10:32:26.281250,-99.21,70.62
206538,2018-06-29 10:32:26.312500,-70.23,70.62
206539,2018-06-29 10:32:26.343750,-44.1,70.62
206540,2018-06-29 10:32:26.375000,-28.75,70.62
206541,2018-06-29 10:32:26.406250,-17.64,70.62
206542,2018-06-29 10:32:26.437500,-1.03,70.62
206543,2018-06-29 10:32:26.468750,22.46,70.62
206544,2018-06-29 10:32:26.500000,50.49,70.62
206545,2018-06-29 10:32:26.531250,85.27,70.75
206546,2018-06-29 10:32:26.562500,126.37,70.75
206547,2018-06-29 10:32:26.593750,162.44,70.75
206548,2018-06-29 10:32:26.625000,180.78,70.75
206549,2018-06-29 10:32:26.656250,179.84,70.75
206550,2018-06-29 10:32:26.687500,166.63,70.75
206551,2018-06-29 10:32:26.718750,148.6,70.75
206552,2018-06-29 10:32:26.750000,133.17,70.75
206553,2018-06-29 10:32:26.781250,127.52,70.75
206554,2018-06-29 10:32:26.812500,130.48,70.75
206555,2018-06-29 10:32:26.843750,129.06,70.75
206556,2018-06-29 10:32:26.875000,107.72,70.75
206557,2018-06-29 10:32:26.906250,61.97,70.75
206558,2018-06-29 10:32:26.937500,1.51,70.75
206559,2018-06-29 10:32:26.968750,-56.49,70.75
206560,2018-06-29 10:32:27.000000,-98.31,70.75
206561,2018-06-29 10:32:27.031250,-124.2,70.75
206562,2018-06-29 10:32:27.062500,-144.49,70.75
206563,2018-06-29 10:32:27.093750,-161.41,70.75
206564,2018-06-29 10:32:27.125000,-163.63,70.75
206565,2018-06-29 10:32:27.156250,-143.11,70.75
206566,2018-06-29 10:32:27.187500,-107.01,70.75
206567,2018-06-29 10:32:27.218750,-68.76,70.75
206568,2018-06-29 10:32:27.250000,-36.96,70.75
206569,2018-06-29 10:32:27.281250,-14.74,70.75
206570,2018-06-29 10:32:27.312500,-2.16,70.75
206571,2018-06-29 10:32:27.343750,3.7,70.75
206572,2018-06-29 10:32:27.375000,7.53,70.75
206573,2018-06-29 10:32:27.406250,11.79,70.75
206574,2018-06-29 10:32:27.437500,15.92,70.75
206575,2018-06-29 10:32:27.468750,19.79,70.75
206576,2018-06-29 10:32:27.500000,24.28,70.75
206577,2018-06-29 10:32:27.531250,28.76,70.72
206578,2018-06-29 10:32:27.562500,30.97,70.72
206579,2018-06-29 10:32:27.593750,29.37,70.72
206580,2018-06-29 10:32:27.625000,24.41,70.72
206581,2018-06-29 10:32:27.656250,17.43,70.72
206582,2018-06-29 10:32:27.687500,9.55,70.72
206583,2018-06-29 10:32:27.718750,1.51,70.72
206584,2018-06-29 10:32:27.750000,-6.3,70.72
206585,2018-06-29 10:32:27.781250,-14.0,70.72
206586,2018-06-29 10:32:27.812500,-22.09,70.72
206587,2018-06-29 10:32:27.843750,-30.5,70.72
206588,2018-06-29 10:32:27.875000,-38.76,70.72
206589,2018-06-29 10:32:27.906250,-46.89,70.72
206590,2018-06-29 10:32:27.937500,-55.25,70.72
206591,2018-06-29 10:32:27.968750,-64.4,70.72
206592,2018-06-29 10:32:28.000000,-74.66,70.72
206593,2018-06-29 10:32:28.031250,-83.13,70.72
206594,2018-06-29 10:32:28.062500,-82.19,70.72
206595,2018-06-29 10:32:28.093750,-66.34,70.72
206596,2018-06-29 10:32:28.125000,-40.44,70.72
206597,2018-06-29 10:32:28.156250,-15.75,70.72
206598,2018-06-29 10:32:28.187500,1.37,70.72
206599,2018-06-29 10:32:28.218750,11.76,70.72
206600,2018-06-29 10:32:28.250000,16.64,70.72
206601,2018-06-29 10:32:28.281250,15.37,70.72
206602,2018-06-29 10:32:28.312500,9.41,70.72
206603,2018-06-29 10:32:28.343750,2.55,70.72
206604,2018-06-29 10:32:28.375000,-3.17,70.72
206605,2018-06-29 10:32:28.406250,-8.56,70.72
206606,2018-06-29 10:32:28.437500,-15.41,70.72
206607,2018-06-29 10:32:28.468750,-26.24,70.72
206608,2018-06-29 10:32:28.500000,-42.67,70.72
206609,2018-06-29 10:32:28.531250,-61.72,70.57
206610,2018-06-29 10:32:28.562500,-76.23,70.57
206611,2018-06-29 10:32:28.593750,-80.6,70.57
206612,2018-06-29 10:32:28.625000,-73.53,70.57
206613,2018-06-29 10:32:28.656250,-55.44,70.57
206614,2018-06-29 10:32:28.687500,-27.28,70.57
206615,2018-06-29 10:32:28.718750,7.92,70.57
206616,2018-06-29 10:32:28.750000,45.07,70.57
206617,2018-06-29 10:32:28.781250,79.45,70.57
206618,2018-06-29 10:32:28.812500,108.25,70.57
206619,2018-06-29 10:32:28.843750,129.91,70.57
206620,2018-06-29 10:32:28.875000,142.4,70.57
206621,2018-06-29 10:32:28.906250,142.29,70.57
206622,2018-06-29 10:32:28.937500,128.82,70.57
206623,2018-06-29 10:32:28.968750,109.26,70.57
206624,2018-06-29 10:32:29.000000,94.6,70.57
206625,2018-06-29 10:32:29.031250,89.19,70.57
206626,2018-06-29 10:32:29.062500,89.25,70.57
206627,2018-06-29 10:32:29.093750,88.97,70.57
206628,2018-06-29 10:32:29.125000,83.3,70.57
206629,2018-06-29 10:32:29.156250,68.52,70.57
206630,2018-06-29 10:32:29.187500,44.9,70.57
206631,2018-06-29 10:32:29.218750,17.28,70.57
206632,2018-06-29 10:32:29.250000,-8.02,70.57
206633,2018-06-29 10:32:29.281250,-25.93,70.57
206634,2018-06-29 10:32:29.312500,-33.84,70.57
206635,2018-06-29 10:32:29.343750,-33.15,70.57
206636,2018-06-29 10:32:29.375000,-28.49,70.57
206637,2018-06-29 10:32:29.406250,-23.37,70.57
206638,2018-06-29 10:32:29.437500,-17.4,70.57
206639,2018-06-29 10:32:29.468750,-9.83,70.57
206640,2018-06-29 10:32:29.500000,-3.08,70.57
206641,2018-06-29 10:32:29.531250,0.16,70.45
206642,2018-06-29 10:32:29.562500,0.71,70.45
206643,2018-06-29 10:32:29.593750,1.65,70.45
206644,2018-06-29 10:32:29.625000,3.77,70.45
206645,2018-06-29 10:32:29.656250,3.35,70.45
206646,2018-06-29 10:32:29.687500,-4.75,70.45
206647,2018-06-29 10:32:29.718750,-21.79,70.45
206648,2018-06-29 10:32:29.750000,-43.72,70.45
206649,2018-06-29 10:32:29.781250,-65.21,70.45
206650,2018-06-29 10:32:29.812500,-83.17,70.45
206651,2018-06-29 10:32:29.843750,-95.53,70.45
206652,2018-06-29 10:32:29.875000,-98.0,70.45
206653,2018-06-29 10:32:29.906250,-84.52,70.45
206654,2018-06-29 10:32:29.937500,-53.94,70.45
206655,2018-06-29 10:32:29.968750,-15.56,70.45
206656,2018-06-29 10:32:30.000000,16.18,70.45
206657,2018-06-29 10:32:30.031250,33.07,70.45
206658,2018-06-29 10:32:30.062500,37.27,70.45
206659,2018-06-29 10:32:30.093750,35.75,70.45
206660,2018-06-29 10:32:30.125000,33.1,70.45
206661,2018-06-29 10:32:30.156250,30.59,70.45
206662,2018-06-29 10:32:30.187500,30.61,70.45
206663,2018-06-29 10:32:30.218750,37.73,70.45
206664,2018-06-29 10:32:30.250000,52.63,70.45
206665,2018-06-29 10:32:30.281250,68.49,70.45
206666,2018-06-29 10:32:30.312500,76.67,70.45
206667,2018-06-29 10:32:30.343750,73.03,70.45
206668,2018-06-29 10:32:30.375000,57.78,70.45
206669,2018-06-29 10:32:30.406250,33.78,70.45
206670,2018-06-29 10:32:30.437500,5.74,70.45
206671,2018-06-29 10:32:30.468750,-21.81,70.45
206672,2018-06-29 10:32:30.500000,-45.72,70.45
206673,2018-06-29 10:32:30.531250,-63.54,70.33
206674,2018-06-29 10:32:30.562500,-74.78,70.33
206675,2018-06-29 10:32:30.593750,-82.08,70.33
206676,2018-06-29 10:32:30.625000,-87.9,70.33
206677,2018-06-29 10:32:30.656250,-91.09,70.33
206678,2018-06-29 10:32:30.687500,-88.94,70.33
206679,2018-06-29 10:32:30.718750,-81.79,70.33
206680,2018-06-29 10:32:30.750000,-73.95,70.33
206681,2018-06-29 10:32:30.781250,-68.04,70.33
206682,2018-06-29 10:32:30.812500,-59.39,70.33
206683,2018-06-29 10:32:30.843750,-41.69,70.33
206684,2018-06-29 10:32:30.875000,-17.8,70.33
206685,2018-06-29 10:32:30.906250,2.74,70.33
206686,2018-06-29 10:32:30.937500,16.88,70.33
206687,2018-06-29 10:32:30.968750,29.92,70.33
206688,2018-06-29 10:32:31.000000,45.24,70.33
206689,2018-06-29 10:32:31.031250,61.57,70.33
206690,2018-06-29 10:32:31.062500,77.19,70.33
206691,2018-06-29 10:32:31.093750,90.75,70.33
206692,2018-06-29 10:32:31.125000,102.84,70.33
206693,2018-06-29 10:32:31.156250,117.77,70.33
206694,2018-06-29 10:32:31.187500,136.26,70.33
206695,2018-06-29 10:32:31.218750,149.58,70.33
206696,2018-06-29 10:32:31.250000,151.24,70.33
206697,2018-06-29 10:32:31.281250,148.66,70.33
206698,2018-06-29 10:32:31.312500,154.66,70.33
206699,2018-06-29 10:32:31.343750,171.67,70.33
206700,2018-06-29 10:32:31.375000,187.94,70.33
206701,2018-06-29 10:32:31.406250,186.24,70.33
206702,2018-06-29 10:32:31.437500,156.97,70.33
206703,2018-06-29 10:32:31.468750,105.35,70.33
206704,2018-06-29 10:32:31.500000,45.08,70.33
206705,2018-06-29 10:32:31.531250,-13.81,70.33
206706,2018-06-29 10:32:31.562500,-69.47,70.33
206707,2018-06-29 10:32:31.593750,-124.58,70.33
206708,2018-06-29 10:32:31.625000,-182.83,70.33
206709,2018-06-29 10:32:31.656250,-249.45,70.33
206710,2018-06-29 10:32:31.687500,-329.57,70.33
206711,2018-06-29 10:32:31.718750,-416.4,70.33
206712,2018-06-29 10:32:31.750000,-484.71,70.33
206713,2018-06-29 10:32:31.781250,-509.27,70.33
206714,2018-06-29 10:32:31.812500,-487.56,70.33
206715,2018-06-29 10:32:31.843750,-437.46,70.33
206716,2018-06-29 10:32:31.875000,-381.93,70.33
206717,2018-06-29 10:32:31.906250,-338.67,70.33
206718,2018-06-29 10:32:31.937500,-312.24,70.33
206719,2018-06-29 10:32:31.968750,-292.75,70.33
206720,2018-06-29 10:32:32.000000,-268.28,70.33
206721,2018-06-29 10:32:32.031250,-237.82,70.33
206722,2018-06-29 10:32:32.062500,-209.96,70.33
206723,2018-06-29 10:32:32.093750,-192.28,70.33
206724,2018-06-29 10:32:32.125000,-183.16,70.33
206725,2018-06-29 10:32:32.156250,-172.83,70.33
206726,2018-06-29 10:32:32.187500,-150.76,70.33
206727,2018-06-29 10:32:32.218750,-113.26,70.33
206728,2018-06-29 10:32:32.250000,-68.41,70.33
206729,2018-06-29 10:32:32.281250,-31.97,70.33
206730,2018-06-29 10:32:32.312500,-12.34,70.33
206731,2018-06-29 10:32:32.343750,-2.03,70.33
206732,2018-06-29 10:32:32.375000,10.79,70.33
206733,2018-06-29 10:32:32.406250,25.68,70.33
206734,2018-06-29 10:32:32.437500,33.12,70.33
206735,2018-06-29 10:32:32.468750,32.25,70.33
206736,2018-06-29 10:32:32.500000,33.81,70.33
206737,2018-06-29 10:32:32.531250,45.23,70.3
206738,2018-06-29 10:32:32.562500,64.77,70.3
206739,2018-06-29 10:32:32.593750,89.63,70.3
206740,2018-06-29 10:32:32.625000,117.37,70.3
206741,2018-06-29 10:32:32.656250,143.0,70.3
206742,2018-06-29 10:32:32.687500,163.93,70.3
206743,2018-06-29 10:32:32.718750,181.77,70.3
206744,2018-06-29 10:32:32.750000,196.58,70.3
206745,2018-06-29 10:32:32.781250,207.2,70.3
206746,2018-06-29 10:32:32.812500,215.39,70.3
206747,2018-06-29 10:32:32.843750,222.2,70.3
206748,2018-06-29 10:32:32.875000,225.36,70.3
206749,2018-06-29 10:32:32.906250,225.19,70.3
206750,2018-06-29 10:32:32.937500,225.19,70.3
206751,2018-06-29 10:32:32.968750,223.55,70.3
206752,2018-06-29 10:32:33.000000,212.65,70.3
206753,2018-06-29 10:32:33.031250,189.27,70.3
206754,2018-06-29 10:32:33.062500,158.9,70.3
206755,2018-06-29 10:32:33.093750,128.32,70.3
206756,2018-06-29 10:32:33.125000,100.83,70.3
206757,2018-06-29 10:32:33.156250,78.04,70.3
206758,2018-06-29 10:32:33.187500,60.34,70.3
206759,2018-06-29 10:32:33.218750,45.92,70.3
206760,2018-06-29 10:32:33.250000,31.55,70.3
206761,2018-06-29 10:32:33.281250,14.01,70.3
206762,2018-06-29 10:32:33.312500,-8.7,70.3
206763,2018-06-29 10:32:33.343750,-32.91,70.3
206764,2018-06-29 10:32:33.375000,-45.88,70.3
206765,2018-06-29 10:32:33.406250,-33.94,70.3
206766,2018-06-29 10:32:33.437500,2.95,70.3
206767,2018-06-29 10:32:33.468750,50.02,70.3
206768,2018-06-29 10:32:33.500000,92.58,70.3
206769,2018-06-29 10:32:33.531250,125.89,70.27
206770,2018-06-29 10:32:33.562500,150.22,70.27
206771,2018-06-29 10:32:33.593750,164.98,70.27
206772,2018-06-29 10:32:33.625000,170.93,70.27
206773,2018-06-29 10:32:33.656250,173.27,70.27
206774,2018-06-29 10:32:33.687500,176.98,70.27
206775,2018-06-29 10:32:33.718750,181.3,70.27
206776,2018-06-29 10:32:33.750000,182.96,70.27
206777,2018-06-29 10:32:33.781250,183.01,70.27
206778,2018-06-29 10:32:33.812500,182.54,70.27
206779,2018-06-29 10:32:33.843750,174.88,70.27
206780,2018-06-29 10:32:33.875000,153.21,70.27
206781,2018-06-29 10:32:33.906250,122.77,70.27
206782,2018-06-29 10:32:33.937500,93.77,70.27
206783,2018-06-29 10:32:33.968750,66.18,70.27
206784,2018-06-29 10:32:34.000000,33.15,70.27
206785,2018-06-29 10:32:34.031250,-4.28,70.27
206786,2018-06-29 10:32:34.062500,-35.02,70.27
206787,2018-06-29 10:32:34.093750,-49.28,70.27
206788,2018-06-29 10:32:34.125000,-48.63,70.27
206789,2018-06-29 10:32:34.156250,-43.54,70.27
206790,2018-06-29 10:32:34.187500,-41.88,70.27
206791,2018-06-29 10:32:34.218750,-41.84,70.27
206792,2018-06-29 10:32:34.250000,-34.89,70.27
206793,2018-06-29 10:32:34.281250,-16.37,70.27
206794,2018-06-29 10:32:34.312500,5.55,70.27
206795,2018-06-29 10:32:34.343750,14.27,70.27
206796,2018-06-29 10:32:34.375000,2.27,70.27
206797,2018-06-29 10:32:34.406250,-22.71,70.27
206798,2018-06-29 10:32:34.437500,-51.68,70.27
206799,2018-06-29 10:32:34.468750,-82.64,70.27
206800,2018-06-29 10:32:34.500000,-110.17,70.27
206801,2018-06-29 10:32:34.531250,-122.24,70.25
206802,2018-06-29 10:32:34.562500,-116.73,70.25
206803,2018-06-29 10:32:34.593750,-106.62,70.25
206804,2018-06-29 10:32:34.625000,-102.46,70.25
206805,2018-06-29 10:32:34.656250,-101.24,70.25
206806,2018-06-29 10:32:34.687500,-96.18,70.25
206807,2018-06-29 10:32:34.718750,-85.88,70.25
206808,2018-06-29 10:32:34.750000,-71.93,70.25
206809,2018-06-29 10:32:34.781250,-56.83,70.25
206810,2018-06-29 10:32:34.812500,-45.34,70.25
206811,2018-06-29 10:32:34.843750,-41.71,70.25
206812,2018-06-29 10:32:34.875000,-44.53,70.25
206813,2018-06-29 10:32:34.906250,-47.6,70.25
206814,2018-06-29 10:32:34.937500,-46.33,70.25
206815,2018-06-29 10:32:34.968750,-41.79,70.25
206816,2018-06-29 10:32:35.000000,-39.73,70.25
206817,2018-06-29 10:32:35.031250,-46.02,70.25
206818,2018-06-29 10:32:35.062500,-60.0,70.25
206819,2018-06-29 10:32:35.093750,-70.51,70.25
206820,2018-06-29 10:32:35.125000,-63.14,70.25
206821,2018-06-29 10:32:35.156250,-35.85,70.25
206822,2018-06-29 10:32:35.187500,-3.12,70.25
206823,2018-06-29 10:32:35.218750,19.71,70.25
206824,2018-06-29 10:32:35.250000,31.06,70.25
206825,2018-06-29 10:32:35.281250,37.81,70.25
206826,2018-06-29 10:32:35.312500,42.99,70.25
206827,2018-06-29 10:32:35.343750,45.52,70.25
206828,2018-06-29 10:32:35.375000,46.59,70.25
206829,2018-06-29 10:32:35.406250,48.75,70.25
206830,2018-06-29 10:32:35.437500,51.31,70.25
206831,2018-06-29 10:32:35.468750,52.36,70.25
206832,2018-06-29 10:32:35.500000,52.1,70.25
206833,2018-06-29 10:32:35.531250,49.76,70.27
206834,2018-06-29 10:32:35.562500,41.13,70.27
206835,2018-06-29 10:32:35.593750,24.55,70.27
206836,2018-06-29 10:32:35.625000,5.82,70.27
206837,2018-06-29 10:32:35.656250,-7.28,70.27
206838,2018-06-29 10:32:35.687500,-13.26,70.27
206839,2018-06-29 10:32:35.718750,-16.63,70.27
206840,2018-06-29 10:32:35.750000,-20.15,70.27
206841,2018-06-29 10:32:35.781250,-21.35,70.27
206842,2018-06-29 10:32:35.812500,-18.9,70.27
206843,2018-06-29 10:32:35.843750,-18.23,70.27
206844,2018-06-29 10:32:35.875000,-26.85,70.27
206845,2018-06-29 10:32:35.906250,-46.0,70.27
206846,2018-06-29 10:32:35.937500,-67.94,70.27
206847,2018-06-29 10:32:35.968750,-82.03,70.27
206848,2018-06-29 10:32:36.000000,-84.6,70.27
206849,2018-06-29 10:32:36.031250,-81.11,70.27
206850,2018-06-29 10:32:36.062500,-77.51,70.27
206851,2018-06-29 10:32:36.093750,-73.78,70.27
206852,2018-06-29 10:32:36.125000,-67.82,70.27
206853,2018-06-29 10:32:36.156250,-59.99,70.27
206854,2018-06-29 10:32:36.187500,-52.67,70.27
206855,2018-06-29 10:32:36.218750,-46.57,70.27
206856,2018-06-29 10:32:36.250000,-37.76,70.27
206857,2018-06-29 10:32:36.281250,-21.21,70.27
206858,2018-06-29 10:32:36.312500,1.73,70.27
206859,2018-06-29 10:32:36.343750,23.88,70.27
206860,2018-06-29 10:32:36.375000,42.03,70.27
206861,2018-06-29 10:32:36.406250,60.8,70.27
206862,2018-06-29 10:32:36.437500,85.44,70.27
206863,2018-06-29 10:32:36.468750,114.95,70.27
206864,2018-06-29 10:32:36.500000,142.27,70.27
206865,2018-06-29 10:32:36.531250,159.1,70.27
206866,2018-06-29 10:32:36.562500,160.96,70.27
206867,2018-06-29 10:32:36.593750,149.14,70.27
206868,2018-06-29 10:32:36.625000,128.21,70.27
206869,2018-06-29 10:32:36.656250,103.53,70.27
206870,2018-06-29 10:32:36.687500,81.28,70.27
206871,2018-06-29 10:32:36.718750,70.94,70.27
206872,2018-06-29 10:32:36.750000,84.63,70.27
206873,2018-06-29 10:32:36.781250,125.33,70.27
206874,2018-06-29 10:32:36.812500,175.72,70.27
206875,2018-06-29 10:32:36.843750,212.15,70.27
206876,2018-06-29 10:32:36.875000,229.93,70.27
206877,2018-06-29 10:32:36.906250,238.08,70.27
206878,2018-06-29 10:32:36.937500,236.15,70.27
206879,2018-06-29 10:32:36.968750,218.41,70.27
206880,2018-06-29 10:32:37.000000,194.09,70.27
206881,2018-06-29 10:32:37.031250,181.0,70.27
206882,2018-06-29 10:32:37.062500,182.81,70.27
206883,2018-06-29 10:32:37.093750,188.11,70.27
206884,2018-06-29 10:32:37.125000,185.69,70.27
206885,2018-06-29 10:32:37.156250,169.26,70.27
206886,2018-06-29 10:32:37.187500,136.25,70.27
206887,2018-06-29 10:32:37.218750,93.2,70.27
206888,2018-06-29 10:32:37.250000,55.82,70.27
206889,2018-06-29 10:32:37.281250,34.94,70.27
206890,2018-06-29 10:32:37.312500,27.02,70.27
206891,2018-06-29 10:32:37.343750,22.07,70.27
206892,2018-06-29 10:32:37.375000,15.44,70.27
206893,2018-06-29 10:32:37.406250,8.32,70.27
206894,2018-06-29 10:32:37.437500,1.28,70.27
206895,2018-06-29 10:32:37.468750,-8.46,70.27
206896,2018-06-29 10:32:37.500000,-23.61,70.27
206897,2018-06-29 10:32:37.531250,-43.19,70.33
206898,2018-06-29 10:32:37.562500,-64.24,70.33
206899,2018-06-29 10:32:37.593750,-85.54,70.33
206900,2018-06-29 10:32:37.625000,-107.61,70.33
206901,2018-06-29 10:32:37.656250,-129.74,70.33
206902,2018-06-29 10:32:37.687500,-149.08,70.33
206903,2018-06-29 10:32:37.718750,-164.23,70.33
206904,2018-06-29 10:32:37.750000,-180.26,70.33
206905,2018-06-29 10:32:37.781250,-205.62,70.33
206906,2018-06-29 10:32:37.812500,-237.43,70.33
206907,2018-06-29 10:32:37.843750,-254.87,70.33
206908,2018-06-29 10:32:37.875000,-235.43,70.33
206909,2018-06-29 10:32:37.906250,-176.58,70.33
206910,2018-06-29 10:32:37.937500,-100.1,70.33
206911,2018-06-29 10:32:37.968750,-36.41,70.33
206912,2018-06-29 10:32:38.000000,-1.82,70.33
206913,2018-06-29 10:32:38.031250,9.11,70.33
206914,2018-06-29 10:32:38.062500,8.36,70.33
206915,2018-06-29 10:32:38.093750,-0.22,70.33
206916,2018-06-29 10:32:38.125000,-16.88,70.33
206917,2018-06-29 10:32:38.156250,-37.38,70.33
206918,2018-06-29 10:32:38.187500,-55.71,70.33
206919,2018-06-29 10:32:38.218750,-73.0,70.33
206920,2018-06-29 10:32:38.250000,-98.05,70.33
206921,2018-06-29 10:32:38.281250,-135.46,70.33
206922,2018-06-29 10:32:38.312500,-178.29,70.33
206923,2018-06-29 10:32:38.343750,-218.25,70.33
206924,2018-06-29 10:32:38.375000,-255.6,70.33
206925,2018-06-29 10:32:38.406250,-293.74,70.33
206926,2018-06-29 10:32:38.437500,-332.71,70.33
206927,2018-06-29 10:32:38.468750,-372.02,70.33
206928,2018-06-29 10:32:38.500000,-412.29,70.33
206929,2018-06-29 10:32:38.531250,-452.67,70.37
206930,2018-06-29 10:32:38.562500,-490.24,70.37
206931,2018-06-29 10:32:38.593750,-517.26,70.37
206932,2018-06-29 10:32:38.625000,-518.16,70.37
206933,2018-06-29 10:32:38.656250,-483.51,70.37
206934,2018-06-29 10:32:38.687500,-429.71,70.37
206935,2018-06-29 10:32:38.718750,-387.9,70.37
206936,2018-06-29 10:32:38.750000,-372.41,70.37
206937,2018-06-29 10:32:38.781250,-373.8,70.37
206938,2018-06-29 10:32:38.812500,-379.01,70.37
206939,2018-06-29 10:32:38.843750,-387.08,70.37
206940,2018-06-29 10:32:38.875000,-399.96,70.37
206941,2018-06-29 10:32:38.906250,-401.18,70.37
206942,2018-06-29 10:32:38.937500,-358.92,70.37
206943,2018-06-29 10:32:38.968750,-259.63,70.37
206944,2018-06-29 10:32:39.000000,-124.86,70.37
206945,2018-06-29 10:32:39.031250,11.57,70.37
206946,2018-06-29 10:32:39.062500,126.73,70.37
206947,2018-06-29 10:32:39.093750,209.58,70.37
206948,2018-06-29 10:32:39.125000,258.38,70.37
206949,2018-06-29 10:32:39.156250,279.08,70.37
206950,2018-06-29 10:32:39.187500,277.92,70.37
206951,2018-06-29 10:32:39.218750,256.67,70.37
206952,2018-06-29 10:32:39.250000,219.26,70.37
206953,2018-06-29 10:32:39.281250,177.75,70.37
206954,2018-06-29 10:32:39.312500,146.9,70.37
206955,2018-06-29 10:32:39.343750,135.71,70.37
206956,2018-06-29 10:32:39.375000,145.51,70.37
206957,2018-06-29 10:32:39.406250,173.12,70.37
206958,2018-06-29 10:32:39.437500,214.09,70.37
206959,2018-06-29 10:32:39.468750,257.54,70.37
206960,2018-06-29 10:32:39.500000,279.73,70.37
206961,2018-06-29 10:32:39.531250,260.62,70.38
206962,2018-06-29 10:32:39.562500,208.97,70.38
206963,2018-06-29 10:32:39.593750,152.99,70.38
206964,2018-06-29 10:32:39.625000,109.07,70.38
206965,2018-06-29 10:32:39.656250,75.79,70.38
206966,2018-06-29 10:32:39.687500,46.85,70.38
206967,2018-06-29 10:32:39.718750,12.97,70.38
206968,2018-06-29 10:32:39.750000,-36.86,70.38
206969,2018-06-29 10:32:39.781250,-102.99,70.38
206970,2018-06-29 10:32:39.812500,-166.19,70.38
206971,2018-06-29 10:32:39.843750,-198.27,70.38
206972,2018-06-29 10:32:39.875000,-187.85,70.38
206973,2018-06-29 10:32:39.906250,-151.31,70.38
206974,2018-06-29 10:32:39.937500,-111.62,70.38
206975,2018-06-29 10:32:39.968750,-75.22,70.38
206976,2018-06-29 10:32:40.000000,-37.56,70.38
206977,2018-06-29 10:32:40.031250,3.09,70.38
206978,2018-06-29 10:32:40.062500,47.91,70.38
206979,2018-06-29 10:32:40.093750,101.32,70.38
206980,2018-06-29 10:32:40.125000,163.46,70.38
206981,2018-06-29 10:32:40.156250,225.8,70.38
206982,2018-06-29 10:32:40.187500,278.48,70.38
206983,2018-06-29 10:32:40.218750,317.02,70.38
206984,2018-06-29 10:32:40.250000,340.49,70.38
206985,2018-06-29 10:32:40.281250,348.88,70.38
206986,2018-06-29 10:32:40.312500,344.25,70.38
206987,2018-06-29 10:32:40.343750,331.63,70.38
206988,2018-06-29 10:32:40.375000,316.78,70.38
206989,2018-06-29 10:32:40.406250,302.63,70.38
206990,2018-06-29 10:32:40.437500,288.29,70.38
206991,2018-06-29 10:32:40.468750,270.54,70.38
206992,2018-06-29 10:32:40.500000,243.82,70.38
206993,2018-06-29 10:32:40.531250,201.76,70.38
206994,2018-06-29 10:32:40.562500,144.4,70.38
206995,2018-06-29 10:32:40.593750,78.41,70.38
206996,2018-06-29 10:32:40.625000,8.02,70.38
206997,2018-06-29 10:32:40.656250,-61.48,70.38
206998,2018-06-29 10:32:40.687500,-110.15,70.38
206999,2018-06-29 10:32:40.718750,-109.93,70.38
207000,2018-06-29 10:32:40.750000,-51.76,70.38
207001,2018-06-29 10:32:40.781250,42.77,70.38
207002,2018-06-29 10:32:40.812500,138.32,70.38
207003,2018-06-29 10:32:40.843750,208.49,70.38
207004,2018-06-29 10:32:40.875000,243.13,70.38
207005,2018-06-29 10:32:40.906250,242.52,70.38
207006,2018-06-29 10:32:40.937500,212.06,70.38
207007,2018-06-29 10:32:40.968750,159.77,70.38
207008,2018-06-29 10:32:41.000000,94.78,70.38
207009,2018-06-29 10:32:41.031250,27.12,70.38
207010,2018-06-29 10:32:41.062500,-32.96,70.38
207011,2018-06-29 10:32:41.093750,-78.23,70.38
207012,2018-06-29 10:32:41.125000,-107.53,70.38
207013,2018-06-29 10:32:41.156250,-124.44,70.38
207014,2018-06-29 10:32:41.187500,-132.2,70.38
207015,2018-06-29 10:32:41.218750,-131.2,70.38
207016,2018-06-29 10:32:41.250000,-121.36,70.38
207017,2018-06-29 10:32:41.281250,-104.28,70.38
207018,2018-06-29 10:32:41.312500,-80.9,70.38
207019,2018-06-29 10:32:41.343750,-50.37,70.38
207020,2018-06-29 10:32:41.375000,-13.28,70.38
207021,2018-06-29 10:32:41.406250,25.51,70.38
207022,2018-06-29 10:32:41.437500,58.48,70.38
207023,2018-06-29 10:32:41.468750,81.07,70.38
207024,2018-06-29 10:32:41.500000,95.18,70.38
207025,2018-06-29 10:32:41.531250,104.26,70.33
207026,2018-06-29 10:32:41.562500,104.75,70.33
207027,2018-06-29 10:32:41.593750,87.65,70.33
207028,2018-06-29 10:32:41.625000,53.16,70.33
207029,2018-06-29 10:32:41.656250,18.14,70.33
207030,2018-06-29 10:32:41.687500,1.38,70.33
207031,2018-06-29 10:32:41.718750,6.32,70.33
207032,2018-06-29 10:32:41.750000,25.37,70.33
207033,2018-06-29 10:32:41.781250,53.29,70.33
207034,2018-06-29 10:32:41.812500,87.48,70.33
207035,2018-06-29 10:32:41.843750,121.09,70.33
207036,2018-06-29 10:32:41.875000,144.36,70.33
207037,2018-06-29 10:32:41.906250,150.21,70.33
207038,2018-06-29 10:32:41.937500,138.48,70.33
207039,2018-06-29 10:32:41.968750,116.98,70.33
207040,2018-06-29 10:32:42.000000,95.47,70.33
207041,2018-06-29 10:32:42.031250,77.84,70.33
207042,2018-06-29 10:32:42.062500,62.49,70.33
207043,2018-06-29 10:32:42.093750,47.07,70.33
207044,2018-06-29 10:32:42.125000,30.79,70.33
207045,2018-06-29 10:32:42.156250,15.68,70.33
207046,2018-06-29 10:32:42.187500,5.54,70.33
207047,2018-06-29 10:32:42.218750,0.62,70.33
207048,2018-06-29 10:32:42.250000,-2.97,70.33
207049,2018-06-29 10:32:42.281250,-6.94,70.33
207050,2018-06-29 10:32:42.312500,-9.9,70.33
207051,2018-06-29 10:32:42.343750,-14.37,70.33
207052,2018-06-29 10:32:42.375000,-28.6,70.33
207053,2018-06-29 10:32:42.406250,-59.84,70.33
207054,2018-06-29 10:32:42.437500,-108.7,70.33
207055,2018-06-29 10:32:42.468750,-169.72,70.33
207056,2018-06-29 10:32:42.500000,-235.92,70.33
207057,2018-06-29 10:32:42.531250,-303.37,70.28
207058,2018-06-29 10:32:42.562500,-366.31,70.28
207059,2018-06-29 10:32:42.593750,-405.83,70.28
207060,2018-06-29 10:32:42.625000,-395.58,70.28
207061,2018-06-29 10:32:42.656250,-328.42,70.28
207062,2018-06-29 10:32:42.687500,-227.9,70.28
207063,2018-06-29 10:32:42.718750,-127.55,70.28
207064,2018-06-29 10:32:42.750000,-46.6,70.28
207065,2018-06-29 10:32:42.781250,13.4,70.28
207066,2018-06-29 10:32:42.812500,59.36,70.28
207067,2018-06-29 10:32:42.843750,98.77,70.28
207068,2018-06-29 10:32:42.875000,135.48,70.28
207069,2018-06-29 10:32:42.906250,167.94,70.28
207070,2018-06-29 10:32:42.937500,190.83,70.28
207071,2018-06-29 10:32:42.968750,197.93,70.28
207072,2018-06-29 10:32:43.000000,187.85,70.28
207073,2018-06-29 10:32:43.031250,167.78,70.28
207074,2018-06-29 10:32:43.062500,146.8,70.28
207075,2018-06-29 10:32:43.093750,131.88,70.28
207076,2018-06-29 10:32:43.125000,125.64,70.28
207077,2018-06-29 10:32:43.156250,126.1,70.28
207078,2018-06-29 10:32:43.187500,124.52,70.28
207079,2018-06-29 10:32:43.218750,111.85,70.28
207080,2018-06-29 10:32:43.250000,86.01,70.28
207081,2018-06-29 10:32:43.281250,50.38,70.28
207082,2018-06-29 10:32:43.312500,11.83,70.28
207083,2018-06-29 10:32:43.343750,-25.17,70.28
207084,2018-06-29 10:32:43.375000,-51.59,70.28
207085,2018-06-29 10:32:43.406250,-69.54,70.28
207086,2018-06-29 10:32:43.437500,-83.91,70.28
207087,2018-06-29 10:32:43.468750,-97.23,70.28
207088,2018-06-29 10:32:43.500000,-99.83,70.28
207089,2018-06-29 10:32:43.531250,-85.49,70.22
207090,2018-06-29 10:32:43.562500,-72.36,70.22
207091,2018-06-29 10:32:43.593750,-65.42,70.22
207092,2018-06-29 10:32:43.625000,-52.28,70.22
207093,2018-06-29 10:32:43.656250,0.07,70.22
207094,2018-06-29 10:32:43.687500,68.62,70.22
207095,2018-06-29 10:32:43.718750,118.0,70.22
207096,2018-06-29 10:32:43.750000,146.23,70.22
207097,2018-06-29 10:32:43.781250,191.6,70.22
207098,2018-06-29 10:32:43.812500,280.72,70.22
207099,2018-06-29 10:32:43.843750,389.68,70.22
207100,2018-06-29 10:32:43.875000,518.52,70.22
207101,2018-06-29 10:32:43.906250,496.86,70.22
207102,2018-06-29 10:32:43.937500,242.94,70.22
207103,2018-06-29 10:32:43.968750,-19.5,70.22
207104,2018-06-29 10:32:44.000000,-203.33,70.22
207105,2018-06-29 10:32:44.031250,-312.74,70.22
207106,2018-06-29 10:32:44.062500,-344.67,70.22
207107,2018-06-29 10:32:44.093750,-316.7,70.22
207108,2018-06-29 10:32:44.125000,-289.15,70.22
207109,2018-06-29 10:32:44.156250,-276.85,70.22
207110,2018-06-29 10:32:44.187500,-273.79,70.22
207111,2018-06-29 10:32:44.218750,-248.24,70.22
207112,2018-06-29 10:32:44.250000,-210.27,70.22
207113,2018-06-29 10:32:44.281250,-185.89,70.22
207114,2018-06-29 10:32:44.312500,-179.98,70.22
207115,2018-06-29 10:32:44.343750,-174.61,70.22
207116,2018-06-29 10:32:44.375000,-152.05,70.22
207117,2018-06-29 10:32:44.406250,-124.66,70.22
207118,2018-06-29 10:32:44.437500,-100.79,70.22
207119,2018-06-29 10:32:44.468750,-81.15,70.22
207120,2018-06-29 10:32:44.500000,-45.61,70.22
207121,2018-06-29 10:32:44.531250,-3.62,70.17
207122,2018-06-29 10:32:44.562500,24.39,70.17
207123,2018-06-29 10:32:44.593750,51.14,70.17
207124,2018-06-29 10:32:44.625000,91.01,70.17
207125,2018-06-29 10:32:44.656250,139.09,70.17
207126,2018-06-29 10:32:44.687500,179.95,70.17
207127,2018-06-29 10:32:44.718750,208.95,70.17
207128,2018-06-29 10:32:44.750000,227.42,70.17
207129,2018-06-29 10:32:44.781250,229.04,70.17
207130,2018-06-29 10:32:44.812500,206.09,70.17
207131,2018-06-29 10:32:44.843750,168.36,70.17
207132,2018-06-29 10:32:44.875000,135.5,70.17
207133,2018-06-29 10:32:44.906250,117.82,70.17
207134,2018-06-29 10:32:44.937500,112.34,70.17
207135,2018-06-29 10:32:44.968750,112.19,70.17
207136,2018-06-29 10:32:45.000000,113.49,70.17
207137,2018-06-29 10:32:45.031250,108.49,70.17
207138,2018-06-29 10:32:45.062500,89.33,70.17
207139,2018-06-29 10:32:45.093750,59.58,70.17
207140,2018-06-29 10:32:45.125000,35.65,70.17
207141,2018-06-29 10:32:45.156250,31.19,70.17
207142,2018-06-29 10:32:45.187500,44.46,70.17
207143,2018-06-29 10:32:45.218750,60.13,70.17
207144,2018-06-29 10:32:45.250000,60.84,70.17
207145,2018-06-29 10:32:45.281250,40.15,70.17
207146,2018-06-29 10:32:45.312500,3.8,70.17
207147,2018-06-29 10:32:45.343750,-35.66,70.17
207148,2018-06-29 10:32:45.375000,-62.85,70.17
207149,2018-06-29 10:32:45.406250,-67.29,70.17
207150,2018-06-29 10:32:45.437500,-52.48,70.17
207151,2018-06-29 10:32:45.468750,-31.28,70.17
207152,2018-06-29 10:32:45.500000,-13.61,70.17
207153,2018-06-29 10:32:45.531250,-4.92,70.13
207154,2018-06-29 10:32:45.562500,-6.69,70.13
207155,2018-06-29 10:32:45.593750,-10.82,70.13
207156,2018-06-29 10:32:45.625000,-5.9,70.13
207157,2018-06-29 10:32:45.656250,8.26,70.13
207158,2018-06-29 10:32:45.687500,23.02,70.13
207159,2018-06-29 10:32:45.718750,34.65,70.13
207160,2018-06-29 10:32:45.750000,43.19,70.13
207161,2018-06-29 10:32:45.781250,43.43,70.13
207162,2018-06-29 10:32:45.812500,30.66,70.13
207163,2018-06-29 10:32:45.843750,11.2,70.13
207164,2018-06-29 10:32:45.875000,-4.99,70.13
207165,2018-06-29 10:32:45.906250,-20.19,70.13
207166,2018-06-29 10:32:45.937500,-45.79,70.13
207167,2018-06-29 10:32:45.968750,-83.92,70.13
207168,2018-06-29 10:32:46.000000,-123.86,70.13
207169,2018-06-29 10:32:46.031250,-157.56,70.13
207170,2018-06-29 10:32:46.062500,-187.61,70.13
207171,2018-06-29 10:32:46.093750,-217.18,70.13
207172,2018-06-29 10:32:46.125000,-242.93,70.13
207173,2018-06-29 10:32:46.156250,-260.88,70.13
207174,2018-06-29 10:32:46.187500,-268.58,70.13
207175,2018-06-29 10:32:46.218750,-261.09,70.13
207176,2018-06-29 10:32:46.250000,-234.39,70.13
207177,2018-06-29 10:32:46.281250,-193.46,70.13
207178,2018-06-29 10:32:46.312500,-151.48,70.13
207179,2018-06-29 10:32:46.343750,-120.67,70.13
207180,2018-06-29 10:32:46.375000,-106.33,70.13
207181,2018-06-29 10:32:46.406250,-107.14,70.13
207182,2018-06-29 10:32:46.437500,-115.2,70.13
207183,2018-06-29 10:32:46.468750,-116.92,70.13
207184,2018-06-29 10:32:46.500000,-105.11,70.13
207185,2018-06-29 10:32:46.531250,-91.3,70.08
207186,2018-06-29 10:32:46.562500,-93.31,70.08
207187,2018-06-29 10:32:46.593750,-111.72,70.08
207188,2018-06-29 10:32:46.625000,-131.4,70.08
207189,2018-06-29 10:32:46.656250,-143.12,70.08
207190,2018-06-29 10:32:46.687500,-150.23,70.08
207191,2018-06-29 10:32:46.718750,-155.14,70.08
207192,2018-06-29 10:32:46.750000,-150.77,70.08
207193,2018-06-29 10:32:46.781250,-129.18,70.08
207194,2018-06-29 10:32:46.812500,-92.32,70.08
207195,2018-06-29 10:32:46.843750,-47.93,70.08
207196,2018-06-29 10:32:46.875000,-0.35,70.08
207197,2018-06-29 10:32:46.906250,46.09,70.08
207198,2018-06-29 10:32:46.937500,82.24,70.08
207199,2018-06-29 10:32:46.968750,103.88,70.08
207200,2018-06-29 10:32:47.000000,118.09,70.08
207201,2018-06-29 10:32:47.031250,129.48,70.08
207202,2018-06-29 10:32:47.062500,129.62,70.08
207203,2018-06-29 10:32:47.093750,108.88,70.08
207204,2018-06-29 10:32:47.125000,72.79,70.08
207205,2018-06-29 10:32:47.156250,41.45,70.08
207206,2018-06-29 10:32:47.187500,28.59,70.08
207207,2018-06-29 10:32:47.218750,19.4,70.08
207208,2018-06-29 10:32:47.250000,-18.3,70.08
207209,2018-06-29 10:32:47.281250,-89.83,70.08
207210,2018-06-29 10:32:47.312500,-154.72,70.08
207211,2018-06-29 10:32:47.343750,-168.11,70.08
207212,2018-06-29 10:32:47.375000,-127.99,70.08
207213,2018-06-29 10:32:47.406250,-65.72,70.08
207214,2018-06-29 10:32:47.437500,-6.21,70.08
207215,2018-06-29 10:32:47.468750,42.1,70.08
207216,2018-06-29 10:32:47.500000,73.39,70.08
207217,2018-06-29 10:32:47.531250,84.92,70.03
207218,2018-06-29 10:32:47.562500,83.93,70.03
207219,2018-06-29 10:32:47.593750,79.03,70.03
207220,2018-06-29 10:32:47.625000,70.29,70.03
207221,2018-06-29 10:32:47.656250,53.32,70.03
207222,2018-06-29 10:32:47.687500,30.1,70.03
207223,2018-06-29 10:32:47.718750,11.79,70.03
207224,2018-06-29 10:32:47.750000,6.98,70.03
207225,2018-06-29 10:32:47.781250,10.93,70.03
207226,2018-06-29 10:32:47.812500,15.02,70.03
207227,2018-06-29 10:32:47.843750,20.77,70.03
207228,2018-06-29 10:32:47.875000,33.18,70.03
207229,2018-06-29 10:32:47.906250,47.19,70.03
207230,2018-06-29 10:32:47.937500,50.04,70.03
207231,2018-06-29 10:32:47.968750,32.37,70.03
207232,2018-06-29 10:32:48.000000,-3.94,70.03
207233,2018-06-29 10:32:48.031250,-46.24,70.03
207234,2018-06-29 10:32:48.062500,-82.41,70.03
207235,2018-06-29 10:32:48.093750,-111.7,70.03
207236,2018-06-29 10:32:48.125000,-140.26,70.03
207237,2018-06-29 10:32:48.156250,-167.63,70.03
207238,2018-06-29 10:32:48.187500,-180.47,70.03
207239,2018-06-29 10:32:48.218750,-162.5,70.03
207240,2018-06-29 10:32:48.250000,-113.7,70.03
207241,2018-06-29 10:32:48.281250,-54.67,70.03
207242,2018-06-29 10:32:48.312500,-6.75,70.03
207243,2018-06-29 10:32:48.343750,25.08,70.03
207244,2018-06-29 10:32:48.375000,46.22,70.03
207245,2018-06-29 10:32:48.406250,59.58,70.03
207246,2018-06-29 10:32:48.437500,64.81,70.03
207247,2018-06-29 10:32:48.468750,63.78,70.03
207248,2018-06-29 10:32:48.500000,60.94,70.03
207249,2018-06-29 10:32:48.531250,59.66,69.98
207250,2018-06-29 10:32:48.562500,61.27,69.98
207251,2018-06-29 10:32:48.593750,65.88,69.98
207252,2018-06-29 10:32:48.625000,71.77,69.98
207253,2018-06-29 10:32:48.656250,76.02,69.98
207254,2018-06-29 10:32:48.687500,76.87,69.98
207255,2018-06-29 10:32:48.718750,74.66,69.98
207256,2018-06-29 10:32:48.750000,70.71,69.98
207257,2018-06-29 10:32:48.781250,66.13,69.98
207258,2018-06-29 10:32:48.812500,61.08,69.98
207259,2018-06-29 10:32:48.843750,54.92,69.98
207260,2018-06-29 10:32:48.875000,46.81,69.98
207261,2018-06-29 10:32:48.906250,35.64,69.98
207262,2018-06-29 10:32:48.937500,21.04,69.98
207263,2018-06-29 10:32:48.968750,4.94,69.98
207264,2018-06-29 10:32:49.000000,-10.69,69.98
207265,2018-06-29 10:32:49.031250,-28.24,69.98
207266,2018-06-29 10:32:49.062500,-51.47,69.98
207267,2018-06-29 10:32:49.093750,-73.98,69.98
207268,2018-06-29 10:32:49.125000,-76.85,69.98
207269,2018-06-29 10:32:49.156250,-47.65,69.98
207270,2018-06-29 10:32:49.187500,1.89,69.98
207271,2018-06-29 10:32:49.218750,47.69,69.98
207272,2018-06-29 10:32:49.250000,78.21,69.98
207273,2018-06-29 10:32:49.281250,97.21,69.98
207274,2018-06-29 10:32:49.312500,108.6,69.98
207275,2018-06-29 10:32:49.343750,112.33,69.98
207276,2018-06-29 10:32:49.375000,111.46,69.98
207277,2018-06-29 10:32:49.406250,111.87,69.98
207278,2018-06-29 10:32:49.437500,115.14,69.98
207279,2018-06-29 10:32:49.468750,118.31,69.98
207280,2018-06-29 10:32:49.500000,120.04,69.98
207281,2018-06-29 10:32:49.531250,121.29,69.93
207282,2018-06-29 10:32:49.562500,119.9,69.93
207283,2018-06-29 10:32:49.593750,111.62,69.93
207284,2018-06-29 10:32:49.625000,97.57,69.93
207285,2018-06-29 10:32:49.656250,84.48,69.93
207286,2018-06-29 10:32:49.687500,75.77,69.93
207287,2018-06-29 10:32:49.718750,67.78,69.93
207288,2018-06-29 10:32:49.750000,57.07,69.93
207289,2018-06-29 10:32:49.781250,45.94,69.93
207290,2018-06-29 10:32:49.812500,37.72,69.93
207291,2018-06-29 10:32:49.843750,30.85,69.93
207292,2018-06-29 10:32:49.875000,21.72,69.93
207293,2018-06-29 10:32:49.906250,9.97,69.93
207294,2018-06-29 10:32:49.937500,-2.1,69.93
207295,2018-06-29 10:32:49.968750,-13.27,69.93
207296,2018-06-29 10:32:50.000000,-23.72,69.93
207297,2018-06-29 10:32:50.031250,-34.53,69.93
207298,2018-06-29 10:32:50.062500,-46.87,69.93
207299,2018-06-29 10:32:50.093750,-55.1,69.93
207300,2018-06-29 10:32:50.125000,-43.78,69.93
207301,2018-06-29 10:32:50.156250,-3.07,69.93
207302,2018-06-29 10:32:50.187500,55.56,69.93
207303,2018-06-29 10:32:50.218750,109.84,69.93
207304,2018-06-29 10:32:50.250000,146.05,69.93
207305,2018-06-29 10:32:50.281250,160.62,69.93
207306,2018-06-29 10:32:50.312500,155.9,69.93
207307,2018-06-29 10:32:50.343750,140.54,69.93
207308,2018-06-29 10:32:50.375000,123.49,69.93
207309,2018-06-29 10:32:50.406250,105.66,69.93
207310,2018-06-29 10:32:50.437500,84.43,69.93
207311,2018-06-29 10:32:50.468750,63.5,69.93
207312,2018-06-29 10:32:50.500000,50.78,69.93
207313,2018-06-29 10:32:50.531250,49.07,69.85
207314,2018-06-29 10:32:50.562500,53.33,69.85
207315,2018-06-29 10:32:50.593750,56.58,69.85
207316,2018-06-29 10:32:50.625000,55.45,69.85
207317,2018-06-29 10:32:50.656250,49.86,69.85
207318,2018-06-29 10:32:50.687500,40.99,69.85
207319,2018-06-29 10:32:50.718750,31.58,69.85
207320,2018-06-29 10:32:50.750000,25.2,69.85
207321,2018-06-29 10:32:50.781250,22.48,69.85
207322,2018-06-29 10:32:50.812500,20.4,69.85
207323,2018-06-29 10:32:50.843750,19.03,69.85
207324,2018-06-29 10:32:50.875000,25.68,69.85
207325,2018-06-29 10:32:50.906250,47.04,69.85
207326,2018-06-29 10:32:50.937500,79.66,69.85
207327,2018-06-29 10:32:50.968750,111.86,69.85
207328,2018-06-29 10:32:51.000000,132.57,69.85
207329,2018-06-29 10:32:51.031250,136.95,69.85
207330,2018-06-29 10:32:51.062500,127.46,69.85
207331,2018-06-29 10:32:51.093750,112.55,69.85
207332,2018-06-29 10:32:51.125000,101.48,69.85
207333,2018-06-29 10:32:51.156250,97.85,69.85
207334,2018-06-29 10:32:51.187500,98.1,69.85
207335,2018-06-29 10:32:51.218750,93.94,69.85
207336,2018-06-29 10:32:51.250000,76.12,69.85
207337,2018-06-29 10:32:51.281250,42.33,69.85
207338,2018-06-29 10:32:51.312500,1.72,69.85
207339,2018-06-29 10:32:51.343750,-35.28,69.85
207340,2018-06-29 10:32:51.375000,-69.41,69.85
207341,2018-06-29 10:32:51.406250,-102.39,69.85
207342,2018-06-29 10:32:51.437500,-121.28,69.85
207343,2018-06-29 10:32:51.468750,-108.35,69.85
207344,2018-06-29 10:32:51.500000,-62.03,69.85
207345,2018-06-29 10:32:51.531250,-1.58,69.78
207346,2018-06-29 10:32:51.562500,45.77,69.78
207347,2018-06-29 10:32:51.593750,66.7,69.78
207348,2018-06-29 10:32:51.625000,74.66,69.78
207349,2018-06-29 10:32:51.656250,92.42,69.78
207350,2018-06-29 10:32:51.687500,123.56,69.78
207351,2018-06-29 10:32:51.718750,151.97,69.78
207352,2018-06-29 10:32:51.750000,161.2,69.78
207353,2018-06-29 10:32:51.781250,145.58,69.78
207354,2018-06-29 10:32:51.812500,111.55,69.78
207355,2018-06-29 10:32:51.843750,73.79,69.78
207356,2018-06-29 10:32:51.875000,44.38,69.78
207357,2018-06-29 10:32:51.906250,24.64,69.78
207358,2018-06-29 10:32:51.937500,8.94,69.78
207359,2018-06-29 10:32:51.968750,-6.49,69.78
207360,2018-06-29 10:32:52.000000,-20.05,69.78
207361,2018-06-29 10:32:52.031250,-28.18,69.78
207362,2018-06-29 10:32:52.062500,-30.25,69.78
207363,2018-06-29 10:32:52.093750,-29.09,69.78
207364,2018-06-29 10:32:52.125000,-27.26,69.78
207365,2018-06-29 10:32:52.156250,-25.15,69.78
207366,2018-06-29 10:32:52.187500,-23.37,69.78
207367,2018-06-29 10:32:52.218750,-24.78,69.78
207368,2018-06-29 10:32:52.250000,-32.48,69.78
207369,2018-06-29 10:32:52.281250,-46.44,69.78
207370,2018-06-29 10:32:52.312500,-64.33,69.78
207371,2018-06-29 10:32:52.343750,-85.14,69.78
207372,2018-06-29 10:32:52.375000,-109.76,69.78
207373,2018-06-29 10:32:52.406250,-137.91,69.78
207374,2018-06-29 10:32:52.437500,-167.73,69.78
207375,2018-06-29 10:32:52.468750,-199.03,69.78
207376,2018-06-29 10:32:52.500000,-233.13,69.78
207377,2018-06-29 10:32:52.531250,-269.72,69.77
207378,2018-06-29 10:32:52.562500,-308.46,69.77
207379,2018-06-29 10:32:52.593750,-349.73,69.77
