,Time,ppg,hr
211200,2018-06-29 10:34:52.000000,-1.35,73.5
211201,2018-06-29 10:34:52.031250,-23.78,73.5
211202,2018-06-29 10:34:52.062500,-33.73,73.5
211203,2018-06-29 10:34:52.093750,-25.46,73.5
211204,2018-06-29 10:34:52.125000,-6.73,73.5
211205,2018-06-29 10:34:52.156250,11.82,73.5
211206,2018-06-29 10:34:52.187500,27.54,73.5
211207,2018-06-29 10:34:52.218750,41.69,73.5
211208,2018-06-29 10:34:52.250000,53.75,73.5
211209,2018-06-29 10:34:52.281250,63.0,73.5
211210,2018-06-29 10:34:52.312500,68.99,73.5
211211,2018-06-29 10:34:52.343750,69.2,73.5
211212,2018-06-29 10:34:52.375000,61.9,73.5
211213,2018-06-29 10:34:52.406250,51.93,73.5
211214,2018-06-29 10:34:52.437500,48.09,73.5
211215,2018-06-29 10:34:52.468750,52.58,73.5
211216,2018-06-29 10:34:52.500000,58.08,73.5
211217,2018-06-29 10:34:52.531250,58.06,72.9
211218,2018-06-29 10:34:52.562500,54.32,72.9
211219,2018-06-29 10:34:52.593750,51.44,72.9
211220,2018-06-29 10:34:52.625000,50.07,72.9
211221,2018-06-29 10:34:52.656250,49.73,72.9
211222,2018-06-29 10:34:52.687500,52.87,72.9
211223,2018-06-29 10:34:52.718750,60.8,72.9
211224,2018-06-29 10:34:52.750000,68.59,72.9
211225,2018-06-29 10:34:52.781250,68.46,72.9
211226,2018-06-29 10:34:52.812500,57.75,72.9
211227,2018-06-29 10:34:52.843750,41.03,72.9
211228,2018-06-29 10:34:52.875000,22.95,72.9
211229,2018-06-29 10:34:52.906250,1.65,72.9
211230,2018-06-29 10:34:52.937500,-27.28,72.9
211231,2018-06-29 10:34:52.968750,-63.71,72.9
211232,2018-06-29 10:34:53.000000,-102.89,72.9
211233,2018-06-29 10:34:53.031250,-138.07,72.9
211234,2018-06-29 10:34:53.062500,-162.4,72.9
211235,2018-06-29 10:34:53.093750,-173.45,72.9
211236,2018-06-29 10:34:53.125000,-173.33,72.9
211237,2018-06-29 10:34:53.156250,-161.51,72.9
211238,2018-06-29 10:34:53.187500,-135.95,72.9
211239,2018-06-29 10:34:53.218750,-103.66,72.9
211240,2018-06-29 10:34:53.250000,-77.93,72.9
211241,2018-06-29 10:34:53.281250,-62.65,72.9
211242,2018-06-29 10:34:53.312500,-50.15,72.9
211243,2018-06-29 10:34:53.343750,-35.04,72.9
211244,2018-06-29 10:34:53.375000,-20.88,72.9
211245,2018-06-29 10:34:53.406250,-12.96,72.9
211246,2018-06-29 10:34:53.437500,-12.29,72.9
211247,2018-06-29 10:34:53.468750,-17.49,72.9
211248,2018-06-29 10:34:53.500000,-28.14,72.9
211249,2018-06-29 10:34:53.531250,-44.13,72.3
211250,2018-06-29 10:34:53.562500,-63.74,72.3
211251,2018-06-29 10:34:53.593750,-83.64,72.3
211252,2018-06-29 10:34:53.625000,-99.3,72.3
211253,2018-06-29 10:34:53.656250,-105.13,72.3
211254,2018-06-29 10:34:53.687500,-97.12,72.3
211255,2018-06-29 10:34:53.718750,-76.56,72.3
211256,2018-06-29 10:34:53.750000,-49.54,72.3
211257,2018-06-29 10:34:53.781250,-23.09,72.3
211258,2018-06-29 10:34:53.812500,-2.38,72.3
211259,2018-06-29 10:34:53.843750,10.84,72.3
211260,2018-06-29 10:34:53.875000,17.22,72.3
211261,2018-06-29 10:34:53.906250,15.64,72.3
211262,2018-06-29 10:34:53.937500,2.2,72.3
211263,2018-06-29 10:34:53.968750,-24.98,72.3
211264,2018-06-29 10:34:54.000000,-61.7,72.3
211265,2018-06-29 10:34:54.031250,-99.0,72.3
211266,2018-06-29 10:34:54.062500,-127.04,72.3
211267,2018-06-29 10:34:54.093750,-141.2,72.3
211268,2018-06-29 10:34:54.125000,-146.46,72.3
211269,2018-06-29 10:34:54.156250,-150.76,72.3
211270,2018-06-29 10:34:54.187500,-151.87,72.3
211271,2018-06-29 10:34:54.218750,-138.34,72.3
211272,2018-06-29 10:34:54.250000,-106.03,72.3
211273,2018-06-29 10:34:54.281250,-64.82,72.3
211274,2018-06-29 10:34:54.312500,-26.38,72.3
211275,2018-06-29 10:34:54.343750,5.54,72.3
211276,2018-06-29 10:34:54.375000,31.59,72.3
211277,2018-06-29 10:34:54.406250,52.08,72.3
211278,2018-06-29 10:34:54.437500,67.86,72.3
211279,2018-06-29 10:34:54.468750,80.84,72.3
211280,2018-06-29 10:34:54.500000,92.35,72.3
211281,2018-06-29 10:34:54.531250,102.77,71.67
211282,2018-06-29 10:34:54.562500,112.54,71.67
211283,2018-06-29 10:34:54.593750,121.37,71.67
211284,2018-06-29 10:34:54.625000,127.04,71.67
211285,2018-06-29 10:34:54.656250,127.31,71.67
211286,2018-06-29 10:34:54.687500,123.19,71.67
211287,2018-06-29 10:34:54.718750,118.43,71.67
211288,2018-06-29 10:34:54.750000,115.42,71.67
211289,2018-06-29 10:34:54.781250,112.98,71.67
211290,2018-06-29 10:34:54.812500,108.11,71.67
211291,2018-06-29 10:34:54.843750,100.92,71.67
211292,2018-06-29 10:34:54.875000,96.15,71.67
211293,2018-06-29 10:34:54.906250,97.06,71.67
211294,2018-06-29 10:34:54.937500,100.25,71.67
211295,2018-06-29 10:34:54.968750,99.37,71.67
211296,2018-06-29 10:34:55.000000,91.3,71.67
211297,2018-06-29 10:34:55.031250,75.86,71.67
211298,2018-06-29 10:34:55.062500,53.47,71.67
211299,2018-06-29 10:34:55.093750,24.99,71.67
211300,2018-06-29 10:34:55.125000,-8.85,71.67
211301,2018-06-29 10:34:55.156250,-46.9,71.67
211302,2018-06-29 10:34:55.187500,-82.68,71.67
211303,2018-06-29 10:34:55.218750,-105.02,71.67
211304,2018-06-29 10:34:55.250000,-109.71,71.67
211305,2018-06-29 10:34:55.281250,-104.13,71.67
211306,2018-06-29 10:34:55.312500,-95.72,71.67
211307,2018-06-29 10:34:55.343750,-84.41,71.67
211308,2018-06-29 10:34:55.375000,-68.72,71.67
211309,2018-06-29 10:34:55.406250,-51.07,71.67
211310,2018-06-29 10:34:55.437500,-35.23,71.67
211311,2018-06-29 10:34:55.468750,-22.87,71.67
211312,2018-06-29 10:34:55.500000,-12.62,71.67
211313,2018-06-29 10:34:55.531250,-2.28,71.02
211314,2018-06-29 10:34:55.562500,7.98,71.02
211315,2018-06-29 10:34:55.593750,15.5,71.02
211316,2018-06-29 10:34:55.625000,17.19,71.02
211317,2018-06-29 10:34:55.656250,11.12,71.02
211318,2018-06-29 10:34:55.687500,-1.58,71.02
211319,2018-06-29 10:34:55.718750,-17.12,71.02
211320,2018-06-29 10:34:55.750000,-33.15,71.02
211321,2018-06-29 10:34:55.781250,-50.46,71.02
211322,2018-06-29 10:34:55.812500,-69.73,71.02
211323,2018-06-29 10:34:55.843750,-89.46,71.02
211324,2018-06-29 10:34:55.875000,-107.96,71.02
211325,2018-06-29 10:34:55.906250,-124.78,71.02
211326,2018-06-29 10:34:55.937500,-139.94,71.02
211327,2018-06-29 10:34:55.968750,-153.39,71.02
211328,2018-06-29 10:34:56.000000,-165.12,71.02
211329,2018-06-29 10:34:56.031250,-173.31,71.02
211330,2018-06-29 10:34:56.062500,-170.47,71.02
211331,2018-06-29 10:34:56.093750,-145.64,71.02
211332,2018-06-29 10:34:56.125000,-97.3,71.02
211333,2018-06-29 10:34:56.156250,-39.85,71.02
211334,2018-06-29 10:34:56.187500,10.1,71.02
211335,2018-06-29 10:34:56.218750,47.75,71.02
211336,2018-06-29 10:34:56.250000,74.19,71.02
211337,2018-06-29 10:34:56.281250,87.83,71.02
211338,2018-06-29 10:34:56.312500,88.98,71.02
211339,2018-06-29 10:34:56.343750,83.26,71.02
211340,2018-06-29 10:34:56.375000,76.15,71.02
211341,2018-06-29 10:34:56.406250,70.95,71.02
211342,2018-06-29 10:34:56.437500,71.19,71.02
211343,2018-06-29 10:34:56.468750,77.52,71.02
211344,2018-06-29 10:34:56.500000,85.27,71.02
211345,2018-06-29 10:34:56.531250,89.84,70.4
211346,2018-06-29 10:34:56.562500,90.63,70.4
211347,2018-06-29 10:34:56.593750,88.53,70.4
211348,2018-06-29 10:34:56.625000,83.94,70.4
211349,2018-06-29 10:34:56.656250,78.16,70.4
211350,2018-06-29 10:34:56.687500,73.06,70.4
211351,2018-06-29 10:34:56.718750,68.78,70.4
211352,2018-06-29 10:34:56.750000,62.99,70.4
211353,2018-06-29 10:34:56.781250,52.63,70.4
211354,2018-06-29 10:34:56.812500,37.22,70.4
211355,2018-06-29 10:34:56.843750,20.0,70.4
211356,2018-06-29 10:34:56.875000,4.46,70.4
211357,2018-06-29 10:34:56.906250,-10.19,70.4
211358,2018-06-29 10:34:56.937500,-28.54,70.4
211359,2018-06-29 10:34:56.968750,-51.89,70.4
211360,2018-06-29 10:34:57.000000,-72.0,70.4
211361,2018-06-29 10:34:57.031250,-75.42,70.4
211362,2018-06-29 10:34:57.062500,-57.51,70.4
211363,2018-06-29 10:34:57.093750,-28.74,70.4
211364,2018-06-29 10:34:57.125000,-3.78,70.4
211365,2018-06-29 10:34:57.156250,12.28,70.4
211366,2018-06-29 10:34:57.187500,23.01,70.4
211367,2018-06-29 10:34:57.218750,30.92,70.4
211368,2018-06-29 10:34:57.250000,34.98,70.4
211369,2018-06-29 10:34:57.281250,36.2,70.4
211370,2018-06-29 10:34:57.312500,39.25,70.4
211371,2018-06-29 10:34:57.343750,47.32,70.4
211372,2018-06-29 10:34:57.375000,59.49,70.4
211373,2018-06-29 10:34:57.406250,73.23,70.4
211374,2018-06-29 10:34:57.437500,85.41,70.4
211375,2018-06-29 10:34:57.468750,91.6,70.4
211376,2018-06-29 10:34:57.500000,90.04,70.4
211377,2018-06-29 10:34:57.531250,86.36,69.92
211378,2018-06-29 10:34:57.562500,88.02,69.92
211379,2018-06-29 10:34:57.593750,92.59,69.92
211380,2018-06-29 10:34:57.625000,90.08,69.92
211381,2018-06-29 10:34:57.656250,79.36,69.92
211382,2018-06-29 10:34:57.687500,71.32,69.92
211383,2018-06-29 10:34:57.718750,72.05,69.92
211384,2018-06-29 10:34:57.750000,75.23,69.92
211385,2018-06-29 10:34:57.781250,75.02,69.92
211386,2018-06-29 10:34:57.812500,73.43,69.92
211387,2018-06-29 10:34:57.843750,71.6,69.92
211388,2018-06-29 10:34:57.875000,65.99,69.92
211389,2018-06-29 10:34:57.906250,54.56,69.92
211390,2018-06-29 10:34:57.937500,38.08,69.92
211391,2018-06-29 10:34:57.968750,15.7,69.92
211392,2018-06-29 10:34:58.000000,-14.22,69.92
211393,2018-06-29 10:34:58.031250,-50.73,69.92
211394,2018-06-29 10:34:58.062500,-92.19,69.92
211395,2018-06-29 10:34:58.093750,-137.12,69.92
211396,2018-06-29 10:34:58.125000,-177.24,69.92
211397,2018-06-29 10:34:58.156250,-196.21,69.92
211398,2018-06-29 10:34:58.187500,-184.98,69.92
211399,2018-06-29 10:34:58.218750,-154.15,69.92
211400,2018-06-29 10:34:58.250000,-123.06,69.92
211401,2018-06-29 10:34:58.281250,-100.84,69.92
211402,2018-06-29 10:34:58.312500,-85.16,69.92
211403,2018-06-29 10:34:58.343750,-72.92,69.92
211404,2018-06-29 10:34:58.375000,-61.74,69.92
211405,2018-06-29 10:34:58.406250,-45.21,69.92
211406,2018-06-29 10:34:58.437500,-18.32,69.92
211407,2018-06-29 10:34:58.468750,12.89,69.92
211408,2018-06-29 10:34:58.500000,37.16,69.92
211409,2018-06-29 10:34:58.531250,52.87,69.55
211410,2018-06-29 10:34:58.562500,67.05,69.55
211411,2018-06-29 10:34:58.593750,81.36,69.55
211412,2018-06-29 10:34:58.625000,89.14,69.55
211413,2018-06-29 10:34:58.656250,86.68,69.55
211414,2018-06-29 10:34:58.687500,80.05,69.55
211415,2018-06-29 10:34:58.718750,78.6,69.55
211416,2018-06-29 10:34:58.750000,83.19,69.55
211417,2018-06-29 10:34:58.781250,84.16,69.55
211418,2018-06-29 10:34:58.812500,73.13,69.55
211419,2018-06-29 10:34:58.843750,52.52,69.55
211420,2018-06-29 10:34:58.875000,30.51,69.55
211421,2018-06-29 10:34:58.906250,11.56,69.55
211422,2018-06-29 10:34:58.937500,-4.38,69.55
211423,2018-06-29 10:34:58.968750,-18.2,69.55
211424,2018-06-29 10:34:59.000000,-29.78,69.55
211425,2018-06-29 10:34:59.031250,-37.37,69.55
211426,2018-06-29 10:34:59.062500,-38.93,69.55
211427,2018-06-29 10:34:59.093750,-36.82,69.55
211428,2018-06-29 10:34:59.125000,-38.01,69.55
211429,2018-06-29 10:34:59.156250,-46.89,69.55
211430,2018-06-29 10:34:59.187500,-63.51,69.55
211431,2018-06-29 10:34:59.218750,-90.81,69.55
211432,2018-06-29 10:34:59.250000,-131.04,69.55
211433,2018-06-29 10:34:59.281250,-171.83,69.55
211434,2018-06-29 10:34:59.312500,-191.09,69.55
211435,2018-06-29 10:34:59.343750,-178.91,69.55
211436,2018-06-29 10:34:59.375000,-144.63,69.55
211437,2018-06-29 10:34:59.406250,-105.66,69.55
211438,2018-06-29 10:34:59.437500,-75.61,69.55
211439,2018-06-29 10:34:59.468750,-57.03,69.55
211440,2018-06-29 10:34:59.500000,-40.84,69.55
211441,2018-06-29 10:34:59.531250,-15.68,69.2
211442,2018-06-29 10:34:59.562500,19.94,69.2
211443,2018-06-29 10:34:59.593750,55.7,69.2
211444,2018-06-29 10:34:59.625000,83.53,69.2
211445,2018-06-29 10:34:59.656250,110.7,69.2
211446,2018-06-29 10:34:59.687500,147.86,69.2
211447,2018-06-29 10:34:59.718750,190.1,69.2
211448,2018-06-29 10:34:59.750000,221.81,69.2
211449,2018-06-29 10:34:59.781250,231.99,69.2
211450,2018-06-29 10:34:59.812500,215.9,69.2
211451,2018-06-29 10:34:59.843750,175.3,69.2
211452,2018-06-29 10:34:59.875000,122.4,69.2
211453,2018-06-29 10:34:59.906250,72.2,69.2
211454,2018-06-29 10:34:59.937500,32.09,69.2
211455,2018-06-29 10:34:59.968750,4.28,69.2
211456,2018-06-29 10:35:00.000000,-9.2,69.2
211457,2018-06-29 10:35:00.031250,-9.15,69.2
211458,2018-06-29 10:35:00.062500,-1.18,69.2
211459,2018-06-29 10:35:00.093750,7.59,69.2
211460,2018-06-29 10:35:00.125000,12.05,69.2
211461,2018-06-29 10:35:00.156250,12.19,69.2
211462,2018-06-29 10:35:00.187500,11.49,69.2
211463,2018-06-29 10:35:00.218750,10.94,69.2
211464,2018-06-29 10:35:00.250000,7.03,69.2
211465,2018-06-29 10:35:00.281250,-3.55,69.2
211466,2018-06-29 10:35:00.312500,-17.91,69.2
211467,2018-06-29 10:35:00.343750,-25.8,69.2
211468,2018-06-29 10:35:00.375000,-18.45,69.2
211469,2018-06-29 10:35:00.406250,-0.14,69.2
211470,2018-06-29 10:35:00.437500,14.9,69.2
211471,2018-06-29 10:35:00.468750,18.59,69.2
211472,2018-06-29 10:35:00.500000,14.44,69.2
211473,2018-06-29 10:35:00.531250,6.54,68.75
211474,2018-06-29 10:35:00.562500,-6.28,68.75
211475,2018-06-29 10:35:00.593750,-23.88,68.75
211476,2018-06-29 10:35:00.625000,-40.86,68.75
211477,2018-06-29 10:35:00.656250,-51.6,68.75
211478,2018-06-29 10:35:00.687500,-54.39,68.75
211479,2018-06-29 10:35:00.718750,-50.1,68.75
211480,2018-06-29 10:35:00.750000,-40.55,68.75
211481,2018-06-29 10:35:00.781250,-29.54,68.75
211482,2018-06-29 10:35:00.812500,-22.05,68.75
211483,2018-06-29 10:35:00.843750,-19.88,68.75
211484,2018-06-29 10:35:00.875000,-19.9,68.75
211485,2018-06-29 10:35:00.906250,-18.27,68.75
211486,2018-06-29 10:35:00.937500,-14.75,68.75
211487,2018-06-29 10:35:00.968750,-11.41,68.75
211488,2018-06-29 10:35:01.000000,-9.28,68.75
211489,2018-06-29 10:35:01.031250,-8.21,68.75
211490,2018-06-29 10:35:01.062500,-8.61,68.75
211491,2018-06-29 10:35:01.093750,-11.37,68.75
211492,2018-06-29 10:35:01.125000,-16.16,68.75
211493,2018-06-29 10:35:01.156250,-21.69,68.75
211494,2018-06-29 10:35:01.187500,-27.24,68.75
211495,2018-06-29 10:35:01.218750,-33.09,68.75
211496,2018-06-29 10:35:01.250000,-40.68,68.75
211497,2018-06-29 10:35:01.281250,-51.97,68.75
211498,2018-06-29 10:35:01.312500,-65.32,68.75
211499,2018-06-29 10:35:01.343750,-72.08,68.75
211500,2018-06-29 10:35:01.375000,-63.55,68.75
211501,2018-06-29 10:35:01.406250,-41.96,68.75
211502,2018-06-29 10:35:01.437500,-18.45,68.75
211503,2018-06-29 10:35:01.468750,-1.05,68.75
211504,2018-06-29 10:35:01.500000,9.75,68.75
211505,2018-06-29 10:35:01.531250,16.01,68.48
211506,2018-06-29 10:35:01.562500,18.97,68.48
211507,2018-06-29 10:35:01.593750,19.57,68.48
211508,2018-06-29 10:35:01.625000,19.52,68.48
211509,2018-06-29 10:35:01.656250,21.13,68.48
211510,2018-06-29 10:35:01.687500,25.41,68.48
211511,2018-06-29 10:35:01.718750,31.21,68.48
211512,2018-06-29 10:35:01.750000,36.76,68.48
211513,2018-06-29 10:35:01.781250,40.68,68.48
211514,2018-06-29 10:35:01.812500,41.6,68.48
211515,2018-06-29 10:35:01.843750,39.16,68.48
211516,2018-06-29 10:35:01.875000,35.31,68.48
211517,2018-06-29 10:35:01.906250,32.77,68.48
211518,2018-06-29 10:35:01.937500,31.29,68.48
211519,2018-06-29 10:35:01.968750,27.46,68.48
211520,2018-06-29 10:35:02.000000,19.17,68.48
211521,2018-06-29 10:35:02.031250,8.34,68.48
211522,2018-06-29 10:35:02.062500,-2.23,68.48
211523,2018-06-29 10:35:02.093750,-12.51,68.48
211524,2018-06-29 10:35:02.125000,-24.04,68.48
211525,2018-06-29 10:35:02.156250,-36.26,68.48
211526,2018-06-29 10:35:02.187500,-46.81,68.48
211527,2018-06-29 10:35:02.218750,-54.58,68.48
211528,2018-06-29 10:35:02.250000,-61.36,68.48
211529,2018-06-29 10:35:02.281250,-70.63,68.48
211530,2018-06-29 10:35:02.312500,-82.34,68.48
211531,2018-06-29 10:35:02.343750,-88.33,68.48
211532,2018-06-29 10:35:02.375000,-77.35,68.48
211533,2018-06-29 10:35:02.406250,-47.62,68.48
211534,2018-06-29 10:35:02.437500,-10.09,68.48
211535,2018-06-29 10:35:02.468750,22.75,68.48
211536,2018-06-29 10:35:02.500000,45.59,68.48
211537,2018-06-29 10:35:02.531250,58.42,68.25
211538,2018-06-29 10:35:02.562500,62.57,68.25
211539,2018-06-29 10:35:02.593750,60.26,68.25
211540,2018-06-29 10:35:02.625000,54.42,68.25
211541,2018-06-29 10:35:02.656250,47.72,68.25
211542,2018-06-29 10:35:02.687500,42.24,68.25
211543,2018-06-29 10:35:02.718750,38.9,68.25
211544,2018-06-29 10:35:02.750000,36.8,68.25
211545,2018-06-29 10:35:02.781250,33.64,68.25
211546,2018-06-29 10:35:02.812500,27.44,68.25
211547,2018-06-29 10:35:02.843750,18.82,68.25
211548,2018-06-29 10:35:02.875000,11.0,68.25
211549,2018-06-29 10:35:02.906250,6.59,68.25
211550,2018-06-29 10:35:02.937500,4.88,68.25
211551,2018-06-29 10:35:02.968750,3.48,68.25
211552,2018-06-29 10:35:03.000000,2.06,68.25
211553,2018-06-29 10:35:03.031250,1.74,68.25
211554,2018-06-29 10:35:03.062500,1.18,68.25
211555,2018-06-29 10:35:03.093750,-2.55,68.25
211556,2018-06-29 10:35:03.125000,-8.57,68.25
211557,2018-06-29 10:35:03.156250,-12.51,68.25
211558,2018-06-29 10:35:03.187500,-12.75,68.25
211559,2018-06-29 10:35:03.218750,-12.26,68.25
211560,2018-06-29 10:35:03.250000,-14.63,68.25
211561,2018-06-29 10:35:03.281250,-20.64,68.25
211562,2018-06-29 10:35:03.312500,-28.68,68.25
211563,2018-06-29 10:35:03.343750,-37.63,68.25
211564,2018-06-29 10:35:03.375000,-48.73,68.25
211565,2018-06-29 10:35:03.406250,-63.72,68.25
211566,2018-06-29 10:35:03.437500,-80.02,68.25
211567,2018-06-29 10:35:03.468750,-87.97,68.25
211568,2018-06-29 10:35:03.500000,-78.5,68.25
211569,2018-06-29 10:35:03.531250,-54.69,68.05
211570,2018-06-29 10:35:03.562500,-29.44,68.05
211571,2018-06-29 10:35:03.593750,-11.03,68.05
211572,2018-06-29 10:35:03.625000,1.44,68.05
211573,2018-06-29 10:35:03.656250,9.99,68.05
211574,2018-06-29 10:35:03.687500,13.72,68.05
211575,2018-06-29 10:35:03.718750,12.43,68.05
211576,2018-06-29 10:35:03.750000,8.84,68.05
211577,2018-06-29 10:35:03.781250,6.9,68.05
211578,2018-06-29 10:35:03.812500,8.79,68.05
211579,2018-06-29 10:35:03.843750,14.02,68.05
211580,2018-06-29 10:35:03.875000,21.35,68.05
211581,2018-06-29 10:35:03.906250,29.74,68.05
211582,2018-06-29 10:35:03.937500,36.79,68.05
211583,2018-06-29 10:35:03.968750,39.62,68.05
211584,2018-06-29 10:35:04.000000,38.53,68.05
211585,2018-06-29 10:35:04.031250,36.52,68.05
211586,2018-06-29 10:35:04.062500,35.36,68.05
211587,2018-06-29 10:35:04.093750,34.77,68.05
211588,2018-06-29 10:35:04.125000,33.75,68.05
211589,2018-06-29 10:35:04.156250,30.95,68.05
211590,2018-06-29 10:35:04.187500,25.3,68.05
211591,2018-06-29 10:35:04.218750,17.31,68.05
211592,2018-06-29 10:35:04.250000,8.68,68.05
211593,2018-06-29 10:35:04.281250,0.9,68.05
211594,2018-06-29 10:35:04.312500,-4.87,68.05
211595,2018-06-29 10:35:04.343750,-7.92,68.05
211596,2018-06-29 10:35:04.375000,-8.45,68.05
211597,2018-06-29 10:35:04.406250,-7.99,68.05
211598,2018-06-29 10:35:04.437500,-9.23,68.05
211599,2018-06-29 10:35:04.468750,-15.42,68.05
211600,2018-06-29 10:35:04.500000,-29.13,68.05
211601,2018-06-29 10:35:04.531250,-47.91,67.82
211602,2018-06-29 10:35:04.562500,-61.11,67.82
211603,2018-06-29 10:35:04.593750,-58.0,67.82
211604,2018-06-29 10:35:04.625000,-40.41,67.82
211605,2018-06-29 10:35:04.656250,-20.93,67.82
211606,2018-06-29 10:35:04.687500,-8.89,67.82
211607,2018-06-29 10:35:04.718750,-3.89,67.82
211608,2018-06-29 10:35:04.750000,-1.15,67.82
211609,2018-06-29 10:35:04.781250,2.27,67.82
211610,2018-06-29 10:35:04.812500,6.45,67.82
211611,2018-06-29 10:35:04.843750,11.49,67.82
211612,2018-06-29 10:35:04.875000,18.79,67.82
211613,2018-06-29 10:35:04.906250,28.51,67.82
211614,2018-06-29 10:35:04.937500,38.43,67.82
211615,2018-06-29 10:35:04.968750,46.32,67.82
211616,2018-06-29 10:35:05.000000,51.46,67.82
211617,2018-06-29 10:35:05.031250,53.8,67.82
211618,2018-06-29 10:35:05.062500,53.89,67.82
211619,2018-06-29 10:35:05.093750,53.41,67.82
211620,2018-06-29 10:35:05.125000,53.84,67.82
211621,2018-06-29 10:35:05.156250,54.42,67.82
211622,2018-06-29 10:35:05.187500,52.48,67.82
211623,2018-06-29 10:35:05.218750,46.05,67.82
211624,2018-06-29 10:35:05.250000,36.24,67.82
211625,2018-06-29 10:35:05.281250,27.25,67.82
211626,2018-06-29 10:35:05.312500,23.1,67.82
211627,2018-06-29 10:35:05.343750,23.24,67.82
211628,2018-06-29 10:35:05.375000,22.29,67.82
211629,2018-06-29 10:35:05.406250,14.5,67.82
211630,2018-06-29 10:35:05.437500,-2.36,67.82
211631,2018-06-29 10:35:05.468750,-26.44,67.82
211632,2018-06-29 10:35:05.500000,-54.22,67.82
211633,2018-06-29 10:35:05.531250,-82.67,67.55
211634,2018-06-29 10:35:05.562500,-109.59,67.55
211635,2018-06-29 10:35:05.593750,-132.08,67.55
211636,2018-06-29 10:35:05.625000,-144.24,67.55
211637,2018-06-29 10:35:05.656250,-138.95,67.55
211638,2018-06-29 10:35:05.687500,-115.59,67.55
211639,2018-06-29 10:35:05.718750,-83.69,67.55
211640,2018-06-29 10:35:05.750000,-55.27,67.55
211641,2018-06-29 10:35:05.781250,-35.21,67.55
211642,2018-06-29 10:35:05.812500,-20.99,67.55
211643,2018-06-29 10:35:05.843750,-9.34,67.55
211644,2018-06-29 10:35:05.875000,-0.28,67.55
211645,2018-06-29 10:35:05.906250,5.06,67.55
211646,2018-06-29 10:35:05.937500,8.67,67.55
211647,2018-06-29 10:35:05.968750,14.98,67.55
211648,2018-06-29 10:35:06.000000,25.83,67.55
211649,2018-06-29 10:35:06.031250,39.5,67.55
211650,2018-06-29 10:35:06.062500,53.47,67.55
211651,2018-06-29 10:35:06.093750,65.02,67.55
211652,2018-06-29 10:35:06.125000,71.64,67.55
211653,2018-06-29 10:35:06.156250,73.38,67.55
211654,2018-06-29 10:35:06.187500,72.14,67.55
211655,2018-06-29 10:35:06.218750,68.62,67.55
211656,2018-06-29 10:35:06.250000,62.61,67.55
211657,2018-06-29 10:35:06.281250,55.13,67.55
211658,2018-06-29 10:35:06.312500,47.8,67.55
211659,2018-06-29 10:35:06.343750,41.05,67.55
211660,2018-06-29 10:35:06.375000,34.05,67.55
211661,2018-06-29 10:35:06.406250,26.39,67.55
211662,2018-06-29 10:35:06.437500,18.36,67.55
211663,2018-06-29 10:35:06.468750,9.09,67.55
211664,2018-06-29 10:35:06.500000,-3.1,67.55
211665,2018-06-29 10:35:06.531250,-17.13,67.23
211666,2018-06-29 10:35:06.562500,-29.71,67.23
211667,2018-06-29 10:35:06.593750,-40.01,67.23
211668,2018-06-29 10:35:06.625000,-50.65,67.23
211669,2018-06-29 10:35:06.656250,-64.65,67.23
211670,2018-06-29 10:35:06.687500,-82.14,67.23
211671,2018-06-29 10:35:06.718750,-96.85,67.23
211672,2018-06-29 10:35:06.750000,-97.32,67.23
211673,2018-06-29 10:35:06.781250,-78.79,67.23
211674,2018-06-29 10:35:06.812500,-50.85,67.23
211675,2018-06-29 10:35:06.843750,-26.81,67.23
211676,2018-06-29 10:35:06.875000,-10.35,67.23
211677,2018-06-29 10:35:06.906250,2.16,67.23
211678,2018-06-29 10:35:06.937500,13.07,67.23
211679,2018-06-29 10:35:06.968750,22.04,67.23
211680,2018-06-29 10:35:07.000000,28.6,67.23
211681,2018-06-29 10:35:07.031250,33.19,67.23
211682,2018-06-29 10:35:07.062500,37.56,67.23
211683,2018-06-29 10:35:07.093750,43.34,67.23
211684,2018-06-29 10:35:07.125000,49.71,67.23
211685,2018-06-29 10:35:07.156250,53.41,67.23
211686,2018-06-29 10:35:07.187500,51.6,67.23
211687,2018-06-29 10:35:07.218750,44.2,67.23
211688,2018-06-29 10:35:07.250000,33.3,67.23
211689,2018-06-29 10:35:07.281250,21.38,67.23
211690,2018-06-29 10:35:07.312500,10.98,67.23
211691,2018-06-29 10:35:07.343750,4.69,67.23
211692,2018-06-29 10:35:07.375000,3.0,67.23
211693,2018-06-29 10:35:07.406250,2.69,67.23
211694,2018-06-29 10:35:07.437500,-0.93,67.23
211695,2018-06-29 10:35:07.468750,-10.22,67.23
211696,2018-06-29 10:35:07.500000,-24.41,67.23
211697,2018-06-29 10:35:07.531250,-41.37,66.92
211698,2018-06-29 10:35:07.562500,-59.42,66.92
211699,2018-06-29 10:35:07.593750,-76.92,66.92
211700,2018-06-29 10:35:07.625000,-90.91,66.92
211701,2018-06-29 10:35:07.656250,-97.97,66.92
211702,2018-06-29 10:35:07.687500,-97.54,66.92
211703,2018-06-29 10:35:07.718750,-93.57,66.92
211704,2018-06-29 10:35:07.750000,-91.65,66.92
211705,2018-06-29 10:35:07.781250,-91.81,66.92
211706,2018-06-29 10:35:07.812500,-85.41,66.92
211707,2018-06-29 10:35:07.843750,-64.64,66.92
211708,2018-06-29 10:35:07.875000,-34.21,66.92
211709,2018-06-29 10:35:07.906250,-6.61,66.92
211710,2018-06-29 10:35:07.937500,12.25,66.92
211711,2018-06-29 10:35:07.968750,25.88,66.92
211712,2018-06-29 10:35:08.000000,37.96,66.92
211713,2018-06-29 10:35:08.031250,47.55,66.92
211714,2018-06-29 10:35:08.062500,53.62,66.92
211715,2018-06-29 10:35:08.093750,58.08,66.92
211716,2018-06-29 10:35:08.125000,62.29,66.92
211717,2018-06-29 10:35:08.156250,65.31,66.92
211718,2018-06-29 10:35:08.187500,67.6,66.92
211719,2018-06-29 10:35:08.218750,71.74,66.92
211720,2018-06-29 10:35:08.250000,77.29,66.92
211721,2018-06-29 10:35:08.281250,79.66,66.92
211722,2018-06-29 10:35:08.312500,75.8,66.92
211723,2018-06-29 10:35:08.343750,67.32,66.92
211724,2018-06-29 10:35:08.375000,57.56,66.92
211725,2018-06-29 10:35:08.406250,48.63,66.92
211726,2018-06-29 10:35:08.437500,41.45,66.92
211727,2018-06-29 10:35:08.468750,36.28,66.92
211728,2018-06-29 10:35:08.500000,32.32,66.92
211729,2018-06-29 10:35:08.531250,28.63,66.6
211730,2018-06-29 10:35:08.562500,25.58,66.6
211731,2018-06-29 10:35:08.593750,24.13,66.6
211732,2018-06-29 10:35:08.625000,23.65,66.6
211733,2018-06-29 10:35:08.656250,22.42,66.6
211734,2018-06-29 10:35:08.687500,19.49,66.6
211735,2018-06-29 10:35:08.718750,14.75,66.6
211736,2018-06-29 10:35:08.750000,7.8,66.6
211737,2018-06-29 10:35:08.781250,-2.72,66.6
211738,2018-06-29 10:35:08.812500,-18.89,66.6
211739,2018-06-29 10:35:08.843750,-38.96,66.6
211740,2018-06-29 10:35:08.875000,-52.79,66.6
211741,2018-06-29 10:35:08.906250,-48.94,66.6
211742,2018-06-29 10:35:08.937500,-28.03,66.6
211743,2018-06-29 10:35:08.968750,-2.89,66.6
211744,2018-06-29 10:35:09.000000,16.33,66.6
211745,2018-06-29 10:35:09.031250,31.16,66.6
211746,2018-06-29 10:35:09.062500,48.77,66.6
211747,2018-06-29 10:35:09.093750,73.64,66.6
211748,2018-06-29 10:35:09.125000,105.04,66.6
211749,2018-06-29 10:35:09.156250,136.95,66.6
211750,2018-06-29 10:35:09.187500,161.53,66.6
211751,2018-06-29 10:35:09.218750,175.93,66.6
211752,2018-06-29 10:35:09.250000,183.79,66.6
211753,2018-06-29 10:35:09.281250,189.18,66.6
211754,2018-06-29 10:35:09.312500,193.1,66.6
211755,2018-06-29 10:35:09.343750,195.57,66.6
211756,2018-06-29 10:35:09.375000,198.27,66.6
211757,2018-06-29 10:35:09.406250,202.42,66.6
211758,2018-06-29 10:35:09.437500,203.49,66.6
211759,2018-06-29 10:35:09.468750,192.13,66.6
211760,2018-06-29 10:35:09.500000,163.64,66.6
211761,2018-06-29 10:35:09.531250,122.61,66.38
211762,2018-06-29 10:35:09.562500,77.54,66.38
211763,2018-06-29 10:35:09.593750,34.64,66.38
211764,2018-06-29 10:35:09.625000,-4.68,66.38
211765,2018-06-29 10:35:09.656250,-43.34,66.38
211766,2018-06-29 10:35:09.687500,-83.68,66.38
211767,2018-06-29 10:35:09.718750,-123.91,66.38
211768,2018-06-29 10:35:09.750000,-162.75,66.38
211769,2018-06-29 10:35:09.781250,-204.0,66.38
211770,2018-06-29 10:35:09.812500,-250.13,66.38
211771,2018-06-29 10:35:09.843750,-294.71,66.38
211772,2018-06-29 10:35:09.875000,-328.23,66.38
211773,2018-06-29 10:35:09.906250,-349.67,66.38
211774,2018-06-29 10:35:09.937500,-365.85,66.38
211775,2018-06-29 10:35:09.968750,-379.77,66.38
211776,2018-06-29 10:35:10.000000,-378.4,66.38
211777,2018-06-29 10:35:10.031250,-338.52,66.38
211778,2018-06-29 10:35:10.062500,-256.77,66.38
211779,2018-06-29 10:35:10.093750,-164.39,66.38
211780,2018-06-29 10:35:10.125000,-95.41,66.38
211781,2018-06-29 10:35:10.156250,-54.13,66.38
211782,2018-06-29 10:35:10.187500,-28.55,66.38
211783,2018-06-29 10:35:10.218750,-13.45,66.38
211784,2018-06-29 10:35:10.250000,-6.37,66.38
211785,2018-06-29 10:35:10.281250,-0.48,66.38
211786,2018-06-29 10:35:10.312500,8.44,66.38
211787,2018-06-29 10:35:10.343750,18.21,66.38
211788,2018-06-29 10:35:10.375000,26.78,66.38
211789,2018-06-29 10:35:10.406250,36.16,66.38
211790,2018-06-29 10:35:10.437500,47.44,66.38
211791,2018-06-29 10:35:10.468750,55.86,66.38
211792,2018-06-29 10:35:10.500000,56.04,66.38
211793,2018-06-29 10:35:10.531250,50.25,66.17
211794,2018-06-29 10:35:10.562500,45.04,66.17
211795,2018-06-29 10:35:10.593750,41.3,66.17
211796,2018-06-29 10:35:10.625000,34.8,66.17
211797,2018-06-29 10:35:10.656250,24.92,66.17
211798,2018-06-29 10:35:10.687500,16.22,66.17
211799,2018-06-29 10:35:10.718750,11.94,66.17
211800,2018-06-29 10:35:10.750000,11.66,66.17
211801,2018-06-29 10:35:10.781250,14.67,66.17
211802,2018-06-29 10:35:10.812500,21.86,66.17
211803,2018-06-29 10:35:10.843750,33.59,66.17
211804,2018-06-29 10:35:10.875000,48.33,66.17
211805,2018-06-29 10:35:10.906250,63.34,66.17
211806,2018-06-29 10:35:10.937500,76.14,66.17
211807,2018-06-29 10:35:10.968750,85.6,66.17
211808,2018-06-29 10:35:11.000000,91.7,66.17
211809,2018-06-29 10:35:11.031250,94.07,66.17
211810,2018-06-29 10:35:11.062500,92.41,66.17
211811,2018-06-29 10:35:11.093750,91.08,66.17
211812,2018-06-29 10:35:11.125000,98.86,66.17
211813,2018-06-29 10:35:11.156250,117.24,66.17
211814,2018-06-29 10:35:11.187500,133.24,66.17
211815,2018-06-29 10:35:11.218750,130.11,66.17
211816,2018-06-29 10:35:11.250000,101.03,66.17
211817,2018-06-29 10:35:11.281250,50.95,66.17
211818,2018-06-29 10:35:11.312500,-6.91,66.17
211819,2018-06-29 10:35:11.343750,-57.1,66.17
211820,2018-06-29 10:35:11.375000,-91.41,66.17
211821,2018-06-29 10:35:11.406250,-112.3,66.17
211822,2018-06-29 10:35:11.437500,-125.44,66.17
211823,2018-06-29 10:35:11.468750,-133.71,66.17
211824,2018-06-29 10:35:11.500000,-138.09,66.17
211825,2018-06-29 10:35:11.531250,-139.38,65.98
211826,2018-06-29 10:35:11.562500,-138.51,65.98
211827,2018-06-29 10:35:11.593750,-136.09,65.98
211828,2018-06-29 10:35:11.625000,-131.61,65.98
211829,2018-06-29 10:35:11.656250,-123.49,65.98
211830,2018-06-29 10:35:11.687500,-112.68,65.98
211831,2018-06-29 10:35:11.718750,-104.14,65.98
211832,2018-06-29 10:35:11.750000,-100.98,65.98
211833,2018-06-29 10:35:11.781250,-100.05,65.98
211834,2018-06-29 10:35:11.812500,-97.93,65.98
211835,2018-06-29 10:35:11.843750,-97.34,65.98
211836,2018-06-29 10:35:11.875000,-101.86,65.98
211837,2018-06-29 10:35:11.906250,-108.57,65.98
211838,2018-06-29 10:35:11.937500,-111.63,65.98
211839,2018-06-29 10:35:11.968750,-108.72,65.98
211840,2018-06-29 10:35:12.000000,-101.13,65.98
211841,2018-06-29 10:35:12.031250,-91.37,65.98
211842,2018-06-29 10:35:12.062500,-82.42,65.98
211843,2018-06-29 10:35:12.093750,-76.49,65.98
211844,2018-06-29 10:35:12.125000,-74.55,65.98
211845,2018-06-29 10:35:12.156250,-78.77,65.98
211846,2018-06-29 10:35:12.187500,-92.43,65.98
211847,2018-06-29 10:35:12.218750,-111.04,65.98
211848,2018-06-29 10:35:12.250000,-117.63,65.98
211849,2018-06-29 10:35:12.281250,-97.45,65.98
211850,2018-06-29 10:35:12.312500,-55.09,65.98
211851,2018-06-29 10:35:12.343750,-7.63,65.98
211852,2018-06-29 10:35:12.375000,34.51,65.98
211853,2018-06-29 10:35:12.406250,71.3,65.98
211854,2018-06-29 10:35:12.437500,103.69,65.98
211855,2018-06-29 10:35:12.468750,129.04,65.98
211856,2018-06-29 10:35:12.500000,144.93,65.98
211857,2018-06-29 10:35:12.531250,153.15,65.9
211858,2018-06-29 10:35:12.562500,158.02,65.9
211859,2018-06-29 10:35:12.593750,162.06,65.9
211860,2018-06-29 10:35:12.625000,165.72,65.9
211861,2018-06-29 10:35:12.656250,168.72,65.9
211862,2018-06-29 10:35:12.687500,168.9,65.9
211863,2018-06-29 10:35:12.718750,162.78,65.9
211864,2018-06-29 10:35:12.750000,150.21,65.9
211865,2018-06-29 10:35:12.781250,135.82,65.9
211866,2018-06-29 10:35:12.812500,124.6,65.9
211867,2018-06-29 10:35:12.843750,117.08,65.9
211868,2018-06-29 10:35:12.875000,110.14,65.9
211869,2018-06-29 10:35:12.906250,101.52,65.9
211870,2018-06-29 10:35:12.937500,91.27,65.9
211871,2018-06-29 10:35:12.968750,78.89,65.9
211872,2018-06-29 10:35:13.000000,62.79,65.9
211873,2018-06-29 10:35:13.031250,43.55,65.9
211874,2018-06-29 10:35:13.062500,24.64,65.9
211875,2018-06-29 10:35:13.093750,7.95,65.9
211876,2018-06-29 10:35:13.125000,-9.02,65.9
211877,2018-06-29 10:35:13.156250,-28.85,65.9
211878,2018-06-29 10:35:13.187500,-49.89,65.9
211879,2018-06-29 10:35:13.218750,-69.08,65.9
211880,2018-06-29 10:35:13.250000,-87.5,65.9
211881,2018-06-29 10:35:13.281250,-110.05,65.9
211882,2018-06-29 10:35:13.312500,-137.99,65.9
211883,2018-06-29 10:35:13.343750,-161.52,65.9
211884,2018-06-29 10:35:13.375000,-162.7,65.9
211885,2018-06-29 10:35:13.406250,-132.57,65.9
211886,2018-06-29 10:35:13.437500,-83.15,65.9
211887,2018-06-29 10:35:13.468750,-35.41,65.9
211888,2018-06-29 10:35:13.500000,0.78,65.9
211889,2018-06-29 10:35:13.531250,28.5,65.78
211890,2018-06-29 10:35:13.562500,52.06,65.78
211891,2018-06-29 10:35:13.593750,70.99,65.78
211892,2018-06-29 10:35:13.625000,83.46,65.78
211893,2018-06-29 10:35:13.656250,90.55,65.78
211894,2018-06-29 10:35:13.687500,95.69,65.78
211895,2018-06-29 10:35:13.718750,101.11,65.78
211896,2018-06-29 10:35:13.750000,106.87,65.78
211897,2018-06-29 10:35:13.781250,111.76,65.78
211898,2018-06-29 10:35:13.812500,113.44,65.78
211899,2018-06-29 10:35:13.843750,109.66,65.78
211900,2018-06-29 10:35:13.875000,100.95,65.78
211901,2018-06-29 10:35:13.906250,90.45,65.78
211902,2018-06-29 10:35:13.937500,80.52,65.78
211903,2018-06-29 10:35:13.968750,70.82,65.78
211904,2018-06-29 10:35:14.000000,60.05,65.78
211905,2018-06-29 10:35:14.031250,48.73,65.78
211906,2018-06-29 10:35:14.062500,38.73,65.78
211907,2018-06-29 10:35:14.093750,30.44,65.78
211908,2018-06-29 10:35:14.125000,22.07,65.78
211909,2018-06-29 10:35:14.156250,12.34,65.78
211910,2018-06-29 10:35:14.187500,1.9,65.78
211911,2018-06-29 10:35:14.218750,-8.58,65.78
211912,2018-06-29 10:35:14.250000,-20.59,65.78
211913,2018-06-29 10:35:14.281250,-35.6,65.78
211914,2018-06-29 10:35:14.312500,-51.95,65.78
211915,2018-06-29 10:35:14.343750,-66.65,65.78
211916,2018-06-29 10:35:14.375000,-80.25,65.78
211917,2018-06-29 10:35:14.406250,-96.95,65.78
211918,2018-06-29 10:35:14.437500,-118.54,65.78
211919,2018-06-29 10:35:14.468750,-137.79,65.78
211920,2018-06-29 10:35:14.500000,-139.96,65.78
211921,2018-06-29 10:35:14.531250,-115.72,65.67
211922,2018-06-29 10:35:14.562500,-72.24,65.67
211923,2018-06-29 10:35:14.593750,-25.75,65.67
211924,2018-06-29 10:35:14.625000,13.43,65.67
211925,2018-06-29 10:35:14.656250,43.95,65.67
211926,2018-06-29 10:35:14.687500,67.65,65.67
211927,2018-06-29 10:35:14.718750,85.7,65.67
211928,2018-06-29 10:35:14.750000,97.81,65.67
211929,2018-06-29 10:35:14.781250,104.18,65.67
211930,2018-06-29 10:35:14.812500,106.99,65.67
211931,2018-06-29 10:35:14.843750,107.8,65.67
211932,2018-06-29 10:35:14.875000,106.66,65.67
211933,2018-06-29 10:35:14.906250,105.04,65.67
211934,2018-06-29 10:35:14.937500,104.42,65.67
211935,2018-06-29 10:35:14.968750,102.71,65.67
211936,2018-06-29 10:35:15.000000,97.95,65.67
211937,2018-06-29 10:35:15.031250,92.06,65.67
211938,2018-06-29 10:35:15.062500,86.6,65.67
211939,2018-06-29 10:35:15.093750,79.61,65.67
211940,2018-06-29 10:35:15.125000,68.93,65.67
211941,2018-06-29 10:35:15.156250,54.82,65.67
211942,2018-06-29 10:35:15.187500,38.25,65.67
211943,2018-06-29 10:35:15.218750,19.74,65.67
211944,2018-06-29 10:35:15.250000,-0.14,65.67
211945,2018-06-29 10:35:15.281250,-20.22,65.67
211946,2018-06-29 10:35:15.312500,-38.47,65.67
211947,2018-06-29 10:35:15.343750,-53.81,65.67
211948,2018-06-29 10:35:15.375000,-67.97,65.67
211949,2018-06-29 10:35:15.406250,-83.89,65.67
211950,2018-06-29 10:35:15.437500,-101.36,65.67
211951,2018-06-29 10:35:15.468750,-116.38,65.67
211952,2018-06-29 10:35:15.500000,-126.86,65.67
211953,2018-06-29 10:35:15.531250,-136.95,65.53
211954,2018-06-29 10:35:15.562500,-152.15,65.53
211955,2018-06-29 10:35:15.593750,-167.44,65.53
211956,2018-06-29 10:35:15.625000,-166.25,65.53
211957,2018-06-29 10:35:15.656250,-138.14,65.53
211958,2018-06-29 10:35:15.687500,-92.93,65.53
211959,2018-06-29 10:35:15.718750,-48.81,65.53
211960,2018-06-29 10:35:15.750000,-13.25,65.53
211961,2018-06-29 10:35:15.781250,16.26,65.53
211962,2018-06-29 10:35:15.812500,40.87,65.53
211963,2018-06-29 10:35:15.843750,58.56,65.53
211964,2018-06-29 10:35:15.875000,68.91,65.53
211965,2018-06-29 10:35:15.906250,73.94,65.53
211966,2018-06-29 10:35:15.937500,75.43,65.53
211967,2018-06-29 10:35:15.968750,74.34,65.53
211968,2018-06-29 10:35:16.000000,72.42,65.53
211969,2018-06-29 10:35:16.031250,71.6,65.53
211970,2018-06-29 10:35:16.062500,71.35,65.53
211971,2018-06-29 10:35:16.093750,69.53,65.53
211972,2018-06-29 10:35:16.125000,65.67,65.53
211973,2018-06-29 10:35:16.156250,60.8,65.53
211974,2018-06-29 10:35:16.187500,55.34,65.53
211975,2018-06-29 10:35:16.218750,48.9,65.53
211976,2018-06-29 10:35:16.250000,40.93,65.53
211977,2018-06-29 10:35:16.281250,31.75,65.53
211978,2018-06-29 10:35:16.312500,22.63,65.53
211979,2018-06-29 10:35:16.343750,14.16,65.53
211980,2018-06-29 10:35:16.375000,4.84,65.53
211981,2018-06-29 10:35:16.406250,-7.57,65.53
211982,2018-06-29 10:35:16.437500,-23.06,65.53
211983,2018-06-29 10:35:16.468750,-38.65,65.53
211984,2018-06-29 10:35:16.500000,-51.09,65.53
211985,2018-06-29 10:35:16.531250,-60.9,65.35
211986,2018-06-29 10:35:16.562500,-72.22,65.35
211987,2018-06-29 10:35:16.593750,-87.23,65.35
211988,2018-06-29 10:35:16.625000,-100.05,65.35
211989,2018-06-29 10:35:16.656250,-98.02,65.35
211990,2018-06-29 10:35:16.687500,-74.21,65.35
211991,2018-06-29 10:35:16.718750,-37.39,65.35
211992,2018-06-29 10:35:16.750000,-3.56,65.35
211993,2018-06-29 10:35:16.781250,19.76,65.35
211994,2018-06-29 10:35:16.812500,35.26,65.35
211995,2018-06-29 10:35:16.843750,47.0,65.35
211996,2018-06-29 10:35:16.875000,55.32,65.35
211997,2018-06-29 10:35:16.906250,58.39,65.35
211998,2018-06-29 10:35:16.937500,56.5,65.35
211999,2018-06-29 10:35:16.968750,53.48,65.35
212000,2018-06-29 10:35:17.000000,52.45,65.35
212001,2018-06-29 10:35:17.031250,52.84,65.35
212002,2018-06-29 10:35:17.062500,52.59,65.35
212003,2018-06-29 10:35:17.093750,49.6,65.35
212004,2018-06-29 10:35:17.125000,42.24,65.35
212005,2018-06-29 10:35:17.156250,31.87,65.35
212006,2018-06-29 10:35:17.187500,22.4,65.35
212007,2018-06-29 10:35:17.218750,15.53,65.35
212008,2018-06-29 10:35:17.250000,9.45,65.35
212009,2018-06-29 10:35:17.281250,2.43,65.35
212010,2018-06-29 10:35:17.312500,-5.12,65.35
212011,2018-06-29 10:35:17.343750,-11.9,65.35
212012,2018-06-29 10:35:17.375000,-17.22,65.35
212013,2018-06-29 10:35:17.406250,-21.98,65.35
212014,2018-06-29 10:35:17.437500,-28.42,65.35
212015,2018-06-29 10:35:17.468750,-38.3,65.35
212016,2018-06-29 10:35:17.500000,-50.78,65.35
212017,2018-06-29 10:35:17.531250,-63.11,65.17
212018,2018-06-29 10:35:17.562500,-73.82,65.17
212019,2018-06-29 10:35:17.593750,-84.31,65.17
212020,2018-06-29 10:35:17.625000,-97.55,65.17
212021,2018-06-29 10:35:17.656250,-113.88,65.17
212022,2018-06-29 10:35:17.687500,-125.54,65.17
212023,2018-06-29 10:35:17.718750,-118.97,65.17
212024,2018-06-29 10:35:17.750000,-89.45,65.17
212025,2018-06-29 10:35:17.781250,-49.47,65.17
212026,2018-06-29 10:35:17.812500,-15.2,65.17
212027,2018-06-29 10:35:17.843750,9.59,65.17
212028,2018-06-29 10:35:17.875000,29.4,65.17
212029,2018-06-29 10:35:17.906250,45.53,65.17
212030,2018-06-29 10:35:17.937500,56.03,65.17
212031,2018-06-29 10:35:17.968750,60.82,65.17
212032,2018-06-29 10:35:18.000000,61.84,65.17
212033,2018-06-29 10:35:18.031250,61.16,65.17
212034,2018-06-29 10:35:18.062500,60.8,65.17
212035,2018-06-29 10:35:18.093750,61.88,65.17
212036,2018-06-29 10:35:18.125000,63.5,65.17
212037,2018-06-29 10:35:18.156250,63.37,65.17
212038,2018-06-29 10:35:18.187500,60.21,65.17
212039,2018-06-29 10:35:18.218750,55.13,65.17
212040,2018-06-29 10:35:18.250000,50.51,65.17
212041,2018-06-29 10:35:18.281250,47.26,65.17
212042,2018-06-29 10:35:18.312500,43.3,65.17
212043,2018-06-29 10:35:18.343750,36.39,65.17
212044,2018-06-29 10:35:18.375000,27.74,65.17
212045,2018-06-29 10:35:18.406250,19.81,65.17
212046,2018-06-29 10:35:18.437500,11.78,65.17
212047,2018-06-29 10:35:18.468750,2.05,65.17
212048,2018-06-29 10:35:18.500000,-8.16,65.17
212049,2018-06-29 10:35:18.531250,-18.13,64.97
212050,2018-06-29 10:35:18.562500,-29.69,64.97
212051,2018-06-29 10:35:18.593750,-42.26,64.97
212052,2018-06-29 10:35:18.625000,-51.41,64.97
212053,2018-06-29 10:35:18.656250,-55.42,64.97
212054,2018-06-29 10:35:18.687500,-58.33,64.97
212055,2018-06-29 10:35:18.718750,-65.23,64.97
212056,2018-06-29 10:35:18.750000,-76.96,64.97
212057,2018-06-29 10:35:18.781250,-86.91,64.97
212058,2018-06-29 10:35:18.812500,-83.19,64.97
212059,2018-06-29 10:35:18.843750,-60.23,64.97
212060,2018-06-29 10:35:18.875000,-27.08,64.97
212061,2018-06-29 10:35:18.906250,2.37,64.97
212062,2018-06-29 10:35:18.937500,23.93,64.97
212063,2018-06-29 10:35:18.968750,42.3,64.97
212064,2018-06-29 10:35:19.000000,61.32,64.97
212065,2018-06-29 10:35:19.031250,79.76,64.97
212066,2018-06-29 10:35:19.062500,93.49,64.97
212067,2018-06-29 10:35:19.093750,99.81,64.97
212068,2018-06-29 10:35:19.125000,100.41,64.97
212069,2018-06-29 10:35:19.156250,99.61,64.97
212070,2018-06-29 10:35:19.187500,99.87,64.97
212071,2018-06-29 10:35:19.218750,99.96,64.97
212072,2018-06-29 10:35:19.250000,96.87,64.97
212073,2018-06-29 10:35:19.281250,89.29,64.97
212074,2018-06-29 10:35:19.312500,79.49,64.97
212075,2018-06-29 10:35:19.343750,71.9,64.97
212076,2018-06-29 10:35:19.375000,69.12,64.97
212077,2018-06-29 10:35:19.406250,70.11,64.97
212078,2018-06-29 10:35:19.437500,72.68,64.97
212079,2018-06-29 10:35:19.468750,76.03,64.97
212080,2018-06-29 10:35:19.500000,79.08,64.97
212081,2018-06-29 10:35:19.531250,78.62,64.5
212082,2018-06-29 10:35:19.562500,71.96,64.5
212083,2018-06-29 10:35:19.593750,59.54,64.5
212084,2018-06-29 10:35:19.625000,43.17,64.5
212085,2018-06-29 10:35:19.656250,22.39,64.5
212086,2018-06-29 10:35:19.687500,-8.45,64.5
212087,2018-06-29 10:35:19.718750,-56.79,64.5
212088,2018-06-29 10:35:19.750000,-118.46,64.5
212089,2018-06-29 10:35:19.781250,-173.16,64.5
212090,2018-06-29 10:35:19.812500,-201.5,64.5
212091,2018-06-29 10:35:19.843750,-200.11,64.5
212092,2018-06-29 10:35:19.875000,-178.19,64.5
212093,2018-06-29 10:35:19.906250,-151.01,64.5
212094,2018-06-29 10:35:19.937500,-135.29,64.5
212095,2018-06-29 10:35:19.968750,-137.48,64.5
212096,2018-06-29 10:35:20.000000,-148.85,64.5
212097,2018-06-29 10:35:20.031250,-158.8,64.5
212098,2018-06-29 10:35:20.062500,-165.34,64.5
212099,2018-06-29 10:35:20.093750,-171.68,64.5
212100,2018-06-29 10:35:20.125000,-181.49,64.5
212101,2018-06-29 10:35:20.156250,-194.97,64.5
212102,2018-06-29 10:35:20.187500,-199.94,64.5
212103,2018-06-29 10:35:20.218750,-173.3,64.5
212104,2018-06-29 10:35:20.250000,-103.47,64.5
212105,2018-06-29 10:35:20.281250,-5.55,64.5
212106,2018-06-29 10:35:20.312500,93.45,64.5
212107,2018-06-29 10:35:20.343750,174.35,64.5
212108,2018-06-29 10:35:20.375000,228.8,64.5
212109,2018-06-29 10:35:20.406250,257.33,64.5
212110,2018-06-29 10:35:20.437500,265.97,64.5
212111,2018-06-29 10:35:20.468750,257.55,64.5
212112,2018-06-29 10:35:20.500000,232.03,64.5
212113,2018-06-29 10:35:20.531250,197.89,64.02
212114,2018-06-29 10:35:20.562500,167.56,64.02
212115,2018-06-29 10:35:20.593750,137.26,64.02
212116,2018-06-29 10:35:20.625000,87.33,64.02
212117,2018-06-29 10:35:20.656250,6.97,64.02
212118,2018-06-29 10:35:20.687500,-92.35,64.02
212119,2018-06-29 10:35:20.718750,-189.27,64.02
212120,2018-06-29 10:35:20.750000,-266.7,64.02
212121,2018-06-29 10:35:20.781250,-309.66,64.02
212122,2018-06-29 10:35:20.812500,-304.54,64.02
212123,2018-06-29 10:35:20.843750,-254.84,64.02
212124,2018-06-29 10:35:20.875000,-188.49,64.02
212125,2018-06-29 10:35:20.906250,-133.62,64.02
212126,2018-06-29 10:35:20.937500,-94.67,64.02
212127,2018-06-29 10:35:20.968750,-63.85,64.02
212128,2018-06-29 10:35:21.000000,-39.65,64.02
212129,2018-06-29 10:35:21.031250,-18.93,64.02
212130,2018-06-29 10:35:21.062500,11.35,64.02
212131,2018-06-29 10:35:21.093750,57.65,64.02
212132,2018-06-29 10:35:21.125000,106.79,64.02
212133,2018-06-29 10:35:21.156250,141.34,64.02
212134,2018-06-29 10:35:21.187500,158.58,64.02
212135,2018-06-29 10:35:21.218750,166.14,64.02
212136,2018-06-29 10:35:21.250000,167.59,64.02
212137,2018-06-29 10:35:21.281250,158.62,64.02
212138,2018-06-29 10:35:21.312500,133.43,64.02
212139,2018-06-29 10:35:21.343750,94.41,64.02
212140,2018-06-29 10:35:21.375000,54.19,64.02
212141,2018-06-29 10:35:21.406250,23.43,64.02
212142,2018-06-29 10:35:21.437500,1.2,64.02
212143,2018-06-29 10:35:21.468750,-16.78,64.02
212144,2018-06-29 10:35:21.500000,-28.65,64.02
212145,2018-06-29 10:35:21.531250,-30.59,63.55
212146,2018-06-29 10:35:21.562500,-21.49,63.55
212147,2018-06-29 10:35:21.593750,-0.82,63.55
212148,2018-06-29 10:35:21.625000,29.86,63.55
212149,2018-06-29 10:35:21.656250,63.94,63.55
212150,2018-06-29 10:35:21.687500,95.13,63.55
212151,2018-06-29 10:35:21.718750,123.51,63.55
212152,2018-06-29 10:35:21.750000,149.56,63.55
212153,2018-06-29 10:35:21.781250,168.06,63.55
212154,2018-06-29 10:35:21.812500,174.95,63.55
212155,2018-06-29 10:35:21.843750,175.64,63.55
212156,2018-06-29 10:35:21.875000,183.61,63.55
212157,2018-06-29 10:35:21.906250,212.57,63.55
212158,2018-06-29 10:35:21.937500,261.59,63.55
212159,2018-06-29 10:35:21.968750,305.3,63.55
212160,2018-06-29 10:35:22.000000,314.83,63.55
212161,2018-06-29 10:35:22.031250,289.3,63.55
212162,2018-06-29 10:35:22.062500,249.4,63.55
212163,2018-06-29 10:35:22.093750,206.68,63.55
212164,2018-06-29 10:35:22.125000,160.04,63.55
212165,2018-06-29 10:35:22.156250,111.53,63.55
212166,2018-06-29 10:35:22.187500,64.46,63.55
212167,2018-06-29 10:35:22.218750,14.87,63.55
212168,2018-06-29 10:35:22.250000,-40.82,63.55
212169,2018-06-29 10:35:22.281250,-96.84,63.55
212170,2018-06-29 10:35:22.312500,-145.37,63.55
212171,2018-06-29 10:35:22.343750,-187.37,63.55
212172,2018-06-29 10:35:22.375000,-231.51,63.55
212173,2018-06-29 10:35:22.406250,-285.51,63.55
212174,2018-06-29 10:35:22.437500,-344.79,63.55
212175,2018-06-29 10:35:22.468750,-386.4,63.55
212176,2018-06-29 10:35:22.500000,-386.29,63.55
212177,2018-06-29 10:35:22.531250,-346.03,63.05
212178,2018-06-29 10:35:22.562500,-289.69,63.05
212179,2018-06-29 10:35:22.593750,-236.7,63.05
212180,2018-06-29 10:35:22.625000,-192.47,63.05
212181,2018-06-29 10:35:22.656250,-156.75,63.05
212182,2018-06-29 10:35:22.687500,-125.66,63.05
212183,2018-06-29 10:35:22.718750,-93.08,63.05
212184,2018-06-29 10:35:22.750000,-59.71,63.05
212185,2018-06-29 10:35:22.781250,-35.32,63.05
212186,2018-06-29 10:35:22.812500,-31.17,63.05
212187,2018-06-29 10:35:22.843750,-51.35,63.05
212188,2018-06-29 10:35:22.875000,-88.03,63.05
212189,2018-06-29 10:35:22.906250,-127.0,63.05
212190,2018-06-29 10:35:22.937500,-161.33,63.05
212191,2018-06-29 10:35:22.968750,-194.22,63.05
212192,2018-06-29 10:35:23.000000,-228.98,63.05
212193,2018-06-29 10:35:23.031250,-264.7,63.05
212194,2018-06-29 10:35:23.062500,-300.16,63.05
212195,2018-06-29 10:35:23.093750,-334.15,63.05
212196,2018-06-29 10:35:23.125000,-361.07,63.05
212197,2018-06-29 10:35:23.156250,-366.7,63.05
212198,2018-06-29 10:35:23.187500,-334.74,63.05
212199,2018-06-29 10:35:23.218750,-266.19,63.05
212200,2018-06-29 10:35:23.250000,-182.43,63.05
212201,2018-06-29 10:35:23.281250,-101.37,63.05
212202,2018-06-29 10:35:23.312500,-24.91,63.05
212203,2018-06-29 10:35:23.343750,46.92,63.05
212204,2018-06-29 10:35:23.375000,108.22,63.05
212205,2018-06-29 10:35:23.406250,155.54,63.05
212206,2018-06-29 10:35:23.437500,189.99,63.05
212207,2018-06-29 10:35:23.468750,212.96,63.05
212208,2018-06-29 10:35:23.500000,226.72,63.05
212209,2018-06-29 10:35:23.531250,234.24,62.72
212210,2018-06-29 10:35:23.562500,233.81,62.72
212211,2018-06-29 10:35:23.593750,218.58,62.72
212212,2018-06-29 10:35:23.625000,185.09,62.72
212213,2018-06-29 10:35:23.656250,140.12,62.72
212214,2018-06-29 10:35:23.687500,95.78,62.72
212215,2018-06-29 10:35:23.718750,58.38,62.72
212216,2018-06-29 10:35:23.750000,24.0,62.72
212217,2018-06-29 10:35:23.781250,-14.62,62.72
212218,2018-06-29 10:35:23.812500,-59.53,62.72
212219,2018-06-29 10:35:23.843750,-107.09,62.72
212220,2018-06-29 10:35:23.875000,-151.81,62.72
212221,2018-06-29 10:35:23.906250,-188.84,62.72
212222,2018-06-29 10:35:23.937500,-216.67,62.72
212223,2018-06-29 10:35:23.968750,-236.92,62.72
212224,2018-06-29 10:35:24.000000,-247.38,62.72
212225,2018-06-29 10:35:24.031250,-239.58,62.72
212226,2018-06-29 10:35:24.062500,-209.53,62.72
212227,2018-06-29 10:35:24.093750,-166.79,62.72
212228,2018-06-29 10:35:24.125000,-126.9,62.72
212229,2018-06-29 10:35:24.156250,-96.61,62.72
212230,2018-06-29 10:35:24.187500,-70.16,62.72
212231,2018-06-29 10:35:24.218750,-37.64,62.72
212232,2018-06-29 10:35:24.250000,7.36,62.72
212233,2018-06-29 10:35:24.281250,66.71,62.72
212234,2018-06-29 10:35:24.312500,137.82,62.72
212235,2018-06-29 10:35:24.343750,213.96,62.72
212236,2018-06-29 10:35:24.375000,289.67,62.72
212237,2018-06-29 10:35:24.406250,361.51,62.72
212238,2018-06-29 10:35:24.437500,420.04,62.72
212239,2018-06-29 10:35:24.468750,452.92,62.72
212240,2018-06-29 10:35:24.500000,459.16,62.72
212241,2018-06-29 10:35:24.531250,447.86,62.4
212242,2018-06-29 10:35:24.562500,424.28,62.4
212243,2018-06-29 10:35:24.593750,387.9,62.4
212244,2018-06-29 10:35:24.625000,338.33,62.4
212245,2018-06-29 10:35:24.656250,274.78,62.4
212246,2018-06-29 10:35:24.687500,196.82,62.4
212247,2018-06-29 10:35:24.718750,110.62,62.4
212248,2018-06-29 10:35:24.750000,28.21,62.4
212249,2018-06-29 10:35:24.781250,-42.32,62.4
212250,2018-06-29 10:35:24.812500,-100.37,62.4
212251,2018-06-29 10:35:24.843750,-144.22,62.4
212252,2018-06-29 10:35:24.875000,-165.06,62.4
212253,2018-06-29 10:35:24.906250,-157.85,62.4
212254,2018-06-29 10:35:24.937500,-133.6,62.4
212255,2018-06-29 10:35:24.968750,-110.78,62.4
212256,2018-06-29 10:35:25.000000,-97.57,62.4
212257,2018-06-29 10:35:25.031250,-91.1,62.4
212258,2018-06-29 10:35:25.062500,-88.34,62.4
212259,2018-06-29 10:35:25.093750,-88.31,62.4
212260,2018-06-29 10:35:25.125000,-87.92,62.4
212261,2018-06-29 10:35:25.156250,-84.8,62.4
212262,2018-06-29 10:35:25.187500,-81.28,62.4
212263,2018-06-29 10:35:25.218750,-80.93,62.4
212264,2018-06-29 10:35:25.250000,-84.2,62.4
212265,2018-06-29 10:35:25.281250,-88.97,62.4
212266,2018-06-29 10:35:25.312500,-90.97,62.4
212267,2018-06-29 10:35:25.343750,-80.48,62.4
212268,2018-06-29 10:35:25.375000,-47.01,62.4
212269,2018-06-29 10:35:25.406250,7.04,62.4
212270,2018-06-29 10:35:25.437500,64.23,62.4
212271,2018-06-29 10:35:25.468750,108.8,62.4
212272,2018-06-29 10:35:25.500000,139.29,62.4
212273,2018-06-29 10:35:25.531250,162.99,62.08
212274,2018-06-29 10:35:25.562500,183.71,62.08
212275,2018-06-29 10:35:25.593750,196.89,62.08
212276,2018-06-29 10:35:25.625000,193.89,62.08
212277,2018-06-29 10:35:25.656250,168.6,62.08
212278,2018-06-29 10:35:25.687500,120.8,62.08
212279,2018-06-29 10:35:25.718750,57.84,62.08
212280,2018-06-29 10:35:25.750000,-6.66,62.08
212281,2018-06-29 10:35:25.781250,-60.34,62.08
212282,2018-06-29 10:35:25.812500,-96.41,62.08
212283,2018-06-29 10:35:25.843750,-109.99,62.08
212284,2018-06-29 10:35:25.875000,-98.7,62.08
212285,2018-06-29 10:35:25.906250,-68.79,62.08
212286,2018-06-29 10:35:25.937500,-34.65,62.08
212287,2018-06-29 10:35:25.968750,-9.72,62.08
212288,2018-06-29 10:35:26.000000,1.37,62.08
212289,2018-06-29 10:35:26.031250,2.83,62.08
212290,2018-06-29 10:35:26.062500,1.7,62.08
212291,2018-06-29 10:35:26.093750,2.56,62.08
212292,2018-06-29 10:35:26.125000,7.33,62.08
212293,2018-06-29 10:35:26.156250,16.26,62.08
212294,2018-06-29 10:35:26.187500,27.38,62.08
212295,2018-06-29 10:35:26.218750,36.73,62.08
212296,2018-06-29 10:35:26.250000,41.14,62.08
212297,2018-06-29 10:35:26.281250,41.07,62.08
212298,2018-06-29 10:35:26.312500,39.82,62.08
212299,2018-06-29 10:35:26.343750,40.55,62.08
212300,2018-06-29 10:35:26.375000,44.44,62.08
212301,2018-06-29 10:35:26.406250,50.05,62.08
212302,2018-06-29 10:35:26.437500,54.27,62.08
212303,2018-06-29 10:35:26.468750,57.61,62.08
212304,2018-06-29 10:35:26.500000,66.09,62.08
212305,2018-06-29 10:35:26.531250,83.57,61.88
212306,2018-06-29 10:35:26.562500,108.49,61.88
212307,2018-06-29 10:35:26.593750,140.97,61.88
212308,2018-06-29 10:35:26.625000,180.51,61.88
212309,2018-06-29 10:35:26.656250,215.71,61.88
212310,2018-06-29 10:35:26.687500,231.87,61.88
212311,2018-06-29 10:35:26.718750,227.88,61.88
212312,2018-06-29 10:35:26.750000,213.78,61.88
212313,2018-06-29 10:35:26.781250,197.99,61.88
212314,2018-06-29 10:35:26.812500,184.11,61.88
212315,2018-06-29 10:35:26.843750,172.84,61.88
212316,2018-06-29 10:35:26.875000,164.24,61.88
212317,2018-06-29 10:35:26.906250,160.4,61.88
212318,2018-06-29 10:35:26.937500,159.74,61.88
212319,2018-06-29 10:35:26.968750,149.1,61.88
212320,2018-06-29 10:35:27.000000,115.37,61.88
212321,2018-06-29 10:35:27.031250,64.52,61.88
212322,2018-06-29 10:35:27.062500,15.36,61.88
212323,2018-06-29 10:35:27.093750,-23.35,61.88
212324,2018-06-29 10:35:27.125000,-58.04,61.88
212325,2018-06-29 10:35:27.156250,-98.49,61.88
212326,2018-06-29 10:35:27.187500,-145.67,61.88
212327,2018-06-29 10:35:27.218750,-183.93,61.88
212328,2018-06-29 10:35:27.250000,-191.94,61.88
212329,2018-06-29 10:35:27.281250,-168.47,61.88
212330,2018-06-29 10:35:27.312500,-132.83,61.88
212331,2018-06-29 10:35:27.343750,-99.85,61.88
212332,2018-06-29 10:35:27.375000,-73.22,61.88
212333,2018-06-29 10:35:27.406250,-55.19,61.88
212334,2018-06-29 10:35:27.437500,-45.35,61.88
212335,2018-06-29 10:35:27.468750,-39.45,61.88
212336,2018-06-29 10:35:27.500000,-37.9,61.88
212337,2018-06-29 10:35:27.531250,-46.72,61.65
212338,2018-06-29 10:35:27.562500,-69.68,61.65
212339,2018-06-29 10:35:27.593750,-102.52,61.65
212340,2018-06-29 10:35:27.625000,-133.11,61.65
212341,2018-06-29 10:35:27.656250,-150.51,61.65
212342,2018-06-29 10:35:27.687500,-155.45,61.65
212343,2018-06-29 10:35:27.718750,-155.78,61.65
212344,2018-06-29 10:35:27.750000,-153.72,61.65
212345,2018-06-29 10:35:27.781250,-146.71,61.65
212346,2018-06-29 10:35:27.812500,-136.83,61.65
212347,2018-06-29 10:35:27.843750,-129.18,61.65
212348,2018-06-29 10:35:27.875000,-124.94,61.65
212349,2018-06-29 10:35:27.906250,-122.82,61.65
212350,2018-06-29 10:35:27.937500,-122.23,61.65
212351,2018-06-29 10:35:27.968750,-121.04,61.65
212352,2018-06-29 10:35:28.000000,-116.47,61.65
212353,2018-06-29 10:35:28.031250,-110.01,61.65
212354,2018-06-29 10:35:28.062500,-106.33,61.65
212355,2018-06-29 10:35:28.093750,-106.61,61.65
212356,2018-06-29 10:35:28.125000,-106.31,61.65
212357,2018-06-29 10:35:28.156250,-100.51,61.65
212358,2018-06-29 10:35:28.187500,-90.68,61.65
212359,2018-06-29 10:35:28.218750,-83.53,61.65
212360,2018-06-29 10:35:28.250000,-81.93,61.65
212361,2018-06-29 10:35:28.281250,-80.81,61.65
212362,2018-06-29 10:35:28.312500,-75.6,61.65
212363,2018-06-29 10:35:28.343750,-69.84,61.65
212364,2018-06-29 10:35:28.375000,-69.35,61.65
212365,2018-06-29 10:35:28.406250,-74.14,61.65
212366,2018-06-29 10:35:28.437500,-80.15,61.65
212367,2018-06-29 10:35:28.468750,-84.09,61.65
212368,2018-06-29 10:35:28.500000,-85.29,61.65
212369,2018-06-29 10:35:28.531250,-85.69,61.42
212370,2018-06-29 10:35:28.562500,-85.89,61.42
212371,2018-06-29 10:35:28.593750,-80.63,61.42
212372,2018-06-29 10:35:28.625000,-64.21,61.42
212373,2018-06-29 10:35:28.656250,-39.37,61.42
212374,2018-06-29 10:35:28.687500,-13.73,61.42
212375,2018-06-29 10:35:28.718750,9.19,61.42
212376,2018-06-29 10:35:28.750000,29.37,61.42
212377,2018-06-29 10:35:28.781250,45.48,61.42
212378,2018-06-29 10:35:28.812500,55.4,61.42
212379,2018-06-29 10:35:28.843750,59.26,61.42
212380,2018-06-29 10:35:28.875000,60.04,61.42
212381,2018-06-29 10:35:28.906250,61.85,61.42
212382,2018-06-29 10:35:28.937500,67.21,61.42
212383,2018-06-29 10:35:28.968750,75.79,61.42
212384,2018-06-29 10:35:29.000000,85.2,61.42
212385,2018-06-29 10:35:29.031250,92.87,61.42
212386,2018-06-29 10:35:29.062500,97.02,61.42
212387,2018-06-29 10:35:29.093750,95.72,61.42
212388,2018-06-29 10:35:29.125000,87.7,61.42
212389,2018-06-29 10:35:29.156250,75.8,61.42
212390,2018-06-29 10:35:29.187500,65.07,61.42
212391,2018-06-29 10:35:29.218750,56.32,61.42
212392,2018-06-29 10:35:29.250000,46.1,61.42
212393,2018-06-29 10:35:29.281250,32.96,61.42
212394,2018-06-29 10:35:29.312500,18.24,61.42
212395,2018-06-29 10:35:29.343750,2.3,61.42
212396,2018-06-29 10:35:29.375000,-15.12,61.42
212397,2018-06-29 10:35:29.406250,-32.72,61.42
212398,2018-06-29 10:35:29.437500,-49.45,61.42
212399,2018-06-29 10:35:29.468750,-66.78,61.42
212400,2018-06-29 10:35:29.500000,-87.11,61.42
212401,2018-06-29 10:35:29.531250,-110.58,61.18
212402,2018-06-29 10:35:29.562500,-130.83,61.18
212403,2018-06-29 10:35:29.593750,-134.89,61.18
212404,2018-06-29 10:35:29.625000,-114.48,61.18
212405,2018-06-29 10:35:29.656250,-77.03,61.18
212406,2018-06-29 10:35:29.687500,-38.3,61.18
212407,2018-06-29 10:35:29.718750,-7.05,61.18
212408,2018-06-29 10:35:29.750000,17.35,61.18
212409,2018-06-29 10:35:29.781250,37.57,61.18
212410,2018-06-29 10:35:29.812500,53.98,61.18
212411,2018-06-29 10:35:29.843750,65.19,61.18
212412,2018-06-29 10:35:29.875000,70.61,61.18
212413,2018-06-29 10:35:29.906250,71.95,61.18
212414,2018-06-29 10:35:29.937500,71.34,61.18
212415,2018-06-29 10:35:29.968750,69.64,61.18
212416,2018-06-29 10:35:30.000000,66.38,61.18
212417,2018-06-29 10:35:30.031250,60.38,61.18
212418,2018-06-29 10:35:30.062500,50.75,61.18
212419,2018-06-29 10:35:30.093750,39.07,61.18
212420,2018-06-29 10:35:30.125000,28.96,61.18
212421,2018-06-29 10:35:30.156250,22.75,61.18
212422,2018-06-29 10:35:30.187500,20.07,61.18
212423,2018-06-29 10:35:30.218750,20.27,61.18
212424,2018-06-29 10:35:30.250000,23.81,61.18
212425,2018-06-29 10:35:30.281250,30.01,61.18
212426,2018-06-29 10:35:30.312500,35.35,61.18
212427,2018-06-29 10:35:30.343750,35.25,61.18
212428,2018-06-29 10:35:30.375000,26.92,61.18
212429,2018-06-29 10:35:30.406250,10.46,61.18
212430,2018-06-29 10:35:30.437500,-12.38,61.18
212431,2018-06-29 10:35:30.468750,-39.75,61.18
212432,2018-06-29 10:35:30.500000,-66.65,61.18
212433,2018-06-29 10:35:30.531250,-81.38,60.9
212434,2018-06-29 10:35:30.562500,-73.8,60.9
212435,2018-06-29 10:35:30.593750,-47.99,60.9
212436,2018-06-29 10:35:30.625000,-17.89,60.9
212437,2018-06-29 10:35:30.656250,8.12,60.9
212438,2018-06-29 10:35:30.687500,30.24,60.9
212439,2018-06-29 10:35:30.718750,49.37,60.9
212440,2018-06-29 10:35:30.750000,64.19,60.9
212441,2018-06-29 10:35:30.781250,73.58,60.9
212442,2018-06-29 10:35:30.812500,77.51,60.9
212443,2018-06-29 10:35:30.843750,76.81,60.9
212444,2018-06-29 10:35:30.875000,73.54,60.9
212445,2018-06-29 10:35:30.906250,70.41,60.9
212446,2018-06-29 10:35:30.937500,68.51,60.9
212447,2018-06-29 10:35:30.968750,65.89,60.9
212448,2018-06-29 10:35:31.000000,59.88,60.9
212449,2018-06-29 10:35:31.031250,50.6,60.9
212450,2018-06-29 10:35:31.062500,40.72,60.9
212451,2018-06-29 10:35:31.093750,31.93,60.9
212452,2018-06-29 10:35:31.125000,23.41,60.9
212453,2018-06-29 10:35:31.156250,13.91,60.9
212454,2018-06-29 10:35:31.187500,4.4,60.9
212455,2018-06-29 10:35:31.218750,-3.19,60.9
212456,2018-06-29 10:35:31.250000,-9.76,60.9
212457,2018-06-29 10:35:31.281250,-18.39,60.9
212458,2018-06-29 10:35:31.312500,-29.58,60.9
212459,2018-06-29 10:35:31.343750,-40.79,60.9
212460,2018-06-29 10:35:31.375000,-51.24,60.9
212461,2018-06-29 10:35:31.406250,-63.3,60.9
212462,2018-06-29 10:35:31.437500,-78.94,60.9
212463,2018-06-29 10:35:31.468750,-95.46,60.9
212464,2018-06-29 10:35:31.500000,-103.62,60.9
212465,2018-06-29 10:35:31.531250,-93.21,60.67
212466,2018-06-29 10:35:31.562500,-64.4,60.67
212467,2018-06-29 10:35:31.593750,-29.52,60.67
212468,2018-06-29 10:35:31.625000,0.36,60.67
212469,2018-06-29 10:35:31.656250,25.46,60.67
212470,2018-06-29 10:35:31.687500,50.22,60.67
212471,2018-06-29 10:35:31.718750,72.45,60.67
212472,2018-06-29 10:35:31.750000,85.33,60.67
212473,2018-06-29 10:35:31.781250,87.66,60.67
212474,2018-06-29 10:35:31.812500,85.2,60.67
212475,2018-06-29 10:35:31.843750,82.76,60.67
212476,2018-06-29 10:35:31.875000,80.8,60.67
212477,2018-06-29 10:35:31.906250,78.77,60.67
212478,2018-06-29 10:35:31.937500,76.38,60.67
212479,2018-06-29 10:35:31.968750,72.42,60.67
212480,2018-06-29 10:35:32.000000,65.72,60.67
212481,2018-06-29 10:35:32.031250,56.7,60.67
212482,2018-06-29 10:35:32.062500,45.37,60.67
212483,2018-06-29 10:35:32.093750,29.58,60.67
212484,2018-06-29 10:35:32.125000,7.55,60.67
212485,2018-06-29 10:35:32.156250,-18.21,60.67
212486,2018-06-29 10:35:32.187500,-41.15,60.67
212487,2018-06-29 10:35:32.218750,-54.76,60.67
212488,2018-06-29 10:35:32.250000,-56.27,60.67
212489,2018-06-29 10:35:32.281250,-47.84,60.67
212490,2018-06-29 10:35:32.312500,-35.03,60.67
212491,2018-06-29 10:35:32.343750,-23.57,60.67
212492,2018-06-29 10:35:32.375000,-17.76,60.67
212493,2018-06-29 10:35:32.406250,-20.94,60.67
212494,2018-06-29 10:35:32.437500,-34.6,60.67
212495,2018-06-29 10:35:32.468750,-56.24,60.67
212496,2018-06-29 10:35:32.500000,-77.76,60.67
212497,2018-06-29 10:35:32.531250,-87.36,60.48
212498,2018-06-29 10:35:32.562500,-76.9,60.48
212499,2018-06-29 10:35:32.593750,-49.08,60.48
212500,2018-06-29 10:35:32.625000,-15.41,60.48
212501,2018-06-29 10:35:32.656250,14.67,60.48
212502,2018-06-29 10:35:32.687500,40.28,60.48
212503,2018-06-29 10:35:32.718750,64.41,60.48
212504,2018-06-29 10:35:32.750000,86.73,60.48
212505,2018-06-29 10:35:32.781250,104.02,60.48
212506,2018-06-29 10:35:32.812500,114.65,60.48
212507,2018-06-29 10:35:32.843750,118.61,60.48
212508,2018-06-29 10:35:32.875000,114.9,60.48
212509,2018-06-29 10:35:32.906250,103.11,60.48
212510,2018-06-29 10:35:32.937500,86.36,60.48
212511,2018-06-29 10:35:32.968750,68.69,60.48
212512,2018-06-29 10:35:33.000000,51.17,60.48
212513,2018-06-29 10:35:33.031250,33.48,60.48
212514,2018-06-29 10:35:33.062500,16.74,60.48
212515,2018-06-29 10:35:33.093750,2.7,60.48
212516,2018-06-29 10:35:33.125000,-7.2,60.48
212517,2018-06-29 10:35:33.156250,-11.94,60.48
212518,2018-06-29 10:35:33.187500,-12.88,60.48
212519,2018-06-29 10:35:33.218750,-14.59,60.48
212520,2018-06-29 10:35:33.250000,-21.44,60.48
212521,2018-06-29 10:35:33.281250,-33.71,60.48
212522,2018-06-29 10:35:33.312500,-47.9,60.48
212523,2018-06-29 10:35:33.343750,-60.06,60.48
212524,2018-06-29 10:35:33.375000,-68.62,60.48
212525,2018-06-29 10:35:33.406250,-74.69,60.48
212526,2018-06-29 10:35:33.437500,-79.59,60.48
212527,2018-06-29 10:35:33.468750,-80.0,60.48
212528,2018-06-29 10:35:33.500000,-68.15,60.48
212529,2018-06-29 10:35:33.531250,-41.99,60.25
212530,2018-06-29 10:35:33.562500,-11.59,60.25
212531,2018-06-29 10:35:33.593750,10.86,60.25
212532,2018-06-29 10:35:33.625000,22.81,60.25
212533,2018-06-29 10:35:33.656250,28.61,60.25
212534,2018-06-29 10:35:33.687500,31.02,60.25
212535,2018-06-29 10:35:33.718750,29.74,60.25
212536,2018-06-29 10:35:33.750000,24.5,60.25
212537,2018-06-29 10:35:33.781250,17.38,60.25
212538,2018-06-29 10:35:33.812500,11.78,60.25
212539,2018-06-29 10:35:33.843750,9.39,60.25
212540,2018-06-29 10:35:33.875000,9.17,60.25
212541,2018-06-29 10:35:33.906250,9.08,60.25
212542,2018-06-29 10:35:33.937500,7.43,60.25
212543,2018-06-29 10:35:33.968750,3.63,60.25
212544,2018-06-29 10:35:34.000000,-1.89,60.25
212545,2018-06-29 10:35:34.031250,-9.2,60.25
212546,2018-06-29 10:35:34.062500,-18.8,60.25
212547,2018-06-29 10:35:34.093750,-29.44,60.25
212548,2018-06-29 10:35:34.125000,-37.74,60.25
212549,2018-06-29 10:35:34.156250,-40.99,60.25
212550,2018-06-29 10:35:34.187500,-40.21,60.25
212551,2018-06-29 10:35:34.218750,-39.94,60.25
212552,2018-06-29 10:35:34.250000,-42.45,60.25
212553,2018-06-29 10:35:34.281250,-41.21,60.25
212554,2018-06-29 10:35:34.312500,-26.11,60.25
212555,2018-06-29 10:35:34.343750,2.1,60.25
212556,2018-06-29 10:35:34.375000,30.41,60.25
212557,2018-06-29 10:35:34.406250,48.09,60.25
212558,2018-06-29 10:35:34.437500,55.5,60.25
212559,2018-06-29 10:35:34.468750,57.73,60.25
212560,2018-06-29 10:35:34.500000,57.63,60.25
212561,2018-06-29 10:35:34.531250,56.37,60.1
212562,2018-06-29 10:35:34.562500,55.66,60.1
212563,2018-06-29 10:35:34.593750,56.58,60.1
212564,2018-06-29 10:35:34.625000,57.24,60.1
212565,2018-06-29 10:35:34.656250,53.85,60.1
212566,2018-06-29 10:35:34.687500,44.89,60.1
212567,2018-06-29 10:35:34.718750,31.74,60.1
212568,2018-06-29 10:35:34.750000,16.17,60.1
212569,2018-06-29 10:35:34.781250,0.94,60.1
212570,2018-06-29 10:35:34.812500,-10.3,60.1
212571,2018-06-29 10:35:34.843750,-17.27,60.1
212572,2018-06-29 10:35:34.875000,-23.5,60.1
212573,2018-06-29 10:35:34.906250,-31.15,60.1
212574,2018-06-29 10:35:34.937500,-39.79,60.1
212575,2018-06-29 10:35:34.968750,-49.95,60.1
212576,2018-06-29 10:35:35.000000,-62.76,60.1
212577,2018-06-29 10:35:35.031250,-75.12,60.1
212578,2018-06-29 10:35:35.062500,-78.11,60.1
212579,2018-06-29 10:35:35.093750,-63.64,60.1
212580,2018-06-29 10:35:35.125000,-34.36,60.1
212581,2018-06-29 10:35:35.156250,-2.74,60.1
212582,2018-06-29 10:35:35.187500,20.4,60.1
212583,2018-06-29 10:35:35.218750,32.84,60.1
212584,2018-06-29 10:35:35.250000,36.94,60.1
212585,2018-06-29 10:35:35.281250,34.54,60.1
212586,2018-06-29 10:35:35.312500,28.06,60.1
212587,2018-06-29 10:35:35.343750,22.43,60.1
212588,2018-06-29 10:35:35.375000,21.32,60.1
212589,2018-06-29 10:35:35.406250,22.72,60.1
212590,2018-06-29 10:35:35.437500,22.23,60.1
212591,2018-06-29 10:35:35.468750,18.93,60.1
212592,2018-06-29 10:35:35.500000,14.26,60.1
212593,2018-06-29 10:35:35.531250,8.1,59.93
212594,2018-06-29 10:35:35.562500,-1.02,59.93
212595,2018-06-29 10:35:35.593750,-13.22,59.93
212596,2018-06-29 10:35:35.625000,-26.46,59.93
212597,2018-06-29 10:35:35.656250,-38.58,59.93
212598,2018-06-29 10:35:35.687500,-49.3,59.93
212599,2018-06-29 10:35:35.718750,-60.16,59.93
212600,2018-06-29 10:35:35.750000,-73.37,59.93
212601,2018-06-29 10:35:35.781250,-88.25,59.93
212602,2018-06-29 10:35:35.812500,-96.29,59.93
212603,2018-06-29 10:35:35.843750,-85.45,59.93
212604,2018-06-29 10:35:35.875000,-54.47,59.93
212605,2018-06-29 10:35:35.906250,-16.76,59.93
212606,2018-06-29 10:35:35.937500,13.71,59.93
212607,2018-06-29 10:35:35.968750,33.47,59.93
212608,2018-06-29 10:35:36.000000,45.28,59.93
212609,2018-06-29 10:35:36.031250,51.01,59.93
212610,2018-06-29 10:35:36.062500,51.6,59.93
212611,2018-06-29 10:35:36.093750,49.09,59.93
212612,2018-06-29 10:35:36.125000,46.2,59.93
212613,2018-06-29 10:35:36.156250,44.71,59.93
212614,2018-06-29 10:35:36.187500,44.36,59.93
212615,2018-06-29 10:35:36.218750,43.46,59.93
212616,2018-06-29 10:35:36.250000,40.32,59.93
212617,2018-06-29 10:35:36.281250,33.98,59.93
212618,2018-06-29 10:35:36.312500,24.17,59.93
212619,2018-06-29 10:35:36.343750,11.62,59.93
212620,2018-06-29 10:35:36.375000,-1.95,59.93
212621,2018-06-29 10:35:36.406250,-14.91,59.93
212622,2018-06-29 10:35:36.437500,-27.04,59.93
212623,2018-06-29 10:35:36.468750,-38.92,59.93
212624,2018-06-29 10:35:36.500000,-50.76,59.93
212625,2018-06-29 10:35:36.531250,-63.23,59.78
212626,2018-06-29 10:35:36.562500,-77.55,59.78
212627,2018-06-29 10:35:36.593750,-89.65,59.78
212628,2018-06-29 10:35:36.625000,-87.65,59.78
212629,2018-06-29 10:35:36.656250,-64.17,59.78
212630,2018-06-29 10:35:36.687500,-28.05,59.78
212631,2018-06-29 10:35:36.718750,4.72,59.78
212632,2018-06-29 10:35:36.750000,26.83,59.78
212633,2018-06-29 10:35:36.781250,40.08,59.78
212634,2018-06-29 10:35:36.812500,46.48,59.78
212635,2018-06-29 10:35:36.843750,45.74,59.78
212636,2018-06-29 10:35:36.875000,39.27,59.78
212637,2018-06-29 10:35:36.906250,31.5,59.78
212638,2018-06-29 10:35:36.937500,25.97,59.78
212639,2018-06-29 10:35:36.968750,22.28,59.78
212640,2018-06-29 10:35:37.000000,18.92,59.78
212641,2018-06-29 10:35:37.031250,15.89,59.78
212642,2018-06-29 10:35:37.062500,12.89,59.78
212643,2018-06-29 10:35:37.093750,9.23,59.78
212644,2018-06-29 10:35:37.125000,5.1,59.78
212645,2018-06-29 10:35:37.156250,0.07,59.78
212646,2018-06-29 10:35:37.187500,-7.47,59.78
212647,2018-06-29 10:35:37.218750,-16.81,59.78
212648,2018-06-29 10:35:37.250000,-23.87,59.78
212649,2018-06-29 10:35:37.281250,-26.45,59.78
212650,2018-06-29 10:35:37.312500,-30.21,59.78
212651,2018-06-29 10:35:37.343750,-45.41,59.78
212652,2018-06-29 10:35:37.375000,-71.74,59.78
212653,2018-06-29 10:35:37.406250,-90.56,59.78
212654,2018-06-29 10:35:37.437500,-82.3,59.78
212655,2018-06-29 10:35:37.468750,-48.01,59.78
212656,2018-06-29 10:35:37.500000,-4.39,59.78
212657,2018-06-29 10:35:37.531250,36.42,59.62
212658,2018-06-29 10:35:37.562500,71.55,59.62
212659,2018-06-29 10:35:37.593750,97.7,59.62
212660,2018-06-29 10:35:37.625000,108.48,59.62
212661,2018-06-29 10:35:37.656250,102.44,59.62
212662,2018-06-29 10:35:37.687500,86.97,59.62
212663,2018-06-29 10:35:37.718750,72.24,59.62
212664,2018-06-29 10:35:37.750000,65.41,59.62
212665,2018-06-29 10:35:37.781250,70.37,59.62
212666,2018-06-29 10:35:37.812500,85.11,59.62
212667,2018-06-29 10:35:37.843750,100.56,59.62
212668,2018-06-29 10:35:37.875000,109.38,59.62
212669,2018-06-29 10:35:37.906250,111.6,59.62
212670,2018-06-29 10:35:37.937500,105.64,59.62
212671,2018-06-29 10:35:37.968750,82.82,59.62
212672,2018-06-29 10:35:38.000000,40.58,59.62
212673,2018-06-29 10:35:38.031250,-7.65,59.62
212674,2018-06-29 10:35:38.062500,-44.82,59.62
212675,2018-06-29 10:35:38.093750,-66.42,59.62
212676,2018-06-29 10:35:38.125000,-79.03,59.62
212677,2018-06-29 10:35:38.156250,-90.4,59.62
212678,2018-06-29 10:35:38.187500,-105.01,59.62
212679,2018-06-29 10:35:38.218750,-120.42,59.62
212680,2018-06-29 10:35:38.250000,-124.56,59.62
212681,2018-06-29 10:35:38.281250,-106.65,59.62
212682,2018-06-29 10:35:38.312500,-71.96,59.62
212683,2018-06-29 10:35:38.343750,-37.68,59.62
212684,2018-06-29 10:35:38.375000,-15.12,59.62
212685,2018-06-29 10:35:38.406250,-2.88,59.62
212686,2018-06-29 10:35:38.437500,5.4,59.62
212687,2018-06-29 10:35:38.468750,12.77,59.62
212688,2018-06-29 10:35:38.500000,17.68,59.62
212689,2018-06-29 10:35:38.531250,17.94,59.45
212690,2018-06-29 10:35:38.562500,14.08,59.45
212691,2018-06-29 10:35:38.593750,9.46,59.45
212692,2018-06-29 10:35:38.625000,9.49,59.45
212693,2018-06-29 10:35:38.656250,18.96,59.45
212694,2018-06-29 10:35:38.687500,36.3,59.45
212695,2018-06-29 10:35:38.718750,52.46,59.45
212696,2018-06-29 10:35:38.750000,58.9,59.45
212697,2018-06-29 10:35:38.781250,55.01,59.45
212698,2018-06-29 10:35:38.812500,45.35,59.45
212699,2018-06-29 10:35:38.843750,32.57,59.45
212700,2018-06-29 10:35:38.875000,17.35,59.45
212701,2018-06-29 10:35:38.906250,2.2,59.45
212702,2018-06-29 10:35:38.937500,-10.42,59.45
212703,2018-06-29 10:35:38.968750,-22.4,59.45
212704,2018-06-29 10:35:39.000000,-37.07,59.45
212705,2018-06-29 10:35:39.031250,-53.91,59.45
212706,2018-06-29 10:35:39.062500,-70.55,59.45
212707,2018-06-29 10:35:39.093750,-87.35,59.45
212708,2018-06-29 10:35:39.125000,-106.31,59.45
212709,2018-06-29 10:35:39.156250,-127.41,59.45
212710,2018-06-29 10:35:39.187500,-146.29,59.45
212711,2018-06-29 10:35:39.218750,-152.28,59.45
212712,2018-06-29 10:35:39.250000,-133.04,59.45
212713,2018-06-29 10:35:39.281250,-89.2,59.45
212714,2018-06-29 10:35:39.312500,-39.13,59.45
212715,2018-06-29 10:35:39.343750,-1.23,59.45
212716,2018-06-29 10:35:39.375000,21.12,59.45
212717,2018-06-29 10:35:39.406250,32.52,59.45
212718,2018-06-29 10:35:39.437500,35.71,59.45
212719,2018-06-29 10:35:39.468750,34.34,59.45
212720,2018-06-29 10:35:39.500000,35.7,59.45
212721,2018-06-29 10:35:39.531250,45.6,59.28
212722,2018-06-29 10:35:39.562500,63.93,59.28
212723,2018-06-29 10:35:39.593750,85.3,59.28
212724,2018-06-29 10:35:39.625000,102.54,59.28
212725,2018-06-29 10:35:39.656250,110.79,59.28
212726,2018-06-29 10:35:39.687500,109.27,59.28
212727,2018-06-29 10:35:39.718750,100.51,59.28
212728,2018-06-29 10:35:39.750000,88.99,59.28
212729,2018-06-29 10:35:39.781250,78.14,59.28
212730,2018-06-29 10:35:39.812500,67.5,59.28
212731,2018-06-29 10:35:39.843750,55.62,59.28
212732,2018-06-29 10:35:39.875000,44.62,59.28
212733,2018-06-29 10:35:39.906250,37.12,59.28
212734,2018-06-29 10:35:39.937500,31.48,59.28
212735,2018-06-29 10:35:39.968750,23.29,59.28
212736,2018-06-29 10:35:40.000000,9.96,59.28
212737,2018-06-29 10:35:40.031250,-7.58,59.28
212738,2018-06-29 10:35:40.062500,-26.72,59.28
212739,2018-06-29 10:35:40.093750,-47.07,59.28
212740,2018-06-29 10:35:40.125000,-71.28,59.28
212741,2018-06-29 10:35:40.156250,-98.04,59.28
212742,2018-06-29 10:35:40.187500,-115.76,59.28
212743,2018-06-29 10:35:40.218750,-111.05,59.28
212744,2018-06-29 10:35:40.250000,-84.18,59.28
212745,2018-06-29 10:35:40.281250,-48.89,59.28
212746,2018-06-29 10:35:40.312500,-17.48,59.28
212747,2018-06-29 10:35:40.343750,6.97,59.28
212748,2018-06-29 10:35:40.375000,25.7,59.28
212749,2018-06-29 10:35:40.406250,38.97,59.28
212750,2018-06-29 10:35:40.437500,45.84,59.28
212751,2018-06-29 10:35:40.468750,46.55,59.28
212752,2018-06-29 10:35:40.500000,44.46,59.28
212753,2018-06-29 10:35:40.531250,44.39,59.05
212754,2018-06-29 10:35:40.562500,48.61,59.05
212755,2018-06-29 10:35:40.593750,55.56,59.05
212756,2018-06-29 10:35:40.625000,62.28,59.05
212757,2018-06-29 10:35:40.656250,66.72,59.05
212758,2018-06-29 10:35:40.687500,67.83,59.05
212759,2018-06-29 10:35:40.718750,65.23,59.05
212760,2018-06-29 10:35:40.750000,58.75,59.05
212761,2018-06-29 10:35:40.781250,47.28,59.05
212762,2018-06-29 10:35:40.812500,29.06,59.05
212763,2018-06-29 10:35:40.843750,4.63,59.05
212764,2018-06-29 10:35:40.875000,-22.99,59.05
212765,2018-06-29 10:35:40.906250,-52.2,59.05
212766,2018-06-29 10:35:40.937500,-83.14,59.05
212767,2018-06-29 10:35:40.968750,-112.02,59.05
212768,2018-06-29 10:35:41.000000,-129.77,59.05
212769,2018-06-29 10:35:41.031250,-130.43,59.05
212770,2018-06-29 10:35:41.062500,-117.23,59.05
212771,2018-06-29 10:35:41.093750,-96.59,59.05
212772,2018-06-29 10:35:41.125000,-72.12,59.05
212773,2018-06-29 10:35:41.156250,-48.32,59.05
212774,2018-06-29 10:35:41.187500,-33.65,59.05
212775,2018-06-29 10:35:41.218750,-33.83,59.05
212776,2018-06-29 10:35:41.250000,-44.51,59.05
212777,2018-06-29 10:35:41.281250,-52.7,59.05
212778,2018-06-29 10:35:41.312500,-46.37,59.05
212779,2018-06-29 10:35:41.343750,-24.46,59.05
212780,2018-06-29 10:35:41.375000,3.57,59.05
212781,2018-06-29 10:35:41.406250,28.5,59.05
212782,2018-06-29 10:35:41.437500,48.23,59.05
212783,2018-06-29 10:35:41.468750,64.3,59.05
212784,2018-06-29 10:35:41.500000,77.11,59.05
212785,2018-06-29 10:35:41.531250,85.97,58.82
212786,2018-06-29 10:35:41.562500,91.15,58.82
212787,2018-06-29 10:35:41.593750,94.37,58.82
212788,2018-06-29 10:35:41.625000,97.1,58.82
212789,2018-06-29 10:35:41.656250,98.81,58.82
212790,2018-06-29 10:35:41.687500,97.96,58.82
212791,2018-06-29 10:35:41.718750,93.19,58.82
212792,2018-06-29 10:35:41.750000,83.28,58.82
212793,2018-06-29 10:35:41.781250,67.67,58.82
212794,2018-06-29 10:35:41.812500,47.44,58.82
212795,2018-06-29 10:35:41.843750,24.96,58.82
212796,2018-06-29 10:35:41.875000,3.11,58.82
212797,2018-06-29 10:35:41.906250,-14.71,58.82
212798,2018-06-29 10:35:41.937500,-25.27,58.82
212799,2018-06-29 10:35:41.968750,-27.47,58.82
212800,2018-06-29 10:35:42.000000,-23.63,58.82
212801,2018-06-29 10:35:42.031250,-17.3,58.82
212802,2018-06-29 10:35:42.062500,-9.72,58.82
212803,2018-06-29 10:35:42.093750,0.56,58.82
212804,2018-06-29 10:35:42.125000,15.81,58.82
212805,2018-06-29 10:35:42.156250,37.66,58.82
212806,2018-06-29 10:35:42.187500,66.09,58.82
212807,2018-06-29 10:35:42.218750,98.8,58.82
212808,2018-06-29 10:35:42.250000,130.51,58.82
212809,2018-06-29 10:35:42.281250,153.09,58.82
212810,2018-06-29 10:35:42.312500,161.37,58.82
212811,2018-06-29 10:35:42.343750,161.67,58.82
212812,2018-06-29 10:35:42.375000,168.15,58.82
212813,2018-06-29 10:35:42.406250,186.31,58.82
212814,2018-06-29 10:35:42.437500,206.03,58.82
212815,2018-06-29 10:35:42.468750,211.01,58.82
212816,2018-06-29 10:35:42.500000,192.36,58.82
212817,2018-06-29 10:35:42.531250,157.39,58.6
212818,2018-06-29 10:35:42.562500,126.99,58.6
212819,2018-06-29 10:35:42.593750,118.01,58.6
212820,2018-06-29 10:35:42.625000,128.55,58.6
212821,2018-06-29 10:35:42.656250,144.21,58.6
212822,2018-06-29 10:35:42.687500,152.63,58.6
212823,2018-06-29 10:35:42.718750,148.59,58.6
212824,2018-06-29 10:35:42.750000,133.24,58.6
212825,2018-06-29 10:35:42.781250,111.71,58.6
212826,2018-06-29 10:35:42.812500,89.02,58.6
212827,2018-06-29 10:35:42.843750,67.8,58.6
212828,2018-06-29 10:35:42.875000,48.63,58.6
212829,2018-06-29 10:35:42.906250,30.34,58.6
212830,2018-06-29 10:35:42.937500,10.09,58.6
212831,2018-06-29 10:35:42.968750,-13.75,58.6
212832,2018-06-29 10:35:43.000000,-39.07,58.6
212833,2018-06-29 10:35:43.031250,-63.16,58.6
212834,2018-06-29 10:35:43.062500,-87.61,58.6
212835,2018-06-29 10:35:43.093750,-115.61,58.6
212836,2018-06-29 10:35:43.125000,-144.81,58.6
212837,2018-06-29 10:35:43.156250,-169.7,58.6
212838,2018-06-29 10:35:43.187500,-192.94,58.6
212839,2018-06-29 10:35:43.218750,-226.19,58.6
212840,2018-06-29 10:35:43.250000,-275.02,58.6
212841,2018-06-29 10:35:43.281250,-331.36,58.6
212842,2018-06-29 10:35:43.312500,-385.67,58.6
212843,2018-06-29 10:35:43.343750,-439.27,58.6
212844,2018-06-29 10:35:43.375000,-502.63,58.6
212845,2018-06-29 10:35:43.406250,-587.01,58.6
212846,2018-06-29 10:35:43.437500,-680.06,58.6
212847,2018-06-29 10:35:43.468750,-730.33,58.6
212848,2018-06-29 10:35:43.500000,-694.35,58.6
212849,2018-06-29 10:35:43.531250,-595.28,58.3
212850,2018-06-29 10:35:43.562500,-492.92,58.3
212851,2018-06-29 10:35:43.593750,-413.32,58.3
212852,2018-06-29 10:35:43.625000,-347.89,58.3
212853,2018-06-29 10:35:43.656250,-289.64,58.3
212854,2018-06-29 10:35:43.687500,-233.27,58.3
212855,2018-06-29 10:35:43.718750,-167.92,58.3
212856,2018-06-29 10:35:43.750000,-91.95,58.3
212857,2018-06-29 10:35:43.781250,-17.04,58.3
212858,2018-06-29 10:35:43.812500,49.7,58.3
212859,2018-06-29 10:35:43.843750,112.86,58.3
212860,2018-06-29 10:35:43.875000,171.13,58.3
212861,2018-06-29 10:35:43.906250,207.03,58.3
212862,2018-06-29 10:35:43.937500,207.47,58.3
212863,2018-06-29 10:35:43.968750,183.72,58.3
212864,2018-06-29 10:35:44.000000,157.7,58.3
212865,2018-06-29 10:35:44.031250,138.72,58.3
212866,2018-06-29 10:35:44.062500,123.48,58.3
212867,2018-06-29 10:35:44.093750,108.43,58.3
212868,2018-06-29 10:35:44.125000,93.39,58.3
212869,2018-06-29 10:35:44.156250,79.3,58.3
212870,2018-06-29 10:35:44.187500,65.99,58.3
212871,2018-06-29 10:35:44.218750,51.16,58.3
212872,2018-06-29 10:35:44.250000,34.06,58.3
212873,2018-06-29 10:35:44.281250,18.77,58.3
212874,2018-06-29 10:35:44.312500,8.32,58.3
212875,2018-06-29 10:35:44.343750,-0.47,58.3
212876,2018-06-29 10:35:44.375000,-11.36,58.3
212877,2018-06-29 10:35:44.406250,-23.58,58.3
212878,2018-06-29 10:35:44.437500,-31.56,58.3
212879,2018-06-29 10:35:44.468750,-24.94,58.3
212880,2018-06-29 10:35:44.500000,3.9,58.3
212881,2018-06-29 10:35:44.531250,46.92,58.0
212882,2018-06-29 10:35:44.562500,85.76,58.0
212883,2018-06-29 10:35:44.593750,111.5,58.0
212884,2018-06-29 10:35:44.625000,128.43,58.0
212885,2018-06-29 10:35:44.656250,140.86,58.0
212886,2018-06-29 10:35:44.687500,147.92,58.0
212887,2018-06-29 10:35:44.718750,150.66,58.0
212888,2018-06-29 10:35:44.750000,153.76,58.0
212889,2018-06-29 10:35:44.781250,158.78,58.0
212890,2018-06-29 10:35:44.812500,162.12,58.0
212891,2018-06-29 10:35:44.843750,161.25,58.0
212892,2018-06-29 10:35:44.875000,157.24,58.0
212893,2018-06-29 10:35:44.906250,150.0,58.0
212894,2018-06-29 10:35:44.937500,137.41,58.0
212895,2018-06-29 10:35:44.968750,120.47,58.0
212896,2018-06-29 10:35:45.000000,103.73,58.0
212897,2018-06-29 10:35:45.031250,89.2,58.0
212898,2018-06-29 10:35:45.062500,74.33,58.0
212899,2018-06-29 10:35:45.093750,57.54,58.0
212900,2018-06-29 10:35:45.125000,41.53,58.0
212901,2018-06-29 10:35:45.156250,28.77,58.0
212902,2018-06-29 10:35:45.187500,17.47,58.0
212903,2018-06-29 10:35:45.218750,4.67,58.0
212904,2018-06-29 10:35:45.250000,-9.56,58.0
212905,2018-06-29 10:35:45.281250,-23.18,58.0
212906,2018-06-29 10:35:45.312500,-35.61,58.0
212907,2018-06-29 10:35:45.343750,-48.44,58.0
212908,2018-06-29 10:35:45.375000,-64.47,58.0
212909,2018-06-29 10:35:45.406250,-83.78,58.0
212910,2018-06-29 10:35:45.437500,-97.4,58.0
212911,2018-06-29 10:35:45.468750,-91.17,58.0
212912,2018-06-29 10:35:45.500000,-62.41,58.0
212913,2018-06-29 10:35:45.531250,-25.48,57.72
212914,2018-06-29 10:35:45.562500,5.09,57.72
212915,2018-06-29 10:35:45.593750,27.62,57.72
212916,2018-06-29 10:35:45.625000,46.17,57.72
212917,2018-06-29 10:35:45.656250,61.06,57.72
212918,2018-06-29 10:35:45.687500,70.67,57.72
212919,2018-06-29 10:35:45.718750,75.68,57.72
212920,2018-06-29 10:35:45.750000,78.49,57.72
212921,2018-06-29 10:35:45.781250,80.92,57.72
212922,2018-06-29 10:35:45.812500,83.38,57.72
212923,2018-06-29 10:35:45.843750,85.62,57.72
212924,2018-06-29 10:35:45.875000,86.88,57.72
212925,2018-06-29 10:35:45.906250,85.67,57.72
212926,2018-06-29 10:35:45.937500,81.23,57.72
212927,2018-06-29 10:35:45.968750,74.6,57.72
212928,2018-06-29 10:35:46.000000,66.94,57.72
212929,2018-06-29 10:35:46.031250,58.09,57.72
212930,2018-06-29 10:35:46.062500,47.65,57.72
212931,2018-06-29 10:35:46.093750,36.28,57.72
212932,2018-06-29 10:35:46.125000,24.95,57.72
212933,2018-06-29 10:35:46.156250,14.05,57.72
212934,2018-06-29 10:35:46.187500,3.72,57.72
212935,2018-06-29 10:35:46.218750,-5.56,57.72
212936,2018-06-29 10:35:46.250000,-13.85,57.72
212937,2018-06-29 10:35:46.281250,-23.04,57.72
212938,2018-06-29 10:35:46.312500,-35.82,57.72
212939,2018-06-29 10:35:46.343750,-51.62,57.72
212940,2018-06-29 10:35:46.375000,-61.49,57.72
212941,2018-06-29 10:35:46.406250,-51.34,57.72
212942,2018-06-29 10:35:46.437500,-16.75,57.72
212943,2018-06-29 10:35:46.468750,28.98,57.72
212944,2018-06-29 10:35:46.500000,68.22,57.72
212945,2018-06-29 10:35:46.531250,94.48,57.43
212946,2018-06-29 10:35:46.562500,109.42,57.43
212947,2018-06-29 10:35:46.593750,114.36,57.43
212948,2018-06-29 10:35:46.625000,111.34,57.43
212949,2018-06-29 10:35:46.656250,104.03,57.43
212950,2018-06-29 10:35:46.687500,93.9,57.43
212951,2018-06-29 10:35:46.718750,81.3,57.43
212952,2018-06-29 10:35:46.750000,70.12,57.43
212953,2018-06-29 10:35:46.781250,64.53,57.43
212954,2018-06-29 10:35:46.812500,61.99,57.43
212955,2018-06-29 10:35:46.843750,55.86,57.43
212956,2018-06-29 10:35:46.875000,44.92,57.43
212957,2018-06-29 10:35:46.906250,34.85,57.43
212958,2018-06-29 10:35:46.937500,29.48,57.43
212959,2018-06-29 10:35:46.968750,25.7,57.43
212960,2018-06-29 10:35:47.000000,19.99,57.43
212961,2018-06-29 10:35:47.031250,15.42,57.43
212962,2018-06-29 10:35:47.062500,16.74,57.43
212963,2018-06-29 10:35:47.093750,21.16,57.43
212964,2018-06-29 10:35:47.125000,17.99,57.43
212965,2018-06-29 10:35:47.156250,-2.02,57.43
212966,2018-06-29 10:35:47.187500,-37.71,57.43
212967,2018-06-29 10:35:47.218750,-78.22,57.43
212968,2018-06-29 10:35:47.250000,-113.42,57.43
212969,2018-06-29 10:35:47.281250,-140.46,57.43
212970,2018-06-29 10:35:47.312500,-154.68,57.43
212971,2018-06-29 10:35:47.343750,-142.9,57.43
212972,2018-06-29 10:35:47.375000,-101.15,57.43
212973,2018-06-29 10:35:47.406250,-51.83,57.43
212974,2018-06-29 10:35:47.437500,-24.1,57.43
212975,2018-06-29 10:35:47.468750,-21.67,57.43
212976,2018-06-29 10:35:47.500000,-25.84,57.43
212977,2018-06-29 10:35:47.531250,-22.29,57.18
212978,2018-06-29 10:35:47.562500,-11.43,57.18
212979,2018-06-29 10:35:47.593750,0.01,57.18
212980,2018-06-29 10:35:47.625000,7.14,57.18
212981,2018-06-29 10:35:47.656250,10.43,57.18
212982,2018-06-29 10:35:47.687500,14.78,57.18
212983,2018-06-29 10:35:47.718750,23.53,57.18
212984,2018-06-29 10:35:47.750000,33.59,57.18
212985,2018-06-29 10:35:47.781250,38.97,57.18
212986,2018-06-29 10:35:47.812500,37.61,57.18
212987,2018-06-29 10:35:47.843750,31.35,57.18
212988,2018-06-29 10:35:47.875000,22.26,57.18
212989,2018-06-29 10:35:47.906250,11.44,57.18
212990,2018-06-29 10:35:47.937500,-2.55,57.18
212991,2018-06-29 10:35:47.968750,-22.39,57.18
212992,2018-06-29 10:35:48.000000,-46.6,57.18
212993,2018-06-29 10:35:48.031250,-70.62,57.18
212994,2018-06-29 10:35:48.062500,-93.54,57.18
212995,2018-06-29 10:35:48.093750,-116.19,57.18
212996,2018-06-29 10:35:48.125000,-133.93,57.18
212997,2018-06-29 10:35:48.156250,-137.97,57.18
212998,2018-06-29 10:35:48.187500,-123.16,57.18
212999,2018-06-29 10:35:48.218750,-93.28,57.18
213000,2018-06-29 10:35:48.250000,-59.26,57.18
213001,2018-06-29 10:35:48.281250,-30.89,57.18
213002,2018-06-29 10:35:48.312500,-9.66,57.18
213003,2018-06-29 10:35:48.343750,8.07,57.18
213004,2018-06-29 10:35:48.375000,23.11,57.18
213005,2018-06-29 10:35:48.406250,33.24,57.18
213006,2018-06-29 10:35:48.437500,40.0,57.18
213007,2018-06-29 10:35:48.468750,49.55,57.18
213008,2018-06-29 10:35:48.500000,64.21,57.18
213009,2018-06-29 10:35:48.531250,77.14,56.95
213010,2018-06-29 10:35:48.562500,77.98,56.95
213011,2018-06-29 10:35:48.593750,63.07,56.95
213012,2018-06-29 10:35:48.625000,39.27,56.95
213013,2018-06-29 10:35:48.656250,17.31,56.95
213014,2018-06-29 10:35:48.687500,2.15,56.95
213015,2018-06-29 10:35:48.718750,-8.11,56.95
213016,2018-06-29 10:35:48.750000,-15.03,56.95
213017,2018-06-29 10:35:48.781250,-17.19,56.95
213018,2018-06-29 10:35:48.812500,-15.07,56.95
213019,2018-06-29 10:35:48.843750,-13.7,56.95
213020,2018-06-29 10:35:48.875000,-17.82,56.95
213021,2018-06-29 10:35:48.906250,-24.71,56.95
213022,2018-06-29 10:35:48.937500,-23.82,56.95
213023,2018-06-29 10:35:48.968750,-6.11,56.95
213024,2018-06-29 10:35:49.000000,26.23,56.95
213025,2018-06-29 10:35:49.031250,60.19,56.95
213026,2018-06-29 10:35:49.062500,82.2,56.95
213027,2018-06-29 10:35:49.093750,86.59,56.95
213028,2018-06-29 10:35:49.125000,75.31,56.95
213029,2018-06-29 10:35:49.156250,52.65,56.95
213030,2018-06-29 10:35:49.187500,23.57,56.95
213031,2018-06-29 10:35:49.218750,-4.13,56.95
213032,2018-06-29 10:35:49.250000,-21.98,56.95
213033,2018-06-29 10:35:49.281250,-27.79,56.95
213034,2018-06-29 10:35:49.312500,-25.76,56.95
213035,2018-06-29 10:35:49.343750,-18.73,56.95
213036,2018-06-29 10:35:49.375000,-6.71,56.95
213037,2018-06-29 10:35:49.406250,7.28,56.95
213038,2018-06-29 10:35:49.437500,17.07,56.95
213039,2018-06-29 10:35:49.468750,19.46,56.95
213040,2018-06-29 10:35:49.500000,16.34,56.95
213041,2018-06-29 10:35:49.531250,11.21,56.92
213042,2018-06-29 10:35:49.562500,6.18,56.92
213043,2018-06-29 10:35:49.593750,0.43,56.92
213044,2018-06-29 10:35:49.625000,-9.02,56.92
213045,2018-06-29 10:35:49.656250,-23.32,56.92
213046,2018-06-29 10:35:49.687500,-37.39,56.92
213047,2018-06-29 10:35:49.718750,-41.88,56.92
213048,2018-06-29 10:35:49.750000,-33.28,56.92
213049,2018-06-29 10:35:49.781250,-19.72,56.92
213050,2018-06-29 10:35:49.812500,-12.03,56.92
213051,2018-06-29 10:35:49.843750,-12.46,56.92
213052,2018-06-29 10:35:49.875000,-17.01,56.92
213053,2018-06-29 10:35:49.906250,-24.54,56.92
213054,2018-06-29 10:35:49.937500,-37.13,56.92
213055,2018-06-29 10:35:49.968750,-54.17,56.92
213056,2018-06-29 10:35:50.000000,-71.57,56.92
213057,2018-06-29 10:35:50.031250,-86.3,56.92
213058,2018-06-29 10:35:50.062500,-97.41,56.92
213059,2018-06-29 10:35:50.093750,-102.92,56.92
213060,2018-06-29 10:35:50.125000,-101.4,56.92
213061,2018-06-29 10:35:50.156250,-96.52,56.92
213062,2018-06-29 10:35:50.187500,-94.71,56.92
213063,2018-06-29 10:35:50.218750,-97.41,56.92
213064,2018-06-29 10:35:50.250000,-101.03,56.92
213065,2018-06-29 10:35:50.281250,-104.47,56.92
213066,2018-06-29 10:35:50.312500,-110.68,56.92
213067,2018-06-29 10:35:50.343750,-120.32,56.92
213068,2018-06-29 10:35:50.375000,-129.66,56.92
213069,2018-06-29 10:35:50.406250,-135.33,56.92
213070,2018-06-29 10:35:50.437500,-137.73,56.92
213071,2018-06-29 10:35:50.468750,-140.2,56.92
213072,2018-06-29 10:35:50.500000,-144.66,56.92
213073,2018-06-29 10:35:50.531250,-144.59,56.92
213074,2018-06-29 10:35:50.562500,-126.82,56.92
213075,2018-06-29 10:35:50.593750,-86.98,56.92
213076,2018-06-29 10:35:50.625000,-36.92,56.92
213077,2018-06-29 10:35:50.656250,9.3,56.92
213078,2018-06-29 10:35:50.687500,48.51,56.92
213079,2018-06-29 10:35:50.718750,82.57,56.92
213080,2018-06-29 10:35:50.750000,109.23,56.92
213081,2018-06-29 10:35:50.781250,124.97,56.92
213082,2018-06-29 10:35:50.812500,130.6,56.92
213083,2018-06-29 10:35:50.843750,129.97,56.92
213084,2018-06-29 10:35:50.875000,126.34,56.92
213085,2018-06-29 10:35:50.906250,121.9,56.92
213086,2018-06-29 10:35:50.937500,117.92,56.92
213087,2018-06-29 10:35:50.968750,113.3,56.92
213088,2018-06-29 10:35:51.000000,104.33,56.92
213089,2018-06-29 10:35:51.031250,87.98,56.92
213090,2018-06-29 10:35:51.062500,64.53,56.92
213091,2018-06-29 10:35:51.093750,37.01,56.92
213092,2018-06-29 10:35:51.125000,10.69,56.92
213093,2018-06-29 10:35:51.156250,-6.91,56.92
213094,2018-06-29 10:35:51.187500,-9.02,56.92
213095,2018-06-29 10:35:51.218750,4.71,56.92
213096,2018-06-29 10:35:51.250000,25.72,56.92
213097,2018-06-29 10:35:51.281250,41.62,56.92
213098,2018-06-29 10:35:51.312500,44.54,56.92
213099,2018-06-29 10:35:51.343750,34.67,56.92
213100,2018-06-29 10:35:51.375000,15.62,56.92
213101,2018-06-29 10:35:51.406250,-11.8,56.92
213102,2018-06-29 10:35:51.437500,-49.28,56.92
213103,2018-06-29 10:35:51.468750,-92.98,56.92
213104,2018-06-29 10:35:51.500000,-126.89,56.92
213105,2018-06-29 10:35:51.531250,-130.26,56.92
213106,2018-06-29 10:35:51.562500,-96.94,56.92
213107,2018-06-29 10:35:51.593750,-41.8,56.92
213108,2018-06-29 10:35:51.625000,15.87,56.92
213109,2018-06-29 10:35:51.656250,67.23,56.92
213110,2018-06-29 10:35:51.687500,110.59,56.92
213111,2018-06-29 10:35:51.718750,144.54,56.92
213112,2018-06-29 10:35:51.750000,167.94,56.92
213113,2018-06-29 10:35:51.781250,181.37,56.92
213114,2018-06-29 10:35:51.812500,186.51,56.92
213115,2018-06-29 10:35:51.843750,184.88,56.92
213116,2018-06-29 10:35:51.875000,176.64,56.92
213117,2018-06-29 10:35:51.906250,161.22,56.92
213118,2018-06-29 10:35:51.937500,139.25,56.92
213119,2018-06-29 10:35:51.968750,112.21,56.92
213120,2018-06-29 10:35:52.000000,81.62,56.92
213121,2018-06-29 10:35:52.031250,49.5,56.92
213122,2018-06-29 10:35:52.062500,18.4,56.92
213123,2018-06-29 10:35:52.093750,-9.06,56.92
213124,2018-06-29 10:35:52.125000,-30.91,56.92
213125,2018-06-29 10:35:52.156250,-47.11,56.92
213126,2018-06-29 10:35:52.187500,-59.49,56.92
213127,2018-06-29 10:35:52.218750,-68.88,56.92
213128,2018-06-29 10:35:52.250000,-73.47,56.92
213129,2018-06-29 10:35:52.281250,-71.88,56.92
213130,2018-06-29 10:35:52.312500,-66.39,56.92
213131,2018-06-29 10:35:52.343750,-62.61,56.92
213132,2018-06-29 10:35:52.375000,-65.36,56.92
213133,2018-06-29 10:35:52.406250,-72.03,56.92
213134,2018-06-29 10:35:52.437500,-71.46,56.92
213135,2018-06-29 10:35:52.468750,-54.69,56.92
213136,2018-06-29 10:35:52.500000,-25.65,56.92
213137,2018-06-29 10:35:52.531250,4.58,56.92
213138,2018-06-29 10:35:52.562500,30.9,56.92
213139,2018-06-29 10:35:52.593750,55.69,56.92
213140,2018-06-29 10:35:52.625000,80.35,56.92
213141,2018-06-29 10:35:52.656250,102.72,56.92
213142,2018-06-29 10:35:52.687500,121.27,56.92
213143,2018-06-29 10:35:52.718750,137.68,56.92
213144,2018-06-29 10:35:52.750000,155.69,56.92
213145,2018-06-29 10:35:52.781250,178.64,56.92
213146,2018-06-29 10:35:52.812500,205.38,56.92
213147,2018-06-29 10:35:52.843750,228.31,56.92
213148,2018-06-29 10:35:52.875000,238.66,56.92
213149,2018-06-29 10:35:52.906250,233.56,56.92
213150,2018-06-29 10:35:52.937500,215.69,56.92
213151,2018-06-29 10:35:52.968750,188.26,56.92
213152,2018-06-29 10:35:53.000000,153.86,56.92
213153,2018-06-29 10:35:53.031250,115.87,56.92
213154,2018-06-29 10:35:53.062500,77.22,56.92
213155,2018-06-29 10:35:53.093750,37.35,56.92
213156,2018-06-29 10:35:53.125000,-9.12,56.92
213157,2018-06-29 10:35:53.156250,-68.69,56.92
213158,2018-06-29 10:35:53.187500,-137.47,56.92
213159,2018-06-29 10:35:53.218750,-196.23,56.92
213160,2018-06-29 10:35:53.250000,-228.2,56.92
213161,2018-06-29 10:35:53.281250,-240.48,56.92
213162,2018-06-29 10:35:53.312500,-255.71,56.92
213163,2018-06-29 10:35:53.343750,-282.88,56.92
213164,2018-06-29 10:35:53.375000,-305.83,56.92
213165,2018-06-29 10:35:53.406250,-302.05,56.92
213166,2018-06-29 10:35:53.437500,-266.71,56.92
213167,2018-06-29 10:35:53.468750,-215.79,56.92
213168,2018-06-29 10:35:53.500000,-168.48,56.92
213169,2018-06-29 10:35:53.531250,-132.43,56.97
213170,2018-06-29 10:35:53.562500,-104.56,56.97
213171,2018-06-29 10:35:53.593750,-78.61,56.97
213172,2018-06-29 10:35:53.625000,-51.56,56.97
213173,2018-06-29 10:35:53.656250,-26.29,56.97
213174,2018-06-29 10:35:53.687500,-6.89,56.97
213175,2018-06-29 10:35:53.718750,7.77,56.97
213176,2018-06-29 10:35:53.750000,22.27,56.97
213177,2018-06-29 10:35:53.781250,38.13,56.97
213178,2018-06-29 10:35:53.812500,52.18,56.97
213179,2018-06-29 10:35:53.843750,60.57,56.97
213180,2018-06-29 10:35:53.875000,62.45,56.97
213181,2018-06-29 10:35:53.906250,59.7,56.97
213182,2018-06-29 10:35:53.937500,54.89,56.97
213183,2018-06-29 10:35:53.968750,50.12,56.97
213184,2018-06-29 10:35:54.000000,45.9,56.97
213185,2018-06-29 10:35:54.031250,40.4,56.97
213186,2018-06-29 10:35:54.062500,32.34,56.97
213187,2018-06-29 10:35:54.093750,23.39,56.97
213188,2018-06-29 10:35:54.125000,15.53,56.97
213189,2018-06-29 10:35:54.156250,7.25,56.97
213190,2018-06-29 10:35:54.187500,-4.44,56.97
213191,2018-06-29 10:35:54.218750,-19.25,56.97
213192,2018-06-29 10:35:54.250000,-33.59,56.97
213193,2018-06-29 10:35:54.281250,-45.13,56.97
213194,2018-06-29 10:35:54.312500,-55.78,56.97
213195,2018-06-29 10:35:54.343750,-69.47,56.97
213196,2018-06-29 10:35:54.375000,-86.44,56.97
213197,2018-06-29 10:35:54.406250,-98.21,56.97
213198,2018-06-29 10:35:54.437500,-91.54,56.97
213199,2018-06-29 10:35:54.468750,-63.05,56.97
213200,2018-06-29 10:35:54.500000,-25.37,56.97
213201,2018-06-29 10:35:54.531250,7.05,57.03
213202,2018-06-29 10:35:54.562500,31.56,57.03
213203,2018-06-29 10:35:54.593750,52.28,57.03
213204,2018-06-29 10:35:54.625000,69.9,57.03
213205,2018-06-29 10:35:54.656250,82.1,57.03
213206,2018-06-29 10:35:54.687500,88.88,57.03
213207,2018-06-29 10:35:54.718750,93.57,57.03
213208,2018-06-29 10:35:54.750000,99.65,57.03
213209,2018-06-29 10:35:54.781250,107.73,57.03
213210,2018-06-29 10:35:54.812500,116.29,57.03
213211,2018-06-29 10:35:54.843750,123.85,57.03
213212,2018-06-29 10:35:54.875000,129.26,57.03
213213,2018-06-29 10:35:54.906250,131.4,57.03
213214,2018-06-29 10:35:54.937500,129.7,57.03
213215,2018-06-29 10:35:54.968750,123.93,57.03
213216,2018-06-29 10:35:55.000000,114.31,57.03
213217,2018-06-29 10:35:55.031250,101.86,57.03
213218,2018-06-29 10:35:55.062500,87.37,57.03
213219,2018-06-29 10:35:55.093750,70.63,57.03
213220,2018-06-29 10:35:55.125000,52.13,57.03
213221,2018-06-29 10:35:55.156250,33.38,57.03
213222,2018-06-29 10:35:55.187500,14.38,57.03
213223,2018-06-29 10:35:55.218750,-6.68,57.03
213224,2018-06-29 10:35:55.250000,-30.24,57.03
213225,2018-06-29 10:35:55.281250,-53.45,57.03
213226,2018-06-29 10:35:55.312500,-72.94,57.03
213227,2018-06-29 10:35:55.343750,-88.26,57.03
213228,2018-06-29 10:35:55.375000,-101.92,57.03
213229,2018-06-29 10:35:55.406250,-117.26,57.03
213230,2018-06-29 10:35:55.437500,-133.32,57.03
213231,2018-06-29 10:35:55.468750,-138.31,57.03
213232,2018-06-29 10:35:55.500000,-117.64,57.03
213233,2018-06-29 10:35:55.531250,-74.61,57.1
213234,2018-06-29 10:35:55.562500,-31.1,57.1
213235,2018-06-29 10:35:55.593750,-2.64,57.1
213236,2018-06-29 10:35:55.625000,13.77,57.1
213237,2018-06-29 10:35:55.656250,26.24,57.1
213238,2018-06-29 10:35:55.687500,36.95,57.1
213239,2018-06-29 10:35:55.718750,45.44,57.1
213240,2018-06-29 10:35:55.750000,52.47,57.1
213241,2018-06-29 10:35:55.781250,58.7,57.1
213242,2018-06-29 10:35:55.812500,62.82,57.1
213243,2018-06-29 10:35:55.843750,62.93,57.1
213244,2018-06-29 10:35:55.875000,58.95,57.1
213245,2018-06-29 10:35:55.906250,51.18,57.1
213246,2018-06-29 10:35:55.937500,37.85,57.1
213247,2018-06-29 10:35:55.968750,19.18,57.1
213248,2018-06-29 10:35:56.000000,0.89,57.1
213249,2018-06-29 10:35:56.031250,-12.09,57.1
213250,2018-06-29 10:35:56.062500,-22.19,57.1
213251,2018-06-29 10:35:56.093750,-34.59,57.1
213252,2018-06-29 10:35:56.125000,-49.65,57.1
213253,2018-06-29 10:35:56.156250,-63.36,57.1
213254,2018-06-29 10:35:56.187500,-71.73,57.1
213255,2018-06-29 10:35:56.218750,-73.04,57.1
213256,2018-06-29 10:35:56.250000,-69.01,57.1
213257,2018-06-29 10:35:56.281250,-63.85,57.1
213258,2018-06-29 10:35:56.312500,-60.17,57.1
213259,2018-06-29 10:35:56.343750,-57.59,57.1
213260,2018-06-29 10:35:56.375000,-56.16,57.1
213261,2018-06-29 10:35:56.406250,-57.89,57.1
213262,2018-06-29 10:35:56.437500,-64.81,57.1
213263,2018-06-29 10:35:56.468750,-76.18,57.1
213264,2018-06-29 10:35:56.500000,-84.71,57.1
213265,2018-06-29 10:35:56.531250,-78.96,57.15
213266,2018-06-29 10:35:56.562500,-57.48,57.15
213267,2018-06-29 10:35:56.593750,-34.68,57.15
213268,2018-06-29 10:35:56.625000,-23.91,57.15
213269,2018-06-29 10:35:56.656250,-22.75,57.15
213270,2018-06-29 10:35:56.687500,-20.6,57.15
213271,2018-06-29 10:35:56.718750,-11.83,57.15
213272,2018-06-29 10:35:56.750000,3.23,57.15
213273,2018-06-29 10:35:56.781250,22.11,57.15
213274,2018-06-29 10:35:56.812500,40.55,57.15
213275,2018-06-29 10:35:56.843750,52.33,57.15
213276,2018-06-29 10:35:56.875000,53.63,57.15
213277,2018-06-29 10:35:56.906250,47.25,57.15
213278,2018-06-29 10:35:56.937500,38.78,57.15
213279,2018-06-29 10:35:56.968750,29.46,57.15
213280,2018-06-29 10:35:57.000000,17.25,57.15
213281,2018-06-29 10:35:57.031250,2.7,57.15
213282,2018-06-29 10:35:57.062500,-11.04,57.15
213283,2018-06-29 10:35:57.093750,-22.33,57.15
213284,2018-06-29 10:35:57.125000,-32.34,57.15
213285,2018-06-29 10:35:57.156250,-42.25,57.15
213286,2018-06-29 10:35:57.187500,-51.28,57.15
213287,2018-06-29 10:35:57.218750,-59.15,57.15
213288,2018-06-29 10:35:57.250000,-68.22,57.15
213289,2018-06-29 10:35:57.281250,-80.71,57.15
213290,2018-06-29 10:35:57.312500,-95.73,57.15
213291,2018-06-29 10:35:57.343750,-108.53,57.15
213292,2018-06-29 10:35:57.375000,-108.66,57.15
213293,2018-06-29 10:35:57.406250,-85.04,57.15
213294,2018-06-29 10:35:57.437500,-40.96,57.15
213295,2018-06-29 10:35:57.468750,4.57,57.15
213296,2018-06-29 10:35:57.500000,37.52,57.15
213297,2018-06-29 10:35:57.531250,61.34,57.2
213298,2018-06-29 10:35:57.562500,83.89,57.2
213299,2018-06-29 10:35:57.593750,103.91,57.2
213300,2018-06-29 10:35:57.625000,116.13,57.2
213301,2018-06-29 10:35:57.656250,120.65,57.2
213302,2018-06-29 10:35:57.687500,123.25,57.2
213303,2018-06-29 10:35:57.718750,131.48,57.2
213304,2018-06-29 10:35:57.750000,147.04,57.2
213305,2018-06-29 10:35:57.781250,158.69,57.2
213306,2018-06-29 10:35:57.812500,151.48,57.2
213307,2018-06-29 10:35:57.843750,124.87,57.2
213308,2018-06-29 10:35:57.875000,90.92,57.2
213309,2018-06-29 10:35:57.906250,58.37,57.2
213310,2018-06-29 10:35:57.937500,31.46,57.2
213311,2018-06-29 10:35:57.968750,15.94,57.2
213312,2018-06-29 10:35:58.000000,13.41,57.2
213313,2018-06-29 10:35:58.031250,17.58,57.2
213314,2018-06-29 10:35:58.062500,22.61,57.2
213315,2018-06-29 10:35:58.093750,28.19,57.2
213316,2018-06-29 10:35:58.125000,34.82,57.2
213317,2018-06-29 10:35:58.156250,39.32,57.2
213318,2018-06-29 10:35:58.187500,33.79,57.2
213319,2018-06-29 10:35:58.218750,11.71,57.2
213320,2018-06-29 10:35:58.250000,-20.25,57.2
213321,2018-06-29 10:35:58.281250,-43.95,57.2
213322,2018-06-29 10:35:58.312500,-48.64,57.2
213323,2018-06-29 10:35:58.343750,-39.69,57.2
213324,2018-06-29 10:35:58.375000,-28.28,57.2
213325,2018-06-29 10:35:58.406250,-21.92,57.2
213326,2018-06-29 10:35:58.437500,-20.65,57.2
213327,2018-06-29 10:35:58.468750,-16.26,57.2
213328,2018-06-29 10:35:58.500000,-3.02,57.2
213329,2018-06-29 10:35:58.531250,12.05,57.23
213330,2018-06-29 10:35:58.562500,19.29,57.23
213331,2018-06-29 10:35:58.593750,20.82,57.23
213332,2018-06-29 10:35:58.625000,25.44,57.23
213333,2018-06-29 10:35:58.656250,36.67,57.23
213334,2018-06-29 10:35:58.687500,51.64,57.23
213335,2018-06-29 10:35:58.718750,63.45,57.23
213336,2018-06-29 10:35:58.750000,63.04,57.23
213337,2018-06-29 10:35:58.781250,48.85,57.23
213338,2018-06-29 10:35:58.812500,34.31,57.23
213339,2018-06-29 10:35:58.843750,37.07,57.23
213340,2018-06-29 10:35:58.875000,56.78,57.23
213341,2018-06-29 10:35:58.906250,66.04,57.23
213342,2018-06-29 10:35:58.937500,34.77,57.23
213343,2018-06-29 10:35:58.968750,-32.7,57.23
213344,2018-06-29 10:35:59.000000,-97.78,57.23
213345,2018-06-29 10:35:59.031250,-130.08,57.23
213346,2018-06-29 10:35:59.062500,-136.03,57.23
213347,2018-06-29 10:35:59.093750,-147.55,57.23
213348,2018-06-29 10:35:59.125000,-187.71,57.23
213349,2018-06-29 10:35:59.156250,-237.62,57.23
213350,2018-06-29 10:35:59.187500,-246.1,57.23
213351,2018-06-29 10:35:59.218750,-184.3,57.23
213352,2018-06-29 10:35:59.250000,-77.36,57.23
213353,2018-06-29 10:35:59.281250,19.35,57.23
213354,2018-06-29 10:35:59.312500,61.71,57.23
213355,2018-06-29 10:35:59.343750,46.76,57.23
213356,2018-06-29 10:35:59.375000,13.71,57.23
213357,2018-06-29 10:35:59.406250,4.29,57.23
213358,2018-06-29 10:35:59.437500,27.0,57.23
213359,2018-06-29 10:35:59.468750,67.31,57.23
213360,2018-06-29 10:35:59.500000,110.11,57.23
213361,2018-06-29 10:35:59.531250,143.19,57.28
213362,2018-06-29 10:35:59.562500,155.91,57.28
213363,2018-06-29 10:35:59.593750,140.96,57.28
213364,2018-06-29 10:35:59.625000,96.21,57.28
213365,2018-06-29 10:35:59.656250,32.13,57.28
213366,2018-06-29 10:35:59.687500,-26.88,57.28
213367,2018-06-29 10:35:59.718750,-62.17,57.28
213368,2018-06-29 10:35:59.750000,-78.52,57.28
213369,2018-06-29 10:35:59.781250,-94.13,57.28
213370,2018-06-29 10:35:59.812500,-121.73,57.28
213371,2018-06-29 10:35:59.843750,-164.9,57.28
213372,2018-06-29 10:35:59.875000,-220.72,57.28
213373,2018-06-29 10:35:59.906250,-282.07,57.28
213374,2018-06-29 10:35:59.937500,-339.99,57.28
213375,2018-06-29 10:35:59.968750,-379.26,57.28
213376,2018-06-29 10:36:00.000000,-378.93,57.28
213377,2018-06-29 10:36:00.031250,-332.95,57.28
213378,2018-06-29 10:36:00.062500,-261.81,57.28
213379,2018-06-29 10:36:00.093750,-190.58,57.28
213380,2018-06-29 10:36:00.125000,-127.32,57.28
213381,2018-06-29 10:36:00.156250,-70.4,57.28
213382,2018-06-29 10:36:00.187500,-21.36,57.28
213383,2018-06-29 10:36:00.218750,15.77,57.28
213384,2018-06-29 10:36:00.250000,39.79,57.28
213385,2018-06-29 10:36:00.281250,54.42,57.28
213386,2018-06-29 10:36:00.312500,65.64,57.28
213387,2018-06-29 10:36:00.343750,76.12,57.28
213388,2018-06-29 10:36:00.375000,83.23,57.28
213389,2018-06-29 10:36:00.406250,82.91,57.28
213390,2018-06-29 10:36:00.437500,72.97,57.28
213391,2018-06-29 10:36:00.468750,54.79,57.28
213392,2018-06-29 10:36:00.500000,34.54,57.28
213393,2018-06-29 10:36:00.531250,21.1,57.35
213394,2018-06-29 10:36:00.562500,17.89,57.35
213395,2018-06-29 10:36:00.593750,18.68,57.35
213396,2018-06-29 10:36:00.625000,17.5,57.35
213397,2018-06-29 10:36:00.656250,17.7,57.35
213398,2018-06-29 10:36:00.687500,22.63,57.35
213399,2018-06-29 10:36:00.718750,24.54,57.35
213400,2018-06-29 10:36:00.750000,13.48,57.35
213401,2018-06-29 10:36:00.781250,-9.29,57.35
213402,2018-06-29 10:36:00.812500,-34.98,57.35
213403,2018-06-29 10:36:00.843750,-59.46,57.35
213404,2018-06-29 10:36:00.875000,-85.76,57.35
213405,2018-06-29 10:36:00.906250,-117.1,57.35
213406,2018-06-29 10:36:00.937500,-148.35,57.35
213407,2018-06-29 10:36:00.968750,-162.36,57.35
213408,2018-06-29 10:36:01.000000,-140.66,57.35
213409,2018-06-29 10:36:01.031250,-84.22,57.35
213410,2018-06-29 10:36:01.062500,-16.68,57.35
213411,2018-06-29 10:36:01.093750,39.56,57.35
213412,2018-06-29 10:36:01.125000,81.14,57.35
213413,2018-06-29 10:36:01.156250,113.49,57.35
213414,2018-06-29 10:36:01.187500,135.92,57.35
213415,2018-06-29 10:36:01.218750,145.8,57.35
213416,2018-06-29 10:36:01.250000,148.15,57.35
213417,2018-06-29 10:36:01.281250,151.63,57.35
213418,2018-06-29 10:36:01.312500,158.22,57.35
213419,2018-06-29 10:36:01.343750,164.4,57.35
213420,2018-06-29 10:36:01.375000,169.12,57.35
213421,2018-06-29 10:36:01.406250,172.78,57.35
213422,2018-06-29 10:36:01.437500,171.63,57.35
213423,2018-06-29 10:36:01.468750,161.77,57.35
213424,2018-06-29 10:36:01.500000,146.33,57.35
213425,2018-06-29 10:36:01.531250,131.71,57.43
213426,2018-06-29 10:36:01.562500,118.39,57.43
213427,2018-06-29 10:36:01.593750,101.0,57.43
213428,2018-06-29 10:36:01.625000,77.76,57.43
213429,2018-06-29 10:36:01.656250,54.46,57.43
213430,2018-06-29 10:36:01.687500,36.9,57.43
213431,2018-06-29 10:36:01.718750,22.9,57.43
213432,2018-06-29 10:36:01.750000,5.07,57.43
213433,2018-06-29 10:36:01.781250,-19.69,57.43
213434,2018-06-29 10:36:01.812500,-47.02,57.43
213435,2018-06-29 10:36:01.843750,-71.2,57.43
213436,2018-06-29 10:36:01.875000,-91.0,57.43
213437,2018-06-29 10:36:01.906250,-108.7,57.43
213438,2018-06-29 10:36:01.937500,-124.7,57.43
213439,2018-06-29 10:36:01.968750,-131.76,57.43
213440,2018-06-29 10:36:02.000000,-116.96,57.43
213441,2018-06-29 10:36:02.031250,-75.84,57.43
213442,2018-06-29 10:36:02.062500,-22.81,57.43
213443,2018-06-29 10:36:02.093750,21.63,57.43
213444,2018-06-29 10:36:02.125000,50.47,57.43
213445,2018-06-29 10:36:02.156250,67.86,57.43
213446,2018-06-29 10:36:02.187500,74.8,57.43
213447,2018-06-29 10:36:02.218750,70.43,57.43
213448,2018-06-29 10:36:02.250000,61.33,57.43
213449,2018-06-29 10:36:02.281250,56.7,57.43
213450,2018-06-29 10:36:02.312500,56.73,57.43
213451,2018-06-29 10:36:02.343750,54.9,57.43
213452,2018-06-29 10:36:02.375000,48.45,57.43
213453,2018-06-29 10:36:02.406250,39.73,57.43
213454,2018-06-29 10:36:02.437500,29.72,57.43
213455,2018-06-29 10:36:02.468750,14.66,57.43
213456,2018-06-29 10:36:02.500000,-11.89,57.43
213457,2018-06-29 10:36:02.531250,-54.52,57.52
213458,2018-06-29 10:36:02.562500,-108.17,57.52
213459,2018-06-29 10:36:02.593750,-152.26,57.52
213460,2018-06-29 10:36:02.625000,-160.53,57.52
213461,2018-06-29 10:36:02.656250,-124.56,57.52
213462,2018-06-29 10:36:02.687500,-64.47,57.52
213463,2018-06-29 10:36:02.718750,-12.25,57.52
213464,2018-06-29 10:36:02.750000,11.22,57.52
213465,2018-06-29 10:36:02.781250,2.59,57.52
213466,2018-06-29 10:36:02.812500,-27.09,57.52
213467,2018-06-29 10:36:02.843750,-54.7,57.52
213468,2018-06-29 10:36:02.875000,-56.06,57.52
213469,2018-06-29 10:36:02.906250,-25.9,57.52
213470,2018-06-29 10:36:02.937500,19.51,57.52
213471,2018-06-29 10:36:02.968750,63.13,57.52
213472,2018-06-29 10:36:03.000000,101.38,57.52
213473,2018-06-29 10:36:03.031250,134.99,57.52
213474,2018-06-29 10:36:03.062500,157.05,57.52
213475,2018-06-29 10:36:03.093750,158.28,57.52
213476,2018-06-29 10:36:03.125000,141.21,57.52
213477,2018-06-29 10:36:03.156250,120.56,57.52
213478,2018-06-29 10:36:03.187500,106.12,57.52
213479,2018-06-29 10:36:03.218750,95.97,57.52
213480,2018-06-29 10:36:03.250000,91.4,57.52
213481,2018-06-29 10:36:03.281250,102.11,57.52
213482,2018-06-29 10:36:03.312500,128.55,57.52
213483,2018-06-29 10:36:03.343750,155.1,57.52
213484,2018-06-29 10:36:03.375000,167.27,57.52
213485,2018-06-29 10:36:03.406250,162.12,57.52
213486,2018-06-29 10:36:03.437500,140.17,57.52
213487,2018-06-29 10:36:03.468750,99.32,57.52
213488,2018-06-29 10:36:03.500000,37.82,57.52
213489,2018-06-29 10:36:03.531250,-41.44,57.63
213490,2018-06-29 10:36:03.562500,-128.03,57.63
213491,2018-06-29 10:36:03.593750,-204.62,57.63
213492,2018-06-29 10:36:03.625000,-258.61,57.63
213493,2018-06-29 10:36:03.656250,-294.26,57.63
213494,2018-06-29 10:36:03.687500,-322.4,57.63
213495,2018-06-29 10:36:03.718750,-336.47,57.63
213496,2018-06-29 10:36:03.750000,-311.67,57.63
213497,2018-06-29 10:36:03.781250,-235.99,57.63
213498,2018-06-29 10:36:03.812500,-129.29,57.63
213499,2018-06-29 10:36:03.843750,-21.24,57.63
213500,2018-06-29 10:36:03.875000,75.59,57.63
213501,2018-06-29 10:36:03.906250,159.81,57.63
213502,2018-06-29 10:36:03.937500,219.86,57.63
213503,2018-06-29 10:36:03.968750,232.99,57.63
213504,2018-06-29 10:36:04.000000,190.26,57.63
213505,2018-06-29 10:36:04.031250,119.2,57.63
213506,2018-06-29 10:36:04.062500,67.28,57.63
213507,2018-06-29 10:36:04.093750,57.76,57.63
213508,2018-06-29 10:36:04.125000,77.69,57.63
213509,2018-06-29 10:36:04.156250,105.35,57.63
213510,2018-06-29 10:36:04.187500,125.68,57.63
213511,2018-06-29 10:36:04.218750,125.33,57.63
213512,2018-06-29 10:36:04.250000,99.39,57.63
213513,2018-06-29 10:36:04.281250,61.14,57.63
213514,2018-06-29 10:36:04.312500,28.91,57.63
213515,2018-06-29 10:36:04.343750,7.01,57.63
213516,2018-06-29 10:36:04.375000,-11.52,57.63
213517,2018-06-29 10:36:04.406250,-29.52,57.63
213518,2018-06-29 10:36:04.437500,-41.58,57.63
213519,2018-06-29 10:36:04.468750,-44.47,57.63
213520,2018-06-29 10:36:04.500000,-43.7,57.63
213521,2018-06-29 10:36:04.531250,-47.0,57.77
213522,2018-06-29 10:36:04.562500,-58.46,57.77
213523,2018-06-29 10:36:04.593750,-74.07,57.77
213524,2018-06-29 10:36:04.625000,-81.78,57.77
213525,2018-06-29 10:36:04.656250,-67.74,57.77
213526,2018-06-29 10:36:04.687500,-30.5,57.77
213527,2018-06-29 10:36:04.718750,15.13,57.77
213528,2018-06-29 10:36:04.750000,54.39,57.77
213529,2018-06-29 10:36:04.781250,83.94,57.77
213530,2018-06-29 10:36:04.812500,107.0,57.77
213531,2018-06-29 10:36:04.843750,119.99,57.77
213532,2018-06-29 10:36:04.875000,121.28,57.77
213533,2018-06-29 10:36:04.906250,116.84,57.77
213534,2018-06-29 10:36:04.937500,118.53,57.77
213535,2018-06-29 10:36:04.968750,128.46,57.77
213536,2018-06-29 10:36:05.000000,136.25,57.77
213537,2018-06-29 10:36:05.031250,139.46,57.77
213538,2018-06-29 10:36:05.062500,142.97,57.77
213539,2018-06-29 10:36:05.093750,159.41,57.77
213540,2018-06-29 10:36:05.125000,172.36,57.77
213541,2018-06-29 10:36:05.156250,169.67,57.77
213542,2018-06-29 10:36:05.187500,157.98,57.77
213543,2018-06-29 10:36:05.218750,161.93,57.77
213544,2018-06-29 10:36:05.250000,181.21,57.77
213545,2018-06-29 10:36:05.281250,183.16,57.77
213546,2018-06-29 10:36:05.312500,168.12,57.77
213547,2018-06-29 10:36:05.343750,157.38,57.77
213548,2018-06-29 10:36:05.375000,180.71,57.77
213549,2018-06-29 10:36:05.406250,203.36,57.77
213550,2018-06-29 10:36:05.437500,199.23,57.77
213551,2018-06-29 10:36:05.468750,133.13,57.77
213552,2018-06-29 10:36:05.500000,-123.81,57.77
213553,2018-06-29 10:36:05.531250,-358.51,57.9
213554,2018-06-29 10:36:05.562500,-447.63,57.9
213555,2018-06-29 10:36:05.593750,-452.46,57.9
213556,2018-06-29 10:36:05.625000,-417.71,57.9
213557,2018-06-29 10:36:05.656250,-327.29,57.9
213558,2018-06-29 10:36:05.687500,-224.95,57.9
213559,2018-06-29 10:36:05.718750,-156.63,57.9
213560,2018-06-29 10:36:05.750000,-115.76,57.9
213561,2018-06-29 10:36:05.781250,-59.8,57.9
213562,2018-06-29 10:36:05.812500,15.1,57.9
213563,2018-06-29 10:36:05.843750,59.84,57.9
213564,2018-06-29 10:36:05.875000,58.51,57.9
213565,2018-06-29 10:36:05.906250,29.21,57.9
213566,2018-06-29 10:36:05.937500,2.64,57.9
213567,2018-06-29 10:36:05.968750,-23.4,57.9
213568,2018-06-29 10:36:06.000000,-48.68,57.9
213569,2018-06-29 10:36:06.031250,-57.6,57.9
213570,2018-06-29 10:36:06.062500,-42.09,57.9
213571,2018-06-29 10:36:06.093750,-18.99,57.9
213572,2018-06-29 10:36:06.125000,-13.78,57.9
213573,2018-06-29 10:36:06.156250,-26.85,57.9
213574,2018-06-29 10:36:06.187500,-45.97,57.9
213575,2018-06-29 10:36:06.218750,-65.21,57.9
213576,2018-06-29 10:36:06.250000,-89.2,57.9
213577,2018-06-29 10:36:06.281250,-115.39,57.9
213578,2018-06-29 10:36:06.312500,-131.7,57.9
213579,2018-06-29 10:36:06.343750,-131.88,57.9
213580,2018-06-29 10:36:06.375000,-123.45,57.9
213581,2018-06-29 10:36:06.406250,-120.31,57.9
213582,2018-06-29 10:36:06.437500,-128.56,57.9
213583,2018-06-29 10:36:06.468750,-140.62,57.9
213584,2018-06-29 10:36:06.500000,-144.5,57.9
213585,2018-06-29 10:36:06.531250,-137.88,58.03
213586,2018-06-29 10:36:06.562500,-130.84,58.03
213587,2018-06-29 10:36:06.593750,-134.85,58.03
213588,2018-06-29 10:36:06.625000,-148.33,58.03
213589,2018-06-29 10:36:06.656250,-151.7,58.03
213590,2018-06-29 10:36:06.687500,-121.96,58.03
213591,2018-06-29 10:36:06.718750,-57.28,58.03
213592,2018-06-29 10:36:06.750000,18.72,58.03
213593,2018-06-29 10:36:06.781250,80.7,58.03
213594,2018-06-29 10:36:06.812500,120.73,58.03
213595,2018-06-29 10:36:06.843750,142.95,58.03
213596,2018-06-29 10:36:06.875000,153.02,58.03
213597,2018-06-29 10:36:06.906250,155.61,58.03
213598,2018-06-29 10:36:06.937500,152.59,58.03
213599,2018-06-29 10:36:06.968750,141.92,58.03
213600,2018-06-29 10:36:07.000000,122.81,58.03
213601,2018-06-29 10:36:07.031250,100.1,58.03
213602,2018-06-29 10:36:07.062500,80.56,58.03
213603,2018-06-29 10:36:07.093750,67.02,58.03
213604,2018-06-29 10:36:07.125000,57.68,58.03
213605,2018-06-29 10:36:07.156250,49.7,58.03
213606,2018-06-29 10:36:07.187500,41.75,58.03
213607,2018-06-29 10:36:07.218750,33.9,58.03
213608,2018-06-29 10:36:07.250000,25.95,58.03
213609,2018-06-29 10:36:07.281250,16.53,58.03
213610,2018-06-29 10:36:07.312500,3.41,58.03
213611,2018-06-29 10:36:07.343750,-14.6,58.03
213612,2018-06-29 10:36:07.375000,-34.42,58.03
213613,2018-06-29 10:36:07.406250,-47.31,58.03
213614,2018-06-29 10:36:07.437500,-43.34,58.03
213615,2018-06-29 10:36:07.468750,-21.33,58.03
213616,2018-06-29 10:36:07.500000,8.1,58.03
213617,2018-06-29 10:36:07.531250,33.16,58.17
213618,2018-06-29 10:36:07.562500,50.67,58.17
213619,2018-06-29 10:36:07.593750,61.8,58.17
213620,2018-06-29 10:36:07.625000,63.76,58.17
213621,2018-06-29 10:36:07.656250,53.04,58.17
213622,2018-06-29 10:36:07.687500,33.07,58.17
213623,2018-06-29 10:36:07.718750,12.17,58.17
213624,2018-06-29 10:36:07.750000,-4.45,58.17
213625,2018-06-29 10:36:07.781250,-16.17,58.17
213626,2018-06-29 10:36:07.812500,-23.03,58.17
213627,2018-06-29 10:36:07.843750,-26.06,58.17
213628,2018-06-29 10:36:07.875000,-28.66,58.17
213629,2018-06-29 10:36:07.906250,-31.69,58.17
213630,2018-06-29 10:36:07.937500,-29.6,58.17
213631,2018-06-29 10:36:07.968750,-17.9,58.17
213632,2018-06-29 10:36:08.000000,-1.95,58.17
213633,2018-06-29 10:36:08.031250,8.48,58.17
213634,2018-06-29 10:36:08.062500,9.88,58.17
213635,2018-06-29 10:36:08.093750,4.84,58.17
213636,2018-06-29 10:36:08.125000,-4.62,58.17
213637,2018-06-29 10:36:08.156250,-17.34,58.17
213638,2018-06-29 10:36:08.187500,-28.45,58.17
213639,2018-06-29 10:36:08.218750,-27.6,58.17
213640,2018-06-29 10:36:08.250000,-2.12,58.17
213641,2018-06-29 10:36:08.281250,52.82,58.17
213642,2018-06-29 10:36:08.312500,124.76,58.17
213643,2018-06-29 10:36:08.343750,191.65,58.17
213644,2018-06-29 10:36:08.375000,241.2,58.17
213645,2018-06-29 10:36:08.406250,274.05,58.17
213646,2018-06-29 10:36:08.437500,290.07,58.17
213647,2018-06-29 10:36:08.468750,287.68,58.17
213648,2018-06-29 10:36:08.500000,275.09,58.17
213649,2018-06-29 10:36:08.531250,266.05,58.32
213650,2018-06-29 10:36:08.562500,265.46,58.32
213651,2018-06-29 10:36:08.593750,268.05,58.32
213652,2018-06-29 10:36:08.625000,263.74,58.32
213653,2018-06-29 10:36:08.656250,241.22,58.32
213654,2018-06-29 10:36:08.687500,197.34,58.32
213655,2018-06-29 10:36:08.718750,143.72,58.32
213656,2018-06-29 10:36:08.750000,95.99,58.32
213657,2018-06-29 10:36:08.781250,59.82,58.32
213658,2018-06-29 10:36:08.812500,31.41,58.32
213659,2018-06-29 10:36:08.843750,4.71,58.32
213660,2018-06-29 10:36:08.875000,-24.32,58.32
213661,2018-06-29 10:36:08.906250,-55.71,58.32
213662,2018-06-29 10:36:08.937500,-87.31,58.32
213663,2018-06-29 10:36:08.968750,-119.72,58.32
213664,2018-06-29 10:36:09.000000,-156.73,58.32
213665,2018-06-29 10:36:09.031250,-200.01,58.32
213666,2018-06-29 10:36:09.062500,-246.76,58.32
213667,2018-06-29 10:36:09.093750,-295.17,58.32
213668,2018-06-29 10:36:09.125000,-349.61,58.32
213669,2018-06-29 10:36:09.156250,-413.1,58.32
213670,2018-06-29 10:36:09.187500,-475.21,58.32
213671,2018-06-29 10:36:09.218750,-517.43,58.32
213672,2018-06-29 10:36:09.250000,-528.49,58.32
213673,2018-06-29 10:36:09.281250,-510.35,58.32
213674,2018-06-29 10:36:09.312500,-474.73,58.32
213675,2018-06-29 10:36:09.343750,-433.45,58.32
213676,2018-06-29 10:36:09.375000,-386.83,58.32
213677,2018-06-29 10:36:09.406250,-329.2,58.32
213678,2018-06-29 10:36:09.437500,-265.99,58.32
213679,2018-06-29 10:36:09.468750,-206.68,58.32
213680,2018-06-29 10:36:09.500000,-146.37,58.32
213681,2018-06-29 10:36:09.531250,-77.59,58.48
213682,2018-06-29 10:36:09.562500,-9.53,58.48
213683,2018-06-29 10:36:09.593750,42.11,58.48
213684,2018-06-29 10:36:09.625000,70.07,58.48
213685,2018-06-29 10:36:09.656250,71.33,58.48
213686,2018-06-29 10:36:09.687500,43.96,58.48
213687,2018-06-29 10:36:09.718750,-6.87,58.48
213688,2018-06-29 10:36:09.750000,-67.73,58.48
213689,2018-06-29 10:36:09.781250,-119.4,58.48
213690,2018-06-29 10:36:09.812500,-143.72,58.48
213691,2018-06-29 10:36:09.843750,-139.01,58.48
213692,2018-06-29 10:36:09.875000,-122.45,58.48
213693,2018-06-29 10:36:09.906250,-109.77,58.48
213694,2018-06-29 10:36:09.937500,-99.66,58.48
213695,2018-06-29 10:36:09.968750,-79.36,58.48
213696,2018-06-29 10:36:10.000000,-36.59,58.48
213697,2018-06-29 10:36:10.031250,30.5,58.48
213698,2018-06-29 10:36:10.062500,107.24,58.48
213699,2018-06-29 10:36:10.093750,169.81,58.48
213700,2018-06-29 10:36:10.125000,202.77,58.48
213701,2018-06-29 10:36:10.156250,208.06,58.48
213702,2018-06-29 10:36:10.187500,199.63,58.48
213703,2018-06-29 10:36:10.218750,191.0,58.48
213704,2018-06-29 10:36:10.250000,185.19,58.48
213705,2018-06-29 10:36:10.281250,175.57,58.48
213706,2018-06-29 10:36:10.312500,156.35,58.48
213707,2018-06-29 10:36:10.343750,129.01,58.48
213708,2018-06-29 10:36:10.375000,97.64,58.48
213709,2018-06-29 10:36:10.406250,63.05,58.48
213710,2018-06-29 10:36:10.437500,24.24,58.48
213711,2018-06-29 10:36:10.468750,-16.5,58.48
213712,2018-06-29 10:36:10.500000,-54.08,58.48
213713,2018-06-29 10:36:10.531250,-86.96,58.67
213714,2018-06-29 10:36:10.562500,-118.65,58.67
213715,2018-06-29 10:36:10.593750,-148.33,58.67
213716,2018-06-29 10:36:10.625000,-163.93,58.67
213717,2018-06-29 10:36:10.656250,-151.71,58.67
213718,2018-06-29 10:36:10.687500,-111.58,58.67
213719,2018-06-29 10:36:10.718750,-57.54,58.67
213720,2018-06-29 10:36:10.750000,-3.94,58.67
213721,2018-06-29 10:36:10.781250,43.27,58.67
213722,2018-06-29 10:36:10.812500,83.22,58.67
213723,2018-06-29 10:36:10.843750,115.28,58.67
213724,2018-06-29 10:36:10.875000,139.23,58.67
213725,2018-06-29 10:36:10.906250,155.99,58.67
213726,2018-06-29 10:36:10.937500,165.83,58.67
213727,2018-06-29 10:36:10.968750,169.28,58.67
213728,2018-06-29 10:36:11.000000,169.76,58.67
213729,2018-06-29 10:36:11.031250,171.0,58.67
213730,2018-06-29 10:36:11.062500,171.81,58.67
213731,2018-06-29 10:36:11.093750,167.78,58.67
213732,2018-06-29 10:36:11.125000,157.94,58.67
213733,2018-06-29 10:36:11.156250,145.08,58.67
213734,2018-06-29 10:36:11.187500,130.56,58.67
213735,2018-06-29 10:36:11.218750,113.52,58.67
213736,2018-06-29 10:36:11.250000,94.3,58.67
213737,2018-06-29 10:36:11.281250,74.55,58.67
213738,2018-06-29 10:36:11.312500,54.54,58.67
213739,2018-06-29 10:36:11.343750,33.34,58.67
213740,2018-06-29 10:36:11.375000,11.58,58.67
213741,2018-06-29 10:36:11.406250,-8.24,58.67
213742,2018-06-29 10:36:11.437500,-24.07,58.67
213743,2018-06-29 10:36:11.468750,-36.53,58.67
213744,2018-06-29 10:36:11.500000,-48.52,58.67
213745,2018-06-29 10:36:11.531250,-61.16,58.87
213746,2018-06-29 10:36:11.562500,-68.65,58.87
213747,2018-06-29 10:36:11.593750,-59.96,58.87
213748,2018-06-29 10:36:11.625000,-29.8,58.87
213749,2018-06-29 10:36:11.656250,12.58,58.87
213750,2018-06-29 10:36:11.687500,50.0,58.87
213751,2018-06-29 10:36:11.718750,72.93,58.87
213752,2018-06-29 10:36:11.750000,84.22,58.87
213753,2018-06-29 10:36:11.781250,88.91,58.87
213754,2018-06-29 10:36:11.812500,87.7,58.87
213755,2018-06-29 10:36:11.843750,82.33,58.87
213756,2018-06-29 10:36:11.875000,77.64,58.87
213757,2018-06-29 10:36:11.906250,74.41,58.87
213758,2018-06-29 10:36:11.937500,69.5,58.87
213759,2018-06-29 10:36:11.968750,64.76,58.87
213760,2018-06-29 10:36:12.000000,64.94,58.87
213761,2018-06-29 10:36:12.031250,68.6,58.87
213762,2018-06-29 10:36:12.062500,71.74,58.87
213763,2018-06-29 10:36:12.093750,76.6,58.87
213764,2018-06-29 10:36:12.125000,86.63,58.87
213765,2018-06-29 10:36:12.156250,96.83,58.87
213766,2018-06-29 10:36:12.187500,98.5,58.87
213767,2018-06-29 10:36:12.218750,90.51,58.87
213768,2018-06-29 10:36:12.250000,78.52,58.87
213769,2018-06-29 10:36:12.281250,64.7,58.87
213770,2018-06-29 10:36:12.312500,44.91,58.87
213771,2018-06-29 10:36:12.343750,16.0,58.87
213772,2018-06-29 10:36:12.375000,-18.6,58.87
213773,2018-06-29 10:36:12.406250,-48.93,58.87
213774,2018-06-29 10:36:12.437500,-63.44,58.87
213775,2018-06-29 10:36:12.468750,-59.82,58.87
213776,2018-06-29 10:36:12.500000,-49.58,58.87
213777,2018-06-29 10:36:12.531250,-44.24,59.08
213778,2018-06-29 10:36:12.562500,-41.46,59.08
213779,2018-06-29 10:36:12.593750,-33.44,59.08
213780,2018-06-29 10:36:12.625000,-21.04,59.08
213781,2018-06-29 10:36:12.656250,-9.78,59.08
213782,2018-06-29 10:36:12.687500,-2.1,59.08
213783,2018-06-29 10:36:12.718750,-2.96,59.08
213784,2018-06-29 10:36:12.750000,-21.82,59.08
213785,2018-06-29 10:36:12.781250,-57.84,59.08
213786,2018-06-29 10:36:12.812500,-92.24,59.08
213787,2018-06-29 10:36:12.843750,-105.9,59.08
213788,2018-06-29 10:36:12.875000,-97.24,59.08
