,Time,ppg,hr
214400,2018-06-29 10:36:32.000000,49.4,64.98
214401,2018-06-29 10:36:32.031250,43.82,64.98
214402,2018-06-29 10:36:32.062500,33.31,64.98
214403,2018-06-29 10:36:32.093750,21.21,64.98
214404,2018-06-29 10:36:32.125000,10.79,64.98
214405,2018-06-29 10:36:32.156250,2.76,64.98
214406,2018-06-29 10:36:32.187500,-4.07,64.98
214407,2018-06-29 10:36:32.218750,-10.95,64.98
214408,2018-06-29 10:36:32.250000,-18.48,64.98
214409,2018-06-29 10:36:32.281250,-25.65,64.98
214410,2018-06-29 10:36:32.312500,-30.33,64.98
214411,2018-06-29 10:36:32.343750,-31.41,64.98
214412,2018-06-29 10:36:32.375000,-29.08,64.98
214413,2018-06-29 10:36:32.406250,-24.09,64.98
214414,2018-06-29 10:36:32.437500,-18.67,64.98
214415,2018-06-29 10:36:32.468750,-15.75,64.98
214416,2018-06-29 10:36:32.500000,-16.27,64.98
214417,2018-06-29 10:36:32.531250,-19.44,65.13
214418,2018-06-29 10:36:32.562500,-25.82,65.13
214419,2018-06-29 10:36:32.593750,-37.42,65.13
214420,2018-06-29 10:36:32.625000,-53.72,65.13
214421,2018-06-29 10:36:32.656250,-66.86,65.13
214422,2018-06-29 10:36:32.687500,-66.23,65.13
214423,2018-06-29 10:36:32.718750,-48.92,65.13
214424,2018-06-29 10:36:32.750000,-23.61,65.13
214425,2018-06-29 10:36:32.781250,-0.64,65.13
214426,2018-06-29 10:36:32.812500,17.44,65.13
214427,2018-06-29 10:36:32.843750,33.28,65.13
214428,2018-06-29 10:36:32.875000,48.02,65.13
214429,2018-06-29 10:36:32.906250,59.58,65.13
214430,2018-06-29 10:36:32.937500,66.57,65.13
214431,2018-06-29 10:36:32.968750,66.89,65.13
214432,2018-06-29 10:36:33.000000,58.94,65.13
214433,2018-06-29 10:36:33.031250,44.58,65.13
214434,2018-06-29 10:36:33.062500,32.01,65.13
214435,2018-06-29 10:36:33.093750,28.01,65.13
214436,2018-06-29 10:36:33.125000,30.24,65.13
214437,2018-06-29 10:36:33.156250,31.63,65.13
214438,2018-06-29 10:36:33.187500,26.02,65.13
214439,2018-06-29 10:36:33.218750,20.17,65.13
214440,2018-06-29 10:36:33.250000,16.95,65.13
214441,2018-06-29 10:36:33.281250,13.75,65.13
214442,2018-06-29 10:36:33.312500,4.57,65.13
214443,2018-06-29 10:36:33.343750,-7.18,65.13
214444,2018-06-29 10:36:33.375000,-18.34,65.13
214445,2018-06-29 10:36:33.406250,-38.03,65.13
214446,2018-06-29 10:36:33.437500,-73.45,65.13
214447,2018-06-29 10:36:33.468750,-123.35,65.13
214448,2018-06-29 10:36:33.500000,-161.09,65.13
214449,2018-06-29 10:36:33.531250,-163.48,65.28
214450,2018-06-29 10:36:33.562500,-123.11,65.28
214451,2018-06-29 10:36:33.593750,-38.11,65.28
214452,2018-06-29 10:36:33.625000,2.81,65.28
214453,2018-06-29 10:36:33.656250,7.94,65.28
214454,2018-06-29 10:36:33.687500,2.68,65.28
214455,2018-06-29 10:36:33.718750,-14.67,65.28
214456,2018-06-29 10:36:33.750000,-67.63,65.28
214457,2018-06-29 10:36:33.781250,-146.77,65.28
214458,2018-06-29 10:36:33.812500,-222.27,65.28
214459,2018-06-29 10:36:33.843750,-247.34,65.28
214460,2018-06-29 10:36:33.875000,-201.36,65.28
214461,2018-06-29 10:36:33.906250,-114.1,65.28
214462,2018-06-29 10:36:33.937500,-34.97,65.28
214463,2018-06-29 10:36:33.968750,8.3,65.28
214464,2018-06-29 10:36:34.000000,14.26,65.28
214465,2018-06-29 10:36:34.031250,-4.17,65.28
214466,2018-06-29 10:36:34.062500,-15.35,65.28
214467,2018-06-29 10:36:34.093750,-4.08,65.28
214468,2018-06-29 10:36:34.125000,18.52,65.28
214469,2018-06-29 10:36:34.156250,36.19,65.28
214470,2018-06-29 10:36:34.187500,48.11,65.28
214471,2018-06-29 10:36:34.218750,59.76,65.28
214472,2018-06-29 10:36:34.250000,68.11,65.28
214473,2018-06-29 10:36:34.281250,64.84,65.28
214474,2018-06-29 10:36:34.312500,49.09,65.28
214475,2018-06-29 10:36:34.343750,33.65,65.28
214476,2018-06-29 10:36:34.375000,30.71,65.28
214477,2018-06-29 10:36:34.406250,39.71,65.28
214478,2018-06-29 10:36:34.437500,50.06,65.28
214479,2018-06-29 10:36:34.468750,54.11,65.28
214480,2018-06-29 10:36:34.500000,53.41,65.28
214481,2018-06-29 10:36:34.531250,52.21,65.32
214482,2018-06-29 10:36:34.562500,50.52,65.32
214483,2018-06-29 10:36:34.593750,46.66,65.32
214484,2018-06-29 10:36:34.625000,41.77,65.32
214485,2018-06-29 10:36:34.656250,37.48,65.32
214486,2018-06-29 10:36:34.687500,33.23,65.32
214487,2018-06-29 10:36:34.718750,28.25,65.32
214488,2018-06-29 10:36:34.750000,24.16,65.32
214489,2018-06-29 10:36:34.781250,22.21,65.32
214490,2018-06-29 10:36:34.812500,20.41,65.32
214491,2018-06-29 10:36:34.843750,16.43,65.32
214492,2018-06-29 10:36:34.875000,12.23,65.32
214493,2018-06-29 10:36:34.906250,12.49,65.32
214494,2018-06-29 10:36:34.937500,18.48,65.32
214495,2018-06-29 10:36:34.968750,25.55,65.32
214496,2018-06-29 10:36:35.000000,27.34,65.32
214497,2018-06-29 10:36:35.031250,22.15,65.32
214498,2018-06-29 10:36:35.062500,12.85,65.32
214499,2018-06-29 10:36:35.093750,3.54,65.32
214500,2018-06-29 10:36:35.125000,-0.84,65.32
214501,2018-06-29 10:36:35.156250,3.62,65.32
214502,2018-06-29 10:36:35.187500,14.91,65.32
214503,2018-06-29 10:36:35.218750,27.3,65.32
214504,2018-06-29 10:36:35.250000,37.14,65.32
214505,2018-06-29 10:36:35.281250,41.34,65.32
214506,2018-06-29 10:36:35.312500,35.08,65.32
214507,2018-06-29 10:36:35.343750,17.53,65.32
214508,2018-06-29 10:36:35.375000,-6.19,65.32
214509,2018-06-29 10:36:35.406250,-31.61,65.32
214510,2018-06-29 10:36:35.437500,-58.26,65.32
214511,2018-06-29 10:36:35.468750,-85.83,65.32
214512,2018-06-29 10:36:35.500000,-110.49,65.32
214513,2018-06-29 10:36:35.531250,-123.78,65.38
214514,2018-06-29 10:36:35.562500,-116.29,65.38
214515,2018-06-29 10:36:35.593750,-85.52,65.38
214516,2018-06-29 10:36:35.625000,-37.69,65.38
214517,2018-06-29 10:36:35.656250,16.49,65.38
214518,2018-06-29 10:36:35.687500,64.63,65.38
214519,2018-06-29 10:36:35.718750,96.86,65.38
214520,2018-06-29 10:36:35.750000,111.12,65.38
214521,2018-06-29 10:36:35.781250,110.76,65.38
214522,2018-06-29 10:36:35.812500,97.24,65.38
214523,2018-06-29 10:36:35.843750,69.48,65.38
214524,2018-06-29 10:36:35.875000,29.15,65.38
214525,2018-06-29 10:36:35.906250,-14.2,65.38
214526,2018-06-29 10:36:35.937500,-44.67,65.38
214527,2018-06-29 10:36:35.968750,-52.76,65.38
214528,2018-06-29 10:36:36.000000,-44.61,65.38
214529,2018-06-29 10:36:36.031250,-32.86,65.38
214530,2018-06-29 10:36:36.062500,-23.15,65.38
214531,2018-06-29 10:36:36.093750,-15.04,65.38
214532,2018-06-29 10:36:36.125000,-8.53,65.38
214533,2018-06-29 10:36:36.156250,-3.86,65.38
214534,2018-06-29 10:36:36.187500,0.57,65.38
214535,2018-06-29 10:36:36.218750,6.62,65.38
214536,2018-06-29 10:36:36.250000,14.04,65.38
214537,2018-06-29 10:36:36.281250,20.56,65.38
214538,2018-06-29 10:36:36.312500,24.48,65.38
214539,2018-06-29 10:36:36.343750,25.88,65.38
214540,2018-06-29 10:36:36.375000,24.56,65.38
214541,2018-06-29 10:36:36.406250,19.16,65.38
214542,2018-06-29 10:36:36.437500,10.08,65.38
214543,2018-06-29 10:36:36.468750,0.97,65.38
214544,2018-06-29 10:36:36.500000,-5.6,65.38
214545,2018-06-29 10:36:36.531250,-11.76,65.38
214546,2018-06-29 10:36:36.562500,-20.3,65.38
214547,2018-06-29 10:36:36.593750,-29.61,65.38
214548,2018-06-29 10:36:36.625000,-36.6,65.38
214549,2018-06-29 10:36:36.656250,-42.6,65.38
214550,2018-06-29 10:36:36.687500,-51.52,65.38
214551,2018-06-29 10:36:36.718750,-63.47,65.38
214552,2018-06-29 10:36:36.750000,-72.91,65.38
214553,2018-06-29 10:36:36.781250,-71.82,65.38
214554,2018-06-29 10:36:36.812500,-55.5,65.38
214555,2018-06-29 10:36:36.843750,-27.96,65.38
214556,2018-06-29 10:36:36.875000,0.8,65.38
214557,2018-06-29 10:36:36.906250,24.22,65.38
214558,2018-06-29 10:36:36.937500,42.25,65.38
214559,2018-06-29 10:36:36.968750,55.34,65.38
214560,2018-06-29 10:36:37.000000,62.19,65.38
214561,2018-06-29 10:36:37.031250,63.8,65.38
214562,2018-06-29 10:36:37.062500,64.04,65.38
214563,2018-06-29 10:36:37.093750,65.26,65.38
214564,2018-06-29 10:36:37.125000,66.99,65.38
214565,2018-06-29 10:36:37.156250,68.74,65.38
214566,2018-06-29 10:36:37.187500,70.66,65.38
214567,2018-06-29 10:36:37.218750,71.43,65.38
214568,2018-06-29 10:36:37.250000,68.74,65.38
214569,2018-06-29 10:36:37.281250,63.61,65.38
214570,2018-06-29 10:36:37.312500,63.09,65.38
214571,2018-06-29 10:36:37.343750,74.62,65.38
214572,2018-06-29 10:36:37.375000,96.18,65.38
214573,2018-06-29 10:36:37.406250,114.75,65.38
214574,2018-06-29 10:36:37.437500,117.99,65.38
214575,2018-06-29 10:36:37.468750,104.99,65.38
214576,2018-06-29 10:36:37.500000,82.45,65.38
214577,2018-06-29 10:36:37.531250,53.15,65.38
214578,2018-06-29 10:36:37.562500,13.38,65.38
214579,2018-06-29 10:36:37.593750,-37.57,65.38
214580,2018-06-29 10:36:37.625000,-89.13,65.38
214581,2018-06-29 10:36:37.656250,-124.43,65.38
214582,2018-06-29 10:36:37.687500,-133.96,65.38
214583,2018-06-29 10:36:37.718750,-122.12,65.38
214584,2018-06-29 10:36:37.750000,-99.34,65.38
214585,2018-06-29 10:36:37.781250,-71.41,65.38
214586,2018-06-29 10:36:37.812500,-40.38,65.38
214587,2018-06-29 10:36:37.843750,-10.89,65.38
214588,2018-06-29 10:36:37.875000,11.1,65.38
214589,2018-06-29 10:36:37.906250,24.61,65.38
214590,2018-06-29 10:36:37.937500,33.9,65.38
214591,2018-06-29 10:36:37.968750,42.92,65.38
214592,2018-06-29 10:36:38.000000,50.6,65.38
214593,2018-06-29 10:36:38.031250,51.01,65.38
214594,2018-06-29 10:36:38.062500,39.76,65.38
214595,2018-06-29 10:36:38.093750,20.71,65.38
214596,2018-06-29 10:36:38.125000,3.52,65.38
214597,2018-06-29 10:36:38.156250,-4.86,65.38
214598,2018-06-29 10:36:38.187500,-3.97,65.38
214599,2018-06-29 10:36:38.218750,1.74,65.38
214600,2018-06-29 10:36:38.250000,4.96,65.38
214601,2018-06-29 10:36:38.281250,-0.19,65.38
214602,2018-06-29 10:36:38.312500,-13.28,65.38
214603,2018-06-29 10:36:38.343750,-28.63,65.38
214604,2018-06-29 10:36:38.375000,-41.46,65.38
214605,2018-06-29 10:36:38.406250,-51.62,65.38
214606,2018-06-29 10:36:38.437500,-61.85,65.38
214607,2018-06-29 10:36:38.468750,-72.45,65.38
214608,2018-06-29 10:36:38.500000,-77.48,65.38
214609,2018-06-29 10:36:38.531250,-68.57,65.37
214610,2018-06-29 10:36:38.562500,-44.8,65.37
214611,2018-06-29 10:36:38.593750,-15.88,65.37
214612,2018-06-29 10:36:38.625000,8.86,65.37
214613,2018-06-29 10:36:38.656250,29.65,65.37
214614,2018-06-29 10:36:38.687500,49.4,65.37
214615,2018-06-29 10:36:38.718750,64.92,65.37
214616,2018-06-29 10:36:38.750000,72.61,65.37
214617,2018-06-29 10:36:38.781250,75.97,65.37
214618,2018-06-29 10:36:38.812500,80.33,65.37
214619,2018-06-29 10:36:38.843750,85.21,65.37
214620,2018-06-29 10:36:38.875000,88.03,65.37
214621,2018-06-29 10:36:38.906250,91.48,65.37
214622,2018-06-29 10:36:38.937500,100.87,65.37
214623,2018-06-29 10:36:38.968750,114.78,65.37
214624,2018-06-29 10:36:39.000000,126.19,65.37
214625,2018-06-29 10:36:39.031250,131.49,65.37
214626,2018-06-29 10:36:39.062500,132.66,65.37
214627,2018-06-29 10:36:39.093750,137.54,65.37
214628,2018-06-29 10:36:39.125000,157.85,65.37
214629,2018-06-29 10:36:39.156250,188.09,65.37
214630,2018-06-29 10:36:39.187500,195.86,65.37
214631,2018-06-29 10:36:39.218750,161.37,65.37
214632,2018-06-29 10:36:39.250000,107.71,65.37
214633,2018-06-29 10:36:39.281250,66.99,65.37
214634,2018-06-29 10:36:39.312500,41.7,65.37
214635,2018-06-29 10:36:39.343750,16.12,65.37
214636,2018-06-29 10:36:39.375000,-20.96,65.37
214637,2018-06-29 10:36:39.406250,-74.18,65.37
214638,2018-06-29 10:36:39.437500,-142.52,65.37
214639,2018-06-29 10:36:39.468750,-219.84,65.37
214640,2018-06-29 10:36:39.500000,-302.62,65.37
214641,2018-06-29 10:36:39.531250,-397.56,65.35
214642,2018-06-29 10:36:39.562500,-505.77,65.35
214643,2018-06-29 10:36:39.593750,-591.63,65.35
214644,2018-06-29 10:36:39.625000,-600.68,65.35
214645,2018-06-29 10:36:39.656250,-524.21,65.35
214646,2018-06-29 10:36:39.687500,-410.96,65.35
214647,2018-06-29 10:36:39.718750,-306.15,65.35
214648,2018-06-29 10:36:39.750000,-218.15,65.35
214649,2018-06-29 10:36:39.781250,-144.58,65.35
214650,2018-06-29 10:36:39.812500,-87.3,65.35
214651,2018-06-29 10:36:39.843750,-41.47,65.35
214652,2018-06-29 10:36:39.875000,0.55,65.35
214653,2018-06-29 10:36:39.906250,36.23,65.35
214654,2018-06-29 10:36:39.937500,58.12,65.35
214655,2018-06-29 10:36:39.968750,67.85,65.35
214656,2018-06-29 10:36:40.000000,73.65,65.35
214657,2018-06-29 10:36:40.031250,80.42,65.35
214658,2018-06-29 10:36:40.062500,88.42,65.35
214659,2018-06-29 10:36:40.093750,91.71,65.35
214660,2018-06-29 10:36:40.125000,76.3,65.35
214661,2018-06-29 10:36:40.156250,34.8,65.35
214662,2018-06-29 10:36:40.187500,-18.6,65.35
214663,2018-06-29 10:36:40.218750,-61.83,65.35
214664,2018-06-29 10:36:40.250000,-84.66,65.35
214665,2018-06-29 10:36:40.281250,-85.79,65.35
214666,2018-06-29 10:36:40.312500,-67.59,65.35
214667,2018-06-29 10:36:40.343750,-42.0,65.35
214668,2018-06-29 10:36:40.375000,-23.38,65.35
214669,2018-06-29 10:36:40.406250,-11.17,65.35
214670,2018-06-29 10:36:40.437500,7.24,65.35
214671,2018-06-29 10:36:40.468750,37.41,65.35
214672,2018-06-29 10:36:40.500000,70.43,65.35
214673,2018-06-29 10:36:40.531250,92.9,65.33
214674,2018-06-29 10:36:40.562500,99.03,65.33
214675,2018-06-29 10:36:40.593750,92.47,65.33
214676,2018-06-29 10:36:40.625000,79.07,65.33
214677,2018-06-29 10:36:40.656250,63.07,65.33
214678,2018-06-29 10:36:40.687500,48.92,65.33
214679,2018-06-29 10:36:40.718750,38.79,65.33
214680,2018-06-29 10:36:40.750000,29.54,65.33
214681,2018-06-29 10:36:40.781250,19.18,65.33
214682,2018-06-29 10:36:40.812500,10.41,65.33
214683,2018-06-29 10:36:40.843750,3.84,65.33
214684,2018-06-29 10:36:40.875000,-2.54,65.33
214685,2018-06-29 10:36:40.906250,-8.44,65.33
214686,2018-06-29 10:36:40.937500,-16.9,65.33
214687,2018-06-29 10:36:40.968750,-38.88,65.33
214688,2018-06-29 10:36:41.000000,-79.18,65.33
214689,2018-06-29 10:36:41.031250,-125.26,65.33
214690,2018-06-29 10:36:41.062500,-162.53,65.33
214691,2018-06-29 10:36:41.093750,-195.26,65.33
214692,2018-06-29 10:36:41.125000,-240.89,65.33
214693,2018-06-29 10:36:41.156250,-301.96,65.33
214694,2018-06-29 10:36:41.187500,-354.11,65.33
214695,2018-06-29 10:36:41.218750,-367.97,65.33
214696,2018-06-29 10:36:41.250000,-333.09,65.33
214697,2018-06-29 10:36:41.281250,-256.81,65.33
214698,2018-06-29 10:36:41.312500,-154.58,65.33
214699,2018-06-29 10:36:41.343750,-46.56,65.33
214700,2018-06-29 10:36:41.375000,49.67,65.33
214701,2018-06-29 10:36:41.406250,127.39,65.33
214702,2018-06-29 10:36:41.437500,187.25,65.33
214703,2018-06-29 10:36:41.468750,229.8,65.33
214704,2018-06-29 10:36:41.500000,254.31,65.33
214705,2018-06-29 10:36:41.531250,259.86,65.48
214706,2018-06-29 10:36:41.562500,247.68,65.48
214707,2018-06-29 10:36:41.593750,224.0,65.48
214708,2018-06-29 10:36:41.625000,198.05,65.48
214709,2018-06-29 10:36:41.656250,176.79,65.48
214710,2018-06-29 10:36:41.687500,162.33,65.48
214711,2018-06-29 10:36:41.718750,153.45,65.48
214712,2018-06-29 10:36:41.750000,147.94,65.48
214713,2018-06-29 10:36:41.781250,143.02,65.48
214714,2018-06-29 10:36:41.812500,134.04,65.48
214715,2018-06-29 10:36:41.843750,116.92,65.48
214716,2018-06-29 10:36:41.875000,92.92,65.48
214717,2018-06-29 10:36:41.906250,67.82,65.48
214718,2018-06-29 10:36:41.937500,45.47,65.48
214719,2018-06-29 10:36:41.968750,24.66,65.48
214720,2018-06-29 10:36:42.000000,1.26,65.48
214721,2018-06-29 10:36:42.031250,-25.99,65.48
214722,2018-06-29 10:36:42.062500,-48.67,65.48
214723,2018-06-29 10:36:42.093750,-51.19,65.48
214724,2018-06-29 10:36:42.125000,-26.68,65.48
214725,2018-06-29 10:36:42.156250,13.28,65.48
214726,2018-06-29 10:36:42.187500,49.71,65.48
214727,2018-06-29 10:36:42.218750,71.83,65.48
214728,2018-06-29 10:36:42.250000,79.44,65.48
214729,2018-06-29 10:36:42.281250,77.05,65.48
214730,2018-06-29 10:36:42.312500,69.12,65.48
214731,2018-06-29 10:36:42.343750,56.57,65.48
214732,2018-06-29 10:36:42.375000,37.21,65.48
214733,2018-06-29 10:36:42.406250,10.3,65.48
214734,2018-06-29 10:36:42.437500,-22.54,65.48
214735,2018-06-29 10:36:42.468750,-61.27,65.48
214736,2018-06-29 10:36:42.500000,-108.46,65.48
214737,2018-06-29 10:36:42.531250,-166.0,65.65
214738,2018-06-29 10:36:42.562500,-224.83,65.65
214739,2018-06-29 10:36:42.593750,-250.26,65.65
214740,2018-06-29 10:36:42.625000,-195.32,65.65
214741,2018-06-29 10:36:42.656250,-49.51,65.65
214742,2018-06-29 10:36:42.687500,137.4,65.65
214743,2018-06-29 10:36:42.718750,295.24,65.65
214744,2018-06-29 10:36:42.750000,386.02,65.65
214745,2018-06-29 10:36:42.781250,412.62,65.65
214746,2018-06-29 10:36:42.812500,397.18,65.65
214747,2018-06-29 10:36:42.843750,361.14,65.65
214748,2018-06-29 10:36:42.875000,313.05,65.65
214749,2018-06-29 10:36:42.906250,250.36,65.65
214750,2018-06-29 10:36:42.937500,177.29,65.65
214751,2018-06-29 10:36:42.968750,115.31,65.65
214752,2018-06-29 10:36:43.000000,85.25,65.65
214753,2018-06-29 10:36:43.031250,86.25,65.65
214754,2018-06-29 10:36:43.062500,96.33,65.65
214755,2018-06-29 10:36:43.093750,89.83,65.65
214756,2018-06-29 10:36:43.125000,63.06,65.65
214757,2018-06-29 10:36:43.156250,42.62,65.65
214758,2018-06-29 10:36:43.187500,49.21,65.65
214759,2018-06-29 10:36:43.218750,66.23,65.65
214760,2018-06-29 10:36:43.250000,70.0,65.65
214761,2018-06-29 10:36:43.281250,65.56,65.65
214762,2018-06-29 10:36:43.312500,63.72,65.65
214763,2018-06-29 10:36:43.343750,54.85,65.65
214764,2018-06-29 10:36:43.375000,29.06,65.65
214765,2018-06-29 10:36:43.406250,-3.37,65.65
214766,2018-06-29 10:36:43.437500,-23.34,65.65
214767,2018-06-29 10:36:43.468750,-18.68,65.65
214768,2018-06-29 10:36:43.500000,5.13,65.65
214769,2018-06-29 10:36:43.531250,26.7,65.8
214770,2018-06-29 10:36:43.562500,34.13,65.8
214771,2018-06-29 10:36:43.593750,37.92,65.8
214772,2018-06-29 10:36:43.625000,45.54,65.8
214773,2018-06-29 10:36:43.656250,43.49,65.8
214774,2018-06-29 10:36:43.687500,14.92,65.8
214775,2018-06-29 10:36:43.718750,-42.04,65.8
214776,2018-06-29 10:36:43.750000,-107.85,65.8
214777,2018-06-29 10:36:43.781250,-142.39,65.8
214778,2018-06-29 10:36:43.812500,-122.28,65.8
214779,2018-06-29 10:36:43.843750,-84.82,65.8
214780,2018-06-29 10:36:43.875000,-91.72,65.8
214781,2018-06-29 10:36:43.906250,-149.03,65.8
214782,2018-06-29 10:36:43.937500,-204.3,65.8
214783,2018-06-29 10:36:43.968750,-215.09,65.8
214784,2018-06-29 10:36:44.000000,-182.42,65.8
214785,2018-06-29 10:36:44.031250,-129.96,65.8
214786,2018-06-29 10:36:44.062500,-81.74,65.8
214787,2018-06-29 10:36:44.093750,-53.52,65.8
214788,2018-06-29 10:36:44.125000,-44.41,65.8
214789,2018-06-29 10:36:44.156250,-38.53,65.8
214790,2018-06-29 10:36:44.187500,-23.7,65.8
214791,2018-06-29 10:36:44.218750,-7.3,65.8
214792,2018-06-29 10:36:44.250000,-4.65,65.8
214793,2018-06-29 10:36:44.281250,-11.22,65.8
214794,2018-06-29 10:36:44.312500,-1.57,65.8
214795,2018-06-29 10:36:44.343750,34.64,65.8
214796,2018-06-29 10:36:44.375000,71.72,65.8
214797,2018-06-29 10:36:44.406250,75.52,65.8
214798,2018-06-29 10:36:44.437500,40.2,65.8
214799,2018-06-29 10:36:44.468750,-9.41,65.8
214800,2018-06-29 10:36:44.500000,-43.78,65.8
214801,2018-06-29 10:36:44.531250,-53.86,65.95
214802,2018-06-29 10:36:44.562500,-50.89,65.95
214803,2018-06-29 10:36:44.593750,-47.57,65.95
214804,2018-06-29 10:36:44.625000,-49.94,65.95
214805,2018-06-29 10:36:44.656250,-57.38,65.95
214806,2018-06-29 10:36:44.687500,-57.34,65.95
214807,2018-06-29 10:36:44.718750,-34.25,65.95
214808,2018-06-29 10:36:44.750000,11.28,65.95
214809,2018-06-29 10:36:44.781250,64.02,65.95
214810,2018-06-29 10:36:44.812500,104.27,65.95
214811,2018-06-29 10:36:44.843750,110.35,65.95
214812,2018-06-29 10:36:44.875000,74.55,65.95
214813,2018-06-29 10:36:44.906250,21.77,65.95
214814,2018-06-29 10:36:44.937500,-8.96,65.95
214815,2018-06-29 10:36:44.968750,-2.19,65.95
214816,2018-06-29 10:36:45.000000,24.11,65.95
214817,2018-06-29 10:36:45.031250,39.77,65.95
214818,2018-06-29 10:36:45.062500,27.73,65.95
214819,2018-06-29 10:36:45.093750,-6.42,65.95
214820,2018-06-29 10:36:45.125000,-45.16,65.95
214821,2018-06-29 10:36:45.156250,-74.73,65.95
214822,2018-06-29 10:36:45.187500,-90.18,65.95
214823,2018-06-29 10:36:45.218750,-92.69,65.95
214824,2018-06-29 10:36:45.250000,-86.77,65.95
214825,2018-06-29 10:36:45.281250,-77.29,65.95
214826,2018-06-29 10:36:45.312500,-67.82,65.95
214827,2018-06-29 10:36:45.343750,-63.49,65.95
214828,2018-06-29 10:36:45.375000,-70.58,65.95
214829,2018-06-29 10:36:45.406250,-87.3,65.95
214830,2018-06-29 10:36:45.437500,-99.68,65.95
214831,2018-06-29 10:36:45.468750,-93.8,65.95
214832,2018-06-29 10:36:45.500000,-71.01,65.95
214833,2018-06-29 10:36:45.531250,-43.73,66.13
214834,2018-06-29 10:36:45.562500,-17.02,66.13
214835,2018-06-29 10:36:45.593750,13.42,66.13
214836,2018-06-29 10:36:45.625000,45.7,66.13
214837,2018-06-29 10:36:45.656250,69.85,66.13
214838,2018-06-29 10:36:45.687500,81.79,66.13
214839,2018-06-29 10:36:45.718750,85.36,66.13
214840,2018-06-29 10:36:45.750000,83.31,66.13
214841,2018-06-29 10:36:45.781250,77.72,66.13
214842,2018-06-29 10:36:45.812500,73.64,66.13
214843,2018-06-29 10:36:45.843750,74.35,66.13
214844,2018-06-29 10:36:45.875000,76.51,66.13
214845,2018-06-29 10:36:45.906250,73.72,66.13
214846,2018-06-29 10:36:45.937500,62.56,66.13
214847,2018-06-29 10:36:45.968750,44.35,66.13
214848,2018-06-29 10:36:46.000000,21.44,66.13
214849,2018-06-29 10:36:46.031250,-6.19,66.13
214850,2018-06-29 10:36:46.062500,-37.57,66.13
214851,2018-06-29 10:36:46.093750,-66.47,66.13
214852,2018-06-29 10:36:46.125000,-85.92,66.13
214853,2018-06-29 10:36:46.156250,-92.43,66.13
214854,2018-06-29 10:36:46.187500,-81.83,66.13
214855,2018-06-29 10:36:46.218750,-51.94,66.13
214856,2018-06-29 10:36:46.250000,-14.19,66.13
214857,2018-06-29 10:36:46.281250,11.16,66.13
214858,2018-06-29 10:36:46.312500,15.78,66.13
214859,2018-06-29 10:36:46.343750,8.11,66.13
214860,2018-06-29 10:36:46.375000,-2.02,66.13
214861,2018-06-29 10:36:46.406250,-12.8,66.13
214862,2018-06-29 10:36:46.437500,-25.49,66.13
214863,2018-06-29 10:36:46.468750,-36.93,66.13
214864,2018-06-29 10:36:46.500000,-40.97,66.13
214865,2018-06-29 10:36:46.531250,-38.25,66.33
214866,2018-06-29 10:36:46.562500,-38.88,66.33
214867,2018-06-29 10:36:46.593750,-50.53,66.33
214868,2018-06-29 10:36:46.625000,-68.9,66.33
214869,2018-06-29 10:36:46.656250,-83.98,66.33
214870,2018-06-29 10:36:46.687500,-90.3,66.33
214871,2018-06-29 10:36:46.718750,-89.1,66.33
214872,2018-06-29 10:36:46.750000,-85.32,66.33
214873,2018-06-29 10:36:46.781250,-81.06,66.33
214874,2018-06-29 10:36:46.812500,-70.31,66.33
214875,2018-06-29 10:36:46.843750,-46.03,66.33
214876,2018-06-29 10:36:46.875000,-12.23,66.33
214877,2018-06-29 10:36:46.906250,18.92,66.33
214878,2018-06-29 10:36:46.937500,40.81,66.33
214879,2018-06-29 10:36:46.968750,55.91,66.33
214880,2018-06-29 10:36:47.000000,68.15,66.33
214881,2018-06-29 10:36:47.031250,77.93,66.33
214882,2018-06-29 10:36:47.062500,82.66,66.33
214883,2018-06-29 10:36:47.093750,78.7,66.33
214884,2018-06-29 10:36:47.125000,63.96,66.33
214885,2018-06-29 10:36:47.156250,40.69,66.33
214886,2018-06-29 10:36:47.187500,14.55,66.33
214887,2018-06-29 10:36:47.218750,-10.2,66.33
214888,2018-06-29 10:36:47.250000,-33.53,66.33
214889,2018-06-29 10:36:47.281250,-55.1,66.33
214890,2018-06-29 10:36:47.312500,-70.05,66.33
214891,2018-06-29 10:36:47.343750,-74.06,66.33
214892,2018-06-29 10:36:47.375000,-69.85,66.33
214893,2018-06-29 10:36:47.406250,-65.18,66.33
214894,2018-06-29 10:36:47.437500,-66.49,66.33
214895,2018-06-29 10:36:47.468750,-73.4,66.33
214896,2018-06-29 10:36:47.500000,-75.59,66.33
214897,2018-06-29 10:36:47.531250,-61.45,66.5
214898,2018-06-29 10:36:47.562500,-33.15,66.5
214899,2018-06-29 10:36:47.593750,-4.36,66.5
214900,2018-06-29 10:36:47.625000,17.78,66.5
214901,2018-06-29 10:36:47.656250,37.46,66.5
214902,2018-06-29 10:36:47.687500,57.84,66.5
214903,2018-06-29 10:36:47.718750,74.42,66.5
214904,2018-06-29 10:36:47.750000,81.85,66.5
214905,2018-06-29 10:36:47.781250,80.18,66.5
214906,2018-06-29 10:36:47.812500,73.25,66.5
214907,2018-06-29 10:36:47.843750,64.29,66.5
214908,2018-06-29 10:36:47.875000,54.27,66.5
214909,2018-06-29 10:36:47.906250,42.96,66.5
214910,2018-06-29 10:36:47.937500,30.4,66.5
214911,2018-06-29 10:36:47.968750,16.97,66.5
214912,2018-06-29 10:36:48.000000,3.71,66.5
214913,2018-06-29 10:36:48.031250,-7.06,66.5
214914,2018-06-29 10:36:48.062500,-13.89,66.5
214915,2018-06-29 10:36:48.093750,-19.43,66.5
214916,2018-06-29 10:36:48.125000,-28.07,66.5
214917,2018-06-29 10:36:48.156250,-41.3,66.5
214918,2018-06-29 10:36:48.187500,-59.62,66.5
214919,2018-06-29 10:36:48.218750,-82.75,66.5
214920,2018-06-29 10:36:48.250000,-99.98,66.5
214921,2018-06-29 10:36:48.281250,-91.22,66.5
214922,2018-06-29 10:36:48.312500,-48.9,66.5
214923,2018-06-29 10:36:48.343750,11.83,66.5
214924,2018-06-29 10:36:48.375000,73.37,66.5
214925,2018-06-29 10:36:48.406250,128.37,66.5
214926,2018-06-29 10:36:48.437500,171.04,66.5
214927,2018-06-29 10:36:48.468750,199.22,66.5
214928,2018-06-29 10:36:48.500000,221.82,66.5
214929,2018-06-29 10:36:48.531250,245.09,66.67
214930,2018-06-29 10:36:48.562500,265.83,66.67
214931,2018-06-29 10:36:48.593750,289.79,66.67
214932,2018-06-29 10:36:48.625000,324.8,66.67
214933,2018-06-29 10:36:48.656250,349.63,66.67
214934,2018-06-29 10:36:48.687500,330.42,66.67
214935,2018-06-29 10:36:48.718750,268.35,66.67
214936,2018-06-29 10:36:48.750000,194.84,66.67
214937,2018-06-29 10:36:48.781250,130.09,66.67
214938,2018-06-29 10:36:48.812500,73.75,66.67
214939,2018-06-29 10:36:48.843750,19.11,66.67
214940,2018-06-29 10:36:48.875000,-43.17,66.67
214941,2018-06-29 10:36:48.906250,-117.4,66.67
214942,2018-06-29 10:36:48.937500,-193.52,66.67
214943,2018-06-29 10:36:48.968750,-258.12,66.67
214944,2018-06-29 10:36:49.000000,-312.94,66.67
214945,2018-06-29 10:36:49.031250,-377.12,66.67
214946,2018-06-29 10:36:49.062500,-465.02,66.67
214947,2018-06-29 10:36:49.093750,-548.56,66.67
214948,2018-06-29 10:36:49.125000,-566.69,66.67
214949,2018-06-29 10:36:49.156250,-500.73,66.67
214950,2018-06-29 10:36:49.187500,-403.72,66.67
214951,2018-06-29 10:36:49.218750,-329.2,66.67
214952,2018-06-29 10:36:49.250000,-279.63,66.67
214953,2018-06-29 10:36:49.281250,-240.47,66.67
214954,2018-06-29 10:36:49.312500,-206.47,66.67
214955,2018-06-29 10:36:49.343750,-164.85,66.67
214956,2018-06-29 10:36:49.375000,-97.31,66.67
214957,2018-06-29 10:36:49.406250,-3.36,66.67
214958,2018-06-29 10:36:49.437500,95.55,66.67
214959,2018-06-29 10:36:49.468750,173.61,66.67
214960,2018-06-29 10:36:49.500000,219.41,66.67
214961,2018-06-29 10:36:49.531250,238.92,66.83
214962,2018-06-29 10:36:49.562500,240.64,66.83
214963,2018-06-29 10:36:49.593750,227.59,66.83
214964,2018-06-29 10:36:49.625000,204.64,66.83
214965,2018-06-29 10:36:49.656250,179.51,66.83
214966,2018-06-29 10:36:49.687500,153.54,66.83
214967,2018-06-29 10:36:49.718750,123.38,66.83
214968,2018-06-29 10:36:49.750000,90.74,66.83
214969,2018-06-29 10:36:49.781250,60.24,66.83
214970,2018-06-29 10:36:49.812500,31.12,66.83
214971,2018-06-29 10:36:49.843750,-0.87,66.83
214972,2018-06-29 10:36:49.875000,-34.78,66.83
214973,2018-06-29 10:36:49.906250,-64.56,66.83
214974,2018-06-29 10:36:49.937500,-87.82,66.83
214975,2018-06-29 10:36:49.968750,-109.3,66.83
214976,2018-06-29 10:36:50.000000,-131.5,66.83
214977,2018-06-29 10:36:50.031250,-143.88,66.83
214978,2018-06-29 10:36:50.062500,-130.25,66.83
214979,2018-06-29 10:36:50.093750,-88.97,66.83
214980,2018-06-29 10:36:50.125000,-35.89,66.83
214981,2018-06-29 10:36:50.156250,13.36,66.83
214982,2018-06-29 10:36:50.187500,53.53,66.83
214983,2018-06-29 10:36:50.218750,83.58,66.83
214984,2018-06-29 10:36:50.250000,101.69,66.83
214985,2018-06-29 10:36:50.281250,107.79,66.83
214986,2018-06-29 10:36:50.312500,105.63,66.83
214987,2018-06-29 10:36:50.343750,100.64,66.83
214988,2018-06-29 10:36:50.375000,96.55,66.83
214989,2018-06-29 10:36:50.406250,94.22,66.83
214990,2018-06-29 10:36:50.437500,93.21,66.83
214991,2018-06-29 10:36:50.468750,91.7,66.83
214992,2018-06-29 10:36:50.500000,86.17,66.83
214993,2018-06-29 10:36:50.531250,74.75,66.97
214994,2018-06-29 10:36:50.562500,59.72,66.97
214995,2018-06-29 10:36:50.593750,44.6,66.97
214996,2018-06-29 10:36:50.625000,30.01,66.97
214997,2018-06-29 10:36:50.656250,14.84,66.97
214998,2018-06-29 10:36:50.687500,-1.21,66.97
214999,2018-06-29 10:36:50.718750,-18.52,66.97
215000,2018-06-29 10:36:50.750000,-38.44,66.97
215001,2018-06-29 10:36:50.781250,-60.7,66.97
215002,2018-06-29 10:36:50.812500,-82.77,66.97
215003,2018-06-29 10:36:50.843750,-103.5,66.97
215004,2018-06-29 10:36:50.875000,-123.22,66.97
215005,2018-06-29 10:36:50.906250,-141.1,66.97
215006,2018-06-29 10:36:50.937500,-155.81,66.97
215007,2018-06-29 10:36:50.968750,-161.73,66.97
215008,2018-06-29 10:36:51.000000,-143.76,66.97
215009,2018-06-29 10:36:51.031250,-90.72,66.97
215010,2018-06-29 10:36:51.062500,-15.12,66.97
215011,2018-06-29 10:36:51.093750,56.23,66.97
215012,2018-06-29 10:36:51.125000,109.0,66.97
215013,2018-06-29 10:36:51.156250,144.39,66.97
215014,2018-06-29 10:36:51.187500,164.6,66.97
215015,2018-06-29 10:36:51.218750,170.59,66.97
215016,2018-06-29 10:36:51.250000,168.42,66.97
215017,2018-06-29 10:36:51.281250,166.13,66.97
215018,2018-06-29 10:36:51.312500,165.66,66.97
215019,2018-06-29 10:36:51.343750,163.87,66.97
215020,2018-06-29 10:36:51.375000,158.96,66.97
215021,2018-06-29 10:36:51.406250,150.8,66.97
215022,2018-06-29 10:36:51.437500,137.51,66.97
215023,2018-06-29 10:36:51.468750,116.9,66.97
215024,2018-06-29 10:36:51.500000,90.75,66.97
215025,2018-06-29 10:36:51.531250,63.36,67.15
215026,2018-06-29 10:36:51.562500,36.48,67.15
215027,2018-06-29 10:36:51.593750,9.59,67.15
215028,2018-06-29 10:36:51.625000,-15.15,67.15
215029,2018-06-29 10:36:51.656250,-32.38,67.15
215030,2018-06-29 10:36:51.687500,-40.32,67.15
215031,2018-06-29 10:36:51.718750,-46.27,67.15
215032,2018-06-29 10:36:51.750000,-60.4,67.15
215033,2018-06-29 10:36:51.781250,-80.89,67.15
215034,2018-06-29 10:36:51.812500,-90.94,67.15
215035,2018-06-29 10:36:51.843750,-75.82,67.15
215036,2018-06-29 10:36:51.875000,-40.51,67.15
215037,2018-06-29 10:36:51.906250,-3.01,67.15
215038,2018-06-29 10:36:51.937500,24.52,67.15
215039,2018-06-29 10:36:51.968750,47.58,67.15
215040,2018-06-29 10:36:52.000000,83.72,67.15
215041,2018-06-29 10:36:52.031250,137.92,67.15
215042,2018-06-29 10:36:52.062500,187.14,67.15
215043,2018-06-29 10:36:52.093750,199.28,67.15
215044,2018-06-29 10:36:52.125000,168.5,67.15
215045,2018-06-29 10:36:52.156250,119.29,67.15
215046,2018-06-29 10:36:52.187500,78.69,67.15
215047,2018-06-29 10:36:52.218750,47.67,67.15
215048,2018-06-29 10:36:52.250000,15.33,67.15
215049,2018-06-29 10:36:52.281250,-14.74,67.15
215050,2018-06-29 10:36:52.312500,-35.77,67.15
215051,2018-06-29 10:36:52.343750,-57.34,67.15
215052,2018-06-29 10:36:52.375000,-91.43,67.15
215053,2018-06-29 10:36:52.406250,-123.4,67.15
215054,2018-06-29 10:36:52.437500,-148.29,67.15
215055,2018-06-29 10:36:52.468750,-176.77,67.15
215056,2018-06-29 10:36:52.500000,-207.04,67.15
215057,2018-06-29 10:36:52.531250,-209.47,67.28
215058,2018-06-29 10:36:52.562500,-169.38,67.28
215059,2018-06-29 10:36:52.593750,-113.74,67.28
215060,2018-06-29 10:36:52.625000,-59.36,67.28
215061,2018-06-29 10:36:52.656250,4.54,67.28
215062,2018-06-29 10:36:52.687500,99.97,67.28
215063,2018-06-29 10:36:52.718750,204.82,67.28
215064,2018-06-29 10:36:52.750000,292.41,67.28
215065,2018-06-29 10:36:52.781250,335.65,67.28
215066,2018-06-29 10:36:52.812500,232.26,67.28
215067,2018-06-29 10:36:52.843750,67.32,67.28
215068,2018-06-29 10:36:52.875000,-62.76,67.28
215069,2018-06-29 10:36:52.906250,-151.05,67.28
215070,2018-06-29 10:36:52.937500,-200.72,67.28
215071,2018-06-29 10:36:52.968750,-189.02,67.28
215072,2018-06-29 10:36:53.000000,-141.64,67.28
215073,2018-06-29 10:36:53.031250,-93.61,67.28
215074,2018-06-29 10:36:53.062500,-73.61,67.28
215075,2018-06-29 10:36:53.093750,-73.45,67.28
215076,2018-06-29 10:36:53.125000,-73.49,67.28
215077,2018-06-29 10:36:53.156250,-69.21,67.28
215078,2018-06-29 10:36:53.187500,-55.89,67.28
215079,2018-06-29 10:36:53.218750,-35.73,67.28
215080,2018-06-29 10:36:53.250000,-14.31,67.28
215081,2018-06-29 10:36:53.281250,1.57,67.28
215082,2018-06-29 10:36:53.312500,15.14,67.28
215083,2018-06-29 10:36:53.343750,25.96,67.28
215084,2018-06-29 10:36:53.375000,24.56,67.28
215085,2018-06-29 10:36:53.406250,6.18,67.28
215086,2018-06-29 10:36:53.437500,-22.53,67.28
215087,2018-06-29 10:36:53.468750,-45.58,67.28
215088,2018-06-29 10:36:53.500000,-47.65,67.28
215089,2018-06-29 10:36:53.531250,-28.34,67.4
215090,2018-06-29 10:36:53.562500,-9.48,67.4
215091,2018-06-29 10:36:53.593750,-13.5,67.4
215092,2018-06-29 10:36:53.625000,-38.93,67.4
215093,2018-06-29 10:36:53.656250,-67.75,67.4
215094,2018-06-29 10:36:53.687500,-86.88,67.4
215095,2018-06-29 10:36:53.718750,-94.05,67.4
215096,2018-06-29 10:36:53.750000,-91.79,67.4
215097,2018-06-29 10:36:53.781250,-81.41,67.4
215098,2018-06-29 10:36:53.812500,-63.08,67.4
215099,2018-06-29 10:36:53.843750,-40.01,67.4
215100,2018-06-29 10:36:53.875000,-17.98,67.4
215101,2018-06-29 10:36:53.906250,-0.48,67.4
215102,2018-06-29 10:36:53.937500,10.65,67.4
215103,2018-06-29 10:36:53.968750,13.56,67.4
215104,2018-06-29 10:36:54.000000,9.81,67.4
215105,2018-06-29 10:36:54.031250,5.84,67.4
215106,2018-06-29 10:36:54.062500,6.65,67.4
215107,2018-06-29 10:36:54.093750,11.2,67.4
215108,2018-06-29 10:36:54.125000,15.51,67.4
215109,2018-06-29 10:36:54.156250,16.41,67.4
215110,2018-06-29 10:36:54.187500,12.2,67.4
215111,2018-06-29 10:36:54.218750,3.99,67.4
215112,2018-06-29 10:36:54.250000,-5.27,67.4
215113,2018-06-29 10:36:54.281250,-15.52,67.4
215114,2018-06-29 10:36:54.312500,-29.44,67.4
215115,2018-06-29 10:36:54.343750,-46.63,67.4
215116,2018-06-29 10:36:54.375000,-63.02,67.4
215117,2018-06-29 10:36:54.406250,-77.54,67.4
215118,2018-06-29 10:36:54.437500,-95.06,67.4
215119,2018-06-29 10:36:54.468750,-121.76,67.4
215120,2018-06-29 10:36:54.500000,-156.6,67.4
215121,2018-06-29 10:36:54.531250,-182.68,67.53
215122,2018-06-29 10:36:54.562500,-171.6,67.53
215123,2018-06-29 10:36:54.593750,-109.04,67.53
215124,2018-06-29 10:36:54.625000,-12.11,67.53
215125,2018-06-29 10:36:54.656250,90.15,67.53
215126,2018-06-29 10:36:54.687500,182.45,67.53
215127,2018-06-29 10:36:54.718750,256.79,67.53
215128,2018-06-29 10:36:54.750000,298.79,67.53
215129,2018-06-29 10:36:54.781250,299.25,67.53
215130,2018-06-29 10:36:54.812500,268.84,67.53
215131,2018-06-29 10:36:54.843750,228.63,67.53
215132,2018-06-29 10:36:54.875000,192.76,67.53
215133,2018-06-29 10:36:54.906250,164.64,67.53
215134,2018-06-29 10:36:54.937500,142.34,67.53
215135,2018-06-29 10:36:54.968750,122.1,67.53
215136,2018-06-29 10:36:55.000000,101.14,67.53
215137,2018-06-29 10:36:55.031250,80.47,67.53
215138,2018-06-29 10:36:55.062500,61.12,67.53
215139,2018-06-29 10:36:55.093750,38.59,67.53
215140,2018-06-29 10:36:55.125000,8.72,67.53
215141,2018-06-29 10:36:55.156250,-23.73,67.53
215142,2018-06-29 10:36:55.187500,-50.27,67.53
215143,2018-06-29 10:36:55.218750,-69.01,67.53
215144,2018-06-29 10:36:55.250000,-84.06,67.53
215145,2018-06-29 10:36:55.281250,-99.96,67.53
215146,2018-06-29 10:36:55.312500,-119.55,67.53
215147,2018-06-29 10:36:55.343750,-139.13,67.53
215148,2018-06-29 10:36:55.375000,-147.05,67.53
215149,2018-06-29 10:36:55.406250,-136.47,67.53
215150,2018-06-29 10:36:55.437500,-115.17,67.53
215151,2018-06-29 10:36:55.468750,-94.64,67.53
215152,2018-06-29 10:36:55.500000,-76.79,67.53
215153,2018-06-29 10:36:55.531250,-58.27,67.68
215154,2018-06-29 10:36:55.562500,-40.56,67.68
215155,2018-06-29 10:36:55.593750,-28.25,67.68
215156,2018-06-29 10:36:55.625000,-22.27,67.68
215157,2018-06-29 10:36:55.656250,-20.07,67.68
215158,2018-06-29 10:36:55.687500,-20.63,67.68
215159,2018-06-29 10:36:55.718750,-25.34,67.68
215160,2018-06-29 10:36:55.750000,-34.88,67.68
215161,2018-06-29 10:36:55.781250,-47.0,67.68
215162,2018-06-29 10:36:55.812500,-58.04,67.68
215163,2018-06-29 10:36:55.843750,-64.48,67.68
215164,2018-06-29 10:36:55.875000,-62.94,67.68
215165,2018-06-29 10:36:55.906250,-51.18,67.68
215166,2018-06-29 10:36:55.937500,-31.64,67.68
215167,2018-06-29 10:36:55.968750,-11.43,67.68
215168,2018-06-29 10:36:56.000000,3.44,67.68
215169,2018-06-29 10:36:56.031250,12.12,67.68
215170,2018-06-29 10:36:56.062500,16.53,67.68
215171,2018-06-29 10:36:56.093750,16.81,67.68
215172,2018-06-29 10:36:56.125000,10.04,67.68
215173,2018-06-29 10:36:56.156250,-6.58,67.68
215174,2018-06-29 10:36:56.187500,-29.51,67.68
215175,2018-06-29 10:36:56.218750,-45.49,67.68
215176,2018-06-29 10:36:56.250000,-40.81,67.68
215177,2018-06-29 10:36:56.281250,-17.15,67.68
215178,2018-06-29 10:36:56.312500,8.64,67.68
215179,2018-06-29 10:36:56.343750,23.24,67.68
215180,2018-06-29 10:36:56.375000,27.95,67.68
215181,2018-06-29 10:36:56.406250,30.41,67.68
215182,2018-06-29 10:36:56.437500,35.13,67.68
215183,2018-06-29 10:36:56.468750,44.47,67.68
215184,2018-06-29 10:36:56.500000,58.95,67.68
215185,2018-06-29 10:36:56.531250,74.56,67.82
215186,2018-06-29 10:36:56.562500,86.09,67.82
215187,2018-06-29 10:36:56.593750,93.3,67.82
215188,2018-06-29 10:36:56.625000,98.7,67.82
215189,2018-06-29 10:36:56.656250,102.01,67.82
215190,2018-06-29 10:36:56.687500,101.55,67.82
215191,2018-06-29 10:36:56.718750,97.73,67.82
215192,2018-06-29 10:36:56.750000,91.88,67.82
215193,2018-06-29 10:36:56.781250,84.07,67.82
215194,2018-06-29 10:36:56.812500,73.84,67.82
215195,2018-06-29 10:36:56.843750,62.32,67.82
215196,2018-06-29 10:36:56.875000,51.12,67.82
215197,2018-06-29 10:36:56.906250,41.09,67.82
215198,2018-06-29 10:36:56.937500,30.94,67.82
215199,2018-06-29 10:36:56.968750,18.01,67.82
215200,2018-06-29 10:36:57.000000,1.2,67.82
215201,2018-06-29 10:36:57.031250,-18.12,67.82
215202,2018-06-29 10:36:57.062500,-37.81,67.82
215203,2018-06-29 10:36:57.093750,-58.56,67.82
215204,2018-06-29 10:36:57.125000,-81.17,67.82
215205,2018-06-29 10:36:57.156250,-102.24,67.82
215206,2018-06-29 10:36:57.187500,-110.7,67.82
215207,2018-06-29 10:36:57.218750,-97.5,67.82
215208,2018-06-29 10:36:57.250000,-66.3,67.82
215209,2018-06-29 10:36:57.281250,-33.89,67.82
215210,2018-06-29 10:36:57.312500,-18.49,67.82
215211,2018-06-29 10:36:57.343750,-18.6,67.82
215212,2018-06-29 10:36:57.375000,-16.35,67.82
215213,2018-06-29 10:36:57.406250,7.6,67.82
215214,2018-06-29 10:36:57.437500,44.51,67.82
215215,2018-06-29 10:36:57.468750,74.22,67.82
215216,2018-06-29 10:36:57.500000,87.3,67.82
215217,2018-06-29 10:36:57.531250,91.73,67.93
215218,2018-06-29 10:36:57.562500,97.17,67.93
215219,2018-06-29 10:36:57.593750,96.12,67.93
215220,2018-06-29 10:36:57.625000,86.15,67.93
215221,2018-06-29 10:36:57.656250,71.37,67.93
215222,2018-06-29 10:36:57.687500,75.36,67.93
215223,2018-06-29 10:36:57.718750,106.36,67.93
215224,2018-06-29 10:36:57.750000,162.23,67.93
215225,2018-06-29 10:36:57.781250,216.23,67.93
215226,2018-06-29 10:36:57.812500,160.83,67.93
215227,2018-06-29 10:36:57.843750,46.77,67.93
215228,2018-06-29 10:36:57.875000,-49.85,67.93
215229,2018-06-29 10:36:57.906250,-122.55,67.93
215230,2018-06-29 10:36:57.937500,-172.18,67.93
215231,2018-06-29 10:36:57.968750,-186.59,67.93
215232,2018-06-29 10:36:58.000000,-178.89,67.93
215233,2018-06-29 10:36:58.031250,-167.23,67.93
215234,2018-06-29 10:36:58.062500,-149.99,67.93
215235,2018-06-29 10:36:58.093750,-120.93,67.93
215236,2018-06-29 10:36:58.125000,-81.21,67.93
215237,2018-06-29 10:36:58.156250,-46.87,67.93
215238,2018-06-29 10:36:58.187500,-22.51,67.93
215239,2018-06-29 10:36:58.218750,-7.55,67.93
215240,2018-06-29 10:36:58.250000,7.5,67.93
215241,2018-06-29 10:36:58.281250,20.28,67.93
215242,2018-06-29 10:36:58.312500,27.44,67.93
215243,2018-06-29 10:36:58.343750,29.91,67.93
215244,2018-06-29 10:36:58.375000,31.06,67.93
215245,2018-06-29 10:36:58.406250,36.25,67.93
215246,2018-06-29 10:36:58.437500,42.42,67.93
215247,2018-06-29 10:36:58.468750,44.11,67.93
215248,2018-06-29 10:36:58.500000,31.58,67.93
215249,2018-06-29 10:36:58.531250,7.22,68.05
215250,2018-06-29 10:36:58.562500,-22.43,68.05
215251,2018-06-29 10:36:58.593750,-55.0,68.05
215252,2018-06-29 10:36:58.625000,-94.06,68.05
215253,2018-06-29 10:36:58.656250,-138.68,68.05
215254,2018-06-29 10:36:58.687500,-175.34,68.05
215255,2018-06-29 10:36:58.718750,-196.65,68.05
215256,2018-06-29 10:36:58.750000,-172.61,68.05
215257,2018-06-29 10:36:58.781250,-100.95,68.05
215258,2018-06-29 10:36:58.812500,-37.0,68.05
215259,2018-06-29 10:36:58.843750,6.69,68.05
215260,2018-06-29 10:36:58.875000,44.61,68.05
215261,2018-06-29 10:36:58.906250,73.64,68.05
215262,2018-06-29 10:36:58.937500,82.77,68.05
215263,2018-06-29 10:36:58.968750,84.12,68.05
215264,2018-06-29 10:36:59.000000,88.83,68.05
215265,2018-06-29 10:36:59.031250,98.95,68.05
215266,2018-06-29 10:36:59.062500,103.29,68.05
215267,2018-06-29 10:36:59.093750,101.01,68.05
215268,2018-06-29 10:36:59.125000,102.08,68.05
215269,2018-06-29 10:36:59.156250,105.99,68.05
215270,2018-06-29 10:36:59.187500,108.63,68.05
215271,2018-06-29 10:36:59.218750,108.27,68.05
215272,2018-06-29 10:36:59.250000,103.62,68.05
215273,2018-06-29 10:36:59.281250,92.36,68.05
215274,2018-06-29 10:36:59.312500,75.38,68.05
215275,2018-06-29 10:36:59.343750,52.55,68.05
215276,2018-06-29 10:36:59.375000,23.06,68.05
215277,2018-06-29 10:36:59.406250,-14.63,68.05
215278,2018-06-29 10:36:59.437500,-61.24,68.05
215279,2018-06-29 10:36:59.468750,-113.29,68.05
215280,2018-06-29 10:36:59.500000,-164.04,68.05
215281,2018-06-29 10:36:59.531250,-203.7,68.17
215282,2018-06-29 10:36:59.562500,-222.25,68.17
215283,2018-06-29 10:36:59.593750,-212.52,68.17
215284,2018-06-29 10:36:59.625000,-174.48,68.17
215285,2018-06-29 10:36:59.656250,-115.99,68.17
215286,2018-06-29 10:36:59.687500,-49.67,68.17
215287,2018-06-29 10:36:59.718750,11.58,68.17
215288,2018-06-29 10:36:59.750000,59.76,68.17
215289,2018-06-29 10:36:59.781250,92.64,68.17
215290,2018-06-29 10:36:59.812500,111.05,68.17
215291,2018-06-29 10:36:59.843750,115.6,68.17
215292,2018-06-29 10:36:59.875000,106.43,68.17
215293,2018-06-29 10:36:59.906250,85.5,68.17
215294,2018-06-29 10:36:59.937500,58.05,68.17
215295,2018-06-29 10:36:59.968750,29.31,68.17
215296,2018-06-29 10:37:00.000000,0.41,68.17
215297,2018-06-29 10:37:00.031250,-29.38,68.17
215298,2018-06-29 10:37:00.062500,-55.55,68.17
215299,2018-06-29 10:37:00.093750,-67.08,68.17
215300,2018-06-29 10:37:00.125000,-55.82,68.17
215301,2018-06-29 10:37:00.156250,-26.19,68.17
215302,2018-06-29 10:37:00.187500,8.56,68.17
215303,2018-06-29 10:37:00.218750,38.22,68.17
215304,2018-06-29 10:37:00.250000,59.32,68.17
215305,2018-06-29 10:37:00.281250,71.03,68.17
215306,2018-06-29 10:37:00.312500,73.76,68.17
215307,2018-06-29 10:37:00.343750,70.18,68.17
215308,2018-06-29 10:37:00.375000,63.4,68.17
215309,2018-06-29 10:37:00.406250,55.29,68.17
215310,2018-06-29 10:37:00.437500,47.02,68.17
215311,2018-06-29 10:37:00.468750,39.56,68.17
215312,2018-06-29 10:37:00.500000,33.28,68.17
215313,2018-06-29 10:37:00.531250,27.88,68.25
215314,2018-06-29 10:37:00.562500,22.75,68.25
215315,2018-06-29 10:37:00.593750,17.66,68.25
215316,2018-06-29 10:37:00.625000,13.21,68.25
215317,2018-06-29 10:37:00.656250,9.62,68.25
215318,2018-06-29 10:37:00.687500,4.92,68.25
215319,2018-06-29 10:37:00.718750,-3.0,68.25
215320,2018-06-29 10:37:00.750000,-12.27,68.25
215321,2018-06-29 10:37:00.781250,-18.77,68.25
215322,2018-06-29 10:37:00.812500,-21.82,68.25
215323,2018-06-29 10:37:00.843750,-24.53,68.25
215324,2018-06-29 10:37:00.875000,-28.66,68.25
215325,2018-06-29 10:37:00.906250,-32.81,68.25
215326,2018-06-29 10:37:00.937500,-35.96,68.25
215327,2018-06-29 10:37:00.968750,-39.65,68.25
215328,2018-06-29 10:37:01.000000,-45.83,68.25
215329,2018-06-29 10:37:01.031250,-54.39,68.25
215330,2018-06-29 10:37:01.062500,-61.4,68.25
215331,2018-06-29 10:37:01.093750,-59.68,68.25
215332,2018-06-29 10:37:01.125000,-44.99,68.25
215333,2018-06-29 10:37:01.156250,-21.74,68.25
215334,2018-06-29 10:37:01.187500,1.07,68.25
215335,2018-06-29 10:37:01.218750,18.67,68.25
215336,2018-06-29 10:37:01.250000,31.3,68.25
215337,2018-06-29 10:37:01.281250,39.34,68.25
215338,2018-06-29 10:37:01.312500,42.98,68.25
215339,2018-06-29 10:37:01.343750,44.8,68.25
215340,2018-06-29 10:37:01.375000,48.07,68.25
215341,2018-06-29 10:37:01.406250,52.6,68.25
215342,2018-06-29 10:37:01.437500,56.01,68.25
215343,2018-06-29 10:37:01.468750,58.67,68.25
215344,2018-06-29 10:37:01.500000,61.78,68.25
215345,2018-06-29 10:37:01.531250,62.81,68.28
215346,2018-06-29 10:37:01.562500,59.25,68.28
215347,2018-06-29 10:37:01.593750,53.16,68.28
215348,2018-06-29 10:37:01.625000,46.77,68.28
215349,2018-06-29 10:37:01.656250,39.17,68.28
215350,2018-06-29 10:37:01.687500,30.38,68.28
215351,2018-06-29 10:37:01.718750,22.5,68.28
215352,2018-06-29 10:37:01.750000,15.43,68.28
215353,2018-06-29 10:37:01.781250,7.35,68.28
215354,2018-06-29 10:37:01.812500,-1.18,68.28
215355,2018-06-29 10:37:01.843750,-7.55,68.28
215356,2018-06-29 10:37:01.875000,-10.55,68.28
215357,2018-06-29 10:37:01.906250,-10.28,68.28
215358,2018-06-29 10:37:01.937500,-5.91,68.28
215359,2018-06-29 10:37:01.968750,1.4,68.28
215360,2018-06-29 10:37:02.000000,5.56,68.28
215361,2018-06-29 10:37:02.031250,3.45,68.28
215362,2018-06-29 10:37:02.062500,2.14,68.28
215363,2018-06-29 10:37:02.093750,8.12,68.28
215364,2018-06-29 10:37:02.125000,16.07,68.28
215365,2018-06-29 10:37:02.156250,18.13,68.28
215366,2018-06-29 10:37:02.187500,15.42,68.28
215367,2018-06-29 10:37:02.218750,12.3,68.28
215368,2018-06-29 10:37:02.250000,8.95,68.28
215369,2018-06-29 10:37:02.281250,4.66,68.28
215370,2018-06-29 10:37:02.312500,-0.7,68.28
215371,2018-06-29 10:37:02.343750,-9.4,68.28
215372,2018-06-29 10:37:02.375000,-23.39,68.28
215373,2018-06-29 10:37:02.406250,-39.82,68.28
215374,2018-06-29 10:37:02.437500,-53.25,68.28
215375,2018-06-29 10:37:02.468750,-61.62,68.28
215376,2018-06-29 10:37:02.500000,-66.86,68.28
215377,2018-06-29 10:37:02.531250,-71.1,68.32
215378,2018-06-29 10:37:02.562500,-75.8,68.32
215379,2018-06-29 10:37:02.593750,-83.21,68.32
215380,2018-06-29 10:37:02.625000,-94.08,68.32
215381,2018-06-29 10:37:02.656250,-104.35,68.32
215382,2018-06-29 10:37:02.687500,-106.46,68.32
215383,2018-06-29 10:37:02.718750,-94.59,68.32
215384,2018-06-29 10:37:02.750000,-70.07,68.32
215385,2018-06-29 10:37:02.781250,-42.3,68.32
215386,2018-06-29 10:37:02.812500,-21.48,68.32
215387,2018-06-29 10:37:02.843750,-9.63,68.32
215388,2018-06-29 10:37:02.875000,-1.99,68.32
215389,2018-06-29 10:37:02.906250,3.25,68.32
215390,2018-06-29 10:37:02.937500,2.28,68.32
215391,2018-06-29 10:37:02.968750,-6.28,68.32
215392,2018-06-29 10:37:03.000000,-17.05,68.32
215393,2018-06-29 10:37:03.031250,-21.08,68.32
215394,2018-06-29 10:37:03.062500,-10.6,68.32
215395,2018-06-29 10:37:03.093750,14.73,68.32
215396,2018-06-29 10:37:03.125000,44.82,68.32
215397,2018-06-29 10:37:03.156250,67.6,68.32
215398,2018-06-29 10:37:03.187500,79.1,68.32
215399,2018-06-29 10:37:03.218750,79.29,68.32
215400,2018-06-29 10:37:03.250000,64.94,68.32
215401,2018-06-29 10:37:03.281250,35.04,68.32
215402,2018-06-29 10:37:03.312500,-4.38,68.32
215403,2018-06-29 10:37:03.343750,-46.88,68.32
215404,2018-06-29 10:37:03.375000,-89.36,68.32
215405,2018-06-29 10:37:03.406250,-125.86,68.32
215406,2018-06-29 10:37:03.437500,-148.17,68.32
215407,2018-06-29 10:37:03.468750,-157.57,68.32
215408,2018-06-29 10:37:03.500000,-163.97,68.32
215409,2018-06-29 10:37:03.531250,-170.82,68.32
215410,2018-06-29 10:37:03.562500,-173.28,68.32
215411,2018-06-29 10:37:03.593750,-169.28,68.32
215412,2018-06-29 10:37:03.625000,-158.65,68.32
215413,2018-06-29 10:37:03.656250,-137.07,68.32
215414,2018-06-29 10:37:03.687500,-103.64,68.32
215415,2018-06-29 10:37:03.718750,-65.32,68.32
215416,2018-06-29 10:37:03.750000,-26.73,68.32
215417,2018-06-29 10:37:03.781250,12.61,68.32
215418,2018-06-29 10:37:03.812500,48.69,68.32
215419,2018-06-29 10:37:03.843750,71.93,68.32
215420,2018-06-29 10:37:03.875000,78.21,68.32
215421,2018-06-29 10:37:03.906250,73.54,68.32
215422,2018-06-29 10:37:03.937500,65.88,68.32
215423,2018-06-29 10:37:03.968750,58.16,68.32
215424,2018-06-29 10:37:04.000000,51.38,68.32
215425,2018-06-29 10:37:04.031250,47.54,68.32
215426,2018-06-29 10:37:04.062500,45.81,68.32
215427,2018-06-29 10:37:04.093750,42.24,68.32
215428,2018-06-29 10:37:04.125000,35.82,68.32
215429,2018-06-29 10:37:04.156250,29.56,68.32
215430,2018-06-29 10:37:04.187500,25.59,68.32
215431,2018-06-29 10:37:04.218750,22.89,68.32
215432,2018-06-29 10:37:04.250000,19.35,68.32
215433,2018-06-29 10:37:04.281250,13.83,68.32
215434,2018-06-29 10:37:04.312500,7.03,68.32
215435,2018-06-29 10:37:04.343750,0.84,68.32
215436,2018-06-29 10:37:04.375000,-4.41,68.32
215437,2018-06-29 10:37:04.406250,-10.75,68.32
215438,2018-06-29 10:37:04.437500,-19.22,68.32
215439,2018-06-29 10:37:04.468750,-28.23,68.32
215440,2018-06-29 10:37:04.500000,-36.74,68.32
215441,2018-06-29 10:37:04.531250,-46.44,68.32
215442,2018-06-29 10:37:04.562500,-59.82,68.32
215443,2018-06-29 10:37:04.593750,-76.43,68.32
215444,2018-06-29 10:37:04.625000,-89.28,68.32
215445,2018-06-29 10:37:04.656250,-86.63,68.32
215446,2018-06-29 10:37:04.687500,-63.44,68.32
215447,2018-06-29 10:37:04.718750,-28.66,68.32
215448,2018-06-29 10:37:04.750000,4.2,68.32
215449,2018-06-29 10:37:04.781250,29.84,68.32
215450,2018-06-29 10:37:04.812500,50.35,68.32
215451,2018-06-29 10:37:04.843750,66.99,68.32
215452,2018-06-29 10:37:04.875000,78.17,68.32
215453,2018-06-29 10:37:04.906250,83.02,68.32
215454,2018-06-29 10:37:04.937500,83.37,68.32
215455,2018-06-29 10:37:04.968750,82.06,68.32
215456,2018-06-29 10:37:05.000000,80.93,68.32
215457,2018-06-29 10:37:05.031250,80.96,68.32
215458,2018-06-29 10:37:05.062500,81.99,68.32
215459,2018-06-29 10:37:05.093750,81.02,68.32
215460,2018-06-29 10:37:05.125000,74.44,68.32
215461,2018-06-29 10:37:05.156250,63.31,68.32
215462,2018-06-29 10:37:05.187500,52.51,68.32
215463,2018-06-29 10:37:05.218750,43.92,68.32
215464,2018-06-29 10:37:05.250000,35.26,68.32
215465,2018-06-29 10:37:05.281250,25.5,68.32
215466,2018-06-29 10:37:05.312500,16.66,68.32
215467,2018-06-29 10:37:05.343750,9.78,68.32
215468,2018-06-29 10:37:05.375000,2.87,68.32
215469,2018-06-29 10:37:05.406250,-6.1,68.32
215470,2018-06-29 10:37:05.437500,-16.04,68.32
215471,2018-06-29 10:37:05.468750,-24.47,68.32
215472,2018-06-29 10:37:05.500000,-31.77,68.32
215473,2018-06-29 10:37:05.531250,-41.15,68.32
215474,2018-06-29 10:37:05.562500,-54.22,68.32
215475,2018-06-29 10:37:05.593750,-66.91,68.32
215476,2018-06-29 10:37:05.625000,-69.54,68.32
215477,2018-06-29 10:37:05.656250,-53.78,68.32
215478,2018-06-29 10:37:05.687500,-22.25,68.32
215479,2018-06-29 10:37:05.718750,12.34,68.32
215480,2018-06-29 10:37:05.750000,39.43,68.32
215481,2018-06-29 10:37:05.781250,56.93,68.32
215482,2018-06-29 10:37:05.812500,66.15,68.32
215483,2018-06-29 10:37:05.843750,67.95,68.32
215484,2018-06-29 10:37:05.875000,65.17,68.32
215485,2018-06-29 10:37:05.906250,62.75,68.32
215486,2018-06-29 10:37:05.937500,63.31,68.32
215487,2018-06-29 10:37:05.968750,65.4,68.32
215488,2018-06-29 10:37:06.000000,66.64,68.32
215489,2018-06-29 10:37:06.031250,66.24,68.32
215490,2018-06-29 10:37:06.062500,63.26,68.32
215491,2018-06-29 10:37:06.093750,56.03,68.32
215492,2018-06-29 10:37:06.125000,45.34,68.32
215493,2018-06-29 10:37:06.156250,34.79,68.32
215494,2018-06-29 10:37:06.187500,26.3,68.32
215495,2018-06-29 10:37:06.218750,18.61,68.32
215496,2018-06-29 10:37:06.250000,11.01,68.32
215497,2018-06-29 10:37:06.281250,3.94,68.32
215498,2018-06-29 10:37:06.312500,-3.58,68.32
215499,2018-06-29 10:37:06.343750,-12.89,68.32
215500,2018-06-29 10:37:06.375000,-22.73,68.32
215501,2018-06-29 10:37:06.406250,-30.42,68.32
215502,2018-06-29 10:37:06.437500,-35.41,68.32
215503,2018-06-29 10:37:06.468750,-40.39,68.32
215504,2018-06-29 10:37:06.500000,-48.8,68.32
215505,2018-06-29 10:37:06.531250,-59.05,68.3
215506,2018-06-29 10:37:06.562500,-61.37,68.3
215507,2018-06-29 10:37:06.593750,-45.94,68.3
215508,2018-06-29 10:37:06.625000,-15.04,68.3
215509,2018-06-29 10:37:06.656250,18.9,68.3
215510,2018-06-29 10:37:06.687500,46.94,68.3
215511,2018-06-29 10:37:06.718750,68.96,68.3
215512,2018-06-29 10:37:06.750000,87.69,68.3
215513,2018-06-29 10:37:06.781250,103.91,68.3
215514,2018-06-29 10:37:06.812500,116.87,68.3
215515,2018-06-29 10:37:06.843750,126.65,68.3
215516,2018-06-29 10:37:06.875000,135.21,68.3
215517,2018-06-29 10:37:06.906250,144.3,68.3
215518,2018-06-29 10:37:06.937500,151.83,68.3
215519,2018-06-29 10:37:06.968750,153.72,68.3
215520,2018-06-29 10:37:07.000000,150.44,68.3
215521,2018-06-29 10:37:07.031250,148.24,68.3
215522,2018-06-29 10:37:07.062500,153.01,68.3
215523,2018-06-29 10:37:07.093750,165.23,68.3
215524,2018-06-29 10:37:07.125000,179.72,68.3
215525,2018-06-29 10:37:07.156250,188.24,68.3
215526,2018-06-29 10:37:07.187500,185.27,68.3
215527,2018-06-29 10:37:07.218750,174.17,68.3
215528,2018-06-29 10:37:07.250000,164.8,68.3
215529,2018-06-29 10:37:07.281250,160.8,68.3
215530,2018-06-29 10:37:07.312500,151.49,68.3
215531,2018-06-29 10:37:07.343750,122.73,68.3
215532,2018-06-29 10:37:07.375000,74.25,68.3
215533,2018-06-29 10:37:07.406250,19.39,68.3
215534,2018-06-29 10:37:07.437500,-32.74,68.3
215535,2018-06-29 10:37:07.468750,-86.86,68.3
215536,2018-06-29 10:37:07.500000,-150.17,68.3
215537,2018-06-29 10:37:07.531250,-219.28,68.23
215538,2018-06-29 10:37:07.562500,-284.2,68.23
215539,2018-06-29 10:37:07.593750,-340.21,68.23
215540,2018-06-29 10:37:07.625000,-392.88,68.23
215541,2018-06-29 10:37:07.656250,-455.89,68.23
215542,2018-06-29 10:37:07.687500,-529.79,68.23
215543,2018-06-29 10:37:07.718750,-574.79,68.23
215544,2018-06-29 10:37:07.750000,-538.72,68.23
215545,2018-06-29 10:37:07.781250,-423.91,68.23
215546,2018-06-29 10:37:07.812500,-289.37,68.23
215547,2018-06-29 10:37:07.843750,-185.27,68.23
215548,2018-06-29 10:37:07.875000,-122.0,68.23
215549,2018-06-29 10:37:07.906250,-90.73,68.23
215550,2018-06-29 10:37:07.937500,-75.61,68.23
215551,2018-06-29 10:37:07.968750,-58.01,68.23
215552,2018-06-29 10:37:08.000000,-32.26,68.23
215553,2018-06-29 10:37:08.031250,-8.46,68.23
215554,2018-06-29 10:37:08.062500,5.14,68.23
215555,2018-06-29 10:37:08.093750,12.73,68.23
215556,2018-06-29 10:37:08.125000,20.96,68.23
215557,2018-06-29 10:37:08.156250,27.94,68.23
215558,2018-06-29 10:37:08.187500,27.79,68.23
215559,2018-06-29 10:37:08.218750,21.08,68.23
215560,2018-06-29 10:37:08.250000,13.32,68.23
215561,2018-06-29 10:37:08.281250,6.06,68.23
215562,2018-06-29 10:37:08.312500,-4.65,68.23
215563,2018-06-29 10:37:08.343750,-20.02,68.23
215564,2018-06-29 10:37:08.375000,-31.64,68.23
215565,2018-06-29 10:37:08.406250,-27.21,68.23
215566,2018-06-29 10:37:08.437500,-4.31,68.23
215567,2018-06-29 10:37:08.468750,25.2,68.23
215568,2018-06-29 10:37:08.500000,48.2,68.23
215569,2018-06-29 10:37:08.531250,62.34,68.15
215570,2018-06-29 10:37:08.562500,72.11,68.15
215571,2018-06-29 10:37:08.593750,79.98,68.15
215572,2018-06-29 10:37:08.625000,85.46,68.15
215573,2018-06-29 10:37:08.656250,88.16,68.15
215574,2018-06-29 10:37:08.687500,88.39,68.15
215575,2018-06-29 10:37:08.718750,87.3,68.15
215576,2018-06-29 10:37:08.750000,86.73,68.15
215577,2018-06-29 10:37:08.781250,87.49,68.15
215578,2018-06-29 10:37:08.812500,87.69,68.15
215579,2018-06-29 10:37:08.843750,84.57,68.15
215580,2018-06-29 10:37:08.875000,77.84,68.15
215581,2018-06-29 10:37:08.906250,69.83,68.15
215582,2018-06-29 10:37:08.937500,62.1,68.15
215583,2018-06-29 10:37:08.968750,54.18,68.15
215584,2018-06-29 10:37:09.000000,45.47,68.15
215585,2018-06-29 10:37:09.031250,36.33,68.15
215586,2018-06-29 10:37:09.062500,27.0,68.15
215587,2018-06-29 10:37:09.093750,16.95,68.15
215588,2018-06-29 10:37:09.125000,5.97,68.15
215589,2018-06-29 10:37:09.156250,-5.08,68.15
215590,2018-06-29 10:37:09.187500,-15.51,68.15
215591,2018-06-29 10:37:09.218750,-26.16,68.15
215592,2018-06-29 10:37:09.250000,-38.39,68.15
215593,2018-06-29 10:37:09.281250,-52.22,68.15
215594,2018-06-29 10:37:09.312500,-63.87,68.15
215595,2018-06-29 10:37:09.343750,-65.12,68.15
215596,2018-06-29 10:37:09.375000,-50.58,68.15
215597,2018-06-29 10:37:09.406250,-25.7,68.15
215598,2018-06-29 10:37:09.437500,-1.56,68.15
215599,2018-06-29 10:37:09.468750,16.93,68.15
215600,2018-06-29 10:37:09.500000,31.81,68.15
215601,2018-06-29 10:37:09.531250,45.1,68.08
215602,2018-06-29 10:37:09.562500,55.7,68.08
215603,2018-06-29 10:37:09.593750,61.53,68.08
215604,2018-06-29 10:37:09.625000,62.93,68.08
215605,2018-06-29 10:37:09.656250,63.37,68.08
215606,2018-06-29 10:37:09.687500,65.2,68.08
215607,2018-06-29 10:37:09.718750,67.06,68.08
215608,2018-06-29 10:37:09.750000,67.21,68.08
215609,2018-06-29 10:37:09.781250,65.62,68.08
215610,2018-06-29 10:37:09.812500,61.95,68.08
215611,2018-06-29 10:37:09.843750,55.36,68.08
215612,2018-06-29 10:37:09.875000,47.06,68.08
215613,2018-06-29 10:37:09.906250,39.73,68.08
215614,2018-06-29 10:37:09.937500,33.7,68.08
215615,2018-06-29 10:37:09.968750,26.45,68.08
215616,2018-06-29 10:37:10.000000,16.96,68.08
215617,2018-06-29 10:37:10.031250,7.6,68.08
215618,2018-06-29 10:37:10.062500,0.38,68.08
215619,2018-06-29 10:37:10.093750,-6.33,68.08
215620,2018-06-29 10:37:10.125000,-15.24,68.08
215621,2018-06-29 10:37:10.156250,-26.33,68.08
215622,2018-06-29 10:37:10.187500,-37.16,68.08
215623,2018-06-29 10:37:10.218750,-46.16,68.08
215624,2018-06-29 10:37:10.250000,-54.67,68.08
215625,2018-06-29 10:37:10.281250,-65.86,68.08
215626,2018-06-29 10:37:10.312500,-80.32,68.08
215627,2018-06-29 10:37:10.343750,-90.5,68.08
215628,2018-06-29 10:37:10.375000,-83.82,68.08
215629,2018-06-29 10:37:10.406250,-56.92,68.08
215630,2018-06-29 10:37:10.437500,-21.82,68.08
215631,2018-06-29 10:37:10.468750,7.25,68.08
215632,2018-06-29 10:37:10.500000,26.59,68.08
215633,2018-06-29 10:37:10.531250,39.4,68.0
215634,2018-06-29 10:37:10.562500,48.12,68.0
215635,2018-06-29 10:37:10.593750,53.65,68.0
215636,2018-06-29 10:37:10.625000,56.52,68.0
215637,2018-06-29 10:37:10.656250,57.22,68.0
215638,2018-06-29 10:37:10.687500,56.73,68.0
215639,2018-06-29 10:37:10.718750,55.79,68.0
215640,2018-06-29 10:37:10.750000,54.61,68.0
215641,2018-06-29 10:37:10.781250,53.41,68.0
215642,2018-06-29 10:37:10.812500,51.6,68.0
215643,2018-06-29 10:37:10.843750,47.2,68.0
215644,2018-06-29 10:37:10.875000,39.5,68.0
215645,2018-06-29 10:37:10.906250,30.62,68.0
215646,2018-06-29 10:37:10.937500,22.62,68.0
215647,2018-06-29 10:37:10.968750,15.24,68.0
215648,2018-06-29 10:37:11.000000,7.4,68.0
215649,2018-06-29 10:37:11.031250,-0.83,68.0
215650,2018-06-29 10:37:11.062500,-8.03,68.0
215651,2018-06-29 10:37:11.093750,-13.45,68.0
215652,2018-06-29 10:37:11.125000,-19.11,68.0
215653,2018-06-29 10:37:11.156250,-27.51,68.0
215654,2018-06-29 10:37:11.187500,-38.06,68.0
215655,2018-06-29 10:37:11.218750,-48.01,68.0
215656,2018-06-29 10:37:11.250000,-55.9,68.0
215657,2018-06-29 10:37:11.281250,-63.27,68.0
215658,2018-06-29 10:37:11.312500,-73.56,68.0
215659,2018-06-29 10:37:11.343750,-86.12,68.0
215660,2018-06-29 10:37:11.375000,-91.11,68.0
215661,2018-06-29 10:37:11.406250,-77.21,68.0
215662,2018-06-29 10:37:11.437500,-45.88,68.0
215663,2018-06-29 10:37:11.468750,-10.78,68.0
215664,2018-06-29 10:37:11.500000,16.65,68.0
215665,2018-06-29 10:37:11.531250,34.89,67.88
215666,2018-06-29 10:37:11.562500,46.72,67.88
215667,2018-06-29 10:37:11.593750,53.34,67.88
215668,2018-06-29 10:37:11.625000,55.4,67.88
215669,2018-06-29 10:37:11.656250,55.42,67.88
215670,2018-06-29 10:37:11.687500,56.09,67.88
215671,2018-06-29 10:37:11.718750,57.51,67.88
215672,2018-06-29 10:37:11.750000,58.2,67.88
215673,2018-06-29 10:37:11.781250,57.57,67.88
215674,2018-06-29 10:37:11.812500,55.38,67.88
215675,2018-06-29 10:37:11.843750,50.24,67.88
215676,2018-06-29 10:37:11.875000,41.5,67.88
215677,2018-06-29 10:37:11.906250,31.64,67.88
215678,2018-06-29 10:37:11.937500,23.27,67.88
215679,2018-06-29 10:37:11.968750,15.46,67.88
215680,2018-06-29 10:37:12.000000,6.13,67.88
215681,2018-06-29 10:37:12.031250,-3.82,67.88
215682,2018-06-29 10:37:12.062500,-11.69,67.88
215683,2018-06-29 10:37:12.093750,-17.1,67.88
215684,2018-06-29 10:37:12.125000,-22.31,67.88
215685,2018-06-29 10:37:12.156250,-28.85,67.88
215686,2018-06-29 10:37:12.187500,-35.7,67.88
215687,2018-06-29 10:37:12.218750,-41.79,67.88
215688,2018-06-29 10:37:12.250000,-48.68,67.88
215689,2018-06-29 10:37:12.281250,-59.65,67.88
215690,2018-06-29 10:37:12.312500,-75.68,67.88
215691,2018-06-29 10:37:12.343750,-90.62,67.88
215692,2018-06-29 10:37:12.375000,-91.86,67.88
215693,2018-06-29 10:37:12.406250,-71.93,67.88
215694,2018-06-29 10:37:12.437500,-38.65,67.88
215695,2018-06-29 10:37:12.468750,-7.07,67.88
215696,2018-06-29 10:37:12.500000,15.62,67.88
215697,2018-06-29 10:37:12.531250,31.24,67.77
215698,2018-06-29 10:37:12.562500,42.35,67.77
215699,2018-06-29 10:37:12.593750,49.64,67.77
215700,2018-06-29 10:37:12.625000,53.7,67.77
215701,2018-06-29 10:37:12.656250,54.94,67.77
215702,2018-06-29 10:37:12.687500,53.96,67.77
215703,2018-06-29 10:37:12.718750,52.75,67.77
215704,2018-06-29 10:37:12.750000,53.24,67.77
215705,2018-06-29 10:37:12.781250,54.9,67.77
215706,2018-06-29 10:37:12.812500,55.2,67.77
215707,2018-06-29 10:37:12.843750,52.19,67.77
215708,2018-06-29 10:37:12.875000,46.11,67.77
215709,2018-06-29 10:37:12.906250,38.99,67.77
215710,2018-06-29 10:37:12.937500,32.75,67.77
215711,2018-06-29 10:37:12.968750,27.2,67.77
215712,2018-06-29 10:37:13.000000,20.62,67.77
215713,2018-06-29 10:37:13.031250,12.59,67.77
215714,2018-06-29 10:37:13.062500,4.45,67.77
215715,2018-06-29 10:37:13.093750,-3.41,67.77
215716,2018-06-29 10:37:13.125000,-11.86,67.77
215717,2018-06-29 10:37:13.156250,-21.08,67.77
215718,2018-06-29 10:37:13.187500,-29.84,67.77
215719,2018-06-29 10:37:13.218750,-37.47,67.77
215720,2018-06-29 10:37:13.250000,-44.45,67.77
215721,2018-06-29 10:37:13.281250,-51.25,67.77
215722,2018-06-29 10:37:13.312500,-58.35,67.77
215723,2018-06-29 10:37:13.343750,-66.71,67.77
215724,2018-06-29 10:37:13.375000,-73.52,67.77
215725,2018-06-29 10:37:13.406250,-68.15,67.77
215726,2018-06-29 10:37:13.437500,-42.2,67.77
215727,2018-06-29 10:37:13.468750,-3.23,67.77
215728,2018-06-29 10:37:13.500000,29.62,67.77
215729,2018-06-29 10:37:13.531250,44.51,67.63
215730,2018-06-29 10:37:13.562500,43.06,67.63
215731,2018-06-29 10:37:13.593750,34.17,67.63
215732,2018-06-29 10:37:13.625000,30.12,67.63
215733,2018-06-29 10:37:13.656250,33.46,67.63
215734,2018-06-29 10:37:13.687500,26.31,67.63
215735,2018-06-29 10:37:13.718750,-8.06,67.63
215736,2018-06-29 10:37:13.750000,-50.2,67.63
215737,2018-06-29 10:37:13.781250,-64.18,67.63
215738,2018-06-29 10:37:13.812500,-41.89,67.63
215739,2018-06-29 10:37:13.843750,-3.48,67.63
215740,2018-06-29 10:37:13.875000,27.39,67.63
215741,2018-06-29 10:37:13.906250,34.1,67.63
215742,2018-06-29 10:37:13.937500,15.51,67.63
215743,2018-06-29 10:37:13.968750,-1.41,67.63
215744,2018-06-29 10:37:14.000000,10.72,67.63
215745,2018-06-29 10:37:14.031250,50.18,67.63
215746,2018-06-29 10:37:14.062500,87.92,67.63
215747,2018-06-29 10:37:14.093750,85.87,67.63
215748,2018-06-29 10:37:14.125000,47.67,67.63
215749,2018-06-29 10:37:14.156250,-6.56,67.63
215750,2018-06-29 10:37:14.187500,-57.6,67.63
215751,2018-06-29 10:37:14.218750,-96.04,67.63
215752,2018-06-29 10:37:14.250000,-114.23,67.63
215753,2018-06-29 10:37:14.281250,-118.77,67.63
215754,2018-06-29 10:37:14.312500,-125.8,67.63
215755,2018-06-29 10:37:14.343750,-134.68,67.63
215756,2018-06-29 10:37:14.375000,-131.8,67.63
215757,2018-06-29 10:37:14.406250,-106.69,67.63
215758,2018-06-29 10:37:14.437500,-64.29,67.63
215759,2018-06-29 10:37:14.468750,-22.59,67.63
215760,2018-06-29 10:37:14.500000,1.1,67.63
215761,2018-06-29 10:37:14.531250,2.95,67.45
215762,2018-06-29 10:37:14.562500,-12.82,67.45
215763,2018-06-29 10:37:14.593750,-40.62,67.45
215764,2018-06-29 10:37:14.625000,-76.33,67.45
215765,2018-06-29 10:37:14.656250,-117.89,67.45
215766,2018-06-29 10:37:14.687500,-154.33,67.45
215767,2018-06-29 10:37:14.718750,-160.29,67.45
215768,2018-06-29 10:37:14.750000,-112.3,67.45
215769,2018-06-29 10:37:14.781250,-19.07,67.45
215770,2018-06-29 10:37:14.812500,80.44,67.45
215771,2018-06-29 10:37:14.843750,151.38,67.45
215772,2018-06-29 10:37:14.875000,184.15,67.45
215773,2018-06-29 10:37:14.906250,186.51,67.45
215774,2018-06-29 10:37:14.937500,170.77,67.45
215775,2018-06-29 10:37:14.968750,149.92,67.45
215776,2018-06-29 10:37:15.000000,131.64,67.45
215777,2018-06-29 10:37:15.031250,114.65,67.45
215778,2018-06-29 10:37:15.062500,94.95,67.45
215779,2018-06-29 10:37:15.093750,72.5,67.45
215780,2018-06-29 10:37:15.125000,50.31,67.45
215781,2018-06-29 10:37:15.156250,30.53,67.45
215782,2018-06-29 10:37:15.187500,12.77,67.45
215783,2018-06-29 10:37:15.218750,-3.5,67.45
215784,2018-06-29 10:37:15.250000,-18.0,67.45
215785,2018-06-29 10:37:15.281250,-31.6,67.45
215786,2018-06-29 10:37:15.312500,-45.64,67.45
215787,2018-06-29 10:37:15.343750,-55.28,67.45
215788,2018-06-29 10:37:15.375000,-50.39,67.45
215789,2018-06-29 10:37:15.406250,-28.47,67.45
215790,2018-06-29 10:37:15.437500,0.45,67.45
215791,2018-06-29 10:37:15.468750,24.87,67.45
215792,2018-06-29 10:37:15.500000,42.41,67.45
215793,2018-06-29 10:37:15.531250,55.07,67.27
215794,2018-06-29 10:37:15.562500,63.91,67.27
215795,2018-06-29 10:37:15.593750,68.22,67.27
215796,2018-06-29 10:37:15.625000,69.13,67.27
215797,2018-06-29 10:37:15.656250,70.48,67.27
215798,2018-06-29 10:37:15.687500,74.51,67.27
215799,2018-06-29 10:37:15.718750,79.85,67.27
215800,2018-06-29 10:37:15.750000,82.27,67.27
215801,2018-06-29 10:37:15.781250,80.53,67.27
215802,2018-06-29 10:37:15.812500,71.68,67.27
215803,2018-06-29 10:37:15.843750,50.84,67.27
215804,2018-06-29 10:37:15.875000,15.55,67.27
215805,2018-06-29 10:37:15.906250,-26.35,67.27
215806,2018-06-29 10:37:15.937500,-60.55,67.27
215807,2018-06-29 10:37:15.968750,-87.06,67.27
215808,2018-06-29 10:37:16.000000,-100.47,67.27
215809,2018-06-29 10:37:16.031250,-102.98,67.27
215810,2018-06-29 10:37:16.062500,-101.88,67.27
215811,2018-06-29 10:37:16.093750,-91.72,67.27
215812,2018-06-29 10:37:16.125000,-67.3,67.27
215813,2018-06-29 10:37:16.156250,-41.32,67.27
215814,2018-06-29 10:37:16.187500,-32.81,67.27
215815,2018-06-29 10:37:16.218750,-43.0,67.27
215816,2018-06-29 10:37:16.250000,-53.57,67.27
215817,2018-06-29 10:37:16.281250,-51.79,67.27
215818,2018-06-29 10:37:16.312500,-45.63,67.27
215819,2018-06-29 10:37:16.343750,-44.95,67.27
215820,2018-06-29 10:37:16.375000,-47.06,67.27
215821,2018-06-29 10:37:16.406250,-37.53,67.27
215822,2018-06-29 10:37:16.437500,-5.94,67.27
215823,2018-06-29 10:37:16.468750,42.6,67.27
215824,2018-06-29 10:37:16.500000,90.66,67.27
215825,2018-06-29 10:37:16.531250,123.59,67.05
215826,2018-06-29 10:37:16.562500,139.35,67.05
215827,2018-06-29 10:37:16.593750,143.01,67.05
215828,2018-06-29 10:37:16.625000,142.52,67.05
215829,2018-06-29 10:37:16.656250,147.03,67.05
215830,2018-06-29 10:37:16.687500,157.14,67.05
215831,2018-06-29 10:37:16.718750,157.65,67.05
215832,2018-06-29 10:37:16.750000,132.01,67.05
215833,2018-06-29 10:37:16.781250,82.21,67.05
215834,2018-06-29 10:37:16.812500,24.8,67.05
215835,2018-06-29 10:37:16.843750,-27.49,67.05
215836,2018-06-29 10:37:16.875000,-70.65,67.05
215837,2018-06-29 10:37:16.906250,-102.6,67.05
215838,2018-06-29 10:37:16.937500,-123.15,67.05
215839,2018-06-29 10:37:16.968750,-138.03,67.05
215840,2018-06-29 10:37:17.000000,-154.23,67.05
215841,2018-06-29 10:37:17.031250,-171.62,67.05
215842,2018-06-29 10:37:17.062500,-184.88,67.05
215843,2018-06-29 10:37:17.093750,-191.55,67.05
215844,2018-06-29 10:37:17.125000,-190.46,67.05
215845,2018-06-29 10:37:17.156250,-175.58,67.05
215846,2018-06-29 10:37:17.187500,-141.59,67.05
215847,2018-06-29 10:37:17.218750,-91.36,67.05
215848,2018-06-29 10:37:17.250000,-31.18,67.05
215849,2018-06-29 10:37:17.281250,33.4,67.05
215850,2018-06-29 10:37:17.312500,93.42,67.05
215851,2018-06-29 10:37:17.343750,138.39,67.05
215852,2018-06-29 10:37:17.375000,163.31,67.05
215853,2018-06-29 10:37:17.406250,168.37,67.05
215854,2018-06-29 10:37:17.437500,155.87,67.05
215855,2018-06-29 10:37:17.468750,131.29,67.05
215856,2018-06-29 10:37:17.500000,102.54,67.05
215857,2018-06-29 10:37:17.531250,76.23,66.82
215858,2018-06-29 10:37:17.562500,56.41,66.82
215859,2018-06-29 10:37:17.593750,44.46,66.82
215860,2018-06-29 10:37:17.625000,38.35,66.82
215861,2018-06-29 10:37:17.656250,32.67,66.82
215862,2018-06-29 10:37:17.687500,21.44,66.82
215863,2018-06-29 10:37:17.718750,3.52,66.82
215864,2018-06-29 10:37:17.750000,-15.21,66.82
215865,2018-06-29 10:37:17.781250,-27.17,66.82
215866,2018-06-29 10:37:17.812500,-31.08,66.82
215867,2018-06-29 10:37:17.843750,-31.72,66.82
215868,2018-06-29 10:37:17.875000,-32.88,66.82
215869,2018-06-29 10:37:17.906250,-34.97,66.82
215870,2018-06-29 10:37:17.937500,-38.87,66.82
215871,2018-06-29 10:37:17.968750,-46.07,66.82
215872,2018-06-29 10:37:18.000000,-56.38,66.82
215873,2018-06-29 10:37:18.031250,-68.38,66.82
215874,2018-06-29 10:37:18.062500,-77.09,66.82
215875,2018-06-29 10:37:18.093750,-72.37,66.82
215876,2018-06-29 10:37:18.125000,-49.85,66.82
215877,2018-06-29 10:37:18.156250,-19.93,66.82
215878,2018-06-29 10:37:18.187500,4.36,66.82
215879,2018-06-29 10:37:18.218750,22.26,66.82
215880,2018-06-29 10:37:18.250000,39.39,66.82
215881,2018-06-29 10:37:18.281250,55.61,66.82
215882,2018-06-29 10:37:18.312500,67.09,66.82
215883,2018-06-29 10:37:18.343750,74.58,66.82
215884,2018-06-29 10:37:18.375000,81.94,66.82
215885,2018-06-29 10:37:18.406250,89.42,66.82
215886,2018-06-29 10:37:18.437500,95.03,66.82
215887,2018-06-29 10:37:18.468750,99.78,66.82
215888,2018-06-29 10:37:18.500000,104.96,66.82
215889,2018-06-29 10:37:18.531250,108.09,66.57
215890,2018-06-29 10:37:18.562500,106.64,66.57
215891,2018-06-29 10:37:18.593750,100.44,66.57
215892,2018-06-29 10:37:18.625000,88.59,66.57
215893,2018-06-29 10:37:18.656250,71.78,66.57
215894,2018-06-29 10:37:18.687500,56.84,66.57
215895,2018-06-29 10:37:18.718750,49.2,66.57
215896,2018-06-29 10:37:18.750000,43.29,66.57
215897,2018-06-29 10:37:18.781250,30.77,66.57
215898,2018-06-29 10:37:18.812500,12.58,66.57
215899,2018-06-29 10:37:18.843750,-7.08,66.57
215900,2018-06-29 10:37:18.875000,-29.6,66.57
215901,2018-06-29 10:37:18.906250,-56.54,66.57
215902,2018-06-29 10:37:18.937500,-83.75,66.57
215903,2018-06-29 10:37:18.968750,-108.72,66.57
215904,2018-06-29 10:37:19.000000,-134.48,66.57
215905,2018-06-29 10:37:19.031250,-162.56,66.57
215906,2018-06-29 10:37:19.062500,-191.38,66.57
215907,2018-06-29 10:37:19.093750,-216.2,66.57
215908,2018-06-29 10:37:19.125000,-228.36,66.57
215909,2018-06-29 10:37:19.156250,-220.24,66.57
215910,2018-06-29 10:37:19.187500,-197.41,66.57
215911,2018-06-29 10:37:19.218750,-172.22,66.57
215912,2018-06-29 10:37:19.250000,-149.01,66.57
215913,2018-06-29 10:37:19.281250,-127.11,66.57
215914,2018-06-29 10:37:19.312500,-110.34,66.57
215915,2018-06-29 10:37:19.343750,-105.37,66.57
215916,2018-06-29 10:37:19.375000,-103.5,66.57
215917,2018-06-29 10:37:19.406250,-95.59,66.57
215918,2018-06-29 10:37:19.437500,-81.41,66.57
215919,2018-06-29 10:37:19.468750,-72.65,66.57
215920,2018-06-29 10:37:19.500000,-71.96,66.57
215921,2018-06-29 10:37:19.531250,-71.1,66.33
215922,2018-06-29 10:37:19.562500,-71.02,66.33
215923,2018-06-29 10:37:19.593750,-78.53,66.33
215924,2018-06-29 10:37:19.625000,-104.79,66.33
215925,2018-06-29 10:37:19.656250,-128.61,66.33
215926,2018-06-29 10:37:19.687500,-136.89,66.33
215927,2018-06-29 10:37:19.718750,-133.49,66.33
215928,2018-06-29 10:37:19.750000,-139.58,66.33
215929,2018-06-29 10:37:19.781250,-153.33,66.33
215930,2018-06-29 10:37:19.812500,-146.89,66.33
215931,2018-06-29 10:37:19.843750,-107.57,66.33
215932,2018-06-29 10:37:19.875000,37.39,66.33
215933,2018-06-29 10:37:19.906250,207.97,66.33
215934,2018-06-29 10:37:19.937500,261.73,66.33
215935,2018-06-29 10:37:19.968750,221.1,66.33
215936,2018-06-29 10:37:20.000000,138.62,66.33
215937,2018-06-29 10:37:20.031250,34.91,66.33
215938,2018-06-29 10:37:20.062500,-57.42,66.33
215939,2018-06-29 10:37:20.093750,-104.65,66.33
215940,2018-06-29 10:37:20.125000,-119.66,66.33
215941,2018-06-29 10:37:20.156250,-106.99,66.33
215942,2018-06-29 10:37:20.187500,-66.96,66.33
215943,2018-06-29 10:37:20.218750,8.07,66.33
215944,2018-06-29 10:37:20.250000,94.94,66.33
215945,2018-06-29 10:37:20.281250,164.12,66.33
215946,2018-06-29 10:37:20.312500,202.43,66.33
215947,2018-06-29 10:37:20.343750,220.12,66.33
215948,2018-06-29 10:37:20.375000,233.43,66.33
215949,2018-06-29 10:37:20.406250,243.77,66.33
215950,2018-06-29 10:37:20.437500,250.2,66.33
215951,2018-06-29 10:37:20.468750,250.64,66.33
215952,2018-06-29 10:37:20.500000,250.95,66.33
215953,2018-06-29 10:37:20.531250,249.92,66.1
215954,2018-06-29 10:37:20.562500,240.84,66.1
215955,2018-06-29 10:37:20.593750,217.29,66.1
215956,2018-06-29 10:37:20.625000,181.22,66.1
215957,2018-06-29 10:37:20.656250,149.15,66.1
215958,2018-06-29 10:37:20.687500,144.87,66.1
215959,2018-06-29 10:37:20.718750,169.56,66.1
215960,2018-06-29 10:37:20.750000,186.61,66.1
215961,2018-06-29 10:37:20.781250,167.09,66.1
215962,2018-06-29 10:37:20.812500,125.26,66.1
215963,2018-06-29 10:37:20.843750,82.88,66.1
215964,2018-06-29 10:37:20.875000,40.26,66.1
215965,2018-06-29 10:37:20.906250,1.09,66.1
215966,2018-06-29 10:37:20.937500,-25.5,66.1
215967,2018-06-29 10:37:20.968750,-51.15,66.1
215968,2018-06-29 10:37:21.000000,-93.85,66.1
215969,2018-06-29 10:37:21.031250,-154.19,66.1
215970,2018-06-29 10:37:21.062500,-225.8,66.1
215971,2018-06-29 10:37:21.093750,-290.54,66.1
215972,2018-06-29 10:37:21.125000,-299.35,66.1
215973,2018-06-29 10:37:21.156250,-214.76,66.1
215974,2018-06-29 10:37:21.187500,-78.58,66.1
215975,2018-06-29 10:37:21.218750,20.78,66.1
215976,2018-06-29 10:37:21.250000,47.77,66.1
215977,2018-06-29 10:37:21.281250,33.15,66.1
215978,2018-06-29 10:37:21.312500,8.9,66.1
215979,2018-06-29 10:37:21.343750,-11.53,66.1
215980,2018-06-29 10:37:21.375000,-18.87,66.1
215981,2018-06-29 10:37:21.406250,-18.27,66.1
215982,2018-06-29 10:37:21.437500,-20.02,66.1
215983,2018-06-29 10:37:21.468750,-10.92,66.1
215984,2018-06-29 10:37:21.500000,22.38,66.1
215985,2018-06-29 10:37:21.531250,61.75,65.78
215986,2018-06-29 10:37:21.562500,84.53,65.78
215987,2018-06-29 10:37:21.593750,90.22,65.78
215988,2018-06-29 10:37:21.625000,85.81,65.78
215989,2018-06-29 10:37:21.656250,83.06,65.78
215990,2018-06-29 10:37:21.687500,99.19,65.78
215991,2018-06-29 10:37:21.718750,134.76,65.78
215992,2018-06-29 10:37:21.750000,173.4,65.78
215993,2018-06-29 10:37:21.781250,203.73,65.78
215994,2018-06-29 10:37:21.812500,228.64,65.78
215995,2018-06-29 10:37:21.843750,242.76,65.78
215996,2018-06-29 10:37:21.875000,232.55,65.78
215997,2018-06-29 10:37:21.906250,190.2,65.78
215998,2018-06-29 10:37:21.937500,129.32,65.78
215999,2018-06-29 10:37:21.968750,77.81,65.78
216000,2018-06-29 10:37:22.000000,48.84,65.78
216001,2018-06-29 10:37:22.031250,34.59,65.78
216002,2018-06-29 10:37:22.062500,10.1,65.78
216003,2018-06-29 10:37:22.093750,-12.02,65.78
216004,2018-06-29 10:37:22.125000,-24.64,65.78
216005,2018-06-29 10:37:22.156250,-40.36,65.78
216006,2018-06-29 10:37:22.187500,-93.37,65.78
216007,2018-06-29 10:37:22.218750,-174.46,65.78
216008,2018-06-29 10:37:22.250000,-234.3,65.78
216009,2018-06-29 10:37:22.281250,-280.28,65.78
216010,2018-06-29 10:37:22.312500,-347.47,65.78
216011,2018-06-29 10:37:22.343750,-482.21,65.78
216012,2018-06-29 10:37:22.375000,-607.81,65.78
216013,2018-06-29 10:37:22.406250,-682.74,65.78
216014,2018-06-29 10:37:22.437500,-733.15,65.78
216015,2018-06-29 10:37:22.468750,-840.31,65.78
216016,2018-06-29 10:37:22.500000,-1004.33,65.78
216017,2018-06-29 10:37:22.531250,-1109.07,65.4
216018,2018-06-29 10:37:22.562500,-1104.77,65.4
216019,2018-06-29 10:37:22.593750,-681.09,65.4
216020,2018-06-29 10:37:22.625000,-31.12,65.4
216021,2018-06-29 10:37:22.656250,306.6,65.4
216022,2018-06-29 10:37:22.687500,400.53,65.4
216023,2018-06-29 10:37:22.718750,411.35,65.4
216024,2018-06-29 10:37:22.750000,341.73,65.4
216025,2018-06-29 10:37:22.781250,227.21,65.4
216026,2018-06-29 10:37:22.812500,175.85,65.4
216027,2018-06-29 10:37:22.843750,180.74,65.4
216028,2018-06-29 10:37:22.875000,191.39,65.4
216029,2018-06-29 10:37:22.906250,149.86,65.4
216030,2018-06-29 10:37:22.937500,118.46,65.4
216031,2018-06-29 10:37:22.968750,128.35,65.4
216032,2018-06-29 10:37:23.000000,149.96,65.4
216033,2018-06-29 10:37:23.031250,138.88,65.4
216034,2018-06-29 10:37:23.062500,102.75,65.4
216035,2018-06-29 10:37:23.093750,91.62,65.4
216036,2018-06-29 10:37:23.125000,103.05,65.4
216037,2018-06-29 10:37:23.156250,117.38,65.4
216038,2018-06-29 10:37:23.187500,116.25,65.4
216039,2018-06-29 10:37:23.218750,119.68,65.4
216040,2018-06-29 10:37:23.250000,136.67,65.4
216041,2018-06-29 10:37:23.281250,159.09,65.4
216042,2018-06-29 10:37:23.312500,178.66,65.4
216043,2018-06-29 10:37:23.343750,198.34,65.4
216044,2018-06-29 10:37:23.375000,226.38,65.4
216045,2018-06-29 10:37:23.406250,253.03,65.4
216046,2018-06-29 10:37:23.437500,259.94,65.4
216047,2018-06-29 10:37:23.468750,240.36,65.4
216048,2018-06-29 10:37:23.500000,205.46,65.4
216049,2018-06-29 10:37:23.531250,169.49,65.03
216050,2018-06-29 10:37:23.562500,137.91,65.03
216051,2018-06-29 10:37:23.593750,110.06,65.03
216052,2018-06-29 10:37:23.625000,83.75,65.03
216053,2018-06-29 10:37:23.656250,56.29,65.03
216054,2018-06-29 10:37:23.687500,26.78,65.03
216055,2018-06-29 10:37:23.718750,-2.53,65.03
216056,2018-06-29 10:37:23.750000,-28.93,65.03
216057,2018-06-29 10:37:23.781250,-53.23,65.03
216058,2018-06-29 10:37:23.812500,-78.83,65.03
216059,2018-06-29 10:37:23.843750,-102.58,65.03
216060,2018-06-29 10:37:23.875000,-110.19,65.03
216061,2018-06-29 10:37:23.906250,-89.83,65.03
216062,2018-06-29 10:37:23.937500,-48.41,65.03
216063,2018-06-29 10:37:23.968750,-4.88,65.03
216064,2018-06-29 10:37:24.000000,29.93,65.03
216065,2018-06-29 10:37:24.031250,57.7,65.03
216066,2018-06-29 10:37:24.062500,79.75,65.03
216067,2018-06-29 10:37:24.093750,91.32,65.03
216068,2018-06-29 10:37:24.125000,89.47,65.03
216069,2018-06-29 10:37:24.156250,79.17,65.03
216070,2018-06-29 10:37:24.187500,67.76,65.03
216071,2018-06-29 10:37:24.218750,56.8,65.03
216072,2018-06-29 10:37:24.250000,43.66,65.03
216073,2018-06-29 10:37:24.281250,23.32,65.03
216074,2018-06-29 10:37:24.312500,-6.71,65.03
216075,2018-06-29 10:37:24.343750,-40.82,65.03
216076,2018-06-29 10:37:24.375000,-64.16,65.03
216077,2018-06-29 10:37:24.406250,-68.35,65.03
216078,2018-06-29 10:37:24.437500,-63.31,65.03
216079,2018-06-29 10:37:24.468750,-56.63,65.03
216080,2018-06-29 10:37:24.500000,-37.84,65.03
216081,2018-06-29 10:37:24.531250,5.15,64.75
216082,2018-06-29 10:37:24.562500,57.41,64.75
216083,2018-06-29 10:37:24.593750,96.5,64.75
216084,2018-06-29 10:37:24.625000,113.48,64.75
216085,2018-06-29 10:37:24.656250,117.31,64.75
216086,2018-06-29 10:37:24.687500,113.88,64.75
216087,2018-06-29 10:37:24.718750,97.4,64.75
216088,2018-06-29 10:37:24.750000,72.07,64.75
216089,2018-06-29 10:37:24.781250,48.74,64.75
216090,2018-06-29 10:37:24.812500,56.05,64.75
216091,2018-06-29 10:37:24.843750,87.65,64.75
216092,2018-06-29 10:37:24.875000,133.3,64.75
216093,2018-06-29 10:37:24.906250,188.8,64.75
216094,2018-06-29 10:37:24.937500,268.3,64.75
216095,2018-06-29 10:37:24.968750,365.23,64.75
216096,2018-06-29 10:37:25.000000,431.35,64.75
216097,2018-06-29 10:37:25.031250,456.84,64.75
216098,2018-06-29 10:37:25.062500,462.54,64.75
216099,2018-06-29 10:37:25.093750,506.01,64.75
216100,2018-06-29 10:37:25.125000,560.78,64.75
216101,2018-06-29 10:37:25.156250,591.81,64.75
216102,2018-06-29 10:37:25.187500,539.32,64.75
216103,2018-06-29 10:37:25.218750,186.04,64.75
216104,2018-06-29 10:37:25.250000,-188.57,64.75
216105,2018-06-29 10:37:25.281250,-396.64,64.75
216106,2018-06-29 10:37:25.312500,-498.84,64.75
216107,2018-06-29 10:37:25.343750,-535.46,64.75
216108,2018-06-29 10:37:25.375000,-484.58,64.75
216109,2018-06-29 10:37:25.406250,-401.46,64.75
216110,2018-06-29 10:37:25.437500,-340.83,64.75
216111,2018-06-29 10:37:25.468750,-308.8,64.75
216112,2018-06-29 10:37:25.500000,-276.21,64.75
216113,2018-06-29 10:37:25.531250,-229.5,64.48
216114,2018-06-29 10:37:25.562500,-203.28,64.48
216115,2018-06-29 10:37:25.593750,-198.7,64.48
216116,2018-06-29 10:37:25.625000,-202.41,64.48
216117,2018-06-29 10:37:25.656250,-192.55,64.48
216118,2018-06-29 10:37:25.687500,-188.94,64.48
216119,2018-06-29 10:37:25.718750,-210.59,64.48
216120,2018-06-29 10:37:25.750000,-255.51,64.48
216121,2018-06-29 10:37:25.781250,-307.04,64.48
216122,2018-06-29 10:37:25.812500,-343.84,64.48
216123,2018-06-29 10:37:25.843750,-349.6,64.48
216124,2018-06-29 10:37:25.875000,-309.22,64.48
216125,2018-06-29 10:37:25.906250,-231.26,64.48
216126,2018-06-29 10:37:25.937500,-140.25,64.48
216127,2018-06-29 10:37:25.968750,-61.33,64.48
216128,2018-06-29 10:37:26.000000,-2.38,64.48
216129,2018-06-29 10:37:26.031250,43.14,64.48
216130,2018-06-29 10:37:26.062500,83.88,64.48
216131,2018-06-29 10:37:26.093750,122.75,64.48
216132,2018-06-29 10:37:26.125000,154.51,64.48
216133,2018-06-29 10:37:26.156250,171.31,64.48
216134,2018-06-29 10:37:26.187500,171.1,64.48
216135,2018-06-29 10:37:26.218750,159.26,64.48
216136,2018-06-29 10:37:26.250000,142.74,64.48
216137,2018-06-29 10:37:26.281250,126.06,64.48
216138,2018-06-29 10:37:26.312500,111.36,64.48
216139,2018-06-29 10:37:26.343750,99.17,64.48
216140,2018-06-29 10:37:26.375000,88.89,64.48
216141,2018-06-29 10:37:26.406250,79.81,64.48
216142,2018-06-29 10:37:26.437500,71.27,64.48
216143,2018-06-29 10:37:26.468750,62.53,64.48
216144,2018-06-29 10:37:26.500000,54.01,64.48
216145,2018-06-29 10:37:26.531250,47.52,64.2
216146,2018-06-29 10:37:26.562500,44.7,64.2
216147,2018-06-29 10:37:26.593750,45.51,64.2
216148,2018-06-29 10:37:26.625000,47.47,64.2
216149,2018-06-29 10:37:26.656250,47.53,64.2
216150,2018-06-29 10:37:26.687500,43.56,64.2
216151,2018-06-29 10:37:26.718750,33.22,64.2
216152,2018-06-29 10:37:26.750000,15.49,64.2
216153,2018-06-29 10:37:26.781250,-5.34,64.2
216154,2018-06-29 10:37:26.812500,-21.57,64.2
216155,2018-06-29 10:37:26.843750,-27.56,64.2
216156,2018-06-29 10:37:26.875000,-20.24,64.2
216157,2018-06-29 10:37:26.906250,0.97,64.2
216158,2018-06-29 10:37:26.937500,31.51,64.2
216159,2018-06-29 10:37:26.968750,63.29,64.2
216160,2018-06-29 10:37:27.000000,89.57,64.2
216161,2018-06-29 10:37:27.031250,106.38,64.2
216162,2018-06-29 10:37:27.062500,111.7,64.2
216163,2018-06-29 10:37:27.093750,105.8,64.2
216164,2018-06-29 10:37:27.125000,90.53,64.2
216165,2018-06-29 10:37:27.156250,68.44,64.2
216166,2018-06-29 10:37:27.187500,43.21,64.2
216167,2018-06-29 10:37:27.218750,18.4,64.2
216168,2018-06-29 10:37:27.250000,-4.62,64.2
216169,2018-06-29 10:37:27.281250,-25.16,64.2
216170,2018-06-29 10:37:27.312500,-41.52,64.2
216171,2018-06-29 10:37:27.343750,-53.22,64.2
216172,2018-06-29 10:37:27.375000,-61.87,64.2
216173,2018-06-29 10:37:27.406250,-68.37,64.2
216174,2018-06-29 10:37:27.437500,-72.51,64.2
216175,2018-06-29 10:37:27.468750,-74.96,64.2
216176,2018-06-29 10:37:27.500000,-76.55,64.2
216177,2018-06-29 10:37:27.531250,-76.99,63.9
216178,2018-06-29 10:37:27.562500,-76.57,63.9
216179,2018-06-29 10:37:27.593750,-77.19,63.9
216180,2018-06-29 10:37:27.625000,-80.6,63.9
216181,2018-06-29 10:37:27.656250,-85.41,63.9
216182,2018-06-29 10:37:27.687500,-85.71,63.9
216183,2018-06-29 10:37:27.718750,-75.44,63.9
216184,2018-06-29 10:37:27.750000,-55.78,63.9
216185,2018-06-29 10:37:27.781250,-35.16,63.9
216186,2018-06-29 10:37:27.812500,-20.78,63.9
216187,2018-06-29 10:37:27.843750,-13.25,63.9
216188,2018-06-29 10:37:27.875000,-9.77,63.9
216189,2018-06-29 10:37:27.906250,-9.15,63.9
216190,2018-06-29 10:37:27.937500,-11.89,63.9
216191,2018-06-29 10:37:27.968750,-17.06,63.9
216192,2018-06-29 10:37:28.000000,-21.74,63.9
216193,2018-06-29 10:37:28.031250,-23.94,63.9
216194,2018-06-29 10:37:28.062500,-24.89,63.9
216195,2018-06-29 10:37:28.093750,-28.57,63.9
216196,2018-06-29 10:37:28.125000,-39.56,63.9
216197,2018-06-29 10:37:28.156250,-60.29,63.9
216198,2018-06-29 10:37:28.187500,-90.51,63.9
216199,2018-06-29 10:37:28.218750,-128.94,63.9
216200,2018-06-29 10:37:28.250000,-173.0,63.9
216201,2018-06-29 10:37:28.281250,-215.59,63.9
216202,2018-06-29 10:37:28.312500,-241.94,63.9
216203,2018-06-29 10:37:28.343750,-234.14,63.9
216204,2018-06-29 10:37:28.375000,-185.31,63.9
216205,2018-06-29 10:37:28.406250,-108.98,63.9
216206,2018-06-29 10:37:28.437500,-28.03,63.9
216207,2018-06-29 10:37:28.468750,45.66,63.9
216208,2018-06-29 10:37:28.500000,114.81,63.9
216209,2018-06-29 10:37:28.531250,180.98,63.57
216210,2018-06-29 10:37:28.562500,234.89,63.57
216211,2018-06-29 10:37:28.593750,265.61,63.57
216212,2018-06-29 10:37:28.625000,270.65,63.57
216213,2018-06-29 10:37:28.656250,251.97,63.57
216214,2018-06-29 10:37:28.687500,211.17,63.57
216215,2018-06-29 10:37:28.718750,154.81,63.57
216216,2018-06-29 10:37:28.750000,96.81,63.57
216217,2018-06-29 10:37:28.781250,49.47,63.57
216218,2018-06-29 10:37:28.812500,16.27,63.57
216219,2018-06-29 10:37:28.843750,-4.8,63.57
216220,2018-06-29 10:37:28.875000,-16.34,63.57
216221,2018-06-29 10:37:28.906250,-22.05,63.57
216222,2018-06-29 10:37:28.937500,-26.85,63.57
216223,2018-06-29 10:37:28.968750,-32.93,63.57
216224,2018-06-29 10:37:29.000000,-38.41,63.57
216225,2018-06-29 10:37:29.031250,-41.58,63.57
216226,2018-06-29 10:37:29.062500,-44.03,63.57
216227,2018-06-29 10:37:29.093750,-47.8,63.57
216228,2018-06-29 10:37:29.125000,-52.18,63.57
216229,2018-06-29 10:37:29.156250,-55.25,63.57
216230,2018-06-29 10:37:29.187500,-57.39,63.57
216231,2018-06-29 10:37:29.218750,-61.03,63.57
216232,2018-06-29 10:37:29.250000,-66.31,63.57
216233,2018-06-29 10:37:29.281250,-67.97,63.57
216234,2018-06-29 10:37:29.312500,-59.95,63.57
216235,2018-06-29 10:37:29.343750,-43.07,63.57
216236,2018-06-29 10:37:29.375000,-24.67,63.57
216237,2018-06-29 10:37:29.406250,-10.16,63.57
216238,2018-06-29 10:37:29.437500,1.04,63.57
216239,2018-06-29 10:37:29.468750,10.73,63.57
216240,2018-06-29 10:37:29.500000,17.82,63.57
216241,2018-06-29 10:37:29.531250,20.85,63.23
216242,2018-06-29 10:37:29.562500,21.28,63.23
216243,2018-06-29 10:37:29.593750,21.5,63.23
216244,2018-06-29 10:37:29.625000,21.86,63.23
216245,2018-06-29 10:37:29.656250,22.04,63.23
216246,2018-06-29 10:37:29.687500,22.22,63.23
216247,2018-06-29 10:37:29.718750,21.21,63.23
216248,2018-06-29 10:37:29.750000,17.35,63.23
216249,2018-06-29 10:37:29.781250,11.41,63.23
216250,2018-06-29 10:37:29.812500,5.68,63.23
216251,2018-06-29 10:37:29.843750,0.38,63.23
216252,2018-06-29 10:37:29.875000,-6.1,63.23
216253,2018-06-29 10:37:29.906250,-14.14,63.23
216254,2018-06-29 10:37:29.937500,-21.82,63.23
216255,2018-06-29 10:37:29.968750,-27.72,63.23
216256,2018-06-29 10:37:30.000000,-33.52,63.23
216257,2018-06-29 10:37:30.031250,-42.27,63.23
216258,2018-06-29 10:37:30.062500,-53.47,63.23
216259,2018-06-29 10:37:30.093750,-60.6,63.23
216260,2018-06-29 10:37:30.125000,-55.84,63.23
216261,2018-06-29 10:37:30.156250,-38.98,63.23
216262,2018-06-29 10:37:30.187500,-18.34,63.23
216263,2018-06-29 10:37:30.218750,-1.26,63.23
216264,2018-06-29 10:37:30.250000,11.92,63.23
216265,2018-06-29 10:37:30.281250,23.15,63.23
216266,2018-06-29 10:37:30.312500,31.61,63.23
216267,2018-06-29 10:37:30.343750,35.68,63.23
216268,2018-06-29 10:37:30.375000,36.42,63.23
216269,2018-06-29 10:37:30.406250,36.52,63.23
216270,2018-06-29 10:37:30.437500,37.52,63.23
216271,2018-06-29 10:37:30.468750,39.4,63.23
216272,2018-06-29 10:37:30.500000,41.62,63.23
216273,2018-06-29 10:37:30.531250,42.91,62.9
216274,2018-06-29 10:37:30.562500,41.36,62.9
216275,2018-06-29 10:37:30.593750,36.85,62.9
216276,2018-06-29 10:37:30.625000,31.71,62.9
216277,2018-06-29 10:37:30.656250,27.67,62.9
216278,2018-06-29 10:37:30.687500,23.57,62.9
216279,2018-06-29 10:37:30.718750,17.61,62.9
216280,2018-06-29 10:37:30.750000,10.23,62.9
216281,2018-06-29 10:37:30.781250,2.53,62.9
216282,2018-06-29 10:37:30.812500,-6.38,62.9
216283,2018-06-29 10:37:30.843750,-17.91,62.9
216284,2018-06-29 10:37:30.875000,-31.06,62.9
216285,2018-06-29 10:37:30.906250,-43.15,62.9
216286,2018-06-29 10:37:30.937500,-52.74,62.9
216287,2018-06-29 10:37:30.968750,-60.51,62.9
216288,2018-06-29 10:37:31.000000,-67.76,62.9
216289,2018-06-29 10:37:31.031250,-73.33,62.9
216290,2018-06-29 10:37:31.062500,-71.46,62.9
216291,2018-06-29 10:37:31.093750,-56.41,62.9
216292,2018-06-29 10:37:31.125000,-30.88,62.9
216293,2018-06-29 10:37:31.156250,-5.87,62.9
216294,2018-06-29 10:37:31.187500,10.41,62.9
216295,2018-06-29 10:37:31.218750,18.82,62.9
216296,2018-06-29 10:37:31.250000,23.31,62.9
216297,2018-06-29 10:37:31.281250,25.14,62.9
216298,2018-06-29 10:37:31.312500,24.89,62.9
216299,2018-06-29 10:37:31.343750,24.19,62.9
216300,2018-06-29 10:37:31.375000,23.58,62.9
216301,2018-06-29 10:37:31.406250,22.24,62.9
216302,2018-06-29 10:37:31.437500,20.4,62.9
216303,2018-06-29 10:37:31.468750,18.3,62.9
216304,2018-06-29 10:37:31.500000,13.24,62.9
216305,2018-06-29 10:37:31.531250,1.17,62.7
216306,2018-06-29 10:37:31.562500,-18.01,62.7
216307,2018-06-29 10:37:31.593750,-37.98,62.7
216308,2018-06-29 10:37:31.625000,-49.72,62.7
216309,2018-06-29 10:37:31.656250,-48.44,62.7
216310,2018-06-29 10:37:31.687500,-35.94,62.7
216311,2018-06-29 10:37:31.718750,-17.35,62.7
216312,2018-06-29 10:37:31.750000,2.79,62.7
216313,2018-06-29 10:37:31.781250,22.68,62.7
216314,2018-06-29 10:37:31.812500,44.13,62.7
216315,2018-06-29 10:37:31.843750,70.53,62.7
216316,2018-06-29 10:37:31.875000,103.24,62.7
216317,2018-06-29 10:37:31.906250,139.98,62.7
216318,2018-06-29 10:37:31.937500,173.53,62.7
216319,2018-06-29 10:37:31.968750,191.9,62.7
216320,2018-06-29 10:37:32.000000,185.96,62.7
216321,2018-06-29 10:37:32.031250,155.9,62.7
216322,2018-06-29 10:37:32.062500,106.06,62.7
216323,2018-06-29 10:37:32.093750,41.61,62.7
216324,2018-06-29 10:37:32.125000,-23.37,62.7
216325,2018-06-29 10:37:32.156250,-67.81,62.7
216326,2018-06-29 10:37:32.187500,-82.68,62.7
216327,2018-06-29 10:37:32.218750,-78.12,62.7
216328,2018-06-29 10:37:32.250000,-67.58,62.7
216329,2018-06-29 10:37:32.281250,-55.6,62.7
216330,2018-06-29 10:37:32.312500,-42.7,62.7
216331,2018-06-29 10:37:32.343750,-31.74,62.7
216332,2018-06-29 10:37:32.375000,-24.67,62.7
216333,2018-06-29 10:37:32.406250,-19.42,62.7
216334,2018-06-29 10:37:32.437500,-13.28,62.7
216335,2018-06-29 10:37:32.468750,-6.07,62.7
216336,2018-06-29 10:37:32.500000,1.42,62.7
216337,2018-06-29 10:37:32.531250,8.94,62.45
216338,2018-06-29 10:37:32.562500,15.92,62.45
216339,2018-06-29 10:37:32.593750,21.23,62.45
216340,2018-06-29 10:37:32.625000,24.15,62.45
216341,2018-06-29 10:37:32.656250,24.47,62.45
216342,2018-06-29 10:37:32.687500,22.8,62.45
216343,2018-06-29 10:37:32.718750,20.69,62.45
216344,2018-06-29 10:37:32.750000,18.45,62.45
216345,2018-06-29 10:37:32.781250,14.52,62.45
216346,2018-06-29 10:37:32.812500,8.6,62.45
216347,2018-06-29 10:37:32.843750,2.91,62.45
216348,2018-06-29 10:37:32.875000,-1.28,62.45
216349,2018-06-29 10:37:32.906250,-5.49,62.45
216350,2018-06-29 10:37:32.937500,-11.8,62.45
216351,2018-06-29 10:37:32.968750,-20.57,62.45
216352,2018-06-29 10:37:33.000000,-30.36,62.45
216353,2018-06-29 10:37:33.031250,-39.56,62.45
216354,2018-06-29 10:37:33.062500,-48.23,62.45
216355,2018-06-29 10:37:33.093750,-58.17,62.45
216356,2018-06-29 10:37:33.125000,-69.91,62.45
216357,2018-06-29 10:37:33.156250,-78.93,62.45
216358,2018-06-29 10:37:33.187500,-76.62,62.45
216359,2018-06-29 10:37:33.218750,-58.46,62.45
216360,2018-06-29 10:37:33.250000,-30.85,62.45
216361,2018-06-29 10:37:33.281250,-5.76,62.45
216362,2018-06-29 10:37:33.312500,10.95,62.45
216363,2018-06-29 10:37:33.343750,21.24,62.45
216364,2018-06-29 10:37:33.375000,27.69,62.45
216365,2018-06-29 10:37:33.406250,30.43,62.45
216366,2018-06-29 10:37:33.437500,30.02,62.45
216367,2018-06-29 10:37:33.468750,29.09,62.45
216368,2018-06-29 10:37:33.500000,29.81,62.45
216369,2018-06-29 10:37:33.531250,31.53,62.18
216370,2018-06-29 10:37:33.562500,32.38,62.18
216371,2018-06-29 10:37:33.593750,31.68,62.18
216372,2018-06-29 10:37:33.625000,29.55,62.18
216373,2018-06-29 10:37:33.656250,25.68,62.18
216374,2018-06-29 10:37:33.687500,20.22,62.18
216375,2018-06-29 10:37:33.718750,14.2,62.18
216376,2018-06-29 10:37:33.750000,8.22,62.18
216377,2018-06-29 10:37:33.781250,2.03,62.18
216378,2018-06-29 10:37:33.812500,-4.51,62.18
216379,2018-06-29 10:37:33.843750,-11.23,62.18
216380,2018-06-29 10:37:33.875000,-18.15,62.18
216381,2018-06-29 10:37:33.906250,-25.1,62.18
216382,2018-06-29 10:37:33.937500,-31.73,62.18
216383,2018-06-29 10:37:33.968750,-38.11,62.18
216384,2018-06-29 10:37:34.000000,-45.39,62.18
216385,2018-06-29 10:37:34.031250,-54.76,62.18
216386,2018-06-29 10:37:34.062500,-64.47,62.18
216387,2018-06-29 10:37:34.093750,-67.89,62.18
216388,2018-06-29 10:37:34.125000,-58.43,62.18
216389,2018-06-29 10:37:34.156250,-37.69,62.18
216390,2018-06-29 10:37:34.187500,-14.82,62.18
216391,2018-06-29 10:37:34.218750,3.14,62.18
216392,2018-06-29 10:37:34.250000,15.69,62.18
216393,2018-06-29 10:37:34.281250,23.67,62.18
216394,2018-06-29 10:37:34.312500,26.08,62.18
216395,2018-06-29 10:37:34.343750,24.28,62.18
216396,2018-06-29 10:37:34.375000,23.45,62.18
216397,2018-06-29 10:37:34.406250,25.69,62.18
216398,2018-06-29 10:37:34.437500,27.93,62.18
216399,2018-06-29 10:37:34.468750,28.08,62.18
216400,2018-06-29 10:37:34.500000,28.27,62.18
216401,2018-06-29 10:37:34.531250,29.5,62.02
216402,2018-06-29 10:37:34.562500,28.17,62.02
216403,2018-06-29 10:37:34.593750,21.43,62.02
216404,2018-06-29 10:37:34.625000,11.48,62.02
216405,2018-06-29 10:37:34.656250,3.51,62.02
216406,2018-06-29 10:37:34.687500,-2.24,62.02
216407,2018-06-29 10:37:34.718750,-10.35,62.02
216408,2018-06-29 10:37:34.750000,-23.85,62.02
216409,2018-06-29 10:37:34.781250,-37.74,62.02
216410,2018-06-29 10:37:34.812500,-45.86,62.02
216411,2018-06-29 10:37:34.843750,-52.37,62.02
216412,2018-06-29 10:37:34.875000,-64.97,62.02
216413,2018-06-29 10:37:34.906250,-84.62,62.02
216414,2018-06-29 10:37:34.937500,-96.81,62.02
216415,2018-06-29 10:37:34.968750,-93.39,62.02
216416,2018-06-29 10:37:35.000000,-79.33,62.02
216417,2018-06-29 10:37:35.031250,-69.14,62.02
216418,2018-06-29 10:37:35.062500,-67.71,62.02
216419,2018-06-29 10:37:35.093750,-63.88,62.02
216420,2018-06-29 10:37:35.125000,-42.64,62.02
216421,2018-06-29 10:37:35.156250,10.94,62.02
216422,2018-06-29 10:37:35.187500,89.84,62.02
216423,2018-06-29 10:37:35.218750,181.05,62.02
216424,2018-06-29 10:37:35.250000,262.68,62.02
216425,2018-06-29 10:37:35.281250,324.86,62.02
216426,2018-06-29 10:37:35.312500,352.84,62.02
216427,2018-06-29 10:37:35.343750,278.07,62.02
216428,2018-06-29 10:37:35.375000,152.55,62.02
216429,2018-06-29 10:37:35.406250,45.13,62.02
216430,2018-06-29 10:37:35.437500,-32.37,62.02
216431,2018-06-29 10:37:35.468750,-89.44,62.02
216432,2018-06-29 10:37:35.500000,-116.68,62.02
216433,2018-06-29 10:37:35.531250,-123.69,61.87
216434,2018-06-29 10:37:35.562500,-130.74,61.87
216435,2018-06-29 10:37:35.593750,-135.31,61.87
216436,2018-06-29 10:37:35.625000,-132.36,61.87
216437,2018-06-29 10:37:35.656250,-119.39,61.87
216438,2018-06-29 10:37:35.687500,-109.34,61.87
216439,2018-06-29 10:37:35.718750,-107.89,61.87
216440,2018-06-29 10:37:35.750000,-113.33,61.87
216441,2018-06-29 10:37:35.781250,-115.72,61.87
216442,2018-06-29 10:37:35.812500,-115.53,61.87
216443,2018-06-29 10:37:35.843750,-115.38,61.87
216444,2018-06-29 10:37:35.875000,-115.71,61.87
216445,2018-06-29 10:37:35.906250,-114.27,61.87
216446,2018-06-29 10:37:35.937500,-106.72,61.87
216447,2018-06-29 10:37:35.968750,-91.54,61.87
216448,2018-06-29 10:37:36.000000,-68.39,61.87
216449,2018-06-29 10:37:36.031250,-40.21,61.87
216450,2018-06-29 10:37:36.062500,-9.16,61.87
216451,2018-06-29 10:37:36.093750,22.45,61.87
216452,2018-06-29 10:37:36.125000,52.31,61.87
216453,2018-06-29 10:37:36.156250,77.68,61.87
216454,2018-06-29 10:37:36.187500,94.62,61.87
216455,2018-06-29 10:37:36.218750,100.29,61.87
216456,2018-06-29 10:37:36.250000,96.59,61.87
216457,2018-06-29 10:37:36.281250,88.86,61.87
216458,2018-06-29 10:37:36.312500,79.24,61.87
216459,2018-06-29 10:37:36.343750,66.31,61.87
216460,2018-06-29 10:37:36.375000,50.14,61.87
216461,2018-06-29 10:37:36.406250,33.2,61.87
216462,2018-06-29 10:37:36.437500,18.98,61.87
216463,2018-06-29 10:37:36.468750,11.47,61.87
216464,2018-06-29 10:37:36.500000,11.21,61.87
216465,2018-06-29 10:37:36.531250,12.66,61.75
216466,2018-06-29 10:37:36.562500,11.46,61.75
216467,2018-06-29 10:37:36.593750,12.71,61.75
216468,2018-06-29 10:37:36.625000,25.84,61.75
216469,2018-06-29 10:37:36.656250,53.27,61.75
216470,2018-06-29 10:37:36.687500,89.64,61.75
216471,2018-06-29 10:37:36.718750,129.55,61.75
216472,2018-06-29 10:37:36.750000,167.65,61.75
216473,2018-06-29 10:37:36.781250,191.89,61.75
216474,2018-06-29 10:37:36.812500,187.75,61.75
216475,2018-06-29 10:37:36.843750,152.07,61.75
216476,2018-06-29 10:37:36.875000,96.31,61.75
216477,2018-06-29 10:37:36.906250,36.05,61.75
216478,2018-06-29 10:37:36.937500,-17.52,61.75
216479,2018-06-29 10:37:36.968750,-57.45,61.75
216480,2018-06-29 10:37:37.000000,-80.88,61.75
216481,2018-06-29 10:37:37.031250,-90.86,61.75
216482,2018-06-29 10:37:37.062500,-94.31,61.75
216483,2018-06-29 10:37:37.093750,-96.82,61.75
216484,2018-06-29 10:37:37.125000,-100.37,61.75
216485,2018-06-29 10:37:37.156250,-105.41,61.75
216486,2018-06-29 10:37:37.187500,-112.52,61.75
216487,2018-06-29 10:37:37.218750,-120.98,61.75
216488,2018-06-29 10:37:37.250000,-127.11,61.75
216489,2018-06-29 10:37:37.281250,-126.96,61.75
216490,2018-06-29 10:37:37.312500,-120.69,61.75
216491,2018-06-29 10:37:37.343750,-110.23,61.75
216492,2018-06-29 10:37:37.375000,-93.64,61.75
216493,2018-06-29 10:37:37.406250,-67.83,61.75
216494,2018-06-29 10:37:37.437500,-36.13,61.75
216495,2018-06-29 10:37:37.468750,-6.28,61.75
216496,2018-06-29 10:37:37.500000,18.41,61.75
216497,2018-06-29 10:37:37.531250,39.9,61.63
216498,2018-06-29 10:37:37.562500,58.76,61.63
216499,2018-06-29 10:37:37.593750,72.15,61.63
216500,2018-06-29 10:37:37.625000,77.92,61.63
216501,2018-06-29 10:37:37.656250,77.15,61.63
216502,2018-06-29 10:37:37.687500,72.84,61.63
216503,2018-06-29 10:37:37.718750,68.98,61.63
216504,2018-06-29 10:37:37.750000,69.39,61.63
216505,2018-06-29 10:37:37.781250,75.54,61.63
216506,2018-06-29 10:37:37.812500,85.9,61.63
216507,2018-06-29 10:37:37.843750,98.14,61.63
216508,2018-06-29 10:37:37.875000,110.18,61.63
216509,2018-06-29 10:37:37.906250,118.16,61.63
216510,2018-06-29 10:37:37.937500,117.48,61.63
216511,2018-06-29 10:37:37.968750,109.18,61.63
216512,2018-06-29 10:37:38.000000,102.08,61.63
216513,2018-06-29 10:37:38.031250,102.69,61.63
216514,2018-06-29 10:37:38.062500,105.9,61.63
216515,2018-06-29 10:37:38.093750,102.02,61.63
216516,2018-06-29 10:37:38.125000,91.2,61.63
216517,2018-06-29 10:37:38.156250,84.2,61.63
216518,2018-06-29 10:37:38.187500,85.75,61.63
216519,2018-06-29 10:37:38.218750,85.09,61.63
216520,2018-06-29 10:37:38.250000,69.21,61.63
216521,2018-06-29 10:37:38.281250,37.89,61.63
216522,2018-06-29 10:37:38.312500,0.45,61.63
216523,2018-06-29 10:37:38.343750,-35.37,61.63
216524,2018-06-29 10:37:38.375000,-67.44,61.63
216525,2018-06-29 10:37:38.406250,-94.78,61.63
216526,2018-06-29 10:37:38.437500,-112.01,61.63
216527,2018-06-29 10:37:38.468750,-112.68,61.63
216528,2018-06-29 10:37:38.500000,-97.78,61.63
216529,2018-06-29 10:37:38.531250,-73.37,61.45
216530,2018-06-29 10:37:38.562500,-44.7,61.45
216531,2018-06-29 10:37:38.593750,-18.59,61.45
216532,2018-06-29 10:37:38.625000,-4.39,61.45
216533,2018-06-29 10:37:38.656250,-5.95,61.45
216534,2018-06-29 10:37:38.687500,-19.65,61.45
216535,2018-06-29 10:37:38.718750,-39.65,61.45
216536,2018-06-29 10:37:38.750000,-60.72,61.45
216537,2018-06-29 10:37:38.781250,-77.17,61.45
216538,2018-06-29 10:37:38.812500,-86.63,61.45
216539,2018-06-29 10:37:38.843750,-92.76,61.45
216540,2018-06-29 10:37:38.875000,-97.62,61.45
216541,2018-06-29 10:37:38.906250,-94.64,61.45
216542,2018-06-29 10:37:38.937500,-77.82,61.45
216543,2018-06-29 10:37:38.968750,-57.13,61.45
216544,2018-06-29 10:37:39.000000,-44.42,61.45
216545,2018-06-29 10:37:39.031250,-34.92,61.45
216546,2018-06-29 10:37:39.062500,-13.87,61.45
216547,2018-06-29 10:37:39.093750,23.36,61.45
216548,2018-06-29 10:37:39.125000,66.09,61.45
216549,2018-06-29 10:37:39.156250,107.77,61.45
216550,2018-06-29 10:37:39.187500,140.55,61.45
216551,2018-06-29 10:37:39.218750,152.34,61.45
216552,2018-06-29 10:37:39.250000,121.01,61.45
216553,2018-06-29 10:37:39.281250,54.57,61.45
216554,2018-06-29 10:37:39.312500,-22.47,61.45
216555,2018-06-29 10:37:39.343750,-100.62,61.45
216556,2018-06-29 10:37:39.375000,-176.67,61.45
216557,2018-06-29 10:37:39.406250,-262.59,61.45
216558,2018-06-29 10:37:39.437500,-341.16,61.45
216559,2018-06-29 10:37:39.468750,-385.82,61.45
216560,2018-06-29 10:37:39.500000,-366.94,61.45
216561,2018-06-29 10:37:39.531250,-218.0,61.28
216562,2018-06-29 10:37:39.562500,-41.58,61.28
216563,2018-06-29 10:37:39.593750,67.4,61.28
216564,2018-06-29 10:37:39.625000,116.93,61.28
216565,2018-06-29 10:37:39.656250,136.45,61.28
216566,2018-06-29 10:37:39.687500,128.44,61.28
216567,2018-06-29 10:37:39.718750,112.25,61.28
216568,2018-06-29 10:37:39.750000,112.08,61.28
216569,2018-06-29 10:37:39.781250,129.82,61.28
216570,2018-06-29 10:37:39.812500,136.57,61.28
216571,2018-06-29 10:37:39.843750,122.6,61.28
216572,2018-06-29 10:37:39.875000,107.47,61.28
216573,2018-06-29 10:37:39.906250,100.8,61.28
216574,2018-06-29 10:37:39.937500,95.46,61.28
216575,2018-06-29 10:37:39.968750,81.28,61.28
216576,2018-06-29 10:37:40.000000,66.37,61.28
216577,2018-06-29 10:37:40.031250,59.92,61.28
216578,2018-06-29 10:37:40.062500,60.54,61.28
216579,2018-06-29 10:37:40.093750,60.8,61.28
216580,2018-06-29 10:37:40.125000,55.67,61.28
216581,2018-06-29 10:37:40.156250,46.58,61.28
216582,2018-06-29 10:37:40.187500,34.44,61.28
216583,2018-06-29 10:37:40.218750,20.2,61.28
216584,2018-06-29 10:37:40.250000,7.03,61.28
216585,2018-06-29 10:37:40.281250,-1.15,61.28
216586,2018-06-29 10:37:40.312500,-6.52,61.28
216587,2018-06-29 10:37:40.343750,-14.2,61.28
216588,2018-06-29 10:37:40.375000,-23.7,61.28
216589,2018-06-29 10:37:40.406250,-31.5,61.28
216590,2018-06-29 10:37:40.437500,-37.48,61.28
216591,2018-06-29 10:37:40.468750,-43.84,61.28
216592,2018-06-29 10:37:40.500000,-51.05,61.28
216593,2018-06-29 10:37:40.531250,-56.32,61.12
216594,2018-06-29 10:37:40.562500,-55.36,61.12
216595,2018-06-29 10:37:40.593750,-46.95,61.12
216596,2018-06-29 10:37:40.625000,-35.38,61.12
216597,2018-06-29 10:37:40.656250,-26.3,61.12
216598,2018-06-29 10:37:40.687500,-21.95,61.12
216599,2018-06-29 10:37:40.718750,-21.77,61.12
216600,2018-06-29 10:37:40.750000,-24.58,61.12
216601,2018-06-29 10:37:40.781250,-28.13,61.12
216602,2018-06-29 10:37:40.812500,-29.38,61.12
216603,2018-06-29 10:37:40.843750,-26.97,61.12
216604,2018-06-29 10:37:40.875000,-22.26,61.12
216605,2018-06-29 10:37:40.906250,-15.97,61.12
216606,2018-06-29 10:37:40.937500,-6.33,61.12
216607,2018-06-29 10:37:40.968750,6.58,61.12
216608,2018-06-29 10:37:41.000000,18.13,61.12
216609,2018-06-29 10:37:41.031250,24.82,61.12
216610,2018-06-29 10:37:41.062500,28.85,61.12
216611,2018-06-29 10:37:41.093750,33.87,61.12
216612,2018-06-29 10:37:41.125000,40.53,61.12
216613,2018-06-29 10:37:41.156250,47.85,61.12
216614,2018-06-29 10:37:41.187500,54.63,61.12
216615,2018-06-29 10:37:41.218750,58.5,61.12
216616,2018-06-29 10:37:41.250000,56.74,61.12
216617,2018-06-29 10:37:41.281250,48.56,61.12
216618,2018-06-29 10:37:41.312500,36.05,61.12
216619,2018-06-29 10:37:41.343750,23.27,61.12
216620,2018-06-29 10:37:41.375000,13.26,61.12
216621,2018-06-29 10:37:41.406250,5.14,61.12
216622,2018-06-29 10:37:41.437500,-4.07,61.12
216623,2018-06-29 10:37:41.468750,-13.77,61.12
216624,2018-06-29 10:37:41.500000,-18.57,61.12
216625,2018-06-29 10:37:41.531250,-15.59,60.8
216626,2018-06-29 10:37:41.562500,-10.27,60.8
216627,2018-06-29 10:37:41.593750,-10.8,60.8
216628,2018-06-29 10:37:41.625000,-18.65,60.8
216629,2018-06-29 10:37:41.656250,-28.97,60.8
216630,2018-06-29 10:37:41.687500,-37.83,60.8
216631,2018-06-29 10:37:41.718750,-43.98,60.8
216632,2018-06-29 10:37:41.750000,-46.01,60.8
216633,2018-06-29 10:37:41.781250,-42.33,60.8
216634,2018-06-29 10:37:41.812500,-33.26,60.8
216635,2018-06-29 10:37:41.843750,-20.99,60.8
216636,2018-06-29 10:37:41.875000,-8.54,60.8
216637,2018-06-29 10:37:41.906250,0.72,60.8
216638,2018-06-29 10:37:41.937500,3.7,60.8
216639,2018-06-29 10:37:41.968750,-0.26,60.8
216640,2018-06-29 10:37:42.000000,-7.85,60.8
216641,2018-06-29 10:37:42.031250,-14.03,60.8
216642,2018-06-29 10:37:42.062500,-16.48,60.8
216643,2018-06-29 10:37:42.093750,-17.02,60.8
216644,2018-06-29 10:37:42.125000,-18.22,60.8
216645,2018-06-29 10:37:42.156250,-20.36,60.8
216646,2018-06-29 10:37:42.187500,-23.07,60.8
216647,2018-06-29 10:37:42.218750,-27.98,60.8
216648,2018-06-29 10:37:42.250000,-36.25,60.8
216649,2018-06-29 10:37:42.281250,-45.24,60.8
216650,2018-06-29 10:37:42.312500,-52.01,60.8
216651,2018-06-29 10:37:42.343750,-58.58,60.8
216652,2018-06-29 10:37:42.375000,-69.17,60.8
216653,2018-06-29 10:37:42.406250,-82.92,60.8
216654,2018-06-29 10:37:42.437500,-92.3,60.8
216655,2018-06-29 10:37:42.468750,-88.81,60.8
216656,2018-06-29 10:37:42.500000,-70.32,60.8
216657,2018-06-29 10:37:42.531250,-44.06,60.42
216658,2018-06-29 10:37:42.562500,-20.13,60.42
216659,2018-06-29 10:37:42.593750,-2.24,60.42
216660,2018-06-29 10:37:42.625000,12.5,60.42
216661,2018-06-29 10:37:42.656250,26.02,60.42
216662,2018-06-29 10:37:42.687500,36.49,60.42
216663,2018-06-29 10:37:42.718750,42.14,60.42
216664,2018-06-29 10:37:42.750000,44.01,60.42
216665,2018-06-29 10:37:42.781250,44.94,60.42
216666,2018-06-29 10:37:42.812500,47.25,60.42
216667,2018-06-29 10:37:42.843750,51.14,60.42
216668,2018-06-29 10:37:42.875000,55.57,60.42
216669,2018-06-29 10:37:42.906250,59.78,60.42
216670,2018-06-29 10:37:42.937500,62.62,60.42
216671,2018-06-29 10:37:42.968750,61.57,60.42
216672,2018-06-29 10:37:43.000000,54.97,60.42
216673,2018-06-29 10:37:43.031250,44.91,60.42
216674,2018-06-29 10:37:43.062500,36.06,60.42
216675,2018-06-29 10:37:43.093750,31.3,60.42
216676,2018-06-29 10:37:43.125000,29.29,60.42
216677,2018-06-29 10:37:43.156250,26.6,60.42
216678,2018-06-29 10:37:43.187500,21.44,60.42
216679,2018-06-29 10:37:43.218750,13.96,60.42
216680,2018-06-29 10:37:43.250000,3.74,60.42
216681,2018-06-29 10:37:43.281250,-9.85,60.42
216682,2018-06-29 10:37:43.312500,-26.1,60.42
216683,2018-06-29 10:37:43.343750,-43.39,60.42
216684,2018-06-29 10:37:43.375000,-60.56,60.42
216685,2018-06-29 10:37:43.406250,-77.08,60.42
216686,2018-06-29 10:37:43.437500,-92.21,60.42
216687,2018-06-29 10:37:43.468750,-101.51,60.42
216688,2018-06-29 10:37:43.500000,-96.27,60.42
216689,2018-06-29 10:37:43.531250,-72.58,60.12
216690,2018-06-29 10:37:43.562500,-38.94,60.12
216691,2018-06-29 10:37:43.593750,-8.48,60.12
216692,2018-06-29 10:37:43.625000,13.66,60.12
216693,2018-06-29 10:37:43.656250,29.91,60.12
216694,2018-06-29 10:37:43.687500,41.74,60.12
216695,2018-06-29 10:37:43.718750,48.23,60.12
216696,2018-06-29 10:37:43.750000,50.13,60.12
216697,2018-06-29 10:37:43.781250,51.0,60.12
216698,2018-06-29 10:37:43.812500,54.06,60.12
216699,2018-06-29 10:37:43.843750,59.69,60.12
216700,2018-06-29 10:37:43.875000,66.07,60.12
216701,2018-06-29 10:37:43.906250,71.41,60.12
216702,2018-06-29 10:37:43.937500,74.32,60.12
216703,2018-06-29 10:37:43.968750,73.13,60.12
216704,2018-06-29 10:37:44.000000,67.08,60.12
216705,2018-06-29 10:37:44.031250,57.73,60.12
216706,2018-06-29 10:37:44.062500,47.78,60.12
216707,2018-06-29 10:37:44.093750,38.32,60.12
216708,2018-06-29 10:37:44.125000,28.5,60.12
216709,2018-06-29 10:37:44.156250,18.22,60.12
216710,2018-06-29 10:37:44.187500,8.74,60.12
216711,2018-06-29 10:37:44.218750,-0.1,60.12
216712,2018-06-29 10:37:44.250000,-11.04,60.12
216713,2018-06-29 10:37:44.281250,-25.11,60.12
216714,2018-06-29 10:37:44.312500,-38.8,60.12
216715,2018-06-29 10:37:44.343750,-48.77,60.12
216716,2018-06-29 10:37:44.375000,-56.64,60.12
216717,2018-06-29 10:37:44.406250,-66.51,60.12
216718,2018-06-29 10:37:44.437500,-79.55,60.12
216719,2018-06-29 10:37:44.468750,-90.7,60.12
216720,2018-06-29 10:37:44.500000,-88.67,60.12
216721,2018-06-29 10:37:44.531250,-64.29,59.82
216722,2018-06-29 10:37:44.562500,-21.75,59.82
216723,2018-06-29 10:37:44.593750,23.81,59.82
216724,2018-06-29 10:37:44.625000,59.82,59.82
216725,2018-06-29 10:37:44.656250,81.75,59.82
216726,2018-06-29 10:37:44.687500,89.25,59.82
216727,2018-06-29 10:37:44.718750,84.24,59.82
216728,2018-06-29 10:37:44.750000,71.89,59.82
216729,2018-06-29 10:37:44.781250,59.75,59.82
216730,2018-06-29 10:37:44.812500,52.98,59.82
216731,2018-06-29 10:37:44.843750,48.93,59.82
216732,2018-06-29 10:37:44.875000,40.03,59.82
216733,2018-06-29 10:37:44.906250,23.0,59.82
216734,2018-06-29 10:37:44.937500,-0.39,59.82
216735,2018-06-29 10:37:44.968750,-28.31,59.82
216736,2018-06-29 10:37:45.000000,-57.34,59.82
216737,2018-06-29 10:37:45.031250,-81.12,59.82
216738,2018-06-29 10:37:45.062500,-96.22,59.82
216739,2018-06-29 10:37:45.093750,-103.95,59.82
216740,2018-06-29 10:37:45.125000,-104.89,59.82
216741,2018-06-29 10:37:45.156250,-98.46,59.82
216742,2018-06-29 10:37:45.187500,-87.38,59.82
216743,2018-06-29 10:37:45.218750,-77.34,59.82
216744,2018-06-29 10:37:45.250000,-72.73,59.82
216745,2018-06-29 10:37:45.281250,-74.32,59.82
216746,2018-06-29 10:37:45.312500,-80.77,59.82
216747,2018-06-29 10:37:45.343750,-90.94,59.82
216748,2018-06-29 10:37:45.375000,-102.23,59.82
216749,2018-06-29 10:37:45.406250,-106.86,59.82
216750,2018-06-29 10:37:45.437500,-93.6,59.82
216751,2018-06-29 10:37:45.468750,-58.21,59.82
216752,2018-06-29 10:37:45.500000,-10.58,59.82
216753,2018-06-29 10:37:45.531250,33.43,59.53
216754,2018-06-29 10:37:45.562500,66.3,59.53
216755,2018-06-29 10:37:45.593750,90.45,59.53
216756,2018-06-29 10:37:45.625000,109.41,59.53
216757,2018-06-29 10:37:45.656250,123.11,59.53
216758,2018-06-29 10:37:45.687500,130.8,59.53
216759,2018-06-29 10:37:45.718750,134.04,59.53
216760,2018-06-29 10:37:45.750000,135.38,59.53
216761,2018-06-29 10:37:45.781250,135.19,59.53
216762,2018-06-29 10:37:45.812500,131.81,59.53
216763,2018-06-29 10:37:45.843750,124.29,59.53
216764,2018-06-29 10:37:45.875000,112.71,59.53
216765,2018-06-29 10:37:45.906250,97.63,59.53
216766,2018-06-29 10:37:45.937500,81.29,59.53
216767,2018-06-29 10:37:45.968750,66.89,59.53
216768,2018-06-29 10:37:46.000000,54.93,59.53
216769,2018-06-29 10:37:46.031250,43.03,59.53
216770,2018-06-29 10:37:46.062500,30.37,59.53
216771,2018-06-29 10:37:46.093750,18.27,59.53
216772,2018-06-29 10:37:46.125000,6.95,59.53
216773,2018-06-29 10:37:46.156250,-5.17,59.53
216774,2018-06-29 10:37:46.187500,-18.48,59.53
216775,2018-06-29 10:37:46.218750,-31.35,59.53
216776,2018-06-29 10:37:46.250000,-42.28,59.53
216777,2018-06-29 10:37:46.281250,-51.31,59.53
216778,2018-06-29 10:37:46.312500,-59.22,59.53
216779,2018-06-29 10:37:46.343750,-64.25,59.53
216780,2018-06-29 10:37:46.375000,-60.22,59.53
216781,2018-06-29 10:37:46.406250,-41.9,59.53
216782,2018-06-29 10:37:46.437500,-13.13,59.53
216783,2018-06-29 10:37:46.468750,14.58,59.53
216784,2018-06-29 10:37:46.500000,32.89,59.53
216785,2018-06-29 10:37:46.531250,41.9,59.23
216786,2018-06-29 10:37:46.562500,45.5,59.23
216787,2018-06-29 10:37:46.593750,45.98,59.23
216788,2018-06-29 10:37:46.625000,44.07,59.23
216789,2018-06-29 10:37:46.656250,40.42,59.23
216790,2018-06-29 10:37:46.687500,35.04,59.23
216791,2018-06-29 10:37:46.718750,27.69,59.23
216792,2018-06-29 10:37:46.750000,19.92,59.23
216793,2018-06-29 10:37:46.781250,14.09,59.23
216794,2018-06-29 10:37:46.812500,9.74,59.23
216795,2018-06-29 10:37:46.843750,4.11,59.23
216796,2018-06-29 10:37:46.875000,-3.83,59.23
216797,2018-06-29 10:37:46.906250,-12.79,59.23
216798,2018-06-29 10:37:46.937500,-21.31,59.23
216799,2018-06-29 10:37:46.968750,-28.58,59.23
216800,2018-06-29 10:37:47.000000,-34.13,59.23
216801,2018-06-29 10:37:47.031250,-37.57,59.23
216802,2018-06-29 10:37:47.062500,-38.95,59.23
216803,2018-06-29 10:37:47.093750,-38.82,59.23
216804,2018-06-29 10:37:47.125000,-37.31,59.23
216805,2018-06-29 10:37:47.156250,-35.3,59.23
216806,2018-06-29 10:37:47.187500,-36.2,59.23
216807,2018-06-29 10:37:47.218750,-43.59,59.23
216808,2018-06-29 10:37:47.250000,-56.83,59.23
216809,2018-06-29 10:37:47.281250,-69.59,59.23
216810,2018-06-29 10:37:47.312500,-73.71,59.23
216811,2018-06-29 10:37:47.343750,-65.18,59.23
216812,2018-06-29 10:37:47.375000,-46.77,59.23
216813,2018-06-29 10:37:47.406250,-23.51,59.23
216814,2018-06-29 10:37:47.437500,1.83,59.23
216815,2018-06-29 10:37:47.468750,26.68,59.23
216816,2018-06-29 10:37:47.500000,45.79,59.23
216817,2018-06-29 10:37:47.531250,54.38,58.98
216818,2018-06-29 10:37:47.562500,52.74,58.98
216819,2018-06-29 10:37:47.593750,45.5,58.98
216820,2018-06-29 10:37:47.625000,36.63,58.98
216821,2018-06-29 10:37:47.656250,27.69,58.98
216822,2018-06-29 10:37:47.687500,20.09,58.98
216823,2018-06-29 10:37:47.718750,15.82,58.98
216824,2018-06-29 10:37:47.750000,14.96,58.98
216825,2018-06-29 10:37:47.781250,15.65,58.98
216826,2018-06-29 10:37:47.812500,17.37,58.98
216827,2018-06-29 10:37:47.843750,20.05,58.98
216828,2018-06-29 10:37:47.875000,20.94,58.98
216829,2018-06-29 10:37:47.906250,17.43,58.98
216830,2018-06-29 10:37:47.937500,12.19,58.98
216831,2018-06-29 10:37:47.968750,10.16,58.98
216832,2018-06-29 10:37:48.000000,12.53,58.98
216833,2018-06-29 10:37:48.031250,17.33,58.98
216834,2018-06-29 10:37:48.062500,23.59,58.98
216835,2018-06-29 10:37:48.093750,29.88,58.98
216836,2018-06-29 10:37:48.125000,30.71,58.98
216837,2018-06-29 10:37:48.156250,19.16,58.98
216838,2018-06-29 10:37:48.187500,-5.0,58.98
216839,2018-06-29 10:37:48.218750,-32.35,58.98
216840,2018-06-29 10:37:48.250000,-51.13,58.98
216841,2018-06-29 10:37:48.281250,-55.35,58.98
216842,2018-06-29 10:37:48.312500,-46.29,58.98
216843,2018-06-29 10:37:48.343750,-30.26,58.98
216844,2018-06-29 10:37:48.375000,-16.0,58.98
216845,2018-06-29 10:37:48.406250,-10.18,58.98
216846,2018-06-29 10:37:48.437500,-12.66,58.98
216847,2018-06-29 10:37:48.468750,-16.78,58.98
216848,2018-06-29 10:37:48.500000,-14.03,58.98
216849,2018-06-29 10:37:48.531250,-0.28,58.7
216850,2018-06-29 10:37:48.562500,19.5,58.7
216851,2018-06-29 10:37:48.593750,34.96,58.7
216852,2018-06-29 10:37:48.625000,39.61,58.7
216853,2018-06-29 10:37:48.656250,34.84,58.7
216854,2018-06-29 10:37:48.687500,26.04,58.7
216855,2018-06-29 10:37:48.718750,17.75,58.7
216856,2018-06-29 10:37:48.750000,11.62,58.7
216857,2018-06-29 10:37:48.781250,6.32,58.7
216858,2018-06-29 10:37:48.812500,-0.03,58.7
216859,2018-06-29 10:37:48.843750,-8.38,58.7
216860,2018-06-29 10:37:48.875000,-19.54,58.7
216861,2018-06-29 10:37:48.906250,-33.71,58.7
216862,2018-06-29 10:37:48.937500,-49.95,58.7
216863,2018-06-29 10:37:48.968750,-66.77,58.7
216864,2018-06-29 10:37:49.000000,-81.41,58.7
216865,2018-06-29 10:37:49.031250,-89.38,58.7
216866,2018-06-29 10:37:49.062500,-88.36,58.7
216867,2018-06-29 10:37:49.093750,-81.45,58.7
216868,2018-06-29 10:37:49.125000,-73.19,58.7
216869,2018-06-29 10:37:49.156250,-64.65,58.7
216870,2018-06-29 10:37:49.187500,-54.57,58.7
216871,2018-06-29 10:37:49.218750,-42.07,58.7
216872,2018-06-29 10:37:49.250000,-26.24,58.7
216873,2018-06-29 10:37:49.281250,-6.5,58.7
216874,2018-06-29 10:37:49.312500,14.36,58.7
216875,2018-06-29 10:37:49.343750,30.95,58.7
216876,2018-06-29 10:37:49.375000,40.64,58.7
216877,2018-06-29 10:37:49.406250,45.16,58.7
216878,2018-06-29 10:37:49.437500,47.01,58.7
216879,2018-06-29 10:37:49.468750,46.61,58.7
216880,2018-06-29 10:37:49.500000,43.29,58.7
216881,2018-06-29 10:37:49.531250,36.9,58.42
216882,2018-06-29 10:37:49.562500,28.02,58.42
216883,2018-06-29 10:37:49.593750,17.7,58.42
216884,2018-06-29 10:37:49.625000,6.26,58.42
216885,2018-06-29 10:37:49.656250,-7.64,58.42
216886,2018-06-29 10:37:49.687500,-24.48,58.42
216887,2018-06-29 10:37:49.718750,-39.63,58.42
216888,2018-06-29 10:37:49.750000,-44.59,58.42
216889,2018-06-29 10:37:49.781250,-35.79,58.42
216890,2018-06-29 10:37:49.812500,-19.29,58.42
216891,2018-06-29 10:37:49.843750,-4.71,58.42
216892,2018-06-29 10:37:49.875000,3.03,58.42
216893,2018-06-29 10:37:49.906250,3.93,58.42
216894,2018-06-29 10:37:49.937500,-0.76,58.42
216895,2018-06-29 10:37:49.968750,-8.09,58.42
216896,2018-06-29 10:37:50.000000,-12.53,58.42
216897,2018-06-29 10:37:50.031250,-8.89,58.42
216898,2018-06-29 10:37:50.062500,4.42,58.42
216899,2018-06-29 10:37:50.093750,25.26,58.42
216900,2018-06-29 10:37:50.125000,48.96,58.42
216901,2018-06-29 10:37:50.156250,69.37,58.42
216902,2018-06-29 10:37:50.187500,81.19,58.42
216903,2018-06-29 10:37:50.218750,81.98,58.42
216904,2018-06-29 10:37:50.250000,72.88,58.42
216905,2018-06-29 10:37:50.281250,58.25,58.42
216906,2018-06-29 10:37:50.312500,42.62,58.42
216907,2018-06-29 10:37:50.343750,26.85,58.42
216908,2018-06-29 10:37:50.375000,8.95,58.42
216909,2018-06-29 10:37:50.406250,-11.78,58.42
216910,2018-06-29 10:37:50.437500,-32.75,58.42
216911,2018-06-29 10:37:50.468750,-48.4,58.42
216912,2018-06-29 10:37:50.500000,-52.59,58.42
216913,2018-06-29 10:37:50.531250,-44.33,58.35
216914,2018-06-29 10:37:50.562500,-30.04,58.35
216915,2018-06-29 10:37:50.593750,-16.39,58.35
216916,2018-06-29 10:37:50.625000,-4.25,58.35
216917,2018-06-29 10:37:50.656250,7.42,58.35
216918,2018-06-29 10:37:50.687500,16.53,58.35
216919,2018-06-29 10:37:50.718750,20.38,58.35
216920,2018-06-29 10:37:50.750000,19.68,58.35
216921,2018-06-29 10:37:50.781250,17.23,58.35
216922,2018-06-29 10:37:50.812500,14.78,58.35
216923,2018-06-29 10:37:50.843750,12.8,58.35
216924,2018-06-29 10:37:50.875000,11.39,58.35
216925,2018-06-29 10:37:50.906250,10.24,58.35
216926,2018-06-29 10:37:50.937500,8.51,58.35
216927,2018-06-29 10:37:50.968750,5.18,58.35
216928,2018-06-29 10:37:51.000000,-0.63,58.35
216929,2018-06-29 10:37:51.031250,-8.68,58.35
216930,2018-06-29 10:37:51.062500,-17.52,58.35
216931,2018-06-29 10:37:51.093750,-26.19,58.35
216932,2018-06-29 10:37:51.125000,-35.56,58.35
216933,2018-06-29 10:37:51.156250,-47.39,58.35
216934,2018-06-29 10:37:51.187500,-62.64,58.35
216935,2018-06-29 10:37:51.218750,-79.17,58.35
216936,2018-06-29 10:37:51.250000,-90.31,58.35
216937,2018-06-29 10:37:51.281250,-89.13,58.35
216938,2018-06-29 10:37:51.312500,-75.99,58.35
216939,2018-06-29 10:37:51.343750,-58.56,58.35
216940,2018-06-29 10:37:51.375000,-43.87,58.35
216941,2018-06-29 10:37:51.406250,-34.09,58.35
216942,2018-06-29 10:37:51.437500,-30.19,58.35
216943,2018-06-29 10:37:51.468750,-34.9,58.35
216944,2018-06-29 10:37:51.500000,-50.06,58.35
216945,2018-06-29 10:37:51.531250,-72.94,58.25
216946,2018-06-29 10:37:51.562500,-97.07,58.25
216947,2018-06-29 10:37:51.593750,-116.39,58.25
216948,2018-06-29 10:37:51.625000,-126.0,58.25
216949,2018-06-29 10:37:51.656250,-120.98,58.25
216950,2018-06-29 10:37:51.687500,-100.31,58.25
216951,2018-06-29 10:37:51.718750,-69.33,58.25
216952,2018-06-29 10:37:51.750000,-33.44,58.25
216953,2018-06-29 10:37:51.781250,5.77,58.25
216954,2018-06-29 10:37:51.812500,44.25,58.25
216955,2018-06-29 10:37:51.843750,73.59,58.25
216956,2018-06-29 10:37:51.875000,89.85,58.25
216957,2018-06-29 10:37:51.906250,96.74,58.25
216958,2018-06-29 10:37:51.937500,98.1,58.25
216959,2018-06-29 10:37:51.968750,94.23,58.25
216960,2018-06-29 10:37:52.000000,85.11,58.25
216961,2018-06-29 10:37:52.031250,72.78,58.25
216962,2018-06-29 10:37:52.062500,62.28,58.25
216963,2018-06-29 10:37:52.093750,60.81,58.25
216964,2018-06-29 10:37:52.125000,70.33,58.25
216965,2018-06-29 10:37:52.156250,82.48,58.25
216966,2018-06-29 10:37:52.187500,86.97,58.25
216967,2018-06-29 10:37:52.218750,82.95,58.25
216968,2018-06-29 10:37:52.250000,76.94,58.25
216969,2018-06-29 10:37:52.281250,72.03,58.25
216970,2018-06-29 10:37:52.312500,65.74,58.25
216971,2018-06-29 10:37:52.343750,57.51,58.25
216972,2018-06-29 10:37:52.375000,51.17,58.25
216973,2018-06-29 10:37:52.406250,48.58,58.25
216974,2018-06-29 10:37:52.437500,47.25,58.25
216975,2018-06-29 10:37:52.468750,45.38,58.25
216976,2018-06-29 10:37:52.500000,43.53,58.25
216977,2018-06-29 10:37:52.531250,41.69,58.22
216978,2018-06-29 10:37:52.562500,39.57,58.22
216979,2018-06-29 10:37:52.593750,38.59,58.22
216980,2018-06-29 10:37:52.625000,40.03,58.22
216981,2018-06-29 10:37:52.656250,43.38,58.22
216982,2018-06-29 10:37:52.687500,48.33,58.22
216983,2018-06-29 10:37:52.718750,55.83,58.22
216984,2018-06-29 10:37:52.750000,65.12,58.22
216985,2018-06-29 10:37:52.781250,71.96,58.22
216986,2018-06-29 10:37:52.812500,71.41,58.22
216987,2018-06-29 10:37:52.843750,61.91,58.22
216988,2018-06-29 10:37:52.875000,44.79,58.22
