,Time,ppg,hr
22400,2018-06-29 08:56:32.000000,24.13,51.48
22401,2018-06-29 08:56:32.031250,26.89,51.48
22402,2018-06-29 08:56:32.062500,27.06,51.48
22403,2018-06-29 08:56:32.093750,24.4,51.48
22404,2018-06-29 08:56:32.125000,21.11,51.48
22405,2018-06-29 08:56:32.156250,18.88,51.48
22406,2018-06-29 08:56:32.187500,17.17,51.48
22407,2018-06-29 08:56:32.218750,15.25,51.48
22408,2018-06-29 08:56:32.250000,13.46,51.48
22409,2018-06-29 08:56:32.281250,11.82,51.48
22410,2018-06-29 08:56:32.312500,9.47,51.48
22411,2018-06-29 08:56:32.343750,5.85,51.48
22412,2018-06-29 08:56:32.375000,1.64,51.48
22413,2018-06-29 08:56:32.406250,-1.9,51.48
22414,2018-06-29 08:56:32.437500,-4.81,51.48
22415,2018-06-29 08:56:32.468750,-8.78,51.48
22416,2018-06-29 08:56:32.500000,-14.38,51.48
22417,2018-06-29 08:56:32.531250,-19.93,51.47
22418,2018-06-29 08:56:32.562500,-24.33,51.47
22419,2018-06-29 08:56:32.593750,-29.13,51.47
22420,2018-06-29 08:56:32.625000,-36.73,51.47
22421,2018-06-29 08:56:32.656250,-46.2,51.47
22422,2018-06-29 08:56:32.687500,-51.56,51.47
22423,2018-06-29 08:56:32.718750,-46.54,51.47
22424,2018-06-29 08:56:32.750000,-31.93,51.47
22425,2018-06-29 08:56:32.781250,-15.2,51.47
22426,2018-06-29 08:56:32.812500,-2.32,51.47
22427,2018-06-29 08:56:32.843750,6.12,51.47
22428,2018-06-29 08:56:32.875000,11.43,51.47
22429,2018-06-29 08:56:32.906250,14.37,51.47
22430,2018-06-29 08:56:32.937500,16.02,51.47
22431,2018-06-29 08:56:32.968750,17.77,51.47
22432,2018-06-29 08:56:33.000000,20.12,51.47
22433,2018-06-29 08:56:33.031250,22.75,51.47
22434,2018-06-29 08:56:33.062500,25.38,51.47
22435,2018-06-29 08:56:33.093750,27.51,51.47
22436,2018-06-29 08:56:33.125000,28.17,51.47
22437,2018-06-29 08:56:33.156250,26.79,51.47
22438,2018-06-29 08:56:33.187500,24.14,51.47
22439,2018-06-29 08:56:33.218750,21.68,51.47
22440,2018-06-29 08:56:33.250000,20.23,51.47
22441,2018-06-29 08:56:33.281250,19.27,51.47
22442,2018-06-29 08:56:33.312500,17.61,51.47
22443,2018-06-29 08:56:33.343750,15.09,51.47
22444,2018-06-29 08:56:33.375000,12.78,51.47
22445,2018-06-29 08:56:33.406250,11.14,51.47
22446,2018-06-29 08:56:33.437500,9.37,51.47
22447,2018-06-29 08:56:33.468750,6.67,51.47
22448,2018-06-29 08:56:33.500000,2.91,51.47
22449,2018-06-29 08:56:33.531250,-1.37,51.48
22450,2018-06-29 08:56:33.562500,-5.25,51.48
22451,2018-06-29 08:56:33.593750,-8.34,51.48
22452,2018-06-29 08:56:33.625000,-11.47,51.48
22453,2018-06-29 08:56:33.656250,-16.06,51.48
22454,2018-06-29 08:56:33.687500,-22.2,51.48
22455,2018-06-29 08:56:33.718750,-28.14,51.48
22456,2018-06-29 08:56:33.750000,-32.71,51.48
22457,2018-06-29 08:56:33.781250,-37.25,51.48
22458,2018-06-29 08:56:33.812500,-44.23,51.48
22459,2018-06-29 08:56:33.843750,-54.63,51.48
22460,2018-06-29 08:56:33.875000,-65.19,51.48
22461,2018-06-29 08:56:33.906250,-68.33,51.48
22462,2018-06-29 08:56:33.937500,-59.19,51.48
22463,2018-06-29 08:56:33.968750,-41.92,51.48
22464,2018-06-29 08:56:34.000000,-24.89,51.48
22465,2018-06-29 08:56:34.031250,-11.98,51.48
22466,2018-06-29 08:56:34.062500,-2.05,51.48
22467,2018-06-29 08:56:34.093750,6.46,51.48
22468,2018-06-29 08:56:34.125000,13.5,51.48
22469,2018-06-29 08:56:34.156250,18.45,51.48
22470,2018-06-29 08:56:34.187500,21.64,51.48
22471,2018-06-29 08:56:34.218750,24.2,51.48
22472,2018-06-29 08:56:34.250000,26.72,51.48
22473,2018-06-29 08:56:34.281250,29.27,51.48
22474,2018-06-29 08:56:34.312500,31.77,51.48
22475,2018-06-29 08:56:34.343750,33.66,51.48
22476,2018-06-29 08:56:34.375000,33.85,51.48
22477,2018-06-29 08:56:34.406250,31.99,51.48
22478,2018-06-29 08:56:34.437500,29.23,51.48
22479,2018-06-29 08:56:34.468750,27.25,51.48
22480,2018-06-29 08:56:34.500000,26.33,51.48
22481,2018-06-29 08:56:34.531250,25.27,51.5
22482,2018-06-29 08:56:34.562500,23.48,51.5
22483,2018-06-29 08:56:34.593750,21.7,51.5
22484,2018-06-29 08:56:34.625000,20.39,51.5
22485,2018-06-29 08:56:34.656250,18.8,51.5
22486,2018-06-29 08:56:34.687500,16.09,51.5
22487,2018-06-29 08:56:34.718750,12.6,51.5
22488,2018-06-29 08:56:34.750000,9.29,51.5
22489,2018-06-29 08:56:34.781250,6.51,51.5
22490,2018-06-29 08:56:34.812500,3.59,51.5
22491,2018-06-29 08:56:34.843750,-0.09,51.5
22492,2018-06-29 08:56:34.875000,-4.32,51.5
22493,2018-06-29 08:56:34.906250,-8.52,51.5
22494,2018-06-29 08:56:34.937500,-12.51,51.5
22495,2018-06-29 08:56:34.968750,-16.65,51.5
22496,2018-06-29 08:56:35.000000,-21.7,51.5
22497,2018-06-29 08:56:35.031250,-27.62,51.5
22498,2018-06-29 08:56:35.062500,-33.07,51.5
22499,2018-06-29 08:56:35.093750,-37.85,51.5
22500,2018-06-29 08:56:35.125000,-44.37,51.5
22501,2018-06-29 08:56:35.156250,-54.68,51.5
22502,2018-06-29 08:56:35.187500,-65.9,51.5
22503,2018-06-29 08:56:35.218750,-70.09,51.5
22504,2018-06-29 08:56:35.250000,-61.63,51.5
22505,2018-06-29 08:56:35.281250,-43.94,51.5
22506,2018-06-29 08:56:35.312500,-26.17,51.5
22507,2018-06-29 08:56:35.343750,-13.46,51.5
22508,2018-06-29 08:56:35.375000,-4.29,51.5
22509,2018-06-29 08:56:35.406250,4.08,51.5
22510,2018-06-29 08:56:35.437500,11.66,51.5
22511,2018-06-29 08:56:35.468750,17.14,51.5
22512,2018-06-29 08:56:35.500000,20.61,51.5
22513,2018-06-29 08:56:35.531250,23.61,51.53
22514,2018-06-29 08:56:35.562500,27.27,51.53
22515,2018-06-29 08:56:35.593750,31.2,51.53
22516,2018-06-29 08:56:35.625000,34.34,51.53
22517,2018-06-29 08:56:35.656250,36.03,51.53
22518,2018-06-29 08:56:35.687500,35.76,51.53
22519,2018-06-29 08:56:35.718750,33.25,51.53
22520,2018-06-29 08:56:35.750000,29.97,51.53
22521,2018-06-29 08:56:35.781250,28.29,51.53
22522,2018-06-29 08:56:35.812500,27.87,51.53
22523,2018-06-29 08:56:35.843750,26.4,51.53
22524,2018-06-29 08:56:35.875000,23.8,51.53
22525,2018-06-29 08:56:35.906250,21.88,51.53
22526,2018-06-29 08:56:35.937500,20.7,51.53
22527,2018-06-29 08:56:35.968750,19.11,51.53
22528,2018-06-29 08:56:36.000000,17.02,51.53
22529,2018-06-29 08:56:36.031250,14.65,51.53
22530,2018-06-29 08:56:36.062500,11.69,51.53
22531,2018-06-29 08:56:36.093750,8.44,51.53
22532,2018-06-29 08:56:36.125000,5.57,51.53
22533,2018-06-29 08:56:36.156250,2.71,51.53
22534,2018-06-29 08:56:36.187500,-0.96,51.53
22535,2018-06-29 08:56:36.218750,-5.04,51.53
22536,2018-06-29 08:56:36.250000,-8.87,51.53
22537,2018-06-29 08:56:36.281250,-13.13,51.53
22538,2018-06-29 08:56:36.312500,-18.62,51.53
22539,2018-06-29 08:56:36.343750,-24.35,51.53
22540,2018-06-29 08:56:36.375000,-29.03,51.53
22541,2018-06-29 08:56:36.406250,-33.68,51.53
22542,2018-06-29 08:56:36.437500,-40.85,51.53
22543,2018-06-29 08:56:36.468750,-51.25,51.53
22544,2018-06-29 08:56:36.500000,-60.7,51.53
22545,2018-06-29 08:56:36.531250,-61.8,50.78
22546,2018-06-29 08:56:36.562500,-51.12,50.78
22547,2018-06-29 08:56:36.593750,-33.54,50.78
22548,2018-06-29 08:56:36.625000,-16.9,50.78
22549,2018-06-29 08:56:36.656250,-4.82,50.78
22550,2018-06-29 08:56:36.687500,3.18,50.78
22551,2018-06-29 08:56:36.718750,8.17,50.78
22552,2018-06-29 08:56:36.750000,10.69,50.78
22553,2018-06-29 08:56:36.781250,11.77,50.78
22554,2018-06-29 08:56:36.812500,13.07,50.78
22555,2018-06-29 08:56:36.843750,15.56,50.78
22556,2018-06-29 08:56:36.875000,18.66,50.78
22557,2018-06-29 08:56:36.906250,21.18,50.78
22558,2018-06-29 08:56:36.937500,22.38,50.78
22559,2018-06-29 08:56:36.968750,21.97,50.78
22560,2018-06-29 08:56:37.000000,19.94,50.78
22561,2018-06-29 08:56:37.031250,16.88,50.78
22562,2018-06-29 08:56:37.062500,14.03,50.78
22563,2018-06-29 08:56:37.093750,12.64,50.78
22564,2018-06-29 08:56:37.125000,12.59,50.78
22565,2018-06-29 08:56:37.156250,12.46,50.78
22566,2018-06-29 08:56:37.187500,11.4,50.78
22567,2018-06-29 08:56:37.218750,10.47,50.78
22568,2018-06-29 08:56:37.250000,11.04,50.78
22569,2018-06-29 08:56:37.281250,12.19,50.78
22570,2018-06-29 08:56:37.312500,11.41,50.78
22571,2018-06-29 08:56:37.343750,7.98,50.78
22572,2018-06-29 08:56:37.375000,3.53,50.78
22573,2018-06-29 08:56:37.406250,-1.16,50.78
22574,2018-06-29 08:56:37.437500,-7.55,50.78
22575,2018-06-29 08:56:37.468750,-16.72,50.78
22576,2018-06-29 08:56:37.500000,-27.6,50.78
22577,2018-06-29 08:56:37.531250,-38.82,50.15
22578,2018-06-29 08:56:37.562500,-50.67,50.15
22579,2018-06-29 08:56:37.593750,-64.55,50.15
22580,2018-06-29 08:56:37.625000,-80.78,50.15
22581,2018-06-29 08:56:37.656250,-96.12,50.15
22582,2018-06-29 08:56:37.687500,-104.3,50.15
22583,2018-06-29 08:56:37.718750,-101.49,50.15
22584,2018-06-29 08:56:37.750000,-90.92,50.15
22585,2018-06-29 08:56:37.781250,-79.67,50.15
22586,2018-06-29 08:56:37.812500,-72.49,50.15
22587,2018-06-29 08:56:37.843750,-69.96,50.15
22588,2018-06-29 08:56:37.875000,-70.04,50.15
22589,2018-06-29 08:56:37.906250,-69.06,50.15
22590,2018-06-29 08:56:37.937500,-63.54,50.15
22591,2018-06-29 08:56:37.968750,-53.83,50.15
22592,2018-06-29 08:56:38.000000,-43.83,50.15
22593,2018-06-29 08:56:38.031250,-34.86,50.15
22594,2018-06-29 08:56:38.062500,-22.78,50.15
22595,2018-06-29 08:56:38.093750,-3.18,50.15
22596,2018-06-29 08:56:38.125000,23.12,50.15
22597,2018-06-29 08:56:38.156250,49.16,50.15
22598,2018-06-29 08:56:38.187500,66.15,50.15
22599,2018-06-29 08:56:38.218750,72.49,50.15
22600,2018-06-29 08:56:38.250000,75.77,50.15
22601,2018-06-29 08:56:38.281250,82.86,50.15
22602,2018-06-29 08:56:38.312500,94.18,50.15
22603,2018-06-29 08:56:38.343750,109.14,50.15
22604,2018-06-29 08:56:38.375000,127.07,50.15
22605,2018-06-29 08:56:38.406250,143.02,50.15
22606,2018-06-29 08:56:38.437500,151.36,50.15
22607,2018-06-29 08:56:38.468750,151.55,50.15
22608,2018-06-29 08:56:38.500000,146.73,50.15
22609,2018-06-29 08:56:38.531250,140.73,50.27
22610,2018-06-29 08:56:38.562500,136.87,50.27
22611,2018-06-29 08:56:38.593750,135.54,50.27
22612,2018-06-29 08:56:38.625000,133.44,50.27
22613,2018-06-29 08:56:38.656250,127.14,50.27
22614,2018-06-29 08:56:38.687500,115.2,50.27
22615,2018-06-29 08:56:38.718750,97.26,50.27
22616,2018-06-29 08:56:38.750000,74.42,50.27
22617,2018-06-29 08:56:38.781250,50.13,50.27
22618,2018-06-29 08:56:38.812500,27.89,50.27
22619,2018-06-29 08:56:38.843750,8.81,50.27
22620,2018-06-29 08:56:38.875000,-7.38,50.27
22621,2018-06-29 08:56:38.906250,-21.37,50.27
22622,2018-06-29 08:56:38.937500,-34.68,50.27
22623,2018-06-29 08:56:38.968750,-46.5,50.27
22624,2018-06-29 08:56:39.000000,-51.09,50.27
22625,2018-06-29 08:56:39.031250,-44.51,50.27
22626,2018-06-29 08:56:39.062500,-31.71,50.27
22627,2018-06-29 08:56:39.093750,-20.26,50.27
22628,2018-06-29 08:56:39.125000,-10.7,50.27
22629,2018-06-29 08:56:39.156250,0.33,50.27
22630,2018-06-29 08:56:39.187500,12.9,50.27
22631,2018-06-29 08:56:39.218750,24.15,50.27
22632,2018-06-29 08:56:39.250000,30.98,50.27
22633,2018-06-29 08:56:39.281250,30.26,50.27
22634,2018-06-29 08:56:39.312500,21.64,50.27
22635,2018-06-29 08:56:39.343750,10.12,50.27
22636,2018-06-29 08:56:39.375000,0.76,50.27
22637,2018-06-29 08:56:39.406250,-7.49,50.27
22638,2018-06-29 08:56:39.437500,-18.2,50.27
22639,2018-06-29 08:56:39.468750,-30.84,50.27
22640,2018-06-29 08:56:39.500000,-42.2,50.27
22641,2018-06-29 08:56:39.531250,-50.67,50.42
22642,2018-06-29 08:56:39.562500,-56.26,50.42
22643,2018-06-29 08:56:39.593750,-59.27,50.42
22644,2018-06-29 08:56:39.625000,-61.2,50.42
22645,2018-06-29 08:56:39.656250,-64.07,50.42
22646,2018-06-29 08:56:39.687500,-67.24,50.42
22647,2018-06-29 08:56:39.718750,-67.37,50.42
22648,2018-06-29 08:56:39.750000,-63.0,50.42
22649,2018-06-29 08:56:39.781250,-57.83,50.42
22650,2018-06-29 08:56:39.812500,-56.53,50.42
22651,2018-06-29 08:56:39.843750,-58.15,50.42
22652,2018-06-29 08:56:39.875000,-58.02,50.42
22653,2018-06-29 08:56:39.906250,-55.44,50.42
22654,2018-06-29 08:56:39.937500,-54.81,50.42
22655,2018-06-29 08:56:39.968750,-58.17,50.42
22656,2018-06-29 08:56:40.000000,-61.81,50.42
22657,2018-06-29 08:56:40.031250,-62.96,50.42
22658,2018-06-29 08:56:40.062500,-65.19,50.42
22659,2018-06-29 08:56:40.093750,-74.35,50.42
22660,2018-06-29 08:56:40.125000,-90.74,50.42
22661,2018-06-29 08:56:40.156250,-102.97,50.42
22662,2018-06-29 08:56:40.187500,-89.9,50.42
22663,2018-06-29 08:56:40.218750,-40.34,50.42
22664,2018-06-29 08:56:40.250000,26.25,50.42
22665,2018-06-29 08:56:40.281250,74.63,50.42
22666,2018-06-29 08:56:40.312500,89.45,50.42
22667,2018-06-29 08:56:40.343750,79.15,50.42
22668,2018-06-29 08:56:40.375000,51.57,50.42
22669,2018-06-29 08:56:40.406250,10.13,50.42
22670,2018-06-29 08:56:40.437500,-30.67,50.42
22671,2018-06-29 08:56:40.468750,-52.46,50.42
22672,2018-06-29 08:56:40.500000,-55.03,50.42
22673,2018-06-29 08:56:40.531250,-50.79,50.57
22674,2018-06-29 08:56:40.562500,-42.6,50.57
22675,2018-06-29 08:56:40.593750,-26.24,50.57
22676,2018-06-29 08:56:40.625000,-7.01,50.57
22677,2018-06-29 08:56:40.656250,5.11,50.57
22678,2018-06-29 08:56:40.687500,10.14,50.57
22679,2018-06-29 08:56:40.718750,14.7,50.57
22680,2018-06-29 08:56:40.750000,20.51,50.57
22681,2018-06-29 08:56:40.781250,24.38,50.57
22682,2018-06-29 08:56:40.812500,24.16,50.57
22683,2018-06-29 08:56:40.843750,20.29,50.57
22684,2018-06-29 08:56:40.875000,14.24,50.57
22685,2018-06-29 08:56:40.906250,7.49,50.57
22686,2018-06-29 08:56:40.937500,0.65,50.57
22687,2018-06-29 08:56:40.968750,-6.09,50.57
22688,2018-06-29 08:56:41.000000,-10.57,50.57
22689,2018-06-29 08:56:41.031250,-9.65,50.57
22690,2018-06-29 08:56:41.062500,-3.65,50.57
22691,2018-06-29 08:56:41.093750,2.62,50.57
22692,2018-06-29 08:56:41.125000,4.56,50.57
22693,2018-06-29 08:56:41.156250,1.78,50.57
22694,2018-06-29 08:56:41.187500,-3.08,50.57
22695,2018-06-29 08:56:41.218750,-8.14,50.57
22696,2018-06-29 08:56:41.250000,-13.8,50.57
22697,2018-06-29 08:56:41.281250,-20.74,50.57
22698,2018-06-29 08:56:41.312500,-28.15,50.57
22699,2018-06-29 08:56:41.343750,-34.72,50.57
22700,2018-06-29 08:56:41.375000,-40.35,50.57
22701,2018-06-29 08:56:41.406250,-47.12,50.57
22702,2018-06-29 08:56:41.437500,-58.19,50.57
22703,2018-06-29 08:56:41.468750,-73.34,50.57
22704,2018-06-29 08:56:41.500000,-85.38,50.57
22705,2018-06-29 08:56:41.531250,-85.02,50.7
22706,2018-06-29 08:56:41.562500,-69.9,50.7
22707,2018-06-29 08:56:41.593750,-45.88,50.7
22708,2018-06-29 08:56:41.625000,-20.04,50.7
22709,2018-06-29 08:56:41.656250,4.0,50.7
22710,2018-06-29 08:56:41.687500,24.62,50.7
22711,2018-06-29 08:56:41.718750,40.22,50.7
22712,2018-06-29 08:56:41.750000,49.58,50.7
22713,2018-06-29 08:56:41.781250,53.41,50.7
22714,2018-06-29 08:56:41.812500,55.28,50.7
22715,2018-06-29 08:56:41.843750,59.15,50.7
22716,2018-06-29 08:56:41.875000,65.36,50.7
22717,2018-06-29 08:56:41.906250,70.77,50.7
22718,2018-06-29 08:56:41.937500,72.5,50.7
22719,2018-06-29 08:56:41.968750,70.18,50.7
22720,2018-06-29 08:56:42.000000,65.1,50.7
22721,2018-06-29 08:56:42.031250,58.46,50.7
22722,2018-06-29 08:56:42.062500,51.57,50.7
22723,2018-06-29 08:56:42.093750,46.21,50.7
22724,2018-06-29 08:56:42.125000,43.15,50.7
22725,2018-06-29 08:56:42.156250,41.39,50.7
22726,2018-06-29 08:56:42.187500,40.29,50.7
22727,2018-06-29 08:56:42.218750,40.46,50.7
22728,2018-06-29 08:56:42.250000,41.03,50.7
22729,2018-06-29 08:56:42.281250,39.32,50.7
22730,2018-06-29 08:56:42.312500,34.83,50.7
22731,2018-06-29 08:56:42.343750,30.14,50.7
22732,2018-06-29 08:56:42.375000,26.91,50.7
22733,2018-06-29 08:56:42.406250,24.07,50.7
22734,2018-06-29 08:56:42.437500,20.37,50.7
22735,2018-06-29 08:56:42.468750,16.02,50.7
22736,2018-06-29 08:56:42.500000,11.63,50.7
22737,2018-06-29 08:56:42.531250,6.96,50.92
22738,2018-06-29 08:56:42.562500,0.94,50.92
22739,2018-06-29 08:56:42.593750,-6.72,50.92
22740,2018-06-29 08:56:42.625000,-14.84,50.92
22741,2018-06-29 08:56:42.656250,-22.86,50.92
22742,2018-06-29 08:56:42.687500,-32.57,50.92
22743,2018-06-29 08:56:42.718750,-46.53,50.92
22744,2018-06-29 08:56:42.750000,-65.06,50.92
22745,2018-06-29 08:56:42.781250,-83.14,50.92
22746,2018-06-29 08:56:42.812500,-91.35,50.92
22747,2018-06-29 08:56:42.843750,-83.34,50.92
22748,2018-06-29 08:56:42.875000,-62.45,50.92
22749,2018-06-29 08:56:42.906250,-38.57,50.92
22750,2018-06-29 08:56:42.937500,-19.01,50.92
22751,2018-06-29 08:56:42.968750,-4.68,50.92
22752,2018-06-29 08:56:43.000000,6.55,50.92
22753,2018-06-29 08:56:43.031250,16.03,50.92
22754,2018-06-29 08:56:43.062500,24.28,50.92
22755,2018-06-29 08:56:43.093750,32.21,50.92
22756,2018-06-29 08:56:43.125000,40.2,50.92
22757,2018-06-29 08:56:43.156250,47.57,50.92
22758,2018-06-29 08:56:43.187500,54.86,50.92
22759,2018-06-29 08:56:43.218750,63.84,50.92
22760,2018-06-29 08:56:43.250000,73.7,50.92
22761,2018-06-29 08:56:43.281250,80.32,50.92
22762,2018-06-29 08:56:43.312500,81.54,50.92
22763,2018-06-29 08:56:43.343750,79.54,50.92
22764,2018-06-29 08:56:43.375000,76.45,50.92
22765,2018-06-29 08:56:43.406250,71.72,50.92
22766,2018-06-29 08:56:43.437500,64.74,50.92
22767,2018-06-29 08:56:43.468750,56.63,50.92
22768,2018-06-29 08:56:43.500000,48.89,50.92
22769,2018-06-29 08:56:43.531250,41.59,51.13
22770,2018-06-29 08:56:43.562500,33.29,51.13
22771,2018-06-29 08:56:43.593750,23.0,51.13
22772,2018-06-29 08:56:43.625000,11.86,51.13
22773,2018-06-29 08:56:43.656250,1.82,51.13
22774,2018-06-29 08:56:43.687500,-7.14,51.13
22775,2018-06-29 08:56:43.718750,-16.23,51.13
22776,2018-06-29 08:56:43.750000,-24.98,51.13
22777,2018-06-29 08:56:43.781250,-32.14,51.13
22778,2018-06-29 08:56:43.812500,-39.22,51.13
22779,2018-06-29 08:56:43.843750,-49.81,51.13
22780,2018-06-29 08:56:43.875000,-64.95,51.13
22781,2018-06-29 08:56:43.906250,-79.65,51.13
22782,2018-06-29 08:56:43.937500,-85.01,51.13
22783,2018-06-29 08:56:43.968750,-75.54,51.13
22784,2018-06-29 08:56:44.000000,-54.3,51.13
22785,2018-06-29 08:56:44.031250,-29.35,51.13
22786,2018-06-29 08:56:44.062500,-7.24,51.13
22787,2018-06-29 08:56:44.093750,8.67,51.13
22788,2018-06-29 08:56:44.125000,17.35,51.13
22789,2018-06-29 08:56:44.156250,20.48,51.13
22790,2018-06-29 08:56:44.187500,21.63,51.13
22791,2018-06-29 08:56:44.218750,23.93,51.13
22792,2018-06-29 08:56:44.250000,28.45,51.13
22793,2018-06-29 08:56:44.281250,34.2,51.13
22794,2018-06-29 08:56:44.312500,39.42,51.13
22795,2018-06-29 08:56:44.343750,43.05,51.13
22796,2018-06-29 08:56:44.375000,44.52,51.13
22797,2018-06-29 08:56:44.406250,43.1,51.13
22798,2018-06-29 08:56:44.437500,38.92,51.13
22799,2018-06-29 08:56:44.468750,33.98,51.13
22800,2018-06-29 08:56:44.500000,30.17,51.13
22801,2018-06-29 08:56:44.531250,27.01,51.35
22802,2018-06-29 08:56:44.562500,23.35,51.35
22803,2018-06-29 08:56:44.593750,19.76,51.35
22804,2018-06-29 08:56:44.625000,17.18,51.35
22805,2018-06-29 08:56:44.656250,14.46,51.35
22806,2018-06-29 08:56:44.687500,9.5,51.35
22807,2018-06-29 08:56:44.718750,2.33,51.35
22808,2018-06-29 08:56:44.750000,-4.95,51.35
22809,2018-06-29 08:56:44.781250,-11.37,51.35
22810,2018-06-29 08:56:44.812500,-18.16,51.35
22811,2018-06-29 08:56:44.843750,-26.29,51.35
22812,2018-06-29 08:56:44.875000,-34.82,51.35
22813,2018-06-29 08:56:44.906250,-42.72,51.35
22814,2018-06-29 08:56:44.937500,-51.25,51.35
22815,2018-06-29 08:56:44.968750,-63.01,51.35
22816,2018-06-29 08:56:45.000000,-77.12,51.35
22817,2018-06-29 08:56:45.031250,-86.2,51.35
22818,2018-06-29 08:56:45.062500,-81.79,51.35
22819,2018-06-29 08:56:45.093750,-63.49,51.35
22820,2018-06-29 08:56:45.125000,-39.0,51.35
22821,2018-06-29 08:56:45.156250,-16.22,51.35
22822,2018-06-29 08:56:45.187500,1.67,51.35
22823,2018-06-29 08:56:45.218750,15.22,51.35
22824,2018-06-29 08:56:45.250000,25.56,51.35
22825,2018-06-29 08:56:45.281250,32.66,51.35
22826,2018-06-29 08:56:45.312500,36.71,51.35
22827,2018-06-29 08:56:45.343750,39.53,51.35
22828,2018-06-29 08:56:45.375000,42.83,51.35
22829,2018-06-29 08:56:45.406250,46.63,51.35
22830,2018-06-29 08:56:45.437500,49.85,51.35
22831,2018-06-29 08:56:45.468750,51.11,51.35
22832,2018-06-29 08:56:45.500000,49.6,51.35
22833,2018-06-29 08:56:45.531250,46.09,51.53
22834,2018-06-29 08:56:45.562500,42.31,51.53
22835,2018-06-29 08:56:45.593750,39.3,51.53
22836,2018-06-29 08:56:45.625000,36.74,51.53
22837,2018-06-29 08:56:45.656250,33.58,51.53
22838,2018-06-29 08:56:45.687500,29.62,51.53
22839,2018-06-29 08:56:45.718750,26.1,51.53
22840,2018-06-29 08:56:45.750000,23.92,51.53
22841,2018-06-29 08:56:45.781250,22.07,51.53
22842,2018-06-29 08:56:45.812500,19.06,51.53
22843,2018-06-29 08:56:45.843750,14.91,51.53
22844,2018-06-29 08:56:45.875000,10.93,51.53
22845,2018-06-29 08:56:45.906250,7.77,51.53
22846,2018-06-29 08:56:45.937500,4.24,51.53
22847,2018-06-29 08:56:45.968750,-0.94,51.53
22848,2018-06-29 08:56:46.000000,-6.8,51.53
22849,2018-06-29 08:56:46.031250,-11.44,51.53
22850,2018-06-29 08:56:46.062500,-15.26,51.53
22851,2018-06-29 08:56:46.093750,-20.37,51.53
22852,2018-06-29 08:56:46.125000,-27.03,51.53
22853,2018-06-29 08:56:46.156250,-33.5,51.53
22854,2018-06-29 08:56:46.187500,-39.26,51.53
22855,2018-06-29 08:56:46.218750,-45.72,51.53
22856,2018-06-29 08:56:46.250000,-54.67,51.53
22857,2018-06-29 08:56:46.281250,-66.19,51.53
22858,2018-06-29 08:56:46.312500,-75.48,51.53
22859,2018-06-29 08:56:46.343750,-74.39,51.53
22860,2018-06-29 08:56:46.375000,-60.07,51.53
22861,2018-06-29 08:56:46.406250,-39.28,51.53
22862,2018-06-29 08:56:46.437500,-20.75,51.53
22863,2018-06-29 08:56:46.468750,-7.16,51.53
22864,2018-06-29 08:56:46.500000,3.39,51.53
22865,2018-06-29 08:56:46.531250,11.85,51.7
22866,2018-06-29 08:56:46.562500,17.38,51.7
22867,2018-06-29 08:56:46.593750,20.21,51.7
22868,2018-06-29 08:56:46.625000,22.44,51.7
22869,2018-06-29 08:56:46.656250,25.27,51.7
22870,2018-06-29 08:56:46.687500,28.31,51.7
22871,2018-06-29 08:56:46.718750,31.47,51.7
22872,2018-06-29 08:56:46.750000,34.22,51.7
22873,2018-06-29 08:56:46.781250,34.4,51.7
22874,2018-06-29 08:56:46.812500,31.33,51.7
22875,2018-06-29 08:56:46.843750,27.91,51.7
22876,2018-06-29 08:56:46.875000,26.42,51.7
22877,2018-06-29 08:56:46.906250,25.15,51.7
22878,2018-06-29 08:56:46.937500,22.17,51.7
22879,2018-06-29 08:56:46.968750,18.64,51.7
22880,2018-06-29 08:56:47.000000,16.5,51.7
22881,2018-06-29 08:56:47.031250,15.35,51.7
22882,2018-06-29 08:56:47.062500,13.22,51.7
22883,2018-06-29 08:56:47.093750,9.0,51.7
22884,2018-06-29 08:56:47.125000,3.78,51.7
22885,2018-06-29 08:56:47.156250,-0.54,51.7
22886,2018-06-29 08:56:47.187500,-3.57,51.7
22887,2018-06-29 08:56:47.218750,-6.74,51.7
22888,2018-06-29 08:56:47.250000,-11.41,51.7
22889,2018-06-29 08:56:47.281250,-17.29,51.7
22890,2018-06-29 08:56:47.312500,-22.93,51.7
22891,2018-06-29 08:56:47.343750,-27.62,51.7
22892,2018-06-29 08:56:47.375000,-32.73,51.7
22893,2018-06-29 08:56:47.406250,-40.5,51.7
22894,2018-06-29 08:56:47.437500,-50.68,51.7
22895,2018-06-29 08:56:47.468750,-58.36,51.7
22896,2018-06-29 08:56:47.500000,-56.74,51.7
22897,2018-06-29 08:56:47.531250,-44.24,51.92
22898,2018-06-29 08:56:47.562500,-27.04,51.92
22899,2018-06-29 08:56:47.593750,-12.28,51.92
22900,2018-06-29 08:56:47.625000,-1.59,51.92
22901,2018-06-29 08:56:47.656250,6.23,51.92
22902,2018-06-29 08:56:47.687500,11.2,51.92
22903,2018-06-29 08:56:47.718750,13.68,51.92
22904,2018-06-29 08:56:47.750000,15.47,51.92
22905,2018-06-29 08:56:47.781250,17.52,51.92
22906,2018-06-29 08:56:47.812500,19.71,51.92
22907,2018-06-29 08:56:47.843750,22.22,51.92
22908,2018-06-29 08:56:47.875000,24.74,51.92
22909,2018-06-29 08:56:47.906250,26.11,51.92
22910,2018-06-29 08:56:47.937500,25.56,51.92
22911,2018-06-29 08:56:47.968750,23.41,51.92
22912,2018-06-29 08:56:48.000000,20.63,51.92
22913,2018-06-29 08:56:48.031250,18.2,51.92
22914,2018-06-29 08:56:48.062500,16.29,51.92
22915,2018-06-29 08:56:48.093750,14.46,51.92
22916,2018-06-29 08:56:48.125000,12.39,51.92
22917,2018-06-29 08:56:48.156250,9.92,51.92
22918,2018-06-29 08:56:48.187500,7.1,51.92
22919,2018-06-29 08:56:48.218750,4.72,51.92
22920,2018-06-29 08:56:48.250000,3.31,51.92
22921,2018-06-29 08:56:48.281250,1.8,51.92
22922,2018-06-29 08:56:48.312500,-1.26,51.92
22923,2018-06-29 08:56:48.343750,-5.64,51.92
22924,2018-06-29 08:56:48.375000,-9.94,51.92
22925,2018-06-29 08:56:48.406250,-13.76,51.92
22926,2018-06-29 08:56:48.437500,-17.88,51.92
22927,2018-06-29 08:56:48.468750,-22.65,51.92
22928,2018-06-29 08:56:48.500000,-27.45,51.92
22929,2018-06-29 08:56:48.531250,-31.89,52.08
22930,2018-06-29 08:56:48.562500,-36.55,52.08
22931,2018-06-29 08:56:48.593750,-42.82,52.08
22932,2018-06-29 08:56:48.625000,-51.66,52.08
22933,2018-06-29 08:56:48.656250,-60.61,52.08
22934,2018-06-29 08:56:48.687500,-63.3,52.08
22935,2018-06-29 08:56:48.718750,-55.09,52.08
22936,2018-06-29 08:56:48.750000,-38.83,52.08
22937,2018-06-29 08:56:48.781250,-22.15,52.08
22938,2018-06-29 08:56:48.812500,-9.66,52.08
22939,2018-06-29 08:56:48.843750,-0.82,52.08
22940,2018-06-29 08:56:48.875000,6.17,52.08
22941,2018-06-29 08:56:48.906250,11.72,52.08
22942,2018-06-29 08:56:48.937500,15.62,52.08
22943,2018-06-29 08:56:48.968750,18.21,52.08
22944,2018-06-29 08:56:49.000000,20.47,52.08
22945,2018-06-29 08:56:49.031250,22.99,52.08
22946,2018-06-29 08:56:49.062500,25.39,52.08
22947,2018-06-29 08:56:49.093750,27.13,52.08
22948,2018-06-29 08:56:49.125000,28.04,52.08
22949,2018-06-29 08:56:49.156250,27.43,52.08
22950,2018-06-29 08:56:49.187500,24.9,52.08
22951,2018-06-29 08:56:49.218750,21.82,52.08
22952,2018-06-29 08:56:49.250000,19.8,52.08
22953,2018-06-29 08:56:49.281250,18.26,52.08
22954,2018-06-29 08:56:49.312500,16.07,52.08
22955,2018-06-29 08:56:49.343750,13.68,52.08
22956,2018-06-29 08:56:49.375000,11.66,52.08
22957,2018-06-29 08:56:49.406250,9.52,52.08
22958,2018-06-29 08:56:49.437500,6.83,52.08
22959,2018-06-29 08:56:49.468750,3.82,52.08
22960,2018-06-29 08:56:49.500000,0.71,52.08
22961,2018-06-29 08:56:49.531250,-2.58,52.18
22962,2018-06-29 08:56:49.562500,-6.13,52.18
22963,2018-06-29 08:56:49.593750,-9.95,52.18
22964,2018-06-29 08:56:49.625000,-14.07,52.18
22965,2018-06-29 08:56:49.656250,-18.43,52.18
22966,2018-06-29 08:56:49.687500,-22.56,52.18
22967,2018-06-29 08:56:49.718750,-25.6,52.18
22968,2018-06-29 08:56:49.750000,-27.69,52.18
22969,2018-06-29 08:56:49.781250,-30.92,52.18
22970,2018-06-29 08:56:49.812500,-36.71,52.18
22971,2018-06-29 08:56:49.843750,-43.15,52.18
22972,2018-06-29 08:56:49.875000,-46.72,52.18
22973,2018-06-29 08:56:49.906250,-46.66,52.18
22974,2018-06-29 08:56:49.937500,-45.64,52.18
22975,2018-06-29 08:56:49.968750,-46.84,52.18
22976,2018-06-29 08:56:50.000000,-50.71,52.18
22977,2018-06-29 08:56:50.031250,-53.17,52.18
22978,2018-06-29 08:56:50.062500,-48.21,52.18
22979,2018-06-29 08:56:50.093750,-34.27,52.18
22980,2018-06-29 08:56:50.125000,-16.16,52.18
22981,2018-06-29 08:56:50.156250,0.25,52.18
22982,2018-06-29 08:56:50.187500,12.35,52.18
22983,2018-06-29 08:56:50.218750,20.72,52.18
22984,2018-06-29 08:56:50.250000,27.2,52.18
22985,2018-06-29 08:56:50.281250,32.66,52.18
22986,2018-06-29 08:56:50.312500,36.58,52.18
22987,2018-06-29 08:56:50.343750,38.94,52.18
22988,2018-06-29 08:56:50.375000,40.76,52.18
22989,2018-06-29 08:56:50.406250,42.62,52.18
22990,2018-06-29 08:56:50.437500,44.41,52.18
22991,2018-06-29 08:56:50.468750,45.44,52.18
22992,2018-06-29 08:56:50.500000,44.38,52.18
22993,2018-06-29 08:56:50.531250,40.05,52.23
22994,2018-06-29 08:56:50.562500,33.07,52.23
22995,2018-06-29 08:56:50.593750,25.54,52.23
22996,2018-06-29 08:56:50.625000,18.73,52.23
22997,2018-06-29 08:56:50.656250,12.03,52.23
22998,2018-06-29 08:56:50.687500,4.95,52.23
22999,2018-06-29 08:56:50.718750,-1.11,52.23
23000,2018-06-29 08:56:50.750000,-4.43,52.23
23001,2018-06-29 08:56:50.781250,-4.92,52.23
23002,2018-06-29 08:56:50.812500,-4.08,52.23
23003,2018-06-29 08:56:50.843750,-3.6,52.23
23004,2018-06-29 08:56:50.875000,-3.83,52.23
23005,2018-06-29 08:56:50.906250,-3.09,52.23
23006,2018-06-29 08:56:50.937500,0.76,52.23
23007,2018-06-29 08:56:50.968750,7.22,52.23
23008,2018-06-29 08:56:51.000000,12.57,52.23
23009,2018-06-29 08:56:51.031250,13.53,52.23
23010,2018-06-29 08:56:51.062500,10.73,52.23
23011,2018-06-29 08:56:51.093750,6.75,52.23
23012,2018-06-29 08:56:51.125000,2.49,52.23
23013,2018-06-29 08:56:51.156250,-2.6,52.23
23014,2018-06-29 08:56:51.187500,-8.33,52.23
23015,2018-06-29 08:56:51.218750,-14.18,52.23
23016,2018-06-29 08:56:51.250000,-20.18,52.23
23017,2018-06-29 08:56:51.281250,-26.5,52.23
23018,2018-06-29 08:56:51.312500,-33.54,52.23
23019,2018-06-29 08:56:51.343750,-41.77,52.23
23020,2018-06-29 08:56:51.375000,-48.89,52.23
23021,2018-06-29 08:56:51.406250,-49.23,52.23
23022,2018-06-29 08:56:51.437500,-40.09,52.23
23023,2018-06-29 08:56:51.468750,-26.04,52.23
23024,2018-06-29 08:56:51.500000,-13.59,52.23
23025,2018-06-29 08:56:51.531250,-4.97,52.23
23026,2018-06-29 08:56:51.562500,1.05,52.23
23027,2018-06-29 08:56:51.593750,5.44,52.23
23028,2018-06-29 08:56:51.625000,8.06,52.23
23029,2018-06-29 08:56:51.656250,9.13,52.23
23030,2018-06-29 08:56:51.687500,9.92,52.23
23031,2018-06-29 08:56:51.718750,11.55,52.23
23032,2018-06-29 08:56:51.750000,13.83,52.23
23033,2018-06-29 08:56:51.781250,16.38,52.23
23034,2018-06-29 08:56:51.812500,18.96,52.23
23035,2018-06-29 08:56:51.843750,20.17,52.23
23036,2018-06-29 08:56:51.875000,18.73,52.23
23037,2018-06-29 08:56:51.906250,15.76,52.23
23038,2018-06-29 08:56:51.937500,13.55,52.23
23039,2018-06-29 08:56:51.968750,12.84,52.23
23040,2018-06-29 08:56:52.000000,12.75,52.23
23041,2018-06-29 08:56:52.031250,12.09,52.23
23042,2018-06-29 08:56:52.062500,10.38,52.23
23043,2018-06-29 08:56:52.093750,8.25,52.23
23044,2018-06-29 08:56:52.125000,6.65,52.23
23045,2018-06-29 08:56:52.156250,5.35,52.23
23046,2018-06-29 08:56:52.187500,3.3,52.23
23047,2018-06-29 08:56:52.218750,0.31,52.23
23048,2018-06-29 08:56:52.250000,-2.68,52.23
23049,2018-06-29 08:56:52.281250,-5.27,52.23
23050,2018-06-29 08:56:52.312500,-8.39,52.23
23051,2018-06-29 08:56:52.343750,-12.76,52.23
23052,2018-06-29 08:56:52.375000,-17.3,52.23
23053,2018-06-29 08:56:52.406250,-20.84,52.23
23054,2018-06-29 08:56:52.437500,-24.15,52.23
23055,2018-06-29 08:56:52.468750,-28.77,52.23
23056,2018-06-29 08:56:52.500000,-35.26,52.23
23057,2018-06-29 08:56:52.531250,-43.59,52.18
23058,2018-06-29 08:56:52.562500,-51.86,52.18
23059,2018-06-29 08:56:52.593750,-54.63,52.18
23060,2018-06-29 08:56:52.625000,-47.5,52.18
23061,2018-06-29 08:56:52.656250,-33.0,52.18
23062,2018-06-29 08:56:52.687500,-17.86,52.18
23063,2018-06-29 08:56:52.718750,-5.83,52.18
23064,2018-06-29 08:56:52.750000,3.28,52.18
23065,2018-06-29 08:56:52.781250,10.15,52.18
23066,2018-06-29 08:56:52.812500,14.7,52.18
23067,2018-06-29 08:56:52.843750,16.99,52.18
23068,2018-06-29 08:56:52.875000,18.0,52.18
23069,2018-06-29 08:56:52.906250,19.05,52.18
23070,2018-06-29 08:56:52.937500,20.56,52.18
23071,2018-06-29 08:56:52.968750,22.49,52.18
23072,2018-06-29 08:56:53.000000,24.98,52.18
23073,2018-06-29 08:56:53.031250,26.95,52.18
23074,2018-06-29 08:56:53.062500,26.4,52.18
23075,2018-06-29 08:56:53.093750,23.24,52.18
23076,2018-06-29 08:56:53.125000,19.55,52.18
23077,2018-06-29 08:56:53.156250,16.8,52.18
23078,2018-06-29 08:56:53.187500,14.9,52.18
23079,2018-06-29 08:56:53.218750,13.53,52.18
23080,2018-06-29 08:56:53.250000,12.72,52.18
23081,2018-06-29 08:56:53.281250,12.13,52.18
23082,2018-06-29 08:56:53.312500,10.83,52.18
23083,2018-06-29 08:56:53.343750,8.11,52.18
23084,2018-06-29 08:56:53.375000,4.76,52.18
23085,2018-06-29 08:56:53.406250,2.35,52.18
23086,2018-06-29 08:56:53.437500,0.5,52.18
23087,2018-06-29 08:56:53.468750,-2.99,52.18
23088,2018-06-29 08:56:53.500000,-8.82,52.18
23089,2018-06-29 08:56:53.531250,-14.88,52.1
23090,2018-06-29 08:56:53.562500,-18.79,52.1
23091,2018-06-29 08:56:53.593750,-20.32,52.1
23092,2018-06-29 08:56:53.625000,-21.12,52.1
23093,2018-06-29 08:56:53.656250,-22.85,52.1
23094,2018-06-29 08:56:53.687500,-25.6,52.1
23095,2018-06-29 08:56:53.718750,-28.37,52.1
23096,2018-06-29 08:56:53.750000,-31.56,52.1
23097,2018-06-29 08:56:53.781250,-36.66,52.1
23098,2018-06-29 08:56:53.812500,-42.49,52.1
23099,2018-06-29 08:56:53.843750,-44.02,52.1
23100,2018-06-29 08:56:53.875000,-37.39,52.1
23101,2018-06-29 08:56:53.906250,-24.58,52.1
23102,2018-06-29 08:56:53.937500,-11.16,52.1
23103,2018-06-29 08:56:53.968750,-0.73,52.1
23104,2018-06-29 08:56:54.000000,6.67,52.1
23105,2018-06-29 08:56:54.031250,11.85,52.1
23106,2018-06-29 08:56:54.062500,14.87,52.1
23107,2018-06-29 08:56:54.093750,16.46,52.1
23108,2018-06-29 08:56:54.125000,18.18,52.1
23109,2018-06-29 08:56:54.156250,20.56,52.1
23110,2018-06-29 08:56:54.187500,22.97,52.1
23111,2018-06-29 08:56:54.218750,25.35,52.1
23112,2018-06-29 08:56:54.250000,27.85,52.1
23113,2018-06-29 08:56:54.281250,29.47,52.1
23114,2018-06-29 08:56:54.312500,29.23,52.1
23115,2018-06-29 08:56:54.343750,27.49,52.1
23116,2018-06-29 08:56:54.375000,24.9,52.1
23117,2018-06-29 08:56:54.406250,22.08,52.1
23118,2018-06-29 08:56:54.437500,20.01,52.1
23119,2018-06-29 08:56:54.468750,18.67,52.1
23120,2018-06-29 08:56:54.500000,16.7,52.1
23121,2018-06-29 08:56:54.531250,13.93,52.02
23122,2018-06-29 08:56:54.562500,11.49,52.02
23123,2018-06-29 08:56:54.593750,9.26,52.02
23124,2018-06-29 08:56:54.625000,6.05,52.02
23125,2018-06-29 08:56:54.656250,1.52,52.02
23126,2018-06-29 08:56:54.687500,-3.94,52.02
23127,2018-06-29 08:56:54.718750,-9.04,52.02
23128,2018-06-29 08:56:54.750000,-11.83,52.02
23129,2018-06-29 08:56:54.781250,-12.66,52.02
23130,2018-06-29 08:56:54.812500,-14.63,52.02
23131,2018-06-29 08:56:54.843750,-19.02,52.02
23132,2018-06-29 08:56:54.875000,-23.11,52.02
23133,2018-06-29 08:56:54.906250,-24.26,52.02
23134,2018-06-29 08:56:54.937500,-23.99,52.02
23135,2018-06-29 08:56:54.968750,-26.33,52.02
23136,2018-06-29 08:56:55.000000,-33.01,52.02
23137,2018-06-29 08:56:55.031250,-40.31,52.02
23138,2018-06-29 08:56:55.062500,-41.5,52.02
23139,2018-06-29 08:56:55.093750,-33.12,52.02
23140,2018-06-29 08:56:55.125000,-18.23,52.02
23141,2018-06-29 08:56:55.156250,-3.24,52.02
23142,2018-06-29 08:56:55.187500,7.4,52.02
23143,2018-06-29 08:56:55.218750,13.39,52.02
23144,2018-06-29 08:56:55.250000,16.43,52.02
23145,2018-06-29 08:56:55.281250,17.78,52.02
23146,2018-06-29 08:56:55.312500,18.44,52.02
23147,2018-06-29 08:56:55.343750,19.71,52.02
23148,2018-06-29 08:56:55.375000,22.2,52.02
23149,2018-06-29 08:56:55.406250,25.6,52.02
23150,2018-06-29 08:56:55.437500,29.46,52.02
23151,2018-06-29 08:56:55.468750,32.47,52.02
23152,2018-06-29 08:56:55.500000,32.85,52.02
23153,2018-06-29 08:56:55.531250,30.53,51.92
23154,2018-06-29 08:56:55.562500,27.29,51.92
23155,2018-06-29 08:56:55.593750,24.25,51.92
23156,2018-06-29 08:56:55.625000,21.14,51.92
23157,2018-06-29 08:56:55.656250,17.92,51.92
23158,2018-06-29 08:56:55.687500,15.36,51.92
23159,2018-06-29 08:56:55.718750,13.5,51.92
23160,2018-06-29 08:56:55.750000,11.0,51.92
23161,2018-06-29 08:56:55.781250,7.02,51.92
23162,2018-06-29 08:56:55.812500,2.41,51.92
23163,2018-06-29 08:56:55.843750,-1.49,51.92
23164,2018-06-29 08:56:55.875000,-4.39,51.92
23165,2018-06-29 08:56:55.906250,-7.48,51.92
23166,2018-06-29 08:56:55.937500,-12.27,51.92
23167,2018-06-29 08:56:55.968750,-18.76,51.92
23168,2018-06-29 08:56:56.000000,-25.33,51.92
23169,2018-06-29 08:56:56.031250,-30.84,51.92
23170,2018-06-29 08:56:56.062500,-36.55,51.92
23171,2018-06-29 08:56:56.093750,-44.89,51.92
23172,2018-06-29 08:56:56.125000,-55.39,51.92
23173,2018-06-29 08:56:56.156250,-62.07,51.92
23174,2018-06-29 08:56:56.187500,-57.77,51.92
23175,2018-06-29 08:56:56.218750,-42.3,51.92
23176,2018-06-29 08:56:56.250000,-22.94,51.92
23177,2018-06-29 08:56:56.281250,-6.64,51.92
23178,2018-06-29 08:56:56.312500,4.72,51.92
23179,2018-06-29 08:56:56.343750,12.19,51.92
23180,2018-06-29 08:56:56.375000,16.79,51.92
23181,2018-06-29 08:56:56.406250,19.01,51.92
23182,2018-06-29 08:56:56.437500,19.86,51.92
23183,2018-06-29 08:56:56.468750,21.26,51.92
23184,2018-06-29 08:56:56.500000,24.39,51.92
23185,2018-06-29 08:56:56.531250,28.43,51.83
23186,2018-06-29 08:56:56.562500,32.01,51.83
23187,2018-06-29 08:56:56.593750,34.44,51.83
23188,2018-06-29 08:56:56.625000,34.8,51.83
23189,2018-06-29 08:56:56.656250,32.65,51.83
23190,2018-06-29 08:56:56.687500,29.27,51.83
23191,2018-06-29 08:56:56.718750,26.23,51.83
23192,2018-06-29 08:56:56.750000,23.36,51.83
23193,2018-06-29 08:56:56.781250,20.0,51.83
23194,2018-06-29 08:56:56.812500,16.71,51.83
23195,2018-06-29 08:56:56.843750,14.55,51.83
23196,2018-06-29 08:56:56.875000,13.31,51.83
23197,2018-06-29 08:56:56.906250,11.26,51.83
23198,2018-06-29 08:56:56.937500,7.11,51.83
23199,2018-06-29 08:56:56.968750,1.92,51.83
23200,2018-06-29 08:56:57.000000,-2.64,51.83
23201,2018-06-29 08:56:57.031250,-6.95,51.83
23202,2018-06-29 08:56:57.062500,-12.23,51.83
23203,2018-06-29 08:56:57.093750,-18.52,51.83
23204,2018-06-29 08:56:57.125000,-25.1,51.83
23205,2018-06-29 08:56:57.156250,-31.29,51.83
23206,2018-06-29 08:56:57.187500,-37.03,51.83
23207,2018-06-29 08:56:57.218750,-44.1,51.83
23208,2018-06-29 08:56:57.250000,-54.82,51.83
23209,2018-06-29 08:56:57.281250,-67.17,51.83
23210,2018-06-29 08:56:57.312500,-73.33,51.83
23211,2018-06-29 08:56:57.343750,-66.34,51.83
23212,2018-06-29 08:56:57.375000,-47.76,51.83
23213,2018-06-29 08:56:57.406250,-26.45,51.83
23214,2018-06-29 08:56:57.437500,-9.64,51.83
23215,2018-06-29 08:56:57.468750,2.01,51.83
23216,2018-06-29 08:56:57.500000,10.7,51.83
23217,2018-06-29 08:56:57.531250,17.15,51.75
23218,2018-06-29 08:56:57.562500,21.4,51.75
23219,2018-06-29 08:56:57.593750,24.45,51.75
23220,2018-06-29 08:56:57.625000,27.41,51.75
23221,2018-06-29 08:56:57.656250,30.61,51.75
23222,2018-06-29 08:56:57.687500,34.21,51.75
23223,2018-06-29 08:56:57.718750,37.85,51.75
23224,2018-06-29 08:56:57.750000,40.31,51.75
23225,2018-06-29 08:56:57.781250,40.35,51.75
23226,2018-06-29 08:56:57.812500,38.03,51.75
23227,2018-06-29 08:56:57.843750,34.69,51.75
23228,2018-06-29 08:56:57.875000,31.69,51.75
23229,2018-06-29 08:56:57.906250,29.16,51.75
23230,2018-06-29 08:56:57.937500,26.42,51.75
23231,2018-06-29 08:56:57.968750,23.65,51.75
23232,2018-06-29 08:56:58.000000,21.5,51.75
23233,2018-06-29 08:56:58.031250,19.61,51.75
23234,2018-06-29 08:56:58.062500,17.04,51.75
23235,2018-06-29 08:56:58.093750,13.64,51.75
23236,2018-06-29 08:56:58.125000,9.95,51.75
23237,2018-06-29 08:56:58.156250,6.11,51.75
23238,2018-06-29 08:56:58.187500,1.91,51.75
23239,2018-06-29 08:56:58.218750,-2.44,51.75
23240,2018-06-29 08:56:58.250000,-6.25,51.75
23241,2018-06-29 08:56:58.281250,-10.17,51.75
23242,2018-06-29 08:56:58.312500,-15.99,51.75
23243,2018-06-29 08:56:58.343750,-23.56,51.75
23244,2018-06-29 08:56:58.375000,-30.69,51.75
23245,2018-06-29 08:56:58.406250,-36.69,51.75
23246,2018-06-29 08:56:58.437500,-43.21,51.75
23247,2018-06-29 08:56:58.468750,-52.26,51.75
23248,2018-06-29 08:56:58.500000,-63.91,51.75
23249,2018-06-29 08:56:58.531250,-73.23,51.67
23250,2018-06-29 08:56:58.562500,-72.07,51.67
23251,2018-06-29 08:56:58.593750,-57.74,51.67
23252,2018-06-29 08:56:58.625000,-36.66,51.67
23253,2018-06-29 08:56:58.656250,-17.19,51.67
23254,2018-06-29 08:56:58.687500,-2.85,51.67
23255,2018-06-29 08:56:58.718750,7.25,51.67
23256,2018-06-29 08:56:58.750000,14.94,51.67
23257,2018-06-29 08:56:58.781250,20.77,51.67
23258,2018-06-29 08:56:58.812500,24.78,51.67
23259,2018-06-29 08:56:58.843750,27.89,51.67
23260,2018-06-29 08:56:58.875000,31.11,51.67
23261,2018-06-29 08:56:58.906250,34.52,51.67
23262,2018-06-29 08:56:58.937500,37.94,51.67
23263,2018-06-29 08:56:58.968750,40.84,51.67
23264,2018-06-29 08:56:59.000000,42.13,51.67
23265,2018-06-29 08:56:59.031250,41.05,51.67
23266,2018-06-29 08:56:59.062500,38.09,51.67
23267,2018-06-29 08:56:59.093750,34.76,51.67
23268,2018-06-29 08:56:59.125000,32.12,51.67
23269,2018-06-29 08:56:59.156250,29.65,51.67
23270,2018-06-29 08:56:59.187500,26.62,51.67
23271,2018-06-29 08:56:59.218750,23.99,51.67
23272,2018-06-29 08:56:59.250000,22.42,51.67
23273,2018-06-29 08:56:59.281250,20.51,51.67
23274,2018-06-29 08:56:59.312500,17.32,51.67
23275,2018-06-29 08:56:59.343750,13.87,51.67
23276,2018-06-29 08:56:59.375000,10.48,51.67
23277,2018-06-29 08:56:59.406250,5.83,51.67
23278,2018-06-29 08:56:59.437500,-0.24,51.67
23279,2018-06-29 08:56:59.468750,-5.78,51.67
23280,2018-06-29 08:56:59.500000,-10.06,51.67
23281,2018-06-29 08:56:59.531250,-14.89,51.58
23282,2018-06-29 08:56:59.562500,-21.12,51.58
23283,2018-06-29 08:56:59.593750,-27.13,51.58
23284,2018-06-29 08:56:59.625000,-32.38,51.58
23285,2018-06-29 08:56:59.656250,-39.13,51.58
23286,2018-06-29 08:56:59.687500,-49.24,51.58
23287,2018-06-29 08:56:59.718750,-61.05,51.58
23288,2018-06-29 08:56:59.750000,-68.77,51.58
23289,2018-06-29 08:56:59.781250,-66.03,51.58
23290,2018-06-29 08:56:59.812500,-52.1,51.58
23291,2018-06-29 08:56:59.843750,-33.04,51.58
23292,2018-06-29 08:56:59.875000,-15.23,51.58
23293,2018-06-29 08:56:59.906250,-1.08,51.58
23294,2018-06-29 08:56:59.937500,9.18,51.58
23295,2018-06-29 08:56:59.968750,15.73,51.58
23296,2018-06-29 08:57:00.000000,19.73,51.58
23297,2018-06-29 08:57:00.031250,22.98,51.58
23298,2018-06-29 08:57:00.062500,26.52,51.58
23299,2018-06-29 08:57:00.093750,30.17,51.58
23300,2018-06-29 08:57:00.125000,33.51,51.58
23301,2018-06-29 08:57:00.156250,36.45,51.58
23302,2018-06-29 08:57:00.187500,38.54,51.58
23303,2018-06-29 08:57:00.218750,38.91,51.58
23304,2018-06-29 08:57:00.250000,37.5,51.58
23305,2018-06-29 08:57:00.281250,35.2,51.58
23306,2018-06-29 08:57:00.312500,32.73,51.58
23307,2018-06-29 08:57:00.343750,30.15,51.58
23308,2018-06-29 08:57:00.375000,27.49,51.58
23309,2018-06-29 08:57:00.406250,25.1,51.58
23310,2018-06-29 08:57:00.437500,22.9,51.58
23311,2018-06-29 08:57:00.468750,20.35,51.58
23312,2018-06-29 08:57:00.500000,17.5,51.58
23313,2018-06-29 08:57:00.531250,14.93,51.52
23314,2018-06-29 08:57:00.562500,12.54,51.52
23315,2018-06-29 08:57:00.593750,9.74,51.52
23316,2018-06-29 08:57:00.625000,6.43,51.52
23317,2018-06-29 08:57:00.656250,2.76,51.52
23318,2018-06-29 08:57:00.687500,-1.28,51.52
23319,2018-06-29 08:57:00.718750,-5.42,51.52
23320,2018-06-29 08:57:00.750000,-9.29,51.52
23321,2018-06-29 08:57:00.781250,-13.52,51.52
23322,2018-06-29 08:57:00.812500,-19.12,51.52
23323,2018-06-29 08:57:00.843750,-25.47,51.52
23324,2018-06-29 08:57:00.875000,-30.66,51.52
23325,2018-06-29 08:57:00.906250,-34.99,51.52
23326,2018-06-29 08:57:00.937500,-41.55,51.52
23327,2018-06-29 08:57:00.968750,-52.15,51.52
23328,2018-06-29 08:57:01.000000,-63.97,51.52
23329,2018-06-29 08:57:01.031250,-70.21,51.52
23330,2018-06-29 08:57:01.062500,-64.63,51.52
23331,2018-06-29 08:57:01.093750,-47.61,51.52
23332,2018-06-29 08:57:01.125000,-26.71,51.52
23333,2018-06-29 08:57:01.156250,-9.56,51.52
23334,2018-06-29 08:57:01.187500,1.97,51.52
23335,2018-06-29 08:57:01.218750,10.05,51.52
23336,2018-06-29 08:57:01.250000,16.31,51.52
23337,2018-06-29 08:57:01.281250,20.61,51.52
23338,2018-06-29 08:57:01.312500,22.68,51.52
23339,2018-06-29 08:57:01.343750,23.59,51.52
23340,2018-06-29 08:57:01.375000,25.22,51.52
23341,2018-06-29 08:57:01.406250,28.48,51.52
23342,2018-06-29 08:57:01.437500,32.55,51.52
23343,2018-06-29 08:57:01.468750,35.71,51.52
23344,2018-06-29 08:57:01.500000,36.61,51.52
23345,2018-06-29 08:57:01.531250,35.04,51.45
23346,2018-06-29 08:57:01.562500,32.0,51.45
23347,2018-06-29 08:57:01.593750,28.82,51.45
23348,2018-06-29 08:57:01.625000,26.19,51.45
23349,2018-06-29 08:57:01.656250,23.94,51.45
23350,2018-06-29 08:57:01.687500,21.7,51.45
23351,2018-06-29 08:57:01.718750,19.71,51.45
23352,2018-06-29 08:57:01.750000,18.32,51.45
23353,2018-06-29 08:57:01.781250,16.98,51.45
23354,2018-06-29 08:57:01.812500,14.75,51.45
23355,2018-06-29 08:57:01.843750,11.67,51.45
23356,2018-06-29 08:57:01.875000,8.65,51.45
23357,2018-06-29 08:57:01.906250,5.8,51.45
23358,2018-06-29 08:57:01.937500,2.37,51.45
23359,2018-06-29 08:57:01.968750,-1.72,51.45
23360,2018-06-29 08:57:02.000000,-5.46,51.45
23361,2018-06-29 08:57:02.031250,-8.36,51.45
23362,2018-06-29 08:57:02.062500,-11.66,51.45
23363,2018-06-29 08:57:02.093750,-16.58,51.45
23364,2018-06-29 08:57:02.125000,-22.5,51.45
23365,2018-06-29 08:57:02.156250,-28.07,51.45
23366,2018-06-29 08:57:02.187500,-33.12,51.45
23367,2018-06-29 08:57:02.218750,-38.98,51.45
23368,2018-06-29 08:57:02.250000,-47.68,51.45
23369,2018-06-29 08:57:02.281250,-58.92,51.45
23370,2018-06-29 08:57:02.312500,-66.69,51.45
23371,2018-06-29 08:57:02.343750,-62.9,51.45
23372,2018-06-29 08:57:02.375000,-46.92,51.45
23373,2018-06-29 08:57:02.406250,-27.15,51.45
23374,2018-06-29 08:57:02.437500,-11.32,51.45
23375,2018-06-29 08:57:02.468750,-0.31,51.45
23376,2018-06-29 08:57:02.500000,7.67,51.45
23377,2018-06-29 08:57:02.531250,12.89,51.4
23378,2018-06-29 08:57:02.562500,15.65,51.4
23379,2018-06-29 08:57:02.593750,17.53,51.4
23380,2018-06-29 08:57:02.625000,19.63,51.4
23381,2018-06-29 08:57:02.656250,21.95,51.4
23382,2018-06-29 08:57:02.687500,24.68,51.4
23383,2018-06-29 08:57:02.718750,27.61,51.4
23384,2018-06-29 08:57:02.750000,29.21,51.4
23385,2018-06-29 08:57:02.781250,28.19,51.4
23386,2018-06-29 08:57:02.812500,25.1,51.4
23387,2018-06-29 08:57:02.843750,21.01,51.4
23388,2018-06-29 08:57:02.875000,16.11,51.4
23389,2018-06-29 08:57:02.906250,10.64,51.4
23390,2018-06-29 08:57:02.937500,5.45,51.4
23391,2018-06-29 08:57:02.968750,1.09,51.4
23392,2018-06-29 08:57:03.000000,-2.9,51.4
23393,2018-06-29 08:57:03.031250,-7.6,51.4
23394,2018-06-29 08:57:03.062500,-13.95,51.4
23395,2018-06-29 08:57:03.093750,-21.65,51.4
23396,2018-06-29 08:57:03.125000,-29.13,51.4
23397,2018-06-29 08:57:03.156250,-35.54,51.4
23398,2018-06-29 08:57:03.187500,-42.18,51.4
23399,2018-06-29 08:57:03.218750,-50.2,51.4
23400,2018-06-29 08:57:03.250000,-58.46,51.4
23401,2018-06-29 08:57:03.281250,-65.31,51.4
23402,2018-06-29 08:57:03.312500,-70.23,51.4
23403,2018-06-29 08:57:03.343750,-72.11,51.4
23404,2018-06-29 08:57:03.375000,-68.2,51.4
23405,2018-06-29 08:57:03.406250,-56.49,51.4
23406,2018-06-29 08:57:03.437500,-38.07,51.4
23407,2018-06-29 08:57:03.468750,-17.2,51.4
23408,2018-06-29 08:57:03.500000,-0.19,51.4
23409,2018-06-29 08:57:03.531250,8.18,51.35
23410,2018-06-29 08:57:03.562500,9.35,51.35
23411,2018-06-29 08:57:03.593750,10.09,51.35
23412,2018-06-29 08:57:03.625000,16.06,51.35
23413,2018-06-29 08:57:03.656250,28.49,51.35
23414,2018-06-29 08:57:03.687500,45.47,51.35
23415,2018-06-29 08:57:03.718750,62.59,51.35
23416,2018-06-29 08:57:03.750000,73.8,51.35
23417,2018-06-29 08:57:03.781250,75.98,51.35
23418,2018-06-29 08:57:03.812500,71.77,51.35
23419,2018-06-29 08:57:03.843750,66.49,51.35
23420,2018-06-29 08:57:03.875000,62.82,51.35
23421,2018-06-29 08:57:03.906250,59.57,51.35
23422,2018-06-29 08:57:03.937500,55.18,51.35
23423,2018-06-29 08:57:03.968750,50.37,51.35
23424,2018-06-29 08:57:04.000000,45.9,51.35
23425,2018-06-29 08:57:04.031250,39.99,51.35
23426,2018-06-29 08:57:04.062500,30.3,51.35
23427,2018-06-29 08:57:04.093750,17.8,51.35
23428,2018-06-29 08:57:04.125000,7.78,51.35
23429,2018-06-29 08:57:04.156250,5.27,51.35
23430,2018-06-29 08:57:04.187500,8.68,51.35
23431,2018-06-29 08:57:04.218750,10.86,51.35
23432,2018-06-29 08:57:04.250000,6.5,51.35
23433,2018-06-29 08:57:04.281250,-3.71,51.35
23434,2018-06-29 08:57:04.312500,-14.44,51.35
23435,2018-06-29 08:57:04.343750,-19.06,51.35
23436,2018-06-29 08:57:04.375000,-15.07,51.35
23437,2018-06-29 08:57:04.406250,-7.08,51.35
23438,2018-06-29 08:57:04.437500,-1.61,51.35
23439,2018-06-29 08:57:04.468750,-0.79,51.35
23440,2018-06-29 08:57:04.500000,-3.07,51.35
23441,2018-06-29 08:57:04.531250,-7.39,51.3
23442,2018-06-29 08:57:04.562500,-14.35,51.3
23443,2018-06-29 08:57:04.593750,-23.56,51.3
23444,2018-06-29 08:57:04.625000,-30.87,51.3
23445,2018-06-29 08:57:04.656250,-30.89,51.3
23446,2018-06-29 08:57:04.687500,-23.05,51.3
23447,2018-06-29 08:57:04.718750,-11.79,51.3
23448,2018-06-29 08:57:04.750000,-0.97,51.3
23449,2018-06-29 08:57:04.781250,7.81,51.3
23450,2018-06-29 08:57:04.812500,12.85,51.3
23451,2018-06-29 08:57:04.843750,13.17,51.3
23452,2018-06-29 08:57:04.875000,10.83,51.3
23453,2018-06-29 08:57:04.906250,9.08,51.3
23454,2018-06-29 08:57:04.937500,9.41,51.3
23455,2018-06-29 08:57:04.968750,11.43,51.3
23456,2018-06-29 08:57:05.000000,13.97,51.3
23457,2018-06-29 08:57:05.031250,15.78,51.3
23458,2018-06-29 08:57:05.062500,16.17,51.3
23459,2018-06-29 08:57:05.093750,15.31,51.3
23460,2018-06-29 08:57:05.125000,13.37,51.3
23461,2018-06-29 08:57:05.156250,10.27,51.3
23462,2018-06-29 08:57:05.187500,6.5,51.3
23463,2018-06-29 08:57:05.218750,3.17,51.3
23464,2018-06-29 08:57:05.250000,0.76,51.3
23465,2018-06-29 08:57:05.281250,-1.42,51.3
23466,2018-06-29 08:57:05.312500,-4.29,51.3
23467,2018-06-29 08:57:05.343750,-7.97,51.3
23468,2018-06-29 08:57:05.375000,-12.05,51.3
23469,2018-06-29 08:57:05.406250,-16.7,51.3
23470,2018-06-29 08:57:05.437500,-22.31,51.3
23471,2018-06-29 08:57:05.468750,-28.08,51.3
23472,2018-06-29 08:57:05.500000,-33.02,51.3
23473,2018-06-29 08:57:05.531250,-38.51,51.27
23474,2018-06-29 08:57:05.562500,-46.96,51.27
23475,2018-06-29 08:57:05.593750,-58.24,51.27
23476,2018-06-29 08:57:05.625000,-68.59,51.27
23477,2018-06-29 08:57:05.656250,-71.94,51.27
23478,2018-06-29 08:57:05.687500,-63.59,51.27
23479,2018-06-29 08:57:05.718750,-45.12,51.27
23480,2018-06-29 08:57:05.750000,-24.29,51.27
23481,2018-06-29 08:57:05.781250,-8.15,51.27
23482,2018-06-29 08:57:05.812500,2.48,51.27
23483,2018-06-29 08:57:05.843750,10.89,51.27
23484,2018-06-29 08:57:05.875000,18.68,51.27
23485,2018-06-29 08:57:05.906250,24.21,51.27
23486,2018-06-29 08:57:05.937500,26.72,51.27
23487,2018-06-29 08:57:05.968750,28.79,51.27
23488,2018-06-29 08:57:06.000000,33.04,51.27
23489,2018-06-29 08:57:06.031250,38.48,51.27
23490,2018-06-29 08:57:06.062500,41.6,51.27
23491,2018-06-29 08:57:06.093750,39.7,51.27
23492,2018-06-29 08:57:06.125000,34.37,51.27
23493,2018-06-29 08:57:06.156250,32.25,51.27
23494,2018-06-29 08:57:06.187500,37.26,51.27
23495,2018-06-29 08:57:06.218750,42.39,51.27
23496,2018-06-29 08:57:06.250000,36.5,51.27
23497,2018-06-29 08:57:06.281250,18.82,51.27
23498,2018-06-29 08:57:06.312500,-0.54,51.27
23499,2018-06-29 08:57:06.343750,-12.34,51.27
23500,2018-06-29 08:57:06.375000,-13.45,51.27
23501,2018-06-29 08:57:06.406250,-5.11,51.27
23502,2018-06-29 08:57:06.437500,7.45,51.27
23503,2018-06-29 08:57:06.468750,17.35,51.27
23504,2018-06-29 08:57:06.500000,21.35,51.27
23505,2018-06-29 08:57:06.531250,20.7,51.23
23506,2018-06-29 08:57:06.562500,17.01,51.23
23507,2018-06-29 08:57:06.593750,10.86,51.23
23508,2018-06-29 08:57:06.625000,3.29,51.23
23509,2018-06-29 08:57:06.656250,-4.47,51.23
23510,2018-06-29 08:57:06.687500,-12.15,51.23
23511,2018-06-29 08:57:06.718750,-19.85,51.23
23512,2018-06-29 08:57:06.750000,-27.06,51.23
23513,2018-06-29 08:57:06.781250,-33.34,51.23
23514,2018-06-29 08:57:06.812500,-39.53,51.23
23515,2018-06-29 08:57:06.843750,-47.25,51.23
23516,2018-06-29 08:57:06.875000,-57.52,51.23
23517,2018-06-29 08:57:06.906250,-70.14,51.23
23518,2018-06-29 08:57:06.937500,-81.65,51.23
23519,2018-06-29 08:57:06.968750,-84.22,51.23
23520,2018-06-29 08:57:07.000000,-72.34,51.23
23521,2018-06-29 08:57:07.031250,-51.25,51.23
23522,2018-06-29 08:57:07.062500,-31.63,51.23
23523,2018-06-29 08:57:07.093750,-17.52,51.23
23524,2018-06-29 08:57:07.125000,-5.75,51.23
23525,2018-06-29 08:57:07.156250,5.61,51.23
23526,2018-06-29 08:57:07.187500,15.04,51.23
23527,2018-06-29 08:57:07.218750,21.69,51.23
23528,2018-06-29 08:57:07.250000,26.77,51.23
23529,2018-06-29 08:57:07.281250,31.37,51.23
23530,2018-06-29 08:57:07.312500,35.81,51.23
23531,2018-06-29 08:57:07.343750,39.88,51.23
23532,2018-06-29 08:57:07.375000,42.95,51.23
23533,2018-06-29 08:57:07.406250,44.42,51.23
23534,2018-06-29 08:57:07.437500,44.18,51.23
23535,2018-06-29 08:57:07.468750,42.3,51.23
23536,2018-06-29 08:57:07.500000,39.36,51.23
23537,2018-06-29 08:57:07.531250,36.7,51.22
23538,2018-06-29 08:57:07.562500,34.85,51.22
23539,2018-06-29 08:57:07.593750,33.06,51.22
23540,2018-06-29 08:57:07.625000,30.92,51.22
23541,2018-06-29 08:57:07.656250,28.64,51.22
23542,2018-06-29 08:57:07.687500,26.0,51.22
23543,2018-06-29 08:57:07.718750,22.88,51.22
23544,2018-06-29 08:57:07.750000,20.1,51.22
23545,2018-06-29 08:57:07.781250,17.95,51.22
23546,2018-06-29 08:57:07.812500,15.54,51.22
23547,2018-06-29 08:57:07.843750,12.27,51.22
23548,2018-06-29 08:57:07.875000,8.62,51.22
23549,2018-06-29 08:57:07.906250,5.08,51.22
23550,2018-06-29 08:57:07.937500,1.43,51.22
23551,2018-06-29 08:57:07.968750,-2.33,51.22
23552,2018-06-29 08:57:08.000000,-6.2,51.22
23553,2018-06-29 08:57:08.031250,-10.96,51.22
23554,2018-06-29 08:57:08.062500,-17.23,51.22
23555,2018-06-29 08:57:08.093750,-24.08,51.22
23556,2018-06-29 08:57:08.125000,-30.07,51.22
23557,2018-06-29 08:57:08.156250,-35.25,51.22
23558,2018-06-29 08:57:08.187500,-41.22,51.22
23559,2018-06-29 08:57:08.218750,-49.79,51.22
23560,2018-06-29 08:57:08.250000,-61.14,51.22
23561,2018-06-29 08:57:08.281250,-71.29,51.22
23562,2018-06-29 08:57:08.312500,-72.91,51.22
23563,2018-06-29 08:57:08.343750,-62.01,51.22
23564,2018-06-29 08:57:08.375000,-42.87,51.22
23565,2018-06-29 08:57:08.406250,-23.81,51.22
23566,2018-06-29 08:57:08.437500,-9.46,51.22
23567,2018-06-29 08:57:08.468750,1.17,51.22
23568,2018-06-29 08:57:08.500000,10.29,51.22
23569,2018-06-29 08:57:08.531250,17.89,51.2
23570,2018-06-29 08:57:08.562500,23.15,51.2
23571,2018-06-29 08:57:08.593750,26.73,51.2
23572,2018-06-29 08:57:08.625000,30.06,51.2
23573,2018-06-29 08:57:08.656250,33.45,51.2
23574,2018-06-29 08:57:08.687500,36.4,51.2
23575,2018-06-29 08:57:08.718750,38.8,51.2
23576,2018-06-29 08:57:08.750000,40.31,51.2
23577,2018-06-29 08:57:08.781250,39.55,51.2
23578,2018-06-29 08:57:08.812500,36.21,51.2
23579,2018-06-29 08:57:08.843750,32.71,51.2
23580,2018-06-29 08:57:08.875000,31.24,51.2
23581,2018-06-29 08:57:08.906250,30.65,51.2
23582,2018-06-29 08:57:08.937500,28.97,51.2
23583,2018-06-29 08:57:08.968750,26.59,51.2
23584,2018-06-29 08:57:09.000000,24.59,51.2
23585,2018-06-29 08:57:09.031250,22.51,51.2
23586,2018-06-29 08:57:09.062500,19.58,51.2
23587,2018-06-29 08:57:09.093750,16.37,51.2
23588,2018-06-29 08:57:09.125000,13.64,51.2
23589,2018-06-29 08:57:09.156250,10.73,51.2
23590,2018-06-29 08:57:09.187500,6.32,51.2
23591,2018-06-29 08:57:09.218750,0.8,51.2
23592,2018-06-29 08:57:09.250000,-3.73,51.2
23593,2018-06-29 08:57:09.281250,-6.59,51.2
23594,2018-06-29 08:57:09.312500,-9.72,51.2
23595,2018-06-29 08:57:09.343750,-14.36,51.2
23596,2018-06-29 08:57:09.375000,-19.59,51.2
23597,2018-06-29 08:57:09.406250,-24.74,51.2
23598,2018-06-29 08:57:09.437500,-30.31,51.2
23599,2018-06-29 08:57:09.468750,-36.97,51.2
23600,2018-06-29 08:57:09.500000,-45.19,51.2
23601,2018-06-29 08:57:09.531250,-53.59,51.18
23602,2018-06-29 08:57:09.562500,-56.75,51.18
23603,2018-06-29 08:57:09.593750,-49.28,51.18
23604,2018-06-29 08:57:09.625000,-33.05,51.18
23605,2018-06-29 08:57:09.656250,-15.89,51.18
23606,2018-06-29 08:57:09.687500,-3.09,51.18
23607,2018-06-29 08:57:09.718750,5.66,51.18
23608,2018-06-29 08:57:09.750000,11.54,51.18
23609,2018-06-29 08:57:09.781250,14.24,51.18
23610,2018-06-29 08:57:09.812500,14.87,51.18
23611,2018-06-29 08:57:09.843750,16.03,51.18
23612,2018-06-29 08:57:09.875000,18.57,51.18
23613,2018-06-29 08:57:09.906250,21.77,51.18
23614,2018-06-29 08:57:09.937500,25.23,51.18
23615,2018-06-29 08:57:09.968750,28.31,51.18
23616,2018-06-29 08:57:10.000000,29.7,51.18
23617,2018-06-29 08:57:10.031250,29.01,51.18
23618,2018-06-29 08:57:10.062500,26.76,51.18
23619,2018-06-29 08:57:10.093750,23.38,51.18
23620,2018-06-29 08:57:10.125000,20.0,51.18
23621,2018-06-29 08:57:10.156250,17.86,51.18
23622,2018-06-29 08:57:10.187500,16.03,51.18
23623,2018-06-29 08:57:10.218750,12.59,51.18
23624,2018-06-29 08:57:10.250000,8.33,51.18
23625,2018-06-29 08:57:10.281250,5.37,51.18
23626,2018-06-29 08:57:10.312500,3.1,51.18
23627,2018-06-29 08:57:10.343750,-0.79,51.18
23628,2018-06-29 08:57:10.375000,-6.38,51.18
23629,2018-06-29 08:57:10.406250,-11.55,51.18
23630,2018-06-29 08:57:10.437500,-14.88,51.18
23631,2018-06-29 08:57:10.468750,-17.36,51.18
23632,2018-06-29 08:57:10.500000,-21.24,51.18
23633,2018-06-29 08:57:10.531250,-27.47,51.17
23634,2018-06-29 08:57:10.562500,-34.02,51.17
23635,2018-06-29 08:57:10.593750,-37.72,51.17
23636,2018-06-29 08:57:10.625000,-38.13,51.17
23637,2018-06-29 08:57:10.656250,-38.4,51.17
23638,2018-06-29 08:57:10.687500,-41.01,51.17
23639,2018-06-29 08:57:10.718750,-43.32,51.17
23640,2018-06-29 08:57:10.750000,-39.98,51.17
23641,2018-06-29 08:57:10.781250,-29.9,51.17
23642,2018-06-29 08:57:10.812500,-17.43,51.17
23643,2018-06-29 08:57:10.843750,-6.82,51.17
23644,2018-06-29 08:57:10.875000,1.19,51.17
23645,2018-06-29 08:57:10.906250,7.87,51.17
23646,2018-06-29 08:57:10.937500,13.86,51.17
23647,2018-06-29 08:57:10.968750,18.36,51.17
23648,2018-06-29 08:57:11.000000,20.74,51.17
23649,2018-06-29 08:57:11.031250,22.21,51.17
23650,2018-06-29 08:57:11.062500,24.46,51.17
23651,2018-06-29 08:57:11.093750,27.6,51.17
23652,2018-06-29 08:57:11.125000,30.45,51.17
23653,2018-06-29 08:57:11.156250,32.09,51.17
23654,2018-06-29 08:57:11.187500,32.15,51.17
23655,2018-06-29 08:57:11.218750,30.86,51.17
23656,2018-06-29 08:57:11.250000,29.04,51.17
23657,2018-06-29 08:57:11.281250,27.29,51.17
23658,2018-06-29 08:57:11.312500,25.35,51.17
23659,2018-06-29 08:57:11.343750,22.71,51.17
23660,2018-06-29 08:57:11.375000,19.76,51.17
23661,2018-06-29 08:57:11.406250,17.56,51.17
23662,2018-06-29 08:57:11.437500,16.35,51.17
23663,2018-06-29 08:57:11.468750,15.08,51.17
23664,2018-06-29 08:57:11.500000,12.84,51.17
23665,2018-06-29 08:57:11.531250,10.03,51.15
23666,2018-06-29 08:57:11.562500,7.68,51.15
23667,2018-06-29 08:57:11.593750,5.85,51.15
23668,2018-06-29 08:57:11.625000,3.68,51.15
23669,2018-06-29 08:57:11.656250,0.39,51.15
23670,2018-06-29 08:57:11.687500,-3.96,51.15
23671,2018-06-29 08:57:11.718750,-8.12,51.15
23672,2018-06-29 08:57:11.750000,-10.84,51.15
23673,2018-06-29 08:57:11.781250,-13.26,51.15
23674,2018-06-29 08:57:11.812500,-17.85,51.15
23675,2018-06-29 08:57:11.843750,-24.34,51.15
23676,2018-06-29 08:57:11.875000,-29.96,51.15
23677,2018-06-29 08:57:11.906250,-34.13,51.15
23678,2018-06-29 08:57:11.937500,-39.34,51.15
23679,2018-06-29 08:57:11.968750,-47.35,51.15
23680,2018-06-29 08:57:12.000000,-57.27,51.15
23681,2018-06-29 08:57:12.031250,-65.4,51.15
23682,2018-06-29 08:57:12.062500,-65.8,51.15
23683,2018-06-29 08:57:12.093750,-55.18,51.15
23684,2018-06-29 08:57:12.125000,-37.81,51.15
23685,2018-06-29 08:57:12.156250,-21.49,51.15
23686,2018-06-29 08:57:12.187500,-9.55,51.15
23687,2018-06-29 08:57:12.218750,-0.12,51.15
23688,2018-06-29 08:57:12.250000,8.32,51.15
23689,2018-06-29 08:57:12.281250,14.78,51.15
23690,2018-06-29 08:57:12.312500,18.68,51.15
23691,2018-06-29 08:57:12.343750,21.5,51.15
23692,2018-06-29 08:57:12.375000,24.81,51.15
23693,2018-06-29 08:57:12.406250,28.68,51.15
23694,2018-06-29 08:57:12.437500,32.4,51.15
23695,2018-06-29 08:57:12.468750,35.32,51.15
23696,2018-06-29 08:57:12.500000,36.66,51.15
23697,2018-06-29 08:57:12.531250,35.77,51.13
23698,2018-06-29 08:57:12.562500,33.15,51.13
23699,2018-06-29 08:57:12.593750,30.31,51.13
23700,2018-06-29 08:57:12.625000,28.24,51.13
23701,2018-06-29 08:57:12.656250,26.47,51.13
23702,2018-06-29 08:57:12.687500,24.26,51.13
23703,2018-06-29 08:57:12.718750,21.84,51.13
23704,2018-06-29 08:57:12.750000,19.91,51.13
23705,2018-06-29 08:57:12.781250,18.62,51.13
23706,2018-06-29 08:57:12.812500,17.39,51.13
23707,2018-06-29 08:57:12.843750,15.61,51.13
23708,2018-06-29 08:57:12.875000,13.27,51.13
23709,2018-06-29 08:57:12.906250,10.83,51.13
23710,2018-06-29 08:57:12.937500,8.44,51.13
23711,2018-06-29 08:57:12.968750,5.86,51.13
23712,2018-06-29 08:57:13.000000,2.78,51.13
23713,2018-06-29 08:57:13.031250,-0.94,51.13
23714,2018-06-29 08:57:13.062500,-4.81,51.13
23715,2018-06-29 08:57:13.093750,-7.81,51.13
23716,2018-06-29 08:57:13.125000,-10.02,51.13
23717,2018-06-29 08:57:13.156250,-13.35,51.13
23718,2018-06-29 08:57:13.187500,-18.73,51.13
23719,2018-06-29 08:57:13.218750,-24.41,51.13
23720,2018-06-29 08:57:13.250000,-28.95,51.13
23721,2018-06-29 08:57:13.281250,-33.47,51.13
23722,2018-06-29 08:57:13.312500,-40.03,51.13
23723,2018-06-29 08:57:13.343750,-48.78,51.13
23724,2018-06-29 08:57:13.375000,-55.86,51.13
23725,2018-06-29 08:57:13.406250,-55.08,51.13
23726,2018-06-29 08:57:13.437500,-44.02,51.13
23727,2018-06-29 08:57:13.468750,-27.31,51.13
23728,2018-06-29 08:57:13.500000,-11.89,51.13
23729,2018-06-29 08:57:13.531250,-1.08,51.13
23730,2018-06-29 08:57:13.562500,5.62,51.13
23731,2018-06-29 08:57:13.593750,9.63,51.13
23732,2018-06-29 08:57:13.625000,11.82,51.13
23733,2018-06-29 08:57:13.656250,12.98,51.13
23734,2018-06-29 08:57:13.687500,14.27,51.13
23735,2018-06-29 08:57:13.718750,16.34,51.13
23736,2018-06-29 08:57:13.750000,18.77,51.13
23737,2018-06-29 08:57:13.781250,21.15,51.13
23738,2018-06-29 08:57:13.812500,23.4,51.13
23739,2018-06-29 08:57:13.843750,24.53,51.13
23740,2018-06-29 08:57:13.875000,23.25,51.13
23741,2018-06-29 08:57:13.906250,19.85,51.13
23742,2018-06-29 08:57:13.937500,15.99,51.13
23743,2018-06-29 08:57:13.968750,13.03,51.13
23744,2018-06-29 08:57:14.000000,11.17,51.13
23745,2018-06-29 08:57:14.031250,9.61,51.13
23746,2018-06-29 08:57:14.062500,7.32,51.13
23747,2018-06-29 08:57:14.093750,4.26,51.13
23748,2018-06-29 08:57:14.125000,1.22,51.13
23749,2018-06-29 08:57:14.156250,-1.22,51.13
23750,2018-06-29 08:57:14.187500,-3.31,51.13
23751,2018-06-29 08:57:14.218750,-5.45,51.13
23752,2018-06-29 08:57:14.250000,-7.37,51.13
23753,2018-06-29 08:57:14.281250,-8.53,51.13
23754,2018-06-29 08:57:14.312500,-9.05,51.13
23755,2018-06-29 08:57:14.343750,-9.72,51.13
23756,2018-06-29 08:57:14.375000,-10.83,51.13
23757,2018-06-29 08:57:14.406250,-11.41,51.13
23758,2018-06-29 08:57:14.437500,-10.16,51.13
23759,2018-06-29 08:57:14.468750,-7.49,51.13
23760,2018-06-29 08:57:14.500000,-6.18,51.13
23761,2018-06-29 08:57:14.531250,-9.54,51.12
23762,2018-06-29 08:57:14.562500,-19.29,51.12
23763,2018-06-29 08:57:14.593750,-33.34,51.12
23764,2018-06-29 08:57:14.625000,-44.35,51.12
23765,2018-06-29 08:57:14.656250,-44.46,51.12
23766,2018-06-29 08:57:14.687500,-33.62,51.12
23767,2018-06-29 08:57:14.718750,-19.53,51.12
23768,2018-06-29 08:57:14.750000,-8.66,51.12
23769,2018-06-29 08:57:14.781250,-1.02,51.12
23770,2018-06-29 08:57:14.812500,5.42,51.12
23771,2018-06-29 08:57:14.843750,10.28,51.12
23772,2018-06-29 08:57:14.875000,12.82,51.12
23773,2018-06-29 08:57:14.906250,14.74,51.12
23774,2018-06-29 08:57:14.937500,17.58,51.12
23775,2018-06-29 08:57:14.968750,20.49,51.12
23776,2018-06-29 08:57:15.000000,22.64,51.12
23777,2018-06-29 08:57:15.031250,24.56,51.12
23778,2018-06-29 08:57:15.062500,26.16,51.12
23779,2018-06-29 08:57:15.093750,26.5,51.12
23780,2018-06-29 08:57:15.125000,25.61,51.12
23781,2018-06-29 08:57:15.156250,24.42,51.12
23782,2018-06-29 08:57:15.187500,23.14,51.12
23783,2018-06-29 08:57:15.218750,21.6,51.12
23784,2018-06-29 08:57:15.250000,20.21,51.12
23785,2018-06-29 08:57:15.281250,19.4,51.12
23786,2018-06-29 08:57:15.312500,18.68,51.12
23787,2018-06-29 08:57:15.343750,17.35,51.12
23788,2018-06-29 08:57:15.375000,15.49,51.12
23789,2018-06-29 08:57:15.406250,13.25,51.12
23790,2018-06-29 08:57:15.437500,10.15,51.12
23791,2018-06-29 08:57:15.468750,6.38,51.12
23792,2018-06-29 08:57:15.500000,2.95,51.12
23793,2018-06-29 08:57:15.531250,-0.13,51.08
23794,2018-06-29 08:57:15.562500,-3.94,51.08
23795,2018-06-29 08:57:15.593750,-8.3,51.08
23796,2018-06-29 08:57:15.625000,-12.04,51.08
23797,2018-06-29 08:57:15.656250,-15.51,51.08
23798,2018-06-29 08:57:15.687500,-19.96,51.08
23799,2018-06-29 08:57:15.718750,-24.99,51.08
23800,2018-06-29 08:57:15.750000,-29.35,51.08
23801,2018-06-29 08:57:15.781250,-33.62,51.08
23802,2018-06-29 08:57:15.812500,-39.59,51.08
23803,2018-06-29 08:57:15.843750,-47.62,51.08
23804,2018-06-29 08:57:15.875000,-55.7,51.08
23805,2018-06-29 08:57:15.906250,-59.9,51.08
23806,2018-06-29 08:57:15.937500,-55.91,51.08
23807,2018-06-29 08:57:15.968750,-43.13,51.08
23808,2018-06-29 08:57:16.000000,-26.93,51.08
23809,2018-06-29 08:57:16.031250,-13.81,51.08
23810,2018-06-29 08:57:16.062500,-5.28,51.08
23811,2018-06-29 08:57:16.093750,0.92,51.08
23812,2018-06-29 08:57:16.125000,6.09,51.08
23813,2018-06-29 08:57:16.156250,10.17,51.08
23814,2018-06-29 08:57:16.187500,13.18,51.08
23815,2018-06-29 08:57:16.218750,15.4,51.08
23816,2018-06-29 08:57:16.250000,17.24,51.08
23817,2018-06-29 08:57:16.281250,19.46,51.08
23818,2018-06-29 08:57:16.312500,22.36,51.08
23819,2018-06-29 08:57:16.343750,25.3,51.08
23820,2018-06-29 08:57:16.375000,27.29,51.08
23821,2018-06-29 08:57:16.406250,27.88,51.08
23822,2018-06-29 08:57:16.437500,27.67,51.08
23823,2018-06-29 08:57:16.468750,27.57,51.08
23824,2018-06-29 08:57:16.500000,27.52,51.08
23825,2018-06-29 08:57:16.531250,26.86,51.05
23826,2018-06-29 08:57:16.562500,25.43,51.05
23827,2018-06-29 08:57:16.593750,23.43,51.05
23828,2018-06-29 08:57:16.625000,20.77,51.05
23829,2018-06-29 08:57:16.656250,17.39,51.05
23830,2018-06-29 08:57:16.687500,13.66,51.05
23831,2018-06-29 08:57:16.718750,10.27,51.05
23832,2018-06-29 08:57:16.750000,7.54,51.05
23833,2018-06-29 08:57:16.781250,4.8,51.05
23834,2018-06-29 08:57:16.812500,1.27,51.05
23835,2018-06-29 08:57:16.843750,-2.71,51.05
23836,2018-06-29 08:57:16.875000,-6.44,51.05
23837,2018-06-29 08:57:16.906250,-10.41,51.05
23838,2018-06-29 08:57:16.937500,-15.46,51.05
23839,2018-06-29 08:57:16.968750,-21.16,51.05
23840,2018-06-29 08:57:17.000000,-26.21,51.05
23841,2018-06-29 08:57:17.031250,-30.2,51.05
23842,2018-06-29 08:57:17.062500,-34.43,51.05
23843,2018-06-29 08:57:17.093750,-40.95,51.05
23844,2018-06-29 08:57:17.125000,-50.52,51.05
23845,2018-06-29 08:57:17.156250,-60.2,51.05
23846,2018-06-29 08:57:17.187500,-63.64,51.05
23847,2018-06-29 08:57:17.218750,-56.49,51.05
23848,2018-06-29 08:57:17.250000,-42.14,51.05
23849,2018-06-29 08:57:17.281250,-28.77,51.05
23850,2018-06-29 08:57:17.312500,-20.63,51.05
23851,2018-06-29 08:57:17.343750,-15.71,51.05
23852,2018-06-29 08:57:17.375000,-11.21,51.05
23853,2018-06-29 08:57:17.406250,-7.44,51.05
23854,2018-06-29 08:57:17.437500,-6.38,51.05
23855,2018-06-29 08:57:17.468750,-8.0,51.05
23856,2018-06-29 08:57:17.500000,-7.9,51.05
23857,2018-06-29 08:57:17.531250,-0.84,51.02
23858,2018-06-29 08:57:17.562500,12.9,51.02
23859,2018-06-29 08:57:17.593750,27.32,51.02
23860,2018-06-29 08:57:17.625000,36.94,51.02
23861,2018-06-29 08:57:17.656250,40.11,51.02
23862,2018-06-29 08:57:17.687500,38.08,51.02
23863,2018-06-29 08:57:17.718750,33.88,51.02
23864,2018-06-29 08:57:17.750000,30.66,51.02
23865,2018-06-29 08:57:17.781250,29.26,51.02
23866,2018-06-29 08:57:17.812500,28.57,51.02
23867,2018-06-29 08:57:17.843750,27.95,51.02
23868,2018-06-29 08:57:17.875000,27.73,51.02
23869,2018-06-29 08:57:17.906250,27.79,51.02
23870,2018-06-29 08:57:17.937500,26.96,51.02
23871,2018-06-29 08:57:17.968750,24.13,51.02
23872,2018-06-29 08:57:18.000000,19.84,51.02
23873,2018-06-29 08:57:18.031250,15.54,51.02
23874,2018-06-29 08:57:18.062500,11.51,51.02
23875,2018-06-29 08:57:18.093750,6.83,51.02
23876,2018-06-29 08:57:18.125000,0.39,51.02
23877,2018-06-29 08:57:18.156250,-8.16,51.02
23878,2018-06-29 08:57:18.187500,-17.86,51.02
23879,2018-06-29 08:57:18.218750,-27.03,51.02
23880,2018-06-29 08:57:18.250000,-35.44,51.02
23881,2018-06-29 08:57:18.281250,-44.22,51.02
23882,2018-06-29 08:57:18.312500,-52.79,51.02
23883,2018-06-29 08:57:18.343750,-57.12,51.02
23884,2018-06-29 08:57:18.375000,-52.79,51.02
23885,2018-06-29 08:57:18.406250,-39.66,51.02
23886,2018-06-29 08:57:18.437500,-22.3,51.02
23887,2018-06-29 08:57:18.468750,-5.46,51.02
23888,2018-06-29 08:57:18.500000,8.68,51.02
23889,2018-06-29 08:57:18.531250,19.24,50.97
23890,2018-06-29 08:57:18.562500,25.53,50.97
23891,2018-06-29 08:57:18.593750,28.19,50.97
23892,2018-06-29 08:57:18.625000,29.23,50.97
23893,2018-06-29 08:57:18.656250,30.2,50.97
23894,2018-06-29 08:57:18.687500,31.28,50.97
23895,2018-06-29 08:57:18.718750,32.32,50.97
23896,2018-06-29 08:57:18.750000,33.42,50.97
23897,2018-06-29 08:57:18.781250,33.96,50.97
23898,2018-06-29 08:57:18.812500,32.87,50.97
23899,2018-06-29 08:57:18.843750,30.37,50.97
23900,2018-06-29 08:57:18.875000,27.69,50.97
23901,2018-06-29 08:57:18.906250,25.21,50.97
23902,2018-06-29 08:57:18.937500,22.76,50.97
23903,2018-06-29 08:57:18.968750,20.82,50.97
23904,2018-06-29 08:57:19.000000,19.5,50.97
23905,2018-06-29 08:57:19.031250,17.9,50.97
23906,2018-06-29 08:57:19.062500,15.53,50.97
23907,2018-06-29 08:57:19.093750,12.74,50.97
23908,2018-06-29 08:57:19.125000,9.6,50.97
23909,2018-06-29 08:57:19.156250,6.02,50.97
23910,2018-06-29 08:57:19.187500,2.4,50.97
23911,2018-06-29 08:57:19.218750,-0.96,50.97
23912,2018-06-29 08:57:19.250000,-4.39,50.97
23913,2018-06-29 08:57:19.281250,-8.33,50.97
23914,2018-06-29 08:57:19.312500,-12.95,50.97
23915,2018-06-29 08:57:19.343750,-18.02,50.97
23916,2018-06-29 08:57:19.375000,-23.05,50.97
23917,2018-06-29 08:57:19.406250,-27.9,50.97
23918,2018-06-29 08:57:19.437500,-32.88,50.97
23919,2018-06-29 08:57:19.468750,-38.41,50.97
23920,2018-06-29 08:57:19.500000,-45.62,50.97
23921,2018-06-29 08:57:19.531250,-54.75,50.93
23922,2018-06-29 08:57:19.562500,-61.39,50.93
23923,2018-06-29 08:57:19.593750,-58.67,50.93
23924,2018-06-29 08:57:19.625000,-45.58,50.93
23925,2018-06-29 08:57:19.656250,-28.65,50.93
23926,2018-06-29 08:57:19.687500,-14.37,50.93
23927,2018-06-29 08:57:19.718750,-3.82,50.93
23928,2018-06-29 08:57:19.750000,4.78,50.93
23929,2018-06-29 08:57:19.781250,11.95,50.93
23930,2018-06-29 08:57:19.812500,16.88,50.93
23931,2018-06-29 08:57:19.843750,19.98,50.93
23932,2018-06-29 08:57:19.875000,22.98,50.93
23933,2018-06-29 08:57:19.906250,26.36,50.93
23934,2018-06-29 08:57:19.937500,29.17,50.93
23935,2018-06-29 08:57:19.968750,31.23,50.93
23936,2018-06-29 08:57:20.000000,32.69,50.93
23937,2018-06-29 08:57:20.031250,32.53,50.93
23938,2018-06-29 08:57:20.062500,30.08,50.93
23939,2018-06-29 08:57:20.093750,27.12,50.93
23940,2018-06-29 08:57:20.125000,25.84,50.93
23941,2018-06-29 08:57:20.156250,26.03,50.93
23942,2018-06-29 08:57:20.187500,25.79,50.93
23943,2018-06-29 08:57:20.218750,24.49,50.93
23944,2018-06-29 08:57:20.250000,22.99,50.93
23945,2018-06-29 08:57:20.281250,21.44,50.93
23946,2018-06-29 08:57:20.312500,18.93,50.93
23947,2018-06-29 08:57:20.343750,15.46,50.93
23948,2018-06-29 08:57:20.375000,12.25,50.93
23949,2018-06-29 08:57:20.406250,10.11,50.93
23950,2018-06-29 08:57:20.437500,8.37,50.93
23951,2018-06-29 08:57:20.468750,5.96,50.93
23952,2018-06-29 08:57:20.500000,2.58,50.93
23953,2018-06-29 08:57:20.531250,-1.13,50.9
23954,2018-06-29 08:57:20.562500,-4.48,50.9
23955,2018-06-29 08:57:20.593750,-7.62,50.9
23956,2018-06-29 08:57:20.625000,-11.39,50.9
23957,2018-06-29 08:57:20.656250,-16.22,50.9
23958,2018-06-29 08:57:20.687500,-21.46,50.9
23959,2018-06-29 08:57:20.718750,-26.05,50.9
23960,2018-06-29 08:57:20.750000,-30.62,50.9
23961,2018-06-29 08:57:20.781250,-37.5,50.9
23962,2018-06-29 08:57:20.812500,-46.75,50.9
23963,2018-06-29 08:57:20.843750,-52.91,50.9
23964,2018-06-29 08:57:20.875000,-49.35,50.9
23965,2018-06-29 08:57:20.906250,-36.41,50.9
23966,2018-06-29 08:57:20.937500,-21.02,50.9
23967,2018-06-29 08:57:20.968750,-8.55,50.9
23968,2018-06-29 08:57:21.000000,0.84,50.9
23969,2018-06-29 08:57:21.031250,7.99,50.9
23970,2018-06-29 08:57:21.062500,12.25,50.9
23971,2018-06-29 08:57:21.093750,14.0,50.9
23972,2018-06-29 08:57:21.125000,15.49,50.9
23973,2018-06-29 08:57:21.156250,17.99,50.9
23974,2018-06-29 08:57:21.187500,20.8,50.9
23975,2018-06-29 08:57:21.218750,23.51,50.9
23976,2018-06-29 08:57:21.250000,26.19,50.9
23977,2018-06-29 08:57:21.281250,27.82,50.9
23978,2018-06-29 08:57:21.312500,27.06,50.9
23979,2018-06-29 08:57:21.343750,24.53,50.9
23980,2018-06-29 08:57:21.375000,22.22,50.9
23981,2018-06-29 08:57:21.406250,21.27,50.9
23982,2018-06-29 08:57:21.437500,20.85,50.9
23983,2018-06-29 08:57:21.468750,19.7,50.9
23984,2018-06-29 08:57:21.500000,18.1,50.9
23985,2018-06-29 08:57:21.531250,17.2,50.87
23986,2018-06-29 08:57:21.562500,16.67,50.87
23987,2018-06-29 08:57:21.593750,15.16,50.87
23988,2018-06-29 08:57:21.625000,12.51,50.87
23989,2018-06-29 08:57:21.656250,9.42,50.87
23990,2018-06-29 08:57:21.687500,6.33,50.87
23991,2018-06-29 08:57:21.718750,3.56,50.87
23992,2018-06-29 08:57:21.750000,1.4,50.87
23993,2018-06-29 08:57:21.781250,-0.89,50.87
23994,2018-06-29 08:57:21.812500,-4.35,50.87
23995,2018-06-29 08:57:21.843750,-8.48,50.87
23996,2018-06-29 08:57:21.875000,-11.95,50.87
23997,2018-06-29 08:57:21.906250,-15.2,50.87
23998,2018-06-29 08:57:21.937500,-19.64,50.87
23999,2018-06-29 08:57:21.968750,-24.84,50.87
24000,2018-06-29 08:57:22.000000,-29.46,50.87
24001,2018-06-29 08:57:22.031250,-34.05,50.87
24002,2018-06-29 08:57:22.062500,-40.7,50.87
24003,2018-06-29 08:57:22.093750,-49.86,50.87
24004,2018-06-29 08:57:22.125000,-58.06,50.87
24005,2018-06-29 08:57:22.156250,-59.22,50.87
24006,2018-06-29 08:57:22.187500,-50.05,50.87
24007,2018-06-29 08:57:22.218750,-34.05,50.87
24008,2018-06-29 08:57:22.250000,-18.57,50.87
24009,2018-06-29 08:57:22.281250,-7.66,50.87
24010,2018-06-29 08:57:22.312500,0.24,50.87
24011,2018-06-29 08:57:22.343750,7.48,50.87
24012,2018-06-29 08:57:22.375000,13.55,50.87
24013,2018-06-29 08:57:22.406250,17.29,50.87
24014,2018-06-29 08:57:22.437500,19.63,50.87
24015,2018-06-29 08:57:22.468750,22.18,50.87
24016,2018-06-29 08:57:22.500000,25.15,50.87
24017,2018-06-29 08:57:22.531250,27.77,50.83
24018,2018-06-29 08:57:22.562500,29.49,50.83
24019,2018-06-29 08:57:22.593750,30.25,50.83
24020,2018-06-29 08:57:22.625000,29.98,50.83
24021,2018-06-29 08:57:22.656250,28.71,50.83
24022,2018-06-29 08:57:22.687500,26.91,50.83
24023,2018-06-29 08:57:22.718750,24.95,50.83
24024,2018-06-29 08:57:22.750000,22.83,50.83
24025,2018-06-29 08:57:22.781250,20.81,50.83
24026,2018-06-29 08:57:22.812500,19.18,50.83
24027,2018-06-29 08:57:22.843750,17.66,50.83
24028,2018-06-29 08:57:22.875000,16.04,50.83
24029,2018-06-29 08:57:22.906250,14.23,50.83
24030,2018-06-29 08:57:22.937500,11.92,50.83
24031,2018-06-29 08:57:22.968750,9.55,50.83
24032,2018-06-29 08:57:23.000000,7.96,50.83
24033,2018-06-29 08:57:23.031250,6.74,50.83
24034,2018-06-29 08:57:23.062500,4.9,50.83
24035,2018-06-29 08:57:23.093750,2.83,50.83
24036,2018-06-29 08:57:23.125000,1.31,50.83
24037,2018-06-29 08:57:23.156250,-0.35,50.83
24038,2018-06-29 08:57:23.187500,-3.07,50.83
24039,2018-06-29 08:57:23.218750,-6.46,50.83
24040,2018-06-29 08:57:23.250000,-9.62,50.83
24041,2018-06-29 08:57:23.281250,-12.31,50.83
24042,2018-06-29 08:57:23.312500,-15.42,50.83
24043,2018-06-29 08:57:23.343750,-20.25,50.83
24044,2018-06-29 08:57:23.375000,-26.49,50.83
24045,2018-06-29 08:57:23.406250,-31.95,50.83
24046,2018-06-29 08:57:23.437500,-35.68,50.83
24047,2018-06-29 08:57:23.468750,-39.97,50.83
24048,2018-06-29 08:57:23.500000,-47.23,50.83
24049,2018-06-29 08:57:23.531250,-55.78,50.8
24050,2018-06-29 08:57:23.562500,-60.08,50.8
24051,2018-06-29 08:57:23.593750,-55.55,50.8
24052,2018-06-29 08:57:23.625000,-43.47,50.8
24053,2018-06-29 08:57:23.656250,-29.97,50.8
24054,2018-06-29 08:57:23.687500,-20.0,50.8
24055,2018-06-29 08:57:23.718750,-13.45,50.8
24056,2018-06-29 08:57:23.750000,-7.36,50.8
24057,2018-06-29 08:57:23.781250,-0.55,50.8
24058,2018-06-29 08:57:23.812500,5.65,50.8
24059,2018-06-29 08:57:23.843750,10.72,50.8
24060,2018-06-29 08:57:23.875000,15.82,50.8
24061,2018-06-29 08:57:23.906250,21.17,50.8
24062,2018-06-29 08:57:23.937500,25.99,50.8
24063,2018-06-29 08:57:23.968750,30.86,50.8
24064,2018-06-29 08:57:24.000000,36.53,50.8
24065,2018-06-29 08:57:24.031250,41.35,50.8
24066,2018-06-29 08:57:24.062500,43.04,50.8
24067,2018-06-29 08:57:24.093750,41.75,50.8
24068,2018-06-29 08:57:24.125000,38.89,50.8
24069,2018-06-29 08:57:24.156250,35.02,50.8
24070,2018-06-29 08:57:24.187500,30.48,50.8
24071,2018-06-29 08:57:24.218750,26.48,50.8
24072,2018-06-29 08:57:24.250000,23.74,50.8
24073,2018-06-29 08:57:24.281250,21.26,50.8
24074,2018-06-29 08:57:24.312500,17.9,50.8
24075,2018-06-29 08:57:24.343750,14.03,50.8
24076,2018-06-29 08:57:24.375000,10.56,50.8
24077,2018-06-29 08:57:24.406250,7.74,50.8
24078,2018-06-29 08:57:24.437500,5.34,50.8
24079,2018-06-29 08:57:24.468750,3.19,50.8
24080,2018-06-29 08:57:24.500000,1.02,50.8
24081,2018-06-29 08:57:24.531250,-1.38,50.78
24082,2018-06-29 08:57:24.562500,-4.06,50.78
24083,2018-06-29 08:57:24.593750,-6.86,50.78
24084,2018-06-29 08:57:24.625000,-9.29,50.78
24085,2018-06-29 08:57:24.656250,-11.16,50.78
24086,2018-06-29 08:57:24.687500,-13.29,50.78
24087,2018-06-29 08:57:24.718750,-16.48,50.78
24088,2018-06-29 08:57:24.750000,-20.15,50.78
24089,2018-06-29 08:57:24.781250,-23.32,50.78
24090,2018-06-29 08:57:24.812500,-26.78,50.78
24091,2018-06-29 08:57:24.843750,-32.72,50.78
24092,2018-06-29 08:57:24.875000,-41.22,50.78
24093,2018-06-29 08:57:24.906250,-47.55,50.78
24094,2018-06-29 08:57:24.937500,-45.66,50.78
24095,2018-06-29 08:57:24.968750,-34.92,50.78
24096,2018-06-29 08:57:25.000000,-20.8,50.78
24097,2018-06-29 08:57:25.031250,-8.96,50.78
24098,2018-06-29 08:57:25.062500,-1.18,50.78
24099,2018-06-29 08:57:25.093750,3.5,50.78
24100,2018-06-29 08:57:25.125000,6.26,50.78
24101,2018-06-29 08:57:25.156250,7.91,50.78
24102,2018-06-29 08:57:25.187500,9.14,50.78
24103,2018-06-29 08:57:25.218750,10.64,50.78
24104,2018-06-29 08:57:25.250000,12.73,50.78
24105,2018-06-29 08:57:25.281250,15.27,50.78
24106,2018-06-29 08:57:25.312500,17.74,50.78
24107,2018-06-29 08:57:25.343750,19.24,50.78
24108,2018-06-29 08:57:25.375000,19.3,50.78
24109,2018-06-29 08:57:25.406250,18.21,50.78
24110,2018-06-29 08:57:25.437500,16.54,50.78
24111,2018-06-29 08:57:25.468750,14.71,50.78
24112,2018-06-29 08:57:25.500000,13.2,50.78
24113,2018-06-29 08:57:25.531250,12.21,50.77
24114,2018-06-29 08:57:25.562500,11.3,50.77
24115,2018-06-29 08:57:25.593750,10.16,50.77
24116,2018-06-29 08:57:25.625000,9.07,50.77
24117,2018-06-29 08:57:25.656250,8.04,50.77
24118,2018-06-29 08:57:25.687500,6.71,50.77
24119,2018-06-29 08:57:25.718750,4.99,50.77
24120,2018-06-29 08:57:25.750000,2.84,50.77
24121,2018-06-29 08:57:25.781250,-0.14,50.77
24122,2018-06-29 08:57:25.812500,-3.84,50.77
24123,2018-06-29 08:57:25.843750,-7.27,50.77
24124,2018-06-29 08:57:25.875000,-10.21,50.77
24125,2018-06-29 08:57:25.906250,-13.99,50.77
24126,2018-06-29 08:57:25.937500,-19.64,50.77
24127,2018-06-29 08:57:25.968750,-26.02,50.77
24128,2018-06-29 08:57:26.000000,-31.13,50.77
24129,2018-06-29 08:57:26.031250,-34.97,50.77
24130,2018-06-29 08:57:26.062500,-39.77,50.77
24131,2018-06-29 08:57:26.093750,-47.47,50.77
24132,2018-06-29 08:57:26.125000,-56.82,50.77
24133,2018-06-29 08:57:26.156250,-62.5,50.77
24134,2018-06-29 08:57:26.187500,-59.21,50.77
24135,2018-06-29 08:57:26.218750,-47.77,50.77
24136,2018-06-29 08:57:26.250000,-33.86,50.77
24137,2018-06-29 08:57:26.281250,-21.25,50.77
24138,2018-06-29 08:57:26.312500,-9.98,50.77
24139,2018-06-29 08:57:26.343750,0.26,50.77
24140,2018-06-29 08:57:26.375000,9.21,50.77
24141,2018-06-29 08:57:26.406250,16.53,50.77
24142,2018-06-29 08:57:26.437500,22.06,50.77
24143,2018-06-29 08:57:26.468750,26.74,50.77
24144,2018-06-29 08:57:26.500000,31.79,50.77
24145,2018-06-29 08:57:26.531250,36.83,50.75
24146,2018-06-29 08:57:26.562500,40.93,50.75
24147,2018-06-29 08:57:26.593750,43.86,50.75
24148,2018-06-29 08:57:26.625000,44.45,50.75
24149,2018-06-29 08:57:26.656250,41.25,50.75
24150,2018-06-29 08:57:26.687500,35.74,50.75
24151,2018-06-29 08:57:26.718750,30.83,50.75
24152,2018-06-29 08:57:26.750000,26.82,50.75
24153,2018-06-29 08:57:26.781250,22.56,50.75
24154,2018-06-29 08:57:26.812500,18.5,50.75
24155,2018-06-29 08:57:26.843750,15.39,50.75
24156,2018-06-29 08:57:26.875000,12.55,50.75
24157,2018-06-29 08:57:26.906250,8.89,50.75
24158,2018-06-29 08:57:26.937500,4.01,50.75
24159,2018-06-29 08:57:26.968750,-1.6,50.75
24160,2018-06-29 08:57:27.000000,-6.21,50.75
24161,2018-06-29 08:57:27.031250,-7.86,50.75
24162,2018-06-29 08:57:27.062500,-6.78,50.75
24163,2018-06-29 08:57:27.093750,-5.97,50.75
24164,2018-06-29 08:57:27.125000,-8.25,50.75
24165,2018-06-29 08:57:27.156250,-12.95,50.75
24166,2018-06-29 08:57:27.187500,-16.67,50.75
24167,2018-06-29 08:57:27.218750,-17.21,50.75
24168,2018-06-29 08:57:27.250000,-15.29,50.75
24169,2018-06-29 08:57:27.281250,-13.23,50.75
24170,2018-06-29 08:57:27.312500,-13.39,50.75
24171,2018-06-29 08:57:27.343750,-17.38,50.75
24172,2018-06-29 08:57:27.375000,-25.49,50.75
24173,2018-06-29 08:57:27.406250,-36.41,50.75
24174,2018-06-29 08:57:27.437500,-46.04,50.75
24175,2018-06-29 08:57:27.468750,-48.0,50.75
24176,2018-06-29 08:57:27.500000,-39.67,50.75
24177,2018-06-29 08:57:27.531250,-26.09,50.7
24178,2018-06-29 08:57:27.562500,-14.1,50.7
24179,2018-06-29 08:57:27.593750,-5.7,50.7
24180,2018-06-29 08:57:27.625000,0.47,50.7
24181,2018-06-29 08:57:27.656250,5.53,50.7
24182,2018-06-29 08:57:27.687500,9.94,50.7
24183,2018-06-29 08:57:27.718750,13.53,50.7
24184,2018-06-29 08:57:27.750000,16.12,50.7
24185,2018-06-29 08:57:27.781250,18.51,50.7
24186,2018-06-29 08:57:27.812500,21.26,50.7
24187,2018-06-29 08:57:27.843750,23.73,50.7
24188,2018-06-29 08:57:27.875000,25.67,50.7
24189,2018-06-29 08:57:27.906250,27.24,50.7
24190,2018-06-29 08:57:27.937500,27.36,50.7
24191,2018-06-29 08:57:27.968750,25.36,50.7
24192,2018-06-29 08:57:28.000000,22.99,50.7
24193,2018-06-29 08:57:28.031250,21.84,50.7
24194,2018-06-29 08:57:28.062500,20.95,50.7
24195,2018-06-29 08:57:28.093750,19.15,50.7
24196,2018-06-29 08:57:28.125000,17.1,50.7
24197,2018-06-29 08:57:28.156250,15.62,50.7
24198,2018-06-29 08:57:28.187500,14.42,50.7
24199,2018-06-29 08:57:28.218750,13.0,50.7
24200,2018-06-29 08:57:28.250000,11.18,50.7
24201,2018-06-29 08:57:28.281250,8.75,50.7
24202,2018-06-29 08:57:28.312500,5.49,50.7
24203,2018-06-29 08:57:28.343750,1.68,50.7
24204,2018-06-29 08:57:28.375000,-2.09,50.7
24205,2018-06-29 08:57:28.406250,-5.64,50.7
24206,2018-06-29 08:57:28.437500,-9.24,50.7
24207,2018-06-29 08:57:28.468750,-13.02,50.7
24208,2018-06-29 08:57:28.500000,-16.69,50.7
24209,2018-06-29 08:57:28.531250,-19.95,50.63
24210,2018-06-29 08:57:28.562500,-22.77,50.63
24211,2018-06-29 08:57:28.593750,-26.19,50.63
24212,2018-06-29 08:57:28.625000,-32.19,50.63
24213,2018-06-29 08:57:28.656250,-40.99,50.63
24214,2018-06-29 08:57:28.687500,-48.74,50.63
24215,2018-06-29 08:57:28.718750,-49.69,50.63
24216,2018-06-29 08:57:28.750000,-40.61,50.63
24217,2018-06-29 08:57:28.781250,-23.55,50.63
24218,2018-06-29 08:57:28.812500,-4.96,50.63
24219,2018-06-29 08:57:28.843750,9.01,50.63
24220,2018-06-29 08:57:28.875000,17.01,50.63
24221,2018-06-29 08:57:28.906250,21.0,50.63
24222,2018-06-29 08:57:28.937500,22.06,50.63
24223,2018-06-29 08:57:28.968750,20.79,50.63
24224,2018-06-29 08:57:29.000000,19.51,50.63
24225,2018-06-29 08:57:29.031250,20.12,50.63
24226,2018-06-29 08:57:29.062500,21.95,50.63
24227,2018-06-29 08:57:29.093750,23.94,50.63
24228,2018-06-29 08:57:29.125000,26.07,50.63
24229,2018-06-29 08:57:29.156250,27.5,50.63
24230,2018-06-29 08:57:29.187500,26.74,50.63
24231,2018-06-29 08:57:29.218750,24.15,50.63
24232,2018-06-29 08:57:29.250000,21.73,50.63
24233,2018-06-29 08:57:29.281250,20.32,50.63
24234,2018-06-29 08:57:29.312500,18.93,50.63
24235,2018-06-29 08:57:29.343750,16.66,50.63
24236,2018-06-29 08:57:29.375000,14.0,50.63
24237,2018-06-29 08:57:29.406250,12.0,50.63
24238,2018-06-29 08:57:29.437500,10.67,50.63
24239,2018-06-29 08:57:29.468750,9.12,50.63
24240,2018-06-29 08:57:29.500000,6.51,50.63
24241,2018-06-29 08:57:29.531250,2.64,50.58
24242,2018-06-29 08:57:29.562500,-1.92,50.58
24243,2018-06-29 08:57:29.593750,-6.07,50.58
24244,2018-06-29 08:57:29.625000,-9.36,50.58
24245,2018-06-29 08:57:29.656250,-13.25,50.58
24246,2018-06-29 08:57:29.687500,-19.19,50.58
24247,2018-06-29 08:57:29.718750,-25.89,50.58
24248,2018-06-29 08:57:29.750000,-31.09,50.58
24249,2018-06-29 08:57:29.781250,-35.76,50.58
24250,2018-06-29 08:57:29.812500,-43.38,50.58
24251,2018-06-29 08:57:29.843750,-54.83,50.58
24252,2018-06-29 08:57:29.875000,-65.46,50.58
24253,2018-06-29 08:57:29.906250,-67.66,50.58
24254,2018-06-29 08:57:29.937500,-57.78,50.58
24255,2018-06-29 08:57:29.968750,-40.29,50.58
24256,2018-06-29 08:57:30.000000,-23.0,50.58
24257,2018-06-29 08:57:30.031250,-9.82,50.58
24258,2018-06-29 08:57:30.062500,-0.33,50.58
24259,2018-06-29 08:57:30.093750,6.8,50.58
24260,2018-06-29 08:57:30.125000,12.71,50.58
24261,2018-06-29 08:57:30.156250,18.07,50.58
24262,2018-06-29 08:57:30.187500,22.62,50.58
24263,2018-06-29 08:57:30.218750,26.03,50.58
24264,2018-06-29 08:57:30.250000,29.06,50.58
24265,2018-06-29 08:57:30.281250,32.54,50.58
24266,2018-06-29 08:57:30.312500,35.5,50.58
24267,2018-06-29 08:57:30.343750,36.29,50.58
24268,2018-06-29 08:57:30.375000,35.01,50.58
24269,2018-06-29 08:57:30.406250,33.04,50.58
24270,2018-06-29 08:57:30.437500,30.9,50.58
24271,2018-06-29 08:57:30.468750,28.58,50.58
24272,2018-06-29 08:57:30.500000,26.38,50.58
24273,2018-06-29 08:57:30.531250,24.4,50.52
24274,2018-06-29 08:57:30.562500,22.72,50.52
24275,2018-06-29 08:57:30.593750,21.46,50.52
24276,2018-06-29 08:57:30.625000,20.01,50.52
24277,2018-06-29 08:57:30.656250,17.61,50.52
24278,2018-06-29 08:57:30.687500,14.55,50.52
24279,2018-06-29 08:57:30.718750,11.68,50.52
24280,2018-06-29 08:57:30.750000,9.03,50.52
24281,2018-06-29 08:57:30.781250,5.8,50.52
24282,2018-06-29 08:57:30.812500,1.45,50.52
24283,2018-06-29 08:57:30.843750,-3.39,50.52
24284,2018-06-29 08:57:30.875000,-7.91,50.52
24285,2018-06-29 08:57:30.906250,-12.52,50.52
24286,2018-06-29 08:57:30.937500,-18.27,50.52
24287,2018-06-29 08:57:30.968750,-24.97,50.52
24288,2018-06-29 08:57:31.000000,-31.33,50.52
24289,2018-06-29 08:57:31.031250,-37.07,50.52
24290,2018-06-29 08:57:31.062500,-44.0,50.52
24291,2018-06-29 08:57:31.093750,-54.14,50.52
24292,2018-06-29 08:57:31.125000,-65.4,50.52
24293,2018-06-29 08:57:31.156250,-70.34,50.52
24294,2018-06-29 08:57:31.187500,-62.73,50.52
24295,2018-06-29 08:57:31.218750,-44.79,50.52
24296,2018-06-29 08:57:31.250000,-25.03,50.52
24297,2018-06-29 08:57:31.281250,-9.75,50.52
24298,2018-06-29 08:57:31.312500,0.61,50.52
24299,2018-06-29 08:57:31.343750,8.25,50.52
24300,2018-06-29 08:57:31.375000,14.28,50.52
24301,2018-06-29 08:57:31.406250,18.68,50.52
24302,2018-06-29 08:57:31.437500,21.81,50.52
24303,2018-06-29 08:57:31.468750,24.59,50.52
24304,2018-06-29 08:57:31.500000,27.68,50.52
24305,2018-06-29 08:57:31.531250,31.44,50.45
24306,2018-06-29 08:57:31.562500,35.58,50.45
24307,2018-06-29 08:57:31.593750,38.45,50.45
24308,2018-06-29 08:57:31.625000,38.58,50.45
24309,2018-06-29 08:57:31.656250,36.69,50.45
24310,2018-06-29 08:57:31.687500,34.18,50.45
24311,2018-06-29 08:57:31.718750,31.53,50.45
24312,2018-06-29 08:57:31.750000,29.05,50.45
24313,2018-06-29 08:57:31.781250,26.99,50.45
24314,2018-06-29 08:57:31.812500,24.68,50.45
24315,2018-06-29 08:57:31.843750,21.53,50.45
24316,2018-06-29 08:57:31.875000,18.02,50.45
24317,2018-06-29 08:57:31.906250,14.63,50.45
24318,2018-06-29 08:57:31.937500,10.94,50.45
24319,2018-06-29 08:57:31.968750,6.7,50.45
24320,2018-06-29 08:57:32.000000,2.58,50.45
24321,2018-06-29 08:57:32.031250,-0.92,50.45
24322,2018-06-29 08:57:32.062500,-4.74,50.45
24323,2018-06-29 08:57:32.093750,-10.09,50.45
24324,2018-06-29 08:57:32.125000,-16.28,50.45
24325,2018-06-29 08:57:32.156250,-21.45,50.45
24326,2018-06-29 08:57:32.187500,-25.47,50.45
24327,2018-06-29 08:57:32.218750,-30.72,50.45
24328,2018-06-29 08:57:32.250000,-39.53,50.45
24329,2018-06-29 08:57:32.281250,-50.38,50.45
24330,2018-06-29 08:57:32.312500,-56.76,50.45
24331,2018-06-29 08:57:32.343750,-52.18,50.45
24332,2018-06-29 08:57:32.375000,-36.97,50.45
24333,2018-06-29 08:57:32.406250,-18.21,50.45
24334,2018-06-29 08:57:32.437500,-2.56,50.45
24335,2018-06-29 08:57:32.468750,8.39,50.45
24336,2018-06-29 08:57:32.500000,15.52,50.45
24337,2018-06-29 08:57:32.531250,19.02,50.4
24338,2018-06-29 08:57:32.562500,19.47,50.4
24339,2018-06-29 08:57:32.593750,19.32,50.4
24340,2018-06-29 08:57:32.625000,20.91,50.4
24341,2018-06-29 08:57:32.656250,24.14,50.4
24342,2018-06-29 08:57:32.687500,27.5,50.4
24343,2018-06-29 08:57:32.718750,30.19,50.4
24344,2018-06-29 08:57:32.750000,31.72,50.4
24345,2018-06-29 08:57:32.781250,31.07,50.4
24346,2018-06-29 08:57:32.812500,28.0,50.4
24347,2018-06-29 08:57:32.843750,24.01,50.4
24348,2018-06-29 08:57:32.875000,20.65,50.4
24349,2018-06-29 08:57:32.906250,18.04,50.4
24350,2018-06-29 08:57:32.937500,15.3,50.4
24351,2018-06-29 08:57:32.968750,12.01,50.4
24352,2018-06-29 08:57:33.000000,8.91,50.4
24353,2018-06-29 08:57:33.031250,6.63,50.4
24354,2018-06-29 08:57:33.062500,4.17,50.4
24355,2018-06-29 08:57:33.093750,0.45,50.4
24356,2018-06-29 08:57:33.125000,-4.14,50.4
24357,2018-06-29 08:57:33.156250,-8.95,50.4
24358,2018-06-29 08:57:33.187500,-14.38,50.4
24359,2018-06-29 08:57:33.218750,-20.48,50.4
24360,2018-06-29 08:57:33.250000,-26.42,50.4
24361,2018-06-29 08:57:33.281250,-32.04,50.4
24362,2018-06-29 08:57:33.312500,-38.53,50.4
24363,2018-06-29 08:57:33.343750,-47.35,50.4
24364,2018-06-29 08:57:33.375000,-58.92,50.4
24365,2018-06-29 08:57:33.406250,-70.64,50.4
24366,2018-06-29 08:57:33.437500,-76.1,50.4
24367,2018-06-29 08:57:33.468750,-69.26,50.4
24368,2018-06-29 08:57:33.500000,-51.15,50.4
24369,2018-06-29 08:57:33.531250,-29.91,50.37
24370,2018-06-29 08:57:33.562500,-12.53,50.37
24371,2018-06-29 08:57:33.593750,0.25,50.37
24372,2018-06-29 08:57:33.625000,10.33,50.37
24373,2018-06-29 08:57:33.656250,17.92,50.37
24374,2018-06-29 08:57:33.687500,22.8,50.37
24375,2018-06-29 08:57:33.718750,26.2,50.37
24376,2018-06-29 08:57:33.750000,29.53,50.37
24377,2018-06-29 08:57:33.781250,32.95,50.37
24378,2018-06-29 08:57:33.812500,36.12,50.37
24379,2018-06-29 08:57:33.843750,39.03,50.37
24380,2018-06-29 08:57:33.875000,41.57,50.37
24381,2018-06-29 08:57:33.906250,42.42,50.37
24382,2018-06-29 08:57:33.937500,40.21,50.37
24383,2018-06-29 08:57:33.968750,36.27,50.37
24384,2018-06-29 08:57:34.000000,33.47,50.37
24385,2018-06-29 08:57:34.031250,31.98,50.37
24386,2018-06-29 08:57:34.062500,29.7,50.37
24387,2018-06-29 08:57:34.093750,26.55,50.37
24388,2018-06-29 08:57:34.125000,24.28,50.37
24389,2018-06-29 08:57:34.156250,22.85,50.37
24390,2018-06-29 08:57:34.187500,20.55,50.37
24391,2018-06-29 08:57:34.218750,16.88,50.37
24392,2018-06-29 08:57:34.250000,12.98,50.37
24393,2018-06-29 08:57:34.281250,9.61,50.37
24394,2018-06-29 08:57:34.312500,6.06,50.37
24395,2018-06-29 08:57:34.343750,1.28,50.37
24396,2018-06-29 08:57:34.375000,-4.61,50.37
24397,2018-06-29 08:57:34.406250,-10.17,50.37
24398,2018-06-29 08:57:34.437500,-14.54,50.37
24399,2018-06-29 08:57:34.468750,-19.16,50.37
24400,2018-06-29 08:57:34.500000,-25.82,50.37
24401,2018-06-29 08:57:34.531250,-33.74,50.33
24402,2018-06-29 08:57:34.562500,-41.25,50.33
24403,2018-06-29 08:57:34.593750,-48.84,50.33
24404,2018-06-29 08:57:34.625000,-58.23,50.33
24405,2018-06-29 08:57:34.656250,-70.17,50.33
24406,2018-06-29 08:57:34.687500,-82.88,50.33
24407,2018-06-29 08:57:34.718750,-89.86,50.33
24408,2018-06-29 08:57:34.750000,-83.5,50.33
24409,2018-06-29 08:57:34.781250,-64.19,50.33
24410,2018-06-29 08:57:34.812500,-41.1,50.33
24411,2018-06-29 08:57:34.843750,-22.14,50.33
24412,2018-06-29 08:57:34.875000,-8.28,50.33
24413,2018-06-29 08:57:34.906250,2.6,50.33
24414,2018-06-29 08:57:34.937500,11.93,50.33
24415,2018-06-29 08:57:34.968750,20.17,50.33
24416,2018-06-29 08:57:35.000000,27.28,50.33
24417,2018-06-29 08:57:35.031250,33.09,50.33
24418,2018-06-29 08:57:35.062500,37.83,50.33
24419,2018-06-29 08:57:35.093750,42.26,50.33
24420,2018-06-29 08:57:35.125000,46.96,50.33
24421,2018-06-29 08:57:35.156250,51.21,50.33
24422,2018-06-29 08:57:35.187500,52.92,50.33
24423,2018-06-29 08:57:35.218750,51.15,50.33
24424,2018-06-29 08:57:35.250000,47.93,50.33
24425,2018-06-29 08:57:35.281250,45.51,50.33
24426,2018-06-29 08:57:35.312500,43.54,50.33
24427,2018-06-29 08:57:35.343750,40.71,50.33
24428,2018-06-29 08:57:35.375000,37.34,50.33
24429,2018-06-29 08:57:35.406250,34.53,50.33
24430,2018-06-29 08:57:35.437500,32.43,50.33
24431,2018-06-29 08:57:35.468750,29.99,50.33
24432,2018-06-29 08:57:35.500000,26.3,50.33
24433,2018-06-29 08:57:35.531250,21.79,50.3
24434,2018-06-29 08:57:35.562500,17.83,50.3
24435,2018-06-29 08:57:35.593750,14.77,50.3
24436,2018-06-29 08:57:35.625000,11.32,50.3
24437,2018-06-29 08:57:35.656250,6.28,50.3
24438,2018-06-29 08:57:35.687500,0.38,50.3
24439,2018-06-29 08:57:35.718750,-4.51,50.3
24440,2018-06-29 08:57:35.750000,-8.37,50.3
24441,2018-06-29 08:57:35.781250,-13.05,50.3
24442,2018-06-29 08:57:35.812500,-19.45,50.3
24443,2018-06-29 08:57:35.843750,-26.33,50.3
24444,2018-06-29 08:57:35.875000,-32.4,50.3
24445,2018-06-29 08:57:35.906250,-38.22,50.3
24446,2018-06-29 08:57:35.937500,-46.17,50.3
24447,2018-06-29 08:57:35.968750,-58.1,50.3
24448,2018-06-29 08:57:36.000000,-70.83,50.3
24449,2018-06-29 08:57:36.031250,-75.78,50.3
24450,2018-06-29 08:57:36.062500,-66.47,50.3
24451,2018-06-29 08:57:36.093750,-45.9,50.3
24452,2018-06-29 08:57:36.125000,-23.5,50.3
24453,2018-06-29 08:57:36.156250,-6.03,50.3
24454,2018-06-29 08:57:36.187500,5.94,50.3
24455,2018-06-29 08:57:36.218750,13.99,50.3
24456,2018-06-29 08:57:36.250000,18.87,50.3
24457,2018-06-29 08:57:36.281250,21.76,50.3
24458,2018-06-29 08:57:36.312500,24.43,50.3
24459,2018-06-29 08:57:36.343750,27.52,50.3
24460,2018-06-29 08:57:36.375000,30.66,50.3
24461,2018-06-29 08:57:36.406250,33.79,50.3
24462,2018-06-29 08:57:36.437500,36.59,50.3
24463,2018-06-29 08:57:36.468750,37.9,50.3
24464,2018-06-29 08:57:36.500000,36.98,50.3
24465,2018-06-29 08:57:36.531250,34.22,50.28
24466,2018-06-29 08:57:36.562500,30.81,50.28
24467,2018-06-29 08:57:36.593750,27.81,50.28
24468,2018-06-29 08:57:36.625000,25.52,50.28
24469,2018-06-29 08:57:36.656250,23.33,50.28
24470,2018-06-29 08:57:36.687500,20.61,50.28
24471,2018-06-29 08:57:36.718750,17.53,50.28
24472,2018-06-29 08:57:36.750000,14.7,50.28
24473,2018-06-29 08:57:36.781250,11.84,50.28
24474,2018-06-29 08:57:36.812500,7.72,50.28
24475,2018-06-29 08:57:36.843750,1.94,50.28
24476,2018-06-29 08:57:36.875000,-4.06,50.28
24477,2018-06-29 08:57:36.906250,-9.14,50.28
24478,2018-06-29 08:57:36.937500,-14.29,50.28
24479,2018-06-29 08:57:36.968750,-20.94,50.28
24480,2018-06-29 08:57:37.000000,-28.79,50.28
24481,2018-06-29 08:57:37.031250,-36.37,50.28
24482,2018-06-29 08:57:37.062500,-43.42,50.28
24483,2018-06-29 08:57:37.093750,-51.58,50.28
24484,2018-06-29 08:57:37.125000,-62.47,50.28
24485,2018-06-29 08:57:37.156250,-74.52,50.28
24486,2018-06-29 08:57:37.187500,-81.3,50.28
24487,2018-06-29 08:57:37.218750,-75.55,50.28
24488,2018-06-29 08:57:37.250000,-57.02,50.28
24489,2018-06-29 08:57:37.281250,-33.81,50.28
24490,2018-06-29 08:57:37.312500,-13.95,50.28
24491,2018-06-29 08:57:37.343750,0.9,50.28
24492,2018-06-29 08:57:37.375000,12.5,50.28
24493,2018-06-29 08:57:37.406250,21.07,50.28
24494,2018-06-29 08:57:37.437500,26.03,50.28
24495,2018-06-29 08:57:37.468750,28.61,50.28
24496,2018-06-29 08:57:37.500000,30.82,50.28
24497,2018-06-29 08:57:37.531250,33.15,50.17
24498,2018-06-29 08:57:37.562500,34.79,50.17
24499,2018-06-29 08:57:37.593750,35.56,50.17
24500,2018-06-29 08:57:37.625000,35.88,50.17
24501,2018-06-29 08:57:37.656250,35.78,50.17
24502,2018-06-29 08:57:37.687500,35.21,50.17
24503,2018-06-29 08:57:37.718750,34.12,50.17
24504,2018-06-29 08:57:37.750000,32.21,50.17
24505,2018-06-29 08:57:37.781250,29.97,50.17
24506,2018-06-29 08:57:37.812500,29.37,50.17
24507,2018-06-29 08:57:37.843750,31.75,50.17
24508,2018-06-29 08:57:37.875000,35.67,50.17
24509,2018-06-29 08:57:37.906250,38.34,50.17
24510,2018-06-29 08:57:37.937500,38.22,50.17
24511,2018-06-29 08:57:37.968750,35.09,50.17
24512,2018-06-29 08:57:38.000000,29.43,50.17
24513,2018-06-29 08:57:38.031250,23.26,50.17
24514,2018-06-29 08:57:38.062500,18.74,50.17
24515,2018-06-29 08:57:38.093750,14.97,50.17
24516,2018-06-29 08:57:38.125000,9.54,50.17
24517,2018-06-29 08:57:38.156250,2.89,50.17
24518,2018-06-29 08:57:38.187500,-2.98,50.17
24519,2018-06-29 08:57:38.218750,-8.48,50.17
24520,2018-06-29 08:57:38.250000,-15.18,50.17
24521,2018-06-29 08:57:38.281250,-22.98,50.17
24522,2018-06-29 08:57:38.312500,-31.14,50.17
24523,2018-06-29 08:57:38.343750,-40.31,50.17
24524,2018-06-29 08:57:38.375000,-52.2,50.17
24525,2018-06-29 08:57:38.406250,-66.95,50.17
24526,2018-06-29 08:57:38.437500,-79.81,50.17
24527,2018-06-29 08:57:38.468750,-81.98,50.17
24528,2018-06-29 08:57:38.500000,-68.7,50.17
24529,2018-06-29 08:57:38.531250,-44.91,50.07
24530,2018-06-29 08:57:38.562500,-20.31,50.07
24531,2018-06-29 08:57:38.593750,-0.81,50.07
24532,2018-06-29 08:57:38.625000,13.01,50.07
24533,2018-06-29 08:57:38.656250,22.42,50.07
24534,2018-06-29 08:57:38.687500,28.77,50.07
24535,2018-06-29 08:57:38.718750,33.33,50.07
24536,2018-06-29 08:57:38.750000,36.91,50.07
24537,2018-06-29 08:57:38.781250,39.34,50.07
24538,2018-06-29 08:57:38.812500,40.3,50.07
24539,2018-06-29 08:57:38.843750,40.92,50.07
24540,2018-06-29 08:57:38.875000,42.71,50.07
24541,2018-06-29 08:57:38.906250,44.68,50.07
24542,2018-06-29 08:57:38.937500,44.14,50.07
24543,2018-06-29 08:57:38.968750,40.59,50.07
24544,2018-06-29 08:57:39.000000,36.28,50.07
24545,2018-06-29 08:57:39.031250,32.78,50.07
24546,2018-06-29 08:57:39.062500,29.54,50.07
24547,2018-06-29 08:57:39.093750,25.85,50.07
24548,2018-06-29 08:57:39.125000,22.37,50.07
24549,2018-06-29 08:57:39.156250,19.98,50.07
24550,2018-06-29 08:57:39.187500,18.18,50.07
24551,2018-06-29 08:57:39.218750,15.86,50.07
24552,2018-06-29 08:57:39.250000,12.59,50.07
24553,2018-06-29 08:57:39.281250,8.47,50.07
24554,2018-06-29 08:57:39.312500,3.97,50.07
24555,2018-06-29 08:57:39.343750,0.27,50.07
24556,2018-06-29 08:57:39.375000,-2.44,50.07
24557,2018-06-29 08:57:39.406250,-6.14,50.07
24558,2018-06-29 08:57:39.437500,-11.63,50.07
24559,2018-06-29 08:57:39.468750,-16.99,50.07
24560,2018-06-29 08:57:39.500000,-21.59,50.07
24561,2018-06-29 08:57:39.531250,-27.94,49.93
24562,2018-06-29 08:57:39.562500,-37.65,49.93
24563,2018-06-29 08:57:39.593750,-49.03,49.93
24564,2018-06-29 08:57:39.625000,-57.79,49.93
24565,2018-06-29 08:57:39.656250,-58.67,49.93
24566,2018-06-29 08:57:39.687500,-49.21,49.93
24567,2018-06-29 08:57:39.718750,-32.83,49.93
24568,2018-06-29 08:57:39.750000,-15.96,49.93
24569,2018-06-29 08:57:39.781250,-2.69,49.93
24570,2018-06-29 08:57:39.812500,6.41,49.93
24571,2018-06-29 08:57:39.843750,11.73,49.93
24572,2018-06-29 08:57:39.875000,13.55,49.93
24573,2018-06-29 08:57:39.906250,13.09,49.93
24574,2018-06-29 08:57:39.937500,12.98,49.93
24575,2018-06-29 08:57:39.968750,15.33,49.93
24576,2018-06-29 08:57:40.000000,19.89,49.93
24577,2018-06-29 08:57:40.031250,24.27,49.93
24578,2018-06-29 08:57:40.062500,25.77,49.93
24579,2018-06-29 08:57:40.093750,23.96,49.93
24580,2018-06-29 08:57:40.125000,21.13,49.93
24581,2018-06-29 08:57:40.156250,19.13,49.93
24582,2018-06-29 08:57:40.187500,17.1,49.93
24583,2018-06-29 08:57:40.218750,14.03,49.93
24584,2018-06-29 08:57:40.250000,10.7,49.93
24585,2018-06-29 08:57:40.281250,7.85,49.93
24586,2018-06-29 08:57:40.312500,5.18,49.93
24587,2018-06-29 08:57:40.343750,2.64,49.93
24588,2018-06-29 08:57:40.375000,0.15,49.93
24589,2018-06-29 08:57:40.406250,-3.18,49.93
24590,2018-06-29 08:57:40.437500,-7.48,49.93
24591,2018-06-29 08:57:40.468750,-11.82,49.93
24592,2018-06-29 08:57:40.500000,-16.46,49.93
24593,2018-06-29 08:57:40.531250,-22.44,49.82
24594,2018-06-29 08:57:40.562500,-29.03,49.82
24595,2018-06-29 08:57:40.593750,-34.5,49.82
24596,2018-06-29 08:57:40.625000,-39.55,49.82
24597,2018-06-29 08:57:40.656250,-47.22,49.82
24598,2018-06-29 08:57:40.687500,-57.92,49.82
24599,2018-06-29 08:57:40.718750,-66.01,49.82
24600,2018-06-29 08:57:40.750000,-63.81,49.82
24601,2018-06-29 08:57:40.781250,-49.92,49.82
24602,2018-06-29 08:57:40.812500,-31.04,49.82
24603,2018-06-29 08:57:40.843750,-14.61,49.82
24604,2018-06-29 08:57:40.875000,-2.74,49.82
24605,2018-06-29 08:57:40.906250,5.94,49.82
24606,2018-06-29 08:57:40.937500,12.37,49.82
24607,2018-06-29 08:57:40.968750,16.94,49.82
24608,2018-06-29 08:57:41.000000,20.46,49.82
24609,2018-06-29 08:57:41.031250,23.59,49.82
24610,2018-06-29 08:57:41.062500,26.37,49.82
24611,2018-06-29 08:57:41.093750,28.96,49.82
24612,2018-06-29 08:57:41.125000,31.52,49.82
24613,2018-06-29 08:57:41.156250,33.39,49.82
24614,2018-06-29 08:57:41.187500,33.51,49.82
24615,2018-06-29 08:57:41.218750,31.85,49.82
24616,2018-06-29 08:57:41.250000,29.37,49.82
24617,2018-06-29 08:57:41.281250,27.06,49.82
24618,2018-06-29 08:57:41.312500,25.07,49.82
24619,2018-06-29 08:57:41.343750,22.8,49.82
24620,2018-06-29 08:57:41.375000,20.06,49.82
24621,2018-06-29 08:57:41.406250,17.79,49.82
24622,2018-06-29 08:57:41.437500,16.3,49.82
24623,2018-06-29 08:57:41.468750,14.37,49.82
24624,2018-06-29 08:57:41.500000,11.24,49.82
24625,2018-06-29 08:57:41.531250,7.85,49.7
24626,2018-06-29 08:57:41.562500,4.76,49.7
24627,2018-06-29 08:57:41.593750,1.01,49.7
24628,2018-06-29 08:57:41.625000,-3.73,49.7
24629,2018-06-29 08:57:41.656250,-8.04,49.7
24630,2018-06-29 08:57:41.687500,-11.0,49.7
24631,2018-06-29 08:57:41.718750,-13.52,49.7
24632,2018-06-29 08:57:41.750000,-17.08,49.7
24633,2018-06-29 08:57:41.781250,-22.27,49.7
24634,2018-06-29 08:57:41.812500,-28.44,49.7
24635,2018-06-29 08:57:41.843750,-34.14,49.7
24636,2018-06-29 08:57:41.875000,-39.01,49.7
24637,2018-06-29 08:57:41.906250,-45.1,49.7
24638,2018-06-29 08:57:41.937500,-54.66,49.7
24639,2018-06-29 08:57:41.968750,-65.63,49.7
24640,2018-06-29 08:57:42.000000,-70.48,49.7
24641,2018-06-29 08:57:42.031250,-63.14,49.7
24642,2018-06-29 08:57:42.062500,-46.36,49.7
24643,2018-06-29 08:57:42.093750,-28.6,49.7
24644,2018-06-29 08:57:42.125000,-15.01,49.7
24645,2018-06-29 08:57:42.156250,-5.13,49.7
24646,2018-06-29 08:57:42.187500,2.73,49.7
24647,2018-06-29 08:57:42.218750,8.97,49.7
24648,2018-06-29 08:57:42.250000,13.59,49.7
24649,2018-06-29 08:57:42.281250,16.54,49.7
24650,2018-06-29 08:57:42.312500,17.56,49.7
24651,2018-06-29 08:57:42.343750,17.08,49.7
24652,2018-06-29 08:57:42.375000,16.91,49.7
24653,2018-06-29 08:57:42.406250,17.9,49.7
24654,2018-06-29 08:57:42.437500,17.87,49.7
24655,2018-06-29 08:57:42.468750,14.41,49.7
24656,2018-06-29 08:57:42.500000,8.23,49.7
24657,2018-06-29 08:57:42.531250,1.88,49.52
24658,2018-06-29 08:57:42.562500,-3.25,49.52
24659,2018-06-29 08:57:42.593750,-8.16,49.52
24660,2018-06-29 08:57:42.625000,-14.58,49.52
24661,2018-06-29 08:57:42.656250,-22.22,49.52
24662,2018-06-29 08:57:42.687500,-28.36,49.52
24663,2018-06-29 08:57:42.718750,-31.09,49.52
24664,2018-06-29 08:57:42.750000,-31.9,49.52
24665,2018-06-29 08:57:42.781250,-34.08,49.52
24666,2018-06-29 08:57:42.812500,-38.2,49.52
24667,2018-06-29 08:57:42.843750,-42.04,49.52
24668,2018-06-29 08:57:42.875000,-46.97,49.52
24669,2018-06-29 08:57:42.906250,-58.2,49.52
24670,2018-06-29 08:57:42.937500,-74.94,49.52
24671,2018-06-29 08:57:42.968750,-88.51,49.52
24672,2018-06-29 08:57:43.000000,-91.26,49.52
24673,2018-06-29 08:57:43.031250,-82.08,49.52
24674,2018-06-29 08:57:43.062500,-66.36,49.52
24675,2018-06-29 08:57:43.093750,-52.8,49.52
24676,2018-06-29 08:57:43.125000,-45.93,49.52
24677,2018-06-29 08:57:43.156250,-43.8,49.52
24678,2018-06-29 08:57:43.187500,-43.49,49.52
24679,2018-06-29 08:57:43.218750,-40.05,49.52
24680,2018-06-29 08:57:43.250000,-22.43,49.52
24681,2018-06-29 08:57:43.281250,16.04,49.52
24682,2018-06-29 08:57:43.312500,64.88,49.52
24683,2018-06-29 08:57:43.343750,105.04,49.52
24684,2018-06-29 08:57:43.375000,130.97,49.52
24685,2018-06-29 08:57:43.406250,156.41,49.52
24686,2018-06-29 08:57:43.437500,194.87,49.52
24687,2018-06-29 08:57:43.468750,242.69,49.52
24688,2018-06-29 08:57:43.500000,286.06,49.52
24689,2018-06-29 08:57:43.531250,314.08,49.35
24690,2018-06-29 08:57:43.562500,318.62,49.35
24691,2018-06-29 08:57:43.593750,292.69,49.35
24692,2018-06-29 08:57:43.625000,237.08,49.35
24693,2018-06-29 08:57:43.656250,163.27,49.35
24694,2018-06-29 08:57:43.687500,86.08,49.35
24695,2018-06-29 08:57:43.718750,15.68,49.35
24696,2018-06-29 08:57:43.750000,-44.47,49.35
24697,2018-06-29 08:57:43.781250,-93.97,49.35
24698,2018-06-29 08:57:43.812500,-132.31,49.35
24699,2018-06-29 08:57:43.843750,-160.28,49.35
24700,2018-06-29 08:57:43.875000,-179.53,49.35
24701,2018-06-29 08:57:43.906250,-188.14,49.35
24702,2018-06-29 08:57:43.937500,-181.77,49.35
24703,2018-06-29 08:57:43.968750,-161.36,49.35
24704,2018-06-29 08:57:44.000000,-135.16,49.35
24705,2018-06-29 08:57:44.031250,-112.29,49.35
24706,2018-06-29 08:57:44.062500,-96.03,49.35
24707,2018-06-29 08:57:44.093750,-84.35,49.35
24708,2018-06-29 08:57:44.125000,-75.59,49.35
24709,2018-06-29 08:57:44.156250,-70.86,49.35
24710,2018-06-29 08:57:44.187500,-70.2,49.35
24711,2018-06-29 08:57:44.218750,-68.77,49.35
24712,2018-06-29 08:57:44.250000,-57.8,49.35
24713,2018-06-29 08:57:44.281250,-29.73,49.35
24714,2018-06-29 08:57:44.312500,14.26,49.35
24715,2018-06-29 08:57:44.343750,62.32,49.35
24716,2018-06-29 08:57:44.375000,101.52,49.35
24717,2018-06-29 08:57:44.406250,127.1,49.35
24718,2018-06-29 08:57:44.437500,140.12,49.35
24719,2018-06-29 08:57:44.468750,141.64,49.35
24720,2018-06-29 08:57:44.500000,133.03,49.35
24721,2018-06-29 08:57:44.531250,117.56,49.18
24722,2018-06-29 08:57:44.562500,99.65,49.18
24723,2018-06-29 08:57:44.593750,84.73,49.18
24724,2018-06-29 08:57:44.625000,78.14,49.18
24725,2018-06-29 08:57:44.656250,81.79,49.18
24726,2018-06-29 08:57:44.687500,92.11,49.18
24727,2018-06-29 08:57:44.718750,103.22,49.18
24728,2018-06-29 08:57:44.750000,113.27,49.18
24729,2018-06-29 08:57:44.781250,125.75,49.18
24730,2018-06-29 08:57:44.812500,139.53,49.18
24731,2018-06-29 08:57:44.843750,140.33,49.18
24732,2018-06-29 08:57:44.875000,111.05,49.18
24733,2018-06-29 08:57:44.906250,48.66,49.18
24734,2018-06-29 08:57:44.937500,-36.34,49.18
24735,2018-06-29 08:57:44.968750,-128.55,49.18
24736,2018-06-29 08:57:45.000000,-209.59,49.18
24737,2018-06-29 08:57:45.031250,-262.98,49.18
24738,2018-06-29 08:57:45.062500,-283.88,49.18
24739,2018-06-29 08:57:45.093750,-278.43,49.18
24740,2018-06-29 08:57:45.125000,-254.72,49.18
24741,2018-06-29 08:57:45.156250,-218.51,49.18
24742,2018-06-29 08:57:45.187500,-173.83,49.18
24743,2018-06-29 08:57:45.218750,-124.6,49.18
24744,2018-06-29 08:57:45.250000,-76.79,49.18
24745,2018-06-29 08:57:45.281250,-37.06,49.18
24746,2018-06-29 08:57:45.312500,-8.63,49.18
24747,2018-06-29 08:57:45.343750,9.29,49.18
24748,2018-06-29 08:57:45.375000,19.42,49.18
24749,2018-06-29 08:57:45.406250,25.51,49.18
24750,2018-06-29 08:57:45.437500,31.36,49.18
24751,2018-06-29 08:57:45.468750,38.67,49.18
24752,2018-06-29 08:57:45.500000,46.37,49.18
24753,2018-06-29 08:57:45.531250,52.6,49.07
24754,2018-06-29 08:57:45.562500,56.39,49.07
24755,2018-06-29 08:57:45.593750,57.26,49.07
24756,2018-06-29 08:57:45.625000,54.91,49.07
24757,2018-06-29 08:57:45.656250,49.92,49.07
24758,2018-06-29 08:57:45.687500,44.11,49.07
24759,2018-06-29 08:57:45.718750,38.85,49.07
24760,2018-06-29 08:57:45.750000,33.72,49.07
24761,2018-06-29 08:57:45.781250,27.59,49.07
24762,2018-06-29 08:57:45.812500,20.55,49.07
24763,2018-06-29 08:57:45.843750,13.9,49.07
24764,2018-06-29 08:57:45.875000,7.9,49.07
24765,2018-06-29 08:57:45.906250,0.53,49.07
24766,2018-06-29 08:57:45.937500,-10.06,49.07
24767,2018-06-29 08:57:45.968750,-21.13,49.07
24768,2018-06-29 08:57:46.000000,-25.53,49.07
24769,2018-06-29 08:57:46.031250,-19.03,49.07
24770,2018-06-29 08:57:46.062500,-5.38,49.07
24771,2018-06-29 08:57:46.093750,8.17,49.07
24772,2018-06-29 08:57:46.125000,17.99,49.07
24773,2018-06-29 08:57:46.156250,24.95,49.07
24774,2018-06-29 08:57:46.187500,30.6,49.07
24775,2018-06-29 08:57:46.218750,34.64,49.07
24776,2018-06-29 08:57:46.250000,35.69,49.07
24777,2018-06-29 08:57:46.281250,34.13,49.07
24778,2018-06-29 08:57:46.312500,32.38,49.07
24779,2018-06-29 08:57:46.343750,31.41,49.07
24780,2018-06-29 08:57:46.375000,30.08,49.07
24781,2018-06-29 08:57:46.406250,27.65,49.07
24782,2018-06-29 08:57:46.437500,23.64,49.07
24783,2018-06-29 08:57:46.468750,16.93,49.07
24784,2018-06-29 08:57:46.500000,8.07,49.07
24785,2018-06-29 08:57:46.531250,-0.26,48.98
24786,2018-06-29 08:57:46.562500,-6.6,48.98
24787,2018-06-29 08:57:46.593750,-11.74,48.98
24788,2018-06-29 08:57:46.625000,-17.0,48.98
24789,2018-06-29 08:57:46.656250,-23.27,48.98
24790,2018-06-29 08:57:46.687500,-30.36,48.98
24791,2018-06-29 08:57:46.718750,-36.98,48.98
24792,2018-06-29 08:57:46.750000,-43.01,48.98
24793,2018-06-29 08:57:46.781250,-50.26,48.98
24794,2018-06-29 08:57:46.812500,-60.22,48.98
24795,2018-06-29 08:57:46.843750,-71.93,48.98
24796,2018-06-29 08:57:46.875000,-80.75,48.98
24797,2018-06-29 08:57:46.906250,-79.41,48.98
24798,2018-06-29 08:57:46.937500,-64.84,48.98
24799,2018-06-29 08:57:46.968750,-43.15,48.98
24800,2018-06-29 08:57:47.000000,-23.22,48.98
24801,2018-06-29 08:57:47.031250,-7.83,48.98
24802,2018-06-29 08:57:47.062500,4.76,48.98
24803,2018-06-29 08:57:47.093750,14.41,48.98
24804,2018-06-29 08:57:47.125000,19.5,48.98
24805,2018-06-29 08:57:47.156250,20.54,48.98
24806,2018-06-29 08:57:47.187500,19.73,48.98
24807,2018-06-29 08:57:47.218750,18.58,48.98
24808,2018-06-29 08:57:47.250000,17.96,48.98
24809,2018-06-29 08:57:47.281250,18.37,48.98
24810,2018-06-29 08:57:47.312500,19.16,48.98
24811,2018-06-29 08:57:47.343750,19.02,48.98
24812,2018-06-29 08:57:47.375000,17.51,48.98
24813,2018-06-29 08:57:47.406250,15.39,48.98
24814,2018-06-29 08:57:47.437500,13.55,48.98
24815,2018-06-29 08:57:47.468750,12.37,48.98
24816,2018-06-29 08:57:47.500000,11.6,48.98
24817,2018-06-29 08:57:47.531250,11.04,48.87
24818,2018-06-29 08:57:47.562500,10.76,48.87
24819,2018-06-29 08:57:47.593750,10.86,48.87
24820,2018-06-29 08:57:47.625000,11.23,48.87
24821,2018-06-29 08:57:47.656250,11.5,48.87
24822,2018-06-29 08:57:47.687500,11.59,48.87
24823,2018-06-29 08:57:47.718750,12.3,48.87
24824,2018-06-29 08:57:47.750000,13.52,48.87
24825,2018-06-29 08:57:47.781250,13.1,48.87
24826,2018-06-29 08:57:47.812500,10.12,48.87
24827,2018-06-29 08:57:47.843750,6.47,48.87
24828,2018-06-29 08:57:47.875000,3.55,48.87
24829,2018-06-29 08:57:47.906250,0.48,48.87
24830,2018-06-29 08:57:47.937500,-3.38,48.87
24831,2018-06-29 08:57:47.968750,-7.06,48.87
24832,2018-06-29 08:57:48.000000,-9.82,48.87
24833,2018-06-29 08:57:48.031250,-12.76,48.87
24834,2018-06-29 08:57:48.062500,-17.14,48.87
24835,2018-06-29 08:57:48.093750,-22.29,48.87
24836,2018-06-29 08:57:48.125000,-26.95,48.87
24837,2018-06-29 08:57:48.156250,-31.67,48.87
24838,2018-06-29 08:57:48.187500,-38.14,48.87
24839,2018-06-29 08:57:48.218750,-47.69,48.87
24840,2018-06-29 08:57:48.250000,-59.01,48.87
24841,2018-06-29 08:57:48.281250,-65.14,48.87
24842,2018-06-29 08:57:48.312500,-57.95,48.87
24843,2018-06-29 08:57:48.343750,-38.91,48.87
24844,2018-06-29 08:57:48.375000,-18.79,48.87
24845,2018-06-29 08:57:48.406250,-4.62,48.87
24846,2018-06-29 08:57:48.437500,5.49,48.87
24847,2018-06-29 08:57:48.468750,14.59,48.87
24848,2018-06-29 08:57:48.500000,21.99,48.87
24849,2018-06-29 08:57:48.531250,26.43,48.83
24850,2018-06-29 08:57:48.562500,28.55,48.83
24851,2018-06-29 08:57:48.593750,29.05,48.83
24852,2018-06-29 08:57:48.625000,27.67,48.83
24853,2018-06-29 08:57:48.656250,24.97,48.83
24854,2018-06-29 08:57:48.687500,22.27,48.83
24855,2018-06-29 08:57:48.718750,19.42,48.83
24856,2018-06-29 08:57:48.750000,14.85,48.83
24857,2018-06-29 08:57:48.781250,8.7,48.83
24858,2018-06-29 08:57:48.812500,2.82,48.83
24859,2018-06-29 08:57:48.843750,-2.08,48.83
24860,2018-06-29 08:57:48.875000,-6.66,48.83
24861,2018-06-29 08:57:48.906250,-10.88,48.83
24862,2018-06-29 08:57:48.937500,-14.53,48.83
24863,2018-06-29 08:57:48.968750,-18.45,48.83
24864,2018-06-29 08:57:49.000000,-23.5,48.83
24865,2018-06-29 08:57:49.031250,-29.76,48.83
24866,2018-06-29 08:57:49.062500,-37.77,48.83
24867,2018-06-29 08:57:49.093750,-47.97,48.83
24868,2018-06-29 08:57:49.125000,-58.73,48.83
24869,2018-06-29 08:57:49.156250,-68.54,48.83
24870,2018-06-29 08:57:49.187500,-78.7,48.83
24871,2018-06-29 08:57:49.218750,-91.11,48.83
24872,2018-06-29 08:57:49.250000,-105.21,48.83
24873,2018-06-29 08:57:49.281250,-118.1,48.83
24874,2018-06-29 08:57:49.312500,-125.44,48.83
24875,2018-06-29 08:57:49.343750,-123.86,48.83
24876,2018-06-29 08:57:49.375000,-114.47,48.83
24877,2018-06-29 08:57:49.406250,-101.53,48.83
24878,2018-06-29 08:57:49.437500,-87.64,48.83
24879,2018-06-29 08:57:49.468750,-73.82,48.83
24880,2018-06-29 08:57:49.500000,-62.34,48.83
24881,2018-06-29 08:57:49.531250,-55.33,48.85
24882,2018-06-29 08:57:49.562500,-50.58,48.85
24883,2018-06-29 08:57:49.593750,-41.84,48.85
24884,2018-06-29 08:57:49.625000,-26.04,48.85
24885,2018-06-29 08:57:49.656250,-7.91,48.85
24886,2018-06-29 08:57:49.687500,6.72,48.85
24887,2018-06-29 08:57:49.718750,18.61,48.85
24888,2018-06-29 08:57:49.750000,30.98,48.85
24889,2018-06-29 08:57:49.781250,42.68,48.85
24890,2018-06-29 08:57:49.812500,51.13,48.85
24891,2018-06-29 08:57:49.843750,56.29,48.85
24892,2018-06-29 08:57:49.875000,58.0,48.85
24893,2018-06-29 08:57:49.906250,55.33,48.85
24894,2018-06-29 08:57:49.937500,50.16,48.85
24895,2018-06-29 08:57:49.968750,47.2,48.85
24896,2018-06-29 08:57:50.000000,50.35,48.85
24897,2018-06-29 08:57:50.031250,59.74,48.85
24898,2018-06-29 08:57:50.062500,71.27,48.85
24899,2018-06-29 08:57:50.093750,79.31,48.85
24900,2018-06-29 08:57:50.125000,81.26,48.85
24901,2018-06-29 08:57:50.156250,78.0,48.85
24902,2018-06-29 08:57:50.187500,71.44,48.85
24903,2018-06-29 08:57:50.218750,63.54,48.85
24904,2018-06-29 08:57:50.250000,54.97,48.85
24905,2018-06-29 08:57:50.281250,44.12,48.85
24906,2018-06-29 08:57:50.312500,30.57,48.85
24907,2018-06-29 08:57:50.343750,18.81,48.85
24908,2018-06-29 08:57:50.375000,14.67,48.85
24909,2018-06-29 08:57:50.406250,18.88,48.85
24910,2018-06-29 08:57:50.437500,26.39,48.85
24911,2018-06-29 08:57:50.468750,32.06,48.85
24912,2018-06-29 08:57:50.500000,34.96,48.85
24913,2018-06-29 08:57:50.531250,36.22,48.9
24914,2018-06-29 08:57:50.562500,35.66,48.9
24915,2018-06-29 08:57:50.593750,33.13,48.9
24916,2018-06-29 08:57:50.625000,30.2,48.9
24917,2018-06-29 08:57:50.656250,27.86,48.9
24918,2018-06-29 08:57:50.687500,25.71,48.9
24919,2018-06-29 08:57:50.718750,24.22,48.9
24920,2018-06-29 08:57:50.750000,24.21,48.9
24921,2018-06-29 08:57:50.781250,24.45,48.9
24922,2018-06-29 08:57:50.812500,23.01,48.9
24923,2018-06-29 08:57:50.843750,19.99,48.9
24924,2018-06-29 08:57:50.875000,17.07,48.9
24925,2018-06-29 08:57:50.906250,15.48,48.9
24926,2018-06-29 08:57:50.937500,15.21,48.9
24927,2018-06-29 08:57:50.968750,15.24,48.9
24928,2018-06-29 08:57:51.000000,14.72,48.9
24929,2018-06-29 08:57:51.031250,13.73,48.9
24930,2018-06-29 08:57:51.062500,12.29,48.9
24931,2018-06-29 08:57:51.093750,9.83,48.9
24932,2018-06-29 08:57:51.125000,6.72,48.9
24933,2018-06-29 08:57:51.156250,4.16,48.9
24934,2018-06-29 08:57:51.187500,2.02,48.9
24935,2018-06-29 08:57:51.218750,-0.71,48.9
24936,2018-06-29 08:57:51.250000,-3.77,48.9
24937,2018-06-29 08:57:51.281250,-6.1,48.9
24938,2018-06-29 08:57:51.312500,-7.94,48.9
24939,2018-06-29 08:57:51.343750,-10.62,48.9
24940,2018-06-29 08:57:51.375000,-15.09,48.9
24941,2018-06-29 08:57:51.406250,-20.35,48.9
24942,2018-06-29 08:57:51.437500,-22.7,48.9
24943,2018-06-29 08:57:51.468750,-18.71,48.9
24944,2018-06-29 08:57:51.500000,-9.5,48.9
24945,2018-06-29 08:57:51.531250,0.48,49.02
24946,2018-06-29 08:57:51.562500,8.32,49.02
24947,2018-06-29 08:57:51.593750,13.62,49.02
24948,2018-06-29 08:57:51.625000,16.27,49.02
24949,2018-06-29 08:57:51.656250,16.5,49.02
24950,2018-06-29 08:57:51.687500,15.75,49.02
24951,2018-06-29 08:57:51.718750,15.33,49.02
24952,2018-06-29 08:57:51.750000,15.3,49.02
24953,2018-06-29 08:57:51.781250,15.7,49.02
24954,2018-06-29 08:57:51.812500,17.27,49.02
24955,2018-06-29 08:57:51.843750,19.65,49.02
24956,2018-06-29 08:57:51.875000,20.82,49.02
24957,2018-06-29 08:57:51.906250,20.53,49.02
24958,2018-06-29 08:57:51.937500,22.32,49.02
24959,2018-06-29 08:57:51.968750,29.32,49.02
24960,2018-06-29 08:57:52.000000,40.16,49.02
24961,2018-06-29 08:57:52.031250,51.57,49.02
24962,2018-06-29 08:57:52.062500,62.89,49.02
24963,2018-06-29 08:57:52.093750,76.39,49.02
24964,2018-06-29 08:57:52.125000,95.05,49.02
24965,2018-06-29 08:57:52.156250,116.52,49.02
24966,2018-06-29 08:57:52.187500,128.16,49.02
24967,2018-06-29 08:57:52.218750,117.51,49.02
24968,2018-06-29 08:57:52.250000,88.73,49.02
24969,2018-06-29 08:57:52.281250,57.53,49.02
24970,2018-06-29 08:57:52.312500,31.66,49.02
24971,2018-06-29 08:57:52.343750,9.02,49.02
24972,2018-06-29 08:57:52.375000,-11.53,49.02
24973,2018-06-29 08:57:52.406250,-30.72,49.02
24974,2018-06-29 08:57:52.437500,-51.2,49.02
24975,2018-06-29 08:57:52.468750,-71.32,49.02
24976,2018-06-29 08:57:52.500000,-84.82,49.02
24977,2018-06-29 08:57:52.531250,-89.36,49.13
24978,2018-06-29 08:57:52.562500,-89.59,49.13
24979,2018-06-29 08:57:52.593750,-93.22,49.13
24980,2018-06-29 08:57:52.625000,-104.66,49.13
24981,2018-06-29 08:57:52.656250,-119.42,49.13
24982,2018-06-29 08:57:52.687500,-127.62,49.13
24983,2018-06-29 08:57:52.718750,-124.22,49.13
24984,2018-06-29 08:57:52.750000,-111.03,49.13
24985,2018-06-29 08:57:52.781250,-92.67,49.13
24986,2018-06-29 08:57:52.812500,-74.15,49.13
24987,2018-06-29 08:57:52.843750,-57.78,49.13
24988,2018-06-29 08:57:52.875000,-42.14,49.13
24989,2018-06-29 08:57:52.906250,-26.36,49.13
24990,2018-06-29 08:57:52.937500,-12.65,49.13
24991,2018-06-29 08:57:52.968750,-3.69,49.13
24992,2018-06-29 08:57:53.000000,-0.36,49.13
24993,2018-06-29 08:57:53.031250,-0.26,49.13
24994,2018-06-29 08:57:53.062500,1.95,49.13
24995,2018-06-29 08:57:53.093750,9.17,49.13
24996,2018-06-29 08:57:53.125000,18.65,49.13
24997,2018-06-29 08:57:53.156250,26.79,49.13
24998,2018-06-29 08:57:53.187500,33.37,49.13
24999,2018-06-29 08:57:53.218750,39.14,49.13
25000,2018-06-29 08:57:53.250000,43.19,49.13
25001,2018-06-29 08:57:53.281250,44.67,49.13
25002,2018-06-29 08:57:53.312500,43.33,49.13
25003,2018-06-29 08:57:53.343750,38.54,49.13
25004,2018-06-29 08:57:53.375000,30.19,49.13
25005,2018-06-29 08:57:53.406250,19.62,49.13
25006,2018-06-29 08:57:53.437500,7.91,49.13
25007,2018-06-29 08:57:53.468750,-5.25,49.13
25008,2018-06-29 08:57:53.500000,-19.76,49.13
25009,2018-06-29 08:57:53.531250,-32.28,49.25
25010,2018-06-29 08:57:53.562500,-37.11,49.25
25011,2018-06-29 08:57:53.593750,-32.19,49.25
25012,2018-06-29 08:57:53.625000,-22.43,49.25
25013,2018-06-29 08:57:53.656250,-14.36,49.25
25014,2018-06-29 08:57:53.687500,-10.18,49.25
25015,2018-06-29 08:57:53.718750,-9.05,49.25
25016,2018-06-29 08:57:53.750000,-10.22,49.25
25017,2018-06-29 08:57:53.781250,-12.95,49.25
25018,2018-06-29 08:57:53.812500,-15.97,49.25
25019,2018-06-29 08:57:53.843750,-18.04,49.25
25020,2018-06-29 08:57:53.875000,-18.11,49.25
25021,2018-06-29 08:57:53.906250,-15.2,49.25
25022,2018-06-29 08:57:53.937500,-9.48,49.25
25023,2018-06-29 08:57:53.968750,-2.56,49.25
25024,2018-06-29 08:57:54.000000,3.44,49.25
25025,2018-06-29 08:57:54.031250,7.44,49.25
25026,2018-06-29 08:57:54.062500,10.49,49.25
25027,2018-06-29 08:57:54.093750,15.22,49.25
25028,2018-06-29 08:57:54.125000,23.21,49.25
25029,2018-06-29 08:57:54.156250,33.06,49.25
25030,2018-06-29 08:57:54.187500,41.96,49.25
25031,2018-06-29 08:57:54.218750,48.27,49.25
25032,2018-06-29 08:57:54.250000,51.68,49.25
25033,2018-06-29 08:57:54.281250,52.3,49.25
25034,2018-06-29 08:57:54.312500,50.83,49.25
25035,2018-06-29 08:57:54.343750,48.19,49.25
25036,2018-06-29 08:57:54.375000,44.34,49.25
25037,2018-06-29 08:57:54.406250,38.38,49.25
25038,2018-06-29 08:57:54.437500,30.02,49.25
25039,2018-06-29 08:57:54.468750,20.02,49.25
25040,2018-06-29 08:57:54.500000,9.1,49.25
25041,2018-06-29 08:57:54.531250,-2.73,49.37
25042,2018-06-29 08:57:54.562500,-15.65,49.37
25043,2018-06-29 08:57:54.593750,-27.81,49.37
25044,2018-06-29 08:57:54.625000,-34.29,49.37
25045,2018-06-29 08:57:54.656250,-31.72,49.37
25046,2018-06-29 08:57:54.687500,-23.16,49.37
25047,2018-06-29 08:57:54.718750,-13.9,49.37
25048,2018-06-29 08:57:54.750000,-5.26,49.37
25049,2018-06-29 08:57:54.781250,2.93,49.37
25050,2018-06-29 08:57:54.812500,8.59,49.37
25051,2018-06-29 08:57:54.843750,10.39,49.37
25052,2018-06-29 08:57:54.875000,10.13,49.37
25053,2018-06-29 08:57:54.906250,9.73,49.37
25054,2018-06-29 08:57:54.937500,9.73,49.37
25055,2018-06-29 08:57:54.968750,10.42,49.37
25056,2018-06-29 08:57:55.000000,12.0,49.37
25057,2018-06-29 08:57:55.031250,14.09,49.37
25058,2018-06-29 08:57:55.062500,15.65,49.37
25059,2018-06-29 08:57:55.093750,15.33,49.37
25060,2018-06-29 08:57:55.125000,12.68,49.37
25061,2018-06-29 08:57:55.156250,8.46,49.37
25062,2018-06-29 08:57:55.187500,4.01,49.37
25063,2018-06-29 08:57:55.218750,0.36,49.37
25064,2018-06-29 08:57:55.250000,-2.52,49.37
25065,2018-06-29 08:57:55.281250,-5.6,49.37
25066,2018-06-29 08:57:55.312500,-8.76,49.37
