,Time,ppg,hr
224000,2018-06-29 10:41:32.000000,-520.77,69.5
224001,2018-06-29 10:41:32.031250,-506.51,69.5
224002,2018-06-29 10:41:32.062500,-402.03,69.5
224003,2018-06-29 10:41:32.093750,-284.55,69.5
224004,2018-06-29 10:41:32.125000,-229.83,69.5
224005,2018-06-29 10:41:32.156250,-265.91,69.5
224006,2018-06-29 10:41:32.187500,-309.77,69.5
224007,2018-06-29 10:41:32.218750,-286.01,69.5
224008,2018-06-29 10:41:32.250000,-167.74,69.5
224009,2018-06-29 10:41:32.281250,61.81,69.5
224010,2018-06-29 10:41:32.312500,185.86,69.5
224011,2018-06-29 10:41:32.343750,192.11,69.5
224012,2018-06-29 10:41:32.375000,159.75,69.5
224013,2018-06-29 10:41:32.406250,119.01,69.5
224014,2018-06-29 10:41:32.437500,74.16,69.5
224015,2018-06-29 10:41:32.468750,57.54,69.5
224016,2018-06-29 10:41:32.500000,62.41,69.5
224017,2018-06-29 10:41:32.531250,67.03,69.33
224018,2018-06-29 10:41:32.562500,54.24,69.33
224019,2018-06-29 10:41:32.593750,29.14,69.33
224020,2018-06-29 10:41:32.625000,-0.68,69.33
224021,2018-06-29 10:41:32.656250,-50.43,69.33
224022,2018-06-29 10:41:32.687500,-122.35,69.33
224023,2018-06-29 10:41:32.718750,-203.14,69.33
224024,2018-06-29 10:41:32.750000,-253.1,69.33
224025,2018-06-29 10:41:32.781250,-249.26,69.33
224026,2018-06-29 10:41:32.812500,-185.95,69.33
224027,2018-06-29 10:41:32.843750,-69.02,69.33
224028,2018-06-29 10:41:32.875000,87.14,69.33
224029,2018-06-29 10:41:32.906250,255.06,69.33
224030,2018-06-29 10:41:32.937500,394.85,69.33
224031,2018-06-29 10:41:32.968750,478.72,69.33
224032,2018-06-29 10:41:33.000000,501.58,69.33
224033,2018-06-29 10:41:33.031250,481.25,69.33
224034,2018-06-29 10:41:33.062500,441.91,69.33
224035,2018-06-29 10:41:33.093750,396.67,69.33
224036,2018-06-29 10:41:33.125000,341.98,69.33
224037,2018-06-29 10:41:33.156250,271.4,69.33
224038,2018-06-29 10:41:33.187500,191.35,69.33
224039,2018-06-29 10:41:33.218750,118.53,69.33
224040,2018-06-29 10:41:33.250000,65.29,69.33
224041,2018-06-29 10:41:33.281250,32.6,69.33
224042,2018-06-29 10:41:33.312500,11.32,69.33
224043,2018-06-29 10:41:33.343750,-14.58,69.33
224044,2018-06-29 10:41:33.375000,-56.27,69.33
224045,2018-06-29 10:41:33.406250,-103.11,69.33
224046,2018-06-29 10:41:33.437500,-126.96,69.33
224047,2018-06-29 10:41:33.468750,-113.72,69.33
224048,2018-06-29 10:41:33.500000,-77.97,69.33
224049,2018-06-29 10:41:33.531250,-40.57,69.22
224050,2018-06-29 10:41:33.562500,-8.87,69.22
224051,2018-06-29 10:41:33.593750,17.2,69.22
224052,2018-06-29 10:41:33.625000,34.28,69.22
224053,2018-06-29 10:41:33.656250,38.92,69.22
224054,2018-06-29 10:41:33.687500,33.98,69.22
224055,2018-06-29 10:41:33.718750,26.04,69.22
224056,2018-06-29 10:41:33.750000,19.74,69.22
224057,2018-06-29 10:41:33.781250,16.94,69.22
224058,2018-06-29 10:41:33.812500,19.63,69.22
224059,2018-06-29 10:41:33.843750,28.86,69.22
224060,2018-06-29 10:41:33.875000,39.86,69.22
224061,2018-06-29 10:41:33.906250,43.05,69.22
224062,2018-06-29 10:41:33.937500,32.66,69.22
224063,2018-06-29 10:41:33.968750,7.42,69.22
224064,2018-06-29 10:41:34.000000,-38.58,69.22
224065,2018-06-29 10:41:34.031250,-108.92,69.22
224066,2018-06-29 10:41:34.062500,-189.02,69.22
224067,2018-06-29 10:41:34.093750,-255.19,69.22
224068,2018-06-29 10:41:34.125000,-291.35,69.22
224069,2018-06-29 10:41:34.156250,-284.55,69.22
224070,2018-06-29 10:41:34.187500,-225.21,69.22
224071,2018-06-29 10:41:34.218750,-123.61,69.22
224072,2018-06-29 10:41:34.250000,-1.29,69.22
224073,2018-06-29 10:41:34.281250,132.14,69.22
224074,2018-06-29 10:41:34.312500,266.14,69.22
224075,2018-06-29 10:41:34.343750,369.95,69.22
224076,2018-06-29 10:41:34.375000,417.16,69.22
224077,2018-06-29 10:41:34.406250,414.23,69.22
224078,2018-06-29 10:41:34.437500,384.5,69.22
224079,2018-06-29 10:41:34.468750,342.42,69.22
224080,2018-06-29 10:41:34.500000,295.89,69.22
224081,2018-06-29 10:41:34.531250,254.5,69.15
224082,2018-06-29 10:41:34.562500,223.18,69.15
224083,2018-06-29 10:41:34.593750,197.78,69.15
224084,2018-06-29 10:41:34.625000,173.14,69.15
224085,2018-06-29 10:41:34.656250,149.66,69.15
224086,2018-06-29 10:41:34.687500,129.89,69.15
224087,2018-06-29 10:41:34.718750,114.35,69.15
224088,2018-06-29 10:41:34.750000,102.07,69.15
224089,2018-06-29 10:41:34.781250,90.96,69.15
224090,2018-06-29 10:41:34.812500,74.07,69.15
224091,2018-06-29 10:41:34.843750,39.62,69.15
224092,2018-06-29 10:41:34.875000,-16.07,69.15
224093,2018-06-29 10:41:34.906250,-77.79,69.15
224094,2018-06-29 10:41:34.937500,-123.48,69.15
224095,2018-06-29 10:41:34.968750,-147.49,69.15
224096,2018-06-29 10:41:35.000000,-163.02,69.15
224097,2018-06-29 10:41:35.031250,-181.62,69.15
224098,2018-06-29 10:41:35.062500,-198.51,69.15
224099,2018-06-29 10:41:35.093750,-200.04,69.15
224100,2018-06-29 10:41:35.125000,-182.03,69.15
224101,2018-06-29 10:41:35.156250,-155.78,69.15
224102,2018-06-29 10:41:35.187500,-135.09,69.15
224103,2018-06-29 10:41:35.218750,-121.56,69.15
224104,2018-06-29 10:41:35.250000,-104.74,69.15
224105,2018-06-29 10:41:35.281250,-74.39,69.15
224106,2018-06-29 10:41:35.312500,-32.17,69.15
224107,2018-06-29 10:41:35.343750,11.26,69.15
224108,2018-06-29 10:41:35.375000,48.9,69.15
224109,2018-06-29 10:41:35.406250,80.03,69.15
224110,2018-06-29 10:41:35.437500,102.06,69.15
224111,2018-06-29 10:41:35.468750,109.07,69.15
224112,2018-06-29 10:41:35.500000,100.2,69.15
224113,2018-06-29 10:41:35.531250,80.92,69.08
224114,2018-06-29 10:41:35.562500,58.81,69.08
224115,2018-06-29 10:41:35.593750,39.65,69.08
224116,2018-06-29 10:41:35.625000,27.76,69.08
224117,2018-06-29 10:41:35.656250,25.43,69.08
224118,2018-06-29 10:41:35.687500,30.0,69.08
224119,2018-06-29 10:41:35.718750,36.08,69.08
224120,2018-06-29 10:41:35.750000,37.09,69.08
224121,2018-06-29 10:41:35.781250,32.45,69.08
224122,2018-06-29 10:41:35.812500,19.94,69.08
224123,2018-06-29 10:41:35.843750,-3.76,69.08
224124,2018-06-29 10:41:35.875000,-44.11,69.08
224125,2018-06-29 10:41:35.906250,-98.02,69.08
224126,2018-06-29 10:41:35.937500,-148.84,69.08
224127,2018-06-29 10:41:35.968750,-175.73,69.08
224128,2018-06-29 10:41:36.000000,-164.99,69.08
224129,2018-06-29 10:41:36.031250,-133.62,69.08
224130,2018-06-29 10:41:36.062500,-104.33,69.08
224131,2018-06-29 10:41:36.093750,-95.88,69.08
224132,2018-06-29 10:41:36.125000,-105.51,69.08
224133,2018-06-29 10:41:36.156250,-124.92,69.08
224134,2018-06-29 10:41:36.187500,-142.38,69.08
224135,2018-06-29 10:41:36.218750,-139.73,69.08
224136,2018-06-29 10:41:36.250000,-137.06,69.08
224137,2018-06-29 10:41:36.281250,-105.98,69.08
224138,2018-06-29 10:41:36.312500,-41.56,69.08
224139,2018-06-29 10:41:36.343750,26.77,69.08
224140,2018-06-29 10:41:36.375000,82.34,69.08
224141,2018-06-29 10:41:36.406250,123.85,69.08
224142,2018-06-29 10:41:36.437500,148.77,69.08
224143,2018-06-29 10:41:36.468750,160.54,69.08
224144,2018-06-29 10:41:36.500000,169.73,69.08
224145,2018-06-29 10:41:36.531250,177.72,68.97
224146,2018-06-29 10:41:36.562500,180.28,68.97
224147,2018-06-29 10:41:36.593750,167.24,68.97
224148,2018-06-29 10:41:36.625000,147.51,68.97
224149,2018-06-29 10:41:36.656250,130.72,68.97
224150,2018-06-29 10:41:36.687500,120.36,68.97
224151,2018-06-29 10:41:36.718750,112.8,68.97
224152,2018-06-29 10:41:36.750000,107.81,68.97
224153,2018-06-29 10:41:36.781250,108.45,68.97
224154,2018-06-29 10:41:36.812500,111.34,68.97
224155,2018-06-29 10:41:36.843750,107.61,68.97
224156,2018-06-29 10:41:36.875000,87.62,68.97
224157,2018-06-29 10:41:36.906250,57.53,68.97
224158,2018-06-29 10:41:36.937500,33.22,68.97
224159,2018-06-29 10:41:36.968750,23.21,68.97
224160,2018-06-29 10:41:37.000000,21.01,68.97
224161,2018-06-29 10:41:37.031250,17.24,68.97
224162,2018-06-29 10:41:37.062500,9.32,68.97
224163,2018-06-29 10:41:37.093750,-1.74,68.97
224164,2018-06-29 10:41:37.125000,-13.41,68.97
224165,2018-06-29 10:41:37.156250,-20.7,68.97
224166,2018-06-29 10:41:37.187500,-19.72,68.97
224167,2018-06-29 10:41:37.218750,-13.4,68.97
224168,2018-06-29 10:41:37.250000,-8.83,68.97
224169,2018-06-29 10:41:37.281250,-7.59,68.97
224170,2018-06-29 10:41:37.312500,-3.83,68.97
224171,2018-06-29 10:41:37.343750,7.06,68.97
224172,2018-06-29 10:41:37.375000,21.32,68.97
224173,2018-06-29 10:41:37.406250,28.11,68.97
224174,2018-06-29 10:41:37.437500,15.64,68.97
224175,2018-06-29 10:41:37.468750,-19.92,68.97
224176,2018-06-29 10:41:37.500000,-69.0,68.97
224177,2018-06-29 10:41:37.531250,-113.66,68.85
224178,2018-06-29 10:41:37.562500,-137.48,68.85
224179,2018-06-29 10:41:37.593750,-130.47,68.85
224180,2018-06-29 10:41:37.625000,-93.57,68.85
224181,2018-06-29 10:41:37.656250,-48.62,68.85
224182,2018-06-29 10:41:37.687500,-32.81,68.85
224183,2018-06-29 10:41:37.718750,-66.05,68.85
224184,2018-06-29 10:41:37.750000,-131.96,68.85
224185,2018-06-29 10:41:37.781250,-200.79,68.85
224186,2018-06-29 10:41:37.812500,-252.76,68.85
224187,2018-06-29 10:41:37.843750,-276.1,68.85
224188,2018-06-29 10:41:37.875000,-265.77,68.85
224189,2018-06-29 10:41:37.906250,-227.33,68.85
224190,2018-06-29 10:41:37.937500,-175.4,68.85
224191,2018-06-29 10:41:37.968750,-131.4,68.85
224192,2018-06-29 10:41:38.000000,-113.4,68.85
224193,2018-06-29 10:41:38.031250,-120.95,68.85
224194,2018-06-29 10:41:38.062500,-140.94,68.85
224195,2018-06-29 10:41:38.093750,-162.3,68.85
224196,2018-06-29 10:41:38.125000,-172.81,68.85
224197,2018-06-29 10:41:38.156250,-162.93,68.85
224198,2018-06-29 10:41:38.187500,-142.45,68.85
224199,2018-06-29 10:41:38.218750,-126.5,68.85
224200,2018-06-29 10:41:38.250000,-107.34,68.85
224201,2018-06-29 10:41:38.281250,-66.48,68.85
224202,2018-06-29 10:41:38.312500,-4.88,68.85
224203,2018-06-29 10:41:38.343750,57.42,68.85
224204,2018-06-29 10:41:38.375000,90.18,68.85
224205,2018-06-29 10:41:38.406250,70.77,68.85
224206,2018-06-29 10:41:38.437500,24.56,68.85
224207,2018-06-29 10:41:38.468750,10.39,68.85
224208,2018-06-29 10:41:38.500000,36.3,68.85
224209,2018-06-29 10:41:38.531250,51.31,68.78
224210,2018-06-29 10:41:38.562500,37.78,68.78
224211,2018-06-29 10:41:38.593750,30.25,68.78
224212,2018-06-29 10:41:38.625000,39.21,68.78
224213,2018-06-29 10:41:38.656250,38.14,68.78
224214,2018-06-29 10:41:38.687500,21.01,68.78
224215,2018-06-29 10:41:38.718750,8.88,68.78
224216,2018-06-29 10:41:38.750000,8.53,68.78
224217,2018-06-29 10:41:38.781250,8.75,68.78
224218,2018-06-29 10:41:38.812500,9.49,68.78
224219,2018-06-29 10:41:38.843750,21.95,68.78
224220,2018-06-29 10:41:38.875000,43.59,68.78
224221,2018-06-29 10:41:38.906250,57.12,68.78
224222,2018-06-29 10:41:38.937500,54.7,68.78
224223,2018-06-29 10:41:38.968750,44.65,68.78
224224,2018-06-29 10:41:39.000000,32.85,68.78
224225,2018-06-29 10:41:39.031250,14.73,68.78
224226,2018-06-29 10:41:39.062500,-11.03,68.78
224227,2018-06-29 10:41:39.093750,-36.28,68.78
224228,2018-06-29 10:41:39.125000,-54.8,68.78
224229,2018-06-29 10:41:39.156250,-68.91,68.78
224230,2018-06-29 10:41:39.187500,-82.45,68.78
224231,2018-06-29 10:41:39.218750,-94.13,68.78
224232,2018-06-29 10:41:39.250000,-97.54,68.78
224233,2018-06-29 10:41:39.281250,-85.72,68.78
224234,2018-06-29 10:41:39.312500,-58.84,68.78
224235,2018-06-29 10:41:39.343750,-26.45,68.78
224236,2018-06-29 10:41:39.375000,1.84,68.78
224237,2018-06-29 10:41:39.406250,24.36,68.78
224238,2018-06-29 10:41:39.437500,43.3,68.78
224239,2018-06-29 10:41:39.468750,58.11,68.78
224240,2018-06-29 10:41:39.500000,66.29,68.78
224241,2018-06-29 10:41:39.531250,67.73,68.72
224242,2018-06-29 10:41:39.562500,65.24,68.72
224243,2018-06-29 10:41:39.593750,60.63,68.72
224244,2018-06-29 10:41:39.625000,53.9,68.72
224245,2018-06-29 10:41:39.656250,46.46,68.72
224246,2018-06-29 10:41:39.687500,41.05,68.72
224247,2018-06-29 10:41:39.718750,38.08,68.72
224248,2018-06-29 10:41:39.750000,36.36,68.72
224249,2018-06-29 10:41:39.781250,36.11,68.72
224250,2018-06-29 10:41:39.812500,36.1,68.72
224251,2018-06-29 10:41:39.843750,31.32,68.72
224252,2018-06-29 10:41:39.875000,19.13,68.72
224253,2018-06-29 10:41:39.906250,4.5,68.72
224254,2018-06-29 10:41:39.937500,-6.26,68.72
224255,2018-06-29 10:41:39.968750,-14.56,68.72
224256,2018-06-29 10:41:40.000000,-28.49,68.72
224257,2018-06-29 10:41:40.031250,-53.14,68.72
224258,2018-06-29 10:41:40.062500,-80.65,68.72
224259,2018-06-29 10:41:40.093750,-92.42,68.72
224260,2018-06-29 10:41:40.125000,-78.3,68.72
224261,2018-06-29 10:41:40.156250,-48.84,68.72
224262,2018-06-29 10:41:40.187500,-22.56,68.72
224263,2018-06-29 10:41:40.218750,-9.71,68.72
224264,2018-06-29 10:41:40.250000,-12.75,68.72
224265,2018-06-29 10:41:40.281250,-30.99,68.72
224266,2018-06-29 10:41:40.312500,-59.28,68.72
224267,2018-06-29 10:41:40.343750,-88.35,68.72
224268,2018-06-29 10:41:40.375000,-110.25,68.72
224269,2018-06-29 10:41:40.406250,-123.61,68.72
224270,2018-06-29 10:41:40.437500,-134.38,68.72
224271,2018-06-29 10:41:40.468750,-151.12,68.72
224272,2018-06-29 10:41:40.500000,-176.98,68.72
224273,2018-06-29 10:41:40.531250,-211.62,68.65
224274,2018-06-29 10:41:40.562500,-253.2,68.65
224275,2018-06-29 10:41:40.593750,-289.48,68.65
224276,2018-06-29 10:41:40.625000,-294.46,68.65
224277,2018-06-29 10:41:40.656250,-243.34,68.65
224278,2018-06-29 10:41:40.687500,-129.28,68.65
224279,2018-06-29 10:41:40.718750,31.35,68.65
224280,2018-06-29 10:41:40.750000,194.77,68.65
224281,2018-06-29 10:41:40.781250,312.11,68.65
224282,2018-06-29 10:41:40.812500,368.84,68.65
224283,2018-06-29 10:41:40.843750,392.82,68.65
224284,2018-06-29 10:41:40.875000,408.41,68.65
224285,2018-06-29 10:41:40.906250,412.34,68.65
224286,2018-06-29 10:41:40.937500,402.31,68.65
224287,2018-06-29 10:41:40.968750,386.86,68.65
224288,2018-06-29 10:41:41.000000,374.16,68.65
224289,2018-06-29 10:41:41.031250,347.47,68.65
224290,2018-06-29 10:41:41.062500,297.71,68.65
224291,2018-06-29 10:41:41.093750,236.14,68.65
224292,2018-06-29 10:41:41.125000,188.49,68.65
224293,2018-06-29 10:41:41.156250,158.9,68.65
224294,2018-06-29 10:41:41.187500,123.93,68.65
224295,2018-06-29 10:41:41.218750,82.36,68.65
224296,2018-06-29 10:41:41.250000,56.66,68.65
224297,2018-06-29 10:41:41.281250,73.32,68.65
224298,2018-06-29 10:41:41.312500,103.05,68.65
224299,2018-06-29 10:41:41.343750,111.53,68.65
224300,2018-06-29 10:41:41.375000,61.93,68.65
224301,2018-06-29 10:41:41.406250,-113.55,68.65
224302,2018-06-29 10:41:41.437500,-256.52,68.65
224303,2018-06-29 10:41:41.468750,-286.18,68.65
224304,2018-06-29 10:41:41.500000,-272.92,68.65
224305,2018-06-29 10:41:41.531250,-282.66,68.73
224306,2018-06-29 10:41:41.562500,-295.91,68.73
224307,2018-06-29 10:41:41.593750,-292.08,68.73
224308,2018-06-29 10:41:41.625000,-268.63,68.73
224309,2018-06-29 10:41:41.656250,-230.68,68.73
224310,2018-06-29 10:41:41.687500,-168.14,68.73
224311,2018-06-29 10:41:41.718750,-84.55,68.73
224312,2018-06-29 10:41:41.750000,-14.77,68.73
224313,2018-06-29 10:41:41.781250,24.88,68.73
224314,2018-06-29 10:41:41.812500,40.17,68.73
224315,2018-06-29 10:41:41.843750,47.0,68.73
224316,2018-06-29 10:41:41.875000,39.94,68.73
224317,2018-06-29 10:41:41.906250,16.98,68.73
224318,2018-06-29 10:41:41.937500,-8.28,68.73
224319,2018-06-29 10:41:41.968750,-16.87,68.73
224320,2018-06-29 10:41:42.000000,-6.45,68.73
224321,2018-06-29 10:41:42.031250,6.54,68.73
224322,2018-06-29 10:41:42.062500,11.56,68.73
224323,2018-06-29 10:41:42.093750,11.02,68.73
224324,2018-06-29 10:41:42.125000,11.07,68.73
224325,2018-06-29 10:41:42.156250,9.17,68.73
224326,2018-06-29 10:41:42.187500,0.25,68.73
224327,2018-06-29 10:41:42.218750,-16.66,68.73
224328,2018-06-29 10:41:42.250000,-38.35,68.73
224329,2018-06-29 10:41:42.281250,-57.2,68.73
224330,2018-06-29 10:41:42.312500,-60.71,68.73
224331,2018-06-29 10:41:42.343750,-40.9,68.73
224332,2018-06-29 10:41:42.375000,-5.17,68.73
224333,2018-06-29 10:41:42.406250,30.53,68.73
224334,2018-06-29 10:41:42.437500,57.87,68.73
224335,2018-06-29 10:41:42.468750,78.03,68.73
224336,2018-06-29 10:41:42.500000,92.11,68.73
224337,2018-06-29 10:41:42.531250,99.2,68.83
224338,2018-06-29 10:41:42.562500,100.06,68.83
224339,2018-06-29 10:41:42.593750,96.84,68.83
224340,2018-06-29 10:41:42.625000,90.79,68.83
224341,2018-06-29 10:41:42.656250,82.74,68.83
224342,2018-06-29 10:41:42.687500,74.1,68.83
224343,2018-06-29 10:41:42.718750,65.84,68.83
224344,2018-06-29 10:41:42.750000,56.91,68.83
224345,2018-06-29 10:41:42.781250,45.63,68.83
224346,2018-06-29 10:41:42.812500,32.63,68.83
224347,2018-06-29 10:41:42.843750,20.38,68.83
224348,2018-06-29 10:41:42.875000,9.55,68.83
224349,2018-06-29 10:41:42.906250,-1.74,68.83
224350,2018-06-29 10:41:42.937500,-13.96,68.83
224351,2018-06-29 10:41:42.968750,-24.4,68.83
224352,2018-06-29 10:41:43.000000,-31.72,68.83
224353,2018-06-29 10:41:43.031250,-39.56,68.83
224354,2018-06-29 10:41:43.062500,-53.38,68.83
224355,2018-06-29 10:41:43.093750,-73.28,68.83
224356,2018-06-29 10:41:43.125000,-88.69,68.83
224357,2018-06-29 10:41:43.156250,-83.56,68.83
224358,2018-06-29 10:41:43.187500,-52.97,68.83
224359,2018-06-29 10:41:43.218750,-9.99,68.83
224360,2018-06-29 10:41:43.250000,29.09,68.83
224361,2018-06-29 10:41:43.281250,59.25,68.83
224362,2018-06-29 10:41:43.312500,82.43,68.83
224363,2018-06-29 10:41:43.343750,98.13,68.83
224364,2018-06-29 10:41:43.375000,104.76,68.83
224365,2018-06-29 10:41:43.406250,104.95,68.83
224366,2018-06-29 10:41:43.437500,103.43,68.83
224367,2018-06-29 10:41:43.468750,101.5,68.83
224368,2018-06-29 10:41:43.500000,97.28,68.83
224369,2018-06-29 10:41:43.531250,90.59,68.85
224370,2018-06-29 10:41:43.562500,83.19,68.85
224371,2018-06-29 10:41:43.593750,74.57,68.85
224372,2018-06-29 10:41:43.625000,61.9,68.85
224373,2018-06-29 10:41:43.656250,43.7,68.85
224374,2018-06-29 10:41:43.687500,20.93,68.85
224375,2018-06-29 10:41:43.718750,-4.18,68.85
224376,2018-06-29 10:41:43.750000,-29.4,68.85
224377,2018-06-29 10:41:43.781250,-54.91,68.85
224378,2018-06-29 10:41:43.812500,-85.6,68.85
224379,2018-06-29 10:41:43.843750,-129.86,68.85
224380,2018-06-29 10:41:43.875000,-197.83,68.85
224381,2018-06-29 10:41:43.906250,-294.91,68.85
224382,2018-06-29 10:41:43.937500,-406.52,68.85
224383,2018-06-29 10:41:43.968750,-496.97,68.85
224384,2018-06-29 10:41:44.000000,-534.1,68.85
224385,2018-06-29 10:41:44.031250,-509.78,68.85
224386,2018-06-29 10:41:44.062500,-435.31,68.85
224387,2018-06-29 10:41:44.093750,-331.19,68.85
224388,2018-06-29 10:41:44.125000,-218.55,68.85
224389,2018-06-29 10:41:44.156250,-108.27,68.85
224390,2018-06-29 10:41:44.187500,-3.42,68.85
224391,2018-06-29 10:41:44.218750,89.45,68.85
224392,2018-06-29 10:41:44.250000,164.28,68.85
224393,2018-06-29 10:41:44.281250,224.33,68.85
224394,2018-06-29 10:41:44.312500,276.52,68.85
224395,2018-06-29 10:41:44.343750,324.3,68.85
224396,2018-06-29 10:41:44.375000,369.86,68.85
224397,2018-06-29 10:41:44.406250,411.31,68.85
224398,2018-06-29 10:41:44.437500,438.12,68.85
224399,2018-06-29 10:41:44.468750,436.87,68.85
224400,2018-06-29 10:41:44.500000,403.08,68.85
224401,2018-06-29 10:41:44.531250,345.83,68.9
224402,2018-06-29 10:41:44.562500,281.01,68.9
224403,2018-06-29 10:41:44.593750,219.01,68.9
224404,2018-06-29 10:41:44.625000,159.76,68.9
224405,2018-06-29 10:41:44.656250,100.8,68.9
224406,2018-06-29 10:41:44.687500,44.83,68.9
224407,2018-06-29 10:41:44.718750,-2.89,68.9
224408,2018-06-29 10:41:44.750000,-39.27,68.9
224409,2018-06-29 10:41:44.781250,-64.59,68.9
224410,2018-06-29 10:41:44.812500,-81.45,68.9
224411,2018-06-29 10:41:44.843750,-91.18,68.9
224412,2018-06-29 10:41:44.875000,-90.43,68.9
224413,2018-06-29 10:41:44.906250,-75.82,68.9
224414,2018-06-29 10:41:44.937500,-51.33,68.9
224415,2018-06-29 10:41:44.968750,-26.26,68.9
224416,2018-06-29 10:41:45.000000,-7.14,68.9
224417,2018-06-29 10:41:45.031250,5.38,68.9
224418,2018-06-29 10:41:45.062500,13.15,68.9
224419,2018-06-29 10:41:45.093750,17.7,68.9
224420,2018-06-29 10:41:45.125000,20.42,68.9
224421,2018-06-29 10:41:45.156250,22.72,68.9
224422,2018-06-29 10:41:45.187500,24.74,68.9
224423,2018-06-29 10:41:45.218750,25.52,68.9
224424,2018-06-29 10:41:45.250000,25.14,68.9
224425,2018-06-29 10:41:45.281250,24.41,68.9
224426,2018-06-29 10:41:45.312500,23.08,68.9
224427,2018-06-29 10:41:45.343750,20.84,68.9
224428,2018-06-29 10:41:45.375000,18.18,68.9
224429,2018-06-29 10:41:45.406250,15.06,68.9
224430,2018-06-29 10:41:45.437500,10.47,68.9
224431,2018-06-29 10:41:45.468750,3.93,68.9
224432,2018-06-29 10:41:45.500000,-3.91,68.9
224433,2018-06-29 10:41:45.531250,-11.6,68.92
224434,2018-06-29 10:41:45.562500,-17.83,68.92
224435,2018-06-29 10:41:45.593750,-22.47,68.92
224436,2018-06-29 10:41:45.625000,-25.77,68.92
224437,2018-06-29 10:41:45.656250,-27.64,68.92
224438,2018-06-29 10:41:45.687500,-29.08,68.92
224439,2018-06-29 10:41:45.718750,-32.37,68.92
224440,2018-06-29 10:41:45.750000,-38.67,68.92
224441,2018-06-29 10:41:45.781250,-45.71,68.92
224442,2018-06-29 10:41:45.812500,-46.21,68.92
224443,2018-06-29 10:41:45.843750,-30.29,68.92
224444,2018-06-29 10:41:45.875000,2.92,68.92
224445,2018-06-29 10:41:45.906250,37.97,68.92
224446,2018-06-29 10:41:45.937500,56.53,68.92
224447,2018-06-29 10:41:45.968750,55.39,68.92
224448,2018-06-29 10:41:46.000000,43.25,68.92
224449,2018-06-29 10:41:46.031250,26.45,68.92
224450,2018-06-29 10:41:46.062500,7.35,68.92
224451,2018-06-29 10:41:46.093750,-12.05,68.92
224452,2018-06-29 10:41:46.125000,-30.04,68.92
224453,2018-06-29 10:41:46.156250,-41.04,68.92
224454,2018-06-29 10:41:46.187500,-36.95,68.92
224455,2018-06-29 10:41:46.218750,-26.26,68.92
224456,2018-06-29 10:41:46.250000,-36.99,68.92
224457,2018-06-29 10:41:46.281250,-84.31,68.92
224458,2018-06-29 10:41:46.312500,-151.24,68.92
224459,2018-06-29 10:41:46.343750,-210.29,68.92
224460,2018-06-29 10:41:46.375000,-244.92,68.92
224461,2018-06-29 10:41:46.406250,-248.96,68.92
224462,2018-06-29 10:41:46.437500,-225.54,68.92
224463,2018-06-29 10:41:46.468750,-185.92,68.92
224464,2018-06-29 10:41:46.500000,-137.4,68.92
224465,2018-06-29 10:41:46.531250,-77.21,68.88
224466,2018-06-29 10:41:46.562500,-3.24,68.88
224467,2018-06-29 10:41:46.593750,75.29,68.88
224468,2018-06-29 10:41:46.625000,139.73,68.88
224469,2018-06-29 10:41:46.656250,176.73,68.88
224470,2018-06-29 10:41:46.687500,193.51,68.88
224471,2018-06-29 10:41:46.718750,213.71,68.88
224472,2018-06-29 10:41:46.750000,253.95,68.88
224473,2018-06-29 10:41:46.781250,306.02,68.88
224474,2018-06-29 10:41:46.812500,341.66,68.88
224475,2018-06-29 10:41:46.843750,334.72,68.88
224476,2018-06-29 10:41:46.875000,279.81,68.88
224477,2018-06-29 10:41:46.906250,190.87,68.88
224478,2018-06-29 10:41:46.937500,87.31,68.88
224479,2018-06-29 10:41:46.968750,-12.04,68.88
224480,2018-06-29 10:41:47.000000,-89.35,68.88
224481,2018-06-29 10:41:47.031250,-135.01,68.88
224482,2018-06-29 10:41:47.062500,-154.39,68.88
224483,2018-06-29 10:41:47.093750,-159.74,68.88
224484,2018-06-29 10:41:47.125000,-158.28,68.88
224485,2018-06-29 10:41:47.156250,-152.16,68.88
224486,2018-06-29 10:41:47.187500,-141.29,68.88
224487,2018-06-29 10:41:47.218750,-122.68,68.88
224488,2018-06-29 10:41:47.250000,-98.49,68.88
224489,2018-06-29 10:41:47.281250,-81.21,68.88
224490,2018-06-29 10:41:47.312500,-76.93,68.88
224491,2018-06-29 10:41:47.343750,-76.25,68.88
224492,2018-06-29 10:41:47.375000,-71.34,68.88
224493,2018-06-29 10:41:47.406250,-63.57,68.88
224494,2018-06-29 10:41:47.437500,-53.25,68.88
224495,2018-06-29 10:41:47.468750,-39.81,68.88
224496,2018-06-29 10:41:47.500000,-28.61,68.88
224497,2018-06-29 10:41:47.531250,-24.74,68.9
224498,2018-06-29 10:41:47.562500,-28.33,68.9
224499,2018-06-29 10:41:47.593750,-38.69,68.9
224500,2018-06-29 10:41:47.625000,-53.03,68.9
224501,2018-06-29 10:41:47.656250,-63.41,68.9
224502,2018-06-29 10:41:47.687500,-62.64,68.9
224503,2018-06-29 10:41:47.718750,-51.46,68.9
224504,2018-06-29 10:41:47.750000,-36.04,68.9
224505,2018-06-29 10:41:47.781250,-21.04,68.9
224506,2018-06-29 10:41:47.812500,-8.66,68.9
224507,2018-06-29 10:41:47.843750,0.11,68.9
224508,2018-06-29 10:41:47.875000,6.04,68.9
224509,2018-06-29 10:41:47.906250,11.24,68.9
224510,2018-06-29 10:41:47.937500,17.43,68.9
224511,2018-06-29 10:41:47.968750,25.36,68.9
224512,2018-06-29 10:41:48.000000,34.44,68.9
224513,2018-06-29 10:41:48.031250,41.44,68.9
224514,2018-06-29 10:41:48.062500,41.31,68.9
224515,2018-06-29 10:41:48.093750,31.58,68.9
224516,2018-06-29 10:41:48.125000,15.46,68.9
224517,2018-06-29 10:41:48.156250,-1.39,68.9
224518,2018-06-29 10:41:48.187500,-15.79,68.9
224519,2018-06-29 10:41:48.218750,-27.28,68.9
224520,2018-06-29 10:41:48.250000,-35.53,68.9
224521,2018-06-29 10:41:48.281250,-40.26,68.9
224522,2018-06-29 10:41:48.312500,-42.79,68.9
224523,2018-06-29 10:41:48.343750,-45.33,68.9
224524,2018-06-29 10:41:48.375000,-48.38,68.9
224525,2018-06-29 10:41:48.406250,-49.94,68.9
224526,2018-06-29 10:41:48.437500,-46.27,68.9
224527,2018-06-29 10:41:48.468750,-34.45,68.9
224528,2018-06-29 10:41:48.500000,-16.88,68.9
224529,2018-06-29 10:41:48.531250,-1.56,68.92
224530,2018-06-29 10:41:48.562500,6.12,68.92
224531,2018-06-29 10:41:48.593750,8.78,68.92
224532,2018-06-29 10:41:48.625000,11.16,68.92
224533,2018-06-29 10:41:48.656250,13.31,68.92
224534,2018-06-29 10:41:48.687500,13.46,68.92
224535,2018-06-29 10:41:48.718750,12.74,68.92
224536,2018-06-29 10:41:48.750000,12.82,68.92
224537,2018-06-29 10:41:48.781250,12.8,68.92
224538,2018-06-29 10:41:48.812500,11.47,68.92
224539,2018-06-29 10:41:48.843750,9.47,68.92
224540,2018-06-29 10:41:48.875000,7.12,68.92
224541,2018-06-29 10:41:48.906250,3.7,68.92
224542,2018-06-29 10:41:48.937500,0.03,68.92
224543,2018-06-29 10:41:48.968750,-1.63,68.92
224544,2018-06-29 10:41:49.000000,-0.91,68.92
224545,2018-06-29 10:41:49.031250,-0.32,68.92
224546,2018-06-29 10:41:49.062500,-2.26,68.92
224547,2018-06-29 10:41:49.093750,-7.01,68.92
224548,2018-06-29 10:41:49.125000,-13.83,68.92
224549,2018-06-29 10:41:49.156250,-23.08,68.92
224550,2018-06-29 10:41:49.187500,-36.44,68.92
224551,2018-06-29 10:41:49.218750,-53.4,68.92
224552,2018-06-29 10:41:49.250000,-67.75,68.92
224553,2018-06-29 10:41:49.281250,-71.19,68.92
224554,2018-06-29 10:41:49.312500,-62.25,68.92
224555,2018-06-29 10:41:49.343750,-47.98,68.92
224556,2018-06-29 10:41:49.375000,-35.45,68.92
224557,2018-06-29 10:41:49.406250,-26.13,68.92
224558,2018-06-29 10:41:49.437500,-19.84,68.92
224559,2018-06-29 10:41:49.468750,-18.39,68.92
224560,2018-06-29 10:41:49.500000,-23.2,68.92
224561,2018-06-29 10:41:49.531250,-33.04,68.95
224562,2018-06-29 10:41:49.562500,-46.06,68.95
224563,2018-06-29 10:41:49.593750,-61.86,68.95
224564,2018-06-29 10:41:49.625000,-80.28,68.95
224565,2018-06-29 10:41:49.656250,-98.74,68.95
224566,2018-06-29 10:41:49.687500,-111.84,68.95
224567,2018-06-29 10:41:49.718750,-115.05,68.95
224568,2018-06-29 10:41:49.750000,-106.57,68.95
224569,2018-06-29 10:41:49.781250,-84.57,68.95
224570,2018-06-29 10:41:49.812500,-46.84,68.95
224571,2018-06-29 10:41:49.843750,3.52,68.95
224572,2018-06-29 10:41:49.875000,56.0,68.95
224573,2018-06-29 10:41:49.906250,99.39,68.95
224574,2018-06-29 10:41:49.937500,129.17,68.95
224575,2018-06-29 10:41:49.968750,146.92,68.95
224576,2018-06-29 10:41:50.000000,154.35,68.95
224577,2018-06-29 10:41:50.031250,150.22,68.95
224578,2018-06-29 10:41:50.062500,132.97,68.95
224579,2018-06-29 10:41:50.093750,104.44,68.95
224580,2018-06-29 10:41:50.125000,72.2,68.95
224581,2018-06-29 10:41:50.156250,47.12,68.95
224582,2018-06-29 10:41:50.187500,34.47,68.95
224583,2018-06-29 10:41:50.218750,28.45,68.95
224584,2018-06-29 10:41:50.250000,18.82,68.95
224585,2018-06-29 10:41:50.281250,1.68,68.95
224586,2018-06-29 10:41:50.312500,-19.79,68.95
224587,2018-06-29 10:41:50.343750,-40.18,68.95
224588,2018-06-29 10:41:50.375000,-54.58,68.95
224589,2018-06-29 10:41:50.406250,-57.61,68.95
224590,2018-06-29 10:41:50.437500,-43.79,68.95
224591,2018-06-29 10:41:50.468750,-14.26,68.95
224592,2018-06-29 10:41:50.500000,21.17,68.95
224593,2018-06-29 10:41:50.531250,50.62,69.0
224594,2018-06-29 10:41:50.562500,68.36,69.0
224595,2018-06-29 10:41:50.593750,72.02,69.0
224596,2018-06-29 10:41:50.625000,66.06,69.0
224597,2018-06-29 10:41:50.656250,58.4,69.0
224598,2018-06-29 10:41:50.687500,52.34,69.0
224599,2018-06-29 10:41:50.718750,49.88,69.0
224600,2018-06-29 10:41:50.750000,54.87,69.0
224601,2018-06-29 10:41:50.781250,65.99,69.0
224602,2018-06-29 10:41:50.812500,61.58,69.0
224603,2018-06-29 10:41:50.843750,29.4,69.0
224604,2018-06-29 10:41:50.875000,-22.67,69.0
224605,2018-06-29 10:41:50.906250,-76.86,69.0
224606,2018-06-29 10:41:50.937500,-129.27,69.0
224607,2018-06-29 10:41:50.968750,-182.05,69.0
224608,2018-06-29 10:41:51.000000,-217.69,69.0
224609,2018-06-29 10:41:51.031250,-204.22,69.0
224610,2018-06-29 10:41:51.062500,-107.7,69.0
224611,2018-06-29 10:41:51.093750,59.08,69.0
224612,2018-06-29 10:41:51.125000,252.68,69.0
224613,2018-06-29 10:41:51.156250,380.69,69.0
224614,2018-06-29 10:41:51.187500,341.95,69.0
224615,2018-06-29 10:41:51.218750,214.24,69.0
224616,2018-06-29 10:41:51.250000,78.8,69.0
224617,2018-06-29 10:41:51.281250,-25.11,69.0
224618,2018-06-29 10:41:51.312500,-78.8,69.0
224619,2018-06-29 10:41:51.343750,-88.03,69.0
224620,2018-06-29 10:41:51.375000,-80.98,69.0
224621,2018-06-29 10:41:51.406250,-78.16,69.0
224622,2018-06-29 10:41:51.437500,-83.01,69.0
224623,2018-06-29 10:41:51.468750,-86.34,69.0
224624,2018-06-29 10:41:51.500000,-77.57,69.0
224625,2018-06-29 10:41:51.531250,-62.27,69.02
224626,2018-06-29 10:41:51.562500,-43.78,69.02
224627,2018-06-29 10:41:51.593750,-25.71,69.02
224628,2018-06-29 10:41:51.625000,-12.41,69.02
224629,2018-06-29 10:41:51.656250,-15.54,69.02
224630,2018-06-29 10:41:51.687500,-38.19,69.02
224631,2018-06-29 10:41:51.718750,-77.8,69.02
224632,2018-06-29 10:41:51.750000,-124.51,69.02
224633,2018-06-29 10:41:51.781250,-159.92,69.02
224634,2018-06-29 10:41:51.812500,-169.78,69.02
224635,2018-06-29 10:41:51.843750,-147.67,69.02
224636,2018-06-29 10:41:51.875000,-96.65,69.02
224637,2018-06-29 10:41:51.906250,-26.76,69.02
224638,2018-06-29 10:41:51.937500,44.2,69.02
224639,2018-06-29 10:41:51.968750,100.51,69.02
224640,2018-06-29 10:41:52.000000,134.64,69.02
224641,2018-06-29 10:41:52.031250,143.48,69.02
224642,2018-06-29 10:41:52.062500,128.19,69.02
224643,2018-06-29 10:41:52.093750,97.13,69.02
224644,2018-06-29 10:41:52.125000,64.05,69.02
224645,2018-06-29 10:41:52.156250,39.3,69.02
224646,2018-06-29 10:41:52.187500,26.13,69.02
224647,2018-06-29 10:41:52.218750,24.85,69.02
224648,2018-06-29 10:41:52.250000,35.13,69.02
224649,2018-06-29 10:41:52.281250,53.68,69.02
224650,2018-06-29 10:41:52.312500,75.14,69.02
224651,2018-06-29 10:41:52.343750,96.86,69.02
224652,2018-06-29 10:41:52.375000,118.89,69.02
224653,2018-06-29 10:41:52.406250,138.86,69.02
224654,2018-06-29 10:41:52.437500,150.48,69.02
224655,2018-06-29 10:41:52.468750,147.33,69.02
224656,2018-06-29 10:41:52.500000,126.29,69.02
224657,2018-06-29 10:41:52.531250,88.47,68.98
224658,2018-06-29 10:41:52.562500,40.28,68.98
224659,2018-06-29 10:41:52.593750,-8.93,68.98
224660,2018-06-29 10:41:52.625000,-52.01,68.98
224661,2018-06-29 10:41:52.656250,-84.54,68.98
224662,2018-06-29 10:41:52.687500,-102.27,68.98
224663,2018-06-29 10:41:52.718750,-103.21,68.98
224664,2018-06-29 10:41:52.750000,-91.59,68.98
224665,2018-06-29 10:41:52.781250,-71.75,68.98
224666,2018-06-29 10:41:52.812500,-43.59,68.98
224667,2018-06-29 10:41:52.843750,-9.77,68.98
224668,2018-06-29 10:41:52.875000,15.94,68.98
224669,2018-06-29 10:41:52.906250,20.59,68.98
224670,2018-06-29 10:41:52.937500,6.65,68.98
224671,2018-06-29 10:41:52.968750,-15.52,68.98
224672,2018-06-29 10:41:53.000000,-40.72,68.98
224673,2018-06-29 10:41:53.031250,-71.29,68.98
224674,2018-06-29 10:41:53.062500,-99.82,68.98
224675,2018-06-29 10:41:53.093750,-114.22,68.98
224676,2018-06-29 10:41:53.125000,-105.84,68.98
224677,2018-06-29 10:41:53.156250,-76.88,68.98
224678,2018-06-29 10:41:53.187500,-33.66,68.98
224679,2018-06-29 10:41:53.218750,15.12,68.98
224680,2018-06-29 10:41:53.250000,49.96,68.98
224681,2018-06-29 10:41:53.281250,64.4,68.98
224682,2018-06-29 10:41:53.312500,73.33,68.98
224683,2018-06-29 10:41:53.343750,102.64,68.98
224684,2018-06-29 10:41:53.375000,148.31,68.98
224685,2018-06-29 10:41:53.406250,201.86,68.98
224686,2018-06-29 10:41:53.437500,259.7,68.98
224687,2018-06-29 10:41:53.468750,236.81,68.98
224688,2018-06-29 10:41:53.500000,133.05,68.98
224689,2018-06-29 10:41:53.531250,13.08,68.9
224690,2018-06-29 10:41:53.562500,-76.52,68.9
224691,2018-06-29 10:41:53.593750,-124.64,68.9
224692,2018-06-29 10:41:53.625000,-140.77,68.9
224693,2018-06-29 10:41:53.656250,-142.08,68.9
224694,2018-06-29 10:41:53.687500,-138.15,68.9
224695,2018-06-29 10:41:53.718750,-135.06,68.9
224696,2018-06-29 10:41:53.750000,-130.51,68.9
224697,2018-06-29 10:41:53.781250,-113.41,68.9
224698,2018-06-29 10:41:53.812500,-82.42,68.9
224699,2018-06-29 10:41:53.843750,-50.46,68.9
224700,2018-06-29 10:41:53.875000,-31.58,68.9
224701,2018-06-29 10:41:53.906250,-15.49,68.9
224702,2018-06-29 10:41:53.937500,11.33,68.9
224703,2018-06-29 10:41:53.968750,41.7,68.9
224704,2018-06-29 10:41:54.000000,59.93,68.9
224705,2018-06-29 10:41:54.031250,63.8,68.9
224706,2018-06-29 10:41:54.062500,62.53,68.9
224707,2018-06-29 10:41:54.093750,59.76,68.9
224708,2018-06-29 10:41:54.125000,54.38,68.9
224709,2018-06-29 10:41:54.156250,43.51,68.9
224710,2018-06-29 10:41:54.187500,25.49,68.9
224711,2018-06-29 10:41:54.218750,1.71,68.9
224712,2018-06-29 10:41:54.250000,-24.14,68.9
224713,2018-06-29 10:41:54.281250,-48.39,68.9
224714,2018-06-29 10:41:54.312500,-68.14,68.9
224715,2018-06-29 10:41:54.343750,-77.66,68.9
224716,2018-06-29 10:41:54.375000,-68.62,68.9
224717,2018-06-29 10:41:54.406250,-36.99,68.9
224718,2018-06-29 10:41:54.437500,10.13,68.9
224719,2018-06-29 10:41:54.468750,56.35,68.9
224720,2018-06-29 10:41:54.500000,86.33,68.9
224721,2018-06-29 10:41:54.531250,96.07,68.95
224722,2018-06-29 10:41:54.562500,91.19,68.95
224723,2018-06-29 10:41:54.593750,76.77,68.95
224724,2018-06-29 10:41:54.625000,54.98,68.95
224725,2018-06-29 10:41:54.656250,30.4,68.95
224726,2018-06-29 10:41:54.687500,8.4,68.95
224727,2018-06-29 10:41:54.718750,-11.3,68.95
224728,2018-06-29 10:41:54.750000,-31.64,68.95
224729,2018-06-29 10:41:54.781250,-51.29,68.95
224730,2018-06-29 10:41:54.812500,-64.78,68.95
224731,2018-06-29 10:41:54.843750,-67.45,68.95
224732,2018-06-29 10:41:54.875000,-59.93,68.95
224733,2018-06-29 10:41:54.906250,-47.94,68.95
224734,2018-06-29 10:41:54.937500,-36.56,68.95
224735,2018-06-29 10:41:54.968750,-26.79,68.95
224736,2018-06-29 10:41:55.000000,-17.27,68.95
224737,2018-06-29 10:41:55.031250,-7.38,68.95
224738,2018-06-29 10:41:55.062500,0.5,68.95
224739,2018-06-29 10:41:55.093750,2.5,68.95
224740,2018-06-29 10:41:55.125000,-0.72,68.95
224741,2018-06-29 10:41:55.156250,-3.86,68.95
224742,2018-06-29 10:41:55.187500,-6.13,68.95
224743,2018-06-29 10:41:55.218750,-11.46,68.95
224744,2018-06-29 10:41:55.250000,-18.62,68.95
224745,2018-06-29 10:41:55.281250,-21.07,68.95
224746,2018-06-29 10:41:55.312500,-17.03,68.95
224747,2018-06-29 10:41:55.343750,-12.32,68.95
224748,2018-06-29 10:41:55.375000,-13.82,68.95
224749,2018-06-29 10:41:55.406250,-22.75,68.95
224750,2018-06-29 10:41:55.437500,-32.45,68.95
224751,2018-06-29 10:41:55.468750,-31.1,68.95
224752,2018-06-29 10:41:55.500000,-17.0,68.95
224753,2018-06-29 10:41:55.531250,-13.32,68.97
224754,2018-06-29 10:41:55.562500,-43.72,68.97
224755,2018-06-29 10:41:55.593750,-88.77,68.97
224756,2018-06-29 10:41:55.625000,-99.66,68.97
224757,2018-06-29 10:41:55.656250,-60.56,68.97
224758,2018-06-29 10:41:55.687500,-2.16,68.97
224759,2018-06-29 10:41:55.718750,44.34,68.97
224760,2018-06-29 10:41:55.750000,71.36,68.97
224761,2018-06-29 10:41:55.781250,80.92,68.97
224762,2018-06-29 10:41:55.812500,77.29,68.97
224763,2018-06-29 10:41:55.843750,69.69,68.97
224764,2018-06-29 10:41:55.875000,65.72,68.97
224765,2018-06-29 10:41:55.906250,62.44,68.97
224766,2018-06-29 10:41:55.937500,52.66,68.97
224767,2018-06-29 10:41:55.968750,36.72,68.97
224768,2018-06-29 10:41:56.000000,22.64,68.97
224769,2018-06-29 10:41:56.031250,15.45,68.97
224770,2018-06-29 10:41:56.062500,12.15,68.97
224771,2018-06-29 10:41:56.093750,8.06,68.97
224772,2018-06-29 10:41:56.125000,3.34,68.97
224773,2018-06-29 10:41:56.156250,-0.91,68.97
224774,2018-06-29 10:41:56.187500,-7.83,68.97
224775,2018-06-29 10:41:56.218750,-19.89,68.97
224776,2018-06-29 10:41:56.250000,-32.02,68.97
224777,2018-06-29 10:41:56.281250,-37.31,68.97
224778,2018-06-29 10:41:56.312500,-37.3,68.97
224779,2018-06-29 10:41:56.343750,-39.32,68.97
224780,2018-06-29 10:41:56.375000,-47.1,68.97
224781,2018-06-29 10:41:56.406250,-59.91,68.97
224782,2018-06-29 10:41:56.437500,-76.45,68.97
224783,2018-06-29 10:41:56.468750,-94.11,68.97
224784,2018-06-29 10:41:56.500000,-106.02,68.97
224785,2018-06-29 10:41:56.531250,-100.25,68.93
224786,2018-06-29 10:41:56.562500,-64.29,68.93
224787,2018-06-29 10:41:56.593750,1.64,68.93
224788,2018-06-29 10:41:56.625000,76.55,68.93
224789,2018-06-29 10:41:56.656250,132.26,68.93
224790,2018-06-29 10:41:56.687500,152.19,68.93
224791,2018-06-29 10:41:56.718750,133.71,68.93
224792,2018-06-29 10:41:56.750000,84.06,68.93
224793,2018-06-29 10:41:56.781250,21.72,68.93
224794,2018-06-29 10:41:56.812500,-29.72,68.93
224795,2018-06-29 10:41:56.843750,-55.35,68.93
224796,2018-06-29 10:41:56.875000,-52.09,68.93
224797,2018-06-29 10:41:56.906250,-23.98,68.93
224798,2018-06-29 10:41:56.937500,18.13,68.93
224799,2018-06-29 10:41:56.968750,58.97,68.93
224800,2018-06-29 10:41:57.000000,87.11,68.93
224801,2018-06-29 10:41:57.031250,98.66,68.93
224802,2018-06-29 10:41:57.062500,95.34,68.93
224803,2018-06-29 10:41:57.093750,82.57,68.93
224804,2018-06-29 10:41:57.125000,65.5,68.93
224805,2018-06-29 10:41:57.156250,45.94,68.93
224806,2018-06-29 10:41:57.187500,25.05,68.93
224807,2018-06-29 10:41:57.218750,5.87,68.93
224808,2018-06-29 10:41:57.250000,-9.42,68.93
224809,2018-06-29 10:41:57.281250,-22.01,68.93
224810,2018-06-29 10:41:57.312500,-34.65,68.93
224811,2018-06-29 10:41:57.343750,-48.39,68.93
224812,2018-06-29 10:41:57.375000,-61.91,68.93
224813,2018-06-29 10:41:57.406250,-74.02,68.93
224814,2018-06-29 10:41:57.437500,-86.33,68.93
224815,2018-06-29 10:41:57.468750,-102.03,68.93
224816,2018-06-29 10:41:57.500000,-120.87,68.93
224817,2018-06-29 10:41:57.531250,-134.83,69.18
224818,2018-06-29 10:41:57.562500,-131.02,69.18
224819,2018-06-29 10:41:57.593750,-103.2,69.18
224820,2018-06-29 10:41:57.625000,-59.99,69.18
224821,2018-06-29 10:41:57.656250,-16.88,69.18
224822,2018-06-29 10:41:57.687500,18.84,69.18
224823,2018-06-29 10:41:57.718750,50.25,69.18
224824,2018-06-29 10:41:57.750000,80.23,69.18
224825,2018-06-29 10:41:57.781250,104.45,69.18
224826,2018-06-29 10:41:57.812500,115.54,69.18
224827,2018-06-29 10:41:57.843750,109.84,69.18
224828,2018-06-29 10:41:57.875000,89.26,69.18
224829,2018-06-29 10:41:57.906250,62.48,69.18
224830,2018-06-29 10:41:57.937500,42.02,69.18
224831,2018-06-29 10:41:57.968750,35.6,69.18
224832,2018-06-29 10:41:58.000000,40.69,69.18
224833,2018-06-29 10:41:58.031250,48.3,69.18
224834,2018-06-29 10:41:58.062500,51.61,69.18
224835,2018-06-29 10:41:58.093750,49.45,69.18
224836,2018-06-29 10:41:58.125000,45.33,69.18
224837,2018-06-29 10:41:58.156250,40.97,69.18
224838,2018-06-29 10:41:58.187500,35.84,69.18
224839,2018-06-29 10:41:58.218750,28.59,69.18
224840,2018-06-29 10:41:58.250000,18.61,69.18
224841,2018-06-29 10:41:58.281250,5.22,69.18
224842,2018-06-29 10:41:58.312500,-11.41,69.18
224843,2018-06-29 10:41:58.343750,-24.02,69.18
224844,2018-06-29 10:41:58.375000,-27.18,69.18
224845,2018-06-29 10:41:58.406250,-19.76,69.18
224846,2018-06-29 10:41:58.437500,-15.23,69.18
224847,2018-06-29 10:41:58.468750,-23.41,69.18
224848,2018-06-29 10:41:58.500000,-39.03,69.18
224849,2018-06-29 10:41:58.531250,-44.98,69.38
224850,2018-06-29 10:41:58.562500,-34.7,69.38
224851,2018-06-29 10:41:58.593750,-25.85,69.38
224852,2018-06-29 10:41:58.625000,-22.19,69.38
224853,2018-06-29 10:41:58.656250,-5.19,69.38
224854,2018-06-29 10:41:58.687500,54.62,69.38
224855,2018-06-29 10:41:58.718750,143.28,69.38
224856,2018-06-29 10:41:58.750000,227.23,69.38
224857,2018-06-29 10:41:58.781250,273.52,69.38
224858,2018-06-29 10:41:58.812500,204.57,69.38
224859,2018-06-29 10:41:58.843750,85.61,69.38
224860,2018-06-29 10:41:58.875000,-9.14,69.38
224861,2018-06-29 10:41:58.906250,-72.08,69.38
224862,2018-06-29 10:41:58.937500,-105.46,69.38
224863,2018-06-29 10:41:58.968750,-108.25,69.38
224864,2018-06-29 10:41:59.000000,-98.95,69.38
224865,2018-06-29 10:41:59.031250,-96.28,69.38
224866,2018-06-29 10:41:59.062500,-102.35,69.38
224867,2018-06-29 10:41:59.093750,-106.62,69.38
224868,2018-06-29 10:41:59.125000,-94.83,69.38
224869,2018-06-29 10:41:59.156250,-82.06,69.38
224870,2018-06-29 10:41:59.187500,-78.94,69.38
224871,2018-06-29 10:41:59.218750,-86.44,69.38
224872,2018-06-29 10:41:59.250000,-97.79,69.38
224873,2018-06-29 10:41:59.281250,-118.14,69.38
224874,2018-06-29 10:41:59.312500,-151.37,69.38
224875,2018-06-29 10:41:59.343750,-192.15,69.38
224876,2018-06-29 10:41:59.375000,-225.43,69.38
224877,2018-06-29 10:41:59.406250,-227.27,69.38
224878,2018-06-29 10:41:59.437500,-181.73,69.38
224879,2018-06-29 10:41:59.468750,-95.4,69.38
224880,2018-06-29 10:41:59.500000,3.43,69.38
224881,2018-06-29 10:41:59.531250,88.72,69.57
224882,2018-06-29 10:41:59.562500,145.86,69.57
224883,2018-06-29 10:41:59.593750,170.66,69.57
224884,2018-06-29 10:41:59.625000,168.13,69.57
224885,2018-06-29 10:41:59.656250,151.35,69.57
224886,2018-06-29 10:41:59.687500,133.83,69.57
224887,2018-06-29 10:41:59.718750,120.1,69.57
224888,2018-06-29 10:41:59.750000,107.34,69.57
224889,2018-06-29 10:41:59.781250,94.0,69.57
224890,2018-06-29 10:41:59.812500,81.59,69.57
224891,2018-06-29 10:41:59.843750,69.45,69.57
224892,2018-06-29 10:41:59.875000,55.71,69.57
224893,2018-06-29 10:41:59.906250,41.47,69.57
224894,2018-06-29 10:41:59.937500,28.61,69.57
224895,2018-06-29 10:41:59.968750,16.64,69.57
224896,2018-06-29 10:42:00.000000,3.99,69.57
224897,2018-06-29 10:42:00.031250,-8.68,69.57
224898,2018-06-29 10:42:00.062500,-20.1,69.57
224899,2018-06-29 10:42:00.093750,-30.16,69.57
224900,2018-06-29 10:42:00.125000,-39.65,69.57
224901,2018-06-29 10:42:00.156250,-49.15,69.57
224902,2018-06-29 10:42:00.187500,-58.01,69.57
224903,2018-06-29 10:42:00.218750,-63.23,69.57
224904,2018-06-29 10:42:00.250000,-58.8,69.57
224905,2018-06-29 10:42:00.281250,-42.43,69.57
224906,2018-06-29 10:42:00.312500,-17.49,69.57
224907,2018-06-29 10:42:00.343750,5.0,69.57
224908,2018-06-29 10:42:00.375000,16.95,69.57
224909,2018-06-29 10:42:00.406250,20.1,69.57
224910,2018-06-29 10:42:00.437500,23.26,69.57
224911,2018-06-29 10:42:00.468750,30.52,69.57
224912,2018-06-29 10:42:00.500000,30.11,69.57
224913,2018-06-29 10:42:00.531250,15.78,69.73
224914,2018-06-29 10:42:00.562500,-6.41,69.73
224915,2018-06-29 10:42:00.593750,-19.75,69.73
224916,2018-06-29 10:42:00.625000,-24.17,69.73
224917,2018-06-29 10:42:00.656250,-25.08,69.73
224918,2018-06-29 10:42:00.687500,-15.73,69.73
224919,2018-06-29 10:42:00.718750,20.93,69.73
224920,2018-06-29 10:42:00.750000,98.04,69.73
224921,2018-06-29 10:42:00.781250,196.12,69.73
224922,2018-06-29 10:42:00.812500,282.83,69.73
224923,2018-06-29 10:42:00.843750,270.63,69.73
224924,2018-06-29 10:42:00.875000,133.62,69.73
224925,2018-06-29 10:42:00.906250,1.25,69.73
224926,2018-06-29 10:42:00.937500,-78.34,69.73
224927,2018-06-29 10:42:00.968750,-135.54,69.73
224928,2018-06-29 10:42:01.000000,-175.25,69.73
224929,2018-06-29 10:42:01.031250,-183.42,69.73
224930,2018-06-29 10:42:01.062500,-170.76,69.73
224931,2018-06-29 10:42:01.093750,-150.32,69.73
224932,2018-06-29 10:42:01.125000,-123.55,69.73
224933,2018-06-29 10:42:01.156250,-84.69,69.73
224934,2018-06-29 10:42:01.187500,-44.39,69.73
224935,2018-06-29 10:42:01.218750,-26.38,69.73
224936,2018-06-29 10:42:01.250000,-36.66,69.73
224937,2018-06-29 10:42:01.281250,-64.28,69.73
224938,2018-06-29 10:42:01.312500,-90.27,69.73
224939,2018-06-29 10:42:01.343750,-112.84,69.73
224940,2018-06-29 10:42:01.375000,-125.44,69.73
224941,2018-06-29 10:42:01.406250,-90.6,69.73
224942,2018-06-29 10:42:01.437500,-24.17,69.73
224943,2018-06-29 10:42:01.468750,40.12,69.73
224944,2018-06-29 10:42:01.500000,97.48,69.73
224945,2018-06-29 10:42:01.531250,135.63,69.85
224946,2018-06-29 10:42:01.562500,144.5,69.85
224947,2018-06-29 10:42:01.593750,132.02,69.85
224948,2018-06-29 10:42:01.625000,112.33,69.85
224949,2018-06-29 10:42:01.656250,92.73,69.85
224950,2018-06-29 10:42:01.687500,74.04,69.85
224951,2018-06-29 10:42:01.718750,54.1,69.85
224952,2018-06-29 10:42:01.750000,37.33,69.85
224953,2018-06-29 10:42:01.781250,24.19,69.85
224954,2018-06-29 10:42:01.812500,11.67,69.85
224955,2018-06-29 10:42:01.843750,-4.53,69.85
224956,2018-06-29 10:42:01.875000,-23.12,69.85
224957,2018-06-29 10:42:01.906250,-38.26,69.85
224958,2018-06-29 10:42:01.937500,-44.2,69.85
224959,2018-06-29 10:42:01.968750,-37.7,69.85
224960,2018-06-29 10:42:02.000000,-23.19,69.85
224961,2018-06-29 10:42:02.031250,-8.04,69.85
224962,2018-06-29 10:42:02.062500,2.9,69.85
224963,2018-06-29 10:42:02.093750,10.56,69.85
224964,2018-06-29 10:42:02.125000,16.69,69.85
224965,2018-06-29 10:42:02.156250,20.81,69.85
224966,2018-06-29 10:42:02.187500,21.84,69.85
224967,2018-06-29 10:42:02.218750,20.56,69.85
224968,2018-06-29 10:42:02.250000,18.98,69.85
224969,2018-06-29 10:42:02.281250,17.77,69.85
224970,2018-06-29 10:42:02.312500,17.28,69.85
224971,2018-06-29 10:42:02.343750,18.1,69.85
224972,2018-06-29 10:42:02.375000,19.02,69.85
224973,2018-06-29 10:42:02.406250,17.49,69.85
224974,2018-06-29 10:42:02.437500,13.1,69.85
224975,2018-06-29 10:42:02.468750,7.9,69.85
224976,2018-06-29 10:42:02.500000,2.96,69.85
224977,2018-06-29 10:42:02.531250,-2.84,69.98
224978,2018-06-29 10:42:02.562500,-10.33,69.98
224979,2018-06-29 10:42:02.593750,-17.87,69.98
224980,2018-06-29 10:42:02.625000,-23.46,69.98
224981,2018-06-29 10:42:02.656250,-28.02,69.98
224982,2018-06-29 10:42:02.687500,-34.67,69.98
224983,2018-06-29 10:42:02.718750,-44.91,69.98
224984,2018-06-29 10:42:02.750000,-55.94,69.98
224985,2018-06-29 10:42:02.781250,-60.72,69.98
224986,2018-06-29 10:42:02.812500,-53.07,69.98
224987,2018-06-29 10:42:02.843750,-34.56,69.98
224988,2018-06-29 10:42:02.875000,-13.77,69.98
224989,2018-06-29 10:42:02.906250,2.83,69.98
224990,2018-06-29 10:42:02.937500,15.55,69.98
224991,2018-06-29 10:42:02.968750,26.33,69.98
224992,2018-06-29 10:42:03.000000,34.08,69.98
224993,2018-06-29 10:42:03.031250,37.27,69.98
224994,2018-06-29 10:42:03.062500,37.41,69.98
224995,2018-06-29 10:42:03.093750,36.88,69.98
224996,2018-06-29 10:42:03.125000,36.19,69.98
224997,2018-06-29 10:42:03.156250,35.01,69.98
224998,2018-06-29 10:42:03.187500,33.33,69.98
224999,2018-06-29 10:42:03.218750,30.71,69.98
225000,2018-06-29 10:42:03.250000,26.52,69.98
225001,2018-06-29 10:42:03.281250,20.82,69.98
225002,2018-06-29 10:42:03.312500,14.18,69.98
225003,2018-06-29 10:42:03.343750,7.35,69.98
225004,2018-06-29 10:42:03.375000,1.35,69.98
225005,2018-06-29 10:42:03.406250,-3.74,69.98
225006,2018-06-29 10:42:03.437500,-8.9,69.98
225007,2018-06-29 10:42:03.468750,-14.31,69.98
225008,2018-06-29 10:42:03.500000,-20.42,69.98
225009,2018-06-29 10:42:03.531250,-29.03,69.93
225010,2018-06-29 10:42:03.562500,-39.5,69.93
225011,2018-06-29 10:42:03.593750,-45.09,69.93
225012,2018-06-29 10:42:03.625000,-38.54,69.93
225013,2018-06-29 10:42:03.656250,-19.21,69.93
225014,2018-06-29 10:42:03.687500,10.04,69.93
225015,2018-06-29 10:42:03.718750,46.19,69.93
225016,2018-06-29 10:42:03.750000,82.41,69.93
225017,2018-06-29 10:42:03.781250,108.11,69.93
225018,2018-06-29 10:42:03.812500,114.5,69.93
225019,2018-06-29 10:42:03.843750,95.12,69.93
225020,2018-06-29 10:42:03.875000,46.65,69.93
225021,2018-06-29 10:42:03.906250,-23.6,69.93
225022,2018-06-29 10:42:03.937500,-96.81,69.93
225023,2018-06-29 10:42:03.968750,-153.04,69.93
225024,2018-06-29 10:42:04.000000,-180.3,69.93
225025,2018-06-29 10:42:04.031250,-179.27,69.93
225026,2018-06-29 10:42:04.062500,-163.82,69.93
225027,2018-06-29 10:42:04.093750,-151.86,69.93
225028,2018-06-29 10:42:04.125000,-152.38,69.93
225029,2018-06-29 10:42:04.156250,-161.45,69.93
225030,2018-06-29 10:42:04.187500,-166.17,69.93
225031,2018-06-29 10:42:04.218750,-152.33,69.93
225032,2018-06-29 10:42:04.250000,-113.43,69.93
225033,2018-06-29 10:42:04.281250,-54.42,69.93
225034,2018-06-29 10:42:04.312500,12.43,69.93
225035,2018-06-29 10:42:04.343750,72.22,69.93
225036,2018-06-29 10:42:04.375000,111.69,69.93
225037,2018-06-29 10:42:04.406250,125.58,69.93
225038,2018-06-29 10:42:04.437500,119.12,69.93
225039,2018-06-29 10:42:04.468750,104.32,69.93
225040,2018-06-29 10:42:04.500000,91.94,69.93
225041,2018-06-29 10:42:04.531250,85.07,69.87
225042,2018-06-29 10:42:04.562500,81.27,69.87
225043,2018-06-29 10:42:04.593750,80.58,69.87
225044,2018-06-29 10:42:04.625000,86.04,69.87
225045,2018-06-29 10:42:04.656250,95.99,69.87
225046,2018-06-29 10:42:04.687500,103.33,69.87
225047,2018-06-29 10:42:04.718750,103.79,69.87
225048,2018-06-29 10:42:04.750000,98.39,69.87
225049,2018-06-29 10:42:04.781250,88.47,69.87
225050,2018-06-29 10:42:04.812500,76.77,69.87
225051,2018-06-29 10:42:04.843750,71.76,69.87
225052,2018-06-29 10:42:04.875000,80.57,69.87
225053,2018-06-29 10:42:04.906250,97.23,69.87
225054,2018-06-29 10:42:04.937500,108.7,69.87
225055,2018-06-29 10:42:04.968750,110.88,69.87
225056,2018-06-29 10:42:05.000000,106.54,69.87
225057,2018-06-29 10:42:05.031250,93.99,69.87
225058,2018-06-29 10:42:05.062500,69.97,69.87
225059,2018-06-29 10:42:05.093750,39.54,69.87
225060,2018-06-29 10:42:05.125000,11.64,69.87
225061,2018-06-29 10:42:05.156250,-10.35,69.87
225062,2018-06-29 10:42:05.187500,-28.37,69.87
225063,2018-06-29 10:42:05.218750,-44.44,69.87
225064,2018-06-29 10:42:05.250000,-59.06,69.87
225065,2018-06-29 10:42:05.281250,-74.68,69.87
225066,2018-06-29 10:42:05.312500,-91.79,69.87
225067,2018-06-29 10:42:05.343750,-108.3,69.87
225068,2018-06-29 10:42:05.375000,-120.11,69.87
225069,2018-06-29 10:42:05.406250,-129.7,69.87
225070,2018-06-29 10:42:05.437500,-145.45,69.87
225071,2018-06-29 10:42:05.468750,-168.68,69.87
225072,2018-06-29 10:42:05.500000,-186.42,69.87
225073,2018-06-29 10:42:05.531250,-180.53,69.77
225074,2018-06-29 10:42:05.562500,-154.54,69.77
225075,2018-06-29 10:42:05.593750,-121.94,69.77
225076,2018-06-29 10:42:05.625000,-88.08,69.77
225077,2018-06-29 10:42:05.656250,-45.51,69.77
225078,2018-06-29 10:42:05.687500,7.03,69.77
225079,2018-06-29 10:42:05.718750,69.71,69.77
225080,2018-06-29 10:42:05.750000,148.18,69.77
225081,2018-06-29 10:42:05.781250,188.64,69.77
225082,2018-06-29 10:42:05.812500,157.62,69.77
225083,2018-06-29 10:42:05.843750,90.53,69.77
225084,2018-06-29 10:42:05.875000,31.24,69.77
225085,2018-06-29 10:42:05.906250,-8.35,69.77
225086,2018-06-29 10:42:05.937500,-28.67,69.77
225087,2018-06-29 10:42:05.968750,-23.55,69.77
225088,2018-06-29 10:42:06.000000,-2.28,69.77
225089,2018-06-29 10:42:06.031250,17.95,69.77
225090,2018-06-29 10:42:06.062500,28.33,69.77
225091,2018-06-29 10:42:06.093750,38.5,69.77
225092,2018-06-29 10:42:06.125000,45.24,69.77
225093,2018-06-29 10:42:06.156250,36.53,69.77
225094,2018-06-29 10:42:06.187500,7.64,69.77
225095,2018-06-29 10:42:06.218750,-29.22,69.77
225096,2018-06-29 10:42:06.250000,-59.24,69.77
225097,2018-06-29 10:42:06.281250,-75.66,69.77
225098,2018-06-29 10:42:06.312500,-78.93,69.77
225099,2018-06-29 10:42:06.343750,-73.68,69.77
225100,2018-06-29 10:42:06.375000,-63.6,69.77
225101,2018-06-29 10:42:06.406250,-51.61,69.77
225102,2018-06-29 10:42:06.437500,-34.89,69.77
225103,2018-06-29 10:42:06.468750,-11.96,69.77
225104,2018-06-29 10:42:06.500000,10.23,69.77
225105,2018-06-29 10:42:06.531250,24.35,69.68
225106,2018-06-29 10:42:06.562500,33.13,69.68
225107,2018-06-29 10:42:06.593750,40.02,69.68
225108,2018-06-29 10:42:06.625000,39.34,69.68
225109,2018-06-29 10:42:06.656250,27.07,69.68
225110,2018-06-29 10:42:06.687500,8.1,69.68
225111,2018-06-29 10:42:06.718750,-11.2,69.68
225112,2018-06-29 10:42:06.750000,-28.41,69.68
225113,2018-06-29 10:42:06.781250,-42.56,69.68
225114,2018-06-29 10:42:06.812500,-53.79,69.68
225115,2018-06-29 10:42:06.843750,-62.55,69.68
225116,2018-06-29 10:42:06.875000,-66.92,69.68
225117,2018-06-29 10:42:06.906250,-62.01,69.68
225118,2018-06-29 10:42:06.937500,-45.93,69.68
225119,2018-06-29 10:42:06.968750,-24.87,69.68
225120,2018-06-29 10:42:07.000000,-6.97,69.68
225121,2018-06-29 10:42:07.031250,5.86,69.68
225122,2018-06-29 10:42:07.062500,16.49,69.68
225123,2018-06-29 10:42:07.093750,26.42,69.68
225124,2018-06-29 10:42:07.125000,34.78,69.68
225125,2018-06-29 10:42:07.156250,40.47,69.68
225126,2018-06-29 10:42:07.187500,43.23,69.68
225127,2018-06-29 10:42:07.218750,43.86,69.68
225128,2018-06-29 10:42:07.250000,43.85,69.68
225129,2018-06-29 10:42:07.281250,43.67,69.68
225130,2018-06-29 10:42:07.312500,42.09,69.68
225131,2018-06-29 10:42:07.343750,37.33,69.68
225132,2018-06-29 10:42:07.375000,28.92,69.68
225133,2018-06-29 10:42:07.406250,18.43,69.68
225134,2018-06-29 10:42:07.437500,7.33,69.68
225135,2018-06-29 10:42:07.468750,-5.31,69.68
225136,2018-06-29 10:42:07.500000,-21.08,69.68
225137,2018-06-29 10:42:07.531250,-39.58,69.57
225138,2018-06-29 10:42:07.562500,-59.8,69.57
225139,2018-06-29 10:42:07.593750,-81.21,69.57
225140,2018-06-29 10:42:07.625000,-102.35,69.57
225141,2018-06-29 10:42:07.656250,-121.38,69.57
225142,2018-06-29 10:42:07.687500,-137.82,69.57
225143,2018-06-29 10:42:07.718750,-150.64,69.57
225144,2018-06-29 10:42:07.750000,-156.45,69.57
225145,2018-06-29 10:42:07.781250,-152.12,69.57
225146,2018-06-29 10:42:07.812500,-136.7,69.57
225147,2018-06-29 10:42:07.843750,-111.13,69.57
225148,2018-06-29 10:42:07.875000,-78.93,69.57
225149,2018-06-29 10:42:07.906250,-45.91,69.57
225150,2018-06-29 10:42:07.937500,-16.34,69.57
225151,2018-06-29 10:42:07.968750,10.93,69.57
225152,2018-06-29 10:42:08.000000,40.44,69.57
225153,2018-06-29 10:42:08.031250,72.77,69.57
225154,2018-06-29 10:42:08.062500,104.31,69.57
225155,2018-06-29 10:42:08.093750,135.29,69.57
225156,2018-06-29 10:42:08.125000,168.08,69.57
225157,2018-06-29 10:42:08.156250,195.45,69.57
225158,2018-06-29 10:42:08.187500,203.99,69.57
225159,2018-06-29 10:42:08.218750,190.73,69.57
225160,2018-06-29 10:42:08.250000,165.19,69.57
225161,2018-06-29 10:42:08.281250,136.42,69.57
225162,2018-06-29 10:42:08.312500,107.02,69.57
225163,2018-06-29 10:42:08.343750,78.48,69.57
225164,2018-06-29 10:42:08.375000,58.5,69.57
225165,2018-06-29 10:42:08.406250,57.87,69.57
225166,2018-06-29 10:42:08.437500,76.77,69.57
225167,2018-06-29 10:42:08.468750,101.17,69.57
225168,2018-06-29 10:42:08.500000,116.43,69.57
225169,2018-06-29 10:42:08.531250,116.45,69.43
225170,2018-06-29 10:42:08.562500,101.22,69.43
225171,2018-06-29 10:42:08.593750,78.05,69.43
225172,2018-06-29 10:42:08.625000,61.48,69.43
225173,2018-06-29 10:42:08.656250,60.24,69.43
225174,2018-06-29 10:42:08.687500,68.28,69.43
225175,2018-06-29 10:42:08.718750,72.68,69.43
225176,2018-06-29 10:42:08.750000,65.98,69.43
225177,2018-06-29 10:42:08.781250,50.26,69.43
225178,2018-06-29 10:42:08.812500,33.1,69.43
225179,2018-06-29 10:42:08.843750,20.44,69.43
225180,2018-06-29 10:42:08.875000,13.85,69.43
225181,2018-06-29 10:42:08.906250,13.04,69.43
225182,2018-06-29 10:42:08.937500,15.2,69.43
225183,2018-06-29 10:42:08.968750,11.58,69.43
225184,2018-06-29 10:42:09.000000,-5.81,69.43
225185,2018-06-29 10:42:09.031250,-32.95,69.43
225186,2018-06-29 10:42:09.062500,-56.76,69.43
225187,2018-06-29 10:42:09.093750,-69.66,69.43
225188,2018-06-29 10:42:09.125000,-74.11,69.43
225189,2018-06-29 10:42:09.156250,-75.58,69.43
225190,2018-06-29 10:42:09.187500,-78.67,69.43
225191,2018-06-29 10:42:09.218750,-85.9,69.43
225192,2018-06-29 10:42:09.250000,-94.35,69.43
225193,2018-06-29 10:42:09.281250,-99.23,69.43
225194,2018-06-29 10:42:09.312500,-100.9,69.43
225195,2018-06-29 10:42:09.343750,-99.26,69.43
225196,2018-06-29 10:42:09.375000,-87.52,69.43
225197,2018-06-29 10:42:09.406250,-62.99,69.43
225198,2018-06-29 10:42:09.437500,-35.16,69.43
225199,2018-06-29 10:42:09.468750,-12.56,69.43
225200,2018-06-29 10:42:09.500000,8.17,69.43
225201,2018-06-29 10:42:09.531250,31.96,69.28
225202,2018-06-29 10:42:09.562500,54.69,69.28
225203,2018-06-29 10:42:09.593750,68.92,69.28
225204,2018-06-29 10:42:09.625000,72.63,69.28
225205,2018-06-29 10:42:09.656250,68.96,69.28
225206,2018-06-29 10:42:09.687500,63.46,69.28
225207,2018-06-29 10:42:09.718750,60.37,69.28
225208,2018-06-29 10:42:09.750000,54.85,69.28
225209,2018-06-29 10:42:09.781250,33.17,69.28
225210,2018-06-29 10:42:09.812500,-11.41,69.28
225211,2018-06-29 10:42:09.843750,-67.22,69.28
225212,2018-06-29 10:42:09.875000,-114.3,69.28
225213,2018-06-29 10:42:09.906250,-141.0,69.28
225214,2018-06-29 10:42:09.937500,-148.37,69.28
225215,2018-06-29 10:42:09.968750,-144.64,69.28
225216,2018-06-29 10:42:10.000000,-139.27,69.28
225217,2018-06-29 10:42:10.031250,-139.68,69.28
225218,2018-06-29 10:42:10.062500,-147.67,69.28
225219,2018-06-29 10:42:10.093750,-155.06,69.28
225220,2018-06-29 10:42:10.125000,-148.16,69.28
225221,2018-06-29 10:42:10.156250,-124.05,69.28
225222,2018-06-29 10:42:10.187500,-95.99,69.28
225223,2018-06-29 10:42:10.218750,-74.83,69.28
225224,2018-06-29 10:42:10.250000,-54.95,69.28
225225,2018-06-29 10:42:10.281250,-27.82,69.28
225226,2018-06-29 10:42:10.312500,1.88,69.28
225227,2018-06-29 10:42:10.343750,26.12,69.28
225228,2018-06-29 10:42:10.375000,48.19,69.28
225229,2018-06-29 10:42:10.406250,71.6,69.28
225230,2018-06-29 10:42:10.437500,85.41,69.28
225231,2018-06-29 10:42:10.468750,80.3,69.28
225232,2018-06-29 10:42:10.500000,68.57,69.28
225233,2018-06-29 10:42:10.531250,70.25,69.12
225234,2018-06-29 10:42:10.562500,89.72,69.12
225235,2018-06-29 10:42:10.593750,117.62,69.12
225236,2018-06-29 10:42:10.625000,142.0,69.12
225237,2018-06-29 10:42:10.656250,150.41,69.12
225238,2018-06-29 10:42:10.687500,133.54,69.12
225239,2018-06-29 10:42:10.718750,93.8,69.12
225240,2018-06-29 10:42:10.750000,45.95,69.12
225241,2018-06-29 10:42:10.781250,7.22,69.12
225242,2018-06-29 10:42:10.812500,-13.91,69.12
225243,2018-06-29 10:42:10.843750,-20.87,69.12
225244,2018-06-29 10:42:10.875000,-22.8,69.12
225245,2018-06-29 10:42:10.906250,-27.1,69.12
225246,2018-06-29 10:42:10.937500,-36.87,69.12
225247,2018-06-29 10:42:10.968750,-51.74,69.12
225248,2018-06-29 10:42:11.000000,-69.16,69.12
225249,2018-06-29 10:42:11.031250,-86.74,69.12
225250,2018-06-29 10:42:11.062500,-104.64,69.12
225251,2018-06-29 10:42:11.093750,-122.49,69.12
225252,2018-06-29 10:42:11.125000,-133.43,69.12
225253,2018-06-29 10:42:11.156250,-127.96,69.12
225254,2018-06-29 10:42:11.187500,-106.12,69.12
225255,2018-06-29 10:42:11.218750,-79.34,69.12
225256,2018-06-29 10:42:11.250000,-58.03,69.12
225257,2018-06-29 10:42:11.281250,-44.3,69.12
225258,2018-06-29 10:42:11.312500,-36.6,69.12
225259,2018-06-29 10:42:11.343750,-34.47,69.12
225260,2018-06-29 10:42:11.375000,-36.84,69.12
225261,2018-06-29 10:42:11.406250,-39.05,69.12
225262,2018-06-29 10:42:11.437500,-33.72,69.12
225263,2018-06-29 10:42:11.468750,-14.67,69.12
225264,2018-06-29 10:42:11.500000,18.1,69.12
225265,2018-06-29 10:42:11.531250,57.08,68.93
225266,2018-06-29 10:42:11.562500,91.36,68.93
225267,2018-06-29 10:42:11.593750,114.18,68.93
225268,2018-06-29 10:42:11.625000,126.2,68.93
225269,2018-06-29 10:42:11.656250,130.53,68.93
225270,2018-06-29 10:42:11.687500,127.37,68.93
225271,2018-06-29 10:42:11.718750,115.97,68.93
225272,2018-06-29 10:42:11.750000,99.11,68.93
225273,2018-06-29 10:42:11.781250,81.68,68.93
225274,2018-06-29 10:42:11.812500,65.58,68.93
225275,2018-06-29 10:42:11.843750,49.92,68.93
225276,2018-06-29 10:42:11.875000,34.82,68.93
225277,2018-06-29 10:42:11.906250,21.16,68.93
225278,2018-06-29 10:42:11.937500,8.04,68.93
225279,2018-06-29 10:42:11.968750,-6.57,68.93
225280,2018-06-29 10:42:12.000000,-23.87,68.93
225281,2018-06-29 10:42:12.031250,-41.9,68.93
225282,2018-06-29 10:42:12.062500,-52.72,68.93
225283,2018-06-29 10:42:12.093750,-47.19,68.93
225284,2018-06-29 10:42:12.125000,-26.73,68.93
225285,2018-06-29 10:42:12.156250,-3.51,68.93
225286,2018-06-29 10:42:12.187500,13.66,68.93
225287,2018-06-29 10:42:12.218750,24.88,68.93
225288,2018-06-29 10:42:12.250000,31.66,68.93
225289,2018-06-29 10:42:12.281250,33.64,68.93
225290,2018-06-29 10:42:12.312500,32.59,68.93
225291,2018-06-29 10:42:12.343750,32.29,68.93
225292,2018-06-29 10:42:12.375000,34.39,68.93
225293,2018-06-29 10:42:12.406250,37.46,68.93
225294,2018-06-29 10:42:12.437500,40.03,68.93
225295,2018-06-29 10:42:12.468750,42.03,68.93
225296,2018-06-29 10:42:12.500000,42.94,68.93
225297,2018-06-29 10:42:12.531250,40.74,68.78
225298,2018-06-29 10:42:12.562500,34.27,68.78
225299,2018-06-29 10:42:12.593750,25.14,68.78
225300,2018-06-29 10:42:12.625000,15.92,68.78
225301,2018-06-29 10:42:12.656250,8.12,68.78
225302,2018-06-29 10:42:12.687500,1.57,68.78
225303,2018-06-29 10:42:12.718750,-4.96,68.78
225304,2018-06-29 10:42:12.750000,-12.31,68.78
225305,2018-06-29 10:42:12.781250,-19.91,68.78
225306,2018-06-29 10:42:12.812500,-27.09,68.78
225307,2018-06-29 10:42:12.843750,-34.62,68.78
225308,2018-06-29 10:42:12.875000,-43.97,68.78
225309,2018-06-29 10:42:12.906250,-55.4,68.78
225310,2018-06-29 10:42:12.937500,-65.41,68.78
225311,2018-06-29 10:42:12.968750,-65.75,68.78
225312,2018-06-29 10:42:13.000000,-50.18,68.78
225313,2018-06-29 10:42:13.031250,-23.71,68.78
225314,2018-06-29 10:42:13.062500,1.35,68.78
225315,2018-06-29 10:42:13.093750,18.94,68.78
225316,2018-06-29 10:42:13.125000,31.64,68.78
225317,2018-06-29 10:42:13.156250,41.28,68.78
225318,2018-06-29 10:42:13.187500,45.75,68.78
225319,2018-06-29 10:42:13.218750,45.19,68.78
225320,2018-06-29 10:42:13.250000,43.68,68.78
225321,2018-06-29 10:42:13.281250,43.5,68.78
225322,2018-06-29 10:42:13.312500,43.18,68.78
225323,2018-06-29 10:42:13.343750,41.81,68.78
225324,2018-06-29 10:42:13.375000,40.14,68.78
225325,2018-06-29 10:42:13.406250,37.23,68.78
225326,2018-06-29 10:42:13.437500,30.66,68.78
225327,2018-06-29 10:42:13.468750,20.9,68.78
225328,2018-06-29 10:42:13.500000,11.28,68.78
225329,2018-06-29 10:42:13.531250,3.19,68.62
225330,2018-06-29 10:42:13.562500,-5.27,68.62
225331,2018-06-29 10:42:13.593750,-14.87,68.62
225332,2018-06-29 10:42:13.625000,-23.26,68.62
225333,2018-06-29 10:42:13.656250,-29.19,68.62
225334,2018-06-29 10:42:13.687500,-34.84,68.62
225335,2018-06-29 10:42:13.718750,-42.64,68.62
225336,2018-06-29 10:42:13.750000,-51.46,68.62
225337,2018-06-29 10:42:13.781250,-55.26,68.62
225338,2018-06-29 10:42:13.812500,-46.74,68.62
225339,2018-06-29 10:42:13.843750,-25.52,68.62
225340,2018-06-29 10:42:13.875000,-0.95,68.62
225341,2018-06-29 10:42:13.906250,17.32,68.62
225342,2018-06-29 10:42:13.937500,28.19,68.62
225343,2018-06-29 10:42:13.968750,35.65,68.62
225344,2018-06-29 10:42:14.000000,40.94,68.62
225345,2018-06-29 10:42:14.031250,42.43,68.62
225346,2018-06-29 10:42:14.062500,40.13,68.62
225347,2018-06-29 10:42:14.093750,36.5,68.62
225348,2018-06-29 10:42:14.125000,33.56,68.62
225349,2018-06-29 10:42:14.156250,31.37,68.62
225350,2018-06-29 10:42:14.187500,29.41,68.62
225351,2018-06-29 10:42:14.218750,27.46,68.62
225352,2018-06-29 10:42:14.250000,24.51,68.62
225353,2018-06-29 10:42:14.281250,18.75,68.62
225354,2018-06-29 10:42:14.312500,10.11,68.62
225355,2018-06-29 10:42:14.343750,1.2,68.62
225356,2018-06-29 10:42:14.375000,-6.07,68.62
225357,2018-06-29 10:42:14.406250,-13.21,68.62
225358,2018-06-29 10:42:14.437500,-21.84,68.62
225359,2018-06-29 10:42:14.468750,-30.49,68.62
225360,2018-06-29 10:42:14.500000,-37.66,68.62
225361,2018-06-29 10:42:14.531250,-44.86,68.48
225362,2018-06-29 10:42:14.562500,-54.14,68.48
225363,2018-06-29 10:42:14.593750,-65.36,68.48
225364,2018-06-29 10:42:14.625000,-75.51,68.48
225365,2018-06-29 10:42:14.656250,-77.79,68.48
225366,2018-06-29 10:42:14.687500,-65.72,68.48
225367,2018-06-29 10:42:14.718750,-42.05,68.48
225368,2018-06-29 10:42:14.750000,-18.14,68.48
225369,2018-06-29 10:42:14.781250,-2.19,68.48
225370,2018-06-29 10:42:14.812500,7.65,68.48
225371,2018-06-29 10:42:14.843750,17.23,68.48
225372,2018-06-29 10:42:14.875000,27.53,68.48
225373,2018-06-29 10:42:14.906250,34.05,68.48
225374,2018-06-29 10:42:14.937500,34.86,68.48
225375,2018-06-29 10:42:14.968750,35.04,68.48
225376,2018-06-29 10:42:15.000000,41.41,68.48
225377,2018-06-29 10:42:15.031250,56.66,68.48
225378,2018-06-29 10:42:15.062500,75.74,68.48
225379,2018-06-29 10:42:15.093750,86.03,68.48
225380,2018-06-29 10:42:15.125000,78.27,68.48
225381,2018-06-29 10:42:15.156250,58.09,68.48
225382,2018-06-29 10:42:15.187500,34.54,68.48
225383,2018-06-29 10:42:15.218750,4.17,68.48
225384,2018-06-29 10:42:15.250000,-32.29,68.48
225385,2018-06-29 10:42:15.281250,-48.94,68.48
225386,2018-06-29 10:42:15.312500,-18.01,68.48
225387,2018-06-29 10:42:15.343750,51.34,68.48
225388,2018-06-29 10:42:15.375000,115.44,68.48
225389,2018-06-29 10:42:15.406250,131.92,68.48
225390,2018-06-29 10:42:15.437500,88.31,68.48
225391,2018-06-29 10:42:15.468750,7.24,68.48
225392,2018-06-29 10:42:15.500000,-71.12,68.48
225393,2018-06-29 10:42:15.531250,-115.84,68.35
225394,2018-06-29 10:42:15.562500,-118.09,68.35
225395,2018-06-29 10:42:15.593750,-86.5,68.35
225396,2018-06-29 10:42:15.625000,-39.6,68.35
225397,2018-06-29 10:42:15.656250,1.5,68.35
225398,2018-06-29 10:42:15.687500,23.48,68.35
225399,2018-06-29 10:42:15.718750,26.92,68.35
225400,2018-06-29 10:42:15.750000,19.96,68.35
225401,2018-06-29 10:42:15.781250,9.5,68.35
225402,2018-06-29 10:42:15.812500,0.51,68.35
225403,2018-06-29 10:42:15.843750,-1.74,68.35
225404,2018-06-29 10:42:15.875000,2.06,68.35
225405,2018-06-29 10:42:15.906250,2.73,68.35
225406,2018-06-29 10:42:15.937500,-6.74,68.35
225407,2018-06-29 10:42:15.968750,-21.65,68.35
225408,2018-06-29 10:42:16.000000,-31.79,68.35
225409,2018-06-29 10:42:16.031250,-39.98,68.35
225410,2018-06-29 10:42:16.062500,-54.68,68.35
225411,2018-06-29 10:42:16.093750,-73.08,68.35
225412,2018-06-29 10:42:16.125000,-78.7,68.35
225413,2018-06-29 10:42:16.156250,-67.89,68.35
225414,2018-06-29 10:42:16.187500,-59.26,68.35
225415,2018-06-29 10:42:16.218750,-65.51,68.35
225416,2018-06-29 10:42:16.250000,-77.08,68.35
225417,2018-06-29 10:42:16.281250,-74.87,68.35
225418,2018-06-29 10:42:16.312500,-66.59,68.35
225419,2018-06-29 10:42:16.343750,-68.5,68.35
225420,2018-06-29 10:42:16.375000,-81.05,68.35
225421,2018-06-29 10:42:16.406250,-73.8,68.35
225422,2018-06-29 10:42:16.437500,-10.21,68.35
225423,2018-06-29 10:42:16.468750,115.13,68.35
225424,2018-06-29 10:42:16.500000,256.52,68.35
225425,2018-06-29 10:42:16.531250,283.21,67.92
225426,2018-06-29 10:42:16.562500,171.74,67.92
225427,2018-06-29 10:42:16.593750,48.25,67.92
225428,2018-06-29 10:42:16.625000,-30.73,67.92
225429,2018-06-29 10:42:16.656250,-87.96,67.92
225430,2018-06-29 10:42:16.687500,-121.1,67.92
225431,2018-06-29 10:42:16.718750,-121.27,67.92
225432,2018-06-29 10:42:16.750000,-106.06,67.92
225433,2018-06-29 10:42:16.781250,-82.65,67.92
225434,2018-06-29 10:42:16.812500,-61.12,67.92
225435,2018-06-29 10:42:16.843750,-40.22,67.92
225436,2018-06-29 10:42:16.875000,-26.23,67.92
225437,2018-06-29 10:42:16.906250,-21.89,67.92
225438,2018-06-29 10:42:16.937500,-16.19,67.92
225439,2018-06-29 10:42:16.968750,10.53,67.92
225440,2018-06-29 10:42:17.000000,55.13,67.92
225441,2018-06-29 10:42:17.031250,91.34,67.92
225442,2018-06-29 10:42:17.062500,103.11,67.92
225443,2018-06-29 10:42:17.093750,95.4,67.92
225444,2018-06-29 10:42:17.125000,81.76,67.92
225445,2018-06-29 10:42:17.156250,68.65,67.92
225446,2018-06-29 10:42:17.187500,56.93,67.92
225447,2018-06-29 10:42:17.218750,44.71,67.92
225448,2018-06-29 10:42:17.250000,32.63,67.92
225449,2018-06-29 10:42:17.281250,22.28,67.92
225450,2018-06-29 10:42:17.312500,13.59,67.92
225451,2018-06-29 10:42:17.343750,5.0,67.92
225452,2018-06-29 10:42:17.375000,-5.12,67.92
225453,2018-06-29 10:42:17.406250,-16.56,67.92
225454,2018-06-29 10:42:17.437500,-26.67,67.92
225455,2018-06-29 10:42:17.468750,-33.38,67.92
225456,2018-06-29 10:42:17.500000,-38.37,67.92
225457,2018-06-29 10:42:17.531250,-44.6,67.55
225458,2018-06-29 10:42:17.562500,-52.68,67.55
225459,2018-06-29 10:42:17.593750,-59.37,67.55
225460,2018-06-29 10:42:17.625000,-58.59,67.55
225461,2018-06-29 10:42:17.656250,-46.69,67.55
225462,2018-06-29 10:42:17.687500,-28.43,67.55
225463,2018-06-29 10:42:17.718750,-12.88,67.55
225464,2018-06-29 10:42:17.750000,-3.09,67.55
225465,2018-06-29 10:42:17.781250,4.41,67.55
225466,2018-06-29 10:42:17.812500,11.78,67.55
225467,2018-06-29 10:42:17.843750,17.65,67.55
225468,2018-06-29 10:42:17.875000,21.0,67.55
225469,2018-06-29 10:42:17.906250,22.65,67.55
225470,2018-06-29 10:42:17.937500,23.49,67.55
225471,2018-06-29 10:42:17.968750,23.77,67.55
225472,2018-06-29 10:42:18.000000,23.37,67.55
225473,2018-06-29 10:42:18.031250,22.05,67.55
225474,2018-06-29 10:42:18.062500,19.66,67.55
225475,2018-06-29 10:42:18.093750,16.5,67.55
225476,2018-06-29 10:42:18.125000,13.03,67.55
225477,2018-06-29 10:42:18.156250,9.43,67.55
225478,2018-06-29 10:42:18.187500,5.98,67.55
225479,2018-06-29 10:42:18.218750,3.56,67.55
225480,2018-06-29 10:42:18.250000,2.9,67.55
225481,2018-06-29 10:42:18.281250,3.6,67.55
225482,2018-06-29 10:42:18.312500,4.28,67.55
225483,2018-06-29 10:42:18.343750,3.55,67.55
225484,2018-06-29 10:42:18.375000,0.99,67.55
225485,2018-06-29 10:42:18.406250,-2.78,67.55
225486,2018-06-29 10:42:18.437500,-7.07,67.55
225487,2018-06-29 10:42:18.468750,-11.39,67.55
225488,2018-06-29 10:42:18.500000,-15.22,67.55
225489,2018-06-29 10:42:18.531250,-18.58,67.22
225490,2018-06-29 10:42:18.562500,-22.55,67.22
225491,2018-06-29 10:42:18.593750,-28.52,67.22
225492,2018-06-29 10:42:18.625000,-37.21,67.22
225493,2018-06-29 10:42:18.656250,-46.63,67.22
225494,2018-06-29 10:42:18.687500,-50.13,67.22
225495,2018-06-29 10:42:18.718750,-41.79,67.22
225496,2018-06-29 10:42:18.750000,-24.96,67.22
225497,2018-06-29 10:42:18.781250,-9.14,67.22
225498,2018-06-29 10:42:18.812500,1.44,67.22
225499,2018-06-29 10:42:18.843750,9.45,67.22
225500,2018-06-29 10:42:18.875000,16.17,67.22
225501,2018-06-29 10:42:18.906250,20.15,67.22
225502,2018-06-29 10:42:18.937500,21.12,67.22
225503,2018-06-29 10:42:18.968750,21.01,67.22
225504,2018-06-29 10:42:19.000000,20.76,67.22
225505,2018-06-29 10:42:19.031250,19.23,67.22
225506,2018-06-29 10:42:19.062500,15.92,67.22
225507,2018-06-29 10:42:19.093750,12.53,67.22
225508,2018-06-29 10:42:19.125000,10.76,67.22
225509,2018-06-29 10:42:19.156250,7.9,67.22
225510,2018-06-29 10:42:19.187500,0.82,67.22
225511,2018-06-29 10:42:19.218750,-9.63,67.22
225512,2018-06-29 10:42:19.250000,-17.07,67.22
225513,2018-06-29 10:42:19.281250,-20.42,67.22
225514,2018-06-29 10:42:19.312500,-26.04,67.22
225515,2018-06-29 10:42:19.343750,-37.42,67.22
225516,2018-06-29 10:42:19.375000,-49.57,67.22
225517,2018-06-29 10:42:19.406250,-55.09,67.22
225518,2018-06-29 10:42:19.437500,-61.08,67.22
225519,2018-06-29 10:42:19.468750,-76.66,67.22
225520,2018-06-29 10:42:19.500000,-105.42,67.22
225521,2018-06-29 10:42:19.531250,-136.96,66.97
225522,2018-06-29 10:42:19.562500,-161.19,66.97
225523,2018-06-29 10:42:19.593750,-171.43,66.97
225524,2018-06-29 10:42:19.625000,-164.56,66.97
225525,2018-06-29 10:42:19.656250,-138.69,66.97
225526,2018-06-29 10:42:19.687500,-75.36,66.97
225527,2018-06-29 10:42:19.718750,31.4,66.97
225528,2018-06-29 10:42:19.750000,167.42,66.97
225529,2018-06-29 10:42:19.781250,273.48,66.97
225530,2018-06-29 10:42:19.812500,275.27,66.97
225531,2018-06-29 10:42:19.843750,214.08,66.97
225532,2018-06-29 10:42:19.875000,137.13,66.97
225533,2018-06-29 10:42:19.906250,64.1,66.97
225534,2018-06-29 10:42:19.937500,3.41,66.97
225535,2018-06-29 10:42:19.968750,-31.9,66.97
225536,2018-06-29 10:42:20.000000,-47.14,66.97
225537,2018-06-29 10:42:20.031250,-50.36,66.97
225538,2018-06-29 10:42:20.062500,-48.37,66.97
225539,2018-06-29 10:42:20.093750,-40.69,66.97
225540,2018-06-29 10:42:20.125000,-30.13,66.97
225541,2018-06-29 10:42:20.156250,-38.38,66.97
225542,2018-06-29 10:42:20.187500,-73.47,66.97
225543,2018-06-29 10:42:20.218750,-123.3,66.97
225544,2018-06-29 10:42:20.250000,-166.43,66.97
225545,2018-06-29 10:42:20.281250,-196.43,66.97
225546,2018-06-29 10:42:20.312500,-207.38,66.97
225547,2018-06-29 10:42:20.343750,-188.38,66.97
225548,2018-06-29 10:42:20.375000,-130.19,66.97
225549,2018-06-29 10:42:20.406250,-43.51,66.97
225550,2018-06-29 10:42:20.437500,45.66,66.97
225551,2018-06-29 10:42:20.468750,119.07,66.97
225552,2018-06-29 10:42:20.500000,174.84,66.97
225553,2018-06-29 10:42:20.531250,215.15,66.77
225554,2018-06-29 10:42:20.562500,231.52,66.77
225555,2018-06-29 10:42:20.593750,218.67,66.77
225556,2018-06-29 10:42:20.625000,184.91,66.77
225557,2018-06-29 10:42:20.656250,141.1,66.77
225558,2018-06-29 10:42:20.687500,94.72,66.77
225559,2018-06-29 10:42:20.718750,58.42,66.77
225560,2018-06-29 10:42:20.750000,41.98,66.77
225561,2018-06-29 10:42:20.781250,35.46,66.77
225562,2018-06-29 10:42:20.812500,22.56,66.77
225563,2018-06-29 10:42:20.843750,6.81,66.77
225564,2018-06-29 10:42:20.875000,3.71,66.77
225565,2018-06-29 10:42:20.906250,12.89,66.77
225566,2018-06-29 10:42:20.937500,18.85,66.77
225567,2018-06-29 10:42:20.968750,14.2,66.77
225568,2018-06-29 10:42:21.000000,6.11,66.77
225569,2018-06-29 10:42:21.031250,3.38,66.77
225570,2018-06-29 10:42:21.062500,10.16,66.77
225571,2018-06-29 10:42:21.093750,29.18,66.77
225572,2018-06-29 10:42:21.125000,59.12,66.77
225573,2018-06-29 10:42:21.156250,89.05,66.77
225574,2018-06-29 10:42:21.187500,103.01,66.77
225575,2018-06-29 10:42:21.218750,93.11,66.77
225576,2018-06-29 10:42:21.250000,66.21,66.77
225577,2018-06-29 10:42:21.281250,35.98,66.77
225578,2018-06-29 10:42:21.312500,9.83,66.77
225579,2018-06-29 10:42:21.343750,-12.42,66.77
225580,2018-06-29 10:42:21.375000,-28.62,66.77
225581,2018-06-29 10:42:21.406250,-31.27,66.77
225582,2018-06-29 10:42:21.437500,-14.62,66.77
225583,2018-06-29 10:42:21.468750,22.92,66.77
225584,2018-06-29 10:42:21.500000,80.4,66.77
225585,2018-06-29 10:42:21.531250,144.29,66.78
225586,2018-06-29 10:42:21.562500,181.99,66.78
225587,2018-06-29 10:42:21.593750,168.36,66.78
225588,2018-06-29 10:42:21.625000,115.81,66.78
225589,2018-06-29 10:42:21.656250,56.46,66.78
225590,2018-06-29 10:42:21.687500,2.67,66.78
225591,2018-06-29 10:42:21.718750,-54.11,66.78
225592,2018-06-29 10:42:21.750000,-120.48,66.78
225593,2018-06-29 10:42:21.781250,-194.18,66.78
225594,2018-06-29 10:42:21.812500,-259.63,66.78
225595,2018-06-29 10:42:21.843750,-288.65,66.78
225596,2018-06-29 10:42:21.875000,-270.32,66.78
225597,2018-06-29 10:42:21.906250,-228.59,66.78
225598,2018-06-29 10:42:21.937500,-187.95,66.78
225599,2018-06-29 10:42:21.968750,-146.37,66.78
225600,2018-06-29 10:42:22.000000,-99.41,66.78
225601,2018-06-29 10:42:22.031250,-57.37,66.78
225602,2018-06-29 10:42:22.062500,-24.44,66.78
225603,2018-06-29 10:42:22.093750,9.22,66.78
225604,2018-06-29 10:42:22.125000,48.49,66.78
225605,2018-06-29 10:42:22.156250,85.2,66.78
225606,2018-06-29 10:42:22.187500,108.8,66.78
225607,2018-06-29 10:42:22.218750,111.89,66.78
225608,2018-06-29 10:42:22.250000,87.74,66.78
225609,2018-06-29 10:42:22.281250,36.02,66.78
225610,2018-06-29 10:42:22.312500,-25.2,66.78
225611,2018-06-29 10:42:22.343750,-67.2,66.78
225612,2018-06-29 10:42:22.375000,-78.93,66.78
225613,2018-06-29 10:42:22.406250,-78.36,66.78
225614,2018-06-29 10:42:22.437500,-88.26,66.78
225615,2018-06-29 10:42:22.468750,-109.42,66.78
225616,2018-06-29 10:42:22.500000,-123.16,66.78
225617,2018-06-29 10:42:22.531250,-115.65,66.85
225618,2018-06-29 10:42:22.562500,-92.48,66.85
225619,2018-06-29 10:42:22.593750,-67.07,66.85
225620,2018-06-29 10:42:22.625000,-44.33,66.85
225621,2018-06-29 10:42:22.656250,-24.3,66.85
225622,2018-06-29 10:42:22.687500,-12.3,66.85
225623,2018-06-29 10:42:22.718750,-13.67,66.85
225624,2018-06-29 10:42:22.750000,-24.52,66.85
225625,2018-06-29 10:42:22.781250,-33.87,66.85
225626,2018-06-29 10:42:22.812500,-32.39,66.85
225627,2018-06-29 10:42:22.843750,-18.27,66.85
225628,2018-06-29 10:42:22.875000,3.46,66.85
225629,2018-06-29 10:42:22.906250,26.85,66.85
225630,2018-06-29 10:42:22.937500,48.65,66.85
225631,2018-06-29 10:42:22.968750,67.25,66.85
225632,2018-06-29 10:42:23.000000,81.56,66.85
225633,2018-06-29 10:42:23.031250,91.32,66.85
225634,2018-06-29 10:42:23.062500,96.14,66.85
225635,2018-06-29 10:42:23.093750,95.56,66.85
225636,2018-06-29 10:42:23.125000,91.11,66.85
225637,2018-06-29 10:42:23.156250,86.1,66.85
225638,2018-06-29 10:42:23.187500,82.64,66.85
225639,2018-06-29 10:42:23.218750,79.96,66.85
225640,2018-06-29 10:42:23.250000,75.48,66.85
225641,2018-06-29 10:42:23.281250,67.22,66.85
225642,2018-06-29 10:42:23.312500,56.23,66.85
225643,2018-06-29 10:42:23.343750,45.88,66.85
225644,2018-06-29 10:42:23.375000,37.89,66.85
225645,2018-06-29 10:42:23.406250,30.17,66.85
225646,2018-06-29 10:42:23.437500,20.3,66.85
225647,2018-06-29 10:42:23.468750,8.8,66.85
225648,2018-06-29 10:42:23.500000,-2.08,66.85
225649,2018-06-29 10:42:23.531250,-11.11,66.95
225650,2018-06-29 10:42:23.562500,-19.11,66.95
225651,2018-06-29 10:42:23.593750,-27.74,66.95
225652,2018-06-29 10:42:23.625000,-35.67,66.95
225653,2018-06-29 10:42:23.656250,-36.96,66.95
225654,2018-06-29 10:42:23.687500,-26.8,66.95
225655,2018-06-29 10:42:23.718750,-7.69,66.95
225656,2018-06-29 10:42:23.750000,13.42,66.95
225657,2018-06-29 10:42:23.781250,32.56,66.95
225658,2018-06-29 10:42:23.812500,49.37,66.95
225659,2018-06-29 10:42:23.843750,63.35,66.95
225660,2018-06-29 10:42:23.875000,73.75,66.95
225661,2018-06-29 10:42:23.906250,81.89,66.95
225662,2018-06-29 10:42:23.937500,90.24,66.95
225663,2018-06-29 10:42:23.968750,98.88,66.95
225664,2018-06-29 10:42:24.000000,103.64,66.95
225665,2018-06-29 10:42:24.031250,98.11,66.95
225666,2018-06-29 10:42:24.062500,76.73,66.95
225667,2018-06-29 10:42:24.093750,38.7,66.95
225668,2018-06-29 10:42:24.125000,-9.47,66.95
225669,2018-06-29 10:42:24.156250,-57.06,66.95
225670,2018-06-29 10:42:24.187500,-95.29,66.95
225671,2018-06-29 10:42:24.218750,-118.39,66.95
225672,2018-06-29 10:42:24.250000,-122.83,66.95
225673,2018-06-29 10:42:24.281250,-110.36,66.95
225674,2018-06-29 10:42:24.312500,-88.82,66.95
225675,2018-06-29 10:42:24.343750,-68.2,66.95
225676,2018-06-29 10:42:24.375000,-56.19,66.95
225677,2018-06-29 10:42:24.406250,-51.57,66.95
225678,2018-06-29 10:42:24.437500,-43.38,66.95
225679,2018-06-29 10:42:24.468750,-25.03,66.95
225680,2018-06-29 10:42:24.500000,-4.21,66.95
225681,2018-06-29 10:42:24.531250,9.04,67.05
225682,2018-06-29 10:42:24.562500,14.57,67.05
225683,2018-06-29 10:42:24.593750,16.12,67.05
225684,2018-06-29 10:42:24.625000,13.99,67.05
225685,2018-06-29 10:42:24.656250,9.62,67.05
225686,2018-06-29 10:42:24.687500,8.56,67.05
225687,2018-06-29 10:42:24.718750,13.72,67.05
225688,2018-06-29 10:42:24.750000,21.5,67.05
225689,2018-06-29 10:42:24.781250,27.98,67.05
225690,2018-06-29 10:42:24.812500,34.0,67.05
225691,2018-06-29 10:42:24.843750,40.73,67.05
225692,2018-06-29 10:42:24.875000,45.17,67.05
225693,2018-06-29 10:42:24.906250,43.12,67.05
225694,2018-06-29 10:42:24.937500,34.11,67.05
225695,2018-06-29 10:42:24.968750,21.82,67.05
225696,2018-06-29 10:42:25.000000,10.16,67.05
225697,2018-06-29 10:42:25.031250,-0.19,67.05
225698,2018-06-29 10:42:25.062500,-11.25,67.05
225699,2018-06-29 10:42:25.093750,-25.21,67.05
225700,2018-06-29 10:42:25.125000,-42.59,67.05
225701,2018-06-29 10:42:25.156250,-60.0,67.05
225702,2018-06-29 10:42:25.187500,-69.28,67.05
225703,2018-06-29 10:42:25.218750,-62.8,67.05
225704,2018-06-29 10:42:25.250000,-41.29,67.05
225705,2018-06-29 10:42:25.281250,-14.24,67.05
225706,2018-06-29 10:42:25.312500,8.75,67.05
225707,2018-06-29 10:42:25.343750,24.75,67.05
225708,2018-06-29 10:42:25.375000,35.3,67.05
225709,2018-06-29 10:42:25.406250,41.08,67.05
225710,2018-06-29 10:42:25.437500,41.73,67.05
225711,2018-06-29 10:42:25.468750,38.72,67.05
225712,2018-06-29 10:42:25.500000,35.37,67.05
225713,2018-06-29 10:42:25.531250,34.31,67.12
225714,2018-06-29 10:42:25.562500,35.33,67.12
225715,2018-06-29 10:42:25.593750,35.65,67.12
225716,2018-06-29 10:42:25.625000,33.43,67.12
225717,2018-06-29 10:42:25.656250,30.53,67.12
225718,2018-06-29 10:42:25.687500,29.22,67.12
225719,2018-06-29 10:42:25.718750,27.17,67.12
225720,2018-06-29 10:42:25.750000,20.48,67.12
225721,2018-06-29 10:42:25.781250,11.84,67.12
225722,2018-06-29 10:42:25.812500,8.82,67.12
225723,2018-06-29 10:42:25.843750,11.52,67.12
225724,2018-06-29 10:42:25.875000,11.5,67.12
225725,2018-06-29 10:42:25.906250,7.33,67.12
225726,2018-06-29 10:42:25.937500,8.47,67.12
225727,2018-06-29 10:42:25.968750,20.6,67.12
225728,2018-06-29 10:42:26.000000,42.18,67.12
225729,2018-06-29 10:42:26.031250,65.21,67.12
225730,2018-06-29 10:42:26.062500,66.46,67.12
225731,2018-06-29 10:42:26.093750,23.62,67.12
225732,2018-06-29 10:42:26.125000,-46.77,67.12
225733,2018-06-29 10:42:26.156250,-102.67,67.12
225734,2018-06-29 10:42:26.187500,-127.42,67.12
225735,2018-06-29 10:42:26.218750,-126.91,67.12
225736,2018-06-29 10:42:26.250000,-97.34,67.12
225737,2018-06-29 10:42:26.281250,-39.79,67.12
225738,2018-06-29 10:42:26.312500,23.15,67.12
225739,2018-06-29 10:42:26.343750,75.46,67.12
225740,2018-06-29 10:42:26.375000,116.98,67.12
225741,2018-06-29 10:42:26.406250,129.48,67.12
225742,2018-06-29 10:42:26.437500,76.18,67.12
225743,2018-06-29 10:42:26.468750,-50.61,67.12
225744,2018-06-29 10:42:26.500000,-199.24,67.12
225745,2018-06-29 10:42:26.531250,-288.65,67.23
225746,2018-06-29 10:42:26.562500,-283.42,67.23
225747,2018-06-29 10:42:26.593750,-226.66,67.23
225748,2018-06-29 10:42:26.625000,-177.61,67.23
225749,2018-06-29 10:42:26.656250,-145.81,67.23
225750,2018-06-29 10:42:26.687500,-112.5,67.23
225751,2018-06-29 10:42:26.718750,-73.02,67.23
225752,2018-06-29 10:42:26.750000,-30.44,67.23
225753,2018-06-29 10:42:26.781250,14.77,67.23
225754,2018-06-29 10:42:26.812500,52.89,67.23
225755,2018-06-29 10:42:26.843750,69.45,67.23
225756,2018-06-29 10:42:26.875000,65.49,67.23
225757,2018-06-29 10:42:26.906250,57.59,67.23
225758,2018-06-29 10:42:26.937500,56.6,67.23
225759,2018-06-29 10:42:26.968750,57.93,67.23
225760,2018-06-29 10:42:27.000000,54.49,67.23
225761,2018-06-29 10:42:27.031250,48.49,67.23
225762,2018-06-29 10:42:27.062500,45.34,67.23
225763,2018-06-29 10:42:27.093750,43.84,67.23
225764,2018-06-29 10:42:27.125000,38.01,67.23
225765,2018-06-29 10:42:27.156250,25.52,67.23
225766,2018-06-29 10:42:27.187500,10.26,67.23
225767,2018-06-29 10:42:27.218750,-3.26,67.23
225768,2018-06-29 10:42:27.250000,-15.52,67.23
225769,2018-06-29 10:42:27.281250,-30.82,67.23
225770,2018-06-29 10:42:27.312500,-50.16,67.23
225771,2018-06-29 10:42:27.343750,-66.27,67.23
225772,2018-06-29 10:42:27.375000,-67.83,67.23
225773,2018-06-29 10:42:27.406250,-50.45,67.23
225774,2018-06-29 10:42:27.437500,-21.82,67.23
225775,2018-06-29 10:42:27.468750,7.11,67.23
225776,2018-06-29 10:42:27.500000,33.05,67.23
225777,2018-06-29 10:42:27.531250,58.49,67.37
225778,2018-06-29 10:42:27.562500,82.31,67.37
225779,2018-06-29 10:42:27.593750,99.14,67.37
225780,2018-06-29 10:42:27.625000,107.33,67.37
225781,2018-06-29 10:42:27.656250,111.25,67.37
225782,2018-06-29 10:42:27.687500,114.99,67.37
225783,2018-06-29 10:42:27.718750,118.86,67.37
225784,2018-06-29 10:42:27.750000,122.69,67.37
225785,2018-06-29 10:42:27.781250,128.29,67.37
225786,2018-06-29 10:42:27.812500,136.81,67.37
225787,2018-06-29 10:42:27.843750,146.15,67.37
225788,2018-06-29 10:42:27.875000,153.48,67.37
225789,2018-06-29 10:42:27.906250,160.29,67.37
225790,2018-06-29 10:42:27.937500,171.2,67.37
225791,2018-06-29 10:42:27.968750,186.69,67.37
225792,2018-06-29 10:42:28.000000,201.52,67.37
225793,2018-06-29 10:42:28.031250,211.62,67.37
225794,2018-06-29 10:42:28.062500,218.72,67.37
225795,2018-06-29 10:42:28.093750,228.22,67.37
225796,2018-06-29 10:42:28.125000,244.43,67.37
225797,2018-06-29 10:42:28.156250,261.42,67.37
225798,2018-06-29 10:42:28.187500,261.32,67.37
225799,2018-06-29 10:42:28.218750,234.67,67.37
225800,2018-06-29 10:42:28.250000,195.48,67.37
225801,2018-06-29 10:42:28.281250,163.2,67.37
225802,2018-06-29 10:42:28.312500,140.63,67.37
225803,2018-06-29 10:42:28.343750,119.83,67.37
225804,2018-06-29 10:42:28.375000,95.06,67.37
225805,2018-06-29 10:42:28.406250,63.71,67.37
225806,2018-06-29 10:42:28.437500,26.99,67.37
225807,2018-06-29 10:42:28.468750,-9.16,67.37
225808,2018-06-29 10:42:28.500000,-41.41,67.37
225809,2018-06-29 10:42:28.531250,-73.61,67.53
225810,2018-06-29 10:42:28.562500,-109.15,67.53
225811,2018-06-29 10:42:28.593750,-145.12,67.53
225812,2018-06-29 10:42:28.625000,-180.38,67.53
225813,2018-06-29 10:42:28.656250,-222.09,67.53
225814,2018-06-29 10:42:28.687500,-275.78,67.53
225815,2018-06-29 10:42:28.718750,-335.54,67.53
225816,2018-06-29 10:42:28.750000,-391.97,67.53
225817,2018-06-29 10:42:28.781250,-444.92,67.53
225818,2018-06-29 10:42:28.812500,-504.28,67.53
225819,2018-06-29 10:42:28.843750,-581.18,67.53
225820,2018-06-29 10:42:28.875000,-665.12,67.53
225821,2018-06-29 10:42:28.906250,-711.04,67.53
225822,2018-06-29 10:42:28.937500,-681.31,67.53
225823,2018-06-29 10:42:28.968750,-595.69,67.53
225824,2018-06-29 10:42:29.000000,-503.97,67.53
225825,2018-06-29 10:42:29.031250,-426.62,67.53
225826,2018-06-29 10:42:29.062500,-357.34,67.53
225827,2018-06-29 10:42:29.093750,-297.28,67.53
225828,2018-06-29 10:42:29.125000,-252.73,67.53
225829,2018-06-29 10:42:29.156250,-218.89,67.53
225830,2018-06-29 10:42:29.187500,-185.42,67.53
225831,2018-06-29 10:42:29.218750,-147.23,67.53
225832,2018-06-29 10:42:29.250000,-103.32,67.53
225833,2018-06-29 10:42:29.281250,-52.56,67.53
225834,2018-06-29 10:42:29.312500,3.42,67.53
225835,2018-06-29 10:42:29.343750,57.16,67.53
225836,2018-06-29 10:42:29.375000,102.47,67.53
225837,2018-06-29 10:42:29.406250,143.02,67.53
225838,2018-06-29 10:42:29.437500,187.62,67.53
225839,2018-06-29 10:42:29.468750,234.46,67.53
225840,2018-06-29 10:42:29.500000,267.99,67.53
225841,2018-06-29 10:42:29.531250,278.69,67.68
225842,2018-06-29 10:42:29.562500,276.03,67.68
225843,2018-06-29 10:42:29.593750,273.34,67.68
225844,2018-06-29 10:42:29.625000,271.53,67.68
225845,2018-06-29 10:42:29.656250,265.43,67.68
225846,2018-06-29 10:42:29.687500,254.35,67.68
225847,2018-06-29 10:42:29.718750,239.83,67.68
225848,2018-06-29 10:42:29.750000,222.2,67.68
225849,2018-06-29 10:42:29.781250,202.75,67.68
225850,2018-06-29 10:42:29.812500,184.27,67.68
225851,2018-06-29 10:42:29.843750,167.54,67.68
225852,2018-06-29 10:42:29.875000,150.41,67.68
225853,2018-06-29 10:42:29.906250,131.24,67.68
225854,2018-06-29 10:42:29.937500,111.57,67.68
225855,2018-06-29 10:42:29.968750,93.18,67.68
225856,2018-06-29 10:42:30.000000,74.46,67.68
225857,2018-06-29 10:42:30.031250,52.49,67.68
225858,2018-06-29 10:42:30.062500,27.73,67.68
225859,2018-06-29 10:42:30.093750,3.89,67.68
225860,2018-06-29 10:42:30.125000,-16.35,67.68
225861,2018-06-29 10:42:30.156250,-34.6,67.68
225862,2018-06-29 10:42:30.187500,-55.55,67.68
225863,2018-06-29 10:42:30.218750,-80.33,67.68
225864,2018-06-29 10:42:30.250000,-99.27,67.68
225865,2018-06-29 10:42:30.281250,-96.5,67.68
225866,2018-06-29 10:42:30.312500,-67.48,67.68
225867,2018-06-29 10:42:30.343750,-25.87,67.68
225868,2018-06-29 10:42:30.375000,11.99,67.68
225869,2018-06-29 10:42:30.406250,42.1,67.68
225870,2018-06-29 10:42:30.437500,68.07,67.68
225871,2018-06-29 10:42:30.468750,90.39,67.68
225872,2018-06-29 10:42:30.500000,105.13,67.68
225873,2018-06-29 10:42:30.531250,109.26,67.8
225874,2018-06-29 10:42:30.562500,105.03,67.8
225875,2018-06-29 10:42:30.593750,98.97,67.8
225876,2018-06-29 10:42:30.625000,95.6,67.8
225877,2018-06-29 10:42:30.656250,94.46,67.8
225878,2018-06-29 10:42:30.687500,92.92,67.8
225879,2018-06-29 10:42:30.718750,88.6,67.8
225880,2018-06-29 10:42:30.750000,80.24,67.8
225881,2018-06-29 10:42:30.781250,68.74,67.8
225882,2018-06-29 10:42:30.812500,56.55,67.8
225883,2018-06-29 10:42:30.843750,44.9,67.8
225884,2018-06-29 10:42:30.875000,33.14,67.8
225885,2018-06-29 10:42:30.906250,20.96,67.8
225886,2018-06-29 10:42:30.937500,9.4,67.8
225887,2018-06-29 10:42:30.968750,-1.39,67.8
225888,2018-06-29 10:42:31.000000,-12.94,67.8
225889,2018-06-29 10:42:31.031250,-25.83,67.8
225890,2018-06-29 10:42:31.062500,-38.95,67.8
225891,2018-06-29 10:42:31.093750,-52.08,67.8
225892,2018-06-29 10:42:31.125000,-67.02,67.8
225893,2018-06-29 10:42:31.156250,-84.14,67.8
225894,2018-06-29 10:42:31.187500,-97.27,67.8
225895,2018-06-29 10:42:31.218750,-94.51,67.8
225896,2018-06-29 10:42:31.250000,-69.13,67.8
225897,2018-06-29 10:42:31.281250,-29.11,67.8
225898,2018-06-29 10:42:31.312500,9.91,67.8
225899,2018-06-29 10:42:31.343750,39.27,67.8
225900,2018-06-29 10:42:31.375000,59.63,67.8
225901,2018-06-29 10:42:31.406250,72.68,67.8
225902,2018-06-29 10:42:31.437500,77.85,67.8
225903,2018-06-29 10:42:31.468750,75.95,67.8
225904,2018-06-29 10:42:31.500000,71.5,67.8
225905,2018-06-29 10:42:31.531250,69.34,67.95
225906,2018-06-29 10:42:31.562500,69.7,67.95
225907,2018-06-29 10:42:31.593750,69.02,67.95
225908,2018-06-29 10:42:31.625000,65.31,67.95
225909,2018-06-29 10:42:31.656250,58.89,67.95
225910,2018-06-29 10:42:31.687500,49.14,67.95
225911,2018-06-29 10:42:31.718750,36.18,67.95
225912,2018-06-29 10:42:31.750000,24.06,67.95
225913,2018-06-29 10:42:31.781250,15.79,67.95
225914,2018-06-29 10:42:31.812500,9.03,67.95
225915,2018-06-29 10:42:31.843750,1.47,67.95
225916,2018-06-29 10:42:31.875000,-5.86,67.95
225917,2018-06-29 10:42:31.906250,-13.68,67.95
225918,2018-06-29 10:42:31.937500,-25.22,67.95
225919,2018-06-29 10:42:31.968750,-39.75,67.95
225920,2018-06-29 10:42:32.000000,-52.39,67.95
225921,2018-06-29 10:42:32.031250,-61.68,67.95
225922,2018-06-29 10:42:32.062500,-72.0,67.95
225923,2018-06-29 10:42:32.093750,-87.11,67.95
225924,2018-06-29 10:42:32.125000,-103.04,67.95
225925,2018-06-29 10:42:32.156250,-107.71,67.95
225926,2018-06-29 10:42:32.187500,-90.8,67.95
225927,2018-06-29 10:42:32.218750,-55.63,67.95
225928,2018-06-29 10:42:32.250000,-17.11,67.95
225929,2018-06-29 10:42:32.281250,13.59,67.95
225930,2018-06-29 10:42:32.312500,36.81,67.95
225931,2018-06-29 10:42:32.343750,56.32,67.95
225932,2018-06-29 10:42:32.375000,71.07,67.95
225933,2018-06-29 10:42:32.406250,77.79,67.95
225934,2018-06-29 10:42:32.437500,77.42,67.95
225935,2018-06-29 10:42:32.468750,74.82,67.95
225936,2018-06-29 10:42:32.500000,73.95,67.95
225937,2018-06-29 10:42:32.531250,75.94,68.12
225938,2018-06-29 10:42:32.562500,79.81,68.12
225939,2018-06-29 10:42:32.593750,82.34,68.12
225940,2018-06-29 10:42:32.625000,80.41,68.12
225941,2018-06-29 10:42:32.656250,75.39,68.12
225942,2018-06-29 10:42:32.687500,71.34,68.12
225943,2018-06-29 10:42:32.718750,68.38,68.12
225944,2018-06-29 10:42:32.750000,62.94,68.12
225945,2018-06-29 10:42:32.781250,54.81,68.12
225946,2018-06-29 10:42:32.812500,48.67,68.12
225947,2018-06-29 10:42:32.843750,47.9,68.12
225948,2018-06-29 10:42:32.875000,50.31,68.12
225949,2018-06-29 10:42:32.906250,52.7,68.12
225950,2018-06-29 10:42:32.937500,56.83,68.12
225951,2018-06-29 10:42:32.968750,65.93,68.12
225952,2018-06-29 10:42:33.000000,77.02,68.12
225953,2018-06-29 10:42:33.031250,82.29,68.12
225954,2018-06-29 10:42:33.062500,78.55,68.12
225955,2018-06-29 10:42:33.093750,74.98,68.12
225956,2018-06-29 10:42:33.125000,92.44,68.12
225957,2018-06-29 10:42:33.156250,143.81,68.12
225958,2018-06-29 10:42:33.187500,207.1,68.12
225959,2018-06-29 10:42:33.218750,236.72,68.12
225960,2018-06-29 10:42:33.250000,212.14,68.12
225961,2018-06-29 10:42:33.281250,155.13,68.12
225962,2018-06-29 10:42:33.312500,94.68,68.12
225963,2018-06-29 10:42:33.343750,39.21,68.12
225964,2018-06-29 10:42:33.375000,-14.45,68.12
225965,2018-06-29 10:42:33.406250,-69.07,68.12
225966,2018-06-29 10:42:33.437500,-126.63,68.12
225967,2018-06-29 10:42:33.468750,-187.33,68.12
225968,2018-06-29 10:42:33.500000,-248.83,68.12
225969,2018-06-29 10:42:33.531250,-312.35,68.22
225970,2018-06-29 10:42:33.562500,-388.32,68.22
225971,2018-06-29 10:42:33.593750,-478.18,68.22
225972,2018-06-29 10:42:33.625000,-546.8,68.22
225973,2018-06-29 10:42:33.656250,-544.57,68.22
225974,2018-06-29 10:42:33.687500,-466.09,68.22
225975,2018-06-29 10:42:33.718750,-354.49,68.22
225976,2018-06-29 10:42:33.750000,-248.43,68.22
225977,2018-06-29 10:42:33.781250,-159.76,68.22
225978,2018-06-29 10:42:33.812500,-93.08,68.22
225979,2018-06-29 10:42:33.843750,-50.63,68.22
225980,2018-06-29 10:42:33.875000,-24.3,68.22
225981,2018-06-29 10:42:33.906250,-4.19,68.22
225982,2018-06-29 10:42:33.937500,10.58,68.22
225983,2018-06-29 10:42:33.968750,16.71,68.22
225984,2018-06-29 10:42:34.000000,15.43,68.22
225985,2018-06-29 10:42:34.031250,11.26,68.22
225986,2018-06-29 10:42:34.062500,8.47,68.22
225987,2018-06-29 10:42:34.093750,12.44,68.22
225988,2018-06-29 10:42:34.125000,27.46,68.22
225989,2018-06-29 10:42:34.156250,50.3,68.22
225990,2018-06-29 10:42:34.187500,72.04,68.22
225991,2018-06-29 10:42:34.218750,87.05,68.22
225992,2018-06-29 10:42:34.250000,95.8,68.22
225993,2018-06-29 10:42:34.281250,100.46,68.22
225994,2018-06-29 10:42:34.312500,101.84,68.22
225995,2018-06-29 10:42:34.343750,100.1,68.22
225996,2018-06-29 10:42:34.375000,95.88,68.22
225997,2018-06-29 10:42:34.406250,90.28,68.22
225998,2018-06-29 10:42:34.437500,84.46,68.22
225999,2018-06-29 10:42:34.468750,79.48,68.22
226000,2018-06-29 10:42:34.500000,75.18,68.22
226001,2018-06-29 10:42:34.531250,69.57,68.25
226002,2018-06-29 10:42:34.562500,61.18,68.25
226003,2018-06-29 10:42:34.593750,51.56,68.25
226004,2018-06-29 10:42:34.625000,42.87,68.25
226005,2018-06-29 10:42:34.656250,34.6,68.25
226006,2018-06-29 10:42:34.687500,25.51,68.25
226007,2018-06-29 10:42:34.718750,16.25,68.25
226008,2018-06-29 10:42:34.750000,7.55,68.25
226009,2018-06-29 10:42:34.781250,-1.39,68.25
226010,2018-06-29 10:42:34.812500,-11.22,68.25
226011,2018-06-29 10:42:34.843750,-21.16,68.25
226012,2018-06-29 10:42:34.875000,-29.67,68.25
226013,2018-06-29 10:42:34.906250,-36.1,68.25
226014,2018-06-29 10:42:34.937500,-42.48,68.25
226015,2018-06-29 10:42:34.968750,-51.79,68.25
226016,2018-06-29 10:42:35.000000,-62.09,68.25
226017,2018-06-29 10:42:35.031250,-64.79,68.25
226018,2018-06-29 10:42:35.062500,-53.41,68.25
226019,2018-06-29 10:42:35.093750,-31.95,68.25
226020,2018-06-29 10:42:35.125000,-10.19,68.25
226021,2018-06-29 10:42:35.156250,6.79,68.25
226022,2018-06-29 10:42:35.187500,20.35,68.25
226023,2018-06-29 10:42:35.218750,32.11,68.25
226024,2018-06-29 10:42:35.250000,40.53,68.25
226025,2018-06-29 10:42:35.281250,44.04,68.25
226026,2018-06-29 10:42:35.312500,44.3,68.25
226027,2018-06-29 10:42:35.343750,44.15,68.25
226028,2018-06-29 10:42:35.375000,44.36,68.25
226029,2018-06-29 10:42:35.406250,44.63,68.25
226030,2018-06-29 10:42:35.437500,44.86,68.25
226031,2018-06-29 10:42:35.468750,44.25,68.25
226032,2018-06-29 10:42:35.500000,41.5,68.25
226033,2018-06-29 10:42:35.531250,36.61,68.3
226034,2018-06-29 10:42:35.562500,31.01,68.3
226035,2018-06-29 10:42:35.593750,26.45,68.3
226036,2018-06-29 10:42:35.625000,23.11,68.3
226037,2018-06-29 10:42:35.656250,18.85,68.3
226038,2018-06-29 10:42:35.687500,11.98,68.3
226039,2018-06-29 10:42:35.718750,3.74,68.3
226040,2018-06-29 10:42:35.750000,-3.44,68.3
226041,2018-06-29 10:42:35.781250,-9.51,68.3
226042,2018-06-29 10:42:35.812500,-16.97,68.3
226043,2018-06-29 10:42:35.843750,-27.03,68.3
226044,2018-06-29 10:42:35.875000,-37.28,68.3
226045,2018-06-29 10:42:35.906250,-44.81,68.3
226046,2018-06-29 10:42:35.937500,-50.42,68.3
226047,2018-06-29 10:42:35.968750,-57.46,68.3
226048,2018-06-29 10:42:36.000000,-67.0,68.3
226049,2018-06-29 10:42:36.031250,-74.81,68.3
226050,2018-06-29 10:42:36.062500,-73.06,68.3
226051,2018-06-29 10:42:36.093750,-58.05,68.3
226052,2018-06-29 10:42:36.125000,-36.05,68.3
226053,2018-06-29 10:42:36.156250,-16.7,68.3
226054,2018-06-29 10:42:36.187500,-2.2,68.3
226055,2018-06-29 10:42:36.218750,10.68,68.3
226056,2018-06-29 10:42:36.250000,22.21,68.3
226057,2018-06-29 10:42:36.281250,29.74,68.3
226058,2018-06-29 10:42:36.312500,33.21,68.3
226059,2018-06-29 10:42:36.343750,35.59,68.3
226060,2018-06-29 10:42:36.375000,38.84,68.3
226061,2018-06-29 10:42:36.406250,41.76,68.3
226062,2018-06-29 10:42:36.437500,42.53,68.3
226063,2018-06-29 10:42:36.468750,41.35,68.3
226064,2018-06-29 10:42:36.500000,38.95,68.3
226065,2018-06-29 10:42:36.531250,34.81,68.37
226066,2018-06-29 10:42:36.562500,29.13,68.37
226067,2018-06-29 10:42:36.593750,23.95,68.37
226068,2018-06-29 10:42:36.625000,20.59,68.37
226069,2018-06-29 10:42:36.656250,17.57,68.37
226070,2018-06-29 10:42:36.687500,12.76,68.37
226071,2018-06-29 10:42:36.718750,6.0,68.37
226072,2018-06-29 10:42:36.750000,-1.03,68.37
226073,2018-06-29 10:42:36.781250,-7.03,68.37
226074,2018-06-29 10:42:36.812500,-12.45,68.37
226075,2018-06-29 10:42:36.843750,-18.74,68.37
226076,2018-06-29 10:42:36.875000,-26.44,68.37
226077,2018-06-29 10:42:36.906250,-34.42,68.37
226078,2018-06-29 10:42:36.937500,-41.64,68.37
226079,2018-06-29 10:42:36.968750,-49.17,68.37
226080,2018-06-29 10:42:37.000000,-58.77,68.37
226081,2018-06-29 10:42:37.031250,-69.62,68.37
226082,2018-06-29 10:42:37.062500,-76.41,68.37
226083,2018-06-29 10:42:37.093750,-72.26,68.37
226084,2018-06-29 10:42:37.125000,-55.68,68.37
226085,2018-06-29 10:42:37.156250,-33.66,68.37
226086,2018-06-29 10:42:37.187500,-14.73,68.37
226087,2018-06-29 10:42:37.218750,-0.66,68.37
226088,2018-06-29 10:42:37.250000,11.61,68.37
226089,2018-06-29 10:42:37.281250,23.25,68.37
226090,2018-06-29 10:42:37.312500,32.19,68.37
226091,2018-06-29 10:42:37.343750,36.54,68.37
226092,2018-06-29 10:42:37.375000,37.38,68.37
226093,2018-06-29 10:42:37.406250,37.59,68.37
226094,2018-06-29 10:42:37.437500,38.68,68.37
226095,2018-06-29 10:42:37.468750,40.03,68.37
226096,2018-06-29 10:42:37.500000,40.55,68.37
226097,2018-06-29 10:42:37.531250,39.45,68.42
226098,2018-06-29 10:42:37.562500,36.28,68.42
226099,2018-06-29 10:42:37.593750,31.67,68.42
226100,2018-06-29 10:42:37.625000,26.93,68.42
226101,2018-06-29 10:42:37.656250,22.46,68.42
226102,2018-06-29 10:42:37.687500,17.56,68.42
226103,2018-06-29 10:42:37.718750,11.62,68.42
226104,2018-06-29 10:42:37.750000,4.99,68.42
226105,2018-06-29 10:42:37.781250,-1.36,68.42
226106,2018-06-29 10:42:37.812500,-6.63,68.42
226107,2018-06-29 10:42:37.843750,-11.2,68.42
226108,2018-06-29 10:42:37.875000,-16.95,68.42
226109,2018-06-29 10:42:37.906250,-25.23,68.42
226110,2018-06-29 10:42:37.937500,-34.83,68.42
226111,2018-06-29 10:42:37.968750,-43.03,68.42
226112,2018-06-29 10:42:38.000000,-49.29,68.42
226113,2018-06-29 10:42:38.031250,-56.32,68.42
226114,2018-06-29 10:42:38.062500,-66.35,68.42
226115,2018-06-29 10:42:38.093750,-76.02,68.42
226116,2018-06-29 10:42:38.125000,-76.61,68.42
226117,2018-06-29 10:42:38.156250,-62.86,68.42
226118,2018-06-29 10:42:38.187500,-40.16,68.42
226119,2018-06-29 10:42:38.218750,-18.36,68.42
226120,2018-06-29 10:42:38.250000,-1.29,68.42
226121,2018-06-29 10:42:38.281250,12.92,68.42
226122,2018-06-29 10:42:38.312500,25.15,68.42
226123,2018-06-29 10:42:38.343750,34.11,68.42
226124,2018-06-29 10:42:38.375000,39.09,68.42
226125,2018-06-29 10:42:38.406250,40.94,68.42
226126,2018-06-29 10:42:38.437500,41.63,68.42
226127,2018-06-29 10:42:38.468750,42.92,68.42
226128,2018-06-29 10:42:38.500000,45.17,68.42
226129,2018-06-29 10:42:38.531250,47.44,68.4
226130,2018-06-29 10:42:38.562500,48.24,68.4
226131,2018-06-29 10:42:38.593750,46.25,68.4
226132,2018-06-29 10:42:38.625000,41.28,68.4
226133,2018-06-29 10:42:38.656250,34.61,68.4
226134,2018-06-29 10:42:38.687500,27.81,68.4
226135,2018-06-29 10:42:38.718750,21.71,68.4
226136,2018-06-29 10:42:38.750000,16.34,68.4
226137,2018-06-29 10:42:38.781250,11.22,68.4
226138,2018-06-29 10:42:38.812500,5.73,68.4
226139,2018-06-29 10:42:38.843750,-0.22,68.4
226140,2018-06-29 10:42:38.875000,-6.23,68.4
226141,2018-06-29 10:42:38.906250,-12.59,68.4
226142,2018-06-29 10:42:38.937500,-20.19,68.4
226143,2018-06-29 10:42:38.968750,-29.12,68.4
226144,2018-06-29 10:42:39.000000,-38.23,68.4
226145,2018-06-29 10:42:39.031250,-46.15,68.4
226146,2018-06-29 10:42:39.062500,-53.08,68.4
226147,2018-06-29 10:42:39.093750,-61.64,68.4
226148,2018-06-29 10:42:39.125000,-73.57,68.4
226149,2018-06-29 10:42:39.156250,-83.92,68.4
226150,2018-06-29 10:42:39.187500,-82.45,68.4
226151,2018-06-29 10:42:39.218750,-65.01,68.4
226152,2018-06-29 10:42:39.250000,-39.35,68.4
226153,2018-06-29 10:42:39.281250,-16.18,68.4
226154,2018-06-29 10:42:39.312500,1.26,68.4
226155,2018-06-29 10:42:39.343750,15.67,68.4
226156,2018-06-29 10:42:39.375000,28.69,68.4
226157,2018-06-29 10:42:39.406250,38.81,68.4
226158,2018-06-29 10:42:39.437500,44.32,68.4
226159,2018-06-29 10:42:39.468750,46.09,68.4
226160,2018-06-29 10:42:39.500000,46.89,68.4
226161,2018-06-29 10:42:39.531250,48.35,68.38
226162,2018-06-29 10:42:39.562500,50.26,68.38
226163,2018-06-29 10:42:39.593750,51.74,68.38
226164,2018-06-29 10:42:39.625000,51.49,68.38
226165,2018-06-29 10:42:39.656250,48.31,68.38
226166,2018-06-29 10:42:39.687500,42.78,68.38
226167,2018-06-29 10:42:39.718750,36.65,68.38
226168,2018-06-29 10:42:39.750000,30.7,68.38
226169,2018-06-29 10:42:39.781250,24.44,68.38
226170,2018-06-29 10:42:39.812500,17.5,68.38
226171,2018-06-29 10:42:39.843750,10.44,68.38
226172,2018-06-29 10:42:39.875000,4.64,68.38
226173,2018-06-29 10:42:39.906250,0.94,68.38
226174,2018-06-29 10:42:39.937500,-2.06,68.38
226175,2018-06-29 10:42:39.968750,-6.93,68.38
226176,2018-06-29 10:42:40.000000,-14.54,68.38
226177,2018-06-29 10:42:40.031250,-23.61,68.38
226178,2018-06-29 10:42:40.062500,-32.61,68.38
226179,2018-06-29 10:42:40.093750,-41.22,68.38
226180,2018-06-29 10:42:40.125000,-50.54,68.38
226181,2018-06-29 10:42:40.156250,-62.11,68.38
226182,2018-06-29 10:42:40.187500,-75.14,68.38
226183,2018-06-29 10:42:40.218750,-83.41,68.38
226184,2018-06-29 10:42:40.250000,-78.16,68.38
226185,2018-06-29 10:42:40.281250,-57.65,68.38
226186,2018-06-29 10:42:40.312500,-31.0,68.38
226187,2018-06-29 10:42:40.343750,-8.4,68.38
226188,2018-06-29 10:42:40.375000,8.61,68.38
226189,2018-06-29 10:42:40.406250,23.34,68.38
226190,2018-06-29 10:42:40.437500,35.98,68.38
226191,2018-06-29 10:42:40.468750,43.85,68.38
226192,2018-06-29 10:42:40.500000,46.78,68.38
226193,2018-06-29 10:42:40.531250,47.54,68.33
226194,2018-06-29 10:42:40.562500,48.44,68.33
226195,2018-06-29 10:42:40.593750,49.75,68.33
226196,2018-06-29 10:42:40.625000,51.02,68.33
226197,2018-06-29 10:42:40.656250,51.72,68.33
226198,2018-06-29 10:42:40.687500,50.58,68.33
226199,2018-06-29 10:42:40.718750,46.59,68.33
226200,2018-06-29 10:42:40.750000,40.59,68.33
226201,2018-06-29 10:42:40.781250,34.04,68.33
226202,2018-06-29 10:42:40.812500,27.49,68.33
226203,2018-06-29 10:42:40.843750,21.3,68.33
226204,2018-06-29 10:42:40.875000,16.09,68.33
226205,2018-06-29 10:42:40.906250,11.34,68.33
226206,2018-06-29 10:42:40.937500,5.61,68.33
226207,2018-06-29 10:42:40.968750,-1.31,68.33
226208,2018-06-29 10:42:41.000000,-8.08,68.33
226209,2018-06-29 10:42:41.031250,-14.06,68.33
226210,2018-06-29 10:42:41.062500,-20.76,68.33
226211,2018-06-29 10:42:41.093750,-29.74,68.33
226212,2018-06-29 10:42:41.125000,-39.53,68.33
226213,2018-06-29 10:42:41.156250,-47.33,68.33
226214,2018-06-29 10:42:41.187500,-53.65,68.33
226215,2018-06-29 10:42:41.218750,-62.05,68.33
226216,2018-06-29 10:42:41.250000,-74.36,68.33
226217,2018-06-29 10:42:41.281250,-87.0,68.33
226218,2018-06-29 10:42:41.312500,-90.29,68.33
226219,2018-06-29 10:42:41.343750,-75.07,68.33
226220,2018-06-29 10:42:41.375000,-44.18,68.33
226221,2018-06-29 10:42:41.406250,-11.77,68.33
226222,2018-06-29 10:42:41.437500,11.69,68.33
226223,2018-06-29 10:42:41.468750,27.08,68.33
226224,2018-06-29 10:42:41.500000,38.21,68.33
226225,2018-06-29 10:42:41.531250,44.63,68.15
226226,2018-06-29 10:42:41.562500,45.65,68.15
226227,2018-06-29 10:42:41.593750,44.6,68.15
226228,2018-06-29 10:42:41.625000,45.08,68.15
226229,2018-06-29 10:42:41.656250,46.73,68.15
226230,2018-06-29 10:42:41.687500,47.25,68.15
226231,2018-06-29 10:42:41.718750,46.1,68.15
226232,2018-06-29 10:42:41.750000,43.49,68.15
226233,2018-06-29 10:42:41.781250,38.75,68.15
226234,2018-06-29 10:42:41.812500,32.09,68.15
226235,2018-06-29 10:42:41.843750,26.09,68.15
226236,2018-06-29 10:42:41.875000,23.0,68.15
226237,2018-06-29 10:42:41.906250,21.65,68.15
226238,2018-06-29 10:42:41.937500,18.87,68.15
226239,2018-06-29 10:42:41.968750,13.37,68.15
226240,2018-06-29 10:42:42.000000,6.53,68.15
226241,2018-06-29 10:42:42.031250,-0.24,68.15
226242,2018-06-29 10:42:42.062500,-6.93,68.15
226243,2018-06-29 10:42:42.093750,-14.03,68.15
226244,2018-06-29 10:42:42.125000,-21.71,68.15
226245,2018-06-29 10:42:42.156250,-29.67,68.15
226246,2018-06-29 10:42:42.187500,-37.57,68.15
226247,2018-06-29 10:42:42.218750,-44.99,68.15
226248,2018-06-29 10:42:42.250000,-51.84,68.15
226249,2018-06-29 10:42:42.281250,-59.83,68.15
226250,2018-06-29 10:42:42.312500,-70.92,68.15
226251,2018-06-29 10:42:42.343750,-80.22,68.15
226252,2018-06-29 10:42:42.375000,-75.43,68.15
226253,2018-06-29 10:42:42.406250,-50.95,68.15
226254,2018-06-29 10:42:42.437500,-17.75,68.15
226255,2018-06-29 10:42:42.468750,8.6,68.15
226256,2018-06-29 10:42:42.500000,25.93,68.15
226257,2018-06-29 10:42:42.531250,43.87,68.07
226258,2018-06-29 10:42:42.562500,67.8,68.07
226259,2018-06-29 10:42:42.593750,93.85,68.07
226260,2018-06-29 10:42:42.625000,117.23,68.07
226261,2018-06-29 10:42:42.656250,135.62,68.07
226262,2018-06-29 10:42:42.687500,148.56,68.07
226263,2018-06-29 10:42:42.718750,162.43,68.07
226264,2018-06-29 10:42:42.750000,178.38,68.07
226265,2018-06-29 10:42:42.781250,172.92,68.07
226266,2018-06-29 10:42:42.812500,122.37,68.07
226267,2018-06-29 10:42:42.843750,44.29,68.07
226268,2018-06-29 10:42:42.875000,-17.62,68.07
226269,2018-06-29 10:42:42.906250,-42.79,68.07
226270,2018-06-29 10:42:42.937500,-42.3,68.07
226271,2018-06-29 10:42:42.968750,-35.23,68.07
226272,2018-06-29 10:42:43.000000,-33.88,68.07
226273,2018-06-29 10:42:43.031250,-38.1,68.07
226274,2018-06-29 10:42:43.062500,-38.66,68.07
226275,2018-06-29 10:42:43.093750,-30.02,68.07
226276,2018-06-29 10:42:43.125000,-20.6,68.07
226277,2018-06-29 10:42:43.156250,-28.66,68.07
226278,2018-06-29 10:42:43.187500,-60.06,68.07
226279,2018-06-29 10:42:43.218750,-91.2,68.07
226280,2018-06-29 10:42:43.250000,-94.22,68.07
226281,2018-06-29 10:42:43.281250,-79.64,68.07
226282,2018-06-29 10:42:43.312500,-82.08,68.07
226283,2018-06-29 10:42:43.343750,-107.8,68.07
226284,2018-06-29 10:42:43.375000,-134.63,68.07
226285,2018-06-29 10:42:43.406250,-152.65,68.07
226286,2018-06-29 10:42:43.437500,-164.95,68.07
226287,2018-06-29 10:42:43.468750,-162.84,68.07
226288,2018-06-29 10:42:43.500000,-136.14,68.07
226289,2018-06-29 10:42:43.531250,-93.22,68.02
226290,2018-06-29 10:42:43.562500,-48.02,68.02
226291,2018-06-29 10:42:43.593750,-3.41,68.02
226292,2018-06-29 10:42:43.625000,40.87,68.02
226293,2018-06-29 10:42:43.656250,81.22,68.02
226294,2018-06-29 10:42:43.687500,117.84,68.02
226295,2018-06-29 10:42:43.718750,156.38,68.02
226296,2018-06-29 10:42:43.750000,198.44,68.02
226297,2018-06-29 10:42:43.781250,237.57,68.02
226298,2018-06-29 10:42:43.812500,268.22,68.02
226299,2018-06-29 10:42:43.843750,293.02,68.02
226300,2018-06-29 10:42:43.875000,316.0,68.02
226301,2018-06-29 10:42:43.906250,332.21,68.02
226302,2018-06-29 10:42:43.937500,330.93,68.02
226303,2018-06-29 10:42:43.968750,306.12,68.02
226304,2018-06-29 10:42:44.000000,260.02,68.02
226305,2018-06-29 10:42:44.031250,197.28,68.02
226306,2018-06-29 10:42:44.062500,115.07,68.02
226307,2018-06-29 10:42:44.093750,9.52,68.02
226308,2018-06-29 10:42:44.125000,-97.81,68.02
226309,2018-06-29 10:42:44.156250,-159.0,68.02
226310,2018-06-29 10:42:44.187500,-151.14,68.02
226311,2018-06-29 10:42:44.218750,-108.48,68.02
226312,2018-06-29 10:42:44.250000,-76.62,68.02
226313,2018-06-29 10:42:44.281250,-61.69,68.02
226314,2018-06-29 10:42:44.312500,-46.07,68.02
226315,2018-06-29 10:42:44.343750,-23.88,68.02
226316,2018-06-29 10:42:44.375000,-1.46,68.02
226317,2018-06-29 10:42:44.406250,16.98,68.02
226318,2018-06-29 10:42:44.437500,30.19,68.02
226319,2018-06-29 10:42:44.468750,36.35,68.02
226320,2018-06-29 10:42:44.500000,36.37,68.02
226321,2018-06-29 10:42:44.531250,35.2,67.98
226322,2018-06-29 10:42:44.562500,29.8,67.98
226323,2018-06-29 10:42:44.593750,3.09,67.98
226324,2018-06-29 10:42:44.625000,-54.68,67.98
226325,2018-06-29 10:42:44.656250,-129.16,67.98
226326,2018-06-29 10:42:44.687500,-197.58,67.98
226327,2018-06-29 10:42:44.718750,-249.15,67.98
226328,2018-06-29 10:42:44.750000,-285.11,67.98
226329,2018-06-29 10:42:44.781250,-310.87,67.98
226330,2018-06-29 10:42:44.812500,-326.79,67.98
226331,2018-06-29 10:42:44.843750,-322.2,67.98
226332,2018-06-29 10:42:44.875000,-286.93,67.98
226333,2018-06-29 10:42:44.906250,-230.4,67.98
226334,2018-06-29 10:42:44.937500,-178.37,67.98
226335,2018-06-29 10:42:44.968750,-147.09,67.98
226336,2018-06-29 10:42:45.000000,-129.13,67.98
226337,2018-06-29 10:42:45.031250,-108.06,67.98
226338,2018-06-29 10:42:45.062500,-77.2,67.98
226339,2018-06-29 10:42:45.093750,-39.06,67.98
226340,2018-06-29 10:42:45.125000,1.96,67.98
226341,2018-06-29 10:42:45.156250,38.26,67.98
226342,2018-06-29 10:42:45.187500,61.1,67.98
226343,2018-06-29 10:42:45.218750,71.39,67.98
226344,2018-06-29 10:42:45.250000,79.78,67.98
226345,2018-06-29 10:42:45.281250,91.86,67.98
226346,2018-06-29 10:42:45.312500,101.32,67.98
226347,2018-06-29 10:42:45.343750,98.95,67.98
226348,2018-06-29 10:42:45.375000,79.61,67.98
226349,2018-06-29 10:42:45.406250,44.97,67.98
226350,2018-06-29 10:42:45.437500,8.39,67.98
226351,2018-06-29 10:42:45.468750,-10.49,67.98
226352,2018-06-29 10:42:45.500000,-5.13,67.98
226353,2018-06-29 10:42:45.531250,12.67,67.98
226354,2018-06-29 10:42:45.562500,30.77,67.98
226355,2018-06-29 10:42:45.593750,48.32,67.98
226356,2018-06-29 10:42:45.625000,67.97,67.98
226357,2018-06-29 10:42:45.656250,85.83,67.98
226358,2018-06-29 10:42:45.687500,92.23,67.98
226359,2018-06-29 10:42:45.718750,82.07,67.98
226360,2018-06-29 10:42:45.750000,61.25,67.98
226361,2018-06-29 10:42:45.781250,40.22,67.98
226362,2018-06-29 10:42:45.812500,23.56,67.98
226363,2018-06-29 10:42:45.843750,11.03,67.98
226364,2018-06-29 10:42:45.875000,3.45,67.98
226365,2018-06-29 10:42:45.906250,3.16,67.98
226366,2018-06-29 10:42:45.937500,8.54,67.98
226367,2018-06-29 10:42:45.968750,10.51,67.98
226368,2018-06-29 10:42:46.000000,4.45,67.98
226369,2018-06-29 10:42:46.031250,-1.62,67.98
226370,2018-06-29 10:42:46.062500,3.36,67.98
226371,2018-06-29 10:42:46.093750,17.89,67.98
226372,2018-06-29 10:42:46.125000,32.23,67.98
226373,2018-06-29 10:42:46.156250,38.26,67.98
226374,2018-06-29 10:42:46.187500,30.54,67.98
226375,2018-06-29 10:42:46.218750,6.4,67.98
226376,2018-06-29 10:42:46.250000,-35.32,67.98
226377,2018-06-29 10:42:46.281250,-85.28,67.98
226378,2018-06-29 10:42:46.312500,-142.66,67.98
226379,2018-06-29 10:42:46.343750,-211.69,67.98
226380,2018-06-29 10:42:46.375000,-295.76,67.98
226381,2018-06-29 10:42:46.406250,-380.3,67.98
226382,2018-06-29 10:42:46.437500,-443.53,67.98
226383,2018-06-29 10:42:46.468750,-474.99,67.98
226384,2018-06-29 10:42:46.500000,-469.0,67.98
226385,2018-06-29 10:42:46.531250,-441.52,68.07
226386,2018-06-29 10:42:46.562500,-397.2,68.07
226387,2018-06-29 10:42:46.593750,-353.46,68.07
226388,2018-06-29 10:42:46.625000,-315.98,68.07
226389,2018-06-29 10:42:46.656250,-282.32,68.07
226390,2018-06-29 10:42:46.687500,-229.51,68.07
226391,2018-06-29 10:42:46.718750,-140.84,68.07
226392,2018-06-29 10:42:46.750000,-41.05,68.07
226393,2018-06-29 10:42:46.781250,143.87,68.07
226394,2018-06-29 10:42:46.812500,334.5,68.07
226395,2018-06-29 10:42:46.843750,391.12,68.07
226396,2018-06-29 10:42:46.875000,355.49,68.07
226397,2018-06-29 10:42:46.906250,290.75,68.07
226398,2018-06-29 10:42:46.937500,208.42,68.07
226399,2018-06-29 10:42:46.968750,128.26,68.07
226400,2018-06-29 10:42:47.000000,90.17,68.07
226401,2018-06-29 10:42:47.031250,101.6,68.07
226402,2018-06-29 10:42:47.062500,147.8,68.07
226403,2018-06-29 10:42:47.093750,189.47,68.07
226404,2018-06-29 10:42:47.125000,227.87,68.07
226405,2018-06-29 10:42:47.156250,274.45,68.07
226406,2018-06-29 10:42:47.187500,326.83,68.07
226407,2018-06-29 10:42:47.218750,360.48,68.07
226408,2018-06-29 10:42:47.250000,368.01,68.07
226409,2018-06-29 10:42:47.281250,366.94,68.07
226410,2018-06-29 10:42:47.312500,362.82,68.07
226411,2018-06-29 10:42:47.343750,351.19,68.07
226412,2018-06-29 10:42:47.375000,331.84,68.07
226413,2018-06-29 10:42:47.406250,322.33,68.07
226414,2018-06-29 10:42:47.437500,324.59,68.07
226415,2018-06-29 10:42:47.468750,323.1,68.07
226416,2018-06-29 10:42:47.500000,310.12,68.07
226417,2018-06-29 10:42:47.531250,293.25,68.18
226418,2018-06-29 10:42:47.562500,273.7,68.18
226419,2018-06-29 10:42:47.593750,239.96,68.18
226420,2018-06-29 10:42:47.625000,188.29,68.18
226421,2018-06-29 10:42:47.656250,130.01,68.18
226422,2018-06-29 10:42:47.687500,85.03,68.18
226423,2018-06-29 10:42:47.718750,68.07,68.18
226424,2018-06-29 10:42:47.750000,70.31,68.18
226425,2018-06-29 10:42:47.781250,63.71,68.18
226426,2018-06-29 10:42:47.812500,32.76,68.18
226427,2018-06-29 10:42:47.843750,-11.96,68.18
226428,2018-06-29 10:42:47.875000,-54.49,68.18
226429,2018-06-29 10:42:47.906250,-90.62,68.18
226430,2018-06-29 10:42:47.937500,-123.67,68.18
226431,2018-06-29 10:42:47.968750,-157.29,68.18
226432,2018-06-29 10:42:48.000000,-192.63,68.18
226433,2018-06-29 10:42:48.031250,-228.79,68.18
226434,2018-06-29 10:42:48.062500,-267.38,68.18
226435,2018-06-29 10:42:48.093750,-313.23,68.18
226436,2018-06-29 10:42:48.125000,-366.31,68.18
226437,2018-06-29 10:42:48.156250,-419.5,68.18
226438,2018-06-29 10:42:48.187500,-467.62,68.18
226439,2018-06-29 10:42:48.218750,-514.31,68.18
226440,2018-06-29 10:42:48.250000,-571.77,68.18
226441,2018-06-29 10:42:48.281250,-650.15,68.18
226442,2018-06-29 10:42:48.312500,-726.28,68.18
226443,2018-06-29 10:42:48.343750,-740.04,68.18
226444,2018-06-29 10:42:48.375000,-659.66,68.18
226445,2018-06-29 10:42:48.406250,-526.05,68.18
226446,2018-06-29 10:42:48.437500,-398.34,68.18
226447,2018-06-29 10:42:48.468750,-294.13,68.18
226448,2018-06-29 10:42:48.500000,-208.48,68.18
226449,2018-06-29 10:42:48.531250,-142.34,68.4
226450,2018-06-29 10:42:48.562500,-91.26,68.4
226451,2018-06-29 10:42:48.593750,-43.06,68.4
226452,2018-06-29 10:42:48.625000,5.24,68.4
226453,2018-06-29 10:42:48.656250,47.97,68.4
226454,2018-06-29 10:42:48.687500,86.64,68.4
226455,2018-06-29 10:42:48.718750,127.83,68.4
226456,2018-06-29 10:42:48.750000,166.32,68.4
226457,2018-06-29 10:42:48.781250,188.5,68.4
226458,2018-06-29 10:42:48.812500,195.15,68.4
226459,2018-06-29 10:42:48.843750,203.88,68.4
226460,2018-06-29 10:42:48.875000,225.81,68.4
226461,2018-06-29 10:42:48.906250,254.79,68.4
226462,2018-06-29 10:42:48.937500,280.21,68.4
226463,2018-06-29 10:42:48.968750,298.03,68.4
226464,2018-06-29 10:42:49.000000,308.78,68.4
226465,2018-06-29 10:42:49.031250,314.25,68.4
226466,2018-06-29 10:42:49.062500,316.64,68.4
226467,2018-06-29 10:42:49.093750,316.65,68.4
226468,2018-06-29 10:42:49.125000,311.15,68.4
226469,2018-06-29 10:42:49.156250,295.66,68.4
226470,2018-06-29 10:42:49.187500,269.46,68.4
226471,2018-06-29 10:42:49.218750,236.48,68.4
226472,2018-06-29 10:42:49.250000,200.99,68.4
226473,2018-06-29 10:42:49.281250,165.5,68.4
226474,2018-06-29 10:42:49.312500,132.76,68.4
226475,2018-06-29 10:42:49.343750,105.69,68.4
226476,2018-06-29 10:42:49.375000,84.37,68.4
226477,2018-06-29 10:42:49.406250,66.32,68.4
226478,2018-06-29 10:42:49.437500,49.28,68.4
226479,2018-06-29 10:42:49.468750,32.36,68.4
226480,2018-06-29 10:42:49.500000,15.85,68.4
226481,2018-06-29 10:42:49.531250,0.72,68.65
226482,2018-06-29 10:42:49.562500,-11.76,68.65
226483,2018-06-29 10:42:49.593750,-20.52,68.65
226484,2018-06-29 10:42:49.625000,-25.03,68.65
226485,2018-06-29 10:42:49.656250,-25.92,68.65
226486,2018-06-29 10:42:49.687500,-24.63,68.65
226487,2018-06-29 10:42:49.718750,-22.45,68.65
226488,2018-06-29 10:42:49.750000,-20.08,68.65
226489,2018-06-29 10:42:49.781250,-18.17,68.65
226490,2018-06-29 10:42:49.812500,-17.4,68.65
226491,2018-06-29 10:42:49.843750,-18.0,68.65
226492,2018-06-29 10:42:49.875000,-19.15,68.65
226493,2018-06-29 10:42:49.906250,-19.85,68.65
226494,2018-06-29 10:42:49.937500,-19.97,68.65
226495,2018-06-29 10:42:49.968750,-20.25,68.65
226496,2018-06-29 10:42:50.000000,-20.91,68.65
226497,2018-06-29 10:42:50.031250,-21.13,68.65
226498,2018-06-29 10:42:50.062500,-20.09,68.65
226499,2018-06-29 10:42:50.093750,-18.08,68.65
226500,2018-06-29 10:42:50.125000,-15.94,68.65
226501,2018-06-29 10:42:50.156250,-14.59,68.65
226502,2018-06-29 10:42:50.187500,-14.43,68.65
226503,2018-06-29 10:42:50.218750,-14.47,68.65
226504,2018-06-29 10:42:50.250000,-12.83,68.65
226505,2018-06-29 10:42:50.281250,-9.22,68.65
226506,2018-06-29 10:42:50.312500,-5.23,68.65
226507,2018-06-29 10:42:50.343750,-2.24,68.65
226508,2018-06-29 10:42:50.375000,-0.14,68.65
226509,2018-06-29 10:42:50.406250,1.66,68.65
226510,2018-06-29 10:42:50.437500,3.18,68.65
226511,2018-06-29 10:42:50.468750,4.2,68.65
226512,2018-06-29 10:42:50.500000,4.81,68.65
226513,2018-06-29 10:42:50.531250,5.19,69.1
226514,2018-06-29 10:42:50.562500,5.16,69.1
226515,2018-06-29 10:42:50.593750,5.07,69.1
226516,2018-06-29 10:42:50.625000,6.04,69.1
226517,2018-06-29 10:42:50.656250,8.09,69.1
226518,2018-06-29 10:42:50.687500,9.32,69.1
226519,2018-06-29 10:42:50.718750,8.41,69.1
226520,2018-06-29 10:42:50.750000,6.5,69.1
226521,2018-06-29 10:42:50.781250,5.19,69.1
226522,2018-06-29 10:42:50.812500,4.19,69.1
226523,2018-06-29 10:42:50.843750,2.24,69.1
226524,2018-06-29 10:42:50.875000,-0.2,69.1
226525,2018-06-29 10:42:50.906250,-1.71,69.1
226526,2018-06-29 10:42:50.937500,-2.53,69.1
226527,2018-06-29 10:42:50.968750,-3.57,69.1
226528,2018-06-29 10:42:51.000000,-3.98,69.1
226529,2018-06-29 10:42:51.031250,-3.03,69.1
226530,2018-06-29 10:42:51.062500,-2.48,69.1
226531,2018-06-29 10:42:51.093750,-4.11,69.1
226532,2018-06-29 10:42:51.125000,-6.97,69.1
226533,2018-06-29 10:42:51.156250,-9.29,69.1
226534,2018-06-29 10:42:51.187500,-10.9,69.1
226535,2018-06-29 10:42:51.218750,-12.47,69.1
226536,2018-06-29 10:42:51.250000,-14.68,69.1
226537,2018-06-29 10:42:51.281250,-18.26,69.1
226538,2018-06-29 10:42:51.312500,-22.6,69.1
226539,2018-06-29 10:42:51.343750,-24.95,69.1
226540,2018-06-29 10:42:51.375000,-23.54,69.1
226541,2018-06-29 10:42:51.406250,-20.58,69.1
226542,2018-06-29 10:42:51.437500,-19.34,69.1
226543,2018-06-29 10:42:51.468750,-19.5,69.1
226544,2018-06-29 10:42:51.500000,-17.9,69.1
226545,2018-06-29 10:42:51.531250,-13.21,69.6
226546,2018-06-29 10:42:51.562500,-6.89,69.6
226547,2018-06-29 10:42:51.593750,-0.26,69.6
226548,2018-06-29 10:42:51.625000,6.41,69.6
226549,2018-06-29 10:42:51.656250,12.39,69.6
226550,2018-06-29 10:42:51.687500,16.25,69.6
226551,2018-06-29 10:42:51.718750,17.75,69.6
226552,2018-06-29 10:42:51.750000,18.52,69.6
226553,2018-06-29 10:42:51.781250,20.84,69.6
226554,2018-06-29 10:42:51.812500,25.66,69.6
226555,2018-06-29 10:42:51.843750,31.17,69.6
226556,2018-06-29 10:42:51.875000,34.02,69.6
226557,2018-06-29 10:42:51.906250,32.69,69.6
226558,2018-06-29 10:42:51.937500,27.99,69.6
226559,2018-06-29 10:42:51.968750,20.93,69.6
226560,2018-06-29 10:42:52.000000,13.43,69.6
226561,2018-06-29 10:42:52.031250,9.85,69.6
226562,2018-06-29 10:42:52.062500,13.63,69.6
226563,2018-06-29 10:42:52.093750,23.68,69.6
226564,2018-06-29 10:42:52.125000,36.3,69.6
226565,2018-06-29 10:42:52.156250,49.06,69.6
226566,2018-06-29 10:42:52.187500,61.37,69.6
226567,2018-06-29 10:42:52.218750,73.51,69.6
226568,2018-06-29 10:42:52.250000,84.49,69.6
226569,2018-06-29 10:42:52.281250,90.33,69.6
226570,2018-06-29 10:42:52.312500,87.56,69.6
226571,2018-06-29 10:42:52.343750,77.88,69.6
226572,2018-06-29 10:42:52.375000,65.93,69.6
226573,2018-06-29 10:42:52.406250,53.66,69.6
226574,2018-06-29 10:42:52.437500,39.84,69.6
226575,2018-06-29 10:42:52.468750,23.48,69.6
226576,2018-06-29 10:42:52.500000,5.48,69.6
226577,2018-06-29 10:42:52.531250,-12.2,70.12
226578,2018-06-29 10:42:52.562500,-27.51,70.12
226579,2018-06-29 10:42:52.593750,-38.65,70.12
226580,2018-06-29 10:42:52.625000,-44.69,70.12
226581,2018-06-29 10:42:52.656250,-46.51,70.12
226582,2018-06-29 10:42:52.687500,-46.27,70.12
226583,2018-06-29 10:42:52.718750,-45.61,70.12
226584,2018-06-29 10:42:52.750000,-44.68,70.12
226585,2018-06-29 10:42:52.781250,-42.91,70.12
