,Time,ppg,hr
227200,2018-06-29 10:43:12.000000,26.91,75.1
227201,2018-06-29 10:43:12.031250,31.82,75.1
227202,2018-06-29 10:43:12.062500,35.14,75.1
227203,2018-06-29 10:43:12.093750,35.19,75.1
227204,2018-06-29 10:43:12.125000,30.82,75.1
227205,2018-06-29 10:43:12.156250,23.3,75.1
227206,2018-06-29 10:43:12.187500,15.23,75.1
227207,2018-06-29 10:43:12.218750,7.69,75.1
227208,2018-06-29 10:43:12.250000,0.32,75.1
227209,2018-06-29 10:43:12.281250,-6.9,75.1
227210,2018-06-29 10:43:12.312500,-13.23,75.1
227211,2018-06-29 10:43:12.343750,-17.44,75.1
227212,2018-06-29 10:43:12.375000,-18.45,75.1
227213,2018-06-29 10:43:12.406250,-16.87,75.1
227214,2018-06-29 10:43:12.437500,-13.33,75.1
227215,2018-06-29 10:43:12.468750,-3.85,75.1
227216,2018-06-29 10:43:12.500000,16.83,75.1
227217,2018-06-29 10:43:12.531250,45.37,75.48
227218,2018-06-29 10:43:12.562500,70.77,75.48
227219,2018-06-29 10:43:12.593750,86.68,75.48
227220,2018-06-29 10:43:12.625000,94.89,75.48
227221,2018-06-29 10:43:12.656250,98.13,75.48
227222,2018-06-29 10:43:12.687500,96.23,75.48
227223,2018-06-29 10:43:12.718750,88.56,75.48
227224,2018-06-29 10:43:12.750000,77.01,75.48
227225,2018-06-29 10:43:12.781250,66.43,75.48
227226,2018-06-29 10:43:12.812500,61.36,75.48
227227,2018-06-29 10:43:12.843750,61.24,75.48
227228,2018-06-29 10:43:12.875000,61.28,75.48
227229,2018-06-29 10:43:12.906250,59.37,75.48
227230,2018-06-29 10:43:12.937500,57.0,75.48
227231,2018-06-29 10:43:12.968750,51.09,75.48
227232,2018-06-29 10:43:13.000000,33.87,75.48
227233,2018-06-29 10:43:13.031250,5.38,75.48
227234,2018-06-29 10:43:13.062500,-24.0,75.48
227235,2018-06-29 10:43:13.093750,-43.74,75.48
227236,2018-06-29 10:43:13.125000,-48.35,75.48
227237,2018-06-29 10:43:13.156250,-41.19,75.48
227238,2018-06-29 10:43:13.187500,-38.16,75.48
227239,2018-06-29 10:43:13.218750,-53.96,75.48
227240,2018-06-29 10:43:13.250000,-83.04,75.48
227241,2018-06-29 10:43:13.281250,-106.48,75.48
227242,2018-06-29 10:43:13.312500,-112.77,75.48
227243,2018-06-29 10:43:13.343750,-103.9,75.48
227244,2018-06-29 10:43:13.375000,-88.2,75.48
227245,2018-06-29 10:43:13.406250,-72.82,75.48
227246,2018-06-29 10:43:13.437500,-61.08,75.48
227247,2018-06-29 10:43:13.468750,-53.68,75.48
227248,2018-06-29 10:43:13.500000,-50.02,75.48
227249,2018-06-29 10:43:13.531250,-48.23,75.83
227250,2018-06-29 10:43:13.562500,-46.62,75.83
227251,2018-06-29 10:43:13.593750,-45.56,75.83
227252,2018-06-29 10:43:13.625000,-45.76,75.83
227253,2018-06-29 10:43:13.656250,-45.77,75.83
227254,2018-06-29 10:43:13.687500,-43.33,75.83
227255,2018-06-29 10:43:13.718750,-37.64,75.83
227256,2018-06-29 10:43:13.750000,-29.7,75.83
227257,2018-06-29 10:43:13.781250,-21.42,75.83
227258,2018-06-29 10:43:13.812500,-14.24,75.83
227259,2018-06-29 10:43:13.843750,-8.47,75.83
227260,2018-06-29 10:43:13.875000,-4.99,75.83
227261,2018-06-29 10:43:13.906250,-6.09,75.83
227262,2018-06-29 10:43:13.937500,-11.83,75.83
227263,2018-06-29 10:43:13.968750,-17.36,75.83
227264,2018-06-29 10:43:14.000000,-16.14,75.83
227265,2018-06-29 10:43:14.031250,-5.4,75.83
227266,2018-06-29 10:43:14.062500,11.29,75.83
227267,2018-06-29 10:43:14.093750,25.81,75.83
227268,2018-06-29 10:43:14.125000,33.0,75.83
227269,2018-06-29 10:43:14.156250,37.03,75.83
227270,2018-06-29 10:43:14.187500,44.82,75.83
227271,2018-06-29 10:43:14.218750,55.27,75.83
227272,2018-06-29 10:43:14.250000,63.61,75.83
227273,2018-06-29 10:43:14.281250,71.24,75.83
227274,2018-06-29 10:43:14.312500,82.87,75.83
227275,2018-06-29 10:43:14.343750,99.12,75.83
227276,2018-06-29 10:43:14.375000,115.72,75.83
227277,2018-06-29 10:43:14.406250,124.1,75.83
227278,2018-06-29 10:43:14.437500,115.01,75.83
227279,2018-06-29 10:43:14.468750,87.03,75.83
227280,2018-06-29 10:43:14.500000,47.49,75.83
227281,2018-06-29 10:43:14.531250,5.71,76.18
227282,2018-06-29 10:43:14.562500,-29.86,76.18
227283,2018-06-29 10:43:14.593750,-54.53,76.18
227284,2018-06-29 10:43:14.625000,-71.61,76.18
227285,2018-06-29 10:43:14.656250,-88.01,76.18
227286,2018-06-29 10:43:14.687500,-104.63,76.18
227287,2018-06-29 10:43:14.718750,-114.57,76.18
227288,2018-06-29 10:43:14.750000,-109.63,76.18
227289,2018-06-29 10:43:14.781250,-88.79,76.18
227290,2018-06-29 10:43:14.812500,-61.14,76.18
227291,2018-06-29 10:43:14.843750,-37.3,76.18
227292,2018-06-29 10:43:14.875000,-19.15,76.18
227293,2018-06-29 10:43:14.906250,-2.53,76.18
227294,2018-06-29 10:43:14.937500,13.71,76.18
227295,2018-06-29 10:43:14.968750,26.55,76.18
227296,2018-06-29 10:43:15.000000,33.41,76.18
227297,2018-06-29 10:43:15.031250,34.46,76.18
227298,2018-06-29 10:43:15.062500,32.57,76.18
227299,2018-06-29 10:43:15.093750,31.94,76.18
227300,2018-06-29 10:43:15.125000,34.59,76.18
227301,2018-06-29 10:43:15.156250,38.07,76.18
227302,2018-06-29 10:43:15.187500,37.98,76.18
227303,2018-06-29 10:43:15.218750,33.06,76.18
227304,2018-06-29 10:43:15.250000,26.44,76.18
227305,2018-06-29 10:43:15.281250,21.12,76.18
227306,2018-06-29 10:43:15.312500,15.7,76.18
227307,2018-06-29 10:43:15.343750,7.09,76.18
227308,2018-06-29 10:43:15.375000,-4.69,76.18
227309,2018-06-29 10:43:15.406250,-17.5,76.18
227310,2018-06-29 10:43:15.437500,-30.32,76.18
227311,2018-06-29 10:43:15.468750,-42.72,76.18
227312,2018-06-29 10:43:15.500000,-53.09,76.18
227313,2018-06-29 10:43:15.531250,-58.36,76.55
227314,2018-06-29 10:43:15.562500,-54.67,76.55
227315,2018-06-29 10:43:15.593750,-41.71,76.55
227316,2018-06-29 10:43:15.625000,-26.35,76.55
227317,2018-06-29 10:43:15.656250,-16.69,76.55
227318,2018-06-29 10:43:15.687500,-13.68,76.55
227319,2018-06-29 10:43:15.718750,-13.03,76.55
227320,2018-06-29 10:43:15.750000,-12.31,76.55
227321,2018-06-29 10:43:15.781250,-11.97,76.55
227322,2018-06-29 10:43:15.812500,-11.99,76.55
227323,2018-06-29 10:43:15.843750,-10.96,76.55
227324,2018-06-29 10:43:15.875000,-8.08,76.55
227325,2018-06-29 10:43:15.906250,-3.75,76.55
227326,2018-06-29 10:43:15.937500,2.2,76.55
227327,2018-06-29 10:43:15.968750,10.43,76.55
227328,2018-06-29 10:43:16.000000,19.43,76.55
227329,2018-06-29 10:43:16.031250,25.87,76.55
227330,2018-06-29 10:43:16.062500,28.57,76.55
227331,2018-06-29 10:43:16.093750,29.52,76.55
227332,2018-06-29 10:43:16.125000,30.05,76.55
227333,2018-06-29 10:43:16.156250,28.18,76.55
227334,2018-06-29 10:43:16.187500,21.61,76.55
227335,2018-06-29 10:43:16.218750,11.91,76.55
227336,2018-06-29 10:43:16.250000,3.29,76.55
227337,2018-06-29 10:43:16.281250,-2.02,76.55
227338,2018-06-29 10:43:16.312500,-5.23,76.55
227339,2018-06-29 10:43:16.343750,-8.41,76.55
227340,2018-06-29 10:43:16.375000,-12.77,76.55
227341,2018-06-29 10:43:16.406250,-17.44,76.55
227342,2018-06-29 10:43:16.437500,-18.48,76.55
227343,2018-06-29 10:43:16.468750,-13.19,76.55
227344,2018-06-29 10:43:16.500000,-4.59,76.55
227345,2018-06-29 10:43:16.531250,2.74,76.9
227346,2018-06-29 10:43:16.562500,8.15,76.9
227347,2018-06-29 10:43:16.593750,12.71,76.9
227348,2018-06-29 10:43:16.625000,16.69,76.9
227349,2018-06-29 10:43:16.656250,21.54,76.9
227350,2018-06-29 10:43:16.687500,28.06,76.9
227351,2018-06-29 10:43:16.718750,32.99,76.9
227352,2018-06-29 10:43:16.750000,33.22,76.9
227353,2018-06-29 10:43:16.781250,31.03,76.9
227354,2018-06-29 10:43:16.812500,30.7,76.9
227355,2018-06-29 10:43:16.843750,33.57,76.9
227356,2018-06-29 10:43:16.875000,38.69,76.9
227357,2018-06-29 10:43:16.906250,44.11,76.9
227358,2018-06-29 10:43:16.937500,46.81,76.9
227359,2018-06-29 10:43:16.968750,45.23,76.9
227360,2018-06-29 10:43:17.000000,41.13,76.9
227361,2018-06-29 10:43:17.031250,36.31,76.9
227362,2018-06-29 10:43:17.062500,29.98,76.9
227363,2018-06-29 10:43:17.093750,21.14,76.9
227364,2018-06-29 10:43:17.125000,11.37,76.9
227365,2018-06-29 10:43:17.156250,4.59,76.9
227366,2018-06-29 10:43:17.187500,3.77,76.9
227367,2018-06-29 10:43:17.218750,7.34,76.9
227368,2018-06-29 10:43:17.250000,9.33,76.9
227369,2018-06-29 10:43:17.281250,4.49,76.9
227370,2018-06-29 10:43:17.312500,-7.39,76.9
227371,2018-06-29 10:43:17.343750,-22.22,76.9
227372,2018-06-29 10:43:17.375000,-35.14,76.9
227373,2018-06-29 10:43:17.406250,-43.82,76.9
227374,2018-06-29 10:43:17.437500,-49.18,76.9
227375,2018-06-29 10:43:17.468750,-52.36,76.9
227376,2018-06-29 10:43:17.500000,-51.52,76.9
227377,2018-06-29 10:43:17.531250,-44.07,77.22
227378,2018-06-29 10:43:17.562500,-31.34,77.22
227379,2018-06-29 10:43:17.593750,-17.75,77.22
227380,2018-06-29 10:43:17.625000,-5.92,77.22
227381,2018-06-29 10:43:17.656250,3.77,77.22
227382,2018-06-29 10:43:17.687500,9.73,77.22
227383,2018-06-29 10:43:17.718750,9.64,77.22
227384,2018-06-29 10:43:17.750000,4.34,77.22
227385,2018-06-29 10:43:17.781250,-2.94,77.22
227386,2018-06-29 10:43:17.812500,-10.05,77.22
227387,2018-06-29 10:43:17.843750,-15.31,77.22
227388,2018-06-29 10:43:17.875000,-15.92,77.22
227389,2018-06-29 10:43:17.906250,-10.71,77.22
227390,2018-06-29 10:43:17.937500,-2.44,77.22
227391,2018-06-29 10:43:17.968750,4.51,77.22
227392,2018-06-29 10:43:18.000000,7.85,77.22
227393,2018-06-29 10:43:18.031250,9.31,77.22
227394,2018-06-29 10:43:18.062500,11.53,77.22
227395,2018-06-29 10:43:18.093750,13.33,77.22
227396,2018-06-29 10:43:18.125000,12.05,77.22
227397,2018-06-29 10:43:18.156250,10.6,77.22
227398,2018-06-29 10:43:18.187500,16.22,77.22
227399,2018-06-29 10:43:18.218750,31.49,77.22
227400,2018-06-29 10:43:18.250000,51.08,77.22
227401,2018-06-29 10:43:18.281250,67.21,77.22
227402,2018-06-29 10:43:18.312500,74.62,77.22
227403,2018-06-29 10:43:18.343750,70.85,77.22
227404,2018-06-29 10:43:18.375000,56.63,77.22
227405,2018-06-29 10:43:18.406250,37.23,77.22
227406,2018-06-29 10:43:18.437500,19.47,77.22
227407,2018-06-29 10:43:18.468750,6.65,77.22
227408,2018-06-29 10:43:18.500000,-1.13,77.22
227409,2018-06-29 10:43:18.531250,-4.04,77.5
227410,2018-06-29 10:43:18.562500,-1.88,77.5
227411,2018-06-29 10:43:18.593750,4.49,77.5
227412,2018-06-29 10:43:18.625000,11.33,77.5
227413,2018-06-29 10:43:18.656250,12.27,77.5
227414,2018-06-29 10:43:18.687500,4.84,77.5
227415,2018-06-29 10:43:18.718750,-4.74,77.5
227416,2018-06-29 10:43:18.750000,-8.5,77.5
227417,2018-06-29 10:43:18.781250,-5.64,77.5
227418,2018-06-29 10:43:18.812500,-1.05,77.5
227419,2018-06-29 10:43:18.843750,-0.21,77.5
227420,2018-06-29 10:43:18.875000,-6.57,77.5
227421,2018-06-29 10:43:18.906250,-19.52,77.5
227422,2018-06-29 10:43:18.937500,-36.48,77.5
227423,2018-06-29 10:43:18.968750,-57.41,77.5
227424,2018-06-29 10:43:19.000000,-81.17,77.5
227425,2018-06-29 10:43:19.031250,-99.94,77.5
227426,2018-06-29 10:43:19.062500,-105.24,77.5
227427,2018-06-29 10:43:19.093750,-95.69,77.5
227428,2018-06-29 10:43:19.125000,-73.89,77.5
227429,2018-06-29 10:43:19.156250,-43.17,77.5
227430,2018-06-29 10:43:19.187500,-10.64,77.5
227431,2018-06-29 10:43:19.218750,15.01,77.5
227432,2018-06-29 10:43:19.250000,30.55,77.5
227433,2018-06-29 10:43:19.281250,37.08,77.5
227434,2018-06-29 10:43:19.312500,34.0,77.5
227435,2018-06-29 10:43:19.343750,21.71,77.5
227436,2018-06-29 10:43:19.375000,6.54,77.5
227437,2018-06-29 10:43:19.406250,-5.21,77.5
227438,2018-06-29 10:43:19.437500,-14.77,77.5
227439,2018-06-29 10:43:19.468750,-25.73,77.5
227440,2018-06-29 10:43:19.500000,-36.37,77.5
227441,2018-06-29 10:43:19.531250,-42.84,77.77
227442,2018-06-29 10:43:19.562500,-45.43,77.77
227443,2018-06-29 10:43:19.593750,-46.76,77.77
227444,2018-06-29 10:43:19.625000,-46.69,77.77
227445,2018-06-29 10:43:19.656250,-41.95,77.77
227446,2018-06-29 10:43:19.687500,-28.84,77.77
227447,2018-06-29 10:43:19.718750,-6.61,77.77
227448,2018-06-29 10:43:19.750000,18.66,77.77
227449,2018-06-29 10:43:19.781250,36.81,77.77
227450,2018-06-29 10:43:19.812500,44.64,77.77
227451,2018-06-29 10:43:19.843750,48.27,77.77
227452,2018-06-29 10:43:19.875000,50.56,77.77
227453,2018-06-29 10:43:19.906250,46.24,77.77
227454,2018-06-29 10:43:19.937500,34.11,77.77
227455,2018-06-29 10:43:19.968750,21.95,77.77
227456,2018-06-29 10:43:20.000000,15.12,77.77
227457,2018-06-29 10:43:20.031250,10.61,77.77
227458,2018-06-29 10:43:20.062500,4.38,77.77
227459,2018-06-29 10:43:20.093750,-3.92,77.77
227460,2018-06-29 10:43:20.125000,-14.37,77.77
227461,2018-06-29 10:43:20.156250,-27.44,77.77
227462,2018-06-29 10:43:20.187500,-39.47,77.77
227463,2018-06-29 10:43:20.218750,-43.86,77.77
227464,2018-06-29 10:43:20.250000,-39.83,77.77
227465,2018-06-29 10:43:20.281250,-34.08,77.77
227466,2018-06-29 10:43:20.312500,-31.21,77.77
227467,2018-06-29 10:43:20.343750,-29.15,77.77
227468,2018-06-29 10:43:20.375000,-25.63,77.77
227469,2018-06-29 10:43:20.406250,-21.45,77.77
227470,2018-06-29 10:43:20.437500,-16.51,77.77
227471,2018-06-29 10:43:20.468750,-9.84,77.77
227472,2018-06-29 10:43:20.500000,-2.9,77.77
227473,2018-06-29 10:43:20.531250,1.94,78.02
227474,2018-06-29 10:43:20.562500,4.93,78.02
227475,2018-06-29 10:43:20.593750,7.55,78.02
227476,2018-06-29 10:43:20.625000,9.6,78.02
227477,2018-06-29 10:43:20.656250,10.31,78.02
227478,2018-06-29 10:43:20.687500,9.87,78.02
227479,2018-06-29 10:43:20.718750,7.78,78.02
227480,2018-06-29 10:43:20.750000,2.21,78.02
227481,2018-06-29 10:43:20.781250,-6.23,78.02
227482,2018-06-29 10:43:20.812500,-11.83,78.02
227483,2018-06-29 10:43:20.843750,-8.49,78.02
227484,2018-06-29 10:43:20.875000,2.65,78.02
227485,2018-06-29 10:43:20.906250,13.36,78.02
227486,2018-06-29 10:43:20.937500,17.21,78.02
227487,2018-06-29 10:43:20.968750,15.45,78.02
227488,2018-06-29 10:43:21.000000,13.04,78.02
227489,2018-06-29 10:43:21.031250,11.45,78.02
227490,2018-06-29 10:43:21.062500,8.25,78.02
227491,2018-06-29 10:43:21.093750,2.86,78.02
227492,2018-06-29 10:43:21.125000,-0.03,78.02
227493,2018-06-29 10:43:21.156250,5.27,78.02
227494,2018-06-29 10:43:21.187500,18.86,78.02
227495,2018-06-29 10:43:21.218750,35.14,78.02
227496,2018-06-29 10:43:21.250000,48.38,78.02
227497,2018-06-29 10:43:21.281250,55.69,78.02
227498,2018-06-29 10:43:21.312500,56.56,78.02
227499,2018-06-29 10:43:21.343750,53.04,78.02
227500,2018-06-29 10:43:21.375000,48.95,78.02
227501,2018-06-29 10:43:21.406250,45.85,78.02
227502,2018-06-29 10:43:21.437500,41.7,78.02
227503,2018-06-29 10:43:21.468750,34.62,78.02
227504,2018-06-29 10:43:21.500000,23.27,78.02
227505,2018-06-29 10:43:21.531250,4.72,78.05
227506,2018-06-29 10:43:21.562500,-20.96,78.05
227507,2018-06-29 10:43:21.593750,-46.12,78.05
227508,2018-06-29 10:43:21.625000,-62.28,78.05
227509,2018-06-29 10:43:21.656250,-67.29,78.05
227510,2018-06-29 10:43:21.687500,-61.58,78.05
227511,2018-06-29 10:43:21.718750,-47.04,78.05
227512,2018-06-29 10:43:21.750000,-32.06,78.05
227513,2018-06-29 10:43:21.781250,-27.48,78.05
227514,2018-06-29 10:43:21.812500,-34.55,78.05
227515,2018-06-29 10:43:21.843750,-43.51,78.05
227516,2018-06-29 10:43:21.875000,-45.02,78.05
227517,2018-06-29 10:43:21.906250,-38.86,78.05
227518,2018-06-29 10:43:21.937500,-30.84,78.05
227519,2018-06-29 10:43:21.968750,-24.05,78.05
227520,2018-06-29 10:43:22.000000,-15.8,78.05
227521,2018-06-29 10:43:22.031250,-3.26,78.05
227522,2018-06-29 10:43:22.062500,10.9,78.05
227523,2018-06-29 10:43:22.093750,21.17,78.05
227524,2018-06-29 10:43:22.125000,26.7,78.05
227525,2018-06-29 10:43:22.156250,31.29,78.05
227526,2018-06-29 10:43:22.187500,35.58,78.05
227527,2018-06-29 10:43:22.218750,37.09,78.05
227528,2018-06-29 10:43:22.250000,37.94,78.05
227529,2018-06-29 10:43:22.281250,42.18,78.05
227530,2018-06-29 10:43:22.312500,46.71,78.05
227531,2018-06-29 10:43:22.343750,45.05,78.05
227532,2018-06-29 10:43:22.375000,36.93,78.05
227533,2018-06-29 10:43:22.406250,24.83,78.05
227534,2018-06-29 10:43:22.437500,6.3,78.05
227535,2018-06-29 10:43:22.468750,-21.43,78.05
227536,2018-06-29 10:43:22.500000,-52.56,78.05
227537,2018-06-29 10:43:22.531250,-76.24,78.08
227538,2018-06-29 10:43:22.562500,-87.03,78.08
227539,2018-06-29 10:43:22.593750,-85.69,78.08
227540,2018-06-29 10:43:22.625000,-72.73,78.08
227541,2018-06-29 10:43:22.656250,-48.9,78.08
227542,2018-06-29 10:43:22.687500,-20.25,78.08
227543,2018-06-29 10:43:22.718750,4.92,78.08
227544,2018-06-29 10:43:22.750000,23.08,78.08
227545,2018-06-29 10:43:22.781250,35.82,78.08
227546,2018-06-29 10:43:22.812500,45.8,78.08
227547,2018-06-29 10:43:22.843750,54.04,78.08
227548,2018-06-29 10:43:22.875000,58.52,78.08
227549,2018-06-29 10:43:22.906250,56.58,78.08
227550,2018-06-29 10:43:22.937500,48.91,78.08
227551,2018-06-29 10:43:22.968750,38.04,78.08
227552,2018-06-29 10:43:23.000000,24.24,78.08
227553,2018-06-29 10:43:23.031250,7.29,78.08
227554,2018-06-29 10:43:23.062500,-9.87,78.08
227555,2018-06-29 10:43:23.093750,-22.08,78.08
227556,2018-06-29 10:43:23.125000,-24.7,78.08
227557,2018-06-29 10:43:23.156250,-17.07,78.08
227558,2018-06-29 10:43:23.187500,-4.78,78.08
227559,2018-06-29 10:43:23.218750,4.46,78.08
227560,2018-06-29 10:43:23.250000,7.01,78.08
227561,2018-06-29 10:43:23.281250,2.43,78.08
227562,2018-06-29 10:43:23.312500,-9.57,78.08
227563,2018-06-29 10:43:23.343750,-26.74,78.08
227564,2018-06-29 10:43:23.375000,-42.96,78.08
227565,2018-06-29 10:43:23.406250,-53.18,78.08
227566,2018-06-29 10:43:23.437500,-55.84,78.08
227567,2018-06-29 10:43:23.468750,-51.02,78.08
227568,2018-06-29 10:43:23.500000,-41.85,78.08
227569,2018-06-29 10:43:23.531250,-35.44,78.13
227570,2018-06-29 10:43:23.562500,-35.69,78.13
227571,2018-06-29 10:43:23.593750,-37.6,78.13
227572,2018-06-29 10:43:23.625000,-34.22,78.13
227573,2018-06-29 10:43:23.656250,-24.33,78.13
227574,2018-06-29 10:43:23.687500,-9.63,78.13
227575,2018-06-29 10:43:23.718750,8.75,78.13
227576,2018-06-29 10:43:23.750000,27.4,78.13
227577,2018-06-29 10:43:23.781250,40.78,78.13
227578,2018-06-29 10:43:23.812500,46.43,78.13
227579,2018-06-29 10:43:23.843750,45.75,78.13
227580,2018-06-29 10:43:23.875000,40.26,78.13
227581,2018-06-29 10:43:23.906250,31.41,78.13
227582,2018-06-29 10:43:23.937500,22.38,78.13
227583,2018-06-29 10:43:23.968750,15.75,78.13
227584,2018-06-29 10:43:24.000000,10.86,78.13
227585,2018-06-29 10:43:24.031250,6.41,78.13
227586,2018-06-29 10:43:24.062500,2.55,78.13
227587,2018-06-29 10:43:24.093750,-2.35,78.13
227588,2018-06-29 10:43:24.125000,-13.83,78.13
227589,2018-06-29 10:43:24.156250,-34.03,78.13
227590,2018-06-29 10:43:24.187500,-53.12,78.13
227591,2018-06-29 10:43:24.218750,-54.91,78.13
227592,2018-06-29 10:43:24.250000,-33.36,78.13
227593,2018-06-29 10:43:24.281250,1.45,78.13
227594,2018-06-29 10:43:24.312500,34.13,78.13
227595,2018-06-29 10:43:24.343750,56.03,78.13
227596,2018-06-29 10:43:24.375000,66.05,78.13
227597,2018-06-29 10:43:24.406250,65.48,78.13
227598,2018-06-29 10:43:24.437500,56.98,78.13
227599,2018-06-29 10:43:24.468750,46.12,78.13
227600,2018-06-29 10:43:24.500000,38.13,78.13
227601,2018-06-29 10:43:24.531250,32.85,78.2
227602,2018-06-29 10:43:24.562500,27.89,78.2
227603,2018-06-29 10:43:24.593750,24.44,78.2
227604,2018-06-29 10:43:24.625000,23.42,78.2
227605,2018-06-29 10:43:24.656250,19.13,78.2
227606,2018-06-29 10:43:24.687500,3.72,78.2
227607,2018-06-29 10:43:24.718750,-22.07,78.2
227608,2018-06-29 10:43:24.750000,-46.94,78.2
227609,2018-06-29 10:43:24.781250,-57.68,78.2
227610,2018-06-29 10:43:24.812500,-47.86,78.2
227611,2018-06-29 10:43:24.843750,-22.06,78.2
227612,2018-06-29 10:43:24.875000,4.89,78.2
227613,2018-06-29 10:43:24.906250,16.39,78.2
227614,2018-06-29 10:43:24.937500,6.23,78.2
227615,2018-06-29 10:43:24.968750,-15.69,78.2
227616,2018-06-29 10:43:25.000000,-30.19,78.2
227617,2018-06-29 10:43:25.031250,-24.65,78.2
227618,2018-06-29 10:43:25.062500,-4.64,78.2
227619,2018-06-29 10:43:25.093750,14.69,78.2
227620,2018-06-29 10:43:25.125000,28.06,78.2
227621,2018-06-29 10:43:25.156250,39.32,78.2
227622,2018-06-29 10:43:25.187500,44.13,78.2
227623,2018-06-29 10:43:25.218750,32.46,78.2
227624,2018-06-29 10:43:25.250000,7.76,78.2
227625,2018-06-29 10:43:25.281250,-13.32,78.2
227626,2018-06-29 10:43:25.312500,-19.08,78.2
227627,2018-06-29 10:43:25.343750,-9.73,78.2
227628,2018-06-29 10:43:25.375000,7.04,78.2
227629,2018-06-29 10:43:25.406250,19.74,78.2
227630,2018-06-29 10:43:25.437500,19.11,78.2
227631,2018-06-29 10:43:25.468750,4.67,78.2
227632,2018-06-29 10:43:25.500000,-16.43,78.2
227633,2018-06-29 10:43:25.531250,-35.44,78.32
227634,2018-06-29 10:43:25.562500,-47.77,78.32
227635,2018-06-29 10:43:25.593750,-56.01,78.32
227636,2018-06-29 10:43:25.625000,-66.29,78.32
227637,2018-06-29 10:43:25.656250,-79.38,78.32
227638,2018-06-29 10:43:25.687500,-86.73,78.32
227639,2018-06-29 10:43:25.718750,-76.73,78.32
227640,2018-06-29 10:43:25.750000,-47.08,78.32
227641,2018-06-29 10:43:25.781250,-10.23,78.32
227642,2018-06-29 10:43:25.812500,18.12,78.32
227643,2018-06-29 10:43:25.843750,35.49,78.32
227644,2018-06-29 10:43:25.875000,50.94,78.32
227645,2018-06-29 10:43:25.906250,69.08,78.32
227646,2018-06-29 10:43:25.937500,85.03,78.32
227647,2018-06-29 10:43:25.968750,93.13,78.32
227648,2018-06-29 10:43:26.000000,93.36,78.32
227649,2018-06-29 10:43:26.031250,87.44,78.32
227650,2018-06-29 10:43:26.062500,72.93,78.32
227651,2018-06-29 10:43:26.093750,47.94,78.32
227652,2018-06-29 10:43:26.125000,20.14,78.32
227653,2018-06-29 10:43:26.156250,1.15,78.32
227654,2018-06-29 10:43:26.187500,-6.95,78.32
227655,2018-06-29 10:43:26.218750,-10.25,78.32
227656,2018-06-29 10:43:26.250000,-13.54,78.32
227657,2018-06-29 10:43:26.281250,-20.3,78.32
227658,2018-06-29 10:43:26.312500,-34.41,78.32
227659,2018-06-29 10:43:26.343750,-54.53,78.32
227660,2018-06-29 10:43:26.375000,-72.01,78.32
227661,2018-06-29 10:43:26.406250,-78.32,78.32
227662,2018-06-29 10:43:26.437500,-70.98,78.32
227663,2018-06-29 10:43:26.468750,-51.12,78.32
227664,2018-06-29 10:43:26.500000,-20.99,78.32
227665,2018-06-29 10:43:26.531250,14.65,78.4
227666,2018-06-29 10:43:26.562500,49.06,78.4
227667,2018-06-29 10:43:26.593750,76.53,78.4
227668,2018-06-29 10:43:26.625000,93.97,78.4
227669,2018-06-29 10:43:26.656250,101.59,78.4
227670,2018-06-29 10:43:26.687500,101.72,78.4
227671,2018-06-29 10:43:26.718750,96.47,78.4
227672,2018-06-29 10:43:26.750000,89.34,78.4
227673,2018-06-29 10:43:26.781250,85.44,78.4
227674,2018-06-29 10:43:26.812500,81.9,78.4
227675,2018-06-29 10:43:26.843750,65.45,78.4
227676,2018-06-29 10:43:26.875000,29.7,78.4
227677,2018-06-29 10:43:26.906250,-13.95,78.4
227678,2018-06-29 10:43:26.937500,-50.23,78.4
227679,2018-06-29 10:43:26.968750,-72.83,78.4
227680,2018-06-29 10:43:27.000000,-79.68,78.4
227681,2018-06-29 10:43:27.031250,-71.08,78.4
227682,2018-06-29 10:43:27.062500,-55.94,78.4
227683,2018-06-29 10:43:27.093750,-47.24,78.4
227684,2018-06-29 10:43:27.125000,-50.3,78.4
227685,2018-06-29 10:43:27.156250,-60.86,78.4
227686,2018-06-29 10:43:27.187500,-69.22,78.4
227687,2018-06-29 10:43:27.218750,-65.32,78.4
227688,2018-06-29 10:43:27.250000,-46.91,78.4
227689,2018-06-29 10:43:27.281250,-22.08,78.4
227690,2018-06-29 10:43:27.312500,-0.21,78.4
227691,2018-06-29 10:43:27.343750,14.01,78.4
227692,2018-06-29 10:43:27.375000,17.49,78.4
227693,2018-06-29 10:43:27.406250,8.96,78.4
227694,2018-06-29 10:43:27.437500,-6.2,78.4
227695,2018-06-29 10:43:27.468750,-17.37,78.4
227696,2018-06-29 10:43:27.500000,-16.55,78.4
227697,2018-06-29 10:43:27.531250,-3.39,78.45
227698,2018-06-29 10:43:27.562500,16.68,78.45
227699,2018-06-29 10:43:27.593750,37.36,78.45
227700,2018-06-29 10:43:27.625000,53.88,78.45
227701,2018-06-29 10:43:27.656250,62.77,78.45
227702,2018-06-29 10:43:27.687500,64.62,78.45
227703,2018-06-29 10:43:27.718750,65.67,78.45
227704,2018-06-29 10:43:27.750000,70.05,78.45
227705,2018-06-29 10:43:27.781250,71.7,78.45
227706,2018-06-29 10:43:27.812500,61.1,78.45
227707,2018-06-29 10:43:27.843750,38.24,78.45
227708,2018-06-29 10:43:27.875000,12.95,78.45
227709,2018-06-29 10:43:27.906250,-7.2,78.45
227710,2018-06-29 10:43:27.937500,-26.03,78.45
227711,2018-06-29 10:43:27.968750,-49.84,78.45
227712,2018-06-29 10:43:28.000000,-70.11,78.45
227713,2018-06-29 10:43:28.031250,-70.35,78.45
227714,2018-06-29 10:43:28.062500,-51.27,78.45
227715,2018-06-29 10:43:28.093750,-31.67,78.45
227716,2018-06-29 10:43:28.125000,-24.86,78.45
227717,2018-06-29 10:43:28.156250,-29.24,78.45
227718,2018-06-29 10:43:28.187500,-38.32,78.45
227719,2018-06-29 10:43:28.218750,-48.74,78.45
227720,2018-06-29 10:43:28.250000,-57.17,78.45
227721,2018-06-29 10:43:28.281250,-52.35,78.45
227722,2018-06-29 10:43:28.312500,-21.8,78.45
227723,2018-06-29 10:43:28.343750,28.14,78.45
227724,2018-06-29 10:43:28.375000,73.08,78.45
227725,2018-06-29 10:43:28.406250,94.02,78.45
227726,2018-06-29 10:43:28.437500,88.19,78.45
227727,2018-06-29 10:43:28.468750,61.9,78.45
227728,2018-06-29 10:43:28.500000,26.15,78.45
227729,2018-06-29 10:43:28.531250,-7.34,78.48
227730,2018-06-29 10:43:28.562500,-35.08,78.48
227731,2018-06-29 10:43:28.593750,-59.03,78.48
227732,2018-06-29 10:43:28.625000,-73.57,78.48
227733,2018-06-29 10:43:28.656250,-68.67,78.48
227734,2018-06-29 10:43:28.687500,-46.09,78.48
227735,2018-06-29 10:43:28.718750,-18.94,78.48
227736,2018-06-29 10:43:28.750000,2.04,78.48
227737,2018-06-29 10:43:28.781250,13.32,78.48
227738,2018-06-29 10:43:28.812500,16.93,78.48
227739,2018-06-29 10:43:28.843750,19.4,78.48
227740,2018-06-29 10:43:28.875000,24.67,78.48
227741,2018-06-29 10:43:28.906250,29.28,78.48
227742,2018-06-29 10:43:28.937500,29.54,78.48
227743,2018-06-29 10:43:28.968750,26.8,78.48
227744,2018-06-29 10:43:29.000000,22.52,78.48
227745,2018-06-29 10:43:29.031250,15.34,78.48
227746,2018-06-29 10:43:29.062500,3.53,78.48
227747,2018-06-29 10:43:29.093750,-12.95,78.48
227748,2018-06-29 10:43:29.125000,-30.19,78.48
227749,2018-06-29 10:43:29.156250,-40.02,78.48
227750,2018-06-29 10:43:29.187500,-38.23,78.48
227751,2018-06-29 10:43:29.218750,-31.43,78.48
227752,2018-06-29 10:43:29.250000,-29.56,78.48
227753,2018-06-29 10:43:29.281250,-35.44,78.48
227754,2018-06-29 10:43:29.312500,-44.59,78.48
227755,2018-06-29 10:43:29.343750,-48.28,78.48
227756,2018-06-29 10:43:29.375000,-37.58,78.48
227757,2018-06-29 10:43:29.406250,-13.33,78.48
227758,2018-06-29 10:43:29.437500,12.01,78.48
227759,2018-06-29 10:43:29.468750,28.25,78.48
227760,2018-06-29 10:43:29.500000,35.47,78.48
227761,2018-06-29 10:43:29.531250,35.38,78.53
227762,2018-06-29 10:43:29.562500,26.28,78.53
227763,2018-06-29 10:43:29.593750,9.9,78.53
227764,2018-06-29 10:43:29.625000,-4.69,78.53
227765,2018-06-29 10:43:29.656250,-7.89,78.53
227766,2018-06-29 10:43:29.687500,1.53,78.53
227767,2018-06-29 10:43:29.718750,16.01,78.53
227768,2018-06-29 10:43:29.750000,25.44,78.53
227769,2018-06-29 10:43:29.781250,23.31,78.53
227770,2018-06-29 10:43:29.812500,9.63,78.53
227771,2018-06-29 10:43:29.843750,-10.6,78.53
227772,2018-06-29 10:43:29.875000,-31.81,78.53
227773,2018-06-29 10:43:29.906250,-50.13,78.53
227774,2018-06-29 10:43:29.937500,-63.77,78.53
227775,2018-06-29 10:43:29.968750,-72.94,78.53
227776,2018-06-29 10:43:30.000000,-75.86,78.53
227777,2018-06-29 10:43:30.031250,-66.96,78.53
227778,2018-06-29 10:43:30.062500,-45.75,78.53
227779,2018-06-29 10:43:30.093750,-22.35,78.53
227780,2018-06-29 10:43:30.125000,-6.55,78.53
227781,2018-06-29 10:43:30.156250,1.45,78.53
227782,2018-06-29 10:43:30.187500,4.88,78.53
227783,2018-06-29 10:43:30.218750,4.8,78.53
227784,2018-06-29 10:43:30.250000,3.82,78.53
227785,2018-06-29 10:43:30.281250,6.56,78.53
227786,2018-06-29 10:43:30.312500,13.82,78.53
227787,2018-06-29 10:43:30.343750,21.78,78.53
227788,2018-06-29 10:43:30.375000,26.97,78.53
227789,2018-06-29 10:43:30.406250,28.6,78.53
227790,2018-06-29 10:43:30.437500,27.78,78.53
227791,2018-06-29 10:43:30.468750,26.59,78.53
227792,2018-06-29 10:43:30.500000,26.28,78.53
227793,2018-06-29 10:43:30.531250,24.33,78.57
227794,2018-06-29 10:43:30.562500,15.4,78.57
227795,2018-06-29 10:43:30.593750,-2.57,78.57
227796,2018-06-29 10:43:30.625000,-22.9,78.57
227797,2018-06-29 10:43:30.656250,-34.06,78.57
227798,2018-06-29 10:43:30.687500,-31.65,78.57
227799,2018-06-29 10:43:30.718750,-23.03,78.57
227800,2018-06-29 10:43:30.750000,-17.04,78.57
227801,2018-06-29 10:43:30.781250,-13.08,78.57
227802,2018-06-29 10:43:30.812500,-4.32,78.57
227803,2018-06-29 10:43:30.843750,10.6,78.57
227804,2018-06-29 10:43:30.875000,24.31,78.57
227805,2018-06-29 10:43:30.906250,29.97,78.57
227806,2018-06-29 10:43:30.937500,28.43,78.57
227807,2018-06-29 10:43:30.968750,23.66,78.57
227808,2018-06-29 10:43:31.000000,16.54,78.57
227809,2018-06-29 10:43:31.031250,7.38,78.57
227810,2018-06-29 10:43:31.062500,-1.83,78.57
227811,2018-06-29 10:43:31.093750,-11.18,78.57
227812,2018-06-29 10:43:31.125000,-23.65,78.57
227813,2018-06-29 10:43:31.156250,-39.79,78.57
227814,2018-06-29 10:43:31.187500,-55.89,78.57
227815,2018-06-29 10:43:31.218750,-67.94,78.57
227816,2018-06-29 10:43:31.250000,-75.01,78.57
227817,2018-06-29 10:43:31.281250,-77.36,78.57
227818,2018-06-29 10:43:31.312500,-71.74,78.57
227819,2018-06-29 10:43:31.343750,-51.94,78.57
227820,2018-06-29 10:43:31.375000,-16.91,78.57
227821,2018-06-29 10:43:31.406250,25.84,78.57
227822,2018-06-29 10:43:31.437500,66.82,78.57
227823,2018-06-29 10:43:31.468750,99.33,78.57
227824,2018-06-29 10:43:31.500000,119.03,78.57
227825,2018-06-29 10:43:31.531250,125.14,78.53
227826,2018-06-29 10:43:31.562500,120.4,78.53
227827,2018-06-29 10:43:31.593750,108.21,78.53
227828,2018-06-29 10:43:31.625000,92.29,78.53
227829,2018-06-29 10:43:31.656250,77.07,78.53
227830,2018-06-29 10:43:31.687500,66.06,78.53
227831,2018-06-29 10:43:31.718750,60.33,78.53
227832,2018-06-29 10:43:31.750000,55.46,78.53
227833,2018-06-29 10:43:31.781250,41.59,78.53
227834,2018-06-29 10:43:31.812500,13.99,78.53
227835,2018-06-29 10:43:31.843750,-18.64,78.53
227836,2018-06-29 10:43:31.875000,-43.05,78.53
227837,2018-06-29 10:43:31.906250,-54.81,78.53
227838,2018-06-29 10:43:31.937500,-58.8,78.53
227839,2018-06-29 10:43:31.968750,-61.08,78.53
227840,2018-06-29 10:43:32.000000,-61.97,78.53
227841,2018-06-29 10:43:32.031250,-55.71,78.53
227842,2018-06-29 10:43:32.062500,-38.0,78.53
227843,2018-06-29 10:43:32.093750,-13.03,78.53
227844,2018-06-29 10:43:32.125000,9.54,78.53
227845,2018-06-29 10:43:32.156250,22.24,78.53
227846,2018-06-29 10:43:32.187500,24.27,78.53
227847,2018-06-29 10:43:32.218750,21.21,78.53
227848,2018-06-29 10:43:32.250000,18.58,78.53
227849,2018-06-29 10:43:32.281250,15.09,78.53
227850,2018-06-29 10:43:32.312500,5.62,78.53
227851,2018-06-29 10:43:32.343750,-9.96,78.53
227852,2018-06-29 10:43:32.375000,-25.45,78.53
227853,2018-06-29 10:43:32.406250,-34.49,78.53
227854,2018-06-29 10:43:32.437500,-36.23,78.53
227855,2018-06-29 10:43:32.468750,-36.48,78.53
227856,2018-06-29 10:43:32.500000,-41.35,78.53
227857,2018-06-29 10:43:32.531250,-48.21,78.5
227858,2018-06-29 10:43:32.562500,-47.76,78.5
227859,2018-06-29 10:43:32.593750,-37.17,78.5
227860,2018-06-29 10:43:32.625000,-25.17,78.5
227861,2018-06-29 10:43:32.656250,-22.38,78.5
227862,2018-06-29 10:43:32.687500,-31.26,78.5
227863,2018-06-29 10:43:32.718750,-43.0,78.5
227864,2018-06-29 10:43:32.750000,-42.05,78.5
227865,2018-06-29 10:43:32.781250,-20.14,78.5
227866,2018-06-29 10:43:32.812500,12.7,78.5
227867,2018-06-29 10:43:32.843750,38.4,78.5
227868,2018-06-29 10:43:32.875000,49.27,78.5
227869,2018-06-29 10:43:32.906250,48.57,78.5
227870,2018-06-29 10:43:32.937500,39.18,78.5
227871,2018-06-29 10:43:32.968750,21.99,78.5
227872,2018-06-29 10:43:33.000000,2.2,78.5
227873,2018-06-29 10:43:33.031250,-11.55,78.5
227874,2018-06-29 10:43:33.062500,-14.53,78.5
227875,2018-06-29 10:43:33.093750,-8.0,78.5
227876,2018-06-29 10:43:33.125000,4.9,78.5
227877,2018-06-29 10:43:33.156250,20.2,78.5
227878,2018-06-29 10:43:33.187500,31.48,78.5
227879,2018-06-29 10:43:33.218750,34.69,78.5
227880,2018-06-29 10:43:33.250000,33.05,78.5
227881,2018-06-29 10:43:33.281250,31.39,78.5
227882,2018-06-29 10:43:33.312500,28.94,78.5
227883,2018-06-29 10:43:33.343750,21.76,78.5
227884,2018-06-29 10:43:33.375000,9.23,78.5
227885,2018-06-29 10:43:33.406250,-3.72,78.5
227886,2018-06-29 10:43:33.437500,-8.74,78.5
227887,2018-06-29 10:43:33.468750,-1.91,78.5
227888,2018-06-29 10:43:33.500000,9.87,78.5
227889,2018-06-29 10:43:33.531250,16.15,78.47
227890,2018-06-29 10:43:33.562500,14.83,78.47
227891,2018-06-29 10:43:33.593750,10.54,78.47
227892,2018-06-29 10:43:33.625000,5.87,78.47
227893,2018-06-29 10:43:33.656250,1.42,78.47
227894,2018-06-29 10:43:33.687500,-0.18,78.47
227895,2018-06-29 10:43:33.718750,2.66,78.47
227896,2018-06-29 10:43:33.750000,6.86,78.47
227897,2018-06-29 10:43:33.781250,9.33,78.47
227898,2018-06-29 10:43:33.812500,11.41,78.47
227899,2018-06-29 10:43:33.843750,14.93,78.47
227900,2018-06-29 10:43:33.875000,18.0,78.47
227901,2018-06-29 10:43:33.906250,17.7,78.47
227902,2018-06-29 10:43:33.937500,13.95,78.47
227903,2018-06-29 10:43:33.968750,9.19,78.47
227904,2018-06-29 10:43:34.000000,5.2,78.47
227905,2018-06-29 10:43:34.031250,0.27,78.47
227906,2018-06-29 10:43:34.062500,-9.23,78.47
227907,2018-06-29 10:43:34.093750,-22.18,78.47
227908,2018-06-29 10:43:34.125000,-29.61,78.47
227909,2018-06-29 10:43:34.156250,-22.56,78.47
227910,2018-06-29 10:43:34.187500,-3.71,78.47
227911,2018-06-29 10:43:34.218750,14.82,78.47
227912,2018-06-29 10:43:34.250000,26.37,78.47
227913,2018-06-29 10:43:34.281250,34.1,78.47
227914,2018-06-29 10:43:34.312500,40.14,78.47
227915,2018-06-29 10:43:34.343750,41.56,78.47
227916,2018-06-29 10:43:34.375000,38.04,78.47
227917,2018-06-29 10:43:34.406250,33.54,78.47
227918,2018-06-29 10:43:34.437500,30.19,78.47
227919,2018-06-29 10:43:34.468750,27.6,78.47
227920,2018-06-29 10:43:34.500000,26.4,78.47
227921,2018-06-29 10:43:34.531250,26.81,78.47
227922,2018-06-29 10:43:34.562500,25.76,78.47
227923,2018-06-29 10:43:34.593750,19.68,78.47
227924,2018-06-29 10:43:34.625000,9.34,78.47
227925,2018-06-29 10:43:34.656250,-1.72,78.47
227926,2018-06-29 10:43:34.687500,-11.92,78.47
227927,2018-06-29 10:43:34.718750,-21.19,78.47
227928,2018-06-29 10:43:34.750000,-28.6,78.47
227929,2018-06-29 10:43:34.781250,-33.72,78.47
227930,2018-06-29 10:43:34.812500,-38.54,78.47
227931,2018-06-29 10:43:34.843750,-45.62,78.47
227932,2018-06-29 10:43:34.875000,-54.57,78.47
227933,2018-06-29 10:43:34.906250,-60.02,78.47
227934,2018-06-29 10:43:34.937500,-55.02,78.47
227935,2018-06-29 10:43:34.968750,-39.17,78.47
227936,2018-06-29 10:43:35.000000,-20.56,78.47
227937,2018-06-29 10:43:35.031250,-6.79,78.47
227938,2018-06-29 10:43:35.062500,1.35,78.47
227939,2018-06-29 10:43:35.093750,6.38,78.47
227940,2018-06-29 10:43:35.125000,9.36,78.47
227941,2018-06-29 10:43:35.156250,9.92,78.47
227942,2018-06-29 10:43:35.187500,8.22,78.47
227943,2018-06-29 10:43:35.218750,6.1,78.47
227944,2018-06-29 10:43:35.250000,6.17,78.47
227945,2018-06-29 10:43:35.281250,9.63,78.47
227946,2018-06-29 10:43:35.312500,16.06,78.47
227947,2018-06-29 10:43:35.343750,22.77,78.47
227948,2018-06-29 10:43:35.375000,25.37,78.47
227949,2018-06-29 10:43:35.406250,21.55,78.47
227950,2018-06-29 10:43:35.437500,13.5,78.47
227951,2018-06-29 10:43:35.468750,6.31,78.47
227952,2018-06-29 10:43:35.500000,4.07,78.47
227953,2018-06-29 10:43:35.531250,7.32,78.48
227954,2018-06-29 10:43:35.562500,12.6,78.48
227955,2018-06-29 10:43:35.593750,16.82,78.48
227956,2018-06-29 10:43:35.625000,19.14,78.48
227957,2018-06-29 10:43:35.656250,21.58,78.48
227958,2018-06-29 10:43:35.687500,28.58,78.48
227959,2018-06-29 10:43:35.718750,41.73,78.48
227960,2018-06-29 10:43:35.750000,56.43,78.48
227961,2018-06-29 10:43:35.781250,65.41,78.48
227962,2018-06-29 10:43:35.812500,68.86,78.48
227963,2018-06-29 10:43:35.843750,68.03,78.48
227964,2018-06-29 10:43:35.875000,63.77,78.48
227965,2018-06-29 10:43:35.906250,56.36,78.48
227966,2018-06-29 10:43:35.937500,45.82,78.48
227967,2018-06-29 10:43:35.968750,29.1,78.48
227968,2018-06-29 10:43:36.000000,1.86,78.48
227969,2018-06-29 10:43:36.031250,-30.25,78.48
227970,2018-06-29 10:43:36.062500,-61.45,78.48
227971,2018-06-29 10:43:36.093750,-89.59,78.48
227972,2018-06-29 10:43:36.125000,-123.28,78.48
227973,2018-06-29 10:43:36.156250,-165.1,78.48
227974,2018-06-29 10:43:36.187500,-211.27,78.48
227975,2018-06-29 10:43:36.218750,-251.94,78.48
227976,2018-06-29 10:43:36.250000,-224.1,78.48
227977,2018-06-29 10:43:36.281250,-133.17,78.48
227978,2018-06-29 10:43:36.312500,-32.05,78.48
227979,2018-06-29 10:43:36.343750,48.69,78.48
227980,2018-06-29 10:43:36.375000,92.86,78.48
227981,2018-06-29 10:43:36.406250,98.68,78.48
227982,2018-06-29 10:43:36.437500,88.74,78.48
227983,2018-06-29 10:43:36.468750,86.38,78.48
227984,2018-06-29 10:43:36.500000,92.47,78.48
227985,2018-06-29 10:43:36.531250,92.93,78.55
227986,2018-06-29 10:43:36.562500,70.9,78.55
227987,2018-06-29 10:43:36.593750,28.63,78.55
227988,2018-06-29 10:43:36.625000,-18.81,78.55
227989,2018-06-29 10:43:36.656250,-52.66,78.55
227990,2018-06-29 10:43:36.687500,-51.23,78.55
227991,2018-06-29 10:43:36.718750,-17.09,78.55
227992,2018-06-29 10:43:36.750000,31.14,78.55
227993,2018-06-29 10:43:36.781250,77.6,78.55
227994,2018-06-29 10:43:36.812500,112.63,78.55
227995,2018-06-29 10:43:36.843750,130.1,78.55
227996,2018-06-29 10:43:36.875000,130.38,78.55
227997,2018-06-29 10:43:36.906250,118.94,78.55
227998,2018-06-29 10:43:36.937500,105.38,78.55
227999,2018-06-29 10:43:36.968750,96.67,78.55
228000,2018-06-29 10:43:37.000000,94.69,78.55
228001,2018-06-29 10:43:37.031250,98.0,78.55
228002,2018-06-29 10:43:37.062500,106.35,78.55
228003,2018-06-29 10:43:37.093750,116.35,78.55
228004,2018-06-29 10:43:37.125000,118.71,78.55
228005,2018-06-29 10:43:37.156250,113.63,78.55
228006,2018-06-29 10:43:37.187500,100.54,78.55
228007,2018-06-29 10:43:37.218750,85.6,78.55
228008,2018-06-29 10:43:37.250000,72.29,78.55
228009,2018-06-29 10:43:37.281250,55.39,78.55
228010,2018-06-29 10:43:37.312500,24.47,78.55
228011,2018-06-29 10:43:37.343750,-12.74,78.55
228012,2018-06-29 10:43:37.375000,-47.21,78.55
228013,2018-06-29 10:43:37.406250,-81.96,78.55
228014,2018-06-29 10:43:37.437500,-136.75,78.55
228015,2018-06-29 10:43:37.468750,-211.35,78.55
228016,2018-06-29 10:43:37.500000,-282.88,78.55
228017,2018-06-29 10:43:37.531250,-341.92,78.57
228018,2018-06-29 10:43:37.562500,-394.54,78.57
228019,2018-06-29 10:43:37.593750,-458.76,78.57
228020,2018-06-29 10:43:37.625000,-521.63,78.57
228021,2018-06-29 10:43:37.656250,-570.38,78.57
228022,2018-06-29 10:43:37.687500,-575.35,78.57
228023,2018-06-29 10:43:37.718750,-521.44,78.57
228024,2018-06-29 10:43:37.750000,-413.96,78.57
228025,2018-06-29 10:43:37.781250,-274.9,78.57
228026,2018-06-29 10:43:37.812500,-141.08,78.57
228027,2018-06-29 10:43:37.843750,57.8,78.57
228028,2018-06-29 10:43:37.875000,248.5,78.57
228029,2018-06-29 10:43:37.906250,317.26,78.57
228030,2018-06-29 10:43:37.937500,311.35,78.57
228031,2018-06-29 10:43:37.968750,277.97,78.57
228032,2018-06-29 10:43:38.000000,202.97,78.57
228033,2018-06-29 10:43:38.031250,98.09,78.57
228034,2018-06-29 10:43:38.062500,17.61,78.57
228035,2018-06-29 10:43:38.093750,-7.05,78.57
228036,2018-06-29 10:43:38.125000,42.48,78.57
228037,2018-06-29 10:43:38.156250,103.16,78.57
228038,2018-06-29 10:43:38.187500,137.4,78.57
228039,2018-06-29 10:43:38.218750,170.79,78.57
228040,2018-06-29 10:43:38.250000,224.89,78.57
228041,2018-06-29 10:43:38.281250,257.64,78.57
228042,2018-06-29 10:43:38.312500,261.61,78.57
228043,2018-06-29 10:43:38.343750,272.68,78.57
228044,2018-06-29 10:43:38.375000,287.99,78.57
228045,2018-06-29 10:43:38.406250,278.63,78.57
228046,2018-06-29 10:43:38.437500,194.54,78.57
228047,2018-06-29 10:43:38.468750,100.22,78.57
228048,2018-06-29 10:43:38.500000,36.32,78.57
228049,2018-06-29 10:43:38.531250,-12.08,78.62
228050,2018-06-29 10:43:38.562500,-59.09,78.62
228051,2018-06-29 10:43:38.593750,-90.46,78.62
228052,2018-06-29 10:43:38.625000,-103.9,78.62
228053,2018-06-29 10:43:38.656250,-116.07,78.62
228054,2018-06-29 10:43:38.687500,-137.18,78.62
228055,2018-06-29 10:43:38.718750,-163.28,78.62
228056,2018-06-29 10:43:38.750000,-185.2,78.62
228057,2018-06-29 10:43:38.781250,-207.24,78.62
228058,2018-06-29 10:43:38.812500,-227.23,78.62
228059,2018-06-29 10:43:38.843750,-239.7,78.62
228060,2018-06-29 10:43:38.875000,-231.11,78.62
228061,2018-06-29 10:43:38.906250,-200.06,78.62
228062,2018-06-29 10:43:38.937500,-164.28,78.62
228063,2018-06-29 10:43:38.968750,-138.7,78.62
228064,2018-06-29 10:43:39.000000,-115.17,78.62
228065,2018-06-29 10:43:39.031250,-75.61,78.62
228066,2018-06-29 10:43:39.062500,-25.9,78.62
228067,2018-06-29 10:43:39.093750,21.15,78.62
228068,2018-06-29 10:43:39.125000,66.63,78.62
228069,2018-06-29 10:43:39.156250,95.2,78.62
228070,2018-06-29 10:43:39.187500,106.82,78.62
228071,2018-06-29 10:43:39.218750,107.17,78.62
228072,2018-06-29 10:43:39.250000,102.04,78.62
228073,2018-06-29 10:43:39.281250,91.97,78.62
228074,2018-06-29 10:43:39.312500,79.19,78.62
228075,2018-06-29 10:43:39.343750,66.33,78.62
228076,2018-06-29 10:43:39.375000,57.49,78.62
228077,2018-06-29 10:43:39.406250,53.21,78.62
228078,2018-06-29 10:43:39.437500,52.77,78.62
228079,2018-06-29 10:43:39.468750,56.89,78.62
228080,2018-06-29 10:43:39.500000,65.43,78.62
228081,2018-06-29 10:43:39.531250,74.7,78.92
228082,2018-06-29 10:43:39.562500,76.91,78.92
228083,2018-06-29 10:43:39.593750,67.61,78.92
228084,2018-06-29 10:43:39.625000,46.68,78.92
228085,2018-06-29 10:43:39.656250,16.56,78.92
228086,2018-06-29 10:43:39.687500,-22.37,78.92
228087,2018-06-29 10:43:39.718750,-70.11,78.92
228088,2018-06-29 10:43:39.750000,-120.43,78.92
228089,2018-06-29 10:43:39.781250,-155.87,78.92
228090,2018-06-29 10:43:39.812500,-153.83,78.92
228091,2018-06-29 10:43:39.843750,-107.1,78.92
228092,2018-06-29 10:43:39.875000,-34.37,78.92
228093,2018-06-29 10:43:39.906250,36.01,78.92
228094,2018-06-29 10:43:39.937500,89.09,78.92
228095,2018-06-29 10:43:39.968750,124.11,78.92
228096,2018-06-29 10:43:40.000000,142.93,78.92
228097,2018-06-29 10:43:40.031250,147.7,78.92
228098,2018-06-29 10:43:40.062500,144.35,78.92
228099,2018-06-29 10:43:40.093750,140.12,78.92
228100,2018-06-29 10:43:40.125000,137.64,78.92
228101,2018-06-29 10:43:40.156250,134.12,78.92
228102,2018-06-29 10:43:40.187500,127.05,78.92
228103,2018-06-29 10:43:40.218750,116.39,78.92
228104,2018-06-29 10:43:40.250000,100.3,78.92
228105,2018-06-29 10:43:40.281250,73.8,78.92
228106,2018-06-29 10:43:40.312500,35.28,78.92
228107,2018-06-29 10:43:40.343750,-9.0,78.92
228108,2018-06-29 10:43:40.375000,-49.24,78.92
228109,2018-06-29 10:43:40.406250,-78.61,78.92
228110,2018-06-29 10:43:40.437500,-95.42,78.92
228111,2018-06-29 10:43:40.468750,-101.44,78.92
228112,2018-06-29 10:43:40.500000,-96.45,78.92
228113,2018-06-29 10:43:40.531250,-73.57,79.2
228114,2018-06-29 10:43:40.562500,-27.63,79.2
228115,2018-06-29 10:43:40.593750,30.01,79.2
228116,2018-06-29 10:43:40.625000,75.57,79.2
228117,2018-06-29 10:43:40.656250,96.47,79.2
228118,2018-06-29 10:43:40.687500,100.6,79.2
228119,2018-06-29 10:43:40.718750,100.17,79.2
228120,2018-06-29 10:43:40.750000,97.53,79.2
228121,2018-06-29 10:43:40.781250,89.52,79.2
228122,2018-06-29 10:43:40.812500,76.45,79.2
228123,2018-06-29 10:43:40.843750,63.03,79.2
228124,2018-06-29 10:43:40.875000,54.57,79.2
228125,2018-06-29 10:43:40.906250,54.33,79.2
228126,2018-06-29 10:43:40.937500,61.66,79.2
228127,2018-06-29 10:43:40.968750,71.3,79.2
228128,2018-06-29 10:43:41.000000,75.66,79.2
228129,2018-06-29 10:43:41.031250,69.39,79.2
228130,2018-06-29 10:43:41.062500,52.27,79.2
228131,2018-06-29 10:43:41.093750,27.4,79.2
228132,2018-06-29 10:43:41.125000,-2.62,79.2
228133,2018-06-29 10:43:41.156250,-36.73,79.2
228134,2018-06-29 10:43:41.187500,-73.41,79.2
228135,2018-06-29 10:43:41.218750,-110.18,79.2
228136,2018-06-29 10:43:41.250000,-142.49,79.2
228137,2018-06-29 10:43:41.281250,-159.1,79.2
228138,2018-06-29 10:43:41.312500,-145.44,79.2
228139,2018-06-29 10:43:41.343750,-99.49,79.2
228140,2018-06-29 10:43:41.375000,-39.02,79.2
228141,2018-06-29 10:43:41.406250,14.19,79.2
228142,2018-06-29 10:43:41.437500,52.17,79.2
228143,2018-06-29 10:43:41.468750,77.87,79.2
228144,2018-06-29 10:43:41.500000,92.55,79.2
228145,2018-06-29 10:43:41.531250,94.71,79.52
228146,2018-06-29 10:43:41.562500,88.14,79.52
228147,2018-06-29 10:43:41.593750,82.14,79.52
228148,2018-06-29 10:43:41.625000,84.64,79.52
228149,2018-06-29 10:43:41.656250,100.16,79.52
228150,2018-06-29 10:43:41.687500,130.33,79.52
228151,2018-06-29 10:43:41.718750,168.11,79.52
228152,2018-06-29 10:43:41.750000,194.38,79.52
228153,2018-06-29 10:43:41.781250,188.29,79.52
228154,2018-06-29 10:43:41.812500,142.35,79.52
228155,2018-06-29 10:43:41.843750,64.33,79.52
228156,2018-06-29 10:43:41.875000,-33.58,79.52
228157,2018-06-29 10:43:41.906250,-140.54,79.52
228158,2018-06-29 10:43:41.937500,-243.42,79.52
228159,2018-06-29 10:43:41.968750,-325.42,79.52
228160,2018-06-29 10:43:42.000000,-370.05,79.52
228161,2018-06-29 10:43:42.031250,-368.66,79.52
228162,2018-06-29 10:43:42.062500,-326.48,79.52
228163,2018-06-29 10:43:42.093750,-260.04,79.52
228164,2018-06-29 10:43:42.125000,-183.18,79.52
228165,2018-06-29 10:43:42.156250,-100.29,79.52
228166,2018-06-29 10:43:42.187500,-16.35,79.52
228167,2018-06-29 10:43:42.218750,56.14,79.52
228168,2018-06-29 10:43:42.250000,107.63,79.52
228169,2018-06-29 10:43:42.281250,143.03,79.52
228170,2018-06-29 10:43:42.312500,173.15,79.52
228171,2018-06-29 10:43:42.343750,203.64,79.52
228172,2018-06-29 10:43:42.375000,227.68,79.52
228173,2018-06-29 10:43:42.406250,232.84,79.52
228174,2018-06-29 10:43:42.437500,209.3,79.52
228175,2018-06-29 10:43:42.468750,158.6,79.52
228176,2018-06-29 10:43:42.500000,93.57,79.52
228177,2018-06-29 10:43:42.531250,25.05,79.72
228178,2018-06-29 10:43:42.562500,-35.48,79.72
228179,2018-06-29 10:43:42.593750,-78.98,79.72
228180,2018-06-29 10:43:42.625000,-94.74,79.72
228181,2018-06-29 10:43:42.656250,-89.84,79.72
228182,2018-06-29 10:43:42.687500,-75.93,79.72
228183,2018-06-29 10:43:42.718750,-47.76,79.72
228184,2018-06-29 10:43:42.750000,9.54,79.72
228185,2018-06-29 10:43:42.781250,94.88,79.72
228186,2018-06-29 10:43:42.812500,176.81,79.72
228187,2018-06-29 10:43:42.843750,234.61,79.72
228188,2018-06-29 10:43:42.875000,204.18,79.72
228189,2018-06-29 10:43:42.906250,66.01,79.72
228190,2018-06-29 10:43:42.937500,-70.76,79.72
228191,2018-06-29 10:43:42.968750,-172.59,79.72
228192,2018-06-29 10:43:43.000000,-264.18,79.72
228193,2018-06-29 10:43:43.031250,-333.59,79.72
228194,2018-06-29 10:43:43.062500,-353.65,79.72
228195,2018-06-29 10:43:43.093750,-335.15,79.72
228196,2018-06-29 10:43:43.125000,-292.85,79.72
228197,2018-06-29 10:43:43.156250,-233.01,79.72
228198,2018-06-29 10:43:43.187500,-149.86,79.72
228199,2018-06-29 10:43:43.218750,-53.84,79.72
228200,2018-06-29 10:43:43.250000,25.78,79.72
228201,2018-06-29 10:43:43.281250,79.85,79.72
228202,2018-06-29 10:43:43.312500,121.92,79.72
228203,2018-06-29 10:43:43.343750,177.4,79.72
228204,2018-06-29 10:43:43.375000,241.32,79.72
228205,2018-06-29 10:43:43.406250,299.25,79.72
228206,2018-06-29 10:43:43.437500,329.55,79.72
228207,2018-06-29 10:43:43.468750,258.97,79.72
228208,2018-06-29 10:43:43.500000,127.92,79.72
228209,2018-06-29 10:43:43.531250,14.8,79.85
228210,2018-06-29 10:43:43.562500,-58.78,79.85
228211,2018-06-29 10:43:43.593750,-103.08,79.85
228212,2018-06-29 10:43:43.625000,-121.24,79.85
228213,2018-06-29 10:43:43.656250,-125.11,79.85
228214,2018-06-29 10:43:43.687500,-134.5,79.85
228215,2018-06-29 10:43:43.718750,-155.7,79.85
228216,2018-06-29 10:43:43.750000,-168.8,79.85
228217,2018-06-29 10:43:43.781250,-163.2,79.85
228218,2018-06-29 10:43:43.812500,-152.63,79.85
228219,2018-06-29 10:43:43.843750,-146.38,79.85
228220,2018-06-29 10:43:43.875000,-116.58,79.85
228221,2018-06-29 10:43:43.906250,-58.92,79.85
228222,2018-06-29 10:43:43.937500,11.99,79.85
228223,2018-06-29 10:43:43.968750,78.95,79.85
228224,2018-06-29 10:43:44.000000,128.11,79.85
228225,2018-06-29 10:43:44.031250,164.44,79.85
228226,2018-06-29 10:43:44.062500,190.46,79.85
228227,2018-06-29 10:43:44.093750,204.4,79.85
228228,2018-06-29 10:43:44.125000,196.48,79.85
228229,2018-06-29 10:43:44.156250,140.62,79.85
228230,2018-06-29 10:43:44.187500,59.92,79.85
228231,2018-06-29 10:43:44.218750,-12.92,79.85
228232,2018-06-29 10:43:44.250000,-70.37,79.85
228233,2018-06-29 10:43:44.281250,-114.54,79.85
228234,2018-06-29 10:43:44.312500,-139.61,79.85
228235,2018-06-29 10:43:44.343750,-124.22,79.85
228236,2018-06-29 10:43:44.375000,-61.29,79.85
228237,2018-06-29 10:43:44.406250,30.34,79.85
228238,2018-06-29 10:43:44.437500,118.06,79.85
228239,2018-06-29 10:43:44.468750,167.09,79.85
228240,2018-06-29 10:43:44.500000,134.36,79.85
228241,2018-06-29 10:43:44.531250,50.1,79.93
228242,2018-06-29 10:43:44.562500,-35.63,79.93
228243,2018-06-29 10:43:44.593750,-112.02,79.93
228244,2018-06-29 10:43:44.625000,-165.66,79.93
228245,2018-06-29 10:43:44.656250,-183.76,79.93
228246,2018-06-29 10:43:44.687500,-174.81,79.93
228247,2018-06-29 10:43:44.718750,-163.07,79.93
228248,2018-06-29 10:43:44.750000,-163.74,79.93
228249,2018-06-29 10:43:44.781250,-172.64,79.93
228250,2018-06-29 10:43:44.812500,-169.28,79.93
228251,2018-06-29 10:43:44.843750,-151.49,79.93
228252,2018-06-29 10:43:44.875000,-100.43,79.93
228253,2018-06-29 10:43:44.906250,-24.04,79.93
228254,2018-06-29 10:43:44.937500,46.62,79.93
228255,2018-06-29 10:43:44.968750,121.15,79.93
228256,2018-06-29 10:43:45.000000,204.79,79.93
228257,2018-06-29 10:43:45.031250,267.57,79.93
228258,2018-06-29 10:43:45.062500,275.69,79.93
228259,2018-06-29 10:43:45.093750,230.84,79.93
228260,2018-06-29 10:43:45.125000,147.61,79.93
228261,2018-06-29 10:43:45.156250,49.25,79.93
228262,2018-06-29 10:43:45.187500,-31.58,79.93
228263,2018-06-29 10:43:45.218750,-55.33,79.93
228264,2018-06-29 10:43:45.250000,-9.65,79.93
228265,2018-06-29 10:43:45.281250,72.17,79.93
228266,2018-06-29 10:43:45.312500,142.05,79.93
228267,2018-06-29 10:43:45.343750,151.32,79.93
228268,2018-06-29 10:43:45.375000,85.74,79.93
228269,2018-06-29 10:43:45.406250,0.54,79.93
228270,2018-06-29 10:43:45.437500,-67.3,79.93
228271,2018-06-29 10:43:45.468750,-117.3,79.93
228272,2018-06-29 10:43:45.500000,-147.66,79.93
228273,2018-06-29 10:43:45.531250,-165.23,79.95
228274,2018-06-29 10:43:45.562500,-173.14,79.95
228275,2018-06-29 10:43:45.593750,-157.38,79.95
228276,2018-06-29 10:43:45.625000,-110.97,79.95
228277,2018-06-29 10:43:45.656250,-54.09,79.95
228278,2018-06-29 10:43:45.687500,-16.81,79.95
228279,2018-06-29 10:43:45.718750,-6.3,79.95
228280,2018-06-29 10:43:45.750000,-10.27,79.95
228281,2018-06-29 10:43:45.781250,-16.92,79.95
228282,2018-06-29 10:43:45.812500,-17.1,79.95
228283,2018-06-29 10:43:45.843750,-5.95,79.95
228284,2018-06-29 10:43:45.875000,14.6,79.95
228285,2018-06-29 10:43:45.906250,37.65,79.95
228286,2018-06-29 10:43:45.937500,53.4,79.95
228287,2018-06-29 10:43:45.968750,54.66,79.95
228288,2018-06-29 10:43:46.000000,42.73,79.95
228289,2018-06-29 10:43:46.031250,25.8,79.95
228290,2018-06-29 10:43:46.062500,10.54,79.95
228291,2018-06-29 10:43:46.093750,0.55,79.95
228292,2018-06-29 10:43:46.125000,-2.07,79.95
228293,2018-06-29 10:43:46.156250,0.51,79.95
228294,2018-06-29 10:43:46.187500,4.6,79.95
228295,2018-06-29 10:43:46.218750,11.21,79.95
228296,2018-06-29 10:43:46.250000,21.9,79.95
228297,2018-06-29 10:43:46.281250,30.42,79.95
228298,2018-06-29 10:43:46.312500,30.08,79.95
228299,2018-06-29 10:43:46.343750,27.36,79.95
228300,2018-06-29 10:43:46.375000,32.27,79.95
228301,2018-06-29 10:43:46.406250,42.87,79.95
228302,2018-06-29 10:43:46.437500,50.15,79.95
228303,2018-06-29 10:43:46.468750,51.09,79.95
228304,2018-06-29 10:43:46.500000,46.72,79.95
228305,2018-06-29 10:43:46.531250,35.22,80.07
228306,2018-06-29 10:43:46.562500,20.16,80.07
228307,2018-06-29 10:43:46.593750,9.0,80.07
228308,2018-06-29 10:43:46.625000,5.96,80.07
228309,2018-06-29 10:43:46.656250,7.86,80.07
228310,2018-06-29 10:43:46.687500,17.3,80.07
228311,2018-06-29 10:43:46.718750,41.43,80.07
228312,2018-06-29 10:43:46.750000,75.4,80.07
228313,2018-06-29 10:43:46.781250,97.72,80.07
228314,2018-06-29 10:43:46.812500,82.19,80.07
228315,2018-06-29 10:43:46.843750,22.35,80.07
228316,2018-06-29 10:43:46.875000,-69.65,80.07
228317,2018-06-29 10:43:46.906250,-147.48,80.07
228318,2018-06-29 10:43:46.937500,-155.53,80.07
228319,2018-06-29 10:43:46.968750,-117.42,80.07
228320,2018-06-29 10:43:47.000000,-74.28,80.07
228321,2018-06-29 10:43:47.031250,-39.56,80.07
228322,2018-06-29 10:43:47.062500,-16.24,80.07
228323,2018-06-29 10:43:47.093750,-11.41,80.07
228324,2018-06-29 10:43:47.125000,-17.73,80.07
228325,2018-06-29 10:43:47.156250,-19.08,80.07
228326,2018-06-29 10:43:47.187500,-9.23,80.07
228327,2018-06-29 10:43:47.218750,-0.29,80.07
228328,2018-06-29 10:43:47.250000,-1.69,80.07
228329,2018-06-29 10:43:47.281250,-8.12,80.07
228330,2018-06-29 10:43:47.312500,-1.81,80.07
228331,2018-06-29 10:43:47.343750,30.95,80.07
228332,2018-06-29 10:43:47.375000,70.52,80.07
228333,2018-06-29 10:43:47.406250,79.04,80.07
228334,2018-06-29 10:43:47.437500,45.97,80.07
228335,2018-06-29 10:43:47.468750,-0.91,80.07
228336,2018-06-29 10:43:47.500000,-30.04,80.07
228337,2018-06-29 10:43:47.531250,-22.21,80.1
228338,2018-06-29 10:43:47.562500,18.71,80.1
228339,2018-06-29 10:43:47.593750,57.24,80.1
228340,2018-06-29 10:43:47.625000,65.37,80.1
228341,2018-06-29 10:43:47.656250,45.16,80.1
228342,2018-06-29 10:43:47.687500,2.47,80.1
228343,2018-06-29 10:43:47.718750,-55.41,80.1
228344,2018-06-29 10:43:47.750000,-101.46,80.1
228345,2018-06-29 10:43:47.781250,-115.29,80.1
228346,2018-06-29 10:43:47.812500,-102.04,80.1
228347,2018-06-29 10:43:47.843750,-69.9,80.1
228348,2018-06-29 10:43:47.875000,-19.69,80.1
228349,2018-06-29 10:43:47.906250,33.49,80.1
228350,2018-06-29 10:43:47.937500,67.9,80.1
228351,2018-06-29 10:43:47.968750,77.52,80.1
228352,2018-06-29 10:43:48.000000,65.49,80.1
228353,2018-06-29 10:43:48.031250,30.78,80.1
228354,2018-06-29 10:43:48.062500,-17.37,80.1
228355,2018-06-29 10:43:48.093750,-52.95,80.1
228356,2018-06-29 10:43:48.125000,-55.18,80.1
228357,2018-06-29 10:43:48.156250,-32.14,80.1
228358,2018-06-29 10:43:48.187500,-12.07,80.1
228359,2018-06-29 10:43:48.218750,-8.62,80.1
228360,2018-06-29 10:43:48.250000,-6.43,80.1
228361,2018-06-29 10:43:48.281250,18.13,80.1
228362,2018-06-29 10:43:48.312500,56.16,80.1
228363,2018-06-29 10:43:48.343750,69.39,80.1
228364,2018-06-29 10:43:48.375000,47.58,80.1
228365,2018-06-29 10:43:48.406250,15.99,80.1
228366,2018-06-29 10:43:48.437500,-16.62,80.1
228367,2018-06-29 10:43:48.468750,-60.39,80.1
228368,2018-06-29 10:43:48.500000,-101.19,80.1
228369,2018-06-29 10:43:48.531250,-103.14,80.08
228370,2018-06-29 10:43:48.562500,-46.16,80.08
228371,2018-06-29 10:43:48.593750,50.65,80.08
228372,2018-06-29 10:43:48.625000,159.13,80.08
228373,2018-06-29 10:43:48.656250,222.36,80.08
228374,2018-06-29 10:43:48.687500,185.11,80.08
228375,2018-06-29 10:43:48.718750,84.41,80.08
228376,2018-06-29 10:43:48.750000,-16.1,80.08
228377,2018-06-29 10:43:48.781250,-83.43,80.08
228378,2018-06-29 10:43:48.812500,-113.29,80.08
228379,2018-06-29 10:43:48.843750,-109.87,80.08
228380,2018-06-29 10:43:48.875000,-92.5,80.08
228381,2018-06-29 10:43:48.906250,-79.49,80.08
228382,2018-06-29 10:43:48.937500,-73.12,80.08
228383,2018-06-29 10:43:48.968750,-55.04,80.08
228384,2018-06-29 10:43:49.000000,-23.57,80.08
228385,2018-06-29 10:43:49.031250,4.64,80.08
228386,2018-06-29 10:43:49.062500,21.27,80.08
228387,2018-06-29 10:43:49.093750,35.47,80.08
228388,2018-06-29 10:43:49.125000,58.02,80.08
228389,2018-06-29 10:43:49.156250,78.4,80.08
228390,2018-06-29 10:43:49.187500,78.35,80.08
228391,2018-06-29 10:43:49.218750,49.37,80.08
228392,2018-06-29 10:43:49.250000,6.37,80.08
228393,2018-06-29 10:43:49.281250,-24.53,80.08
228394,2018-06-29 10:43:49.312500,-27.97,80.08
228395,2018-06-29 10:43:49.343750,-16.44,80.08
228396,2018-06-29 10:43:49.375000,-24.48,80.08
228397,2018-06-29 10:43:49.406250,-38.89,80.08
228398,2018-06-29 10:43:49.437500,-33.72,80.08
228399,2018-06-29 10:43:49.468750,-20.56,80.08
228400,2018-06-29 10:43:49.500000,-14.86,80.08
228401,2018-06-29 10:43:49.531250,-8.16,80.03
228402,2018-06-29 10:43:49.562500,0.79,80.03
228403,2018-06-29 10:43:49.593750,-0.38,80.03
228404,2018-06-29 10:43:49.625000,-11.22,80.03
228405,2018-06-29 10:43:49.656250,-15.86,80.03
228406,2018-06-29 10:43:49.687500,-8.71,80.03
228407,2018-06-29 10:43:49.718750,-3.5,80.03
228408,2018-06-29 10:43:49.750000,-7.38,80.03
228409,2018-06-29 10:43:49.781250,-8.62,80.03
228410,2018-06-29 10:43:49.812500,2.07,80.03
228411,2018-06-29 10:43:49.843750,13.44,80.03
228412,2018-06-29 10:43:49.875000,5.89,80.03
228413,2018-06-29 10:43:49.906250,-26.58,80.03
228414,2018-06-29 10:43:49.937500,-69.31,80.03
228415,2018-06-29 10:43:49.968750,-86.56,80.03
228416,2018-06-29 10:43:50.000000,-54.5,80.03
228417,2018-06-29 10:43:50.031250,1.03,80.03
228418,2018-06-29 10:43:50.062500,35.3,80.03
228419,2018-06-29 10:43:50.093750,38.46,80.03
228420,2018-06-29 10:43:50.125000,33.04,80.03
228421,2018-06-29 10:43:50.156250,31.54,80.03
228422,2018-06-29 10:43:50.187500,39.08,80.03
228423,2018-06-29 10:43:50.218750,61.62,80.03
228424,2018-06-29 10:43:50.250000,95.63,80.03
228425,2018-06-29 10:43:50.281250,129.04,80.03
228426,2018-06-29 10:43:50.312500,132.35,80.03
228427,2018-06-29 10:43:50.343750,106.27,80.03
228428,2018-06-29 10:43:50.375000,71.11,80.03
228429,2018-06-29 10:43:50.406250,36.98,80.03
228430,2018-06-29 10:43:50.437500,7.53,80.03
228431,2018-06-29 10:43:50.468750,-8.81,80.03
228432,2018-06-29 10:43:50.500000,-8.93,80.03
228433,2018-06-29 10:43:50.531250,-7.2,79.73
228434,2018-06-29 10:43:50.562500,-24.99,79.73
228435,2018-06-29 10:43:50.593750,-61.94,79.73
228436,2018-06-29 10:43:50.625000,-93.92,79.73
228437,2018-06-29 10:43:50.656250,-110.25,79.73
228438,2018-06-29 10:43:50.687500,-120.96,79.73
228439,2018-06-29 10:43:50.718750,-132.69,79.73
228440,2018-06-29 10:43:50.750000,-131.21,79.73
228441,2018-06-29 10:43:50.781250,-108.36,79.73
228442,2018-06-29 10:43:50.812500,-70.91,79.73
228443,2018-06-29 10:43:50.843750,-24.07,79.73
228444,2018-06-29 10:43:50.875000,29.19,79.73
228445,2018-06-29 10:43:50.906250,82.04,79.73
228446,2018-06-29 10:43:50.937500,124.43,79.73
228447,2018-06-29 10:43:50.968750,151.67,79.73
228448,2018-06-29 10:43:51.000000,164.74,79.73
228449,2018-06-29 10:43:51.031250,156.07,79.73
228450,2018-06-29 10:43:51.062500,110.67,79.73
228451,2018-06-29 10:43:51.093750,42.49,79.73
228452,2018-06-29 10:43:51.125000,-25.56,79.73
228453,2018-06-29 10:43:51.156250,-75.81,79.73
228454,2018-06-29 10:43:51.187500,-101.81,79.73
228455,2018-06-29 10:43:51.218750,-106.22,79.73
228456,2018-06-29 10:43:51.250000,-93.66,79.73
228457,2018-06-29 10:43:51.281250,-65.23,79.73
228458,2018-06-29 10:43:51.312500,-24.44,79.73
228459,2018-06-29 10:43:51.343750,12.91,79.73
228460,2018-06-29 10:43:51.375000,28.58,79.73
228461,2018-06-29 10:43:51.406250,17.75,79.73
228462,2018-06-29 10:43:51.437500,-7.25,79.73
228463,2018-06-29 10:43:51.468750,-28.47,79.73
228464,2018-06-29 10:43:51.500000,-32.94,79.73
228465,2018-06-29 10:43:51.531250,-23.35,79.33
228466,2018-06-29 10:43:51.562500,-12.57,79.33
228467,2018-06-29 10:43:51.593750,-7.56,79.33
228468,2018-06-29 10:43:51.625000,-5.68,79.33
228469,2018-06-29 10:43:51.656250,-4.26,79.33
228470,2018-06-29 10:43:51.687500,-4.45,79.33
228471,2018-06-29 10:43:51.718750,-6.73,79.33
228472,2018-06-29 10:43:51.750000,-8.66,79.33
228473,2018-06-29 10:43:51.781250,-9.36,79.33
228474,2018-06-29 10:43:51.812500,-13.16,79.33
228475,2018-06-29 10:43:51.843750,-24.55,79.33
228476,2018-06-29 10:43:51.875000,-39.06,79.33
228477,2018-06-29 10:43:51.906250,-37.11,79.33
228478,2018-06-29 10:43:51.937500,-10.27,79.33
228479,2018-06-29 10:43:51.968750,26.55,79.33
228480,2018-06-29 10:43:52.000000,61.38,79.33
228481,2018-06-29 10:43:52.031250,98.64,79.33
228482,2018-06-29 10:43:52.062500,132.01,79.33
228483,2018-06-29 10:43:52.093750,149.18,79.33
228484,2018-06-29 10:43:52.125000,149.45,79.33
228485,2018-06-29 10:43:52.156250,129.98,79.33
228486,2018-06-29 10:43:52.187500,94.55,79.33
228487,2018-06-29 10:43:52.218750,60.89,79.33
228488,2018-06-29 10:43:52.250000,43.28,79.33
228489,2018-06-29 10:43:52.281250,36.34,79.33
228490,2018-06-29 10:43:52.312500,25.22,79.33
228491,2018-06-29 10:43:52.343750,3.5,79.33
228492,2018-06-29 10:43:52.375000,-22.98,79.33
228493,2018-06-29 10:43:52.406250,-45.5,79.33
228494,2018-06-29 10:43:52.437500,-62.49,79.33
228495,2018-06-29 10:43:52.468750,-80.92,79.33
228496,2018-06-29 10:43:52.500000,-107.32,79.33
228497,2018-06-29 10:43:52.531250,-137.52,78.92
228498,2018-06-29 10:43:52.562500,-161.37,78.92
228499,2018-06-29 10:43:52.593750,-166.88,78.92
228500,2018-06-29 10:43:52.625000,-152.16,78.92
228501,2018-06-29 10:43:52.656250,-131.73,78.92
228502,2018-06-29 10:43:52.687500,-124.11,78.92
228503,2018-06-29 10:43:52.718750,-120.7,78.92
228504,2018-06-29 10:43:52.750000,-92.55,78.92
228505,2018-06-29 10:43:52.781250,-35.12,78.92
228506,2018-06-29 10:43:52.812500,22.13,78.92
228507,2018-06-29 10:43:52.843750,49.25,78.92
228508,2018-06-29 10:43:52.875000,54.53,78.92
228509,2018-06-29 10:43:52.906250,66.85,78.92
228510,2018-06-29 10:43:52.937500,110.49,78.92
228511,2018-06-29 10:43:52.968750,184.33,78.92
228512,2018-06-29 10:43:53.000000,266.16,78.92
228513,2018-06-29 10:43:53.031250,315.57,78.92
228514,2018-06-29 10:43:53.062500,254.27,78.92
228515,2018-06-29 10:43:53.093750,116.98,78.92
228516,2018-06-29 10:43:53.125000,-1.68,78.92
228517,2018-06-29 10:43:53.156250,-79.78,78.92
228518,2018-06-29 10:43:53.187500,-132.11,78.92
228519,2018-06-29 10:43:53.218750,-160.35,78.92
228520,2018-06-29 10:43:53.250000,-161.82,78.92
228521,2018-06-29 10:43:53.281250,-153.49,78.92
228522,2018-06-29 10:43:53.312500,-146.36,78.92
228523,2018-06-29 10:43:53.343750,-136.67,78.92
228524,2018-06-29 10:43:53.375000,-116.84,78.92
228525,2018-06-29 10:43:53.406250,-97.08,78.92
228526,2018-06-29 10:43:53.437500,-87.63,78.92
228527,2018-06-29 10:43:53.468750,-84.72,78.92
228528,2018-06-29 10:43:53.500000,-74.84,78.92
228529,2018-06-29 10:43:53.531250,-53.2,78.48
228530,2018-06-29 10:43:53.562500,-24.15,78.48
228531,2018-06-29 10:43:53.593750,12.26,78.48
228532,2018-06-29 10:43:53.625000,55.78,78.48
228533,2018-06-29 10:43:53.656250,98.33,78.48
228534,2018-06-29 10:43:53.687500,125.98,78.48
228535,2018-06-29 10:43:53.718750,133.84,78.48
228536,2018-06-29 10:43:53.750000,129.4,78.48
228537,2018-06-29 10:43:53.781250,117.77,78.48
228538,2018-06-29 10:43:53.812500,98.23,78.48
228539,2018-06-29 10:43:53.843750,70.82,78.48
228540,2018-06-29 10:43:53.875000,46.35,78.48
228541,2018-06-29 10:43:53.906250,33.2,78.48
228542,2018-06-29 10:43:53.937500,25.73,78.48
228543,2018-06-29 10:43:53.968750,12.76,78.48
228544,2018-06-29 10:43:54.000000,-11.73,78.48
228545,2018-06-29 10:43:54.031250,-30.5,78.48
228546,2018-06-29 10:43:54.062500,-25.91,78.48
228547,2018-06-29 10:43:54.093750,-5.51,78.48
228548,2018-06-29 10:43:54.125000,-19.8,78.48
228549,2018-06-29 10:43:54.156250,-90.89,78.48
228550,2018-06-29 10:43:54.187500,-147.91,78.48
228551,2018-06-29 10:43:54.218750,-95.17,78.48
228552,2018-06-29 10:43:54.250000,70.6,78.48
228553,2018-06-29 10:43:54.281250,242.17,78.48
228554,2018-06-29 10:43:54.312500,336.13,78.48
228555,2018-06-29 10:43:54.343750,294.43,78.48
228556,2018-06-29 10:43:54.375000,141.41,78.48
228557,2018-06-29 10:43:54.406250,5.54,78.48
228558,2018-06-29 10:43:54.437500,-92.28,78.48
228559,2018-06-29 10:43:54.468750,-150.93,78.48
228560,2018-06-29 10:43:54.500000,-166.91,78.48
228561,2018-06-29 10:43:54.531250,-156.39,78.05
228562,2018-06-29 10:43:54.562500,-145.1,78.05
228563,2018-06-29 10:43:54.593750,-129.6,78.05
228564,2018-06-29 10:43:54.625000,-106.97,78.05
228565,2018-06-29 10:43:54.656250,-80.67,78.05
228566,2018-06-29 10:43:54.687500,-62.83,78.05
228567,2018-06-29 10:43:54.718750,-52.93,78.05
228568,2018-06-29 10:43:54.750000,-39.89,78.05
228569,2018-06-29 10:43:54.781250,-23.62,78.05
228570,2018-06-29 10:43:54.812500,-9.57,78.05
228571,2018-06-29 10:43:54.843750,-0.95,78.05
228572,2018-06-29 10:43:54.875000,10.6,78.05
228573,2018-06-29 10:43:54.906250,24.59,78.05
228574,2018-06-29 10:43:54.937500,34.65,78.05
228575,2018-06-29 10:43:54.968750,38.52,78.05
228576,2018-06-29 10:43:55.000000,39.97,78.05
228577,2018-06-29 10:43:55.031250,39.86,78.05
228578,2018-06-29 10:43:55.062500,33.43,78.05
228579,2018-06-29 10:43:55.093750,20.29,78.05
228580,2018-06-29 10:43:55.125000,6.12,78.05
228581,2018-06-29 10:43:55.156250,-0.52,78.05
228582,2018-06-29 10:43:55.187500,3.7,78.05
228583,2018-06-29 10:43:55.218750,11.27,78.05
228584,2018-06-29 10:43:55.250000,10.15,78.05
228585,2018-06-29 10:43:55.281250,2.79,78.05
228586,2018-06-29 10:43:55.312500,12.58,78.05
228587,2018-06-29 10:43:55.343750,58.81,78.05
228588,2018-06-29 10:43:55.375000,124.82,78.05
228589,2018-06-29 10:43:55.406250,164.44,78.05
228590,2018-06-29 10:43:55.437500,145.0,78.05
228591,2018-06-29 10:43:55.468750,73.33,78.05
228592,2018-06-29 10:43:55.500000,-18.44,78.05
228593,2018-06-29 10:43:55.531250,-96.62,77.6
228594,2018-06-29 10:43:55.562500,-138.93,77.6
228595,2018-06-29 10:43:55.593750,-143.76,77.6
228596,2018-06-29 10:43:55.625000,-127.97,77.6
228597,2018-06-29 10:43:55.656250,-107.15,77.6
228598,2018-06-29 10:43:55.687500,-83.74,77.6
228599,2018-06-29 10:43:55.718750,-56.74,77.6
228600,2018-06-29 10:43:55.750000,-30.89,77.6
228601,2018-06-29 10:43:55.781250,-11.76,77.6
228602,2018-06-29 10:43:55.812500,0.28,77.6
228603,2018-06-29 10:43:55.843750,7.39,77.6
228604,2018-06-29 10:43:55.875000,10.61,77.6
228605,2018-06-29 10:43:55.906250,9.85,77.6
228606,2018-06-29 10:43:55.937500,5.19,77.6
228607,2018-06-29 10:43:55.968750,-1.15,77.6
228608,2018-06-29 10:43:56.000000,-5.05,77.6
228609,2018-06-29 10:43:56.031250,-5.16,77.6
228610,2018-06-29 10:43:56.062500,-4.97,77.6
228611,2018-06-29 10:43:56.093750,-7.74,77.6
228612,2018-06-29 10:43:56.125000,-10.73,77.6
228613,2018-06-29 10:43:56.156250,-6.69,77.6
228614,2018-06-29 10:43:56.187500,8.57,77.6
228615,2018-06-29 10:43:56.218750,30.01,77.6
228616,2018-06-29 10:43:56.250000,47.06,77.6
228617,2018-06-29 10:43:56.281250,55.02,77.6
228618,2018-06-29 10:43:56.312500,60.92,77.6
228619,2018-06-29 10:43:56.343750,72.62,77.6
228620,2018-06-29 10:43:56.375000,84.39,77.6
228621,2018-06-29 10:43:56.406250,81.61,77.6
228622,2018-06-29 10:43:56.437500,63.69,77.6
228623,2018-06-29 10:43:56.468750,47.13,77.6
228624,2018-06-29 10:43:56.500000,38.59,77.6
228625,2018-06-29 10:43:56.531250,24.95,77.22
228626,2018-06-29 10:43:56.562500,-4.01,77.22
228627,2018-06-29 10:43:56.593750,-42.66,77.22
228628,2018-06-29 10:43:56.625000,-82.99,77.22
228629,2018-06-29 10:43:56.656250,-117.84,77.22
228630,2018-06-29 10:43:56.687500,-135.53,77.22
228631,2018-06-29 10:43:56.718750,-128.78,77.22
228632,2018-06-29 10:43:56.750000,-108.8,77.22
228633,2018-06-29 10:43:56.781250,-93.62,77.22
228634,2018-06-29 10:43:56.812500,-79.8,77.22
228635,2018-06-29 10:43:56.843750,-47.96,77.22
228636,2018-06-29 10:43:56.875000,8.78,77.22
228637,2018-06-29 10:43:56.906250,67.43,77.22
228638,2018-06-29 10:43:56.937500,107.39,77.22
228639,2018-06-29 10:43:56.968750,131.79,77.22
228640,2018-06-29 10:43:57.000000,154.76,77.22
228641,2018-06-29 10:43:57.031250,176.17,77.22
228642,2018-06-29 10:43:57.062500,179.71,77.22
228643,2018-06-29 10:43:57.093750,164.01,77.22
228644,2018-06-29 10:43:57.125000,146.33,77.22
228645,2018-06-29 10:43:57.156250,151.66,77.22
228646,2018-06-29 10:43:57.187500,172.75,77.22
228647,2018-06-29 10:43:57.218750,174.11,77.22
228648,2018-06-29 10:43:57.250000,116.32,77.22
228649,2018-06-29 10:43:57.281250,-24.25,77.22
228650,2018-06-29 10:43:57.312500,-139.95,77.22
228651,2018-06-29 10:43:57.343750,-170.11,77.22
228652,2018-06-29 10:43:57.375000,-162.05,77.22
228653,2018-06-29 10:43:57.406250,-149.25,77.22
228654,2018-06-29 10:43:57.437500,-122.09,77.22
228655,2018-06-29 10:43:57.468750,-90.62,77.22
228656,2018-06-29 10:43:57.500000,-74.59,77.22
228657,2018-06-29 10:43:57.531250,-70.75,76.87
228658,2018-06-29 10:43:57.562500,-62.99,76.87
228659,2018-06-29 10:43:57.593750,-34.95,76.87
228660,2018-06-29 10:43:57.625000,19.17,76.87
228661,2018-06-29 10:43:57.656250,84.79,76.87
228662,2018-06-29 10:43:57.687500,118.77,76.87
228663,2018-06-29 10:43:57.718750,90.63,76.87
228664,2018-06-29 10:43:57.750000,29.73,76.87
228665,2018-06-29 10:43:57.781250,-23.15,76.87
228666,2018-06-29 10:43:57.812500,-56.93,76.87
228667,2018-06-29 10:43:57.843750,-73.56,76.87
228668,2018-06-29 10:43:57.875000,-74.04,76.87
228669,2018-06-29 10:43:57.906250,-69.6,76.87
228670,2018-06-29 10:43:57.937500,-71.24,76.87
228671,2018-06-29 10:43:57.968750,-79.97,76.87
228672,2018-06-29 10:43:58.000000,-84.21,76.87
228673,2018-06-29 10:43:58.031250,-72.31,76.87
228674,2018-06-29 10:43:58.062500,-50.11,76.87
228675,2018-06-29 10:43:58.093750,-29.9,76.87
228676,2018-06-29 10:43:58.125000,-16.24,76.87
228677,2018-06-29 10:43:58.156250,-5.43,76.87
228678,2018-06-29 10:43:58.187500,7.21,76.87
228679,2018-06-29 10:43:58.218750,28.58,76.87
228680,2018-06-29 10:43:58.250000,60.07,76.87
228681,2018-06-29 10:43:58.281250,85.78,76.87
228682,2018-06-29 10:43:58.312500,85.08,76.87
228683,2018-06-29 10:43:58.343750,57.44,76.87
228684,2018-06-29 10:43:58.375000,21.24,76.87
228685,2018-06-29 10:43:58.406250,-8.81,76.87
228686,2018-06-29 10:43:58.437500,-30.16,76.87
228687,2018-06-29 10:43:58.468750,-43.35,76.87
228688,2018-06-29 10:43:58.500000,-47.65,76.87
228689,2018-06-29 10:43:58.531250,-44.38,76.55
228690,2018-06-29 10:43:58.562500,-36.87,76.55
228691,2018-06-29 10:43:58.593750,-27.89,76.55
228692,2018-06-29 10:43:58.625000,-18.68,76.55
228693,2018-06-29 10:43:58.656250,-9.74,76.55
228694,2018-06-29 10:43:58.687500,0.45,76.55
228695,2018-06-29 10:43:58.718750,15.13,76.55
228696,2018-06-29 10:43:58.750000,32.07,76.55
228697,2018-06-29 10:43:58.781250,41.18,76.55
228698,2018-06-29 10:43:58.812500,39.84,76.55
228699,2018-06-29 10:43:58.843750,43.1,76.55
228700,2018-06-29 10:43:58.875000,60.7,76.55
228701,2018-06-29 10:43:58.906250,73.65,76.55
228702,2018-06-29 10:43:58.937500,54.67,76.55
228703,2018-06-29 10:43:58.968750,0.17,76.55
228704,2018-06-29 10:43:59.000000,-71.84,76.55
228705,2018-06-29 10:43:59.031250,-136.73,76.55
228706,2018-06-29 10:43:59.062500,-168.55,76.55
228707,2018-06-29 10:43:59.093750,-155.31,76.55
228708,2018-06-29 10:43:59.125000,-114.83,76.55
228709,2018-06-29 10:43:59.156250,-76.31,76.55
228710,2018-06-29 10:43:59.187500,-49.18,76.55
228711,2018-06-29 10:43:59.218750,-22.3,76.55
228712,2018-06-29 10:43:59.250000,12.1,76.55
228713,2018-06-29 10:43:59.281250,45.64,76.55
228714,2018-06-29 10:43:59.312500,64.16,76.55
228715,2018-06-29 10:43:59.343750,66.71,76.55
228716,2018-06-29 10:43:59.375000,66.99,76.55
228717,2018-06-29 10:43:59.406250,73.03,76.55
228718,2018-06-29 10:43:59.437500,76.94,76.55
228719,2018-06-29 10:43:59.468750,70.15,76.55
228720,2018-06-29 10:43:59.500000,55.25,76.55
228721,2018-06-29 10:43:59.531250,37.9,76.53
228722,2018-06-29 10:43:59.562500,20.93,76.53
228723,2018-06-29 10:43:59.593750,8.36,76.53
228724,2018-06-29 10:43:59.625000,3.5,76.53
228725,2018-06-29 10:43:59.656250,2.92,76.53
228726,2018-06-29 10:43:59.687500,1.67,76.53
228727,2018-06-29 10:43:59.718750,1.89,76.53
228728,2018-06-29 10:43:59.750000,9.15,76.53
228729,2018-06-29 10:43:59.781250,22.24,76.53
228730,2018-06-29 10:43:59.812500,32.3,76.53
228731,2018-06-29 10:43:59.843750,32.87,76.53
228732,2018-06-29 10:43:59.875000,28.13,76.53
228733,2018-06-29 10:43:59.906250,28.4,76.53
228734,2018-06-29 10:43:59.937500,37.21,76.53
228735,2018-06-29 10:43:59.968750,45.8,76.53
228736,2018-06-29 10:44:00.000000,45.54,76.53
228737,2018-06-29 10:44:00.031250,42.56,76.53
228738,2018-06-29 10:44:00.062500,53.67,76.53
228739,2018-06-29 10:44:00.093750,87.94,76.53
228740,2018-06-29 10:44:00.125000,132.8,76.53
228741,2018-06-29 10:44:00.156250,156.77,76.53
228742,2018-06-29 10:44:00.187500,133.63,76.53
228743,2018-06-29 10:44:00.218750,67.84,76.53
228744,2018-06-29 10:44:00.250000,-9.53,76.53
228745,2018-06-29 10:44:00.281250,-71.25,76.53
228746,2018-06-29 10:44:00.312500,-108.69,76.53
228747,2018-06-29 10:44:00.343750,-122.65,76.53
228748,2018-06-29 10:44:00.375000,-116.12,76.53
228749,2018-06-29 10:44:00.406250,-96.07,76.53
228750,2018-06-29 10:44:00.437500,-73.32,76.53
228751,2018-06-29 10:44:00.468750,-55.06,76.53
228752,2018-06-29 10:44:00.500000,-43.48,76.53
228753,2018-06-29 10:44:00.531250,-35.64,76.55
228754,2018-06-29 10:44:00.562500,-25.69,76.55
228755,2018-06-29 10:44:00.593750,-12.27,76.55
228756,2018-06-29 10:44:00.625000,-7.96,76.55
228757,2018-06-29 10:44:00.656250,-32.12,76.55
228758,2018-06-29 10:44:00.687500,-68.17,76.55
228759,2018-06-29 10:44:00.718750,-80.5,76.55
228760,2018-06-29 10:44:00.750000,-67.11,76.55
228761,2018-06-29 10:44:00.781250,-47.19,76.55
228762,2018-06-29 10:44:00.812500,-31.01,76.55
228763,2018-06-29 10:44:00.843750,-21.94,76.55
228764,2018-06-29 10:44:00.875000,-20.99,76.55
228765,2018-06-29 10:44:00.906250,-16.55,76.55
228766,2018-06-29 10:44:00.937500,8.78,76.55
228767,2018-06-29 10:44:00.968750,53.13,76.55
228768,2018-06-29 10:44:01.000000,95.51,76.55
228769,2018-06-29 10:44:01.031250,121.82,76.55
228770,2018-06-29 10:44:01.062500,126.99,76.55
228771,2018-06-29 10:44:01.093750,108.81,76.55
228772,2018-06-29 10:44:01.125000,64.39,76.55
228773,2018-06-29 10:44:01.156250,1.23,76.55
228774,2018-06-29 10:44:01.187500,-60.7,76.55
228775,2018-06-29 10:44:01.218750,-97.44,76.55
228776,2018-06-29 10:44:01.250000,-96.39,76.55
228777,2018-06-29 10:44:01.281250,-65.53,76.55
228778,2018-06-29 10:44:01.312500,-24.91,76.55
228779,2018-06-29 10:44:01.343750,8.79,76.55
228780,2018-06-29 10:44:01.375000,34.28,76.55
228781,2018-06-29 10:44:01.406250,54.3,76.55
228782,2018-06-29 10:44:01.437500,69.6,76.55
228783,2018-06-29 10:44:01.468750,75.32,76.55
228784,2018-06-29 10:44:01.500000,61.85,76.55
228785,2018-06-29 10:44:01.531250,40.19,76.57
228786,2018-06-29 10:44:01.562500,17.08,76.57
228787,2018-06-29 10:44:01.593750,-11.86,76.57
228788,2018-06-29 10:44:01.625000,-43.53,76.57
228789,2018-06-29 10:44:01.656250,-67.2,76.57
228790,2018-06-29 10:44:01.687500,-81.3,76.57
228791,2018-06-29 10:44:01.718750,-90.54,76.57
228792,2018-06-29 10:44:01.750000,-90.38,76.57
228793,2018-06-29 10:44:01.781250,-77.34,76.57
228794,2018-06-29 10:44:01.812500,-52.14,76.57
228795,2018-06-29 10:44:01.843750,-18.5,76.57
228796,2018-06-29 10:44:01.875000,20.91,76.57
228797,2018-06-29 10:44:01.906250,62.04,76.57
228798,2018-06-29 10:44:01.937500,96.82,76.57
228799,2018-06-29 10:44:01.968750,110.94,76.57
228800,2018-06-29 10:44:02.000000,100.22,76.57
228801,2018-06-29 10:44:02.031250,72.08,76.57
228802,2018-06-29 10:44:02.062500,36.79,76.57
228803,2018-06-29 10:44:02.093750,0.44,76.57
228804,2018-06-29 10:44:02.125000,-33.19,76.57
228805,2018-06-29 10:44:02.156250,-60.3,76.57
228806,2018-06-29 10:44:02.187500,-80.61,76.57
228807,2018-06-29 10:44:02.218750,-98.36,76.57
228808,2018-06-29 10:44:02.250000,-118.17,76.57
228809,2018-06-29 10:44:02.281250,-139.15,76.57
228810,2018-06-29 10:44:02.312500,-153.13,76.57
228811,2018-06-29 10:44:02.343750,-151.34,76.57
228812,2018-06-29 10:44:02.375000,-135.15,76.57
228813,2018-06-29 10:44:02.406250,-113.72,76.57
228814,2018-06-29 10:44:02.437500,-90.49,76.57
228815,2018-06-29 10:44:02.468750,-58.69,76.57
228816,2018-06-29 10:44:02.500000,-12.53,76.57
228817,2018-06-29 10:44:02.531250,42.93,76.6
228818,2018-06-29 10:44:02.562500,94.88,76.6
228819,2018-06-29 10:44:02.593750,134.1,76.6
228820,2018-06-29 10:44:02.625000,161.53,76.6
228821,2018-06-29 10:44:02.656250,182.17,76.6
228822,2018-06-29 10:44:02.687500,195.13,76.6
228823,2018-06-29 10:44:02.718750,192.41,76.6
228824,2018-06-29 10:44:02.750000,165.64,76.6
228825,2018-06-29 10:44:02.781250,114.37,76.6
228826,2018-06-29 10:44:02.812500,49.92,76.6
228827,2018-06-29 10:44:02.843750,-10.18,76.6
228828,2018-06-29 10:44:02.875000,-53.88,76.6
228829,2018-06-29 10:44:02.906250,-80.43,76.6
228830,2018-06-29 10:44:02.937500,-95.78,76.6
228831,2018-06-29 10:44:02.968750,-105.08,76.6
228832,2018-06-29 10:44:03.000000,-109.89,76.6
228833,2018-06-29 10:44:03.031250,-110.37,76.6
228834,2018-06-29 10:44:03.062500,-108.78,76.6
228835,2018-06-29 10:44:03.093750,-108.35,76.6
228836,2018-06-29 10:44:03.125000,-107.22,76.6
228837,2018-06-29 10:44:03.156250,-96.54,76.6
228838,2018-06-29 10:44:03.187500,-70.49,76.6
228839,2018-06-29 10:44:03.218750,-34.79,76.6
228840,2018-06-29 10:44:03.250000,-0.9,76.6
228841,2018-06-29 10:44:03.281250,23.71,76.6
228842,2018-06-29 10:44:03.312500,37.73,76.6
228843,2018-06-29 10:44:03.343750,43.41,76.6
228844,2018-06-29 10:44:03.375000,42.9,76.6
228845,2018-06-29 10:44:03.406250,36.74,76.6
228846,2018-06-29 10:44:03.437500,26.69,76.6
228847,2018-06-29 10:44:03.468750,16.75,76.6
228848,2018-06-29 10:44:03.500000,8.07,76.6
228849,2018-06-29 10:44:03.531250,-2.37,76.62
228850,2018-06-29 10:44:03.562500,-14.8,76.62
228851,2018-06-29 10:44:03.593750,-23.97,76.62
228852,2018-06-29 10:44:03.625000,-27.33,76.62
228853,2018-06-29 10:44:03.656250,-30.52,76.62
228854,2018-06-29 10:44:03.687500,-38.35,76.62
228855,2018-06-29 10:44:03.718750,-46.2,76.62
228856,2018-06-29 10:44:03.750000,-46.36,76.62
228857,2018-06-29 10:44:03.781250,-36.68,76.62
228858,2018-06-29 10:44:03.812500,-21.25,76.62
228859,2018-06-29 10:44:03.843750,-11.36,76.62
228860,2018-06-29 10:44:03.875000,-17.51,76.62
228861,2018-06-29 10:44:03.906250,-27.5,76.62
228862,2018-06-29 10:44:03.937500,-14.97,76.62
228863,2018-06-29 10:44:03.968750,19.59,76.62
228864,2018-06-29 10:44:04.000000,47.52,76.62
228865,2018-06-29 10:44:04.031250,54.71,76.62
228866,2018-06-29 10:44:04.062500,51.61,76.62
228867,2018-06-29 10:44:04.093750,47.18,76.62
228868,2018-06-29 10:44:04.125000,42.87,76.62
228869,2018-06-29 10:44:04.156250,42.84,76.62
228870,2018-06-29 10:44:04.187500,50.71,76.62
228871,2018-06-29 10:44:04.218750,61.85,76.62
228872,2018-06-29 10:44:04.250000,68.15,76.62
228873,2018-06-29 10:44:04.281250,70.05,76.62
228874,2018-06-29 10:44:04.312500,78.1,76.62
228875,2018-06-29 10:44:04.343750,95.74,76.62
228876,2018-06-29 10:44:04.375000,110.04,76.62
228877,2018-06-29 10:44:04.406250,108.1,76.62
228878,2018-06-29 10:44:04.437500,93.71,76.62
228879,2018-06-29 10:44:04.468750,82.65,76.62
228880,2018-06-29 10:44:04.500000,82.99,76.62
228881,2018-06-29 10:44:04.531250,91.64,76.63
228882,2018-06-29 10:44:04.562500,97.93,76.63
228883,2018-06-29 10:44:04.593750,93.23,76.63
228884,2018-06-29 10:44:04.625000,73.77,76.63
228885,2018-06-29 10:44:04.656250,44.93,76.63
228886,2018-06-29 10:44:04.687500,25.6,76.63
228887,2018-06-29 10:44:04.718750,28.37,76.63
228888,2018-06-29 10:44:04.750000,50.72,76.63
228889,2018-06-29 10:44:04.781250,74.74,76.63
228890,2018-06-29 10:44:04.812500,94.91,76.63
228891,2018-06-29 10:44:04.843750,112.29,76.63
228892,2018-06-29 10:44:04.875000,124.05,76.63
228893,2018-06-29 10:44:04.906250,122.79,76.63
228894,2018-06-29 10:44:04.937500,104.0,76.63
228895,2018-06-29 10:44:04.968750,85.45,76.63
228896,2018-06-29 10:44:05.000000,47.47,76.63
228897,2018-06-29 10:44:05.031250,-16.48,76.63
228898,2018-06-29 10:44:05.062500,-83.91,76.63
228899,2018-06-29 10:44:05.093750,-154.24,76.63
228900,2018-06-29 10:44:05.125000,-201.84,76.63
228901,2018-06-29 10:44:05.156250,-204.13,76.63
228902,2018-06-29 10:44:05.187500,-178.1,76.63
228903,2018-06-29 10:44:05.218750,-145.93,76.63
228904,2018-06-29 10:44:05.250000,-112.2,76.63
228905,2018-06-29 10:44:05.281250,-90.64,76.63
228906,2018-06-29 10:44:05.312500,-84.81,76.63
228907,2018-06-29 10:44:05.343750,-82.99,76.63
228908,2018-06-29 10:44:05.375000,-72.23,76.63
228909,2018-06-29 10:44:05.406250,-54.13,76.63
228910,2018-06-29 10:44:05.437500,-30.69,76.63
228911,2018-06-29 10:44:05.468750,-2.75,76.63
228912,2018-06-29 10:44:05.500000,17.49,76.63
228913,2018-06-29 10:44:05.531250,19.84,76.62
228914,2018-06-29 10:44:05.562500,10.88,76.62
228915,2018-06-29 10:44:05.593750,6.64,76.62
228916,2018-06-29 10:44:05.625000,9.09,76.62
228917,2018-06-29 10:44:05.656250,13.26,76.62
228918,2018-06-29 10:44:05.687500,21.78,76.62
228919,2018-06-29 10:44:05.718750,38.11,76.62
228920,2018-06-29 10:44:05.750000,50.92,76.62
228921,2018-06-29 10:44:05.781250,49.44,76.62
228922,2018-06-29 10:44:05.812500,43.32,76.62
228923,2018-06-29 10:44:05.843750,48.22,76.62
228924,2018-06-29 10:44:05.875000,56.78,76.62
228925,2018-06-29 10:44:05.906250,44.35,76.62
228926,2018-06-29 10:44:05.937500,4.38,76.62
228927,2018-06-29 10:44:05.968750,-39.28,76.62
228928,2018-06-29 10:44:06.000000,-41.72,76.62
228929,2018-06-29 10:44:06.031250,17.38,76.62
228930,2018-06-29 10:44:06.062500,101.29,76.62
228931,2018-06-29 10:44:06.093750,159.68,76.62
228932,2018-06-29 10:44:06.125000,180.68,76.62
228933,2018-06-29 10:44:06.156250,185.69,76.62
228934,2018-06-29 10:44:06.187500,191.12,76.62
228935,2018-06-29 10:44:06.218750,191.58,76.62
228936,2018-06-29 10:44:06.250000,167.12,76.62
228937,2018-06-29 10:44:06.281250,103.57,76.62
228938,2018-06-29 10:44:06.312500,6.8,76.62
228939,2018-06-29 10:44:06.343750,-99.25,76.62
228940,2018-06-29 10:44:06.375000,-195.58,76.62
228941,2018-06-29 10:44:06.406250,-278.54,76.62
228942,2018-06-29 10:44:06.437500,-345.45,76.62
228943,2018-06-29 10:44:06.468750,-383.34,76.62
228944,2018-06-29 10:44:06.500000,-381.83,76.62
228945,2018-06-29 10:44:06.531250,-353.08,76.65
228946,2018-06-29 10:44:06.562500,-328.16,76.65
228947,2018-06-29 10:44:06.593750,-325.08,76.65
228948,2018-06-29 10:44:06.625000,-326.09,76.65
228949,2018-06-29 10:44:06.656250,-305.93,76.65
228950,2018-06-29 10:44:06.687500,-265.94,76.65
228951,2018-06-29 10:44:06.718750,-226.44,76.65
228952,2018-06-29 10:44:06.750000,-199.37,76.65
228953,2018-06-29 10:44:06.781250,-186.1,76.65
228954,2018-06-29 10:44:06.812500,-183.43,76.65
228955,2018-06-29 10:44:06.843750,-181.89,76.65
228956,2018-06-29 10:44:06.875000,-167.48,76.65
228957,2018-06-29 10:44:06.906250,-129.55,76.65
228958,2018-06-29 10:44:06.937500,-73.21,76.65
228959,2018-06-29 10:44:06.968750,-10.33,76.65
228960,2018-06-29 10:44:07.000000,43.93,76.65
228961,2018-06-29 10:44:07.031250,88.95,76.65
228962,2018-06-29 10:44:07.062500,135.24,76.65
228963,2018-06-29 10:44:07.093750,195.3,76.65
228964,2018-06-29 10:44:07.125000,265.77,76.65
228965,2018-06-29 10:44:07.156250,324.35,76.65
228966,2018-06-29 10:44:07.187500,368.16,76.65
228967,2018-06-29 10:44:07.218750,406.1,76.65
228968,2018-06-29 10:44:07.250000,456.17,76.65
228969,2018-06-29 10:44:07.281250,488.83,76.65
228970,2018-06-29 10:44:07.312500,463.63,76.65
228971,2018-06-29 10:44:07.343750,380.27,76.65
228972,2018-06-29 10:44:07.375000,304.1,76.65
228973,2018-06-29 10:44:07.406250,298.42,76.65
228974,2018-06-29 10:44:07.437500,346.45,76.65
228975,2018-06-29 10:44:07.468750,419.03,76.65
228976,2018-06-29 10:44:07.500000,371.61,76.65
228977,2018-06-29 10:44:07.531250,162.18,76.62
228978,2018-06-29 10:44:07.562500,-30.96,76.62
228979,2018-06-29 10:44:07.593750,-169.17,76.62
228980,2018-06-29 10:44:07.625000,-270.33,76.62
228981,2018-06-29 10:44:07.656250,-314.71,76.62
228982,2018-06-29 10:44:07.687500,-294.79,76.62
228983,2018-06-29 10:44:07.718750,-261.29,76.62
228984,2018-06-29 10:44:07.750000,-249.24,76.62
228985,2018-06-29 10:44:07.781250,-258.17,76.62
228986,2018-06-29 10:44:07.812500,-250.19,76.62
228987,2018-06-29 10:44:07.843750,-221.95,76.62
228988,2018-06-29 10:44:07.875000,-180.82,76.62
228989,2018-06-29 10:44:07.906250,-123.38,76.62
228990,2018-06-29 10:44:07.937500,-45.67,76.62
228991,2018-06-29 10:44:07.968750,40.47,76.62
228992,2018-06-29 10:44:08.000000,106.79,76.62
228993,2018-06-29 10:44:08.031250,136.47,76.62
228994,2018-06-29 10:44:08.062500,127.22,76.62
228995,2018-06-29 10:44:08.093750,103.85,76.62
228996,2018-06-29 10:44:08.125000,78.17,76.62
228997,2018-06-29 10:44:08.156250,38.73,76.62
228998,2018-06-29 10:44:08.187500,7.84,76.62
228999,2018-06-29 10:44:08.218750,-15.88,76.62
229000,2018-06-29 10:44:08.250000,-47.32,76.62
229001,2018-06-29 10:44:08.281250,-75.29,76.62
229002,2018-06-29 10:44:08.312500,-79.18,76.62
229003,2018-06-29 10:44:08.343750,-70.2,76.62
229004,2018-06-29 10:44:08.375000,-75.07,76.62
229005,2018-06-29 10:44:08.406250,-104.65,76.62
229006,2018-06-29 10:44:08.437500,-129.63,76.62
229007,2018-06-29 10:44:08.468750,-108.45,76.62
229008,2018-06-29 10:44:08.500000,-35.86,76.62
229009,2018-06-29 10:44:08.531250,53.06,76.57
229010,2018-06-29 10:44:08.562500,115.62,76.57
229011,2018-06-29 10:44:08.593750,150.03,76.57
229012,2018-06-29 10:44:08.625000,169.65,76.57
229013,2018-06-29 10:44:08.656250,174.13,76.57
229014,2018-06-29 10:44:08.687500,151.97,76.57
229015,2018-06-29 10:44:08.718750,92.33,76.57
229016,2018-06-29 10:44:08.750000,-1.08,76.57
229017,2018-06-29 10:44:08.781250,-91.73,76.57
229018,2018-06-29 10:44:08.812500,-135.32,76.57
229019,2018-06-29 10:44:08.843750,-128.94,76.57
229020,2018-06-29 10:44:08.875000,-113.57,76.57
229021,2018-06-29 10:44:08.906250,-127.97,76.57
229022,2018-06-29 10:44:08.937500,-174.6,76.57
229023,2018-06-29 10:44:08.968750,-227.69,76.57
229024,2018-06-29 10:44:09.000000,-254.07,76.57
229025,2018-06-29 10:44:09.031250,-235.19,76.57
229026,2018-06-29 10:44:09.062500,-181.72,76.57
229027,2018-06-29 10:44:09.093750,-121.82,76.57
229028,2018-06-29 10:44:09.125000,-70.64,76.57
229029,2018-06-29 10:44:09.156250,-23.89,76.57
229030,2018-06-29 10:44:09.187500,22.31,76.57
229031,2018-06-29 10:44:09.218750,67.61,76.57
229032,2018-06-29 10:44:09.250000,118.98,76.57
229033,2018-06-29 10:44:09.281250,174.74,76.57
229034,2018-06-29 10:44:09.312500,210.06,76.57
229035,2018-06-29 10:44:09.343750,205.08,76.57
229036,2018-06-29 10:44:09.375000,174.76,76.57
229037,2018-06-29 10:44:09.406250,147.63,76.57
229038,2018-06-29 10:44:09.437500,136.08,76.57
229039,2018-06-29 10:44:09.468750,139.24,76.57
229040,2018-06-29 10:44:09.500000,149.68,76.57
229041,2018-06-29 10:44:09.531250,151.58,76.53
229042,2018-06-29 10:44:09.562500,130.5,76.53
229043,2018-06-29 10:44:09.593750,95.01,76.53
229044,2018-06-29 10:44:09.625000,60.06,76.53
229045,2018-06-29 10:44:09.656250,28.73,76.53
229046,2018-06-29 10:44:09.687500,-4.88,76.53
229047,2018-06-29 10:44:09.718750,-35.55,76.53
229048,2018-06-29 10:44:09.750000,-51.7,76.53
229049,2018-06-29 10:44:09.781250,-61.51,76.53
229050,2018-06-29 10:44:09.812500,-80.84,76.53
229051,2018-06-29 10:44:09.843750,-116.32,76.53
229052,2018-06-29 10:44:09.875000,-139.74,76.53
229053,2018-06-29 10:44:09.906250,-128.19,76.53
229054,2018-06-29 10:44:09.937500,-78.46,76.53
229055,2018-06-29 10:44:09.968750,-6.49,76.53
229056,2018-06-29 10:44:10.000000,74.71,76.53
229057,2018-06-29 10:44:10.031250,165.42,76.53
229058,2018-06-29 10:44:10.062500,257.33,76.53
229059,2018-06-29 10:44:10.093750,350.08,76.53
229060,2018-06-29 10:44:10.125000,348.45,76.53
229061,2018-06-29 10:44:10.156250,201.32,76.53
229062,2018-06-29 10:44:10.187500,41.8,76.53
229063,2018-06-29 10:44:10.218750,-69.71,76.53
229064,2018-06-29 10:44:10.250000,-138.7,76.53
229065,2018-06-29 10:44:10.281250,-165.63,76.53
229066,2018-06-29 10:44:10.312500,-155.19,76.53
229067,2018-06-29 10:44:10.343750,-138.96,76.53
229068,2018-06-29 10:44:10.375000,-134.45,76.53
229069,2018-06-29 10:44:10.406250,-141.06,76.53
229070,2018-06-29 10:44:10.437500,-137.78,76.53
229071,2018-06-29 10:44:10.468750,-124.96,76.53
229072,2018-06-29 10:44:10.500000,-114.32,76.53
229073,2018-06-29 10:44:10.531250,-113.55,76.52
229074,2018-06-29 10:44:10.562500,-115.22,76.52
229075,2018-06-29 10:44:10.593750,-105.1,76.52
229076,2018-06-29 10:44:10.625000,-81.27,76.52
229077,2018-06-29 10:44:10.656250,-43.73,76.52
229078,2018-06-29 10:44:10.687500,2.7,76.52
229079,2018-06-29 10:44:10.718750,46.37,76.52
229080,2018-06-29 10:44:10.750000,75.61,76.52
229081,2018-06-29 10:44:10.781250,93.04,76.52
229082,2018-06-29 10:44:10.812500,100.2,76.52
229083,2018-06-29 10:44:10.843750,90.73,76.52
229084,2018-06-29 10:44:10.875000,64.6,76.52
229085,2018-06-29 10:44:10.906250,29.51,76.52
229086,2018-06-29 10:44:10.937500,-12.64,76.52
229087,2018-06-29 10:44:10.968750,-45.09,76.52
229088,2018-06-29 10:44:11.000000,-46.63,76.52
229089,2018-06-29 10:44:11.031250,-21.05,76.52
229090,2018-06-29 10:44:11.062500,7.95,76.52
229091,2018-06-29 10:44:11.093750,24.73,76.52
229092,2018-06-29 10:44:11.125000,27.63,76.52
229093,2018-06-29 10:44:11.156250,18.99,76.52
229094,2018-06-29 10:44:11.187500,3.71,76.52
229095,2018-06-29 10:44:11.218750,-9.5,76.52
229096,2018-06-29 10:44:11.250000,-16.02,76.52
229097,2018-06-29 10:44:11.281250,-19.8,76.52
229098,2018-06-29 10:44:11.312500,-22.59,76.52
229099,2018-06-29 10:44:11.343750,-17.65,76.52
229100,2018-06-29 10:44:11.375000,0.38,76.52
229101,2018-06-29 10:44:11.406250,18.26,76.52
229102,2018-06-29 10:44:11.437500,22.9,76.52
229103,2018-06-29 10:44:11.468750,21.4,76.52
229104,2018-06-29 10:44:11.500000,30.3,76.52
229105,2018-06-29 10:44:11.531250,52.61,76.55
229106,2018-06-29 10:44:11.562500,76.23,76.55
229107,2018-06-29 10:44:11.593750,92.4,76.55
229108,2018-06-29 10:44:11.625000,82.48,76.55
229109,2018-06-29 10:44:11.656250,44.72,76.55
229110,2018-06-29 10:44:11.687500,10.35,76.55
229111,2018-06-29 10:44:11.718750,-8.88,76.55
229112,2018-06-29 10:44:11.750000,-22.3,76.55
229113,2018-06-29 10:44:11.781250,-39.22,76.55
229114,2018-06-29 10:44:11.812500,-58.44,76.55
229115,2018-06-29 10:44:11.843750,-72.68,76.55
229116,2018-06-29 10:44:11.875000,-77.5,76.55
229117,2018-06-29 10:44:11.906250,-79.27,76.55
229118,2018-06-29 10:44:11.937500,-77.94,76.55
229119,2018-06-29 10:44:11.968750,-69.08,76.55
229120,2018-06-29 10:44:12.000000,-46.61,76.55
229121,2018-06-29 10:44:12.031250,-18.18,76.55
229122,2018-06-29 10:44:12.062500,-2.39,76.55
229123,2018-06-29 10:44:12.093750,-6.15,76.55
229124,2018-06-29 10:44:12.125000,-16.93,76.55
229125,2018-06-29 10:44:12.156250,-13.38,76.55
229126,2018-06-29 10:44:12.187500,11.87,76.55
229127,2018-06-29 10:44:12.218750,40.56,76.55
229128,2018-06-29 10:44:12.250000,35.21,76.55
229129,2018-06-29 10:44:12.281250,-14.47,76.55
229130,2018-06-29 10:44:12.312500,-55.76,76.55
229131,2018-06-29 10:44:12.343750,-58.69,76.55
229132,2018-06-29 10:44:12.375000,-45.72,76.55
229133,2018-06-29 10:44:12.406250,-34.7,76.55
229134,2018-06-29 10:44:12.437500,-15.93,76.55
229135,2018-06-29 10:44:12.468750,15.27,76.55
229136,2018-06-29 10:44:12.500000,45.31,76.55
229137,2018-06-29 10:44:12.531250,62.99,76.65
229138,2018-06-29 10:44:12.562500,77.95,76.65
229139,2018-06-29 10:44:12.593750,93.28,76.65
229140,2018-06-29 10:44:12.625000,94.78,76.65
229141,2018-06-29 10:44:12.656250,76.03,76.65
229142,2018-06-29 10:44:12.687500,48.42,76.65
229143,2018-06-29 10:44:12.718750,21.43,76.65
229144,2018-06-29 10:44:12.750000,-7.51,76.65
229145,2018-06-29 10:44:12.781250,-34.94,76.65
229146,2018-06-29 10:44:12.812500,-44.6,76.65
229147,2018-06-29 10:44:12.843750,-25.0,76.65
229148,2018-06-29 10:44:12.875000,18.0,76.65
229149,2018-06-29 10:44:12.906250,59.36,76.65
229150,2018-06-29 10:44:12.937500,74.87,76.65
229151,2018-06-29 10:44:12.968750,59.61,76.65
229152,2018-06-29 10:44:13.000000,27.82,76.65
229153,2018-06-29 10:44:13.031250,-0.9,76.65
229154,2018-06-29 10:44:13.062500,-16.49,76.65
229155,2018-06-29 10:44:13.093750,-21.62,76.65
229156,2018-06-29 10:44:13.125000,-19.13,76.65
229157,2018-06-29 10:44:13.156250,-6.48,76.65
229158,2018-06-29 10:44:13.187500,8.83,76.65
229159,2018-06-29 10:44:13.218750,10.76,76.65
229160,2018-06-29 10:44:13.250000,-5.93,76.65
229161,2018-06-29 10:44:13.281250,-28.01,76.65
229162,2018-06-29 10:44:13.312500,-37.6,76.65
229163,2018-06-29 10:44:13.343750,-24.84,76.65
229164,2018-06-29 10:44:13.375000,7.55,76.65
229165,2018-06-29 10:44:13.406250,35.63,76.65
229166,2018-06-29 10:44:13.437500,34.75,76.65
229167,2018-06-29 10:44:13.468750,4.57,76.65
229168,2018-06-29 10:44:13.500000,-29.87,76.65
229169,2018-06-29 10:44:13.531250,-50.43,76.82
229170,2018-06-29 10:44:13.562500,-54.21,76.82
229171,2018-06-29 10:44:13.593750,-39.3,76.82
229172,2018-06-29 10:44:13.625000,-10.07,76.82
229173,2018-06-29 10:44:13.656250,35.37,76.82
229174,2018-06-29 10:44:13.687500,72.75,76.82
229175,2018-06-29 10:44:13.718750,69.36,76.82
229176,2018-06-29 10:44:13.750000,32.26,76.82
229177,2018-06-29 10:44:13.781250,-22.4,76.82
229178,2018-06-29 10:44:13.812500,-75.11,76.82
229179,2018-06-29 10:44:13.843750,-108.67,76.82
229180,2018-06-29 10:44:13.875000,-116.5,76.82
229181,2018-06-29 10:44:13.906250,-109.17,76.82
229182,2018-06-29 10:44:13.937500,-100.13,76.82
229183,2018-06-29 10:44:13.968750,-93.35,76.82
229184,2018-06-29 10:44:14.000000,-77.39,76.82
229185,2018-06-29 10:44:14.031250,-54.06,76.82
229186,2018-06-29 10:44:14.062500,-49.21,76.82
229187,2018-06-29 10:44:14.093750,-79.67,76.82
229188,2018-06-29 10:44:14.125000,-122.66,76.82
229189,2018-06-29 10:44:14.156250,-135.86,76.82
229190,2018-06-29 10:44:14.187500,-92.62,76.82
229191,2018-06-29 10:44:14.218750,7.09,76.82
229192,2018-06-29 10:44:14.250000,129.9,76.82
229193,2018-06-29 10:44:14.281250,217.88,76.82
229194,2018-06-29 10:44:14.312500,234.76,76.82
229195,2018-06-29 10:44:14.343750,196.65,76.82
229196,2018-06-29 10:44:14.375000,144.1,76.82
229197,2018-06-29 10:44:14.406250,99.17,76.82
229198,2018-06-29 10:44:14.437500,61.88,76.82
229199,2018-06-29 10:44:14.468750,34.12,76.82
229200,2018-06-29 10:44:14.500000,16.66,76.82
229201,2018-06-29 10:44:14.531250,2.86,77.05
229202,2018-06-29 10:44:14.562500,-22.16,77.05
229203,2018-06-29 10:44:14.593750,-59.68,77.05
229204,2018-06-29 10:44:14.625000,-100.9,77.05
229205,2018-06-29 10:44:14.656250,-134.33,77.05
229206,2018-06-29 10:44:14.687500,-121.69,77.05
229207,2018-06-29 10:44:14.718750,-66.64,77.05
229208,2018-06-29 10:44:14.750000,-10.83,77.05
229209,2018-06-29 10:44:14.781250,17.41,77.05
229210,2018-06-29 10:44:14.812500,25.62,77.05
229211,2018-06-29 10:44:14.843750,39.84,77.05
229212,2018-06-29 10:44:14.875000,82.92,77.05
229213,2018-06-29 10:44:14.906250,148.0,77.05
229214,2018-06-29 10:44:14.937500,203.49,77.05
229215,2018-06-29 10:44:14.968750,218.39,77.05
229216,2018-06-29 10:44:15.000000,156.13,77.05
229217,2018-06-29 10:44:15.031250,52.67,77.05
229218,2018-06-29 10:44:15.062500,-30.51,77.05
229219,2018-06-29 10:44:15.093750,-77.31,77.05
229220,2018-06-29 10:44:15.125000,-99.59,77.05
229221,2018-06-29 10:44:15.156250,-99.44,77.05
229222,2018-06-29 10:44:15.187500,-82.79,77.05
229223,2018-06-29 10:44:15.218750,-59.83,77.05
229224,2018-06-29 10:44:15.250000,-39.89,77.05
229225,2018-06-29 10:44:15.281250,-27.74,77.05
229226,2018-06-29 10:44:15.312500,-23.16,77.05
229227,2018-06-29 10:44:15.343750,-32.11,77.05
229228,2018-06-29 10:44:15.375000,-46.45,77.05
229229,2018-06-29 10:44:15.406250,-48.1,77.05
229230,2018-06-29 10:44:15.437500,-36.34,77.05
229231,2018-06-29 10:44:15.468750,-27.12,77.05
229232,2018-06-29 10:44:15.500000,-21.52,77.05
229233,2018-06-29 10:44:15.531250,-14.4,77.25
229234,2018-06-29 10:44:15.562500,-18.06,77.25
229235,2018-06-29 10:44:15.593750,-38.0,77.25
229236,2018-06-29 10:44:15.625000,-58.63,77.25
229237,2018-06-29 10:44:15.656250,-67.62,77.25
229238,2018-06-29 10:44:15.687500,-65.9,77.25
229239,2018-06-29 10:44:15.718750,-53.2,77.25
229240,2018-06-29 10:44:15.750000,-28.68,77.25
229241,2018-06-29 10:44:15.781250,4.6,77.25
229242,2018-06-29 10:44:15.812500,44.33,77.25
229243,2018-06-29 10:44:15.843750,83.62,77.25
229244,2018-06-29 10:44:15.875000,106.76,77.25
229245,2018-06-29 10:44:15.906250,101.98,77.25
229246,2018-06-29 10:44:15.937500,75.18,77.25
229247,2018-06-29 10:44:15.968750,43.03,77.25
229248,2018-06-29 10:44:16.000000,16.39,77.25
229249,2018-06-29 10:44:16.031250,-2.82,77.25
229250,2018-06-29 10:44:16.062500,-19.92,77.25
229251,2018-06-29 10:44:16.093750,-39.36,77.25
229252,2018-06-29 10:44:16.125000,-58.0,77.25
229253,2018-06-29 10:44:16.156250,-67.1,77.25
229254,2018-06-29 10:44:16.187500,-55.97,77.25
229255,2018-06-29 10:44:16.218750,-31.72,77.25
229256,2018-06-29 10:44:16.250000,-14.23,77.25
229257,2018-06-29 10:44:16.281250,-12.21,77.25
229258,2018-06-29 10:44:16.312500,-16.31,77.25
229259,2018-06-29 10:44:16.343750,-11.54,77.25
229260,2018-06-29 10:44:16.375000,8.33,77.25
229261,2018-06-29 10:44:16.406250,30.64,77.25
229262,2018-06-29 10:44:16.437500,40.22,77.25
229263,2018-06-29 10:44:16.468750,41.37,77.25
229264,2018-06-29 10:44:16.500000,46.63,77.25
229265,2018-06-29 10:44:16.531250,56.76,77.45
229266,2018-06-29 10:44:16.562500,63.73,77.45
229267,2018-06-29 10:44:16.593750,61.35,77.45
229268,2018-06-29 10:44:16.625000,44.97,77.45
229269,2018-06-29 10:44:16.656250,16.08,77.45
229270,2018-06-29 10:44:16.687500,-9.37,77.45
229271,2018-06-29 10:44:16.718750,-13.26,77.45
229272,2018-06-29 10:44:16.750000,1.63,77.45
229273,2018-06-29 10:44:16.781250,16.43,77.45
229274,2018-06-29 10:44:16.812500,25.26,77.45
229275,2018-06-29 10:44:16.843750,36.89,77.45
229276,2018-06-29 10:44:16.875000,55.88,77.45
229277,2018-06-29 10:44:16.906250,70.39,77.45
229278,2018-06-29 10:44:16.937500,62.28,77.45
229279,2018-06-29 10:44:16.968750,36.55,77.45
229280,2018-06-29 10:44:17.000000,5.54,77.45
229281,2018-06-29 10:44:17.031250,-22.93,77.45
229282,2018-06-29 10:44:17.062500,-43.42,77.45
229283,2018-06-29 10:44:17.093750,-49.27,77.45
229284,2018-06-29 10:44:17.125000,-43.41,77.45
229285,2018-06-29 10:44:17.156250,-37.72,77.45
229286,2018-06-29 10:44:17.187500,-39.89,77.45
229287,2018-06-29 10:44:17.218750,-45.59,77.45
229288,2018-06-29 10:44:17.250000,-50.41,77.45
229289,2018-06-29 10:44:17.281250,-56.8,77.45
229290,2018-06-29 10:44:17.312500,-65.91,77.45
229291,2018-06-29 10:44:17.343750,-73.91,77.45
229292,2018-06-29 10:44:17.375000,-76.34,77.45
229293,2018-06-29 10:44:17.406250,-70.95,77.45
229294,2018-06-29 10:44:17.437500,-59.14,77.45
229295,2018-06-29 10:44:17.468750,-44.64,77.45
229296,2018-06-29 10:44:17.500000,-31.46,77.45
229297,2018-06-29 10:44:17.531250,-19.07,77.67
229298,2018-06-29 10:44:17.562500,-3.67,77.67
229299,2018-06-29 10:44:17.593750,12.55,77.67
229300,2018-06-29 10:44:17.625000,20.24,77.67
229301,2018-06-29 10:44:17.656250,14.53,77.67
229302,2018-06-29 10:44:17.687500,2.04,77.67
229303,2018-06-29 10:44:17.718750,-6.07,77.67
229304,2018-06-29 10:44:17.750000,-3.34,77.67
229305,2018-06-29 10:44:17.781250,10.41,77.67
229306,2018-06-29 10:44:17.812500,30.88,77.67
229307,2018-06-29 10:44:17.843750,52.83,77.67
229308,2018-06-29 10:44:17.875000,70.69,77.67
229309,2018-06-29 10:44:17.906250,85.02,77.67
229310,2018-06-29 10:44:17.937500,97.87,77.67
229311,2018-06-29 10:44:17.968750,98.52,77.67
229312,2018-06-29 10:44:18.000000,73.76,77.67
229313,2018-06-29 10:44:18.031250,33.11,77.67
229314,2018-06-29 10:44:18.062500,7.16,77.67
229315,2018-06-29 10:44:18.093750,15.44,77.67
229316,2018-06-29 10:44:18.125000,44.98,77.67
229317,2018-06-29 10:44:18.156250,65.43,77.67
229318,2018-06-29 10:44:18.187500,61.84,77.67
229319,2018-06-29 10:44:18.218750,42.27,77.67
229320,2018-06-29 10:44:18.250000,19.64,77.67
229321,2018-06-29 10:44:18.281250,-4.3,77.67
229322,2018-06-29 10:44:18.312500,-30.55,77.67
229323,2018-06-29 10:44:18.343750,-54.4,77.67
229324,2018-06-29 10:44:18.375000,-64.62,77.67
229325,2018-06-29 10:44:18.406250,-52.99,77.67
229326,2018-06-29 10:44:18.437500,-36.81,77.67
229327,2018-06-29 10:44:18.468750,-53.51,77.67
229328,2018-06-29 10:44:18.500000,-106.72,77.67
229329,2018-06-29 10:44:18.531250,-141.23,77.87
229330,2018-06-29 10:44:18.562500,-116.38,77.87
229331,2018-06-29 10:44:18.593750,-49.43,77.87
229332,2018-06-29 10:44:18.625000,24.16,77.87
229333,2018-06-29 10:44:18.656250,86.61,77.87
229334,2018-06-29 10:44:18.687500,122.9,77.87
229335,2018-06-29 10:44:18.718750,120.27,77.87
229336,2018-06-29 10:44:18.750000,85.33,77.87
229337,2018-06-29 10:44:18.781250,19.59,77.87
229338,2018-06-29 10:44:18.812500,-47.14,77.87
229339,2018-06-29 10:44:18.843750,-75.54,77.87
229340,2018-06-29 10:44:18.875000,-75.35,77.87
229341,2018-06-29 10:44:18.906250,-53.88,77.87
229342,2018-06-29 10:44:18.937500,-2.8,77.87
229343,2018-06-29 10:44:18.968750,57.1,77.87
229344,2018-06-29 10:44:19.000000,83.04,77.87
229345,2018-06-29 10:44:19.031250,64.78,77.87
229346,2018-06-29 10:44:19.062500,26.52,77.87
229347,2018-06-29 10:44:19.093750,-3.5,77.87
229348,2018-06-29 10:44:19.125000,-13.6,77.87
229349,2018-06-29 10:44:19.156250,-7.76,77.87
229350,2018-06-29 10:44:19.187500,-2.19,77.87
229351,2018-06-29 10:44:19.218750,-8.51,77.87
229352,2018-06-29 10:44:19.250000,-23.32,77.87
229353,2018-06-29 10:44:19.281250,-40.63,77.87
229354,2018-06-29 10:44:19.312500,-62.23,77.87
229355,2018-06-29 10:44:19.343750,-82.58,77.87
229356,2018-06-29 10:44:19.375000,-80.76,77.87
229357,2018-06-29 10:44:19.406250,-47.51,77.87
229358,2018-06-29 10:44:19.437500,-7.9,77.87
229359,2018-06-29 10:44:19.468750,12.42,77.87
229360,2018-06-29 10:44:19.500000,19.71,77.87
229361,2018-06-29 10:44:19.531250,37.88,78.02
229362,2018-06-29 10:44:19.562500,75.11,78.02
229363,2018-06-29 10:44:19.593750,121.01,78.02
229364,2018-06-29 10:44:19.625000,161.83,78.02
229365,2018-06-29 10:44:19.656250,161.43,78.02
229366,2018-06-29 10:44:19.687500,116.62,78.02
229367,2018-06-29 10:44:19.718750,74.29,78.02
229368,2018-06-29 10:44:19.750000,36.37,78.02
229369,2018-06-29 10:44:19.781250,-20.34,78.02
229370,2018-06-29 10:44:19.812500,-81.22,78.02
229371,2018-06-29 10:44:19.843750,-110.06,78.02
229372,2018-06-29 10:44:19.875000,-109.16,78.02
229373,2018-06-29 10:44:19.906250,-105.1,78.02
229374,2018-06-29 10:44:19.937500,-102.14,78.02
229375,2018-06-29 10:44:19.968750,-88.07,78.02
229376,2018-06-29 10:44:20.000000,-63.0,78.02
229377,2018-06-29 10:44:20.031250,-39.3,78.02
229378,2018-06-29 10:44:20.062500,-21.51,78.02
229379,2018-06-29 10:44:20.093750,-15.68,78.02
229380,2018-06-29 10:44:20.125000,-30.03,78.02
229381,2018-06-29 10:44:20.156250,-54.67,78.02
229382,2018-06-29 10:44:20.187500,-61.8,78.02
229383,2018-06-29 10:44:20.218750,-44.93,78.02
229384,2018-06-29 10:44:20.250000,-25.95,78.02
229385,2018-06-29 10:44:20.281250,-16.92,78.02
229386,2018-06-29 10:44:20.312500,0.92,78.02
229387,2018-06-29 10:44:20.343750,41.77,78.02
229388,2018-06-29 10:44:20.375000,81.0,78.02
229389,2018-06-29 10:44:20.406250,90.73,78.02
229390,2018-06-29 10:44:20.437500,76.45,78.02
229391,2018-06-29 10:44:20.468750,51.95,78.02
229392,2018-06-29 10:44:20.500000,24.73,78.02
229393,2018-06-29 10:44:20.531250,5.76,78.1
229394,2018-06-29 10:44:20.562500,3.41,78.1
229395,2018-06-29 10:44:20.593750,3.58,78.1
229396,2018-06-29 10:44:20.625000,-6.19,78.1
229397,2018-06-29 10:44:20.656250,-11.67,78.1
229398,2018-06-29 10:44:20.687500,8.49,78.1
229399,2018-06-29 10:44:20.718750,44.76,78.1
229400,2018-06-29 10:44:20.750000,75.07,78.1
229401,2018-06-29 10:44:20.781250,93.59,78.1
229402,2018-06-29 10:44:20.812500,93.8,78.1
229403,2018-06-29 10:44:20.843750,84.5,78.1
229404,2018-06-29 10:44:20.875000,54.82,78.1
229405,2018-06-29 10:44:20.906250,-3.28,78.1
229406,2018-06-29 10:44:20.937500,-73.44,78.1
229407,2018-06-29 10:44:20.968750,-118.39,78.1
229408,2018-06-29 10:44:21.000000,-119.9,78.1
229409,2018-06-29 10:44:21.031250,-81.63,78.1
229410,2018-06-29 10:44:21.062500,-16.28,78.1
229411,2018-06-29 10:44:21.093750,53.32,78.1
229412,2018-06-29 10:44:21.125000,97.88,78.1
229413,2018-06-29 10:44:21.156250,82.1,78.1
229414,2018-06-29 10:44:21.187500,22.63,78.1
229415,2018-06-29 10:44:21.218750,-14.94,78.1
229416,2018-06-29 10:44:21.250000,-23.25,78.1
229417,2018-06-29 10:44:21.281250,-28.44,78.1
229418,2018-06-29 10:44:21.312500,-34.4,78.1
229419,2018-06-29 10:44:21.343750,-39.88,78.1
229420,2018-06-29 10:44:21.375000,-55.55,78.1
229421,2018-06-29 10:44:21.406250,-72.04,78.1
229422,2018-06-29 10:44:21.437500,-66.84,78.1
229423,2018-06-29 10:44:21.468750,-43.59,78.1
229424,2018-06-29 10:44:21.500000,-33.48,78.1
229425,2018-06-29 10:44:21.531250,-43.29,78.15
229426,2018-06-29 10:44:21.562500,-53.57,78.15
229427,2018-06-29 10:44:21.593750,-47.87,78.15
229428,2018-06-29 10:44:21.625000,-27.16,78.15
229429,2018-06-29 10:44:21.656250,-0.15,78.15
229430,2018-06-29 10:44:21.687500,25.48,78.15
229431,2018-06-29 10:44:21.718750,41.55,78.15
229432,2018-06-29 10:44:21.750000,46.58,78.15
229433,2018-06-29 10:44:21.781250,49.96,78.15
229434,2018-06-29 10:44:21.812500,58.24,78.15
229435,2018-06-29 10:44:21.843750,56.79,78.15
229436,2018-06-29 10:44:21.875000,34.04,78.15
229437,2018-06-29 10:44:21.906250,5.19,78.15
229438,2018-06-29 10:44:21.937500,-11.5,78.15
229439,2018-06-29 10:44:21.968750,-16.3,78.15
229440,2018-06-29 10:44:22.000000,-15.46,78.15
229441,2018-06-29 10:44:22.031250,-16.59,78.15
229442,2018-06-29 10:44:22.062500,-33.81,78.15
229443,2018-06-29 10:44:22.093750,-69.92,78.15
229444,2018-06-29 10:44:22.125000,-102.34,78.15
229445,2018-06-29 10:44:22.156250,-104.14,78.15
229446,2018-06-29 10:44:22.187500,-71.42,78.15
229447,2018-06-29 10:44:22.218750,-22.43,78.15
229448,2018-06-29 10:44:22.250000,19.4,78.15
229449,2018-06-29 10:44:22.281250,40.57,78.15
229450,2018-06-29 10:44:22.312500,42.09,78.15
229451,2018-06-29 10:44:22.343750,31.65,78.15
229452,2018-06-29 10:44:22.375000,14.68,78.15
229453,2018-06-29 10:44:22.406250,-6.49,78.15
229454,2018-06-29 10:44:22.437500,-28.51,78.15
229455,2018-06-29 10:44:22.468750,-46.93,78.15
229456,2018-06-29 10:44:22.500000,-56.94,78.15
229457,2018-06-29 10:44:22.531250,-57.35,78.2
229458,2018-06-29 10:44:22.562500,-63.15,78.2
229459,2018-06-29 10:44:22.593750,-96.83,78.2
229460,2018-06-29 10:44:22.625000,-147.07,78.2
229461,2018-06-29 10:44:22.656250,-162.91,78.2
229462,2018-06-29 10:44:22.687500,-112.09,78.2
229463,2018-06-29 10:44:22.718750,-18.91,78.2
229464,2018-06-29 10:44:22.750000,64.57,78.2
229465,2018-06-29 10:44:22.781250,97.79,78.2
229466,2018-06-29 10:44:22.812500,67.97,78.2
229467,2018-06-29 10:44:22.843750,-2.07,78.2
229468,2018-06-29 10:44:22.875000,-64.61,78.2
229469,2018-06-29 10:44:22.906250,-80.31,78.2
229470,2018-06-29 10:44:22.937500,-44.25,78.2
229471,2018-06-29 10:44:22.968750,16.25,78.2
229472,2018-06-29 10:44:23.000000,72.6,78.2
229473,2018-06-29 10:44:23.031250,119.49,78.2
229474,2018-06-29 10:44:23.062500,159.45,78.2
229475,2018-06-29 10:44:23.093750,178.32,78.2
229476,2018-06-29 10:44:23.125000,170.18,78.2
229477,2018-06-29 10:44:23.156250,159.62,78.2
229478,2018-06-29 10:44:23.187500,165.19,78.2
229479,2018-06-29 10:44:23.218750,176.96,78.2
229480,2018-06-29 10:44:23.250000,182.04,78.2
229481,2018-06-29 10:44:23.281250,177.52,78.2
229482,2018-06-29 10:44:23.312500,150.69,78.2
229483,2018-06-29 10:44:23.343750,98.28,78.2
229484,2018-06-29 10:44:23.375000,42.6,78.2
229485,2018-06-29 10:44:23.406250,8.09,78.2
229486,2018-06-29 10:44:23.437500,-4.9,78.2
229487,2018-06-29 10:44:23.468750,-13.02,78.2
229488,2018-06-29 10:44:23.500000,-14.05,78.2
229489,2018-06-29 10:44:23.531250,6.68,78.27
229490,2018-06-29 10:44:23.562500,59.11,78.27
229491,2018-06-29 10:44:23.593750,111.87,78.27
229492,2018-06-29 10:44:23.625000,121.12,78.27
229493,2018-06-29 10:44:23.656250,72.45,78.27
229494,2018-06-29 10:44:23.687500,4.42,78.27
229495,2018-06-29 10:44:23.718750,-26.88,78.27
229496,2018-06-29 10:44:23.750000,-14.21,78.27
229497,2018-06-29 10:44:23.781250,17.93,78.27
229498,2018-06-29 10:44:23.812500,-3.11,78.27
229499,2018-06-29 10:44:23.843750,-81.08,78.27
229500,2018-06-29 10:44:23.875000,-105.73,78.27
229501,2018-06-29 10:44:23.906250,-69.02,78.27
229502,2018-06-29 10:44:23.937500,5.01,78.27
229503,2018-06-29 10:44:23.968750,77.4,78.27
229504,2018-06-29 10:44:24.000000,107.13,78.27
229505,2018-06-29 10:44:24.031250,66.55,78.27
229506,2018-06-29 10:44:24.062500,-22.02,78.27
229507,2018-06-29 10:44:24.093750,-112.0,78.27
229508,2018-06-29 10:44:24.125000,-158.56,78.27
229509,2018-06-29 10:44:24.156250,-161.1,78.27
229510,2018-06-29 10:44:24.187500,-142.86,78.27
229511,2018-06-29 10:44:24.218750,-117.41,78.27
229512,2018-06-29 10:44:24.250000,-80.87,78.27
229513,2018-06-29 10:44:24.281250,-30.92,78.27
229514,2018-06-29 10:44:24.312500,10.85,78.27
229515,2018-06-29 10:44:24.343750,25.71,78.27
229516,2018-06-29 10:44:24.375000,20.06,78.27
229517,2018-06-29 10:44:24.406250,15.23,78.27
229518,2018-06-29 10:44:24.437500,20.85,78.27
229519,2018-06-29 10:44:24.468750,28.76,78.27
229520,2018-06-29 10:44:24.500000,16.21,78.27
229521,2018-06-29 10:44:24.531250,-40.88,78.33
229522,2018-06-29 10:44:24.562500,-127.38,78.33
229523,2018-06-29 10:44:24.593750,-163.35,78.33
229524,2018-06-29 10:44:24.625000,-130.05,78.33
229525,2018-06-29 10:44:24.656250,-83.96,78.33
229526,2018-06-29 10:44:24.687500,-48.88,78.33
229527,2018-06-29 10:44:24.718750,-16.61,78.33
229528,2018-06-29 10:44:24.750000,5.8,78.33
229529,2018-06-29 10:44:24.781250,8.03,78.33
229530,2018-06-29 10:44:24.812500,-2.17,78.33
229531,2018-06-29 10:44:24.843750,-8.93,78.33
229532,2018-06-29 10:44:24.875000,7.29,78.33
229533,2018-06-29 10:44:24.906250,54.78,78.33
229534,2018-06-29 10:44:24.937500,112.15,78.33
229535,2018-06-29 10:44:24.968750,138.93,78.33
229536,2018-06-29 10:44:25.000000,120.71,78.33
229537,2018-06-29 10:44:25.031250,77.22,78.33
229538,2018-06-29 10:44:25.062500,30.82,78.33
229539,2018-06-29 10:44:25.093750,-3.72,78.33
229540,2018-06-29 10:44:25.125000,-18.69,78.33
229541,2018-06-29 10:44:25.156250,-18.72,78.33
229542,2018-06-29 10:44:25.187500,-19.57,78.33
229543,2018-06-29 10:44:25.218750,-31.24,78.33
229544,2018-06-29 10:44:25.250000,-46.22,78.33
229545,2018-06-29 10:44:25.281250,-49.89,78.33
229546,2018-06-29 10:44:25.312500,-39.33,78.33
229547,2018-06-29 10:44:25.343750,-29.06,78.33
229548,2018-06-29 10:44:25.375000,-31.61,78.33
229549,2018-06-29 10:44:25.406250,-50.45,78.33
229550,2018-06-29 10:44:25.437500,-69.23,78.33
229551,2018-06-29 10:44:25.468750,-53.86,78.33
229552,2018-06-29 10:44:25.500000,11.53,78.33
229553,2018-06-29 10:44:25.531250,114.46,78.33
229554,2018-06-29 10:44:25.562500,216.08,78.33
229555,2018-06-29 10:44:25.593750,288.17,78.33
229556,2018-06-29 10:44:25.625000,308.22,78.33
229557,2018-06-29 10:44:25.656250,252.23,78.33
229558,2018-06-29 10:44:25.687500,139.11,78.33
229559,2018-06-29 10:44:25.718750,33.61,78.33
229560,2018-06-29 10:44:25.750000,-30.5,78.33
229561,2018-06-29 10:44:25.781250,-77.36,78.33
229562,2018-06-29 10:44:25.812500,-137.58,78.33
229563,2018-06-29 10:44:25.843750,-218.69,78.33
229564,2018-06-29 10:44:25.875000,-300.83,78.33
229565,2018-06-29 10:44:25.906250,-341.29,78.33
229566,2018-06-29 10:44:25.937500,-310.94,78.33
229567,2018-06-29 10:44:25.968750,-232.36,78.33
229568,2018-06-29 10:44:26.000000,-150.61,78.33
229569,2018-06-29 10:44:26.031250,-86.51,78.33
229570,2018-06-29 10:44:26.062500,-43.91,78.33
229571,2018-06-29 10:44:26.093750,-29.61,78.33
229572,2018-06-29 10:44:26.125000,-37.28,78.33
229573,2018-06-29 10:44:26.156250,-40.25,78.33
229574,2018-06-29 10:44:26.187500,-17.56,78.33
229575,2018-06-29 10:44:26.218750,25.04,78.33
229576,2018-06-29 10:44:26.250000,67.49,78.33
229577,2018-06-29 10:44:26.281250,91.64,78.33
229578,2018-06-29 10:44:26.312500,87.1,78.33
229579,2018-06-29 10:44:26.343750,56.42,78.33
229580,2018-06-29 10:44:26.375000,15.13,78.33
229581,2018-06-29 10:44:26.406250,-14.53,78.33
229582,2018-06-29 10:44:26.437500,-19.15,78.33
229583,2018-06-29 10:44:26.468750,3.15,78.33
229584,2018-06-29 10:44:26.500000,44.06,78.33
229585,2018-06-29 10:44:26.531250,99.64,78.32
229586,2018-06-29 10:44:26.562500,167.71,78.32
229587,2018-06-29 10:44:26.593750,201.94,78.32
229588,2018-06-29 10:44:26.625000,162.2,78.32
229589,2018-06-29 10:44:26.656250,60.7,78.32
229590,2018-06-29 10:44:26.687500,-41.22,78.32
229591,2018-06-29 10:44:26.718750,-93.59,78.32
229592,2018-06-29 10:44:26.750000,-100.1,78.32
229593,2018-06-29 10:44:26.781250,-91.07,78.32
229594,2018-06-29 10:44:26.812500,-83.5,78.32
229595,2018-06-29 10:44:26.843750,-83.18,78.32
229596,2018-06-29 10:44:26.875000,-91.09,78.32
229597,2018-06-29 10:44:26.906250,-93.54,78.32
229598,2018-06-29 10:44:26.937500,-76.93,78.32
229599,2018-06-29 10:44:26.968750,-50.14,78.32
229600,2018-06-29 10:44:27.000000,-31.9,78.32
229601,2018-06-29 10:44:27.031250,-22.35,78.32
229602,2018-06-29 10:44:27.062500,-8.44,78.32
229603,2018-06-29 10:44:27.093750,12.83,78.32
229604,2018-06-29 10:44:27.125000,30.68,78.32
229605,2018-06-29 10:44:27.156250,37.85,78.32
229606,2018-06-29 10:44:27.187500,43.87,78.32
229607,2018-06-29 10:44:27.218750,55.68,78.32
229608,2018-06-29 10:44:27.250000,70.75,78.32
229609,2018-06-29 10:44:27.281250,79.86,78.32
229610,2018-06-29 10:44:27.312500,74.12,78.32
229611,2018-06-29 10:44:27.343750,52.21,78.32
229612,2018-06-29 10:44:27.375000,21.37,78.32
229613,2018-06-29 10:44:27.406250,-10.2,78.32
229614,2018-06-29 10:44:27.437500,-40.09,78.32
229615,2018-06-29 10:44:27.468750,-68.28,78.32
229616,2018-06-29 10:44:27.500000,-94.59,78.32
229617,2018-06-29 10:44:27.531250,-119.71,78.32
229618,2018-06-29 10:44:27.562500,-146.37,78.32
229619,2018-06-29 10:44:27.593750,-175.27,78.32
229620,2018-06-29 10:44:27.625000,-200.01,78.32
229621,2018-06-29 10:44:27.656250,-205.63,78.32
229622,2018-06-29 10:44:27.687500,-180.45,78.32
229623,2018-06-29 10:44:27.718750,-130.07,78.32
229624,2018-06-29 10:44:27.750000,-72.49,78.32
229625,2018-06-29 10:44:27.781250,-17.43,78.32
229626,2018-06-29 10:44:27.812500,37.25,78.32
229627,2018-06-29 10:44:27.843750,93.47,78.32
229628,2018-06-29 10:44:27.875000,150.68,78.32
229629,2018-06-29 10:44:27.906250,203.11,78.32
229630,2018-06-29 10:44:27.937500,239.05,78.32
229631,2018-06-29 10:44:27.968750,242.7,78.32
229632,2018-06-29 10:44:28.000000,210.52,78.32
229633,2018-06-29 10:44:28.031250,153.52,78.32
229634,2018-06-29 10:44:28.062500,90.07,78.32
229635,2018-06-29 10:44:28.093750,34.47,78.32
229636,2018-06-29 10:44:28.125000,-6.38,78.32
229637,2018-06-29 10:44:28.156250,-26.46,78.32
229638,2018-06-29 10:44:28.187500,-38.66,78.32
229639,2018-06-29 10:44:28.218750,-47.1,78.32
229640,2018-06-29 10:44:28.250000,-51.99,78.32
229641,2018-06-29 10:44:28.281250,-41.11,78.32
229642,2018-06-29 10:44:28.312500,-27.0,78.32
229643,2018-06-29 10:44:28.343750,-27.44,78.32
229644,2018-06-29 10:44:28.375000,-38.56,78.32
229645,2018-06-29 10:44:28.406250,-41.9,78.32
229646,2018-06-29 10:44:28.437500,-4.06,78.32
229647,2018-06-29 10:44:28.468750,50.24,78.32
229648,2018-06-29 10:44:28.500000,114.43,78.32
229649,2018-06-29 10:44:28.531250,181.51,78.33
229650,2018-06-29 10:44:28.562500,282.12,78.33
229651,2018-06-29 10:44:28.593750,410.63,78.33
229652,2018-06-29 10:44:28.625000,528.81,78.33
229653,2018-06-29 10:44:28.656250,598.97,78.33
229654,2018-06-29 10:44:28.687500,448.55,78.33
229655,2018-06-29 10:44:28.718750,213.44,78.33
229656,2018-06-29 10:44:28.750000,18.59,78.33
229657,2018-06-29 10:44:28.781250,-143.97,78.33
229658,2018-06-29 10:44:28.812500,-264.88,78.33
229659,2018-06-29 10:44:28.843750,-313.0,78.33
229660,2018-06-29 10:44:28.875000,-311.76,78.33
229661,2018-06-29 10:44:28.906250,-299.47,78.33
229662,2018-06-29 10:44:28.937500,-279.43,78.33
229663,2018-06-29 10:44:28.968750,-242.04,78.33
229664,2018-06-29 10:44:29.000000,-170.39,78.33
229665,2018-06-29 10:44:29.031250,-105.78,78.33
229666,2018-06-29 10:44:29.062500,-61.64,78.33
229667,2018-06-29 10:44:29.093750,-46.96,78.33
229668,2018-06-29 10:44:29.125000,-52.63,78.33
229669,2018-06-29 10:44:29.156250,-73.19,78.33
229670,2018-06-29 10:44:29.187500,-89.32,78.33
229671,2018-06-29 10:44:29.218750,-80.47,78.33
229672,2018-06-29 10:44:29.250000,-48.38,78.33
229673,2018-06-29 10:44:29.281250,-10.47,78.33
229674,2018-06-29 10:44:29.312500,15.85,78.33
229675,2018-06-29 10:44:29.343750,36.65,78.33
229676,2018-06-29 10:44:29.375000,63.05,78.33
229677,2018-06-29 10:44:29.406250,98.02,78.33
229678,2018-06-29 10:44:29.437500,126.28,78.33
229679,2018-06-29 10:44:29.468750,146.84,78.33
229680,2018-06-29 10:44:29.500000,166.05,78.33
229681,2018-06-29 10:44:29.531250,193.95,78.32
229682,2018-06-29 10:44:29.562500,210.64,78.32
229683,2018-06-29 10:44:29.593750,203.35,78.32
229684,2018-06-29 10:44:29.625000,160.11,78.32
229685,2018-06-29 10:44:29.656250,36.35,78.32
229686,2018-06-29 10:44:29.687500,-57.77,78.32
229687,2018-06-29 10:44:29.718750,-75.66,78.32
229688,2018-06-29 10:44:29.750000,-39.12,78.32
229689,2018-06-29 10:44:29.781250,13.82,78.32
229690,2018-06-29 10:44:29.812500,40.38,78.32
229691,2018-06-29 10:44:29.843750,-0.31,78.32
229692,2018-06-29 10:44:29.875000,-96.13,78.32
229693,2018-06-29 10:44:29.906250,-196.12,78.32
229694,2018-06-29 10:44:29.937500,-252.75,78.32
229695,2018-06-29 10:44:29.968750,-255.89,78.32
229696,2018-06-29 10:44:30.000000,-232.19,78.32
229697,2018-06-29 10:44:30.031250,-196.55,78.32
229698,2018-06-29 10:44:30.062500,-153.21,78.32
229699,2018-06-29 10:44:30.093750,-99.55,78.32
229700,2018-06-29 10:44:30.125000,-47.75,78.32
229701,2018-06-29 10:44:30.156250,-9.73,78.32
229702,2018-06-29 10:44:30.187500,13.28,78.32
229703,2018-06-29 10:44:30.218750,33.37,78.32
229704,2018-06-29 10:44:30.250000,58.81,78.32
229705,2018-06-29 10:44:30.281250,74.96,78.32
229706,2018-06-29 10:44:30.312500,67.68,78.32
229707,2018-06-29 10:44:30.343750,44.37,78.32
229708,2018-06-29 10:44:30.375000,24.11,78.32
229709,2018-06-29 10:44:30.406250,10.74,78.32
229710,2018-06-29 10:44:30.437500,-0.56,78.32
229711,2018-06-29 10:44:30.468750,-7.76,78.32
229712,2018-06-29 10:44:30.500000,-6.99,78.32
229713,2018-06-29 10:44:30.531250,-0.77,78.28
229714,2018-06-29 10:44:30.562500,5.61,78.28
229715,2018-06-29 10:44:30.593750,11.0,78.28
229716,2018-06-29 10:44:30.625000,19.83,78.28
229717,2018-06-29 10:44:30.656250,39.63,78.28
229718,2018-06-29 10:44:30.687500,72.92,78.28
229719,2018-06-29 10:44:30.718750,108.02,78.28
229720,2018-06-29 10:44:30.750000,124.65,78.28
229721,2018-06-29 10:44:30.781250,110.63,78.28
229722,2018-06-29 10:44:30.812500,73.27,78.28
229723,2018-06-29 10:44:30.843750,39.23,78.28
229724,2018-06-29 10:44:30.875000,39.48,78.28
229725,2018-06-29 10:44:30.906250,80.14,78.28
229726,2018-06-29 10:44:30.937500,128.06,78.28
229727,2018-06-29 10:44:30.968750,138.53,78.28
229728,2018-06-29 10:44:31.000000,95.23,78.28
229729,2018-06-29 10:44:31.031250,16.81,78.28
229730,2018-06-29 10:44:31.062500,-66.84,78.28
229731,2018-06-29 10:44:31.093750,-135.86,78.28
229732,2018-06-29 10:44:31.125000,-182.11,78.28
229733,2018-06-29 10:44:31.156250,-202.32,78.28
229734,2018-06-29 10:44:31.187500,-196.57,78.28
229735,2018-06-29 10:44:31.218750,-172.85,78.28
229736,2018-06-29 10:44:31.250000,-146.13,78.28
229737,2018-06-29 10:44:31.281250,-128.17,78.28
229738,2018-06-29 10:44:31.312500,-113.79,78.28
229739,2018-06-29 10:44:31.343750,-80.55,78.28
229740,2018-06-29 10:44:31.375000,-16.07,78.28
229741,2018-06-29 10:44:31.406250,56.2,78.28
229742,2018-06-29 10:44:31.437500,95.1,78.28
229743,2018-06-29 10:44:31.468750,87.4,78.28
229744,2018-06-29 10:44:31.500000,53.31,78.28
229745,2018-06-29 10:44:31.531250,18.15,78.3
229746,2018-06-29 10:44:31.562500,-5.73,78.3
229747,2018-06-29 10:44:31.593750,-13.42,78.3
229748,2018-06-29 10:44:31.625000,-5.74,78.3
229749,2018-06-29 10:44:31.656250,9.5,78.3
229750,2018-06-29 10:44:31.687500,26.96,78.3
229751,2018-06-29 10:44:31.718750,44.22,78.3
229752,2018-06-29 10:44:31.750000,61.29,78.3
229753,2018-06-29 10:44:31.781250,74.12,78.3
229754,2018-06-29 10:44:31.812500,81.73,78.3
229755,2018-06-29 10:44:31.843750,83.55,78.3
229756,2018-06-29 10:44:31.875000,75.44,78.3
229757,2018-06-29 10:44:31.906250,51.21,78.3
229758,2018-06-29 10:44:31.937500,1.21,78.3
229759,2018-06-29 10:44:31.968750,-46.41,78.3
229760,2018-06-29 10:44:32.000000,-55.43,78.3
229761,2018-06-29 10:44:32.031250,-13.09,78.3
229762,2018-06-29 10:44:32.062500,68.88,78.3
229763,2018-06-29 10:44:32.093750,146.43,78.3
229764,2018-06-29 10:44:32.125000,171.04,78.3
229765,2018-06-29 10:44:32.156250,128.58,78.3
229766,2018-06-29 10:44:32.187500,43.71,78.3
229767,2018-06-29 10:44:32.218750,-47.85,78.3
229768,2018-06-29 10:44:32.250000,-117.91,78.3
229769,2018-06-29 10:44:32.281250,-156.67,78.3
229770,2018-06-29 10:44:32.312500,-167.46,78.3
229771,2018-06-29 10:44:32.343750,-161.32,78.3
229772,2018-06-29 10:44:32.375000,-144.26,78.3
229773,2018-06-29 10:44:32.406250,-116.96,78.3
229774,2018-06-29 10:44:32.437500,-81.44,78.3
229775,2018-06-29 10:44:32.468750,-44.02,78.3
229776,2018-06-29 10:44:32.500000,-12.43,78.3
229777,2018-06-29 10:44:32.531250,8.34,78.3
229778,2018-06-29 10:44:32.562500,15.4,78.3
229779,2018-06-29 10:44:32.593750,11.24,78.3
229780,2018-06-29 10:44:32.625000,2.46,78.3
229781,2018-06-29 10:44:32.656250,-7.19,78.3
229782,2018-06-29 10:44:32.687500,-19.02,78.3
229783,2018-06-29 10:44:32.718750,-28.14,78.3
229784,2018-06-29 10:44:32.750000,-22.04,78.3
229785,2018-06-29 10:44:32.781250,1.77,78.3
229786,2018-06-29 10:44:32.812500,27.04,78.3
229787,2018-06-29 10:44:32.843750,42.19,78.3
229788,2018-06-29 10:44:32.875000,53.01,78.3
229789,2018-06-29 10:44:32.906250,67.31,78.3
