,Time,ppg,hr
236800,2018-06-29 10:48:12.000000,109.19,86.5
236801,2018-06-29 10:48:12.031250,70.56,86.5
236802,2018-06-29 10:48:12.062500,29.0,86.5
236803,2018-06-29 10:48:12.093750,-8.7,86.5
236804,2018-06-29 10:48:12.125000,-46.15,86.5
236805,2018-06-29 10:48:12.156250,-91.01,86.5
236806,2018-06-29 10:48:12.187500,-145.72,86.5
236807,2018-06-29 10:48:12.218750,-200.44,86.5
236808,2018-06-29 10:48:12.250000,-247.05,86.5
236809,2018-06-29 10:48:12.281250,-287.52,86.5
236810,2018-06-29 10:48:12.312500,-288.4,86.5
236811,2018-06-29 10:48:12.343750,-220.11,86.5
236812,2018-06-29 10:48:12.375000,-79.96,86.5
236813,2018-06-29 10:48:12.406250,89.26,86.5
236814,2018-06-29 10:48:12.437500,236.57,86.5
236815,2018-06-29 10:48:12.468750,320.85,86.5
236816,2018-06-29 10:48:12.500000,261.87,86.5
236817,2018-06-29 10:48:12.531250,118.93,86.57
236818,2018-06-29 10:48:12.562500,-4.26,86.57
236819,2018-06-29 10:48:12.593750,-81.43,86.57
236820,2018-06-29 10:48:12.625000,-125.76,86.57
236821,2018-06-29 10:48:12.656250,-144.73,86.57
236822,2018-06-29 10:48:12.687500,-159.06,86.57
236823,2018-06-29 10:48:12.718750,-176.4,86.57
236824,2018-06-29 10:48:12.750000,-188.52,86.57
236825,2018-06-29 10:48:12.781250,-177.93,86.57
236826,2018-06-29 10:48:12.812500,-137.16,86.57
236827,2018-06-29 10:48:12.843750,-81.6,86.57
236828,2018-06-29 10:48:12.875000,-19.38,86.57
236829,2018-06-29 10:48:12.906250,52.34,86.57
236830,2018-06-29 10:48:12.937500,149.17,86.57
236831,2018-06-29 10:48:12.968750,256.28,86.57
236832,2018-06-29 10:48:13.000000,326.03,86.57
236833,2018-06-29 10:48:13.031250,324.48,86.57
236834,2018-06-29 10:48:13.062500,264.02,86.57
236835,2018-06-29 10:48:13.093750,181.86,86.57
236836,2018-06-29 10:48:13.125000,103.19,86.57
236837,2018-06-29 10:48:13.156250,33.37,86.57
236838,2018-06-29 10:48:13.187500,-26.57,86.57
236839,2018-06-29 10:48:13.218750,-73.3,86.57
236840,2018-06-29 10:48:13.250000,-104.41,86.57
236841,2018-06-29 10:48:13.281250,-126.33,86.57
236842,2018-06-29 10:48:13.312500,-146.49,86.57
236843,2018-06-29 10:48:13.343750,-164.9,86.57
236844,2018-06-29 10:48:13.375000,-177.72,86.57
236845,2018-06-29 10:48:13.406250,-168.49,86.57
236846,2018-06-29 10:48:13.437500,-129.12,86.57
236847,2018-06-29 10:48:13.468750,-83.43,86.57
236848,2018-06-29 10:48:13.500000,-44.35,86.57
236849,2018-06-29 10:48:13.531250,2.98,86.65
236850,2018-06-29 10:48:13.562500,72.27,86.65
236851,2018-06-29 10:48:13.593750,160.12,86.65
236852,2018-06-29 10:48:13.625000,224.0,86.65
236853,2018-06-29 10:48:13.656250,203.12,86.65
236854,2018-06-29 10:48:13.687500,114.8,86.65
236855,2018-06-29 10:48:13.718750,19.18,86.65
236856,2018-06-29 10:48:13.750000,-49.94,86.65
236857,2018-06-29 10:48:13.781250,-92.42,86.65
236858,2018-06-29 10:48:13.812500,-114.57,86.65
236859,2018-06-29 10:48:13.843750,-123.67,86.65
236860,2018-06-29 10:48:13.875000,-127.99,86.65
236861,2018-06-29 10:48:13.906250,-128.4,86.65
236862,2018-06-29 10:48:13.937500,-104.86,86.65
236863,2018-06-29 10:48:13.968750,-48.08,86.65
236864,2018-06-29 10:48:14.000000,21.65,86.65
236865,2018-06-29 10:48:14.031250,79.54,86.65
236866,2018-06-29 10:48:14.062500,118.5,86.65
236867,2018-06-29 10:48:14.093750,136.83,86.65
236868,2018-06-29 10:48:14.125000,121.17,86.65
236869,2018-06-29 10:48:14.156250,59.48,86.65
236870,2018-06-29 10:48:14.187500,-32.27,86.65
236871,2018-06-29 10:48:14.218750,-108.41,86.65
236872,2018-06-29 10:48:14.250000,-126.12,86.65
236873,2018-06-29 10:48:14.281250,-81.03,86.65
236874,2018-06-29 10:48:14.312500,-12.47,86.65
236875,2018-06-29 10:48:14.343750,41.17,86.65
236876,2018-06-29 10:48:14.375000,68.84,86.65
236877,2018-06-29 10:48:14.406250,81.3,86.65
236878,2018-06-29 10:48:14.437500,82.83,86.65
236879,2018-06-29 10:48:14.468750,68.9,86.65
236880,2018-06-29 10:48:14.500000,28.44,86.65
236881,2018-06-29 10:48:14.531250,-45.32,86.73
236882,2018-06-29 10:48:14.562500,-94.29,86.73
236883,2018-06-29 10:48:14.593750,-82.06,86.73
236884,2018-06-29 10:48:14.625000,-25.13,86.73
236885,2018-06-29 10:48:14.656250,56.22,86.73
236886,2018-06-29 10:48:14.687500,135.65,86.73
236887,2018-06-29 10:48:14.718750,165.72,86.73
236888,2018-06-29 10:48:14.750000,106.45,86.73
236889,2018-06-29 10:48:14.781250,4.82,86.73
236890,2018-06-29 10:48:14.812500,-69.52,86.73
236891,2018-06-29 10:48:14.843750,-108.67,86.73
236892,2018-06-29 10:48:14.875000,-136.57,86.73
236893,2018-06-29 10:48:14.906250,-158.6,86.73
236894,2018-06-29 10:48:14.937500,-161.11,86.73
236895,2018-06-29 10:48:14.968750,-131.57,86.73
236896,2018-06-29 10:48:15.000000,-72.6,86.73
236897,2018-06-29 10:48:15.031250,-4.58,86.73
236898,2018-06-29 10:48:15.062500,50.35,86.73
236899,2018-06-29 10:48:15.093750,83.99,86.73
236900,2018-06-29 10:48:15.125000,104.1,86.73
236901,2018-06-29 10:48:15.156250,119.58,86.73
236902,2018-06-29 10:48:15.187500,130.27,86.73
236903,2018-06-29 10:48:15.218750,123.92,86.73
236904,2018-06-29 10:48:15.250000,95.28,86.73
236905,2018-06-29 10:48:15.281250,53.23,86.73
236906,2018-06-29 10:48:15.312500,16.31,86.73
236907,2018-06-29 10:48:15.343750,-5.08,86.73
236908,2018-06-29 10:48:15.375000,-7.63,86.73
236909,2018-06-29 10:48:15.406250,-0.68,86.73
236910,2018-06-29 10:48:15.437500,-1.12,86.73
236911,2018-06-29 10:48:15.468750,-16.16,86.73
236912,2018-06-29 10:48:15.500000,-39.62,86.73
236913,2018-06-29 10:48:15.531250,-51.42,86.83
236914,2018-06-29 10:48:15.562500,-48.48,86.83
236915,2018-06-29 10:48:15.593750,-44.68,86.83
236916,2018-06-29 10:48:15.625000,-74.06,86.83
236917,2018-06-29 10:48:15.656250,-130.17,86.83
236918,2018-06-29 10:48:15.687500,-142.91,86.83
236919,2018-06-29 10:48:15.718750,-86.5,86.83
236920,2018-06-29 10:48:15.750000,32.83,86.83
236921,2018-06-29 10:48:15.781250,160.68,86.83
236922,2018-06-29 10:48:15.812500,249.96,86.83
236923,2018-06-29 10:48:15.843750,243.65,86.83
236924,2018-06-29 10:48:15.875000,150.39,86.83
236925,2018-06-29 10:48:15.906250,55.09,86.83
236926,2018-06-29 10:48:15.937500,-23.44,86.83
236927,2018-06-29 10:48:15.968750,-72.67,86.83
236928,2018-06-29 10:48:16.000000,-89.79,86.83
236929,2018-06-29 10:48:16.031250,-88.19,86.83
236930,2018-06-29 10:48:16.062500,-89.98,86.83
236931,2018-06-29 10:48:16.093750,-91.37,86.83
236932,2018-06-29 10:48:16.125000,-86.09,86.83
236933,2018-06-29 10:48:16.156250,-71.25,86.83
236934,2018-06-29 10:48:16.187500,-62.57,86.83
236935,2018-06-29 10:48:16.218750,-70.35,86.83
236936,2018-06-29 10:48:16.250000,-87.87,86.83
236937,2018-06-29 10:48:16.281250,-85.77,86.83
236938,2018-06-29 10:48:16.312500,-34.24,86.83
236939,2018-06-29 10:48:16.343750,50.44,86.83
236940,2018-06-29 10:48:16.375000,117.8,86.83
236941,2018-06-29 10:48:16.406250,132.81,86.83
236942,2018-06-29 10:48:16.437500,106.09,86.83
236943,2018-06-29 10:48:16.468750,63.86,86.83
236944,2018-06-29 10:48:16.500000,24.0,86.83
236945,2018-06-29 10:48:16.531250,-5.29,86.97
236946,2018-06-29 10:48:16.562500,-21.14,86.97
236947,2018-06-29 10:48:16.593750,-26.52,86.97
236948,2018-06-29 10:48:16.625000,-25.39,86.97
236949,2018-06-29 10:48:16.656250,-21.7,86.97
236950,2018-06-29 10:48:16.687500,-22.35,86.97
236951,2018-06-29 10:48:16.718750,-38.56,86.97
236952,2018-06-29 10:48:16.750000,-72.44,86.97
236953,2018-06-29 10:48:16.781250,-96.29,86.97
236954,2018-06-29 10:48:16.812500,-88.23,86.97
236955,2018-06-29 10:48:16.843750,-60.21,86.97
236956,2018-06-29 10:48:16.875000,-21.18,86.97
236957,2018-06-29 10:48:16.906250,34.13,86.97
236958,2018-06-29 10:48:16.937500,102.24,86.97
236959,2018-06-29 10:48:16.968750,163.85,86.97
236960,2018-06-29 10:48:17.000000,182.8,86.97
236961,2018-06-29 10:48:17.031250,137.66,86.97
236962,2018-06-29 10:48:17.062500,59.75,86.97
236963,2018-06-29 10:48:17.093750,-10.76,86.97
236964,2018-06-29 10:48:17.125000,-56.17,86.97
236965,2018-06-29 10:48:17.156250,-74.24,86.97
236966,2018-06-29 10:48:17.187500,-65.26,86.97
236967,2018-06-29 10:48:17.218750,-45.76,86.97
236968,2018-06-29 10:48:17.250000,-33.32,86.97
236969,2018-06-29 10:48:17.281250,-29.28,86.97
236970,2018-06-29 10:48:17.312500,-26.83,86.97
236971,2018-06-29 10:48:17.343750,-22.55,86.97
236972,2018-06-29 10:48:17.375000,-14.62,86.97
236973,2018-06-29 10:48:17.406250,-0.17,86.97
236974,2018-06-29 10:48:17.437500,16.64,86.97
236975,2018-06-29 10:48:17.468750,23.83,86.97
236976,2018-06-29 10:48:17.500000,9.3,86.97
236977,2018-06-29 10:48:17.531250,-25.34,87.08
236978,2018-06-29 10:48:17.562500,-58.88,87.08
236979,2018-06-29 10:48:17.593750,-64.25,87.08
236980,2018-06-29 10:48:17.625000,-37.28,87.08
236981,2018-06-29 10:48:17.656250,1.69,87.08
236982,2018-06-29 10:48:17.687500,34.66,87.08
236983,2018-06-29 10:48:17.718750,58.62,87.08
236984,2018-06-29 10:48:17.750000,73.53,87.08
236985,2018-06-29 10:48:17.781250,74.21,87.08
236986,2018-06-29 10:48:17.812500,54.78,87.08
236987,2018-06-29 10:48:17.843750,16.39,87.08
236988,2018-06-29 10:48:17.875000,-34.32,87.08
236989,2018-06-29 10:48:17.906250,-72.29,87.08
236990,2018-06-29 10:48:17.937500,-76.2,87.08
236991,2018-06-29 10:48:17.968750,-47.03,87.08
236992,2018-06-29 10:48:18.000000,8.12,87.08
236993,2018-06-29 10:48:18.031250,71.96,87.08
236994,2018-06-29 10:48:18.062500,114.21,87.08
236995,2018-06-29 10:48:18.093750,108.98,87.08
236996,2018-06-29 10:48:18.125000,41.73,87.08
236997,2018-06-29 10:48:18.156250,-46.18,87.08
236998,2018-06-29 10:48:18.187500,-107.26,87.08
236999,2018-06-29 10:48:18.218750,-132.16,87.08
237000,2018-06-29 10:48:18.250000,-119.15,87.08
237001,2018-06-29 10:48:18.281250,-74.94,87.08
237002,2018-06-29 10:48:18.312500,-21.74,87.08
237003,2018-06-29 10:48:18.343750,11.84,87.08
237004,2018-06-29 10:48:18.375000,22.07,87.08
237005,2018-06-29 10:48:18.406250,26.43,87.08
237006,2018-06-29 10:48:18.437500,39.15,87.08
237007,2018-06-29 10:48:18.468750,58.64,87.08
237008,2018-06-29 10:48:18.500000,75.48,87.08
237009,2018-06-29 10:48:18.531250,81.41,87.22
237010,2018-06-29 10:48:18.562500,75.48,87.22
237011,2018-06-29 10:48:18.593750,60.9,87.22
237012,2018-06-29 10:48:18.625000,39.28,87.22
237013,2018-06-29 10:48:18.656250,8.91,87.22
237014,2018-06-29 10:48:18.687500,-24.89,87.22
237015,2018-06-29 10:48:18.718750,-52.09,87.22
237016,2018-06-29 10:48:18.750000,-66.34,87.22
237017,2018-06-29 10:48:18.781250,-74.22,87.22
237018,2018-06-29 10:48:18.812500,-75.4,87.22
237019,2018-06-29 10:48:18.843750,-53.25,87.22
237020,2018-06-29 10:48:18.875000,2.43,87.22
237021,2018-06-29 10:48:18.906250,71.89,87.22
237022,2018-06-29 10:48:18.937500,113.47,87.22
237023,2018-06-29 10:48:18.968750,106.24,87.22
237024,2018-06-29 10:48:19.000000,41.93,87.22
237025,2018-06-29 10:48:19.031250,-35.1,87.22
237026,2018-06-29 10:48:19.062500,-59.16,87.22
237027,2018-06-29 10:48:19.093750,-33.99,87.22
237028,2018-06-29 10:48:19.125000,19.06,87.22
237029,2018-06-29 10:48:19.156250,74.54,87.22
237030,2018-06-29 10:48:19.187500,102.27,87.22
237031,2018-06-29 10:48:19.218750,70.78,87.22
237032,2018-06-29 10:48:19.250000,-5.57,87.22
237033,2018-06-29 10:48:19.281250,-74.85,87.22
237034,2018-06-29 10:48:19.312500,-125.41,87.22
237035,2018-06-29 10:48:19.343750,-161.75,87.22
237036,2018-06-29 10:48:19.375000,-178.88,87.22
237037,2018-06-29 10:48:19.406250,-172.14,87.22
237038,2018-06-29 10:48:19.437500,-143.77,87.22
237039,2018-06-29 10:48:19.468750,-95.5,87.22
237040,2018-06-29 10:48:19.500000,-36.04,87.22
237041,2018-06-29 10:48:19.531250,23.89,87.37
237042,2018-06-29 10:48:19.562500,72.23,87.37
237043,2018-06-29 10:48:19.593750,105.57,87.37
237044,2018-06-29 10:48:19.625000,128.55,87.37
237045,2018-06-29 10:48:19.656250,144.93,87.37
237046,2018-06-29 10:48:19.687500,152.05,87.37
237047,2018-06-29 10:48:19.718750,141.05,87.37
237048,2018-06-29 10:48:19.750000,110.61,87.37
237049,2018-06-29 10:48:19.781250,68.52,87.37
237050,2018-06-29 10:48:19.812500,27.91,87.37
237051,2018-06-29 10:48:19.843750,-2.95,87.37
237052,2018-06-29 10:48:19.875000,-21.41,87.37
237053,2018-06-29 10:48:19.906250,-29.63,87.37
237054,2018-06-29 10:48:19.937500,-32.46,87.37
237055,2018-06-29 10:48:19.968750,-31.92,87.37
237056,2018-06-29 10:48:20.000000,-28.85,87.37
237057,2018-06-29 10:48:20.031250,-26.78,87.37
237058,2018-06-29 10:48:20.062500,-31.88,87.37
237059,2018-06-29 10:48:20.093750,-44.12,87.37
237060,2018-06-29 10:48:20.125000,-57.15,87.37
237061,2018-06-29 10:48:20.156250,-59.35,87.37
237062,2018-06-29 10:48:20.187500,-43.32,87.37
237063,2018-06-29 10:48:20.218750,-4.03,87.37
237064,2018-06-29 10:48:20.250000,56.19,87.37
237065,2018-06-29 10:48:20.281250,113.55,87.37
237066,2018-06-29 10:48:20.312500,141.82,87.37
237067,2018-06-29 10:48:20.343750,108.05,87.37
237068,2018-06-29 10:48:20.375000,21.65,87.37
237069,2018-06-29 10:48:20.406250,-57.85,87.37
237070,2018-06-29 10:48:20.437500,-102.53,87.37
237071,2018-06-29 10:48:20.468750,-127.22,87.37
237072,2018-06-29 10:48:20.500000,-135.14,87.37
237073,2018-06-29 10:48:20.531250,-120.53,87.55
237074,2018-06-29 10:48:20.562500,-95.06,87.55
237075,2018-06-29 10:48:20.593750,-73.44,87.55
237076,2018-06-29 10:48:20.625000,-65.65,87.55
237077,2018-06-29 10:48:20.656250,-66.91,87.55
237078,2018-06-29 10:48:20.687500,-64.02,87.55
237079,2018-06-29 10:48:20.718750,-40.1,87.55
237080,2018-06-29 10:48:20.750000,11.95,87.55
237081,2018-06-29 10:48:20.781250,81.53,87.55
237082,2018-06-29 10:48:20.812500,144.68,87.55
237083,2018-06-29 10:48:20.843750,182.4,87.55
237084,2018-06-29 10:48:20.875000,190.83,87.55
237085,2018-06-29 10:48:20.906250,172.08,87.55
237086,2018-06-29 10:48:20.937500,132.23,87.55
237087,2018-06-29 10:48:20.968750,80.06,87.55
237088,2018-06-29 10:48:21.000000,30.09,87.55
237089,2018-06-29 10:48:21.031250,-6.0,87.55
237090,2018-06-29 10:48:21.062500,-24.03,87.55
237091,2018-06-29 10:48:21.093750,-29.26,87.55
237092,2018-06-29 10:48:21.125000,-31.65,87.55
237093,2018-06-29 10:48:21.156250,-38.62,87.55
237094,2018-06-29 10:48:21.187500,-55.46,87.55
237095,2018-06-29 10:48:21.218750,-81.05,87.55
237096,2018-06-29 10:48:21.250000,-114.66,87.55
237097,2018-06-29 10:48:21.281250,-134.87,87.55
237098,2018-06-29 10:48:21.312500,-114.63,87.55
237099,2018-06-29 10:48:21.343750,-43.85,87.55
237100,2018-06-29 10:48:21.375000,74.29,87.55
237101,2018-06-29 10:48:21.406250,193.45,87.55
237102,2018-06-29 10:48:21.437500,256.94,87.55
237103,2018-06-29 10:48:21.468750,219.4,87.55
237104,2018-06-29 10:48:21.500000,103.06,87.55
237105,2018-06-29 10:48:21.531250,-1.53,87.73
237106,2018-06-29 10:48:21.562500,-63.61,87.73
237107,2018-06-29 10:48:21.593750,-103.66,87.73
237108,2018-06-29 10:48:21.625000,-124.29,87.73
237109,2018-06-29 10:48:21.656250,-124.26,87.73
237110,2018-06-29 10:48:21.687500,-116.89,87.73
237111,2018-06-29 10:48:21.718750,-111.73,87.73
237112,2018-06-29 10:48:21.750000,-105.15,87.73
237113,2018-06-29 10:48:21.781250,-83.92,87.73
237114,2018-06-29 10:48:21.812500,-47.72,87.73
237115,2018-06-29 10:48:21.843750,-8.39,87.73
237116,2018-06-29 10:48:21.875000,21.3,87.73
237117,2018-06-29 10:48:21.906250,31.44,87.73
237118,2018-06-29 10:48:21.937500,23.53,87.73
237119,2018-06-29 10:48:21.968750,12.01,87.73
237120,2018-06-29 10:48:22.000000,14.58,87.73
237121,2018-06-29 10:48:22.031250,32.87,87.73
237122,2018-06-29 10:48:22.062500,52.74,87.73
237123,2018-06-29 10:48:22.093750,59.06,87.73
237124,2018-06-29 10:48:22.125000,49.55,87.73
237125,2018-06-29 10:48:22.156250,35.08,87.73
237126,2018-06-29 10:48:22.187500,27.4,87.73
237127,2018-06-29 10:48:22.218750,31.25,87.73
237128,2018-06-29 10:48:22.250000,37.41,87.73
237129,2018-06-29 10:48:22.281250,26.16,87.73
237130,2018-06-29 10:48:22.312500,-16.99,87.73
237131,2018-06-29 10:48:22.343750,-80.3,87.73
237132,2018-06-29 10:48:22.375000,-113.41,87.73
237133,2018-06-29 10:48:22.406250,-99.72,87.73
237134,2018-06-29 10:48:22.437500,-53.25,87.73
237135,2018-06-29 10:48:22.468750,13.37,87.73
237136,2018-06-29 10:48:22.500000,81.72,87.73
237137,2018-06-29 10:48:22.531250,120.16,87.9
237138,2018-06-29 10:48:22.562500,99.88,87.9
237139,2018-06-29 10:48:22.593750,43.9,87.9
237140,2018-06-29 10:48:22.625000,8.92,87.9
237141,2018-06-29 10:48:22.656250,1.47,87.9
237142,2018-06-29 10:48:22.687500,-5.15,87.9
237143,2018-06-29 10:48:22.718750,-15.18,87.9
237144,2018-06-29 10:48:22.750000,-19.34,87.9
237145,2018-06-29 10:48:22.781250,-20.54,87.9
237146,2018-06-29 10:48:22.812500,-27.02,87.9
237147,2018-06-29 10:48:22.843750,-37.72,87.9
237148,2018-06-29 10:48:22.875000,-41.42,87.9
237149,2018-06-29 10:48:22.906250,-36.95,87.9
237150,2018-06-29 10:48:22.937500,-29.56,87.9
237151,2018-06-29 10:48:22.968750,-18.36,87.9
237152,2018-06-29 10:48:23.000000,4.33,87.9
237153,2018-06-29 10:48:23.031250,32.61,87.9
237154,2018-06-29 10:48:23.062500,46.12,87.9
237155,2018-06-29 10:48:23.093750,32.03,87.9
237156,2018-06-29 10:48:23.125000,-5.0,87.9
237157,2018-06-29 10:48:23.156250,-50.37,87.9
237158,2018-06-29 10:48:23.187500,-94.97,87.9
237159,2018-06-29 10:48:23.218750,-120.11,87.9
237160,2018-06-29 10:48:23.250000,-103.98,87.9
237161,2018-06-29 10:48:23.281250,-40.73,87.9
237162,2018-06-29 10:48:23.312500,40.05,87.9
237163,2018-06-29 10:48:23.343750,105.66,87.9
237164,2018-06-29 10:48:23.375000,146.68,87.9
237165,2018-06-29 10:48:23.406250,157.2,87.9
237166,2018-06-29 10:48:23.437500,128.58,87.9
237167,2018-06-29 10:48:23.468750,43.51,87.9
237168,2018-06-29 10:48:23.500000,-50.81,87.9
237169,2018-06-29 10:48:23.531250,-87.04,88.1
237170,2018-06-29 10:48:23.562500,-65.75,88.1
237171,2018-06-29 10:48:23.593750,-3.94,88.1
237172,2018-06-29 10:48:23.625000,68.02,88.1
237173,2018-06-29 10:48:23.656250,104.78,88.1
237174,2018-06-29 10:48:23.687500,62.42,88.1
237175,2018-06-29 10:48:23.718750,-16.86,88.1
237176,2018-06-29 10:48:23.750000,-79.26,88.1
237177,2018-06-29 10:48:23.781250,-118.81,88.1
237178,2018-06-29 10:48:23.812500,-138.04,88.1
237179,2018-06-29 10:48:23.843750,-135.39,88.1
237180,2018-06-29 10:48:23.875000,-110.0,88.1
237181,2018-06-29 10:48:23.906250,-60.02,88.1
237182,2018-06-29 10:48:23.937500,9.63,88.1
237183,2018-06-29 10:48:23.968750,74.47,88.1
237184,2018-06-29 10:48:24.000000,110.33,88.1
237185,2018-06-29 10:48:24.031250,107.43,88.1
237186,2018-06-29 10:48:24.062500,84.69,88.1
237187,2018-06-29 10:48:24.093750,70.41,88.1
237188,2018-06-29 10:48:24.125000,80.15,88.1
237189,2018-06-29 10:48:24.156250,100.11,88.1
237190,2018-06-29 10:48:24.187500,101.4,88.1
237191,2018-06-29 10:48:24.218750,72.99,88.1
237192,2018-06-29 10:48:24.250000,27.7,88.1
237193,2018-06-29 10:48:24.281250,-15.07,88.1
237194,2018-06-29 10:48:24.312500,-47.87,88.1
237195,2018-06-29 10:48:24.343750,-68.91,88.1
237196,2018-06-29 10:48:24.375000,-76.35,88.1
237197,2018-06-29 10:48:24.406250,-71.55,88.1
237198,2018-06-29 10:48:24.437500,-59.51,88.1
237199,2018-06-29 10:48:24.468750,-47.76,88.1
237200,2018-06-29 10:48:24.500000,-42.52,88.1
237201,2018-06-29 10:48:24.531250,-44.55,88.3
237202,2018-06-29 10:48:24.562500,-42.83,88.3
237203,2018-06-29 10:48:24.593750,-26.78,88.3
237204,2018-06-29 10:48:24.625000,-2.71,88.3
237205,2018-06-29 10:48:24.656250,13.86,88.3
237206,2018-06-29 10:48:24.687500,20.75,88.3
237207,2018-06-29 10:48:24.718750,36.0,88.3
237208,2018-06-29 10:48:24.750000,71.61,88.3
237209,2018-06-29 10:48:24.781250,115.54,88.3
237210,2018-06-29 10:48:24.812500,137.03,88.3
237211,2018-06-29 10:48:24.843750,108.68,88.3
237212,2018-06-29 10:48:24.875000,48.04,88.3
237213,2018-06-29 10:48:24.906250,-19.72,88.3
237214,2018-06-29 10:48:24.937500,-67.9,88.3
237215,2018-06-29 10:48:24.968750,-84.47,88.3
237216,2018-06-29 10:48:25.000000,-78.82,88.3
237217,2018-06-29 10:48:25.031250,-74.64,88.3
237218,2018-06-29 10:48:25.062500,-82.75,88.3
237219,2018-06-29 10:48:25.093750,-96.02,88.3
237220,2018-06-29 10:48:25.125000,-103.66,88.3
237221,2018-06-29 10:48:25.156250,-104.39,88.3
237222,2018-06-29 10:48:25.187500,-97.4,88.3
237223,2018-06-29 10:48:25.218750,-70.62,88.3
237224,2018-06-29 10:48:25.250000,-12.68,88.3
237225,2018-06-29 10:48:25.281250,66.34,88.3
237226,2018-06-29 10:48:25.312500,132.47,88.3
237227,2018-06-29 10:48:25.343750,155.43,88.3
237228,2018-06-29 10:48:25.375000,132.6,88.3
237229,2018-06-29 10:48:25.406250,87.93,88.3
237230,2018-06-29 10:48:25.437500,48.35,88.3
237231,2018-06-29 10:48:25.468750,26.06,88.3
237232,2018-06-29 10:48:25.500000,19.64,88.3
237233,2018-06-29 10:48:25.531250,20.82,88.47
237234,2018-06-29 10:48:25.562500,22.32,88.47
237235,2018-06-29 10:48:25.593750,24.63,88.47
237236,2018-06-29 10:48:25.625000,31.13,88.47
237237,2018-06-29 10:48:25.656250,33.55,88.47
237238,2018-06-29 10:48:25.687500,15.76,88.47
237239,2018-06-29 10:48:25.718750,-24.06,88.47
237240,2018-06-29 10:48:25.750000,-67.0,88.47
237241,2018-06-29 10:48:25.781250,-93.27,88.47
237242,2018-06-29 10:48:25.812500,-97.59,88.47
237243,2018-06-29 10:48:25.843750,-84.08,88.47
237244,2018-06-29 10:48:25.875000,-57.1,88.47
237245,2018-06-29 10:48:25.906250,-22.54,88.47
237246,2018-06-29 10:48:25.937500,8.91,88.47
237247,2018-06-29 10:48:25.968750,25.78,88.47
237248,2018-06-29 10:48:26.000000,24.79,88.47
237249,2018-06-29 10:48:26.031250,13.91,88.47
237250,2018-06-29 10:48:26.062500,4.85,88.47
237251,2018-06-29 10:48:26.093750,3.76,88.47
237252,2018-06-29 10:48:26.125000,8.81,88.47
237253,2018-06-29 10:48:26.156250,12.3,88.47
237254,2018-06-29 10:48:26.187500,6.75,88.47
237255,2018-06-29 10:48:26.218750,-7.37,88.47
237256,2018-06-29 10:48:26.250000,-22.12,88.47
237257,2018-06-29 10:48:26.281250,-28.9,88.47
237258,2018-06-29 10:48:26.312500,-22.87,88.47
237259,2018-06-29 10:48:26.343750,-5.28,88.47
237260,2018-06-29 10:48:26.375000,15.7,88.47
237261,2018-06-29 10:48:26.406250,32.2,88.47
237262,2018-06-29 10:48:26.437500,41.91,88.47
237263,2018-06-29 10:48:26.468750,39.73,88.47
237264,2018-06-29 10:48:26.500000,15.75,88.47
237265,2018-06-29 10:48:26.531250,-25.94,88.67
237266,2018-06-29 10:48:26.562500,-57.64,88.67
237267,2018-06-29 10:48:26.593750,-51.72,88.67
237268,2018-06-29 10:48:26.625000,-9.4,88.67
237269,2018-06-29 10:48:26.656250,45.13,88.67
237270,2018-06-29 10:48:26.687500,92.37,88.67
237271,2018-06-29 10:48:26.718750,128.1,88.67
237272,2018-06-29 10:48:26.750000,152.72,88.67
237273,2018-06-29 10:48:26.781250,159.35,88.67
237274,2018-06-29 10:48:26.812500,135.25,88.67
237275,2018-06-29 10:48:26.843750,79.31,88.67
237276,2018-06-29 10:48:26.875000,12.55,88.67
237277,2018-06-29 10:48:26.906250,-43.54,88.67
237278,2018-06-29 10:48:26.937500,-81.09,88.67
237279,2018-06-29 10:48:26.968750,-87.45,88.67
237280,2018-06-29 10:48:27.000000,-54.04,88.67
237281,2018-06-29 10:48:27.031250,-11.86,88.67
237282,2018-06-29 10:48:27.062500,-8.22,88.67
237283,2018-06-29 10:48:27.093750,-47.32,88.67
237284,2018-06-29 10:48:27.125000,-94.65,88.67
237285,2018-06-29 10:48:27.156250,-128.19,88.67
237286,2018-06-29 10:48:27.187500,-149.15,88.67
237287,2018-06-29 10:48:27.218750,-158.23,88.67
237288,2018-06-29 10:48:27.250000,-147.67,88.67
237289,2018-06-29 10:48:27.281250,-112.94,88.67
237290,2018-06-29 10:48:27.312500,-62.23,88.67
237291,2018-06-29 10:48:27.343750,-11.4,88.67
237292,2018-06-29 10:48:27.375000,26.65,88.67
237293,2018-06-29 10:48:27.406250,49.96,88.67
237294,2018-06-29 10:48:27.437500,64.11,88.67
237295,2018-06-29 10:48:27.468750,76.0,88.67
237296,2018-06-29 10:48:27.500000,86.89,88.67
237297,2018-06-29 10:48:27.531250,92.19,88.83
237298,2018-06-29 10:48:27.562500,83.41,88.83
237299,2018-06-29 10:48:27.593750,52.78,88.83
237300,2018-06-29 10:48:27.625000,7.29,88.83
237301,2018-06-29 10:48:27.656250,-34.77,88.83
237302,2018-06-29 10:48:27.687500,-59.17,88.83
237303,2018-06-29 10:48:27.718750,-71.57,88.83
237304,2018-06-29 10:48:27.750000,-80.84,88.83
237305,2018-06-29 10:48:27.781250,-86.35,88.83
237306,2018-06-29 10:48:27.812500,-82.81,88.83
237307,2018-06-29 10:48:27.843750,-72.28,88.83
237308,2018-06-29 10:48:27.875000,-71.02,88.83
237309,2018-06-29 10:48:27.906250,-87.21,88.83
237310,2018-06-29 10:48:27.937500,-117.83,88.83
237311,2018-06-29 10:48:27.968750,-121.91,88.83
237312,2018-06-29 10:48:28.000000,-73.07,88.83
237313,2018-06-29 10:48:28.031250,-14.9,88.83
237314,2018-06-29 10:48:28.062500,35.32,88.83
237315,2018-06-29 10:48:28.093750,86.09,88.83
237316,2018-06-29 10:48:28.125000,132.31,88.83
237317,2018-06-29 10:48:28.156250,160.21,88.83
237318,2018-06-29 10:48:28.187500,168.84,88.83
237319,2018-06-29 10:48:28.218750,155.44,88.83
237320,2018-06-29 10:48:28.250000,103.41,88.83
237321,2018-06-29 10:48:28.281250,28.65,88.83
237322,2018-06-29 10:48:28.312500,-36.3,88.83
237323,2018-06-29 10:48:28.343750,-74.07,88.83
237324,2018-06-29 10:48:28.375000,-90.9,88.83
237325,2018-06-29 10:48:28.406250,-88.29,88.83
237326,2018-06-29 10:48:28.437500,-75.77,88.83
237327,2018-06-29 10:48:28.468750,-62.35,88.83
237328,2018-06-29 10:48:28.500000,-50.92,88.83
237329,2018-06-29 10:48:28.531250,-38.79,88.98
237330,2018-06-29 10:48:28.562500,-18.9,88.98
237331,2018-06-29 10:48:28.593750,15.07,88.98
237332,2018-06-29 10:48:28.625000,57.99,88.98
237333,2018-06-29 10:48:28.656250,92.5,88.98
237334,2018-06-29 10:48:28.687500,110.0,88.98
237335,2018-06-29 10:48:28.718750,111.19,88.98
237336,2018-06-29 10:48:28.750000,100.02,88.98
237337,2018-06-29 10:48:28.781250,80.17,88.98
237338,2018-06-29 10:48:28.812500,58.32,88.98
237339,2018-06-29 10:48:28.843750,42.23,88.98
237340,2018-06-29 10:48:28.875000,32.41,88.98
237341,2018-06-29 10:48:28.906250,32.21,88.98
237342,2018-06-29 10:48:28.937500,40.26,88.98
237343,2018-06-29 10:48:28.968750,43.37,88.98
237344,2018-06-29 10:48:29.000000,20.69,88.98
237345,2018-06-29 10:48:29.031250,-27.37,88.98
237346,2018-06-29 10:48:29.062500,-51.81,88.98
237347,2018-06-29 10:48:29.093750,-34.46,88.98
237348,2018-06-29 10:48:29.125000,6.86,88.98
237349,2018-06-29 10:48:29.156250,52.49,88.98
237350,2018-06-29 10:48:29.187500,81.61,88.98
237351,2018-06-29 10:48:29.218750,66.82,88.98
237352,2018-06-29 10:48:29.250000,18.2,88.98
237353,2018-06-29 10:48:29.281250,-23.89,88.98
237354,2018-06-29 10:48:29.312500,-52.71,88.98
237355,2018-06-29 10:48:29.343750,-75.29,88.98
237356,2018-06-29 10:48:29.375000,-86.17,88.98
237357,2018-06-29 10:48:29.406250,-84.09,88.98
237358,2018-06-29 10:48:29.437500,-85.94,88.98
237359,2018-06-29 10:48:29.468750,-95.01,88.98
237360,2018-06-29 10:48:29.500000,-92.29,88.98
237361,2018-06-29 10:48:29.531250,-61.51,89.1
237362,2018-06-29 10:48:29.562500,-13.78,89.1
237363,2018-06-29 10:48:29.593750,30.79,89.1
237364,2018-06-29 10:48:29.625000,63.72,89.1
237365,2018-06-29 10:48:29.656250,82.86,89.1
237366,2018-06-29 10:48:29.687500,83.83,89.1
237367,2018-06-29 10:48:29.718750,61.9,89.1
237368,2018-06-29 10:48:29.750000,20.9,89.1
237369,2018-06-29 10:48:29.781250,-33.14,89.1
237370,2018-06-29 10:48:29.812500,-88.83,89.1
237371,2018-06-29 10:48:29.843750,-122.43,89.1
237372,2018-06-29 10:48:29.875000,-108.43,89.1
237373,2018-06-29 10:48:29.906250,-53.53,89.1
237374,2018-06-29 10:48:29.937500,4.7,89.1
237375,2018-06-29 10:48:29.968750,40.73,89.1
237376,2018-06-29 10:48:30.000000,61.45,89.1
237377,2018-06-29 10:48:30.031250,81.01,89.1
237378,2018-06-29 10:48:30.062500,91.88,89.1
237379,2018-06-29 10:48:30.093750,82.38,89.1
237380,2018-06-29 10:48:30.125000,49.86,89.1
237381,2018-06-29 10:48:30.156250,-3.9,89.1
237382,2018-06-29 10:48:30.187500,-47.67,89.1
237383,2018-06-29 10:48:30.218750,-58.52,89.1
237384,2018-06-29 10:48:30.250000,-37.49,89.1
237385,2018-06-29 10:48:30.281250,7.68,89.1
237386,2018-06-29 10:48:30.312500,65.45,89.1
237387,2018-06-29 10:48:30.343750,106.46,89.1
237388,2018-06-29 10:48:30.375000,107.8,89.1
237389,2018-06-29 10:48:30.406250,51.65,89.1
237390,2018-06-29 10:48:30.437500,-29.63,89.1
237391,2018-06-29 10:48:30.468750,-79.72,89.1
237392,2018-06-29 10:48:30.500000,-87.69,89.1
237393,2018-06-29 10:48:30.531250,-78.27,89.18
237394,2018-06-29 10:48:30.562500,-68.92,89.18
237395,2018-06-29 10:48:30.593750,-57.34,89.18
237396,2018-06-29 10:48:30.625000,-42.83,89.18
237397,2018-06-29 10:48:30.656250,-27.48,89.18
237398,2018-06-29 10:48:30.687500,-16.28,89.18
237399,2018-06-29 10:48:30.718750,-11.19,89.18
237400,2018-06-29 10:48:30.750000,-11.63,89.18
237401,2018-06-29 10:48:30.781250,-7.85,89.18
237402,2018-06-29 10:48:30.812500,7.87,89.18
237403,2018-06-29 10:48:30.843750,29.99,89.18
237404,2018-06-29 10:48:30.875000,43.49,89.18
237405,2018-06-29 10:48:30.906250,40.29,89.18
237406,2018-06-29 10:48:30.937500,23.99,89.18
237407,2018-06-29 10:48:30.968750,-1.52,89.18
237408,2018-06-29 10:48:31.000000,-35.31,89.18
237409,2018-06-29 10:48:31.031250,-73.53,89.18
237410,2018-06-29 10:48:31.062500,-99.98,89.18
237411,2018-06-29 10:48:31.093750,-91.94,89.18
237412,2018-06-29 10:48:31.125000,-43.38,89.18
237413,2018-06-29 10:48:31.156250,24.03,89.18
237414,2018-06-29 10:48:31.187500,84.08,89.18
237415,2018-06-29 10:48:31.218750,127.33,89.18
237416,2018-06-29 10:48:31.250000,150.94,89.18
237417,2018-06-29 10:48:31.281250,147.02,89.18
237418,2018-06-29 10:48:31.312500,111.74,89.18
237419,2018-06-29 10:48:31.343750,54.8,89.18
237420,2018-06-29 10:48:31.375000,-3.61,89.18
237421,2018-06-29 10:48:31.406250,-40.92,89.18
237422,2018-06-29 10:48:31.437500,-40.9,89.18
237423,2018-06-29 10:48:31.468750,-6.98,89.18
237424,2018-06-29 10:48:31.500000,31.68,89.18
237425,2018-06-29 10:48:31.531250,39.19,89.27
237426,2018-06-29 10:48:31.562500,3.35,89.27
237427,2018-06-29 10:48:31.593750,-58.01,89.27
237428,2018-06-29 10:48:31.625000,-117.93,89.27
237429,2018-06-29 10:48:31.656250,-160.11,89.27
237430,2018-06-29 10:48:31.687500,-179.94,89.27
237431,2018-06-29 10:48:31.718750,-173.8,89.27
237432,2018-06-29 10:48:31.750000,-134.05,89.27
237433,2018-06-29 10:48:31.781250,-61.29,89.27
237434,2018-06-29 10:48:31.812500,25.06,89.27
237435,2018-06-29 10:48:31.843750,96.87,89.27
237436,2018-06-29 10:48:31.875000,136.19,89.27
237437,2018-06-29 10:48:31.906250,144.44,89.27
237438,2018-06-29 10:48:31.937500,138.67,89.27
237439,2018-06-29 10:48:31.968750,139.1,89.27
237440,2018-06-29 10:48:32.000000,149.26,89.27
237441,2018-06-29 10:48:32.031250,153.63,89.27
237442,2018-06-29 10:48:32.062500,136.04,89.27
237443,2018-06-29 10:48:32.093750,97.0,89.27
237444,2018-06-29 10:48:32.125000,48.84,89.27
237445,2018-06-29 10:48:32.156250,2.15,89.27
237446,2018-06-29 10:48:32.187500,-34.29,89.27
237447,2018-06-29 10:48:32.218750,-54.61,89.27
237448,2018-06-29 10:48:32.250000,-58.2,89.27
237449,2018-06-29 10:48:32.281250,-56.91,89.27
237450,2018-06-29 10:48:32.312500,-56.47,89.27
237451,2018-06-29 10:48:32.343750,-53.06,89.27
237452,2018-06-29 10:48:32.375000,-44.89,89.27
237453,2018-06-29 10:48:32.406250,-39.21,89.27
237454,2018-06-29 10:48:32.437500,-45.71,89.27
237455,2018-06-29 10:48:32.468750,-50.97,89.27
237456,2018-06-29 10:48:32.500000,-32.89,89.27
237457,2018-06-29 10:48:32.531250,17.79,89.35
237458,2018-06-29 10:48:32.562500,82.61,89.35
237459,2018-06-29 10:48:32.593750,132.5,89.35
237460,2018-06-29 10:48:32.625000,138.5,89.35
237461,2018-06-29 10:48:32.656250,74.27,89.35
237462,2018-06-29 10:48:32.687500,-8.4,89.35
237463,2018-06-29 10:48:32.718750,-82.14,89.35
237464,2018-06-29 10:48:32.750000,-133.09,89.35
237465,2018-06-29 10:48:32.781250,-148.09,89.35
237466,2018-06-29 10:48:32.812500,-127.4,89.35
237467,2018-06-29 10:48:32.843750,-91.74,89.35
237468,2018-06-29 10:48:32.875000,-54.18,89.35
237469,2018-06-29 10:48:32.906250,-18.45,89.35
237470,2018-06-29 10:48:32.937500,11.69,89.35
237471,2018-06-29 10:48:32.968750,26.32,89.35
237472,2018-06-29 10:48:33.000000,12.36,89.35
237473,2018-06-29 10:48:33.031250,-23.08,89.35
237474,2018-06-29 10:48:33.062500,-47.61,89.35
237475,2018-06-29 10:48:33.093750,-24.78,89.35
237476,2018-06-29 10:48:33.125000,36.62,89.35
237477,2018-06-29 10:48:33.156250,88.82,89.35
237478,2018-06-29 10:48:33.187500,97.55,89.35
237479,2018-06-29 10:48:33.218750,71.17,89.35
237480,2018-06-29 10:48:33.250000,35.74,89.35
237481,2018-06-29 10:48:33.281250,6.71,89.35
237482,2018-06-29 10:48:33.312500,-10.63,89.35
237483,2018-06-29 10:48:33.343750,-14.89,89.35
237484,2018-06-29 10:48:33.375000,-10.16,89.35
237485,2018-06-29 10:48:33.406250,-3.0,89.35
237486,2018-06-29 10:48:33.437500,2.6,89.35
237487,2018-06-29 10:48:33.468750,3.41,89.35
237488,2018-06-29 10:48:33.500000,-11.53,89.35
237489,2018-06-29 10:48:33.531250,-54.24,89.45
237490,2018-06-29 10:48:33.562500,-99.63,89.45
237491,2018-06-29 10:48:33.593750,-103.0,89.45
237492,2018-06-29 10:48:33.625000,-65.31,89.45
237493,2018-06-29 10:48:33.656250,-12.89,89.45
237494,2018-06-29 10:48:33.687500,42.67,89.45
237495,2018-06-29 10:48:33.718750,92.76,89.45
237496,2018-06-29 10:48:33.750000,121.25,89.45
237497,2018-06-29 10:48:33.781250,128.4,89.45
237498,2018-06-29 10:48:33.812500,107.98,89.45
237499,2018-06-29 10:48:33.843750,66.49,89.45
237500,2018-06-29 10:48:33.875000,18.41,89.45
237501,2018-06-29 10:48:33.906250,-29.97,89.45
237502,2018-06-29 10:48:33.937500,-69.47,89.45
237503,2018-06-29 10:48:33.968750,-85.0,89.45
237504,2018-06-29 10:48:34.000000,-79.45,89.45
237505,2018-06-29 10:48:34.031250,-70.55,89.45
237506,2018-06-29 10:48:34.062500,-68.91,89.45
237507,2018-06-29 10:48:34.093750,-66.28,89.45
237508,2018-06-29 10:48:34.125000,-48.55,89.45
237509,2018-06-29 10:48:34.156250,-13.35,89.45
237510,2018-06-29 10:48:34.187500,31.26,89.45
237511,2018-06-29 10:48:34.218750,70.81,89.45
237512,2018-06-29 10:48:34.250000,87.94,89.45
237513,2018-06-29 10:48:34.281250,72.86,89.45
237514,2018-06-29 10:48:34.312500,33.58,89.45
237515,2018-06-29 10:48:34.343750,-12.83,89.45
237516,2018-06-29 10:48:34.375000,-55.17,89.45
237517,2018-06-29 10:48:34.406250,-85.85,89.45
237518,2018-06-29 10:48:34.437500,-94.36,89.45
237519,2018-06-29 10:48:34.468750,-75.97,89.45
237520,2018-06-29 10:48:34.500000,-43.52,89.45
237521,2018-06-29 10:48:34.531250,-14.46,89.57
237522,2018-06-29 10:48:34.562500,4.45,89.57
237523,2018-06-29 10:48:34.593750,8.23,89.57
237524,2018-06-29 10:48:34.625000,-8.76,89.57
237525,2018-06-29 10:48:34.656250,-32.38,89.57
237526,2018-06-29 10:48:34.687500,-23.58,89.57
237527,2018-06-29 10:48:34.718750,24.91,89.57
237528,2018-06-29 10:48:34.750000,88.65,89.57
237529,2018-06-29 10:48:34.781250,138.44,89.57
237530,2018-06-29 10:48:34.812500,154.76,89.57
237531,2018-06-29 10:48:34.843750,134.39,89.57
237532,2018-06-29 10:48:34.875000,76.61,89.57
237533,2018-06-29 10:48:34.906250,2.6,89.57
237534,2018-06-29 10:48:34.937500,-55.89,89.57
237535,2018-06-29 10:48:34.968750,-97.51,89.57
237536,2018-06-29 10:48:35.000000,-134.65,89.57
237537,2018-06-29 10:48:35.031250,-171.15,89.57
237538,2018-06-29 10:48:35.062500,-194.04,89.57
237539,2018-06-29 10:48:35.093750,-186.96,89.57
237540,2018-06-29 10:48:35.125000,-142.91,89.57
237541,2018-06-29 10:48:35.156250,-70.07,89.57
237542,2018-06-29 10:48:35.187500,13.19,89.57
237543,2018-06-29 10:48:35.218750,87.83,89.57
237544,2018-06-29 10:48:35.250000,145.24,89.57
237545,2018-06-29 10:48:35.281250,181.66,89.57
237546,2018-06-29 10:48:35.312500,189.95,89.57
237547,2018-06-29 10:48:35.343750,167.02,89.57
237548,2018-06-29 10:48:35.375000,119.26,89.57
237549,2018-06-29 10:48:35.406250,62.6,89.57
237550,2018-06-29 10:48:35.437500,11.8,89.57
237551,2018-06-29 10:48:35.468750,-21.83,89.57
237552,2018-06-29 10:48:35.500000,-35.98,89.57
237553,2018-06-29 10:48:35.531250,-37.67,89.67
237554,2018-06-29 10:48:35.562500,-34.82,89.67
237555,2018-06-29 10:48:35.593750,-30.13,89.67
237556,2018-06-29 10:48:35.625000,-21.03,89.67
237557,2018-06-29 10:48:35.656250,-8.64,89.67
237558,2018-06-29 10:48:35.687500,2.83,89.67
237559,2018-06-29 10:48:35.718750,5.62,89.67
237560,2018-06-29 10:48:35.750000,-3.52,89.67
237561,2018-06-29 10:48:35.781250,-18.14,89.67
237562,2018-06-29 10:48:35.812500,-27.62,89.67
237563,2018-06-29 10:48:35.843750,-20.23,89.67
237564,2018-06-29 10:48:35.875000,0.66,89.67
237565,2018-06-29 10:48:35.906250,40.81,89.67
237566,2018-06-29 10:48:35.937500,96.75,89.67
237567,2018-06-29 10:48:35.968750,140.4,89.67
237568,2018-06-29 10:48:36.000000,140.42,89.67
237569,2018-06-29 10:48:36.031250,72.6,89.67
237570,2018-06-29 10:48:36.062500,-19.94,89.67
237571,2018-06-29 10:48:36.093750,-87.78,89.67
237572,2018-06-29 10:48:36.125000,-127.83,89.67
237573,2018-06-29 10:48:36.156250,-145.55,89.67
237574,2018-06-29 10:48:36.187500,-142.75,89.67
237575,2018-06-29 10:48:36.218750,-124.6,89.67
237576,2018-06-29 10:48:36.250000,-103.71,89.67
237577,2018-06-29 10:48:36.281250,-82.8,89.67
237578,2018-06-29 10:48:36.312500,-58.81,89.67
237579,2018-06-29 10:48:36.343750,-36.09,89.67
237580,2018-06-29 10:48:36.375000,-28.7,89.67
237581,2018-06-29 10:48:36.406250,-35.96,89.67
237582,2018-06-29 10:48:36.437500,-35.77,89.67
237583,2018-06-29 10:48:36.468750,-7.24,89.67
237584,2018-06-29 10:48:36.500000,40.77,89.67
237585,2018-06-29 10:48:36.531250,81.66,89.8
237586,2018-06-29 10:48:36.562500,99.57,89.8
237587,2018-06-29 10:48:36.593750,94.08,89.8
237588,2018-06-29 10:48:36.625000,73.84,89.8
237589,2018-06-29 10:48:36.656250,52.8,89.8
237590,2018-06-29 10:48:36.687500,44.16,89.8
237591,2018-06-29 10:48:36.718750,47.95,89.8
237592,2018-06-29 10:48:36.750000,54.35,89.8
237593,2018-06-29 10:48:36.781250,57.51,89.8
237594,2018-06-29 10:48:36.812500,61.46,89.8
237595,2018-06-29 10:48:36.843750,70.51,89.8
237596,2018-06-29 10:48:36.875000,73.89,89.8
237597,2018-06-29 10:48:36.906250,49.21,89.8
237598,2018-06-29 10:48:36.937500,-8.86,89.8
237599,2018-06-29 10:48:36.968750,-71.04,89.8
237600,2018-06-29 10:48:37.000000,-98.86,89.8
237601,2018-06-29 10:48:37.031250,-81.6,89.8
237602,2018-06-29 10:48:37.062500,-41.99,89.8
237603,2018-06-29 10:48:37.093750,-15.24,89.8
237604,2018-06-29 10:48:37.125000,-22.6,89.8
237605,2018-06-29 10:48:37.156250,-55.21,89.8
237606,2018-06-29 10:48:37.187500,-83.91,89.8
237607,2018-06-29 10:48:37.218750,-87.27,89.8
237608,2018-06-29 10:48:37.250000,-65.58,89.8
237609,2018-06-29 10:48:37.281250,-32.84,89.8
237610,2018-06-29 10:48:37.312500,-2.19,89.8
237611,2018-06-29 10:48:37.343750,21.88,89.8
237612,2018-06-29 10:48:37.375000,42.63,89.8
237613,2018-06-29 10:48:37.406250,61.69,89.8
237614,2018-06-29 10:48:37.437500,74.1,89.8
237615,2018-06-29 10:48:37.468750,73.43,89.8
237616,2018-06-29 10:48:37.500000,57.55,89.8
237617,2018-06-29 10:48:37.531250,36.53,89.93
237618,2018-06-29 10:48:37.562500,27.36,89.93
237619,2018-06-29 10:48:37.593750,37.15,89.93
237620,2018-06-29 10:48:37.625000,52.31,89.93
237621,2018-06-29 10:48:37.656250,57.53,89.93
237622,2018-06-29 10:48:37.687500,46.31,89.93
237623,2018-06-29 10:48:37.718750,16.58,89.93
237624,2018-06-29 10:48:37.750000,-26.52,89.93
237625,2018-06-29 10:48:37.781250,-71.03,89.93
237626,2018-06-29 10:48:37.812500,-94.96,89.93
237627,2018-06-29 10:48:37.843750,-85.54,89.93
237628,2018-06-29 10:48:37.875000,-42.62,89.93
237629,2018-06-29 10:48:37.906250,14.97,89.93
237630,2018-06-29 10:48:37.937500,74.02,89.93
237631,2018-06-29 10:48:37.968750,124.77,89.93
237632,2018-06-29 10:48:38.000000,143.3,89.93
237633,2018-06-29 10:48:38.031250,111.33,89.93
237634,2018-06-29 10:48:38.062500,21.56,89.93
237635,2018-06-29 10:48:38.093750,-62.16,89.93
237636,2018-06-29 10:48:38.125000,-76.69,89.93
237637,2018-06-29 10:48:38.156250,-41.66,89.93
237638,2018-06-29 10:48:38.187500,16.17,89.93
237639,2018-06-29 10:48:38.218750,73.83,89.93
237640,2018-06-29 10:48:38.250000,93.94,89.93
237641,2018-06-29 10:48:38.281250,38.88,89.93
237642,2018-06-29 10:48:38.312500,-43.63,89.93
237643,2018-06-29 10:48:38.343750,-115.69,89.93
237644,2018-06-29 10:48:38.375000,-161.94,89.93
237645,2018-06-29 10:48:38.406250,-185.35,89.93
237646,2018-06-29 10:48:38.437500,-190.06,89.93
237647,2018-06-29 10:48:38.468750,-181.18,89.93
237648,2018-06-29 10:48:38.500000,-153.1,89.93
237649,2018-06-29 10:48:38.531250,-99.62,90.03
237650,2018-06-29 10:48:38.562500,-28.71,90.03
237651,2018-06-29 10:48:38.593750,39.96,90.03
237652,2018-06-29 10:48:38.625000,87.05,90.03
237653,2018-06-29 10:48:38.656250,113.02,90.03
237654,2018-06-29 10:48:38.687500,124.16,90.03
237655,2018-06-29 10:48:38.718750,125.77,90.03
237656,2018-06-29 10:48:38.750000,118.23,90.03
237657,2018-06-29 10:48:38.781250,101.05,90.03
237658,2018-06-29 10:48:38.812500,72.66,90.03
237659,2018-06-29 10:48:38.843750,38.27,90.03
237660,2018-06-29 10:48:38.875000,9.76,90.03
237661,2018-06-29 10:48:38.906250,-4.74,90.03
237662,2018-06-29 10:48:38.937500,-9.85,90.03
237663,2018-06-29 10:48:38.968750,-11.86,90.03
237664,2018-06-29 10:48:39.000000,-9.28,90.03
237665,2018-06-29 10:48:39.031250,2.34,90.03
237666,2018-06-29 10:48:39.062500,18.7,90.03
237667,2018-06-29 10:48:39.093750,21.72,90.03
237668,2018-06-29 10:48:39.125000,-2.33,90.03
237669,2018-06-29 10:48:39.156250,-55.45,90.03
237670,2018-06-29 10:48:39.187500,-93.1,90.03
237671,2018-06-29 10:48:39.218750,-70.79,90.03
237672,2018-06-29 10:48:39.250000,-6.98,90.03
237673,2018-06-29 10:48:39.281250,69.03,90.03
237674,2018-06-29 10:48:39.312500,133.91,90.03
237675,2018-06-29 10:48:39.343750,163.57,90.03
237676,2018-06-29 10:48:39.375000,123.32,90.03
237677,2018-06-29 10:48:39.406250,26.21,90.03
237678,2018-06-29 10:48:39.437500,-61.7,90.03
237679,2018-06-29 10:48:39.468750,-111.53,90.03
237680,2018-06-29 10:48:39.500000,-135.99,90.03
237681,2018-06-29 10:48:39.531250,-137.9,90.15
237682,2018-06-29 10:48:39.562500,-117.71,90.15
237683,2018-06-29 10:48:39.593750,-85.96,90.15
237684,2018-06-29 10:48:39.625000,-52.33,90.15
237685,2018-06-29 10:48:39.656250,-20.55,90.15
237686,2018-06-29 10:48:39.687500,7.57,90.15
237687,2018-06-29 10:48:39.718750,17.19,90.15
237688,2018-06-29 10:48:39.750000,-1.31,90.15
237689,2018-06-29 10:48:39.781250,-24.05,90.15
237690,2018-06-29 10:48:39.812500,-8.75,90.15
237691,2018-06-29 10:48:39.843750,48.85,90.15
237692,2018-06-29 10:48:39.875000,105.34,90.15
237693,2018-06-29 10:48:39.906250,120.62,90.15
237694,2018-06-29 10:48:39.937500,94.94,90.15
237695,2018-06-29 10:48:39.968750,54.79,90.15
237696,2018-06-29 10:48:40.000000,22.42,90.15
237697,2018-06-29 10:48:40.031250,6.03,90.15
237698,2018-06-29 10:48:40.062500,-1.15,90.15
237699,2018-06-29 10:48:40.093750,-3.93,90.15
237700,2018-06-29 10:48:40.125000,-0.21,90.15
237701,2018-06-29 10:48:40.156250,13.64,90.15
237702,2018-06-29 10:48:40.187500,28.25,90.15
237703,2018-06-29 10:48:40.218750,24.91,90.15
237704,2018-06-29 10:48:40.250000,-8.8,90.15
237705,2018-06-29 10:48:40.281250,-69.38,90.15
237706,2018-06-29 10:48:40.312500,-105.74,90.15
237707,2018-06-29 10:48:40.343750,-93.68,90.15
237708,2018-06-29 10:48:40.375000,-55.17,90.15
237709,2018-06-29 10:48:40.406250,-9.05,90.15
237710,2018-06-29 10:48:40.437500,31.76,90.15
237711,2018-06-29 10:48:40.468750,60.79,90.15
237712,2018-06-29 10:48:40.500000,62.84,90.15
237713,2018-06-29 10:48:40.531250,37.17,90.27
237714,2018-06-29 10:48:40.562500,5.34,90.27
237715,2018-06-29 10:48:40.593750,-23.21,90.27
237716,2018-06-29 10:48:40.625000,-47.17,90.27
237717,2018-06-29 10:48:40.656250,-58.42,90.27
237718,2018-06-29 10:48:40.687500,-50.0,90.27
237719,2018-06-29 10:48:40.718750,-24.27,90.27
237720,2018-06-29 10:48:40.750000,5.43,90.27
237721,2018-06-29 10:48:40.781250,22.14,90.27
237722,2018-06-29 10:48:40.812500,20.2,90.27
237723,2018-06-29 10:48:40.843750,6.21,90.27
237724,2018-06-29 10:48:40.875000,-4.17,90.27
237725,2018-06-29 10:48:40.906250,-2.22,90.27
237726,2018-06-29 10:48:40.937500,9.94,90.27
237727,2018-06-29 10:48:40.968750,26.08,90.27
237728,2018-06-29 10:48:41.000000,35.0,90.27
237729,2018-06-29 10:48:41.031250,22.15,90.27
237730,2018-06-29 10:48:41.062500,-17.0,90.27
237731,2018-06-29 10:48:41.093750,-55.9,90.27
237732,2018-06-29 10:48:41.125000,-60.76,90.27
237733,2018-06-29 10:48:41.156250,-27.11,90.27
237734,2018-06-29 10:48:41.187500,18.7,90.27
237735,2018-06-29 10:48:41.218750,50.84,90.27
237736,2018-06-29 10:48:41.250000,68.67,90.27
237737,2018-06-29 10:48:41.281250,80.0,90.27
237738,2018-06-29 10:48:41.312500,90.23,90.27
237739,2018-06-29 10:48:41.343750,88.14,90.27
237740,2018-06-29 10:48:41.375000,58.69,90.27
237741,2018-06-29 10:48:41.406250,-3.59,90.27
237742,2018-06-29 10:48:41.437500,-73.93,90.27
237743,2018-06-29 10:48:41.468750,-96.08,90.27
237744,2018-06-29 10:48:41.500000,-78.17,90.27
237745,2018-06-29 10:48:41.531250,-40.86,90.37
237746,2018-06-29 10:48:41.562500,17.89,90.37
237747,2018-06-29 10:48:41.593750,77.75,90.37
237748,2018-06-29 10:48:41.625000,89.99,90.37
237749,2018-06-29 10:48:41.656250,31.33,90.37
237750,2018-06-29 10:48:41.687500,-46.28,90.37
237751,2018-06-29 10:48:41.718750,-112.48,90.37
237752,2018-06-29 10:48:41.750000,-157.06,90.37
237753,2018-06-29 10:48:41.781250,-164.49,90.37
237754,2018-06-29 10:48:41.812500,-122.99,90.37
237755,2018-06-29 10:48:41.843750,-51.09,90.37
237756,2018-06-29 10:48:41.875000,21.02,90.37
237757,2018-06-29 10:48:41.906250,63.84,90.37
237758,2018-06-29 10:48:41.937500,65.2,90.37
237759,2018-06-29 10:48:41.968750,39.18,90.37
237760,2018-06-29 10:48:42.000000,19.11,90.37
237761,2018-06-29 10:48:42.031250,31.42,90.37
237762,2018-06-29 10:48:42.062500,66.84,90.37
237763,2018-06-29 10:48:42.093750,99.21,90.37
237764,2018-06-29 10:48:42.125000,110.44,90.37
237765,2018-06-29 10:48:42.156250,98.06,90.37
237766,2018-06-29 10:48:42.187500,62.23,90.37
237767,2018-06-29 10:48:42.218750,14.08,90.37
237768,2018-06-29 10:48:42.250000,-24.75,90.37
237769,2018-06-29 10:48:42.281250,-43.15,90.37
237770,2018-06-29 10:48:42.312500,-50.61,90.37
237771,2018-06-29 10:48:42.343750,-59.36,90.37
237772,2018-06-29 10:48:42.375000,-65.61,90.37
237773,2018-06-29 10:48:42.406250,-56.92,90.37
237774,2018-06-29 10:48:42.437500,-25.98,90.37
237775,2018-06-29 10:48:42.468750,13.93,90.37
237776,2018-06-29 10:48:42.500000,33.39,90.37
237777,2018-06-29 10:48:42.531250,6.88,90.45
237778,2018-06-29 10:48:42.562500,-54.58,90.45
237779,2018-06-29 10:48:42.593750,-92.76,90.45
237780,2018-06-29 10:48:42.625000,-86.31,90.45
237781,2018-06-29 10:48:42.656250,-44.4,90.45
237782,2018-06-29 10:48:42.687500,30.32,90.45
237783,2018-06-29 10:48:42.718750,113.12,90.45
237784,2018-06-29 10:48:42.750000,157.39,90.45
237785,2018-06-29 10:48:42.781250,147.77,90.45
237786,2018-06-29 10:48:42.812500,91.36,90.45
237787,2018-06-29 10:48:42.843750,20.88,90.45
237788,2018-06-29 10:48:42.875000,-39.76,90.45
237789,2018-06-29 10:48:42.906250,-84.66,90.45
237790,2018-06-29 10:48:42.937500,-111.35,90.45
237791,2018-06-29 10:48:42.968750,-115.57,90.45
237792,2018-06-29 10:48:43.000000,-110.47,90.45
237793,2018-06-29 10:48:43.031250,-116.45,90.45
237794,2018-06-29 10:48:43.062500,-127.34,90.45
237795,2018-06-29 10:48:43.093750,-107.62,90.45
237796,2018-06-29 10:48:43.125000,-21.49,90.45
237797,2018-06-29 10:48:43.156250,104.75,90.45
237798,2018-06-29 10:48:43.187500,202.87,90.45
237799,2018-06-29 10:48:43.218750,223.54,90.45
237800,2018-06-29 10:48:43.250000,175.37,90.45
237801,2018-06-29 10:48:43.281250,95.21,90.45
237802,2018-06-29 10:48:43.312500,14.41,90.45
237803,2018-06-29 10:48:43.343750,-44.66,90.45
237804,2018-06-29 10:48:43.375000,-70.95,90.45
237805,2018-06-29 10:48:43.406250,-68.77,90.45
237806,2018-06-29 10:48:43.437500,-57.82,90.45
237807,2018-06-29 10:48:43.468750,-45.42,90.45
237808,2018-06-29 10:48:43.500000,-31.12,90.45
237809,2018-06-29 10:48:43.531250,-14.75,90.53
237810,2018-06-29 10:48:43.562500,1.44,90.53
237811,2018-06-29 10:48:43.593750,11.84,90.53
237812,2018-06-29 10:48:43.625000,5.26,90.53
237813,2018-06-29 10:48:43.656250,-38.78,90.53
237814,2018-06-29 10:48:43.687500,-88.2,90.53
237815,2018-06-29 10:48:43.718750,-87.24,90.53
237816,2018-06-29 10:48:43.750000,-20.28,90.53
237817,2018-06-29 10:48:43.781250,88.98,90.53
237818,2018-06-29 10:48:43.812500,189.11,90.53
237819,2018-06-29 10:48:43.843750,232.05,90.53
237820,2018-06-29 10:48:43.875000,169.85,90.53
237821,2018-06-29 10:48:43.906250,57.19,90.53
237822,2018-06-29 10:48:43.937500,-34.23,90.53
237823,2018-06-29 10:48:43.968750,-96.02,90.53
237824,2018-06-29 10:48:44.000000,-126.79,90.53
237825,2018-06-29 10:48:44.031250,-126.12,90.53
237826,2018-06-29 10:48:44.062500,-107.14,90.53
237827,2018-06-29 10:48:44.093750,-80.52,90.53
237828,2018-06-29 10:48:44.125000,-46.41,90.53
237829,2018-06-29 10:48:44.156250,-11.45,90.53
237830,2018-06-29 10:48:44.187500,12.19,90.53
237831,2018-06-29 10:48:44.218750,11.03,90.53
237832,2018-06-29 10:48:44.250000,-6.39,90.53
237833,2018-06-29 10:48:44.281250,-19.72,90.53
237834,2018-06-29 10:48:44.312500,-13.22,90.53
237835,2018-06-29 10:48:44.343750,9.8,90.53
237836,2018-06-29 10:48:44.375000,37.32,90.53
237837,2018-06-29 10:48:44.406250,62.3,90.53
237838,2018-06-29 10:48:44.437500,75.96,90.53
237839,2018-06-29 10:48:44.468750,70.41,90.53
237840,2018-06-29 10:48:44.500000,48.08,90.53
237841,2018-06-29 10:48:44.531250,22.51,90.58
237842,2018-06-29 10:48:44.562500,2.6,90.58
237843,2018-06-29 10:48:44.593750,-11.77,90.58
237844,2018-06-29 10:48:44.625000,-20.55,90.58
237845,2018-06-29 10:48:44.656250,-18.02,90.58
237846,2018-06-29 10:48:44.687500,-1.88,90.58
237847,2018-06-29 10:48:44.718750,15.64,90.58
237848,2018-06-29 10:48:44.750000,14.52,90.58
237849,2018-06-29 10:48:44.781250,-12.08,90.58
237850,2018-06-29 10:48:44.812500,-54.75,90.58
237851,2018-06-29 10:48:44.843750,-85.63,90.58
237852,2018-06-29 10:48:44.875000,-87.65,90.58
237853,2018-06-29 10:48:44.906250,-61.27,90.58
237854,2018-06-29 10:48:44.937500,-8.61,90.58
237855,2018-06-29 10:48:44.968750,54.25,90.58
237856,2018-06-29 10:48:45.000000,98.04,90.58
237857,2018-06-29 10:48:45.031250,107.18,90.58
237858,2018-06-29 10:48:45.062500,76.46,90.58
237859,2018-06-29 10:48:45.093750,26.71,90.58
237860,2018-06-29 10:48:45.125000,-21.79,90.58
237861,2018-06-29 10:48:45.156250,-61.26,90.58
237862,2018-06-29 10:48:45.187500,-86.03,90.58
237863,2018-06-29 10:48:45.218750,-86.94,90.58
237864,2018-06-29 10:48:45.250000,-69.22,90.58
237865,2018-06-29 10:48:45.281250,-47.17,90.58
237866,2018-06-29 10:48:45.312500,-38.68,90.58
237867,2018-06-29 10:48:45.343750,-40.69,90.58
237868,2018-06-29 10:48:45.375000,-33.07,90.58
237869,2018-06-29 10:48:45.406250,-7.73,90.58
237870,2018-06-29 10:48:45.437500,17.55,90.58
237871,2018-06-29 10:48:45.468750,22.64,90.58
237872,2018-06-29 10:48:45.500000,11.68,90.58
237873,2018-06-29 10:48:45.531250,-1.86,90.63
237874,2018-06-29 10:48:45.562500,-15.46,90.63
237875,2018-06-29 10:48:45.593750,-34.44,90.63
237876,2018-06-29 10:48:45.625000,-56.7,90.63
237877,2018-06-29 10:48:45.656250,-67.35,90.63
237878,2018-06-29 10:48:45.687500,-50.49,90.63
237879,2018-06-29 10:48:45.718750,0.05,90.63
237880,2018-06-29 10:48:45.750000,67.63,90.63
237881,2018-06-29 10:48:45.781250,132.83,90.63
237882,2018-06-29 10:48:45.812500,186.67,90.63
237883,2018-06-29 10:48:45.843750,220.39,90.63
237884,2018-06-29 10:48:45.875000,219.8,90.63
237885,2018-06-29 10:48:45.906250,177.81,90.63
237886,2018-06-29 10:48:45.937500,109.41,90.63
237887,2018-06-29 10:48:45.968750,11.74,90.63
237888,2018-06-29 10:48:46.000000,-81.57,90.63
237889,2018-06-29 10:48:46.031250,-119.43,90.63
237890,2018-06-29 10:48:46.062500,-107.54,90.63
237891,2018-06-29 10:48:46.093750,-63.18,90.63
237892,2018-06-29 10:48:46.125000,-5.52,90.63
237893,2018-06-29 10:48:46.156250,38.26,90.63
237894,2018-06-29 10:48:46.187500,36.69,90.63
237895,2018-06-29 10:48:46.218750,-15.1,90.63
237896,2018-06-29 10:48:46.250000,-78.25,90.63
237897,2018-06-29 10:48:46.281250,-134.23,90.63
237898,2018-06-29 10:48:46.312500,-172.88,90.63
237899,2018-06-29 10:48:46.343750,-181.96,90.63
237900,2018-06-29 10:48:46.375000,-147.3,90.63
237901,2018-06-29 10:48:46.406250,-75.86,90.63
237902,2018-06-29 10:48:46.437500,2.69,90.63
237903,2018-06-29 10:48:46.468750,56.11,90.63
237904,2018-06-29 10:48:46.500000,81.12,90.63
237905,2018-06-29 10:48:46.531250,88.73,90.68
237906,2018-06-29 10:48:46.562500,88.38,90.68
237907,2018-06-29 10:48:46.593750,86.77,90.68
237908,2018-06-29 10:48:46.625000,91.11,90.68
237909,2018-06-29 10:48:46.656250,100.54,90.68
237910,2018-06-29 10:48:46.687500,100.76,90.68
237911,2018-06-29 10:48:46.718750,81.6,90.68
237912,2018-06-29 10:48:46.750000,44.87,90.68
237913,2018-06-29 10:48:46.781250,1.57,90.68
237914,2018-06-29 10:48:46.812500,-36.88,90.68
237915,2018-06-29 10:48:46.843750,-60.59,90.68
237916,2018-06-29 10:48:46.875000,-64.14,90.68
237917,2018-06-29 10:48:46.906250,-52.09,90.68
237918,2018-06-29 10:48:46.937500,-35.53,90.68
237919,2018-06-29 10:48:46.968750,-23.16,90.68
237920,2018-06-29 10:48:47.000000,-18.86,90.68
237921,2018-06-29 10:48:47.031250,-23.96,90.68
237922,2018-06-29 10:48:47.062500,-33.58,90.68
237923,2018-06-29 10:48:47.093750,-36.38,90.68
237924,2018-06-29 10:48:47.125000,-25.4,90.68
237925,2018-06-29 10:48:47.156250,-1.1,90.68
237926,2018-06-29 10:48:47.187500,33.58,90.68
237927,2018-06-29 10:48:47.218750,68.92,90.68
237928,2018-06-29 10:48:47.250000,84.21,90.68
237929,2018-06-29 10:48:47.281250,63.68,90.68
237930,2018-06-29 10:48:47.312500,14.94,90.68
237931,2018-06-29 10:48:47.343750,-37.58,90.68
237932,2018-06-29 10:48:47.375000,-73.74,90.68
237933,2018-06-29 10:48:47.406250,-86.1,90.68
237934,2018-06-29 10:48:47.437500,-76.56,90.68
237935,2018-06-29 10:48:47.468750,-52.08,90.68
237936,2018-06-29 10:48:47.500000,-22.72,90.68
237937,2018-06-29 10:48:47.531250,1.11,90.73
237938,2018-06-29 10:48:47.562500,12.56,90.73
237939,2018-06-29 10:48:47.593750,10.12,90.73
237940,2018-06-29 10:48:47.625000,-2.88,90.73
237941,2018-06-29 10:48:47.656250,-20.41,90.73
237942,2018-06-29 10:48:47.687500,-33.87,90.73
237943,2018-06-29 10:48:47.718750,-38.72,90.73
237944,2018-06-29 10:48:47.750000,-34.45,90.73
237945,2018-06-29 10:48:47.781250,-16.28,90.73
237946,2018-06-29 10:48:47.812500,18.64,90.73
237947,2018-06-29 10:48:47.843750,55.21,90.73
237948,2018-06-29 10:48:47.875000,69.22,90.73
237949,2018-06-29 10:48:47.906250,60.54,90.73
237950,2018-06-29 10:48:47.937500,47.57,90.73
237951,2018-06-29 10:48:47.968750,41.84,90.73
237952,2018-06-29 10:48:48.000000,39.56,90.73
237953,2018-06-29 10:48:48.031250,40.27,90.73
237954,2018-06-29 10:48:48.062500,51.18,90.73
237955,2018-06-29 10:48:48.093750,71.64,90.73
237956,2018-06-29 10:48:48.125000,90.73,90.73
237957,2018-06-29 10:48:48.156250,89.61,90.73
237958,2018-06-29 10:48:48.187500,58.78,90.73
237959,2018-06-29 10:48:48.218750,-1.7,90.73
237960,2018-06-29 10:48:48.250000,-69.02,90.73
237961,2018-06-29 10:48:48.281250,-97.11,90.73
237962,2018-06-29 10:48:48.312500,-92.99,90.73
237963,2018-06-29 10:48:48.343750,-59.14,90.73
237964,2018-06-29 10:48:48.375000,-0.04,90.73
237965,2018-06-29 10:48:48.406250,45.65,90.73
237966,2018-06-29 10:48:48.437500,36.32,90.73
237967,2018-06-29 10:48:48.468750,-21.5,90.73
237968,2018-06-29 10:48:48.500000,-87.74,90.73
237969,2018-06-29 10:48:48.531250,-126.11,90.75
237970,2018-06-29 10:48:48.562500,-127.91,90.75
237971,2018-06-29 10:48:48.593750,-104.39,90.75
237972,2018-06-29 10:48:48.625000,-69.66,90.75
237973,2018-06-29 10:48:48.656250,-34.82,90.75
237974,2018-06-29 10:48:48.687500,-6.0,90.75
237975,2018-06-29 10:48:48.718750,12.57,90.75
237976,2018-06-29 10:48:48.750000,24.97,90.75
237977,2018-06-29 10:48:48.781250,36.31,90.75
237978,2018-06-29 10:48:48.812500,46.71,90.75
237979,2018-06-29 10:48:48.843750,51.53,90.75
237980,2018-06-29 10:48:48.875000,53.5,90.75
237981,2018-06-29 10:48:48.906250,61.92,90.75
237982,2018-06-29 10:48:48.937500,72.5,90.75
237983,2018-06-29 10:48:48.968750,64.4,90.75
237984,2018-06-29 10:48:49.000000,27.74,90.75
237985,2018-06-29 10:48:49.031250,-12.1,90.75
237986,2018-06-29 10:48:49.062500,-26.62,90.75
237987,2018-06-29 10:48:49.093750,-16.84,90.75
237988,2018-06-29 10:48:49.125000,-7.13,90.75
237989,2018-06-29 10:48:49.156250,-8.78,90.75
237990,2018-06-29 10:48:49.187500,-12.01,90.75
237991,2018-06-29 10:48:49.218750,-2.21,90.75
237992,2018-06-29 10:48:49.250000,31.73,90.75
237993,2018-06-29 10:48:49.281250,75.29,90.75
237994,2018-06-29 10:48:49.312500,90.95,90.75
237995,2018-06-29 10:48:49.343750,42.19,90.75
237996,2018-06-29 10:48:49.375000,-31.1,90.75
237997,2018-06-29 10:48:49.406250,-54.87,90.75
237998,2018-06-29 10:48:49.437500,-46.14,90.75
237999,2018-06-29 10:48:49.468750,-16.52,90.75
238000,2018-06-29 10:48:49.500000,41.57,90.75
238001,2018-06-29 10:48:49.531250,100.74,90.73
238002,2018-06-29 10:48:49.562500,105.06,90.73
238003,2018-06-29 10:48:49.593750,39.59,90.73
238004,2018-06-29 10:48:49.625000,-32.42,90.73
238005,2018-06-29 10:48:49.656250,-79.13,90.73
238006,2018-06-29 10:48:49.687500,-123.81,90.73
238007,2018-06-29 10:48:49.718750,-160.08,90.73
238008,2018-06-29 10:48:49.750000,-166.31,90.73
238009,2018-06-29 10:48:49.781250,-145.44,90.73
238010,2018-06-29 10:48:49.812500,-117.59,90.73
238011,2018-06-29 10:48:49.843750,-97.19,90.73
238012,2018-06-29 10:48:49.875000,-81.59,90.73
238013,2018-06-29 10:48:49.906250,-59.89,90.73
238014,2018-06-29 10:48:49.937500,-25.9,90.73
238015,2018-06-29 10:48:49.968750,16.83,90.73
238016,2018-06-29 10:48:50.000000,54.22,90.73
238017,2018-06-29 10:48:50.031250,75.89,90.73
238018,2018-06-29 10:48:50.062500,80.64,90.73
238019,2018-06-29 10:48:50.093750,73.73,90.73
238020,2018-06-29 10:48:50.125000,61.21,90.73
238021,2018-06-29 10:48:50.156250,48.49,90.73
238022,2018-06-29 10:48:50.187500,40.61,90.73
238023,2018-06-29 10:48:50.218750,38.9,90.73
238024,2018-06-29 10:48:50.250000,42.09,90.73
238025,2018-06-29 10:48:50.281250,47.03,90.73
238026,2018-06-29 10:48:50.312500,50.88,90.73
238027,2018-06-29 10:48:50.343750,52.61,90.73
238028,2018-06-29 10:48:50.375000,53.5,90.73
238029,2018-06-29 10:48:50.406250,52.64,90.73
238030,2018-06-29 10:48:50.437500,41.18,90.73
238031,2018-06-29 10:48:50.468750,9.76,90.73
238032,2018-06-29 10:48:50.500000,-35.84,90.73
238033,2018-06-29 10:48:50.531250,-72.66,90.72
238034,2018-06-29 10:48:50.562500,-74.48,90.72
238035,2018-06-29 10:48:50.593750,-29.33,90.72
238036,2018-06-29 10:48:50.625000,45.12,90.72
238037,2018-06-29 10:48:50.656250,104.18,90.72
238038,2018-06-29 10:48:50.687500,110.24,90.72
238039,2018-06-29 10:48:50.718750,64.98,90.72
238040,2018-06-29 10:48:50.750000,-0.47,90.72
238041,2018-06-29 10:48:50.781250,-57.26,90.72
238042,2018-06-29 10:48:50.812500,-91.87,90.72
238043,2018-06-29 10:48:50.843750,-102.08,90.72
238044,2018-06-29 10:48:50.875000,-92.99,90.72
238045,2018-06-29 10:48:50.906250,-72.69,90.72
238046,2018-06-29 10:48:50.937500,-47.31,90.72
238047,2018-06-29 10:48:50.968750,-21.5,90.72
238048,2018-06-29 10:48:51.000000,-1.78,90.72
238049,2018-06-29 10:48:51.031250,6.4,90.72
238050,2018-06-29 10:48:51.062500,4.81,90.72
238051,2018-06-29 10:48:51.093750,1.07,90.72
238052,2018-06-29 10:48:51.125000,0.07,90.72
238053,2018-06-29 10:48:51.156250,0.4,90.72
238054,2018-06-29 10:48:51.187500,1.12,90.72
238055,2018-06-29 10:48:51.218750,5.4,90.72
238056,2018-06-29 10:48:51.250000,13.64,90.72
238057,2018-06-29 10:48:51.281250,21.13,90.72
238058,2018-06-29 10:48:51.312500,25.64,90.72
238059,2018-06-29 10:48:51.343750,30.41,90.72
238060,2018-06-29 10:48:51.375000,37.76,90.72
238061,2018-06-29 10:48:51.406250,45.98,90.72
238062,2018-06-29 10:48:51.437500,55.69,90.72
238063,2018-06-29 10:48:51.468750,72.2,90.72
238064,2018-06-29 10:48:51.500000,93.98,90.72
238065,2018-06-29 10:48:51.531250,105.03,90.63
238066,2018-06-29 10:48:51.562500,89.56,90.63
238067,2018-06-29 10:48:51.593750,51.62,90.63
238068,2018-06-29 10:48:51.625000,11.31,90.63
238069,2018-06-29 10:48:51.656250,-15.5,90.63
238070,2018-06-29 10:48:51.687500,-27.56,90.63
238071,2018-06-29 10:48:51.718750,-33.46,90.63
238072,2018-06-29 10:48:51.750000,-43.39,90.63
238073,2018-06-29 10:48:51.781250,-64.26,90.63
238074,2018-06-29 10:48:51.812500,-96.77,90.63
238075,2018-06-29 10:48:51.843750,-130.86,90.63
238076,2018-06-29 10:48:51.875000,-147.85,90.63
238077,2018-06-29 10:48:51.906250,-135.37,90.63
238078,2018-06-29 10:48:51.937500,-100.85,90.63
238079,2018-06-29 10:48:51.968750,-62.68,90.63
238080,2018-06-29 10:48:52.000000,-29.9,90.63
238081,2018-06-29 10:48:52.031250,-1.0,90.63
238082,2018-06-29 10:48:52.062500,23.34,90.63
238083,2018-06-29 10:48:52.093750,36.46,90.63
238084,2018-06-29 10:48:52.125000,36.96,90.63
238085,2018-06-29 10:48:52.156250,34.09,90.63
238086,2018-06-29 10:48:52.187500,39.35,90.63
238087,2018-06-29 10:48:52.218750,52.54,90.63
238088,2018-06-29 10:48:52.250000,64.05,90.63
238089,2018-06-29 10:48:52.281250,72.76,90.63
238090,2018-06-29 10:48:52.312500,81.24,90.63
238091,2018-06-29 10:48:52.343750,81.8,90.63
238092,2018-06-29 10:48:52.375000,58.09,90.63
238093,2018-06-29 10:48:52.406250,17.09,90.63
238094,2018-06-29 10:48:52.437500,-16.06,90.63
238095,2018-06-29 10:48:52.468750,-30.4,90.63
238096,2018-06-29 10:48:52.500000,-34.91,90.63
238097,2018-06-29 10:48:52.531250,-33.32,90.55
238098,2018-06-29 10:48:52.562500,-7.46,90.55
238099,2018-06-29 10:48:52.593750,50.81,90.55
238100,2018-06-29 10:48:52.625000,128.6,90.55
238101,2018-06-29 10:48:52.656250,186.9,90.55
238102,2018-06-29 10:48:52.687500,191.2,90.55
238103,2018-06-29 10:48:52.718750,129.77,90.55
238104,2018-06-29 10:48:52.750000,5.46,90.55
238105,2018-06-29 10:48:52.781250,-83.37,90.55
238106,2018-06-29 10:48:52.812500,-107.53,90.55
238107,2018-06-29 10:48:52.843750,-105.89,90.55
238108,2018-06-29 10:48:52.875000,-78.61,90.55
238109,2018-06-29 10:48:52.906250,-18.21,90.55
238110,2018-06-29 10:48:52.937500,35.29,90.55
238111,2018-06-29 10:48:52.968750,20.96,90.55
238112,2018-06-29 10:48:53.000000,-51.46,90.55
238113,2018-06-29 10:48:53.031250,-112.52,90.55
238114,2018-06-29 10:48:53.062500,-144.67,90.55
238115,2018-06-29 10:48:53.093750,-169.29,90.55
238116,2018-06-29 10:48:53.125000,-182.0,90.55
238117,2018-06-29 10:48:53.156250,-165.62,90.55
238118,2018-06-29 10:48:53.187500,-124.93,90.55
238119,2018-06-29 10:48:53.218750,-72.43,90.55
238120,2018-06-29 10:48:53.250000,-14.61,90.55
238121,2018-06-29 10:48:53.281250,40.58,90.55
238122,2018-06-29 10:48:53.312500,79.55,90.55
238123,2018-06-29 10:48:53.343750,99.61,90.55
238124,2018-06-29 10:48:53.375000,105.58,90.55
238125,2018-06-29 10:48:53.406250,101.8,90.55
238126,2018-06-29 10:48:53.437500,91.86,90.55
238127,2018-06-29 10:48:53.468750,80.04,90.55
238128,2018-06-29 10:48:53.500000,65.64,90.55
238129,2018-06-29 10:48:53.531250,44.88,90.47
238130,2018-06-29 10:48:53.562500,21.35,90.47
238131,2018-06-29 10:48:53.593750,2.12,90.47
238132,2018-06-29 10:48:53.625000,-9.6,90.47
238133,2018-06-29 10:48:53.656250,-14.23,90.47
238134,2018-06-29 10:48:53.687500,-10.73,90.47
238135,2018-06-29 10:48:53.718750,2.43,90.47
238136,2018-06-29 10:48:53.750000,19.41,90.47
238137,2018-06-29 10:48:53.781250,25.63,90.47
238138,2018-06-29 10:48:53.812500,12.06,90.47
238139,2018-06-29 10:48:53.843750,-9.58,90.47
238140,2018-06-29 10:48:53.875000,-18.4,90.47
238141,2018-06-29 10:48:53.906250,-8.66,90.47
238142,2018-06-29 10:48:53.937500,11.34,90.47
238143,2018-06-29 10:48:53.968750,40.87,90.47
238144,2018-06-29 10:48:54.000000,81.87,90.47
238145,2018-06-29 10:48:54.031250,116.63,90.47
238146,2018-06-29 10:48:54.062500,116.78,90.47
238147,2018-06-29 10:48:54.093750,77.46,90.47
238148,2018-06-29 10:48:54.125000,19.64,90.47
238149,2018-06-29 10:48:54.156250,-35.0,90.47
238150,2018-06-29 10:48:54.187500,-75.04,90.47
238151,2018-06-29 10:48:54.218750,-93.17,90.47
238152,2018-06-29 10:48:54.250000,-83.85,90.47
238153,2018-06-29 10:48:54.281250,-52.13,90.47
238154,2018-06-29 10:48:54.312500,-14.95,90.47
238155,2018-06-29 10:48:54.343750,5.43,90.47
238156,2018-06-29 10:48:54.375000,-2.68,90.47
238157,2018-06-29 10:48:54.406250,-33.56,90.47
238158,2018-06-29 10:48:54.437500,-64.08,90.47
238159,2018-06-29 10:48:54.468750,-60.19,90.47
238160,2018-06-29 10:48:54.500000,-32.76,90.47
238161,2018-06-29 10:48:54.531250,-20.0,90.38
238162,2018-06-29 10:48:54.562500,-28.34,90.38
238163,2018-06-29 10:48:54.593750,-35.03,90.38
238164,2018-06-29 10:48:54.625000,-30.31,90.38
238165,2018-06-29 10:48:54.656250,-23.9,90.38
238166,2018-06-29 10:48:54.687500,-22.3,90.38
238167,2018-06-29 10:48:54.718750,-25.12,90.38
238168,2018-06-29 10:48:54.750000,-26.48,90.38
238169,2018-06-29 10:48:54.781250,-8.94,90.38
238170,2018-06-29 10:48:54.812500,36.85,90.38
238171,2018-06-29 10:48:54.843750,80.67,90.38
238172,2018-06-29 10:48:54.875000,87.44,90.38
238173,2018-06-29 10:48:54.906250,63.93,90.38
238174,2018-06-29 10:48:54.937500,30.77,90.38
238175,2018-06-29 10:48:54.968750,-1.86,90.38
238176,2018-06-29 10:48:55.000000,-27.51,90.38
238177,2018-06-29 10:48:55.031250,-36.41,90.38
238178,2018-06-29 10:48:55.062500,-23.95,90.38
238179,2018-06-29 10:48:55.093750,10.44,90.38
238180,2018-06-29 10:48:55.125000,55.12,90.38
238181,2018-06-29 10:48:55.156250,83.3,90.38
238182,2018-06-29 10:48:55.187500,83.93,90.38
238183,2018-06-29 10:48:55.218750,64.26,90.38
238184,2018-06-29 10:48:55.250000,26.75,90.38
238185,2018-06-29 10:48:55.281250,-20.38,90.38
238186,2018-06-29 10:48:55.312500,-49.08,90.38
238187,2018-06-29 10:48:55.343750,-47.97,90.38
238188,2018-06-29 10:48:55.375000,-40.43,90.38
238189,2018-06-29 10:48:55.406250,-43.42,90.38
238190,2018-06-29 10:48:55.437500,-44.98,90.38
238191,2018-06-29 10:48:55.468750,-36.11,90.38
238192,2018-06-29 10:48:55.500000,-28.19,90.38
238193,2018-06-29 10:48:55.531250,-32.37,90.27
238194,2018-06-29 10:48:55.562500,-46.47,90.27
238195,2018-06-29 10:48:55.593750,-58.16,90.27
238196,2018-06-29 10:48:55.625000,-51.99,90.27
238197,2018-06-29 10:48:55.656250,-25.92,90.27
238198,2018-06-29 10:48:55.687500,-1.74,90.27
238199,2018-06-29 10:48:55.718750,2.92,90.27
238200,2018-06-29 10:48:55.750000,0.13,90.27
238201,2018-06-29 10:48:55.781250,7.82,90.27
238202,2018-06-29 10:48:55.812500,22.25,90.27
238203,2018-06-29 10:48:55.843750,30.8,90.27
238204,2018-06-29 10:48:55.875000,29.02,90.27
238205,2018-06-29 10:48:55.906250,16.96,90.27
238206,2018-06-29 10:48:55.937500,-2.95,90.27
238207,2018-06-29 10:48:55.968750,-19.94,90.27
238208,2018-06-29 10:48:56.000000,-21.38,90.27
238209,2018-06-29 10:48:56.031250,-10.31,90.27
238210,2018-06-29 10:48:56.062500,-9.3,90.27
238211,2018-06-29 10:48:56.093750,-30.24,90.27
238212,2018-06-29 10:48:56.125000,-47.37,90.27
238213,2018-06-29 10:48:56.156250,-24.28,90.27
238214,2018-06-29 10:48:56.187500,39.3,90.27
238215,2018-06-29 10:48:56.218750,101.44,90.27
238216,2018-06-29 10:48:56.250000,124.26,90.27
238217,2018-06-29 10:48:56.281250,103.39,90.27
238218,2018-06-29 10:48:56.312500,48.44,90.27
238219,2018-06-29 10:48:56.343750,-31.48,90.27
238220,2018-06-29 10:48:56.375000,-117.86,90.27
238221,2018-06-29 10:48:56.406250,-183.08,90.27
238222,2018-06-29 10:48:56.437500,-205.25,90.27
238223,2018-06-29 10:48:56.468750,-177.73,90.27
238224,2018-06-29 10:48:56.500000,-113.76,90.27
238225,2018-06-29 10:48:56.531250,-39.67,90.18
238226,2018-06-29 10:48:56.562500,23.44,90.18
238227,2018-06-29 10:48:56.593750,67.68,90.18
238228,2018-06-29 10:48:56.625000,92.02,90.18
238229,2018-06-29 10:48:56.656250,98.66,90.18
238230,2018-06-29 10:48:56.687500,96.23,90.18
238231,2018-06-29 10:48:56.718750,94.37,90.18
238232,2018-06-29 10:48:56.750000,96.11,90.18
238233,2018-06-29 10:48:56.781250,99.03,90.18
238234,2018-06-29 10:48:56.812500,102.46,90.18
238235,2018-06-29 10:48:56.843750,103.58,90.18
238236,2018-06-29 10:48:56.875000,90.75,90.18
238237,2018-06-29 10:48:56.906250,58.72,90.18
238238,2018-06-29 10:48:56.937500,21.62,90.18
238239,2018-06-29 10:48:56.968750,2.43,90.18
238240,2018-06-29 10:48:57.000000,6.79,90.18
238241,2018-06-29 10:48:57.031250,21.04,90.18
238242,2018-06-29 10:48:57.062500,27.41,90.18
238243,2018-06-29 10:48:57.093750,20.7,90.18
238244,2018-06-29 10:48:57.125000,12.05,90.18
238245,2018-06-29 10:48:57.156250,11.24,90.18
238246,2018-06-29 10:48:57.187500,16.02,90.18
238247,2018-06-29 10:48:57.218750,1.08,90.18
238248,2018-06-29 10:48:57.250000,-40.05,90.18
238249,2018-06-29 10:48:57.281250,-66.44,90.18
238250,2018-06-29 10:48:57.312500,-53.6,90.18
238251,2018-06-29 10:48:57.343750,-10.36,90.18
238252,2018-06-29 10:48:57.375000,46.31,90.18
238253,2018-06-29 10:48:57.406250,92.89,90.18
238254,2018-06-29 10:48:57.437500,90.05,90.18
238255,2018-06-29 10:48:57.468750,28.32,90.18
238256,2018-06-29 10:48:57.500000,-48.51,90.18
238257,2018-06-29 10:48:57.531250,-99.8,90.12
238258,2018-06-29 10:48:57.562500,-124.45,90.12
238259,2018-06-29 10:48:57.593750,-132.47,90.12
238260,2018-06-29 10:48:57.625000,-130.16,90.12
238261,2018-06-29 10:48:57.656250,-116.45,90.12
238262,2018-06-29 10:48:57.687500,-93.88,90.12
238263,2018-06-29 10:48:57.718750,-71.89,90.12
238264,2018-06-29 10:48:57.750000,-56.84,90.12
238265,2018-06-29 10:48:57.781250,-48.98,90.12
238266,2018-06-29 10:48:57.812500,-38.23,90.12
238267,2018-06-29 10:48:57.843750,-10.2,90.12
238268,2018-06-29 10:48:57.875000,38.54,90.12
238269,2018-06-29 10:48:57.906250,92.97,90.12
238270,2018-06-29 10:48:57.937500,128.89,90.12
238271,2018-06-29 10:48:57.968750,127.77,90.12
238272,2018-06-29 10:48:58.000000,91.06,90.12
238273,2018-06-29 10:48:58.031250,41.0,90.12
238274,2018-06-29 10:48:58.062500,3.27,90.12
238275,2018-06-29 10:48:58.093750,-10.93,90.12
238276,2018-06-29 10:48:58.125000,-4.49,90.12
238277,2018-06-29 10:48:58.156250,12.82,90.12
238278,2018-06-29 10:48:58.187500,29.75,90.12
238279,2018-06-29 10:48:58.218750,42.52,90.12
238280,2018-06-29 10:48:58.250000,54.11,90.12
238281,2018-06-29 10:48:58.281250,60.37,90.12
238282,2018-06-29 10:48:58.312500,50.51,90.12
238283,2018-06-29 10:48:58.343750,24.13,90.12
238284,2018-06-29 10:48:58.375000,-10.07,90.12
238285,2018-06-29 10:48:58.406250,-48.61,90.12
238286,2018-06-29 10:48:58.437500,-88.68,90.12
238287,2018-06-29 10:48:58.468750,-117.16,90.12
238288,2018-06-29 10:48:58.500000,-120.21,90.12
238289,2018-06-29 10:48:58.531250,-97.01,90.08
238290,2018-06-29 10:48:58.562500,-60.22,90.08
238291,2018-06-29 10:48:58.593750,-26.98,90.08
238292,2018-06-29 10:48:58.625000,-7.48,90.08
238293,2018-06-29 10:48:58.656250,1.38,90.08
238294,2018-06-29 10:48:58.687500,8.85,90.08
238295,2018-06-29 10:48:58.718750,17.23,90.08
238296,2018-06-29 10:48:58.750000,20.53,90.08
238297,2018-06-29 10:48:58.781250,14.23,90.08
238298,2018-06-29 10:48:58.812500,2.83,90.08
238299,2018-06-29 10:48:58.843750,-4.76,90.08
238300,2018-06-29 10:48:58.875000,-3.76,90.08
238301,2018-06-29 10:48:58.906250,3.23,90.08
238302,2018-06-29 10:48:58.937500,11.5,90.08
238303,2018-06-29 10:48:58.968750,19.28,90.08
238304,2018-06-29 10:48:59.000000,25.19,90.08
238305,2018-06-29 10:48:59.031250,29.34,90.08
238306,2018-06-29 10:48:59.062500,29.74,90.08
238307,2018-06-29 10:48:59.093750,22.16,90.08
238308,2018-06-29 10:48:59.125000,4.81,90.08
238309,2018-06-29 10:48:59.156250,-13.14,90.08
238310,2018-06-29 10:48:59.187500,-19.65,90.08
238311,2018-06-29 10:48:59.218750,-9.54,90.08
238312,2018-06-29 10:48:59.250000,21.38,90.08
238313,2018-06-29 10:48:59.281250,68.79,90.08
238314,2018-06-29 10:48:59.312500,115.6,90.08
238315,2018-06-29 10:48:59.343750,137.29,90.08
238316,2018-06-29 10:48:59.375000,126.84,90.08
238317,2018-06-29 10:48:59.406250,87.59,90.08
238318,2018-06-29 10:48:59.437500,10.11,90.08
238319,2018-06-29 10:48:59.468750,-64.47,90.08
238320,2018-06-29 10:48:59.500000,-98.7,90.08
238321,2018-06-29 10:48:59.531250,-99.15,90.05
238322,2018-06-29 10:48:59.562500,-89.67,90.05
238323,2018-06-29 10:48:59.593750,-73.35,90.05
238324,2018-06-29 10:48:59.625000,-42.85,90.05
238325,2018-06-29 10:48:59.656250,-6.51,90.05
238326,2018-06-29 10:48:59.687500,14.15,90.05
238327,2018-06-29 10:48:59.718750,12.2,90.05
238328,2018-06-29 10:48:59.750000,-1.53,90.05
238329,2018-06-29 10:48:59.781250,-15.0,90.05
238330,2018-06-29 10:48:59.812500,-18.0,90.05
238331,2018-06-29 10:48:59.843750,-8.26,90.05
238332,2018-06-29 10:48:59.875000,10.32,90.05
238333,2018-06-29 10:48:59.906250,32.21,90.05
238334,2018-06-29 10:48:59.937500,52.67,90.05
238335,2018-06-29 10:48:59.968750,64.21,90.05
238336,2018-06-29 10:49:00.000000,58.91,90.05
238337,2018-06-29 10:49:00.031250,39.58,90.05
238338,2018-06-29 10:49:00.062500,15.68,90.05
238339,2018-06-29 10:49:00.093750,-5.57,90.05
238340,2018-06-29 10:49:00.125000,-21.54,90.05
238341,2018-06-29 10:49:00.156250,-31.89,90.05
238342,2018-06-29 10:49:00.187500,-39.81,90.05
238343,2018-06-29 10:49:00.218750,-46.7,90.05
238344,2018-06-29 10:49:00.250000,-50.57,90.05
238345,2018-06-29 10:49:00.281250,-54.39,90.05
238346,2018-06-29 10:49:00.312500,-61.68,90.05
238347,2018-06-29 10:49:00.343750,-62.48,90.05
238348,2018-06-29 10:49:00.375000,-45.61,90.05
238349,2018-06-29 10:49:00.406250,-18.9,90.05
238350,2018-06-29 10:49:00.437500,4.14,90.05
238351,2018-06-29 10:49:00.468750,21.54,90.05
238352,2018-06-29 10:49:00.500000,37.31,90.05
238353,2018-06-29 10:49:00.531250,52.86,90.02
238354,2018-06-29 10:49:00.562500,69.14,90.02
238355,2018-06-29 10:49:00.593750,81.06,90.02
238356,2018-06-29 10:49:00.625000,73.44,90.02
238357,2018-06-29 10:49:00.656250,45.72,90.02
238358,2018-06-29 10:49:00.687500,15.51,90.02
238359,2018-06-29 10:49:00.718750,-5.95,90.02
238360,2018-06-29 10:49:00.750000,-21.6,90.02
238361,2018-06-29 10:49:00.781250,-34.07,90.02
238362,2018-06-29 10:49:00.812500,-44.05,90.02
238363,2018-06-29 10:49:00.843750,-53.82,90.02
238364,2018-06-29 10:49:00.875000,-63.18,90.02
238365,2018-06-29 10:49:00.906250,-67.37,90.02
238366,2018-06-29 10:49:00.937500,-64.89,90.02
238367,2018-06-29 10:49:00.968750,-61.1,90.02
238368,2018-06-29 10:49:01.000000,-58.54,90.02
238369,2018-06-29 10:49:01.031250,-52.14,90.02
238370,2018-06-29 10:49:01.062500,-37.94,90.02
238371,2018-06-29 10:49:01.093750,-19.13,90.02
238372,2018-06-29 10:49:01.125000,-3.78,90.02
238373,2018-06-29 10:49:01.156250,0.76,90.02
238374,2018-06-29 10:49:01.187500,-1.02,90.02
238375,2018-06-29 10:49:01.218750,5.5,90.02
238376,2018-06-29 10:49:01.250000,27.15,90.02
238377,2018-06-29 10:49:01.281250,51.96,90.02
238378,2018-06-29 10:49:01.312500,62.12,90.02
238379,2018-06-29 10:49:01.343750,53.25,90.02
238380,2018-06-29 10:49:01.375000,30.11,90.02
238381,2018-06-29 10:49:01.406250,-0.41,90.02
238382,2018-06-29 10:49:01.437500,-18.86,90.02
238383,2018-06-29 10:49:01.468750,-14.47,90.02
238384,2018-06-29 10:49:01.500000,9.29,90.02
238385,2018-06-29 10:49:01.531250,40.26,89.97
238386,2018-06-29 10:49:01.562500,62.86,89.97
238387,2018-06-29 10:49:01.593750,65.55,89.97
238388,2018-06-29 10:49:01.625000,50.25,89.97
238389,2018-06-29 10:49:01.656250,15.83,89.97
238390,2018-06-29 10:49:01.687500,-24.97,89.97
238391,2018-06-29 10:49:01.718750,-52.24,89.97
238392,2018-06-29 10:49:01.750000,-47.87,89.97
238393,2018-06-29 10:49:01.781250,-10.55,89.97
238394,2018-06-29 10:49:01.812500,46.89,89.97
238395,2018-06-29 10:49:01.843750,100.05,89.97
238396,2018-06-29 10:49:01.875000,127.64,89.97
238397,2018-06-29 10:49:01.906250,120.12,89.97
238398,2018-06-29 10:49:01.937500,82.74,89.97
238399,2018-06-29 10:49:01.968750,41.68,89.97
238400,2018-06-29 10:49:02.000000,0.15,89.97
238401,2018-06-29 10:49:02.031250,-36.85,89.97
238402,2018-06-29 10:49:02.062500,-58.14,89.97
238403,2018-06-29 10:49:02.093750,-63.62,89.97
238404,2018-06-29 10:49:02.125000,-66.75,89.97
238405,2018-06-29 10:49:02.156250,-70.16,89.97
238406,2018-06-29 10:49:02.187500,-69.25,89.97
238407,2018-06-29 10:49:02.218750,-63.79,89.97
238408,2018-06-29 10:49:02.250000,-61.17,89.97
238409,2018-06-29 10:49:02.281250,-65.41,89.97
238410,2018-06-29 10:49:02.312500,-68.39,89.97
238411,2018-06-29 10:49:02.343750,-62.55,89.97
238412,2018-06-29 10:49:02.375000,-48.31,89.97
238413,2018-06-29 10:49:02.406250,-34.04,89.97
238414,2018-06-29 10:49:02.437500,-26.04,89.97
238415,2018-06-29 10:49:02.468750,-24.52,89.97
238416,2018-06-29 10:49:02.500000,-21.88,89.97
238417,2018-06-29 10:49:02.531250,-8.32,89.93
238418,2018-06-29 10:49:02.562500,16.86,89.93
238419,2018-06-29 10:49:02.593750,40.79,89.93
238420,2018-06-29 10:49:02.625000,49.46,89.93
238421,2018-06-29 10:49:02.656250,39.54,89.93
238422,2018-06-29 10:49:02.687500,17.1,89.93
238423,2018-06-29 10:49:02.718750,-8.47,89.93
238424,2018-06-29 10:49:02.750000,-29.15,89.93
238425,2018-06-29 10:49:02.781250,-37.05,89.93
238426,2018-06-29 10:49:02.812500,-34.66,89.93
238427,2018-06-29 10:49:02.843750,-31.06,89.93
238428,2018-06-29 10:49:02.875000,-28.11,89.93
238429,2018-06-29 10:49:02.906250,-16.04,89.93
238430,2018-06-29 10:49:02.937500,10.09,89.93
238431,2018-06-29 10:49:02.968750,38.59,89.93
238432,2018-06-29 10:49:03.000000,49.7,89.93
238433,2018-06-29 10:49:03.031250,31.52,89.93
238434,2018-06-29 10:49:03.062500,-14.15,89.93
238435,2018-06-29 10:49:03.093750,-74.99,89.93
238436,2018-06-29 10:49:03.125000,-133.12,89.93
238437,2018-06-29 10:49:03.156250,-168.94,89.93
238438,2018-06-29 10:49:03.187500,-163.67,89.93
238439,2018-06-29 10:49:03.218750,-112.98,89.93
238440,2018-06-29 10:49:03.250000,-38.03,89.93
238441,2018-06-29 10:49:03.281250,31.18,89.93
238442,2018-06-29 10:49:03.312500,82.17,89.93
238443,2018-06-29 10:49:03.343750,120.82,89.93
238444,2018-06-29 10:49:03.375000,148.77,89.93
238445,2018-06-29 10:49:03.406250,157.53,89.93
238446,2018-06-29 10:49:03.437500,143.57,89.93
238447,2018-06-29 10:49:03.468750,122.78,89.93
238448,2018-06-29 10:49:03.500000,114.26,89.93
238449,2018-06-29 10:49:03.531250,118.14,89.88
238450,2018-06-29 10:49:03.562500,121.12,89.88
238451,2018-06-29 10:49:03.593750,108.65,89.88
238452,2018-06-29 10:49:03.625000,78.29,89.88
238453,2018-06-29 10:49:03.656250,31.9,89.88
238454,2018-06-29 10:49:03.687500,-14.41,89.88
238455,2018-06-29 10:49:03.718750,-44.49,89.88
238456,2018-06-29 10:49:03.750000,-51.27,89.88
238457,2018-06-29 10:49:03.781250,-41.92,89.88
238458,2018-06-29 10:49:03.812500,-26.31,89.88
238459,2018-06-29 10:49:03.843750,9.23,89.88
238460,2018-06-29 10:49:03.875000,75.45,89.88
238461,2018-06-29 10:49:03.906250,161.82,89.88
238462,2018-06-29 10:49:03.937500,215.94,89.88
238463,2018-06-29 10:49:03.968750,208.28,89.88
238464,2018-06-29 10:49:04.000000,143.62,89.88
238465,2018-06-29 10:49:04.031250,15.15,89.88
238466,2018-06-29 10:49:04.062500,-73.22,89.88
238467,2018-06-29 10:49:04.093750,-98.49,89.88
238468,2018-06-29 10:49:04.125000,-82.38,89.88
238469,2018-06-29 10:49:04.156250,-47.59,89.88
238470,2018-06-29 10:49:04.187500,-23.37,89.88
238471,2018-06-29 10:49:04.218750,-41.93,89.88
238472,2018-06-29 10:49:04.250000,-96.72,89.88
238473,2018-06-29 10:49:04.281250,-161.0,89.88
238474,2018-06-29 10:49:04.312500,-207.76,89.88
238475,2018-06-29 10:49:04.343750,-223.28,89.88
238476,2018-06-29 10:49:04.375000,-213.56,89.88
238477,2018-06-29 10:49:04.406250,-189.52,89.88
238478,2018-06-29 10:49:04.437500,-155.36,89.88
238479,2018-06-29 10:49:04.468750,-95.98,89.88
238480,2018-06-29 10:49:04.500000,-7.15,89.88
238481,2018-06-29 10:49:04.531250,90.57,89.83
238482,2018-06-29 10:49:04.562500,166.71,89.83
238483,2018-06-29 10:49:04.593750,215.08,89.83
238484,2018-06-29 10:49:04.625000,246.74,89.83
238485,2018-06-29 10:49:04.656250,265.82,89.83
238486,2018-06-29 10:49:04.687500,255.27,89.83
238487,2018-06-29 10:49:04.718750,202.3,89.83
238488,2018-06-29 10:49:04.750000,108.49,89.83
238489,2018-06-29 10:49:04.781250,-19.09,89.83
238490,2018-06-29 10:49:04.812500,-106.44,89.83
238491,2018-06-29 10:49:04.843750,-128.88,89.83
238492,2018-06-29 10:49:04.875000,-115.68,89.83
238493,2018-06-29 10:49:04.906250,-92.01,89.83
238494,2018-06-29 10:49:04.937500,-67.83,89.83
238495,2018-06-29 10:49:04.968750,-54.41,89.83
238496,2018-06-29 10:49:05.000000,-50.76,89.83
238497,2018-06-29 10:49:05.031250,-47.52,89.83
238498,2018-06-29 10:49:05.062500,-38.45,89.83
238499,2018-06-29 10:49:05.093750,-27.96,89.83
238500,2018-06-29 10:49:05.125000,-23.28,89.83
238501,2018-06-29 10:49:05.156250,-21.24,89.83
238502,2018-06-29 10:49:05.187500,-17.04,89.83
238503,2018-06-29 10:49:05.218750,-9.33,89.83
238504,2018-06-29 10:49:05.250000,-3.25,89.83
238505,2018-06-29 10:49:05.281250,0.39,89.83
238506,2018-06-29 10:49:05.312500,4.9,89.83
238507,2018-06-29 10:49:05.343750,12.09,89.83
238508,2018-06-29 10:49:05.375000,20.31,89.83
238509,2018-06-29 10:49:05.406250,26.45,89.83
238510,2018-06-29 10:49:05.437500,28.47,89.83
238511,2018-06-29 10:49:05.468750,23.85,89.83
238512,2018-06-29 10:49:05.500000,11.86,89.83
238513,2018-06-29 10:49:05.531250,-5.22,89.73
238514,2018-06-29 10:49:05.562500,-23.9,89.73
238515,2018-06-29 10:49:05.593750,-43.33,89.73
238516,2018-06-29 10:49:05.625000,-62.89,89.73
238517,2018-06-29 10:49:05.656250,-78.02,89.73
238518,2018-06-29 10:49:05.687500,-83.75,89.73
238519,2018-06-29 10:49:05.718750,-78.2,89.73
238520,2018-06-29 10:49:05.750000,-60.23,89.73
238521,2018-06-29 10:49:05.781250,-36.43,89.73
238522,2018-06-29 10:49:05.812500,-19.34,89.73
238523,2018-06-29 10:49:05.843750,-8.99,89.73
238524,2018-06-29 10:49:05.875000,3.65,89.73
238525,2018-06-29 10:49:05.906250,13.75,89.73
238526,2018-06-29 10:49:05.937500,11.21,89.73
238527,2018-06-29 10:49:05.968750,4.54,89.73
238528,2018-06-29 10:49:06.000000,4.48,89.73
238529,2018-06-29 10:49:06.031250,4.78,89.73
238530,2018-06-29 10:49:06.062500,-0.94,89.73
238531,2018-06-29 10:49:06.093750,-3.26,89.73
238532,2018-06-29 10:49:06.125000,6.55,89.73
238533,2018-06-29 10:49:06.156250,21.85,89.73
238534,2018-06-29 10:49:06.187500,32.17,89.73
238535,2018-06-29 10:49:06.218750,31.9,89.73
238536,2018-06-29 10:49:06.250000,23.22,89.73
238537,2018-06-29 10:49:06.281250,17.72,89.73
238538,2018-06-29 10:49:06.312500,35.82,89.73
238539,2018-06-29 10:49:06.343750,73.63,89.73
238540,2018-06-29 10:49:06.375000,88.89,89.73
238541,2018-06-29 10:49:06.406250,70.39,89.73
238542,2018-06-29 10:49:06.437500,40.34,89.73
238543,2018-06-29 10:49:06.468750,13.58,89.73
238544,2018-06-29 10:49:06.500000,-6.48,89.73
238545,2018-06-29 10:49:06.531250,-15.1,89.63
238546,2018-06-29 10:49:06.562500,-13.35,89.63
238547,2018-06-29 10:49:06.593750,-10.8,89.63
238548,2018-06-29 10:49:06.625000,-13.34,89.63
238549,2018-06-29 10:49:06.656250,-15.72,89.63
238550,2018-06-29 10:49:06.687500,-12.18,89.63
238551,2018-06-29 10:49:06.718750,-8.07,89.63
238552,2018-06-29 10:49:06.750000,-11.21,89.63
238553,2018-06-29 10:49:06.781250,-21.21,89.63
238554,2018-06-29 10:49:06.812500,-27.45,89.63
238555,2018-06-29 10:49:06.843750,-21.2,89.63
238556,2018-06-29 10:49:06.875000,-9.53,89.63
238557,2018-06-29 10:49:06.906250,-7.39,89.63
238558,2018-06-29 10:49:06.937500,-13.81,89.63
238559,2018-06-29 10:49:06.968750,-12.66,89.63
238560,2018-06-29 10:49:07.000000,-2.73,89.63
238561,2018-06-29 10:49:07.031250,2.88,89.63
238562,2018-06-29 10:49:07.062500,-1.57,89.63
238563,2018-06-29 10:49:07.093750,-9.16,89.63
238564,2018-06-29 10:49:07.125000,-11.04,89.63
238565,2018-06-29 10:49:07.156250,-8.44,89.63
238566,2018-06-29 10:49:07.187500,-9.2,89.63
238567,2018-06-29 10:49:07.218750,-21.2,89.63
238568,2018-06-29 10:49:07.250000,-36.78,89.63
238569,2018-06-29 10:49:07.281250,-49.46,89.63
238570,2018-06-29 10:49:07.312500,-56.94,89.63
238571,2018-06-29 10:49:07.343750,-54.41,89.63
238572,2018-06-29 10:49:07.375000,-44.66,89.63
238573,2018-06-29 10:49:07.406250,-47.9,89.63
238574,2018-06-29 10:49:07.437500,-79.78,89.63
238575,2018-06-29 10:49:07.468750,-100.65,89.63
238576,2018-06-29 10:49:07.500000,-66.02,89.63
238577,2018-06-29 10:49:07.531250,25.42,89.48
238578,2018-06-29 10:49:07.562500,154.66,89.48
238579,2018-06-29 10:49:07.593750,268.63,89.48
238580,2018-06-29 10:49:07.625000,299.17,89.48
238581,2018-06-29 10:49:07.656250,184.41,89.48
238582,2018-06-29 10:49:07.687500,17.07,89.48
238583,2018-06-29 10:49:07.718750,-102.8,89.48
238584,2018-06-29 10:49:07.750000,-171.65,89.48
238585,2018-06-29 10:49:07.781250,-211.04,89.48
238586,2018-06-29 10:49:07.812500,-207.35,89.48
238587,2018-06-29 10:49:07.843750,-164.11,89.48
238588,2018-06-29 10:49:07.875000,-96.93,89.48
238589,2018-06-29 10:49:07.906250,-23.76,89.48
238590,2018-06-29 10:49:07.937500,45.01,89.48
238591,2018-06-29 10:49:07.968750,98.55,89.48
238592,2018-06-29 10:49:08.000000,119.01,89.48
238593,2018-06-29 10:49:08.031250,108.42,89.48
238594,2018-06-29 10:49:08.062500,82.53,89.48
238595,2018-06-29 10:49:08.093750,59.29,89.48
238596,2018-06-29 10:49:08.125000,39.25,89.48
238597,2018-06-29 10:49:08.156250,22.62,89.48
238598,2018-06-29 10:49:08.187500,17.24,89.48
238599,2018-06-29 10:49:08.218750,24.13,89.48
238600,2018-06-29 10:49:08.250000,33.34,89.48
238601,2018-06-29 10:49:08.281250,24.9,89.48
238602,2018-06-29 10:49:08.312500,7.35,89.48
238603,2018-06-29 10:49:08.343750,1.29,89.48
238604,2018-06-29 10:49:08.375000,21.38,89.48
238605,2018-06-29 10:49:08.406250,31.48,89.48
238606,2018-06-29 10:49:08.437500,-10.94,89.48
238607,2018-06-29 10:49:08.468750,-73.01,89.48
238608,2018-06-29 10:49:08.500000,-72.32,89.48
238609,2018-06-29 10:49:08.531250,28.01,89.45
238610,2018-06-29 10:49:08.562500,168.66,89.45
238611,2018-06-29 10:49:08.593750,288.3,89.45
238612,2018-06-29 10:49:08.625000,291.63,89.45
238613,2018-06-29 10:49:08.656250,162.62,89.45
238614,2018-06-29 10:49:08.687500,39.62,89.45
238615,2018-06-29 10:49:08.718750,-63.25,89.45
238616,2018-06-29 10:49:08.750000,-133.07,89.45
238617,2018-06-29 10:49:08.781250,-160.24,89.45
238618,2018-06-29 10:49:08.812500,-150.13,89.45
238619,2018-06-29 10:49:08.843750,-131.39,89.45
238620,2018-06-29 10:49:08.875000,-102.25,89.45
238621,2018-06-29 10:49:08.906250,-60.46,89.45
238622,2018-06-29 10:49:08.937500,-9.96,89.45
238623,2018-06-29 10:49:08.968750,22.97,89.45
238624,2018-06-29 10:49:09.000000,29.48,89.45
238625,2018-06-29 10:49:09.031250,30.65,89.45
238626,2018-06-29 10:49:09.062500,36.6,89.45
238627,2018-06-29 10:49:09.093750,33.9,89.45
238628,2018-06-29 10:49:09.125000,-8.37,89.45
238629,2018-06-29 10:49:09.156250,-86.69,89.45
238630,2018-06-29 10:49:09.187500,-136.2,89.45
238631,2018-06-29 10:49:09.218750,-112.17,89.45
238632,2018-06-29 10:49:09.250000,-12.61,89.45
238633,2018-06-29 10:49:09.281250,119.99,89.45
238634,2018-06-29 10:49:09.312500,207.05,89.45
238635,2018-06-29 10:49:09.343750,207.69,89.45
238636,2018-06-29 10:49:09.375000,148.9,89.45
238637,2018-06-29 10:49:09.406250,69.16,89.45
238638,2018-06-29 10:49:09.437500,-7.75,89.45
238639,2018-06-29 10:49:09.468750,-62.98,89.45
238640,2018-06-29 10:49:09.500000,-85.89,89.45
238641,2018-06-29 10:49:09.531250,-83.67,89.45
238642,2018-06-29 10:49:09.562500,-72.31,89.45
238643,2018-06-29 10:49:09.593750,-63.57,89.45
238644,2018-06-29 10:49:09.625000,-65.84,89.45
238645,2018-06-29 10:49:09.656250,-85.56,89.45
238646,2018-06-29 10:49:09.687500,-120.69,89.45
238647,2018-06-29 10:49:09.718750,-141.68,89.45
238648,2018-06-29 10:49:09.750000,-132.67,89.45
238649,2018-06-29 10:49:09.781250,-101.01,89.45
238650,2018-06-29 10:49:09.812500,-54.63,89.45
238651,2018-06-29 10:49:09.843750,-9.45,89.45
238652,2018-06-29 10:49:09.875000,23.51,89.45
238653,2018-06-29 10:49:09.906250,59.71,89.45
238654,2018-06-29 10:49:09.937500,112.97,89.45
238655,2018-06-29 10:49:09.968750,167.69,89.45
238656,2018-06-29 10:49:10.000000,187.76,89.45
238657,2018-06-29 10:49:10.031250,146.26,89.45
238658,2018-06-29 10:49:10.062500,74.53,89.45
238659,2018-06-29 10:49:10.093750,8.45,89.45
238660,2018-06-29 10:49:10.125000,-37.89,89.45
238661,2018-06-29 10:49:10.156250,-65.5,89.45
238662,2018-06-29 10:49:10.187500,-75.57,89.45
238663,2018-06-29 10:49:10.218750,-76.78,89.45
238664,2018-06-29 10:49:10.250000,-73.95,89.45
238665,2018-06-29 10:49:10.281250,-68.89,89.45
238666,2018-06-29 10:49:10.312500,-59.45,89.45
238667,2018-06-29 10:49:10.343750,-45.78,89.45
238668,2018-06-29 10:49:10.375000,-33.0,89.45
238669,2018-06-29 10:49:10.406250,-25.45,89.45
238670,2018-06-29 10:49:10.437500,-24.65,89.45
238671,2018-06-29 10:49:10.468750,-25.26,89.45
238672,2018-06-29 10:49:10.500000,-23.28,89.45
238673,2018-06-29 10:49:10.531250,-17.39,89.47
238674,2018-06-29 10:49:10.562500,-11.62,89.47
238675,2018-06-29 10:49:10.593750,-6.16,89.47
238676,2018-06-29 10:49:10.625000,9.82,89.47
238677,2018-06-29 10:49:10.656250,41.36,89.47
238678,2018-06-29 10:49:10.687500,79.63,89.47
238679,2018-06-29 10:49:10.718750,102.77,89.47
238680,2018-06-29 10:49:10.750000,104.69,89.47
238681,2018-06-29 10:49:10.781250,97.59,89.47
238682,2018-06-29 10:49:10.812500,101.7,89.47
238683,2018-06-29 10:49:10.843750,124.34,89.47
238684,2018-06-29 10:49:10.875000,150.37,89.47
238685,2018-06-29 10:49:10.906250,159.22,89.47
238686,2018-06-29 10:49:10.937500,112.37,89.47
238687,2018-06-29 10:49:10.968750,19.27,89.47
238688,2018-06-29 10:49:11.000000,-66.37,89.47
238689,2018-06-29 10:49:11.031250,-135.08,89.47
238690,2018-06-29 10:49:11.062500,-176.34,89.47
238691,2018-06-29 10:49:11.093750,-185.47,89.47
238692,2018-06-29 10:49:11.125000,-171.98,89.47
238693,2018-06-29 10:49:11.156250,-150.22,89.47
238694,2018-06-29 10:49:11.187500,-121.37,89.47
238695,2018-06-29 10:49:11.218750,-85.02,89.47
238696,2018-06-29 10:49:11.250000,-47.26,89.47
238697,2018-06-29 10:49:11.281250,-16.04,89.47
238698,2018-06-29 10:49:11.312500,16.75,89.47
238699,2018-06-29 10:49:11.343750,60.46,89.47
238700,2018-06-29 10:49:11.375000,108.43,89.47
238701,2018-06-29 10:49:11.406250,139.92,89.47
238702,2018-06-29 10:49:11.437500,135.48,89.47
238703,2018-06-29 10:49:11.468750,78.55,89.47
238704,2018-06-29 10:49:11.500000,1.59,89.47
238705,2018-06-29 10:49:11.531250,-30.92,89.48
238706,2018-06-29 10:49:11.562500,-18.74,89.48
238707,2018-06-29 10:49:11.593750,10.01,89.48
238708,2018-06-29 10:49:11.625000,50.31,89.48
238709,2018-06-29 10:49:11.656250,98.66,89.48
238710,2018-06-29 10:49:11.687500,123.75,89.48
238711,2018-06-29 10:49:11.718750,108.3,89.48
238712,2018-06-29 10:49:11.750000,55.6,89.48
238713,2018-06-29 10:49:11.781250,-17.53,89.48
238714,2018-06-29 10:49:11.812500,-97.61,89.48
238715,2018-06-29 10:49:11.843750,-168.13,89.48
238716,2018-06-29 10:49:11.875000,-202.48,89.48
238717,2018-06-29 10:49:11.906250,-181.56,89.48
238718,2018-06-29 10:49:11.937500,-104.15,89.48
238719,2018-06-29 10:49:11.968750,3.09,89.48
238720,2018-06-29 10:49:12.000000,103.46,89.48
238721,2018-06-29 10:49:12.031250,149.95,89.48
238722,2018-06-29 10:49:12.062500,110.7,89.48
238723,2018-06-29 10:49:12.093750,40.52,89.48
238724,2018-06-29 10:49:12.125000,-26.05,89.48
238725,2018-06-29 10:49:12.156250,-82.93,89.48
238726,2018-06-29 10:49:12.187500,-122.39,89.48
238727,2018-06-29 10:49:12.218750,-135.92,89.48
238728,2018-06-29 10:49:12.250000,-129.49,89.48
238729,2018-06-29 10:49:12.281250,-112.73,89.48
238730,2018-06-29 10:49:12.312500,-92.47,89.48
238731,2018-06-29 10:49:12.343750,-68.5,89.48
238732,2018-06-29 10:49:12.375000,-42.15,89.48
238733,2018-06-29 10:49:12.406250,-21.25,89.48
238734,2018-06-29 10:49:12.437500,-8.47,89.48
238735,2018-06-29 10:49:12.468750,-3.11,89.48
238736,2018-06-29 10:49:12.500000,-4.41,89.48
238737,2018-06-29 10:49:12.531250,-14.77,89.55
238738,2018-06-29 10:49:12.562500,-24.58,89.55
238739,2018-06-29 10:49:12.593750,-16.72,89.55
238740,2018-06-29 10:49:12.625000,13.99,89.55
238741,2018-06-29 10:49:12.656250,51.91,89.55
238742,2018-06-29 10:49:12.687500,78.41,89.55
238743,2018-06-29 10:49:12.718750,87.57,89.55
238744,2018-06-29 10:49:12.750000,86.44,89.55
238745,2018-06-29 10:49:12.781250,86.15,89.55
238746,2018-06-29 10:49:12.812500,90.72,89.55
238747,2018-06-29 10:49:12.843750,96.95,89.55
238748,2018-06-29 10:49:12.875000,100.65,89.55
238749,2018-06-29 10:49:12.906250,100.77,89.55
238750,2018-06-29 10:49:12.937500,93.52,89.55
238751,2018-06-29 10:49:12.968750,79.07,89.55
238752,2018-06-29 10:49:13.000000,56.7,89.55
238753,2018-06-29 10:49:13.031250,16.15,89.55
238754,2018-06-29 10:49:13.062500,-21.21,89.55
238755,2018-06-29 10:49:13.093750,-36.09,89.55
238756,2018-06-29 10:49:13.125000,-19.12,89.55
238757,2018-06-29 10:49:13.156250,9.65,89.55
238758,2018-06-29 10:49:13.187500,19.3,89.55
238759,2018-06-29 10:49:13.218750,-3.37,89.55
238760,2018-06-29 10:49:13.250000,-42.51,89.55
238761,2018-06-29 10:49:13.281250,-79.86,89.55
238762,2018-06-29 10:49:13.312500,-108.39,89.55
238763,2018-06-29 10:49:13.343750,-124.13,89.55
238764,2018-06-29 10:49:13.375000,-123.26,89.55
238765,2018-06-29 10:49:13.406250,-109.43,89.55
238766,2018-06-29 10:49:13.437500,-92.12,89.55
238767,2018-06-29 10:49:13.468750,-72.32,89.55
238768,2018-06-29 10:49:13.500000,-44.33,89.55
238769,2018-06-29 10:49:13.531250,-7.03,89.6
238770,2018-06-29 10:49:13.562500,28.19,89.6
238771,2018-06-29 10:49:13.593750,47.05,89.6
238772,2018-06-29 10:49:13.625000,50.16,89.6
238773,2018-06-29 10:49:13.656250,48.23,89.6
238774,2018-06-29 10:49:13.687500,48.79,89.6
238775,2018-06-29 10:49:13.718750,46.78,89.6
238776,2018-06-29 10:49:13.750000,37.45,89.6
238777,2018-06-29 10:49:13.781250,19.04,89.6
238778,2018-06-29 10:49:13.812500,-7.41,89.6
238779,2018-06-29 10:49:13.843750,-26.33,89.6
238780,2018-06-29 10:49:13.875000,-19.05,89.6
238781,2018-06-29 10:49:13.906250,22.08,89.6
238782,2018-06-29 10:49:13.937500,74.17,89.6
238783,2018-06-29 10:49:13.968750,117.58,89.6
238784,2018-06-29 10:49:14.000000,149.88,89.6
238785,2018-06-29 10:49:14.031250,182.64,89.6
238786,2018-06-29 10:49:14.062500,210.19,89.6
238787,2018-06-29 10:49:14.093750,203.36,89.6
238788,2018-06-29 10:49:14.125000,155.75,89.6
238789,2018-06-29 10:49:14.156250,52.38,89.6
238790,2018-06-29 10:49:14.187500,-62.57,89.6
238791,2018-06-29 10:49:14.218750,-118.05,89.6
238792,2018-06-29 10:49:14.250000,-124.76,89.6
238793,2018-06-29 10:49:14.281250,-93.98,89.6
238794,2018-06-29 10:49:14.312500,-48.07,89.6
238795,2018-06-29 10:49:14.343750,-27.08,89.6
238796,2018-06-29 10:49:14.375000,-58.57,89.6
238797,2018-06-29 10:49:14.406250,-126.3,89.6
238798,2018-06-29 10:49:14.437500,-200.37,89.6
238799,2018-06-29 10:49:14.468750,-246.3,89.6
238800,2018-06-29 10:49:14.500000,-243.67,89.6
238801,2018-06-29 10:49:14.531250,-186.21,89.7
238802,2018-06-29 10:49:14.562500,-96.76,89.7
238803,2018-06-29 10:49:14.593750,-7.76,89.7
238804,2018-06-29 10:49:14.625000,62.49,89.7
238805,2018-06-29 10:49:14.656250,107.1,89.7
238806,2018-06-29 10:49:14.687500,127.56,89.7
238807,2018-06-29 10:49:14.718750,129.65,89.7
238808,2018-06-29 10:49:14.750000,127.56,89.7
238809,2018-06-29 10:49:14.781250,129.89,89.7
238810,2018-06-29 10:49:14.812500,133.22,89.7
238811,2018-06-29 10:49:14.843750,122.45,89.7
238812,2018-06-29 10:49:14.875000,85.53,89.7
238813,2018-06-29 10:49:14.906250,27.5,89.7
238814,2018-06-29 10:49:14.937500,-33.43,89.7
238815,2018-06-29 10:49:14.968750,-78.11,89.7
238816,2018-06-29 10:49:15.000000,-95.34,89.7
238817,2018-06-29 10:49:15.031250,-85.98,89.7
238818,2018-06-29 10:49:15.062500,-63.94,89.7
238819,2018-06-29 10:49:15.093750,-41.56,89.7
238820,2018-06-29 10:49:15.125000,-12.52,89.7
238821,2018-06-29 10:49:15.156250,34.8,89.7
238822,2018-06-29 10:49:15.187500,88.2,89.7
238823,2018-06-29 10:49:15.218750,116.41,89.7
238824,2018-06-29 10:49:15.250000,103.41,89.7
238825,2018-06-29 10:49:15.281250,61.31,89.7
238826,2018-06-29 10:49:15.312500,13.24,89.7
238827,2018-06-29 10:49:15.343750,-21.46,89.7
238828,2018-06-29 10:49:15.375000,-33.51,89.7
238829,2018-06-29 10:49:15.406250,-29.95,89.7
238830,2018-06-29 10:49:15.437500,-29.39,89.7
238831,2018-06-29 10:49:15.468750,-43.19,89.7
238832,2018-06-29 10:49:15.500000,-66.41,89.7
238833,2018-06-29 10:49:15.531250,-88.3,89.8
238834,2018-06-29 10:49:15.562500,-102.87,89.8
238835,2018-06-29 10:49:15.593750,-107.82,89.8
238836,2018-06-29 10:49:15.625000,-102.1,89.8
238837,2018-06-29 10:49:15.656250,-87.39,89.8
238838,2018-06-29 10:49:15.687500,-68.39,89.8
238839,2018-06-29 10:49:15.718750,-50.94,89.8
238840,2018-06-29 10:49:15.750000,-37.27,89.8
238841,2018-06-29 10:49:15.781250,-18.54,89.8
238842,2018-06-29 10:49:15.812500,21.0,89.8
238843,2018-06-29 10:49:15.843750,85.25,89.8
238844,2018-06-29 10:49:15.875000,159.39,89.8
238845,2018-06-29 10:49:15.906250,223.0,89.8
238846,2018-06-29 10:49:15.937500,257.47,89.8
238847,2018-06-29 10:49:15.968750,246.68,89.8
238848,2018-06-29 10:49:16.000000,189.09,89.8
238849,2018-06-29 10:49:16.031250,105.41,89.8
238850,2018-06-29 10:49:16.062500,23.38,89.8
238851,2018-06-29 10:49:16.093750,-39.03,89.8
238852,2018-06-29 10:49:16.125000,-72.94,89.8
238853,2018-06-29 10:49:16.156250,-75.1,89.8
238854,2018-06-29 10:49:16.187500,-52.39,89.8
238855,2018-06-29 10:49:16.218750,-21.34,89.8
238856,2018-06-29 10:49:16.250000,3.91,89.8
238857,2018-06-29 10:49:16.281250,21.5,89.8
238858,2018-06-29 10:49:16.312500,32.83,89.8
238859,2018-06-29 10:49:16.343750,28.71,89.8
238860,2018-06-29 10:49:16.375000,-4.74,89.8
238861,2018-06-29 10:49:16.406250,-67.16,89.8
238862,2018-06-29 10:49:16.437500,-132.83,89.8
238863,2018-06-29 10:49:16.468750,-157.71,89.8
238864,2018-06-29 10:49:16.500000,-112.3,89.8
238865,2018-06-29 10:49:16.531250,-18.85,89.88
238866,2018-06-29 10:49:16.562500,61.5,89.88
238867,2018-06-29 10:49:16.593750,87.2,89.88
238868,2018-06-29 10:49:16.625000,62.29,89.88
238869,2018-06-29 10:49:16.656250,11.28,89.88
238870,2018-06-29 10:49:16.687500,-41.56,89.88
238871,2018-06-29 10:49:16.718750,-72.91,89.88
238872,2018-06-29 10:49:16.750000,-70.34,89.88
238873,2018-06-29 10:49:16.781250,-43.83,89.88
238874,2018-06-29 10:49:16.812500,-15.53,89.88
238875,2018-06-29 10:49:16.843750,0.11,89.88
238876,2018-06-29 10:49:16.875000,2.14,89.88
238877,2018-06-29 10:49:16.906250,-3.91,89.88
238878,2018-06-29 10:49:16.937500,-10.63,89.88
238879,2018-06-29 10:49:16.968750,-9.64,89.88
238880,2018-06-29 10:49:17.000000,1.83,89.88
238881,2018-06-29 10:49:17.031250,15.21,89.88
238882,2018-06-29 10:49:17.062500,20.2,89.88
238883,2018-06-29 10:49:17.093750,21.07,89.88
238884,2018-06-29 10:49:17.125000,32.5,89.88
238885,2018-06-29 10:49:17.156250,56.54,89.88
238886,2018-06-29 10:49:17.187500,75.76,89.88
238887,2018-06-29 10:49:17.218750,75.03,89.88
238888,2018-06-29 10:49:17.250000,59.27,89.88
238889,2018-06-29 10:49:17.281250,45.87,89.88
238890,2018-06-29 10:49:17.312500,45.36,89.88
238891,2018-06-29 10:49:17.343750,53.97,89.88
238892,2018-06-29 10:49:17.375000,60.96,89.88
238893,2018-06-29 10:49:17.406250,57.49,89.88
238894,2018-06-29 10:49:17.437500,41.23,89.88
238895,2018-06-29 10:49:17.468750,18.66,89.88
238896,2018-06-29 10:49:17.500000,-3.15,89.88
238897,2018-06-29 10:49:17.531250,-29.17,89.95
238898,2018-06-29 10:49:17.562500,-62.37,89.95
238899,2018-06-29 10:49:17.593750,-84.75,89.95
238900,2018-06-29 10:49:17.625000,-78.48,89.95
238901,2018-06-29 10:49:17.656250,-58.62,89.95
238902,2018-06-29 10:49:17.687500,-55.23,89.95
238903,2018-06-29 10:49:17.718750,-76.92,89.95
238904,2018-06-29 10:49:17.750000,-115.02,89.95
238905,2018-06-29 10:49:17.781250,-156.55,89.95
238906,2018-06-29 10:49:17.812500,-183.54,89.95
238907,2018-06-29 10:49:17.843750,-175.71,89.95
238908,2018-06-29 10:49:17.875000,-133.86,89.95
238909,2018-06-29 10:49:17.906250,-80.96,89.95
238910,2018-06-29 10:49:17.937500,-42.23,89.95
238911,2018-06-29 10:49:17.968750,-27.15,89.95
238912,2018-06-29 10:49:18.000000,-26.08,89.95
238913,2018-06-29 10:49:18.031250,-33.53,89.95
238914,2018-06-29 10:49:18.062500,-38.71,89.95
238915,2018-06-29 10:49:18.093750,-31.39,89.95
238916,2018-06-29 10:49:18.125000,-12.75,89.95
238917,2018-06-29 10:49:18.156250,17.85,89.95
238918,2018-06-29 10:49:18.187500,50.23,89.95
238919,2018-06-29 10:49:18.218750,72.83,89.95
238920,2018-06-29 10:49:18.250000,82.59,89.95
238921,2018-06-29 10:49:18.281250,76.85,89.95
238922,2018-06-29 10:49:18.312500,56.09,89.95
238923,2018-06-29 10:49:18.343750,36.87,89.95
238924,2018-06-29 10:49:18.375000,33.99,89.95
238925,2018-06-29 10:49:18.406250,43.14,89.95
238926,2018-06-29 10:49:18.437500,48.0,89.95
238927,2018-06-29 10:49:18.468750,44.17,89.95
238928,2018-06-29 10:49:18.500000,47.01,89.95
238929,2018-06-29 10:49:18.531250,68.77,90.02
238930,2018-06-29 10:49:18.562500,97.72,90.02
238931,2018-06-29 10:49:18.593750,113.21,90.02
238932,2018-06-29 10:49:18.625000,111.62,90.02
238933,2018-06-29 10:49:18.656250,100.71,90.02
238934,2018-06-29 10:49:18.687500,81.71,90.02
238935,2018-06-29 10:49:18.718750,52.34,90.02
238936,2018-06-29 10:49:18.750000,16.93,90.02
238937,2018-06-29 10:49:18.781250,-23.15,90.02
238938,2018-06-29 10:49:18.812500,-61.83,90.02
238939,2018-06-29 10:49:18.843750,-85.11,90.02
238940,2018-06-29 10:49:18.875000,-87.14,90.02
238941,2018-06-29 10:49:18.906250,-76.24,90.02
238942,2018-06-29 10:49:18.937500,-63.21,90.02
238943,2018-06-29 10:49:18.968750,-55.41,90.02
238944,2018-06-29 10:49:19.000000,-53.91,90.02
238945,2018-06-29 10:49:19.031250,-56.11,90.02
238946,2018-06-29 10:49:19.062500,-61.72,90.02
238947,2018-06-29 10:49:19.093750,-68.96,90.02
238948,2018-06-29 10:49:19.125000,-68.37,90.02
238949,2018-06-29 10:49:19.156250,-53.66,90.02
238950,2018-06-29 10:49:19.187500,-32.4,90.02
238951,2018-06-29 10:49:19.218750,-8.74,90.02
238952,2018-06-29 10:49:19.250000,18.0,90.02
238953,2018-06-29 10:49:19.281250,35.46,90.02
238954,2018-06-29 10:49:19.312500,35.1,90.02
238955,2018-06-29 10:49:19.343750,33.84,90.02
238956,2018-06-29 10:49:19.375000,47.78,90.02
238957,2018-06-29 10:49:19.406250,67.88,90.02
238958,2018-06-29 10:49:19.437500,85.56,90.02
238959,2018-06-29 10:49:19.468750,103.09,90.02
238960,2018-06-29 10:49:19.500000,112.59,90.02
238961,2018-06-29 10:49:19.531250,98.37,90.03
238962,2018-06-29 10:49:19.562500,63.05,90.03
238963,2018-06-29 10:49:19.593750,26.75,90.03
238964,2018-06-29 10:49:19.625000,-3.56,90.03
238965,2018-06-29 10:49:19.656250,-31.14,90.03
238966,2018-06-29 10:49:19.687500,-52.49,90.03
238967,2018-06-29 10:49:19.718750,-61.78,90.03
238968,2018-06-29 10:49:19.750000,-64.2,90.03
238969,2018-06-29 10:49:19.781250,-68.12,90.03
238970,2018-06-29 10:49:19.812500,-73.46,90.03
238971,2018-06-29 10:49:19.843750,-71.88,90.03
238972,2018-06-29 10:49:19.875000,-56.67,90.03
238973,2018-06-29 10:49:19.906250,-31.23,90.03
238974,2018-06-29 10:49:19.937500,-6.43,90.03
238975,2018-06-29 10:49:19.968750,8.66,90.03
238976,2018-06-29 10:49:20.000000,14.21,90.03
238977,2018-06-29 10:49:20.031250,15.3,90.03
238978,2018-06-29 10:49:20.062500,15.29,90.03
238979,2018-06-29 10:49:20.093750,14.59,90.03
238980,2018-06-29 10:49:20.125000,13.8,90.03
238981,2018-06-29 10:49:20.156250,13.7,90.03
238982,2018-06-29 10:49:20.187500,14.11,90.03
238983,2018-06-29 10:49:20.218750,13.85,90.03
238984,2018-06-29 10:49:20.250000,12.15,90.03
238985,2018-06-29 10:49:20.281250,8.63,90.03
238986,2018-06-29 10:49:20.312500,2.48,90.03
238987,2018-06-29 10:49:20.343750,-5.7,90.03
238988,2018-06-29 10:49:20.375000,-13.68,90.03
238989,2018-06-29 10:49:20.406250,-18.8,90.03
238990,2018-06-29 10:49:20.437500,-22.7,90.03
238991,2018-06-29 10:49:20.468750,-30.97,90.03
238992,2018-06-29 10:49:20.500000,-43.33,90.03
238993,2018-06-29 10:49:20.531250,-48.41,90.0
238994,2018-06-29 10:49:20.562500,-33.28,90.0
238995,2018-06-29 10:49:20.593750,-3.01,90.0
238996,2018-06-29 10:49:20.625000,29.49,90.0
238997,2018-06-29 10:49:20.656250,56.04,90.0
238998,2018-06-29 10:49:20.687500,70.42,90.0
238999,2018-06-29 10:49:20.718750,69.37,90.0
239000,2018-06-29 10:49:20.750000,60.31,90.0
239001,2018-06-29 10:49:20.781250,53.78,90.0
239002,2018-06-29 10:49:20.812500,51.1,90.0
239003,2018-06-29 10:49:20.843750,49.38,90.0
239004,2018-06-29 10:49:20.875000,46.44,90.0
239005,2018-06-29 10:49:20.906250,42.3,90.0
239006,2018-06-29 10:49:20.937500,28.15,90.0
239007,2018-06-29 10:49:20.968750,-12.26,90.0
239008,2018-06-29 10:49:21.000000,-68.3,90.0
239009,2018-06-29 10:49:21.031250,-118.47,90.0
239010,2018-06-29 10:49:21.062500,-150.05,90.0
239011,2018-06-29 10:49:21.093750,-171.23,90.0
239012,2018-06-29 10:49:21.125000,-185.64,90.0
239013,2018-06-29 10:49:21.156250,-188.08,90.0
239014,2018-06-29 10:49:21.187500,-167.77,90.0
239015,2018-06-29 10:49:21.218750,-121.51,90.0
239016,2018-06-29 10:49:21.250000,-53.04,90.0
239017,2018-06-29 10:49:21.281250,16.56,90.0
239018,2018-06-29 10:49:21.312500,66.43,90.0
239019,2018-06-29 10:49:21.343750,92.29,90.0
239020,2018-06-29 10:49:21.375000,99.51,90.0
239021,2018-06-29 10:49:21.406250,93.43,90.0
239022,2018-06-29 10:49:21.437500,78.74,90.0
239023,2018-06-29 10:49:21.468750,64.34,90.0
239024,2018-06-29 10:49:21.500000,55.93,90.0
239025,2018-06-29 10:49:21.531250,49.74,89.95
239026,2018-06-29 10:49:21.562500,36.74,89.95
239027,2018-06-29 10:49:21.593750,15.23,89.95
239028,2018-06-29 10:49:21.625000,-9.6,89.95
239029,2018-06-29 10:49:21.656250,-33.2,89.95
239030,2018-06-29 10:49:21.687500,-54.14,89.95
239031,2018-06-29 10:49:21.718750,-72.42,89.95
239032,2018-06-29 10:49:21.750000,-89.92,89.95
239033,2018-06-29 10:49:21.781250,-108.23,89.95
239034,2018-06-29 10:49:21.812500,-117.28,89.95
239035,2018-06-29 10:49:21.843750,-96.81,89.95
239036,2018-06-29 10:49:21.875000,-40.2,89.95
239037,2018-06-29 10:49:21.906250,30.46,89.95
239038,2018-06-29 10:49:21.937500,86.08,89.95
239039,2018-06-29 10:49:21.968750,116.89,89.95
239040,2018-06-29 10:49:22.000000,129.46,89.95
239041,2018-06-29 10:49:22.031250,130.62,89.95
239042,2018-06-29 10:49:22.062500,123.4,89.95
239043,2018-06-29 10:49:22.093750,110.21,89.95
239044,2018-06-29 10:49:22.125000,91.33,89.95
239045,2018-06-29 10:49:22.156250,64.47,89.95
239046,2018-06-29 10:49:22.187500,30.98,89.95
239047,2018-06-29 10:49:22.218750,-0.02,89.95
239048,2018-06-29 10:49:22.250000,-19.29,89.95
239049,2018-06-29 10:49:22.281250,-25.27,89.95
239050,2018-06-29 10:49:22.312500,-23.84,89.95
239051,2018-06-29 10:49:22.343750,-27.0,89.95
239052,2018-06-29 10:49:22.375000,-45.89,89.95
239053,2018-06-29 10:49:22.406250,-78.33,89.95
239054,2018-06-29 10:49:22.437500,-105.02,89.95
239055,2018-06-29 10:49:22.468750,-104.17,89.95
239056,2018-06-29 10:49:22.500000,-65.93,89.95
239057,2018-06-29 10:49:22.531250,0.91,89.9
239058,2018-06-29 10:49:22.562500,72.58,89.9
239059,2018-06-29 10:49:22.593750,123.51,89.9
239060,2018-06-29 10:49:22.625000,141.71,89.9
239061,2018-06-29 10:49:22.656250,137.38,89.9
239062,2018-06-29 10:49:22.687500,129.69,89.9
239063,2018-06-29 10:49:22.718750,132.47,89.9
239064,2018-06-29 10:49:22.750000,136.36,89.9
239065,2018-06-29 10:49:22.781250,124.31,89.9
239066,2018-06-29 10:49:22.812500,94.48,89.9
239067,2018-06-29 10:49:22.843750,65.29,89.9
239068,2018-06-29 10:49:22.875000,58.27,89.9
239069,2018-06-29 10:49:22.906250,72.77,89.9
239070,2018-06-29 10:49:22.937500,98.14,89.9
239071,2018-06-29 10:49:22.968750,118.53,89.9
239072,2018-06-29 10:49:23.000000,132.54,89.9
239073,2018-06-29 10:49:23.031250,136.01,89.9
239074,2018-06-29 10:49:23.062500,124.54,89.9
239075,2018-06-29 10:49:23.093750,87.08,89.9
239076,2018-06-29 10:49:23.125000,-25.53,89.9
239077,2018-06-29 10:49:23.156250,-134.28,89.9
239078,2018-06-29 10:49:23.187500,-155.79,89.9
239079,2018-06-29 10:49:23.218750,-108.89,89.9
239080,2018-06-29 10:49:23.250000,-28.28,89.9
239081,2018-06-29 10:49:23.281250,48.78,89.9
239082,2018-06-29 10:49:23.312500,72.26,89.9
239083,2018-06-29 10:49:23.343750,-3.89,89.9
239084,2018-06-29 10:49:23.375000,-118.01,89.9
239085,2018-06-29 10:49:23.406250,-193.18,89.9
239086,2018-06-29 10:49:23.437500,-217.78,89.9
239087,2018-06-29 10:49:23.468750,-215.75,89.9
239088,2018-06-29 10:49:23.500000,-196.91,89.9
239089,2018-06-29 10:49:23.531250,-174.58,89.82
239090,2018-06-29 10:49:23.562500,-153.42,89.82
239091,2018-06-29 10:49:23.593750,-135.17,89.82
239092,2018-06-29 10:49:23.625000,-109.96,89.82
239093,2018-06-29 10:49:23.656250,-76.1,89.82
239094,2018-06-29 10:49:23.687500,-50.49,89.82
239095,2018-06-29 10:49:23.718750,-34.38,89.82
239096,2018-06-29 10:49:23.750000,-7.21,89.82
239097,2018-06-29 10:49:23.781250,42.51,89.82
239098,2018-06-29 10:49:23.812500,97.17,89.82
239099,2018-06-29 10:49:23.843750,133.29,89.82
239100,2018-06-29 10:49:23.875000,137.86,89.82
239101,2018-06-29 10:49:23.906250,108.58,89.82
239102,2018-06-29 10:49:23.937500,58.5,89.82
239103,2018-06-29 10:49:23.968750,13.16,89.82
239104,2018-06-29 10:49:24.000000,-7.29,89.82
239105,2018-06-29 10:49:24.031250,-3.28,89.82
239106,2018-06-29 10:49:24.062500,10.83,89.82
239107,2018-06-29 10:49:24.093750,25.01,89.82
239108,2018-06-29 10:49:24.125000,37.44,89.82
239109,2018-06-29 10:49:24.156250,44.8,89.82
239110,2018-06-29 10:49:24.187500,36.99,89.82
239111,2018-06-29 10:49:24.218750,1.35,89.82
239112,2018-06-29 10:49:24.250000,-64.33,89.82
239113,2018-06-29 10:49:24.281250,-133.6,89.82
239114,2018-06-29 10:49:24.312500,-154.39,89.82
239115,2018-06-29 10:49:24.343750,-93.31,89.82
239116,2018-06-29 10:49:24.375000,22.63,89.82
239117,2018-06-29 10:49:24.406250,124.98,89.82
239118,2018-06-29 10:49:24.437500,164.16,89.82
239119,2018-06-29 10:49:24.468750,140.94,89.82
239120,2018-06-29 10:49:24.500000,86.06,89.82
239121,2018-06-29 10:49:24.531250,27.75,89.68
239122,2018-06-29 10:49:24.562500,-21.36,89.68
239123,2018-06-29 10:49:24.593750,-60.19,89.68
239124,2018-06-29 10:49:24.625000,-87.38,89.68
239125,2018-06-29 10:49:24.656250,-97.17,89.68
239126,2018-06-29 10:49:24.687500,-89.06,89.68
239127,2018-06-29 10:49:24.718750,-73.27,89.68
239128,2018-06-29 10:49:24.750000,-60.5,89.68
239129,2018-06-29 10:49:24.781250,-51.7,89.68
239130,2018-06-29 10:49:24.812500,-42.31,89.68
239131,2018-06-29 10:49:24.843750,-31.03,89.68
239132,2018-06-29 10:49:24.875000,-22.0,89.68
239133,2018-06-29 10:49:24.906250,-20.56,89.68
239134,2018-06-29 10:49:24.937500,-23.03,89.68
239135,2018-06-29 10:49:24.968750,-15.37,89.68
239136,2018-06-29 10:49:25.000000,7.9,89.68
239137,2018-06-29 10:49:25.031250,32.18,89.68
239138,2018-06-29 10:49:25.062500,42.24,89.68
239139,2018-06-29 10:49:25.093750,41.94,89.68
239140,2018-06-29 10:49:25.125000,44.29,89.68
239141,2018-06-29 10:49:25.156250,53.29,89.68
239142,2018-06-29 10:49:25.187500,65.18,89.68
239143,2018-06-29 10:49:25.218750,77.85,89.68
239144,2018-06-29 10:49:25.250000,91.85,89.68
239145,2018-06-29 10:49:25.281250,104.69,89.68
239146,2018-06-29 10:49:25.312500,105.06,89.68
239147,2018-06-29 10:49:25.343750,75.69,89.68
239148,2018-06-29 10:49:25.375000,11.84,89.68
239149,2018-06-29 10:49:25.406250,-62.61,89.68
239150,2018-06-29 10:49:25.437500,-106.31,89.68
239151,2018-06-29 10:49:25.468750,-95.2,89.68
239152,2018-06-29 10:49:25.500000,-47.58,89.68
239153,2018-06-29 10:49:25.531250,-11.71,89.52
239154,2018-06-29 10:49:25.562500,-23.89,89.52
239155,2018-06-29 10:49:25.593750,-76.78,89.52
239156,2018-06-29 10:49:25.625000,-129.02,89.52
239157,2018-06-29 10:49:25.656250,-143.3,89.52
239158,2018-06-29 10:49:25.687500,-114.48,89.52
239159,2018-06-29 10:49:25.718750,-64.51,89.52
239160,2018-06-29 10:49:25.750000,-16.52,89.52
239161,2018-06-29 10:49:25.781250,20.03,89.52
239162,2018-06-29 10:49:25.812500,47.74,89.52
239163,2018-06-29 10:49:25.843750,73.59,89.52
239164,2018-06-29 10:49:25.875000,98.43,89.52
239165,2018-06-29 10:49:25.906250,114.91,89.52
239166,2018-06-29 10:49:25.937500,118.87,89.52
239167,2018-06-29 10:49:25.968750,117.71,89.52
239168,2018-06-29 10:49:26.000000,121.57,89.52
239169,2018-06-29 10:49:26.031250,133.81,89.52
239170,2018-06-29 10:49:26.062500,147.59,89.52
239171,2018-06-29 10:49:26.093750,146.29,89.52
239172,2018-06-29 10:49:26.125000,113.33,89.52
239173,2018-06-29 10:49:26.156250,52.58,89.52
239174,2018-06-29 10:49:26.187500,-11.55,89.52
239175,2018-06-29 10:49:26.218750,-60.82,89.52
239176,2018-06-29 10:49:26.250000,-94.51,89.52
239177,2018-06-29 10:49:26.281250,-116.99,89.52
239178,2018-06-29 10:49:26.312500,-122.77,89.52
239179,2018-06-29 10:49:26.343750,-104.47,89.52
239180,2018-06-29 10:49:26.375000,-64.85,89.52
239181,2018-06-29 10:49:26.406250,-21.96,89.52
239182,2018-06-29 10:49:26.437500,-1.46,89.52
239183,2018-06-29 10:49:26.468750,-20.08,89.52
239184,2018-06-29 10:49:26.500000,-70.22,89.52
239185,2018-06-29 10:49:26.531250,-98.72,89.33
239186,2018-06-29 10:49:26.562500,-78.41,89.33
239187,2018-06-29 10:49:26.593750,-22.4,89.33
239188,2018-06-29 10:49:26.625000,57.93,89.33
239189,2018-06-29 10:49:26.656250,133.68,89.33
239190,2018-06-29 10:49:26.687500,169.78,89.33
239191,2018-06-29 10:49:26.718750,133.73,89.33
239192,2018-06-29 10:49:26.750000,49.69,89.33
239193,2018-06-29 10:49:26.781250,-22.89,89.33
239194,2018-06-29 10:49:26.812500,-74.24,89.33
239195,2018-06-29 10:49:26.843750,-118.39,89.33
239196,2018-06-29 10:49:26.875000,-145.05,89.33
239197,2018-06-29 10:49:26.906250,-144.96,89.33
239198,2018-06-29 10:49:26.937500,-128.63,89.33
239199,2018-06-29 10:49:26.968750,-108.19,89.33
239200,2018-06-29 10:49:27.000000,-88.53,89.33
239201,2018-06-29 10:49:27.031250,-68.03,89.33
239202,2018-06-29 10:49:27.062500,-45.5,89.33
239203,2018-06-29 10:49:27.093750,-16.51,89.33
239204,2018-06-29 10:49:27.125000,22.52,89.33
239205,2018-06-29 10:49:27.156250,65.08,89.33
239206,2018-06-29 10:49:27.187500,93.36,89.33
239207,2018-06-29 10:49:27.218750,94.91,89.33
239208,2018-06-29 10:49:27.250000,75.65,89.33
239209,2018-06-29 10:49:27.281250,51.07,89.33
239210,2018-06-29 10:49:27.312500,30.64,89.33
239211,2018-06-29 10:49:27.343750,18.58,89.33
239212,2018-06-29 10:49:27.375000,16.13,89.33
239213,2018-06-29 10:49:27.406250,20.23,89.33
239214,2018-06-29 10:49:27.437500,25.33,89.33
239215,2018-06-29 10:49:27.468750,29.64,89.33
239216,2018-06-29 10:49:27.500000,36.89,89.33
239217,2018-06-29 10:49:27.531250,43.4,89.15
239218,2018-06-29 10:49:27.562500,44.56,89.15
239219,2018-06-29 10:49:27.593750,36.42,89.15
239220,2018-06-29 10:49:27.625000,15.03,89.15
239221,2018-06-29 10:49:27.656250,-27.05,89.15
239222,2018-06-29 10:49:27.687500,-74.24,89.15
239223,2018-06-29 10:49:27.718750,-83.15,89.15
239224,2018-06-29 10:49:27.750000,-52.08,89.15
239225,2018-06-29 10:49:27.781250,18.8,89.15
239226,2018-06-29 10:49:27.812500,111.51,89.15
239227,2018-06-29 10:49:27.843750,178.74,89.15
239228,2018-06-29 10:49:27.875000,172.48,89.15
239229,2018-06-29 10:49:27.906250,84.6,89.15
239230,2018-06-29 10:49:27.937500,-12.53,89.15
239231,2018-06-29 10:49:27.968750,-82.61,89.15
239232,2018-06-29 10:49:28.000000,-137.31,89.15
239233,2018-06-29 10:49:28.031250,-166.32,89.15
239234,2018-06-29 10:49:28.062500,-159.22,89.15
239235,2018-06-29 10:49:28.093750,-128.63,89.15
239236,2018-06-29 10:49:28.125000,-91.77,89.15
239237,2018-06-29 10:49:28.156250,-57.99,89.15
239238,2018-06-29 10:49:28.187500,-28.13,89.15
239239,2018-06-29 10:49:28.218750,0.19,89.15
239240,2018-06-29 10:49:28.250000,24.18,89.15
239241,2018-06-29 10:49:28.281250,39.5,89.15
239242,2018-06-29 10:49:28.312500,38.47,89.15
239243,2018-06-29 10:49:28.343750,20.27,89.15
239244,2018-06-29 10:49:28.375000,-6.59,89.15
239245,2018-06-29 10:49:28.406250,-25.02,89.15
239246,2018-06-29 10:49:28.437500,-24.12,89.15
239247,2018-06-29 10:49:28.468750,-10.0,89.15
239248,2018-06-29 10:49:28.500000,6.69,89.15
239249,2018-06-29 10:49:28.531250,22.84,88.98
239250,2018-06-29 10:49:28.562500,38.96,88.98
239251,2018-06-29 10:49:28.593750,48.0,88.98
239252,2018-06-29 10:49:28.625000,44.44,88.98
239253,2018-06-29 10:49:28.656250,36.27,88.98
239254,2018-06-29 10:49:28.687500,36.97,88.98
239255,2018-06-29 10:49:28.718750,48.3,88.98
239256,2018-06-29 10:49:28.750000,56.25,88.98
239257,2018-06-29 10:49:28.781250,45.16,88.98
239258,2018-06-29 10:49:28.812500,17.54,88.98
239259,2018-06-29 10:49:28.843750,1.67,88.98
239260,2018-06-29 10:49:28.875000,26.62,88.98
239261,2018-06-29 10:49:28.906250,80.91,88.98
239262,2018-06-29 10:49:28.937500,116.41,88.98
239263,2018-06-29 10:49:28.968750,99.58,88.98
239264,2018-06-29 10:49:29.000000,37.36,88.98
239265,2018-06-29 10:49:29.031250,-42.4,88.98
239266,2018-06-29 10:49:29.062500,-108.51,88.98
239267,2018-06-29 10:49:29.093750,-134.9,88.98
239268,2018-06-29 10:49:29.125000,-119.66,88.98
239269,2018-06-29 10:49:29.156250,-87.65,88.98
239270,2018-06-29 10:49:29.187500,-61.03,88.98
239271,2018-06-29 10:49:29.218750,-39.55,88.98
239272,2018-06-29 10:49:29.250000,-15.95,88.98
239273,2018-06-29 10:49:29.281250,3.46,88.98
239274,2018-06-29 10:49:29.312500,7.58,88.98
239275,2018-06-29 10:49:29.343750,0.96,88.98
239276,2018-06-29 10:49:29.375000,2.76,88.98
239277,2018-06-29 10:49:29.406250,22.87,88.98
239278,2018-06-29 10:49:29.437500,47.72,88.98
239279,2018-06-29 10:49:29.468750,55.42,88.98
239280,2018-06-29 10:49:29.500000,39.39,88.98
239281,2018-06-29 10:49:29.531250,10.25,88.83
239282,2018-06-29 10:49:29.562500,-20.81,88.83
239283,2018-06-29 10:49:29.593750,-47.15,88.83
239284,2018-06-29 10:49:29.625000,-64.3,88.83
239285,2018-06-29 10:49:29.656250,-70.88,88.83
239286,2018-06-29 10:49:29.687500,-69.95,88.83
239287,2018-06-29 10:49:29.718750,-62.31,88.83
239288,2018-06-29 10:49:29.750000,-45.77,88.83
239289,2018-06-29 10:49:29.781250,-22.29,88.83
239290,2018-06-29 10:49:29.812500,4.13,88.83
239291,2018-06-29 10:49:29.843750,28.95,88.83
239292,2018-06-29 10:49:29.875000,46.12,88.83
239293,2018-06-29 10:49:29.906250,45.83,88.83
239294,2018-06-29 10:49:29.937500,30.11,88.83
239295,2018-06-29 10:49:29.968750,21.13,88.83
239296,2018-06-29 10:49:30.000000,31.95,88.83
239297,2018-06-29 10:49:30.031250,71.02,88.83
239298,2018-06-29 10:49:30.062500,127.93,88.83
239299,2018-06-29 10:49:30.093750,170.77,88.83
239300,2018-06-29 10:49:30.125000,166.6,88.83
239301,2018-06-29 10:49:30.156250,107.72,88.83
239302,2018-06-29 10:49:30.187500,15.91,88.83
239303,2018-06-29 10:49:30.218750,-73.19,88.83
239304,2018-06-29 10:49:30.250000,-136.21,88.83
239305,2018-06-29 10:49:30.281250,-172.57,88.83
239306,2018-06-29 10:49:30.312500,-192.19,88.83
239307,2018-06-29 10:49:30.343750,-197.63,88.83
239308,2018-06-29 10:49:30.375000,-178.45,88.83
239309,2018-06-29 10:49:30.406250,-129.6,88.83
239310,2018-06-29 10:49:30.437500,-66.07,88.83
239311,2018-06-29 10:49:30.468750,-10.53,88.83
239312,2018-06-29 10:49:30.500000,32.31,88.83
239313,2018-06-29 10:49:30.531250,77.43,88.75
239314,2018-06-29 10:49:30.562500,133.8,88.75
239315,2018-06-29 10:49:30.593750,182.78,88.75
239316,2018-06-29 10:49:30.625000,191.31,88.75
239317,2018-06-29 10:49:30.656250,148.96,88.75
239318,2018-06-29 10:49:30.687500,78.41,88.75
239319,2018-06-29 10:49:30.718750,8.82,88.75
239320,2018-06-29 10:49:30.750000,-43.74,88.75
239321,2018-06-29 10:49:30.781250,-72.51,88.75
239322,2018-06-29 10:49:30.812500,-78.54,88.75
239323,2018-06-29 10:49:30.843750,-73.21,88.75
239324,2018-06-29 10:49:30.875000,-70.01,88.75
239325,2018-06-29 10:49:30.906250,-73.5,88.75
239326,2018-06-29 10:49:30.937500,-77.09,88.75
239327,2018-06-29 10:49:30.968750,-70.96,88.75
239328,2018-06-29 10:49:31.000000,-53.68,88.75
239329,2018-06-29 10:49:31.031250,-34.91,88.75
239330,2018-06-29 10:49:31.062500,-17.38,88.75
239331,2018-06-29 10:49:31.093750,2.47,88.75
239332,2018-06-29 10:49:31.125000,30.27,88.75
239333,2018-06-29 10:49:31.156250,75.96,88.75
239334,2018-06-29 10:49:31.187500,136.8,88.75
239335,2018-06-29 10:49:31.218750,189.08,88.75
239336,2018-06-29 10:49:31.250000,201.16,88.75
239337,2018-06-29 10:49:31.281250,140.82,88.75
239338,2018-06-29 10:49:31.312500,41.14,88.75
239339,2018-06-29 10:49:31.343750,-42.44,88.75
239340,2018-06-29 10:49:31.375000,-101.21,88.75
239341,2018-06-29 10:49:31.406250,-140.94,88.75
239342,2018-06-29 10:49:31.437500,-159.41,88.75
239343,2018-06-29 10:49:31.468750,-162.61,88.75
239344,2018-06-29 10:49:31.500000,-153.49,88.75
239345,2018-06-29 10:49:31.531250,-130.13,88.57
239346,2018-06-29 10:49:31.562500,-98.92,88.57
239347,2018-06-29 10:49:31.593750,-73.48,88.57
239348,2018-06-29 10:49:31.625000,-57.85,88.57
239349,2018-06-29 10:49:31.656250,-32.04,88.57
239350,2018-06-29 10:49:31.687500,25.3,88.57
239351,2018-06-29 10:49:31.718750,104.26,88.57
239352,2018-06-29 10:49:31.750000,162.7,88.57
239353,2018-06-29 10:49:31.781250,169.94,88.57
239354,2018-06-29 10:49:31.812500,134.52,88.57
239355,2018-06-29 10:49:31.843750,82.2,88.57
239356,2018-06-29 10:49:31.875000,35.32,88.57
239357,2018-06-29 10:49:31.906250,6.15,88.57
239358,2018-06-29 10:49:31.937500,0.98,88.57
239359,2018-06-29 10:49:31.968750,8.57,88.57
239360,2018-06-29 10:49:32.000000,14.7,88.57
239361,2018-06-29 10:49:32.031250,16.33,88.57
239362,2018-06-29 10:49:32.062500,21.76,88.57
239363,2018-06-29 10:49:32.093750,38.89,88.57
239364,2018-06-29 10:49:32.125000,58.39,88.57
239365,2018-06-29 10:49:32.156250,64.91,88.57
239366,2018-06-29 10:49:32.187500,29.57,88.57
239367,2018-06-29 10:49:32.218750,-32.17,88.57
239368,2018-06-29 10:49:32.250000,-57.88,88.57
239369,2018-06-29 10:49:32.281250,-35.09,88.57
239370,2018-06-29 10:49:32.312500,19.39,88.57
239371,2018-06-29 10:49:32.343750,80.85,88.57
239372,2018-06-29 10:49:32.375000,124.53,88.57
239373,2018-06-29 10:49:32.406250,104.99,88.57
239374,2018-06-29 10:49:32.437500,35.99,88.57
239375,2018-06-29 10:49:32.468750,-33.08,88.57
239376,2018-06-29 10:49:32.500000,-84.91,88.57
239377,2018-06-29 10:49:32.531250,-114.55,88.37
239378,2018-06-29 10:49:32.562500,-121.06,88.37
239379,2018-06-29 10:49:32.593750,-107.36,88.37
239380,2018-06-29 10:49:32.625000,-81.16,88.37
239381,2018-06-29 10:49:32.656250,-53.28,88.37
239382,2018-06-29 10:49:32.687500,-35.45,88.37
239383,2018-06-29 10:49:32.718750,-24.21,88.37
239384,2018-06-29 10:49:32.750000,-14.07,88.37
