,Time,ppg,hr
240000,2018-06-29 10:49:52.000000,-152.04,88.05
240001,2018-06-29 10:49:52.031250,-113.58,88.05
240002,2018-06-29 10:49:52.062500,-83.2,88.05
240003,2018-06-29 10:49:52.093750,-62.51,88.05
240004,2018-06-29 10:49:52.125000,-37.98,88.05
240005,2018-06-29 10:49:52.156250,-5.58,88.05
240006,2018-06-29 10:49:52.187500,21.84,88.05
240007,2018-06-29 10:49:52.218750,26.21,88.05
240008,2018-06-29 10:49:52.250000,7.3,88.05
240009,2018-06-29 10:49:52.281250,-15.95,88.05
240010,2018-06-29 10:49:52.312500,-24.0,88.05
240011,2018-06-29 10:49:52.343750,-14.14,88.05
240012,2018-06-29 10:49:52.375000,5.55,88.05
240013,2018-06-29 10:49:52.406250,27.87,88.05
240014,2018-06-29 10:49:52.437500,51.44,88.05
240015,2018-06-29 10:49:52.468750,69.99,88.05
240016,2018-06-29 10:49:52.500000,78.27,88.05
240017,2018-06-29 10:49:52.531250,75.88,88.15
240018,2018-06-29 10:49:52.562500,73.52,88.15
240019,2018-06-29 10:49:52.593750,83.6,88.15
240020,2018-06-29 10:49:52.625000,100.05,88.15
240021,2018-06-29 10:49:52.656250,102.86,88.15
240022,2018-06-29 10:49:52.687500,58.22,88.15
240023,2018-06-29 10:49:52.718750,-16.71,88.15
240024,2018-06-29 10:49:52.750000,-60.19,88.15
240025,2018-06-29 10:49:52.781250,-52.6,88.15
240026,2018-06-29 10:49:52.812500,4.24,88.15
240027,2018-06-29 10:49:52.843750,70.88,88.15
240028,2018-06-29 10:49:52.875000,90.97,88.15
240029,2018-06-29 10:49:52.906250,41.07,88.15
240030,2018-06-29 10:49:52.937500,-47.29,88.15
240031,2018-06-29 10:49:52.968750,-127.41,88.15
240032,2018-06-29 10:49:53.000000,-164.63,88.15
240033,2018-06-29 10:49:53.031250,-156.42,88.15
240034,2018-06-29 10:49:53.062500,-121.71,88.15
240035,2018-06-29 10:49:53.093750,-82.44,88.15
240036,2018-06-29 10:49:53.125000,-45.42,88.15
240037,2018-06-29 10:49:53.156250,-10.2,88.15
240038,2018-06-29 10:49:53.187500,12.58,88.15
240039,2018-06-29 10:49:53.218750,12.69,88.15
240040,2018-06-29 10:49:53.250000,-1.07,88.15
240041,2018-06-29 10:49:53.281250,-5.19,88.15
240042,2018-06-29 10:49:53.312500,4.5,88.15
240043,2018-06-29 10:49:53.343750,10.13,88.15
240044,2018-06-29 10:49:53.375000,3.67,88.15
240045,2018-06-29 10:49:53.406250,-2.14,88.15
240046,2018-06-29 10:49:53.437500,0.6,88.15
240047,2018-06-29 10:49:53.468750,4.02,88.15
240048,2018-06-29 10:49:53.500000,3.16,88.15
240049,2018-06-29 10:49:53.531250,0.3,88.23
240050,2018-06-29 10:49:53.562500,-7.04,88.23
240051,2018-06-29 10:49:53.593750,-22.61,88.23
240052,2018-06-29 10:49:53.625000,-36.81,88.23
240053,2018-06-29 10:49:53.656250,-31.38,88.23
240054,2018-06-29 10:49:53.687500,-0.99,88.23
240055,2018-06-29 10:49:53.718750,40.48,88.23
240056,2018-06-29 10:49:53.750000,79.0,88.23
240057,2018-06-29 10:49:53.781250,110.81,88.23
240058,2018-06-29 10:49:53.812500,130.8,88.23
240059,2018-06-29 10:49:53.843750,128.05,88.23
240060,2018-06-29 10:49:53.875000,99.43,88.23
240061,2018-06-29 10:49:53.906250,58.66,88.23
240062,2018-06-29 10:49:53.937500,31.43,88.23
240063,2018-06-29 10:49:53.968750,39.23,88.23
240064,2018-06-29 10:49:54.000000,76.88,88.23
240065,2018-06-29 10:49:54.031250,110.76,88.23
240066,2018-06-29 10:49:54.062500,109.91,88.23
240067,2018-06-29 10:49:54.093750,71.79,88.23
240068,2018-06-29 10:49:54.125000,16.07,88.23
240069,2018-06-29 10:49:54.156250,-33.87,88.23
240070,2018-06-29 10:49:54.187500,-64.0,88.23
240071,2018-06-29 10:49:54.218750,-77.28,88.23
240072,2018-06-29 10:49:54.250000,-90.01,88.23
240073,2018-06-29 10:49:54.281250,-114.42,88.23
240074,2018-06-29 10:49:54.312500,-145.01,88.23
240075,2018-06-29 10:49:54.343750,-163.09,88.23
240076,2018-06-29 10:49:54.375000,-153.21,88.23
240077,2018-06-29 10:49:54.406250,-112.94,88.23
240078,2018-06-29 10:49:54.437500,-52.64,88.23
240079,2018-06-29 10:49:54.468750,8.44,88.23
240080,2018-06-29 10:49:54.500000,49.84,88.23
240081,2018-06-29 10:49:54.531250,61.86,88.28
240082,2018-06-29 10:49:54.562500,50.52,88.28
240083,2018-06-29 10:49:54.593750,29.86,88.28
240084,2018-06-29 10:49:54.625000,12.01,88.28
240085,2018-06-29 10:49:54.656250,3.78,88.28
240086,2018-06-29 10:49:54.687500,6.17,88.28
240087,2018-06-29 10:49:54.718750,14.54,88.28
240088,2018-06-29 10:49:54.750000,22.52,88.28
240089,2018-06-29 10:49:54.781250,26.44,88.28
240090,2018-06-29 10:49:54.812500,26.75,88.28
240091,2018-06-29 10:49:54.843750,28.57,88.28
240092,2018-06-29 10:49:54.875000,38.25,88.28
240093,2018-06-29 10:49:54.906250,53.34,88.28
240094,2018-06-29 10:49:54.937500,59.12,88.28
240095,2018-06-29 10:49:54.968750,43.48,88.28
240096,2018-06-29 10:49:55.000000,13.18,88.28
240097,2018-06-29 10:49:55.031250,-10.8,88.28
240098,2018-06-29 10:49:55.062500,-11.3,88.28
240099,2018-06-29 10:49:55.093750,14.2,88.28
240100,2018-06-29 10:49:55.125000,56.02,88.28
240101,2018-06-29 10:49:55.156250,97.79,88.28
240102,2018-06-29 10:49:55.187500,120.05,88.28
240103,2018-06-29 10:49:55.218750,107.81,88.28
240104,2018-06-29 10:49:55.250000,61.25,88.28
240105,2018-06-29 10:49:55.281250,-3.67,88.28
240106,2018-06-29 10:49:55.312500,-66.38,88.28
240107,2018-06-29 10:49:55.343750,-110.75,88.28
240108,2018-06-29 10:49:55.375000,-126.31,88.28
240109,2018-06-29 10:49:55.406250,-111.97,88.28
240110,2018-06-29 10:49:55.437500,-83.22,88.28
240111,2018-06-29 10:49:55.468750,-64.49,88.28
240112,2018-06-29 10:49:55.500000,-66.71,88.28
240113,2018-06-29 10:49:55.531250,-78.75,88.32
240114,2018-06-29 10:49:55.562500,-83.23,88.32
240115,2018-06-29 10:49:55.593750,-72.88,88.32
240116,2018-06-29 10:49:55.625000,-54.77,88.32
240117,2018-06-29 10:49:55.656250,-42.67,88.32
240118,2018-06-29 10:49:55.687500,-39.47,88.32
240119,2018-06-29 10:49:55.718750,-31.25,88.32
240120,2018-06-29 10:49:55.750000,-6.13,88.32
240121,2018-06-29 10:49:55.781250,25.15,88.32
240122,2018-06-29 10:49:55.812500,46.79,88.32
240123,2018-06-29 10:49:55.843750,60.21,88.32
240124,2018-06-29 10:49:55.875000,72.84,88.32
240125,2018-06-29 10:49:55.906250,77.57,88.32
240126,2018-06-29 10:49:55.937500,64.65,88.32
240127,2018-06-29 10:49:55.968750,44.27,88.32
240128,2018-06-29 10:49:56.000000,34.38,88.32
240129,2018-06-29 10:49:56.031250,42.11,88.32
240130,2018-06-29 10:49:56.062500,61.5,88.32
240131,2018-06-29 10:49:56.093750,77.09,88.32
240132,2018-06-29 10:49:56.125000,61.4,88.32
240133,2018-06-29 10:49:56.156250,-4.77,88.32
240134,2018-06-29 10:49:56.187500,-63.03,88.32
240135,2018-06-29 10:49:56.218750,-72.62,88.32
240136,2018-06-29 10:49:56.250000,-54.47,88.32
240137,2018-06-29 10:49:56.281250,-12.96,88.32
240138,2018-06-29 10:49:56.312500,52.38,88.32
240139,2018-06-29 10:49:56.343750,100.63,88.32
240140,2018-06-29 10:49:56.375000,95.46,88.32
240141,2018-06-29 10:49:56.406250,36.66,88.32
240142,2018-06-29 10:49:56.437500,-17.02,88.32
240143,2018-06-29 10:49:56.468750,-44.3,88.32
240144,2018-06-29 10:49:56.500000,-71.63,88.32
240145,2018-06-29 10:49:56.531250,-97.56,88.25
240146,2018-06-29 10:49:56.562500,-103.04,88.25
240147,2018-06-29 10:49:56.593750,-88.89,88.25
240148,2018-06-29 10:49:56.625000,-72.04,88.25
240149,2018-06-29 10:49:56.656250,-55.6,88.25
240150,2018-06-29 10:49:56.687500,-34.28,88.25
240151,2018-06-29 10:49:56.718750,-6.56,88.25
240152,2018-06-29 10:49:56.750000,20.15,88.25
240153,2018-06-29 10:49:56.781250,33.12,88.25
240154,2018-06-29 10:49:56.812500,13.47,88.25
240155,2018-06-29 10:49:56.843750,-17.97,88.25
240156,2018-06-29 10:49:56.875000,-15.28,88.25
240157,2018-06-29 10:49:56.906250,19.9,88.25
240158,2018-06-29 10:49:56.937500,66.25,88.25
240159,2018-06-29 10:49:56.968750,104.32,88.25
240160,2018-06-29 10:49:57.000000,113.15,88.25
240161,2018-06-29 10:49:57.031250,74.79,88.25
240162,2018-06-29 10:49:57.062500,8.19,88.25
240163,2018-06-29 10:49:57.093750,-47.12,88.25
240164,2018-06-29 10:49:57.125000,-69.8,88.25
240165,2018-06-29 10:49:57.156250,-65.05,88.25
240166,2018-06-29 10:49:57.187500,-42.32,88.25
240167,2018-06-29 10:49:57.218750,-11.63,88.25
240168,2018-06-29 10:49:57.250000,12.43,88.25
240169,2018-06-29 10:49:57.281250,28.01,88.25
240170,2018-06-29 10:49:57.312500,41.73,88.25
240171,2018-06-29 10:49:57.343750,51.86,88.25
240172,2018-06-29 10:49:57.375000,40.18,88.25
240173,2018-06-29 10:49:57.406250,0.76,88.25
240174,2018-06-29 10:49:57.437500,-45.26,88.25
240175,2018-06-29 10:49:57.468750,-65.0,88.25
240176,2018-06-29 10:49:57.500000,-37.51,88.25
240177,2018-06-29 10:49:57.531250,19.71,88.23
240178,2018-06-29 10:49:57.562500,63.81,88.23
240179,2018-06-29 10:49:57.593750,47.27,88.23
240180,2018-06-29 10:49:57.625000,-27.55,88.23
240181,2018-06-29 10:49:57.656250,-105.39,88.23
240182,2018-06-29 10:49:57.687500,-168.72,88.23
240183,2018-06-29 10:49:57.718750,-194.2,88.23
240184,2018-06-29 10:49:57.750000,-160.54,88.23
240185,2018-06-29 10:49:57.781250,-84.12,88.23
240186,2018-06-29 10:49:57.812500,-7.94,88.23
240187,2018-06-29 10:49:57.843750,41.11,88.23
240188,2018-06-29 10:49:57.875000,61.0,88.23
240189,2018-06-29 10:49:57.906250,70.09,88.23
240190,2018-06-29 10:49:57.937500,85.59,88.23
240191,2018-06-29 10:49:57.968750,111.06,88.23
240192,2018-06-29 10:49:58.000000,134.09,88.23
240193,2018-06-29 10:49:58.031250,135.87,88.23
240194,2018-06-29 10:49:58.062500,109.09,88.23
240195,2018-06-29 10:49:58.093750,62.36,88.23
240196,2018-06-29 10:49:58.125000,14.58,88.23
240197,2018-06-29 10:49:58.156250,-23.04,88.23
240198,2018-06-29 10:49:58.187500,-43.95,88.23
240199,2018-06-29 10:49:58.218750,-47.68,88.23
240200,2018-06-29 10:49:58.250000,-38.87,88.23
240201,2018-06-29 10:49:58.281250,-30.3,88.23
240202,2018-06-29 10:49:58.312500,-29.62,88.23
240203,2018-06-29 10:49:58.343750,-25.7,88.23
240204,2018-06-29 10:49:58.375000,1.6,88.23
240205,2018-06-29 10:49:58.406250,58.84,88.23
240206,2018-06-29 10:49:58.437500,117.67,88.23
240207,2018-06-29 10:49:58.468750,142.08,88.23
240208,2018-06-29 10:49:58.500000,96.79,88.23
240209,2018-06-29 10:49:58.531250,5.5,88.22
240210,2018-06-29 10:49:58.562500,-48.51,88.22
240211,2018-06-29 10:49:58.593750,-45.38,88.22
240212,2018-06-29 10:49:58.625000,0.97,88.22
240213,2018-06-29 10:49:58.656250,68.47,88.22
240214,2018-06-29 10:49:58.687500,116.82,88.22
240215,2018-06-29 10:49:58.718750,104.0,88.22
240216,2018-06-29 10:49:58.750000,25.87,88.22
240217,2018-06-29 10:49:58.781250,-56.2,88.22
240218,2018-06-29 10:49:58.812500,-115.82,88.22
240219,2018-06-29 10:49:58.843750,-170.65,88.22
240220,2018-06-29 10:49:58.875000,-210.71,88.22
240221,2018-06-29 10:49:58.906250,-216.08,88.22
240222,2018-06-29 10:49:58.937500,-191.1,88.22
240223,2018-06-29 10:49:58.968750,-156.31,88.22
240224,2018-06-29 10:49:59.000000,-121.93,88.22
240225,2018-06-29 10:49:59.031250,-74.76,88.22
240226,2018-06-29 10:49:59.062500,-0.82,88.22
240227,2018-06-29 10:49:59.093750,90.48,88.22
240228,2018-06-29 10:49:59.125000,172.38,88.22
240229,2018-06-29 10:49:59.156250,211.92,88.22
240230,2018-06-29 10:49:59.187500,192.99,88.22
240231,2018-06-29 10:49:59.218750,129.38,88.22
240232,2018-06-29 10:49:59.250000,56.11,88.22
240233,2018-06-29 10:49:59.281250,0.07,88.22
240234,2018-06-29 10:49:59.312500,-31.7,88.22
240235,2018-06-29 10:49:59.343750,-40.72,88.22
240236,2018-06-29 10:49:59.375000,-35.4,88.22
240237,2018-06-29 10:49:59.406250,-24.41,88.22
240238,2018-06-29 10:49:59.437500,-12.82,88.22
240239,2018-06-29 10:49:59.468750,1.42,88.22
240240,2018-06-29 10:49:59.500000,18.47,88.22
240241,2018-06-29 10:49:59.531250,32.67,88.2
240242,2018-06-29 10:49:59.562500,39.31,88.2
240243,2018-06-29 10:49:59.593750,35.84,88.2
240244,2018-06-29 10:49:59.625000,23.54,88.2
240245,2018-06-29 10:49:59.656250,-6.39,88.2
240246,2018-06-29 10:49:59.687500,-42.09,88.2
240247,2018-06-29 10:49:59.718750,-51.23,88.2
240248,2018-06-29 10:49:59.750000,-20.2,88.2
240249,2018-06-29 10:49:59.781250,45.9,88.2
240250,2018-06-29 10:49:59.812500,117.89,88.2
240251,2018-06-29 10:49:59.843750,155.46,88.2
240252,2018-06-29 10:49:59.875000,114.86,88.2
240253,2018-06-29 10:49:59.906250,13.48,88.2
240254,2018-06-29 10:49:59.937500,-75.73,88.2
240255,2018-06-29 10:49:59.968750,-126.74,88.2
240256,2018-06-29 10:50:00.000000,-153.89,88.2
240257,2018-06-29 10:50:00.031250,-161.77,88.2
240258,2018-06-29 10:50:00.062500,-148.54,88.2
240259,2018-06-29 10:50:00.093750,-123.77,88.2
240260,2018-06-29 10:50:00.125000,-98.44,88.2
240261,2018-06-29 10:50:00.156250,-76.68,88.2
240262,2018-06-29 10:50:00.187500,-54.41,88.2
240263,2018-06-29 10:50:00.218750,-30.8,88.2
240264,2018-06-29 10:50:00.250000,-9.81,88.2
240265,2018-06-29 10:50:00.281250,5.77,88.2
240266,2018-06-29 10:50:00.312500,19.88,88.2
240267,2018-06-29 10:50:00.343750,38.93,88.2
240268,2018-06-29 10:50:00.375000,56.98,88.2
240269,2018-06-29 10:50:00.406250,66.09,88.2
240270,2018-06-29 10:50:00.437500,65.36,88.2
240271,2018-06-29 10:50:00.468750,64.03,88.2
240272,2018-06-29 10:50:00.500000,67.7,88.2
240273,2018-06-29 10:50:00.531250,72.77,88.18
240274,2018-06-29 10:50:00.562500,74.74,88.18
240275,2018-06-29 10:50:00.593750,74.99,88.18
240276,2018-06-29 10:50:00.625000,82.81,88.18
240277,2018-06-29 10:50:00.656250,100.72,88.18
240278,2018-06-29 10:50:00.687500,120.2,88.18
240279,2018-06-29 10:50:00.718750,122.92,88.18
240280,2018-06-29 10:50:00.750000,100.8,88.18
240281,2018-06-29 10:50:00.781250,56.01,88.18
240282,2018-06-29 10:50:00.812500,-18.6,88.18
240283,2018-06-29 10:50:00.843750,-81.37,88.18
240284,2018-06-29 10:50:00.875000,-110.02,88.18
240285,2018-06-29 10:50:00.906250,-103.87,88.18
240286,2018-06-29 10:50:00.937500,-48.64,88.18
240287,2018-06-29 10:50:00.968750,44.71,88.18
240288,2018-06-29 10:50:01.000000,121.63,88.18
240289,2018-06-29 10:50:01.031250,112.91,88.18
240290,2018-06-29 10:50:01.062500,21.21,88.18
240291,2018-06-29 10:50:01.093750,-65.25,88.18
240292,2018-06-29 10:50:01.125000,-110.88,88.18
240293,2018-06-29 10:50:01.156250,-140.13,88.18
240294,2018-06-29 10:50:01.187500,-149.15,88.18
240295,2018-06-29 10:50:01.218750,-130.72,88.18
240296,2018-06-29 10:50:01.250000,-97.66,88.18
240297,2018-06-29 10:50:01.281250,-70.99,88.18
240298,2018-06-29 10:50:01.312500,-55.25,88.18
240299,2018-06-29 10:50:01.343750,-36.65,88.18
240300,2018-06-29 10:50:01.375000,-3.3,88.18
240301,2018-06-29 10:50:01.406250,43.68,88.18
240302,2018-06-29 10:50:01.437500,88.53,88.18
240303,2018-06-29 10:50:01.468750,105.01,88.18
240304,2018-06-29 10:50:01.500000,76.8,88.18
240305,2018-06-29 10:50:01.531250,12.34,88.17
240306,2018-06-29 10:50:01.562500,-61.31,88.17
240307,2018-06-29 10:50:01.593750,-113.08,88.17
240308,2018-06-29 10:50:01.625000,-121.49,88.17
240309,2018-06-29 10:50:01.656250,-85.56,88.17
240310,2018-06-29 10:50:01.687500,-29.96,88.17
240311,2018-06-29 10:50:01.718750,21.18,88.17
240312,2018-06-29 10:50:01.750000,58.25,88.17
240313,2018-06-29 10:50:01.781250,85.01,88.17
240314,2018-06-29 10:50:01.812500,104.47,88.17
240315,2018-06-29 10:50:01.843750,117.76,88.17
240316,2018-06-29 10:50:01.875000,128.1,88.17
240317,2018-06-29 10:50:01.906250,130.0,88.17
240318,2018-06-29 10:50:01.937500,114.46,88.17
240319,2018-06-29 10:50:01.968750,55.65,88.17
240320,2018-06-29 10:50:02.000000,-29.96,88.17
240321,2018-06-29 10:50:02.031250,-80.9,88.17
240322,2018-06-29 10:50:02.062500,-76.87,88.17
240323,2018-06-29 10:50:02.093750,-29.55,88.17
240324,2018-06-29 10:50:02.125000,32.55,88.17
240325,2018-06-29 10:50:02.156250,66.89,88.17
240326,2018-06-29 10:50:02.187500,27.02,88.17
240327,2018-06-29 10:50:02.218750,-68.69,88.17
240328,2018-06-29 10:50:02.250000,-146.64,88.17
240329,2018-06-29 10:50:02.281250,-178.89,88.17
240330,2018-06-29 10:50:02.312500,-172.97,88.17
240331,2018-06-29 10:50:02.343750,-134.78,88.17
240332,2018-06-29 10:50:02.375000,-79.38,88.17
240333,2018-06-29 10:50:02.406250,-27.88,88.17
240334,2018-06-29 10:50:02.437500,11.58,88.17
240335,2018-06-29 10:50:02.468750,36.38,88.17
240336,2018-06-29 10:50:02.500000,53.6,88.17
240337,2018-06-29 10:50:02.531250,71.28,88.15
240338,2018-06-29 10:50:02.562500,86.87,88.15
240339,2018-06-29 10:50:02.593750,87.07,88.15
240340,2018-06-29 10:50:02.625000,69.11,88.15
240341,2018-06-29 10:50:02.656250,47.76,88.15
240342,2018-06-29 10:50:02.687500,34.02,88.15
240343,2018-06-29 10:50:02.718750,28.16,88.15
240344,2018-06-29 10:50:02.750000,24.7,88.15
240345,2018-06-29 10:50:02.781250,22.07,88.15
240346,2018-06-29 10:50:02.812500,18.06,88.15
240347,2018-06-29 10:50:02.843750,9.4,88.15
240348,2018-06-29 10:50:02.875000,-2.66,88.15
240349,2018-06-29 10:50:02.906250,-15.22,88.15
240350,2018-06-29 10:50:02.937500,-19.38,88.15
240351,2018-06-29 10:50:02.968750,-3.0,88.15
240352,2018-06-29 10:50:03.000000,39.81,88.15
240353,2018-06-29 10:50:03.031250,90.4,88.15
240354,2018-06-29 10:50:03.062500,119.84,88.15
240355,2018-06-29 10:50:03.093750,109.36,88.15
240356,2018-06-29 10:50:03.125000,38.0,88.15
240357,2018-06-29 10:50:03.156250,-44.83,88.15
240358,2018-06-29 10:50:03.187500,-86.92,88.15
240359,2018-06-29 10:50:03.218750,-76.6,88.15
240360,2018-06-29 10:50:03.250000,-20.97,88.15
240361,2018-06-29 10:50:03.281250,48.09,88.15
240362,2018-06-29 10:50:03.312500,84.65,88.15
240363,2018-06-29 10:50:03.343750,48.02,88.15
240364,2018-06-29 10:50:03.375000,-39.85,88.15
240365,2018-06-29 10:50:03.406250,-112.42,88.15
240366,2018-06-29 10:50:03.437500,-153.69,88.15
240367,2018-06-29 10:50:03.468750,-175.59,88.15
240368,2018-06-29 10:50:03.500000,-175.52,88.15
240369,2018-06-29 10:50:03.531250,-154.09,88.15
240370,2018-06-29 10:50:03.562500,-130.15,88.15
240371,2018-06-29 10:50:03.593750,-117.86,88.15
240372,2018-06-29 10:50:03.625000,-103.25,88.15
240373,2018-06-29 10:50:03.656250,-58.93,88.15
240374,2018-06-29 10:50:03.687500,13.98,88.15
240375,2018-06-29 10:50:03.718750,83.71,88.15
240376,2018-06-29 10:50:03.750000,122.51,88.15
240377,2018-06-29 10:50:03.781250,129.08,88.15
240378,2018-06-29 10:50:03.812500,116.53,88.15
240379,2018-06-29 10:50:03.843750,96.11,88.15
240380,2018-06-29 10:50:03.875000,78.78,88.15
240381,2018-06-29 10:50:03.906250,73.02,88.15
240382,2018-06-29 10:50:03.937500,75.29,88.15
240383,2018-06-29 10:50:03.968750,71.92,88.15
240384,2018-06-29 10:50:04.000000,59.96,88.15
240385,2018-06-29 10:50:04.031250,53.67,88.15
240386,2018-06-29 10:50:04.062500,66.06,88.15
240387,2018-06-29 10:50:04.093750,85.07,88.15
240388,2018-06-29 10:50:04.125000,87.97,88.15
240389,2018-06-29 10:50:04.156250,67.41,88.15
240390,2018-06-29 10:50:04.187500,37.34,88.15
240391,2018-06-29 10:50:04.218750,6.27,88.15
240392,2018-06-29 10:50:04.250000,-44.26,88.15
240393,2018-06-29 10:50:04.281250,-95.35,88.15
240394,2018-06-29 10:50:04.312500,-113.88,88.15
240395,2018-06-29 10:50:04.343750,-79.67,88.15
240396,2018-06-29 10:50:04.375000,2.13,88.15
240397,2018-06-29 10:50:04.406250,95.35,88.15
240398,2018-06-29 10:50:04.437500,142.95,88.15
240399,2018-06-29 10:50:04.468750,87.4,88.15
240400,2018-06-29 10:50:04.500000,-26.0,88.15
240401,2018-06-29 10:50:04.531250,-113.28,88.15
240402,2018-06-29 10:50:04.562500,-165.65,88.15
240403,2018-06-29 10:50:04.593750,-190.8,88.15
240404,2018-06-29 10:50:04.625000,-180.4,88.15
240405,2018-06-29 10:50:04.656250,-145.96,88.15
240406,2018-06-29 10:50:04.687500,-107.7,88.15
240407,2018-06-29 10:50:04.718750,-69.8,88.15
240408,2018-06-29 10:50:04.750000,-26.68,88.15
240409,2018-06-29 10:50:04.781250,17.5,88.15
240410,2018-06-29 10:50:04.812500,45.71,88.15
240411,2018-06-29 10:50:04.843750,54.26,88.15
240412,2018-06-29 10:50:04.875000,53.6,88.15
240413,2018-06-29 10:50:04.906250,53.38,88.15
240414,2018-06-29 10:50:04.937500,50.55,88.15
240415,2018-06-29 10:50:04.968750,39.86,88.15
240416,2018-06-29 10:50:05.000000,25.09,88.15
240417,2018-06-29 10:50:05.031250,15.95,88.15
240418,2018-06-29 10:50:05.062500,22.66,88.15
240419,2018-06-29 10:50:05.093750,42.61,88.15
240420,2018-06-29 10:50:05.125000,65.32,88.15
240421,2018-06-29 10:50:05.156250,80.66,88.15
240422,2018-06-29 10:50:05.187500,92.25,88.15
240423,2018-06-29 10:50:05.218750,106.76,88.15
240424,2018-06-29 10:50:05.250000,124.19,88.15
240425,2018-06-29 10:50:05.281250,137.05,88.15
240426,2018-06-29 10:50:05.312500,131.79,88.15
240427,2018-06-29 10:50:05.343750,101.29,88.15
240428,2018-06-29 10:50:05.375000,32.94,88.15
240429,2018-06-29 10:50:05.406250,-43.01,88.15
240430,2018-06-29 10:50:05.437500,-76.79,88.15
240431,2018-06-29 10:50:05.468750,-71.63,88.15
240432,2018-06-29 10:50:05.500000,-37.47,88.15
240433,2018-06-29 10:50:05.531250,8.38,88.15
240434,2018-06-29 10:50:05.562500,32.34,88.15
240435,2018-06-29 10:50:05.593750,7.73,88.15
240436,2018-06-29 10:50:05.625000,-58.71,88.15
240437,2018-06-29 10:50:05.656250,-141.43,88.15
240438,2018-06-29 10:50:05.687500,-209.72,88.15
240439,2018-06-29 10:50:05.718750,-241.31,88.15
240440,2018-06-29 10:50:05.750000,-225.8,88.15
240441,2018-06-29 10:50:05.781250,-173.3,88.15
240442,2018-06-29 10:50:05.812500,-105.77,88.15
240443,2018-06-29 10:50:05.843750,-38.36,88.15
240444,2018-06-29 10:50:05.875000,21.34,88.15
240445,2018-06-29 10:50:05.906250,63.58,88.15
240446,2018-06-29 10:50:05.937500,76.05,88.15
240447,2018-06-29 10:50:05.968750,65.07,88.15
240448,2018-06-29 10:50:06.000000,56.97,88.15
240449,2018-06-29 10:50:06.031250,69.51,88.15
240450,2018-06-29 10:50:06.062500,89.57,88.15
240451,2018-06-29 10:50:06.093750,95.46,88.15
240452,2018-06-29 10:50:06.125000,83.59,88.15
240453,2018-06-29 10:50:06.156250,62.3,88.15
240454,2018-06-29 10:50:06.187500,36.56,88.15
240455,2018-06-29 10:50:06.218750,12.02,88.15
240456,2018-06-29 10:50:06.250000,-4.2,88.15
240457,2018-06-29 10:50:06.281250,-12.67,88.15
240458,2018-06-29 10:50:06.312500,-19.5,88.15
240459,2018-06-29 10:50:06.343750,-27.58,88.15
240460,2018-06-29 10:50:06.375000,-25.14,88.15
240461,2018-06-29 10:50:06.406250,1.66,88.15
240462,2018-06-29 10:50:06.437500,48.86,88.15
240463,2018-06-29 10:50:06.468750,88.13,88.15
240464,2018-06-29 10:50:06.500000,95.82,88.15
240465,2018-06-29 10:50:06.531250,74.51,88.15
240466,2018-06-29 10:50:06.562500,33.53,88.15
240467,2018-06-29 10:50:06.593750,-1.9,88.15
240468,2018-06-29 10:50:06.625000,-14.27,88.15
240469,2018-06-29 10:50:06.656250,0.5,88.15
240470,2018-06-29 10:50:06.687500,35.28,88.15
240471,2018-06-29 10:50:06.718750,64.66,88.15
240472,2018-06-29 10:50:06.750000,60.52,88.15
240473,2018-06-29 10:50:06.781250,14.86,88.15
240474,2018-06-29 10:50:06.812500,-56.98,88.15
240475,2018-06-29 10:50:06.843750,-131.12,88.15
240476,2018-06-29 10:50:06.875000,-187.24,88.15
240477,2018-06-29 10:50:06.906250,-215.14,88.15
240478,2018-06-29 10:50:06.937500,-211.83,88.15
240479,2018-06-29 10:50:06.968750,-186.5,88.15
240480,2018-06-29 10:50:07.000000,-152.5,88.15
240481,2018-06-29 10:50:07.031250,-115.16,88.15
240482,2018-06-29 10:50:07.062500,-69.9,88.15
240483,2018-06-29 10:50:07.093750,-14.31,88.15
240484,2018-06-29 10:50:07.125000,43.76,88.15
240485,2018-06-29 10:50:07.156250,89.21,88.15
240486,2018-06-29 10:50:07.187500,108.34,88.15
240487,2018-06-29 10:50:07.218750,99.68,88.15
240488,2018-06-29 10:50:07.250000,73.69,88.15
240489,2018-06-29 10:50:07.281250,45.4,88.15
240490,2018-06-29 10:50:07.312500,25.59,88.15
240491,2018-06-29 10:50:07.343750,19.66,88.15
240492,2018-06-29 10:50:07.375000,23.4,88.15
240493,2018-06-29 10:50:07.406250,29.16,88.15
240494,2018-06-29 10:50:07.437500,33.08,88.15
240495,2018-06-29 10:50:07.468750,39.44,88.15
240496,2018-06-29 10:50:07.500000,51.91,88.15
240497,2018-06-29 10:50:07.531250,64.8,88.18
240498,2018-06-29 10:50:07.562500,71.55,88.18
240499,2018-06-29 10:50:07.593750,71.75,88.18
240500,2018-06-29 10:50:07.625000,74.57,88.18
240501,2018-06-29 10:50:07.656250,82.89,88.18
240502,2018-06-29 10:50:07.687500,91.19,88.18
240503,2018-06-29 10:50:07.718750,82.76,88.18
240504,2018-06-29 10:50:07.750000,37.62,88.18
240505,2018-06-29 10:50:07.781250,-0.62,88.18
240506,2018-06-29 10:50:07.812500,0.82,88.18
240507,2018-06-29 10:50:07.843750,39.36,88.18
240508,2018-06-29 10:50:07.875000,85.72,88.18
240509,2018-06-29 10:50:07.906250,100.52,88.18
240510,2018-06-29 10:50:07.937500,55.69,88.18
240511,2018-06-29 10:50:07.968750,-26.58,88.18
240512,2018-06-29 10:50:08.000000,-114.19,88.18
240513,2018-06-29 10:50:08.031250,-178.99,88.18
240514,2018-06-29 10:50:08.062500,-208.26,88.18
240515,2018-06-29 10:50:08.093750,-205.29,88.18
240516,2018-06-29 10:50:08.125000,-180.89,88.18
240517,2018-06-29 10:50:08.156250,-147.41,88.18
240518,2018-06-29 10:50:08.187500,-116.38,88.18
240519,2018-06-29 10:50:08.218750,-98.66,88.18
240520,2018-06-29 10:50:08.250000,-92.72,88.18
240521,2018-06-29 10:50:08.281250,-79.39,88.18
240522,2018-06-29 10:50:08.312500,-38.52,88.18
240523,2018-06-29 10:50:08.343750,24.64,88.18
240524,2018-06-29 10:50:08.375000,79.07,88.18
240525,2018-06-29 10:50:08.406250,99.65,88.18
240526,2018-06-29 10:50:08.437500,89.54,88.18
240527,2018-06-29 10:50:08.468750,68.54,88.18
240528,2018-06-29 10:50:08.500000,52.91,88.18
240529,2018-06-29 10:50:08.531250,49.01,88.18
240530,2018-06-29 10:50:08.562500,52.34,88.18
240531,2018-06-29 10:50:08.593750,51.73,88.18
240532,2018-06-29 10:50:08.625000,45.16,88.18
240533,2018-06-29 10:50:08.656250,45.04,88.18
240534,2018-06-29 10:50:08.687500,58.55,88.18
240535,2018-06-29 10:50:08.718750,76.21,88.18
240536,2018-06-29 10:50:08.750000,85.28,88.18
240537,2018-06-29 10:50:08.781250,82.69,88.18
240538,2018-06-29 10:50:08.812500,72.61,88.18
240539,2018-06-29 10:50:08.843750,58.23,88.18
240540,2018-06-29 10:50:08.875000,33.69,88.18
240541,2018-06-29 10:50:08.906250,-11.58,88.18
240542,2018-06-29 10:50:08.937500,-68.11,88.18
240543,2018-06-29 10:50:08.968750,-94.98,88.18
240544,2018-06-29 10:50:09.000000,-57.45,88.18
240545,2018-06-29 10:50:09.031250,24.68,88.18
240546,2018-06-29 10:50:09.062500,90.37,88.18
240547,2018-06-29 10:50:09.093750,98.86,88.18
240548,2018-06-29 10:50:09.125000,56.66,88.18
240549,2018-06-29 10:50:09.156250,-9.77,88.18
240550,2018-06-29 10:50:09.187500,-76.23,88.18
240551,2018-06-29 10:50:09.218750,-120.58,88.18
240552,2018-06-29 10:50:09.250000,-130.84,88.18
240553,2018-06-29 10:50:09.281250,-114.89,88.18
240554,2018-06-29 10:50:09.312500,-89.25,88.18
240555,2018-06-29 10:50:09.343750,-64.21,88.18
240556,2018-06-29 10:50:09.375000,-43.39,88.18
240557,2018-06-29 10:50:09.406250,-25.99,88.18
240558,2018-06-29 10:50:09.437500,-8.6,88.18
240559,2018-06-29 10:50:09.468750,8.9,88.18
240560,2018-06-29 10:50:09.500000,18.98,88.18
240561,2018-06-29 10:50:09.531250,16.14,88.2
240562,2018-06-29 10:50:09.562500,3.12,88.2
240563,2018-06-29 10:50:09.593750,-13.68,88.2
240564,2018-06-29 10:50:09.625000,-28.31,88.2
240565,2018-06-29 10:50:09.656250,-37.77,88.2
240566,2018-06-29 10:50:09.687500,-35.95,88.2
240567,2018-06-29 10:50:09.718750,-19.68,88.2
240568,2018-06-29 10:50:09.750000,9.96,88.2
240569,2018-06-29 10:50:09.781250,46.04,88.2
240570,2018-06-29 10:50:09.812500,82.06,88.2
240571,2018-06-29 10:50:09.843750,110.93,88.2
240572,2018-06-29 10:50:09.875000,127.39,88.2
240573,2018-06-29 10:50:09.906250,136.0,88.2
240574,2018-06-29 10:50:09.937500,138.3,88.2
240575,2018-06-29 10:50:09.968750,131.39,88.2
240576,2018-06-29 10:50:10.000000,102.0,88.2
240577,2018-06-29 10:50:10.031250,44.06,88.2
240578,2018-06-29 10:50:10.062500,2.17,88.2
240579,2018-06-29 10:50:10.093750,-5.15,88.2
240580,2018-06-29 10:50:10.125000,24.4,88.2
240581,2018-06-29 10:50:10.156250,66.39,88.2
240582,2018-06-29 10:50:10.187500,83.68,88.2
240583,2018-06-29 10:50:10.218750,47.94,88.2
240584,2018-06-29 10:50:10.250000,-32.51,88.2
240585,2018-06-29 10:50:10.281250,-127.18,88.2
240586,2018-06-29 10:50:10.312500,-203.86,88.2
240587,2018-06-29 10:50:10.343750,-247.91,88.2
240588,2018-06-29 10:50:10.375000,-260.53,88.2
240589,2018-06-29 10:50:10.406250,-250.14,88.2
240590,2018-06-29 10:50:10.437500,-222.09,88.2
240591,2018-06-29 10:50:10.468750,-174.7,88.2
240592,2018-06-29 10:50:10.500000,-112.85,88.2
240593,2018-06-29 10:50:10.531250,-47.45,88.18
240594,2018-06-29 10:50:10.562500,13.0,88.18
240595,2018-06-29 10:50:10.593750,64.24,88.18
240596,2018-06-29 10:50:10.625000,97.34,88.18
240597,2018-06-29 10:50:10.656250,104.29,88.18
240598,2018-06-29 10:50:10.687500,90.61,88.18
240599,2018-06-29 10:50:10.718750,69.38,88.18
240600,2018-06-29 10:50:10.750000,50.7,88.18
240601,2018-06-29 10:50:10.781250,39.75,88.18
240602,2018-06-29 10:50:10.812500,38.14,88.18
240603,2018-06-29 10:50:10.843750,44.63,88.18
240604,2018-06-29 10:50:10.875000,52.82,88.18
240605,2018-06-29 10:50:10.906250,59.29,88.18
240606,2018-06-29 10:50:10.937500,64.21,88.18
240607,2018-06-29 10:50:10.968750,70.69,88.18
240608,2018-06-29 10:50:11.000000,78.95,88.18
240609,2018-06-29 10:50:11.031250,85.59,88.18
240610,2018-06-29 10:50:11.062500,87.74,88.18
240611,2018-06-29 10:50:11.093750,80.83,88.18
240612,2018-06-29 10:50:11.125000,63.23,88.18
240613,2018-06-29 10:50:11.156250,16.58,88.18
240614,2018-06-29 10:50:11.187500,-49.91,88.18
240615,2018-06-29 10:50:11.218750,-83.77,88.18
240616,2018-06-29 10:50:11.250000,-58.03,88.18
240617,2018-06-29 10:50:11.281250,16.93,88.18
240618,2018-06-29 10:50:11.312500,103.52,88.18
240619,2018-06-29 10:50:11.343750,156.5,88.18
240620,2018-06-29 10:50:11.375000,127.65,88.18
240621,2018-06-29 10:50:11.406250,31.21,88.18
240622,2018-06-29 10:50:11.437500,-58.22,88.18
240623,2018-06-29 10:50:11.468750,-116.63,88.18
240624,2018-06-29 10:50:11.500000,-157.64,88.18
240625,2018-06-29 10:50:11.531250,-175.82,88.18
240626,2018-06-29 10:50:11.562500,-164.01,88.18
240627,2018-06-29 10:50:11.593750,-133.77,88.18
240628,2018-06-29 10:50:11.625000,-98.3,88.18
240629,2018-06-29 10:50:11.656250,-67.64,88.18
240630,2018-06-29 10:50:11.687500,-44.62,88.18
240631,2018-06-29 10:50:11.718750,-27.51,88.18
240632,2018-06-29 10:50:11.750000,-9.78,88.18
240633,2018-06-29 10:50:11.781250,10.76,88.18
240634,2018-06-29 10:50:11.812500,25.56,88.18
240635,2018-06-29 10:50:11.843750,22.89,88.18
240636,2018-06-29 10:50:11.875000,0.04,88.18
240637,2018-06-29 10:50:11.906250,-31.18,88.18
240638,2018-06-29 10:50:11.937500,-50.36,88.18
240639,2018-06-29 10:50:11.968750,-42.98,88.18
240640,2018-06-29 10:50:12.000000,-10.44,88.18
240641,2018-06-29 10:50:12.031250,32.41,88.18
240642,2018-06-29 10:50:12.062500,70.8,88.18
240643,2018-06-29 10:50:12.093750,98.24,88.18
240644,2018-06-29 10:50:12.125000,113.44,88.18
240645,2018-06-29 10:50:12.156250,121.0,88.18
240646,2018-06-29 10:50:12.187500,126.12,88.18
240647,2018-06-29 10:50:12.218750,129.73,88.18
240648,2018-06-29 10:50:12.250000,125.07,88.18
240649,2018-06-29 10:50:12.281250,106.33,88.18
240650,2018-06-29 10:50:12.312500,68.19,88.18
240651,2018-06-29 10:50:12.343750,-3.23,88.18
240652,2018-06-29 10:50:12.375000,-67.63,88.18
240653,2018-06-29 10:50:12.406250,-93.0,88.18
240654,2018-06-29 10:50:12.437500,-80.16,88.18
240655,2018-06-29 10:50:12.468750,-30.46,88.18
240656,2018-06-29 10:50:12.500000,33.42,88.18
240657,2018-06-29 10:50:12.531250,65.34,88.15
240658,2018-06-29 10:50:12.562500,21.25,88.15
240659,2018-06-29 10:50:12.593750,-72.26,88.15
240660,2018-06-29 10:50:12.625000,-140.15,88.15
240661,2018-06-29 10:50:12.656250,-165.85,88.15
240662,2018-06-29 10:50:12.687500,-163.66,88.15
240663,2018-06-29 10:50:12.718750,-138.17,88.15
240664,2018-06-29 10:50:12.750000,-95.99,88.15
240665,2018-06-29 10:50:12.781250,-54.45,88.15
240666,2018-06-29 10:50:12.812500,-22.06,88.15
240667,2018-06-29 10:50:12.843750,5.1,88.15
240668,2018-06-29 10:50:12.875000,32.87,88.15
240669,2018-06-29 10:50:12.906250,56.02,88.15
240670,2018-06-29 10:50:12.937500,65.69,88.15
240671,2018-06-29 10:50:12.968750,59.8,88.15
240672,2018-06-29 10:50:13.000000,45.94,88.15
240673,2018-06-29 10:50:13.031250,31.66,88.15
240674,2018-06-29 10:50:13.062500,17.44,88.15
240675,2018-06-29 10:50:13.093750,4.03,88.15
240676,2018-06-29 10:50:13.125000,-3.9,88.15
240677,2018-06-29 10:50:13.156250,-3.11,88.15
240678,2018-06-29 10:50:13.187500,1.1,88.15
240679,2018-06-29 10:50:13.218750,5.17,88.15
240680,2018-06-29 10:50:13.250000,8.5,88.15
240681,2018-06-29 10:50:13.281250,16.58,88.15
240682,2018-06-29 10:50:13.312500,32.6,88.15
240683,2018-06-29 10:50:13.343750,61.99,88.15
240684,2018-06-29 10:50:13.375000,105.36,88.15
240685,2018-06-29 10:50:13.406250,155.57,88.15
240686,2018-06-29 10:50:13.437500,196.83,88.15
240687,2018-06-29 10:50:13.468750,206.57,88.15
240688,2018-06-29 10:50:13.500000,178.21,88.15
240689,2018-06-29 10:50:13.531250,95.79,88.12
240690,2018-06-29 10:50:13.562500,-7.15,88.12
240691,2018-06-29 10:50:13.593750,-58.32,88.12
240692,2018-06-29 10:50:13.625000,-58.13,88.12
240693,2018-06-29 10:50:13.656250,-24.54,88.12
240694,2018-06-29 10:50:13.687500,15.28,88.12
240695,2018-06-29 10:50:13.718750,21.44,88.12
240696,2018-06-29 10:50:13.750000,-28.92,88.12
240697,2018-06-29 10:50:13.781250,-109.52,88.12
240698,2018-06-29 10:50:13.812500,-191.24,88.12
240699,2018-06-29 10:50:13.843750,-247.49,88.12
240700,2018-06-29 10:50:13.875000,-266.5,88.12
240701,2018-06-29 10:50:13.906250,-251.19,88.12
240702,2018-06-29 10:50:13.937500,-217.54,88.12
240703,2018-06-29 10:50:13.968750,-177.9,88.12
240704,2018-06-29 10:50:14.000000,-131.22,88.12
240705,2018-06-29 10:50:14.031250,-70.21,88.12
240706,2018-06-29 10:50:14.062500,6.14,88.12
240707,2018-06-29 10:50:14.093750,77.36,88.12
240708,2018-06-29 10:50:14.125000,116.3,88.12
240709,2018-06-29 10:50:14.156250,113.59,88.12
240710,2018-06-29 10:50:14.187500,86.94,88.12
240711,2018-06-29 10:50:14.218750,59.67,88.12
240712,2018-06-29 10:50:14.250000,45.58,88.12
240713,2018-06-29 10:50:14.281250,45.99,88.12
240714,2018-06-29 10:50:14.312500,56.96,88.12
240715,2018-06-29 10:50:14.343750,72.1,88.12
240716,2018-06-29 10:50:14.375000,83.78,88.12
240717,2018-06-29 10:50:14.406250,87.99,88.12
240718,2018-06-29 10:50:14.437500,86.42,88.12
240719,2018-06-29 10:50:14.468750,87.04,88.12
240720,2018-06-29 10:50:14.500000,91.67,88.12
240721,2018-06-29 10:50:14.531250,97.8,88.07
240722,2018-06-29 10:50:14.562500,99.33,88.07
240723,2018-06-29 10:50:14.593750,92.21,88.07
240724,2018-06-29 10:50:14.625000,68.79,88.07
240725,2018-06-29 10:50:14.656250,4.58,88.07
240726,2018-06-29 10:50:14.687500,-65.7,88.07
240727,2018-06-29 10:50:14.718750,-98.6,88.07
240728,2018-06-29 10:50:14.750000,-81.18,88.07
240729,2018-06-29 10:50:14.781250,-20.27,88.07
240730,2018-06-29 10:50:14.812500,56.49,88.07
240731,2018-06-29 10:50:14.843750,106.84,88.07
240732,2018-06-29 10:50:14.875000,80.39,88.07
240733,2018-06-29 10:50:14.906250,-14.32,88.07
240734,2018-06-29 10:50:14.937500,-102.57,88.07
240735,2018-06-29 10:50:14.968750,-148.86,88.07
240736,2018-06-29 10:50:15.000000,-171.02,88.07
240737,2018-06-29 10:50:15.031250,-171.44,88.07
240738,2018-06-29 10:50:15.062500,-153.73,88.07
240739,2018-06-29 10:50:15.093750,-128.66,88.07
240740,2018-06-29 10:50:15.125000,-105.99,88.07
240741,2018-06-29 10:50:15.156250,-82.78,88.07
240742,2018-06-29 10:50:15.187500,-52.01,88.07
240743,2018-06-29 10:50:15.218750,-19.98,88.07
240744,2018-06-29 10:50:15.250000,0.63,88.07
240745,2018-06-29 10:50:15.281250,5.63,88.07
240746,2018-06-29 10:50:15.312500,4.35,88.07
240747,2018-06-29 10:50:15.343750,11.99,88.07
240748,2018-06-29 10:50:15.375000,37.02,88.07
240749,2018-06-29 10:50:15.406250,72.1,88.07
240750,2018-06-29 10:50:15.437500,104.97,88.07
240751,2018-06-29 10:50:15.468750,126.28,88.07
240752,2018-06-29 10:50:15.500000,131.34,88.07
240753,2018-06-29 10:50:15.531250,119.39,87.98
240754,2018-06-29 10:50:15.562500,98.25,87.98
240755,2018-06-29 10:50:15.593750,81.17,87.98
240756,2018-06-29 10:50:15.625000,75.49,87.98
240757,2018-06-29 10:50:15.656250,81.57,87.98
240758,2018-06-29 10:50:15.687500,91.87,87.98
240759,2018-06-29 10:50:15.718750,98.76,87.98
240760,2018-06-29 10:50:15.750000,94.74,87.98
240761,2018-06-29 10:50:15.781250,75.91,87.98
240762,2018-06-29 10:50:15.812500,35.84,87.98
240763,2018-06-29 10:50:15.843750,-40.36,87.98
240764,2018-06-29 10:50:15.875000,-107.64,87.98
240765,2018-06-29 10:50:15.906250,-129.39,87.98
240766,2018-06-29 10:50:15.937500,-108.43,87.98
240767,2018-06-29 10:50:15.968750,-54.11,87.98
240768,2018-06-29 10:50:16.000000,8.95,87.98
240769,2018-06-29 10:50:16.031250,41.62,87.98
240770,2018-06-29 10:50:16.062500,12.61,87.98
240771,2018-06-29 10:50:16.093750,-48.18,87.98
240772,2018-06-29 10:50:16.125000,-86.84,87.98
240773,2018-06-29 10:50:16.156250,-105.55,87.98
240774,2018-06-29 10:50:16.187500,-120.8,87.98
240775,2018-06-29 10:50:16.218750,-124.79,87.98
240776,2018-06-29 10:50:16.250000,-109.8,87.98
240777,2018-06-29 10:50:16.281250,-83.53,87.98
240778,2018-06-29 10:50:16.312500,-56.16,87.98
240779,2018-06-29 10:50:16.343750,-31.06,87.98
240780,2018-06-29 10:50:16.375000,-7.89,87.98
240781,2018-06-29 10:50:16.406250,10.31,87.98
240782,2018-06-29 10:50:16.437500,23.4,87.98
240783,2018-06-29 10:50:16.468750,33.35,87.98
240784,2018-06-29 10:50:16.500000,38.39,87.98
240785,2018-06-29 10:50:16.531250,33.59,87.9
240786,2018-06-29 10:50:16.562500,17.0,87.9
240787,2018-06-29 10:50:16.593750,-3.26,87.9
240788,2018-06-29 10:50:16.625000,-16.05,87.9
240789,2018-06-29 10:50:16.656250,-17.3,87.9
240790,2018-06-29 10:50:16.687500,-13.97,87.9
240791,2018-06-29 10:50:16.718750,-14.75,87.9
240792,2018-06-29 10:50:16.750000,-19.14,87.9
240793,2018-06-29 10:50:16.781250,-16.28,87.9
240794,2018-06-29 10:50:16.812500,6.54,87.9
240795,2018-06-29 10:50:16.843750,49.29,87.9
240796,2018-06-29 10:50:16.875000,96.71,87.9
240797,2018-06-29 10:50:16.906250,134.71,87.9
240798,2018-06-29 10:50:16.937500,163.13,87.9
240799,2018-06-29 10:50:16.968750,179.65,87.9
240800,2018-06-29 10:50:17.000000,164.49,87.9
240801,2018-06-29 10:50:17.031250,105.15,87.9
240802,2018-06-29 10:50:17.062500,23.47,87.9
240803,2018-06-29 10:50:17.093750,-42.22,87.9
240804,2018-06-29 10:50:17.125000,-66.77,87.9
240805,2018-06-29 10:50:17.156250,-48.82,87.9
240806,2018-06-29 10:50:17.187500,-12.95,87.9
240807,2018-06-29 10:50:17.218750,3.5,87.9
240808,2018-06-29 10:50:17.250000,-18.83,87.9
240809,2018-06-29 10:50:17.281250,-68.88,87.9
240810,2018-06-29 10:50:17.312500,-121.26,87.9
240811,2018-06-29 10:50:17.343750,-153.34,87.9
240812,2018-06-29 10:50:17.375000,-156.68,87.9
240813,2018-06-29 10:50:17.406250,-141.1,87.9
240814,2018-06-29 10:50:17.437500,-122.33,87.9
240815,2018-06-29 10:50:17.468750,-106.05,87.9
240816,2018-06-29 10:50:17.500000,-85.19,87.9
240817,2018-06-29 10:50:17.531250,-51.38,87.82
240818,2018-06-29 10:50:17.562500,-6.36,87.82
240819,2018-06-29 10:50:17.593750,39.2,87.82
240820,2018-06-29 10:50:17.625000,75.18,87.82
240821,2018-06-29 10:50:17.656250,97.71,87.82
240822,2018-06-29 10:50:17.687500,108.28,87.82
240823,2018-06-29 10:50:17.718750,111.57,87.82
240824,2018-06-29 10:50:17.750000,111.54,87.82
240825,2018-06-29 10:50:17.781250,107.12,87.82
240826,2018-06-29 10:50:17.812500,93.73,87.82
240827,2018-06-29 10:50:17.843750,70.92,87.82
240828,2018-06-29 10:50:17.875000,46.34,87.82
240829,2018-06-29 10:50:17.906250,30.4,87.82
240830,2018-06-29 10:50:17.937500,27.28,87.82
240831,2018-06-29 10:50:17.968750,31.94,87.82
240832,2018-06-29 10:50:18.000000,38.04,87.82
240833,2018-06-29 10:50:18.031250,44.6,87.82
240834,2018-06-29 10:50:18.062500,50.08,87.82
240835,2018-06-29 10:50:18.093750,46.6,87.82
240836,2018-06-29 10:50:18.125000,26.85,87.82
240837,2018-06-29 10:50:18.156250,-7.91,87.82
240838,2018-06-29 10:50:18.187500,-47.48,87.82
240839,2018-06-29 10:50:18.218750,-75.15,87.82
240840,2018-06-29 10:50:18.250000,-76.62,87.82
240841,2018-06-29 10:50:18.281250,-55.41,87.82
240842,2018-06-29 10:50:18.312500,-33.86,87.82
240843,2018-06-29 10:50:18.343750,-31.87,87.82
240844,2018-06-29 10:50:18.375000,-49.33,87.82
240845,2018-06-29 10:50:18.406250,-72.35,87.82
240846,2018-06-29 10:50:18.437500,-89.48,87.82
240847,2018-06-29 10:50:18.468750,-96.55,87.82
240848,2018-06-29 10:50:18.500000,-91.85,87.82
240849,2018-06-29 10:50:18.531250,-75.55,87.75
240850,2018-06-29 10:50:18.562500,-51.3,87.75
240851,2018-06-29 10:50:18.593750,-25.13,87.75
240852,2018-06-29 10:50:18.625000,-3.75,87.75
240853,2018-06-29 10:50:18.656250,6.63,87.75
240854,2018-06-29 10:50:18.687500,6.08,87.75
240855,2018-06-29 10:50:18.718750,4.98,87.75
240856,2018-06-29 10:50:18.750000,12.53,87.75
240857,2018-06-29 10:50:18.781250,23.99,87.75
240858,2018-06-29 10:50:18.812500,27.9,87.75
240859,2018-06-29 10:50:18.843750,28.14,87.75
240860,2018-06-29 10:50:18.875000,41.55,87.75
240861,2018-06-29 10:50:18.906250,75.21,87.75
240862,2018-06-29 10:50:18.937500,113.83,87.75
240863,2018-06-29 10:50:18.968750,134.77,87.75
240864,2018-06-29 10:50:19.000000,130.43,87.75
240865,2018-06-29 10:50:19.031250,107.64,87.75
240866,2018-06-29 10:50:19.062500,81.32,87.75
240867,2018-06-29 10:50:19.093750,63.41,87.75
240868,2018-06-29 10:50:19.125000,61.32,87.75
240869,2018-06-29 10:50:19.156250,68.38,87.75
240870,2018-06-29 10:50:19.187500,71.75,87.75
240871,2018-06-29 10:50:19.218750,65.49,87.75
240872,2018-06-29 10:50:19.250000,48.08,87.75
240873,2018-06-29 10:50:19.281250,20.31,87.75
240874,2018-06-29 10:50:19.312500,-30.21,87.75
240875,2018-06-29 10:50:19.343750,-83.8,87.75
240876,2018-06-29 10:50:19.375000,-106.85,87.75
240877,2018-06-29 10:50:19.406250,-100.05,87.75
240878,2018-06-29 10:50:19.437500,-68.03,87.75
240879,2018-06-29 10:50:19.468750,-27.05,87.75
240880,2018-06-29 10:50:19.500000,-5.84,87.75
240881,2018-06-29 10:50:19.531250,-23.81,87.67
240882,2018-06-29 10:50:19.562500,-61.28,87.67
240883,2018-06-29 10:50:19.593750,-96.38,87.67
240884,2018-06-29 10:50:19.625000,-124.14,87.67
240885,2018-06-29 10:50:19.656250,-139.87,87.67
240886,2018-06-29 10:50:19.687500,-135.78,87.67
240887,2018-06-29 10:50:19.718750,-110.92,87.67
240888,2018-06-29 10:50:19.750000,-74.25,87.67
240889,2018-06-29 10:50:19.781250,-36.4,87.67
240890,2018-06-29 10:50:19.812500,-6.78,87.67
240891,2018-06-29 10:50:19.843750,10.18,87.67
240892,2018-06-29 10:50:19.875000,15.53,87.67
240893,2018-06-29 10:50:19.906250,21.05,87.67
240894,2018-06-29 10:50:19.937500,31.97,87.67
240895,2018-06-29 10:50:19.968750,39.42,87.67
240896,2018-06-29 10:50:20.000000,34.37,87.67
240897,2018-06-29 10:50:20.031250,20.9,87.67
240898,2018-06-29 10:50:20.062500,8.41,87.67
240899,2018-06-29 10:50:20.093750,-0.96,87.67
240900,2018-06-29 10:50:20.125000,-5.47,87.67
240901,2018-06-29 10:50:20.156250,2.62,87.67
240902,2018-06-29 10:50:20.187500,27.89,87.67
240903,2018-06-29 10:50:20.218750,60.76,87.67
240904,2018-06-29 10:50:20.250000,88.88,87.67
240905,2018-06-29 10:50:20.281250,110.6,87.67
240906,2018-06-29 10:50:20.312500,127.34,87.67
240907,2018-06-29 10:50:20.343750,135.04,87.67
240908,2018-06-29 10:50:20.375000,131.39,87.67
240909,2018-06-29 10:50:20.406250,118.97,87.67
240910,2018-06-29 10:50:20.437500,98.37,87.67
240911,2018-06-29 10:50:20.468750,68.83,87.67
240912,2018-06-29 10:50:20.500000,35.41,87.67
240913,2018-06-29 10:50:20.531250,8.65,87.6
240914,2018-06-29 10:50:20.562500,-0.19,87.6
240915,2018-06-29 10:50:20.593750,13.91,87.6
240916,2018-06-29 10:50:20.625000,36.4,87.6
240917,2018-06-29 10:50:20.656250,36.15,87.6
240918,2018-06-29 10:50:20.687500,-5.62,87.6
240919,2018-06-29 10:50:20.718750,-75.34,87.6
240920,2018-06-29 10:50:20.750000,-145.83,87.6
240921,2018-06-29 10:50:20.781250,-202.0,87.6
240922,2018-06-29 10:50:20.812500,-238.56,87.6
240923,2018-06-29 10:50:20.843750,-249.51,87.6
240924,2018-06-29 10:50:20.875000,-230.2,87.6
240925,2018-06-29 10:50:20.906250,-185.85,87.6
240926,2018-06-29 10:50:20.937500,-126.91,87.6
240927,2018-06-29 10:50:20.968750,-61.97,87.6
240928,2018-06-29 10:50:21.000000,1.72,87.6
240929,2018-06-29 10:50:21.031250,54.22,87.6
240930,2018-06-29 10:50:21.062500,85.98,87.6
240931,2018-06-29 10:50:21.093750,97.7,87.6
240932,2018-06-29 10:50:21.125000,98.02,87.6
240933,2018-06-29 10:50:21.156250,97.76,87.6
240934,2018-06-29 10:50:21.187500,99.69,87.6
240935,2018-06-29 10:50:21.218750,93.65,87.6
240936,2018-06-29 10:50:21.250000,59.58,87.6
240937,2018-06-29 10:50:21.281250,-4.17,87.6
240938,2018-06-29 10:50:21.312500,-46.64,87.6
240939,2018-06-29 10:50:21.343750,-43.79,87.6
240940,2018-06-29 10:50:21.375000,-23.43,87.6
240941,2018-06-29 10:50:21.406250,-6.66,87.6
240942,2018-06-29 10:50:21.437500,8.01,87.6
240943,2018-06-29 10:50:21.468750,16.96,87.6
240944,2018-06-29 10:50:21.500000,14.59,87.6
240945,2018-06-29 10:50:21.531250,7.92,87.57
240946,2018-06-29 10:50:21.562500,8.01,87.57
240947,2018-06-29 10:50:21.593750,13.89,87.57
240948,2018-06-29 10:50:21.625000,15.57,87.57
240949,2018-06-29 10:50:21.656250,12.07,87.57
240950,2018-06-29 10:50:21.687500,10.65,87.57
240951,2018-06-29 10:50:21.718750,15.22,87.57
240952,2018-06-29 10:50:21.750000,20.66,87.57
240953,2018-06-29 10:50:21.781250,23.03,87.57
240954,2018-06-29 10:50:21.812500,25.06,87.57
240955,2018-06-29 10:50:21.843750,28.99,87.57
240956,2018-06-29 10:50:21.875000,31.06,87.57
240957,2018-06-29 10:50:21.906250,26.36,87.57
240958,2018-06-29 10:50:21.937500,16.89,87.57
240959,2018-06-29 10:50:21.968750,8.69,87.57
240960,2018-06-29 10:50:22.000000,4.16,87.57
240961,2018-06-29 10:50:22.031250,0.73,87.57
240962,2018-06-29 10:50:22.062500,-3.11,87.57
240963,2018-06-29 10:50:22.093750,-5.26,87.57
240964,2018-06-29 10:50:22.125000,-3.81,87.57
240965,2018-06-29 10:50:22.156250,-0.6,87.57
240966,2018-06-29 10:50:22.187500,-0.55,87.57
240967,2018-06-29 10:50:22.218750,-4.79,87.57
240968,2018-06-29 10:50:22.250000,-0.01,87.57
240969,2018-06-29 10:50:22.281250,33.64,87.57
240970,2018-06-29 10:50:22.312500,95.47,87.57
240971,2018-06-29 10:50:22.343750,157.95,87.57
240972,2018-06-29 10:50:22.375000,195.05,87.57
240973,2018-06-29 10:50:22.406250,205.82,87.57
240974,2018-06-29 10:50:22.437500,204.66,87.57
240975,2018-06-29 10:50:22.468750,202.0,87.57
240976,2018-06-29 10:50:22.500000,194.66,87.57
240977,2018-06-29 10:50:22.531250,170.67,87.52
240978,2018-06-29 10:50:22.562500,130.59,87.52
240979,2018-06-29 10:50:22.593750,87.92,87.52
240980,2018-06-29 10:50:22.625000,55.19,87.52
240981,2018-06-29 10:50:22.656250,33.21,87.52
240982,2018-06-29 10:50:22.687500,20.85,87.52
240983,2018-06-29 10:50:22.718750,20.55,87.52
240984,2018-06-29 10:50:22.750000,29.24,87.52
240985,2018-06-29 10:50:22.781250,35.19,87.52
240986,2018-06-29 10:50:22.812500,28.1,87.52
240987,2018-06-29 10:50:22.843750,4.55,87.52
240988,2018-06-29 10:50:22.875000,-22.83,87.52
240989,2018-06-29 10:50:22.906250,-23.17,87.52
240990,2018-06-29 10:50:22.937500,14.43,87.52
240991,2018-06-29 10:50:22.968750,54.62,87.52
240992,2018-06-29 10:50:23.000000,61.75,87.52
240993,2018-06-29 10:50:23.031250,43.93,87.52
240994,2018-06-29 10:50:23.062500,21.97,87.52
240995,2018-06-29 10:50:23.093750,-2.8,87.52
240996,2018-06-29 10:50:23.125000,-28.28,87.52
240997,2018-06-29 10:50:23.156250,-42.76,87.52
240998,2018-06-29 10:50:23.187500,-48.46,87.52
240999,2018-06-29 10:50:23.218750,-63.29,87.52
241000,2018-06-29 10:50:23.250000,-95.22,87.52
241001,2018-06-29 10:50:23.281250,-132.62,87.52
241002,2018-06-29 10:50:23.312500,-164.05,87.52
241003,2018-06-29 10:50:23.343750,-194.92,87.52
241004,2018-06-29 10:50:23.375000,-236.38,87.52
241005,2018-06-29 10:50:23.406250,-290.75,87.52
241006,2018-06-29 10:50:23.437500,-354.85,87.52
241007,2018-06-29 10:50:23.468750,-414.04,87.52
241008,2018-06-29 10:50:23.500000,-436.6,87.52
241009,2018-06-29 10:50:23.531250,-407.18,87.47
241010,2018-06-29 10:50:23.562500,-353.64,87.47
241011,2018-06-29 10:50:23.593750,-312.42,87.47
241012,2018-06-29 10:50:23.625000,-293.73,87.47
241013,2018-06-29 10:50:23.656250,-295.21,87.47
241014,2018-06-29 10:50:23.687500,-303.37,87.47
241015,2018-06-29 10:50:23.718750,-278.87,87.47
241016,2018-06-29 10:50:23.750000,-190.57,87.47
241017,2018-06-29 10:50:23.781250,-63.55,87.47
241018,2018-06-29 10:50:23.812500,41.45,87.47
241019,2018-06-29 10:50:23.843750,89.78,87.47
241020,2018-06-29 10:50:23.875000,93.6,87.47
241021,2018-06-29 10:50:23.906250,81.41,87.47
241022,2018-06-29 10:50:23.937500,65.83,87.47
241023,2018-06-29 10:50:23.968750,44.09,87.47
241024,2018-06-29 10:50:24.000000,19.45,87.47
241025,2018-06-29 10:50:24.031250,5.91,87.47
241026,2018-06-29 10:50:24.062500,8.69,87.47
241027,2018-06-29 10:50:24.093750,14.48,87.47
241028,2018-06-29 10:50:24.125000,7.81,87.47
241029,2018-06-29 10:50:24.156250,-13.66,87.47
241030,2018-06-29 10:50:24.187500,-45.2,87.47
241031,2018-06-29 10:50:24.218750,-83.92,87.47
241032,2018-06-29 10:50:24.250000,-126.11,87.47
241033,2018-06-29 10:50:24.281250,-166.45,87.47
241034,2018-06-29 10:50:24.312500,-203.1,87.47
241035,2018-06-29 10:50:24.343750,-230.84,87.47
241036,2018-06-29 10:50:24.375000,-235.81,87.47
241037,2018-06-29 10:50:24.406250,-205.24,87.47
241038,2018-06-29 10:50:24.437500,-147.37,87.47
241039,2018-06-29 10:50:24.468750,-82.31,87.47
241040,2018-06-29 10:50:24.500000,-21.47,87.47
241041,2018-06-29 10:50:24.531250,32.17,87.45
241042,2018-06-29 10:50:24.562500,78.67,87.45
241043,2018-06-29 10:50:24.593750,122.47,87.45
241044,2018-06-29 10:50:24.625000,175.06,87.45
241045,2018-06-29 10:50:24.656250,235.23,87.45
241046,2018-06-29 10:50:24.687500,290.64,87.45
241047,2018-06-29 10:50:24.718750,321.86,87.45
241048,2018-06-29 10:50:24.750000,325.61,87.45
241049,2018-06-29 10:50:24.781250,309.3,87.45
241050,2018-06-29 10:50:24.812500,270.63,87.45
241051,2018-06-29 10:50:24.843750,214.59,87.45
241052,2018-06-29 10:50:24.875000,160.85,87.45
241053,2018-06-29 10:50:24.906250,153.26,87.45
241054,2018-06-29 10:50:24.937500,167.57,87.45
241055,2018-06-29 10:50:24.968750,163.91,87.45
241056,2018-06-29 10:50:25.000000,132.54,87.45
241057,2018-06-29 10:50:25.031250,118.14,87.45
241058,2018-06-29 10:50:25.062500,147.52,87.45
241059,2018-06-29 10:50:25.093750,192.51,87.45
241060,2018-06-29 10:50:25.125000,253.66,87.45
241061,2018-06-29 10:50:25.156250,337.93,87.45
241062,2018-06-29 10:50:25.187500,485.03,87.45
241063,2018-06-29 10:50:25.218750,635.22,87.45
241064,2018-06-29 10:50:25.250000,736.59,87.45
241065,2018-06-29 10:50:25.281250,710.44,87.45
241066,2018-06-29 10:50:25.312500,288.02,87.45
241067,2018-06-29 10:50:25.343750,-164.38,87.45
241068,2018-06-29 10:50:25.375000,-417.37,87.45
241069,2018-06-29 10:50:25.406250,-536.19,87.45
241070,2018-06-29 10:50:25.437500,-594.35,87.45
241071,2018-06-29 10:50:25.468750,-552.12,87.45
241072,2018-06-29 10:50:25.500000,-461.24,87.45
241073,2018-06-29 10:50:25.531250,-377.56,87.53
241074,2018-06-29 10:50:25.562500,-302.49,87.53
241075,2018-06-29 10:50:25.593750,-190.66,87.53
241076,2018-06-29 10:50:25.625000,-44.56,87.53
241077,2018-06-29 10:50:25.656250,59.15,87.53
241078,2018-06-29 10:50:25.687500,98.08,87.53
241079,2018-06-29 10:50:25.718750,98.6,87.53
241080,2018-06-29 10:50:25.750000,123.4,87.53
241081,2018-06-29 10:50:25.781250,187.57,87.53
241082,2018-06-29 10:50:25.812500,284.92,87.53
241083,2018-06-29 10:50:25.843750,379.89,87.53
241084,2018-06-29 10:50:25.875000,421.5,87.53
241085,2018-06-29 10:50:25.906250,385.23,87.53
241086,2018-06-29 10:50:25.937500,288.33,87.53
241087,2018-06-29 10:50:25.968750,176.02,87.53
241088,2018-06-29 10:50:26.000000,73.18,87.53
241089,2018-06-29 10:50:26.031250,-15.74,87.53
241090,2018-06-29 10:50:26.062500,-101.91,87.53
241091,2018-06-29 10:50:26.093750,-191.54,87.53
241092,2018-06-29 10:50:26.125000,-265.02,87.53
241093,2018-06-29 10:50:26.156250,-293.43,87.53
241094,2018-06-29 10:50:26.187500,-273.91,87.53
241095,2018-06-29 10:50:26.218750,-234.09,87.53
241096,2018-06-29 10:50:26.250000,-199.87,87.53
241097,2018-06-29 10:50:26.281250,-176.95,87.53
241098,2018-06-29 10:50:26.312500,-158.9,87.53
241099,2018-06-29 10:50:26.343750,-131.75,87.53
241100,2018-06-29 10:50:26.375000,-87.16,87.53
241101,2018-06-29 10:50:26.406250,-24.82,87.53
241102,2018-06-29 10:50:26.437500,35.06,87.53
241103,2018-06-29 10:50:26.468750,54.92,87.53
241104,2018-06-29 10:50:26.500000,42.16,87.53
241105,2018-06-29 10:50:26.531250,19.66,87.63
241106,2018-06-29 10:50:26.562500,-0.19,87.63
241107,2018-06-29 10:50:26.593750,-14.6,87.63
241108,2018-06-29 10:50:26.625000,-21.47,87.63
241109,2018-06-29 10:50:26.656250,-21.09,87.63
241110,2018-06-29 10:50:26.687500,-15.79,87.63
241111,2018-06-29 10:50:26.718750,-11.89,87.63
241112,2018-06-29 10:50:26.750000,-12.85,87.63
241113,2018-06-29 10:50:26.781250,-16.85,87.63
241114,2018-06-29 10:50:26.812500,-20.7,87.63
241115,2018-06-29 10:50:26.843750,-22.84,87.63
241116,2018-06-29 10:50:26.875000,-26.22,87.63
241117,2018-06-29 10:50:26.906250,-30.91,87.63
241118,2018-06-29 10:50:26.937500,-32.54,87.63
241119,2018-06-29 10:50:26.968750,-24.08,87.63
241120,2018-06-29 10:50:27.000000,-3.77,87.63
241121,2018-06-29 10:50:27.031250,16.22,87.63
241122,2018-06-29 10:50:27.062500,11.55,87.63
241123,2018-06-29 10:50:27.093750,-28.54,87.63
241124,2018-06-29 10:50:27.125000,-77.71,87.63
241125,2018-06-29 10:50:27.156250,-94.36,87.63
241126,2018-06-29 10:50:27.187500,-65.64,87.63
241127,2018-06-29 10:50:27.218750,-17.42,87.63
241128,2018-06-29 10:50:27.250000,17.87,87.63
241129,2018-06-29 10:50:27.281250,27.14,87.63
241130,2018-06-29 10:50:27.312500,15.76,87.63
241131,2018-06-29 10:50:27.343750,-3.93,87.63
241132,2018-06-29 10:50:27.375000,-18.93,87.63
241133,2018-06-29 10:50:27.406250,-18.0,87.63
241134,2018-06-29 10:50:27.437500,-3.03,87.63
241135,2018-06-29 10:50:27.468750,13.28,87.63
241136,2018-06-29 10:50:27.500000,18.95,87.63
241137,2018-06-29 10:50:27.531250,14.93,87.75
241138,2018-06-29 10:50:27.562500,13.22,87.75
241139,2018-06-29 10:50:27.593750,18.73,87.75
241140,2018-06-29 10:50:27.625000,20.19,87.75
241141,2018-06-29 10:50:27.656250,4.48,87.75
241142,2018-06-29 10:50:27.687500,-28.06,87.75
241143,2018-06-29 10:50:27.718750,-67.88,87.75
241144,2018-06-29 10:50:27.750000,-106.69,87.75
241145,2018-06-29 10:50:27.781250,-140.48,87.75
241146,2018-06-29 10:50:27.812500,-164.61,87.75
241147,2018-06-29 10:50:27.843750,-169.58,87.75
241148,2018-06-29 10:50:27.875000,-142.18,87.75
241149,2018-06-29 10:50:27.906250,-77.36,87.75
241150,2018-06-29 10:50:27.937500,10.84,87.75
241151,2018-06-29 10:50:27.968750,96.2,87.75
241152,2018-06-29 10:50:28.000000,157.14,87.75
241153,2018-06-29 10:50:28.031250,184.87,87.75
241154,2018-06-29 10:50:28.062500,182.8,87.75
241155,2018-06-29 10:50:28.093750,166.19,87.75
241156,2018-06-29 10:50:28.125000,155.07,87.75
241157,2018-06-29 10:50:28.156250,159.46,87.75
241158,2018-06-29 10:50:28.187500,171.66,87.75
241159,2018-06-29 10:50:28.218750,175.59,87.75
241160,2018-06-29 10:50:28.250000,161.46,87.75
241161,2018-06-29 10:50:28.281250,130.03,87.75
241162,2018-06-29 10:50:28.312500,87.2,87.75
241163,2018-06-29 10:50:28.343750,39.03,87.75
241164,2018-06-29 10:50:28.375000,-7.31,87.75
241165,2018-06-29 10:50:28.406250,-41.81,87.75
241166,2018-06-29 10:50:28.437500,-58.08,87.75
241167,2018-06-29 10:50:28.468750,-62.23,87.75
241168,2018-06-29 10:50:28.500000,-68.03,87.75
241169,2018-06-29 10:50:28.531250,-82.8,87.85
241170,2018-06-29 10:50:28.562500,-100.81,87.85
241171,2018-06-29 10:50:28.593750,-107.06,87.85
241172,2018-06-29 10:50:28.625000,-87.79,87.85
241173,2018-06-29 10:50:28.656250,-44.38,87.85
241174,2018-06-29 10:50:28.687500,5.18,87.85
241175,2018-06-29 10:50:28.718750,44.88,87.85
241176,2018-06-29 10:50:28.750000,72.78,87.85
241177,2018-06-29 10:50:28.781250,89.15,87.85
241178,2018-06-29 10:50:28.812500,85.79,87.85
241179,2018-06-29 10:50:28.843750,57.18,87.85
241180,2018-06-29 10:50:28.875000,13.33,87.85
241181,2018-06-29 10:50:28.906250,-27.32,87.85
241182,2018-06-29 10:50:28.937500,-52.36,87.85
241183,2018-06-29 10:50:28.968750,-57.74,87.85
241184,2018-06-29 10:50:29.000000,-43.72,87.85
241185,2018-06-29 10:50:29.031250,-16.38,87.85
241186,2018-06-29 10:50:29.062500,11.55,87.85
241187,2018-06-29 10:50:29.093750,27.3,87.85
241188,2018-06-29 10:50:29.125000,24.95,87.85
241189,2018-06-29 10:50:29.156250,5.23,87.85
241190,2018-06-29 10:50:29.187500,-26.92,87.85
241191,2018-06-29 10:50:29.218750,-61.05,87.85
241192,2018-06-29 10:50:29.250000,-82.2,87.85
241193,2018-06-29 10:50:29.281250,-79.26,87.85
241194,2018-06-29 10:50:29.312500,-50.11,87.85
241195,2018-06-29 10:50:29.343750,0.83,87.85
241196,2018-06-29 10:50:29.375000,59.89,87.85
241197,2018-06-29 10:50:29.406250,101.2,87.85
241198,2018-06-29 10:50:29.437500,104.62,87.85
241199,2018-06-29 10:50:29.468750,78.04,87.85
241200,2018-06-29 10:50:29.500000,48.12,87.85
241201,2018-06-29 10:50:29.531250,32.69,87.93
241202,2018-06-29 10:50:29.562500,32.48,87.93
241203,2018-06-29 10:50:29.593750,39.92,87.93
241204,2018-06-29 10:50:29.625000,47.61,87.93
241205,2018-06-29 10:50:29.656250,53.04,87.93
241206,2018-06-29 10:50:29.687500,55.22,87.93
241207,2018-06-29 10:50:29.718750,46.38,87.93
241208,2018-06-29 10:50:29.750000,13.37,87.93
241209,2018-06-29 10:50:29.781250,-46.68,87.93
241210,2018-06-29 10:50:29.812500,-112.64,87.93
241211,2018-06-29 10:50:29.843750,-147.4,87.93
241212,2018-06-29 10:50:29.875000,-124.33,87.93
241213,2018-06-29 10:50:29.906250,-54.2,87.93
241214,2018-06-29 10:50:29.937500,15.43,87.93
241215,2018-06-29 10:50:29.968750,36.16,87.93
241216,2018-06-29 10:50:30.000000,-3.54,87.93
241217,2018-06-29 10:50:30.031250,-75.4,87.93
241218,2018-06-29 10:50:30.062500,-136.91,87.93
241219,2018-06-29 10:50:30.093750,-157.53,87.93
241220,2018-06-29 10:50:30.125000,-132.58,87.93
241221,2018-06-29 10:50:30.156250,-80.37,87.93
241222,2018-06-29 10:50:30.187500,-25.03,87.93
241223,2018-06-29 10:50:30.218750,17.52,87.93
241224,2018-06-29 10:50:30.250000,41.67,87.93
241225,2018-06-29 10:50:30.281250,49.04,87.93
241226,2018-06-29 10:50:30.312500,47.1,87.93
241227,2018-06-29 10:50:30.343750,47.28,87.93
241228,2018-06-29 10:50:30.375000,57.63,87.93
241229,2018-06-29 10:50:30.406250,76.16,87.93
241230,2018-06-29 10:50:30.437500,95.3,87.93
241231,2018-06-29 10:50:30.468750,110.71,87.93
241232,2018-06-29 10:50:30.500000,119.14,87.93
241233,2018-06-29 10:50:30.531250,112.64,87.93
241234,2018-06-29 10:50:30.562500,85.69,87.93
241235,2018-06-29 10:50:30.593750,45.87,87.93
241236,2018-06-29 10:50:30.625000,8.81,87.93
241237,2018-06-29 10:50:30.656250,-15.37,87.93
241238,2018-06-29 10:50:30.687500,-25.11,87.93
241239,2018-06-29 10:50:30.718750,-22.83,87.93
241240,2018-06-29 10:50:30.750000,-14.41,87.93
241241,2018-06-29 10:50:30.781250,-5.68,87.93
241242,2018-06-29 10:50:30.812500,5.73,87.93
241243,2018-06-29 10:50:30.843750,25.55,87.93
241244,2018-06-29 10:50:30.875000,49.24,87.93
241245,2018-06-29 10:50:30.906250,63.67,87.93
241246,2018-06-29 10:50:30.937500,60.24,87.93
241247,2018-06-29 10:50:30.968750,39.45,87.93
241248,2018-06-29 10:50:31.000000,9.42,87.93
241249,2018-06-29 10:50:31.031250,-12.42,87.93
241250,2018-06-29 10:50:31.062500,-9.43,87.93
241251,2018-06-29 10:50:31.093750,12.07,87.93
241252,2018-06-29 10:50:31.125000,22.33,87.93
241253,2018-06-29 10:50:31.156250,1.05,87.93
241254,2018-06-29 10:50:31.187500,-40.51,87.93
241255,2018-06-29 10:50:31.218750,-77.88,87.93
241256,2018-06-29 10:50:31.250000,-99.54,87.93
241257,2018-06-29 10:50:31.281250,-108.02,87.93
241258,2018-06-29 10:50:31.312500,-107.91,87.93
241259,2018-06-29 10:50:31.343750,-100.54,87.93
241260,2018-06-29 10:50:31.375000,-86.43,87.93
241261,2018-06-29 10:50:31.406250,-70.3,87.93
241262,2018-06-29 10:50:31.437500,-62.31,87.93
241263,2018-06-29 10:50:31.468750,-69.56,87.93
241264,2018-06-29 10:50:31.500000,-81.09,87.93
241265,2018-06-29 10:50:31.531250,-68.72,88.0
241266,2018-06-29 10:50:31.562500,-17.39,88.0
241267,2018-06-29 10:50:31.593750,47.91,88.0
241268,2018-06-29 10:50:31.625000,83.17,88.0
241269,2018-06-29 10:50:31.656250,72.08,88.0
241270,2018-06-29 10:50:31.687500,34.93,88.0
241271,2018-06-29 10:50:31.718750,-1.49,88.0
241272,2018-06-29 10:50:31.750000,-22.91,88.0
241273,2018-06-29 10:50:31.781250,-25.68,88.0
241274,2018-06-29 10:50:31.812500,-16.05,88.0
241275,2018-06-29 10:50:31.843750,-4.97,88.0
241276,2018-06-29 10:50:31.875000,5.4,88.0
241277,2018-06-29 10:50:31.906250,20.69,88.0
241278,2018-06-29 10:50:31.937500,37.86,88.0
241279,2018-06-29 10:50:31.968750,45.88,88.0
241280,2018-06-29 10:50:32.000000,41.3,88.0
241281,2018-06-29 10:50:32.031250,29.52,88.0
241282,2018-06-29 10:50:32.062500,15.98,88.0
241283,2018-06-29 10:50:32.093750,2.9,88.0
241284,2018-06-29 10:50:32.125000,-11.3,88.0
241285,2018-06-29 10:50:32.156250,-26.45,88.0
241286,2018-06-29 10:50:32.187500,-26.02,88.0
241287,2018-06-29 10:50:32.218750,13.64,88.0
241288,2018-06-29 10:50:32.250000,83.37,88.0
241289,2018-06-29 10:50:32.281250,135.17,88.0
241290,2018-06-29 10:50:32.312500,130.98,88.0
241291,2018-06-29 10:50:32.343750,76.56,88.0
241292,2018-06-29 10:50:32.375000,1.51,88.0
241293,2018-06-29 10:50:32.406250,-69.01,88.0
241294,2018-06-29 10:50:32.437500,-117.98,88.0
241295,2018-06-29 10:50:32.468750,-137.6,88.0
241296,2018-06-29 10:50:32.500000,-134.2,88.0
241297,2018-06-29 10:50:32.531250,-121.53,88.08
241298,2018-06-29 10:50:32.562500,-106.85,88.08
241299,2018-06-29 10:50:32.593750,-87.91,88.08
241300,2018-06-29 10:50:32.625000,-62.98,88.08
241301,2018-06-29 10:50:32.656250,-37.75,88.08
241302,2018-06-29 10:50:32.687500,-19.74,88.08
241303,2018-06-29 10:50:32.718750,-10.74,88.08
241304,2018-06-29 10:50:32.750000,-8.95,88.08
241305,2018-06-29 10:50:32.781250,-14.53,88.08
241306,2018-06-29 10:50:32.812500,-27.5,88.08
241307,2018-06-29 10:50:32.843750,-42.66,88.08
241308,2018-06-29 10:50:32.875000,-49.87,88.08
241309,2018-06-29 10:50:32.906250,-39.67,88.08
241310,2018-06-29 10:50:32.937500,-11.42,88.08
241311,2018-06-29 10:50:32.968750,23.73,88.08
241312,2018-06-29 10:50:33.000000,53.4,88.08
241313,2018-06-29 10:50:33.031250,76.24,88.08
241314,2018-06-29 10:50:33.062500,98.09,88.08
241315,2018-06-29 10:50:33.093750,118.79,88.08
241316,2018-06-29 10:50:33.125000,131.45,88.08
241317,2018-06-29 10:50:33.156250,133.3,88.08
241318,2018-06-29 10:50:33.187500,127.09,88.08
241319,2018-06-29 10:50:33.218750,113.42,88.08
241320,2018-06-29 10:50:33.250000,90.28,88.08
241321,2018-06-29 10:50:33.281250,58.97,88.08
241322,2018-06-29 10:50:33.312500,26.24,88.08
241323,2018-06-29 10:50:33.343750,3.93,88.08
241324,2018-06-29 10:50:33.375000,5.68,88.08
241325,2018-06-29 10:50:33.406250,31.0,88.08
241326,2018-06-29 10:50:33.437500,54.37,88.08
241327,2018-06-29 10:50:33.468750,44.23,88.08
241328,2018-06-29 10:50:33.500000,-7.31,88.08
241329,2018-06-29 10:50:33.531250,-81.87,88.1
241330,2018-06-29 10:50:33.562500,-155.3,88.1
241331,2018-06-29 10:50:33.593750,-208.65,88.1
241332,2018-06-29 10:50:33.625000,-227.64,88.1
241333,2018-06-29 10:50:33.656250,-208.41,88.1
241334,2018-06-29 10:50:33.687500,-163.62,88.1
241335,2018-06-29 10:50:33.718750,-112.54,88.1
241336,2018-06-29 10:50:33.750000,-64.65,88.1
241337,2018-06-29 10:50:33.781250,-22.41,88.1
241338,2018-06-29 10:50:33.812500,10.02,88.1
241339,2018-06-29 10:50:33.843750,31.71,88.1
241340,2018-06-29 10:50:33.875000,49.17,88.1
241341,2018-06-29 10:50:33.906250,61.91,88.1
241342,2018-06-29 10:50:33.937500,59.42,88.1
241343,2018-06-29 10:50:33.968750,39.36,88.1
241344,2018-06-29 10:50:34.000000,15.73,88.1
241345,2018-06-29 10:50:34.031250,3.67,88.1
241346,2018-06-29 10:50:34.062500,2.33,88.1
241347,2018-06-29 10:50:34.093750,3.26,88.1
241348,2018-06-29 10:50:34.125000,-0.38,88.1
241349,2018-06-29 10:50:34.156250,-4.87,88.1
241350,2018-06-29 10:50:34.187500,-6.71,88.1
241351,2018-06-29 10:50:34.218750,-8.27,88.1
241352,2018-06-29 10:50:34.250000,-15.2,88.1
241353,2018-06-29 10:50:34.281250,-27.58,88.1
241354,2018-06-29 10:50:34.312500,-28.37,88.1
241355,2018-06-29 10:50:34.343750,-8.76,88.1
241356,2018-06-29 10:50:34.375000,11.0,88.1
241357,2018-06-29 10:50:34.406250,-11.07,88.1
241358,2018-06-29 10:50:34.437500,-75.66,88.1
241359,2018-06-29 10:50:34.468750,-144.7,88.1
241360,2018-06-29 10:50:34.500000,-182.27,88.1
241361,2018-06-29 10:50:34.531250,-130.03,88.08
241362,2018-06-29 10:50:34.562500,-35.73,88.08
241363,2018-06-29 10:50:34.593750,31.35,88.08
241364,2018-06-29 10:50:34.625000,76.67,88.08
241365,2018-06-29 10:50:34.656250,115.31,88.08
241366,2018-06-29 10:50:34.687500,132.64,88.08
241367,2018-06-29 10:50:34.718750,131.43,88.08
241368,2018-06-29 10:50:34.750000,131.84,88.08
241369,2018-06-29 10:50:34.781250,132.01,88.08
241370,2018-06-29 10:50:34.812500,113.55,88.08
241371,2018-06-29 10:50:34.843750,76.28,88.08
241372,2018-06-29 10:50:34.875000,43.78,88.08
241373,2018-06-29 10:50:34.906250,24.63,88.08
241374,2018-06-29 10:50:34.937500,13.54,88.08
241375,2018-06-29 10:50:34.968750,6.47,88.08
241376,2018-06-29 10:50:35.000000,8.42,88.08
241377,2018-06-29 10:50:35.031250,20.78,88.08
241378,2018-06-29 10:50:35.062500,34.49,88.08
241379,2018-06-29 10:50:35.093750,38.5,88.08
241380,2018-06-29 10:50:35.125000,31.14,88.08
241381,2018-06-29 10:50:35.156250,23.8,88.08
241382,2018-06-29 10:50:35.187500,20.69,88.08
241383,2018-06-29 10:50:35.218750,10.88,88.08
241384,2018-06-29 10:50:35.250000,-13.56,88.08
241385,2018-06-29 10:50:35.281250,-40.09,88.08
241386,2018-06-29 10:50:35.312500,-50.67,88.08
241387,2018-06-29 10:50:35.343750,-47.19,88.08
241388,2018-06-29 10:50:35.375000,-46.82,88.08
241389,2018-06-29 10:50:35.406250,-62.07,88.08
241390,2018-06-29 10:50:35.437500,-88.82,88.08
241391,2018-06-29 10:50:35.468750,-99.39,88.08
241392,2018-06-29 10:50:35.500000,-66.83,88.08
241393,2018-06-29 10:50:35.531250,-15.8,87.92
241394,2018-06-29 10:50:35.562500,-11.8,87.92
241395,2018-06-29 10:50:35.593750,-70.33,87.92
241396,2018-06-29 10:50:35.625000,-131.06,87.92
241397,2018-06-29 10:50:35.656250,-143.46,87.92
241398,2018-06-29 10:50:35.687500,-114.76,87.92
241399,2018-06-29 10:50:35.718750,-66.92,87.92
241400,2018-06-29 10:50:35.750000,-10.94,87.92
241401,2018-06-29 10:50:35.781250,29.22,87.92
241402,2018-06-29 10:50:35.812500,29.2,87.92
241403,2018-06-29 10:50:35.843750,0.34,87.92
241404,2018-06-29 10:50:35.875000,-28.46,87.92
241405,2018-06-29 10:50:35.906250,-47.49,87.92
241406,2018-06-29 10:50:35.937500,-62.42,87.92
241407,2018-06-29 10:50:35.968750,-68.62,87.92
241408,2018-06-29 10:50:36.000000,-52.21,87.92
241409,2018-06-29 10:50:36.031250,-15.95,87.92
241410,2018-06-29 10:50:36.062500,13.36,87.92
241411,2018-06-29 10:50:36.093750,17.61,87.92
241412,2018-06-29 10:50:36.125000,10.88,87.92
241413,2018-06-29 10:50:36.156250,18.89,87.92
241414,2018-06-29 10:50:36.187500,48.99,87.92
241415,2018-06-29 10:50:36.218750,90.79,87.92
241416,2018-06-29 10:50:36.250000,130.51,87.92
241417,2018-06-29 10:50:36.281250,155.97,87.92
241418,2018-06-29 10:50:36.312500,160.99,87.92
241419,2018-06-29 10:50:36.343750,149.49,87.92
241420,2018-06-29 10:50:36.375000,129.25,87.92
241421,2018-06-29 10:50:36.406250,102.08,87.92
241422,2018-06-29 10:50:36.437500,68.1,87.92
241423,2018-06-29 10:50:36.468750,35.96,87.92
241424,2018-06-29 10:50:36.500000,17.65,87.92
241425,2018-06-29 10:50:36.531250,14.56,87.73
241426,2018-06-29 10:50:36.562500,17.97,87.73
241427,2018-06-29 10:50:36.593750,21.49,87.73
241428,2018-06-29 10:50:36.625000,24.93,87.73
241429,2018-06-29 10:50:36.656250,28.45,87.73
241430,2018-06-29 10:50:36.687500,30.59,87.73
241431,2018-06-29 10:50:36.718750,32.32,87.73
241432,2018-06-29 10:50:36.750000,37.63,87.73
241433,2018-06-29 10:50:36.781250,48.36,87.73
241434,2018-06-29 10:50:36.812500,61.72,87.73
241435,2018-06-29 10:50:36.843750,74.08,87.73
241436,2018-06-29 10:50:36.875000,83.37,87.73
241437,2018-06-29 10:50:36.906250,86.37,87.73
241438,2018-06-29 10:50:36.937500,77.89,87.73
241439,2018-06-29 10:50:36.968750,55.14,87.73
241440,2018-06-29 10:50:37.000000,21.61,87.73
241441,2018-06-29 10:50:37.031250,-15.79,87.73
241442,2018-06-29 10:50:37.062500,-52.46,87.73
241443,2018-06-29 10:50:37.093750,-87.42,87.73
241444,2018-06-29 10:50:37.125000,-120.63,87.73
241445,2018-06-29 10:50:37.156250,-148.17,87.73
241446,2018-06-29 10:50:37.187500,-158.4,87.73
241447,2018-06-29 10:50:37.218750,-139.88,87.73
241448,2018-06-29 10:50:37.250000,-95.77,87.73
241449,2018-06-29 10:50:37.281250,-41.74,87.73
241450,2018-06-29 10:50:37.312500,10.57,87.73
241451,2018-06-29 10:50:37.343750,58.9,87.73
241452,2018-06-29 10:50:37.375000,101.34,87.73
241453,2018-06-29 10:50:37.406250,131.68,87.73
241454,2018-06-29 10:50:37.437500,142.96,87.73
241455,2018-06-29 10:50:37.468750,131.99,87.73
241456,2018-06-29 10:50:37.500000,102.16,87.73
241457,2018-06-29 10:50:37.531250,62.85,87.58
241458,2018-06-29 10:50:37.562500,24.62,87.58
241459,2018-06-29 10:50:37.593750,-5.88,87.58
241460,2018-06-29 10:50:37.625000,-27.6,87.58
241461,2018-06-29 10:50:37.656250,-44.56,87.58
241462,2018-06-29 10:50:37.687500,-63.39,87.58
241463,2018-06-29 10:50:37.718750,-85.88,87.58
241464,2018-06-29 10:50:37.750000,-104.16,87.58
241465,2018-06-29 10:50:37.781250,-110.77,87.58
241466,2018-06-29 10:50:37.812500,-110.36,87.58
241467,2018-06-29 10:50:37.843750,-111.11,87.58
241468,2018-06-29 10:50:37.875000,-106.25,87.58
241469,2018-06-29 10:50:37.906250,-73.89,87.58
241470,2018-06-29 10:50:37.937500,2.17,87.58
241471,2018-06-29 10:50:37.968750,114.06,87.58
241472,2018-06-29 10:50:38.000000,232.13,87.58
241473,2018-06-29 10:50:38.031250,322.24,87.58
241474,2018-06-29 10:50:38.062500,362.83,87.58
241475,2018-06-29 10:50:38.093750,353.59,87.58
241476,2018-06-29 10:50:38.125000,309.38,87.58
241477,2018-06-29 10:50:38.156250,243.93,87.58
241478,2018-06-29 10:50:38.187500,164.82,87.58
241479,2018-06-29 10:50:38.218750,80.29,87.58
241480,2018-06-29 10:50:38.250000,-3.76,87.58
241481,2018-06-29 10:50:38.281250,-90.64,87.58
241482,2018-06-29 10:50:38.312500,-176.69,87.58
241483,2018-06-29 10:50:38.343750,-239.84,87.58
241484,2018-06-29 10:50:38.375000,-267.74,87.58
241485,2018-06-29 10:50:38.406250,-276.4,87.58
241486,2018-06-29 10:50:38.437500,-276.76,87.58
241487,2018-06-29 10:50:38.468750,-253.66,87.58
241488,2018-06-29 10:50:38.500000,-201.45,87.58
241489,2018-06-29 10:50:38.531250,-143.21,87.48
241490,2018-06-29 10:50:38.562500,-98.76,87.48
241491,2018-06-29 10:50:38.593750,-63.15,87.48
241492,2018-06-29 10:50:38.625000,-15.47,87.48
241493,2018-06-29 10:50:38.656250,66.72,87.48
241494,2018-06-29 10:50:38.687500,184.08,87.48
241495,2018-06-29 10:50:38.718750,301.28,87.48
241496,2018-06-29 10:50:38.750000,375.07,87.48
241497,2018-06-29 10:50:38.781250,392.53,87.48
241498,2018-06-29 10:50:38.812500,370.33,87.48
241499,2018-06-29 10:50:38.843750,331.06,87.48
241500,2018-06-29 10:50:38.875000,288.91,87.48
241501,2018-06-29 10:50:38.906250,248.13,87.48
241502,2018-06-29 10:50:38.937500,208.68,87.48
241503,2018-06-29 10:50:38.968750,173.45,87.48
241504,2018-06-29 10:50:39.000000,147.3,87.48
241505,2018-06-29 10:50:39.031250,130.55,87.48
241506,2018-06-29 10:50:39.062500,118.99,87.48
241507,2018-06-29 10:50:39.093750,109.07,87.48
241508,2018-06-29 10:50:39.125000,98.0,87.48
241509,2018-06-29 10:50:39.156250,80.11,87.48
241510,2018-06-29 10:50:39.187500,49.17,87.48
241511,2018-06-29 10:50:39.218750,5.65,87.48
241512,2018-06-29 10:50:39.250000,-43.0,87.48
241513,2018-06-29 10:50:39.281250,-93.14,87.48
241514,2018-06-29 10:50:39.312500,-150.47,87.48
241515,2018-06-29 10:50:39.343750,-218.3,87.48
241516,2018-06-29 10:50:39.375000,-286.88,87.48
241517,2018-06-29 10:50:39.406250,-344.54,87.48
241518,2018-06-29 10:50:39.437500,-394.34,87.48
241519,2018-06-29 10:50:39.468750,-452.84,87.48
241520,2018-06-29 10:50:39.500000,-534.77,87.48
241521,2018-06-29 10:50:39.531250,-625.91,87.33
241522,2018-06-29 10:50:39.562500,-668.99,87.33
241523,2018-06-29 10:50:39.593750,-613.9,87.33
241524,2018-06-29 10:50:39.625000,-481.86,87.33
241525,2018-06-29 10:50:39.656250,-335.98,87.33
241526,2018-06-29 10:50:39.687500,-204.32,87.33
241527,2018-06-29 10:50:39.718750,-78.62,87.33
241528,2018-06-29 10:50:39.750000,38.72,87.33
241529,2018-06-29 10:50:39.781250,129.19,87.33
241530,2018-06-29 10:50:39.812500,183.79,87.33
241531,2018-06-29 10:50:39.843750,216.48,87.33
241532,2018-06-29 10:50:39.875000,249.67,87.33
241533,2018-06-29 10:50:39.906250,277.05,87.33
241534,2018-06-29 10:50:39.937500,261.52,87.33
241535,2018-06-29 10:50:39.968750,189.14,87.33
241536,2018-06-29 10:50:40.000000,91.63,87.33
241537,2018-06-29 10:50:40.031250,0.38,87.33
241538,2018-06-29 10:50:40.062500,-82.88,87.33
241539,2018-06-29 10:50:40.093750,-166.8,87.33
241540,2018-06-29 10:50:40.125000,-260.48,87.33
241541,2018-06-29 10:50:40.156250,-369.51,87.33
241542,2018-06-29 10:50:40.187500,-464.61,87.33
241543,2018-06-29 10:50:40.218750,-494.84,87.33
241544,2018-06-29 10:50:40.250000,-453.2,87.33
241545,2018-06-29 10:50:40.281250,-388.73,87.33
241546,2018-06-29 10:50:40.312500,-340.52,87.33
241547,2018-06-29 10:50:40.343750,-306.18,87.33
241548,2018-06-29 10:50:40.375000,-273.47,87.33
241549,2018-06-29 10:50:40.406250,-236.78,87.33
241550,2018-06-29 10:50:40.437500,-192.4,87.33
241551,2018-06-29 10:50:40.468750,-140.55,87.33
241552,2018-06-29 10:50:40.500000,-95.11,87.33
241553,2018-06-29 10:50:40.531250,-64.66,87.15
241554,2018-06-29 10:50:40.562500,-41.61,87.15
241555,2018-06-29 10:50:40.593750,-8.32,87.15
241556,2018-06-29 10:50:40.625000,37.04,87.15
241557,2018-06-29 10:50:40.656250,75.91,87.15
241558,2018-06-29 10:50:40.687500,103.82,87.15
241559,2018-06-29 10:50:40.718750,132.3,87.15
241560,2018-06-29 10:50:40.750000,185.44,87.15
241561,2018-06-29 10:50:40.781250,243.99,87.15
241562,2018-06-29 10:50:40.812500,286.34,87.15
241563,2018-06-29 10:50:40.843750,316.01,87.15
241564,2018-06-29 10:50:40.875000,364.77,87.15
241565,2018-06-29 10:50:40.906250,440.46,87.15
241566,2018-06-29 10:50:40.937500,501.88,87.15
241567,2018-06-29 10:50:40.968750,540.85,87.15
241568,2018-06-29 10:50:41.000000,577.53,87.15
241569,2018-06-29 10:50:41.031250,658.63,87.15
241570,2018-06-29 10:50:41.062500,752.85,87.15
241571,2018-06-29 10:50:41.093750,827.31,87.15
241572,2018-06-29 10:50:41.125000,828.61,87.15
241573,2018-06-29 10:50:41.156250,527.59,87.15
241574,2018-06-29 10:50:41.187500,147.59,87.15
241575,2018-06-29 10:50:41.218750,-97.54,87.15
241576,2018-06-29 10:50:41.250000,-235.23,87.15
241577,2018-06-29 10:50:41.281250,-312.58,87.15
241578,2018-06-29 10:50:41.312500,-313.57,87.15
241579,2018-06-29 10:50:41.343750,-292.28,87.15
241580,2018-06-29 10:50:41.375000,-306.48,87.15
241581,2018-06-29 10:50:41.406250,-359.56,87.15
241582,2018-06-29 10:50:41.437500,-368.39,87.15
241583,2018-06-29 10:50:41.468750,-280.79,87.15
241584,2018-06-29 10:50:41.500000,-160.68,87.15
241585,2018-06-29 10:50:41.531250,-38.46,87.1
241586,2018-06-29 10:50:41.562500,88.0,87.1
241587,2018-06-29 10:50:41.593750,217.23,87.1
241588,2018-06-29 10:50:41.625000,240.78,87.1
241589,2018-06-29 10:50:41.656250,162.44,87.1
241590,2018-06-29 10:50:41.687500,61.47,87.1
241591,2018-06-29 10:50:41.718750,-26.66,87.1
241592,2018-06-29 10:50:41.750000,-93.84,87.1
241593,2018-06-29 10:50:41.781250,-123.69,87.1
241594,2018-06-29 10:50:41.812500,-119.23,87.1
241595,2018-06-29 10:50:41.843750,-108.97,87.1
241596,2018-06-29 10:50:41.875000,-108.8,87.1
241597,2018-06-29 10:50:41.906250,-117.87,87.1
241598,2018-06-29 10:50:41.937500,-120.9,87.1
241599,2018-06-29 10:50:41.968750,-116.89,87.1
241600,2018-06-29 10:50:42.000000,-109.77,87.1
241601,2018-06-29 10:50:42.031250,-97.89,87.1
241602,2018-06-29 10:50:42.062500,-72.46,87.1
241603,2018-06-29 10:50:42.093750,-40.91,87.1
241604,2018-06-29 10:50:42.125000,-23.8,87.1
241605,2018-06-29 10:50:42.156250,-31.73,87.1
241606,2018-06-29 10:50:42.187500,-56.33,87.1
241607,2018-06-29 10:50:42.218750,-72.93,87.1
241608,2018-06-29 10:50:42.250000,-53.22,87.1
241609,2018-06-29 10:50:42.281250,9.63,87.1
241610,2018-06-29 10:50:42.312500,87.67,87.1
241611,2018-06-29 10:50:42.343750,143.87,87.1
241612,2018-06-29 10:50:42.375000,162.54,87.1
241613,2018-06-29 10:50:42.406250,150.99,87.1
241614,2018-06-29 10:50:42.437500,124.96,87.1
241615,2018-06-29 10:50:42.468750,98.08,87.1
241616,2018-06-29 10:50:42.500000,75.78,87.1
241617,2018-06-29 10:50:42.531250,54.04,87.0
241618,2018-06-29 10:50:42.562500,30.3,87.0
241619,2018-06-29 10:50:42.593750,13.38,87.0
241620,2018-06-29 10:50:42.625000,15.16,87.0
241621,2018-06-29 10:50:42.656250,33.36,87.0
241622,2018-06-29 10:50:42.687500,50.27,87.0
241623,2018-06-29 10:50:42.718750,48.67,87.0
241624,2018-06-29 10:50:42.750000,23.18,87.0
241625,2018-06-29 10:50:42.781250,-20.72,87.0
241626,2018-06-29 10:50:42.812500,-72.84,87.0
241627,2018-06-29 10:50:42.843750,-123.16,87.0
241628,2018-06-29 10:50:42.875000,-160.76,87.0
241629,2018-06-29 10:50:42.906250,-170.02,87.0
241630,2018-06-29 10:50:42.937500,-140.44,87.0
241631,2018-06-29 10:50:42.968750,-83.72,87.0
241632,2018-06-29 10:50:43.000000,-25.74,87.0
241633,2018-06-29 10:50:43.031250,17.92,87.0
241634,2018-06-29 10:50:43.062500,46.63,87.0
241635,2018-06-29 10:50:43.093750,62.56,87.0
241636,2018-06-29 10:50:43.125000,69.66,87.0
241637,2018-06-29 10:50:43.156250,75.87,87.0
241638,2018-06-29 10:50:43.187500,84.36,87.0
241639,2018-06-29 10:50:43.218750,92.5,87.0
241640,2018-06-29 10:50:43.250000,96.62,87.0
241641,2018-06-29 10:50:43.281250,94.94,87.0
241642,2018-06-29 10:50:43.312500,85.78,87.0
241643,2018-06-29 10:50:43.343750,71.15,87.0
241644,2018-06-29 10:50:43.375000,54.4,87.0
241645,2018-06-29 10:50:43.406250,35.14,87.0
241646,2018-06-29 10:50:43.437500,11.91,87.0
241647,2018-06-29 10:50:43.468750,-18.63,87.0
241648,2018-06-29 10:50:43.500000,-56.82,87.0
241649,2018-06-29 10:50:43.531250,-96.67,86.9
241650,2018-06-29 10:50:43.562500,-124.73,86.9
241651,2018-06-29 10:50:43.593750,-137.99,86.9
241652,2018-06-29 10:50:43.625000,-142.91,86.9
241653,2018-06-29 10:50:43.656250,-123.36,86.9
241654,2018-06-29 10:50:43.687500,-86.98,86.9
241655,2018-06-29 10:50:43.718750,-48.14,86.9
241656,2018-06-29 10:50:43.750000,-8.52,86.9
241657,2018-06-29 10:50:43.781250,23.81,86.9
241658,2018-06-29 10:50:43.812500,33.8,86.9
241659,2018-06-29 10:50:43.843750,22.96,86.9
241660,2018-06-29 10:50:43.875000,5.36,86.9
241661,2018-06-29 10:50:43.906250,-8.87,86.9
241662,2018-06-29 10:50:43.937500,-14.49,86.9
241663,2018-06-29 10:50:43.968750,-6.58,86.9
241664,2018-06-29 10:50:44.000000,18.0,86.9
241665,2018-06-29 10:50:44.031250,51.3,86.9
241666,2018-06-29 10:50:44.062500,81.68,86.9
241667,2018-06-29 10:50:44.093750,101.06,86.9
241668,2018-06-29 10:50:44.125000,108.24,86.9
241669,2018-06-29 10:50:44.156250,100.92,86.9
241670,2018-06-29 10:50:44.187500,71.93,86.9
241671,2018-06-29 10:50:44.218750,23.42,86.9
241672,2018-06-29 10:50:44.250000,-23.48,86.9
241673,2018-06-29 10:50:44.281250,-47.0,86.9
241674,2018-06-29 10:50:44.312500,-42.54,86.9
241675,2018-06-29 10:50:44.343750,-25.97,86.9
241676,2018-06-29 10:50:44.375000,-20.63,86.9
241677,2018-06-29 10:50:44.406250,-37.6,86.9
241678,2018-06-29 10:50:44.437500,-67.3,86.9
241679,2018-06-29 10:50:44.468750,-89.08,86.9
241680,2018-06-29 10:50:44.500000,-86.94,86.9
241681,2018-06-29 10:50:44.531250,-62.72,86.8
241682,2018-06-29 10:50:44.562500,-30.6,86.8
241683,2018-06-29 10:50:44.593750,-7.19,86.8
241684,2018-06-29 10:50:44.625000,10.51,86.8
241685,2018-06-29 10:50:44.656250,29.3,86.8
241686,2018-06-29 10:50:44.687500,43.73,86.8
241687,2018-06-29 10:50:44.718750,44.17,86.8
241688,2018-06-29 10:50:44.750000,32.75,86.8
241689,2018-06-29 10:50:44.781250,21.24,86.8
241690,2018-06-29 10:50:44.812500,17.94,86.8
241691,2018-06-29 10:50:44.843750,21.78,86.8
241692,2018-06-29 10:50:44.875000,27.46,86.8
241693,2018-06-29 10:50:44.906250,31.92,86.8
241694,2018-06-29 10:50:44.937500,32.49,86.8
241695,2018-06-29 10:50:44.968750,25.52,86.8
241696,2018-06-29 10:50:45.000000,10.13,86.8
241697,2018-06-29 10:50:45.031250,-7.56,86.8
241698,2018-06-29 10:50:45.062500,-20.02,86.8
241699,2018-06-29 10:50:45.093750,-25.64,86.8
241700,2018-06-29 10:50:45.125000,-28.05,86.8
241701,2018-06-29 10:50:45.156250,-29.12,86.8
241702,2018-06-29 10:50:45.187500,-29.65,86.8
241703,2018-06-29 10:50:45.218750,-28.89,86.8
241704,2018-06-29 10:50:45.250000,-16.48,86.8
241705,2018-06-29 10:50:45.281250,20.65,86.8
241706,2018-06-29 10:50:45.312500,78.09,86.8
241707,2018-06-29 10:50:45.343750,133.49,86.8
241708,2018-06-29 10:50:45.375000,168.27,86.8
241709,2018-06-29 10:50:45.406250,176.93,86.8
241710,2018-06-29 10:50:45.437500,166.79,86.8
241711,2018-06-29 10:50:45.468750,159.85,86.8
241712,2018-06-29 10:50:45.500000,181.22,86.8
241713,2018-06-29 10:50:45.531250,222.21,86.7
241714,2018-06-29 10:50:45.562500,232.48,86.7
241715,2018-06-29 10:50:45.593750,173.99,86.7
241716,2018-06-29 10:50:45.625000,65.26,86.7
241717,2018-06-29 10:50:45.656250,-31.72,86.7
241718,2018-06-29 10:50:45.687500,-78.63,86.7
241719,2018-06-29 10:50:45.718750,-91.2,86.7
241720,2018-06-29 10:50:45.750000,-88.09,86.7
241721,2018-06-29 10:50:45.781250,-61.63,86.7
241722,2018-06-29 10:50:45.812500,-7.74,86.7
241723,2018-06-29 10:50:45.843750,57.73,86.7
241724,2018-06-29 10:50:45.875000,113.42,86.7
241725,2018-06-29 10:50:45.906250,136.9,86.7
241726,2018-06-29 10:50:45.937500,114.32,86.7
241727,2018-06-29 10:50:45.968750,58.36,86.7
241728,2018-06-29 10:50:46.000000,1.63,86.7
241729,2018-06-29 10:50:46.031250,-34.67,86.7
241730,2018-06-29 10:50:46.062500,-48.93,86.7
241731,2018-06-29 10:50:46.093750,-48.23,86.7
241732,2018-06-29 10:50:46.125000,-45.83,86.7
241733,2018-06-29 10:50:46.156250,-55.74,86.7
241734,2018-06-29 10:50:46.187500,-80.11,86.7
241735,2018-06-29 10:50:46.218750,-109.32,86.7
241736,2018-06-29 10:50:46.250000,-138.3,86.7
241737,2018-06-29 10:50:46.281250,-172.96,86.7
241738,2018-06-29 10:50:46.312500,-220.45,86.7
241739,2018-06-29 10:50:46.343750,-282.4,86.7
241740,2018-06-29 10:50:46.375000,-347.99,86.7
241741,2018-06-29 10:50:46.406250,-385.66,86.7
241742,2018-06-29 10:50:46.437500,-368.54,86.7
241743,2018-06-29 10:50:46.468750,-311.09,86.7
241744,2018-06-29 10:50:46.500000,-252.02,86.7
241745,2018-06-29 10:50:46.531250,-207.29,86.58
241746,2018-06-29 10:50:46.562500,-171.69,86.58
241747,2018-06-29 10:50:46.593750,-147.14,86.58
241748,2018-06-29 10:50:46.625000,-137.24,86.58
241749,2018-06-29 10:50:46.656250,-132.08,86.58
241750,2018-06-29 10:50:46.687500,-120.08,86.58
241751,2018-06-29 10:50:46.718750,-109.76,86.58
241752,2018-06-29 10:50:46.750000,-113.42,86.58
241753,2018-06-29 10:50:46.781250,-123.45,86.58
241754,2018-06-29 10:50:46.812500,-118.56,86.58
241755,2018-06-29 10:50:46.843750,-99.05,86.58
241756,2018-06-29 10:50:46.875000,-82.43,86.58
241757,2018-06-29 10:50:46.906250,-67.37,86.58
241758,2018-06-29 10:50:46.937500,-44.71,86.58
241759,2018-06-29 10:50:46.968750,-24.1,86.58
241760,2018-06-29 10:50:47.000000,-27.06,86.58
241761,2018-06-29 10:50:47.031250,-38.14,86.58
241762,2018-06-29 10:50:47.062500,-23.94,86.58
241763,2018-06-29 10:50:47.093750,32.93,86.58
241764,2018-06-29 10:50:47.125000,121.18,86.58
241765,2018-06-29 10:50:47.156250,213.71,86.58
241766,2018-06-29 10:50:47.187500,281.55,86.58
241767,2018-06-29 10:50:47.218750,261.84,86.58
241768,2018-06-29 10:50:47.250000,172.72,86.58
241769,2018-06-29 10:50:47.281250,92.05,86.58
241770,2018-06-29 10:50:47.312500,36.41,86.58
241771,2018-06-29 10:50:47.343750,4.83,86.58
241772,2018-06-29 10:50:47.375000,-4.32,86.58
241773,2018-06-29 10:50:47.406250,0.74,86.58
241774,2018-06-29 10:50:47.437500,19.23,86.58
241775,2018-06-29 10:50:47.468750,57.51,86.58
241776,2018-06-29 10:50:47.500000,101.44,86.58
241777,2018-06-29 10:50:47.531250,136.33,86.47
241778,2018-06-29 10:50:47.562500,156.0,86.47
241779,2018-06-29 10:50:47.593750,167.84,86.47
241780,2018-06-29 10:50:47.625000,157.33,86.47
241781,2018-06-29 10:50:47.656250,113.38,86.47
241782,2018-06-29 10:50:47.687500,51.47,86.47
241783,2018-06-29 10:50:47.718750,5.1,86.47
241784,2018-06-29 10:50:47.750000,-6.45,86.47
241785,2018-06-29 10:50:47.781250,10.81,86.47
241786,2018-06-29 10:50:47.812500,59.86,86.47
241787,2018-06-29 10:50:47.843750,136.58,86.47
241788,2018-06-29 10:50:47.875000,239.26,86.47
241789,2018-06-29 10:50:47.906250,321.36,86.47
241790,2018-06-29 10:50:47.937500,331.74,86.47
241791,2018-06-29 10:50:47.968750,267.66,86.47
241792,2018-06-29 10:50:48.000000,206.78,86.47
241793,2018-06-29 10:50:48.031250,223.23,86.47
241794,2018-06-29 10:50:48.062500,292.01,86.47
241795,2018-06-29 10:50:48.093750,363.28,86.47
241796,2018-06-29 10:50:48.125000,292.9,86.47
241797,2018-06-29 10:50:48.156250,84.73,86.47
241798,2018-06-29 10:50:48.187500,-68.61,86.47
241799,2018-06-29 10:50:48.218750,-152.15,86.47
241800,2018-06-29 10:50:48.250000,-202.48,86.47
241801,2018-06-29 10:50:48.281250,-218.2,86.47
241802,2018-06-29 10:50:48.312500,-214.51,86.47
241803,2018-06-29 10:50:48.343750,-235.92,86.47
241804,2018-06-29 10:50:48.375000,-276.83,86.47
241805,2018-06-29 10:50:48.406250,-309.68,86.47
241806,2018-06-29 10:50:48.437500,-303.06,86.47
241807,2018-06-29 10:50:48.468750,-263.13,86.47
241808,2018-06-29 10:50:48.500000,-206.43,86.47
241809,2018-06-29 10:50:48.531250,-143.17,86.47
241810,2018-06-29 10:50:48.562500,-76.24,86.47
241811,2018-06-29 10:50:48.593750,-10.19,86.47
241812,2018-06-29 10:50:48.625000,34.93,86.47
241813,2018-06-29 10:50:48.656250,53.72,86.47
241814,2018-06-29 10:50:48.687500,58.71,86.47
241815,2018-06-29 10:50:48.718750,63.81,86.47
241816,2018-06-29 10:50:48.750000,68.79,86.47
241817,2018-06-29 10:50:48.781250,72.76,86.47
241818,2018-06-29 10:50:48.812500,74.12,86.47
241819,2018-06-29 10:50:48.843750,73.04,86.47
241820,2018-06-29 10:50:48.875000,73.16,86.47
241821,2018-06-29 10:50:48.906250,69.99,86.47
241822,2018-06-29 10:50:48.937500,55.93,86.47
241823,2018-06-29 10:50:48.968750,20.04,86.47
241824,2018-06-29 10:50:49.000000,-28.19,86.47
241825,2018-06-29 10:50:49.031250,-76.48,86.47
241826,2018-06-29 10:50:49.062500,-102.5,86.47
241827,2018-06-29 10:50:49.093750,-102.58,86.47
241828,2018-06-29 10:50:49.125000,-93.47,86.47
241829,2018-06-29 10:50:49.156250,-55.65,86.47
241830,2018-06-29 10:50:49.187500,24.32,86.47
241831,2018-06-29 10:50:49.218750,133.35,86.47
241832,2018-06-29 10:50:49.250000,234.23,86.47
241833,2018-06-29 10:50:49.281250,296.07,86.47
241834,2018-06-29 10:50:49.312500,297.12,86.47
241835,2018-06-29 10:50:49.343750,198.51,86.47
241836,2018-06-29 10:50:49.375000,107.23,86.47
241837,2018-06-29 10:50:49.406250,35.86,86.47
241838,2018-06-29 10:50:49.437500,-42.64,86.47
241839,2018-06-29 10:50:49.468750,-117.67,86.47
241840,2018-06-29 10:50:49.500000,-166.06,86.47
241841,2018-06-29 10:50:49.531250,-190.39,86.4
241842,2018-06-29 10:50:49.562500,-202.6,86.4
241843,2018-06-29 10:50:49.593750,-184.04,86.4
241844,2018-06-29 10:50:49.625000,-138.7,86.4
241845,2018-06-29 10:50:49.656250,-108.86,86.4
241846,2018-06-29 10:50:49.687500,-86.92,86.4
241847,2018-06-29 10:50:49.718750,-61.78,86.4
241848,2018-06-29 10:50:49.750000,-47.32,86.4
241849,2018-06-29 10:50:49.781250,-53.6,86.4
241850,2018-06-29 10:50:49.812500,-70.07,86.4
241851,2018-06-29 10:50:49.843750,-68.88,86.4
241852,2018-06-29 10:50:49.875000,-28.64,86.4
241853,2018-06-29 10:50:49.906250,36.92,86.4
241854,2018-06-29 10:50:49.937500,101.26,86.4
241855,2018-06-29 10:50:49.968750,140.43,86.4
241856,2018-06-29 10:50:50.000000,151.28,86.4
241857,2018-06-29 10:50:50.031250,141.9,86.4
241858,2018-06-29 10:50:50.062500,122.2,86.4
241859,2018-06-29 10:50:50.093750,98.74,86.4
241860,2018-06-29 10:50:50.125000,70.67,86.4
241861,2018-06-29 10:50:50.156250,37.64,86.4
241862,2018-06-29 10:50:50.187500,2.31,86.4
241863,2018-06-29 10:50:50.218750,-28.14,86.4
241864,2018-06-29 10:50:50.250000,-54.07,86.4
241865,2018-06-29 10:50:50.281250,-82.75,86.4
241866,2018-06-29 10:50:50.312500,-115.09,86.4
241867,2018-06-29 10:50:50.343750,-143.55,86.4
241868,2018-06-29 10:50:50.375000,-161.58,86.4
241869,2018-06-29 10:50:50.406250,-168.67,86.4
241870,2018-06-29 10:50:50.437500,-167.23,86.4
241871,2018-06-29 10:50:50.468750,-158.83,86.4
241872,2018-06-29 10:50:50.500000,-134.23,86.4
241873,2018-06-29 10:50:50.531250,-77.7,86.35
241874,2018-06-29 10:50:50.562500,10.71,86.35
241875,2018-06-29 10:50:50.593750,108.14,86.35
241876,2018-06-29 10:50:50.625000,190.09,86.35
241877,2018-06-29 10:50:50.656250,241.8,86.35
241878,2018-06-29 10:50:50.687500,255.75,86.35
241879,2018-06-29 10:50:50.718750,235.68,86.35
241880,2018-06-29 10:50:50.750000,191.31,86.35
241881,2018-06-29 10:50:50.781250,129.31,86.35
241882,2018-06-29 10:50:50.812500,55.66,86.35
241883,2018-06-29 10:50:50.843750,-9.53,86.35
241884,2018-06-29 10:50:50.875000,-45.49,86.35
241885,2018-06-29 10:50:50.906250,-48.89,86.35
241886,2018-06-29 10:50:50.937500,-33.03,86.35
241887,2018-06-29 10:50:50.968750,-14.99,86.35
241888,2018-06-29 10:50:51.000000,-5.03,86.35
241889,2018-06-29 10:50:51.031250,-16.91,86.35
241890,2018-06-29 10:50:51.062500,-53.19,86.35
241891,2018-06-29 10:50:51.093750,-113.09,86.35
241892,2018-06-29 10:50:51.125000,-207.54,86.35
241893,2018-06-29 10:50:51.156250,-312.08,86.35
241894,2018-06-29 10:50:51.187500,-372.53,86.35
241895,2018-06-29 10:50:51.218750,-351.31,86.35
241896,2018-06-29 10:50:51.250000,-261.33,86.35
241897,2018-06-29 10:50:51.281250,-143.83,86.35
241898,2018-06-29 10:50:51.312500,-33.31,86.35
241899,2018-06-29 10:50:51.343750,59.54,86.35
241900,2018-06-29 10:50:51.375000,136.91,86.35
241901,2018-06-29 10:50:51.406250,207.29,86.35
241902,2018-06-29 10:50:51.437500,275.58,86.35
241903,2018-06-29 10:50:51.468750,333.23,86.35
241904,2018-06-29 10:50:51.500000,357.43,86.35
241905,2018-06-29 10:50:51.531250,329.98,86.32
241906,2018-06-29 10:50:51.562500,259.22,86.32
241907,2018-06-29 10:50:51.593750,171.37,86.32
241908,2018-06-29 10:50:51.625000,89.51,86.32
241909,2018-06-29 10:50:51.656250,26.47,86.32
241910,2018-06-29 10:50:51.687500,-10.48,86.32
241911,2018-06-29 10:50:51.718750,-22.4,86.32
241912,2018-06-29 10:50:51.750000,-20.75,86.32
241913,2018-06-29 10:50:51.781250,-21.29,86.32
241914,2018-06-29 10:50:51.812500,-32.09,86.32
241915,2018-06-29 10:50:51.843750,-44.08,86.32
241916,2018-06-29 10:50:51.875000,-38.89,86.32
241917,2018-06-29 10:50:51.906250,-12.08,86.32
241918,2018-06-29 10:50:51.937500,17.89,86.32
241919,2018-06-29 10:50:51.968750,30.18,86.32
241920,2018-06-29 10:50:52.000000,20.69,86.32
241921,2018-06-29 10:50:52.031250,-4.27,86.32
241922,2018-06-29 10:50:52.062500,-38.37,86.32
241923,2018-06-29 10:50:52.093750,-72.9,86.32
241924,2018-06-29 10:50:52.125000,-96.35,86.32
241925,2018-06-29 10:50:52.156250,-100.53,86.32
241926,2018-06-29 10:50:52.187500,-82.13,86.32
241927,2018-06-29 10:50:52.218750,-39.68,86.32
241928,2018-06-29 10:50:52.250000,23.6,86.32
241929,2018-06-29 10:50:52.281250,93.49,86.32
241930,2018-06-29 10:50:52.312500,145.57,86.32
241931,2018-06-29 10:50:52.343750,156.72,86.32
241932,2018-06-29 10:50:52.375000,120.04,86.32
241933,2018-06-29 10:50:52.406250,48.3,86.32
241934,2018-06-29 10:50:52.437500,-39.22,86.32
241935,2018-06-29 10:50:52.468750,-129.42,86.32
241936,2018-06-29 10:50:52.500000,-211.94,86.32
241937,2018-06-29 10:50:52.531250,-270.01,86.25
241938,2018-06-29 10:50:52.562500,-285.08,86.25
241939,2018-06-29 10:50:52.593750,-251.75,86.25
241940,2018-06-29 10:50:52.625000,-183.61,86.25
241941,2018-06-29 10:50:52.656250,-101.68,86.25
241942,2018-06-29 10:50:52.687500,-19.24,86.25
241943,2018-06-29 10:50:52.718750,61.17,86.25
241944,2018-06-29 10:50:52.750000,137.99,86.25
241945,2018-06-29 10:50:52.781250,203.2,86.25
241946,2018-06-29 10:50:52.812500,246.11,86.25
241947,2018-06-29 10:50:52.843750,261.9,86.25
241948,2018-06-29 10:50:52.875000,253.57,86.25
241949,2018-06-29 10:50:52.906250,229.57,86.25
241950,2018-06-29 10:50:52.937500,199.82,86.25
241951,2018-06-29 10:50:52.968750,166.62,86.25
241952,2018-06-29 10:50:53.000000,122.21,86.25
241953,2018-06-29 10:50:53.031250,58.34,86.25
241954,2018-06-29 10:50:53.062500,-21.01,86.25
241955,2018-06-29 10:50:53.093750,-103.52,86.25
241956,2018-06-29 10:50:53.125000,-178.42,86.25
241957,2018-06-29 10:50:53.156250,-241.18,86.25
241958,2018-06-29 10:50:53.187500,-292.2,86.25
241959,2018-06-29 10:50:53.218750,-325.73,86.25
241960,2018-06-29 10:50:53.250000,-328.18,86.25
241961,2018-06-29 10:50:53.281250,-288.87,86.25
241962,2018-06-29 10:50:53.312500,-219.18,86.25
241963,2018-06-29 10:50:53.343750,-141.97,86.25
241964,2018-06-29 10:50:53.375000,-71.36,86.25
241965,2018-06-29 10:50:53.406250,-8.9,86.25
241966,2018-06-29 10:50:53.437500,42.99,86.25
241967,2018-06-29 10:50:53.468750,72.47,86.25
241968,2018-06-29 10:50:53.500000,86.04,86.25
241969,2018-06-29 10:50:53.531250,85.6,86.2
241970,2018-06-29 10:50:53.562500,64.69,86.2
241971,2018-06-29 10:50:53.593750,27.1,86.2
241972,2018-06-29 10:50:53.625000,-24.48,86.2
241973,2018-06-29 10:50:53.656250,-81.8,86.2
241974,2018-06-29 10:50:53.687500,-141.95,86.2
241975,2018-06-29 10:50:53.718750,-179.71,86.2
241976,2018-06-29 10:50:53.750000,-165.65,86.2
241977,2018-06-29 10:50:53.781250,-104.23,86.2
241978,2018-06-29 10:50:53.812500,-26.95,86.2
241979,2018-06-29 10:50:53.843750,34.84,86.2
241980,2018-06-29 10:50:53.875000,74.99,86.2
241981,2018-06-29 10:50:53.906250,90.2,86.2
241982,2018-06-29 10:50:53.937500,87.49,86.2
241983,2018-06-29 10:50:53.968750,93.49,86.2
241984,2018-06-29 10:50:54.000000,141.01,86.2
241985,2018-06-29 10:50:54.031250,238.32,86.2
241986,2018-06-29 10:50:54.062500,354.45,86.2
241987,2018-06-29 10:50:54.093750,455.09,86.2
241988,2018-06-29 10:50:54.125000,437.36,86.2
241989,2018-06-29 10:50:54.156250,260.79,86.2
241990,2018-06-29 10:50:54.187500,69.51,86.2
241991,2018-06-29 10:50:54.218750,-62.7,86.2
241992,2018-06-29 10:50:54.250000,-143.63,86.2
241993,2018-06-29 10:50:54.281250,-179.8,86.2
241994,2018-06-29 10:50:54.312500,-177.07,86.2
241995,2018-06-29 10:50:54.343750,-166.37,86.2
241996,2018-06-29 10:50:54.375000,-167.65,86.2
241997,2018-06-29 10:50:54.406250,-174.17,86.2
241998,2018-06-29 10:50:54.437500,-163.75,86.2
241999,2018-06-29 10:50:54.468750,-137.28,86.2
242000,2018-06-29 10:50:54.500000,-109.58,86.2
242001,2018-06-29 10:50:54.531250,-89.62,86.17
242002,2018-06-29 10:50:54.562500,-76.64,86.17
242003,2018-06-29 10:50:54.593750,-59.3,86.17
242004,2018-06-29 10:50:54.625000,-28.45,86.17
242005,2018-06-29 10:50:54.656250,24.77,86.17
242006,2018-06-29 10:50:54.687500,92.83,86.17
242007,2018-06-29 10:50:54.718750,152.86,86.17
242008,2018-06-29 10:50:54.750000,182.59,86.17
242009,2018-06-29 10:50:54.781250,179.8,86.17
242010,2018-06-29 10:50:54.812500,154.32,86.17
242011,2018-06-29 10:50:54.843750,116.85,86.17
242012,2018-06-29 10:50:54.875000,78.52,86.17
242013,2018-06-29 10:50:54.906250,46.41,86.17
242014,2018-06-29 10:50:54.937500,22.76,86.17
242015,2018-06-29 10:50:54.968750,5.82,86.17
242016,2018-06-29 10:50:55.000000,-1.96,86.17
242017,2018-06-29 10:50:55.031250,-2.11,86.17
242018,2018-06-29 10:50:55.062500,1.42,86.17
242019,2018-06-29 10:50:55.093750,2.24,86.17
242020,2018-06-29 10:50:55.125000,-1.75,86.17
242021,2018-06-29 10:50:55.156250,-14.75,86.17
242022,2018-06-29 10:50:55.187500,-53.81,86.17
242023,2018-06-29 10:50:55.218750,-95.43,86.17
242024,2018-06-29 10:50:55.250000,-105.78,86.17
242025,2018-06-29 10:50:55.281250,-65.25,86.17
242026,2018-06-29 10:50:55.312500,27.93,86.17
242027,2018-06-29 10:50:55.343750,147.83,86.17
242028,2018-06-29 10:50:55.375000,228.3,86.17
242029,2018-06-29 10:50:55.406250,191.46,86.17
242030,2018-06-29 10:50:55.437500,74.74,86.17
242031,2018-06-29 10:50:55.468750,-28.19,86.17
242032,2018-06-29 10:50:55.500000,-85.36,86.17
242033,2018-06-29 10:50:55.531250,-114.61,86.13
242034,2018-06-29 10:50:55.562500,-116.84,86.13
242035,2018-06-29 10:50:55.593750,-93.31,86.13
242036,2018-06-29 10:50:55.625000,-58.93,86.13
242037,2018-06-29 10:50:55.656250,-30.23,86.13
242038,2018-06-29 10:50:55.687500,-18.08,86.13
242039,2018-06-29 10:50:55.718750,-21.69,86.13
242040,2018-06-29 10:50:55.750000,-37.82,86.13
242041,2018-06-29 10:50:55.781250,-53.2,86.13
242042,2018-06-29 10:50:55.812500,-51.63,86.13
242043,2018-06-29 10:50:55.843750,-36.99,86.13
242044,2018-06-29 10:50:55.875000,-36.2,86.13
242045,2018-06-29 10:50:55.906250,-53.47,86.13
242046,2018-06-29 10:50:55.937500,-61.91,86.13
242047,2018-06-29 10:50:55.968750,-44.87,86.13
242048,2018-06-29 10:50:56.000000,-9.78,86.13
242049,2018-06-29 10:50:56.031250,28.26,86.13
242050,2018-06-29 10:50:56.062500,53.77,86.13
242051,2018-06-29 10:50:56.093750,56.6,86.13
242052,2018-06-29 10:50:56.125000,46.78,86.13
242053,2018-06-29 10:50:56.156250,37.84,86.13
242054,2018-06-29 10:50:56.187500,27.96,86.13
242055,2018-06-29 10:50:56.218750,12.38,86.13
242056,2018-06-29 10:50:56.250000,-4.97,86.13
242057,2018-06-29 10:50:56.281250,-10.29,86.13
242058,2018-06-29 10:50:56.312500,3.48,86.13
242059,2018-06-29 10:50:56.343750,26.82,86.13
242060,2018-06-29 10:50:56.375000,42.61,86.13
242061,2018-06-29 10:50:56.406250,44.67,86.13
242062,2018-06-29 10:50:56.437500,46.08,86.13
242063,2018-06-29 10:50:56.468750,61.89,86.13
242064,2018-06-29 10:50:56.500000,83.38,86.13
242065,2018-06-29 10:50:56.531250,64.98,86.15
242066,2018-06-29 10:50:56.562500,-10.89,86.15
242067,2018-06-29 10:50:56.593750,-88.28,86.15
242068,2018-06-29 10:50:56.625000,-131.37,86.15
242069,2018-06-29 10:50:56.656250,-137.47,86.15
242070,2018-06-29 10:50:56.687500,-107.98,86.15
242071,2018-06-29 10:50:56.718750,-61.02,86.15
242072,2018-06-29 10:50:56.750000,-27.61,86.15
242073,2018-06-29 10:50:56.781250,-17.12,86.15
242074,2018-06-29 10:50:56.812500,-14.78,86.15
242075,2018-06-29 10:50:56.843750,-5.57,86.15
242076,2018-06-29 10:50:56.875000,4.01,86.15
242077,2018-06-29 10:50:56.906250,4.31,86.15
242078,2018-06-29 10:50:56.937500,10.54,86.15
242079,2018-06-29 10:50:56.968750,43.95,86.15
242080,2018-06-29 10:50:57.000000,90.36,86.15
242081,2018-06-29 10:50:57.031250,106.92,86.15
242082,2018-06-29 10:50:57.062500,73.22,86.15
242083,2018-06-29 10:50:57.093750,9.37,86.15
242084,2018-06-29 10:50:57.125000,-53.2,86.15
242085,2018-06-29 10:50:57.156250,-98.8,86.15
242086,2018-06-29 10:50:57.187500,-126.32,86.15
242087,2018-06-29 10:50:57.218750,-136.28,86.15
242088,2018-06-29 10:50:57.250000,-123.66,86.15
242089,2018-06-29 10:50:57.281250,-83.02,86.15
242090,2018-06-29 10:50:57.312500,-20.42,86.15
242091,2018-06-29 10:50:57.343750,47.17,86.15
242092,2018-06-29 10:50:57.375000,106.11,86.15
242093,2018-06-29 10:50:57.406250,149.61,86.15
242094,2018-06-29 10:50:57.437500,168.83,86.15
242095,2018-06-29 10:50:57.468750,154.22,86.15
242096,2018-06-29 10:50:57.500000,107.75,86.15
242097,2018-06-29 10:50:57.531250,45.11,86.15
242098,2018-06-29 10:50:57.562500,-12.69,86.15
242099,2018-06-29 10:50:57.593750,-44.65,86.15
242100,2018-06-29 10:50:57.625000,-41.7,86.15
242101,2018-06-29 10:50:57.656250,-21.83,86.15
242102,2018-06-29 10:50:57.687500,-18.76,86.15
242103,2018-06-29 10:50:57.718750,-48.28,86.15
242104,2018-06-29 10:50:57.750000,-96.75,86.15
242105,2018-06-29 10:50:57.781250,-142.35,86.15
242106,2018-06-29 10:50:57.812500,-173.17,86.15
242107,2018-06-29 10:50:57.843750,-186.27,86.15
242108,2018-06-29 10:50:57.875000,-178.58,86.15
242109,2018-06-29 10:50:57.906250,-145.54,86.15
242110,2018-06-29 10:50:57.937500,-88.97,86.15
242111,2018-06-29 10:50:57.968750,-20.49,86.15
242112,2018-06-29 10:50:58.000000,46.58,86.15
242113,2018-06-29 10:50:58.031250,105.5,86.15
242114,2018-06-29 10:50:58.062500,150.26,86.15
242115,2018-06-29 10:50:58.093750,177.75,86.15
242116,2018-06-29 10:50:58.125000,193.33,86.15
242117,2018-06-29 10:50:58.156250,208.79,86.15
242118,2018-06-29 10:50:58.187500,228.33,86.15
242119,2018-06-29 10:50:58.218750,247.54,86.15
242120,2018-06-29 10:50:58.250000,258.3,86.15
242121,2018-06-29 10:50:58.281250,243.16,86.15
242122,2018-06-29 10:50:58.312500,188.5,86.15
242123,2018-06-29 10:50:58.343750,101.78,86.15
242124,2018-06-29 10:50:58.375000,12.59,86.15
242125,2018-06-29 10:50:58.406250,-65.58,86.15
242126,2018-06-29 10:50:58.437500,-143.58,86.15
242127,2018-06-29 10:50:58.468750,-196.85,86.15
242128,2018-06-29 10:50:58.500000,-209.18,86.15
242129,2018-06-29 10:50:58.531250,-183.97,86.15
242130,2018-06-29 10:50:58.562500,-129.19,86.15
242131,2018-06-29 10:50:58.593750,-57.97,86.15
242132,2018-06-29 10:50:58.625000,-1.16,86.15
242133,2018-06-29 10:50:58.656250,21.93,86.15
242134,2018-06-29 10:50:58.687500,26.54,86.15
242135,2018-06-29 10:50:58.718750,35.5,86.15
242136,2018-06-29 10:50:58.750000,54.68,86.15
242137,2018-06-29 10:50:58.781250,62.05,86.15
242138,2018-06-29 10:50:58.812500,30.85,86.15
242139,2018-06-29 10:50:58.843750,-26.52,86.15
242140,2018-06-29 10:50:58.875000,-75.34,86.15
242141,2018-06-29 10:50:58.906250,-97.79,86.15
242142,2018-06-29 10:50:58.937500,-101.16,86.15
242143,2018-06-29 10:50:58.968750,-96.39,86.15
242144,2018-06-29 10:50:59.000000,-88.1,86.15
242145,2018-06-29 10:50:59.031250,-81.63,86.15
242146,2018-06-29 10:50:59.062500,-76.71,86.15
242147,2018-06-29 10:50:59.093750,-66.15,86.15
242148,2018-06-29 10:50:59.125000,-45.93,86.15
242149,2018-06-29 10:50:59.156250,-21.57,86.15
242150,2018-06-29 10:50:59.187500,-4.58,86.15
242151,2018-06-29 10:50:59.218750,-1.45,86.15
242152,2018-06-29 10:50:59.250000,-5.79,86.15
242153,2018-06-29 10:50:59.281250,-3.87,86.15
242154,2018-06-29 10:50:59.312500,10.91,86.15
242155,2018-06-29 10:50:59.343750,34.13,86.15
242156,2018-06-29 10:50:59.375000,59.88,86.15
242157,2018-06-29 10:50:59.406250,79.76,86.15
242158,2018-06-29 10:50:59.437500,91.13,86.15
242159,2018-06-29 10:50:59.468750,96.9,86.15
242160,2018-06-29 10:50:59.500000,100.53,86.15
242161,2018-06-29 10:50:59.531250,99.72,86.15
242162,2018-06-29 10:50:59.562500,92.06,86.15
242163,2018-06-29 10:50:59.593750,82.5,86.15
242164,2018-06-29 10:50:59.625000,77.66,86.15
242165,2018-06-29 10:50:59.656250,77.25,86.15
242166,2018-06-29 10:50:59.687500,78.32,86.15
242167,2018-06-29 10:50:59.718750,78.99,86.15
242168,2018-06-29 10:50:59.750000,73.72,86.15
242169,2018-06-29 10:50:59.781250,54.38,86.15
242170,2018-06-29 10:50:59.812500,17.66,86.15
242171,2018-06-29 10:50:59.843750,-31.84,86.15
242172,2018-06-29 10:50:59.875000,-84.35,86.15
242173,2018-06-29 10:50:59.906250,-126.57,86.15
242174,2018-06-29 10:50:59.937500,-145.41,86.15
242175,2018-06-29 10:50:59.968750,-137.47,86.15
242176,2018-06-29 10:51:00.000000,-114.49,86.15
242177,2018-06-29 10:51:00.031250,-94.15,86.15
242178,2018-06-29 10:51:00.062500,-84.98,86.15
242179,2018-06-29 10:51:00.093750,-84.09,86.15
242180,2018-06-29 10:51:00.125000,-84.13,86.15
242181,2018-06-29 10:51:00.156250,-77.79,86.15
242182,2018-06-29 10:51:00.187500,-61.45,86.15
242183,2018-06-29 10:51:00.218750,-38.11,86.15
242184,2018-06-29 10:51:00.250000,-12.63,86.15
242185,2018-06-29 10:51:00.281250,14.38,86.15
242186,2018-06-29 10:51:00.312500,42.41,86.15
242187,2018-06-29 10:51:00.343750,62.78,86.15
242188,2018-06-29 10:51:00.375000,64.15,86.15
242189,2018-06-29 10:51:00.406250,47.29,86.15
242190,2018-06-29 10:51:00.437500,26.32,86.15
242191,2018-06-29 10:51:00.468750,13.61,86.15
242192,2018-06-29 10:51:00.500000,10.39,86.15
242193,2018-06-29 10:51:00.531250,10.86,86.15
242194,2018-06-29 10:51:00.562500,9.14,86.15
242195,2018-06-29 10:51:00.593750,3.03,86.15
242196,2018-06-29 10:51:00.625000,-4.72,86.15
242197,2018-06-29 10:51:00.656250,-10.03,86.15
242198,2018-06-29 10:51:00.687500,-12.67,86.15
242199,2018-06-29 10:51:00.718750,-15.6,86.15
242200,2018-06-29 10:51:00.750000,-19.1,86.15
242201,2018-06-29 10:51:00.781250,-17.09,86.15
242202,2018-06-29 10:51:00.812500,-2.4,86.15
242203,2018-06-29 10:51:00.843750,22.85,86.15
242204,2018-06-29 10:51:00.875000,49.1,86.15
242205,2018-06-29 10:51:00.906250,67.4,86.15
242206,2018-06-29 10:51:00.937500,66.43,86.15
242207,2018-06-29 10:51:00.968750,39.36,86.15
242208,2018-06-29 10:51:01.000000,7.62,86.15
242209,2018-06-29 10:51:01.031250,2.88,86.15
242210,2018-06-29 10:51:01.062500,18.74,86.15
242211,2018-06-29 10:51:01.093750,26.11,86.15
242212,2018-06-29 10:51:01.125000,24.91,86.15
242213,2018-06-29 10:51:01.156250,32.0,86.15
242214,2018-06-29 10:51:01.187500,40.64,86.15
242215,2018-06-29 10:51:01.218750,36.54,86.15
242216,2018-06-29 10:51:01.250000,22.72,86.15
242217,2018-06-29 10:51:01.281250,7.36,86.15
242218,2018-06-29 10:51:01.312500,-5.58,86.15
242219,2018-06-29 10:51:01.343750,-12.72,86.15
242220,2018-06-29 10:51:01.375000,-14.28,86.15
242221,2018-06-29 10:51:01.406250,-21.47,86.15
242222,2018-06-29 10:51:01.437500,-41.52,86.15
242223,2018-06-29 10:51:01.468750,-64.9,86.15
242224,2018-06-29 10:51:01.500000,-70.31,86.15
242225,2018-06-29 10:51:01.531250,-50.14,86.15
242226,2018-06-29 10:51:01.562500,-28.1,86.15
242227,2018-06-29 10:51:01.593750,-41.95,86.15
242228,2018-06-29 10:51:01.625000,-103.26,86.15
242229,2018-06-29 10:51:01.656250,-147.58,86.15
242230,2018-06-29 10:51:01.687500,-121.21,86.15
242231,2018-06-29 10:51:01.718750,-61.32,86.15
242232,2018-06-29 10:51:01.750000,-10.17,86.15
242233,2018-06-29 10:51:01.781250,26.01,86.15
242234,2018-06-29 10:51:01.812500,46.11,86.15
242235,2018-06-29 10:51:01.843750,46.58,86.15
242236,2018-06-29 10:51:01.875000,38.4,86.15
242237,2018-06-29 10:51:01.906250,35.68,86.15
242238,2018-06-29 10:51:01.937500,39.8,86.15
242239,2018-06-29 10:51:01.968750,40.31,86.15
242240,2018-06-29 10:51:02.000000,34.65,86.15
242241,2018-06-29 10:51:02.031250,29.33,86.15
242242,2018-06-29 10:51:02.062500,28.55,86.15
242243,2018-06-29 10:51:02.093750,31.5,86.15
242244,2018-06-29 10:51:02.125000,36.22,86.15
242245,2018-06-29 10:51:02.156250,42.11,86.15
242246,2018-06-29 10:51:02.187500,44.94,86.15
242247,2018-06-29 10:51:02.218750,41.82,86.15
242248,2018-06-29 10:51:02.250000,33.2,86.15
242249,2018-06-29 10:51:02.281250,20.06,86.15
242250,2018-06-29 10:51:02.312500,1.53,86.15
242251,2018-06-29 10:51:02.343750,-22.42,86.15
242252,2018-06-29 10:51:02.375000,-48.37,86.15
242253,2018-06-29 10:51:02.406250,-64.53,86.15
242254,2018-06-29 10:51:02.437500,-48.85,86.15
242255,2018-06-29 10:51:02.468750,1.2,86.15
242256,2018-06-29 10:51:02.500000,47.12,86.15
242257,2018-06-29 10:51:02.531250,55.77,86.1
242258,2018-06-29 10:51:02.562500,35.72,86.1
242259,2018-06-29 10:51:02.593750,12.41,86.1
242260,2018-06-29 10:51:02.625000,-5.46,86.1
242261,2018-06-29 10:51:02.656250,-18.78,86.1
242262,2018-06-29 10:51:02.687500,-26.91,86.1
242263,2018-06-29 10:51:02.718750,-31.98,86.1
242264,2018-06-29 10:51:02.750000,-40.94,86.1
242265,2018-06-29 10:51:02.781250,-56.47,86.1
242266,2018-06-29 10:51:02.812500,-73.85,86.1
242267,2018-06-29 10:51:02.843750,-81.49,86.1
242268,2018-06-29 10:51:02.875000,-73.46,86.1
242269,2018-06-29 10:51:02.906250,-53.29,86.1
242270,2018-06-29 10:51:02.937500,-25.33,86.1
242271,2018-06-29 10:51:02.968750,8.1,86.1
242272,2018-06-29 10:51:03.000000,32.54,86.1
242273,2018-06-29 10:51:03.031250,31.6,86.1
242274,2018-06-29 10:51:03.062500,14.05,86.1
242275,2018-06-29 10:51:03.093750,11.19,86.1
242276,2018-06-29 10:51:03.125000,31.33,86.1
242277,2018-06-29 10:51:03.156250,46.69,86.1
242278,2018-06-29 10:51:03.187500,38.15,86.1
242279,2018-06-29 10:51:03.218750,21.58,86.1
242280,2018-06-29 10:51:03.250000,16.47,86.1
242281,2018-06-29 10:51:03.281250,19.97,86.1
242282,2018-06-29 10:51:03.312500,25.3,86.1
242283,2018-06-29 10:51:03.343750,32.85,86.1
242284,2018-06-29 10:51:03.375000,36.89,86.1
242285,2018-06-29 10:51:03.406250,29.45,86.1
242286,2018-06-29 10:51:03.437500,19.34,86.1
242287,2018-06-29 10:51:03.468750,18.74,86.1
242288,2018-06-29 10:51:03.500000,16.98,86.1
242289,2018-06-29 10:51:03.531250,-3.98,86.03
242290,2018-06-29 10:51:03.562500,-32.54,86.03
242291,2018-06-29 10:51:03.593750,-38.31,86.03
242292,2018-06-29 10:51:03.625000,-17.04,86.03
242293,2018-06-29 10:51:03.656250,5.29,86.03
242294,2018-06-29 10:51:03.687500,11.87,86.03
242295,2018-06-29 10:51:03.718750,10.96,86.03
242296,2018-06-29 10:51:03.750000,12.02,86.03
242297,2018-06-29 10:51:03.781250,10.3,86.03
242298,2018-06-29 10:51:03.812500,1.01,86.03
242299,2018-06-29 10:51:03.843750,-10.39,86.03
242300,2018-06-29 10:51:03.875000,-19.45,86.03
242301,2018-06-29 10:51:03.906250,-28.3,86.03
242302,2018-06-29 10:51:03.937500,-35.56,86.03
242303,2018-06-29 10:51:03.968750,-33.99,86.03
242304,2018-06-29 10:51:04.000000,-24.98,86.03
242305,2018-06-29 10:51:04.031250,-20.9,86.03
242306,2018-06-29 10:51:04.062500,-29.03,86.03
242307,2018-06-29 10:51:04.093750,-41.85,86.03
242308,2018-06-29 10:51:04.125000,-48.19,86.03
242309,2018-06-29 10:51:04.156250,-49.8,86.03
242310,2018-06-29 10:51:04.187500,-55.51,86.03
242311,2018-06-29 10:51:04.218750,-61.7,86.03
242312,2018-06-29 10:51:04.250000,-50.92,86.03
242313,2018-06-29 10:51:04.281250,-18.56,86.03
242314,2018-06-29 10:51:04.312500,17.59,86.03
242315,2018-06-29 10:51:04.343750,39.6,86.03
242316,2018-06-29 10:51:04.375000,49.48,86.03
242317,2018-06-29 10:51:04.406250,66.27,86.03
242318,2018-06-29 10:51:04.437500,96.19,86.03
242319,2018-06-29 10:51:04.468750,128.77,86.03
242320,2018-06-29 10:51:04.500000,146.43,86.03
242321,2018-06-29 10:51:04.531250,134.14,85.95
242322,2018-06-29 10:51:04.562500,96.3,85.95
242323,2018-06-29 10:51:04.593750,58.3,85.95
242324,2018-06-29 10:51:04.625000,39.59,85.95
242325,2018-06-29 10:51:04.656250,26.73,85.95
242326,2018-06-29 10:51:04.687500,-0.37,85.95
242327,2018-06-29 10:51:04.718750,-27.03,85.95
242328,2018-06-29 10:51:04.750000,-27.67,85.95
242329,2018-06-29 10:51:04.781250,-10.06,85.95
242330,2018-06-29 10:51:04.812500,-6.29,85.95
242331,2018-06-29 10:51:04.843750,-20.15,85.95
242332,2018-06-29 10:51:04.875000,-18.17,85.95
242333,2018-06-29 10:51:04.906250,-4.11,85.95
242334,2018-06-29 10:51:04.937500,-2.96,85.95
242335,2018-06-29 10:51:04.968750,-12.74,85.95
242336,2018-06-29 10:51:05.000000,-14.87,85.95
242337,2018-06-29 10:51:05.031250,-11.85,85.95
242338,2018-06-29 10:51:05.062500,-18.33,85.95
242339,2018-06-29 10:51:05.093750,-36.5,85.95
242340,2018-06-29 10:51:05.125000,-57.33,85.95
242341,2018-06-29 10:51:05.156250,-73.49,85.95
242342,2018-06-29 10:51:05.187500,-77.03,85.95
242343,2018-06-29 10:51:05.218750,-67.55,85.95
242344,2018-06-29 10:51:05.250000,-66.24,85.95
242345,2018-06-29 10:51:05.281250,-93.35,85.95
242346,2018-06-29 10:51:05.312500,-123.48,85.95
242347,2018-06-29 10:51:05.343750,-110.76,85.95
242348,2018-06-29 10:51:05.375000,-55.86,85.95
242349,2018-06-29 10:51:05.406250,1.44,85.95
242350,2018-06-29 10:51:05.437500,37.84,85.95
242351,2018-06-29 10:51:05.468750,54.92,85.95
242352,2018-06-29 10:51:05.500000,61.43,85.95
242353,2018-06-29 10:51:05.531250,70.76,85.9
242354,2018-06-29 10:51:05.562500,94.34,85.9
242355,2018-06-29 10:51:05.593750,122.66,85.9
242356,2018-06-29 10:51:05.625000,132.42,85.9
242357,2018-06-29 10:51:05.656250,111.24,85.9
242358,2018-06-29 10:51:05.687500,68.38,85.9
242359,2018-06-29 10:51:05.718750,29.5,85.9
242360,2018-06-29 10:51:05.750000,14.44,85.9
242361,2018-06-29 10:51:05.781250,24.25,85.9
242362,2018-06-29 10:51:05.812500,41.19,85.9
242363,2018-06-29 10:51:05.843750,43.35,85.9
242364,2018-06-29 10:51:05.875000,24.62,85.9
242365,2018-06-29 10:51:05.906250,-5.22,85.9
242366,2018-06-29 10:51:05.937500,-36.03,85.9
242367,2018-06-29 10:51:05.968750,-61.75,85.9
242368,2018-06-29 10:51:06.000000,-74.43,85.9
242369,2018-06-29 10:51:06.031250,-70.52,85.9
242370,2018-06-29 10:51:06.062500,-60.68,85.9
242371,2018-06-29 10:51:06.093750,-59.48,85.9
242372,2018-06-29 10:51:06.125000,-68.01,85.9
242373,2018-06-29 10:51:06.156250,-74.29,85.9
242374,2018-06-29 10:51:06.187500,-65.51,85.9
242375,2018-06-29 10:51:06.218750,-38.12,85.9
242376,2018-06-29 10:51:06.250000,-1.56,85.9
242377,2018-06-29 10:51:06.281250,28.8,85.9
242378,2018-06-29 10:51:06.312500,47.78,85.9
242379,2018-06-29 10:51:06.343750,58.34,85.9
242380,2018-06-29 10:51:06.375000,56.34,85.9
242381,2018-06-29 10:51:06.406250,34.71,85.9
242382,2018-06-29 10:51:06.437500,2.77,85.9
242383,2018-06-29 10:51:06.468750,-20.97,85.9
242384,2018-06-29 10:51:06.500000,-30.09,85.9
242385,2018-06-29 10:51:06.531250,-31.34,85.85
242386,2018-06-29 10:51:06.562500,-28.58,85.85
242387,2018-06-29 10:51:06.593750,-20.19,85.85
242388,2018-06-29 10:51:06.625000,-10.32,85.85
242389,2018-06-29 10:51:06.656250,-5.58,85.85
242390,2018-06-29 10:51:06.687500,-9.44,85.85
242391,2018-06-29 10:51:06.718750,-13.72,85.85
242392,2018-06-29 10:51:06.750000,-10.09,85.85
242393,2018-06-29 10:51:06.781250,-1.31,85.85
242394,2018-06-29 10:51:06.812500,-2.62,85.85
242395,2018-06-29 10:51:06.843750,-25.91,85.85
242396,2018-06-29 10:51:06.875000,-55.23,85.85
242397,2018-06-29 10:51:06.906250,-49.85,85.85
242398,2018-06-29 10:51:06.937500,17.38,85.85
242399,2018-06-29 10:51:06.968750,120.8,85.85
242400,2018-06-29 10:51:07.000000,206.24,85.85
242401,2018-06-29 10:51:07.031250,227.58,85.85
242402,2018-06-29 10:51:07.062500,146.46,85.85
242403,2018-06-29 10:51:07.093750,24.42,85.85
242404,2018-06-29 10:51:07.125000,-68.38,85.85
242405,2018-06-29 10:51:07.156250,-116.86,85.85
242406,2018-06-29 10:51:07.187500,-134.79,85.85
242407,2018-06-29 10:51:07.218750,-126.1,85.85
242408,2018-06-29 10:51:07.250000,-103.64,85.85
242409,2018-06-29 10:51:07.281250,-75.61,85.85
242410,2018-06-29 10:51:07.312500,-50.17,85.85
242411,2018-06-29 10:51:07.343750,-34.69,85.85
242412,2018-06-29 10:51:07.375000,-32.26,85.85
242413,2018-06-29 10:51:07.406250,-37.79,85.85
242414,2018-06-29 10:51:07.437500,-36.94,85.85
242415,2018-06-29 10:51:07.468750,-22.07,85.85
242416,2018-06-29 10:51:07.500000,-2.24,85.85
242417,2018-06-29 10:51:07.531250,2.35,85.83
242418,2018-06-29 10:51:07.562500,-10.3,85.83
242419,2018-06-29 10:51:07.593750,-17.17,85.83
242420,2018-06-29 10:51:07.625000,3.87,85.83
242421,2018-06-29 10:51:07.656250,44.86,85.83
242422,2018-06-29 10:51:07.687500,77.82,85.83
242423,2018-06-29 10:51:07.718750,89.9,85.83
242424,2018-06-29 10:51:07.750000,94.0,85.83
242425,2018-06-29 10:51:07.781250,102.94,85.83
242426,2018-06-29 10:51:07.812500,110.8,85.83
242427,2018-06-29 10:51:07.843750,109.77,85.83
242428,2018-06-29 10:51:07.875000,103.3,85.83
242429,2018-06-29 10:51:07.906250,91.99,85.83
242430,2018-06-29 10:51:07.937500,67.49,85.83
242431,2018-06-29 10:51:07.968750,28.73,85.83
242432,2018-06-29 10:51:08.000000,-16.69,85.83
242433,2018-06-29 10:51:08.031250,-61.37,85.83
242434,2018-06-29 10:51:08.062500,-88.98,85.83
242435,2018-06-29 10:51:08.093750,-73.46,85.83
242436,2018-06-29 10:51:08.125000,-14.49,85.83
242437,2018-06-29 10:51:08.156250,43.8,85.83
242438,2018-06-29 10:51:08.187500,54.2,85.83
242439,2018-06-29 10:51:08.218750,10.36,85.83
242440,2018-06-29 10:51:08.250000,-64.82,85.83
242441,2018-06-29 10:51:08.281250,-145.17,85.83
242442,2018-06-29 10:51:08.312500,-198.18,85.83
242443,2018-06-29 10:51:08.343750,-191.63,85.83
242444,2018-06-29 10:51:08.375000,-129.94,85.83
242445,2018-06-29 10:51:08.406250,-59.1,85.83
242446,2018-06-29 10:51:08.437500,-15.99,85.83
242447,2018-06-29 10:51:08.468750,4.4,85.83
242448,2018-06-29 10:51:08.500000,19.24,85.83
242449,2018-06-29 10:51:08.531250,28.54,85.82
242450,2018-06-29 10:51:08.562500,30.97,85.82
242451,2018-06-29 10:51:08.593750,36.51,85.82
242452,2018-06-29 10:51:08.625000,48.29,85.82
242453,2018-06-29 10:51:08.656250,55.22,85.82
242454,2018-06-29 10:51:08.687500,52.01,85.82
242455,2018-06-29 10:51:08.718750,48.84,85.82
242456,2018-06-29 10:51:08.750000,53.69,85.82
242457,2018-06-29 10:51:08.781250,57.57,85.82
242458,2018-06-29 10:51:08.812500,46.92,85.82
242459,2018-06-29 10:51:08.843750,23.0,85.82
242460,2018-06-29 10:51:08.875000,-0.68,85.82
242461,2018-06-29 10:51:08.906250,-14.71,85.82
242462,2018-06-29 10:51:08.937500,-19.37,85.82
242463,2018-06-29 10:51:08.968750,-16.43,85.82
242464,2018-06-29 10:51:09.000000,-4.36,85.82
242465,2018-06-29 10:51:09.031250,18.23,85.82
242466,2018-06-29 10:51:09.062500,49.39,85.82
242467,2018-06-29 10:51:09.093750,82.45,85.82
242468,2018-06-29 10:51:09.125000,105.92,85.82
242469,2018-06-29 10:51:09.156250,108.96,85.82
242470,2018-06-29 10:51:09.187500,87.24,85.82
242471,2018-06-29 10:51:09.218750,44.24,85.82
242472,2018-06-29 10:51:09.250000,-5.73,85.82
242473,2018-06-29 10:51:09.281250,-39.08,85.82
242474,2018-06-29 10:51:09.312500,-42.69,85.82
242475,2018-06-29 10:51:09.343750,-31.63,85.82
242476,2018-06-29 10:51:09.375000,-30.52,85.82
242477,2018-06-29 10:51:09.406250,-43.68,85.82
242478,2018-06-29 10:51:09.437500,-58.17,85.82
242479,2018-06-29 10:51:09.468750,-64.84,85.82
242480,2018-06-29 10:51:09.500000,-62.97,85.82
242481,2018-06-29 10:51:09.531250,-50.54,85.82
242482,2018-06-29 10:51:09.562500,-27.61,85.82
242483,2018-06-29 10:51:09.593750,-1.37,85.82
242484,2018-06-29 10:51:09.625000,19.86,85.82
242485,2018-06-29 10:51:09.656250,36.23,85.82
242486,2018-06-29 10:51:09.687500,48.43,85.82
242487,2018-06-29 10:51:09.718750,45.83,85.82
242488,2018-06-29 10:51:09.750000,21.56,85.82
242489,2018-06-29 10:51:09.781250,-14.47,85.82
242490,2018-06-29 10:51:09.812500,-43.91,85.82
242491,2018-06-29 10:51:09.843750,-59.55,85.82
242492,2018-06-29 10:51:09.875000,-65.8,85.82
242493,2018-06-29 10:51:09.906250,-58.15,85.82
242494,2018-06-29 10:51:09.937500,-39.64,85.82
242495,2018-06-29 10:51:09.968750,-23.09,85.82
242496,2018-06-29 10:51:10.000000,-14.43,85.82
242497,2018-06-29 10:51:10.031250,-11.28,85.82
242498,2018-06-29 10:51:10.062500,-11.87,85.82
242499,2018-06-29 10:51:10.093750,-12.89,85.82
242500,2018-06-29 10:51:10.125000,-11.72,85.82
242501,2018-06-29 10:51:10.156250,-9.22,85.82
242502,2018-06-29 10:51:10.187500,-7.28,85.82
242503,2018-06-29 10:51:10.218750,-5.75,85.82
242504,2018-06-29 10:51:10.250000,-1.55,85.82
242505,2018-06-29 10:51:10.281250,11.81,85.82
242506,2018-06-29 10:51:10.312500,36.13,85.82
242507,2018-06-29 10:51:10.343750,56.08,85.82
242508,2018-06-29 10:51:10.375000,58.88,85.82
242509,2018-06-29 10:51:10.406250,57.77,85.82
242510,2018-06-29 10:51:10.437500,67.22,85.82
242511,2018-06-29 10:51:10.468750,76.81,85.82
242512,2018-06-29 10:51:10.500000,68.24,85.82
242513,2018-06-29 10:51:10.531250,41.85,85.85
242514,2018-06-29 10:51:10.562500,6.65,85.85
242515,2018-06-29 10:51:10.593750,-27.14,85.85
242516,2018-06-29 10:51:10.625000,-47.4,85.85
242517,2018-06-29 10:51:10.656250,-50.31,85.85
242518,2018-06-29 10:51:10.687500,-44.75,85.85
242519,2018-06-29 10:51:10.718750,-40.04,85.85
242520,2018-06-29 10:51:10.750000,-38.86,85.85
242521,2018-06-29 10:51:10.781250,-39.28,85.85
242522,2018-06-29 10:51:10.812500,-38.61,85.85
242523,2018-06-29 10:51:10.843750,-37.71,85.85
242524,2018-06-29 10:51:10.875000,-39.89,85.85
242525,2018-06-29 10:51:10.906250,-42.67,85.85
242526,2018-06-29 10:51:10.937500,-38.6,85.85
242527,2018-06-29 10:51:10.968750,-23.43,85.85
242528,2018-06-29 10:51:11.000000,-4.63,85.85
242529,2018-06-29 10:51:11.031250,4.11,85.85
242530,2018-06-29 10:51:11.062500,-0.2,85.85
242531,2018-06-29 10:51:11.093750,-4.3,85.85
242532,2018-06-29 10:51:11.125000,3.67,85.85
242533,2018-06-29 10:51:11.156250,18.67,85.85
242534,2018-06-29 10:51:11.187500,27.69,85.85
242535,2018-06-29 10:51:11.218750,27.34,85.85
242536,2018-06-29 10:51:11.250000,23.39,85.85
242537,2018-06-29 10:51:11.281250,17.8,85.85
242538,2018-06-29 10:51:11.312500,8.47,85.85
242539,2018-06-29 10:51:11.343750,-1.94,85.85
242540,2018-06-29 10:51:11.375000,-5.67,85.85
242541,2018-06-29 10:51:11.406250,-1.01,85.85
242542,2018-06-29 10:51:11.437500,6.35,85.85
242543,2018-06-29 10:51:11.468750,9.18,85.85
242544,2018-06-29 10:51:11.500000,6.79,85.85
242545,2018-06-29 10:51:11.531250,7.35,85.88
242546,2018-06-29 10:51:11.562500,20.32,85.88
242547,2018-06-29 10:51:11.593750,43.9,85.88
242548,2018-06-29 10:51:11.625000,59.88,85.88
242549,2018-06-29 10:51:11.656250,49.75,85.88
242550,2018-06-29 10:51:11.687500,8.55,85.88
242551,2018-06-29 10:51:11.718750,-56.92,85.88
242552,2018-06-29 10:51:11.750000,-123.42,85.88
242553,2018-06-29 10:51:11.781250,-167.26,85.88
242554,2018-06-29 10:51:11.812500,-172.81,85.88
242555,2018-06-29 10:51:11.843750,-140.89,85.88
242556,2018-06-29 10:51:11.875000,-89.98,85.88
242557,2018-06-29 10:51:11.906250,-42.52,85.88
242558,2018-06-29 10:51:11.937500,-6.58,85.88
242559,2018-06-29 10:51:11.968750,21.51,85.88
242560,2018-06-29 10:51:12.000000,43.83,85.88
242561,2018-06-29 10:51:12.031250,58.46,85.88
242562,2018-06-29 10:51:12.062500,65.59,85.88
242563,2018-06-29 10:51:12.093750,67.49,85.88
242564,2018-06-29 10:51:12.125000,63.14,85.88
242565,2018-06-29 10:51:12.156250,51.23,85.88
242566,2018-06-29 10:51:12.187500,37.24,85.88
242567,2018-06-29 10:51:12.218750,31.69,85.88
242568,2018-06-29 10:51:12.250000,37.22,85.88
242569,2018-06-29 10:51:12.281250,44.65,85.88
242570,2018-06-29 10:51:12.312500,44.25,85.88
242571,2018-06-29 10:51:12.343750,35.5,85.88
242572,2018-06-29 10:51:12.375000,23.53,85.88
242573,2018-06-29 10:51:12.406250,12.38,85.88
242574,2018-06-29 10:51:12.437500,4.33,85.88
242575,2018-06-29 10:51:12.468750,2.82,85.88
242576,2018-06-29 10:51:12.500000,14.79,85.88
242577,2018-06-29 10:51:12.531250,45.46,85.98
242578,2018-06-29 10:51:12.562500,87.52,85.98
242579,2018-06-29 10:51:12.593750,118.78,85.98
242580,2018-06-29 10:51:12.625000,118.1,85.98
242581,2018-06-29 10:51:12.656250,82.97,85.98
242582,2018-06-29 10:51:12.687500,30.81,85.98
242583,2018-06-29 10:51:12.718750,-10.29,85.98
242584,2018-06-29 10:51:12.750000,-14.08,85.98
242585,2018-06-29 10:51:12.781250,23.95,85.98
242586,2018-06-29 10:51:12.812500,73.08,85.98
