,Time,ppg,hr
246400,2018-06-29 10:53:12.000000,351.43,90.18
246401,2018-06-29 10:53:12.031250,403.96,90.18
246402,2018-06-29 10:53:12.062500,357.75,90.18
246403,2018-06-29 10:53:12.093750,273.57,90.18
246404,2018-06-29 10:53:12.125000,201.18,90.18
246405,2018-06-29 10:53:12.156250,132.81,90.18
246406,2018-06-29 10:53:12.187500,51.08,90.18
246407,2018-06-29 10:53:12.218750,-31.41,90.18
246408,2018-06-29 10:53:12.250000,-94.26,90.18
246409,2018-06-29 10:53:12.281250,-133.55,90.18
246410,2018-06-29 10:53:12.312500,-149.59,90.18
246411,2018-06-29 10:53:12.343750,-140.96,90.18
246412,2018-06-29 10:53:12.375000,-116.75,90.18
246413,2018-06-29 10:53:12.406250,-96.15,90.18
246414,2018-06-29 10:53:12.437500,-85.08,90.18
246415,2018-06-29 10:53:12.468750,-65.23,90.18
246416,2018-06-29 10:53:12.500000,-14.56,90.18
246417,2018-06-29 10:53:12.531250,59.12,90.22
246418,2018-06-29 10:53:12.562500,113.85,90.22
246419,2018-06-29 10:53:12.593750,126.14,90.22
246420,2018-06-29 10:53:12.625000,124.73,90.22
246421,2018-06-29 10:53:12.656250,158.94,90.22
246422,2018-06-29 10:53:12.687500,238.48,90.22
246423,2018-06-29 10:53:12.718750,319.45,90.22
246424,2018-06-29 10:53:12.750000,361.89,90.22
246425,2018-06-29 10:53:12.781250,290.77,90.22
246426,2018-06-29 10:53:12.812500,103.72,90.22
246427,2018-06-29 10:53:12.843750,-71.57,90.22
246428,2018-06-29 10:53:12.875000,-178.82,90.22
246429,2018-06-29 10:53:12.906250,-244.7,90.22
246430,2018-06-29 10:53:12.937500,-283.53,90.22
246431,2018-06-29 10:53:12.968750,-297.29,90.22
246432,2018-06-29 10:53:13.000000,-296.2,90.22
246433,2018-06-29 10:53:13.031250,-280.3,90.22
246434,2018-06-29 10:53:13.062500,-242.5,90.22
246435,2018-06-29 10:53:13.093750,-174.8,90.22
246436,2018-06-29 10:53:13.125000,-80.35,90.22
246437,2018-06-29 10:53:13.156250,37.43,90.22
246438,2018-06-29 10:53:13.187500,163.86,90.22
246439,2018-06-29 10:53:13.218750,265.0,90.22
246440,2018-06-29 10:53:13.250000,308.09,90.22
246441,2018-06-29 10:53:13.281250,280.86,90.22
246442,2018-06-29 10:53:13.312500,205.36,90.22
246443,2018-06-29 10:53:13.343750,120.89,90.22
246444,2018-06-29 10:53:13.375000,59.76,90.22
246445,2018-06-29 10:53:13.406250,26.18,90.22
246446,2018-06-29 10:53:13.437500,11.65,90.22
246447,2018-06-29 10:53:13.468750,10.56,90.22
246448,2018-06-29 10:53:13.500000,18.93,90.22
246449,2018-06-29 10:53:13.531250,25.82,90.27
246450,2018-06-29 10:53:13.562500,18.64,90.27
246451,2018-06-29 10:53:13.593750,-0.01,90.27
246452,2018-06-29 10:53:13.625000,-15.65,90.27
246453,2018-06-29 10:53:13.656250,-20.37,90.27
246454,2018-06-29 10:53:13.687500,-33.94,90.27
246455,2018-06-29 10:53:13.718750,-73.22,90.27
246456,2018-06-29 10:53:13.750000,-121.87,90.27
246457,2018-06-29 10:53:13.781250,-131.05,90.27
246458,2018-06-29 10:53:13.812500,-68.85,90.27
246459,2018-06-29 10:53:13.843750,45.38,90.27
246460,2018-06-29 10:53:13.875000,159.21,90.27
246461,2018-06-29 10:53:13.906250,210.7,90.27
246462,2018-06-29 10:53:13.937500,185.02,90.27
246463,2018-06-29 10:53:13.968750,105.96,90.27
246464,2018-06-29 10:53:14.000000,10.47,90.27
246465,2018-06-29 10:53:14.031250,-68.32,90.27
246466,2018-06-29 10:53:14.062500,-115.16,90.27
246467,2018-06-29 10:53:14.093750,-130.72,90.27
246468,2018-06-29 10:53:14.125000,-120.1,90.27
246469,2018-06-29 10:53:14.156250,-89.26,90.27
246470,2018-06-29 10:53:14.187500,-52.03,90.27
246471,2018-06-29 10:53:14.218750,-22.85,90.27
246472,2018-06-29 10:53:14.250000,-10.41,90.27
246473,2018-06-29 10:53:14.281250,-3.35,90.27
246474,2018-06-29 10:53:14.312500,9.48,90.27
246475,2018-06-29 10:53:14.343750,24.19,90.27
246476,2018-06-29 10:53:14.375000,29.05,90.27
246477,2018-06-29 10:53:14.406250,24.45,90.27
246478,2018-06-29 10:53:14.437500,25.66,90.27
246479,2018-06-29 10:53:14.468750,42.44,90.27
246480,2018-06-29 10:53:14.500000,62.97,90.27
246481,2018-06-29 10:53:14.531250,64.14,90.3
246482,2018-06-29 10:53:14.562500,38.82,90.3
246483,2018-06-29 10:53:14.593750,-0.64,90.3
246484,2018-06-29 10:53:14.625000,-36.83,90.3
246485,2018-06-29 10:53:14.656250,-61.04,90.3
246486,2018-06-29 10:53:14.687500,-71.49,90.3
246487,2018-06-29 10:53:14.718750,-70.73,90.3
246488,2018-06-29 10:53:14.750000,-61.68,90.3
246489,2018-06-29 10:53:14.781250,-50.68,90.3
246490,2018-06-29 10:53:14.812500,-46.3,90.3
246491,2018-06-29 10:53:14.843750,-52.66,90.3
246492,2018-06-29 10:53:14.875000,-66.57,90.3
246493,2018-06-29 10:53:14.906250,-63.47,90.3
246494,2018-06-29 10:53:14.937500,-26.91,90.3
246495,2018-06-29 10:53:14.968750,31.61,90.3
246496,2018-06-29 10:53:15.000000,82.04,90.3
246497,2018-06-29 10:53:15.031250,93.67,90.3
246498,2018-06-29 10:53:15.062500,57.99,90.3
246499,2018-06-29 10:53:15.093750,-12.71,90.3
246500,2018-06-29 10:53:15.125000,-75.66,90.3
246501,2018-06-29 10:53:15.156250,-103.61,90.3
246502,2018-06-29 10:53:15.187500,-100.94,90.3
246503,2018-06-29 10:53:15.218750,-84.85,90.3
246504,2018-06-29 10:53:15.250000,-56.84,90.3
246505,2018-06-29 10:53:15.281250,-12.71,90.3
246506,2018-06-29 10:53:15.312500,40.6,90.3
246507,2018-06-29 10:53:15.343750,96.85,90.3
246508,2018-06-29 10:53:15.375000,150.69,90.3
246509,2018-06-29 10:53:15.406250,201.6,90.3
246510,2018-06-29 10:53:15.437500,237.13,90.3
246511,2018-06-29 10:53:15.468750,249.31,90.3
246512,2018-06-29 10:53:15.500000,231.23,90.3
246513,2018-06-29 10:53:15.531250,147.8,90.32
246514,2018-06-29 10:53:15.562500,46.09,90.32
246515,2018-06-29 10:53:15.593750,-40.01,90.32
246516,2018-06-29 10:53:15.625000,-125.73,90.32
246517,2018-06-29 10:53:15.656250,-203.25,90.32
246518,2018-06-29 10:53:15.687500,-251.56,90.32
246519,2018-06-29 10:53:15.718750,-270.75,90.32
246520,2018-06-29 10:53:15.750000,-257.85,90.32
246521,2018-06-29 10:53:15.781250,-202.28,90.32
246522,2018-06-29 10:53:15.812500,-110.34,90.32
246523,2018-06-29 10:53:15.843750,-14.98,90.32
246524,2018-06-29 10:53:15.875000,41.57,90.32
246525,2018-06-29 10:53:15.906250,55.73,90.32
246526,2018-06-29 10:53:15.937500,45.64,90.32
246527,2018-06-29 10:53:15.968750,30.85,90.32
246528,2018-06-29 10:53:16.000000,1.81,90.32
246529,2018-06-29 10:53:16.031250,-39.41,90.32
246530,2018-06-29 10:53:16.062500,-52.52,90.32
246531,2018-06-29 10:53:16.093750,-19.94,90.32
246532,2018-06-29 10:53:16.125000,59.55,90.32
246533,2018-06-29 10:53:16.156250,157.79,90.32
246534,2018-06-29 10:53:16.187500,235.03,90.32
246535,2018-06-29 10:53:16.218750,228.2,90.32
246536,2018-06-29 10:53:16.250000,123.59,90.32
246537,2018-06-29 10:53:16.281250,3.13,90.32
246538,2018-06-29 10:53:16.312500,-75.35,90.32
246539,2018-06-29 10:53:16.343750,-111.81,90.32
246540,2018-06-29 10:53:16.375000,-116.67,90.32
246541,2018-06-29 10:53:16.406250,-89.94,90.32
246542,2018-06-29 10:53:16.437500,-48.33,90.32
246543,2018-06-29 10:53:16.468750,-9.31,90.32
246544,2018-06-29 10:53:16.500000,10.76,90.32
246545,2018-06-29 10:53:16.531250,13.65,90.33
246546,2018-06-29 10:53:16.562500,11.61,90.33
246547,2018-06-29 10:53:16.593750,21.73,90.33
246548,2018-06-29 10:53:16.625000,48.95,90.33
246549,2018-06-29 10:53:16.656250,74.35,90.33
246550,2018-06-29 10:53:16.687500,72.28,90.33
246551,2018-06-29 10:53:16.718750,38.83,90.33
246552,2018-06-29 10:53:16.750000,-4.05,90.33
246553,2018-06-29 10:53:16.781250,-37.79,90.33
246554,2018-06-29 10:53:16.812500,-58.9,90.33
246555,2018-06-29 10:53:16.843750,-67.47,90.33
246556,2018-06-29 10:53:16.875000,-64.33,90.33
246557,2018-06-29 10:53:16.906250,-53.93,90.33
246558,2018-06-29 10:53:16.937500,-49.53,90.33
246559,2018-06-29 10:53:16.968750,-61.2,90.33
246560,2018-06-29 10:53:17.000000,-79.69,90.33
246561,2018-06-29 10:53:17.031250,-79.97,90.33
246562,2018-06-29 10:53:17.062500,-46.79,90.33
246563,2018-06-29 10:53:17.093750,-2.24,90.33
246564,2018-06-29 10:53:17.125000,25.27,90.33
246565,2018-06-29 10:53:17.156250,35.99,90.33
246566,2018-06-29 10:53:17.187500,65.52,90.33
246567,2018-06-29 10:53:17.218750,134.33,90.33
246568,2018-06-29 10:53:17.250000,219.59,90.33
246569,2018-06-29 10:53:17.281250,271.39,90.33
246570,2018-06-29 10:53:17.312500,207.33,90.33
246571,2018-06-29 10:53:17.343750,72.53,90.33
246572,2018-06-29 10:53:17.375000,-33.91,90.33
246573,2018-06-29 10:53:17.406250,-107.41,90.33
246574,2018-06-29 10:53:17.437500,-150.56,90.33
246575,2018-06-29 10:53:17.468750,-152.68,90.33
246576,2018-06-29 10:53:17.500000,-133.51,90.33
246577,2018-06-29 10:53:17.531250,-120.79,90.35
246578,2018-06-29 10:53:17.562500,-111.3,90.35
246579,2018-06-29 10:53:17.593750,-87.49,90.35
246580,2018-06-29 10:53:17.625000,-49.35,90.35
246581,2018-06-29 10:53:17.656250,-26.51,90.35
246582,2018-06-29 10:53:17.687500,-30.93,90.35
246583,2018-06-29 10:53:17.718750,-34.07,90.35
246584,2018-06-29 10:53:17.750000,-2.97,90.35
246585,2018-06-29 10:53:17.781250,53.06,90.35
246586,2018-06-29 10:53:17.812500,98.57,90.35
246587,2018-06-29 10:53:17.843750,120.13,90.35
246588,2018-06-29 10:53:17.875000,127.64,90.35
246589,2018-06-29 10:53:17.906250,128.13,90.35
246590,2018-06-29 10:53:17.937500,113.89,90.35
246591,2018-06-29 10:53:17.968750,80.16,90.35
246592,2018-06-29 10:53:18.000000,38.51,90.35
246593,2018-06-29 10:53:18.031250,2.7,90.35
246594,2018-06-29 10:53:18.062500,-23.22,90.35
246595,2018-06-29 10:53:18.093750,-38.76,90.35
246596,2018-06-29 10:53:18.125000,-40.89,90.35
246597,2018-06-29 10:53:18.156250,-30.29,90.35
246598,2018-06-29 10:53:18.187500,-19.49,90.35
246599,2018-06-29 10:53:18.218750,-19.22,90.35
246600,2018-06-29 10:53:18.250000,-31.72,90.35
246601,2018-06-29 10:53:18.281250,-54.51,90.35
246602,2018-06-29 10:53:18.312500,-91.64,90.35
246603,2018-06-29 10:53:18.343750,-127.27,90.35
246604,2018-06-29 10:53:18.375000,-124.98,90.35
246605,2018-06-29 10:53:18.406250,-80.21,90.35
246606,2018-06-29 10:53:18.437500,11.91,90.35
246607,2018-06-29 10:53:18.468750,127.51,90.35
246608,2018-06-29 10:53:18.500000,214.58,90.35
246609,2018-06-29 10:53:18.531250,230.51,90.37
246610,2018-06-29 10:53:18.562500,152.27,90.37
246611,2018-06-29 10:53:18.593750,39.66,90.37
246612,2018-06-29 10:53:18.625000,-44.8,90.37
246613,2018-06-29 10:53:18.656250,-105.91,90.37
246614,2018-06-29 10:53:18.687500,-144.61,90.37
246615,2018-06-29 10:53:18.718750,-142.65,90.37
246616,2018-06-29 10:53:18.750000,-111.79,90.37
246617,2018-06-29 10:53:18.781250,-82.68,90.37
246618,2018-06-29 10:53:18.812500,-70.91,90.37
246619,2018-06-29 10:53:18.843750,-61.69,90.37
246620,2018-06-29 10:53:18.875000,-34.84,90.37
246621,2018-06-29 10:53:18.906250,2.54,90.37
246622,2018-06-29 10:53:18.937500,25.08,90.37
246623,2018-06-29 10:53:18.968750,19.98,90.37
246624,2018-06-29 10:53:19.000000,-1.73,90.37
246625,2018-06-29 10:53:19.031250,-28.63,90.37
246626,2018-06-29 10:53:19.062500,-50.15,90.37
246627,2018-06-29 10:53:19.093750,-50.46,90.37
246628,2018-06-29 10:53:19.125000,-20.67,90.37
246629,2018-06-29 10:53:19.156250,23.41,90.37
246630,2018-06-29 10:53:19.187500,58.64,90.37
246631,2018-06-29 10:53:19.218750,80.3,90.37
246632,2018-06-29 10:53:19.250000,95.05,90.37
246633,2018-06-29 10:53:19.281250,110.38,90.37
246634,2018-06-29 10:53:19.312500,127.14,90.37
246635,2018-06-29 10:53:19.343750,141.78,90.37
246636,2018-06-29 10:53:19.375000,138.9,90.37
246637,2018-06-29 10:53:19.406250,106.93,90.37
246638,2018-06-29 10:53:19.437500,47.3,90.37
246639,2018-06-29 10:53:19.468750,-31.22,90.37
246640,2018-06-29 10:53:19.500000,-79.77,90.37
246641,2018-06-29 10:53:19.531250,-87.16,90.37
246642,2018-06-29 10:53:19.562500,-68.4,90.37
246643,2018-06-29 10:53:19.593750,-29.47,90.37
246644,2018-06-29 10:53:19.625000,15.24,90.37
246645,2018-06-29 10:53:19.656250,30.56,90.37
246646,2018-06-29 10:53:19.687500,-13.53,90.37
246647,2018-06-29 10:53:19.718750,-87.33,90.37
246648,2018-06-29 10:53:19.750000,-152.33,90.37
246649,2018-06-29 10:53:19.781250,-194.03,90.37
246650,2018-06-29 10:53:19.812500,-190.45,90.37
246651,2018-06-29 10:53:19.843750,-137.37,90.37
246652,2018-06-29 10:53:19.875000,-63.82,90.37
246653,2018-06-29 10:53:19.906250,0.16,90.37
246654,2018-06-29 10:53:19.937500,44.98,90.37
246655,2018-06-29 10:53:19.968750,73.98,90.37
246656,2018-06-29 10:53:20.000000,93.74,90.37
246657,2018-06-29 10:53:20.031250,105.7,90.37
246658,2018-06-29 10:53:20.062500,108.62,90.37
246659,2018-06-29 10:53:20.093750,100.09,90.37
246660,2018-06-29 10:53:20.125000,88.4,90.37
246661,2018-06-29 10:53:20.156250,85.71,90.37
246662,2018-06-29 10:53:20.187500,90.85,90.37
246663,2018-06-29 10:53:20.218750,88.93,90.37
246664,2018-06-29 10:53:20.250000,65.49,90.37
246665,2018-06-29 10:53:20.281250,26.37,90.37
246666,2018-06-29 10:53:20.312500,-11.38,90.37
246667,2018-06-29 10:53:20.343750,-32.9,90.37
246668,2018-06-29 10:53:20.375000,-40.62,90.37
246669,2018-06-29 10:53:20.406250,-45.86,90.37
246670,2018-06-29 10:53:20.437500,-48.32,90.37
246671,2018-06-29 10:53:20.468750,-34.67,90.37
246672,2018-06-29 10:53:20.500000,4.02,90.37
246673,2018-06-29 10:53:20.531250,46.55,90.37
246674,2018-06-29 10:53:20.562500,61.55,90.37
246675,2018-06-29 10:53:20.593750,32.11,90.37
246676,2018-06-29 10:53:20.625000,-23.69,90.37
246677,2018-06-29 10:53:20.656250,-44.84,90.37
246678,2018-06-29 10:53:20.687500,-24.52,90.37
246679,2018-06-29 10:53:20.718750,22.23,90.37
246680,2018-06-29 10:53:20.750000,71.9,90.37
246681,2018-06-29 10:53:20.781250,95.15,90.37
246682,2018-06-29 10:53:20.812500,68.29,90.37
246683,2018-06-29 10:53:20.843750,4.57,90.37
246684,2018-06-29 10:53:20.875000,-62.12,90.37
246685,2018-06-29 10:53:20.906250,-110.34,90.37
246686,2018-06-29 10:53:20.937500,-141.73,90.37
246687,2018-06-29 10:53:20.968750,-158.67,90.37
246688,2018-06-29 10:53:21.000000,-154.17,90.37
246689,2018-06-29 10:53:21.031250,-128.65,90.37
246690,2018-06-29 10:53:21.062500,-94.04,90.37
246691,2018-06-29 10:53:21.093750,-67.67,90.37
246692,2018-06-29 10:53:21.125000,-57.65,90.37
246693,2018-06-29 10:53:21.156250,-54.97,90.37
246694,2018-06-29 10:53:21.187500,-34.54,90.37
246695,2018-06-29 10:53:21.218750,15.62,90.37
246696,2018-06-29 10:53:21.250000,74.53,90.37
246697,2018-06-29 10:53:21.281250,116.3,90.37
246698,2018-06-29 10:53:21.312500,139.51,90.37
246699,2018-06-29 10:53:21.343750,150.71,90.37
246700,2018-06-29 10:53:21.375000,141.88,90.37
246701,2018-06-29 10:53:21.406250,108.94,90.37
246702,2018-06-29 10:53:21.437500,67.7,90.37
246703,2018-06-29 10:53:21.468750,34.6,90.37
246704,2018-06-29 10:53:21.500000,10.68,90.37
246705,2018-06-29 10:53:21.531250,-5.4,90.37
246706,2018-06-29 10:53:21.562500,-6.62,90.37
246707,2018-06-29 10:53:21.593750,11.38,90.37
246708,2018-06-29 10:53:21.625000,38.9,90.37
246709,2018-06-29 10:53:21.656250,59.63,90.37
246710,2018-06-29 10:53:21.687500,63.98,90.37
246711,2018-06-29 10:53:21.718750,49.68,90.37
246712,2018-06-29 10:53:21.750000,18.04,90.37
246713,2018-06-29 10:53:21.781250,-26.62,90.37
246714,2018-06-29 10:53:21.812500,-77.97,90.37
246715,2018-06-29 10:53:21.843750,-122.74,90.37
246716,2018-06-29 10:53:21.875000,-132.56,90.37
246717,2018-06-29 10:53:21.906250,-83.69,90.37
246718,2018-06-29 10:53:21.937500,3.43,90.37
246719,2018-06-29 10:53:21.968750,71.89,90.37
246720,2018-06-29 10:53:22.000000,84.61,90.37
246721,2018-06-29 10:53:22.031250,49.81,90.37
246722,2018-06-29 10:53:22.062500,-6.37,90.37
246723,2018-06-29 10:53:22.093750,-63.36,90.37
246724,2018-06-29 10:53:22.125000,-103.98,90.37
246725,2018-06-29 10:53:22.156250,-117.22,90.37
246726,2018-06-29 10:53:22.187500,-106.41,90.37
246727,2018-06-29 10:53:22.218750,-82.04,90.37
246728,2018-06-29 10:53:22.250000,-51.42,90.37
246729,2018-06-29 10:53:22.281250,-23.91,90.37
246730,2018-06-29 10:53:22.312500,-10.85,90.37
246731,2018-06-29 10:53:22.343750,-9.5,90.37
246732,2018-06-29 10:53:22.375000,-7.26,90.37
246733,2018-06-29 10:53:22.406250,-2.99,90.37
246734,2018-06-29 10:53:22.437500,-4.92,90.37
246735,2018-06-29 10:53:22.468750,-11.24,90.37
246736,2018-06-29 10:53:22.500000,-13.05,90.37
246737,2018-06-29 10:53:22.531250,-5.6,90.37
246738,2018-06-29 10:53:22.562500,9.97,90.37
246739,2018-06-29 10:53:22.593750,29.14,90.37
246740,2018-06-29 10:53:22.625000,47.9,90.37
246741,2018-06-29 10:53:22.656250,61.12,90.37
246742,2018-06-29 10:53:22.687500,66.72,90.37
246743,2018-06-29 10:53:22.718750,66.61,90.37
246744,2018-06-29 10:53:22.750000,71.79,90.37
246745,2018-06-29 10:53:22.781250,86.83,90.37
246746,2018-06-29 10:53:22.812500,99.39,90.37
246747,2018-06-29 10:53:22.843750,94.25,90.37
246748,2018-06-29 10:53:22.875000,65.18,90.37
246749,2018-06-29 10:53:22.906250,15.48,90.37
246750,2018-06-29 10:53:22.937500,-55.14,90.37
246751,2018-06-29 10:53:22.968750,-105.65,90.37
246752,2018-06-29 10:53:23.000000,-105.51,90.37
246753,2018-06-29 10:53:23.031250,-76.58,90.37
246754,2018-06-29 10:53:23.062500,-25.91,90.37
246755,2018-06-29 10:53:23.093750,33.25,90.37
246756,2018-06-29 10:53:23.125000,65.54,90.37
246757,2018-06-29 10:53:23.156250,31.12,90.37
246758,2018-06-29 10:53:23.187500,-41.18,90.37
246759,2018-06-29 10:53:23.218750,-85.06,90.37
246760,2018-06-29 10:53:23.250000,-98.26,90.37
246761,2018-06-29 10:53:23.281250,-95.09,90.37
246762,2018-06-29 10:53:23.312500,-73.25,90.37
246763,2018-06-29 10:53:23.343750,-35.87,90.37
246764,2018-06-29 10:53:23.375000,-3.71,90.37
246765,2018-06-29 10:53:23.406250,7.24,90.37
246766,2018-06-29 10:53:23.437500,1.2,90.37
246767,2018-06-29 10:53:23.468750,4.23,90.37
246768,2018-06-29 10:53:23.500000,28.76,90.37
246769,2018-06-29 10:53:23.531250,60.06,90.37
246770,2018-06-29 10:53:23.562500,72.92,90.37
246771,2018-06-29 10:53:23.593750,63.65,90.37
246772,2018-06-29 10:53:23.625000,45.35,90.37
246773,2018-06-29 10:53:23.656250,25.45,90.37
246774,2018-06-29 10:53:23.687500,5.6,90.37
246775,2018-06-29 10:53:23.718750,-11.04,90.37
246776,2018-06-29 10:53:23.750000,-18.29,90.37
246777,2018-06-29 10:53:23.781250,-22.05,90.37
246778,2018-06-29 10:53:23.812500,-28.01,90.37
246779,2018-06-29 10:53:23.843750,-34.18,90.37
246780,2018-06-29 10:53:23.875000,-19.78,90.37
246781,2018-06-29 10:53:23.906250,28.95,90.37
246782,2018-06-29 10:53:23.937500,100.43,90.37
246783,2018-06-29 10:53:23.968750,161.82,90.37
246784,2018-06-29 10:53:24.000000,178.16,90.37
246785,2018-06-29 10:53:24.031250,138.98,90.37
246786,2018-06-29 10:53:24.062500,39.99,90.37
246787,2018-06-29 10:53:24.093750,-53.81,90.37
246788,2018-06-29 10:53:24.125000,-83.21,90.37
246789,2018-06-29 10:53:24.156250,-77.38,90.37
246790,2018-06-29 10:53:24.187500,-50.36,90.37
246791,2018-06-29 10:53:24.218750,4.56,90.37
246792,2018-06-29 10:53:24.250000,58.86,90.37
246793,2018-06-29 10:53:24.281250,53.47,90.37
246794,2018-06-29 10:53:24.312500,-6.32,90.37
246795,2018-06-29 10:53:24.343750,-79.56,90.37
246796,2018-06-29 10:53:24.375000,-138.59,90.37
246797,2018-06-29 10:53:24.406250,-177.27,90.37
246798,2018-06-29 10:53:24.437500,-189.4,90.37
246799,2018-06-29 10:53:24.468750,-177.04,90.37
246800,2018-06-29 10:53:24.500000,-151.14,90.37
246801,2018-06-29 10:53:24.531250,-113.66,90.38
246802,2018-06-29 10:53:24.562500,-55.39,90.38
246803,2018-06-29 10:53:24.593750,27.37,90.38
246804,2018-06-29 10:53:24.625000,111.4,90.38
246805,2018-06-29 10:53:24.656250,172.14,90.38
246806,2018-06-29 10:53:24.687500,200.37,90.38
246807,2018-06-29 10:53:24.718750,206.64,90.38
246808,2018-06-29 10:53:24.750000,202.59,90.38
246809,2018-06-29 10:53:24.781250,181.63,90.38
246810,2018-06-29 10:53:24.812500,129.1,90.38
246811,2018-06-29 10:53:24.843750,49.93,90.38
246812,2018-06-29 10:53:24.875000,-24.43,90.38
246813,2018-06-29 10:53:24.906250,-70.13,90.38
246814,2018-06-29 10:53:24.937500,-84.73,90.38
246815,2018-06-29 10:53:24.968750,-76.81,90.38
246816,2018-06-29 10:53:25.000000,-59.41,90.38
246817,2018-06-29 10:53:25.031250,-44.8,90.38
246818,2018-06-29 10:53:25.062500,-38.94,90.38
246819,2018-06-29 10:53:25.093750,-32.19,90.38
246820,2018-06-29 10:53:25.125000,-24.3,90.38
246821,2018-06-29 10:53:25.156250,-29.41,90.38
246822,2018-06-29 10:53:25.187500,-59.51,90.38
246823,2018-06-29 10:53:25.218750,-98.7,90.38
246824,2018-06-29 10:53:25.250000,-113.04,90.38
246825,2018-06-29 10:53:25.281250,-81.69,90.38
246826,2018-06-29 10:53:25.312500,-3.26,90.38
246827,2018-06-29 10:53:25.343750,93.22,90.38
246828,2018-06-29 10:53:25.375000,169.66,90.38
246829,2018-06-29 10:53:25.406250,183.57,90.38
246830,2018-06-29 10:53:25.437500,111.24,90.38
246831,2018-06-29 10:53:25.468750,24.22,90.38
246832,2018-06-29 10:53:25.500000,-52.3,90.38
246833,2018-06-29 10:53:25.531250,-105.92,90.38
246834,2018-06-29 10:53:25.562500,-130.46,90.38
246835,2018-06-29 10:53:25.593750,-120.42,90.38
246836,2018-06-29 10:53:25.625000,-89.11,90.38
246837,2018-06-29 10:53:25.656250,-52.88,90.38
246838,2018-06-29 10:53:25.687500,-29.58,90.38
246839,2018-06-29 10:53:25.718750,-23.77,90.38
246840,2018-06-29 10:53:25.750000,-29.89,90.38
246841,2018-06-29 10:53:25.781250,-34.62,90.38
246842,2018-06-29 10:53:25.812500,-28.02,90.38
246843,2018-06-29 10:53:25.843750,-16.27,90.38
246844,2018-06-29 10:53:25.875000,-8.26,90.38
246845,2018-06-29 10:53:25.906250,1.63,90.38
246846,2018-06-29 10:53:25.937500,30.68,90.38
246847,2018-06-29 10:53:25.968750,73.63,90.38
246848,2018-06-29 10:53:26.000000,102.1,90.38
246849,2018-06-29 10:53:26.031250,98.93,90.38
246850,2018-06-29 10:53:26.062500,76.21,90.38
246851,2018-06-29 10:53:26.093750,52.63,90.38
246852,2018-06-29 10:53:26.125000,38.72,90.38
246853,2018-06-29 10:53:26.156250,33.79,90.38
246854,2018-06-29 10:53:26.187500,39.43,90.38
246855,2018-06-29 10:53:26.218750,55.54,90.38
246856,2018-06-29 10:53:26.250000,78.92,90.38
246857,2018-06-29 10:53:26.281250,96.28,90.38
246858,2018-06-29 10:53:26.312500,87.99,90.38
246859,2018-06-29 10:53:26.343750,44.82,90.38
246860,2018-06-29 10:53:26.375000,-36.41,90.38
246861,2018-06-29 10:53:26.406250,-106.11,90.38
246862,2018-06-29 10:53:26.437500,-128.05,90.38
246863,2018-06-29 10:53:26.468750,-112.15,90.38
246864,2018-06-29 10:53:26.500000,-64.69,90.38
246865,2018-06-29 10:53:26.531250,-8.62,90.37
246866,2018-06-29 10:53:26.562500,15.19,90.37
246867,2018-06-29 10:53:26.593750,-11.25,90.37
246868,2018-06-29 10:53:26.625000,-46.83,90.37
246869,2018-06-29 10:53:26.656250,-66.61,90.37
246870,2018-06-29 10:53:26.687500,-75.99,90.37
246871,2018-06-29 10:53:26.718750,-80.71,90.37
246872,2018-06-29 10:53:26.750000,-69.8,90.37
246873,2018-06-29 10:53:26.781250,-42.43,90.37
246874,2018-06-29 10:53:26.812500,-10.36,90.37
246875,2018-06-29 10:53:26.843750,16.07,90.37
246876,2018-06-29 10:53:26.875000,34.13,90.37
246877,2018-06-29 10:53:26.906250,46.45,90.37
246878,2018-06-29 10:53:26.937500,53.44,90.37
246879,2018-06-29 10:53:26.968750,59.16,90.37
246880,2018-06-29 10:53:27.000000,64.04,90.37
246881,2018-06-29 10:53:27.031250,68.58,90.37
246882,2018-06-29 10:53:27.062500,72.89,90.37
246883,2018-06-29 10:53:27.093750,70.93,90.37
246884,2018-06-29 10:53:27.125000,50.76,90.37
246885,2018-06-29 10:53:27.156250,9.74,90.37
246886,2018-06-29 10:53:27.187500,-37.97,90.37
246887,2018-06-29 10:53:27.218750,-75.82,90.37
246888,2018-06-29 10:53:27.250000,-90.94,90.37
246889,2018-06-29 10:53:27.281250,-74.27,90.37
246890,2018-06-29 10:53:27.312500,-27.98,90.37
246891,2018-06-29 10:53:27.343750,31.22,90.37
246892,2018-06-29 10:53:27.375000,85.26,90.37
246893,2018-06-29 10:53:27.406250,126.61,90.37
246894,2018-06-29 10:53:27.437500,151.7,90.37
246895,2018-06-29 10:53:27.468750,150.15,90.37
246896,2018-06-29 10:53:27.500000,112.4,90.37
246897,2018-06-29 10:53:27.531250,45.78,90.37
246898,2018-06-29 10:53:27.562500,-27.11,90.37
246899,2018-06-29 10:53:27.593750,-82.96,90.37
246900,2018-06-29 10:53:27.625000,-99.89,90.37
246901,2018-06-29 10:53:27.656250,-69.37,90.37
246902,2018-06-29 10:53:27.687500,-20.56,90.37
246903,2018-06-29 10:53:27.718750,-2.17,90.37
246904,2018-06-29 10:53:27.750000,-31.25,90.37
246905,2018-06-29 10:53:27.781250,-85.39,90.37
246906,2018-06-29 10:53:27.812500,-138.88,90.37
246907,2018-06-29 10:53:27.843750,-178.94,90.37
246908,2018-06-29 10:53:27.875000,-197.77,90.37
246909,2018-06-29 10:53:27.906250,-189.93,90.37
246910,2018-06-29 10:53:27.937500,-153.14,90.37
246911,2018-06-29 10:53:27.968750,-91.33,90.37
246912,2018-06-29 10:53:28.000000,-17.62,90.37
246913,2018-06-29 10:53:28.031250,48.63,90.37
246914,2018-06-29 10:53:28.062500,92.1,90.37
246915,2018-06-29 10:53:28.093750,110.81,90.37
246916,2018-06-29 10:53:28.125000,116.73,90.37
246917,2018-06-29 10:53:28.156250,122.78,90.37
246918,2018-06-29 10:53:28.187500,131.8,90.37
246919,2018-06-29 10:53:28.218750,142.78,90.37
246920,2018-06-29 10:53:28.250000,150.65,90.37
246921,2018-06-29 10:53:28.281250,141.49,90.37
246922,2018-06-29 10:53:28.312500,101.55,90.37
246923,2018-06-29 10:53:28.343750,43.26,90.37
246924,2018-06-29 10:53:28.375000,-2.34,90.37
246925,2018-06-29 10:53:28.406250,-20.15,90.37
246926,2018-06-29 10:53:28.437500,-21.71,90.37
246927,2018-06-29 10:53:28.468750,-24.38,90.37
246928,2018-06-29 10:53:28.500000,-25.41,90.37
246929,2018-06-29 10:53:28.531250,-15.05,90.38
246930,2018-06-29 10:53:28.562500,11.41,90.38
246931,2018-06-29 10:53:28.593750,44.83,90.38
246932,2018-06-29 10:53:28.625000,61.47,90.38
246933,2018-06-29 10:53:28.656250,31.73,90.38
246934,2018-06-29 10:53:28.687500,-51.53,90.38
246935,2018-06-29 10:53:28.718750,-107.21,90.38
246936,2018-06-29 10:53:28.750000,-103.79,90.38
246937,2018-06-29 10:53:28.781250,-77.95,90.38
246938,2018-06-29 10:53:28.812500,-30.81,90.38
246939,2018-06-29 10:53:28.843750,35.76,90.38
246940,2018-06-29 10:53:28.875000,81.79,90.38
246941,2018-06-29 10:53:28.906250,61.36,90.38
246942,2018-06-29 10:53:28.937500,-7.87,90.38
246943,2018-06-29 10:53:28.968750,-63.08,90.38
246944,2018-06-29 10:53:29.000000,-98.72,90.38
246945,2018-06-29 10:53:29.031250,-135.17,90.38
246946,2018-06-29 10:53:29.062500,-154.02,90.38
246947,2018-06-29 10:53:29.093750,-138.41,90.38
246948,2018-06-29 10:53:29.125000,-105.32,90.38
246949,2018-06-29 10:53:29.156250,-78.27,90.38
246950,2018-06-29 10:53:29.187500,-59.43,90.38
246951,2018-06-29 10:53:29.218750,-32.26,90.38
246952,2018-06-29 10:53:29.250000,13.24,90.38
246953,2018-06-29 10:53:29.281250,70.11,90.38
246954,2018-06-29 10:53:29.312500,120.76,90.38
246955,2018-06-29 10:53:29.343750,152.4,90.38
246956,2018-06-29 10:53:29.375000,165.3,90.38
246957,2018-06-29 10:53:29.406250,161.94,90.38
246958,2018-06-29 10:53:29.437500,140.79,90.38
246959,2018-06-29 10:53:29.468750,104.89,90.38
246960,2018-06-29 10:53:29.500000,64.4,90.38
246961,2018-06-29 10:53:29.531250,28.27,90.38
246962,2018-06-29 10:53:29.562500,-0.35,90.38
246963,2018-06-29 10:53:29.593750,-14.32,90.38
246964,2018-06-29 10:53:29.625000,-13.35,90.38
246965,2018-06-29 10:53:29.656250,-7.49,90.38
246966,2018-06-29 10:53:29.687500,-6.4,90.38
246967,2018-06-29 10:53:29.718750,-13.29,90.38
246968,2018-06-29 10:53:29.750000,-29.69,90.38
246969,2018-06-29 10:53:29.781250,-64.02,90.38
246970,2018-06-29 10:53:29.812500,-97.63,90.38
246971,2018-06-29 10:53:29.843750,-110.33,90.38
246972,2018-06-29 10:53:29.875000,-88.4,90.38
246973,2018-06-29 10:53:29.906250,-18.35,90.38
246974,2018-06-29 10:53:29.937500,79.78,90.38
246975,2018-06-29 10:53:29.968750,152.84,90.38
246976,2018-06-29 10:53:30.000000,133.33,90.38
246977,2018-06-29 10:53:30.031250,44.42,90.38
246978,2018-06-29 10:53:30.062500,-33.86,90.38
246979,2018-06-29 10:53:30.093750,-88.65,90.38
246980,2018-06-29 10:53:30.125000,-125.41,90.38
246981,2018-06-29 10:53:30.156250,-130.98,90.38
246982,2018-06-29 10:53:30.187500,-106.73,90.38
246983,2018-06-29 10:53:30.218750,-71.88,90.38
246984,2018-06-29 10:53:30.250000,-38.43,90.38
246985,2018-06-29 10:53:30.281250,-5.93,90.38
246986,2018-06-29 10:53:30.312500,29.92,90.38
246987,2018-06-29 10:53:30.343750,60.41,90.38
246988,2018-06-29 10:53:30.375000,72.88,90.38
246989,2018-06-29 10:53:30.406250,65.81,90.38
246990,2018-06-29 10:53:30.437500,51.94,90.38
246991,2018-06-29 10:53:30.468750,42.08,90.38
246992,2018-06-29 10:53:30.500000,36.14,90.38
246993,2018-06-29 10:53:30.531250,34.75,90.38
246994,2018-06-29 10:53:30.562500,40.25,90.38
246995,2018-06-29 10:53:30.593750,47.23,90.38
246996,2018-06-29 10:53:30.625000,45.26,90.38
246997,2018-06-29 10:53:30.656250,33.05,90.38
246998,2018-06-29 10:53:30.687500,17.48,90.38
246999,2018-06-29 10:53:30.718750,0.17,90.38
247000,2018-06-29 10:53:30.750000,-19.52,90.38
247001,2018-06-29 10:53:30.781250,-36.39,90.38
247002,2018-06-29 10:53:30.812500,-46.2,90.38
247003,2018-06-29 10:53:30.843750,-53.49,90.38
247004,2018-06-29 10:53:30.875000,-71.99,90.38
247005,2018-06-29 10:53:30.906250,-109.23,90.38
247006,2018-06-29 10:53:30.937500,-137.79,90.38
247007,2018-06-29 10:53:30.968750,-121.96,90.38
247008,2018-06-29 10:53:31.000000,-62.9,90.38
247009,2018-06-29 10:53:31.031250,10.93,90.38
247010,2018-06-29 10:53:31.062500,84.95,90.38
247011,2018-06-29 10:53:31.093750,138.82,90.38
247012,2018-06-29 10:53:31.125000,157.56,90.38
247013,2018-06-29 10:53:31.156250,121.16,90.38
247014,2018-06-29 10:53:31.187500,40.71,90.38
247015,2018-06-29 10:53:31.218750,-36.17,90.38
247016,2018-06-29 10:53:31.250000,-73.49,90.38
247017,2018-06-29 10:53:31.281250,-79.23,90.38
247018,2018-06-29 10:53:31.312500,-69.14,90.38
247019,2018-06-29 10:53:31.343750,-54.94,90.38
247020,2018-06-29 10:53:31.375000,-39.83,90.38
247021,2018-06-29 10:53:31.406250,-26.02,90.38
247022,2018-06-29 10:53:31.437500,-13.65,90.38
247023,2018-06-29 10:53:31.468750,1.36,90.38
247024,2018-06-29 10:53:31.500000,18.23,90.38
247025,2018-06-29 10:53:31.531250,29.97,90.32
247026,2018-06-29 10:53:31.562500,31.51,90.32
247027,2018-06-29 10:53:31.593750,26.6,90.32
247028,2018-06-29 10:53:31.625000,23.04,90.32
247029,2018-06-29 10:53:31.656250,25.14,90.32
247030,2018-06-29 10:53:31.687500,30.77,90.32
247031,2018-06-29 10:53:31.718750,33.44,90.32
247032,2018-06-29 10:53:31.750000,26.5,90.32
247033,2018-06-29 10:53:31.781250,10.07,90.32
247034,2018-06-29 10:53:31.812500,-7.83,90.32
247035,2018-06-29 10:53:31.843750,-19.31,90.32
247036,2018-06-29 10:53:31.875000,-22.73,90.32
247037,2018-06-29 10:53:31.906250,-17.27,90.32
247038,2018-06-29 10:53:31.937500,3.69,90.32
247039,2018-06-29 10:53:31.968750,41.94,90.32
247040,2018-06-29 10:53:32.000000,82.99,90.32
247041,2018-06-29 10:53:32.031250,109.37,90.32
247042,2018-06-29 10:53:32.062500,119.37,90.32
247043,2018-06-29 10:53:32.093750,120.33,90.32
247044,2018-06-29 10:53:32.125000,115.77,90.32
247045,2018-06-29 10:53:32.156250,106.47,90.32
247046,2018-06-29 10:53:32.187500,90.97,90.32
247047,2018-06-29 10:53:32.218750,64.18,90.32
247048,2018-06-29 10:53:32.250000,25.13,90.32
247049,2018-06-29 10:53:32.281250,-17.31,90.32
247050,2018-06-29 10:53:32.312500,-50.77,90.32
247051,2018-06-29 10:53:32.343750,-68.16,90.32
247052,2018-06-29 10:53:32.375000,-70.99,90.32
247053,2018-06-29 10:53:32.406250,-66.49,90.32
247054,2018-06-29 10:53:32.437500,-61.38,90.32
247055,2018-06-29 10:53:32.468750,-58.84,90.32
247056,2018-06-29 10:53:32.500000,-59.86,90.32
247057,2018-06-29 10:53:32.531250,-64.78,90.33
247058,2018-06-29 10:53:32.562500,-73.32,90.33
247059,2018-06-29 10:53:32.593750,-83.05,90.33
247060,2018-06-29 10:53:32.625000,-86.05,90.33
247061,2018-06-29 10:53:32.656250,-71.05,90.33
247062,2018-06-29 10:53:32.687500,-35.64,90.33
247063,2018-06-29 10:53:32.718750,6.67,90.33
247064,2018-06-29 10:53:32.750000,37.92,90.33
247065,2018-06-29 10:53:32.781250,52.19,90.33
247066,2018-06-29 10:53:32.812500,55.47,90.33
247067,2018-06-29 10:53:32.843750,52.36,90.33
247068,2018-06-29 10:53:32.875000,40.53,90.33
247069,2018-06-29 10:53:32.906250,17.72,90.33
247070,2018-06-29 10:53:32.937500,-12.13,90.33
247071,2018-06-29 10:53:32.968750,-42.28,90.33
247072,2018-06-29 10:53:33.000000,-65.14,90.33
247073,2018-06-29 10:53:33.031250,-72.44,90.33
247074,2018-06-29 10:53:33.062500,-62.45,90.33
247075,2018-06-29 10:53:33.093750,-43.85,90.33
247076,2018-06-29 10:53:33.125000,-25.79,90.33
247077,2018-06-29 10:53:33.156250,-8.73,90.33
247078,2018-06-29 10:53:33.187500,8.11,90.33
247079,2018-06-29 10:53:33.218750,19.41,90.33
247080,2018-06-29 10:53:33.250000,19.43,90.33
247081,2018-06-29 10:53:33.281250,12.49,90.33
247082,2018-06-29 10:53:33.312500,6.92,90.33
247083,2018-06-29 10:53:33.343750,1.55,90.33
247084,2018-06-29 10:53:33.375000,-10.65,90.33
247085,2018-06-29 10:53:33.406250,-32.23,90.33
247086,2018-06-29 10:53:33.437500,-57.47,90.33
247087,2018-06-29 10:53:33.468750,-82.5,90.33
247088,2018-06-29 10:53:33.500000,-100.39,90.33
247089,2018-06-29 10:53:33.531250,-103.44,90.35
247090,2018-06-29 10:53:33.562500,-89.66,90.35
247091,2018-06-29 10:53:33.593750,-66.23,90.35
247092,2018-06-29 10:53:33.625000,-44.36,90.35
247093,2018-06-29 10:53:33.656250,-29.03,90.35
247094,2018-06-29 10:53:33.687500,-27.76,90.35
247095,2018-06-29 10:53:33.718750,-42.46,90.35
247096,2018-06-29 10:53:33.750000,-72.36,90.35
247097,2018-06-29 10:53:33.781250,-108.99,90.35
247098,2018-06-29 10:53:33.812500,-149.18,90.35
247099,2018-06-29 10:53:33.843750,-184.36,90.35
247100,2018-06-29 10:53:33.875000,-146.84,90.35
247101,2018-06-29 10:53:33.906250,-57.44,90.35
247102,2018-06-29 10:53:33.937500,23.65,90.35
247103,2018-06-29 10:53:33.968750,85.25,90.35
247104,2018-06-29 10:53:34.000000,126.32,90.35
247105,2018-06-29 10:53:34.031250,138.52,90.35
247106,2018-06-29 10:53:34.062500,130.52,90.35
247107,2018-06-29 10:53:34.093750,120.3,90.35
247108,2018-06-29 10:53:34.125000,112.99,90.35
247109,2018-06-29 10:53:34.156250,102.55,90.35
247110,2018-06-29 10:53:34.187500,95.44,90.35
247111,2018-06-29 10:53:34.218750,103.24,90.35
247112,2018-06-29 10:53:34.250000,129.62,90.35
247113,2018-06-29 10:53:34.281250,160.02,90.35
247114,2018-06-29 10:53:34.312500,181.63,90.35
247115,2018-06-29 10:53:34.343750,191.43,90.35
247116,2018-06-29 10:53:34.375000,186.34,90.35
247117,2018-06-29 10:53:34.406250,165.48,90.35
247118,2018-06-29 10:53:34.437500,108.09,90.35
247119,2018-06-29 10:53:34.468750,24.23,90.35
247120,2018-06-29 10:53:34.500000,-48.37,90.35
247121,2018-06-29 10:53:34.531250,-101.54,90.33
247122,2018-06-29 10:53:34.562500,-142.73,90.33
247123,2018-06-29 10:53:34.593750,-171.55,90.33
247124,2018-06-29 10:53:34.625000,-184.86,90.33
247125,2018-06-29 10:53:34.656250,-183.78,90.33
247126,2018-06-29 10:53:34.687500,-156.86,90.33
247127,2018-06-29 10:53:34.718750,-103.1,90.33
247128,2018-06-29 10:53:34.750000,-37.91,90.33
247129,2018-06-29 10:53:34.781250,15.7,90.33
247130,2018-06-29 10:53:34.812500,45.23,90.33
247131,2018-06-29 10:53:34.843750,52.89,90.33
247132,2018-06-29 10:53:34.875000,53.39,90.33
247133,2018-06-29 10:53:34.906250,58.21,90.33
247134,2018-06-29 10:53:34.937500,64.75,90.33
247135,2018-06-29 10:53:34.968750,66.69,90.33
247136,2018-06-29 10:53:35.000000,60.17,90.33
247137,2018-06-29 10:53:35.031250,45.81,90.33
247138,2018-06-29 10:53:35.062500,22.87,90.33
247139,2018-06-29 10:53:35.093750,-6.26,90.33
247140,2018-06-29 10:53:35.125000,-35.45,90.33
247141,2018-06-29 10:53:35.156250,-65.62,90.33
247142,2018-06-29 10:53:35.187500,-100.53,90.33
247143,2018-06-29 10:53:35.218750,-137.31,90.33
247144,2018-06-29 10:53:35.250000,-164.36,90.33
247145,2018-06-29 10:53:35.281250,-168.53,90.33
247146,2018-06-29 10:53:35.312500,-140.15,90.33
247147,2018-06-29 10:53:35.343750,-77.9,90.33
247148,2018-06-29 10:53:35.375000,-3.0,90.33
247149,2018-06-29 10:53:35.406250,63.9,90.33
247150,2018-06-29 10:53:35.437500,115.58,90.33
247151,2018-06-29 10:53:35.468750,153.29,90.33
247152,2018-06-29 10:53:35.500000,175.35,90.33
247153,2018-06-29 10:53:35.531250,172.4,90.33
247154,2018-06-29 10:53:35.562500,141.28,90.33
247155,2018-06-29 10:53:35.593750,97.69,90.33
247156,2018-06-29 10:53:35.625000,58.49,90.33
247157,2018-06-29 10:53:35.656250,22.74,90.33
247158,2018-06-29 10:53:35.687500,-16.73,90.33
247159,2018-06-29 10:53:35.718750,-57.83,90.33
247160,2018-06-29 10:53:35.750000,-94.6,90.33
247161,2018-06-29 10:53:35.781250,-115.08,90.33
247162,2018-06-29 10:53:35.812500,-102.9,90.33
247163,2018-06-29 10:53:35.843750,-67.35,90.33
247164,2018-06-29 10:53:35.875000,-28.09,90.33
247165,2018-06-29 10:53:35.906250,3.39,90.33
247166,2018-06-29 10:53:35.937500,29.52,90.33
247167,2018-06-29 10:53:35.968750,63.25,90.33
247168,2018-06-29 10:53:36.000000,101.74,90.33
247169,2018-06-29 10:53:36.031250,133.55,90.33
247170,2018-06-29 10:53:36.062500,146.32,90.33
247171,2018-06-29 10:53:36.093750,138.68,90.33
247172,2018-06-29 10:53:36.125000,120.36,90.33
247173,2018-06-29 10:53:36.156250,103.92,90.33
247174,2018-06-29 10:53:36.187500,93.65,90.33
247175,2018-06-29 10:53:36.218750,86.64,90.33
247176,2018-06-29 10:53:36.250000,77.84,90.33
247177,2018-06-29 10:53:36.281250,65.31,90.33
247178,2018-06-29 10:53:36.312500,47.53,90.33
247179,2018-06-29 10:53:36.343750,22.48,90.33
247180,2018-06-29 10:53:36.375000,-9.13,90.33
247181,2018-06-29 10:53:36.406250,-43.58,90.33
247182,2018-06-29 10:53:36.437500,-77.41,90.33
247183,2018-06-29 10:53:36.468750,-110.01,90.33
247184,2018-06-29 10:53:36.500000,-141.57,90.33
247185,2018-06-29 10:53:36.531250,-168.66,90.33
247186,2018-06-29 10:53:36.562500,-177.08,90.33
247187,2018-06-29 10:53:36.593750,-147.72,90.33
247188,2018-06-29 10:53:36.625000,-78.93,90.33
247189,2018-06-29 10:53:36.656250,4.64,90.33
247190,2018-06-29 10:53:36.687500,73.23,90.33
247191,2018-06-29 10:53:36.718750,111.49,90.33
247192,2018-06-29 10:53:36.750000,118.77,90.33
247193,2018-06-29 10:53:36.781250,98.85,90.33
247194,2018-06-29 10:53:36.812500,57.18,90.33
247195,2018-06-29 10:53:36.843750,0.13,90.33
247196,2018-06-29 10:53:36.875000,-63.42,90.33
247197,2018-06-29 10:53:36.906250,-120.15,90.33
247198,2018-06-29 10:53:36.937500,-160.8,90.33
247199,2018-06-29 10:53:36.968750,-182.0,90.33
247200,2018-06-29 10:53:37.000000,-188.1,90.33
247201,2018-06-29 10:53:37.031250,-181.82,90.33
247202,2018-06-29 10:53:37.062500,-166.29,90.33
247203,2018-06-29 10:53:37.093750,-141.76,90.33
247204,2018-06-29 10:53:37.125000,-111.63,90.33
247205,2018-06-29 10:53:37.156250,-85.31,90.33
247206,2018-06-29 10:53:37.187500,-60.79,90.33
247207,2018-06-29 10:53:37.218750,-23.12,90.33
247208,2018-06-29 10:53:37.250000,45.37,90.33
247209,2018-06-29 10:53:37.281250,122.95,90.33
247210,2018-06-29 10:53:37.312500,147.49,90.33
247211,2018-06-29 10:53:37.343750,108.76,90.33
247212,2018-06-29 10:53:37.375000,29.68,90.33
247213,2018-06-29 10:53:37.406250,-49.18,90.33
247214,2018-06-29 10:53:37.437500,-96.31,90.33
247215,2018-06-29 10:53:37.468750,-97.18,90.33
247216,2018-06-29 10:53:37.500000,-60.88,90.33
247217,2018-06-29 10:53:37.531250,-5.74,90.33
247218,2018-06-29 10:53:37.562500,45.79,90.33
247219,2018-06-29 10:53:37.593750,81.15,90.33
247220,2018-06-29 10:53:37.625000,91.04,90.33
247221,2018-06-29 10:53:37.656250,73.0,90.33
247222,2018-06-29 10:53:37.687500,33.84,90.33
247223,2018-06-29 10:53:37.718750,-14.73,90.33
247224,2018-06-29 10:53:37.750000,-58.48,90.33
247225,2018-06-29 10:53:37.781250,-92.7,90.33
247226,2018-06-29 10:53:37.812500,-112.55,90.33
247227,2018-06-29 10:53:37.843750,-112.75,90.33
247228,2018-06-29 10:53:37.875000,-76.7,90.33
247229,2018-06-29 10:53:37.906250,3.91,90.33
247230,2018-06-29 10:53:37.937500,113.46,90.33
247231,2018-06-29 10:53:37.968750,218.32,90.33
247232,2018-06-29 10:53:38.000000,286.93,90.33
247233,2018-06-29 10:53:38.031250,316.14,90.33
247234,2018-06-29 10:53:38.062500,318.54,90.33
247235,2018-06-29 10:53:38.093750,314.33,90.33
247236,2018-06-29 10:53:38.125000,302.95,90.33
247237,2018-06-29 10:53:38.156250,284.32,90.33
247238,2018-06-29 10:53:38.187500,252.34,90.33
247239,2018-06-29 10:53:38.218750,139.94,90.33
247240,2018-06-29 10:53:38.250000,5.93,90.33
247241,2018-06-29 10:53:38.281250,-86.52,90.33
247242,2018-06-29 10:53:38.312500,-160.75,90.33
247243,2018-06-29 10:53:38.343750,-225.34,90.33
247244,2018-06-29 10:53:38.375000,-262.36,90.33
247245,2018-06-29 10:53:38.406250,-282.88,90.33
247246,2018-06-29 10:53:38.437500,-308.56,90.33
247247,2018-06-29 10:53:38.468750,-328.97,90.33
247248,2018-06-29 10:53:38.500000,-300.73,90.33
247249,2018-06-29 10:53:38.531250,-202.16,90.33
247250,2018-06-29 10:53:38.562500,-77.84,90.33
247251,2018-06-29 10:53:38.593750,14.12,90.33
247252,2018-06-29 10:53:38.625000,56.5,90.33
247253,2018-06-29 10:53:38.656250,72.56,90.33
247254,2018-06-29 10:53:38.687500,83.12,90.33
247255,2018-06-29 10:53:38.718750,97.09,90.33
247256,2018-06-29 10:53:38.750000,110.37,90.33
247257,2018-06-29 10:53:38.781250,106.38,90.33
247258,2018-06-29 10:53:38.812500,78.81,90.33
247259,2018-06-29 10:53:38.843750,38.91,90.33
247260,2018-06-29 10:53:38.875000,-0.29,90.33
247261,2018-06-29 10:53:38.906250,-37.51,90.33
247262,2018-06-29 10:53:38.937500,-71.09,90.33
247263,2018-06-29 10:53:38.968750,-93.22,90.33
247264,2018-06-29 10:53:39.000000,-94.7,90.33
247265,2018-06-29 10:53:39.031250,-65.57,90.33
247266,2018-06-29 10:53:39.062500,-4.56,90.33
247267,2018-06-29 10:53:39.093750,65.96,90.33
247268,2018-06-29 10:53:39.125000,107.76,90.33
247269,2018-06-29 10:53:39.156250,108.61,90.33
247270,2018-06-29 10:53:39.187500,86.68,90.33
247271,2018-06-29 10:53:39.218750,56.3,90.33
247272,2018-06-29 10:53:39.250000,13.8,90.33
247273,2018-06-29 10:53:39.281250,-35.99,90.33
247274,2018-06-29 10:53:39.312500,-65.79,90.33
247275,2018-06-29 10:53:39.343750,-57.98,90.33
247276,2018-06-29 10:53:39.375000,-15.56,90.33
247277,2018-06-29 10:53:39.406250,37.88,90.33
247278,2018-06-29 10:53:39.437500,81.78,90.33
247279,2018-06-29 10:53:39.468750,106.39,90.33
247280,2018-06-29 10:53:39.500000,121.76,90.33
247281,2018-06-29 10:53:39.531250,140.43,90.35
247282,2018-06-29 10:53:39.562500,150.47,90.35
247283,2018-06-29 10:53:39.593750,134.63,90.35
247284,2018-06-29 10:53:39.625000,53.76,90.35
247285,2018-06-29 10:53:39.656250,-63.22,90.35
247286,2018-06-29 10:53:39.687500,-145.72,90.35
247287,2018-06-29 10:53:39.718750,-199.44,90.35
247288,2018-06-29 10:53:39.750000,-236.64,90.35
247289,2018-06-29 10:53:39.781250,-251.27,90.35
247290,2018-06-29 10:53:39.812500,-232.86,90.35
247291,2018-06-29 10:53:39.843750,-195.34,90.35
247292,2018-06-29 10:53:39.875000,-148.7,90.35
247293,2018-06-29 10:53:39.906250,-90.9,90.35
247294,2018-06-29 10:53:39.937500,-13.98,90.35
247295,2018-06-29 10:53:39.968750,66.76,90.35
247296,2018-06-29 10:53:40.000000,130.6,90.35
247297,2018-06-29 10:53:40.031250,173.41,90.35
247298,2018-06-29 10:53:40.062500,193.94,90.35
247299,2018-06-29 10:53:40.093750,201.03,90.35
247300,2018-06-29 10:53:40.125000,200.47,90.35
247301,2018-06-29 10:53:40.156250,198.21,90.35
247302,2018-06-29 10:53:40.187500,194.63,90.35
247303,2018-06-29 10:53:40.218750,186.44,90.35
247304,2018-06-29 10:53:40.250000,173.96,90.35
247305,2018-06-29 10:53:40.281250,113.49,90.35
247306,2018-06-29 10:53:40.312500,6.2,90.35
247307,2018-06-29 10:53:40.343750,-92.44,90.35
247308,2018-06-29 10:53:40.375000,-189.87,90.35
247309,2018-06-29 10:53:40.406250,-265.05,90.35
247310,2018-06-29 10:53:40.437500,-274.84,90.35
247311,2018-06-29 10:53:40.468750,-206.64,90.35
247312,2018-06-29 10:53:40.500000,-103.36,90.35
247313,2018-06-29 10:53:40.531250,-13.32,90.33
247314,2018-06-29 10:53:40.562500,42.6,90.33
247315,2018-06-29 10:53:40.593750,68.13,90.33
247316,2018-06-29 10:53:40.625000,60.66,90.33
247317,2018-06-29 10:53:40.656250,27.11,90.33
247318,2018-06-29 10:53:40.687500,-14.08,90.33
247319,2018-06-29 10:53:40.718750,-26.91,90.33
247320,2018-06-29 10:53:40.750000,-12.32,90.33
247321,2018-06-29 10:53:40.781250,5.39,90.33
247322,2018-06-29 10:53:40.812500,10.71,90.33
247323,2018-06-29 10:53:40.843750,-2.15,90.33
247324,2018-06-29 10:53:40.875000,-22.64,90.33
247325,2018-06-29 10:53:40.906250,-30.23,90.33
247326,2018-06-29 10:53:40.937500,-16.47,90.33
247327,2018-06-29 10:53:40.968750,5.19,90.33
247328,2018-06-29 10:53:41.000000,18.16,90.33
247329,2018-06-29 10:53:41.031250,21.13,90.33
247330,2018-06-29 10:53:41.062500,27.64,90.33
247331,2018-06-29 10:53:41.093750,46.97,90.33
247332,2018-06-29 10:53:41.125000,70.42,90.33
247333,2018-06-29 10:53:41.156250,81.35,90.33
247334,2018-06-29 10:53:41.187500,76.02,90.33
247335,2018-06-29 10:53:41.218750,63.14,90.33
247336,2018-06-29 10:53:41.250000,50.59,90.33
247337,2018-06-29 10:53:41.281250,43.79,90.33
247338,2018-06-29 10:53:41.312500,47.24,90.33
247339,2018-06-29 10:53:41.343750,58.38,90.33
247340,2018-06-29 10:53:41.375000,71.87,90.33
247341,2018-06-29 10:53:41.406250,80.63,90.33
247342,2018-06-29 10:53:41.437500,79.69,90.33
247343,2018-06-29 10:53:41.468750,61.5,90.33
247344,2018-06-29 10:53:41.500000,23.44,90.33
247345,2018-06-29 10:53:41.531250,-28.45,90.3
247346,2018-06-29 10:53:41.562500,-84.6,90.3
247347,2018-06-29 10:53:41.593750,-137.18,90.3
247348,2018-06-29 10:53:41.625000,-183.01,90.3
247349,2018-06-29 10:53:41.656250,-213.46,90.3
247350,2018-06-29 10:53:41.687500,-216.22,90.3
247351,2018-06-29 10:53:41.718750,-171.18,90.3
247352,2018-06-29 10:53:41.750000,-86.76,90.3
247353,2018-06-29 10:53:41.781250,-12.86,90.3
247354,2018-06-29 10:53:41.812500,-2.58,90.3
247355,2018-06-29 10:53:41.843750,-58.62,90.3
247356,2018-06-29 10:53:41.875000,-131.5,90.3
247357,2018-06-29 10:53:41.906250,-182.89,90.3
247358,2018-06-29 10:53:41.937500,-164.79,90.3
247359,2018-06-29 10:53:41.968750,-78.6,90.3
247360,2018-06-29 10:53:42.000000,11.4,90.3
247361,2018-06-29 10:53:42.031250,102.63,90.3
247362,2018-06-29 10:53:42.062500,177.79,90.3
247363,2018-06-29 10:53:42.093750,191.95,90.3
247364,2018-06-29 10:53:42.125000,155.66,90.3
247365,2018-06-29 10:53:42.156250,115.8,90.3
247366,2018-06-29 10:53:42.187500,99.56,90.3
247367,2018-06-29 10:53:42.218750,107.19,90.3
247368,2018-06-29 10:53:42.250000,107.2,90.3
247369,2018-06-29 10:53:42.281250,70.58,90.3
247370,2018-06-29 10:53:42.312500,7.36,90.3
247371,2018-06-29 10:53:42.343750,-40.33,90.3
247372,2018-06-29 10:53:42.375000,-60.97,90.3
247373,2018-06-29 10:53:42.406250,-77.73,90.3
247374,2018-06-29 10:53:42.437500,-93.76,90.3
247375,2018-06-29 10:53:42.468750,-95.73,90.3
247376,2018-06-29 10:53:42.500000,-66.49,90.3
247377,2018-06-29 10:53:42.531250,-28.94,90.27
247378,2018-06-29 10:53:42.562500,-3.12,90.27
247379,2018-06-29 10:53:42.593750,17.09,90.27
247380,2018-06-29 10:53:42.625000,31.84,90.27
247381,2018-06-29 10:53:42.656250,27.44,90.27
247382,2018-06-29 10:53:42.687500,13.28,90.27
247383,2018-06-29 10:53:42.718750,13.66,90.27
247384,2018-06-29 10:53:42.750000,24.25,90.27
247385,2018-06-29 10:53:42.781250,14.97,90.27
247386,2018-06-29 10:53:42.812500,-20.46,90.27
247387,2018-06-29 10:53:42.843750,-41.74,90.27
247388,2018-06-29 10:53:42.875000,-15.69,90.27
247389,2018-06-29 10:53:42.906250,32.34,90.27
247390,2018-06-29 10:53:42.937500,51.24,90.27
247391,2018-06-29 10:53:42.968750,33.35,90.27
247392,2018-06-29 10:53:43.000000,22.46,90.27
247393,2018-06-29 10:53:43.031250,59.89,90.27
247394,2018-06-29 10:53:43.062500,134.95,90.27
247395,2018-06-29 10:53:43.093750,181.02,90.27
247396,2018-06-29 10:53:43.125000,134.44,90.27
247397,2018-06-29 10:53:43.156250,33.67,90.27
247398,2018-06-29 10:53:43.187500,-26.35,90.27
247399,2018-06-29 10:53:43.218750,-15.05,90.27
247400,2018-06-29 10:53:43.250000,13.48,90.27
247401,2018-06-29 10:53:43.281250,3.37,90.27
247402,2018-06-29 10:53:43.312500,-63.25,90.27
247403,2018-06-29 10:53:43.343750,-166.07,90.27
247404,2018-06-29 10:53:43.375000,-248.69,90.27
247405,2018-06-29 10:53:43.406250,-270.72,90.27
247406,2018-06-29 10:53:43.437500,-235.1,90.27
247407,2018-06-29 10:53:43.468750,-178.37,90.27
247408,2018-06-29 10:53:43.500000,-113.02,90.27
247409,2018-06-29 10:53:43.531250,-21.42,90.27
247410,2018-06-29 10:53:43.562500,39.71,90.27
247411,2018-06-29 10:53:43.593750,65.38,90.27
247412,2018-06-29 10:53:43.625000,69.32,90.27
247413,2018-06-29 10:53:43.656250,34.66,90.27
247414,2018-06-29 10:53:43.687500,-37.78,90.27
247415,2018-06-29 10:53:43.718750,-83.81,90.27
247416,2018-06-29 10:53:43.750000,-59.05,90.27
247417,2018-06-29 10:53:43.781250,10.59,90.27
247418,2018-06-29 10:53:43.812500,72.11,90.27
247419,2018-06-29 10:53:43.843750,106.48,90.27
247420,2018-06-29 10:53:43.875000,125.86,90.27
247421,2018-06-29 10:53:43.906250,135.23,90.27
247422,2018-06-29 10:53:43.937500,130.01,90.27
247423,2018-06-29 10:53:43.968750,104.78,90.27
247424,2018-06-29 10:53:44.000000,68.34,90.27
247425,2018-06-29 10:53:44.031250,42.0,90.27
247426,2018-06-29 10:53:44.062500,37.26,90.27
247427,2018-06-29 10:53:44.093750,46.77,90.27
247428,2018-06-29 10:53:44.125000,48.38,90.27
247429,2018-06-29 10:53:44.156250,39.81,90.27
247430,2018-06-29 10:53:44.187500,44.46,90.27
247431,2018-06-29 10:53:44.218750,84.01,90.27
247432,2018-06-29 10:53:44.250000,139.55,90.27
247433,2018-06-29 10:53:44.281250,148.76,90.27
247434,2018-06-29 10:53:44.312500,78.29,90.27
247435,2018-06-29 10:53:44.343750,-53.25,90.27
247436,2018-06-29 10:53:44.375000,-169.01,90.27
247437,2018-06-29 10:53:44.406250,-186.05,90.27
247438,2018-06-29 10:53:44.437500,-144.8,90.27
247439,2018-06-29 10:53:44.468750,-84.42,90.27
247440,2018-06-29 10:53:44.500000,-29.86,90.27
247441,2018-06-29 10:53:44.531250,-11.66,90.23
247442,2018-06-29 10:53:44.562500,-41.75,90.23
247443,2018-06-29 10:53:44.593750,-82.42,90.23
247444,2018-06-29 10:53:44.625000,-87.96,90.23
247445,2018-06-29 10:53:44.656250,-42.19,90.23
247446,2018-06-29 10:53:44.687500,-3.36,90.23
247447,2018-06-29 10:53:44.718750,-17.74,90.23
247448,2018-06-29 10:53:44.750000,-50.37,90.23
247449,2018-06-29 10:53:44.781250,-58.7,90.23
247450,2018-06-29 10:53:44.812500,-68.23,90.23
247451,2018-06-29 10:53:44.843750,-114.57,90.23
247452,2018-06-29 10:53:44.875000,-170.19,90.23
247453,2018-06-29 10:53:44.906250,-182.15,90.23
247454,2018-06-29 10:53:44.937500,-144.15,90.23
247455,2018-06-29 10:53:44.968750,-93.92,90.23
247456,2018-06-29 10:53:45.000000,-56.28,90.23
247457,2018-06-29 10:53:45.031250,-32.13,90.23
247458,2018-06-29 10:53:45.062500,-11.22,90.23
247459,2018-06-29 10:53:45.093750,3.86,90.23
247460,2018-06-29 10:53:45.125000,16.15,90.23
247461,2018-06-29 10:53:45.156250,44.22,90.23
247462,2018-06-29 10:53:45.187500,98.78,90.23
247463,2018-06-29 10:53:45.218750,156.85,90.23
247464,2018-06-29 10:53:45.250000,186.46,90.23
247465,2018-06-29 10:53:45.281250,187.98,90.23
247466,2018-06-29 10:53:45.312500,181.95,90.23
247467,2018-06-29 10:53:45.343750,190.3,90.23
247468,2018-06-29 10:53:45.375000,206.15,90.23
247469,2018-06-29 10:53:45.406250,217.9,90.23
247470,2018-06-29 10:53:45.437500,220.25,90.23
247471,2018-06-29 10:53:45.468750,222.87,90.23
247472,2018-06-29 10:53:45.500000,232.75,90.23
247473,2018-06-29 10:53:45.531250,240.38,90.22
247474,2018-06-29 10:53:45.562500,240.88,90.22
247475,2018-06-29 10:53:45.593750,153.48,90.22
247476,2018-06-29 10:53:45.625000,-28.39,90.22
247477,2018-06-29 10:53:45.656250,-172.18,90.22
247478,2018-06-29 10:53:45.687500,-233.33,90.22
247479,2018-06-29 10:53:45.718750,-242.12,90.22
247480,2018-06-29 10:53:45.750000,-222.21,90.22
247481,2018-06-29 10:53:45.781250,-186.27,90.22
247482,2018-06-29 10:53:45.812500,-151.6,90.22
247483,2018-06-29 10:53:45.843750,-124.59,90.22
247484,2018-06-29 10:53:45.875000,-97.84,90.22
247485,2018-06-29 10:53:45.906250,-51.95,90.22
247486,2018-06-29 10:53:45.937500,8.72,90.22
247487,2018-06-29 10:53:45.968750,70.98,90.22
247488,2018-06-29 10:53:46.000000,122.74,90.22
247489,2018-06-29 10:53:46.031250,163.44,90.22
247490,2018-06-29 10:53:46.062500,147.66,90.22
247491,2018-06-29 10:53:46.093750,53.37,90.22
247492,2018-06-29 10:53:46.125000,-53.28,90.22
247493,2018-06-29 10:53:46.156250,-133.25,90.22
247494,2018-06-29 10:53:46.187500,-175.97,90.22
247495,2018-06-29 10:53:46.218750,-189.02,90.22
247496,2018-06-29 10:53:46.250000,-187.11,90.22
247497,2018-06-29 10:53:46.281250,-185.44,90.22
247498,2018-06-29 10:53:46.312500,-169.71,90.22
247499,2018-06-29 10:53:46.343750,-110.96,90.22
247500,2018-06-29 10:53:46.375000,-12.22,90.22
247501,2018-06-29 10:53:46.406250,75.69,90.22
247502,2018-06-29 10:53:46.437500,115.89,90.22
247503,2018-06-29 10:53:46.468750,119.32,90.22
247504,2018-06-29 10:53:46.500000,117.1,90.22
247505,2018-06-29 10:53:46.531250,123.69,90.22
247506,2018-06-29 10:53:46.562500,131.28,90.22
247507,2018-06-29 10:53:46.593750,133.44,90.22
247508,2018-06-29 10:53:46.625000,126.79,90.22
247509,2018-06-29 10:53:46.656250,108.71,90.22
247510,2018-06-29 10:53:46.687500,75.14,90.22
247511,2018-06-29 10:53:46.718750,29.91,90.22
247512,2018-06-29 10:53:46.750000,-16.9,90.22
247513,2018-06-29 10:53:46.781250,-55.06,90.22
247514,2018-06-29 10:53:46.812500,-78.79,90.22
247515,2018-06-29 10:53:46.843750,-91.06,90.22
247516,2018-06-29 10:53:46.875000,-98.34,90.22
247517,2018-06-29 10:53:46.906250,-107.78,90.22
247518,2018-06-29 10:53:46.937500,-108.01,90.22
247519,2018-06-29 10:53:46.968750,-82.68,90.22
247520,2018-06-29 10:53:47.000000,-31.29,90.22
247521,2018-06-29 10:53:47.031250,19.9,90.22
247522,2018-06-29 10:53:47.062500,43.77,90.22
247523,2018-06-29 10:53:47.093750,62.82,90.22
247524,2018-06-29 10:53:47.125000,104.6,90.22
247525,2018-06-29 10:53:47.156250,148.34,90.22
247526,2018-06-29 10:53:47.187500,164.44,90.22
247527,2018-06-29 10:53:47.218750,152.63,90.22
247528,2018-06-29 10:53:47.250000,96.43,90.22
247529,2018-06-29 10:53:47.281250,10.71,90.22
247530,2018-06-29 10:53:47.312500,-75.07,90.22
247531,2018-06-29 10:53:47.343750,-163.02,90.22
247532,2018-06-29 10:53:47.375000,-227.66,90.22
247533,2018-06-29 10:53:47.406250,-252.3,90.22
247534,2018-06-29 10:53:47.437500,-213.29,90.22
247535,2018-06-29 10:53:47.468750,-129.64,90.22
247536,2018-06-29 10:53:47.500000,-56.66,90.22
247537,2018-06-29 10:53:47.531250,3.3,90.23
247538,2018-06-29 10:53:47.562500,69.74,90.23
247539,2018-06-29 10:53:47.593750,122.54,90.23
247540,2018-06-29 10:53:47.625000,129.69,90.23
247541,2018-06-29 10:53:47.656250,89.11,90.23
247542,2018-06-29 10:53:47.687500,32.59,90.23
247543,2018-06-29 10:53:47.718750,-1.3,90.23
247544,2018-06-29 10:53:47.750000,-6.28,90.23
247545,2018-06-29 10:53:47.781250,7.26,90.23
247546,2018-06-29 10:53:47.812500,23.65,90.23
247547,2018-06-29 10:53:47.843750,33.62,90.23
247548,2018-06-29 10:53:47.875000,34.9,90.23
247549,2018-06-29 10:53:47.906250,31.3,90.23
247550,2018-06-29 10:53:47.937500,22.31,90.23
247551,2018-06-29 10:53:47.968750,0.17,90.23
247552,2018-06-29 10:53:48.000000,-34.15,90.23
247553,2018-06-29 10:53:48.031250,-67.71,90.23
247554,2018-06-29 10:53:48.062500,-83.3,90.23
247555,2018-06-29 10:53:48.093750,-79.41,90.23
247556,2018-06-29 10:53:48.125000,-64.54,90.23
247557,2018-06-29 10:53:48.156250,-42.32,90.23
247558,2018-06-29 10:53:48.187500,-2.84,90.23
247559,2018-06-29 10:53:48.218750,52.85,90.23
247560,2018-06-29 10:53:48.250000,98.9,90.23
247561,2018-06-29 10:53:48.281250,108.83,90.23
247562,2018-06-29 10:53:48.312500,73.43,90.23
247563,2018-06-29 10:53:48.343750,36.07,90.23
247564,2018-06-29 10:53:48.375000,23.41,90.23
247565,2018-06-29 10:53:48.406250,6.43,90.23
247566,2018-06-29 10:53:48.437500,-25.63,90.23
247567,2018-06-29 10:53:48.468750,-49.1,90.23
247568,2018-06-29 10:53:48.500000,-49.24,90.23
247569,2018-06-29 10:53:48.531250,-37.57,90.28
247570,2018-06-29 10:53:48.562500,-34.04,90.28
247571,2018-06-29 10:53:48.593750,-46.79,90.28
247572,2018-06-29 10:53:48.625000,-64.75,90.28
247573,2018-06-29 10:53:48.656250,-78.17,90.28
247574,2018-06-29 10:53:48.687500,-84.75,90.28
247575,2018-06-29 10:53:48.718750,-81.13,90.28
247576,2018-06-29 10:53:48.750000,-66.83,90.28
247577,2018-06-29 10:53:48.781250,-40.05,90.28
247578,2018-06-29 10:53:48.812500,6.34,90.28
247579,2018-06-29 10:53:48.843750,65.96,90.28
247580,2018-06-29 10:53:48.875000,101.28,90.28
247581,2018-06-29 10:53:48.906250,89.33,90.28
247582,2018-06-29 10:53:48.937500,60.39,90.28
247583,2018-06-29 10:53:48.968750,59.05,90.28
247584,2018-06-29 10:53:49.000000,85.95,90.28
247585,2018-06-29 10:53:49.031250,115.54,90.28
247586,2018-06-29 10:53:49.062500,123.08,90.28
247587,2018-06-29 10:53:49.093750,95.45,90.28
247588,2018-06-29 10:53:49.125000,36.39,90.28
247589,2018-06-29 10:53:49.156250,-40.18,90.28
247590,2018-06-29 10:53:49.187500,-108.65,90.28
247591,2018-06-29 10:53:49.218750,-143.71,90.28
247592,2018-06-29 10:53:49.250000,-120.04,90.28
247593,2018-06-29 10:53:49.281250,-42.13,90.28
247594,2018-06-29 10:53:49.312500,50.03,90.28
247595,2018-06-29 10:53:49.343750,115.84,90.28
247596,2018-06-29 10:53:49.375000,109.14,90.28
247597,2018-06-29 10:53:49.406250,41.25,90.28
247598,2018-06-29 10:53:49.437500,-28.28,90.28
247599,2018-06-29 10:53:49.468750,-62.38,90.28
247600,2018-06-29 10:53:49.500000,-66.22,90.28
247601,2018-06-29 10:53:49.531250,-62.26,90.35
247602,2018-06-29 10:53:49.562500,-66.02,90.35
247603,2018-06-29 10:53:49.593750,-81.65,90.35
247604,2018-06-29 10:53:49.625000,-96.26,90.35
247605,2018-06-29 10:53:49.656250,-97.51,90.35
247606,2018-06-29 10:53:49.687500,-80.85,90.35
247607,2018-06-29 10:53:49.718750,-56.64,90.35
247608,2018-06-29 10:53:49.750000,-32.13,90.35
247609,2018-06-29 10:53:49.781250,-6.71,90.35
247610,2018-06-29 10:53:49.812500,24.83,90.35
247611,2018-06-29 10:53:49.843750,54.46,90.35
247612,2018-06-29 10:53:49.875000,54.03,90.35
247613,2018-06-29 10:53:49.906250,28.42,90.35
247614,2018-06-29 10:53:49.937500,34.56,90.35
247615,2018-06-29 10:53:49.968750,101.16,90.35
247616,2018-06-29 10:53:50.000000,189.64,90.35
247617,2018-06-29 10:53:50.031250,241.29,90.35
247618,2018-06-29 10:53:50.062500,223.53,90.35
247619,2018-06-29 10:53:50.093750,122.81,90.35
247620,2018-06-29 10:53:50.125000,14.37,90.35
247621,2018-06-29 10:53:50.156250,-56.59,90.35
247622,2018-06-29 10:53:50.187500,-104.73,90.35
247623,2018-06-29 10:53:50.218750,-135.15,90.35
247624,2018-06-29 10:53:50.250000,-138.91,90.35
247625,2018-06-29 10:53:50.281250,-119.33,90.35
247626,2018-06-29 10:53:50.312500,-89.79,90.35
247627,2018-06-29 10:53:50.343750,-57.39,90.35
247628,2018-06-29 10:53:50.375000,-19.83,90.35
247629,2018-06-29 10:53:50.406250,16.55,90.35
247630,2018-06-29 10:53:50.437500,34.99,90.35
247631,2018-06-29 10:53:50.468750,22.54,90.35
247632,2018-06-29 10:53:50.500000,-16.01,90.35
247633,2018-06-29 10:53:50.531250,-52.01,90.38
247634,2018-06-29 10:53:50.562500,-50.85,90.38
247635,2018-06-29 10:53:50.593750,5.01,90.38
247636,2018-06-29 10:53:50.625000,86.67,90.38
247637,2018-06-29 10:53:50.656250,144.89,90.38
247638,2018-06-29 10:53:50.687500,133.79,90.38
247639,2018-06-29 10:53:50.718750,41.15,90.38
247640,2018-06-29 10:53:50.750000,-63.75,90.38
247641,2018-06-29 10:53:50.781250,-140.42,90.38
247642,2018-06-29 10:53:50.812500,-164.5,90.38
247643,2018-06-29 10:53:50.843750,-144.81,90.38
247644,2018-06-29 10:53:50.875000,-103.01,90.38
247645,2018-06-29 10:53:50.906250,-56.24,90.38
247646,2018-06-29 10:53:50.937500,-9.48,90.38
247647,2018-06-29 10:53:50.968750,21.52,90.38
247648,2018-06-29 10:53:51.000000,40.64,90.38
247649,2018-06-29 10:53:51.031250,62.42,90.38
247650,2018-06-29 10:53:51.062500,104.74,90.38
247651,2018-06-29 10:53:51.093750,170.28,90.38
247652,2018-06-29 10:53:51.125000,240.47,90.38
247653,2018-06-29 10:53:51.156250,268.39,90.38
247654,2018-06-29 10:53:51.187500,175.91,90.38
247655,2018-06-29 10:53:51.218750,30.35,90.38
247656,2018-06-29 10:53:51.250000,-70.0,90.38
247657,2018-06-29 10:53:51.281250,-137.07,90.38
247658,2018-06-29 10:53:51.312500,-186.83,90.38
247659,2018-06-29 10:53:51.343750,-200.97,90.38
247660,2018-06-29 10:53:51.375000,-185.61,90.38
247661,2018-06-29 10:53:51.406250,-159.13,90.38
247662,2018-06-29 10:53:51.437500,-125.33,90.38
247663,2018-06-29 10:53:51.468750,-72.54,90.38
247664,2018-06-29 10:53:51.500000,0.53,90.38
247665,2018-06-29 10:53:51.531250,74.9,90.43
247666,2018-06-29 10:53:51.562500,129.31,90.43
247667,2018-06-29 10:53:51.593750,147.16,90.43
247668,2018-06-29 10:53:51.625000,124.25,90.43
247669,2018-06-29 10:53:51.656250,49.13,90.43
247670,2018-06-29 10:53:51.687500,-31.35,90.43
247671,2018-06-29 10:53:51.718750,-49.39,90.43
247672,2018-06-29 10:53:51.750000,0.11,90.43
247673,2018-06-29 10:53:51.781250,79.64,90.43
247674,2018-06-29 10:53:51.812500,129.5,90.43
247675,2018-06-29 10:53:51.843750,115.33,90.43
247676,2018-06-29 10:53:51.875000,45.21,90.43
247677,2018-06-29 10:53:51.906250,-47.28,90.43
247678,2018-06-29 10:53:51.937500,-130.63,90.43
247679,2018-06-29 10:53:51.968750,-180.25,90.43
247680,2018-06-29 10:53:52.000000,-195.59,90.43
247681,2018-06-29 10:53:52.031250,-192.77,90.43
247682,2018-06-29 10:53:52.062500,-185.28,90.43
247683,2018-06-29 10:53:52.093750,-163.08,90.43
247684,2018-06-29 10:53:52.125000,-109.45,90.43
247685,2018-06-29 10:53:52.156250,-28.63,90.43
247686,2018-06-29 10:53:52.187500,54.85,90.43
247687,2018-06-29 10:53:52.218750,114.45,90.43
247688,2018-06-29 10:53:52.250000,137.72,90.43
247689,2018-06-29 10:53:52.281250,123.54,90.43
247690,2018-06-29 10:53:52.312500,82.28,90.43
247691,2018-06-29 10:53:52.343750,31.82,90.43
247692,2018-06-29 10:53:52.375000,-9.0,90.43
247693,2018-06-29 10:53:52.406250,-29.73,90.43
247694,2018-06-29 10:53:52.437500,-33.1,90.43
247695,2018-06-29 10:53:52.468750,-29.04,90.43
247696,2018-06-29 10:53:52.500000,-23.79,90.43
247697,2018-06-29 10:53:52.531250,-15.26,90.48
247698,2018-06-29 10:53:52.562500,-0.59,90.48
247699,2018-06-29 10:53:52.593750,16.9,90.48
247700,2018-06-29 10:53:52.625000,29.77,90.48
247701,2018-06-29 10:53:52.656250,31.94,90.48
247702,2018-06-29 10:53:52.687500,23.51,90.48
247703,2018-06-29 10:53:52.718750,13.41,90.48
247704,2018-06-29 10:53:52.750000,13.24,90.48
247705,2018-06-29 10:53:52.781250,23.95,90.48
247706,2018-06-29 10:53:52.812500,33.77,90.48
247707,2018-06-29 10:53:52.843750,38.5,90.48
247708,2018-06-29 10:53:52.875000,50.33,90.48
247709,2018-06-29 10:53:52.906250,72.07,90.48
247710,2018-06-29 10:53:52.937500,82.97,90.48
247711,2018-06-29 10:53:52.968750,66.7,90.48
247712,2018-06-29 10:53:53.000000,33.4,90.48
247713,2018-06-29 10:53:53.031250,2.98,90.48
247714,2018-06-29 10:53:53.062500,-13.39,90.48
247715,2018-06-29 10:53:53.093750,-11.96,90.48
247716,2018-06-29 10:53:53.125000,3.19,90.48
247717,2018-06-29 10:53:53.156250,18.33,90.48
247718,2018-06-29 10:53:53.187500,21.58,90.48
247719,2018-06-29 10:53:53.218750,14.83,90.48
247720,2018-06-29 10:53:53.250000,5.3,90.48
247721,2018-06-29 10:53:53.281250,-9.05,90.48
247722,2018-06-29 10:53:53.312500,-35.2,90.48
247723,2018-06-29 10:53:53.343750,-68.81,90.48
247724,2018-06-29 10:53:53.375000,-89.66,90.48
247725,2018-06-29 10:53:53.406250,-77.66,90.48
247726,2018-06-29 10:53:53.437500,-33.31,90.48
247727,2018-06-29 10:53:53.468750,22.79,90.48
247728,2018-06-29 10:53:53.500000,69.92,90.48
247729,2018-06-29 10:53:53.531250,98.79,90.53
247730,2018-06-29 10:53:53.562500,106.69,90.53
247731,2018-06-29 10:53:53.593750,95.94,90.53
247732,2018-06-29 10:53:53.625000,77.13,90.53
247733,2018-06-29 10:53:53.656250,63.77,90.53
247734,2018-06-29 10:53:53.687500,62.1,90.53
247735,2018-06-29 10:53:53.718750,69.52,90.53
247736,2018-06-29 10:53:53.750000,83.12,90.53
247737,2018-06-29 10:53:53.781250,101.1,90.53
247738,2018-06-29 10:53:53.812500,114.98,90.53
247739,2018-06-29 10:53:53.843750,112.16,90.53
247740,2018-06-29 10:53:53.875000,87.3,90.53
247741,2018-06-29 10:53:53.906250,42.81,90.53
247742,2018-06-29 10:53:53.937500,-16.21,90.53
247743,2018-06-29 10:53:53.968750,-79.05,90.53
247744,2018-06-29 10:53:54.000000,-128.86,90.53
247745,2018-06-29 10:53:54.031250,-146.86,90.53
247746,2018-06-29 10:53:54.062500,-122.38,90.53
247747,2018-06-29 10:53:54.093750,-69.75,90.53
247748,2018-06-29 10:53:54.125000,-24.7,90.53
247749,2018-06-29 10:53:54.156250,-11.81,90.53
247750,2018-06-29 10:53:54.187500,-27.09,90.53
247751,2018-06-29 10:53:54.218750,-54.11,90.53
247752,2018-06-29 10:53:54.250000,-78.65,90.53
247753,2018-06-29 10:53:54.281250,-88.48,90.53
247754,2018-06-29 10:53:54.312500,-76.21,90.53
247755,2018-06-29 10:53:54.343750,-46.63,90.53
247756,2018-06-29 10:53:54.375000,-17.04,90.53
247757,2018-06-29 10:53:54.406250,-4.6,90.53
247758,2018-06-29 10:53:54.437500,-12.3,90.53
247759,2018-06-29 10:53:54.468750,-28.95,90.53
247760,2018-06-29 10:53:54.500000,-39.16,90.53
247761,2018-06-29 10:53:54.531250,-34.03,90.58
247762,2018-06-29 10:53:54.562500,-20.03,90.58
247763,2018-06-29 10:53:54.593750,-15.77,90.58
247764,2018-06-29 10:53:54.625000,-33.08,90.58
247765,2018-06-29 10:53:54.656250,-65.52,90.58
247766,2018-06-29 10:53:54.687500,-98.38,90.58
247767,2018-06-29 10:53:54.718750,-118.44,90.58
247768,2018-06-29 10:53:54.750000,-113.58,90.58
247769,2018-06-29 10:53:54.781250,-79.12,90.58
247770,2018-06-29 10:53:54.812500,-25.63,90.58
247771,2018-06-29 10:53:54.843750,30.16,90.58
247772,2018-06-29 10:53:54.875000,79.35,90.58
247773,2018-06-29 10:53:54.906250,119.14,90.58
247774,2018-06-29 10:53:54.937500,144.48,90.58
247775,2018-06-29 10:53:54.968750,153.11,90.58
247776,2018-06-29 10:53:55.000000,155.0,90.58
247777,2018-06-29 10:53:55.031250,161.65,90.58
247778,2018-06-29 10:53:55.062500,165.79,90.58
247779,2018-06-29 10:53:55.093750,146.08,90.58
247780,2018-06-29 10:53:55.125000,94.05,90.58
247781,2018-06-29 10:53:55.156250,26.13,90.58
247782,2018-06-29 10:53:55.187500,-30.35,90.58
247783,2018-06-29 10:53:55.218750,-59.53,90.58
247784,2018-06-29 10:53:55.250000,-68.64,90.58
247785,2018-06-29 10:53:55.281250,-77.21,90.58
247786,2018-06-29 10:53:55.312500,-96.68,90.58
247787,2018-06-29 10:53:55.343750,-125.46,90.58
247788,2018-06-29 10:53:55.375000,-156.7,90.58
247789,2018-06-29 10:53:55.406250,-176.43,90.58
247790,2018-06-29 10:53:55.437500,-164.43,90.58
247791,2018-06-29 10:53:55.468750,-114.1,90.58
247792,2018-06-29 10:53:55.500000,-45.06,90.58
247793,2018-06-29 10:53:55.531250,14.33,90.6
247794,2018-06-29 10:53:55.562500,51.72,90.6
247795,2018-06-29 10:53:55.593750,71.17,90.6
247796,2018-06-29 10:53:55.625000,80.59,90.6
247797,2018-06-29 10:53:55.656250,83.86,90.6
247798,2018-06-29 10:53:55.687500,82.25,90.6
247799,2018-06-29 10:53:55.718750,76.8,90.6
247800,2018-06-29 10:53:55.750000,69.86,90.6
247801,2018-06-29 10:53:55.781250,67.03,90.6
247802,2018-06-29 10:53:55.812500,71.39,90.6
247803,2018-06-29 10:53:55.843750,79.44,90.6
247804,2018-06-29 10:53:55.875000,77.0,90.6
247805,2018-06-29 10:53:55.906250,57.23,90.6
247806,2018-06-29 10:53:55.937500,29.88,90.6
247807,2018-06-29 10:53:55.968750,11.76,90.6
247808,2018-06-29 10:53:56.000000,7.69,90.6
247809,2018-06-29 10:53:56.031250,9.44,90.6
247810,2018-06-29 10:53:56.062500,20.15,90.6
247811,2018-06-29 10:53:56.093750,49.57,90.6
247812,2018-06-29 10:53:56.125000,98.26,90.6
247813,2018-06-29 10:53:56.156250,139.43,90.6
247814,2018-06-29 10:53:56.187500,146.63,90.6
247815,2018-06-29 10:53:56.218750,106.89,90.6
247816,2018-06-29 10:53:56.250000,9.69,90.6
247817,2018-06-29 10:53:56.281250,-71.41,90.6
247818,2018-06-29 10:53:56.312500,-93.65,90.6
247819,2018-06-29 10:53:56.343750,-74.57,90.6
247820,2018-06-29 10:53:56.375000,-29.83,90.6
247821,2018-06-29 10:53:56.406250,16.31,90.6
247822,2018-06-29 10:53:56.437500,19.32,90.6
247823,2018-06-29 10:53:56.468750,-32.94,90.6
247824,2018-06-29 10:53:56.500000,-110.24,90.6
247825,2018-06-29 10:53:56.531250,-179.1,90.58
247826,2018-06-29 10:53:56.562500,-224.13,90.58
247827,2018-06-29 10:53:56.593750,-241.6,90.58
247828,2018-06-29 10:53:56.625000,-229.84,90.58
247829,2018-06-29 10:53:56.656250,-197.63,90.58
247830,2018-06-29 10:53:56.687500,-152.99,90.58
247831,2018-06-29 10:53:56.718750,-97.89,90.58
247832,2018-06-29 10:53:56.750000,-32.35,90.58
247833,2018-06-29 10:53:56.781250,32.77,90.58
247834,2018-06-29 10:53:56.812500,77.82,90.58
247835,2018-06-29 10:53:56.843750,92.95,90.58
247836,2018-06-29 10:53:56.875000,85.78,90.58
247837,2018-06-29 10:53:56.906250,71.59,90.58
247838,2018-06-29 10:53:56.937500,57.99,90.58
247839,2018-06-29 10:53:56.968750,46.28,90.58
247840,2018-06-29 10:53:57.000000,38.53,90.58
247841,2018-06-29 10:53:57.031250,37.35,90.58
247842,2018-06-29 10:53:57.062500,40.21,90.58
247843,2018-06-29 10:53:57.093750,40.3,90.58
247844,2018-06-29 10:53:57.125000,35.6,90.58
247845,2018-06-29 10:53:57.156250,33.04,90.58
247846,2018-06-29 10:53:57.187500,40.03,90.58
247847,2018-06-29 10:53:57.218750,54.15,90.58
247848,2018-06-29 10:53:57.250000,62.03,90.58
247849,2018-06-29 10:53:57.281250,52.3,90.58
247850,2018-06-29 10:53:57.312500,32.28,90.58
247851,2018-06-29 10:53:57.343750,23.79,90.58
247852,2018-06-29 10:53:57.375000,38.78,90.58
247853,2018-06-29 10:53:57.406250,65.09,90.58
247854,2018-06-29 10:53:57.437500,79.58,90.58
247855,2018-06-29 10:53:57.468750,71.4,90.58
247856,2018-06-29 10:53:57.500000,51.8,90.58
247857,2018-06-29 10:53:57.531250,38.28,90.6
247858,2018-06-29 10:53:57.562500,31.29,90.6
247859,2018-06-29 10:53:57.593750,15.67,90.6
247860,2018-06-29 10:53:57.625000,-16.7,90.6
247861,2018-06-29 10:53:57.656250,-59.5,90.6
247862,2018-06-29 10:53:57.687500,-103.3,90.6
247863,2018-06-29 10:53:57.718750,-140.94,90.6
247864,2018-06-29 10:53:57.750000,-163.7,90.6
247865,2018-06-29 10:53:57.781250,-163.98,90.6
247866,2018-06-29 10:53:57.812500,-143.34,90.6
247867,2018-06-29 10:53:57.843750,-112.49,90.6
247868,2018-06-29 10:53:57.875000,-84.6,90.6
247869,2018-06-29 10:53:57.906250,-69.0,90.6
247870,2018-06-29 10:53:57.937500,-61.25,90.6
247871,2018-06-29 10:53:57.968750,-41.76,90.6
247872,2018-06-29 10:53:58.000000,-0.64,90.6
247873,2018-06-29 10:53:58.031250,42.74,90.6
247874,2018-06-29 10:53:58.062500,63.15,90.6
247875,2018-06-29 10:53:58.093750,60.04,90.6
247876,2018-06-29 10:53:58.125000,48.09,90.6
247877,2018-06-29 10:53:58.156250,36.18,90.6
247878,2018-06-29 10:53:58.187500,29.55,90.6
247879,2018-06-29 10:53:58.218750,34.17,90.6
247880,2018-06-29 10:53:58.250000,48.19,90.6
247881,2018-06-29 10:53:58.281250,61.47,90.6
247882,2018-06-29 10:53:58.312500,67.15,90.6
247883,2018-06-29 10:53:58.343750,68.36,90.6
247884,2018-06-29 10:53:58.375000,73.31,90.6
247885,2018-06-29 10:53:58.406250,83.56,90.6
247886,2018-06-29 10:53:58.437500,91.35,90.6
247887,2018-06-29 10:53:58.468750,91.39,90.6
247888,2018-06-29 10:53:58.500000,85.53,90.6
247889,2018-06-29 10:53:58.531250,71.05,90.67
247890,2018-06-29 10:53:58.562500,37.67,90.67
247891,2018-06-29 10:53:58.593750,-13.63,90.67
247892,2018-06-29 10:53:58.625000,-57.54,90.67
247893,2018-06-29 10:53:58.656250,-61.76,90.67
247894,2018-06-29 10:53:58.687500,-20.85,90.67
247895,2018-06-29 10:53:58.718750,32.5,90.67
247896,2018-06-29 10:53:58.750000,56.98,90.67
247897,2018-06-29 10:53:58.781250,37.22,90.67
247898,2018-06-29 10:53:58.812500,-15.28,90.67
247899,2018-06-29 10:53:58.843750,-79.5,90.67
247900,2018-06-29 10:53:58.875000,-132.87,90.67
247901,2018-06-29 10:53:58.906250,-157.24,90.67
247902,2018-06-29 10:53:58.937500,-151.45,90.67
247903,2018-06-29 10:53:58.968750,-130.13,90.67
247904,2018-06-29 10:53:59.000000,-104.98,90.67
247905,2018-06-29 10:53:59.031250,-77.45,90.67
247906,2018-06-29 10:53:59.062500,-50.94,90.67
247907,2018-06-29 10:53:59.093750,-35.44,90.67
247908,2018-06-29 10:53:59.125000,-32.0,90.67
247909,2018-06-29 10:53:59.156250,-31.29,90.67
247910,2018-06-29 10:53:59.187500,-28.29,90.67
247911,2018-06-29 10:53:59.218750,-23.7,90.67
247912,2018-06-29 10:53:59.250000,-12.33,90.67
247913,2018-06-29 10:53:59.281250,10.63,90.67
247914,2018-06-29 10:53:59.312500,37.35,90.67
247915,2018-06-29 10:53:59.343750,56.96,90.67
247916,2018-06-29 10:53:59.375000,66.02,90.67
247917,2018-06-29 10:53:59.406250,69.84,90.67
247918,2018-06-29 10:53:59.437500,72.12,90.67
247919,2018-06-29 10:53:59.468750,75.36,90.67
247920,2018-06-29 10:53:59.500000,79.61,90.67
247921,2018-06-29 10:53:59.531250,86.09,90.72
247922,2018-06-29 10:53:59.562500,99.67,90.72
247923,2018-06-29 10:53:59.593750,118.57,90.72
247924,2018-06-29 10:53:59.625000,131.34,90.72
247925,2018-06-29 10:53:59.656250,120.81,90.72
247926,2018-06-29 10:53:59.687500,84.59,90.72
247927,2018-06-29 10:53:59.718750,26.77,90.72
247928,2018-06-29 10:53:59.750000,-38.96,90.72
247929,2018-06-29 10:53:59.781250,-72.51,90.72
247930,2018-06-29 10:53:59.812500,-81.16,90.72
247931,2018-06-29 10:53:59.843750,-66.45,90.72
247932,2018-06-29 10:53:59.875000,-15.22,90.72
247933,2018-06-29 10:53:59.906250,51.76,90.72
247934,2018-06-29 10:53:59.937500,81.63,90.72
247935,2018-06-29 10:53:59.968750,55.46,90.72
247936,2018-06-29 10:54:00.000000,1.14,90.72
247937,2018-06-29 10:54:00.031250,-51.77,90.72
247938,2018-06-29 10:54:00.062500,-98.05,90.72
247939,2018-06-29 10:54:00.093750,-131.93,90.72
247940,2018-06-29 10:54:00.125000,-135.82,90.72
247941,2018-06-29 10:54:00.156250,-104.56,90.72
247942,2018-06-29 10:54:00.187500,-57.9,90.72
247943,2018-06-29 10:54:00.218750,-28.51,90.72
247944,2018-06-29 10:54:00.250000,-27.93,90.72
247945,2018-06-29 10:54:00.281250,-36.37,90.72
247946,2018-06-29 10:54:00.312500,-21.51,90.72
247947,2018-06-29 10:54:00.343750,24.69,90.72
247948,2018-06-29 10:54:00.375000,68.09,90.72
247949,2018-06-29 10:54:00.406250,65.23,90.72
247950,2018-06-29 10:54:00.437500,12.0,90.72
247951,2018-06-29 10:54:00.468750,-55.27,90.72
247952,2018-06-29 10:54:00.500000,-100.79,90.72
247953,2018-06-29 10:54:00.531250,-110.95,90.78
247954,2018-06-29 10:54:00.562500,-87.72,90.78
247955,2018-06-29 10:54:00.593750,-45.18,90.78
247956,2018-06-29 10:54:00.625000,-4.55,90.78
247957,2018-06-29 10:54:00.656250,22.19,90.78
247958,2018-06-29 10:54:00.687500,39.34,90.78
247959,2018-06-29 10:54:00.718750,57.5,90.78
247960,2018-06-29 10:54:00.750000,76.55,90.78
247961,2018-06-29 10:54:00.781250,86.37,90.78
247962,2018-06-29 10:54:00.812500,81.1,90.78
247963,2018-06-29 10:54:00.843750,65.51,90.78
247964,2018-06-29 10:54:00.875000,41.64,90.78
247965,2018-06-29 10:54:00.906250,1.05,90.78
247966,2018-06-29 10:54:00.937500,-35.69,90.78
247967,2018-06-29 10:54:00.968750,-49.88,90.78
247968,2018-06-29 10:54:01.000000,-38.92,90.78
247969,2018-06-29 10:54:01.031250,5.34,90.78
247970,2018-06-29 10:54:01.062500,69.26,90.78
247971,2018-06-29 10:54:01.093750,109.92,90.78
247972,2018-06-29 10:54:01.125000,77.31,90.78
247973,2018-06-29 10:54:01.156250,-7.58,90.78
247974,2018-06-29 10:54:01.187500,-59.5,90.78
247975,2018-06-29 10:54:01.218750,-62.05,90.78
247976,2018-06-29 10:54:01.250000,-58.29,90.78
247977,2018-06-29 10:54:01.281250,-57.91,90.78
247978,2018-06-29 10:54:01.312500,-52.98,90.78
247979,2018-06-29 10:54:01.343750,-42.69,90.78
247980,2018-06-29 10:54:01.375000,-27.15,90.78
247981,2018-06-29 10:54:01.406250,-4.7,90.78
247982,2018-06-29 10:54:01.437500,20.14,90.78
247983,2018-06-29 10:54:01.468750,36.98,90.78
247984,2018-06-29 10:54:01.500000,47.76,90.78
247985,2018-06-29 10:54:01.531250,65.8,90.83
247986,2018-06-29 10:54:01.562500,89.11,90.83
247987,2018-06-29 10:54:01.593750,93.74,90.83
247988,2018-06-29 10:54:01.625000,60.29,90.83
247989,2018-06-29 10:54:01.656250,-1.8,90.83
247990,2018-06-29 10:54:01.687500,-65.54,90.83
247991,2018-06-29 10:54:01.718750,-110.4,90.83
247992,2018-06-29 10:54:01.750000,-130.63,90.83
247993,2018-06-29 10:54:01.781250,-133.05,90.83
247994,2018-06-29 10:54:01.812500,-128.17,90.83
247995,2018-06-29 10:54:01.843750,-115.0,90.83
247996,2018-06-29 10:54:01.875000,-78.84,90.83
247997,2018-06-29 10:54:01.906250,-13.05,90.83
247998,2018-06-29 10:54:01.937500,64.5,90.83
247999,2018-06-29 10:54:01.968750,126.46,90.83
248000,2018-06-29 10:54:02.000000,160.92,90.83
248001,2018-06-29 10:54:02.031250,174.22,90.83
248002,2018-06-29 10:54:02.062500,172.47,90.83
248003,2018-06-29 10:54:02.093750,150.16,90.83
248004,2018-06-29 10:54:02.125000,101.15,90.83
248005,2018-06-29 10:54:02.156250,37.99,90.83
248006,2018-06-29 10:54:02.187500,-6.24,90.83
248007,2018-06-29 10:54:02.218750,-6.31,90.83
248008,2018-06-29 10:54:02.250000,22.85,90.83
248009,2018-06-29 10:54:02.281250,38.52,90.83
248010,2018-06-29 10:54:02.312500,15.79,90.83
248011,2018-06-29 10:54:02.343750,-36.12,90.83
248012,2018-06-29 10:54:02.375000,-97.33,90.83
248013,2018-06-29 10:54:02.406250,-151.25,90.83
248014,2018-06-29 10:54:02.437500,-181.07,90.83
248015,2018-06-29 10:54:02.468750,-180.7,90.83
248016,2018-06-29 10:54:02.500000,-163.32,90.83
248017,2018-06-29 10:54:02.531250,-142.18,90.88
248018,2018-06-29 10:54:02.562500,-111.79,90.88
248019,2018-06-29 10:54:02.593750,-60.04,90.88
248020,2018-06-29 10:54:02.625000,13.25,90.88
248021,2018-06-29 10:54:02.656250,98.77,90.88
248022,2018-06-29 10:54:02.687500,176.25,90.88
248023,2018-06-29 10:54:02.718750,213.44,90.88
248024,2018-06-29 10:54:02.750000,188.13,90.88
248025,2018-06-29 10:54:02.781250,113.91,90.88
248026,2018-06-29 10:54:02.812500,28.09,90.88
248027,2018-06-29 10:54:02.843750,-38.47,90.88
248028,2018-06-29 10:54:02.875000,-73.33,90.88
248029,2018-06-29 10:54:02.906250,-81.17,90.88
248030,2018-06-29 10:54:02.937500,-71.36,90.88
248031,2018-06-29 10:54:02.968750,-52.48,90.88
248032,2018-06-29 10:54:03.000000,-27.52,90.88
248033,2018-06-29 10:54:03.031250,-1.84,90.88
248034,2018-06-29 10:54:03.062500,17.93,90.88
248035,2018-06-29 10:54:03.093750,29.81,90.88
248036,2018-06-29 10:54:03.125000,38.55,90.88
248037,2018-06-29 10:54:03.156250,55.8,90.88
248038,2018-06-29 10:54:03.187500,82.61,90.88
248039,2018-06-29 10:54:03.218750,106.84,90.88
248040,2018-06-29 10:54:03.250000,86.57,90.88
248041,2018-06-29 10:54:03.281250,11.21,90.88
248042,2018-06-29 10:54:03.312500,-51.64,90.88
248043,2018-06-29 10:54:03.343750,-60.32,90.88
248044,2018-06-29 10:54:03.375000,-19.06,90.88
248045,2018-06-29 10:54:03.406250,47.09,90.88
248046,2018-06-29 10:54:03.437500,98.98,90.88
248047,2018-06-29 10:54:03.468750,83.06,90.88
248048,2018-06-29 10:54:03.500000,2.22,90.88
248049,2018-06-29 10:54:03.531250,-75.68,90.95
248050,2018-06-29 10:54:03.562500,-122.1,90.95
248051,2018-06-29 10:54:03.593750,-153.62,90.95
248052,2018-06-29 10:54:03.625000,-174.77,90.95
248053,2018-06-29 10:54:03.656250,-171.44,90.95
248054,2018-06-29 10:54:03.687500,-143.83,90.95
248055,2018-06-29 10:54:03.718750,-108.78,90.95
248056,2018-06-29 10:54:03.750000,-84.19,90.95
248057,2018-06-29 10:54:03.781250,-68.9,90.95
248058,2018-06-29 10:54:03.812500,-43.33,90.95
248059,2018-06-29 10:54:03.843750,11.58,90.95
248060,2018-06-29 10:54:03.875000,86.54,90.95
248061,2018-06-29 10:54:03.906250,142.98,90.95
248062,2018-06-29 10:54:03.937500,154.81,90.95
248063,2018-06-29 10:54:03.968750,129.03,90.95
248064,2018-06-29 10:54:04.000000,88.71,90.95
248065,2018-06-29 10:54:04.031250,50.77,90.95
248066,2018-06-29 10:54:04.062500,25.21,90.95
248067,2018-06-29 10:54:04.093750,19.24,90.95
248068,2018-06-29 10:54:04.125000,25.38,90.95
248069,2018-06-29 10:54:04.156250,32.93,90.95
248070,2018-06-29 10:54:04.187500,39.64,90.95
248071,2018-06-29 10:54:04.218750,50.94,90.95
248072,2018-06-29 10:54:04.250000,68.29,90.95
248073,2018-06-29 10:54:04.281250,83.48,90.95
248074,2018-06-29 10:54:04.312500,90.45,90.95
248075,2018-06-29 10:54:04.343750,78.61,90.95
248076,2018-06-29 10:54:04.375000,47.26,90.95
248077,2018-06-29 10:54:04.406250,-0.98,90.95
248078,2018-06-29 10:54:04.437500,-52.37,90.95
248079,2018-06-29 10:54:04.468750,-63.56,90.95
248080,2018-06-29 10:54:04.500000,-27.75,90.95
248081,2018-06-29 10:54:04.531250,41.6,91.0
248082,2018-06-29 10:54:04.562500,109.77,91.0
248083,2018-06-29 10:54:04.593750,142.76,91.0
248084,2018-06-29 10:54:04.625000,101.79,91.0
248085,2018-06-29 10:54:04.656250,6.86,91.0
248086,2018-06-29 10:54:04.687500,-71.58,91.0
248087,2018-06-29 10:54:04.718750,-128.59,91.0
248088,2018-06-29 10:54:04.750000,-168.55,91.0
248089,2018-06-29 10:54:04.781250,-179.95,91.0
248090,2018-06-29 10:54:04.812500,-159.37,91.0
248091,2018-06-29 10:54:04.843750,-124.22,91.0
248092,2018-06-29 10:54:04.875000,-90.21,91.0
248093,2018-06-29 10:54:04.906250,-71.49,91.0
248094,2018-06-29 10:54:04.937500,-68.93,91.0
248095,2018-06-29 10:54:04.968750,-74.5,91.0
248096,2018-06-29 10:54:05.000000,-72.54,91.0
248097,2018-06-29 10:54:05.031250,-49.42,91.0
248098,2018-06-29 10:54:05.062500,-6.61,91.0
248099,2018-06-29 10:54:05.093750,40.29,91.0
248100,2018-06-29 10:54:05.125000,70.99,91.0
248101,2018-06-29 10:54:05.156250,80.68,91.0
248102,2018-06-29 10:54:05.187500,76.71,91.0
248103,2018-06-29 10:54:05.218750,68.24,91.0
248104,2018-06-29 10:54:05.250000,62.74,91.0
248105,2018-06-29 10:54:05.281250,64.96,91.0
248106,2018-06-29 10:54:05.312500,69.48,91.0
248107,2018-06-29 10:54:05.343750,63.22,91.0
248108,2018-06-29 10:54:05.375000,45.32,91.0
248109,2018-06-29 10:54:05.406250,32.87,91.0
248110,2018-06-29 10:54:05.437500,37.81,91.0
248111,2018-06-29 10:54:05.468750,51.05,91.0
248112,2018-06-29 10:54:05.500000,54.04,91.0
248113,2018-06-29 10:54:05.531250,38.84,90.98
248114,2018-06-29 10:54:05.562500,6.42,90.98
248115,2018-06-29 10:54:05.593750,-44.22,90.98
248116,2018-06-29 10:54:05.625000,-80.79,90.98
248117,2018-06-29 10:54:05.656250,-91.89,90.98
248118,2018-06-29 10:54:05.687500,-82.69,90.98
248119,2018-06-29 10:54:05.718750,-36.41,90.98
248120,2018-06-29 10:54:05.750000,56.31,90.98
248121,2018-06-29 10:54:05.781250,153.99,90.98
248122,2018-06-29 10:54:05.812500,175.29,90.98
248123,2018-06-29 10:54:05.843750,93.88,90.98
248124,2018-06-29 10:54:05.875000,-6.03,90.98
248125,2018-06-29 10:54:05.906250,-64.62,90.98
248126,2018-06-29 10:54:05.937500,-96.86,90.98
248127,2018-06-29 10:54:05.968750,-111.3,90.98
248128,2018-06-29 10:54:06.000000,-94.07,90.98
248129,2018-06-29 10:54:06.031250,-56.16,90.98
248130,2018-06-29 10:54:06.062500,-24.11,90.98
248131,2018-06-29 10:54:06.093750,-7.78,90.98
248132,2018-06-29 10:54:06.125000,0.14,90.98
248133,2018-06-29 10:54:06.156250,8.1,90.98
248134,2018-06-29 10:54:06.187500,19.0,90.98
248135,2018-06-29 10:54:06.218750,30.3,90.98
248136,2018-06-29 10:54:06.250000,34.73,90.98
248137,2018-06-29 10:54:06.281250,22.57,90.98
248138,2018-06-29 10:54:06.312500,-15.83,90.98
248139,2018-06-29 10:54:06.343750,-58.92,90.98
248140,2018-06-29 10:54:06.375000,-72.49,90.98
248141,2018-06-29 10:54:06.406250,-53.49,90.98
248142,2018-06-29 10:54:06.437500,-23.38,90.98
248143,2018-06-29 10:54:06.468750,-0.93,90.98
248144,2018-06-29 10:54:06.500000,8.56,90.98
248145,2018-06-29 10:54:06.531250,7.69,90.95
248146,2018-06-29 10:54:06.562500,4.16,90.95
248147,2018-06-29 10:54:06.593750,5.01,90.95
248148,2018-06-29 10:54:06.625000,10.16,90.95
248149,2018-06-29 10:54:06.656250,12.0,90.95
248150,2018-06-29 10:54:06.687500,8.09,90.95
248151,2018-06-29 10:54:06.718750,4.91,90.95
248152,2018-06-29 10:54:06.750000,7.54,90.95
248153,2018-06-29 10:54:06.781250,11.19,90.95
248154,2018-06-29 10:54:06.812500,8.81,90.95
248155,2018-06-29 10:54:06.843750,3.74,90.95
248156,2018-06-29 10:54:06.875000,4.99,90.95
248157,2018-06-29 10:54:06.906250,12.96,90.95
248158,2018-06-29 10:54:06.937500,18.44,90.95
248159,2018-06-29 10:54:06.968750,17.18,90.95
248160,2018-06-29 10:54:07.000000,15.15,90.95
248161,2018-06-29 10:54:07.031250,14.52,90.95
248162,2018-06-29 10:54:07.062500,6.68,90.95
248163,2018-06-29 10:54:07.093750,-16.25,90.95
248164,2018-06-29 10:54:07.125000,-53.78,90.95
248165,2018-06-29 10:54:07.156250,-92.15,90.95
248166,2018-06-29 10:54:07.187500,-102.61,90.95
248167,2018-06-29 10:54:07.218750,-67.65,90.95
248168,2018-06-29 10:54:07.250000,-15.87,90.95
248169,2018-06-29 10:54:07.281250,11.02,90.95
248170,2018-06-29 10:54:07.312500,12.91,90.95
248171,2018-06-29 10:54:07.343750,14.63,90.95
248172,2018-06-29 10:54:07.375000,24.58,90.95
248173,2018-06-29 10:54:07.406250,40.65,90.95
248174,2018-06-29 10:54:07.437500,61.81,90.95
248175,2018-06-29 10:54:07.468750,76.29,90.95
248176,2018-06-29 10:54:07.500000,69.73,90.95
248177,2018-06-29 10:54:07.531250,47.29,91.07
248178,2018-06-29 10:54:07.562500,27.66,91.07
248179,2018-06-29 10:54:07.593750,21.2,91.07
248180,2018-06-29 10:54:07.625000,17.3,91.07
248181,2018-06-29 10:54:07.656250,-3.75,91.07
248182,2018-06-29 10:54:07.687500,-39.72,91.07
248183,2018-06-29 10:54:07.718750,-60.1,91.07
248184,2018-06-29 10:54:07.750000,-46.32,91.07
248185,2018-06-29 10:54:07.781250,-19.22,91.07
248186,2018-06-29 10:54:07.812500,-6.24,91.07
248187,2018-06-29 10:54:07.843750,-7.71,91.07
248188,2018-06-29 10:54:07.875000,-12.78,91.07
248189,2018-06-29 10:54:07.906250,-17.35,91.07
248190,2018-06-29 10:54:07.937500,-17.79,91.07
248191,2018-06-29 10:54:07.968750,-7.88,91.07
248192,2018-06-29 10:54:08.000000,12.2,91.07
248193,2018-06-29 10:54:08.031250,35.04,91.07
248194,2018-06-29 10:54:08.062500,51.96,91.07
248195,2018-06-29 10:54:08.093750,55.47,91.07
248196,2018-06-29 10:54:08.125000,39.75,91.07
248197,2018-06-29 10:54:08.156250,5.09,91.07
248198,2018-06-29 10:54:08.187500,-35.45,91.07
248199,2018-06-29 10:54:08.218750,-66.46,91.07
248200,2018-06-29 10:54:08.250000,-78.39,91.07
248201,2018-06-29 10:54:08.281250,-72.71,91.07
248202,2018-06-29 10:54:08.312500,-57.52,91.07
248203,2018-06-29 10:54:08.343750,-34.23,91.07
248204,2018-06-29 10:54:08.375000,5.02,91.07
248205,2018-06-29 10:54:08.406250,57.86,91.07
248206,2018-06-29 10:54:08.437500,101.59,91.07
248207,2018-06-29 10:54:08.468750,112.86,91.07
248208,2018-06-29 10:54:08.500000,91.01,91.07
248209,2018-06-29 10:54:08.531250,54.6,91.22
248210,2018-06-29 10:54:08.562500,20.8,91.22
248211,2018-06-29 10:54:08.593750,-5.11,91.22
248212,2018-06-29 10:54:08.625000,-27.59,91.22
248213,2018-06-29 10:54:08.656250,-49.76,91.22
248214,2018-06-29 10:54:08.687500,-67.39,91.22
248215,2018-06-29 10:54:08.718750,-74.84,91.22
248216,2018-06-29 10:54:08.750000,-74.26,91.22
248217,2018-06-29 10:54:08.781250,-74.04,91.22
248218,2018-06-29 10:54:08.812500,-79.54,91.22
248219,2018-06-29 10:54:08.843750,-92.7,91.22
248220,2018-06-29 10:54:08.875000,-107.9,91.22
248221,2018-06-29 10:54:08.906250,-113.1,91.22
248222,2018-06-29 10:54:08.937500,-102.5,91.22
248223,2018-06-29 10:54:08.968750,-78.06,91.22
248224,2018-06-29 10:54:09.000000,-34.08,91.22
248225,2018-06-29 10:54:09.031250,38.5,91.22
248226,2018-06-29 10:54:09.062500,126.14,91.22
248227,2018-06-29 10:54:09.093750,193.77,91.22
248228,2018-06-29 10:54:09.125000,217.57,91.22
248229,2018-06-29 10:54:09.156250,201.4,91.22
248230,2018-06-29 10:54:09.187500,161.95,91.22
248231,2018-06-29 10:54:09.218750,115.48,91.22
248232,2018-06-29 10:54:09.250000,74.46,91.22
248233,2018-06-29 10:54:09.281250,41.26,91.22
248234,2018-06-29 10:54:09.312500,6.59,91.22
248235,2018-06-29 10:54:09.343750,-37.81,91.22
248236,2018-06-29 10:54:09.375000,-87.99,91.22
248237,2018-06-29 10:54:09.406250,-133.22,91.22
248238,2018-06-29 10:54:09.437500,-165.77,91.22
248239,2018-06-29 10:54:09.468750,-183.51,91.22
248240,2018-06-29 10:54:09.500000,-187.92,91.22
248241,2018-06-29 10:54:09.531250,-181.71,91.33
248242,2018-06-29 10:54:09.562500,-168.33,91.33
248243,2018-06-29 10:54:09.593750,-150.86,91.33
248244,2018-06-29 10:54:09.625000,-126.54,91.33
248245,2018-06-29 10:54:09.656250,-85.82,91.33
248246,2018-06-29 10:54:09.687500,-25.15,91.33
248247,2018-06-29 10:54:09.718750,43.34,91.33
248248,2018-06-29 10:54:09.750000,102.58,91.33
248249,2018-06-29 10:54:09.781250,143.16,91.33
248250,2018-06-29 10:54:09.812500,160.78,91.33
248251,2018-06-29 10:54:09.843750,152.86,91.33
248252,2018-06-29 10:54:09.875000,123.64,91.33
248253,2018-06-29 10:54:09.906250,85.96,91.33
248254,2018-06-29 10:54:09.937500,54.46,91.33
248255,2018-06-29 10:54:09.968750,36.49,91.33
248256,2018-06-29 10:54:10.000000,29.07,91.33
248257,2018-06-29 10:54:10.031250,25.43,91.33
248258,2018-06-29 10:54:10.062500,23.84,91.33
248259,2018-06-29 10:54:10.093750,27.68,91.33
248260,2018-06-29 10:54:10.125000,38.85,91.33
248261,2018-06-29 10:54:10.156250,51.91,91.33
248262,2018-06-29 10:54:10.187500,53.77,91.33
248263,2018-06-29 10:54:10.218750,35.67,91.33
248264,2018-06-29 10:54:10.250000,9.13,91.33
248265,2018-06-29 10:54:10.281250,-2.76,91.33
248266,2018-06-29 10:54:10.312500,5.32,91.33
248267,2018-06-29 10:54:10.343750,15.38,91.33
248268,2018-06-29 10:54:10.375000,13.69,91.33
248269,2018-06-29 10:54:10.406250,5.76,91.33
248270,2018-06-29 10:54:10.437500,-0.62,91.33
248271,2018-06-29 10:54:10.468750,-8.26,91.33
248272,2018-06-29 10:54:10.500000,-20.94,91.33
248273,2018-06-29 10:54:10.531250,-34.31,91.47
248274,2018-06-29 10:54:10.562500,-40.59,91.47
248275,2018-06-29 10:54:10.593750,-35.39,91.47
248276,2018-06-29 10:54:10.625000,-19.94,91.47
248277,2018-06-29 10:54:10.656250,-2.29,91.47
248278,2018-06-29 10:54:10.687500,6.18,91.47
248279,2018-06-29 10:54:10.718750,-1.11,91.47
248280,2018-06-29 10:54:10.750000,-22.04,91.47
248281,2018-06-29 10:54:10.781250,-48.8,91.47
248282,2018-06-29 10:54:10.812500,-73.14,91.47
248283,2018-06-29 10:54:10.843750,-87.53,91.47
248284,2018-06-29 10:54:10.875000,-79.67,91.47
248285,2018-06-29 10:54:10.906250,-36.24,91.47
248286,2018-06-29 10:54:10.937500,35.79,91.47
248287,2018-06-29 10:54:10.968750,102.27,91.47
248288,2018-06-29 10:54:11.000000,132.45,91.47
248289,2018-06-29 10:54:11.031250,126.99,91.47
248290,2018-06-29 10:54:11.062500,105.87,91.47
248291,2018-06-29 10:54:11.093750,83.95,91.47
248292,2018-06-29 10:54:11.125000,67.92,91.47
248293,2018-06-29 10:54:11.156250,60.4,91.47
248294,2018-06-29 10:54:11.187500,58.93,91.47
248295,2018-06-29 10:54:11.218750,61.74,91.47
248296,2018-06-29 10:54:11.250000,71.88,91.47
248297,2018-06-29 10:54:11.281250,86.41,91.47
248298,2018-06-29 10:54:11.312500,92.01,91.47
248299,2018-06-29 10:54:11.343750,79.83,91.47
248300,2018-06-29 10:54:11.375000,51.77,91.47
248301,2018-06-29 10:54:11.406250,9.28,91.47
248302,2018-06-29 10:54:11.437500,-49.01,91.47
248303,2018-06-29 10:54:11.468750,-116.02,91.47
248304,2018-06-29 10:54:11.500000,-172.57,91.47
248305,2018-06-29 10:54:11.531250,-198.83,91.62
248306,2018-06-29 10:54:11.562500,-188.39,91.62
248307,2018-06-29 10:54:11.593750,-152.25,91.62
248308,2018-06-29 10:54:11.625000,-110.69,91.62
248309,2018-06-29 10:54:11.656250,-79.09,91.62
248310,2018-06-29 10:54:11.687500,-59.23,91.62
248311,2018-06-29 10:54:11.718750,-42.96,91.62
248312,2018-06-29 10:54:11.750000,-23.64,91.62
248313,2018-06-29 10:54:11.781250,-0.08,91.62
248314,2018-06-29 10:54:11.812500,28.14,91.62
248315,2018-06-29 10:54:11.843750,58.28,91.62
248316,2018-06-29 10:54:11.875000,79.3,91.62
248317,2018-06-29 10:54:11.906250,81.62,91.62
248318,2018-06-29 10:54:11.937500,68.54,91.62
248319,2018-06-29 10:54:11.968750,49.74,91.62
248320,2018-06-29 10:54:12.000000,32.94,91.62
248321,2018-06-29 10:54:12.031250,25.36,91.62
248322,2018-06-29 10:54:12.062500,30.09,91.62
248323,2018-06-29 10:54:12.093750,40.71,91.62
248324,2018-06-29 10:54:12.125000,47.73,91.62
248325,2018-06-29 10:54:12.156250,43.76,91.62
248326,2018-06-29 10:54:12.187500,22.44,91.62
248327,2018-06-29 10:54:12.218750,-13.25,91.62
248328,2018-06-29 10:54:12.250000,-44.49,91.62
248329,2018-06-29 10:54:12.281250,-51.95,91.62
248330,2018-06-29 10:54:12.312500,-33.78,91.62
248331,2018-06-29 10:54:12.343750,-1.34,91.62
248332,2018-06-29 10:54:12.375000,35.12,91.62
248333,2018-06-29 10:54:12.406250,69.48,91.62
248334,2018-06-29 10:54:12.437500,94.49,91.62
248335,2018-06-29 10:54:12.468750,104.36,91.62
248336,2018-06-29 10:54:12.500000,104.98,91.62
248337,2018-06-29 10:54:12.531250,113.76,91.83
248338,2018-06-29 10:54:12.562500,134.71,91.83
248339,2018-06-29 10:54:12.593750,140.84,91.83
248340,2018-06-29 10:54:12.625000,104.45,91.83
248341,2018-06-29 10:54:12.656250,35.71,91.83
248342,2018-06-29 10:54:12.687500,-31.38,91.83
248343,2018-06-29 10:54:12.718750,-72.24,91.83
248344,2018-06-29 10:54:12.750000,-77.84,91.83
248345,2018-06-29 10:54:12.781250,-55.88,91.83
248346,2018-06-29 10:54:12.812500,-36.81,91.83
248347,2018-06-29 10:54:12.843750,-50.68,91.83
248348,2018-06-29 10:54:12.875000,-92.17,91.83
248349,2018-06-29 10:54:12.906250,-123.72,91.83
248350,2018-06-29 10:54:12.937500,-113.29,91.83
248351,2018-06-29 10:54:12.968750,-62.93,91.83
248352,2018-06-29 10:54:13.000000,-1.51,91.83
248353,2018-06-29 10:54:13.031250,43.64,91.83
248354,2018-06-29 10:54:13.062500,62.24,91.83
248355,2018-06-29 10:54:13.093750,56.31,91.83
248356,2018-06-29 10:54:13.125000,32.01,91.83
248357,2018-06-29 10:54:13.156250,-2.1,91.83
248358,2018-06-29 10:54:13.187500,-34.1,91.83
248359,2018-06-29 10:54:13.218750,-50.97,91.83
248360,2018-06-29 10:54:13.250000,-46.09,91.83
248361,2018-06-29 10:54:13.281250,-27.96,91.83
248362,2018-06-29 10:54:13.312500,-16.64,91.83
248363,2018-06-29 10:54:13.343750,-25.06,91.83
248364,2018-06-29 10:54:13.375000,-48.4,91.83
248365,2018-06-29 10:54:13.406250,-75.04,91.83
248366,2018-06-29 10:54:13.437500,-97.71,91.83
248367,2018-06-29 10:54:13.468750,-111.12,91.83
248368,2018-06-29 10:54:13.500000,-111.53,91.83
248369,2018-06-29 10:54:13.531250,-100.89,92.07
248370,2018-06-29 10:54:13.562500,-80.83,92.07
248371,2018-06-29 10:54:13.593750,-46.69,92.07
248372,2018-06-29 10:54:13.625000,5.31,92.07
248373,2018-06-29 10:54:13.656250,70.14,92.07
248374,2018-06-29 10:54:13.687500,133.08,92.07
248375,2018-06-29 10:54:13.718750,172.5,92.07
248376,2018-06-29 10:54:13.750000,173.19,92.07
248377,2018-06-29 10:54:13.781250,142.47,92.07
248378,2018-06-29 10:54:13.812500,101.99,92.07
248379,2018-06-29 10:54:13.843750,61.92,92.07
248380,2018-06-29 10:54:13.875000,17.19,92.07
248381,2018-06-29 10:54:13.906250,-32.27,92.07
248382,2018-06-29 10:54:13.937500,-73.8,92.07
248383,2018-06-29 10:54:13.968750,-96.44,92.07
248384,2018-06-29 10:54:14.000000,-104.29,92.07
248385,2018-06-29 10:54:14.031250,-107.03,92.07
248386,2018-06-29 10:54:14.062500,-107.34,92.07
248387,2018-06-29 10:54:14.093750,-103.8,92.07
248388,2018-06-29 10:54:14.125000,-100.07,92.07
248389,2018-06-29 10:54:14.156250,-101.09,92.07
248390,2018-06-29 10:54:14.187500,-101.59,92.07
248391,2018-06-29 10:54:14.218750,-89.23,92.07
248392,2018-06-29 10:54:14.250000,-56.16,92.07
248393,2018-06-29 10:54:14.281250,-9.53,92.07
248394,2018-06-29 10:54:14.312500,39.51,92.07
248395,2018-06-29 10:54:14.343750,84.34,92.07
248396,2018-06-29 10:54:14.375000,120.83,92.07
248397,2018-06-29 10:54:14.406250,141.21,92.07
248398,2018-06-29 10:54:14.437500,137.98,92.07
248399,2018-06-29 10:54:14.468750,112.75,92.07
248400,2018-06-29 10:54:14.500000,60.18,92.07
248401,2018-06-29 10:54:14.531250,-2.61,92.3
248402,2018-06-29 10:54:14.562500,-37.71,92.3
248403,2018-06-29 10:54:14.593750,-37.97,92.3
248404,2018-06-29 10:54:14.625000,-21.67,92.3
248405,2018-06-29 10:54:14.656250,-10.4,92.3
248406,2018-06-29 10:54:14.687500,-10.79,92.3
248407,2018-06-29 10:54:14.718750,-14.51,92.3
248408,2018-06-29 10:54:14.750000,-12.04,92.3
248409,2018-06-29 10:54:14.781250,-5.31,92.3
248410,2018-06-29 10:54:14.812500,-1.4,92.3
248411,2018-06-29 10:54:14.843750,-7.24,92.3
248412,2018-06-29 10:54:14.875000,-14.79,92.3
248413,2018-06-29 10:54:14.906250,3.68,92.3
248414,2018-06-29 10:54:14.937500,54.52,92.3
248415,2018-06-29 10:54:14.968750,93.3,92.3
248416,2018-06-29 10:54:15.000000,79.8,92.3
248417,2018-06-29 10:54:15.031250,35.51,92.3
248418,2018-06-29 10:54:15.062500,3.08,92.3
248419,2018-06-29 10:54:15.093750,-15.76,92.3
248420,2018-06-29 10:54:15.125000,-37.2,92.3
248421,2018-06-29 10:54:15.156250,-56.76,92.3
248422,2018-06-29 10:54:15.187500,-60.05,92.3
248423,2018-06-29 10:54:15.218750,-37.86,92.3
248424,2018-06-29 10:54:15.250000,6.4,92.3
248425,2018-06-29 10:54:15.281250,42.04,92.3
248426,2018-06-29 10:54:15.312500,36.83,92.3
248427,2018-06-29 10:54:15.343750,-3.45,92.3
248428,2018-06-29 10:54:15.375000,-52.15,92.3
248429,2018-06-29 10:54:15.406250,-101.35,92.3
248430,2018-06-29 10:54:15.437500,-151.28,92.3
248431,2018-06-29 10:54:15.468750,-177.08,92.3
248432,2018-06-29 10:54:15.500000,-162.1,92.3
248433,2018-06-29 10:54:15.531250,-130.67,92.55
248434,2018-06-29 10:54:15.562500,-110.39,92.55
248435,2018-06-29 10:54:15.593750,-89.47,92.55
248436,2018-06-29 10:54:15.625000,-43.61,92.55
248437,2018-06-29 10:54:15.656250,20.34,92.55
248438,2018-06-29 10:54:15.687500,77.58,92.55
248439,2018-06-29 10:54:15.718750,118.28,92.55
248440,2018-06-29 10:54:15.750000,144.48,92.55
248441,2018-06-29 10:54:15.781250,152.49,92.55
248442,2018-06-29 10:54:15.812500,141.23,92.55
248443,2018-06-29 10:54:15.843750,122.43,92.55
248444,2018-06-29 10:54:15.875000,109.94,92.55
248445,2018-06-29 10:54:15.906250,102.74,92.55
248446,2018-06-29 10:54:15.937500,90.18,92.55
248447,2018-06-29 10:54:15.968750,68.48,92.55
248448,2018-06-29 10:54:16.000000,40.69,92.55
248449,2018-06-29 10:54:16.031250,9.08,92.55
248450,2018-06-29 10:54:16.062500,-20.66,92.55
248451,2018-06-29 10:54:16.093750,-35.35,92.55
248452,2018-06-29 10:54:16.125000,-27.27,92.55
248453,2018-06-29 10:54:16.156250,-3.58,92.55
248454,2018-06-29 10:54:16.187500,21.18,92.55
248455,2018-06-29 10:54:16.218750,35.89,92.55
248456,2018-06-29 10:54:16.250000,37.44,92.55
248457,2018-06-29 10:54:16.281250,30.87,92.55
248458,2018-06-29 10:54:16.312500,22.99,92.55
248459,2018-06-29 10:54:16.343750,15.47,92.55
248460,2018-06-29 10:54:16.375000,7.27,92.55
248461,2018-06-29 10:54:16.406250,-0.01,92.55
248462,2018-06-29 10:54:16.437500,-3.67,92.55
248463,2018-06-29 10:54:16.468750,-5.23,92.55
248464,2018-06-29 10:54:16.500000,-9.49,92.55
248465,2018-06-29 10:54:16.531250,-18.68,92.82
248466,2018-06-29 10:54:16.562500,-29.67,92.82
248467,2018-06-29 10:54:16.593750,-39.35,92.82
248468,2018-06-29 10:54:16.625000,-48.42,92.82
248469,2018-06-29 10:54:16.656250,-60.1,92.82
248470,2018-06-29 10:54:16.687500,-75.13,92.82
248471,2018-06-29 10:54:16.718750,-84.61,92.82
248472,2018-06-29 10:54:16.750000,-72.34,92.82
248473,2018-06-29 10:54:16.781250,-32.57,92.82
248474,2018-06-29 10:54:16.812500,18.65,92.82
248475,2018-06-29 10:54:16.843750,60.95,92.82
248476,2018-06-29 10:54:16.875000,86.22,92.82
248477,2018-06-29 10:54:16.906250,96.54,92.82
248478,2018-06-29 10:54:16.937500,94.97,92.82
248479,2018-06-29 10:54:16.968750,89.34,92.82
248480,2018-06-29 10:54:17.000000,90.5,92.82
248481,2018-06-29 10:54:17.031250,98.04,92.82
248482,2018-06-29 10:54:17.062500,100.86,92.82
248483,2018-06-29 10:54:17.093750,88.47,92.82
248484,2018-06-29 10:54:17.125000,73.12,92.82
248485,2018-06-29 10:54:17.156250,63.69,92.82
248486,2018-06-29 10:54:17.187500,43.28,92.82
248487,2018-06-29 10:54:17.218750,-17.86,92.82
248488,2018-06-29 10:54:17.250000,-114.6,92.82
248489,2018-06-29 10:54:17.281250,-204.22,92.82
248490,2018-06-29 10:54:17.312500,-257.1,92.82
248491,2018-06-29 10:54:17.343750,-268.91,92.82
248492,2018-06-29 10:54:17.375000,-261.41,92.82
248493,2018-06-29 10:54:17.406250,-247.66,92.82
248494,2018-06-29 10:54:17.437500,-227.37,92.82
248495,2018-06-29 10:54:17.468750,-167.79,92.82
248496,2018-06-29 10:54:17.500000,-20.85,92.82
248497,2018-06-29 10:54:17.531250,97.94,93.08
248498,2018-06-29 10:54:17.562500,127.84,93.08
248499,2018-06-29 10:54:17.593750,101.7,93.08
248500,2018-06-29 10:54:17.625000,48.37,93.08
248501,2018-06-29 10:54:17.656250,-16.27,93.08
248502,2018-06-29 10:54:17.687500,-60.17,93.08
248503,2018-06-29 10:54:17.718750,-71.38,93.08
248504,2018-06-29 10:54:17.750000,-58.4,93.08
248505,2018-06-29 10:54:17.781250,-43.94,93.08
248506,2018-06-29 10:54:17.812500,-34.56,93.08
248507,2018-06-29 10:54:17.843750,-19.92,93.08
248508,2018-06-29 10:54:17.875000,6.32,93.08
248509,2018-06-29 10:54:17.906250,39.35,93.08
248510,2018-06-29 10:54:17.937500,74.36,93.08
248511,2018-06-29 10:54:17.968750,117.53,93.08
248512,2018-06-29 10:54:18.000000,170.83,93.08
248513,2018-06-29 10:54:18.031250,222.77,93.08
248514,2018-06-29 10:54:18.062500,254.31,93.08
248515,2018-06-29 10:54:18.093750,268.43,93.08
248516,2018-06-29 10:54:18.125000,241.34,93.08
248517,2018-06-29 10:54:18.156250,169.08,93.08
248518,2018-06-29 10:54:18.187500,87.72,93.08
248519,2018-06-29 10:54:18.218750,8.95,93.08
248520,2018-06-29 10:54:18.250000,-54.69,93.08
248521,2018-06-29 10:54:18.281250,-99.15,93.08
248522,2018-06-29 10:54:18.312500,-121.3,93.08
248523,2018-06-29 10:54:18.343750,-129.56,93.08
248524,2018-06-29 10:54:18.375000,-129.11,93.08
248525,2018-06-29 10:54:18.406250,-128.93,93.08
248526,2018-06-29 10:54:18.437500,-125.6,93.08
248527,2018-06-29 10:54:18.468750,-113.02,93.08
248528,2018-06-29 10:54:18.500000,-87.09,93.08
248529,2018-06-29 10:54:18.531250,-56.71,93.37
248530,2018-06-29 10:54:18.562500,-38.1,93.37
248531,2018-06-29 10:54:18.593750,-34.47,93.37
248532,2018-06-29 10:54:18.625000,-37.25,93.37
248533,2018-06-29 10:54:18.656250,-26.85,93.37
248534,2018-06-29 10:54:18.687500,-2.08,93.37
248535,2018-06-29 10:54:18.718750,27.86,93.37
248536,2018-06-29 10:54:18.750000,62.95,93.37
248537,2018-06-29 10:54:18.781250,107.84,93.37
248538,2018-06-29 10:54:18.812500,167.27,93.37
248539,2018-06-29 10:54:18.843750,204.11,93.37
248540,2018-06-29 10:54:18.875000,172.89,93.37
248541,2018-06-29 10:54:18.906250,86.47,93.37
248542,2018-06-29 10:54:18.937500,-5.02,93.37
248543,2018-06-29 10:54:18.968750,-71.54,93.37
248544,2018-06-29 10:54:19.000000,-111.56,93.37
248545,2018-06-29 10:54:19.031250,-123.98,93.37
248546,2018-06-29 10:54:19.062500,-115.67,93.37
248547,2018-06-29 10:54:19.093750,-105.88,93.37
248548,2018-06-29 10:54:19.125000,-100.81,93.37
248549,2018-06-29 10:54:19.156250,-89.78,93.37
248550,2018-06-29 10:54:19.187500,-68.41,93.37
248551,2018-06-29 10:54:19.218750,-44.58,93.37
248552,2018-06-29 10:54:19.250000,-29.02,93.37
248553,2018-06-29 10:54:19.281250,-26.8,93.37
248554,2018-06-29 10:54:19.312500,-35.88,93.37
248555,2018-06-29 10:54:19.343750,-51.53,93.37
248556,2018-06-29 10:54:19.375000,-70.17,93.37
248557,2018-06-29 10:54:19.406250,-84.75,93.37
248558,2018-06-29 10:54:19.437500,-72.91,93.37
248559,2018-06-29 10:54:19.468750,-12.36,93.37
248560,2018-06-29 10:54:19.500000,86.02,93.37
248561,2018-06-29 10:54:19.531250,181.09,93.63
248562,2018-06-29 10:54:19.562500,236.72,93.63
248563,2018-06-29 10:54:19.593750,239.81,93.63
248564,2018-06-29 10:54:19.625000,194.07,93.63
248565,2018-06-29 10:54:19.656250,117.62,93.63
248566,2018-06-29 10:54:19.687500,38.84,93.63
248567,2018-06-29 10:54:19.718750,-20.1,93.63
248568,2018-06-29 10:54:19.750000,-53.55,93.63
248569,2018-06-29 10:54:19.781250,-66.6,93.63
248570,2018-06-29 10:54:19.812500,-65.4,93.63
248571,2018-06-29 10:54:19.843750,-54.55,93.63
248572,2018-06-29 10:54:19.875000,-37.53,93.63
248573,2018-06-29 10:54:19.906250,-17.95,93.63
248574,2018-06-29 10:54:19.937500,-1.62,93.63
248575,2018-06-29 10:54:19.968750,6.63,93.63
248576,2018-06-29 10:54:20.000000,5.39,93.63
248577,2018-06-29 10:54:20.031250,-8.3,93.63
248578,2018-06-29 10:54:20.062500,-36.19,93.63
248579,2018-06-29 10:54:20.093750,-62.65,93.63
248580,2018-06-29 10:54:20.125000,-59.09,93.63
248581,2018-06-29 10:54:20.156250,-14.69,93.63
248582,2018-06-29 10:54:20.187500,53.84,93.63
248583,2018-06-29 10:54:20.218750,121.5,93.63
248584,2018-06-29 10:54:20.250000,164.33,93.63
248585,2018-06-29 10:54:20.281250,160.9,93.63
248586,2018-06-29 10:54:20.312500,107.52,93.63
248587,2018-06-29 10:54:20.343750,26.25,93.63
248588,2018-06-29 10:54:20.375000,-51.85,93.63
248589,2018-06-29 10:54:20.406250,-104.17,93.63
248590,2018-06-29 10:54:20.437500,-120.8,93.63
248591,2018-06-29 10:54:20.468750,-108.53,93.63
248592,2018-06-29 10:54:20.500000,-91.5,93.63
248593,2018-06-29 10:54:20.531250,-91.13,93.92
248594,2018-06-29 10:54:20.562500,-103.33,93.92
248595,2018-06-29 10:54:20.593750,-109.23,93.92
248596,2018-06-29 10:54:20.625000,-103.82,93.92
248597,2018-06-29 10:54:20.656250,-97.44,93.92
248598,2018-06-29 10:54:20.687500,-96.09,93.92
248599,2018-06-29 10:54:20.718750,-93.38,93.92
248600,2018-06-29 10:54:20.750000,-76.73,93.92
248601,2018-06-29 10:54:20.781250,-38.39,93.92
248602,2018-06-29 10:54:20.812500,14.24,93.92
248603,2018-06-29 10:54:20.843750,61.51,93.92
248604,2018-06-29 10:54:20.875000,87.68,93.92
248605,2018-06-29 10:54:20.906250,90.85,93.92
248606,2018-06-29 10:54:20.937500,80.38,93.92
248607,2018-06-29 10:54:20.968750,69.76,93.92
248608,2018-06-29 10:54:21.000000,66.73,93.92
248609,2018-06-29 10:54:21.031250,68.18,93.92
248610,2018-06-29 10:54:21.062500,68.49,93.92
248611,2018-06-29 10:54:21.093750,70.69,93.92
248612,2018-06-29 10:54:21.125000,82.69,93.92
248613,2018-06-29 10:54:21.156250,104.27,93.92
248614,2018-06-29 10:54:21.187500,122.79,93.92
248615,2018-06-29 10:54:21.218750,123.31,93.92
248616,2018-06-29 10:54:21.250000,102.18,93.92
248617,2018-06-29 10:54:21.281250,67.17,93.92
248618,2018-06-29 10:54:21.312500,24.11,93.92
248619,2018-06-29 10:54:21.343750,-30.0,93.92
248620,2018-06-29 10:54:21.375000,-93.34,93.92
248621,2018-06-29 10:54:21.406250,-142.72,93.92
248622,2018-06-29 10:54:21.437500,-147.03,93.92
248623,2018-06-29 10:54:21.468750,-104.2,93.92
248624,2018-06-29 10:54:21.500000,-48.1,93.92
248625,2018-06-29 10:54:21.531250,-11.04,94.25
248626,2018-06-29 10:54:21.562500,1.03,94.25
248627,2018-06-29 10:54:21.593750,-4.56,94.25
248628,2018-06-29 10:54:21.625000,-17.79,94.25
248629,2018-06-29 10:54:21.656250,-23.57,94.25
248630,2018-06-29 10:54:21.687500,-12.31,94.25
248631,2018-06-29 10:54:21.718750,10.2,94.25
248632,2018-06-29 10:54:21.750000,32.67,94.25
248633,2018-06-29 10:54:21.781250,48.89,94.25
248634,2018-06-29 10:54:21.812500,58.84,94.25
248635,2018-06-29 10:54:21.843750,67.39,94.25
248636,2018-06-29 10:54:21.875000,77.29,94.25
248637,2018-06-29 10:54:21.906250,82.41,94.25
248638,2018-06-29 10:54:21.937500,75.49,94.25
248639,2018-06-29 10:54:21.968750,56.19,94.25
248640,2018-06-29 10:54:22.000000,20.87,94.25
248641,2018-06-29 10:54:22.031250,-41.32,94.25
248642,2018-06-29 10:54:22.062500,-117.9,94.25
248643,2018-06-29 10:54:22.093750,-158.12,94.25
248644,2018-06-29 10:54:22.125000,-127.02,94.25
248645,2018-06-29 10:54:22.156250,-56.9,94.25
248646,2018-06-29 10:54:22.187500,-6.65,94.25
248647,2018-06-29 10:54:22.218750,6.07,94.25
248648,2018-06-29 10:54:22.250000,-0.79,94.25
248649,2018-06-29 10:54:22.281250,-12.11,94.25
248650,2018-06-29 10:54:22.312500,-18.56,94.25
248651,2018-06-29 10:54:22.343750,-10.24,94.25
248652,2018-06-29 10:54:22.375000,13.05,94.25
248653,2018-06-29 10:54:22.406250,39.92,94.25
248654,2018-06-29 10:54:22.437500,61.48,94.25
248655,2018-06-29 10:54:22.468750,80.63,94.25
248656,2018-06-29 10:54:22.500000,103.28,94.25
248657,2018-06-29 10:54:22.531250,123.94,94.58
248658,2018-06-29 10:54:22.562500,128.48,94.58
248659,2018-06-29 10:54:22.593750,110.46,94.58
248660,2018-06-29 10:54:22.625000,73.68,94.58
248661,2018-06-29 10:54:22.656250,19.57,94.58
248662,2018-06-29 10:54:22.687500,-50.0,94.58
248663,2018-06-29 10:54:22.718750,-114.23,94.58
248664,2018-06-29 10:54:22.750000,-142.42,94.58
248665,2018-06-29 10:54:22.781250,-129.99,94.58
248666,2018-06-29 10:54:22.812500,-104.02,94.58
248667,2018-06-29 10:54:22.843750,-88.44,94.58
248668,2018-06-29 10:54:22.875000,-84.56,94.58
248669,2018-06-29 10:54:22.906250,-85.89,94.58
248670,2018-06-29 10:54:22.937500,-88.37,94.58
248671,2018-06-29 10:54:22.968750,-86.2,94.58
248672,2018-06-29 10:54:23.000000,-74.56,94.58
248673,2018-06-29 10:54:23.031250,-53.58,94.58
248674,2018-06-29 10:54:23.062500,-26.63,94.58
248675,2018-06-29 10:54:23.093750,-0.04,94.58
248676,2018-06-29 10:54:23.125000,17.1,94.58
248677,2018-06-29 10:54:23.156250,23.37,94.58
248678,2018-06-29 10:54:23.187500,29.08,94.58
248679,2018-06-29 10:54:23.218750,39.57,94.58
248680,2018-06-29 10:54:23.250000,46.19,94.58
248681,2018-06-29 10:54:23.281250,37.06,94.58
248682,2018-06-29 10:54:23.312500,5.95,94.58
248683,2018-06-29 10:54:23.343750,-42.03,94.58
248684,2018-06-29 10:54:23.375000,-80.6,94.58
248685,2018-06-29 10:54:23.406250,-78.27,94.58
248686,2018-06-29 10:54:23.437500,-31.5,94.58
248687,2018-06-29 10:54:23.468750,37.14,94.58
248688,2018-06-29 10:54:23.500000,106.97,94.58
248689,2018-06-29 10:54:23.531250,168.62,94.92
248690,2018-06-29 10:54:23.562500,209.55,94.92
248691,2018-06-29 10:54:23.593750,222.06,94.92
248692,2018-06-29 10:54:23.625000,209.1,94.92
248693,2018-06-29 10:54:23.656250,177.44,94.92
248694,2018-06-29 10:54:23.687500,130.41,94.92
248695,2018-06-29 10:54:23.718750,79.55,94.92
248696,2018-06-29 10:54:23.750000,52.12,94.92
248697,2018-06-29 10:54:23.781250,58.85,94.92
248698,2018-06-29 10:54:23.812500,78.73,94.92
248699,2018-06-29 10:54:23.843750,72.63,94.92
248700,2018-06-29 10:54:23.875000,25.72,94.92
248701,2018-06-29 10:54:23.906250,-52.63,94.92
248702,2018-06-29 10:54:23.937500,-146.85,94.92
248703,2018-06-29 10:54:23.968750,-197.01,94.92
248704,2018-06-29 10:54:24.000000,-201.05,94.92
248705,2018-06-29 10:54:24.031250,-168.17,94.92
248706,2018-06-29 10:54:24.062500,-81.84,94.92
248707,2018-06-29 10:54:24.093750,36.63,94.92
248708,2018-06-29 10:54:24.125000,120.18,94.92
248709,2018-06-29 10:54:24.156250,97.09,94.92
248710,2018-06-29 10:54:24.187500,6.29,94.92
248711,2018-06-29 10:54:24.218750,-63.24,94.92
248712,2018-06-29 10:54:24.250000,-100.14,94.92
248713,2018-06-29 10:54:24.281250,-128.54,94.92
248714,2018-06-29 10:54:24.312500,-137.59,94.92
248715,2018-06-29 10:54:24.343750,-125.6,94.92
248716,2018-06-29 10:54:24.375000,-107.8,94.92
248717,2018-06-29 10:54:24.406250,-97.55,94.92
248718,2018-06-29 10:54:24.437500,-87.04,94.92
248719,2018-06-29 10:54:24.468750,-66.34,94.92
248720,2018-06-29 10:54:24.500000,-44.82,94.92
248721,2018-06-29 10:54:24.531250,-35.97,95.2
248722,2018-06-29 10:54:24.562500,-38.48,95.2
248723,2018-06-29 10:54:24.593750,-39.79,95.2
248724,2018-06-29 10:54:24.625000,-37.39,95.2
248725,2018-06-29 10:54:24.656250,-36.47,95.2
248726,2018-06-29 10:54:24.687500,-30.53,95.2
248727,2018-06-29 10:54:24.718750,-5.21,95.2
248728,2018-06-29 10:54:24.750000,38.25,95.2
248729,2018-06-29 10:54:24.781250,80.19,95.2
248730,2018-06-29 10:54:24.812500,105.7,95.2
248731,2018-06-29 10:54:24.843750,115.93,95.2
248732,2018-06-29 10:54:24.875000,117.44,95.2
248733,2018-06-29 10:54:24.906250,112.89,95.2
248734,2018-06-29 10:54:24.937500,101.23,95.2
248735,2018-06-29 10:54:24.968750,79.23,95.2
248736,2018-06-29 10:54:25.000000,42.95,95.2
248737,2018-06-29 10:54:25.031250,-6.78,95.2
248738,2018-06-29 10:54:25.062500,-59.57,95.2
248739,2018-06-29 10:54:25.093750,-99.47,95.2
248740,2018-06-29 10:54:25.125000,-116.38,95.2
248741,2018-06-29 10:54:25.156250,-114.83,95.2
248742,2018-06-29 10:54:25.187500,-108.59,95.2
248743,2018-06-29 10:54:25.218750,-106.46,95.2
248744,2018-06-29 10:54:25.250000,-108.35,95.2
248745,2018-06-29 10:54:25.281250,-110.23,95.2
248746,2018-06-29 10:54:25.312500,-103.34,95.2
248747,2018-06-29 10:54:25.343750,-76.2,95.2
248748,2018-06-29 10:54:25.375000,-29.06,95.2
248749,2018-06-29 10:54:25.406250,21.2,95.2
248750,2018-06-29 10:54:25.437500,58.18,95.2
248751,2018-06-29 10:54:25.468750,79.37,95.2
248752,2018-06-29 10:54:25.500000,89.79,95.2
248753,2018-06-29 10:54:25.531250,93.69,95.52
248754,2018-06-29 10:54:25.562500,94.62,95.52
248755,2018-06-29 10:54:25.593750,93.72,95.52
248756,2018-06-29 10:54:25.625000,87.14,95.52
248757,2018-06-29 10:54:25.656250,71.97,95.52
248758,2018-06-29 10:54:25.687500,53.79,95.52
248759,2018-06-29 10:54:25.718750,41.24,95.52
248760,2018-06-29 10:54:25.750000,33.38,95.52
248761,2018-06-29 10:54:25.781250,20.1,95.52
248762,2018-06-29 10:54:25.812500,-2.82,95.52
248763,2018-06-29 10:54:25.843750,-26.56,95.52
248764,2018-06-29 10:54:25.875000,-40.63,95.52
248765,2018-06-29 10:54:25.906250,-45.61,95.52
248766,2018-06-29 10:54:25.937500,-51.28,95.52
248767,2018-06-29 10:54:25.968750,-62.54,95.52
248768,2018-06-29 10:54:26.000000,-69.52,95.52
248769,2018-06-29 10:54:26.031250,-56.25,95.52
248770,2018-06-29 10:54:26.062500,-20.34,95.52
248771,2018-06-29 10:54:26.093750,22.85,95.52
248772,2018-06-29 10:54:26.125000,56.67,95.52
248773,2018-06-29 10:54:26.156250,75.92,95.52
248774,2018-06-29 10:54:26.187500,84.04,95.52
248775,2018-06-29 10:54:26.218750,86.71,95.52
248776,2018-06-29 10:54:26.250000,88.35,95.52
248777,2018-06-29 10:54:26.281250,88.62,95.52
248778,2018-06-29 10:54:26.312500,82.21,95.52
248779,2018-06-29 10:54:26.343750,66.24,95.52
248780,2018-06-29 10:54:26.375000,46.35,95.52
248781,2018-06-29 10:54:26.406250,31.92,95.52
248782,2018-06-29 10:54:26.437500,26.58,95.52
248783,2018-06-29 10:54:26.468750,26.24,95.52
248784,2018-06-29 10:54:26.500000,24.9,95.52
248785,2018-06-29 10:54:26.531250,19.53,95.85
248786,2018-06-29 10:54:26.562500,10.44,95.85
248787,2018-06-29 10:54:26.593750,-1.16,95.85
248788,2018-06-29 10:54:26.625000,-15.7,95.85
248789,2018-06-29 10:54:26.656250,-32.7,95.85
248790,2018-06-29 10:54:26.687500,-45.48,95.85
248791,2018-06-29 10:54:26.718750,-45.88,95.85
248792,2018-06-29 10:54:26.750000,-35.56,95.85
248793,2018-06-29 10:54:26.781250,-24.94,95.85
248794,2018-06-29 10:54:26.812500,-21.08,95.85
248795,2018-06-29 10:54:26.843750,-22.58,95.85
248796,2018-06-29 10:54:26.875000,-24.08,95.85
248797,2018-06-29 10:54:26.906250,-21.74,95.85
248798,2018-06-29 10:54:26.937500,-16.3,95.85
248799,2018-06-29 10:54:26.968750,-12.02,95.85
248800,2018-06-29 10:54:27.000000,-12.01,95.85
248801,2018-06-29 10:54:27.031250,-13.96,95.85
248802,2018-06-29 10:54:27.062500,-11.17,95.85
248803,2018-06-29 10:54:27.093750,-0.21,95.85
248804,2018-06-29 10:54:27.125000,13.76,95.85
248805,2018-06-29 10:54:27.156250,24.84,95.85
248806,2018-06-29 10:54:27.187500,33.99,95.85
248807,2018-06-29 10:54:27.218750,39.74,95.85
248808,2018-06-29 10:54:27.250000,30.68,95.85
248809,2018-06-29 10:54:27.281250,-0.39,95.85
248810,2018-06-29 10:54:27.312500,-41.55,95.85
248811,2018-06-29 10:54:27.343750,-68.7,95.85
248812,2018-06-29 10:54:27.375000,-64.25,95.85
248813,2018-06-29 10:54:27.406250,-30.29,95.85
248814,2018-06-29 10:54:27.437500,12.56,95.85
248815,2018-06-29 10:54:27.468750,42.22,95.85
248816,2018-06-29 10:54:27.500000,52.6,95.85
248817,2018-06-29 10:54:27.531250,52.15,96.15
248818,2018-06-29 10:54:27.562500,49.97,96.15
248819,2018-06-29 10:54:27.593750,48.38,96.15
248820,2018-06-29 10:54:27.625000,45.41,96.15
248821,2018-06-29 10:54:27.656250,39.71,96.15
248822,2018-06-29 10:54:27.687500,33.49,96.15
248823,2018-06-29 10:54:27.718750,31.6,96.15
248824,2018-06-29 10:54:27.750000,34.41,96.15
248825,2018-06-29 10:54:27.781250,31.78,96.15
248826,2018-06-29 10:54:27.812500,11.37,96.15
248827,2018-06-29 10:54:27.843750,-25.18,96.15
248828,2018-06-29 10:54:27.875000,-61.27,96.15
248829,2018-06-29 10:54:27.906250,-80.57,96.15
248830,2018-06-29 10:54:27.937500,-78.38,96.15
248831,2018-06-29 10:54:27.968750,-62.16,96.15
248832,2018-06-29 10:54:28.000000,-45.77,96.15
248833,2018-06-29 10:54:28.031250,-38.28,96.15
248834,2018-06-29 10:54:28.062500,-34.99,96.15
248835,2018-06-29 10:54:28.093750,-23.95,96.15
248836,2018-06-29 10:54:28.125000,-1.13,96.15
248837,2018-06-29 10:54:28.156250,25.86,96.15
248838,2018-06-29 10:54:28.187500,46.98,96.15
248839,2018-06-29 10:54:28.218750,57.15,96.15
248840,2018-06-29 10:54:28.250000,55.9,96.15
248841,2018-06-29 10:54:28.281250,46.26,96.15
248842,2018-06-29 10:54:28.312500,34.08,96.15
248843,2018-06-29 10:54:28.343750,24.52,96.15
248844,2018-06-29 10:54:28.375000,19.5,96.15
248845,2018-06-29 10:54:28.406250,19.45,96.15
248846,2018-06-29 10:54:28.437500,23.55,96.15
248847,2018-06-29 10:54:28.468750,27.38,96.15
248848,2018-06-29 10:54:28.500000,25.08,96.15
248849,2018-06-29 10:54:28.531250,15.39,96.4
248850,2018-06-29 10:54:28.562500,2.05,96.4
248851,2018-06-29 10:54:28.593750,-11.46,96.4
248852,2018-06-29 10:54:28.625000,-24.38,96.4
248853,2018-06-29 10:54:28.656250,-36.43,96.4
248854,2018-06-29 10:54:28.687500,-45.73,96.4
248855,2018-06-29 10:54:28.718750,-50.1,96.4
248856,2018-06-29 10:54:28.750000,-48.75,96.4
248857,2018-06-29 10:54:28.781250,-41.4,96.4
248858,2018-06-29 10:54:28.812500,-26.89,96.4
248859,2018-06-29 10:54:28.843750,-5.94,96.4
248860,2018-06-29 10:54:28.875000,15.67,96.4
248861,2018-06-29 10:54:28.906250,30.33,96.4
248862,2018-06-29 10:54:28.937500,33.49,96.4
248863,2018-06-29 10:54:28.968750,24.63,96.4
248864,2018-06-29 10:54:29.000000,10.08,96.4
248865,2018-06-29 10:54:29.031250,2.86,96.4
248866,2018-06-29 10:54:29.062500,10.45,96.4
248867,2018-06-29 10:54:29.093750,25.73,96.4
248868,2018-06-29 10:54:29.125000,37.35,96.4
248869,2018-06-29 10:54:29.156250,41.89,96.4
248870,2018-06-29 10:54:29.187500,39.75,96.4
248871,2018-06-29 10:54:29.218750,29.72,96.4
248872,2018-06-29 10:54:29.250000,14.55,96.4
248873,2018-06-29 10:54:29.281250,3.52,96.4
248874,2018-06-29 10:54:29.312500,2.47,96.4
248875,2018-06-29 10:54:29.343750,6.58,96.4
248876,2018-06-29 10:54:29.375000,9.49,96.4
248877,2018-06-29 10:54:29.406250,12.0,96.4
248878,2018-06-29 10:54:29.437500,16.91,96.4
248879,2018-06-29 10:54:29.468750,23.34,96.4
248880,2018-06-29 10:54:29.500000,30.92,96.4
248881,2018-06-29 10:54:29.531250,41.05,96.63
248882,2018-06-29 10:54:29.562500,52.26,96.63
248883,2018-06-29 10:54:29.593750,60.74,96.63
248884,2018-06-29 10:54:29.625000,61.29,96.63
248885,2018-06-29 10:54:29.656250,49.72,96.63
248886,2018-06-29 10:54:29.687500,27.74,96.63
248887,2018-06-29 10:54:29.718750,5.53,96.63
248888,2018-06-29 10:54:29.750000,-10.12,96.63
248889,2018-06-29 10:54:29.781250,-23.1,96.63
248890,2018-06-29 10:54:29.812500,-36.22,96.63
248891,2018-06-29 10:54:29.843750,-43.58,96.63
248892,2018-06-29 10:54:29.875000,-37.59,96.63
248893,2018-06-29 10:54:29.906250,-19.23,96.63
248894,2018-06-29 10:54:29.937500,5.04,96.63
248895,2018-06-29 10:54:29.968750,22.45,96.63
248896,2018-06-29 10:54:30.000000,20.49,96.63
248897,2018-06-29 10:54:30.031250,5.04,96.63
248898,2018-06-29 10:54:30.062500,-19.48,96.63
248899,2018-06-29 10:54:30.093750,-51.85,96.63
248900,2018-06-29 10:54:30.125000,-94.15,96.63
248901,2018-06-29 10:54:30.156250,-136.73,96.63
248902,2018-06-29 10:54:30.187500,-157.14,96.63
248903,2018-06-29 10:54:30.218750,-136.85,96.63
248904,2018-06-29 10:54:30.250000,-86.37,96.63
248905,2018-06-29 10:54:30.281250,-31.49,96.63
248906,2018-06-29 10:54:30.312500,9.5,96.63
248907,2018-06-29 10:54:30.343750,28.52,96.63
248908,2018-06-29 10:54:30.375000,28.38,96.63
248909,2018-06-29 10:54:30.406250,15.85,96.63
248910,2018-06-29 10:54:30.437500,-2.77,96.63
248911,2018-06-29 10:54:30.468750,-33.62,96.63
248912,2018-06-29 10:54:30.500000,-76.28,96.63
248913,2018-06-29 10:54:30.531250,-123.56,96.78
248914,2018-06-29 10:54:30.562500,-166.29,96.78
248915,2018-06-29 10:54:30.593750,-155.42,96.78
248916,2018-06-29 10:54:30.625000,-96.17,96.78
248917,2018-06-29 10:54:30.656250,-31.28,96.78
248918,2018-06-29 10:54:30.687500,17.36,96.78
248919,2018-06-29 10:54:30.718750,47.57,96.78
248920,2018-06-29 10:54:30.750000,60.77,96.78
248921,2018-06-29 10:54:30.781250,62.38,96.78
248922,2018-06-29 10:54:30.812500,58.56,96.78
248923,2018-06-29 10:54:30.843750,55.14,96.78
248924,2018-06-29 10:54:30.875000,54.78,96.78
248925,2018-06-29 10:54:30.906250,54.38,96.78
248926,2018-06-29 10:54:30.937500,53.37,96.78
248927,2018-06-29 10:54:30.968750,52.07,96.78
248928,2018-06-29 10:54:31.000000,52.67,96.78
248929,2018-06-29 10:54:31.031250,53.5,96.78
248930,2018-06-29 10:54:31.062500,51.36,96.78
248931,2018-06-29 10:54:31.093750,43.69,96.78
248932,2018-06-29 10:54:31.125000,28.68,96.78
248933,2018-06-29 10:54:31.156250,8.13,96.78
248934,2018-06-29 10:54:31.187500,-5.81,96.78
248935,2018-06-29 10:54:31.218750,3.08,96.78
248936,2018-06-29 10:54:31.250000,31.35,96.78
248937,2018-06-29 10:54:31.281250,54.54,96.78
248938,2018-06-29 10:54:31.312500,55.55,96.78
248939,2018-06-29 10:54:31.343750,37.97,96.78
248940,2018-06-29 10:54:31.375000,13.84,96.78
248941,2018-06-29 10:54:31.406250,-3.9,96.78
248942,2018-06-29 10:54:31.437500,-5.92,96.78
248943,2018-06-29 10:54:31.468750,8.13,96.78
248944,2018-06-29 10:54:31.500000,29.23,96.78
248945,2018-06-29 10:54:31.531250,46.82,97.0
248946,2018-06-29 10:54:31.562500,59.25,97.0
248947,2018-06-29 10:54:31.593750,63.3,97.0
248948,2018-06-29 10:54:31.625000,62.44,97.0
248949,2018-06-29 10:54:31.656250,56.04,97.0
248950,2018-06-29 10:54:31.687500,38.83,97.0
248951,2018-06-29 10:54:31.718750,15.77,97.0
248952,2018-06-29 10:54:31.750000,1.51,97.0
248953,2018-06-29 10:54:31.781250,-0.5,97.0
248954,2018-06-29 10:54:31.812500,1.9,97.0
248955,2018-06-29 10:54:31.843750,3.66,97.0
248956,2018-06-29 10:54:31.875000,4.53,97.0
248957,2018-06-29 10:54:31.906250,0.45,97.0
248958,2018-06-29 10:54:31.937500,-13.52,97.0
248959,2018-06-29 10:54:31.968750,-32.09,97.0
248960,2018-06-29 10:54:32.000000,-44.66,97.0
248961,2018-06-29 10:54:32.031250,-48.83,97.0
248962,2018-06-29 10:54:32.062500,-52.64,97.0
248963,2018-06-29 10:54:32.093750,-64.58,97.0
248964,2018-06-29 10:54:32.125000,-83.78,97.0
248965,2018-06-29 10:54:32.156250,-94.16,97.0
248966,2018-06-29 10:54:32.187500,-76.55,97.0
248967,2018-06-29 10:54:32.218750,-35.09,97.0
248968,2018-06-29 10:54:32.250000,-0.57,97.0
248969,2018-06-29 10:54:32.281250,4.22,97.0
248970,2018-06-29 10:54:32.312500,-4.55,97.0
248971,2018-06-29 10:54:32.343750,7.0,97.0
248972,2018-06-29 10:54:32.375000,38.15,97.0
248973,2018-06-29 10:54:32.406250,46.47,97.0
248974,2018-06-29 10:54:32.437500,5.1,97.0
248975,2018-06-29 10:54:32.468750,-63.28,97.0
248976,2018-06-29 10:54:32.500000,-122.4,97.0
248977,2018-06-29 10:54:32.531250,-161.81,97.1
248978,2018-06-29 10:54:32.562500,-187.31,97.1
248979,2018-06-29 10:54:32.593750,-202.13,97.1
248980,2018-06-29 10:54:32.625000,-207.98,97.1
