,Time,ppg,hr
252800,2018-06-29 10:56:32.000000,-68.8,86.33
252801,2018-06-29 10:56:32.031250,-51.84,86.33
252802,2018-06-29 10:56:32.062500,-10.2,86.33
252803,2018-06-29 10:56:32.093750,46.98,86.33
252804,2018-06-29 10:56:32.125000,105.76,86.33
252805,2018-06-29 10:56:32.156250,149.76,86.33
252806,2018-06-29 10:56:32.187500,165.1,86.33
252807,2018-06-29 10:56:32.218750,149.4,86.33
252808,2018-06-29 10:56:32.250000,114.87,86.33
252809,2018-06-29 10:56:32.281250,78.5,86.33
252810,2018-06-29 10:56:32.312500,48.07,86.33
252811,2018-06-29 10:56:32.343750,24.61,86.33
252812,2018-06-29 10:56:32.375000,8.75,86.33
252813,2018-06-29 10:56:32.406250,0.59,86.33
252814,2018-06-29 10:56:32.437500,-5.46,86.33
252815,2018-06-29 10:56:32.468750,-16.11,86.33
252816,2018-06-29 10:56:32.500000,-31.79,86.33
252817,2018-06-29 10:56:32.531250,-49.36,86.17
252818,2018-06-29 10:56:32.562500,-65.68,86.17
252819,2018-06-29 10:56:32.593750,-77.65,86.17
252820,2018-06-29 10:56:32.625000,-84.86,86.17
252821,2018-06-29 10:56:32.656250,-88.24,86.17
252822,2018-06-29 10:56:32.687500,-81.95,86.17
252823,2018-06-29 10:56:32.718750,-58.5,86.17
252824,2018-06-29 10:56:32.750000,-24.75,86.17
252825,2018-06-29 10:56:32.781250,2.7,86.17
252826,2018-06-29 10:56:32.812500,17.87,86.17
252827,2018-06-29 10:56:32.843750,25.1,86.17
252828,2018-06-29 10:56:32.875000,25.47,86.17
252829,2018-06-29 10:56:32.906250,17.62,86.17
252830,2018-06-29 10:56:32.937500,4.3,86.17
252831,2018-06-29 10:56:32.968750,-8.34,86.17
252832,2018-06-29 10:56:33.000000,-11.83,86.17
252833,2018-06-29 10:56:33.031250,4.69,86.17
252834,2018-06-29 10:56:33.062500,43.53,86.17
252835,2018-06-29 10:56:33.093750,90.69,86.17
252836,2018-06-29 10:56:33.125000,126.31,86.17
252837,2018-06-29 10:56:33.156250,138.78,86.17
252838,2018-06-29 10:56:33.187500,124.46,86.17
252839,2018-06-29 10:56:33.218750,81.83,86.17
252840,2018-06-29 10:56:33.250000,15.52,86.17
252841,2018-06-29 10:56:33.281250,-64.69,86.17
252842,2018-06-29 10:56:33.312500,-141.36,86.17
252843,2018-06-29 10:56:33.343750,-193.32,86.17
252844,2018-06-29 10:56:33.375000,-200.64,86.17
252845,2018-06-29 10:56:33.406250,-161.63,86.17
252846,2018-06-29 10:56:33.437500,-95.89,86.17
252847,2018-06-29 10:56:33.468750,-26.33,86.17
252848,2018-06-29 10:56:33.500000,27.12,86.17
252849,2018-06-29 10:56:33.531250,53.08,86.03
252850,2018-06-29 10:56:33.562500,40.23,86.03
252851,2018-06-29 10:56:33.593750,1.13,86.03
252852,2018-06-29 10:56:33.625000,-43.28,86.03
252853,2018-06-29 10:56:33.656250,-82.7,86.03
252854,2018-06-29 10:56:33.687500,-127.17,86.03
252855,2018-06-29 10:56:33.718750,-184.23,86.03
252856,2018-06-29 10:56:33.750000,-236.84,86.03
252857,2018-06-29 10:56:33.781250,-273.51,86.03
252858,2018-06-29 10:56:33.812500,-231.91,86.03
252859,2018-06-29 10:56:33.843750,-104.05,86.03
252860,2018-06-29 10:56:33.875000,1.3,86.03
252861,2018-06-29 10:56:33.906250,53.63,86.03
252862,2018-06-29 10:56:33.937500,75.37,86.03
252863,2018-06-29 10:56:33.968750,75.37,86.03
252864,2018-06-29 10:56:34.000000,64.69,86.03
252865,2018-06-29 10:56:34.031250,72.23,86.03
252866,2018-06-29 10:56:34.062500,103.89,86.03
252867,2018-06-29 10:56:34.093750,139.69,86.03
252868,2018-06-29 10:56:34.125000,153.82,86.03
252869,2018-06-29 10:56:34.156250,151.95,86.03
252870,2018-06-29 10:56:34.187500,145.49,86.03
252871,2018-06-29 10:56:34.218750,138.77,86.03
252872,2018-06-29 10:56:34.250000,131.17,86.03
252873,2018-06-29 10:56:34.281250,130.99,86.03
252874,2018-06-29 10:56:34.312500,142.62,86.03
252875,2018-06-29 10:56:34.343750,158.75,86.03
252876,2018-06-29 10:56:34.375000,160.86,86.03
252877,2018-06-29 10:56:34.406250,103.65,86.03
252878,2018-06-29 10:56:34.437500,23.6,86.03
252879,2018-06-29 10:56:34.468750,-38.52,86.03
252880,2018-06-29 10:56:34.500000,-83.3,86.03
252881,2018-06-29 10:56:34.531250,-119.49,85.8
252882,2018-06-29 10:56:34.562500,-140.2,85.8
252883,2018-06-29 10:56:34.593750,-144.12,85.8
252884,2018-06-29 10:56:34.625000,-142.3,85.8
252885,2018-06-29 10:56:34.656250,-143.39,85.8
252886,2018-06-29 10:56:34.687500,-132.16,85.8
252887,2018-06-29 10:56:34.718750,-96.86,85.8
252888,2018-06-29 10:56:34.750000,-42.51,85.8
252889,2018-06-29 10:56:34.781250,15.18,85.8
252890,2018-06-29 10:56:34.812500,60.59,85.8
252891,2018-06-29 10:56:34.843750,88.16,85.8
252892,2018-06-29 10:56:34.875000,98.03,85.8
252893,2018-06-29 10:56:34.906250,96.33,85.8
252894,2018-06-29 10:56:34.937500,93.65,85.8
252895,2018-06-29 10:56:34.968750,96.03,85.8
252896,2018-06-29 10:56:35.000000,101.43,85.8
252897,2018-06-29 10:56:35.031250,105.52,85.8
252898,2018-06-29 10:56:35.062500,109.88,85.8
252899,2018-06-29 10:56:35.093750,117.83,85.8
252900,2018-06-29 10:56:35.125000,124.01,85.8
252901,2018-06-29 10:56:35.156250,114.86,85.8
252902,2018-06-29 10:56:35.187500,79.94,85.8
252903,2018-06-29 10:56:35.218750,21.1,85.8
252904,2018-06-29 10:56:35.250000,-51.27,85.8
252905,2018-06-29 10:56:35.281250,-125.65,85.8
252906,2018-06-29 10:56:35.312500,-190.97,85.8
252907,2018-06-29 10:56:35.343750,-237.69,85.8
252908,2018-06-29 10:56:35.375000,-255.91,85.8
252909,2018-06-29 10:56:35.406250,-239.43,85.8
252910,2018-06-29 10:56:35.437500,-189.41,85.8
252911,2018-06-29 10:56:35.468750,-119.21,85.8
252912,2018-06-29 10:56:35.500000,-51.03,85.8
252913,2018-06-29 10:56:35.531250,-4.94,85.53
252914,2018-06-29 10:56:35.562500,10.81,85.53
252915,2018-06-29 10:56:35.593750,3.57,85.53
252916,2018-06-29 10:56:35.625000,-17.41,85.53
252917,2018-06-29 10:56:35.656250,-32.52,85.53
252918,2018-06-29 10:56:35.687500,-23.62,85.53
252919,2018-06-29 10:56:35.718750,-3.97,85.53
252920,2018-06-29 10:56:35.750000,15.94,85.53
252921,2018-06-29 10:56:35.781250,38.09,85.53
252922,2018-06-29 10:56:35.812500,64.08,85.53
252923,2018-06-29 10:56:35.843750,91.3,85.53
252924,2018-06-29 10:56:35.875000,122.17,85.53
252925,2018-06-29 10:56:35.906250,157.91,85.53
252926,2018-06-29 10:56:35.937500,186.08,85.53
252927,2018-06-29 10:56:35.968750,186.15,85.53
252928,2018-06-29 10:56:36.000000,151.82,85.53
252929,2018-06-29 10:56:36.031250,93.56,85.53
252930,2018-06-29 10:56:36.062500,29.62,85.53
252931,2018-06-29 10:56:36.093750,-17.94,85.53
252932,2018-06-29 10:56:36.125000,-36.43,85.53
252933,2018-06-29 10:56:36.156250,-19.1,85.53
252934,2018-06-29 10:56:36.187500,27.84,85.53
252935,2018-06-29 10:56:36.218750,86.03,85.53
252936,2018-06-29 10:56:36.250000,137.6,85.53
252937,2018-06-29 10:56:36.281250,172.7,85.53
252938,2018-06-29 10:56:36.312500,188.91,85.53
252939,2018-06-29 10:56:36.343750,184.6,85.53
252940,2018-06-29 10:56:36.375000,156.61,85.53
252941,2018-06-29 10:56:36.406250,105.24,85.53
252942,2018-06-29 10:56:36.437500,38.31,85.53
252943,2018-06-29 10:56:36.468750,-34.88,85.53
252944,2018-06-29 10:56:36.500000,-104.86,85.53
252945,2018-06-29 10:56:36.531250,-164.15,85.2
252946,2018-06-29 10:56:36.562500,-208.92,85.2
252947,2018-06-29 10:56:36.593750,-239.56,85.2
252948,2018-06-29 10:56:36.625000,-258.22,85.2
252949,2018-06-29 10:56:36.656250,-267.27,85.2
252950,2018-06-29 10:56:36.687500,-269.9,85.2
252951,2018-06-29 10:56:36.718750,-265.99,85.2
252952,2018-06-29 10:56:36.750000,-248.04,85.2
252953,2018-06-29 10:56:36.781250,-207.21,85.2
252954,2018-06-29 10:56:36.812500,-145.53,85.2
252955,2018-06-29 10:56:36.843750,-75.65,85.2
252956,2018-06-29 10:56:36.875000,-10.71,85.2
252957,2018-06-29 10:56:36.906250,39.79,85.2
252958,2018-06-29 10:56:36.937500,68.93,85.2
252959,2018-06-29 10:56:36.968750,75.56,85.2
252960,2018-06-29 10:56:37.000000,66.15,85.2
252961,2018-06-29 10:56:37.031250,49.22,85.2
252962,2018-06-29 10:56:37.062500,29.53,85.2
252963,2018-06-29 10:56:37.093750,8.48,85.2
252964,2018-06-29 10:56:37.125000,-9.84,85.2
252965,2018-06-29 10:56:37.156250,-16.82,85.2
252966,2018-06-29 10:56:37.187500,-8.25,85.2
252967,2018-06-29 10:56:37.218750,9.83,85.2
252968,2018-06-29 10:56:37.250000,29.38,85.2
252969,2018-06-29 10:56:37.281250,46.54,85.2
252970,2018-06-29 10:56:37.312500,56.69,85.2
252971,2018-06-29 10:56:37.343750,53.73,85.2
252972,2018-06-29 10:56:37.375000,38.22,85.2
252973,2018-06-29 10:56:37.406250,20.35,85.2
252974,2018-06-29 10:56:37.437500,11.96,85.2
252975,2018-06-29 10:56:37.468750,16.54,85.2
252976,2018-06-29 10:56:37.500000,28.56,85.2
252977,2018-06-29 10:56:37.531250,41.0,84.83
252978,2018-06-29 10:56:37.562500,49.5,84.83
252979,2018-06-29 10:56:37.593750,51.35,84.83
252980,2018-06-29 10:56:37.625000,45.89,84.83
252981,2018-06-29 10:56:37.656250,35.76,84.83
252982,2018-06-29 10:56:37.687500,24.72,84.83
252983,2018-06-29 10:56:37.718750,15.48,84.83
252984,2018-06-29 10:56:37.750000,10.02,84.83
252985,2018-06-29 10:56:37.781250,9.95,84.83
252986,2018-06-29 10:56:37.812500,14.78,84.83
252987,2018-06-29 10:56:37.843750,19.88,84.83
252988,2018-06-29 10:56:37.875000,19.37,84.83
252989,2018-06-29 10:56:37.906250,13.79,84.83
252990,2018-06-29 10:56:37.937500,9.24,84.83
252991,2018-06-29 10:56:37.968750,6.59,84.83
252992,2018-06-29 10:56:38.000000,-1.29,84.83
252993,2018-06-29 10:56:38.031250,-19.72,84.83
252994,2018-06-29 10:56:38.062500,-44.23,84.83
252995,2018-06-29 10:56:38.093750,-61.98,84.83
252996,2018-06-29 10:56:38.125000,-60.74,84.83
252997,2018-06-29 10:56:38.156250,-40.07,84.83
252998,2018-06-29 10:56:38.187500,-12.19,84.83
252999,2018-06-29 10:56:38.218750,10.6,84.83
253000,2018-06-29 10:56:38.250000,24.66,84.83
253001,2018-06-29 10:56:38.281250,31.46,84.83
253002,2018-06-29 10:56:38.312500,33.0,84.83
253003,2018-06-29 10:56:38.343750,31.43,84.83
253004,2018-06-29 10:56:38.375000,28.52,84.83
253005,2018-06-29 10:56:38.406250,24.74,84.83
253006,2018-06-29 10:56:38.437500,20.28,84.83
253007,2018-06-29 10:56:38.468750,15.83,84.83
253008,2018-06-29 10:56:38.500000,11.17,84.83
253009,2018-06-29 10:56:38.531250,4.55,84.48
253010,2018-06-29 10:56:38.562500,-4.45,84.48
253011,2018-06-29 10:56:38.593750,-13.59,84.48
253012,2018-06-29 10:56:38.625000,-21.32,84.48
253013,2018-06-29 10:56:38.656250,-29.82,84.48
253014,2018-06-29 10:56:38.687500,-42.88,84.48
253015,2018-06-29 10:56:38.718750,-59.44,84.48
253016,2018-06-29 10:56:38.750000,-69.53,84.48
253017,2018-06-29 10:56:38.781250,-61.55,84.48
253018,2018-06-29 10:56:38.812500,-35.27,84.48
253019,2018-06-29 10:56:38.843750,-2.27,84.48
253020,2018-06-29 10:56:38.875000,26.47,84.48
253021,2018-06-29 10:56:38.906250,46.95,84.48
253022,2018-06-29 10:56:38.937500,58.26,84.48
253023,2018-06-29 10:56:38.968750,60.13,84.48
253024,2018-06-29 10:56:39.000000,54.08,84.48
253025,2018-06-29 10:56:39.031250,42.82,84.48
253026,2018-06-29 10:56:39.062500,29.35,84.48
253027,2018-06-29 10:56:39.093750,16.75,84.48
253028,2018-06-29 10:56:39.125000,6.65,84.48
253029,2018-06-29 10:56:39.156250,-1.34,84.48
253030,2018-06-29 10:56:39.187500,-8.2,84.48
253031,2018-06-29 10:56:39.218750,-14.79,84.48
253032,2018-06-29 10:56:39.250000,-22.07,84.48
253033,2018-06-29 10:56:39.281250,-31.39,84.48
253034,2018-06-29 10:56:39.312500,-44.5,84.48
253035,2018-06-29 10:56:39.343750,-61.58,84.48
253036,2018-06-29 10:56:39.375000,-75.49,84.48
253037,2018-06-29 10:56:39.406250,-74.05,84.48
253038,2018-06-29 10:56:39.437500,-52.74,84.48
253039,2018-06-29 10:56:39.468750,-20.01,84.48
253040,2018-06-29 10:56:39.500000,12.18,84.48
253041,2018-06-29 10:56:39.531250,37.28,84.18
253042,2018-06-29 10:56:39.562500,52.88,84.18
253043,2018-06-29 10:56:39.593750,58.75,84.18
253044,2018-06-29 10:56:39.625000,55.02,84.18
253045,2018-06-29 10:56:39.656250,45.01,84.18
253046,2018-06-29 10:56:39.687500,34.43,84.18
253047,2018-06-29 10:56:39.718750,26.5,84.18
253048,2018-06-29 10:56:39.750000,17.38,84.18
253049,2018-06-29 10:56:39.781250,2.92,84.18
253050,2018-06-29 10:56:39.812500,-10.96,84.18
253051,2018-06-29 10:56:39.843750,-18.44,84.18
253052,2018-06-29 10:56:39.875000,-20.94,84.18
253053,2018-06-29 10:56:39.906250,-26.64,84.18
253054,2018-06-29 10:56:39.937500,-36.11,84.18
253055,2018-06-29 10:56:39.968750,-46.67,84.18
253056,2018-06-29 10:56:40.000000,-56.02,84.18
253057,2018-06-29 10:56:40.031250,-62.77,84.18
253058,2018-06-29 10:56:40.062500,-70.48,84.18
253059,2018-06-29 10:56:40.093750,-83.4,84.18
253060,2018-06-29 10:56:40.125000,-104.77,84.18
253061,2018-06-29 10:56:40.156250,-98.01,84.18
253062,2018-06-29 10:56:40.187500,-36.69,84.18
253063,2018-06-29 10:56:40.218750,32.2,84.18
253064,2018-06-29 10:56:40.250000,81.1,84.18
253065,2018-06-29 10:56:40.281250,116.18,84.18
253066,2018-06-29 10:56:40.312500,140.09,84.18
253067,2018-06-29 10:56:40.343750,149.53,84.18
253068,2018-06-29 10:56:40.375000,152.87,84.18
253069,2018-06-29 10:56:40.406250,157.67,84.18
253070,2018-06-29 10:56:40.437500,166.88,84.18
253071,2018-06-29 10:56:40.468750,173.66,84.18
253072,2018-06-29 10:56:40.500000,184.57,84.18
253073,2018-06-29 10:56:40.531250,204.87,83.87
253074,2018-06-29 10:56:40.562500,219.93,83.87
253075,2018-06-29 10:56:40.593750,201.45,83.87
253076,2018-06-29 10:56:40.625000,137.02,83.87
253077,2018-06-29 10:56:40.656250,50.15,83.87
253078,2018-06-29 10:56:40.687500,-29.82,83.87
253079,2018-06-29 10:56:40.718750,-83.89,83.87
253080,2018-06-29 10:56:40.750000,-109.96,83.87
253081,2018-06-29 10:56:40.781250,-112.6,83.87
253082,2018-06-29 10:56:40.812500,-93.32,83.87
253083,2018-06-29 10:56:40.843750,-58.91,83.87
253084,2018-06-29 10:56:40.875000,-19.78,83.87
253085,2018-06-29 10:56:40.906250,14.54,83.87
253086,2018-06-29 10:56:40.937500,25.56,83.87
253087,2018-06-29 10:56:40.968750,-1.64,83.87
253088,2018-06-29 10:56:41.000000,-46.23,83.87
253089,2018-06-29 10:56:41.031250,-70.56,83.87
253090,2018-06-29 10:56:41.062500,-60.28,83.87
253091,2018-06-29 10:56:41.093750,-39.84,83.87
253092,2018-06-29 10:56:41.125000,-37.86,83.87
253093,2018-06-29 10:56:41.156250,-64.82,83.87
253094,2018-06-29 10:56:41.187500,-111.88,83.87
253095,2018-06-29 10:56:41.218750,-170.91,83.87
253096,2018-06-29 10:56:41.250000,-235.42,83.87
253097,2018-06-29 10:56:41.281250,-286.39,83.87
253098,2018-06-29 10:56:41.312500,-308.37,83.87
253099,2018-06-29 10:56:41.343750,-296.01,83.87
253100,2018-06-29 10:56:41.375000,-265.68,83.87
253101,2018-06-29 10:56:41.406250,-223.17,83.87
253102,2018-06-29 10:56:41.437500,-173.44,83.87
253103,2018-06-29 10:56:41.468750,-130.09,83.87
253104,2018-06-29 10:56:41.500000,-119.1,83.87
253105,2018-06-29 10:56:41.531250,-145.65,83.48
253106,2018-06-29 10:56:41.562500,-173.32,83.48
253107,2018-06-29 10:56:41.593750,-181.84,83.48
253108,2018-06-29 10:56:41.625000,-100.75,83.48
253109,2018-06-29 10:56:41.656250,59.56,83.48
253110,2018-06-29 10:56:41.687500,172.44,83.48
253111,2018-06-29 10:56:41.718750,221.78,83.48
253112,2018-06-29 10:56:41.750000,240.73,83.48
253113,2018-06-29 10:56:41.781250,235.18,83.48
253114,2018-06-29 10:56:41.812500,206.2,83.48
253115,2018-06-29 10:56:41.843750,176.83,83.48
253116,2018-06-29 10:56:41.875000,159.08,83.48
253117,2018-06-29 10:56:41.906250,156.52,83.48
253118,2018-06-29 10:56:41.937500,157.58,83.48
253119,2018-06-29 10:56:41.968750,159.27,83.48
253120,2018-06-29 10:56:42.000000,156.03,83.48
253121,2018-06-29 10:56:42.031250,144.53,83.48
253122,2018-06-29 10:56:42.062500,123.47,83.48
253123,2018-06-29 10:56:42.093750,94.2,83.48
253124,2018-06-29 10:56:42.125000,68.98,83.48
253125,2018-06-29 10:56:42.156250,50.44,83.48
253126,2018-06-29 10:56:42.187500,26.59,83.48
253127,2018-06-29 10:56:42.218750,-18.58,83.48
253128,2018-06-29 10:56:42.250000,-70.64,83.48
253129,2018-06-29 10:56:42.281250,-88.77,83.48
253130,2018-06-29 10:56:42.312500,-42.98,83.48
253131,2018-06-29 10:56:42.343750,59.2,83.48
253132,2018-06-29 10:56:42.375000,180.53,83.48
253133,2018-06-29 10:56:42.406250,277.32,83.48
253134,2018-06-29 10:56:42.437500,320.15,83.48
253135,2018-06-29 10:56:42.468750,310.95,83.48
253136,2018-06-29 10:56:42.500000,275.31,83.48
253137,2018-06-29 10:56:42.531250,235.8,83.1
253138,2018-06-29 10:56:42.562500,198.68,83.1
253139,2018-06-29 10:56:42.593750,162.33,83.1
253140,2018-06-29 10:56:42.625000,127.45,83.1
253141,2018-06-29 10:56:42.656250,96.69,83.1
253142,2018-06-29 10:56:42.687500,70.29,83.1
253143,2018-06-29 10:56:42.718750,46.05,83.1
253144,2018-06-29 10:56:42.750000,21.13,83.1
253145,2018-06-29 10:56:42.781250,-6.64,83.1
253146,2018-06-29 10:56:42.812500,-34.75,83.1
253147,2018-06-29 10:56:42.843750,-58.78,83.1
253148,2018-06-29 10:56:42.875000,-81.44,83.1
253149,2018-06-29 10:56:42.906250,-108.22,83.1
253150,2018-06-29 10:56:42.937500,-133.51,83.1
253151,2018-06-29 10:56:42.968750,-143.98,83.1
253152,2018-06-29 10:56:43.000000,-135.39,83.1
253153,2018-06-29 10:56:43.031250,-115.62,83.1
253154,2018-06-29 10:56:43.062500,-95.14,83.1
253155,2018-06-29 10:56:43.093750,-83.66,83.1
253156,2018-06-29 10:56:43.125000,-88.43,83.1
253157,2018-06-29 10:56:43.156250,-105.31,83.1
253158,2018-06-29 10:56:43.187500,-118.68,83.1
253159,2018-06-29 10:56:43.218750,-118.76,83.1
253160,2018-06-29 10:56:43.250000,-109.6,83.1
253161,2018-06-29 10:56:43.281250,-97.49,83.1
253162,2018-06-29 10:56:43.312500,-86.32,83.1
253163,2018-06-29 10:56:43.343750,-83.54,83.1
253164,2018-06-29 10:56:43.375000,-92.64,83.1
253165,2018-06-29 10:56:43.406250,-100.47,83.1
253166,2018-06-29 10:56:43.437500,-87.61,83.1
253167,2018-06-29 10:56:43.468750,-53.81,83.1
253168,2018-06-29 10:56:43.500000,-21.09,83.1
253169,2018-06-29 10:56:43.531250,-6.41,82.73
253170,2018-06-29 10:56:43.562500,-4.73,82.73
253171,2018-06-29 10:56:43.593750,-6.09,82.73
253172,2018-06-29 10:56:43.625000,-12.34,82.73
253173,2018-06-29 10:56:43.656250,-29.73,82.73
253174,2018-06-29 10:56:43.687500,-60.43,82.73
253175,2018-06-29 10:56:43.718750,-101.79,82.73
253176,2018-06-29 10:56:43.750000,-143.08,82.73
253177,2018-06-29 10:56:43.781250,-171.49,82.73
253178,2018-06-29 10:56:43.812500,-185.36,82.73
253179,2018-06-29 10:56:43.843750,-189.26,82.73
253180,2018-06-29 10:56:43.875000,-185.4,82.73
253181,2018-06-29 10:56:43.906250,-181.53,82.73
253182,2018-06-29 10:56:43.937500,-189.5,82.73
253183,2018-06-29 10:56:43.968750,-206.11,82.73
253184,2018-06-29 10:56:44.000000,-213.7,82.73
253185,2018-06-29 10:56:44.031250,-208.23,82.73
253186,2018-06-29 10:56:44.062500,-210.85,82.73
253187,2018-06-29 10:56:44.093750,-237.0,82.73
253188,2018-06-29 10:56:44.125000,-265.58,82.73
253189,2018-06-29 10:56:44.156250,-256.88,82.73
253190,2018-06-29 10:56:44.187500,-193.26,82.73
253191,2018-06-29 10:56:44.218750,-89.74,82.73
253192,2018-06-29 10:56:44.250000,23.23,82.73
253193,2018-06-29 10:56:44.281250,116.35,82.73
253194,2018-06-29 10:56:44.312500,172.73,82.73
253195,2018-06-29 10:56:44.343750,193.04,82.73
253196,2018-06-29 10:56:44.375000,191.24,82.73
253197,2018-06-29 10:56:44.406250,183.52,82.73
253198,2018-06-29 10:56:44.437500,174.4,82.73
253199,2018-06-29 10:56:44.468750,156.55,82.73
253200,2018-06-29 10:56:44.500000,133.22,82.73
253201,2018-06-29 10:56:44.531250,127.08,82.4
253202,2018-06-29 10:56:44.562500,152.97,82.4
253203,2018-06-29 10:56:44.593750,193.91,82.4
253204,2018-06-29 10:56:44.625000,216.72,82.4
253205,2018-06-29 10:56:44.656250,206.24,82.4
253206,2018-06-29 10:56:44.687500,174.78,82.4
253207,2018-06-29 10:56:44.718750,140.43,82.4
253208,2018-06-29 10:56:44.750000,108.62,82.4
253209,2018-06-29 10:56:44.781250,76.0,82.4
253210,2018-06-29 10:56:44.812500,39.71,82.4
253211,2018-06-29 10:56:44.843750,4.4,82.4
253212,2018-06-29 10:56:44.875000,-12.82,82.4
253213,2018-06-29 10:56:44.906250,2.91,82.4
253214,2018-06-29 10:56:44.937500,39.98,82.4
253215,2018-06-29 10:56:44.968750,72.02,82.4
253216,2018-06-29 10:56:45.000000,90.98,82.4
253217,2018-06-29 10:56:45.031250,101.68,82.4
253218,2018-06-29 10:56:45.062500,94.03,82.4
253219,2018-06-29 10:56:45.093750,44.76,82.4
253220,2018-06-29 10:56:45.125000,-50.87,82.4
253221,2018-06-29 10:56:45.156250,-157.79,82.4
253222,2018-06-29 10:56:45.187500,-217.03,82.4
253223,2018-06-29 10:56:45.218750,-202.46,82.4
253224,2018-06-29 10:56:45.250000,-152.8,82.4
253225,2018-06-29 10:56:45.281250,-119.58,82.4
253226,2018-06-29 10:56:45.312500,-109.07,82.4
253227,2018-06-29 10:56:45.343750,-92.93,82.4
253228,2018-06-29 10:56:45.375000,-61.38,82.4
253229,2018-06-29 10:56:45.406250,-19.0,82.4
253230,2018-06-29 10:56:45.437500,21.68,82.4
253231,2018-06-29 10:56:45.468750,41.17,82.4
253232,2018-06-29 10:56:45.500000,29.89,82.4
253233,2018-06-29 10:56:45.531250,-7.45,82.12
253234,2018-06-29 10:56:45.562500,-61.39,82.12
253235,2018-06-29 10:56:45.593750,-127.8,82.12
253236,2018-06-29 10:56:45.625000,-167.04,82.12
253237,2018-06-29 10:56:45.656250,-149.26,82.12
253238,2018-06-29 10:56:45.687500,-89.49,82.12
253239,2018-06-29 10:56:45.718750,-45.93,82.12
253240,2018-06-29 10:56:45.750000,-55.21,82.12
253241,2018-06-29 10:56:45.781250,-90.25,82.12
253242,2018-06-29 10:56:45.812500,-95.92,82.12
253243,2018-06-29 10:56:45.843750,20.07,82.12
253244,2018-06-29 10:56:45.875000,176.66,82.12
253245,2018-06-29 10:56:45.906250,222.16,82.12
253246,2018-06-29 10:56:45.937500,188.51,82.12
253247,2018-06-29 10:56:45.968750,134.43,82.12
253248,2018-06-29 10:56:46.000000,70.01,82.12
253249,2018-06-29 10:56:46.031250,21.2,82.12
253250,2018-06-29 10:56:46.062500,23.88,82.12
253251,2018-06-29 10:56:46.093750,50.02,82.12
253252,2018-06-29 10:56:46.125000,55.65,82.12
253253,2018-06-29 10:56:46.156250,33.82,82.12
253254,2018-06-29 10:56:46.187500,40.33,82.12
253255,2018-06-29 10:56:46.218750,77.9,82.12
253256,2018-06-29 10:56:46.250000,101.39,82.12
253257,2018-06-29 10:56:46.281250,90.73,82.12
253258,2018-06-29 10:56:46.312500,62.32,82.12
253259,2018-06-29 10:56:46.343750,47.85,82.12
253260,2018-06-29 10:56:46.375000,63.92,82.12
253261,2018-06-29 10:56:46.406250,115.62,82.12
253262,2018-06-29 10:56:46.437500,184.68,82.12
253263,2018-06-29 10:56:46.468750,245.33,82.12
253264,2018-06-29 10:56:46.500000,275.32,82.12
253265,2018-06-29 10:56:46.531250,265.76,81.9
253266,2018-06-29 10:56:46.562500,225.51,81.9
253267,2018-06-29 10:56:46.593750,180.0,81.9
253268,2018-06-29 10:56:46.625000,147.75,81.9
253269,2018-06-29 10:56:46.656250,123.49,81.9
253270,2018-06-29 10:56:46.687500,98.13,81.9
253271,2018-06-29 10:56:46.718750,71.4,81.9
253272,2018-06-29 10:56:46.750000,39.29,81.9
253273,2018-06-29 10:56:46.781250,-12.83,81.9
253274,2018-06-29 10:56:46.812500,-84.27,81.9
253275,2018-06-29 10:56:46.843750,-151.72,81.9
253276,2018-06-29 10:56:46.875000,-196.03,81.9
253277,2018-06-29 10:56:46.906250,-220.5,81.9
253278,2018-06-29 10:56:46.937500,-242.49,81.9
253279,2018-06-29 10:56:46.968750,-280.3,81.9
253280,2018-06-29 10:56:47.000000,-339.75,81.9
253281,2018-06-29 10:56:47.031250,-388.4,81.9
253282,2018-06-29 10:56:47.062500,-376.49,81.9
253283,2018-06-29 10:56:47.093750,-300.27,81.9
253284,2018-06-29 10:56:47.125000,-209.48,81.9
253285,2018-06-29 10:56:47.156250,-141.9,81.9
253286,2018-06-29 10:56:47.187500,-96.13,81.9
253287,2018-06-29 10:56:47.218750,-71.77,81.9
253288,2018-06-29 10:56:47.250000,-70.54,81.9
253289,2018-06-29 10:56:47.281250,-65.5,81.9
253290,2018-06-29 10:56:47.312500,-9.42,81.9
253291,2018-06-29 10:56:47.343750,94.18,81.9
253292,2018-06-29 10:56:47.375000,175.81,81.9
253293,2018-06-29 10:56:47.406250,183.24,81.9
253294,2018-06-29 10:56:47.437500,137.23,81.9
253295,2018-06-29 10:56:47.468750,92.55,81.9
253296,2018-06-29 10:56:47.500000,85.49,81.9
253297,2018-06-29 10:56:47.531250,136.41,81.65
253298,2018-06-29 10:56:47.562500,199.25,81.65
253299,2018-06-29 10:56:47.593750,190.25,81.65
253300,2018-06-29 10:56:47.625000,132.03,81.65
253301,2018-06-29 10:56:47.656250,75.55,81.65
253302,2018-06-29 10:56:47.687500,34.89,81.65
253303,2018-06-29 10:56:47.718750,10.56,81.65
253304,2018-06-29 10:56:47.750000,7.79,81.65
253305,2018-06-29 10:56:47.781250,12.77,81.65
253306,2018-06-29 10:56:47.812500,8.51,81.65
253307,2018-06-29 10:56:47.843750,-5.18,81.65
253308,2018-06-29 10:56:47.875000,-12.0,81.65
253309,2018-06-29 10:56:47.906250,-7.11,81.65
253310,2018-06-29 10:56:47.937500,-2.65,81.65
253311,2018-06-29 10:56:47.968750,-7.35,81.65
253312,2018-06-29 10:56:48.000000,-16.05,81.65
253313,2018-06-29 10:56:48.031250,-18.81,81.65
253314,2018-06-29 10:56:48.062500,-18.86,81.65
253315,2018-06-29 10:56:48.093750,-24.84,81.65
253316,2018-06-29 10:56:48.125000,-36.23,81.65
253317,2018-06-29 10:56:48.156250,-41.84,81.65
253318,2018-06-29 10:56:48.187500,-34.06,81.65
253319,2018-06-29 10:56:48.218750,-13.97,81.65
253320,2018-06-29 10:56:48.250000,12.98,81.65
253321,2018-06-29 10:56:48.281250,34.63,81.65
253322,2018-06-29 10:56:48.312500,36.93,81.65
253323,2018-06-29 10:56:48.343750,20.31,81.65
253324,2018-06-29 10:56:48.375000,-0.79,81.65
253325,2018-06-29 10:56:48.406250,-14.72,81.65
253326,2018-06-29 10:56:48.437500,-12.36,81.65
253327,2018-06-29 10:56:48.468750,14.38,81.65
253328,2018-06-29 10:56:48.500000,53.13,81.65
253329,2018-06-29 10:56:48.531250,73.56,81.4
253330,2018-06-29 10:56:48.562500,65.03,81.4
253331,2018-06-29 10:56:48.593750,46.98,81.4
253332,2018-06-29 10:56:48.625000,36.63,81.4
253333,2018-06-29 10:56:48.656250,29.11,81.4
253334,2018-06-29 10:56:48.687500,16.77,81.4
253335,2018-06-29 10:56:48.718750,5.52,81.4
253336,2018-06-29 10:56:48.750000,3.66,81.4
253337,2018-06-29 10:56:48.781250,3.9,81.4
253338,2018-06-29 10:56:48.812500,-9.45,81.4
253339,2018-06-29 10:56:48.843750,-41.14,81.4
253340,2018-06-29 10:56:48.875000,-84.54,81.4
253341,2018-06-29 10:56:48.906250,-107.9,81.4
253342,2018-06-29 10:56:48.937500,-77.21,81.4
253343,2018-06-29 10:56:48.968750,-17.34,81.4
253344,2018-06-29 10:56:49.000000,16.71,81.4
253345,2018-06-29 10:56:49.031250,14.17,81.4
253346,2018-06-29 10:56:49.062500,3.9,81.4
253347,2018-06-29 10:56:49.093750,-2.49,81.4
253348,2018-06-29 10:56:49.125000,-10.8,81.4
253349,2018-06-29 10:56:49.156250,-13.77,81.4
253350,2018-06-29 10:56:49.187500,-2.77,81.4
253351,2018-06-29 10:56:49.218750,8.37,81.4
253352,2018-06-29 10:56:49.250000,4.24,81.4
253353,2018-06-29 10:56:49.281250,-8.57,81.4
253354,2018-06-29 10:56:49.312500,-12.46,81.4
253355,2018-06-29 10:56:49.343750,4.63,81.4
253356,2018-06-29 10:56:49.375000,38.15,81.4
253357,2018-06-29 10:56:49.406250,62.41,81.4
253358,2018-06-29 10:56:49.437500,54.87,81.4
253359,2018-06-29 10:56:49.468750,27.16,81.4
253360,2018-06-29 10:56:49.500000,6.72,81.4
253361,2018-06-29 10:56:49.531250,-0.15,81.15
253362,2018-06-29 10:56:49.562500,-1.38,81.15
253363,2018-06-29 10:56:49.593750,3.88,81.15
253364,2018-06-29 10:56:49.625000,16.95,81.15
253365,2018-06-29 10:56:49.656250,29.54,81.15
253366,2018-06-29 10:56:49.687500,34.73,81.15
253367,2018-06-29 10:56:49.718750,34.83,81.15
253368,2018-06-29 10:56:49.750000,32.44,81.15
253369,2018-06-29 10:56:49.781250,24.43,81.15
253370,2018-06-29 10:56:49.812500,7.03,81.15
253371,2018-06-29 10:56:49.843750,-18.45,81.15
253372,2018-06-29 10:56:49.875000,-45.19,81.15
253373,2018-06-29 10:56:49.906250,-65.3,81.15
253374,2018-06-29 10:56:49.937500,-75.32,81.15
253375,2018-06-29 10:56:49.968750,-79.17,81.15
253376,2018-06-29 10:56:50.000000,-82.71,81.15
253377,2018-06-29 10:56:50.031250,-83.62,81.15
253378,2018-06-29 10:56:50.062500,-74.42,81.15
253379,2018-06-29 10:56:50.093750,-55.84,81.15
253380,2018-06-29 10:56:50.125000,-39.78,81.15
253381,2018-06-29 10:56:50.156250,-37.89,81.15
253382,2018-06-29 10:56:50.187500,-56.6,81.15
253383,2018-06-29 10:56:50.218750,-85.23,81.15
253384,2018-06-29 10:56:50.250000,-87.61,81.15
253385,2018-06-29 10:56:50.281250,-45.49,81.15
253386,2018-06-29 10:56:50.312500,-1.78,81.15
253387,2018-06-29 10:56:50.343750,-8.64,81.15
253388,2018-06-29 10:56:50.375000,-54.72,81.15
253389,2018-06-29 10:56:50.406250,-95.08,81.15
253390,2018-06-29 10:56:50.437500,-104.93,81.15
253391,2018-06-29 10:56:50.468750,-75.76,81.15
253392,2018-06-29 10:56:50.500000,-10.15,81.15
253393,2018-06-29 10:56:50.531250,66.04,80.88
253394,2018-06-29 10:56:50.562500,110.03,80.88
253395,2018-06-29 10:56:50.593750,119.72,80.88
253396,2018-06-29 10:56:50.625000,124.59,80.88
253397,2018-06-29 10:56:50.656250,135.01,80.88
253398,2018-06-29 10:56:50.687500,137.19,80.88
253399,2018-06-29 10:56:50.718750,129.29,80.88
253400,2018-06-29 10:56:50.750000,122.54,80.88
253401,2018-06-29 10:56:50.781250,121.54,80.88
253402,2018-06-29 10:56:50.812500,116.62,80.88
253403,2018-06-29 10:56:50.843750,91.58,80.88
253404,2018-06-29 10:56:50.875000,37.02,80.88
253405,2018-06-29 10:56:50.906250,-38.42,80.88
253406,2018-06-29 10:56:50.937500,-115.56,80.88
253407,2018-06-29 10:56:50.968750,-186.46,80.88
253408,2018-06-29 10:56:51.000000,-244.8,80.88
253409,2018-06-29 10:56:51.031250,-281.81,80.88
253410,2018-06-29 10:56:51.062500,-296.22,80.88
253411,2018-06-29 10:56:51.093750,-293.21,80.88
253412,2018-06-29 10:56:51.125000,-259.71,80.88
253413,2018-06-29 10:56:51.156250,-183.6,80.88
253414,2018-06-29 10:56:51.187500,-87.05,80.88
253415,2018-06-29 10:56:51.218750,0.77,80.88
253416,2018-06-29 10:56:51.250000,69.26,80.88
253417,2018-06-29 10:56:51.281250,133.81,80.88
253418,2018-06-29 10:56:51.312500,184.83,80.88
253419,2018-06-29 10:56:51.343750,211.42,80.88
253420,2018-06-29 10:56:51.375000,217.09,80.88
253421,2018-06-29 10:56:51.406250,226.59,80.88
253422,2018-06-29 10:56:51.437500,251.55,80.88
253423,2018-06-29 10:56:51.468750,269.52,80.88
253424,2018-06-29 10:56:51.500000,281.16,80.88
253425,2018-06-29 10:56:51.531250,301.19,80.65
253426,2018-06-29 10:56:51.562500,362.29,80.65
253427,2018-06-29 10:56:51.593750,438.07,80.65
253428,2018-06-29 10:56:51.625000,506.53,80.65
253429,2018-06-29 10:56:51.656250,530.05,80.65
253430,2018-06-29 10:56:51.687500,325.76,80.65
253431,2018-06-29 10:56:51.718750,60.11,80.65
253432,2018-06-29 10:56:51.750000,-117.93,80.65
253433,2018-06-29 10:56:51.781250,-213.8,80.65
253434,2018-06-29 10:56:51.812500,-251.42,80.65
253435,2018-06-29 10:56:51.843750,-235.27,80.65
253436,2018-06-29 10:56:51.875000,-215.31,80.65
253437,2018-06-29 10:56:51.906250,-218.03,80.65
253438,2018-06-29 10:56:51.937500,-231.09,80.65
253439,2018-06-29 10:56:51.968750,-227.33,80.65
253440,2018-06-29 10:56:52.000000,-199.3,80.65
253441,2018-06-29 10:56:52.031250,-177.34,80.65
253442,2018-06-29 10:56:52.062500,-171.19,80.65
253443,2018-06-29 10:56:52.093750,-173.54,80.65
253444,2018-06-29 10:56:52.125000,-162.75,80.65
253445,2018-06-29 10:56:52.156250,-142.24,80.65
253446,2018-06-29 10:56:52.187500,-122.06,80.65
253447,2018-06-29 10:56:52.218750,-102.84,80.65
253448,2018-06-29 10:56:52.250000,-81.14,80.65
253449,2018-06-29 10:56:52.281250,-58.7,80.65
253450,2018-06-29 10:56:52.312500,-47.56,80.65
253451,2018-06-29 10:56:52.343750,-51.11,80.65
253452,2018-06-29 10:56:52.375000,-66.7,80.65
253453,2018-06-29 10:56:52.406250,-87.12,80.65
253454,2018-06-29 10:56:52.437500,-110.38,80.65
253455,2018-06-29 10:56:52.468750,-138.2,80.65
253456,2018-06-29 10:56:52.500000,-165.5,80.65
253457,2018-06-29 10:56:52.531250,-176.98,80.45
253458,2018-06-29 10:56:52.562500,-155.42,80.45
253459,2018-06-29 10:56:52.593750,-97.95,80.45
253460,2018-06-29 10:56:52.625000,-26.33,80.45
253461,2018-06-29 10:56:52.656250,34.63,80.45
253462,2018-06-29 10:56:52.687500,73.09,80.45
253463,2018-06-29 10:56:52.718750,87.79,80.45
253464,2018-06-29 10:56:52.750000,82.97,80.45
253465,2018-06-29 10:56:52.781250,69.46,80.45
253466,2018-06-29 10:56:52.812500,57.22,80.45
253467,2018-06-29 10:56:52.843750,49.53,80.45
253468,2018-06-29 10:56:52.875000,42.47,80.45
253469,2018-06-29 10:56:52.906250,32.95,80.45
253470,2018-06-29 10:56:52.937500,21.54,80.45
253471,2018-06-29 10:56:52.968750,13.51,80.45
253472,2018-06-29 10:56:53.000000,15.69,80.45
253473,2018-06-29 10:56:53.031250,34.25,80.45
253474,2018-06-29 10:56:53.062500,76.83,80.45
253475,2018-06-29 10:56:53.093750,143.71,80.45
253476,2018-06-29 10:56:53.125000,226.18,80.45
253477,2018-06-29 10:56:53.156250,297.66,80.45
253478,2018-06-29 10:56:53.187500,336.12,80.45
253479,2018-06-29 10:56:53.218750,335.83,80.45
253480,2018-06-29 10:56:53.250000,307.36,80.45
253481,2018-06-29 10:56:53.281250,258.82,80.45
253482,2018-06-29 10:56:53.312500,195.34,80.45
253483,2018-06-29 10:56:53.343750,144.84,80.45
253484,2018-06-29 10:56:53.375000,135.67,80.45
253485,2018-06-29 10:56:53.406250,169.22,80.45
253486,2018-06-29 10:56:53.437500,195.15,80.45
253487,2018-06-29 10:56:53.468750,175.29,80.45
253488,2018-06-29 10:56:53.500000,105.36,80.45
253489,2018-06-29 10:56:53.531250,-35.88,80.2
253490,2018-06-29 10:56:53.562500,-144.72,80.2
253491,2018-06-29 10:56:53.593750,-168.68,80.2
253492,2018-06-29 10:56:53.625000,-149.58,80.2
253493,2018-06-29 10:56:53.656250,-137.46,80.2
253494,2018-06-29 10:56:53.687500,-143.77,80.2
253495,2018-06-29 10:56:53.718750,-158.04,80.2
253496,2018-06-29 10:56:53.750000,-156.99,80.2
253497,2018-06-29 10:56:53.781250,-133.18,80.2
253498,2018-06-29 10:56:53.812500,-90.86,80.2
253499,2018-06-29 10:56:53.843750,-41.84,80.2
253500,2018-06-29 10:56:53.875000,-6.67,80.2
253501,2018-06-29 10:56:53.906250,2.77,80.2
253502,2018-06-29 10:56:53.937500,-12.48,80.2
253503,2018-06-29 10:56:53.968750,-42.54,80.2
253504,2018-06-29 10:56:54.000000,-82.48,80.2
253505,2018-06-29 10:56:54.031250,-117.08,80.2
253506,2018-06-29 10:56:54.062500,-128.84,80.2
253507,2018-06-29 10:56:54.093750,-105.07,80.2
253508,2018-06-29 10:56:54.125000,-56.53,80.2
253509,2018-06-29 10:56:54.156250,0.5,80.2
253510,2018-06-29 10:56:54.187500,46.5,80.2
253511,2018-06-29 10:56:54.218750,73.77,80.2
253512,2018-06-29 10:56:54.250000,88.47,80.2
253513,2018-06-29 10:56:54.281250,91.93,80.2
253514,2018-06-29 10:56:54.312500,88.89,80.2
253515,2018-06-29 10:56:54.343750,67.95,80.2
253516,2018-06-29 10:56:54.375000,34.0,80.2
253517,2018-06-29 10:56:54.406250,-11.27,80.2
253518,2018-06-29 10:56:54.437500,-54.11,80.2
253519,2018-06-29 10:56:54.468750,-97.18,80.2
253520,2018-06-29 10:56:54.500000,-123.85,80.2
253521,2018-06-29 10:56:54.531250,-39.02,79.93
253522,2018-06-29 10:56:54.562500,58.41,79.93
253523,2018-06-29 10:56:54.593750,117.4,79.93
253524,2018-06-29 10:56:54.625000,160.57,79.93
253525,2018-06-29 10:56:54.656250,186.83,79.93
253526,2018-06-29 10:56:54.687500,176.7,79.93
253527,2018-06-29 10:56:54.718750,143.33,79.93
253528,2018-06-29 10:56:54.750000,104.84,79.93
253529,2018-06-29 10:56:54.781250,69.11,79.93
253530,2018-06-29 10:56:54.812500,33.98,79.93
253531,2018-06-29 10:56:54.843750,-1.27,79.93
253532,2018-06-29 10:56:54.875000,-16.65,79.93
253533,2018-06-29 10:56:54.906250,-8.38,79.93
253534,2018-06-29 10:56:54.937500,19.97,79.93
253535,2018-06-29 10:56:54.968750,54.46,79.93
253536,2018-06-29 10:56:55.000000,94.04,79.93
253537,2018-06-29 10:56:55.031250,135.72,79.93
253538,2018-06-29 10:56:55.062500,170.49,79.93
253539,2018-06-29 10:56:55.093750,190.51,79.93
253540,2018-06-29 10:56:55.125000,194.64,79.93
253541,2018-06-29 10:56:55.156250,191.62,79.93
253542,2018-06-29 10:56:55.187500,183.52,79.93
253543,2018-06-29 10:56:55.218750,167.41,79.93
253544,2018-06-29 10:56:55.250000,143.47,79.93
253545,2018-06-29 10:56:55.281250,114.66,79.93
253546,2018-06-29 10:56:55.312500,80.34,79.93
253547,2018-06-29 10:56:55.343750,35.11,79.93
253548,2018-06-29 10:56:55.375000,-19.85,79.93
253549,2018-06-29 10:56:55.406250,-74.78,79.93
253550,2018-06-29 10:56:55.437500,-124.64,79.93
253551,2018-06-29 10:56:55.468750,-177.5,79.93
253552,2018-06-29 10:56:55.500000,-246.95,79.93
253553,2018-06-29 10:56:55.531250,-324.12,79.7
253554,2018-06-29 10:56:55.562500,-389.82,79.7
253555,2018-06-29 10:56:55.593750,-431.73,79.7
253556,2018-06-29 10:56:55.625000,-461.56,79.7
253557,2018-06-29 10:56:55.656250,-491.21,79.7
253558,2018-06-29 10:56:55.687500,-520.9,79.7
253559,2018-06-29 10:56:55.718750,-535.7,79.7
253560,2018-06-29 10:56:55.750000,-504.88,79.7
253561,2018-06-29 10:56:55.781250,-446.04,79.7
253562,2018-06-29 10:56:55.812500,-379.77,79.7
253563,2018-06-29 10:56:55.843750,-330.8,79.7
253564,2018-06-29 10:56:55.875000,-298.95,79.7
253565,2018-06-29 10:56:55.906250,-314.75,79.7
253566,2018-06-29 10:56:55.937500,-382.2,79.7
253567,2018-06-29 10:56:55.968750,-457.24,79.7
253568,2018-06-29 10:56:56.000000,-527.62,79.7
253569,2018-06-29 10:56:56.031250,-588.89,79.7
253570,2018-06-29 10:56:56.062500,-639.68,79.7
253571,2018-06-29 10:56:56.093750,-588.1,79.7
253572,2018-06-29 10:56:56.125000,-440.49,79.7
253573,2018-06-29 10:56:56.156250,-202.04,79.7
253574,2018-06-29 10:56:56.187500,278.78,79.7
253575,2018-06-29 10:56:56.218750,607.96,79.7
253576,2018-06-29 10:56:56.250000,701.46,79.7
253577,2018-06-29 10:56:56.281250,690.12,79.7
253578,2018-06-29 10:56:56.312500,639.76,79.7
253579,2018-06-29 10:56:56.343750,533.39,79.7
253580,2018-06-29 10:56:56.375000,434.3,79.7
253581,2018-06-29 10:56:56.406250,366.57,79.7
253582,2018-06-29 10:56:56.437500,314.36,79.7
253583,2018-06-29 10:56:56.468750,237.36,79.7
253584,2018-06-29 10:56:56.500000,154.54,79.7
253585,2018-06-29 10:56:56.531250,122.63,79.48
253586,2018-06-29 10:56:56.562500,138.83,79.48
253587,2018-06-29 10:56:56.593750,175.81,79.48
253588,2018-06-29 10:56:56.625000,192.19,79.48
253589,2018-06-29 10:56:56.656250,201.78,79.48
253590,2018-06-29 10:56:56.687500,213.69,79.48
253591,2018-06-29 10:56:56.718750,223.06,79.48
253592,2018-06-29 10:56:56.750000,207.4,79.48
253593,2018-06-29 10:56:56.781250,157.3,79.48
253594,2018-06-29 10:56:56.812500,100.84,79.48
253595,2018-06-29 10:56:56.843750,68.35,79.48
253596,2018-06-29 10:56:56.875000,67.63,79.48
253597,2018-06-29 10:56:56.906250,73.8,79.48
253598,2018-06-29 10:56:56.937500,75.18,79.48
253599,2018-06-29 10:56:56.968750,71.55,79.48
253600,2018-06-29 10:56:57.000000,51.65,79.48
253601,2018-06-29 10:56:57.031250,13.34,79.48
253602,2018-06-29 10:56:57.062500,-10.36,79.48
253603,2018-06-29 10:56:57.093750,-11.71,79.48
253604,2018-06-29 10:56:57.125000,-17.78,79.48
253605,2018-06-29 10:56:57.156250,-47.54,79.48
253606,2018-06-29 10:56:57.187500,-86.9,79.48
253607,2018-06-29 10:56:57.218750,-114.3,79.48
253608,2018-06-29 10:56:57.250000,-121.37,79.48
253609,2018-06-29 10:56:57.281250,-114.07,79.48
253610,2018-06-29 10:56:57.312500,-114.81,79.48
253611,2018-06-29 10:56:57.343750,-133.78,79.48
253612,2018-06-29 10:56:57.375000,-137.77,79.48
253613,2018-06-29 10:56:57.406250,-88.79,79.48
253614,2018-06-29 10:56:57.437500,-2.84,79.48
253615,2018-06-29 10:56:57.468750,67.42,79.48
253616,2018-06-29 10:56:57.500000,103.65,79.48
253617,2018-06-29 10:56:57.531250,121.99,79.27
253618,2018-06-29 10:56:57.562500,132.92,79.27
253619,2018-06-29 10:56:57.593750,131.49,79.27
253620,2018-06-29 10:56:57.625000,109.53,79.27
253621,2018-06-29 10:56:57.656250,65.69,79.27
253622,2018-06-29 10:56:57.687500,7.38,79.27
253623,2018-06-29 10:56:57.718750,-54.04,79.27
253624,2018-06-29 10:56:57.750000,-116.5,79.27
253625,2018-06-29 10:56:57.781250,-162.0,79.27
253626,2018-06-29 10:56:57.812500,-163.43,79.27
253627,2018-06-29 10:56:57.843750,-98.5,79.27
253628,2018-06-29 10:56:57.875000,32.2,79.27
253629,2018-06-29 10:56:57.906250,208.08,79.27
253630,2018-06-29 10:56:57.937500,363.16,79.27
253631,2018-06-29 10:56:57.968750,350.84,79.27
253632,2018-06-29 10:56:58.000000,208.82,79.27
253633,2018-06-29 10:56:58.031250,66.06,79.27
253634,2018-06-29 10:56:58.062500,-40.44,79.27
253635,2018-06-29 10:56:58.093750,-119.65,79.27
253636,2018-06-29 10:56:58.125000,-173.23,79.27
253637,2018-06-29 10:56:58.156250,-207.72,79.27
253638,2018-06-29 10:56:58.187500,-238.52,79.27
253639,2018-06-29 10:56:58.218750,-255.94,79.27
253640,2018-06-29 10:56:58.250000,-203.83,79.27
253641,2018-06-29 10:56:58.281250,-100.13,79.27
253642,2018-06-29 10:56:58.312500,-13.87,79.27
253643,2018-06-29 10:56:58.343750,28.5,79.27
253644,2018-06-29 10:56:58.375000,51.95,79.27
253645,2018-06-29 10:56:58.406250,78.82,79.27
253646,2018-06-29 10:56:58.437500,95.42,79.27
253647,2018-06-29 10:56:58.468750,99.65,79.27
253648,2018-06-29 10:56:58.500000,108.58,79.27
253649,2018-06-29 10:56:58.531250,135.27,79.03
253650,2018-06-29 10:56:58.562500,167.77,79.03
253651,2018-06-29 10:56:58.593750,161.31,79.03
253652,2018-06-29 10:56:58.625000,123.06,79.03
253653,2018-06-29 10:56:58.656250,72.55,79.03
253654,2018-06-29 10:56:58.687500,21.79,79.03
253655,2018-06-29 10:56:58.718750,-22.88,79.03
253656,2018-06-29 10:56:58.750000,-58.35,79.03
253657,2018-06-29 10:56:58.781250,-106.12,79.03
253658,2018-06-29 10:56:58.812500,-174.69,79.03
253659,2018-06-29 10:56:58.843750,-223.96,79.03
253660,2018-06-29 10:56:58.875000,-191.9,79.03
253661,2018-06-29 10:56:58.906250,-67.96,79.03
253662,2018-06-29 10:56:58.937500,87.74,79.03
253663,2018-06-29 10:56:58.968750,208.29,79.03
253664,2018-06-29 10:56:59.000000,226.55,79.03
253665,2018-06-29 10:56:59.031250,140.33,79.03
253666,2018-06-29 10:56:59.062500,36.8,79.03
253667,2018-06-29 10:56:59.093750,-33.03,79.03
253668,2018-06-29 10:56:59.125000,-74.32,79.03
253669,2018-06-29 10:56:59.156250,-89.11,79.03
253670,2018-06-29 10:56:59.187500,-71.26,79.03
253671,2018-06-29 10:56:59.218750,-38.83,79.03
253672,2018-06-29 10:56:59.250000,-21.67,79.03
253673,2018-06-29 10:56:59.281250,-33.83,79.03
253674,2018-06-29 10:56:59.312500,-55.02,79.03
253675,2018-06-29 10:56:59.343750,-69.92,79.03
253676,2018-06-29 10:56:59.375000,-75.76,79.03
253677,2018-06-29 10:56:59.406250,-68.91,79.03
253678,2018-06-29 10:56:59.437500,-41.95,79.03
253679,2018-06-29 10:56:59.468750,-6.14,79.03
253680,2018-06-29 10:56:59.500000,4.81,79.03
253681,2018-06-29 10:56:59.531250,-21.9,78.85
253682,2018-06-29 10:56:59.562500,-56.89,78.85
253683,2018-06-29 10:56:59.593750,-61.39,78.85
253684,2018-06-29 10:56:59.625000,-38.8,78.85
253685,2018-06-29 10:56:59.656250,-15.45,78.85
253686,2018-06-29 10:56:59.687500,-4.57,78.85
253687,2018-06-29 10:56:59.718750,-3.73,78.85
253688,2018-06-29 10:56:59.750000,-6.76,78.85
253689,2018-06-29 10:56:59.781250,-9.06,78.85
253690,2018-06-29 10:56:59.812500,-8.38,78.85
253691,2018-06-29 10:56:59.843750,-7.75,78.85
253692,2018-06-29 10:56:59.875000,-11.72,78.85
253693,2018-06-29 10:56:59.906250,-8.78,78.85
253694,2018-06-29 10:56:59.937500,31.71,78.85
253695,2018-06-29 10:56:59.968750,113.11,78.85
253696,2018-06-29 10:57:00.000000,184.62,78.85
253697,2018-06-29 10:57:00.031250,199.89,78.85
253698,2018-06-29 10:57:00.062500,165.48,78.85
253699,2018-06-29 10:57:00.093750,113.66,78.85
253700,2018-06-29 10:57:00.125000,62.85,78.85
253701,2018-06-29 10:57:00.156250,19.45,78.85
253702,2018-06-29 10:57:00.187500,-4.11,78.85
253703,2018-06-29 10:57:00.218750,-6.72,78.85
253704,2018-06-29 10:57:00.250000,-1.87,78.85
253705,2018-06-29 10:57:00.281250,-3.93,78.85
253706,2018-06-29 10:57:00.312500,-18.62,78.85
253707,2018-06-29 10:57:00.343750,-42.56,78.85
253708,2018-06-29 10:57:00.375000,-66.38,78.85
253709,2018-06-29 10:57:00.406250,-88.17,78.85
253710,2018-06-29 10:57:00.437500,-110.02,78.85
253711,2018-06-29 10:57:00.468750,-123.79,78.85
253712,2018-06-29 10:57:00.500000,-113.32,78.85
253713,2018-06-29 10:57:00.531250,-76.37,78.8
253714,2018-06-29 10:57:00.562500,-25.88,78.8
253715,2018-06-29 10:57:00.593750,22.38,78.8
253716,2018-06-29 10:57:00.625000,53.04,78.8
253717,2018-06-29 10:57:00.656250,56.7,78.8
253718,2018-06-29 10:57:00.687500,40.69,78.8
253719,2018-06-29 10:57:00.718750,20.98,78.8
253720,2018-06-29 10:57:00.750000,6.23,78.8
253721,2018-06-29 10:57:00.781250,-2.14,78.8
253722,2018-06-29 10:57:00.812500,-5.22,78.8
253723,2018-06-29 10:57:00.843750,-7.88,78.8
253724,2018-06-29 10:57:00.875000,-14.6,78.8
253725,2018-06-29 10:57:00.906250,-22.21,78.8
253726,2018-06-29 10:57:00.937500,-26.98,78.8
253727,2018-06-29 10:57:00.968750,-30.49,78.8
253728,2018-06-29 10:57:01.000000,-33.5,78.8
253729,2018-06-29 10:57:01.031250,-29.24,78.8
253730,2018-06-29 10:57:01.062500,-12.4,78.8
253731,2018-06-29 10:57:01.093750,11.04,78.8
253732,2018-06-29 10:57:01.125000,30.81,78.8
253733,2018-06-29 10:57:01.156250,44.04,78.8
253734,2018-06-29 10:57:01.187500,53.99,78.8
253735,2018-06-29 10:57:01.218750,54.85,78.8
253736,2018-06-29 10:57:01.250000,50.35,78.8
253737,2018-06-29 10:57:01.281250,45.87,78.8
253738,2018-06-29 10:57:01.312500,31.26,78.8
253739,2018-06-29 10:57:01.343750,16.18,78.8
253740,2018-06-29 10:57:01.375000,18.99,78.8
253741,2018-06-29 10:57:01.406250,29.2,78.8
253742,2018-06-29 10:57:01.437500,23.82,78.8
253743,2018-06-29 10:57:01.468750,13.16,78.8
253744,2018-06-29 10:57:01.500000,21.21,78.8
253745,2018-06-29 10:57:01.531250,48.25,78.77
253746,2018-06-29 10:57:01.562500,75.14,78.77
253747,2018-06-29 10:57:01.593750,91.79,78.77
253748,2018-06-29 10:57:01.625000,96.83,78.77
253749,2018-06-29 10:57:01.656250,85.54,78.77
253750,2018-06-29 10:57:01.687500,58.79,78.77
253751,2018-06-29 10:57:01.718750,23.25,78.77
253752,2018-06-29 10:57:01.750000,-11.76,78.77
253753,2018-06-29 10:57:01.781250,-54.3,78.77
253754,2018-06-29 10:57:01.812500,-104.99,78.77
253755,2018-06-29 10:57:01.843750,-156.37,78.77
253756,2018-06-29 10:57:01.875000,-189.62,78.77
253757,2018-06-29 10:57:01.906250,-186.05,78.77
253758,2018-06-29 10:57:01.937500,-144.93,78.77
253759,2018-06-29 10:57:01.968750,-52.63,78.77
253760,2018-06-29 10:57:02.000000,43.24,78.77
253761,2018-06-29 10:57:02.031250,84.77,78.77
253762,2018-06-29 10:57:02.062500,83.18,78.77
253763,2018-06-29 10:57:02.093750,65.47,78.77
253764,2018-06-29 10:57:02.125000,45.4,78.77
253765,2018-06-29 10:57:02.156250,33.8,78.77
253766,2018-06-29 10:57:02.187500,34.21,78.77
253767,2018-06-29 10:57:02.218750,39.4,78.77
253768,2018-06-29 10:57:02.250000,45.63,78.77
253769,2018-06-29 10:57:02.281250,47.21,78.77
253770,2018-06-29 10:57:02.312500,47.87,78.77
253771,2018-06-29 10:57:02.343750,49.57,78.77
253772,2018-06-29 10:57:02.375000,50.67,78.77
253773,2018-06-29 10:57:02.406250,37.64,78.77
253774,2018-06-29 10:57:02.437500,-0.13,78.77
253775,2018-06-29 10:57:02.468750,-61.98,78.77
253776,2018-06-29 10:57:02.500000,-133.88,78.77
253777,2018-06-29 10:57:02.531250,-194.04,78.72
253778,2018-06-29 10:57:02.562500,-230.79,78.72
253779,2018-06-29 10:57:02.593750,-244.02,78.72
253780,2018-06-29 10:57:02.625000,-238.19,78.72
253781,2018-06-29 10:57:02.656250,-211.93,78.72
253782,2018-06-29 10:57:02.687500,-157.17,78.72
253783,2018-06-29 10:57:02.718750,-70.35,78.72
253784,2018-06-29 10:57:02.750000,31.08,78.72
253785,2018-06-29 10:57:02.781250,117.35,78.72
253786,2018-06-29 10:57:02.812500,168.41,78.72
253787,2018-06-29 10:57:02.843750,181.21,78.72
253788,2018-06-29 10:57:02.875000,161.54,78.72
253789,2018-06-29 10:57:02.906250,124.41,78.72
253790,2018-06-29 10:57:02.937500,88.46,78.72
253791,2018-06-29 10:57:02.968750,61.72,78.72
253792,2018-06-29 10:57:03.000000,41.12,78.72
253793,2018-06-29 10:57:03.031250,23.82,78.72
253794,2018-06-29 10:57:03.062500,12.13,78.72
253795,2018-06-29 10:57:03.093750,5.33,78.72
253796,2018-06-29 10:57:03.125000,-6.15,78.72
253797,2018-06-29 10:57:03.156250,-42.23,78.72
253798,2018-06-29 10:57:03.187500,-100.18,78.72
253799,2018-06-29 10:57:03.218750,-128.9,78.72
253800,2018-06-29 10:57:03.250000,-103.23,78.72
253801,2018-06-29 10:57:03.281250,-54.79,78.72
253802,2018-06-29 10:57:03.312500,-20.48,78.72
253803,2018-06-29 10:57:03.343750,-9.04,78.72
253804,2018-06-29 10:57:03.375000,-10.97,78.72
253805,2018-06-29 10:57:03.406250,-2.88,78.72
253806,2018-06-29 10:57:03.437500,37.49,78.72
253807,2018-06-29 10:57:03.468750,92.83,78.72
253808,2018-06-29 10:57:03.500000,119.11,78.72
253809,2018-06-29 10:57:03.531250,108.18,78.7
253810,2018-06-29 10:57:03.562500,80.07,78.7
253811,2018-06-29 10:57:03.593750,50.18,78.7
253812,2018-06-29 10:57:03.625000,21.82,78.7
253813,2018-06-29 10:57:03.656250,-1.18,78.7
253814,2018-06-29 10:57:03.687500,-15.17,78.7
253815,2018-06-29 10:57:03.718750,-21.57,78.7
253816,2018-06-29 10:57:03.750000,-24.03,78.7
253817,2018-06-29 10:57:03.781250,-20.82,78.7
253818,2018-06-29 10:57:03.812500,-11.7,78.7
253819,2018-06-29 10:57:03.843750,4.75,78.7
253820,2018-06-29 10:57:03.875000,27.24,78.7
253821,2018-06-29 10:57:03.906250,50.4,78.7
253822,2018-06-29 10:57:03.937500,60.42,78.7
253823,2018-06-29 10:57:03.968750,47.83,78.7
253824,2018-06-29 10:57:04.000000,29.89,78.7
253825,2018-06-29 10:57:04.031250,34.09,78.7
253826,2018-06-29 10:57:04.062500,65.59,78.7
253827,2018-06-29 10:57:04.093750,94.29,78.7
253828,2018-06-29 10:57:04.125000,96.86,78.7
253829,2018-06-29 10:57:04.156250,71.01,78.7
253830,2018-06-29 10:57:04.187500,25.61,78.7
253831,2018-06-29 10:57:04.218750,5.29,78.7
253832,2018-06-29 10:57:04.250000,4.82,78.7
253833,2018-06-29 10:57:04.281250,-3.88,78.7
253834,2018-06-29 10:57:04.312500,-26.73,78.7
253835,2018-06-29 10:57:04.343750,-48.91,78.7
253836,2018-06-29 10:57:04.375000,-65.67,78.7
253837,2018-06-29 10:57:04.406250,-76.9,78.7
253838,2018-06-29 10:57:04.437500,-81.78,78.7
253839,2018-06-29 10:57:04.468750,-81.65,78.7
253840,2018-06-29 10:57:04.500000,-83.85,78.7
253841,2018-06-29 10:57:04.531250,-92.57,78.65
253842,2018-06-29 10:57:04.562500,-99.67,78.65
253843,2018-06-29 10:57:04.593750,-94.61,78.65
253844,2018-06-29 10:57:04.625000,-78.15,78.65
253845,2018-06-29 10:57:04.656250,-60.72,78.65
253846,2018-06-29 10:57:04.687500,-47.01,78.65
253847,2018-06-29 10:57:04.718750,-34.98,78.65
253848,2018-06-29 10:57:04.750000,-24.0,78.65
253849,2018-06-29 10:57:04.781250,-17.83,78.65
253850,2018-06-29 10:57:04.812500,-20.84,78.65
253851,2018-06-29 10:57:04.843750,-31.05,78.65
253852,2018-06-29 10:57:04.875000,-41.1,78.65
253853,2018-06-29 10:57:04.906250,-38.76,78.65
253854,2018-06-29 10:57:04.937500,-13.02,78.65
253855,2018-06-29 10:57:04.968750,30.93,78.65
253856,2018-06-29 10:57:05.000000,75.25,78.65
253857,2018-06-29 10:57:05.031250,105.68,78.65
253858,2018-06-29 10:57:05.062500,119.61,78.65
253859,2018-06-29 10:57:05.093750,118.74,78.65
253860,2018-06-29 10:57:05.125000,106.15,78.65
253861,2018-06-29 10:57:05.156250,87.47,78.65
253862,2018-06-29 10:57:05.187500,68.8,78.65
253863,2018-06-29 10:57:05.218750,53.43,78.65
253864,2018-06-29 10:57:05.250000,42.61,78.65
253865,2018-06-29 10:57:05.281250,36.18,78.65
253866,2018-06-29 10:57:05.312500,31.79,78.65
253867,2018-06-29 10:57:05.343750,26.62,78.65
253868,2018-06-29 10:57:05.375000,19.87,78.65
253869,2018-06-29 10:57:05.406250,12.01,78.65
253870,2018-06-29 10:57:05.437500,2.15,78.65
253871,2018-06-29 10:57:05.468750,-11.07,78.65
253872,2018-06-29 10:57:05.500000,-26.56,78.65
253873,2018-06-29 10:57:05.531250,-41.56,78.57
253874,2018-06-29 10:57:05.562500,-55.22,78.57
253875,2018-06-29 10:57:05.593750,-69.42,78.57
253876,2018-06-29 10:57:05.625000,-87.45,78.57
253877,2018-06-29 10:57:05.656250,-110.69,78.57
253878,2018-06-29 10:57:05.687500,-131.55,78.57
253879,2018-06-29 10:57:05.718750,-132.42,78.57
253880,2018-06-29 10:57:05.750000,-102.22,78.57
253881,2018-06-29 10:57:05.781250,-51.57,78.57
253882,2018-06-29 10:57:05.812500,-1.68,78.57
253883,2018-06-29 10:57:05.843750,36.16,78.57
253884,2018-06-29 10:57:05.875000,61.83,78.57
253885,2018-06-29 10:57:05.906250,76.17,78.57
253886,2018-06-29 10:57:05.937500,80.17,78.57
253887,2018-06-29 10:57:05.968750,78.06,78.57
253888,2018-06-29 10:57:06.000000,73.93,78.57
253889,2018-06-29 10:57:06.031250,68.22,78.57
253890,2018-06-29 10:57:06.062500,60.82,78.57
253891,2018-06-29 10:57:06.093750,54.06,78.57
253892,2018-06-29 10:57:06.125000,49.44,78.57
253893,2018-06-29 10:57:06.156250,44.32,78.57
253894,2018-06-29 10:57:06.187500,35.09,78.57
253895,2018-06-29 10:57:06.218750,22.23,78.57
253896,2018-06-29 10:57:06.250000,9.55,78.57
253897,2018-06-29 10:57:06.281250,-1.37,78.57
253898,2018-06-29 10:57:06.312500,-13.22,78.57
253899,2018-06-29 10:57:06.343750,-28.28,78.57
253900,2018-06-29 10:57:06.375000,-43.84,78.57
253901,2018-06-29 10:57:06.406250,-55.75,78.57
253902,2018-06-29 10:57:06.437500,-64.93,78.57
253903,2018-06-29 10:57:06.468750,-76.72,78.57
253904,2018-06-29 10:57:06.500000,-93.98,78.57
253905,2018-06-29 10:57:06.531250,-110.36,78.43
253906,2018-06-29 10:57:06.562500,-110.65,78.43
253907,2018-06-29 10:57:06.593750,-83.56,78.43
253908,2018-06-29 10:57:06.625000,-35.51,78.43
253909,2018-06-29 10:57:06.656250,14.22,78.43
253910,2018-06-29 10:57:06.687500,51.62,78.43
253911,2018-06-29 10:57:06.718750,74.32,78.43
253912,2018-06-29 10:57:06.750000,84.22,78.43
253913,2018-06-29 10:57:06.781250,83.5,78.43
253914,2018-06-29 10:57:06.812500,76.56,78.43
253915,2018-06-29 10:57:06.843750,68.61,78.43
253916,2018-06-29 10:57:06.875000,61.79,78.43
253917,2018-06-29 10:57:06.906250,55.22,78.43
253918,2018-06-29 10:57:06.937500,48.2,78.43
253919,2018-06-29 10:57:06.968750,41.31,78.43
253920,2018-06-29 10:57:07.000000,34.2,78.43
253921,2018-06-29 10:57:07.031250,25.58,78.43
253922,2018-06-29 10:57:07.062500,14.65,78.43
253923,2018-06-29 10:57:07.093750,0.91,78.43
253924,2018-06-29 10:57:07.125000,-16.99,78.43
253925,2018-06-29 10:57:07.156250,-44.53,78.43
253926,2018-06-29 10:57:07.187500,-84.85,78.43
253927,2018-06-29 10:57:07.218750,-133.74,78.43
253928,2018-06-29 10:57:07.250000,-182.05,78.43
253929,2018-06-29 10:57:07.281250,-222.51,78.43
253930,2018-06-29 10:57:07.312500,-232.98,78.43
253931,2018-06-29 10:57:07.343750,-198.28,78.43
253932,2018-06-29 10:57:07.375000,-123.81,78.43
253933,2018-06-29 10:57:07.406250,-13.05,78.43
253934,2018-06-29 10:57:07.437500,116.53,78.43
253935,2018-06-29 10:57:07.468750,230.45,78.43
253936,2018-06-29 10:57:07.500000,307.09,78.43
253937,2018-06-29 10:57:07.531250,308.16,78.28
253938,2018-06-29 10:57:07.562500,235.92,78.28
253939,2018-06-29 10:57:07.593750,118.91,78.28
253940,2018-06-29 10:57:07.625000,1.71,78.28
253941,2018-06-29 10:57:07.656250,-75.1,78.28
253942,2018-06-29 10:57:07.687500,-92.06,78.28
253943,2018-06-29 10:57:07.718750,-63.68,78.28
253944,2018-06-29 10:57:07.750000,-16.12,78.28
253945,2018-06-29 10:57:07.781250,33.47,78.28
253946,2018-06-29 10:57:07.812500,84.54,78.28
253947,2018-06-29 10:57:07.843750,146.43,78.28
253948,2018-06-29 10:57:07.875000,222.87,78.28
253949,2018-06-29 10:57:07.906250,297.8,78.28
253950,2018-06-29 10:57:07.937500,332.72,78.28
253951,2018-06-29 10:57:07.968750,296.37,78.28
253952,2018-06-29 10:57:08.000000,190.85,78.28
253953,2018-06-29 10:57:08.031250,47.37,78.28
253954,2018-06-29 10:57:08.062500,-102.09,78.28
253955,2018-06-29 10:57:08.093750,-235.37,78.28
253956,2018-06-29 10:57:08.125000,-334.59,78.28
253957,2018-06-29 10:57:08.156250,-385.1,78.28
253958,2018-06-29 10:57:08.187500,-378.15,78.28
253959,2018-06-29 10:57:08.218750,-315.76,78.28
253960,2018-06-29 10:57:08.250000,-216.24,78.28
253961,2018-06-29 10:57:08.281250,-110.21,78.28
253962,2018-06-29 10:57:08.312500,-23.17,78.28
253963,2018-06-29 10:57:08.343750,33.69,78.28
253964,2018-06-29 10:57:08.375000,58.44,78.28
253965,2018-06-29 10:57:08.406250,54.34,78.28
253966,2018-06-29 10:57:08.437500,29.3,78.28
253967,2018-06-29 10:57:08.468750,-7.1,78.28
253968,2018-06-29 10:57:08.500000,-46.55,78.28
253969,2018-06-29 10:57:08.531250,-82.57,78.08
253970,2018-06-29 10:57:08.562500,-111.98,78.08
253971,2018-06-29 10:57:08.593750,-135.35,78.08
253972,2018-06-29 10:57:08.625000,-153.39,78.08
253973,2018-06-29 10:57:08.656250,-162.73,78.08
253974,2018-06-29 10:57:08.687500,-158.18,78.08
253975,2018-06-29 10:57:08.718750,-140.99,78.08
253976,2018-06-29 10:57:08.750000,-121.69,78.08
253977,2018-06-29 10:57:08.781250,-111.09,78.08
253978,2018-06-29 10:57:08.812500,-111.0,78.08
253979,2018-06-29 10:57:08.843750,-115.71,78.08
253980,2018-06-29 10:57:08.875000,-118.27,78.08
253981,2018-06-29 10:57:08.906250,-112.66,78.08
253982,2018-06-29 10:57:08.937500,-90.52,78.08
253983,2018-06-29 10:57:08.968750,-38.35,78.08
253984,2018-06-29 10:57:09.000000,55.74,78.08
253985,2018-06-29 10:57:09.031250,185.84,78.08
253986,2018-06-29 10:57:09.062500,323.83,78.08
253987,2018-06-29 10:57:09.093750,435.77,78.08
253988,2018-06-29 10:57:09.125000,499.73,78.08
253989,2018-06-29 10:57:09.156250,508.49,78.08
253990,2018-06-29 10:57:09.187500,465.16,78.08
253991,2018-06-29 10:57:09.218750,382.73,78.08
253992,2018-06-29 10:57:09.250000,282.21,78.08
253993,2018-06-29 10:57:09.281250,183.63,78.08
253994,2018-06-29 10:57:09.312500,97.96,78.08
253995,2018-06-29 10:57:09.343750,28.63,78.08
253996,2018-06-29 10:57:09.375000,-22.65,78.08
253997,2018-06-29 10:57:09.406250,-55.64,78.08
253998,2018-06-29 10:57:09.437500,-73.64,78.08
253999,2018-06-29 10:57:09.468750,-82.5,78.08
254000,2018-06-29 10:57:09.500000,-87.65,78.08
254001,2018-06-29 10:57:09.531250,-91.47,77.87
254002,2018-06-29 10:57:09.562500,-93.84,77.87
254003,2018-06-29 10:57:09.593750,-95.35,77.87
254004,2018-06-29 10:57:09.625000,-98.63,77.87
254005,2018-06-29 10:57:09.656250,-106.52,77.87
254006,2018-06-29 10:57:09.687500,-120.11,77.87
254007,2018-06-29 10:57:09.718750,-134.33,77.87
254008,2018-06-29 10:57:09.750000,-135.69,77.87
254009,2018-06-29 10:57:09.781250,-112.88,77.87
254010,2018-06-29 10:57:09.812500,-71.37,77.87
254011,2018-06-29 10:57:09.843750,-29.1,77.87
254012,2018-06-29 10:57:09.875000,2.16,77.87
254013,2018-06-29 10:57:09.906250,22.88,77.87
254014,2018-06-29 10:57:09.937500,37.23,77.87
254015,2018-06-29 10:57:09.968750,48.05,77.87
254016,2018-06-29 10:57:10.000000,57.87,77.87
254017,2018-06-29 10:57:10.031250,68.08,77.87
254018,2018-06-29 10:57:10.062500,77.17,77.87
254019,2018-06-29 10:57:10.093750,82.8,77.87
254020,2018-06-29 10:57:10.125000,84.1,77.87
254021,2018-06-29 10:57:10.156250,80.4,77.87
254022,2018-06-29 10:57:10.187500,70.13,77.87
254023,2018-06-29 10:57:10.218750,53.54,77.87
254024,2018-06-29 10:57:10.250000,33.5,77.87
254025,2018-06-29 10:57:10.281250,12.43,77.87
254026,2018-06-29 10:57:10.312500,-8.72,77.87
254027,2018-06-29 10:57:10.343750,-28.45,77.87
254028,2018-06-29 10:57:10.375000,-45.14,77.87
254029,2018-06-29 10:57:10.406250,-59.59,77.87
254030,2018-06-29 10:57:10.437500,-75.21,77.87
254031,2018-06-29 10:57:10.468750,-94.57,77.87
254032,2018-06-29 10:57:10.500000,-113.67,77.87
254033,2018-06-29 10:57:10.531250,-119.93,77.6
254034,2018-06-29 10:57:10.562500,-102.09,77.6
254035,2018-06-29 10:57:10.593750,-64.21,77.6
254036,2018-06-29 10:57:10.625000,-23.11,77.6
254037,2018-06-29 10:57:10.656250,7.85,77.6
254038,2018-06-29 10:57:10.687500,25.83,77.6
254039,2018-06-29 10:57:10.718750,32.02,77.6
254040,2018-06-29 10:57:10.750000,28.86,77.6
254041,2018-06-29 10:57:10.781250,21.76,77.6
254042,2018-06-29 10:57:10.812500,15.77,77.6
254043,2018-06-29 10:57:10.843750,11.7,77.6
254044,2018-06-29 10:57:10.875000,9.04,77.6
254045,2018-06-29 10:57:10.906250,9.05,77.6
254046,2018-06-29 10:57:10.937500,11.49,77.6
254047,2018-06-29 10:57:10.968750,12.48,77.6
254048,2018-06-29 10:57:11.000000,9.14,77.6
254049,2018-06-29 10:57:11.031250,2.95,77.6
254050,2018-06-29 10:57:11.062500,-3.65,77.6
254051,2018-06-29 10:57:11.093750,-10.83,77.6
254052,2018-06-29 10:57:11.125000,-19.17,77.6
254053,2018-06-29 10:57:11.156250,-27.09,77.6
254054,2018-06-29 10:57:11.187500,-33.25,77.6
254055,2018-06-29 10:57:11.218750,-39.51,77.6
254056,2018-06-29 10:57:11.250000,-49.72,77.6
254057,2018-06-29 10:57:11.281250,-64.63,77.6
254058,2018-06-29 10:57:11.312500,-76.58,77.6
254059,2018-06-29 10:57:11.343750,-72.46,77.6
254060,2018-06-29 10:57:11.375000,-47.04,77.6
254061,2018-06-29 10:57:11.406250,-10.91,77.6
254062,2018-06-29 10:57:11.437500,19.74,77.6
254063,2018-06-29 10:57:11.468750,37.54,77.6
254064,2018-06-29 10:57:11.500000,43.54,77.6
254065,2018-06-29 10:57:11.531250,40.36,77.33
254066,2018-06-29 10:57:11.562500,32.02,77.33
254067,2018-06-29 10:57:11.593750,24.37,77.33
254068,2018-06-29 10:57:11.625000,20.8,77.33
254069,2018-06-29 10:57:11.656250,20.17,77.33
254070,2018-06-29 10:57:11.687500,19.98,77.33
254071,2018-06-29 10:57:11.718750,18.85,77.33
254072,2018-06-29 10:57:11.750000,16.38,77.33
254073,2018-06-29 10:57:11.781250,12.54,77.33
254074,2018-06-29 10:57:11.812500,7.22,77.33
254075,2018-06-29 10:57:11.843750,-0.01,77.33
254076,2018-06-29 10:57:11.875000,-8.99,77.33
254077,2018-06-29 10:57:11.906250,-18.47,77.33
254078,2018-06-29 10:57:11.937500,-26.99,77.33
254079,2018-06-29 10:57:11.968750,-34.36,77.33
254080,2018-06-29 10:57:12.000000,-41.88,77.33
254081,2018-06-29 10:57:12.031250,-51.71,77.33
254082,2018-06-29 10:57:12.062500,-65.07,77.33
254083,2018-06-29 10:57:12.093750,-76.26,77.33
254084,2018-06-29 10:57:12.125000,-72.03,77.33
254085,2018-06-29 10:57:12.156250,-45.44,77.33
254086,2018-06-29 10:57:12.187500,-7.12,77.33
254087,2018-06-29 10:57:12.218750,25.77,77.33
254088,2018-06-29 10:57:12.250000,45.97,77.33
254089,2018-06-29 10:57:12.281250,54.95,77.33
254090,2018-06-29 10:57:12.312500,54.72,77.33
254091,2018-06-29 10:57:12.343750,48.39,77.33
254092,2018-06-29 10:57:12.375000,41.42,77.33
254093,2018-06-29 10:57:12.406250,37.03,77.33
254094,2018-06-29 10:57:12.437500,34.44,77.33
254095,2018-06-29 10:57:12.468750,32.72,77.33
254096,2018-06-29 10:57:12.500000,31.63,77.33
254097,2018-06-29 10:57:12.531250,29.27,77.05
254098,2018-06-29 10:57:12.562500,23.57,77.05
254099,2018-06-29 10:57:12.593750,15.47,77.05
254100,2018-06-29 10:57:12.625000,7.35,77.05
254101,2018-06-29 10:57:12.656250,-0.97,77.05
254102,2018-06-29 10:57:12.687500,-11.31,77.05
254103,2018-06-29 10:57:12.718750,-23.07,77.05
254104,2018-06-29 10:57:12.750000,-33.03,77.05
254105,2018-06-29 10:57:12.781250,-40.17,77.05
254106,2018-06-29 10:57:12.812500,-47.68,77.05
254107,2018-06-29 10:57:12.843750,-59.28,77.05
254108,2018-06-29 10:57:12.875000,-73.38,77.05
254109,2018-06-29 10:57:12.906250,-79.73,77.05
254110,2018-06-29 10:57:12.937500,-66.16,77.05
254111,2018-06-29 10:57:12.968750,-32.99,77.05
254112,2018-06-29 10:57:13.000000,4.71,77.05
254113,2018-06-29 10:57:13.031250,33.04,77.05
254114,2018-06-29 10:57:13.062500,49.64,77.05
254115,2018-06-29 10:57:13.093750,57.05,77.05
254116,2018-06-29 10:57:13.125000,56.88,77.05
254117,2018-06-29 10:57:13.156250,51.89,77.05
254118,2018-06-29 10:57:13.187500,46.11,77.05
254119,2018-06-29 10:57:13.218750,41.58,77.05
254120,2018-06-29 10:57:13.250000,38.15,77.05
254121,2018-06-29 10:57:13.281250,36.33,77.05
254122,2018-06-29 10:57:13.312500,36.95,77.05
254123,2018-06-29 10:57:13.343750,38.33,77.05
254124,2018-06-29 10:57:13.375000,36.86,77.05
254125,2018-06-29 10:57:13.406250,30.83,77.05
254126,2018-06-29 10:57:13.437500,22.08,77.05
254127,2018-06-29 10:57:13.468750,13.67,77.05
254128,2018-06-29 10:57:13.500000,6.49,77.05
254129,2018-06-29 10:57:13.531250,-1.71,76.77
254130,2018-06-29 10:57:13.562500,-12.75,76.77
254131,2018-06-29 10:57:13.593750,-24.36,76.77
254132,2018-06-29 10:57:13.625000,-32.59,76.77
254133,2018-06-29 10:57:13.656250,-37.5,76.77
254134,2018-06-29 10:57:13.687500,-43.46,76.77
254135,2018-06-29 10:57:13.718750,-53.91,76.77
254136,2018-06-29 10:57:13.750000,-66.76,76.77
254137,2018-06-29 10:57:13.781250,-73.08,76.77
254138,2018-06-29 10:57:13.812500,-62.27,76.77
254139,2018-06-29 10:57:13.843750,-33.22,76.77
254140,2018-06-29 10:57:13.875000,2.21,76.77
254141,2018-06-29 10:57:13.906250,30.38,76.77
254142,2018-06-29 10:57:13.937500,46.24,76.77
254143,2018-06-29 10:57:13.968750,51.15,76.77
254144,2018-06-29 10:57:14.000000,48.01,76.77
254145,2018-06-29 10:57:14.031250,41.65,76.77
254146,2018-06-29 10:57:14.062500,37.42,76.77
254147,2018-06-29 10:57:14.093750,36.48,76.77
254148,2018-06-29 10:57:14.125000,36.05,76.77
254149,2018-06-29 10:57:14.156250,34.71,76.77
254150,2018-06-29 10:57:14.187500,33.37,76.77
254151,2018-06-29 10:57:14.218750,31.32,76.77
254152,2018-06-29 10:57:14.250000,25.8,76.77
254153,2018-06-29 10:57:14.281250,16.56,76.77
254154,2018-06-29 10:57:14.312500,6.76,76.77
254155,2018-06-29 10:57:14.343750,-1.66,76.77
254156,2018-06-29 10:57:14.375000,-10.04,76.77
254157,2018-06-29 10:57:14.406250,-19.75,76.77
254158,2018-06-29 10:57:14.437500,-29.57,76.77
254159,2018-06-29 10:57:14.468750,-37.71,76.77
254160,2018-06-29 10:57:14.500000,-44.64,76.77
254161,2018-06-29 10:57:14.531250,-53.19,76.52
254162,2018-06-29 10:57:14.562500,-65.37,76.52
254163,2018-06-29 10:57:14.593750,-76.63,76.52
254164,2018-06-29 10:57:14.625000,-75.28,76.52
254165,2018-06-29 10:57:14.656250,-54.12,76.52
254166,2018-06-29 10:57:14.687500,-20.92,76.52
254167,2018-06-29 10:57:14.718750,9.56,76.52
254168,2018-06-29 10:57:14.750000,30.13,76.52
254169,2018-06-29 10:57:14.781250,41.24,76.52
254170,2018-06-29 10:57:14.812500,43.49,76.52
254171,2018-06-29 10:57:14.843750,38.47,76.52
254172,2018-06-29 10:57:14.875000,31.71,76.52
254173,2018-06-29 10:57:14.906250,28.29,76.52
254174,2018-06-29 10:57:14.937500,28.14,76.52
254175,2018-06-29 10:57:14.968750,28.23,76.52
254176,2018-06-29 10:57:15.000000,27.24,76.52
254177,2018-06-29 10:57:15.031250,26.09,76.52
254178,2018-06-29 10:57:15.062500,25.0,76.52
254179,2018-06-29 10:57:15.093750,22.23,76.52
254180,2018-06-29 10:57:15.125000,16.69,76.52
254181,2018-06-29 10:57:15.156250,10.07,76.52
254182,2018-06-29 10:57:15.187500,4.72,76.52
254183,2018-06-29 10:57:15.218750,0.23,76.52
254184,2018-06-29 10:57:15.250000,-5.93,76.52
254185,2018-06-29 10:57:15.281250,-14.59,76.52
254186,2018-06-29 10:57:15.312500,-23.71,76.52
254187,2018-06-29 10:57:15.343750,-31.27,76.52
254188,2018-06-29 10:57:15.375000,-37.99,76.52
254189,2018-06-29 10:57:15.406250,-46.5,76.52
254190,2018-06-29 10:57:15.437500,-58.52,76.52
254191,2018-06-29 10:57:15.468750,-70.34,76.52
254192,2018-06-29 10:57:15.500000,-71.01,76.52
254193,2018-06-29 10:57:15.531250,-51.76,76.28
254194,2018-06-29 10:57:15.562500,-18.17,76.28
254195,2018-06-29 10:57:15.593750,14.13,76.28
254196,2018-06-29 10:57:15.625000,35.45,76.28
254197,2018-06-29 10:57:15.656250,46.31,76.28
254198,2018-06-29 10:57:15.687500,49.37,76.28
254199,2018-06-29 10:57:15.718750,46.64,76.28
254200,2018-06-29 10:57:15.750000,41.87,76.28
254201,2018-06-29 10:57:15.781250,38.73,76.28
254202,2018-06-29 10:57:15.812500,37.12,76.28
254203,2018-06-29 10:57:15.843750,34.93,76.28
254204,2018-06-29 10:57:15.875000,32.02,76.28
254205,2018-06-29 10:57:15.906250,29.98,76.28
254206,2018-06-29 10:57:15.937500,28.52,76.28
254207,2018-06-29 10:57:15.968750,24.87,76.28
254208,2018-06-29 10:57:16.000000,17.51,76.28
254209,2018-06-29 10:57:16.031250,8.38,76.28
254210,2018-06-29 10:57:16.062500,0.07,76.28
254211,2018-06-29 10:57:16.093750,-7.69,76.28
254212,2018-06-29 10:57:16.125000,-17.07,76.28
254213,2018-06-29 10:57:16.156250,-28.57,76.28
254214,2018-06-29 10:57:16.187500,-39.59,76.28
254215,2018-06-29 10:57:16.218750,-47.14,76.28
254216,2018-06-29 10:57:16.250000,-51.34,76.28
254217,2018-06-29 10:57:16.281250,-55.81,76.28
254218,2018-06-29 10:57:16.312500,-63.81,76.28
254219,2018-06-29 10:57:16.343750,-72.99,76.28
254220,2018-06-29 10:57:16.375000,-74.1,76.28
254221,2018-06-29 10:57:16.406250,-58.19,76.28
254222,2018-06-29 10:57:16.437500,-27.28,76.28
254223,2018-06-29 10:57:16.468750,5.75,76.28
254224,2018-06-29 10:57:16.500000,29.41,76.28
254225,2018-06-29 10:57:16.531250,41.22,76.03
254226,2018-06-29 10:57:16.562500,43.98,76.03
254227,2018-06-29 10:57:16.593750,41.1,76.03
254228,2018-06-29 10:57:16.625000,36.45,76.03
254229,2018-06-29 10:57:16.656250,33.38,76.03
254230,2018-06-29 10:57:16.687500,32.67,76.03
254231,2018-06-29 10:57:16.718750,32.93,76.03
254232,2018-06-29 10:57:16.750000,33.07,76.03
254233,2018-06-29 10:57:16.781250,33.2,76.03
254234,2018-06-29 10:57:16.812500,32.57,76.03
254235,2018-06-29 10:57:16.843750,28.78,76.03
254236,2018-06-29 10:57:16.875000,21.01,76.03
254237,2018-06-29 10:57:16.906250,12.3,76.03
254238,2018-06-29 10:57:16.937500,5.43,76.03
254239,2018-06-29 10:57:16.968750,-1.18,76.03
254240,2018-06-29 10:57:17.000000,-10.08,76.03
254241,2018-06-29 10:57:17.031250,-19.68,76.03
254242,2018-06-29 10:57:17.062500,-26.66,76.03
254243,2018-06-29 10:57:17.093750,-31.2,76.03
254244,2018-06-29 10:57:17.125000,-36.71,76.03
254245,2018-06-29 10:57:17.156250,-45.82,76.03
254246,2018-06-29 10:57:17.187500,-56.03,76.03
254247,2018-06-29 10:57:17.218750,-57.73,76.03
254248,2018-06-29 10:57:17.250000,-41.74,76.03
254249,2018-06-29 10:57:17.281250,-11.66,76.03
254250,2018-06-29 10:57:17.312500,18.01,76.03
254251,2018-06-29 10:57:17.343750,37.25,76.03
254252,2018-06-29 10:57:17.375000,46.36,76.03
254253,2018-06-29 10:57:17.406250,48.18,76.03
254254,2018-06-29 10:57:17.437500,44.33,76.03
254255,2018-06-29 10:57:17.468750,38.12,76.03
254256,2018-06-29 10:57:17.500000,33.79,76.03
254257,2018-06-29 10:57:17.531250,32.51,75.82
254258,2018-06-29 10:57:17.562500,32.16,75.82
254259,2018-06-29 10:57:17.593750,30.77,75.82
254260,2018-06-29 10:57:17.625000,28.32,75.82
254261,2018-06-29 10:57:17.656250,25.17,75.82
254262,2018-06-29 10:57:17.687500,20.46,75.82
254263,2018-06-29 10:57:17.718750,13.32,75.82
254264,2018-06-29 10:57:17.750000,4.85,75.82
254265,2018-06-29 10:57:17.781250,-2.49,75.82
254266,2018-06-29 10:57:17.812500,-7.88,75.82
254267,2018-06-29 10:57:17.843750,-13.44,75.82
254268,2018-06-29 10:57:17.875000,-21.53,75.82
254269,2018-06-29 10:57:17.906250,-31.23,75.82
254270,2018-06-29 10:57:17.937500,-39.63,75.82
254271,2018-06-29 10:57:17.968750,-46.12,75.82
254272,2018-06-29 10:57:18.000000,-53.19,75.82
254273,2018-06-29 10:57:18.031250,-63.56,75.82
254274,2018-06-29 10:57:18.062500,-77.52,75.82
254275,2018-06-29 10:57:18.093750,-88.97,75.82
254276,2018-06-29 10:57:18.125000,-86.09,75.82
254277,2018-06-29 10:57:18.156250,-63.04,75.82
254278,2018-06-29 10:57:18.187500,-28.75,75.82
254279,2018-06-29 10:57:18.218750,2.49,75.82
254280,2018-06-29 10:57:18.250000,24.14,75.82
254281,2018-06-29 10:57:18.281250,36.5,75.82
254282,2018-06-29 10:57:18.312500,40.73,75.82
254283,2018-06-29 10:57:18.343750,39.56,75.82
254284,2018-06-29 10:57:18.375000,38.04,75.82
254285,2018-06-29 10:57:18.406250,38.83,75.82
254286,2018-06-29 10:57:18.437500,40.14,75.82
254287,2018-06-29 10:57:18.468750,40.3,75.82
254288,2018-06-29 10:57:18.500000,40.14,75.82
254289,2018-06-29 10:57:18.531250,39.53,75.57
254290,2018-06-29 10:57:18.562500,36.27,75.57
254291,2018-06-29 10:57:18.593750,29.83,75.57
254292,2018-06-29 10:57:18.625000,22.17,75.57
254293,2018-06-29 10:57:18.656250,14.82,75.57
254294,2018-06-29 10:57:18.687500,7.59,75.57
254295,2018-06-29 10:57:18.718750,-0.17,75.57
254296,2018-06-29 10:57:18.750000,-7.96,75.57
254297,2018-06-29 10:57:18.781250,-14.53,75.57
254298,2018-06-29 10:57:18.812500,-20.24,75.57
254299,2018-06-29 10:57:18.843750,-26.95,75.57
254300,2018-06-29 10:57:18.875000,-34.5,75.57
254301,2018-06-29 10:57:18.906250,-40.51,75.57
254302,2018-06-29 10:57:18.937500,-44.93,75.57
254303,2018-06-29 10:57:18.968750,-51.3,75.57
254304,2018-06-29 10:57:19.000000,-62.16,75.57
254305,2018-06-29 10:57:19.031250,-73.63,75.57
254306,2018-06-29 10:57:19.062500,-74.94,75.57
254307,2018-06-29 10:57:19.093750,-57.13,75.57
254308,2018-06-29 10:57:19.125000,-24.0,75.57
254309,2018-06-29 10:57:19.156250,9.89,75.57
254310,2018-06-29 10:57:19.187500,32.89,75.57
254311,2018-06-29 10:57:19.218750,43.73,75.57
254312,2018-06-29 10:57:19.250000,46.2,75.57
254313,2018-06-29 10:57:19.281250,43.41,75.57
254314,2018-06-29 10:57:19.312500,38.56,75.57
254315,2018-06-29 10:57:19.343750,35.32,75.57
254316,2018-06-29 10:57:19.375000,35.17,75.57
254317,2018-06-29 10:57:19.406250,36.5,75.57
254318,2018-06-29 10:57:19.437500,37.18,75.57
254319,2018-06-29 10:57:19.468750,36.31,75.57
254320,2018-06-29 10:57:19.500000,33.92,75.57
254321,2018-06-29 10:57:19.531250,29.63,75.35
254322,2018-06-29 10:57:19.562500,22.48,75.35
254323,2018-06-29 10:57:19.593750,13.22,75.35
254324,2018-06-29 10:57:19.625000,4.82,75.35
254325,2018-06-29 10:57:19.656250,-1.38,75.35
254326,2018-06-29 10:57:19.687500,-7.73,75.35
254327,2018-06-29 10:57:19.718750,-16.29,75.35
254328,2018-06-29 10:57:19.750000,-25.47,75.35
254329,2018-06-29 10:57:19.781250,-32.92,75.35
254330,2018-06-29 10:57:19.812500,-39.3,75.35
254331,2018-06-29 10:57:19.843750,-48.04,75.35
254332,2018-06-29 10:57:19.875000,-61.77,75.35
254333,2018-06-29 10:57:19.906250,-77.87,75.35
254334,2018-06-29 10:57:19.937500,-86.62,75.35
254335,2018-06-29 10:57:19.968750,-77.11,75.35
254336,2018-06-29 10:57:20.000000,-48.16,75.35
254337,2018-06-29 10:57:20.031250,-11.09,75.35
254338,2018-06-29 10:57:20.062500,20.45,75.35
254339,2018-06-29 10:57:20.093750,40.39,75.35
254340,2018-06-29 10:57:20.125000,49.89,75.35
254341,2018-06-29 10:57:20.156250,52.04,75.35
254342,2018-06-29 10:57:20.187500,49.88,75.35
254343,2018-06-29 10:57:20.218750,46.66,75.35
254344,2018-06-29 10:57:20.250000,44.75,75.35
254345,2018-06-29 10:57:20.281250,44.2,75.35
254346,2018-06-29 10:57:20.312500,43.74,75.35
254347,2018-06-29 10:57:20.343750,42.75,75.35
254348,2018-06-29 10:57:20.375000,40.79,75.35
254349,2018-06-29 10:57:20.406250,36.55,75.35
254350,2018-06-29 10:57:20.437500,29.58,75.35
254351,2018-06-29 10:57:20.468750,21.8,75.35
254352,2018-06-29 10:57:20.500000,14.72,75.35
254353,2018-06-29 10:57:20.531250,7.29,75.12
254354,2018-06-29 10:57:20.562500,-1.06,75.12
254355,2018-06-29 10:57:20.593750,-8.36,75.12
254356,2018-06-29 10:57:20.625000,-14.06,75.12
254357,2018-06-29 10:57:20.656250,-20.94,75.12
254358,2018-06-29 10:57:20.687500,-30.4,75.12
254359,2018-06-29 10:57:20.718750,-39.91,75.12
254360,2018-06-29 10:57:20.750000,-47.3,75.12
254361,2018-06-29 10:57:20.781250,-54.19,75.12
254362,2018-06-29 10:57:20.812500,-64.11,75.12
254363,2018-06-29 10:57:20.843750,-77.92,75.12
254364,2018-06-29 10:57:20.875000,-88.71,75.12
254365,2018-06-29 10:57:20.906250,-83.7,75.12
254366,2018-06-29 10:57:20.937500,-57.52,75.12
254367,2018-06-29 10:57:20.968750,-20.52,75.12
254368,2018-06-29 10:57:21.000000,12.06,75.12
254369,2018-06-29 10:57:21.031250,33.57,75.12
254370,2018-06-29 10:57:21.062500,44.72,75.12
254371,2018-06-29 10:57:21.093750,47.74,75.12
254372,2018-06-29 10:57:21.125000,46.13,75.12
254373,2018-06-29 10:57:21.156250,44.02,75.12
254374,2018-06-29 10:57:21.187500,43.01,75.12
254375,2018-06-29 10:57:21.218750,42.62,75.12
254376,2018-06-29 10:57:21.250000,42.64,75.12
254377,2018-06-29 10:57:21.281250,42.85,75.12
254378,2018-06-29 10:57:21.312500,42.1,75.12
254379,2018-06-29 10:57:21.343750,39.21,75.12
254380,2018-06-29 10:57:21.375000,34.18,75.12
254381,2018-06-29 10:57:21.406250,27.84,75.12
254382,2018-06-29 10:57:21.437500,20.85,75.12
254383,2018-06-29 10:57:21.468750,13.02,75.12
254384,2018-06-29 10:57:21.500000,4.31,75.12
254385,2018-06-29 10:57:21.531250,-4.12,74.87
254386,2018-06-29 10:57:21.562500,-11.17,74.87
254387,2018-06-29 10:57:21.593750,-17.83,74.87
254388,2018-06-29 10:57:21.625000,-25.47,74.87
254389,2018-06-29 10:57:21.656250,-33.25,74.87
254390,2018-06-29 10:57:21.687500,-39.38,74.87
254391,2018-06-29 10:57:21.718750,-44.24,74.87
254392,2018-06-29 10:57:21.750000,-50.68,74.87
254393,2018-06-29 10:57:21.781250,-61.21,74.87
254394,2018-06-29 10:57:21.812500,-72.32,74.87
254395,2018-06-29 10:57:21.843750,-72.16,74.87
254396,2018-06-29 10:57:21.875000,-51.2,74.87
254397,2018-06-29 10:57:21.906250,-15.54,74.87
254398,2018-06-29 10:57:21.937500,18.38,74.87
254399,2018-06-29 10:57:21.968750,40.37,74.87
254400,2018-06-29 10:57:22.000000,50.4,74.87
254401,2018-06-29 10:57:22.031250,51.18,74.87
254402,2018-06-29 10:57:22.062500,45.76,74.87
254403,2018-06-29 10:57:22.093750,39.32,74.87
254404,2018-06-29 10:57:22.125000,36.46,74.87
254405,2018-06-29 10:57:22.156250,37.24,74.87
254406,2018-06-29 10:57:22.187500,38.42,74.87
254407,2018-06-29 10:57:22.218750,38.16,74.87
254408,2018-06-29 10:57:22.250000,37.25,74.87
254409,2018-06-29 10:57:22.281250,35.77,74.87
254410,2018-06-29 10:57:22.312500,31.51,74.87
254411,2018-06-29 10:57:22.343750,23.0,74.87
254412,2018-06-29 10:57:22.375000,11.97,74.87
254413,2018-06-29 10:57:22.406250,1.45,74.87
254414,2018-06-29 10:57:22.437500,-7.86,74.87
254415,2018-06-29 10:57:22.468750,-17.7,74.87
254416,2018-06-29 10:57:22.500000,-28.78,74.87
254417,2018-06-29 10:57:22.531250,-38.94,74.58
254418,2018-06-29 10:57:22.562500,-46.08,74.58
254419,2018-06-29 10:57:22.593750,-51.45,74.58
254420,2018-06-29 10:57:22.625000,-58.46,74.58
254421,2018-06-29 10:57:22.656250,-69.74,74.58
254422,2018-06-29 10:57:22.687500,-83.1,74.58
254423,2018-06-29 10:57:22.718750,-87.91,74.58
254424,2018-06-29 10:57:22.750000,-71.91,74.58
254425,2018-06-29 10:57:22.781250,-36.26,74.58
254426,2018-06-29 10:57:22.812500,3.15,74.58
254427,2018-06-29 10:57:22.843750,32.32,74.58
254428,2018-06-29 10:57:22.875000,49.05,74.58
254429,2018-06-29 10:57:22.906250,56.27,74.58
254430,2018-06-29 10:57:22.937500,56.02,74.58
254431,2018-06-29 10:57:22.968750,51.65,74.58
254432,2018-06-29 10:57:23.000000,47.64,74.58
254433,2018-06-29 10:57:23.031250,45.62,74.58
254434,2018-06-29 10:57:23.062500,44.14,74.58
254435,2018-06-29 10:57:23.093750,42.25,74.58
254436,2018-06-29 10:57:23.125000,40.47,74.58
254437,2018-06-29 10:57:23.156250,38.82,74.58
254438,2018-06-29 10:57:23.187500,35.64,74.58
254439,2018-06-29 10:57:23.218750,28.97,74.58
254440,2018-06-29 10:57:23.250000,19.22,74.58
254441,2018-06-29 10:57:23.281250,9.23,74.58
254442,2018-06-29 10:57:23.312500,0.41,74.58
254443,2018-06-29 10:57:23.343750,-9.28,74.58
254444,2018-06-29 10:57:23.375000,-21.54,74.58
254445,2018-06-29 10:57:23.406250,-34.37,74.58
254446,2018-06-29 10:57:23.437500,-44.53,74.58
254447,2018-06-29 10:57:23.468750,-51.75,74.58
254448,2018-06-29 10:57:23.500000,-58.6,74.58
254449,2018-06-29 10:57:23.531250,-68.36,74.27
254450,2018-06-29 10:57:23.562500,-81.6,74.27
254451,2018-06-29 10:57:23.593750,-90.61,74.27
254452,2018-06-29 10:57:23.625000,-81.54,74.27
254453,2018-06-29 10:57:23.656250,-50.18,74.27
254454,2018-06-29 10:57:23.687500,-9.99,74.27
254455,2018-06-29 10:57:23.718750,22.39,74.27
254456,2018-06-29 10:57:23.750000,42.52,74.27
254457,2018-06-29 10:57:23.781250,53.66,74.27
254458,2018-06-29 10:57:23.812500,57.39,74.27
254459,2018-06-29 10:57:23.843750,54.95,74.27
254460,2018-06-29 10:57:23.875000,50.77,74.27
254461,2018-06-29 10:57:23.906250,48.87,74.27
254462,2018-06-29 10:57:23.937500,48.75,74.27
254463,2018-06-29 10:57:23.968750,47.96,74.27
254464,2018-06-29 10:57:24.000000,46.38,74.27
254465,2018-06-29 10:57:24.031250,45.0,74.27
254466,2018-06-29 10:57:24.062500,42.34,74.27
254467,2018-06-29 10:57:24.093750,35.99,74.27
254468,2018-06-29 10:57:24.125000,26.41,74.27
254469,2018-06-29 10:57:24.156250,16.52,74.27
254470,2018-06-29 10:57:24.187500,8.1,74.27
254471,2018-06-29 10:57:24.218750,0.17,74.27
254472,2018-06-29 10:57:24.250000,-9.37,74.27
254473,2018-06-29 10:57:24.281250,-20.77,74.27
254474,2018-06-29 10:57:24.312500,-31.37,74.27
254475,2018-06-29 10:57:24.343750,-38.62,74.27
254476,2018-06-29 10:57:24.375000,-43.83,74.27
254477,2018-06-29 10:57:24.406250,-50.92,74.27
254478,2018-06-29 10:57:24.437500,-62.38,74.27
254479,2018-06-29 10:57:24.468750,-75.22,74.27
254480,2018-06-29 10:57:24.500000,-78.93,74.27
254481,2018-06-29 10:57:24.531250,-62.78,74.0
254482,2018-06-29 10:57:24.562500,-29.12,74.0
254483,2018-06-29 10:57:24.593750,6.56,74.0
254484,2018-06-29 10:57:24.625000,31.77,74.0
254485,2018-06-29 10:57:24.656250,45.35,74.0
254486,2018-06-29 10:57:24.687500,50.09,74.0
254487,2018-06-29 10:57:24.718750,47.68,74.0
254488,2018-06-29 10:57:24.750000,41.84,74.0
254489,2018-06-29 10:57:24.781250,37.8,74.0
254490,2018-06-29 10:57:24.812500,37.07,74.0
254491,2018-06-29 10:57:24.843750,37.42,74.0
254492,2018-06-29 10:57:24.875000,37.56,74.0
254493,2018-06-29 10:57:24.906250,37.87,74.0
254494,2018-06-29 10:57:24.937500,37.17,74.0
254495,2018-06-29 10:57:24.968750,32.4,74.0
254496,2018-06-29 10:57:25.000000,22.8,74.0
254497,2018-06-29 10:57:25.031250,11.52,74.0
254498,2018-06-29 10:57:25.062500,1.32,74.0
254499,2018-06-29 10:57:25.093750,-9.16,74.0
254500,2018-06-29 10:57:25.125000,-21.97,74.0
254501,2018-06-29 10:57:25.156250,-35.24,74.0
254502,2018-06-29 10:57:25.187500,-45.51,74.0
254503,2018-06-29 10:57:25.218750,-52.73,74.0
254504,2018-06-29 10:57:25.250000,-60.24,74.0
254505,2018-06-29 10:57:25.281250,-71.35,74.0
254506,2018-06-29 10:57:25.312500,-84.94,74.0
254507,2018-06-29 10:57:25.343750,-91.23,74.0
254508,2018-06-29 10:57:25.375000,-77.72,74.0
254509,2018-06-29 10:57:25.406250,-44.52,74.0
254510,2018-06-29 10:57:25.437500,-6.49,74.0
254511,2018-06-29 10:57:25.468750,22.6,74.0
254512,2018-06-29 10:57:25.500000,40.06,74.0
254513,2018-06-29 10:57:25.531250,48.07,73.75
254514,2018-06-29 10:57:25.562500,48.34,73.75
254515,2018-06-29 10:57:25.593750,44.42,73.75
254516,2018-06-29 10:57:25.625000,41.45,73.75
254517,2018-06-29 10:57:25.656250,41.48,73.75
254518,2018-06-29 10:57:25.687500,42.58,73.75
254519,2018-06-29 10:57:25.718750,42.9,73.75
254520,2018-06-29 10:57:25.750000,42.64,73.75
254521,2018-06-29 10:57:25.781250,41.66,73.75
254522,2018-06-29 10:57:25.812500,38.38,73.75
254523,2018-06-29 10:57:25.843750,31.34,73.75
254524,2018-06-29 10:57:25.875000,21.35,73.75
254525,2018-06-29 10:57:25.906250,11.16,73.75
254526,2018-06-29 10:57:25.937500,2.44,73.75
254527,2018-06-29 10:57:25.968750,-6.85,73.75
254528,2018-06-29 10:57:26.000000,-19.05,73.75
254529,2018-06-29 10:57:26.031250,-32.06,73.75
254530,2018-06-29 10:57:26.062500,-42.1,73.75
254531,2018-06-29 10:57:26.093750,-49.37,73.75
254532,2018-06-29 10:57:26.125000,-57.01,73.75
254533,2018-06-29 10:57:26.156250,-67.06,73.75
254534,2018-06-29 10:57:26.187500,-79.5,73.75
254535,2018-06-29 10:57:26.218750,-88.64,73.75
254536,2018-06-29 10:57:26.250000,-82.11,73.75
254537,2018-06-29 10:57:26.281250,-53.71,73.75
254538,2018-06-29 10:57:26.312500,-14.36,73.75
254539,2018-06-29 10:57:26.343750,18.93,73.75
254540,2018-06-29 10:57:26.375000,39.83,73.75
254541,2018-06-29 10:57:26.406250,51.12,73.75
254542,2018-06-29 10:57:26.437500,55.04,73.75
254543,2018-06-29 10:57:26.468750,53.35,73.75
254544,2018-06-29 10:57:26.500000,50.44,73.75
254545,2018-06-29 10:57:26.531250,49.72,73.55
254546,2018-06-29 10:57:26.562500,50.23,73.55
254547,2018-06-29 10:57:26.593750,50.18,73.55
254548,2018-06-29 10:57:26.625000,50.04,73.55
254549,2018-06-29 10:57:26.656250,49.56,73.55
254550,2018-06-29 10:57:26.687500,46.35,73.55
254551,2018-06-29 10:57:26.718750,39.27,73.55
254552,2018-06-29 10:57:26.750000,30.15,73.55
254553,2018-06-29 10:57:26.781250,20.89,73.55
254554,2018-06-29 10:57:26.812500,11.1,73.55
254555,2018-06-29 10:57:26.843750,0.08,73.55
254556,2018-06-29 10:57:26.875000,-11.08,73.55
254557,2018-06-29 10:57:26.906250,-21.09,73.55
254558,2018-06-29 10:57:26.937500,-30.56,73.55
254559,2018-06-29 10:57:26.968750,-40.05,73.55
254560,2018-06-29 10:57:27.000000,-47.91,73.55
254561,2018-06-29 10:57:27.031250,-53.32,73.55
254562,2018-06-29 10:57:27.062500,-58.88,73.55
254563,2018-06-29 10:57:27.093750,-67.7,73.55
254564,2018-06-29 10:57:27.125000,-79.14,73.55
254565,2018-06-29 10:57:27.156250,-86.2,73.55
254566,2018-06-29 10:57:27.187500,-77.5,73.55
254567,2018-06-29 10:57:27.218750,-47.8,73.55
254568,2018-06-29 10:57:27.250000,-7.01,73.55
254569,2018-06-29 10:57:27.281250,27.97,73.55
254570,2018-06-29 10:57:27.312500,48.89,73.55
254571,2018-06-29 10:57:27.343750,57.61,73.55
254572,2018-06-29 10:57:27.375000,57.74,73.55
254573,2018-06-29 10:57:27.406250,52.84,73.55
254574,2018-06-29 10:57:27.437500,48.09,73.55
254575,2018-06-29 10:57:27.468750,46.84,73.55
254576,2018-06-29 10:57:27.500000,47.51,73.55
254577,2018-06-29 10:57:27.531250,46.86,73.33
254578,2018-06-29 10:57:27.562500,43.87,73.33
254579,2018-06-29 10:57:27.593750,38.94,73.33
254580,2018-06-29 10:57:27.625000,31.95,73.33
254581,2018-06-29 10:57:27.656250,22.68,73.33
254582,2018-06-29 10:57:27.687500,11.84,73.33
254583,2018-06-29 10:57:27.718750,1.13,73.33
254584,2018-06-29 10:57:27.750000,-7.75,73.33
254585,2018-06-29 10:57:27.781250,-14.71,73.33
254586,2018-06-29 10:57:27.812500,-21.76,73.33
254587,2018-06-29 10:57:27.843750,-30.52,73.33
254588,2018-06-29 10:57:27.875000,-39.75,73.33
254589,2018-06-29 10:57:27.906250,-47.08,73.33
254590,2018-06-29 10:57:27.937500,-52.51,73.33
254591,2018-06-29 10:57:27.968750,-58.95,73.33
254592,2018-06-29 10:57:28.000000,-69.95,73.33
254593,2018-06-29 10:57:28.031250,-84.93,73.33
254594,2018-06-29 10:57:28.062500,-93.8,73.33
254595,2018-06-29 10:57:28.093750,-81.84,73.33
254596,2018-06-29 10:57:28.125000,-46.19,73.33
254597,2018-06-29 10:57:28.156250,-1.76,73.33
254598,2018-06-29 10:57:28.187500,34.02,73.33
254599,2018-06-29 10:57:28.218750,55.4,73.33
254600,2018-06-29 10:57:28.250000,65.08,73.33
254601,2018-06-29 10:57:28.281250,66.27,73.33
254602,2018-06-29 10:57:28.312500,62.3,73.33
254603,2018-06-29 10:57:28.343750,57.29,73.33
254604,2018-06-29 10:57:28.375000,53.5,73.33
254605,2018-06-29 10:57:28.406250,50.58,73.33
254606,2018-06-29 10:57:28.437500,47.72,73.33
254607,2018-06-29 10:57:28.468750,45.03,73.33
254608,2018-06-29 10:57:28.500000,42.02,73.33
254609,2018-06-29 10:57:28.531250,37.13,73.13
254610,2018-06-29 10:57:28.562500,29.73,73.13
254611,2018-06-29 10:57:28.593750,20.98,73.13
254612,2018-06-29 10:57:28.625000,11.93,73.13
254613,2018-06-29 10:57:28.656250,2.87,73.13
254614,2018-06-29 10:57:28.687500,-5.36,73.13
254615,2018-06-29 10:57:28.718750,-12.32,73.13
254616,2018-06-29 10:57:28.750000,-19.92,73.13
254617,2018-06-29 10:57:28.781250,-29.86,73.13
254618,2018-06-29 10:57:28.812500,-40.43,73.13
254619,2018-06-29 10:57:28.843750,-48.7,73.13
254620,2018-06-29 10:57:28.875000,-55.05,73.13
254621,2018-06-29 10:57:28.906250,-62.89,73.13
254622,2018-06-29 10:57:28.937500,-75.0,73.13
254623,2018-06-29 10:57:28.968750,-89.27,73.13
254624,2018-06-29 10:57:29.000000,-95.18,73.13
254625,2018-06-29 10:57:29.031250,-79.33,73.13
254626,2018-06-29 10:57:29.062500,-40.46,73.13
254627,2018-06-29 10:57:29.093750,5.91,73.13
254628,2018-06-29 10:57:29.125000,42.23,73.13
254629,2018-06-29 10:57:29.156250,62.59,73.13
254630,2018-06-29 10:57:29.187500,69.97,73.13
254631,2018-06-29 10:57:29.218750,68.68,73.13
254632,2018-06-29 10:57:29.250000,63.09,73.13
254633,2018-06-29 10:57:29.281250,57.33,73.13
254634,2018-06-29 10:57:29.312500,52.64,73.13
254635,2018-06-29 10:57:29.343750,47.95,73.13
254636,2018-06-29 10:57:29.375000,43.83,73.13
254637,2018-06-29 10:57:29.406250,41.77,73.13
254638,2018-06-29 10:57:29.437500,40.0,73.13
254639,2018-06-29 10:57:29.468750,35.4,73.13
254640,2018-06-29 10:57:29.500000,28.26,73.13
254641,2018-06-29 10:57:29.531250,20.98,72.98
254642,2018-06-29 10:57:29.562500,13.68,72.98
254643,2018-06-29 10:57:29.593750,5.16,72.98
254644,2018-06-29 10:57:29.625000,-3.9,72.98
254645,2018-06-29 10:57:29.656250,-11.44,72.98
254646,2018-06-29 10:57:29.687500,-17.23,72.98
254647,2018-06-29 10:57:29.718750,-23.68,72.98
254648,2018-06-29 10:57:29.750000,-32.32,72.98
254649,2018-06-29 10:57:29.781250,-41.17,72.98
254650,2018-06-29 10:57:29.812500,-47.66,72.98
254651,2018-06-29 10:57:29.843750,-52.95,72.98
254652,2018-06-29 10:57:29.875000,-61.01,72.98
254653,2018-06-29 10:57:29.906250,-73.67,72.98
254654,2018-06-29 10:57:29.937500,-84.39,72.98
254655,2018-06-29 10:57:29.968750,-78.49,72.98
254656,2018-06-29 10:57:30.000000,-47.77,72.98
254657,2018-06-29 10:57:30.031250,-3.5,72.98
254658,2018-06-29 10:57:30.062500,34.1,72.98
254659,2018-06-29 10:57:30.093750,55.41,72.98
254660,2018-06-29 10:57:30.125000,62.68,72.98
254661,2018-06-29 10:57:30.156250,60.14,72.98
254662,2018-06-29 10:57:30.187500,51.96,72.98
254663,2018-06-29 10:57:30.218750,43.77,72.98
254664,2018-06-29 10:57:30.250000,39.55,72.98
254665,2018-06-29 10:57:30.281250,38.96,72.98
254666,2018-06-29 10:57:30.312500,39.3,72.98
254667,2018-06-29 10:57:30.343750,38.76,72.98
254668,2018-06-29 10:57:30.375000,36.93,72.98
254669,2018-06-29 10:57:30.406250,33.16,72.98
254670,2018-06-29 10:57:30.437500,26.04,72.98
254671,2018-06-29 10:57:30.468750,15.55,72.98
254672,2018-06-29 10:57:30.500000,4.21,72.98
254673,2018-06-29 10:57:30.531250,-5.22,72.88
254674,2018-06-29 10:57:30.562500,-12.59,72.88
254675,2018-06-29 10:57:30.593750,-20.09,72.88
254676,2018-06-29 10:57:30.625000,-29.16,72.88
254677,2018-06-29 10:57:30.656250,-38.82,72.88
254678,2018-06-29 10:57:30.687500,-47.19,72.88
254679,2018-06-29 10:57:30.718750,-54.11,72.88
254680,2018-06-29 10:57:30.750000,-61.67,72.88
254681,2018-06-29 10:57:30.781250,-72.87,72.88
254682,2018-06-29 10:57:30.812500,-87.15,72.88
254683,2018-06-29 10:57:30.843750,-94.64,72.88
254684,2018-06-29 10:57:30.875000,-81.05,72.88
254685,2018-06-29 10:57:30.906250,-44.52,72.88
254686,2018-06-29 10:57:30.937500,-0.72,72.88
254687,2018-06-29 10:57:30.968750,33.62,72.88
254688,2018-06-29 10:57:31.000000,53.86,72.88
254689,2018-06-29 10:57:31.031250,62.68,72.88
254690,2018-06-29 10:57:31.062500,63.05,72.88
254691,2018-06-29 10:57:31.093750,58.4,72.88
254692,2018-06-29 10:57:31.125000,53.15,72.88
254693,2018-06-29 10:57:31.156250,50.09,72.88
254694,2018-06-29 10:57:31.187500,48.55,72.88
254695,2018-06-29 10:57:31.218750,46.32,72.88
254696,2018-06-29 10:57:31.250000,43.02,72.88
254697,2018-06-29 10:57:31.281250,39.44,72.88
254698,2018-06-29 10:57:31.312500,34.75,72.88
254699,2018-06-29 10:57:31.343750,27.05,72.88
254700,2018-06-29 10:57:31.375000,16.07,72.88
254701,2018-06-29 10:57:31.406250,4.08,72.88
254702,2018-06-29 10:57:31.437500,-5.83,72.88
254703,2018-06-29 10:57:31.468750,-12.99,72.88
254704,2018-06-29 10:57:31.500000,-20.32,72.88
254705,2018-06-29 10:57:31.531250,-30.35,72.78
254706,2018-06-29 10:57:31.562500,-40.9,72.78
254707,2018-06-29 10:57:31.593750,-48.52,72.78
254708,2018-06-29 10:57:31.625000,-54.14,72.78
254709,2018-06-29 10:57:31.656250,-61.89,72.78
254710,2018-06-29 10:57:31.687500,-74.45,72.78
254711,2018-06-29 10:57:31.718750,-88.82,72.78
254712,2018-06-29 10:57:31.750000,-93.27,72.78
254713,2018-06-29 10:57:31.781250,-74.48,72.78
254714,2018-06-29 10:57:31.812500,-34.17,72.78
254715,2018-06-29 10:57:31.843750,9.55,72.78
254716,2018-06-29 10:57:31.875000,40.93,72.78
254717,2018-06-29 10:57:31.906250,57.74,72.78
254718,2018-06-29 10:57:31.937500,63.8,72.78
254719,2018-06-29 10:57:31.968750,62.06,72.78
254720,2018-06-29 10:57:32.000000,56.12,72.78
254721,2018-06-29 10:57:32.031250,50.48,72.78
254722,2018-06-29 10:57:32.062500,47.26,72.78
254723,2018-06-29 10:57:32.093750,45.39,72.78
254724,2018-06-29 10:57:32.125000,43.47,72.78
254725,2018-06-29 10:57:32.156250,41.27,72.78
254726,2018-06-29 10:57:32.187500,38.53,72.78
254727,2018-06-29 10:57:32.218750,34.3,72.78
254728,2018-06-29 10:57:32.250000,27.9,72.78
254729,2018-06-29 10:57:32.281250,19.22,72.78
254730,2018-06-29 10:57:32.312500,9.11,72.78
254731,2018-06-29 10:57:32.343750,-0.6,72.78
254732,2018-06-29 10:57:32.375000,-8.8,72.78
254733,2018-06-29 10:57:32.406250,-16.04,72.78
254734,2018-06-29 10:57:32.437500,-23.77,72.78
254735,2018-06-29 10:57:32.468750,-32.59,72.78
254736,2018-06-29 10:57:32.500000,-41.18,72.78
254737,2018-06-29 10:57:32.531250,-47.79,72.67
254738,2018-06-29 10:57:32.562500,-53.73,72.67
254739,2018-06-29 10:57:32.593750,-63.01,72.67
254740,2018-06-29 10:57:32.625000,-76.25,72.67
254741,2018-06-29 10:57:32.656250,-84.94,72.67
254742,2018-06-29 10:57:32.687500,-75.58,72.67
254743,2018-06-29 10:57:32.718750,-44.19,72.67
254744,2018-06-29 10:57:32.750000,-3.38,72.67
254745,2018-06-29 10:57:32.781250,29.98,72.67
254746,2018-06-29 10:57:32.812500,49.15,72.67
254747,2018-06-29 10:57:32.843750,55.87,72.67
254748,2018-06-29 10:57:32.875000,52.99,72.67
254749,2018-06-29 10:57:32.906250,44.69,72.67
254750,2018-06-29 10:57:32.937500,36.98,72.67
254751,2018-06-29 10:57:32.968750,33.26,72.67
254752,2018-06-29 10:57:33.000000,32.11,72.67
254753,2018-06-29 10:57:33.031250,31.28,72.67
254754,2018-06-29 10:57:33.062500,30.77,72.67
254755,2018-06-29 10:57:33.093750,30.3,72.67
254756,2018-06-29 10:57:33.125000,27.07,72.67
254757,2018-06-29 10:57:33.156250,18.96,72.67
254758,2018-06-29 10:57:33.187500,8.42,72.67
254759,2018-06-29 10:57:33.218750,-0.18,72.67
254760,2018-06-29 10:57:33.250000,-6.8,72.67
254761,2018-06-29 10:57:33.281250,-15.15,72.67
254762,2018-06-29 10:57:33.312500,-25.95,72.67
254763,2018-06-29 10:57:33.343750,-35.74,72.67
254764,2018-06-29 10:57:33.375000,-42.66,72.67
254765,2018-06-29 10:57:33.406250,-48.95,72.67
254766,2018-06-29 10:57:33.437500,-58.03,72.67
254767,2018-06-29 10:57:33.468750,-70.91,72.67
254768,2018-06-29 10:57:33.500000,-81.48,72.67
254769,2018-06-29 10:57:33.531250,-76.48,72.53
254770,2018-06-29 10:57:33.562500,-48.87,72.53
254771,2018-06-29 10:57:33.593750,-8.8,72.53
254772,2018-06-29 10:57:33.625000,26.26,72.53
254773,2018-06-29 10:57:33.656250,47.86,72.53
254774,2018-06-29 10:57:33.687500,57.19,72.53
254775,2018-06-29 10:57:33.718750,57.29,72.53
254776,2018-06-29 10:57:33.750000,51.7,72.53
254777,2018-06-29 10:57:33.781250,45.39,72.53
254778,2018-06-29 10:57:33.812500,41.67,72.53
254779,2018-06-29 10:57:33.843750,40.19,72.53
254780,2018-06-29 10:57:33.875000,39.29,72.53
254781,2018-06-29 10:57:33.906250,38.01,72.53
254782,2018-06-29 10:57:33.937500,35.92,72.53
254783,2018-06-29 10:57:33.968750,32.72,72.53
254784,2018-06-29 10:57:34.000000,27.62,72.53
254785,2018-06-29 10:57:34.031250,19.52,72.53
254786,2018-06-29 10:57:34.062500,8.89,72.53
254787,2018-06-29 10:57:34.093750,-1.06,72.53
254788,2018-06-29 10:57:34.125000,-8.04,72.53
254789,2018-06-29 10:57:34.156250,-14.07,72.53
254790,2018-06-29 10:57:34.187500,-22.31,72.53
254791,2018-06-29 10:57:34.218750,-32.18,72.53
254792,2018-06-29 10:57:34.250000,-41.02,72.53
254793,2018-06-29 10:57:34.281250,-48.54,72.53
254794,2018-06-29 10:57:34.312500,-56.59,72.53
254795,2018-06-29 10:57:34.343750,-67.39,72.53
254796,2018-06-29 10:57:34.375000,-81.61,72.53
254797,2018-06-29 10:57:34.406250,-92.55,72.53
254798,2018-06-29 10:57:34.437500,-85.92,72.53
254799,2018-06-29 10:57:34.468750,-55.28,72.53
254800,2018-06-29 10:57:34.500000,-13.18,72.53
254801,2018-06-29 10:57:34.531250,21.85,72.47
254802,2018-06-29 10:57:34.562500,43.29,72.47
254803,2018-06-29 10:57:34.593750,54.34,72.47
254804,2018-06-29 10:57:34.625000,57.82,72.47
254805,2018-06-29 10:57:34.656250,55.92,72.47
254806,2018-06-29 10:57:34.687500,52.21,72.47
254807,2018-06-29 10:57:34.718750,49.12,72.47
254808,2018-06-29 10:57:34.750000,46.66,72.47
254809,2018-06-29 10:57:34.781250,44.49,72.47
254810,2018-06-29 10:57:34.812500,42.82,72.47
254811,2018-06-29 10:57:34.843750,41.02,72.47
254812,2018-06-29 10:57:34.875000,37.73,72.47
254813,2018-06-29 10:57:34.906250,32.8,72.47
254814,2018-06-29 10:57:34.937500,27.54,72.47
254815,2018-06-29 10:57:34.968750,22.16,72.47
254816,2018-06-29 10:57:35.000000,15.68,72.47
254817,2018-06-29 10:57:35.031250,9.11,72.47
254818,2018-06-29 10:57:35.062500,4.81,72.47
254819,2018-06-29 10:57:35.093750,2.37,72.47
254820,2018-06-29 10:57:35.125000,-1.37,72.47
254821,2018-06-29 10:57:35.156250,-7.76,72.47
254822,2018-06-29 10:57:35.187500,-15.09,72.47
254823,2018-06-29 10:57:35.218750,-21.91,72.47
254824,2018-06-29 10:57:35.250000,-29.23,72.47
254825,2018-06-29 10:57:35.281250,-39.43,72.47
254826,2018-06-29 10:57:35.312500,-52.09,72.47
254827,2018-06-29 10:57:35.343750,-58.77,72.47
254828,2018-06-29 10:57:35.375000,-46.92,72.47
254829,2018-06-29 10:57:35.406250,-14.82,72.47
254830,2018-06-29 10:57:35.437500,21.98,72.47
254831,2018-06-29 10:57:35.468750,45.02,72.47
254832,2018-06-29 10:57:35.500000,49.02,72.47
254833,2018-06-29 10:57:35.531250,39.36,72.38
254834,2018-06-29 10:57:35.562500,20.51,72.38
254835,2018-06-29 10:57:35.593750,-5.94,72.38
254836,2018-06-29 10:57:35.625000,-35.95,72.38
254837,2018-06-29 10:57:35.656250,-63.05,72.38
254838,2018-06-29 10:57:35.687500,-80.67,72.38
254839,2018-06-29 10:57:35.718750,-81.37,72.38
254840,2018-06-29 10:57:35.750000,-61.08,72.38
254841,2018-06-29 10:57:35.781250,-26.96,72.38
254842,2018-06-29 10:57:35.812500,8.15,72.38
254843,2018-06-29 10:57:35.843750,40.03,72.38
254844,2018-06-29 10:57:35.875000,72.42,72.38
254845,2018-06-29 10:57:35.906250,103.44,72.38
254846,2018-06-29 10:57:35.937500,123.44,72.38
254847,2018-06-29 10:57:35.968750,126.59,72.38
254848,2018-06-29 10:57:36.000000,117.11,72.38
254849,2018-06-29 10:57:36.031250,102.23,72.38
254850,2018-06-29 10:57:36.062500,85.08,72.38
254851,2018-06-29 10:57:36.093750,65.08,72.38
254852,2018-06-29 10:57:36.125000,40.19,72.38
254853,2018-06-29 10:57:36.156250,10.65,72.38
254854,2018-06-29 10:57:36.187500,-14.2,72.38
254855,2018-06-29 10:57:36.218750,-19.21,72.38
254856,2018-06-29 10:57:36.250000,-1.41,72.38
254857,2018-06-29 10:57:36.281250,24.0,72.38
254858,2018-06-29 10:57:36.312500,41.28,72.38
254859,2018-06-29 10:57:36.343750,48.05,72.38
254860,2018-06-29 10:57:36.375000,49.08,72.38
254861,2018-06-29 10:57:36.406250,47.68,72.38
254862,2018-06-29 10:57:36.437500,46.81,72.38
254863,2018-06-29 10:57:36.468750,49.87,72.38
254864,2018-06-29 10:57:36.500000,57.76,72.38
254865,2018-06-29 10:57:36.531250,67.65,72.35
254866,2018-06-29 10:57:36.562500,74.66,72.35
254867,2018-06-29 10:57:36.593750,73.72,72.35
254868,2018-06-29 10:57:36.625000,62.67,72.35
254869,2018-06-29 10:57:36.656250,44.3,72.35
254870,2018-06-29 10:57:36.687500,24.17,72.35
254871,2018-06-29 10:57:36.718750,5.12,72.35
254872,2018-06-29 10:57:36.750000,-17.05,72.35
254873,2018-06-29 10:57:36.781250,-49.55,72.35
254874,2018-06-29 10:57:36.812500,-93.45,72.35
254875,2018-06-29 10:57:36.843750,-144.97,72.35
254876,2018-06-29 10:57:36.875000,-203.69,72.35
254877,2018-06-29 10:57:36.906250,-268.64,72.35
254878,2018-06-29 10:57:36.937500,-329.1,72.35
254879,2018-06-29 10:57:36.968750,-369.41,72.35
254880,2018-06-29 10:57:37.000000,-377.23,72.35
254881,2018-06-29 10:57:37.031250,-345.93,72.35
254882,2018-06-29 10:57:37.062500,-281.93,72.35
254883,2018-06-29 10:57:37.093750,-204.56,72.35
254884,2018-06-29 10:57:37.125000,-126.5,72.35
254885,2018-06-29 10:57:37.156250,-44.58,72.35
254886,2018-06-29 10:57:37.187500,41.55,72.35
254887,2018-06-29 10:57:37.218750,118.48,72.35
254888,2018-06-29 10:57:37.250000,174.55,72.35
254889,2018-06-29 10:57:37.281250,209.03,72.35
254890,2018-06-29 10:57:37.312500,225.93,72.35
254891,2018-06-29 10:57:37.343750,227.64,72.35
254892,2018-06-29 10:57:37.375000,215.66,72.35
254893,2018-06-29 10:57:37.406250,190.69,72.35
254894,2018-06-29 10:57:37.437500,153.12,72.35
254895,2018-06-29 10:57:37.468750,105.24,72.35
254896,2018-06-29 10:57:37.500000,52.78,72.35
254897,2018-06-29 10:57:37.531250,3.82,72.33
254898,2018-06-29 10:57:37.562500,-38.93,72.33
254899,2018-06-29 10:57:37.593750,-74.97,72.33
254900,2018-06-29 10:57:37.625000,-103.99,72.33
254901,2018-06-29 10:57:37.656250,-124.22,72.33
254902,2018-06-29 10:57:37.687500,-138.28,72.33
254903,2018-06-29 10:57:37.718750,-149.62,72.33
254904,2018-06-29 10:57:37.750000,-156.62,72.33
254905,2018-06-29 10:57:37.781250,-162.37,72.33
254906,2018-06-29 10:57:37.812500,-167.74,72.33
254907,2018-06-29 10:57:37.843750,-168.91,72.33
254908,2018-06-29 10:57:37.875000,-149.17,72.33
254909,2018-06-29 10:57:37.906250,-109.74,72.33
254910,2018-06-29 10:57:37.937500,-72.65,72.33
254911,2018-06-29 10:57:37.968750,-60.46,72.33
254912,2018-06-29 10:57:38.000000,-72.54,72.33
254913,2018-06-29 10:57:38.031250,-84.77,72.33
254914,2018-06-29 10:57:38.062500,-85.06,72.33
254915,2018-06-29 10:57:38.093750,-25.29,72.33
254916,2018-06-29 10:57:38.125000,82.78,72.33
254917,2018-06-29 10:57:38.156250,148.18,72.33
254918,2018-06-29 10:57:38.187500,168.73,72.33
254919,2018-06-29 10:57:38.218750,179.05,72.33
254920,2018-06-29 10:57:38.250000,181.46,72.33
254921,2018-06-29 10:57:38.281250,168.73,72.33
254922,2018-06-29 10:57:38.312500,157.66,72.33
254923,2018-06-29 10:57:38.343750,158.91,72.33
254924,2018-06-29 10:57:38.375000,162.45,72.33
254925,2018-06-29 10:57:38.406250,146.47,72.33
254926,2018-06-29 10:57:38.437500,118.62,72.33
254927,2018-06-29 10:57:38.468750,97.09,72.33
254928,2018-06-29 10:57:38.500000,85.77,72.33
254929,2018-06-29 10:57:38.531250,76.91,72.28
254930,2018-06-29 10:57:38.562500,70.92,72.28
254931,2018-06-29 10:57:38.593750,82.33,72.28
254932,2018-06-29 10:57:38.625000,116.16,72.28
254933,2018-06-29 10:57:38.656250,156.75,72.28
254934,2018-06-29 10:57:38.687500,179.63,72.28
254935,2018-06-29 10:57:38.718750,178.66,72.28
254936,2018-06-29 10:57:38.750000,171.94,72.28
254937,2018-06-29 10:57:38.781250,181.84,72.28
254938,2018-06-29 10:57:38.812500,213.41,72.28
254939,2018-06-29 10:57:38.843750,243.19,72.28
254940,2018-06-29 10:57:38.875000,240.32,72.28
254941,2018-06-29 10:57:38.906250,200.72,72.28
254942,2018-06-29 10:57:38.937500,146.66,72.28
254943,2018-06-29 10:57:38.968750,96.1,72.28
254944,2018-06-29 10:57:39.000000,49.53,72.28
254945,2018-06-29 10:57:39.031250,9.9,72.28
254946,2018-06-29 10:57:39.062500,-23.88,72.28
254947,2018-06-29 10:57:39.093750,-63.58,72.28
254948,2018-06-29 10:57:39.125000,-122.73,72.28
254949,2018-06-29 10:57:39.156250,-189.55,72.28
254950,2018-06-29 10:57:39.187500,-238.26,72.28
254951,2018-06-29 10:57:39.218750,-270.1,72.28
254952,2018-06-29 10:57:39.250000,-306.07,72.28
254953,2018-06-29 10:57:39.281250,-364.98,72.28
254954,2018-06-29 10:57:39.312500,-415.43,72.28
254955,2018-06-29 10:57:39.343750,-433.4,72.28
254956,2018-06-29 10:57:39.375000,-417.56,72.28
254957,2018-06-29 10:57:39.406250,-392.91,72.28
254958,2018-06-29 10:57:39.437500,-373.98,72.28
254959,2018-06-29 10:57:39.468750,-350.48,72.28
254960,2018-06-29 10:57:39.500000,-331.62,72.28
254961,2018-06-29 10:57:39.531250,-333.42,72.18
254962,2018-06-29 10:57:39.562500,-378.37,72.18
254963,2018-06-29 10:57:39.593750,-403.08,72.18
254964,2018-06-29 10:57:39.625000,-368.33,72.18
254965,2018-06-29 10:57:39.656250,-255.61,72.18
254966,2018-06-29 10:57:39.687500,50.08,72.18
254967,2018-06-29 10:57:39.718750,294.55,72.18
254968,2018-06-29 10:57:39.750000,391.05,72.18
254969,2018-06-29 10:57:39.781250,399.52,72.18
254970,2018-06-29 10:57:39.812500,334.63,72.18
254971,2018-06-29 10:57:39.843750,179.05,72.18
254972,2018-06-29 10:57:39.875000,9.36,72.18
254973,2018-06-29 10:57:39.906250,-43.07,72.18
254974,2018-06-29 10:57:39.937500,66.09,72.18
254975,2018-06-29 10:57:39.968750,209.74,72.18
254976,2018-06-29 10:57:40.000000,301.62,72.18
254977,2018-06-29 10:57:40.031250,379.26,72.18
254978,2018-06-29 10:57:40.062500,441.59,72.18
254979,2018-06-29 10:57:40.093750,459.96,72.18
254980,2018-06-29 10:57:40.125000,412.73,72.18
254981,2018-06-29 10:57:40.156250,330.91,72.18
254982,2018-06-29 10:57:40.187500,247.45,72.18
254983,2018-06-29 10:57:40.218750,167.43,72.18
254984,2018-06-29 10:57:40.250000,72.95,72.18
254985,2018-06-29 10:57:40.281250,-33.02,72.18
254986,2018-06-29 10:57:40.312500,-109.59,72.18
254987,2018-06-29 10:57:40.343750,-131.62,72.18
254988,2018-06-29 10:57:40.375000,-119.3,72.18
254989,2018-06-29 10:57:40.406250,-115.88,72.18
254990,2018-06-29 10:57:40.437500,-146.3,72.18
254991,2018-06-29 10:57:40.468750,-206.39,72.18
254992,2018-06-29 10:57:40.500000,-275.71,72.18
254993,2018-06-29 10:57:40.531250,-335.74,72.08
254994,2018-06-29 10:57:40.562500,-385.35,72.08
254995,2018-06-29 10:57:40.593750,-438.51,72.08
254996,2018-06-29 10:57:40.625000,-491.83,72.08
254997,2018-06-29 10:57:40.656250,-506.93,72.08
254998,2018-06-29 10:57:40.687500,-453.29,72.08
254999,2018-06-29 10:57:40.718750,-356.01,72.08
255000,2018-06-29 10:57:40.750000,-264.16,72.08
255001,2018-06-29 10:57:40.781250,-195.63,72.08
255002,2018-06-29 10:57:40.812500,-144.73,72.08
255003,2018-06-29 10:57:40.843750,-108.42,72.08
255004,2018-06-29 10:57:40.875000,-78.78,72.08
255005,2018-06-29 10:57:40.906250,-41.02,72.08
255006,2018-06-29 10:57:40.937500,7.48,72.08
255007,2018-06-29 10:57:40.968750,54.24,72.08
255008,2018-06-29 10:57:41.000000,90.81,72.08
255009,2018-06-29 10:57:41.031250,123.27,72.08
255010,2018-06-29 10:57:41.062500,161.46,72.08
255011,2018-06-29 10:57:41.093750,205.95,72.08
255012,2018-06-29 10:57:41.125000,249.88,72.08
255013,2018-06-29 10:57:41.156250,285.9,72.08
255014,2018-06-29 10:57:41.187500,307.57,72.08
255015,2018-06-29 10:57:41.218750,312.05,72.08
255016,2018-06-29 10:57:41.250000,301.9,72.08
255017,2018-06-29 10:57:41.281250,279.54,72.08
255018,2018-06-29 10:57:41.312500,243.96,72.08
255019,2018-06-29 10:57:41.343750,198.13,72.08
255020,2018-06-29 10:57:41.375000,154.79,72.08
255021,2018-06-29 10:57:41.406250,127.96,72.08
255022,2018-06-29 10:57:41.437500,115.78,72.08
255023,2018-06-29 10:57:41.468750,99.33,72.08
255024,2018-06-29 10:57:41.500000,70.27,72.08
255025,2018-06-29 10:57:41.531250,49.46,72.05
255026,2018-06-29 10:57:41.562500,59.85,72.05
255027,2018-06-29 10:57:41.593750,95.63,72.05
255028,2018-06-29 10:57:41.625000,135.95,72.05
255029,2018-06-29 10:57:41.656250,169.01,72.05
255030,2018-06-29 10:57:41.687500,186.85,72.05
255031,2018-06-29 10:57:41.718750,180.37,72.05
255032,2018-06-29 10:57:41.750000,154.31,72.05
255033,2018-06-29 10:57:41.781250,128.54,72.05
255034,2018-06-29 10:57:41.812500,113.45,72.05
255035,2018-06-29 10:57:41.843750,97.4,72.05
255036,2018-06-29 10:57:41.875000,62.64,72.05
255037,2018-06-29 10:57:41.906250,4.06,72.05
255038,2018-06-29 10:57:41.937500,-63.97,72.05
255039,2018-06-29 10:57:41.968750,-116.65,72.05
255040,2018-06-29 10:57:42.000000,-150.09,72.05
255041,2018-06-29 10:57:42.031250,-189.83,72.05
255042,2018-06-29 10:57:42.062500,-246.68,72.05
255043,2018-06-29 10:57:42.093750,-293.6,72.05
255044,2018-06-29 10:57:42.125000,-305.34,72.05
255045,2018-06-29 10:57:42.156250,-283.03,72.05
255046,2018-06-29 10:57:42.187500,-233.66,72.05
255047,2018-06-29 10:57:42.218750,-166.52,72.05
255048,2018-06-29 10:57:42.250000,-105.24,72.05
255049,2018-06-29 10:57:42.281250,-70.56,72.05
255050,2018-06-29 10:57:42.312500,-57.1,72.05
255051,2018-06-29 10:57:42.343750,-36.65,72.05
255052,2018-06-29 10:57:42.375000,16.89,72.05
255053,2018-06-29 10:57:42.406250,101.24,72.05
255054,2018-06-29 10:57:42.437500,187.8,72.05
255055,2018-06-29 10:57:42.468750,260.21,72.05
255056,2018-06-29 10:57:42.500000,330.9,72.05
255057,2018-06-29 10:57:42.531250,405.15,72.0
255058,2018-06-29 10:57:42.562500,458.63,72.0
255059,2018-06-29 10:57:42.593750,468.81,72.0
255060,2018-06-29 10:57:42.625000,438.84,72.0
255061,2018-06-29 10:57:42.656250,380.43,72.0
255062,2018-06-29 10:57:42.687500,302.57,72.0
255063,2018-06-29 10:57:42.718750,221.07,72.0
255064,2018-06-29 10:57:42.750000,152.38,72.0
255065,2018-06-29 10:57:42.781250,96.93,72.0
255066,2018-06-29 10:57:42.812500,44.75,72.0
255067,2018-06-29 10:57:42.843750,-6.02,72.0
255068,2018-06-29 10:57:42.875000,-47.44,72.0
255069,2018-06-29 10:57:42.906250,-74.74,72.0
255070,2018-06-29 10:57:42.937500,-94.13,72.0
255071,2018-06-29 10:57:42.968750,-119.28,72.0
255072,2018-06-29 10:57:43.000000,-163.72,72.0
255073,2018-06-29 10:57:43.031250,-231.12,72.0
255074,2018-06-29 10:57:43.062500,-310.91,72.0
255075,2018-06-29 10:57:43.093750,-390.98,72.0
255076,2018-06-29 10:57:43.125000,-469.39,72.0
255077,2018-06-29 10:57:43.156250,-534.22,72.0
255078,2018-06-29 10:57:43.187500,-547.15,72.0
255079,2018-06-29 10:57:43.218750,-480.95,72.0
255080,2018-06-29 10:57:43.250000,-359.59,72.0
255081,2018-06-29 10:57:43.281250,-230.11,72.0
255082,2018-06-29 10:57:43.312500,-114.5,72.0
255083,2018-06-29 10:57:43.343750,-11.81,72.0
255084,2018-06-29 10:57:43.375000,82.27,72.0
255085,2018-06-29 10:57:43.406250,176.52,72.0
255086,2018-06-29 10:57:43.437500,275.97,72.0
255087,2018-06-29 10:57:43.468750,363.57,72.0
255088,2018-06-29 10:57:43.500000,407.92,72.0
255089,2018-06-29 10:57:43.531250,395.05,71.95
255090,2018-06-29 10:57:43.562500,351.12,71.95
255091,2018-06-29 10:57:43.593750,322.39,71.95
255092,2018-06-29 10:57:43.625000,315.98,71.95
255093,2018-06-29 10:57:43.656250,284.49,71.95
255094,2018-06-29 10:57:43.687500,191.04,71.95
255095,2018-06-29 10:57:43.718750,56.13,71.95
255096,2018-06-29 10:57:43.750000,-66.1,71.95
255097,2018-06-29 10:57:43.781250,-125.09,71.95
255098,2018-06-29 10:57:43.812500,-106.56,71.95
255099,2018-06-29 10:57:43.843750,-52.2,71.95
255100,2018-06-29 10:57:43.875000,-18.68,71.95
255101,2018-06-29 10:57:43.906250,-20.95,71.95
255102,2018-06-29 10:57:43.937500,-46.12,71.95
255103,2018-06-29 10:57:43.968750,-89.79,71.95
255104,2018-06-29 10:57:44.000000,-146.75,71.95
255105,2018-06-29 10:57:44.031250,-191.96,71.95
255106,2018-06-29 10:57:44.062500,-194.35,71.95
255107,2018-06-29 10:57:44.093750,-148.87,71.95
255108,2018-06-29 10:57:44.125000,-87.77,71.95
255109,2018-06-29 10:57:44.156250,-46.33,71.95
255110,2018-06-29 10:57:44.187500,-25.64,71.95
255111,2018-06-29 10:57:44.218750,-7.44,71.95
255112,2018-06-29 10:57:44.250000,14.55,71.95
255113,2018-06-29 10:57:44.281250,37.59,71.95
255114,2018-06-29 10:57:44.312500,55.59,71.95
255115,2018-06-29 10:57:44.343750,49.42,71.95
255116,2018-06-29 10:57:44.375000,4.2,71.95
255117,2018-06-29 10:57:44.406250,-57.78,71.95
255118,2018-06-29 10:57:44.437500,-92.62,71.95
255119,2018-06-29 10:57:44.468750,-86.19,71.95
255120,2018-06-29 10:57:44.500000,-64.06,71.95
255121,2018-06-29 10:57:44.531250,-50.9,71.9
255122,2018-06-29 10:57:44.562500,-44.27,71.9
255123,2018-06-29 10:57:44.593750,-33.17,71.9
255124,2018-06-29 10:57:44.625000,-19.28,71.9
255125,2018-06-29 10:57:44.656250,-9.44,71.9
255126,2018-06-29 10:57:44.687500,-7.19,71.9
255127,2018-06-29 10:57:44.718750,-20.38,71.9
255128,2018-06-29 10:57:44.750000,-57.24,71.9
255129,2018-06-29 10:57:44.781250,-108.72,71.9
255130,2018-06-29 10:57:44.812500,-153.04,71.9
255131,2018-06-29 10:57:44.843750,-173.96,71.9
255132,2018-06-29 10:57:44.875000,-157.57,71.9
255133,2018-06-29 10:57:44.906250,-93.25,71.9
255134,2018-06-29 10:57:44.937500,-3.54,71.9
255135,2018-06-29 10:57:44.968750,56.4,71.9
255136,2018-06-29 10:57:45.000000,56.51,71.9
255137,2018-06-29 10:57:45.031250,21.13,71.9
255138,2018-06-29 10:57:45.062500,-13.46,71.9
255139,2018-06-29 10:57:45.093750,-34.82,71.9
255140,2018-06-29 10:57:45.125000,-40.96,71.9
255141,2018-06-29 10:57:45.156250,-28.63,71.9
255142,2018-06-29 10:57:45.187500,-2.2,71.9
255143,2018-06-29 10:57:45.218750,28.43,71.9
255144,2018-06-29 10:57:45.250000,58.65,71.9
255145,2018-06-29 10:57:45.281250,87.58,71.9
255146,2018-06-29 10:57:45.312500,112.19,71.9
255147,2018-06-29 10:57:45.343750,127.59,71.9
255148,2018-06-29 10:57:45.375000,129.09,71.9
255149,2018-06-29 10:57:45.406250,115.07,71.9
255150,2018-06-29 10:57:45.437500,90.36,71.9
255151,2018-06-29 10:57:45.468750,63.99,71.9
255152,2018-06-29 10:57:45.500000,42.68,71.9
255153,2018-06-29 10:57:45.531250,28.44,71.8
255154,2018-06-29 10:57:45.562500,19.21,71.8
255155,2018-06-29 10:57:45.593750,10.74,71.8
255156,2018-06-29 10:57:45.625000,4.22,71.8
255157,2018-06-29 10:57:45.656250,11.82,71.8
255158,2018-06-29 10:57:45.687500,44.35,71.8
255159,2018-06-29 10:57:45.718750,94.73,71.8
255160,2018-06-29 10:57:45.750000,142.74,71.8
255161,2018-06-29 10:57:45.781250,172.62,71.8
255162,2018-06-29 10:57:45.812500,178.09,71.8
255163,2018-06-29 10:57:45.843750,158.5,71.8
255164,2018-06-29 10:57:45.875000,121.29,71.8
255165,2018-06-29 10:57:45.906250,82.68,71.8
255166,2018-06-29 10:57:45.937500,57.14,71.8
255167,2018-06-29 10:57:45.968750,47.0,71.8
255168,2018-06-29 10:57:46.000000,44.31,71.8
255169,2018-06-29 10:57:46.031250,40.75,71.8
255170,2018-06-29 10:57:46.062500,34.01,71.8
255171,2018-06-29 10:57:46.093750,25.72,71.8
255172,2018-06-29 10:57:46.125000,15.27,71.8
255173,2018-06-29 10:57:46.156250,-0.55,71.8
255174,2018-06-29 10:57:46.187500,-21.87,71.8
255175,2018-06-29 10:57:46.218750,-44.36,71.8
255176,2018-06-29 10:57:46.250000,-65.06,71.8
255177,2018-06-29 10:57:46.281250,-85.98,71.8
255178,2018-06-29 10:57:46.312500,-112.65,71.8
255179,2018-06-29 10:57:46.343750,-149.86,71.8
255180,2018-06-29 10:57:46.375000,-189.53,71.8
255181,2018-06-29 10:57:46.406250,-205.83,71.8
255182,2018-06-29 10:57:46.437500,-180.43,71.8
255183,2018-06-29 10:57:46.468750,-128.29,71.8
255184,2018-06-29 10:57:46.500000,-79.89,71.8
255185,2018-06-29 10:57:46.531250,-47.52,71.65
255186,2018-06-29 10:57:46.562500,-26.55,71.65
255187,2018-06-29 10:57:46.593750,-14.93,71.65
255188,2018-06-29 10:57:46.625000,-13.66,71.65
255189,2018-06-29 10:57:46.656250,-18.44,71.65
255190,2018-06-29 10:57:46.687500,-23.72,71.65
255191,2018-06-29 10:57:46.718750,-30.29,71.65
255192,2018-06-29 10:57:46.750000,-41.56,71.65
255193,2018-06-29 10:57:46.781250,-55.89,71.65
255194,2018-06-29 10:57:46.812500,-68.62,71.65
255195,2018-06-29 10:57:46.843750,-78.86,71.65
255196,2018-06-29 10:57:46.875000,-89.2,71.65
255197,2018-06-29 10:57:46.906250,-99.81,71.65
255198,2018-06-29 10:57:46.937500,-106.75,71.65
255199,2018-06-29 10:57:46.968750,-106.46,71.65
255200,2018-06-29 10:57:47.000000,-100.89,71.65
255201,2018-06-29 10:57:47.031250,-97.47,71.65
255202,2018-06-29 10:57:47.062500,-104.2,71.65
255203,2018-06-29 10:57:47.093750,-123.04,71.65
255204,2018-06-29 10:57:47.125000,-141.82,71.65
255205,2018-06-29 10:57:47.156250,-136.04,71.65
255206,2018-06-29 10:57:47.187500,-91.51,71.65
255207,2018-06-29 10:57:47.218750,-23.21,71.65
255208,2018-06-29 10:57:47.250000,40.58,71.65
255209,2018-06-29 10:57:47.281250,85.83,71.65
255210,2018-06-29 10:57:47.312500,113.3,71.65
255211,2018-06-29 10:57:47.343750,124.61,71.65
255212,2018-06-29 10:57:47.375000,122.39,71.65
255213,2018-06-29 10:57:47.406250,114.61,71.65
255214,2018-06-29 10:57:47.437500,108.66,71.65
255215,2018-06-29 10:57:47.468750,105.88,71.65
255216,2018-06-29 10:57:47.500000,104.47,71.65
255217,2018-06-29 10:57:47.531250,102.35,71.58
255218,2018-06-29 10:57:47.562500,96.64,71.58
255219,2018-06-29 10:57:47.593750,85.27,71.58
255220,2018-06-29 10:57:47.625000,69.24,71.58
255221,2018-06-29 10:57:47.656250,49.99,71.58
255222,2018-06-29 10:57:47.687500,26.6,71.58
255223,2018-06-29 10:57:47.718750,-0.47,71.58
255224,2018-06-29 10:57:47.750000,-26.58,71.58
255225,2018-06-29 10:57:47.781250,-48.15,71.58
255226,2018-06-29 10:57:47.812500,-66.88,71.58
255227,2018-06-29 10:57:47.843750,-86.85,71.58
255228,2018-06-29 10:57:47.875000,-111.12,71.58
255229,2018-06-29 10:57:47.906250,-136.04,71.58
255230,2018-06-29 10:57:47.937500,-144.68,71.58
255231,2018-06-29 10:57:47.968750,-118.86,71.58
255232,2018-06-29 10:57:48.000000,-63.02,71.58
255233,2018-06-29 10:57:48.031250,-2.71,71.58
255234,2018-06-29 10:57:48.062500,41.46,71.58
255235,2018-06-29 10:57:48.093750,65.11,71.58
255236,2018-06-29 10:57:48.125000,70.99,71.58
255237,2018-06-29 10:57:48.156250,64.82,71.58
255238,2018-06-29 10:57:48.187500,56.54,71.58
255239,2018-06-29 10:57:48.218750,54.22,71.58
255240,2018-06-29 10:57:48.250000,58.04,71.58
255241,2018-06-29 10:57:48.281250,63.49,71.58
255242,2018-06-29 10:57:48.312500,66.94,71.58
255243,2018-06-29 10:57:48.343750,65.23,71.58
255244,2018-06-29 10:57:48.375000,55.48,71.58
255245,2018-06-29 10:57:48.406250,39.15,71.58
255246,2018-06-29 10:57:48.437500,21.32,71.58
255247,2018-06-29 10:57:48.468750,3.69,71.58
255248,2018-06-29 10:57:48.500000,-16.87,71.58
255249,2018-06-29 10:57:48.531250,-41.02,71.57
255250,2018-06-29 10:57:48.562500,-63.4,71.57
255251,2018-06-29 10:57:48.593750,-79.28,71.57
255252,2018-06-29 10:57:48.625000,-91.11,71.57
255253,2018-06-29 10:57:48.656250,-106.63,71.57
255254,2018-06-29 10:57:48.687500,-127.86,71.57
255255,2018-06-29 10:57:48.718750,-139.66,71.57
255256,2018-06-29 10:57:48.750000,-118.5,71.57
255257,2018-06-29 10:57:48.781250,-61.02,71.57
255258,2018-06-29 10:57:48.812500,7.7,71.57
255259,2018-06-29 10:57:48.843750,61.43,71.57
255260,2018-06-29 10:57:48.875000,93.47,71.57
255261,2018-06-29 10:57:48.906250,107.43,71.57
255262,2018-06-29 10:57:48.937500,106.52,71.57
255263,2018-06-29 10:57:48.968750,98.04,71.57
255264,2018-06-29 10:57:49.000000,92.99,71.57
255265,2018-06-29 10:57:49.031250,95.0,71.57
255266,2018-06-29 10:57:49.062500,97.91,71.57
255267,2018-06-29 10:57:49.093750,97.31,71.57
255268,2018-06-29 10:57:49.125000,95.4,71.57
255269,2018-06-29 10:57:49.156250,91.76,71.57
255270,2018-06-29 10:57:49.187500,80.17,71.57
255271,2018-06-29 10:57:49.218750,59.52,71.57
255272,2018-06-29 10:57:49.250000,38.07,71.57
255273,2018-06-29 10:57:49.281250,21.36,71.57
255274,2018-06-29 10:57:49.312500,4.87,71.57
255275,2018-06-29 10:57:49.343750,-16.68,71.57
255276,2018-06-29 10:57:49.375000,-40.03,71.57
255277,2018-06-29 10:57:49.406250,-58.41,71.57
255278,2018-06-29 10:57:49.437500,-71.48,71.57
255279,2018-06-29 10:57:49.468750,-86.65,71.57
255280,2018-06-29 10:57:49.500000,-110.6,71.57
255281,2018-06-29 10:57:49.531250,-136.24,71.55
255282,2018-06-29 10:57:49.562500,-139.84,71.55
255283,2018-06-29 10:57:49.593750,-102.67,71.55
255284,2018-06-29 10:57:49.625000,-35.04,71.55
255285,2018-06-29 10:57:49.656250,32.79,71.55
255286,2018-06-29 10:57:49.687500,80.01,71.55
255287,2018-06-29 10:57:49.718750,104.52,71.55
255288,2018-06-29 10:57:49.750000,110.85,71.55
255289,2018-06-29 10:57:49.781250,104.38,71.55
255290,2018-06-29 10:57:49.812500,93.35,71.55
255291,2018-06-29 10:57:49.843750,85.34,71.55
255292,2018-06-29 10:57:49.875000,81.48,71.55
255293,2018-06-29 10:57:49.906250,78.53,71.55
255294,2018-06-29 10:57:49.937500,74.86,71.55
255295,2018-06-29 10:57:49.968750,69.98,71.55
255296,2018-06-29 10:57:50.000000,60.74,71.55
255297,2018-06-29 10:57:50.031250,43.5,71.55
255298,2018-06-29 10:57:50.062500,19.9,71.55
255299,2018-06-29 10:57:50.093750,-3.36,71.55
255300,2018-06-29 10:57:50.125000,-21.7,71.55
255301,2018-06-29 10:57:50.156250,-37.76,71.55
255302,2018-06-29 10:57:50.187500,-56.86,71.55
255303,2018-06-29 10:57:50.218750,-78.06,71.55
255304,2018-06-29 10:57:50.250000,-92.9,71.55
255305,2018-06-29 10:57:50.281250,-93.26,71.55
255306,2018-06-29 10:57:50.312500,-79.73,71.55
255307,2018-06-29 10:57:50.343750,-62.8,71.55
255308,2018-06-29 10:57:50.375000,-53.4,71.55
255309,2018-06-29 10:57:50.406250,-48.0,71.55
255310,2018-06-29 10:57:50.437500,-28.41,71.55
255311,2018-06-29 10:57:50.468750,16.35,71.55
255312,2018-06-29 10:57:50.500000,76.07,71.55
255313,2018-06-29 10:57:50.531250,132.05,71.57
255314,2018-06-29 10:57:50.562500,172.39,71.57
255315,2018-06-29 10:57:50.593750,191.43,71.57
255316,2018-06-29 10:57:50.625000,189.95,71.57
255317,2018-06-29 10:57:50.656250,180.41,71.57
255318,2018-06-29 10:57:50.687500,178.01,71.57
255319,2018-06-29 10:57:50.718750,183.03,71.57
255320,2018-06-29 10:57:50.750000,183.32,71.57
255321,2018-06-29 10:57:50.781250,172.72,71.57
255322,2018-06-29 10:57:50.812500,155.66,71.57
255323,2018-06-29 10:57:50.843750,134.81,71.57
255324,2018-06-29 10:57:50.875000,107.11,71.57
255325,2018-06-29 10:57:50.906250,72.56,71.57
255326,2018-06-29 10:57:50.937500,37.56,71.57
255327,2018-06-29 10:57:50.968750,7.34,71.57
255328,2018-06-29 10:57:51.000000,-20.47,71.57
255329,2018-06-29 10:57:51.031250,-51.06,71.57
255330,2018-06-29 10:57:51.062500,-83.28,71.57
255331,2018-06-29 10:57:51.093750,-110.44,71.57
255332,2018-06-29 10:57:51.125000,-129.37,71.57
255333,2018-06-29 10:57:51.156250,-143.44,71.57
255334,2018-06-29 10:57:51.187500,-157.47,71.57
255335,2018-06-29 10:57:51.218750,-170.84,71.57
255336,2018-06-29 10:57:51.250000,-172.24,71.57
255337,2018-06-29 10:57:51.281250,-145.98,71.57
255338,2018-06-29 10:57:51.312500,-91.05,71.57
255339,2018-06-29 10:57:51.343750,-27.24,71.57
255340,2018-06-29 10:57:51.375000,22.96,71.57
255341,2018-06-29 10:57:51.406250,49.97,71.57
255342,2018-06-29 10:57:51.437500,53.92,71.57
255343,2018-06-29 10:57:51.468750,39.61,71.57
255344,2018-06-29 10:57:51.500000,18.18,71.57
255345,2018-06-29 10:57:51.531250,4.0,71.57
255346,2018-06-29 10:57:51.562500,4.54,71.57
255347,2018-06-29 10:57:51.593750,15.2,71.57
255348,2018-06-29 10:57:51.625000,26.44,71.57
255349,2018-06-29 10:57:51.656250,33.2,71.57
255350,2018-06-29 10:57:51.687500,33.7,71.57
255351,2018-06-29 10:57:51.718750,23.09,71.57
255352,2018-06-29 10:57:51.750000,-2.56,71.57
255353,2018-06-29 10:57:51.781250,-37.39,71.57
255354,2018-06-29 10:57:51.812500,-69.9,71.57
255355,2018-06-29 10:57:51.843750,-97.22,71.57
255356,2018-06-29 10:57:51.875000,-126.86,71.57
255357,2018-06-29 10:57:51.906250,-162.63,71.57
255358,2018-06-29 10:57:51.937500,-198.45,71.57
255359,2018-06-29 10:57:51.968750,-229.25,71.57
255360,2018-06-29 10:57:52.000000,-258.56,71.57
255361,2018-06-29 10:57:52.031250,-292.63,71.57
255362,2018-06-29 10:57:52.062500,-333.29,71.57
255363,2018-06-29 10:57:52.093750,-371.04,71.57
255364,2018-06-29 10:57:52.125000,-379.67,71.57
255365,2018-06-29 10:57:52.156250,-333.45,71.57
255366,2018-06-29 10:57:52.187500,-238.13,71.57
255367,2018-06-29 10:57:52.218750,-128.05,71.57
255368,2018-06-29 10:57:52.250000,-29.45,71.57
255369,2018-06-29 10:57:52.281250,54.73,71.57
255370,2018-06-29 10:57:52.312500,127.01,71.57
255371,2018-06-29 10:57:52.343750,184.9,71.57
255372,2018-06-29 10:57:52.375000,228.48,71.57
255373,2018-06-29 10:57:52.406250,263.0,71.57
255374,2018-06-29 10:57:52.437500,292.49,71.57
255375,2018-06-29 10:57:52.468750,318.41,71.57
255376,2018-06-29 10:57:52.500000,341.7,71.57
255377,2018-06-29 10:57:52.531250,359.2,71.55
255378,2018-06-29 10:57:52.562500,361.2,71.55
255379,2018-06-29 10:57:52.593750,339.27,71.55
255380,2018-06-29 10:57:52.625000,296.03,71.55
255381,2018-06-29 10:57:52.656250,243.59,71.55
255382,2018-06-29 10:57:52.687500,192.56,71.55
255383,2018-06-29 10:57:52.718750,144.46,71.55
255384,2018-06-29 10:57:52.750000,95.91,71.55
255385,2018-06-29 10:57:52.781250,46.84,71.55
