,Time,ppg,hr
25600,2018-06-29 08:58:12.000000,-1.06,51.72
25601,2018-06-29 08:58:12.031250,3.06,51.72
25602,2018-06-29 08:58:12.062500,0.46,51.72
25603,2018-06-29 08:58:12.093750,-7.53,51.72
25604,2018-06-29 08:58:12.125000,-16.09,51.72
25605,2018-06-29 08:58:12.156250,-21.62,51.72
25606,2018-06-29 08:58:12.187500,-24.05,51.72
25607,2018-06-29 08:58:12.218750,-23.65,51.72
25608,2018-06-29 08:58:12.250000,-19.04,51.72
25609,2018-06-29 08:58:12.281250,-9.64,51.72
25610,2018-06-29 08:58:12.312500,2.82,51.72
25611,2018-06-29 08:58:12.343750,16.23,51.72
25612,2018-06-29 08:58:12.375000,28.93,51.72
25613,2018-06-29 08:58:12.406250,38.42,51.72
25614,2018-06-29 08:58:12.437500,42.61,51.72
25615,2018-06-29 08:58:12.468750,42.48,51.72
25616,2018-06-29 08:58:12.500000,40.59,51.72
25617,2018-06-29 08:58:12.531250,38.0,51.88
25618,2018-06-29 08:58:12.562500,34.23,51.88
25619,2018-06-29 08:58:12.593750,28.48,51.88
25620,2018-06-29 08:58:12.625000,19.94,51.88
25621,2018-06-29 08:58:12.656250,8.58,51.88
25622,2018-06-29 08:58:12.687500,-4.27,51.88
25623,2018-06-29 08:58:12.718750,-17.43,51.88
25624,2018-06-29 08:58:12.750000,-30.94,51.88
25625,2018-06-29 08:58:12.781250,-45.4,51.88
25626,2018-06-29 08:58:12.812500,-60.05,51.88
25627,2018-06-29 08:58:12.843750,-70.89,51.88
25628,2018-06-29 08:58:12.875000,-72.35,51.88
25629,2018-06-29 08:58:12.906250,-62.57,51.88
25630,2018-06-29 08:58:12.937500,-45.57,51.88
25631,2018-06-29 08:58:12.968750,-26.97,51.88
25632,2018-06-29 08:58:13.000000,-9.41,51.88
25633,2018-06-29 08:58:13.031250,6.55,51.88
25634,2018-06-29 08:58:13.062500,19.5,51.88
25635,2018-06-29 08:58:13.093750,28.07,51.88
25636,2018-06-29 08:58:13.125000,33.3,51.88
25637,2018-06-29 08:58:13.156250,37.18,51.88
25638,2018-06-29 08:58:13.187500,40.2,51.88
25639,2018-06-29 08:58:13.218750,42.57,51.88
25640,2018-06-29 08:58:13.250000,45.1,51.88
25641,2018-06-29 08:58:13.281250,47.14,51.88
25642,2018-06-29 08:58:13.312500,46.95,51.88
25643,2018-06-29 08:58:13.343750,44.67,51.88
25644,2018-06-29 08:58:13.375000,41.78,51.88
25645,2018-06-29 08:58:13.406250,38.58,51.88
25646,2018-06-29 08:58:13.437500,34.9,51.88
25647,2018-06-29 08:58:13.468750,31.19,51.88
25648,2018-06-29 08:58:13.500000,27.22,51.88
25649,2018-06-29 08:58:13.531250,21.54,52.05
25650,2018-06-29 08:58:13.562500,13.28,52.05
25651,2018-06-29 08:58:13.593750,3.14,52.05
25652,2018-06-29 08:58:13.625000,-7.24,52.05
25653,2018-06-29 08:58:13.656250,-15.89,52.05
25654,2018-06-29 08:58:13.687500,-21.27,52.05
25655,2018-06-29 08:58:13.718750,-23.79,52.05
25656,2018-06-29 08:58:13.750000,-25.34,52.05
25657,2018-06-29 08:58:13.781250,-26.97,52.05
25658,2018-06-29 08:58:13.812500,-28.4,52.05
25659,2018-06-29 08:58:13.843750,-29.59,52.05
25660,2018-06-29 08:58:13.875000,-31.19,52.05
25661,2018-06-29 08:58:13.906250,-33.17,52.05
25662,2018-06-29 08:58:13.937500,-34.07,52.05
25663,2018-06-29 08:58:13.968750,-32.58,52.05
25664,2018-06-29 08:58:14.000000,-30.22,52.05
25665,2018-06-29 08:58:14.031250,-30.77,52.05
25666,2018-06-29 08:58:14.062500,-36.41,52.05
25667,2018-06-29 08:58:14.093750,-44.64,52.05
25668,2018-06-29 08:58:14.125000,-48.8,52.05
25669,2018-06-29 08:58:14.156250,-42.82,52.05
25670,2018-06-29 08:58:14.187500,-27.32,52.05
25671,2018-06-29 08:58:14.218750,-9.19,52.05
25672,2018-06-29 08:58:14.250000,5.71,52.05
25673,2018-06-29 08:58:14.281250,16.24,52.05
25674,2018-06-29 08:58:14.312500,23.01,52.05
25675,2018-06-29 08:58:14.343750,26.45,52.05
25676,2018-06-29 08:58:14.375000,27.67,52.05
25677,2018-06-29 08:58:14.406250,28.46,52.05
25678,2018-06-29 08:58:14.437500,30.06,52.05
25679,2018-06-29 08:58:14.468750,32.87,52.05
25680,2018-06-29 08:58:14.500000,36.24,52.05
25681,2018-06-29 08:58:14.531250,38.19,52.23
25682,2018-06-29 08:58:14.562500,36.84,52.23
25683,2018-06-29 08:58:14.593750,32.89,52.23
25684,2018-06-29 08:58:14.625000,28.88,52.23
25685,2018-06-29 08:58:14.656250,25.97,52.23
25686,2018-06-29 08:58:14.687500,23.31,52.23
25687,2018-06-29 08:58:14.718750,20.1,52.23
25688,2018-06-29 08:58:14.750000,16.6,52.23
25689,2018-06-29 08:58:14.781250,13.74,52.23
25690,2018-06-29 08:58:14.812500,12.03,52.23
25691,2018-06-29 08:58:14.843750,10.86,52.23
25692,2018-06-29 08:58:14.875000,9.25,52.23
25693,2018-06-29 08:58:14.906250,6.78,52.23
25694,2018-06-29 08:58:14.937500,3.36,52.23
25695,2018-06-29 08:58:14.968750,-0.47,52.23
25696,2018-06-29 08:58:15.000000,-3.64,52.23
25697,2018-06-29 08:58:15.031250,-5.93,52.23
25698,2018-06-29 08:58:15.062500,-8.49,52.23
25699,2018-06-29 08:58:15.093750,-12.33,52.23
25700,2018-06-29 08:58:15.125000,-17.11,52.23
25701,2018-06-29 08:58:15.156250,-21.45,52.23
25702,2018-06-29 08:58:15.187500,-24.96,52.23
25703,2018-06-29 08:58:15.218750,-29.31,52.23
25704,2018-06-29 08:58:15.250000,-36.17,52.23
25705,2018-06-29 08:58:15.281250,-43.85,52.23
25706,2018-06-29 08:58:15.312500,-46.92,52.23
25707,2018-06-29 08:58:15.343750,-40.3,52.23
25708,2018-06-29 08:58:15.375000,-24.41,52.23
25709,2018-06-29 08:58:15.406250,-6.02,52.23
25710,2018-06-29 08:58:15.437500,7.63,52.23
25711,2018-06-29 08:58:15.468750,14.59,52.23
25712,2018-06-29 08:58:15.500000,16.81,52.23
25713,2018-06-29 08:58:15.531250,15.96,52.4
25714,2018-06-29 08:58:15.562500,13.43,52.4
25715,2018-06-29 08:58:15.593750,11.47,52.4
25716,2018-06-29 08:58:15.625000,11.22,52.4
25717,2018-06-29 08:58:15.656250,12.07,52.4
25718,2018-06-29 08:58:15.687500,13.78,52.4
25719,2018-06-29 08:58:15.718750,16.33,52.4
25720,2018-06-29 08:58:15.750000,18.31,52.4
25721,2018-06-29 08:58:15.781250,17.97,52.4
25722,2018-06-29 08:58:15.812500,15.18,52.4
25723,2018-06-29 08:58:15.843750,11.43,52.4
25724,2018-06-29 08:58:15.875000,8.63,52.4
25725,2018-06-29 08:58:15.906250,7.09,52.4
25726,2018-06-29 08:58:15.937500,5.34,52.4
25727,2018-06-29 08:58:15.968750,2.81,52.4
25728,2018-06-29 08:58:16.000000,0.7,52.4
25729,2018-06-29 08:58:16.031250,-0.6,52.4
25730,2018-06-29 08:58:16.062500,-2.25,52.4
25731,2018-06-29 08:58:16.093750,-5.03,52.4
25732,2018-06-29 08:58:16.125000,-9.1,52.4
25733,2018-06-29 08:58:16.156250,-14.45,52.4
25734,2018-06-29 08:58:16.187500,-20.22,52.4
25735,2018-06-29 08:58:16.218750,-25.22,52.4
25736,2018-06-29 08:58:16.250000,-29.75,52.4
25737,2018-06-29 08:58:16.281250,-35.59,52.4
25738,2018-06-29 08:58:16.312500,-44.02,52.4
25739,2018-06-29 08:58:16.343750,-54.26,52.4
25740,2018-06-29 08:58:16.375000,-62.35,52.4
25741,2018-06-29 08:58:16.406250,-62.17,52.4
25742,2018-06-29 08:58:16.437500,-50.94,52.4
25743,2018-06-29 08:58:16.468750,-33.31,52.4
25744,2018-06-29 08:58:16.500000,-16.56,52.4
25745,2018-06-29 08:58:16.531250,-3.7,52.57
25746,2018-06-29 08:58:16.562500,5.45,52.57
25747,2018-06-29 08:58:16.593750,10.82,52.57
25748,2018-06-29 08:58:16.625000,13.26,52.57
25749,2018-06-29 08:58:16.656250,15.17,52.57
25750,2018-06-29 08:58:16.687500,17.79,52.57
25751,2018-06-29 08:58:16.718750,20.92,52.57
25752,2018-06-29 08:58:16.750000,24.42,52.57
25753,2018-06-29 08:58:16.781250,27.9,52.57
25754,2018-06-29 08:58:16.812500,30.16,52.57
25755,2018-06-29 08:58:16.843750,30.15,52.57
25756,2018-06-29 08:58:16.875000,27.93,52.57
25757,2018-06-29 08:58:16.906250,24.76,52.57
25758,2018-06-29 08:58:16.937500,22.09,52.57
25759,2018-06-29 08:58:16.968750,20.25,52.57
25760,2018-06-29 08:58:17.000000,18.53,52.57
25761,2018-06-29 08:58:17.031250,16.41,52.57
25762,2018-06-29 08:58:17.062500,14.17,52.57
25763,2018-06-29 08:58:17.093750,12.31,52.57
25764,2018-06-29 08:58:17.125000,10.83,52.57
25765,2018-06-29 08:58:17.156250,8.93,52.57
25766,2018-06-29 08:58:17.187500,5.99,52.57
25767,2018-06-29 08:58:17.218750,2.77,52.57
25768,2018-06-29 08:58:17.250000,0.32,52.57
25769,2018-06-29 08:58:17.281250,-2.02,52.57
25770,2018-06-29 08:58:17.312500,-5.45,52.57
25771,2018-06-29 08:58:17.343750,-9.9,52.57
25772,2018-06-29 08:58:17.375000,-14.82,52.57
25773,2018-06-29 08:58:17.406250,-20.24,52.57
25774,2018-06-29 08:58:17.437500,-25.66,52.57
25775,2018-06-29 08:58:17.468750,-30.22,52.57
25776,2018-06-29 08:58:17.500000,-34.21,52.57
25777,2018-06-29 08:58:17.531250,-39.47,52.7
25778,2018-06-29 08:58:17.562500,-47.74,52.7
25779,2018-06-29 08:58:17.593750,-57.51,52.7
25780,2018-06-29 08:58:17.625000,-62.31,52.7
25781,2018-06-29 08:58:17.656250,-55.93,52.7
25782,2018-06-29 08:58:17.687500,-39.68,52.7
25783,2018-06-29 08:58:17.718750,-21.09,52.7
25784,2018-06-29 08:58:17.750000,-6.0,52.7
25785,2018-06-29 08:58:17.781250,4.75,52.7
25786,2018-06-29 08:58:17.812500,12.14,52.7
25787,2018-06-29 08:58:17.843750,16.53,52.7
25788,2018-06-29 08:58:17.875000,18.47,52.7
25789,2018-06-29 08:58:17.906250,19.4,52.7
25790,2018-06-29 08:58:17.937500,20.54,52.7
25791,2018-06-29 08:58:17.968750,22.06,52.7
25792,2018-06-29 08:58:18.000000,23.73,52.7
25793,2018-06-29 08:58:18.031250,25.29,52.7
25794,2018-06-29 08:58:18.062500,26.2,52.7
25795,2018-06-29 08:58:18.093750,26.09,52.7
25796,2018-06-29 08:58:18.125000,25.31,52.7
25797,2018-06-29 08:58:18.156250,24.27,52.7
25798,2018-06-29 08:58:18.187500,22.67,52.7
25799,2018-06-29 08:58:18.218750,20.44,52.7
25800,2018-06-29 08:58:18.250000,18.16,52.7
25801,2018-06-29 08:58:18.281250,16.17,52.7
25802,2018-06-29 08:58:18.312500,14.36,52.7
25803,2018-06-29 08:58:18.343750,13.04,52.7
25804,2018-06-29 08:58:18.375000,12.7,52.7
25805,2018-06-29 08:58:18.406250,12.5,52.7
25806,2018-06-29 08:58:18.437500,11.26,52.7
25807,2018-06-29 08:58:18.468750,9.52,52.7
25808,2018-06-29 08:58:18.500000,8.06,52.7
25809,2018-06-29 08:58:18.531250,6.19,52.82
25810,2018-06-29 08:58:18.562500,3.22,52.82
25811,2018-06-29 08:58:18.593750,-0.4,52.82
25812,2018-06-29 08:58:18.625000,-4.16,52.82
25813,2018-06-29 08:58:18.656250,-7.95,52.82
25814,2018-06-29 08:58:18.687500,-11.81,52.82
25815,2018-06-29 08:58:18.718750,-16.03,52.82
25816,2018-06-29 08:58:18.750000,-20.79,52.82
25817,2018-06-29 08:58:18.781250,-25.83,52.82
25818,2018-06-29 08:58:18.812500,-30.77,52.82
25819,2018-06-29 08:58:18.843750,-35.7,52.82
25820,2018-06-29 08:58:18.875000,-41.73,52.82
25821,2018-06-29 08:58:18.906250,-49.88,52.82
25822,2018-06-29 08:58:18.937500,-57.21,52.82
25823,2018-06-29 08:58:18.968750,-56.92,52.82
25824,2018-06-29 08:58:19.000000,-45.41,52.82
25825,2018-06-29 08:58:19.031250,-26.76,52.82
25826,2018-06-29 08:58:19.062500,-8.35,52.82
25827,2018-06-29 08:58:19.093750,5.27,52.82
25828,2018-06-29 08:58:19.125000,13.63,52.82
25829,2018-06-29 08:58:19.156250,18.11,52.82
25830,2018-06-29 08:58:19.187500,19.76,52.82
25831,2018-06-29 08:58:19.218750,19.62,52.82
25832,2018-06-29 08:58:19.250000,19.45,52.82
25833,2018-06-29 08:58:19.281250,20.72,52.82
25834,2018-06-29 08:58:19.312500,23.38,52.82
25835,2018-06-29 08:58:19.343750,26.39,52.82
25836,2018-06-29 08:58:19.375000,28.67,52.82
25837,2018-06-29 08:58:19.406250,29.27,52.82
25838,2018-06-29 08:58:19.437500,27.87,52.82
25839,2018-06-29 08:58:19.468750,25.13,52.82
25840,2018-06-29 08:58:19.500000,22.02,52.82
25841,2018-06-29 08:58:19.531250,19.31,52.93
25842,2018-06-29 08:58:19.562500,17.28,52.93
25843,2018-06-29 08:58:19.593750,15.32,52.93
25844,2018-06-29 08:58:19.625000,12.95,52.93
25845,2018-06-29 08:58:19.656250,10.61,52.93
25846,2018-06-29 08:58:19.687500,8.21,52.93
25847,2018-06-29 08:58:19.718750,4.74,52.93
25848,2018-06-29 08:58:19.750000,0.34,52.93
25849,2018-06-29 08:58:19.781250,-3.54,52.93
25850,2018-06-29 08:58:19.812500,-6.85,52.93
25851,2018-06-29 08:58:19.843750,-10.98,52.93
25852,2018-06-29 08:58:19.875000,-16.53,52.93
25853,2018-06-29 08:58:19.906250,-22.89,52.93
25854,2018-06-29 08:58:19.937500,-28.92,52.93
25855,2018-06-29 08:58:19.968750,-33.82,52.93
25856,2018-06-29 08:58:20.000000,-38.36,52.93
25857,2018-06-29 08:58:20.031250,-44.96,52.93
25858,2018-06-29 08:58:20.062500,-54.36,52.93
25859,2018-06-29 08:58:20.093750,-61.83,52.93
25860,2018-06-29 08:58:20.125000,-59.94,52.93
25861,2018-06-29 08:58:20.156250,-46.8,52.93
25862,2018-06-29 08:58:20.187500,-28.68,52.93
25863,2018-06-29 08:58:20.218750,-12.63,52.93
25864,2018-06-29 08:58:20.250000,-0.51,52.93
25865,2018-06-29 08:58:20.281250,8.31,52.93
25866,2018-06-29 08:58:20.312500,13.66,52.93
25867,2018-06-29 08:58:20.343750,16.02,52.93
25868,2018-06-29 08:58:20.375000,17.76,52.93
25869,2018-06-29 08:58:20.406250,20.53,52.93
25870,2018-06-29 08:58:20.437500,23.93,52.93
25871,2018-06-29 08:58:20.468750,27.12,52.93
25872,2018-06-29 08:58:20.500000,29.94,52.93
25873,2018-06-29 08:58:20.531250,32.11,53.03
25874,2018-06-29 08:58:20.562500,32.79,53.03
25875,2018-06-29 08:58:20.593750,31.48,53.03
25876,2018-06-29 08:58:20.625000,28.84,53.03
25877,2018-06-29 08:58:20.656250,26.11,53.03
25878,2018-06-29 08:58:20.687500,23.85,53.03
25879,2018-06-29 08:58:20.718750,21.71,53.03
25880,2018-06-29 08:58:20.750000,19.3,53.03
25881,2018-06-29 08:58:20.781250,16.93,53.03
25882,2018-06-29 08:58:20.812500,15.18,53.03
25883,2018-06-29 08:58:20.843750,13.49,53.03
25884,2018-06-29 08:58:20.875000,10.84,53.03
25885,2018-06-29 08:58:20.906250,7.74,53.03
25886,2018-06-29 08:58:20.937500,5.23,53.03
25887,2018-06-29 08:58:20.968750,2.88,53.03
25888,2018-06-29 08:58:21.000000,-0.29,53.03
25889,2018-06-29 08:58:21.031250,-4.3,53.03
25890,2018-06-29 08:58:21.062500,-8.58,53.03
25891,2018-06-29 08:58:21.093750,-12.71,53.03
25892,2018-06-29 08:58:21.125000,-16.97,53.03
25893,2018-06-29 08:58:21.156250,-22.07,53.03
25894,2018-06-29 08:58:21.187500,-27.77,53.03
25895,2018-06-29 08:58:21.218750,-32.89,53.03
25896,2018-06-29 08:58:21.250000,-37.2,53.03
25897,2018-06-29 08:58:21.281250,-42.56,53.03
25898,2018-06-29 08:58:21.312500,-51.43,53.03
25899,2018-06-29 08:58:21.343750,-63.19,53.03
25900,2018-06-29 08:58:21.375000,-71.53,53.03
25901,2018-06-29 08:58:21.406250,-68.63,53.03
25902,2018-06-29 08:58:21.437500,-53.51,53.03
25903,2018-06-29 08:58:21.468750,-33.06,53.03
25904,2018-06-29 08:58:21.500000,-14.25,53.03
25905,2018-06-29 08:58:21.531250,0.38,53.1
25906,2018-06-29 08:58:21.562500,10.62,53.1
25907,2018-06-29 08:58:21.593750,16.89,53.1
25908,2018-06-29 08:58:21.625000,20.74,53.1
25909,2018-06-29 08:58:21.656250,23.55,53.1
25910,2018-06-29 08:58:21.687500,25.51,53.1
25911,2018-06-29 08:58:21.718750,27.02,53.1
25912,2018-06-29 08:58:21.750000,29.25,53.1
25913,2018-06-29 08:58:21.781250,32.4,53.1
25914,2018-06-29 08:58:21.812500,35.1,53.1
25915,2018-06-29 08:58:21.843750,35.95,53.1
25916,2018-06-29 08:58:21.875000,34.79,53.1
25917,2018-06-29 08:58:21.906250,32.61,53.1
25918,2018-06-29 08:58:21.937500,30.49,53.1
25919,2018-06-29 08:58:21.968750,28.67,53.1
25920,2018-06-29 08:58:22.000000,26.99,53.1
25921,2018-06-29 08:58:22.031250,25.88,53.1
25922,2018-06-29 08:58:22.062500,25.55,53.1
25923,2018-06-29 08:58:22.093750,24.98,53.1
25924,2018-06-29 08:58:22.125000,23.38,53.1
25925,2018-06-29 08:58:22.156250,21.3,53.1
25926,2018-06-29 08:58:22.187500,19.28,53.1
25927,2018-06-29 08:58:22.218750,16.96,53.1
25928,2018-06-29 08:58:22.250000,14.21,53.1
25929,2018-06-29 08:58:22.281250,11.41,53.1
25930,2018-06-29 08:58:22.312500,8.73,53.1
25931,2018-06-29 08:58:22.343750,5.87,53.1
25932,2018-06-29 08:58:22.375000,2.25,53.1
25933,2018-06-29 08:58:22.406250,-2.09,53.1
25934,2018-06-29 08:58:22.437500,-6.32,53.1
25935,2018-06-29 08:58:22.468750,-10.31,53.1
25936,2018-06-29 08:58:22.500000,-15.17,53.1
25937,2018-06-29 08:58:22.531250,-21.5,53.13
25938,2018-06-29 08:58:22.562500,-28.66,53.13
25939,2018-06-29 08:58:22.593750,-35.73,53.13
25940,2018-06-29 08:58:22.625000,-42.52,53.13
25941,2018-06-29 08:58:22.656250,-50.52,53.13
25942,2018-06-29 08:58:22.687500,-61.64,53.13
25943,2018-06-29 08:58:22.718750,-73.39,53.13
25944,2018-06-29 08:58:22.750000,-77.96,53.13
25945,2018-06-29 08:58:22.781250,-69.63,53.13
25946,2018-06-29 08:58:22.812500,-51.1,53.13
25947,2018-06-29 08:58:22.843750,-29.93,53.13
25948,2018-06-29 08:58:22.875000,-11.62,53.13
25949,2018-06-29 08:58:22.906250,2.17,53.13
25950,2018-06-29 08:58:22.937500,11.69,53.13
25951,2018-06-29 08:58:22.968750,17.85,53.13
25952,2018-06-29 08:58:23.000000,21.83,53.13
25953,2018-06-29 08:58:23.031250,24.97,53.13
25954,2018-06-29 08:58:23.062500,28.44,53.13
25955,2018-06-29 08:58:23.093750,32.42,53.13
25956,2018-06-29 08:58:23.125000,36.18,53.13
25957,2018-06-29 08:58:23.156250,39.28,53.13
25958,2018-06-29 08:58:23.187500,41.61,53.13
25959,2018-06-29 08:58:23.218750,42.19,53.13
25960,2018-06-29 08:58:23.250000,40.05,53.13
25961,2018-06-29 08:58:23.281250,36.1,53.13
25962,2018-06-29 08:58:23.312500,32.3,53.13
25963,2018-06-29 08:58:23.343750,29.43,53.13
25964,2018-06-29 08:58:23.375000,27.19,53.13
25965,2018-06-29 08:58:23.406250,25.02,53.13
25966,2018-06-29 08:58:23.437500,22.44,53.13
25967,2018-06-29 08:58:23.468750,19.76,53.13
25968,2018-06-29 08:58:23.500000,17.73,53.13
25969,2018-06-29 08:58:23.531250,15.62,53.17
25970,2018-06-29 08:58:23.562500,11.67,53.17
25971,2018-06-29 08:58:23.593750,6.16,53.17
25972,2018-06-29 08:58:23.625000,1.22,53.17
25973,2018-06-29 08:58:23.656250,-2.63,53.17
25974,2018-06-29 08:58:23.687500,-7.09,53.17
25975,2018-06-29 08:58:23.718750,-13.05,53.17
25976,2018-06-29 08:58:23.750000,-19.4,53.17
25977,2018-06-29 08:58:23.781250,-24.9,53.17
25978,2018-06-29 08:58:23.812500,-30.03,53.17
25979,2018-06-29 08:58:23.843750,-36.5,53.17
25980,2018-06-29 08:58:23.875000,-45.76,53.17
25981,2018-06-29 08:58:23.906250,-56.79,53.17
25982,2018-06-29 08:58:23.937500,-63.8,53.17
25983,2018-06-29 08:58:23.968750,-59.41,53.17
25984,2018-06-29 08:58:24.000000,-42.91,53.17
25985,2018-06-29 08:58:24.031250,-22.06,53.17
25986,2018-06-29 08:58:24.062500,-4.53,53.17
25987,2018-06-29 08:58:24.093750,8.0,53.17
25988,2018-06-29 08:58:24.125000,16.41,53.17
25989,2018-06-29 08:58:24.156250,20.7,53.17
25990,2018-06-29 08:58:24.187500,21.78,53.17
25991,2018-06-29 08:58:24.218750,22.55,53.17
25992,2018-06-29 08:58:24.250000,25.3,53.17
25993,2018-06-29 08:58:24.281250,29.93,53.17
25994,2018-06-29 08:58:24.312500,34.71,53.17
25995,2018-06-29 08:58:24.343750,37.64,53.17
25996,2018-06-29 08:58:24.375000,37.79,53.17
25997,2018-06-29 08:58:24.406250,35.72,53.17
25998,2018-06-29 08:58:24.437500,32.48,53.17
25999,2018-06-29 08:58:24.468750,29.07,53.17
26000,2018-06-29 08:58:24.500000,26.45,53.17
26001,2018-06-29 08:58:24.531250,24.66,53.2
26002,2018-06-29 08:58:24.562500,22.48,53.2
26003,2018-06-29 08:58:24.593750,19.41,53.2
26004,2018-06-29 08:58:24.625000,16.78,53.2
26005,2018-06-29 08:58:24.656250,15.5,53.2
26006,2018-06-29 08:58:24.687500,14.24,53.2
26007,2018-06-29 08:58:24.718750,11.61,53.2
26008,2018-06-29 08:58:24.750000,8.15,53.2
26009,2018-06-29 08:58:24.781250,4.3,53.2
26010,2018-06-29 08:58:24.812500,-0.82,53.2
26011,2018-06-29 08:58:24.843750,-6.62,53.2
26012,2018-06-29 08:58:24.875000,-10.81,53.2
26013,2018-06-29 08:58:24.906250,-13.34,53.2
26014,2018-06-29 08:58:24.937500,-17.12,53.2
26015,2018-06-29 08:58:24.968750,-23.57,53.2
26016,2018-06-29 08:58:25.000000,-30.85,53.2
26017,2018-06-29 08:58:25.031250,-37.19,53.2
26018,2018-06-29 08:58:25.062500,-43.46,53.2
26019,2018-06-29 08:58:25.093750,-52.1,53.2
26020,2018-06-29 08:58:25.125000,-64.21,53.2
26021,2018-06-29 08:58:25.156250,-76.55,53.2
26022,2018-06-29 08:58:25.187500,-81.36,53.2
26023,2018-06-29 08:58:25.218750,-72.32,53.2
26024,2018-06-29 08:58:25.250000,-52.09,53.2
26025,2018-06-29 08:58:25.281250,-30.29,53.2
26026,2018-06-29 08:58:25.312500,-13.27,53.2
26027,2018-06-29 08:58:25.343750,-0.41,53.2
26028,2018-06-29 08:58:25.375000,10.32,53.2
26029,2018-06-29 08:58:25.406250,18.52,53.2
26030,2018-06-29 08:58:25.437500,23.77,53.2
26031,2018-06-29 08:58:25.468750,27.75,53.2
26032,2018-06-29 08:58:25.500000,32.35,53.2
26033,2018-06-29 08:58:25.531250,37.38,53.22
26034,2018-06-29 08:58:25.562500,41.5,53.22
26035,2018-06-29 08:58:25.593750,43.98,53.22
26036,2018-06-29 08:58:25.625000,44.75,53.22
26037,2018-06-29 08:58:25.656250,43.7,53.22
26038,2018-06-29 08:58:25.687500,41.27,53.22
26039,2018-06-29 08:58:25.718750,38.82,53.22
26040,2018-06-29 08:58:25.750000,37.04,53.22
26041,2018-06-29 08:58:25.781250,35.12,53.22
26042,2018-06-29 08:58:25.812500,32.62,53.22
26043,2018-06-29 08:58:25.843750,30.52,53.22
26044,2018-06-29 08:58:25.875000,29.41,53.22
26045,2018-06-29 08:58:25.906250,28.29,53.22
26046,2018-06-29 08:58:25.937500,25.98,53.22
26047,2018-06-29 08:58:25.968750,22.39,53.22
26048,2018-06-29 08:58:26.000000,18.47,53.22
26049,2018-06-29 08:58:26.031250,15.17,53.22
26050,2018-06-29 08:58:26.062500,12.25,53.22
26051,2018-06-29 08:58:26.093750,8.76,53.22
26052,2018-06-29 08:58:26.125000,5.14,53.22
26053,2018-06-29 08:58:26.156250,2.63,53.22
26054,2018-06-29 08:58:26.187500,0.9,53.22
26055,2018-06-29 08:58:26.218750,-1.56,53.22
26056,2018-06-29 08:58:26.250000,-5.12,53.22
26057,2018-06-29 08:58:26.281250,-9.0,53.22
26058,2018-06-29 08:58:26.312500,-13.03,53.22
26059,2018-06-29 08:58:26.343750,-17.84,53.22
26060,2018-06-29 08:58:26.375000,-23.58,53.22
26061,2018-06-29 08:58:26.406250,-29.86,53.22
26062,2018-06-29 08:58:26.437500,-36.44,53.22
26063,2018-06-29 08:58:26.468750,-43.44,53.22
26064,2018-06-29 08:58:26.500000,-51.49,53.22
26065,2018-06-29 08:58:26.531250,-61.91,53.22
26066,2018-06-29 08:58:26.562500,-74.01,53.22
26067,2018-06-29 08:58:26.593750,-81.67,53.22
26068,2018-06-29 08:58:26.625000,-77.22,53.22
26069,2018-06-29 08:58:26.656250,-60.29,53.22
26070,2018-06-29 08:58:26.687500,-38.7,53.22
26071,2018-06-29 08:58:26.718750,-19.75,53.22
26072,2018-06-29 08:58:26.750000,-4.86,53.22
26073,2018-06-29 08:58:26.781250,7.29,53.22
26074,2018-06-29 08:58:26.812500,16.98,53.22
26075,2018-06-29 08:58:26.843750,23.9,53.22
26076,2018-06-29 08:58:26.875000,28.87,53.22
26077,2018-06-29 08:58:26.906250,33.18,53.22
26078,2018-06-29 08:58:26.937500,36.97,53.22
26079,2018-06-29 08:58:26.968750,39.92,53.22
26080,2018-06-29 08:58:27.000000,42.37,53.22
26081,2018-06-29 08:58:27.031250,44.29,53.22
26082,2018-06-29 08:58:27.062500,44.13,53.22
26083,2018-06-29 08:58:27.093750,40.95,53.22
26084,2018-06-29 08:58:27.125000,36.68,53.22
26085,2018-06-29 08:58:27.156250,34.12,53.22
26086,2018-06-29 08:58:27.187500,33.06,53.22
26087,2018-06-29 08:58:27.218750,31.09,53.22
26088,2018-06-29 08:58:27.250000,27.98,53.22
26089,2018-06-29 08:58:27.281250,25.82,53.22
26090,2018-06-29 08:58:27.312500,25.13,53.22
26091,2018-06-29 08:58:27.343750,23.97,53.22
26092,2018-06-29 08:58:27.375000,20.8,53.22
26093,2018-06-29 08:58:27.406250,16.44,53.22
26094,2018-06-29 08:58:27.437500,12.89,53.22
26095,2018-06-29 08:58:27.468750,10.56,53.22
26096,2018-06-29 08:58:27.500000,7.65,53.22
26097,2018-06-29 08:58:27.531250,3.08,53.23
26098,2018-06-29 08:58:27.562500,-1.93,53.23
26099,2018-06-29 08:58:27.593750,-5.96,53.23
26100,2018-06-29 08:58:27.625000,-9.54,53.23
26101,2018-06-29 08:58:27.656250,-14.21,53.23
26102,2018-06-29 08:58:27.687500,-20.1,53.23
26103,2018-06-29 08:58:27.718750,-25.89,53.23
26104,2018-06-29 08:58:27.750000,-31.24,53.23
26105,2018-06-29 08:58:27.781250,-37.86,53.23
26106,2018-06-29 08:58:27.812500,-47.26,53.23
26107,2018-06-29 08:58:27.843750,-57.57,53.23
26108,2018-06-29 08:58:27.875000,-62.91,53.23
26109,2018-06-29 08:58:27.906250,-57.51,53.23
26110,2018-06-29 08:58:27.937500,-41.56,53.23
26111,2018-06-29 08:58:27.968750,-21.73,53.23
26112,2018-06-29 08:58:28.000000,-4.89,53.23
26113,2018-06-29 08:58:28.031250,6.8,53.23
26114,2018-06-29 08:58:28.062500,14.18,53.23
26115,2018-06-29 08:58:28.093750,17.78,53.23
26116,2018-06-29 08:58:28.125000,18.58,53.23
26117,2018-06-29 08:58:28.156250,19.48,53.23
26118,2018-06-29 08:58:28.187500,22.51,53.23
26119,2018-06-29 08:58:28.218750,26.81,53.23
26120,2018-06-29 08:58:28.250000,30.66,53.23
26121,2018-06-29 08:58:28.281250,33.17,53.23
26122,2018-06-29 08:58:28.312500,33.73,53.23
26123,2018-06-29 08:58:28.343750,32.0,53.23
26124,2018-06-29 08:58:28.375000,28.44,53.23
26125,2018-06-29 08:58:28.406250,24.47,53.23
26126,2018-06-29 08:58:28.437500,21.7,53.23
26127,2018-06-29 08:58:28.468750,20.45,53.23
26128,2018-06-29 08:58:28.500000,19.47,53.23
26129,2018-06-29 08:58:28.531250,17.78,53.25
26130,2018-06-29 08:58:28.562500,15.54,53.25
26131,2018-06-29 08:58:28.593750,13.24,53.25
26132,2018-06-29 08:58:28.625000,10.96,53.25
26133,2018-06-29 08:58:28.656250,8.29,53.25
26134,2018-06-29 08:58:28.687500,4.51,53.25
26135,2018-06-29 08:58:28.718750,-0.3,53.25
26136,2018-06-29 08:58:28.750000,-4.85,53.25
26137,2018-06-29 08:58:28.781250,-8.36,53.25
26138,2018-06-29 08:58:28.812500,-11.71,53.25
26139,2018-06-29 08:58:28.843750,-16.2,53.25
26140,2018-06-29 08:58:28.875000,-22.07,53.25
26141,2018-06-29 08:58:28.906250,-28.57,53.25
26142,2018-06-29 08:58:28.937500,-34.92,53.25
26143,2018-06-29 08:58:28.968750,-41.06,53.25
26144,2018-06-29 08:58:29.000000,-48.1,53.25
26145,2018-06-29 08:58:29.031250,-57.6,53.25
26146,2018-06-29 08:58:29.062500,-68.24,53.25
26147,2018-06-29 08:58:29.093750,-73.45,53.25
26148,2018-06-29 08:58:29.125000,-66.76,53.25
26149,2018-06-29 08:58:29.156250,-49.77,53.25
26150,2018-06-29 08:58:29.187500,-30.45,53.25
26151,2018-06-29 08:58:29.218750,-14.2,53.25
26152,2018-06-29 08:58:29.250000,-1.04,53.25
26153,2018-06-29 08:58:29.281250,9.95,53.25
26154,2018-06-29 08:58:29.312500,18.5,53.25
26155,2018-06-29 08:58:29.343750,24.41,53.25
26156,2018-06-29 08:58:29.375000,28.36,53.25
26157,2018-06-29 08:58:29.406250,31.42,53.25
26158,2018-06-29 08:58:29.437500,34.41,53.25
26159,2018-06-29 08:58:29.468750,37.47,53.25
26160,2018-06-29 08:58:29.500000,40.13,53.25
26161,2018-06-29 08:58:29.531250,41.41,53.27
26162,2018-06-29 08:58:29.562500,40.24,53.27
26163,2018-06-29 08:58:29.593750,36.51,53.27
26164,2018-06-29 08:58:29.625000,31.99,53.27
26165,2018-06-29 08:58:29.656250,28.84,53.27
26166,2018-06-29 08:58:29.687500,27.13,53.27
26167,2018-06-29 08:58:29.718750,25.23,53.27
26168,2018-06-29 08:58:29.750000,22.64,53.27
26169,2018-06-29 08:58:29.781250,20.24,53.27
26170,2018-06-29 08:58:29.812500,18.19,53.27
26171,2018-06-29 08:58:29.843750,16.04,53.27
26172,2018-06-29 08:58:29.875000,13.9,53.27
26173,2018-06-29 08:58:29.906250,11.84,53.27
26174,2018-06-29 08:58:29.937500,9.2,53.27
26175,2018-06-29 08:58:29.968750,5.79,53.27
26176,2018-06-29 08:58:30.000000,2.23,53.27
26177,2018-06-29 08:58:30.031250,-1.39,53.27
26178,2018-06-29 08:58:30.062500,-5.26,53.27
26179,2018-06-29 08:58:30.093750,-8.98,53.27
26180,2018-06-29 08:58:30.125000,-12.39,53.27
26181,2018-06-29 08:58:30.156250,-16.73,53.27
26182,2018-06-29 08:58:30.187500,-22.86,53.27
26183,2018-06-29 08:58:30.218750,-29.53,53.27
26184,2018-06-29 08:58:30.250000,-35.13,53.27
26185,2018-06-29 08:58:30.281250,-40.15,53.27
26186,2018-06-29 08:58:30.312500,-46.86,53.27
26187,2018-06-29 08:58:30.343750,-56.65,53.27
26188,2018-06-29 08:58:30.375000,-66.72,53.27
26189,2018-06-29 08:58:30.406250,-70.07,53.27
26190,2018-06-29 08:58:30.437500,-61.73,53.27
26191,2018-06-29 08:58:30.468750,-44.49,53.27
26192,2018-06-29 08:58:30.500000,-25.93,53.27
26193,2018-06-29 08:58:30.531250,-10.89,53.27
26194,2018-06-29 08:58:30.562500,0.49,53.27
26195,2018-06-29 08:58:30.593750,9.49,53.27
26196,2018-06-29 08:58:30.625000,16.67,53.27
26197,2018-06-29 08:58:30.656250,22.09,53.27
26198,2018-06-29 08:58:30.687500,25.92,53.27
26199,2018-06-29 08:58:30.718750,28.8,53.27
26200,2018-06-29 08:58:30.750000,31.76,53.27
26201,2018-06-29 08:58:30.781250,35.25,53.27
26202,2018-06-29 08:58:30.812500,38.23,53.27
26203,2018-06-29 08:58:30.843750,38.97,53.27
26204,2018-06-29 08:58:30.875000,36.99,53.27
26205,2018-06-29 08:58:30.906250,33.83,53.27
26206,2018-06-29 08:58:30.937500,31.29,53.27
26207,2018-06-29 08:58:30.968750,29.67,53.27
26208,2018-06-29 08:58:31.000000,28.22,53.27
26209,2018-06-29 08:58:31.031250,26.26,53.27
26210,2018-06-29 08:58:31.062500,23.7,53.27
26211,2018-06-29 08:58:31.093750,21.12,53.27
26212,2018-06-29 08:58:31.125000,19.04,53.27
26213,2018-06-29 08:58:31.156250,16.94,53.27
26214,2018-06-29 08:58:31.187500,14.02,53.27
26215,2018-06-29 08:58:31.218750,10.63,53.27
26216,2018-06-29 08:58:31.250000,7.59,53.27
26217,2018-06-29 08:58:31.281250,4.88,53.27
26218,2018-06-29 08:58:31.312500,2.49,53.27
26219,2018-06-29 08:58:31.343750,0.47,53.27
26220,2018-06-29 08:58:31.375000,-1.85,53.27
26221,2018-06-29 08:58:31.406250,-4.97,53.27
26222,2018-06-29 08:58:31.437500,-8.21,53.27
26223,2018-06-29 08:58:31.468750,-11.24,53.27
26224,2018-06-29 08:58:31.500000,-15.04,53.27
26225,2018-06-29 08:58:31.531250,-20.28,53.27
26226,2018-06-29 08:58:31.562500,-26.31,53.27
26227,2018-06-29 08:58:31.593750,-31.9,53.27
26228,2018-06-29 08:58:31.625000,-36.17,53.27
26229,2018-06-29 08:58:31.656250,-39.62,53.27
26230,2018-06-29 08:58:31.687500,-44.67,53.27
26231,2018-06-29 08:58:31.718750,-52.68,53.27
26232,2018-06-29 08:58:31.750000,-59.41,53.27
26233,2018-06-29 08:58:31.781250,-57.05,53.27
26234,2018-06-29 08:58:31.812500,-43.12,53.27
26235,2018-06-29 08:58:31.843750,-23.95,53.27
26236,2018-06-29 08:58:31.875000,-7.56,53.27
26237,2018-06-29 08:58:31.906250,3.27,53.27
26238,2018-06-29 08:58:31.937500,9.9,53.27
26239,2018-06-29 08:58:31.968750,13.97,53.27
26240,2018-06-29 08:58:32.000000,16.58,53.27
26241,2018-06-29 08:58:32.031250,18.59,53.27
26242,2018-06-29 08:58:32.062500,20.57,53.27
26243,2018-06-29 08:58:32.093750,22.8,53.27
26244,2018-06-29 08:58:32.125000,25.15,53.27
26245,2018-06-29 08:58:32.156250,27.25,53.27
26246,2018-06-29 08:58:32.187500,28.9,53.27
26247,2018-06-29 08:58:32.218750,29.67,53.27
26248,2018-06-29 08:58:32.250000,28.67,53.27
26249,2018-06-29 08:58:32.281250,25.7,53.27
26250,2018-06-29 08:58:32.312500,22.11,53.27
26251,2018-06-29 08:58:32.343750,19.48,53.27
26252,2018-06-29 08:58:32.375000,18.15,53.27
26253,2018-06-29 08:58:32.406250,17.33,53.27
26254,2018-06-29 08:58:32.437500,16.19,53.27
26255,2018-06-29 08:58:32.468750,14.77,53.27
26256,2018-06-29 08:58:32.500000,13.24,53.27
26257,2018-06-29 08:58:32.531250,11.08,53.25
26258,2018-06-29 08:58:32.562500,8.21,53.25
26259,2018-06-29 08:58:32.593750,5.5,53.25
26260,2018-06-29 08:58:32.625000,2.98,53.25
26261,2018-06-29 08:58:32.656250,-0.52,53.25
26262,2018-06-29 08:58:32.687500,-4.74,53.25
26263,2018-06-29 08:58:32.718750,-8.05,53.25
26264,2018-06-29 08:58:32.750000,-10.6,53.25
26265,2018-06-29 08:58:32.781250,-14.48,53.25
26266,2018-06-29 08:58:32.812500,-20.29,53.25
26267,2018-06-29 08:58:32.843750,-26.53,53.25
26268,2018-06-29 08:58:32.875000,-31.93,53.25
26269,2018-06-29 08:58:32.906250,-36.64,53.25
26270,2018-06-29 08:58:32.937500,-42.5,53.25
26271,2018-06-29 08:58:32.968750,-51.63,53.25
26272,2018-06-29 08:58:33.000000,-61.89,53.25
26273,2018-06-29 08:58:33.031250,-65.81,53.25
26274,2018-06-29 08:58:33.062500,-57.9,53.25
26275,2018-06-29 08:58:33.093750,-40.78,53.25
26276,2018-06-29 08:58:33.125000,-22.14,53.25
26277,2018-06-29 08:58:33.156250,-7.84,53.25
26278,2018-06-29 08:58:33.187500,1.26,53.25
26279,2018-06-29 08:58:33.218750,7.82,53.25
26280,2018-06-29 08:58:33.250000,13.85,53.25
26281,2018-06-29 08:58:33.281250,18.92,53.25
26282,2018-06-29 08:58:33.312500,22.51,53.25
26283,2018-06-29 08:58:33.343750,25.19,53.25
26284,2018-06-29 08:58:33.375000,27.18,53.25
26285,2018-06-29 08:58:33.406250,28.48,53.25
26286,2018-06-29 08:58:33.437500,29.81,53.25
26287,2018-06-29 08:58:33.468750,31.26,53.25
26288,2018-06-29 08:58:33.500000,31.51,53.25
26289,2018-06-29 08:58:33.531250,29.88,53.22
26290,2018-06-29 08:58:33.562500,27.47,53.22
26291,2018-06-29 08:58:33.593750,25.36,53.22
26292,2018-06-29 08:58:33.625000,23.39,53.22
26293,2018-06-29 08:58:33.656250,21.2,53.22
26294,2018-06-29 08:58:33.687500,19.07,53.22
26295,2018-06-29 08:58:33.718750,17.34,53.22
26296,2018-06-29 08:58:33.750000,15.74,53.22
26297,2018-06-29 08:58:33.781250,13.72,53.22
26298,2018-06-29 08:58:33.812500,11.46,53.22
26299,2018-06-29 08:58:33.843750,9.51,53.22
26300,2018-06-29 08:58:33.875000,7.64,53.22
26301,2018-06-29 08:58:33.906250,5.15,53.22
26302,2018-06-29 08:58:33.937500,2.21,53.22
26303,2018-06-29 08:58:33.968750,-0.46,53.22
26304,2018-06-29 08:58:34.000000,-3.06,53.22
26305,2018-06-29 08:58:34.031250,-6.22,53.22
26306,2018-06-29 08:58:34.062500,-9.56,53.22
26307,2018-06-29 08:58:34.093750,-12.48,53.22
26308,2018-06-29 08:58:34.125000,-15.74,53.22
26309,2018-06-29 08:58:34.156250,-20.46,53.22
26310,2018-06-29 08:58:34.187500,-26.24,53.22
26311,2018-06-29 08:58:34.218750,-31.44,53.22
26312,2018-06-29 08:58:34.250000,-35.38,53.22
26313,2018-06-29 08:58:34.281250,-39.54,53.22
26314,2018-06-29 08:58:34.312500,-46.34,53.22
26315,2018-06-29 08:58:34.343750,-56.56,53.22
26316,2018-06-29 08:58:34.375000,-66.35,53.22
26317,2018-06-29 08:58:34.406250,-68.28,53.22
26318,2018-06-29 08:58:34.437500,-58.37,53.22
26319,2018-06-29 08:58:34.468750,-41.15,53.22
26320,2018-06-29 08:58:34.500000,-25.01,53.22
26321,2018-06-29 08:58:34.531250,-14.0,53.18
26322,2018-06-29 08:58:34.562500,-6.84,53.18
26323,2018-06-29 08:58:34.593750,-1.46,53.18
26324,2018-06-29 08:58:34.625000,2.68,53.18
26325,2018-06-29 08:58:34.656250,5.57,53.18
26326,2018-06-29 08:58:34.687500,7.26,53.18
26327,2018-06-29 08:58:34.718750,7.8,53.18
26328,2018-06-29 08:58:34.750000,7.97,53.18
26329,2018-06-29 08:58:34.781250,9.42,53.18
26330,2018-06-29 08:58:34.812500,12.48,53.18
26331,2018-06-29 08:58:34.843750,15.21,53.18
26332,2018-06-29 08:58:34.875000,16.26,53.18
26333,2018-06-29 08:58:34.906250,16.64,53.18
26334,2018-06-29 08:58:34.937500,18.01,53.18
26335,2018-06-29 08:58:34.968750,21.26,53.18
26336,2018-06-29 08:58:35.000000,26.11,53.18
26337,2018-06-29 08:58:35.031250,30.83,53.18
26338,2018-06-29 08:58:35.062500,33.68,53.18
26339,2018-06-29 08:58:35.093750,34.59,53.18
26340,2018-06-29 08:58:35.125000,34.61,53.18
26341,2018-06-29 08:58:35.156250,34.24,53.18
26342,2018-06-29 08:58:35.187500,33.16,53.18
26343,2018-06-29 08:58:35.218750,30.95,53.18
26344,2018-06-29 08:58:35.250000,27.78,53.18
26345,2018-06-29 08:58:35.281250,24.24,53.18
26346,2018-06-29 08:58:35.312500,20.49,53.18
26347,2018-06-29 08:58:35.343750,16.31,53.18
26348,2018-06-29 08:58:35.375000,11.83,53.18
26349,2018-06-29 08:58:35.406250,7.43,53.18
26350,2018-06-29 08:58:35.437500,3.26,53.18
26351,2018-06-29 08:58:35.468750,-0.69,53.18
26352,2018-06-29 08:58:35.500000,-4.9,53.18
26353,2018-06-29 08:58:35.531250,-10.29,53.15
26354,2018-06-29 08:58:35.562500,-17.03,53.15
26355,2018-06-29 08:58:35.593750,-24.11,53.15
26356,2018-06-29 08:58:35.625000,-31.17,53.15
26357,2018-06-29 08:58:35.656250,-39.46,53.15
26358,2018-06-29 08:58:35.687500,-49.78,53.15
26359,2018-06-29 08:58:35.718750,-58.98,53.15
26360,2018-06-29 08:58:35.750000,-60.41,53.15
26361,2018-06-29 08:58:35.781250,-50.85,53.15
26362,2018-06-29 08:58:35.812500,-35.07,53.15
26363,2018-06-29 08:58:35.843750,-20.39,53.15
26364,2018-06-29 08:58:35.875000,-9.39,53.15
26365,2018-06-29 08:58:35.906250,-0.99,53.15
26366,2018-06-29 08:58:35.937500,5.5,53.15
26367,2018-06-29 08:58:35.968750,9.89,53.15
26368,2018-06-29 08:58:36.000000,12.44,53.15
26369,2018-06-29 08:58:36.031250,14.18,53.15
26370,2018-06-29 08:58:36.062500,16.12,53.15
26371,2018-06-29 08:58:36.093750,18.22,53.15
26372,2018-06-29 08:58:36.125000,20.14,53.15
26373,2018-06-29 08:58:36.156250,21.97,53.15
26374,2018-06-29 08:58:36.187500,22.87,53.15
26375,2018-06-29 08:58:36.218750,21.59,53.15
26376,2018-06-29 08:58:36.250000,18.71,53.15
26377,2018-06-29 08:58:36.281250,15.71,53.15
26378,2018-06-29 08:58:36.312500,12.77,53.15
26379,2018-06-29 08:58:36.343750,9.35,53.15
26380,2018-06-29 08:58:36.375000,5.59,53.15
26381,2018-06-29 08:58:36.406250,2.06,53.15
26382,2018-06-29 08:58:36.437500,-0.88,53.15
26383,2018-06-29 08:58:36.468750,-3.71,53.15
26384,2018-06-29 08:58:36.500000,-7.61,53.15
26385,2018-06-29 08:58:36.531250,-12.95,53.1
26386,2018-06-29 08:58:36.562500,-18.69,53.1
26387,2018-06-29 08:58:36.593750,-23.92,53.1
26388,2018-06-29 08:58:36.625000,-29.19,53.1
26389,2018-06-29 08:58:36.656250,-35.28,53.1
26390,2018-06-29 08:58:36.687500,-41.47,53.1
26391,2018-06-29 08:58:36.718750,-46.19,53.1
26392,2018-06-29 08:58:36.750000,-49.3,53.1
26393,2018-06-29 08:58:36.781250,-52.51,53.1
26394,2018-06-29 08:58:36.812500,-57.2,53.1
26395,2018-06-29 08:58:36.843750,-61.89,53.1
26396,2018-06-29 08:58:36.875000,-60.7,53.1
26397,2018-06-29 08:58:36.906250,-46.54,53.1
26398,2018-06-29 08:58:36.937500,-19.44,53.1
26399,2018-06-29 08:58:36.968750,10.29,53.1
26400,2018-06-29 08:58:37.000000,31.69,53.1
26401,2018-06-29 08:58:37.031250,43.21,53.1
26402,2018-06-29 08:58:37.062500,49.15,53.1
26403,2018-06-29 08:58:37.093750,51.42,53.1
26404,2018-06-29 08:58:37.125000,50.93,53.1
26405,2018-06-29 08:58:37.156250,50.46,53.1
26406,2018-06-29 08:58:37.187500,49.84,53.1
26407,2018-06-29 08:58:37.218750,44.65,53.1
26408,2018-06-29 08:58:37.250000,33.62,53.1
26409,2018-06-29 08:58:37.281250,21.56,53.1
26410,2018-06-29 08:58:37.312500,12.94,53.1
26411,2018-06-29 08:58:37.343750,7.7,53.1
26412,2018-06-29 08:58:37.375000,4.73,53.1
26413,2018-06-29 08:58:37.406250,4.58,53.1
26414,2018-06-29 08:58:37.437500,7.15,53.1
26415,2018-06-29 08:58:37.468750,9.92,53.1
26416,2018-06-29 08:58:37.500000,11.19,53.1
26417,2018-06-29 08:58:37.531250,12.57,53.2
26418,2018-06-29 08:58:37.562500,15.51,53.2
26419,2018-06-29 08:58:37.593750,17.87,53.2
26420,2018-06-29 08:58:37.625000,16.4,53.2
26421,2018-06-29 08:58:37.656250,10.71,53.2
26422,2018-06-29 08:58:37.687500,3.2,53.2
26423,2018-06-29 08:58:37.718750,-4.09,53.2
26424,2018-06-29 08:58:37.750000,-11.96,53.2
26425,2018-06-29 08:58:37.781250,-22.87,53.2
26426,2018-06-29 08:58:37.812500,-36.84,53.2
26427,2018-06-29 08:58:37.843750,-48.86,53.2
26428,2018-06-29 08:58:37.875000,-52.16,53.2
26429,2018-06-29 08:58:37.906250,-44.66,53.2
26430,2018-06-29 08:58:37.937500,-30.59,53.2
26431,2018-06-29 08:58:37.968750,-15.55,53.2
26432,2018-06-29 08:58:38.000000,-2.34,53.2
26433,2018-06-29 08:58:38.031250,8.1,53.2
26434,2018-06-29 08:58:38.062500,15.22,53.2
26435,2018-06-29 08:58:38.093750,19.08,53.2
26436,2018-06-29 08:58:38.125000,20.85,53.2
26437,2018-06-29 08:58:38.156250,22.43,53.2
26438,2018-06-29 08:58:38.187500,25.3,53.2
26439,2018-06-29 08:58:38.218750,29.21,53.2
26440,2018-06-29 08:58:38.250000,32.53,53.2
26441,2018-06-29 08:58:38.281250,34.24,53.2
26442,2018-06-29 08:58:38.312500,34.26,53.2
26443,2018-06-29 08:58:38.343750,32.64,53.2
26444,2018-06-29 08:58:38.375000,29.85,53.2
26445,2018-06-29 08:58:38.406250,26.79,53.2
26446,2018-06-29 08:58:38.437500,23.69,53.2
26447,2018-06-29 08:58:38.468750,20.5,53.2
26448,2018-06-29 08:58:38.500000,17.98,53.2
26449,2018-06-29 08:58:38.531250,16.31,53.32
26450,2018-06-29 08:58:38.562500,13.55,53.32
26451,2018-06-29 08:58:38.593750,7.75,53.32
26452,2018-06-29 08:58:38.625000,-0.5,53.32
26453,2018-06-29 08:58:38.656250,-8.99,53.32
26454,2018-06-29 08:58:38.687500,-16.27,53.32
26455,2018-06-29 08:58:38.718750,-22.96,53.32
26456,2018-06-29 08:58:38.750000,-31.09,53.32
26457,2018-06-29 08:58:38.781250,-41.45,53.32
26458,2018-06-29 08:58:38.812500,-50.34,53.32
26459,2018-06-29 08:58:38.843750,-51.09,53.32
26460,2018-06-29 08:58:38.875000,-40.57,53.32
26461,2018-06-29 08:58:38.906250,-23.05,53.32
26462,2018-06-29 08:58:38.937500,-5.82,53.32
26463,2018-06-29 08:58:38.968750,7.68,53.32
26464,2018-06-29 08:58:39.000000,18.04,53.32
26465,2018-06-29 08:58:39.031250,25.66,53.32
26466,2018-06-29 08:58:39.062500,30.12,53.32
26467,2018-06-29 08:58:39.093750,32.38,53.32
26468,2018-06-29 08:58:39.125000,34.48,53.32
26469,2018-06-29 08:58:39.156250,37.0,53.32
26470,2018-06-29 08:58:39.187500,39.11,53.32
26471,2018-06-29 08:58:39.218750,40.59,53.32
26472,2018-06-29 08:58:39.250000,41.75,53.32
26473,2018-06-29 08:58:39.281250,42.03,53.32
26474,2018-06-29 08:58:39.312500,40.52,53.32
26475,2018-06-29 08:58:39.343750,37.57,53.32
26476,2018-06-29 08:58:39.375000,34.41,53.32
26477,2018-06-29 08:58:39.406250,31.8,53.32
26478,2018-06-29 08:58:39.437500,29.56,53.32
26479,2018-06-29 08:58:39.468750,27.0,53.32
26480,2018-06-29 08:58:39.500000,23.53,53.32
26481,2018-06-29 08:58:39.531250,19.4,53.45
26482,2018-06-29 08:58:39.562500,14.98,53.45
26483,2018-06-29 08:58:39.593750,10.35,53.45
26484,2018-06-29 08:58:39.625000,5.98,53.45
26485,2018-06-29 08:58:39.656250,2.54,53.45
26486,2018-06-29 08:58:39.687500,-0.6,53.45
26487,2018-06-29 08:58:39.718750,-4.18,53.45
26488,2018-06-29 08:58:39.750000,-7.46,53.45
26489,2018-06-29 08:58:39.781250,-10.18,53.45
26490,2018-06-29 08:58:39.812500,-14.18,53.45
26491,2018-06-29 08:58:39.843750,-20.33,53.45
26492,2018-06-29 08:58:39.875000,-26.58,53.45
26493,2018-06-29 08:58:39.906250,-31.21,53.45
26494,2018-06-29 08:58:39.937500,-35.84,53.45
26495,2018-06-29 08:58:39.968750,-42.7,53.45
26496,2018-06-29 08:58:40.000000,-51.57,53.45
26497,2018-06-29 08:58:40.031250,-60.67,53.45
26498,2018-06-29 08:58:40.062500,-69.0,53.45
26499,2018-06-29 08:58:40.093750,-77.13,53.45
26500,2018-06-29 08:58:40.125000,-86.06,53.45
26501,2018-06-29 08:58:40.156250,-95.19,53.45
26502,2018-06-29 08:58:40.187500,-100.62,53.45
26503,2018-06-29 08:58:40.218750,-96.08,53.45
26504,2018-06-29 08:58:40.250000,-78.01,53.45
26505,2018-06-29 08:58:40.281250,-50.93,53.45
26506,2018-06-29 08:58:40.312500,-25.16,53.45
26507,2018-06-29 08:58:40.343750,-7.38,53.45
26508,2018-06-29 08:58:40.375000,4.23,53.45
26509,2018-06-29 08:58:40.406250,14.73,53.45
26510,2018-06-29 08:58:40.437500,25.68,53.45
26511,2018-06-29 08:58:40.468750,34.77,53.45
26512,2018-06-29 08:58:40.500000,39.89,53.45
26513,2018-06-29 08:58:40.531250,41.78,53.57
26514,2018-06-29 08:58:40.562500,44.71,53.57
26515,2018-06-29 08:58:40.593750,54.4,53.57
26516,2018-06-29 08:58:40.625000,70.14,53.57
26517,2018-06-29 08:58:40.656250,80.02,53.57
26518,2018-06-29 08:58:40.687500,71.23,53.57
26519,2018-06-29 08:58:40.718750,45.44,53.57
26520,2018-06-29 08:58:40.750000,19.7,53.57
26521,2018-06-29 08:58:40.781250,11.37,53.57
26522,2018-06-29 08:58:40.812500,22.51,53.57
26523,2018-06-29 08:58:40.843750,41.04,53.57
26524,2018-06-29 08:58:40.875000,57.85,53.57
26525,2018-06-29 08:58:40.906250,74.74,53.57
26526,2018-06-29 08:58:40.937500,95.26,53.57
26527,2018-06-29 08:58:40.968750,118.97,53.57
26528,2018-06-29 08:58:41.000000,144.04,53.57
26529,2018-06-29 08:58:41.031250,165.13,53.57
26530,2018-06-29 08:58:41.062500,173.69,53.57
26531,2018-06-29 08:58:41.093750,166.44,53.57
26532,2018-06-29 08:58:41.125000,149.36,53.57
26533,2018-06-29 08:58:41.156250,132.54,53.57
26534,2018-06-29 08:58:41.187500,121.57,53.57
26535,2018-06-29 08:58:41.218750,111.66,53.57
26536,2018-06-29 08:58:41.250000,92.97,53.57
26537,2018-06-29 08:58:41.281250,61.66,53.57
26538,2018-06-29 08:58:41.312500,21.7,53.57
26539,2018-06-29 08:58:41.343750,-19.16,53.57
26540,2018-06-29 08:58:41.375000,-51.01,53.57
26541,2018-06-29 08:58:41.406250,-67.19,53.57
26542,2018-06-29 08:58:41.437500,-71.54,53.57
26543,2018-06-29 08:58:41.468750,-73.89,53.57
26544,2018-06-29 08:58:41.500000,-78.75,53.57
26545,2018-06-29 08:58:41.531250,-83.07,54.0
26546,2018-06-29 08:58:41.562500,-83.11,54.0
26547,2018-06-29 08:58:41.593750,-78.61,54.0
26548,2018-06-29 08:58:41.625000,-71.35,54.0
26549,2018-06-29 08:58:41.656250,-63.19,54.0
26550,2018-06-29 08:58:41.687500,-55.77,54.0
26551,2018-06-29 08:58:41.718750,-49.45,54.0
26552,2018-06-29 08:58:41.750000,-41.79,54.0
26553,2018-06-29 08:58:41.781250,-30.49,54.0
26554,2018-06-29 08:58:41.812500,-18.94,54.0
26555,2018-06-29 08:58:41.843750,-13.94,54.0
26556,2018-06-29 08:58:41.875000,-15.6,54.0
26557,2018-06-29 08:58:41.906250,-16.97,54.0
26558,2018-06-29 08:58:41.937500,-15.93,54.0
26559,2018-06-29 08:58:41.968750,-18.26,54.0
26560,2018-06-29 08:58:42.000000,-27.23,54.0
26561,2018-06-29 08:58:42.031250,-38.38,54.0
26562,2018-06-29 08:58:42.062500,-46.35,54.0
26563,2018-06-29 08:58:42.093750,-49.91,54.0
26564,2018-06-29 08:58:42.125000,-50.79,54.0
26565,2018-06-29 08:58:42.156250,-52.92,54.0
26566,2018-06-29 08:58:42.187500,-57.93,54.0
26567,2018-06-29 08:58:42.218750,-58.47,54.0
26568,2018-06-29 08:58:42.250000,-46.43,54.0
26569,2018-06-29 08:58:42.281250,-29.37,54.0
26570,2018-06-29 08:58:42.312500,-24.7,54.0
26571,2018-06-29 08:58:42.343750,-36.93,54.0
26572,2018-06-29 08:58:42.375000,-54.13,54.0
26573,2018-06-29 08:58:42.406250,-65.72,54.0
26574,2018-06-29 08:58:42.437500,-71.13,54.0
26575,2018-06-29 08:58:42.468750,-71.96,54.0
26576,2018-06-29 08:58:42.500000,-68.26,54.0
26577,2018-06-29 08:58:42.531250,-64.37,54.33
26578,2018-06-29 08:58:42.562500,-68.39,54.33
26579,2018-06-29 08:58:42.593750,-83.33,54.33
26580,2018-06-29 08:58:42.625000,-106.96,54.33
26581,2018-06-29 08:58:42.656250,-135.69,54.33
26582,2018-06-29 08:58:42.687500,-157.64,54.33
26583,2018-06-29 08:58:42.718750,-152.23,54.33
26584,2018-06-29 08:58:42.750000,-112.3,54.33
26585,2018-06-29 08:58:42.781250,-57.16,54.33
26586,2018-06-29 08:58:42.812500,-11.92,54.33
26587,2018-06-29 08:58:42.843750,17.42,54.33
26588,2018-06-29 08:58:42.875000,41.32,54.33
26589,2018-06-29 08:58:42.906250,68.02,54.33
26590,2018-06-29 08:58:42.937500,93.85,54.33
26591,2018-06-29 08:58:42.968750,112.12,54.33
26592,2018-06-29 08:58:43.000000,127.59,54.33
26593,2018-06-29 08:58:43.031250,153.38,54.33
26594,2018-06-29 08:58:43.062500,192.74,54.33
26595,2018-06-29 08:58:43.093750,232.15,54.33
26596,2018-06-29 08:58:43.125000,252.3,54.33
26597,2018-06-29 08:58:43.156250,243.08,54.33
26598,2018-06-29 08:58:43.187500,211.94,54.33
26599,2018-06-29 08:58:43.218750,177.33,54.33
26600,2018-06-29 08:58:43.250000,149.71,54.33
26601,2018-06-29 08:58:43.281250,125.36,54.33
26602,2018-06-29 08:58:43.312500,99.48,54.33
26603,2018-06-29 08:58:43.343750,69.36,54.33
26604,2018-06-29 08:58:43.375000,32.23,54.33
26605,2018-06-29 08:58:43.406250,-4.99,54.33
26606,2018-06-29 08:58:43.437500,-35.29,54.33
26607,2018-06-29 08:58:43.468750,-73.06,54.33
26608,2018-06-29 08:58:43.500000,-127.55,54.33
26609,2018-06-29 08:58:43.531250,-173.36,54.63
26610,2018-06-29 08:58:43.562500,-191.87,54.63
26611,2018-06-29 08:58:43.593750,-202.99,54.63
26612,2018-06-29 08:58:43.625000,-218.47,54.63
26613,2018-06-29 08:58:43.656250,-218.47,54.63
26614,2018-06-29 08:58:43.687500,-196.06,54.63
26615,2018-06-29 08:58:43.718750,-170.12,54.63
26616,2018-06-29 08:58:43.750000,-149.67,54.63
26617,2018-06-29 08:58:43.781250,-128.73,54.63
26618,2018-06-29 08:58:43.812500,-109.61,54.63
26619,2018-06-29 08:58:43.843750,-102.04,54.63
26620,2018-06-29 08:58:43.875000,-105.66,54.63
26621,2018-06-29 08:58:43.906250,-109.62,54.63
26622,2018-06-29 08:58:43.937500,-105.39,54.63
26623,2018-06-29 08:58:43.968750,-92.91,54.63
26624,2018-06-29 08:58:44.000000,-76.73,54.63
26625,2018-06-29 08:58:44.031250,-60.15,54.63
26626,2018-06-29 08:58:44.062500,-43.77,54.63
26627,2018-06-29 08:58:44.093750,-28.07,54.63
26628,2018-06-29 08:58:44.125000,-14.3,54.63
26629,2018-06-29 08:58:44.156250,-2.31,54.63
26630,2018-06-29 08:58:44.187500,9.65,54.63
26631,2018-06-29 08:58:44.218750,22.87,54.63
26632,2018-06-29 08:58:44.250000,37.11,54.63
26633,2018-06-29 08:58:44.281250,51.42,54.63
26634,2018-06-29 08:58:44.312500,64.92,54.63
26635,2018-06-29 08:58:44.343750,75.87,54.63
26636,2018-06-29 08:58:44.375000,80.92,54.63
26637,2018-06-29 08:58:44.406250,78.24,54.63
26638,2018-06-29 08:58:44.437500,70.02,54.63
26639,2018-06-29 08:58:44.468750,59.83,54.63
26640,2018-06-29 08:58:44.500000,49.56,54.63
26641,2018-06-29 08:58:44.531250,39.6,54.92
26642,2018-06-29 08:58:44.562500,29.67,54.92
26643,2018-06-29 08:58:44.593750,19.81,54.92
26644,2018-06-29 08:58:44.625000,12.0,54.92
26645,2018-06-29 08:58:44.656250,8.18,54.92
26646,2018-06-29 08:58:44.687500,6.3,54.92
26647,2018-06-29 08:58:44.718750,2.74,54.92
26648,2018-06-29 08:58:44.750000,-2.51,54.92
26649,2018-06-29 08:58:44.781250,-7.57,54.92
26650,2018-06-29 08:58:44.812500,-12.95,54.92
26651,2018-06-29 08:58:44.843750,-20.0,54.92
26652,2018-06-29 08:58:44.875000,-27.61,54.92
26653,2018-06-29 08:58:44.906250,-33.45,54.92
26654,2018-06-29 08:58:44.937500,-37.32,54.92
26655,2018-06-29 08:58:44.968750,-42.2,54.92
26656,2018-06-29 08:58:45.000000,-51.53,54.92
26657,2018-06-29 08:58:45.031250,-63.36,54.92
26658,2018-06-29 08:58:45.062500,-68.23,54.92
26659,2018-06-29 08:58:45.093750,-57.64,54.92
26660,2018-06-29 08:58:45.125000,-33.27,54.92
26661,2018-06-29 08:58:45.156250,-4.7,54.92
26662,2018-06-29 08:58:45.187500,20.19,54.92
26663,2018-06-29 08:58:45.218750,39.24,54.92
26664,2018-06-29 08:58:45.250000,52.76,54.92
26665,2018-06-29 08:58:45.281250,60.71,54.92
26666,2018-06-29 08:58:45.312500,63.7,54.92
26667,2018-06-29 08:58:45.343750,64.14,54.92
26668,2018-06-29 08:58:45.375000,64.7,54.92
26669,2018-06-29 08:58:45.406250,66.18,54.92
26670,2018-06-29 08:58:45.437500,67.83,54.92
26671,2018-06-29 08:58:45.468750,68.66,54.92
26672,2018-06-29 08:58:45.500000,67.5,54.92
26673,2018-06-29 08:58:45.531250,63.18,55.23
26674,2018-06-29 08:58:45.562500,56.02,55.23
26675,2018-06-29 08:58:45.593750,48.11,55.23
26676,2018-06-29 08:58:45.625000,40.91,55.23
26677,2018-06-29 08:58:45.656250,33.86,55.23
26678,2018-06-29 08:58:45.687500,26.63,55.23
26679,2018-06-29 08:58:45.718750,20.82,55.23
26680,2018-06-29 08:58:45.750000,17.9,55.23
26681,2018-06-29 08:58:45.781250,16.85,55.23
26682,2018-06-29 08:58:45.812500,14.95,55.23
26683,2018-06-29 08:58:45.843750,10.63,55.23
26684,2018-06-29 08:58:45.875000,5.17,55.23
26685,2018-06-29 08:58:45.906250,0.18,55.23
26686,2018-06-29 08:58:45.937500,-5.93,55.23
26687,2018-06-29 08:58:45.968750,-15.59,55.23
26688,2018-06-29 08:58:46.000000,-27.15,55.23
26689,2018-06-29 08:58:46.031250,-37.55,55.23
26690,2018-06-29 08:58:46.062500,-47.69,55.23
26691,2018-06-29 08:58:46.093750,-60.8,55.23
26692,2018-06-29 08:58:46.125000,-77.9,55.23
26693,2018-06-29 08:58:46.156250,-95.85,55.23
26694,2018-06-29 08:58:46.187500,-105.99,55.23
26695,2018-06-29 08:58:46.218750,-98.18,55.23
26696,2018-06-29 08:58:46.250000,-71.91,55.23
26697,2018-06-29 08:58:46.281250,-38.76,55.23
26698,2018-06-29 08:58:46.312500,-9.93,55.23
26699,2018-06-29 08:58:46.343750,12.48,55.23
26700,2018-06-29 08:58:46.375000,30.89,55.23
26701,2018-06-29 08:58:46.406250,46.15,55.23
26702,2018-06-29 08:58:46.437500,57.54,55.23
26703,2018-06-29 08:58:46.468750,64.77,55.23
26704,2018-06-29 08:58:46.500000,68.82,55.23
26705,2018-06-29 08:58:46.531250,71.22,55.82
26706,2018-06-29 08:58:46.562500,73.08,55.82
26707,2018-06-29 08:58:46.593750,74.92,55.82
26708,2018-06-29 08:58:46.625000,76.55,55.82
26709,2018-06-29 08:58:46.656250,76.39,55.82
26710,2018-06-29 08:58:46.687500,72.8,55.82
26711,2018-06-29 08:58:46.718750,66.7,55.82
26712,2018-06-29 08:58:46.750000,60.44,55.82
26713,2018-06-29 08:58:46.781250,54.86,55.82
26714,2018-06-29 08:58:46.812500,49.4,55.82
26715,2018-06-29 08:58:46.843750,43.98,55.82
26716,2018-06-29 08:58:46.875000,38.94,55.82
26717,2018-06-29 08:58:46.906250,34.36,55.82
26718,2018-06-29 08:58:46.937500,30.28,55.82
26719,2018-06-29 08:58:46.968750,26.4,55.82
26720,2018-06-29 08:58:47.000000,22.38,55.82
26721,2018-06-29 08:58:47.031250,18.36,55.82
26722,2018-06-29 08:58:47.062500,13.96,55.82
26723,2018-06-29 08:58:47.093750,7.89,55.82
26724,2018-06-29 08:58:47.125000,0.13,55.82
26725,2018-06-29 08:58:47.156250,-7.64,55.82
26726,2018-06-29 08:58:47.187500,-14.91,55.82
26727,2018-06-29 08:58:47.218750,-23.52,55.82
26728,2018-06-29 08:58:47.250000,-34.98,55.82
26729,2018-06-29 08:58:47.281250,-48.39,55.82
26730,2018-06-29 08:58:47.312500,-61.82,55.82
26731,2018-06-29 08:58:47.343750,-74.71,55.82
26732,2018-06-29 08:58:47.375000,-88.12,55.82
26733,2018-06-29 08:58:47.406250,-104.19,55.82
26734,2018-06-29 08:58:47.437500,-124.84,55.82
26735,2018-06-29 08:58:47.468750,-146.94,55.82
26736,2018-06-29 08:58:47.500000,-160.1,55.82
26737,2018-06-29 08:58:47.531250,-155.85,56.4
26738,2018-06-29 08:58:47.562500,-137.19,56.4
26739,2018-06-29 08:58:47.593750,-112.64,56.4
26740,2018-06-29 08:58:47.625000,-85.01,56.4
26741,2018-06-29 08:58:47.656250,-52.85,56.4
26742,2018-06-29 08:58:47.687500,-18.27,56.4
26743,2018-06-29 08:58:47.718750,13.06,56.4
26744,2018-06-29 08:58:47.750000,36.99,56.4
26745,2018-06-29 08:58:47.781250,53.06,56.4
26746,2018-06-29 08:58:47.812500,63.05,56.4
26747,2018-06-29 08:58:47.843750,69.1,56.4
26748,2018-06-29 08:58:47.875000,73.06,56.4
26749,2018-06-29 08:58:47.906250,75.97,56.4
26750,2018-06-29 08:58:47.937500,77.13,56.4
26751,2018-06-29 08:58:47.968750,75.29,56.4
26752,2018-06-29 08:58:48.000000,71.01,56.4
26753,2018-06-29 08:58:48.031250,65.92,56.4
26754,2018-06-29 08:58:48.062500,60.12,56.4
26755,2018-06-29 08:58:48.093750,52.95,56.4
26756,2018-06-29 08:58:48.125000,45.13,56.4
26757,2018-06-29 08:58:48.156250,37.79,56.4
26758,2018-06-29 08:58:48.187500,31.14,56.4
26759,2018-06-29 08:58:48.218750,25.67,56.4
26760,2018-06-29 08:58:48.250000,22.03,56.4
26761,2018-06-29 08:58:48.281250,18.94,56.4
26762,2018-06-29 08:58:48.312500,14.34,56.4
26763,2018-06-29 08:58:48.343750,8.1,56.4
26764,2018-06-29 08:58:48.375000,1.59,56.4
26765,2018-06-29 08:58:48.406250,-3.63,56.4
26766,2018-06-29 08:58:48.437500,-6.28,56.4
26767,2018-06-29 08:58:48.468750,-6.95,56.4
26768,2018-06-29 08:58:48.500000,-8.36,56.4
26769,2018-06-29 08:58:48.531250,-11.98,56.97
26770,2018-06-29 08:58:48.562500,-16.96,56.97
26771,2018-06-29 08:58:48.593750,-22.85,56.97
26772,2018-06-29 08:58:48.625000,-30.66,56.97
26773,2018-06-29 08:58:48.656250,-42.11,56.97
26774,2018-06-29 08:58:48.687500,-57.4,56.97
26775,2018-06-29 08:58:48.718750,-69.87,56.97
26776,2018-06-29 08:58:48.750000,-66.86,56.97
26777,2018-06-29 08:58:48.781250,-42.53,56.97
26778,2018-06-29 08:58:48.812500,-5.36,56.97
26779,2018-06-29 08:58:48.843750,31.91,56.97
26780,2018-06-29 08:58:48.875000,63.48,56.97
26781,2018-06-29 08:58:48.906250,89.34,56.97
26782,2018-06-29 08:58:48.937500,110.04,56.97
26783,2018-06-29 08:58:48.968750,125.29,56.97
26784,2018-06-29 08:58:49.000000,133.79,56.97
26785,2018-06-29 08:58:49.031250,133.97,56.97
26786,2018-06-29 08:58:49.062500,126.05,56.97
26787,2018-06-29 08:58:49.093750,112.54,56.97
26788,2018-06-29 08:58:49.125000,96.92,56.97
26789,2018-06-29 08:58:49.156250,82.23,56.97
26790,2018-06-29 08:58:49.187500,69.85,56.97
26791,2018-06-29 08:58:49.218750,59.3,56.97
26792,2018-06-29 08:58:49.250000,49.55,56.97
26793,2018-06-29 08:58:49.281250,40.34,56.97
26794,2018-06-29 08:58:49.312500,32.07,56.97
26795,2018-06-29 08:58:49.343750,24.86,56.97
26796,2018-06-29 08:58:49.375000,18.83,56.97
26797,2018-06-29 08:58:49.406250,14.68,56.97
26798,2018-06-29 08:58:49.437500,12.34,56.97
26799,2018-06-29 08:58:49.468750,9.68,56.97
26800,2018-06-29 08:58:49.500000,4.14,56.97
26801,2018-06-29 08:58:49.531250,-5.84,57.53
26802,2018-06-29 08:58:49.562500,-20.67,57.53
26803,2018-06-29 08:58:49.593750,-38.42,57.53
26804,2018-06-29 08:58:49.625000,-55.04,57.53
26805,2018-06-29 08:58:49.656250,-67.76,57.53
26806,2018-06-29 08:58:49.687500,-75.75,57.53
26807,2018-06-29 08:58:49.718750,-77.01,57.53
26808,2018-06-29 08:58:49.750000,-68.76,57.53
26809,2018-06-29 08:58:49.781250,-51.01,57.53
26810,2018-06-29 08:58:49.812500,-29.64,57.53
26811,2018-06-29 08:58:49.843750,-14.59,57.53
26812,2018-06-29 08:58:49.875000,-11.62,57.53
26813,2018-06-29 08:58:49.906250,-16.72,57.53
26814,2018-06-29 08:58:49.937500,-22.27,57.53
26815,2018-06-29 08:58:49.968750,-24.83,57.53
26816,2018-06-29 08:58:50.000000,-23.29,57.53
26817,2018-06-29 08:58:50.031250,-16.32,57.53
26818,2018-06-29 08:58:50.062500,-5.4,57.53
26819,2018-06-29 08:58:50.093750,5.62,57.53
26820,2018-06-29 08:58:50.125000,14.85,57.53
26821,2018-06-29 08:58:50.156250,22.21,57.53
26822,2018-06-29 08:58:50.187500,27.36,57.53
26823,2018-06-29 08:58:50.218750,30.98,57.53
26824,2018-06-29 08:58:50.250000,34.4,57.53
26825,2018-06-29 08:58:50.281250,36.13,57.53
26826,2018-06-29 08:58:50.312500,33.03,57.53
26827,2018-06-29 08:58:50.343750,25.5,57.53
26828,2018-06-29 08:58:50.375000,17.19,57.53
26829,2018-06-29 08:58:50.406250,9.93,57.53
26830,2018-06-29 08:58:50.437500,1.82,57.53
26831,2018-06-29 08:58:50.468750,-9.7,57.53
26832,2018-06-29 08:58:50.500000,-22.93,57.53
26833,2018-06-29 08:58:50.531250,-30.22,58.1
26834,2018-06-29 08:58:50.562500,-24.68,58.1
26835,2018-06-29 08:58:50.593750,-8.86,58.1
26836,2018-06-29 08:58:50.625000,7.52,58.1
26837,2018-06-29 08:58:50.656250,17.43,58.1
26838,2018-06-29 08:58:50.687500,19.72,58.1
26839,2018-06-29 08:58:50.718750,15.64,58.1
26840,2018-06-29 08:58:50.750000,6.6,58.1
26841,2018-06-29 08:58:50.781250,-5.59,58.1
26842,2018-06-29 08:58:50.812500,-18.5,58.1
26843,2018-06-29 08:58:50.843750,-29.14,58.1
26844,2018-06-29 08:58:50.875000,-35.08,58.1
26845,2018-06-29 08:58:50.906250,-35.21,58.1
26846,2018-06-29 08:58:50.937500,-29.22,58.1
26847,2018-06-29 08:58:50.968750,-17.19,58.1
26848,2018-06-29 08:58:51.000000,-1.17,58.1
26849,2018-06-29 08:58:51.031250,14.91,58.1
26850,2018-06-29 08:58:51.062500,28.07,58.1
26851,2018-06-29 08:58:51.093750,37.35,58.1
26852,2018-06-29 08:58:51.125000,42.42,58.1
26853,2018-06-29 08:58:51.156250,43.84,58.1
26854,2018-06-29 08:58:51.187500,43.67,58.1
26855,2018-06-29 08:58:51.218750,42.21,58.1
26856,2018-06-29 08:58:51.250000,35.8,58.1
26857,2018-06-29 08:58:51.281250,20.95,58.1
26858,2018-06-29 08:58:51.312500,-1.65,58.1
26859,2018-06-29 08:58:51.343750,-26.1,58.1
26860,2018-06-29 08:58:51.375000,-42.14,58.1
26861,2018-06-29 08:58:51.406250,-41.71,58.1
26862,2018-06-29 08:58:51.437500,-27.59,58.1
26863,2018-06-29 08:58:51.468750,-11.24,58.1
26864,2018-06-29 08:58:51.500000,-2.56,58.1
26865,2018-06-29 08:58:51.531250,-4.76,58.65
26866,2018-06-29 08:58:51.562500,-14.4,58.65
26867,2018-06-29 08:58:51.593750,-23.46,58.65
26868,2018-06-29 08:58:51.625000,-24.89,58.65
26869,2018-06-29 08:58:51.656250,-17.74,58.65
26870,2018-06-29 08:58:51.687500,-6.71,58.65
26871,2018-06-29 08:58:51.718750,2.87,58.65
26872,2018-06-29 08:58:51.750000,9.77,58.65
26873,2018-06-29 08:58:51.781250,16.02,58.65
26874,2018-06-29 08:58:51.812500,21.55,58.65
26875,2018-06-29 08:58:51.843750,22.97,58.65
26876,2018-06-29 08:58:51.875000,17.82,58.65
26877,2018-06-29 08:58:51.906250,6.77,58.65
26878,2018-06-29 08:58:51.937500,-7.15,58.65
26879,2018-06-29 08:58:51.968750,-19.85,58.65
26880,2018-06-29 08:58:52.000000,-28.32,58.65
26881,2018-06-29 08:58:52.031250,-31.93,58.65
26882,2018-06-29 08:58:52.062500,-31.35,58.65
26883,2018-06-29 08:58:52.093750,-28.12,58.65
26884,2018-06-29 08:58:52.125000,-26.47,58.65
26885,2018-06-29 08:58:52.156250,-31.58,58.65
26886,2018-06-29 08:58:52.187500,-42.57,58.65
26887,2018-06-29 08:58:52.218750,-49.51,58.65
26888,2018-06-29 08:58:52.250000,-43.04,58.65
26889,2018-06-29 08:58:52.281250,-25.35,58.65
26890,2018-06-29 08:58:52.312500,-6.54,58.65
26891,2018-06-29 08:58:52.343750,6.15,58.65
26892,2018-06-29 08:58:52.375000,10.82,58.65
26893,2018-06-29 08:58:52.406250,7.96,58.65
26894,2018-06-29 08:58:52.437500,-0.45,58.65
26895,2018-06-29 08:58:52.468750,-11.56,58.65
26896,2018-06-29 08:58:52.500000,-22.75,58.65
26897,2018-06-29 08:58:52.531250,-31.35,59.22
26898,2018-06-29 08:58:52.562500,-35.28,59.22
26899,2018-06-29 08:58:52.593750,-34.45,59.22
26900,2018-06-29 08:58:52.625000,-30.34,59.22
26901,2018-06-29 08:58:52.656250,-25.21,59.22
26902,2018-06-29 08:58:52.687500,-21.17,59.22
26903,2018-06-29 08:58:52.718750,-18.34,59.22
26904,2018-06-29 08:58:52.750000,-14.4,59.22
26905,2018-06-29 08:58:52.781250,-7.52,59.22
26906,2018-06-29 08:58:52.812500,1.06,59.22
26907,2018-06-29 08:58:52.843750,8.23,59.22
26908,2018-06-29 08:58:52.875000,12.3,59.22
26909,2018-06-29 08:58:52.906250,12.96,59.22
26910,2018-06-29 08:58:52.937500,9.18,59.22
26911,2018-06-29 08:58:52.968750,2.85,59.22
26912,2018-06-29 08:58:53.000000,2.65,59.22
26913,2018-06-29 08:58:53.031250,16.27,59.22
26914,2018-06-29 08:58:53.062500,39.66,59.22
26915,2018-06-29 08:58:53.093750,60.65,59.22
26916,2018-06-29 08:58:53.125000,71.5,59.22
26917,2018-06-29 08:58:53.156250,72.07,59.22
26918,2018-06-29 08:58:53.187500,66.06,59.22
26919,2018-06-29 08:58:53.218750,57.58,59.22
26920,2018-06-29 08:58:53.250000,49.16,59.22
26921,2018-06-29 08:58:53.281250,39.57,59.22
26922,2018-06-29 08:58:53.312500,26.26,59.22
26923,2018-06-29 08:58:53.343750,9.96,59.22
26924,2018-06-29 08:58:53.375000,-4.98,59.22
26925,2018-06-29 08:58:53.406250,-15.22,59.22
26926,2018-06-29 08:58:53.437500,-23.84,59.22
26927,2018-06-29 08:58:53.468750,-33.41,59.22
26928,2018-06-29 08:58:53.500000,-42.34,59.22
26929,2018-06-29 08:58:53.531250,-46.85,59.78
26930,2018-06-29 08:58:53.562500,-49.87,59.78
26931,2018-06-29 08:58:53.593750,-57.36,59.78
26932,2018-06-29 08:58:53.625000,-68.19,59.78
26933,2018-06-29 08:58:53.656250,-77.04,59.78
26934,2018-06-29 08:58:53.687500,-79.62,59.78
26935,2018-06-29 08:58:53.718750,-80.88,59.78
26936,2018-06-29 08:58:53.750000,-80.17,59.78
26937,2018-06-29 08:58:53.781250,-68.85,59.78
26938,2018-06-29 08:58:53.812500,-31.93,59.78
26939,2018-06-29 08:58:53.843750,32.01,59.78
26940,2018-06-29 08:58:53.875000,104.62,59.78
26941,2018-06-29 08:58:53.906250,164.0,59.78
26942,2018-06-29 08:58:53.937500,172.36,59.78
26943,2018-06-29 08:58:53.968750,147.82,59.78
26944,2018-06-29 08:58:54.000000,134.01,59.78
26945,2018-06-29 08:58:54.031250,126.33,59.78
26946,2018-06-29 08:58:54.062500,117.43,59.78
26947,2018-06-29 08:58:54.093750,110.18,59.78
26948,2018-06-29 08:58:54.125000,98.86,59.78
26949,2018-06-29 08:58:54.156250,75.41,59.78
26950,2018-06-29 08:58:54.187500,45.22,59.78
26951,2018-06-29 08:58:54.218750,16.64,59.78
26952,2018-06-29 08:58:54.250000,-6.53,59.78
26953,2018-06-29 08:58:54.281250,-30.32,59.78
26954,2018-06-29 08:58:54.312500,-54.26,59.78
26955,2018-06-29 08:58:54.343750,-70.96,59.78
26956,2018-06-29 08:58:54.375000,-73.18,59.78
26957,2018-06-29 08:58:54.406250,-65.07,59.78
26958,2018-06-29 08:58:54.437500,-59.52,59.78
26959,2018-06-29 08:58:54.468750,-64.4,59.78
26960,2018-06-29 08:58:54.500000,-81.3,59.78
26961,2018-06-29 08:58:54.531250,-106.25,60.33
26962,2018-06-29 08:58:54.562500,-129.52,60.33
26963,2018-06-29 08:58:54.593750,-136.38,60.33
26964,2018-06-29 08:58:54.625000,-121.28,60.33
26965,2018-06-29 08:58:54.656250,-93.91,60.33
26966,2018-06-29 08:58:54.687500,-67.32,60.33
26967,2018-06-29 08:58:54.718750,-46.6,60.33
26968,2018-06-29 08:58:54.750000,-31.17,60.33
26969,2018-06-29 08:58:54.781250,-21.14,60.33
26970,2018-06-29 08:58:54.812500,-16.34,60.33
26971,2018-06-29 08:58:54.843750,-14.75,60.33
26972,2018-06-29 08:58:54.875000,-14.07,60.33
26973,2018-06-29 08:58:54.906250,-13.34,60.33
26974,2018-06-29 08:58:54.937500,-12.9,60.33
26975,2018-06-29 08:58:54.968750,-13.07,60.33
26976,2018-06-29 08:58:55.000000,-13.61,60.33
26977,2018-06-29 08:58:55.031250,-14.82,60.33
26978,2018-06-29 08:58:55.062500,-17.59,60.33
26979,2018-06-29 08:58:55.093750,-21.68,60.33
26980,2018-06-29 08:58:55.125000,-25.83,60.33
26981,2018-06-29 08:58:55.156250,-30.11,60.33
26982,2018-06-29 08:58:55.187500,-35.67,60.33
26983,2018-06-29 08:58:55.218750,-42.3,60.33
26984,2018-06-29 08:58:55.250000,-49.37,60.33
26985,2018-06-29 08:58:55.281250,-57.72,60.33
26986,2018-06-29 08:58:55.312500,-66.05,60.33
26987,2018-06-29 08:58:55.343750,-67.27,60.33
26988,2018-06-29 08:58:55.375000,-54.61,60.33
26989,2018-06-29 08:58:55.406250,-30.54,60.33
26990,2018-06-29 08:58:55.437500,-4.5,60.33
26991,2018-06-29 08:58:55.468750,16.21,60.33
26992,2018-06-29 08:58:55.500000,29.77,60.33
26993,2018-06-29 08:58:55.531250,37.18,60.9
26994,2018-06-29 08:58:55.562500,40.25,60.9
26995,2018-06-29 08:58:55.593750,41.11,60.9
26996,2018-06-29 08:58:55.625000,41.36,60.9
26997,2018-06-29 08:58:55.656250,41.69,60.9
26998,2018-06-29 08:58:55.687500,42.34,60.9
26999,2018-06-29 08:58:55.718750,42.95,60.9
27000,2018-06-29 08:58:55.750000,41.96,60.9
27001,2018-06-29 08:58:55.781250,38.05,60.9
27002,2018-06-29 08:58:55.812500,32.11,60.9
27003,2018-06-29 08:58:55.843750,25.68,60.9
27004,2018-06-29 08:58:55.875000,18.41,60.9
27005,2018-06-29 08:58:55.906250,9.94,60.9
27006,2018-06-29 08:58:55.937500,2.11,60.9
27007,2018-06-29 08:58:55.968750,-3.32,60.9
27008,2018-06-29 08:58:56.000000,-7.27,60.9
27009,2018-06-29 08:58:56.031250,-11.93,60.9
27010,2018-06-29 08:58:56.062500,-17.69,60.9
27011,2018-06-29 08:58:56.093750,-21.42,60.9
27012,2018-06-29 08:58:56.125000,-17.61,60.9
27013,2018-06-29 08:58:56.156250,-3.3,60.9
27014,2018-06-29 08:58:56.187500,17.84,60.9
27015,2018-06-29 08:58:56.218750,38.14,60.9
27016,2018-06-29 08:58:56.250000,52.18,60.9
27017,2018-06-29 08:58:56.281250,59.22,60.9
27018,2018-06-29 08:58:56.312500,61.03,60.9
27019,2018-06-29 08:58:56.343750,59.38,60.9
27020,2018-06-29 08:58:56.375000,54.71,60.9
27021,2018-06-29 08:58:56.406250,45.97,60.9
27022,2018-06-29 08:58:56.437500,33.1,60.9
27023,2018-06-29 08:58:56.468750,19.53,60.9
27024,2018-06-29 08:58:56.500000,10.31,60.9
27025,2018-06-29 08:58:56.531250,7.69,61.37
27026,2018-06-29 08:58:56.562500,9.34,61.37
27027,2018-06-29 08:58:56.593750,10.19,61.37
27028,2018-06-29 08:58:56.625000,6.05,61.37
27029,2018-06-29 08:58:56.656250,-2.66,61.37
27030,2018-06-29 08:58:56.687500,-11.71,61.37
27031,2018-06-29 08:58:56.718750,-18.6,61.37
27032,2018-06-29 08:58:56.750000,-26.23,61.37
27033,2018-06-29 08:58:56.781250,-39.18,61.37
27034,2018-06-29 08:58:56.812500,-56.13,61.37
27035,2018-06-29 08:58:56.843750,-68.38,61.37
27036,2018-06-29 08:58:56.875000,-67.85,61.37
27037,2018-06-29 08:58:56.906250,-54.81,61.37
27038,2018-06-29 08:58:56.937500,-35.66,61.37
27039,2018-06-29 08:58:56.968750,-16.34,61.37
27040,2018-06-29 08:58:57.000000,-0.16,61.37
27041,2018-06-29 08:58:57.031250,11.09,61.37
27042,2018-06-29 08:58:57.062500,17.68,61.37
27043,2018-06-29 08:58:57.093750,22.03,61.37
27044,2018-06-29 08:58:57.125000,25.85,61.37
27045,2018-06-29 08:58:57.156250,28.84,61.37
27046,2018-06-29 08:58:57.187500,30.65,61.37
27047,2018-06-29 08:58:57.218750,32.02,61.37
27048,2018-06-29 08:58:57.250000,33.39,61.37
27049,2018-06-29 08:58:57.281250,34.2,61.37
27050,2018-06-29 08:58:57.312500,33.45,61.37
27051,2018-06-29 08:58:57.343750,29.77,61.37
27052,2018-06-29 08:58:57.375000,22.43,61.37
27053,2018-06-29 08:58:57.406250,12.83,61.37
27054,2018-06-29 08:58:57.437500,3.4,61.37
27055,2018-06-29 08:58:57.468750,-5.3,61.37
27056,2018-06-29 08:58:57.500000,-14.69,61.37
27057,2018-06-29 08:58:57.531250,-25.13,61.75
27058,2018-06-29 08:58:57.562500,-33.4,61.75
27059,2018-06-29 08:58:57.593750,-34.02,61.75
27060,2018-06-29 08:58:57.625000,-24.47,61.75
27061,2018-06-29 08:58:57.656250,-8.99,61.75
27062,2018-06-29 08:58:57.687500,4.68,61.75
27063,2018-06-29 08:58:57.718750,12.31,61.75
27064,2018-06-29 08:58:57.750000,14.31,61.75
27065,2018-06-29 08:58:57.781250,12.03,61.75
27066,2018-06-29 08:58:57.812500,6.87,61.75
27067,2018-06-29 08:58:57.843750,1.69,61.75
27068,2018-06-29 08:58:57.875000,-1.0,61.75
27069,2018-06-29 08:58:57.906250,-1.4,61.75
27070,2018-06-29 08:58:57.937500,-0.96,61.75
27071,2018-06-29 08:58:57.968750,-0.04,61.75
27072,2018-06-29 08:58:58.000000,1.7,61.75
27073,2018-06-29 08:58:58.031250,3.82,61.75
27074,2018-06-29 08:58:58.062500,5.02,61.75
27075,2018-06-29 08:58:58.093750,4.21,61.75
27076,2018-06-29 08:58:58.125000,1.37,61.75
27077,2018-06-29 08:58:58.156250,-2.46,61.75
27078,2018-06-29 08:58:58.187500,-6.01,61.75
27079,2018-06-29 08:58:58.218750,-9.08,61.75
27080,2018-06-29 08:58:58.250000,-13.16,61.75
27081,2018-06-29 08:58:58.281250,-19.31,61.75
27082,2018-06-29 08:58:58.312500,-24.16,61.75
27083,2018-06-29 08:58:58.343750,-21.21,61.75
27084,2018-06-29 08:58:58.375000,-8.63,61.75
27085,2018-06-29 08:58:58.406250,7.45,61.75
27086,2018-06-29 08:58:58.437500,19.83,61.75
27087,2018-06-29 08:58:58.468750,26.57,61.75
27088,2018-06-29 08:58:58.500000,28.64,61.75
27089,2018-06-29 08:58:58.531250,26.47,62.03
27090,2018-06-29 08:58:58.562500,21.23,62.03
27091,2018-06-29 08:58:58.593750,15.61,62.03
27092,2018-06-29 08:58:58.625000,11.47,62.03
27093,2018-06-29 08:58:58.656250,8.79,62.03
27094,2018-06-29 08:58:58.687500,6.86,62.03
27095,2018-06-29 08:58:58.718750,5.35,62.03
27096,2018-06-29 08:58:58.750000,4.41,62.03
27097,2018-06-29 08:58:58.781250,3.58,62.03
27098,2018-06-29 08:58:58.812500,1.2,62.03
27099,2018-06-29 08:58:58.843750,-3.38,62.03
27100,2018-06-29 08:58:58.875000,-8.16,62.03
27101,2018-06-29 08:58:58.906250,-11.39,62.03
27102,2018-06-29 08:58:58.937500,-13.88,62.03
27103,2018-06-29 08:58:58.968750,-17.02,62.03
27104,2018-06-29 08:58:59.000000,-21.78,62.03
27105,2018-06-29 08:58:59.031250,-28.53,62.03
27106,2018-06-29 08:58:59.062500,-33.68,62.03
27107,2018-06-29 08:58:59.093750,-30.43,62.03
27108,2018-06-29 08:58:59.125000,-17.22,62.03
27109,2018-06-29 08:58:59.156250,-0.54,62.03
27110,2018-06-29 08:58:59.187500,13.07,62.03
27111,2018-06-29 08:58:59.218750,22.01,62.03
27112,2018-06-29 08:58:59.250000,25.95,62.03
27113,2018-06-29 08:58:59.281250,24.26,62.03
27114,2018-06-29 08:58:59.312500,19.31,62.03
27115,2018-06-29 08:58:59.343750,15.59,62.03
27116,2018-06-29 08:58:59.375000,14.48,62.03
27117,2018-06-29 08:58:59.406250,13.89,62.03
27118,2018-06-29 08:58:59.437500,12.76,62.03
27119,2018-06-29 08:58:59.468750,12.18,62.03
27120,2018-06-29 08:58:59.500000,12.33,62.03
27121,2018-06-29 08:58:59.531250,11.52,62.48
27122,2018-06-29 08:58:59.562500,8.42,62.48
27123,2018-06-29 08:58:59.593750,3.54,62.48
27124,2018-06-29 08:58:59.625000,-1.59,62.48
27125,2018-06-29 08:58:59.656250,-6.02,62.48
27126,2018-06-29 08:58:59.687500,-10.26,62.48
27127,2018-06-29 08:58:59.718750,-15.71,62.48
27128,2018-06-29 08:58:59.750000,-23.13,62.48
27129,2018-06-29 08:58:59.781250,-30.43,62.48
27130,2018-06-29 08:58:59.812500,-32.61,62.48
27131,2018-06-29 08:58:59.843750,-26.03,62.48
27132,2018-06-29 08:58:59.875000,-12.59,62.48
27133,2018-06-29 08:58:59.906250,1.78,62.48
27134,2018-06-29 08:58:59.937500,12.48,62.48
27135,2018-06-29 08:58:59.968750,18.63,62.48
27136,2018-06-29 08:59:00.000000,20.99,62.48
27137,2018-06-29 08:59:00.031250,20.02,62.48
27138,2018-06-29 08:59:00.062500,16.9,62.48
27139,2018-06-29 08:59:00.093750,13.81,62.48
27140,2018-06-29 08:59:00.125000,11.9,62.48
27141,2018-06-29 08:59:00.156250,10.78,62.48
27142,2018-06-29 08:59:00.187500,10.21,62.48
27143,2018-06-29 08:59:00.218750,10.19,62.48
27144,2018-06-29 08:59:00.250000,9.73,62.48
27145,2018-06-29 08:59:00.281250,7.53,62.48
27146,2018-06-29 08:59:00.312500,3.49,62.48
27147,2018-06-29 08:59:00.343750,-1.26,62.48
27148,2018-06-29 08:59:00.375000,-5.67,62.48
27149,2018-06-29 08:59:00.406250,-9.74,62.48
27150,2018-06-29 08:59:00.437500,-14.3,62.48
27151,2018-06-29 08:59:00.468750,-20.13,62.48
27152,2018-06-29 08:59:00.500000,-27.55,62.48
27153,2018-06-29 08:59:00.531250,-34.79,62.9
27154,2018-06-29 08:59:00.562500,-36.58,62.9
27155,2018-06-29 08:59:00.593750,-28.36,62.9
27156,2018-06-29 08:59:00.625000,-12.42,62.9
27157,2018-06-29 08:59:00.656250,3.93,62.9
27158,2018-06-29 08:59:00.687500,15.46,62.9
27159,2018-06-29 08:59:00.718750,21.71,62.9
27160,2018-06-29 08:59:00.750000,24.37,62.9
27161,2018-06-29 08:59:00.781250,24.6,62.9
27162,2018-06-29 08:59:00.812500,22.89,62.9
27163,2018-06-29 08:59:00.843750,20.26,62.9
27164,2018-06-29 08:59:00.875000,18.29,62.9
27165,2018-06-29 08:59:00.906250,17.64,62.9
27166,2018-06-29 08:59:00.937500,17.36,62.9
27167,2018-06-29 08:59:00.968750,16.18,62.9
27168,2018-06-29 08:59:01.000000,13.64,62.9
27169,2018-06-29 08:59:01.031250,10.36,62.9
27170,2018-06-29 08:59:01.062500,7.01,62.9
27171,2018-06-29 08:59:01.093750,3.24,62.9
27172,2018-06-29 08:59:01.125000,-1.45,62.9
27173,2018-06-29 08:59:01.156250,-6.33,62.9
27174,2018-06-29 08:59:01.187500,-10.61,62.9
27175,2018-06-29 08:59:01.218750,-14.74,62.9
27176,2018-06-29 08:59:01.250000,-19.83,62.9
27177,2018-06-29 08:59:01.281250,-26.56,62.9
27178,2018-06-29 08:59:01.312500,-33.49,62.9
27179,2018-06-29 08:59:01.343750,-35.53,62.9
27180,2018-06-29 08:59:01.375000,-27.96,62.9
27181,2018-06-29 08:59:01.406250,-12.97,62.9
27182,2018-06-29 08:59:01.437500,2.13,62.9
27183,2018-06-29 08:59:01.468750,13.09,62.9
27184,2018-06-29 08:59:01.500000,19.81,62.9
27185,2018-06-29 08:59:01.531250,22.27,63.28
27186,2018-06-29 08:59:01.562500,21.06,63.28
27187,2018-06-29 08:59:01.593750,19.07,63.28
27188,2018-06-29 08:59:01.625000,18.47,63.28
27189,2018-06-29 08:59:01.656250,18.73,63.28
27190,2018-06-29 08:59:01.687500,18.9,63.28
27191,2018-06-29 08:59:01.718750,18.84,63.28
27192,2018-06-29 08:59:01.750000,18.22,63.28
27193,2018-06-29 08:59:01.781250,16.06,63.28
27194,2018-06-29 08:59:01.812500,12.0,63.28
27195,2018-06-29 08:59:01.843750,7.0,63.28
27196,2018-06-29 08:59:01.875000,2.33,63.28
27197,2018-06-29 08:59:01.906250,-1.97,63.28
27198,2018-06-29 08:59:01.937500,-6.6,63.28
27199,2018-06-29 08:59:01.968750,-11.1,63.28
27200,2018-06-29 08:59:02.000000,-14.58,63.28
27201,2018-06-29 08:59:02.031250,-17.48,63.28
27202,2018-06-29 08:59:02.062500,-21.31,63.28
27203,2018-06-29 08:59:02.093750,-26.88,63.28
27204,2018-06-29 08:59:02.125000,-32.33,63.28
27205,2018-06-29 08:59:02.156250,-33.15,63.28
27206,2018-06-29 08:59:02.187500,-26.01,63.28
27207,2018-06-29 08:59:02.218750,-12.69,63.28
27208,2018-06-29 08:59:02.250000,1.61,63.28
27209,2018-06-29 08:59:02.281250,12.66,63.28
27210,2018-06-29 08:59:02.312500,18.56,63.28
27211,2018-06-29 08:59:02.343750,19.31,63.28
27212,2018-06-29 08:59:02.375000,17.09,63.28
27213,2018-06-29 08:59:02.406250,14.84,63.28
27214,2018-06-29 08:59:02.437500,13.77,63.28
27215,2018-06-29 08:59:02.468750,13.49,63.28
27216,2018-06-29 08:59:02.500000,13.49,63.28
27217,2018-06-29 08:59:02.531250,13.74,63.63
27218,2018-06-29 08:59:02.562500,14.18,63.63
27219,2018-06-29 08:59:02.593750,14.02,63.63
27220,2018-06-29 08:59:02.625000,12.19,63.63
27221,2018-06-29 08:59:02.656250,8.97,63.63
27222,2018-06-29 08:59:02.687500,5.87,63.63
27223,2018-06-29 08:59:02.718750,3.29,63.63
27224,2018-06-29 08:59:02.750000,0.01,63.63
27225,2018-06-29 08:59:02.781250,-4.51,63.63
27226,2018-06-29 08:59:02.812500,-9.14,63.63
27227,2018-06-29 08:59:02.843750,-12.83,63.63
27228,2018-06-29 08:59:02.875000,-16.17,63.63
27229,2018-06-29 08:59:02.906250,-20.57,63.63
27230,2018-06-29 08:59:02.937500,-26.51,63.63
27231,2018-06-29 08:59:02.968750,-32.27,63.63
27232,2018-06-29 08:59:03.000000,-33.82,63.63
27233,2018-06-29 08:59:03.031250,-28.01,63.63
27234,2018-06-29 08:59:03.062500,-16.23,63.63
27235,2018-06-29 08:59:03.093750,-3.37,63.63
27236,2018-06-29 08:59:03.125000,6.64,63.63
27237,2018-06-29 08:59:03.156250,12.25,63.63
27238,2018-06-29 08:59:03.187500,13.29,63.63
27239,2018-06-29 08:59:03.218750,11.21,63.63
27240,2018-06-29 08:59:03.250000,8.85,63.63
27241,2018-06-29 08:59:03.281250,8.0,63.63
27242,2018-06-29 08:59:03.312500,8.22,63.63
27243,2018-06-29 08:59:03.343750,8.53,63.63
27244,2018-06-29 08:59:03.375000,8.75,63.63
27245,2018-06-29 08:59:03.406250,8.82,63.63
27246,2018-06-29 08:59:03.437500,8.25,63.63
27247,2018-06-29 08:59:03.468750,6.99,63.63
27248,2018-06-29 08:59:03.500000,5.5,63.63
27249,2018-06-29 08:59:03.531250,3.64,63.95
27250,2018-06-29 08:59:03.562500,0.99,63.95
27251,2018-06-29 08:59:03.593750,-1.88,63.95
27252,2018-06-29 08:59:03.625000,-4.33,63.95
27253,2018-06-29 08:59:03.656250,-6.98,63.95
27254,2018-06-29 08:59:03.687500,-10.03,63.95
27255,2018-06-29 08:59:03.718750,-12.55,63.95
27256,2018-06-29 08:59:03.750000,-14.55,63.95
27257,2018-06-29 08:59:03.781250,-17.52,63.95
27258,2018-06-29 08:59:03.812500,-22.54,63.95
27259,2018-06-29 08:59:03.843750,-28.94,63.95
27260,2018-06-29 08:59:03.875000,-33.47,63.95
27261,2018-06-29 08:59:03.906250,-31.73,63.95
27262,2018-06-29 08:59:03.937500,-23.01,63.95
27263,2018-06-29 08:59:03.968750,-11.7,63.95
27264,2018-06-29 08:59:04.000000,-1.91,63.95
27265,2018-06-29 08:59:04.031250,5.85,63.95
27266,2018-06-29 08:59:04.062500,11.79,63.95
27267,2018-06-29 08:59:04.093750,15.15,63.95
27268,2018-06-29 08:59:04.125000,16.32,63.95
27269,2018-06-29 08:59:04.156250,17.22,63.95
27270,2018-06-29 08:59:04.187500,18.84,63.95
27271,2018-06-29 08:59:04.218750,20.71,63.95
27272,2018-06-29 08:59:04.250000,22.1,63.95
27273,2018-06-29 08:59:04.281250,22.67,63.95
27274,2018-06-29 08:59:04.312500,22.36,63.95
27275,2018-06-29 08:59:04.343750,21.2,63.95
27276,2018-06-29 08:59:04.375000,19.12,63.95
27277,2018-06-29 08:59:04.406250,16.36,63.95
27278,2018-06-29 08:59:04.437500,13.97,63.95
27279,2018-06-29 08:59:04.468750,12.45,63.95
27280,2018-06-29 08:59:04.500000,10.86,63.95
27281,2018-06-29 08:59:04.531250,8.11,64.27
27282,2018-06-29 08:59:04.562500,4.53,64.27
27283,2018-06-29 08:59:04.593750,1.12,64.27
27284,2018-06-29 08:59:04.625000,-1.43,64.27
27285,2018-06-29 08:59:04.656250,-3.36,64.27
27286,2018-06-29 08:59:04.687500,-5.73,64.27
27287,2018-06-29 08:59:04.718750,-8.97,64.27
27288,2018-06-29 08:59:04.750000,-12.32,64.27
27289,2018-06-29 08:59:04.781250,-15.52,64.27
27290,2018-06-29 08:59:04.812500,-19.46,64.27
27291,2018-06-29 08:59:04.843750,-24.19,64.27
27292,2018-06-29 08:59:04.875000,-27.76,64.27
27293,2018-06-29 08:59:04.906250,-27.32,64.27
27294,2018-06-29 08:59:04.937500,-20.96,64.27
27295,2018-06-29 08:59:04.968750,-9.92,64.27
27296,2018-06-29 08:59:05.000000,1.45,64.27
27297,2018-06-29 08:59:05.031250,9.32,64.27
27298,2018-06-29 08:59:05.062500,13.19,64.27
27299,2018-06-29 08:59:05.093750,14.56,64.27
27300,2018-06-29 08:59:05.125000,14.73,64.27
27301,2018-06-29 08:59:05.156250,14.59,64.27
27302,2018-06-29 08:59:05.187500,14.66,64.27
27303,2018-06-29 08:59:05.218750,14.76,64.27
27304,2018-06-29 08:59:05.250000,14.86,64.27
27305,2018-06-29 08:59:05.281250,15.45,64.27
27306,2018-06-29 08:59:05.312500,16.29,64.27
27307,2018-06-29 08:59:05.343750,16.3,64.27
27308,2018-06-29 08:59:05.375000,14.96,64.27
27309,2018-06-29 08:59:05.406250,12.96,64.27
27310,2018-06-29 08:59:05.437500,10.97,64.27
27311,2018-06-29 08:59:05.468750,9.26,64.27
27312,2018-06-29 08:59:05.500000,7.79,64.27
27313,2018-06-29 08:59:05.531250,5.98,64.58
27314,2018-06-29 08:59:05.562500,3.5,64.58
27315,2018-06-29 08:59:05.593750,1.23,64.58
27316,2018-06-29 08:59:05.625000,-0.12,64.58
27317,2018-06-29 08:59:05.656250,-1.61,64.58
27318,2018-06-29 08:59:05.687500,-4.31,64.58
27319,2018-06-29 08:59:05.718750,-7.23,64.58
27320,2018-06-29 08:59:05.750000,-9.12,64.58
27321,2018-06-29 08:59:05.781250,-10.78,64.58
27322,2018-06-29 08:59:05.812500,-13.72,64.58
27323,2018-06-29 08:59:05.843750,-18.16,64.58
27324,2018-06-29 08:59:05.875000,-22.65,64.58
27325,2018-06-29 08:59:05.906250,-24.33,64.58
27326,2018-06-29 08:59:05.937500,-20.82,64.58
27327,2018-06-29 08:59:05.968750,-12.83,64.58
27328,2018-06-29 08:59:06.000000,-3.84,64.58
27329,2018-06-29 08:59:06.031250,3.15,64.58
27330,2018-06-29 08:59:06.062500,7.56,64.58
27331,2018-06-29 08:59:06.093750,9.98,64.58
27332,2018-06-29 08:59:06.125000,10.37,64.58
27333,2018-06-29 08:59:06.156250,8.79,64.58
27334,2018-06-29 08:59:06.187500,7.12,64.58
27335,2018-06-29 08:59:06.218750,7.42,64.58
27336,2018-06-29 08:59:06.250000,9.2,64.58
27337,2018-06-29 08:59:06.281250,10.51,64.58
27338,2018-06-29 08:59:06.312500,10.67,64.58
27339,2018-06-29 08:59:06.343750,9.99,64.58
27340,2018-06-29 08:59:06.375000,8.51,64.58
27341,2018-06-29 08:59:06.406250,6.57,64.58
27342,2018-06-29 08:59:06.437500,5.18,64.58
27343,2018-06-29 08:59:06.468750,4.77,64.58
27344,2018-06-29 08:59:06.500000,4.49,64.58
27345,2018-06-29 08:59:06.531250,3.44,64.88
27346,2018-06-29 08:59:06.562500,1.85,64.88
27347,2018-06-29 08:59:06.593750,0.75,64.88
27348,2018-06-29 08:59:06.625000,0.29,64.88
27349,2018-06-29 08:59:06.656250,-0.58,64.88
27350,2018-06-29 08:59:06.687500,-2.35,64.88
27351,2018-06-29 08:59:06.718750,-4.24,64.88
27352,2018-06-29 08:59:06.750000,-5.79,64.88
27353,2018-06-29 08:59:06.781250,-7.49,64.88
27354,2018-06-29 08:59:06.812500,-9.5,64.88
27355,2018-06-29 08:59:06.843750,-11.27,64.88
27356,2018-06-29 08:59:06.875000,-12.92,64.88
27357,2018-06-29 08:59:06.906250,-15.7,64.88
27358,2018-06-29 08:59:06.937500,-20.31,64.88
27359,2018-06-29 08:59:06.968750,-25.08,64.88
27360,2018-06-29 08:59:07.000000,-26.41,64.88
27361,2018-06-29 08:59:07.031250,-21.95,64.88
27362,2018-06-29 08:59:07.062500,-13.2,64.88
27363,2018-06-29 08:59:07.093750,-4.12,64.88
27364,2018-06-29 08:59:07.125000,2.64,64.88
27365,2018-06-29 08:59:07.156250,7.08,64.88
27366,2018-06-29 08:59:07.187500,9.88,64.88
27367,2018-06-29 08:59:07.218750,11.19,64.88
27368,2018-06-29 08:59:07.250000,11.85,64.88
27369,2018-06-29 08:59:07.281250,13.72,64.88
27370,2018-06-29 08:59:07.312500,17.64,64.88
27371,2018-06-29 08:59:07.343750,21.63,64.88
27372,2018-06-29 08:59:07.375000,22.48,64.88
27373,2018-06-29 08:59:07.406250,19.93,64.88
27374,2018-06-29 08:59:07.437500,16.85,64.88
27375,2018-06-29 08:59:07.468750,14.9,64.88
27376,2018-06-29 08:59:07.500000,12.83,64.88
27377,2018-06-29 08:59:07.531250,9.27,65.13
27378,2018-06-29 08:59:07.562500,4.51,65.13
27379,2018-06-29 08:59:07.593750,-0.4,65.13
27380,2018-06-29 08:59:07.625000,-4.61,65.13
27381,2018-06-29 08:59:07.656250,-7.69,65.13
27382,2018-06-29 08:59:07.687500,-9.69,65.13
27383,2018-06-29 08:59:07.718750,-10.87,65.13
27384,2018-06-29 08:59:07.750000,-11.52,65.13
27385,2018-06-29 08:59:07.781250,-11.78,65.13
27386,2018-06-29 08:59:07.812500,-11.57,65.13
27387,2018-06-29 08:59:07.843750,-10.98,65.13
27388,2018-06-29 08:59:07.875000,-10.71,65.13
27389,2018-06-29 08:59:07.906250,-11.82,65.13
27390,2018-06-29 08:59:07.937500,-14.72,65.13
27391,2018-06-29 08:59:07.968750,-17.8,65.13
27392,2018-06-29 08:59:08.000000,-17.75,65.13
27393,2018-06-29 08:59:08.031250,-12.59,65.13
27394,2018-06-29 08:59:08.062500,-3.89,65.13
27395,2018-06-29 08:59:08.093750,4.73,65.13
27396,2018-06-29 08:59:08.125000,10.72,65.13
27397,2018-06-29 08:59:08.156250,13.75,65.13
27398,2018-06-29 08:59:08.187500,14.71,65.13
27399,2018-06-29 08:59:08.218750,14.29,65.13
27400,2018-06-29 08:59:08.250000,12.8,65.13
27401,2018-06-29 08:59:08.281250,10.65,65.13
27402,2018-06-29 08:59:08.312500,8.3,65.13
27403,2018-06-29 08:59:08.343750,6.18,65.13
27404,2018-06-29 08:59:08.375000,5.04,65.13
27405,2018-06-29 08:59:08.406250,5.02,65.13
27406,2018-06-29 08:59:08.437500,4.46,65.13
27407,2018-06-29 08:59:08.468750,2.1,65.13
27408,2018-06-29 08:59:08.500000,-0.67,65.13
27409,2018-06-29 08:59:08.531250,-2.37,65.37
27410,2018-06-29 08:59:08.562500,-4.08,65.37
27411,2018-06-29 08:59:08.593750,-6.75,65.37
27412,2018-06-29 08:59:08.625000,-9.34,65.37
27413,2018-06-29 08:59:08.656250,-10.81,65.37
27414,2018-06-29 08:59:08.687500,-11.39,65.37
27415,2018-06-29 08:59:08.718750,-11.77,65.37
27416,2018-06-29 08:59:08.750000,-12.93,65.37
27417,2018-06-29 08:59:08.781250,-15.33,65.37
27418,2018-06-29 08:59:08.812500,-17.61,65.37
27419,2018-06-29 08:59:08.843750,-17.14,65.37
27420,2018-06-29 08:59:08.875000,-12.07,65.37
27421,2018-06-29 08:59:08.906250,-3.32,65.37
27422,2018-06-29 08:59:08.937500,5.53,65.37
27423,2018-06-29 08:59:08.968750,11.83,65.37
27424,2018-06-29 08:59:09.000000,16.07,65.37
27425,2018-06-29 08:59:09.031250,19.57,65.37
27426,2018-06-29 08:59:09.062500,22.37,65.37
27427,2018-06-29 08:59:09.093750,24.4,65.37
27428,2018-06-29 08:59:09.125000,26.17,65.37
27429,2018-06-29 08:59:09.156250,28.05,65.37
27430,2018-06-29 08:59:09.187500,30.2,65.37
27431,2018-06-29 08:59:09.218750,32.47,65.37
27432,2018-06-29 08:59:09.250000,33.38,65.37
27433,2018-06-29 08:59:09.281250,30.65,65.37
27434,2018-06-29 08:59:09.312500,23.5,65.37
27435,2018-06-29 08:59:09.343750,13.25,65.37
27436,2018-06-29 08:59:09.375000,1.26,65.37
27437,2018-06-29 08:59:09.406250,-12.0,65.37
27438,2018-06-29 08:59:09.437500,-25.36,65.37
27439,2018-06-29 08:59:09.468750,-36.51,65.37
27440,2018-06-29 08:59:09.500000,-44.2,65.37
27441,2018-06-29 08:59:09.531250,-49.54,65.6
27442,2018-06-29 08:59:09.562500,-54.91,65.6
27443,2018-06-29 08:59:09.593750,-61.58,65.6
27444,2018-06-29 08:59:09.625000,-67.5,65.6
27445,2018-06-29 08:59:09.656250,-67.85,65.6
27446,2018-06-29 08:59:09.687500,-58.4,65.6
27447,2018-06-29 08:59:09.718750,-39.01,65.6
27448,2018-06-29 08:59:09.750000,-14.68,65.6
27449,2018-06-29 08:59:09.781250,7.42,65.6
27450,2018-06-29 08:59:09.812500,24.08,65.6
27451,2018-06-29 08:59:09.843750,37.7,65.6
27452,2018-06-29 08:59:09.875000,51.14,65.6
27453,2018-06-29 08:59:09.906250,63.64,65.6
27454,2018-06-29 08:59:09.937500,72.72,65.6
27455,2018-06-29 08:59:09.968750,77.24,65.6
27456,2018-06-29 08:59:10.000000,77.5,65.6
27457,2018-06-29 08:59:10.031250,75.02,65.6
27458,2018-06-29 08:59:10.062500,71.62,65.6
27459,2018-06-29 08:59:10.093750,66.29,65.6
27460,2018-06-29 08:59:10.125000,55.94,65.6
27461,2018-06-29 08:59:10.156250,41.78,65.6
27462,2018-06-29 08:59:10.187500,29.22,65.6
27463,2018-06-29 08:59:10.218750,19.32,65.6
27464,2018-06-29 08:59:10.250000,8.83,65.6
27465,2018-06-29 08:59:10.281250,-0.81,65.6
27466,2018-06-29 08:59:10.312500,-4.74,65.6
27467,2018-06-29 08:59:10.343750,-4.26,65.6
27468,2018-06-29 08:59:10.375000,-6.49,65.6
27469,2018-06-29 08:59:10.406250,-16.06,65.6
27470,2018-06-29 08:59:10.437500,-31.77,65.6
27471,2018-06-29 08:59:10.468750,-48.12,65.6
27472,2018-06-29 08:59:10.500000,-58.0,65.6
27473,2018-06-29 08:59:10.531250,-57.68,65.8
27474,2018-06-29 08:59:10.562500,-50.21,65.8
27475,2018-06-29 08:59:10.593750,-42.32,65.8
27476,2018-06-29 08:59:10.625000,-38.73,65.8
27477,2018-06-29 08:59:10.656250,-38.47,65.8
27478,2018-06-29 08:59:10.687500,-35.84,65.8
27479,2018-06-29 08:59:10.718750,-27.1,65.8
27480,2018-06-29 08:59:10.750000,-16.1,65.8
27481,2018-06-29 08:59:10.781250,-9.26,65.8
27482,2018-06-29 08:59:10.812500,-5.39,65.8
27483,2018-06-29 08:59:10.843750,5.15,65.8
27484,2018-06-29 08:59:10.875000,28.39,65.8
27485,2018-06-29 08:59:10.906250,55.44,65.8
27486,2018-06-29 08:59:10.937500,67.31,65.8
27487,2018-06-29 08:59:10.968750,55.65,65.8
27488,2018-06-29 08:59:11.000000,35.21,65.8
27489,2018-06-29 08:59:11.031250,25.38,65.8
27490,2018-06-29 08:59:11.062500,23.85,65.8
27491,2018-06-29 08:59:11.093750,12.04,65.8
27492,2018-06-29 08:59:11.125000,-16.61,65.8
27493,2018-06-29 08:59:11.156250,-49.24,65.8
27494,2018-06-29 08:59:11.187500,-70.88,65.8
27495,2018-06-29 08:59:11.218750,-77.6,65.8
27496,2018-06-29 08:59:11.250000,-73.7,65.8
27497,2018-06-29 08:59:11.281250,-63.99,65.8
27498,2018-06-29 08:59:11.312500,-52.01,65.8
27499,2018-06-29 08:59:11.343750,-38.7,65.8
27500,2018-06-29 08:59:11.375000,-24.07,65.8
27501,2018-06-29 08:59:11.406250,-6.53,65.8
27502,2018-06-29 08:59:11.437500,12.09,65.8
27503,2018-06-29 08:59:11.468750,27.15,65.8
27504,2018-06-29 08:59:11.500000,36.5,65.8
27505,2018-06-29 08:59:11.531250,44.3,66.02
27506,2018-06-29 08:59:11.562500,58.33,66.02
27507,2018-06-29 08:59:11.593750,80.57,66.02
27508,2018-06-29 08:59:11.625000,110.58,66.02
27509,2018-06-29 08:59:11.656250,142.73,66.02
27510,2018-06-29 08:59:11.687500,168.34,66.02
27511,2018-06-29 08:59:11.718750,173.37,66.02
27512,2018-06-29 08:59:11.750000,143.6,66.02
27513,2018-06-29 08:59:11.781250,97.57,66.02
27514,2018-06-29 08:59:11.812500,44.97,66.02
27515,2018-06-29 08:59:11.843750,-1.57,66.02
27516,2018-06-29 08:59:11.875000,-31.07,66.02
27517,2018-06-29 08:59:11.906250,-48.84,66.02
27518,2018-06-29 08:59:11.937500,-72.46,66.02
27519,2018-06-29 08:59:11.968750,-105.47,66.02
27520,2018-06-29 08:59:12.000000,-137.28,66.02
27521,2018-06-29 08:59:12.031250,-157.35,66.02
27522,2018-06-29 08:59:12.062500,-162.45,66.02
27523,2018-06-29 08:59:12.093750,-154.59,66.02
27524,2018-06-29 08:59:12.125000,-136.77,66.02
27525,2018-06-29 08:59:12.156250,-115.24,66.02
27526,2018-06-29 08:59:12.187500,-94.18,66.02
27527,2018-06-29 08:59:12.218750,-75.54,66.02
27528,2018-06-29 08:59:12.250000,-58.85,66.02
27529,2018-06-29 08:59:12.281250,-44.8,66.02
27530,2018-06-29 08:59:12.312500,-34.28,66.02
27531,2018-06-29 08:59:12.343750,-25.97,66.02
27532,2018-06-29 08:59:12.375000,-17.38,66.02
27533,2018-06-29 08:59:12.406250,-7.02,66.02
27534,2018-06-29 08:59:12.437500,3.35,66.02
27535,2018-06-29 08:59:12.468750,10.9,66.02
27536,2018-06-29 08:59:12.500000,14.17,66.02
27537,2018-06-29 08:59:12.531250,14.23,66.23
27538,2018-06-29 08:59:12.562500,12.5,66.23
27539,2018-06-29 08:59:12.593750,9.33,66.23
27540,2018-06-29 08:59:12.625000,5.06,66.23
27541,2018-06-29 08:59:12.656250,0.74,66.23
27542,2018-06-29 08:59:12.687500,-2.66,66.23
27543,2018-06-29 08:59:12.718750,-5.31,66.23
27544,2018-06-29 08:59:12.750000,-8.17,66.23
27545,2018-06-29 08:59:12.781250,-11.51,66.23
27546,2018-06-29 08:59:12.812500,-13.15,66.23
27547,2018-06-29 08:59:12.843750,-9.37,66.23
27548,2018-06-29 08:59:12.875000,0.72,66.23
27549,2018-06-29 08:59:12.906250,13.04,66.23
27550,2018-06-29 08:59:12.937500,23.38,66.23
27551,2018-06-29 08:59:12.968750,33.11,66.23
27552,2018-06-29 08:59:13.000000,47.17,66.23
27553,2018-06-29 08:59:13.031250,67.81,66.23
27554,2018-06-29 08:59:13.062500,90.5,66.23
27555,2018-06-29 08:59:13.093750,103.06,66.23
27556,2018-06-29 08:59:13.125000,95.98,66.23
27557,2018-06-29 08:59:13.156250,74.51,66.23
27558,2018-06-29 08:59:13.187500,49.6,66.23
27559,2018-06-29 08:59:13.218750,22.12,66.23
27560,2018-06-29 08:59:13.250000,-9.8,66.23
27561,2018-06-29 08:59:13.281250,-38.21,66.23
27562,2018-06-29 08:59:13.312500,-54.43,66.23
27563,2018-06-29 08:59:13.343750,-59.64,66.23
27564,2018-06-29 08:59:13.375000,-58.14,66.23
27565,2018-06-29 08:59:13.406250,-51.72,66.23
27566,2018-06-29 08:59:13.437500,-43.47,66.23
27567,2018-06-29 08:59:13.468750,-38.04,66.23
27568,2018-06-29 08:59:13.500000,-35.78,66.23
27569,2018-06-29 08:59:13.531250,-33.08,66.5
27570,2018-06-29 08:59:13.562500,-28.63,66.5
27571,2018-06-29 08:59:13.593750,-24.46,66.5
27572,2018-06-29 08:59:13.625000,-21.4,66.5
27573,2018-06-29 08:59:13.656250,-18.26,66.5
27574,2018-06-29 08:59:13.687500,-15.1,66.5
27575,2018-06-29 08:59:13.718750,-13.48,66.5
27576,2018-06-29 08:59:13.750000,-12.92,66.5
27577,2018-06-29 08:59:13.781250,-10.36,66.5
27578,2018-06-29 08:59:13.812500,-4.15,66.5
27579,2018-06-29 08:59:13.843750,3.65,66.5
27580,2018-06-29 08:59:13.875000,10.17,66.5
27581,2018-06-29 08:59:13.906250,14.72,66.5
27582,2018-06-29 08:59:13.937500,17.36,66.5
27583,2018-06-29 08:59:13.968750,17.27,66.5
27584,2018-06-29 08:59:14.000000,14.67,66.5
27585,2018-06-29 08:59:14.031250,11.9,66.5
27586,2018-06-29 08:59:14.062500,10.6,66.5
27587,2018-06-29 08:59:14.093750,9.59,66.5
27588,2018-06-29 08:59:14.125000,7.86,66.5
27589,2018-06-29 08:59:14.156250,7.2,66.5
27590,2018-06-29 08:59:14.187500,10.39,66.5
27591,2018-06-29 08:59:14.218750,18.92,66.5
27592,2018-06-29 08:59:14.250000,31.75,66.5
27593,2018-06-29 08:59:14.281250,42.9,66.5
27594,2018-06-29 08:59:14.312500,44.47,66.5
27595,2018-06-29 08:59:14.343750,36.79,66.5
27596,2018-06-29 08:59:14.375000,29.64,66.5
27597,2018-06-29 08:59:14.406250,29.8,66.5
27598,2018-06-29 08:59:14.437500,33.79,66.5
27599,2018-06-29 08:59:14.468750,34.9,66.5
27600,2018-06-29 08:59:14.500000,30.47,66.5
27601,2018-06-29 08:59:14.531250,21.16,66.67
27602,2018-06-29 08:59:14.562500,9.31,66.67
27603,2018-06-29 08:59:14.593750,-0.9,66.67
27604,2018-06-29 08:59:14.625000,-5.97,66.67
27605,2018-06-29 08:59:14.656250,-6.87,66.67
27606,2018-06-29 08:59:14.687500,-7.55,66.67
27607,2018-06-29 08:59:14.718750,-9.6,66.67
27608,2018-06-29 08:59:14.750000,-11.39,66.67
27609,2018-06-29 08:59:14.781250,-12.17,66.67
27610,2018-06-29 08:59:14.812500,-13.45,66.67
27611,2018-06-29 08:59:14.843750,-16.6,66.67
27612,2018-06-29 08:59:14.875000,-20.28,66.67
27613,2018-06-29 08:59:14.906250,-21.59,66.67
27614,2018-06-29 08:59:14.937500,-19.05,66.67
27615,2018-06-29 08:59:14.968750,-13.62,66.67
27616,2018-06-29 08:59:15.000000,-7.49,66.67
27617,2018-06-29 08:59:15.031250,-2.75,66.67
27618,2018-06-29 08:59:15.062500,-0.4,66.67
27619,2018-06-29 08:59:15.093750,0.31,66.67
27620,2018-06-29 08:59:15.125000,0.48,66.67
27621,2018-06-29 08:59:15.156250,-0.15,66.67
27622,2018-06-29 08:59:15.187500,-1.94,66.67
27623,2018-06-29 08:59:15.218750,-3.87,66.67
27624,2018-06-29 08:59:15.250000,-4.83,66.67
27625,2018-06-29 08:59:15.281250,-5.05,66.67
27626,2018-06-29 08:59:15.312500,-4.57,66.67
27627,2018-06-29 08:59:15.343750,-2.14,66.67
27628,2018-06-29 08:59:15.375000,2.57,66.67
27629,2018-06-29 08:59:15.406250,7.43,66.67
27630,2018-06-29 08:59:15.437500,10.19,66.67
27631,2018-06-29 08:59:15.468750,11.09,66.67
27632,2018-06-29 08:59:15.500000,11.27,66.67
27633,2018-06-29 08:59:15.531250,10.26,66.85
27634,2018-06-29 08:59:15.562500,7.32,66.85
27635,2018-06-29 08:59:15.593750,3.34,66.85
27636,2018-06-29 08:59:15.625000,-0.5,66.85
27637,2018-06-29 08:59:15.656250,-4.51,66.85
27638,2018-06-29 08:59:15.687500,-9.0,66.85
27639,2018-06-29 08:59:15.718750,-13.04,66.85
27640,2018-06-29 08:59:15.750000,-16.17,66.85
27641,2018-06-29 08:59:15.781250,-19.47,66.85
27642,2018-06-29 08:59:15.812500,-23.77,66.85
27643,2018-06-29 08:59:15.843750,-28.32,66.85
27644,2018-06-29 08:59:15.875000,-32.1,66.85
27645,2018-06-29 08:59:15.906250,-34.47,66.85
27646,2018-06-29 08:59:15.937500,-34.02,66.85
27647,2018-06-29 08:59:15.968750,-29.17,66.85
27648,2018-06-29 08:59:16.000000,-21.0,66.85
27649,2018-06-29 08:59:16.031250,-13.22,66.85
27650,2018-06-29 08:59:16.062500,-8.06,66.85
27651,2018-06-29 08:59:16.093750,-4.23,66.85
27652,2018-06-29 08:59:16.125000,0.06,66.85
27653,2018-06-29 08:59:16.156250,4.52,66.85
27654,2018-06-29 08:59:16.187500,8.18,66.85
27655,2018-06-29 08:59:16.218750,11.34,66.85
27656,2018-06-29 08:59:16.250000,14.76,66.85
27657,2018-06-29 08:59:16.281250,18.74,66.85
27658,2018-06-29 08:59:16.312500,23.25,66.85
27659,2018-06-29 08:59:16.343750,27.34,66.85
27660,2018-06-29 08:59:16.375000,29.23,66.85
27661,2018-06-29 08:59:16.406250,28.38,66.85
27662,2018-06-29 08:59:16.437500,26.61,66.85
27663,2018-06-29 08:59:16.468750,26.03,66.85
27664,2018-06-29 08:59:16.500000,26.88,66.85
27665,2018-06-29 08:59:16.531250,27.9,67.02
27666,2018-06-29 08:59:16.562500,27.82,67.02
27667,2018-06-29 08:59:16.593750,26.67,67.02
27668,2018-06-29 08:59:16.625000,25.62,67.02
27669,2018-06-29 08:59:16.656250,25.02,67.02
27670,2018-06-29 08:59:16.687500,23.44,67.02
27671,2018-06-29 08:59:16.718750,19.45,67.02
27672,2018-06-29 08:59:16.750000,12.97,67.02
27673,2018-06-29 08:59:16.781250,4.69,67.02
27674,2018-06-29 08:59:16.812500,-3.65,67.02
27675,2018-06-29 08:59:16.843750,-9.46,67.02
27676,2018-06-29 08:59:16.875000,-12.08,67.02
27677,2018-06-29 08:59:16.906250,-13.93,67.02
27678,2018-06-29 08:59:16.937500,-16.98,67.02
27679,2018-06-29 08:59:16.968750,-20.57,67.02
27680,2018-06-29 08:59:17.000000,-23.88,67.02
27681,2018-06-29 08:59:17.031250,-27.53,67.02
27682,2018-06-29 08:59:17.062500,-31.93,67.02
27683,2018-06-29 08:59:17.093750,-36.0,67.02
27684,2018-06-29 08:59:17.125000,-37.77,67.02
27685,2018-06-29 08:59:17.156250,-35.2,67.02
27686,2018-06-29 08:59:17.187500,-27.86,67.02
27687,2018-06-29 08:59:17.218750,-18.16,67.02
27688,2018-06-29 08:59:17.250000,-9.39,67.02
27689,2018-06-29 08:59:17.281250,-3.11,67.02
27690,2018-06-29 08:59:17.312500,0.8,67.02
27691,2018-06-29 08:59:17.343750,3.44,67.02
27692,2018-06-29 08:59:17.375000,6.38,67.02
27693,2018-06-29 08:59:17.406250,9.78,67.02
27694,2018-06-29 08:59:17.437500,12.17,67.02
27695,2018-06-29 08:59:17.468750,12.89,67.02
27696,2018-06-29 08:59:17.500000,12.8,67.02
27697,2018-06-29 08:59:17.531250,12.8,67.18
27698,2018-06-29 08:59:17.562500,13.09,67.18
27699,2018-06-29 08:59:17.593750,13.36,67.18
27700,2018-06-29 08:59:17.625000,12.88,67.18
27701,2018-06-29 08:59:17.656250,11.36,67.18
27702,2018-06-29 08:59:17.687500,9.48,67.18
27703,2018-06-29 08:59:17.718750,8.15,67.18
27704,2018-06-29 08:59:17.750000,7.67,67.18
27705,2018-06-29 08:59:17.781250,7.89,67.18
27706,2018-06-29 08:59:17.812500,8.43,67.18
27707,2018-06-29 08:59:17.843750,8.97,67.18
27708,2018-06-29 08:59:17.875000,9.24,67.18
27709,2018-06-29 08:59:17.906250,8.82,67.18
27710,2018-06-29 08:59:17.937500,7.57,67.18
27711,2018-06-29 08:59:17.968750,6.67,67.18
27712,2018-06-29 08:59:18.000000,7.89,67.18
27713,2018-06-29 08:59:18.031250,11.13,67.18
27714,2018-06-29 08:59:18.062500,14.21,67.18
27715,2018-06-29 08:59:18.093750,15.53,67.18
27716,2018-06-29 08:59:18.125000,15.15,67.18
27717,2018-06-29 08:59:18.156250,13.57,67.18
27718,2018-06-29 08:59:18.187500,11.43,67.18
27719,2018-06-29 08:59:18.218750,10.05,67.18
27720,2018-06-29 08:59:18.250000,8.98,67.18
27721,2018-06-29 08:59:18.281250,4.55,67.18
27722,2018-06-29 08:59:18.312500,-5.88,67.18
27723,2018-06-29 08:59:18.343750,-20.06,67.18
27724,2018-06-29 08:59:18.375000,-32.81,67.18
27725,2018-06-29 08:59:18.406250,-38.97,67.18
27726,2018-06-29 08:59:18.437500,-35.02,67.18
27727,2018-06-29 08:59:18.468750,-22.58,67.18
27728,2018-06-29 08:59:18.500000,-8.49,67.18
27729,2018-06-29 08:59:18.531250,1.66,67.4
27730,2018-06-29 08:59:18.562500,7.48,67.4
27731,2018-06-29 08:59:18.593750,10.56,67.4
27732,2018-06-29 08:59:18.625000,11.47,67.4
27733,2018-06-29 08:59:18.656250,11.11,67.4
27734,2018-06-29 08:59:18.687500,11.6,67.4
27735,2018-06-29 08:59:18.718750,13.99,67.4
27736,2018-06-29 08:59:18.750000,16.68,67.4
27737,2018-06-29 08:59:18.781250,17.78,67.4
27738,2018-06-29 08:59:18.812500,17.58,67.4
27739,2018-06-29 08:59:18.843750,16.77,67.4
27740,2018-06-29 08:59:18.875000,14.59,67.4
27741,2018-06-29 08:59:18.906250,10.83,67.4
27742,2018-06-29 08:59:18.937500,6.82,67.4
27743,2018-06-29 08:59:18.968750,3.25,67.4
27744,2018-06-29 08:59:19.000000,0.08,67.4
27745,2018-06-29 08:59:19.031250,-2.3,67.4
27746,2018-06-29 08:59:19.062500,-4.79,67.4
27747,2018-06-29 08:59:19.093750,-9.85,67.4
27748,2018-06-29 08:59:19.125000,-17.08,67.4
27749,2018-06-29 08:59:19.156250,-22.17,67.4
27750,2018-06-29 08:59:19.187500,-22.71,67.4
27751,2018-06-29 08:59:19.218750,-20.76,67.4
27752,2018-06-29 08:59:19.250000,-19.1,67.4
27753,2018-06-29 08:59:19.281250,-19.21,67.4
27754,2018-06-29 08:59:19.312500,-21.63,67.4
27755,2018-06-29 08:59:19.343750,-24.19,67.4
27756,2018-06-29 08:59:19.375000,-22.65,67.4
27757,2018-06-29 08:59:19.406250,-16.18,67.4
27758,2018-06-29 08:59:19.437500,-8.56,67.4
27759,2018-06-29 08:59:19.468750,-2.31,67.4
27760,2018-06-29 08:59:19.500000,3.54,67.4
27761,2018-06-29 08:59:19.531250,9.32,67.62
27762,2018-06-29 08:59:19.562500,13.49,67.62
27763,2018-06-29 08:59:19.593750,15.42,67.62
27764,2018-06-29 08:59:19.625000,15.86,67.62
27765,2018-06-29 08:59:19.656250,15.25,67.62
27766,2018-06-29 08:59:19.687500,13.72,67.62
27767,2018-06-29 08:59:19.718750,11.91,67.62
27768,2018-06-29 08:59:19.750000,10.53,67.62
27769,2018-06-29 08:59:19.781250,9.75,67.62
27770,2018-06-29 08:59:19.812500,9.16,67.62
27771,2018-06-29 08:59:19.843750,8.51,67.62
27772,2018-06-29 08:59:19.875000,7.79,67.62
27773,2018-06-29 08:59:19.906250,6.58,67.62
27774,2018-06-29 08:59:19.937500,4.47,67.62
27775,2018-06-29 08:59:19.968750,2.29,67.62
27776,2018-06-29 08:59:20.000000,0.96,67.62
27777,2018-06-29 08:59:20.031250,0.02,67.62
27778,2018-06-29 08:59:20.062500,-1.53,67.62
27779,2018-06-29 08:59:20.093750,-3.32,67.62
27780,2018-06-29 08:59:20.125000,-4.25,67.62
27781,2018-06-29 08:59:20.156250,-4.8,67.62
27782,2018-06-29 08:59:20.187500,-6.46,67.62
27783,2018-06-29 08:59:20.218750,-8.6,67.62
27784,2018-06-29 08:59:20.250000,-9.05,67.62
27785,2018-06-29 08:59:20.281250,-7.99,67.62
27786,2018-06-29 08:59:20.312500,-8.16,67.62
27787,2018-06-29 08:59:20.343750,-11.01,67.62
27788,2018-06-29 08:59:20.375000,-15.21,67.62
27789,2018-06-29 08:59:20.406250,-17.91,67.62
27790,2018-06-29 08:59:20.437500,-16.69,67.62
27791,2018-06-29 08:59:20.468750,-11.55,67.62
27792,2018-06-29 08:59:20.500000,-4.7,67.62
27793,2018-06-29 08:59:20.531250,1.59,67.83
27794,2018-06-29 08:59:20.562500,6.27,67.83
27795,2018-06-29 08:59:20.593750,9.36,67.83
27796,2018-06-29 08:59:20.625000,11.62,67.83
27797,2018-06-29 08:59:20.656250,13.63,67.83
27798,2018-06-29 08:59:20.687500,15.06,67.83
27799,2018-06-29 08:59:20.718750,15.3,67.83
27800,2018-06-29 08:59:20.750000,14.62,67.83
27801,2018-06-29 08:59:20.781250,13.89,67.83
27802,2018-06-29 08:59:20.812500,13.41,67.83
27803,2018-06-29 08:59:20.843750,12.89,67.83
27804,2018-06-29 08:59:20.875000,12.21,67.83
27805,2018-06-29 08:59:20.906250,11.26,67.83
27806,2018-06-29 08:59:20.937500,9.31,67.83
27807,2018-06-29 08:59:20.968750,6.03,67.83
27808,2018-06-29 08:59:21.000000,2.19,67.83
27809,2018-06-29 08:59:21.031250,-1.29,67.83
27810,2018-06-29 08:59:21.062500,-4.13,67.83
27811,2018-06-29 08:59:21.093750,-6.58,67.83
27812,2018-06-29 08:59:21.125000,-9.57,67.83
27813,2018-06-29 08:59:21.156250,-13.66,67.83
27814,2018-06-29 08:59:21.187500,-17.71,67.83
27815,2018-06-29 08:59:21.218750,-20.62,67.83
27816,2018-06-29 08:59:21.250000,-23.44,67.83
27817,2018-06-29 08:59:21.281250,-27.59,67.83
27818,2018-06-29 08:59:21.312500,-32.6,67.83
27819,2018-06-29 08:59:21.343750,-36.07,67.83
27820,2018-06-29 08:59:21.375000,-35.13,67.83
27821,2018-06-29 08:59:21.406250,-28.91,67.83
27822,2018-06-29 08:59:21.437500,-19.31,67.83
27823,2018-06-29 08:59:21.468750,-8.87,67.83
27824,2018-06-29 08:59:21.500000,0.93,67.83
27825,2018-06-29 08:59:21.531250,8.28,68.23
27826,2018-06-29 08:59:21.562500,10.84,68.23
27827,2018-06-29 08:59:21.593750,8.26,68.23
27828,2018-06-29 08:59:21.625000,3.39,68.23
27829,2018-06-29 08:59:21.656250,-0.51,68.23
27830,2018-06-29 08:59:21.687500,-2.42,68.23
27831,2018-06-29 08:59:21.718750,-2.07,68.23
27832,2018-06-29 08:59:21.750000,1.51,68.23
27833,2018-06-29 08:59:21.781250,8.16,68.23
27834,2018-06-29 08:59:21.812500,15.71,68.23
27835,2018-06-29 08:59:21.843750,22.36,68.23
27836,2018-06-29 08:59:21.875000,27.76,68.23
27837,2018-06-29 08:59:21.906250,31.57,68.23
27838,2018-06-29 08:59:21.937500,33.3,68.23
27839,2018-06-29 08:59:21.968750,33.96,68.23
27840,2018-06-29 08:59:22.000000,35.07,68.23
27841,2018-06-29 08:59:22.031250,35.96,68.23
27842,2018-06-29 08:59:22.062500,34.77,68.23
27843,2018-06-29 08:59:22.093750,32.6,68.23
27844,2018-06-29 08:59:22.125000,34.05,68.23
27845,2018-06-29 08:59:22.156250,41.49,68.23
27846,2018-06-29 08:59:22.187500,48.42,68.23
27847,2018-06-29 08:59:22.218750,42.16,68.23
27848,2018-06-29 08:59:22.250000,16.95,68.23
27849,2018-06-29 08:59:22.281250,-18.1,68.23
27850,2018-06-29 08:59:22.312500,-46.65,68.23
27851,2018-06-29 08:59:22.343750,-57.55,68.23
27852,2018-06-29 08:59:22.375000,-49.71,68.23
27853,2018-06-29 08:59:22.406250,-31.16,68.23
27854,2018-06-29 08:59:22.437500,-14.08,68.23
27855,2018-06-29 08:59:22.468750,-5.52,68.23
27856,2018-06-29 08:59:22.500000,-2.74,68.23
27857,2018-06-29 08:59:22.531250,0.72,68.65
27858,2018-06-29 08:59:22.562500,6.95,68.65
27859,2018-06-29 08:59:22.593750,13.08,68.65
27860,2018-06-29 08:59:22.625000,16.59,68.65
27861,2018-06-29 08:59:22.656250,19.04,68.65
27862,2018-06-29 08:59:22.687500,23.88,68.65
27863,2018-06-29 08:59:22.718750,30.65,68.65
27864,2018-06-29 08:59:22.750000,34.53,68.65
27865,2018-06-29 08:59:22.781250,33.86,68.65
27866,2018-06-29 08:59:22.812500,35.22,68.65
27867,2018-06-29 08:59:22.843750,47.25,68.65
27868,2018-06-29 08:59:22.875000,68.4,68.65
27869,2018-06-29 08:59:22.906250,81.54,68.65
27870,2018-06-29 08:59:22.937500,65.28,68.65
27871,2018-06-29 08:59:22.968750,16.43,68.65
27872,2018-06-29 08:59:23.000000,-40.72,68.65
27873,2018-06-29 08:59:23.031250,-76.19,68.65
27874,2018-06-29 08:59:23.062500,-82.7,68.65
27875,2018-06-29 08:59:23.093750,-74.02,68.65
27876,2018-06-29 08:59:23.125000,-63.0,68.65
27877,2018-06-29 08:59:23.156250,-53.28,68.65
27878,2018-06-29 08:59:23.187500,-44.85,68.65
27879,2018-06-29 08:59:23.218750,-35.6,68.65
27880,2018-06-29 08:59:23.250000,-22.6,68.65
27881,2018-06-29 08:59:23.281250,-7.85,68.65
27882,2018-06-29 08:59:23.312500,3.78,68.65
27883,2018-06-29 08:59:23.343750,13.22,68.65
27884,2018-06-29 08:59:23.375000,27.51,68.65
27885,2018-06-29 08:59:23.406250,51.46,68.65
27886,2018-06-29 08:59:23.437500,83.13,68.65
27887,2018-06-29 08:59:23.468750,116.99,68.65
27888,2018-06-29 08:59:23.500000,148.04,68.65
27889,2018-06-29 08:59:23.531250,169.93,69.13
27890,2018-06-29 08:59:23.562500,170.43,69.13
27891,2018-06-29 08:59:23.593750,136.84,69.13
27892,2018-06-29 08:59:23.625000,72.47,69.13
27893,2018-06-29 08:59:23.656250,2.3,69.13
27894,2018-06-29 08:59:23.687500,-46.92,69.13
27895,2018-06-29 08:59:23.718750,-70.59,69.13
27896,2018-06-29 08:59:23.750000,-82.86,69.13
27897,2018-06-29 08:59:23.781250,-94.51,69.13
27898,2018-06-29 08:59:23.812500,-105.35,69.13
27899,2018-06-29 08:59:23.843750,-113.17,69.13
27900,2018-06-29 08:59:23.875000,-116.58,69.13
27901,2018-06-29 08:59:23.906250,-112.39,69.13
27902,2018-06-29 08:59:23.937500,-100.46,69.13
27903,2018-06-29 08:59:23.968750,-87.04,69.13
27904,2018-06-29 08:59:24.000000,-77.06,69.13
27905,2018-06-29 08:59:24.031250,-67.93,69.13
27906,2018-06-29 08:59:24.062500,-54.64,69.13
27907,2018-06-29 08:59:24.093750,-37.88,69.13
27908,2018-06-29 08:59:24.125000,-23.63,69.13
27909,2018-06-29 08:59:24.156250,-16.31,69.13
27910,2018-06-29 08:59:24.187500,-15.06,69.13
27911,2018-06-29 08:59:24.218750,-16.64,69.13
27912,2018-06-29 08:59:24.250000,-19.54,69.13
27913,2018-06-29 08:59:24.281250,-24.26,69.13
27914,2018-06-29 08:59:24.312500,-30.79,69.13
27915,2018-06-29 08:59:24.343750,-36.53,69.13
27916,2018-06-29 08:59:24.375000,-37.55,69.13
27917,2018-06-29 08:59:24.406250,-33.02,69.13
27918,2018-06-29 08:59:24.437500,-25.86,69.13
27919,2018-06-29 08:59:24.468750,-18.46,69.13
27920,2018-06-29 08:59:24.500000,-11.32,69.13
27921,2018-06-29 08:59:24.531250,-5.45,69.58
27922,2018-06-29 08:59:24.562500,-1.68,69.58
27923,2018-06-29 08:59:24.593750,0.99,69.58
27924,2018-06-29 08:59:24.625000,3.29,69.58
27925,2018-06-29 08:59:24.656250,3.9,69.58
27926,2018-06-29 08:59:24.687500,2.38,69.58
27927,2018-06-29 08:59:24.718750,1.39,69.58
27928,2018-06-29 08:59:24.750000,4.43,69.58
27929,2018-06-29 08:59:24.781250,12.35,69.58
27930,2018-06-29 08:59:24.812500,22.24,69.58
27931,2018-06-29 08:59:24.843750,29.27,69.58
27932,2018-06-29 08:59:24.875000,30.47,69.58
27933,2018-06-29 08:59:24.906250,27.85,69.58
27934,2018-06-29 08:59:24.937500,26.38,69.58
27935,2018-06-29 08:59:24.968750,28.07,69.58
27936,2018-06-29 08:59:25.000000,30.34,69.58
27937,2018-06-29 08:59:25.031250,30.29,69.58
27938,2018-06-29 08:59:25.062500,27.66,69.58
27939,2018-06-29 08:59:25.093750,23.2,69.58
27940,2018-06-29 08:59:25.125000,17.39,69.58
27941,2018-06-29 08:59:25.156250,10.96,69.58
27942,2018-06-29 08:59:25.187500,4.63,69.58
27943,2018-06-29 08:59:25.218750,-1.42,69.58
27944,2018-06-29 08:59:25.250000,-6.95,69.58
27945,2018-06-29 08:59:25.281250,-11.21,69.58
27946,2018-06-29 08:59:25.312500,-13.64,69.58
27947,2018-06-29 08:59:25.343750,-14.96,69.58
27948,2018-06-29 08:59:25.375000,-17.02,69.58
27949,2018-06-29 08:59:25.406250,-20.1,69.58
27950,2018-06-29 08:59:25.437500,-21.45,69.58
27951,2018-06-29 08:59:25.468750,-17.96,69.58
27952,2018-06-29 08:59:25.500000,-10.14,69.58
27953,2018-06-29 08:59:25.531250,-1.56,70.07
27954,2018-06-29 08:59:25.562500,5.03,70.07
27955,2018-06-29 08:59:25.593750,9.23,70.07
27956,2018-06-29 08:59:25.625000,11.68,70.07
27957,2018-06-29 08:59:25.656250,13.28,70.07
27958,2018-06-29 08:59:25.687500,14.55,70.07
27959,2018-06-29 08:59:25.718750,15.09,70.07
27960,2018-06-29 08:59:25.750000,14.25,70.07
27961,2018-06-29 08:59:25.781250,12.38,70.07
27962,2018-06-29 08:59:25.812500,10.45,70.07
27963,2018-06-29 08:59:25.843750,9.22,70.07
27964,2018-06-29 08:59:25.875000,8.68,70.07
27965,2018-06-29 08:59:25.906250,8.17,70.07
27966,2018-06-29 08:59:25.937500,7.17,70.07
27967,2018-06-29 08:59:25.968750,5.9,70.07
27968,2018-06-29 08:59:26.000000,4.83,70.07
27969,2018-06-29 08:59:26.031250,4.01,70.07
27970,2018-06-29 08:59:26.062500,3.11,70.07
27971,2018-06-29 08:59:26.093750,1.89,70.07
27972,2018-06-29 08:59:26.125000,0.59,70.07
27973,2018-06-29 08:59:26.156250,-0.97,70.07
27974,2018-06-29 08:59:26.187500,-3.61,70.07
27975,2018-06-29 08:59:26.218750,-7.18,70.07
27976,2018-06-29 08:59:26.250000,-10.58,70.07
27977,2018-06-29 08:59:26.281250,-14.07,70.07
27978,2018-06-29 08:59:26.312500,-18.58,70.07
27979,2018-06-29 08:59:26.343750,-23.38,70.07
27980,2018-06-29 08:59:26.375000,-27.18,70.07
27981,2018-06-29 08:59:26.406250,-30.61,70.07
27982,2018-06-29 08:59:26.437500,-35.14,70.07
27983,2018-06-29 08:59:26.468750,-40.55,70.07
27984,2018-06-29 08:59:26.500000,-43.94,70.07
27985,2018-06-29 08:59:26.531250,-40.94,70.55
27986,2018-06-29 08:59:26.562500,-28.91,70.55
27987,2018-06-29 08:59:26.593750,-9.67,70.55
27988,2018-06-29 08:59:26.625000,11.7,70.55
27989,2018-06-29 08:59:26.656250,30.69,70.55
27990,2018-06-29 08:59:26.687500,45.32,70.55
27991,2018-06-29 08:59:26.718750,55.72,70.55
27992,2018-06-29 08:59:26.750000,62.75,70.55
27993,2018-06-29 08:59:26.781250,67.11,70.55
27994,2018-06-29 08:59:26.812500,69.45,70.55
27995,2018-06-29 08:59:26.843750,70.38,70.55
27996,2018-06-29 08:59:26.875000,69.73,70.55
27997,2018-06-29 08:59:26.906250,66.84,70.55
27998,2018-06-29 08:59:26.937500,62.42,70.55
27999,2018-06-29 08:59:26.968750,58.11,70.55
28000,2018-06-29 08:59:27.000000,53.4,70.55
28001,2018-06-29 08:59:27.031250,45.63,70.55
28002,2018-06-29 08:59:27.062500,34.07,70.55
28003,2018-06-29 08:59:27.093750,21.53,70.55
28004,2018-06-29 08:59:27.125000,11.43,70.55
28005,2018-06-29 08:59:27.156250,4.76,70.55
28006,2018-06-29 08:59:27.187500,0.05,70.55
28007,2018-06-29 08:59:27.218750,-4.97,70.55
28008,2018-06-29 08:59:27.250000,-11.28,70.55
28009,2018-06-29 08:59:27.281250,-18.11,70.55
28010,2018-06-29 08:59:27.312500,-24.93,70.55
28011,2018-06-29 08:59:27.343750,-31.73,70.55
28012,2018-06-29 08:59:27.375000,-37.18,70.55
28013,2018-06-29 08:59:27.406250,-39.67,70.55
28014,2018-06-29 08:59:27.437500,-40.23,70.55
28015,2018-06-29 08:59:27.468750,-41.04,70.55
28016,2018-06-29 08:59:27.500000,-42.85,70.55
28017,2018-06-29 08:59:27.531250,-45.54,71.02
28018,2018-06-29 08:59:27.562500,-48.2,71.02
28019,2018-06-29 08:59:27.593750,-47.74,71.02
28020,2018-06-29 08:59:27.625000,-41.5,71.02
28021,2018-06-29 08:59:27.656250,-31.07,71.02
28022,2018-06-29 08:59:27.687500,-20.8,71.02
28023,2018-06-29 08:59:27.718750,-13.49,71.02
28024,2018-06-29 08:59:27.750000,-9.38,71.02
28025,2018-06-29 08:59:27.781250,-7.53,71.02
28026,2018-06-29 08:59:27.812500,-6.48,71.02
28027,2018-06-29 08:59:27.843750,-5.08,71.02
28028,2018-06-29 08:59:27.875000,-3.43,71.02
28029,2018-06-29 08:59:27.906250,-1.75,71.02
28030,2018-06-29 08:59:27.937500,1.13,71.02
28031,2018-06-29 08:59:27.968750,6.49,71.02
28032,2018-06-29 08:59:28.000000,13.95,71.02
28033,2018-06-29 08:59:28.031250,22.34,71.02
28034,2018-06-29 08:59:28.062500,31.63,71.02
28035,2018-06-29 08:59:28.093750,42.97,71.02
28036,2018-06-29 08:59:28.125000,56.23,71.02
28037,2018-06-29 08:59:28.156250,68.45,71.02
28038,2018-06-29 08:59:28.187500,76.24,71.02
28039,2018-06-29 08:59:28.218750,79.12,71.02
28040,2018-06-29 08:59:28.250000,78.95,71.02
28041,2018-06-29 08:59:28.281250,77.0,71.02
28042,2018-06-29 08:59:28.312500,73.87,71.02
28043,2018-06-29 08:59:28.343750,70.37,71.02
28044,2018-06-29 08:59:28.375000,66.32,71.02
28045,2018-06-29 08:59:28.406250,60.84,71.02
28046,2018-06-29 08:59:28.437500,54.3,71.02
28047,2018-06-29 08:59:28.468750,47.42,71.02
28048,2018-06-29 08:59:28.500000,39.31,71.02
28049,2018-06-29 08:59:28.531250,29.17,71.47
28050,2018-06-29 08:59:28.562500,18.46,71.47
28051,2018-06-29 08:59:28.593750,10.17,71.47
28052,2018-06-29 08:59:28.625000,7.09,71.47
28053,2018-06-29 08:59:28.656250,8.8,71.47
28054,2018-06-29 08:59:28.687500,10.97,71.47
28055,2018-06-29 08:59:28.718750,10.17,71.47
28056,2018-06-29 08:59:28.750000,6.84,71.47
28057,2018-06-29 08:59:28.781250,1.62,71.47
28058,2018-06-29 08:59:28.812500,-5.97,71.47
28059,2018-06-29 08:59:28.843750,-14.52,71.47
28060,2018-06-29 08:59:28.875000,-21.67,71.47
28061,2018-06-29 08:59:28.906250,-27.99,71.47
28062,2018-06-29 08:59:28.937500,-35.35,71.47
28063,2018-06-29 08:59:28.968750,-42.92,71.47
28064,2018-06-29 08:59:29.000000,-48.21,71.47
28065,2018-06-29 08:59:29.031250,-50.92,71.47
28066,2018-06-29 08:59:29.062500,-53.08,71.47
28067,2018-06-29 08:59:29.093750,-55.94,71.47
28068,2018-06-29 08:59:29.125000,-58.78,71.47
28069,2018-06-29 08:59:29.156250,-60.72,71.47
28070,2018-06-29 08:59:29.187500,-61.71,71.47
28071,2018-06-29 08:59:29.218750,-61.58,71.47
28072,2018-06-29 08:59:29.250000,-59.94,71.47
28073,2018-06-29 08:59:29.281250,-57.1,71.47
28074,2018-06-29 08:59:29.312500,-54.19,71.47
28075,2018-06-29 08:59:29.343750,-52.46,71.47
28076,2018-06-29 08:59:29.375000,-52.7,71.47
28077,2018-06-29 08:59:29.406250,-54.18,71.47
28078,2018-06-29 08:59:29.437500,-55.09,71.47
28079,2018-06-29 08:59:29.468750,-54.63,71.47
28080,2018-06-29 08:59:29.500000,-53.39,71.47
28081,2018-06-29 08:59:29.531250,-51.93,71.9
28082,2018-06-29 08:59:29.562500,-50.67,71.9
28083,2018-06-29 08:59:29.593750,-50.84,71.9
28084,2018-06-29 08:59:29.625000,-52.68,71.9
28085,2018-06-29 08:59:29.656250,-53.34,71.9
28086,2018-06-29 08:59:29.687500,-49.02,71.9
28087,2018-06-29 08:59:29.718750,-39.5,71.9
28088,2018-06-29 08:59:29.750000,-28.36,71.9
28089,2018-06-29 08:59:29.781250,-19.0,71.9
28090,2018-06-29 08:59:29.812500,-12.14,71.9
28091,2018-06-29 08:59:29.843750,-6.78,71.9
28092,2018-06-29 08:59:29.875000,-1.86,71.9
28093,2018-06-29 08:59:29.906250,2.46,71.9
28094,2018-06-29 08:59:29.937500,5.31,71.9
28095,2018-06-29 08:59:29.968750,6.82,71.9
28096,2018-06-29 08:59:30.000000,7.9,71.9
28097,2018-06-29 08:59:30.031250,8.99,71.9
28098,2018-06-29 08:59:30.062500,10.17,71.9
28099,2018-06-29 08:59:30.093750,11.5,71.9
28100,2018-06-29 08:59:30.125000,12.65,71.9
28101,2018-06-29 08:59:30.156250,12.93,71.9
28102,2018-06-29 08:59:30.187500,12.18,71.9
28103,2018-06-29 08:59:30.218750,11.16,71.9
28104,2018-06-29 08:59:30.250000,10.67,71.9
28105,2018-06-29 08:59:30.281250,10.47,71.9
28106,2018-06-29 08:59:30.312500,9.97,71.9
28107,2018-06-29 08:59:30.343750,9.34,71.9
28108,2018-06-29 08:59:30.375000,8.69,71.9
28109,2018-06-29 08:59:30.406250,7.61,71.9
28110,2018-06-29 08:59:30.437500,6.27,71.9
28111,2018-06-29 08:59:30.468750,4.74,71.9
28112,2018-06-29 08:59:30.500000,2.37,71.9
28113,2018-06-29 08:59:30.531250,-0.32,72.35
28114,2018-06-29 08:59:30.562500,-1.79,72.35
28115,2018-06-29 08:59:30.593750,-2.3,72.35
28116,2018-06-29 08:59:30.625000,-3.8,72.35
28117,2018-06-29 08:59:30.656250,-6.77,72.35
28118,2018-06-29 08:59:30.687500,-10.16,72.35
28119,2018-06-29 08:59:30.718750,-13.39,72.35
28120,2018-06-29 08:59:30.750000,-16.47,72.35
28121,2018-06-29 08:59:30.781250,-19.82,72.35
28122,2018-06-29 08:59:30.812500,-24.27,72.35
28123,2018-06-29 08:59:30.843750,-28.99,72.35
28124,2018-06-29 08:59:30.875000,-30.26,72.35
28125,2018-06-29 08:59:30.906250,-25.22,72.35
28126,2018-06-29 08:59:30.937500,-15.86,72.35
28127,2018-06-29 08:59:30.968750,-6.7,72.35
28128,2018-06-29 08:59:31.000000,0.15,72.35
28129,2018-06-29 08:59:31.031250,5.31,72.35
28130,2018-06-29 08:59:31.062500,9.22,72.35
28131,2018-06-29 08:59:31.093750,11.58,72.35
28132,2018-06-29 08:59:31.125000,12.69,72.35
28133,2018-06-29 08:59:31.156250,13.51,72.35
28134,2018-06-29 08:59:31.187500,14.71,72.35
28135,2018-06-29 08:59:31.218750,16.62,72.35
28136,2018-06-29 08:59:31.250000,19.25,72.35
28137,2018-06-29 08:59:31.281250,21.85,72.35
28138,2018-06-29 08:59:31.312500,23.37,72.35
28139,2018-06-29 08:59:31.343750,23.71,72.35
28140,2018-06-29 08:59:31.375000,23.66,72.35
28141,2018-06-29 08:59:31.406250,23.51,72.35
28142,2018-06-29 08:59:31.437500,22.58,72.35
28143,2018-06-29 08:59:31.468750,20.5,72.35
28144,2018-06-29 08:59:31.500000,18.23,72.35
28145,2018-06-29 08:59:31.531250,16.64,72.83
28146,2018-06-29 08:59:31.562500,15.03,72.83
28147,2018-06-29 08:59:31.593750,12.58,72.83
28148,2018-06-29 08:59:31.625000,9.97,72.83
28149,2018-06-29 08:59:31.656250,8.0,72.83
28150,2018-06-29 08:59:31.687500,6.15,72.83
28151,2018-06-29 08:59:31.718750,3.66,72.83
28152,2018-06-29 08:59:31.750000,0.88,72.83
28153,2018-06-29 08:59:31.781250,-1.44,72.83
28154,2018-06-29 08:59:31.812500,-3.24,72.83
28155,2018-06-29 08:59:31.843750,-5.16,72.83
28156,2018-06-29 08:59:31.875000,-7.79,72.83
28157,2018-06-29 08:59:31.906250,-10.99,72.83
28158,2018-06-29 08:59:31.937500,-13.93,72.83
28159,2018-06-29 08:59:31.968750,-16.18,72.83
28160,2018-06-29 08:59:32.000000,-18.62,72.83
28161,2018-06-29 08:59:32.031250,-22.51,72.83
28162,2018-06-29 08:59:32.062500,-27.04,72.83
28163,2018-06-29 08:59:32.093750,-28.75,72.83
28164,2018-06-29 08:59:32.125000,-24.38,72.83
28165,2018-06-29 08:59:32.156250,-14.63,72.83
28166,2018-06-29 08:59:32.187500,-3.76,72.83
28167,2018-06-29 08:59:32.218750,4.67,72.83
28168,2018-06-29 08:59:32.250000,10.13,72.83
28169,2018-06-29 08:59:32.281250,13.43,72.83
28170,2018-06-29 08:59:32.312500,14.9,72.83
28171,2018-06-29 08:59:32.343750,15.16,72.83
28172,2018-06-29 08:59:32.375000,15.18,72.83
28173,2018-06-29 08:59:32.406250,15.32,72.83
28174,2018-06-29 08:59:32.437500,15.63,72.83
28175,2018-06-29 08:59:32.468750,16.41,72.83
28176,2018-06-29 08:59:32.500000,17.51,72.83
28177,2018-06-29 08:59:32.531250,17.95,73.28
28178,2018-06-29 08:59:32.562500,17.16,73.28
28179,2018-06-29 08:59:32.593750,15.71,73.28
28180,2018-06-29 08:59:32.625000,14.63,73.28
28181,2018-06-29 08:59:32.656250,14.36,73.28
28182,2018-06-29 08:59:32.687500,14.27,73.28
28183,2018-06-29 08:59:32.718750,13.75,73.28
28184,2018-06-29 08:59:32.750000,13.19,73.28
28185,2018-06-29 08:59:32.781250,12.88,73.28
28186,2018-06-29 08:59:32.812500,11.57,73.28
28187,2018-06-29 08:59:32.843750,8.17,73.28
28188,2018-06-29 08:59:32.875000,3.95,73.28
28189,2018-06-29 08:59:32.906250,1.0,73.28
28190,2018-06-29 08:59:32.937500,-0.52,73.28
28191,2018-06-29 08:59:32.968750,-1.63,73.28
28192,2018-06-29 08:59:33.000000,-2.64,73.28
28193,2018-06-29 08:59:33.031250,-3.62,73.28
28194,2018-06-29 08:59:33.062500,-5.51,73.28
28195,2018-06-29 08:59:33.093750,-9.02,73.28
28196,2018-06-29 08:59:33.125000,-13.34,73.28
28197,2018-06-29 08:59:33.156250,-17.12,73.28
28198,2018-06-29 08:59:33.187500,-20.5,73.28
28199,2018-06-29 08:59:33.218750,-24.67,73.28
28200,2018-06-29 08:59:33.250000,-30.27,73.28
28201,2018-06-29 08:59:33.281250,-37.18,73.28
28202,2018-06-29 08:59:33.312500,-44.14,73.28
28203,2018-06-29 08:59:33.343750,-47.73,73.28
28204,2018-06-29 08:59:33.375000,-45.15,73.28
28205,2018-06-29 08:59:33.406250,-37.85,73.28
28206,2018-06-29 08:59:33.437500,-29.37,73.28
28207,2018-06-29 08:59:33.468750,-21.51,73.28
28208,2018-06-29 08:59:33.500000,-15.06,73.28
28209,2018-06-29 08:59:33.531250,-10.66,73.78
28210,2018-06-29 08:59:33.562500,-7.03,73.78
28211,2018-06-29 08:59:33.593750,-2.18,73.78
28212,2018-06-29 08:59:33.625000,3.44,73.78
28213,2018-06-29 08:59:33.656250,8.01,73.78
28214,2018-06-29 08:59:33.687500,11.43,73.78
28215,2018-06-29 08:59:33.718750,15.36,73.78
28216,2018-06-29 08:59:33.750000,20.81,73.78
28217,2018-06-29 08:59:33.781250,26.71,73.78
28218,2018-06-29 08:59:33.812500,31.17,73.78
28219,2018-06-29 08:59:33.843750,34.08,73.78
28220,2018-06-29 08:59:33.875000,37.38,73.78
28221,2018-06-29 08:59:33.906250,41.71,73.78
28222,2018-06-29 08:59:33.937500,44.87,73.78
28223,2018-06-29 08:59:33.968750,45.23,73.78
28224,2018-06-29 08:59:34.000000,44.84,73.78
28225,2018-06-29 08:59:34.031250,46.87,73.78
28226,2018-06-29 08:59:34.062500,51.13,73.78
28227,2018-06-29 08:59:34.093750,54.89,73.78
28228,2018-06-29 08:59:34.125000,57.98,73.78
28229,2018-06-29 08:59:34.156250,63.19,73.78
28230,2018-06-29 08:59:34.187500,70.55,73.78
28231,2018-06-29 08:59:34.218750,73.88,73.78
28232,2018-06-29 08:59:34.250000,63.68,73.78
28233,2018-06-29 08:59:34.281250,35.09,73.78
28234,2018-06-29 08:59:34.312500,-2.85,73.78
28235,2018-06-29 08:59:34.343750,-30.88,73.78
28236,2018-06-29 08:59:34.375000,-38.98,73.78
28237,2018-06-29 08:59:34.406250,-35.92,73.78
28238,2018-06-29 08:59:34.437500,-34.02,73.78
28239,2018-06-29 08:59:34.468750,-34.15,73.78
28240,2018-06-29 08:59:34.500000,-30.44,73.78
28241,2018-06-29 08:59:34.531250,-20.07,74.27
28242,2018-06-29 08:59:34.562500,-3.96,74.27
28243,2018-06-29 08:59:34.593750,15.56,74.27
28244,2018-06-29 08:59:34.625000,35.57,74.27
28245,2018-06-29 08:59:34.656250,53.7,74.27
28246,2018-06-29 08:59:34.687500,68.92,74.27
28247,2018-06-29 08:59:34.718750,81.74,74.27
28248,2018-06-29 08:59:34.750000,96.63,74.27
28249,2018-06-29 08:59:34.781250,123.15,74.27
28250,2018-06-29 08:59:34.812500,163.79,74.27
28251,2018-06-29 08:59:34.843750,198.85,74.27
28252,2018-06-29 08:59:34.875000,197.15,74.27
28253,2018-06-29 08:59:34.906250,145.49,74.27
28254,2018-06-29 08:59:34.937500,60.52,74.27
28255,2018-06-29 08:59:34.968750,-24.14,74.27
28256,2018-06-29 08:59:35.000000,-80.76,74.27
28257,2018-06-29 08:59:35.031250,-106.52,74.27
28258,2018-06-29 08:59:35.062500,-119.86,74.27
28259,2018-06-29 08:59:35.093750,-134.52,74.27
28260,2018-06-29 08:59:35.125000,-147.04,74.27
28261,2018-06-29 08:59:35.156250,-150.24,74.27
28262,2018-06-29 08:59:35.187500,-143.56,74.27
28263,2018-06-29 08:59:35.218750,-129.53,74.27
28264,2018-06-29 08:59:35.250000,-111.18,74.27
28265,2018-06-29 08:59:35.281250,-92.21,74.27
28266,2018-06-29 08:59:35.312500,-74.6,74.27
28267,2018-06-29 08:59:35.343750,-57.19,74.27
