,Time,ppg,hr
256000,2018-06-29 10:58:12.000000,44.76,69.0
256001,2018-06-29 10:58:12.031250,45.91,69.0
256002,2018-06-29 10:58:12.062500,45.37,69.0
256003,2018-06-29 10:58:12.093750,41.55,69.0
256004,2018-06-29 10:58:12.125000,34.48,69.0
256005,2018-06-29 10:58:12.156250,25.87,69.0
256006,2018-06-29 10:58:12.187500,17.01,69.0
256007,2018-06-29 10:58:12.218750,8.38,69.0
256008,2018-06-29 10:58:12.250000,0.17,69.0
256009,2018-06-29 10:58:12.281250,-7.95,69.0
256010,2018-06-29 10:58:12.312500,-16.92,69.0
256011,2018-06-29 10:58:12.343750,-27.4,69.0
256012,2018-06-29 10:58:12.375000,-38.74,69.0
256013,2018-06-29 10:58:12.406250,-49.11,69.0
256014,2018-06-29 10:58:12.437500,-57.0,69.0
256015,2018-06-29 10:58:12.468750,-63.62,69.0
256016,2018-06-29 10:58:12.500000,-73.33,69.0
256017,2018-06-29 10:58:12.531250,-88.79,68.87
256018,2018-06-29 10:58:12.562500,-101.85,68.87
256019,2018-06-29 10:58:12.593750,-95.38,68.87
256020,2018-06-29 10:58:12.625000,-62.63,68.87
256021,2018-06-29 10:58:12.656250,-18.05,68.87
256022,2018-06-29 10:58:12.687500,18.48,68.87
256023,2018-06-29 10:58:12.718750,39.79,68.87
256024,2018-06-29 10:58:12.750000,48.97,68.87
256025,2018-06-29 10:58:12.781250,49.64,68.87
256026,2018-06-29 10:58:12.812500,45.27,68.87
256027,2018-06-29 10:58:12.843750,41.02,68.87
256028,2018-06-29 10:58:12.875000,40.77,68.87
256029,2018-06-29 10:58:12.906250,43.65,68.87
256030,2018-06-29 10:58:12.937500,45.8,68.87
256031,2018-06-29 10:58:12.968750,45.49,68.87
256032,2018-06-29 10:58:13.000000,43.81,68.87
256033,2018-06-29 10:58:13.031250,40.95,68.87
256034,2018-06-29 10:58:13.062500,35.11,68.87
256035,2018-06-29 10:58:13.093750,25.48,68.87
256036,2018-06-29 10:58:13.125000,14.21,68.87
256037,2018-06-29 10:58:13.156250,4.27,68.87
256038,2018-06-29 10:58:13.187500,-3.87,68.87
256039,2018-06-29 10:58:13.218750,-12.67,68.87
256040,2018-06-29 10:58:13.250000,-24.08,68.87
256041,2018-06-29 10:58:13.281250,-36.37,68.87
256042,2018-06-29 10:58:13.312500,-46.36,68.87
256043,2018-06-29 10:58:13.343750,-53.91,68.87
256044,2018-06-29 10:58:13.375000,-62.37,68.87
256045,2018-06-29 10:58:13.406250,-75.14,68.87
256046,2018-06-29 10:58:13.437500,-90.86,68.87
256047,2018-06-29 10:58:13.468750,-98.69,68.87
256048,2018-06-29 10:58:13.500000,-83.86,68.87
256049,2018-06-29 10:58:13.531250,-45.32,68.72
256050,2018-06-29 10:58:13.562500,-0.47,68.72
256051,2018-06-29 10:58:13.593750,33.08,68.72
256052,2018-06-29 10:58:13.625000,51.49,68.72
256053,2018-06-29 10:58:13.656250,58.17,68.72
256054,2018-06-29 10:58:13.687500,55.98,68.72
256055,2018-06-29 10:58:13.718750,49.23,68.72
256056,2018-06-29 10:58:13.750000,44.06,68.72
256057,2018-06-29 10:58:13.781250,43.36,68.72
256058,2018-06-29 10:58:13.812500,44.89,68.72
256059,2018-06-29 10:58:13.843750,45.4,68.72
256060,2018-06-29 10:58:13.875000,44.34,68.72
256061,2018-06-29 10:58:13.906250,42.22,68.72
256062,2018-06-29 10:58:13.937500,37.81,68.72
256063,2018-06-29 10:58:13.968750,29.1,68.72
256064,2018-06-29 10:58:14.000000,16.7,68.72
256065,2018-06-29 10:58:14.031250,4.09,68.72
256066,2018-06-29 10:58:14.062500,-6.29,68.72
256067,2018-06-29 10:58:14.093750,-15.62,68.72
256068,2018-06-29 10:58:14.125000,-26.43,68.72
256069,2018-06-29 10:58:14.156250,-39.02,68.72
256070,2018-06-29 10:58:14.187500,-51.21,68.72
256071,2018-06-29 10:58:14.218750,-60.87,68.72
256072,2018-06-29 10:58:14.250000,-68.41,68.72
256073,2018-06-29 10:58:14.281250,-77.69,68.72
256074,2018-06-29 10:58:14.312500,-92.56,68.72
256075,2018-06-29 10:58:14.343750,-107.94,68.72
256076,2018-06-29 10:58:14.375000,-106.97,68.72
256077,2018-06-29 10:58:14.406250,-77.05,68.72
256078,2018-06-29 10:58:14.437500,-27.53,68.72
256079,2018-06-29 10:58:14.468750,18.6,68.72
256080,2018-06-29 10:58:14.500000,47.68,68.72
256081,2018-06-29 10:58:14.531250,61.03,68.55
256082,2018-06-29 10:58:14.562500,64.02,68.55
256083,2018-06-29 10:58:14.593750,60.5,68.55
256084,2018-06-29 10:58:14.625000,54.9,68.55
256085,2018-06-29 10:58:14.656250,51.46,68.55
256086,2018-06-29 10:58:14.687500,51.12,68.55
256087,2018-06-29 10:58:14.718750,51.97,68.55
256088,2018-06-29 10:58:14.750000,52.47,68.55
256089,2018-06-29 10:58:14.781250,52.28,68.55
256090,2018-06-29 10:58:14.812500,50.41,68.55
256091,2018-06-29 10:58:14.843750,44.95,68.55
256092,2018-06-29 10:58:14.875000,35.21,68.55
256093,2018-06-29 10:58:14.906250,22.99,68.55
256094,2018-06-29 10:58:14.937500,11.21,68.55
256095,2018-06-29 10:58:14.968750,1.24,68.55
256096,2018-06-29 10:58:15.000000,-8.66,68.55
256097,2018-06-29 10:58:15.031250,-21.03,68.55
256098,2018-06-29 10:58:15.062500,-35.41,68.55
256099,2018-06-29 10:58:15.093750,-48.27,68.55
256100,2018-06-29 10:58:15.125000,-57.55,68.55
256101,2018-06-29 10:58:15.156250,-65.41,68.55
256102,2018-06-29 10:58:15.187500,-76.59,68.55
256103,2018-06-29 10:58:15.218750,-93.5,68.55
256104,2018-06-29 10:58:15.250000,-108.43,68.55
256105,2018-06-29 10:58:15.281250,-103.74,68.55
256106,2018-06-29 10:58:15.312500,-69.53,68.55
256107,2018-06-29 10:58:15.343750,-18.36,68.55
256108,2018-06-29 10:58:15.375000,27.02,68.55
256109,2018-06-29 10:58:15.406250,54.93,68.55
256110,2018-06-29 10:58:15.437500,66.6,68.55
256111,2018-06-29 10:58:15.468750,66.3,68.55
256112,2018-06-29 10:58:15.500000,58.98,68.55
256113,2018-06-29 10:58:15.531250,51.49,68.4
256114,2018-06-29 10:58:15.562500,48.79,68.4
256115,2018-06-29 10:58:15.593750,50.07,68.4
256116,2018-06-29 10:58:15.625000,51.46,68.4
256117,2018-06-29 10:58:15.656250,51.43,68.4
256118,2018-06-29 10:58:15.687500,50.62,68.4
256119,2018-06-29 10:58:15.718750,47.55,68.4
256120,2018-06-29 10:58:15.750000,39.11,68.4
256121,2018-06-29 10:58:15.781250,25.99,68.4
256122,2018-06-29 10:58:15.812500,12.81,68.4
256123,2018-06-29 10:58:15.843750,2.21,68.4
256124,2018-06-29 10:58:15.875000,-8.12,68.4
256125,2018-06-29 10:58:15.906250,-21.14,68.4
256126,2018-06-29 10:58:15.937500,-35.22,68.4
256127,2018-06-29 10:58:15.968750,-45.96,68.4
256128,2018-06-29 10:58:16.000000,-52.61,68.4
256129,2018-06-29 10:58:16.031250,-60.04,68.4
256130,2018-06-29 10:58:16.062500,-73.51,68.4
256131,2018-06-29 10:58:16.093750,-90.86,68.4
256132,2018-06-29 10:58:16.125000,-98.06,68.4
256133,2018-06-29 10:58:16.156250,-79.02,68.4
256134,2018-06-29 10:58:16.187500,-35.28,68.4
256135,2018-06-29 10:58:16.218750,12.7,68.4
256136,2018-06-29 10:58:16.250000,46.91,68.4
256137,2018-06-29 10:58:16.281250,63.87,68.4
256138,2018-06-29 10:58:16.312500,66.47,68.4
256139,2018-06-29 10:58:16.343750,58.41,68.4
256140,2018-06-29 10:58:16.375000,47.25,68.4
256141,2018-06-29 10:58:16.406250,41.17,68.4
256142,2018-06-29 10:58:16.437500,41.06,68.4
256143,2018-06-29 10:58:16.468750,41.96,68.4
256144,2018-06-29 10:58:16.500000,41.63,68.4
256145,2018-06-29 10:58:16.531250,41.59,68.28
256146,2018-06-29 10:58:16.562500,40.31,68.28
256147,2018-06-29 10:58:16.593750,32.88,68.28
256148,2018-06-29 10:58:16.625000,18.95,68.28
256149,2018-06-29 10:58:16.656250,4.49,68.28
256150,2018-06-29 10:58:16.687500,-6.32,68.28
256151,2018-06-29 10:58:16.718750,-16.33,68.28
256152,2018-06-29 10:58:16.750000,-30.0,68.28
256153,2018-06-29 10:58:16.781250,-45.65,68.28
256154,2018-06-29 10:58:16.812500,-57.8,68.28
256155,2018-06-29 10:58:16.843750,-65.71,68.28
256156,2018-06-29 10:58:16.875000,-75.11,68.28
256157,2018-06-29 10:58:16.906250,-90.9,68.28
256158,2018-06-29 10:58:16.937500,-108.67,68.28
256159,2018-06-29 10:58:16.968750,-112.63,68.28
256160,2018-06-29 10:58:17.000000,-87.55,68.28
256161,2018-06-29 10:58:17.031250,-37.58,68.28
256162,2018-06-29 10:58:17.062500,14.65,68.28
256163,2018-06-29 10:58:17.093750,50.66,68.28
256164,2018-06-29 10:58:17.125000,68.47,68.28
256165,2018-06-29 10:58:17.156250,73.29,68.28
256166,2018-06-29 10:58:17.187500,69.51,68.28
256167,2018-06-29 10:58:17.218750,62.87,68.28
256168,2018-06-29 10:58:17.250000,58.76,68.28
256169,2018-06-29 10:58:17.281250,57.16,68.28
256170,2018-06-29 10:58:17.312500,55.38,68.28
256171,2018-06-29 10:58:17.343750,53.59,68.28
256172,2018-06-29 10:58:17.375000,53.04,68.28
256173,2018-06-29 10:58:17.406250,50.96,68.28
256174,2018-06-29 10:58:17.437500,42.74,68.28
256175,2018-06-29 10:58:17.468750,28.65,68.28
256176,2018-06-29 10:58:17.500000,14.08,68.28
256177,2018-06-29 10:58:17.531250,2.62,68.17
256178,2018-06-29 10:58:17.562500,-8.09,68.17
256179,2018-06-29 10:58:17.593750,-21.51,68.17
256180,2018-06-29 10:58:17.625000,-36.17,68.17
256181,2018-06-29 10:58:17.656250,-47.82,68.17
256182,2018-06-29 10:58:17.687500,-55.88,68.17
256183,2018-06-29 10:58:17.718750,-65.03,68.17
256184,2018-06-29 10:58:17.750000,-80.09,68.17
256185,2018-06-29 10:58:17.781250,-97.83,68.17
256186,2018-06-29 10:58:17.812500,-102.75,68.17
256187,2018-06-29 10:58:17.843750,-79.21,68.17
256188,2018-06-29 10:58:17.875000,-30.93,68.17
256189,2018-06-29 10:58:17.906250,20.11,68.17
256190,2018-06-29 10:58:17.937500,55.77,68.17
256191,2018-06-29 10:58:17.968750,73.05,68.17
256192,2018-06-29 10:58:18.000000,76.08,68.17
256193,2018-06-29 10:58:18.031250,69.92,68.17
256194,2018-06-29 10:58:18.062500,61.41,68.17
256195,2018-06-29 10:58:18.093750,56.52,68.17
256196,2018-06-29 10:58:18.125000,55.58,68.17
256197,2018-06-29 10:58:18.156250,55.13,68.17
256198,2018-06-29 10:58:18.187500,53.83,68.17
256199,2018-06-29 10:58:18.218750,52.98,68.17
256200,2018-06-29 10:58:18.250000,51.44,68.17
256201,2018-06-29 10:58:18.281250,44.85,68.17
256202,2018-06-29 10:58:18.312500,31.73,68.17
256203,2018-06-29 10:58:18.343750,16.65,68.17
256204,2018-06-29 10:58:18.375000,4.39,68.17
256205,2018-06-29 10:58:18.406250,-5.89,68.17
256206,2018-06-29 10:58:18.437500,-17.93,68.17
256207,2018-06-29 10:58:18.468750,-31.95,68.17
256208,2018-06-29 10:58:18.500000,-44.14,68.17
256209,2018-06-29 10:58:18.531250,-52.21,68.1
256210,2018-06-29 10:58:18.562500,-58.95,68.1
256211,2018-06-29 10:58:18.593750,-69.64,68.1
256212,2018-06-29 10:58:18.625000,-85.98,68.1
256213,2018-06-29 10:58:18.656250,-99.18,68.1
256214,2018-06-29 10:58:18.687500,-92.17,68.1
256215,2018-06-29 10:58:18.718750,-56.8,68.1
256216,2018-06-29 10:58:18.750000,-6.57,68.1
256217,2018-06-29 10:58:18.781250,35.92,68.1
256218,2018-06-29 10:58:18.812500,59.55,68.1
256219,2018-06-29 10:58:18.843750,66.37,68.1
256220,2018-06-29 10:58:18.875000,62.17,68.1
256221,2018-06-29 10:58:18.906250,53.08,68.1
256222,2018-06-29 10:58:18.937500,45.6,68.1
256223,2018-06-29 10:58:18.968750,43.0,68.1
256224,2018-06-29 10:58:19.000000,43.4,68.1
256225,2018-06-29 10:58:19.031250,43.66,68.1
256226,2018-06-29 10:58:19.062500,43.23,68.1
256227,2018-06-29 10:58:19.093750,41.97,68.1
256228,2018-06-29 10:58:19.125000,37.03,68.1
256229,2018-06-29 10:58:19.156250,26.24,68.1
256230,2018-06-29 10:58:19.187500,12.62,68.1
256231,2018-06-29 10:58:19.218750,1.04,68.1
256232,2018-06-29 10:58:19.250000,-8.62,68.1
256233,2018-06-29 10:58:19.281250,-20.26,68.1
256234,2018-06-29 10:58:19.312500,-34.3,68.1
256235,2018-06-29 10:58:19.343750,-46.66,68.1
256236,2018-06-29 10:58:19.375000,-55.1,68.1
256237,2018-06-29 10:58:19.406250,-62.21,68.1
256238,2018-06-29 10:58:19.437500,-72.45,68.1
256239,2018-06-29 10:58:19.468750,-86.91,68.1
256240,2018-06-29 10:58:19.500000,-96.96,68.1
256241,2018-06-29 10:58:19.531250,-86.74,68.07
256242,2018-06-29 10:58:19.562500,-50.18,68.07
256243,2018-06-29 10:58:19.593750,-1.91,68.07
256244,2018-06-29 10:58:19.625000,36.93,68.07
256245,2018-06-29 10:58:19.656250,57.87,68.07
256246,2018-06-29 10:58:19.687500,64.15,68.07
256247,2018-06-29 10:58:19.718750,60.67,68.07
256248,2018-06-29 10:58:19.750000,52.65,68.07
256249,2018-06-29 10:58:19.781250,46.55,68.07
256250,2018-06-29 10:58:19.812500,45.21,68.07
256251,2018-06-29 10:58:19.843750,45.37,68.07
256252,2018-06-29 10:58:19.875000,43.9,68.07
256253,2018-06-29 10:58:19.906250,42.07,68.07
256254,2018-06-29 10:58:19.937500,40.92,68.07
256255,2018-06-29 10:58:19.968750,37.32,68.07
256256,2018-06-29 10:58:20.000000,28.26,68.07
256257,2018-06-29 10:58:20.031250,15.69,68.07
256258,2018-06-29 10:58:20.062500,4.09,68.07
256259,2018-06-29 10:58:20.093750,-5.53,68.07
256260,2018-06-29 10:58:20.125000,-16.37,68.07
256261,2018-06-29 10:58:20.156250,-30.23,68.07
256262,2018-06-29 10:58:20.187500,-43.83,68.07
256263,2018-06-29 10:58:20.218750,-53.23,68.07
256264,2018-06-29 10:58:20.250000,-59.84,68.07
256265,2018-06-29 10:58:20.281250,-69.12,68.07
256266,2018-06-29 10:58:20.312500,-83.89,68.07
256267,2018-06-29 10:58:20.343750,-97.28,68.07
256268,2018-06-29 10:58:20.375000,-93.43,68.07
256269,2018-06-29 10:58:20.406250,-62.55,68.07
256270,2018-06-29 10:58:20.437500,-15.19,68.07
256271,2018-06-29 10:58:20.468750,27.16,68.07
256272,2018-06-29 10:58:20.500000,52.63,68.07
256273,2018-06-29 10:58:20.531250,62.28,68.08
256274,2018-06-29 10:58:20.562500,60.85,68.08
256275,2018-06-29 10:58:20.593750,53.76,68.08
256276,2018-06-29 10:58:20.625000,47.55,68.08
256277,2018-06-29 10:58:20.656250,45.95,68.08
256278,2018-06-29 10:58:20.687500,47.31,68.08
256279,2018-06-29 10:58:20.718750,48.17,68.08
256280,2018-06-29 10:58:20.750000,47.81,68.08
256281,2018-06-29 10:58:20.781250,47.57,68.08
256282,2018-06-29 10:58:20.812500,46.4,68.08
256283,2018-06-29 10:58:20.843750,40.48,68.08
256284,2018-06-29 10:58:20.875000,28.92,68.08
256285,2018-06-29 10:58:20.906250,16.63,68.08
256286,2018-06-29 10:58:20.937500,8.17,68.08
256287,2018-06-29 10:58:20.968750,1.29,68.08
256288,2018-06-29 10:58:21.000000,-9.03,68.08
256289,2018-06-29 10:58:21.031250,-21.8,68.08
256290,2018-06-29 10:58:21.062500,-31.03,68.08
256291,2018-06-29 10:58:21.093750,-35.4,68.08
256292,2018-06-29 10:58:21.125000,-41.52,68.08
256293,2018-06-29 10:58:21.156250,-56.23,68.08
256294,2018-06-29 10:58:21.187500,-76.96,68.08
256295,2018-06-29 10:58:21.218750,-88.71,68.08
256296,2018-06-29 10:58:21.250000,-74.57,68.08
256297,2018-06-29 10:58:21.281250,-33.83,68.08
256298,2018-06-29 10:58:21.312500,14.66,68.08
256299,2018-06-29 10:58:21.343750,51.44,68.08
256300,2018-06-29 10:58:21.375000,71.64,68.08
256301,2018-06-29 10:58:21.406250,79.25,68.08
256302,2018-06-29 10:58:21.437500,75.17,68.08
256303,2018-06-29 10:58:21.468750,58.34,68.08
256304,2018-06-29 10:58:21.500000,34.08,68.08
256305,2018-06-29 10:58:21.531250,12.79,68.12
256306,2018-06-29 10:58:21.562500,0.51,68.12
256307,2018-06-29 10:58:21.593750,-2.95,68.12
256308,2018-06-29 10:58:21.625000,0.78,68.12
256309,2018-06-29 10:58:21.656250,8.39,68.12
256310,2018-06-29 10:58:21.687500,14.01,68.12
256311,2018-06-29 10:58:21.718750,14.72,68.12
256312,2018-06-29 10:58:21.750000,12.88,68.12
256313,2018-06-29 10:58:21.781250,11.26,68.12
256314,2018-06-29 10:58:21.812500,9.43,68.12
256315,2018-06-29 10:58:21.843750,3.64,68.12
256316,2018-06-29 10:58:21.875000,-11.31,68.12
256317,2018-06-29 10:58:21.906250,-37.44,68.12
256318,2018-06-29 10:58:21.937500,-70.81,68.12
256319,2018-06-29 10:58:21.968750,-106.16,68.12
256320,2018-06-29 10:58:22.000000,-139.13,68.12
256321,2018-06-29 10:58:22.031250,-159.19,68.12
256322,2018-06-29 10:58:22.062500,-150.14,68.12
256323,2018-06-29 10:58:22.093750,-108.54,68.12
256324,2018-06-29 10:58:22.125000,-53.59,68.12
256325,2018-06-29 10:58:22.156250,-8.91,68.12
256326,2018-06-29 10:58:22.187500,17.85,68.12
256327,2018-06-29 10:58:22.218750,31.4,68.12
256328,2018-06-29 10:58:22.250000,36.1,68.12
256329,2018-06-29 10:58:22.281250,35.05,68.12
256330,2018-06-29 10:58:22.312500,33.29,68.12
256331,2018-06-29 10:58:22.343750,34.55,68.12
256332,2018-06-29 10:58:22.375000,38.25,68.12
256333,2018-06-29 10:58:22.406250,42.07,68.12
256334,2018-06-29 10:58:22.437500,44.47,68.12
256335,2018-06-29 10:58:22.468750,43.65,68.12
256336,2018-06-29 10:58:22.500000,37.94,68.12
256337,2018-06-29 10:58:22.531250,28.45,68.18
256338,2018-06-29 10:58:22.562500,18.38,68.18
256339,2018-06-29 10:58:22.593750,8.49,68.18
256340,2018-06-29 10:58:22.625000,-3.32,68.18
256341,2018-06-29 10:58:22.656250,-16.93,68.18
256342,2018-06-29 10:58:22.687500,-28.85,68.18
256343,2018-06-29 10:58:22.718750,-37.25,68.18
256344,2018-06-29 10:58:22.750000,-44.64,68.18
256345,2018-06-29 10:58:22.781250,-55.17,68.18
256346,2018-06-29 10:58:22.812500,-69.17,68.18
256347,2018-06-29 10:58:22.843750,-77.07,68.18
256348,2018-06-29 10:58:22.875000,-63.63,68.18
256349,2018-06-29 10:58:22.906250,-25.19,68.18
256350,2018-06-29 10:58:22.937500,22.48,68.18
256351,2018-06-29 10:58:22.968750,59.49,68.18
256352,2018-06-29 10:58:23.000000,78.36,68.18
256353,2018-06-29 10:58:23.031250,84.13,68.18
256354,2018-06-29 10:58:23.062500,84.98,68.18
256355,2018-06-29 10:58:23.093750,85.49,68.18
256356,2018-06-29 10:58:23.125000,84.3,68.18
256357,2018-06-29 10:58:23.156250,78.04,68.18
256358,2018-06-29 10:58:23.187500,67.86,68.18
256359,2018-06-29 10:58:23.218750,59.22,68.18
256360,2018-06-29 10:58:23.250000,55.17,68.18
256361,2018-06-29 10:58:23.281250,42.73,68.18
256362,2018-06-29 10:58:23.312500,-0.89,68.18
256363,2018-06-29 10:58:23.343750,-77.28,68.18
256364,2018-06-29 10:58:23.375000,-149.51,68.18
256365,2018-06-29 10:58:23.406250,-179.76,68.18
256366,2018-06-29 10:58:23.437500,-169.29,68.18
256367,2018-06-29 10:58:23.468750,-138.47,68.18
256368,2018-06-29 10:58:23.500000,-95.19,68.18
256369,2018-06-29 10:58:23.531250,-37.98,68.27
256370,2018-06-29 10:58:23.562500,24.68,68.27
256371,2018-06-29 10:58:23.593750,85.45,68.27
256372,2018-06-29 10:58:23.625000,134.57,68.27
256373,2018-06-29 10:58:23.656250,142.13,68.27
256374,2018-06-29 10:58:23.687500,114.39,68.27
256375,2018-06-29 10:58:23.718750,68.82,68.27
256376,2018-06-29 10:58:23.750000,16.92,68.27
256377,2018-06-29 10:58:23.781250,-30.37,68.27
256378,2018-06-29 10:58:23.812500,-68.04,68.27
256379,2018-06-29 10:58:23.843750,-95.53,68.27
256380,2018-06-29 10:58:23.875000,-110.9,68.27
256381,2018-06-29 10:58:23.906250,-112.48,68.27
256382,2018-06-29 10:58:23.937500,-99.68,68.27
256383,2018-06-29 10:58:23.968750,-75.3,68.27
256384,2018-06-29 10:58:24.000000,-38.23,68.27
256385,2018-06-29 10:58:24.031250,7.57,68.27
256386,2018-06-29 10:58:24.062500,53.92,68.27
256387,2018-06-29 10:58:24.093750,99.16,68.27
256388,2018-06-29 10:58:24.125000,140.79,68.27
256389,2018-06-29 10:58:24.156250,167.56,68.27
256390,2018-06-29 10:58:24.187500,167.7,68.27
256391,2018-06-29 10:58:24.218750,142.75,68.27
256392,2018-06-29 10:58:24.250000,106.71,68.27
256393,2018-06-29 10:58:24.281250,70.98,68.27
256394,2018-06-29 10:58:24.312500,38.68,68.27
256395,2018-06-29 10:58:24.343750,8.44,68.27
256396,2018-06-29 10:58:24.375000,-18.23,68.27
256397,2018-06-29 10:58:24.406250,-38.69,68.27
256398,2018-06-29 10:58:24.437500,-51.14,68.27
256399,2018-06-29 10:58:24.468750,-56.49,68.27
256400,2018-06-29 10:58:24.500000,-59.03,68.27
256401,2018-06-29 10:58:24.531250,-63.1,68.33
256402,2018-06-29 10:58:24.562500,-71.12,68.33
256403,2018-06-29 10:58:24.593750,-75.71,68.33
256404,2018-06-29 10:58:24.625000,-71.52,68.33
256405,2018-06-29 10:58:24.656250,-61.04,68.33
256406,2018-06-29 10:58:24.687500,-56.37,68.33
256407,2018-06-29 10:58:24.718750,-59.07,68.33
256408,2018-06-29 10:58:24.750000,-35.65,68.33
256409,2018-06-29 10:58:24.781250,12.77,68.33
256410,2018-06-29 10:58:24.812500,67.44,68.33
256411,2018-06-29 10:58:24.843750,119.63,68.33
256412,2018-06-29 10:58:24.875000,167.53,68.33
256413,2018-06-29 10:58:24.906250,201.2,68.33
256414,2018-06-29 10:58:24.937500,212.98,68.33
256415,2018-06-29 10:58:24.968750,199.03,68.33
256416,2018-06-29 10:58:25.000000,149.45,68.33
256417,2018-06-29 10:58:25.031250,69.22,68.33
256418,2018-06-29 10:58:25.062500,-23.39,68.33
256419,2018-06-29 10:58:25.093750,-96.06,68.33
256420,2018-06-29 10:58:25.125000,-125.44,68.33
256421,2018-06-29 10:58:25.156250,-116.67,68.33
256422,2018-06-29 10:58:25.187500,-99.76,68.33
256423,2018-06-29 10:58:25.218750,-93.64,68.33
256424,2018-06-29 10:58:25.250000,-96.92,68.33
256425,2018-06-29 10:58:25.281250,-101.59,68.33
256426,2018-06-29 10:58:25.312500,-103.93,68.33
256427,2018-06-29 10:58:25.343750,-104.51,68.33
256428,2018-06-29 10:58:25.375000,-104.37,68.33
256429,2018-06-29 10:58:25.406250,-100.09,68.33
256430,2018-06-29 10:58:25.437500,-79.45,68.33
256431,2018-06-29 10:58:25.468750,-35.97,68.33
256432,2018-06-29 10:58:25.500000,19.56,68.33
256433,2018-06-29 10:58:25.531250,68.44,68.4
256434,2018-06-29 10:58:25.562500,100.94,68.4
256435,2018-06-29 10:58:25.593750,117.1,68.4
256436,2018-06-29 10:58:25.625000,119.32,68.4
256437,2018-06-29 10:58:25.656250,110.57,68.4
256438,2018-06-29 10:58:25.687500,93.71,68.4
256439,2018-06-29 10:58:25.718750,70.66,68.4
256440,2018-06-29 10:58:25.750000,43.5,68.4
256441,2018-06-29 10:58:25.781250,15.89,68.4
256442,2018-06-29 10:58:25.812500,-7.84,68.4
256443,2018-06-29 10:58:25.843750,-25.96,68.4
256444,2018-06-29 10:58:25.875000,-42.17,68.4
256445,2018-06-29 10:58:25.906250,-61.25,68.4
256446,2018-06-29 10:58:25.937500,-80.42,68.4
256447,2018-06-29 10:58:25.968750,-92.87,68.4
256448,2018-06-29 10:58:26.000000,-99.34,68.4
256449,2018-06-29 10:58:26.031250,-105.58,68.4
256450,2018-06-29 10:58:26.062500,-110.44,68.4
256451,2018-06-29 10:58:26.093750,-107.98,68.4
256452,2018-06-29 10:58:26.125000,-97.3,68.4
256453,2018-06-29 10:58:26.156250,-82.61,68.4
256454,2018-06-29 10:58:26.187500,-68.41,68.4
256455,2018-06-29 10:58:26.218750,-55.32,68.4
256456,2018-06-29 10:58:26.250000,-36.13,68.4
256457,2018-06-29 10:58:26.281250,-2.46,68.4
256458,2018-06-29 10:58:26.312500,41.45,68.4
256459,2018-06-29 10:58:26.343750,81.4,68.4
256460,2018-06-29 10:58:26.375000,109.47,68.4
256461,2018-06-29 10:58:26.406250,126.08,68.4
256462,2018-06-29 10:58:26.437500,130.41,68.4
256463,2018-06-29 10:58:26.468750,121.09,68.4
256464,2018-06-29 10:58:26.500000,103.25,68.4
256465,2018-06-29 10:58:26.531250,85.83,68.47
256466,2018-06-29 10:58:26.562500,72.87,68.47
256467,2018-06-29 10:58:26.593750,62.07,68.47
256468,2018-06-29 10:58:26.625000,50.48,68.47
256469,2018-06-29 10:58:26.656250,37.58,68.47
256470,2018-06-29 10:58:26.687500,22.58,68.47
256471,2018-06-29 10:58:26.718750,3.51,68.47
256472,2018-06-29 10:58:26.750000,-19.18,68.47
256473,2018-06-29 10:58:26.781250,-41.59,68.47
256474,2018-06-29 10:58:26.812500,-61.1,68.47
256475,2018-06-29 10:58:26.843750,-78.85,68.47
256476,2018-06-29 10:58:26.875000,-96.02,68.47
256477,2018-06-29 10:58:26.906250,-111.18,68.47
256478,2018-06-29 10:58:26.937500,-123.64,68.47
256479,2018-06-29 10:58:26.968750,-135.53,68.47
256480,2018-06-29 10:58:27.000000,-149.11,68.47
256481,2018-06-29 10:58:27.031250,-164.2,68.47
256482,2018-06-29 10:58:27.062500,-176.44,68.47
256483,2018-06-29 10:58:27.093750,-175.26,68.47
256484,2018-06-29 10:58:27.125000,-150.68,68.47
256485,2018-06-29 10:58:27.156250,-106.18,68.47
256486,2018-06-29 10:58:27.187500,-57.91,68.47
256487,2018-06-29 10:58:27.218750,-19.97,68.47
256488,2018-06-29 10:58:27.250000,2.88,68.47
256489,2018-06-29 10:58:27.281250,11.55,68.47
256490,2018-06-29 10:58:27.312500,10.76,68.47
256491,2018-06-29 10:58:27.343750,9.27,68.47
256492,2018-06-29 10:58:27.375000,14.55,68.47
256493,2018-06-29 10:58:27.406250,26.08,68.47
256494,2018-06-29 10:58:27.437500,37.24,68.47
256495,2018-06-29 10:58:27.468750,44.44,68.47
256496,2018-06-29 10:58:27.500000,48.81,68.47
256497,2018-06-29 10:58:27.531250,49.46,68.55
256498,2018-06-29 10:58:27.562500,43.6,68.55
256499,2018-06-29 10:58:27.593750,33.3,68.55
256500,2018-06-29 10:58:27.625000,23.69,68.55
256501,2018-06-29 10:58:27.656250,15.45,68.55
256502,2018-06-29 10:58:27.687500,4.97,68.55
256503,2018-06-29 10:58:27.718750,-9.14,68.55
256504,2018-06-29 10:58:27.750000,-23.87,68.55
256505,2018-06-29 10:58:27.781250,-36.08,68.55
256506,2018-06-29 10:58:27.812500,-47.29,68.55
256507,2018-06-29 10:58:27.843750,-62.9,68.55
256508,2018-06-29 10:58:27.875000,-83.58,68.55
256509,2018-06-29 10:58:27.906250,-96.55,68.55
256510,2018-06-29 10:58:27.937500,-82.77,68.55
256511,2018-06-29 10:58:27.968750,-38.99,68.55
256512,2018-06-29 10:58:28.000000,15.63,68.55
256513,2018-06-29 10:58:28.031250,60.15,68.55
256514,2018-06-29 10:58:28.062500,88.58,68.55
256515,2018-06-29 10:58:28.093750,102.87,68.55
256516,2018-06-29 10:58:28.125000,104.53,68.55
256517,2018-06-29 10:58:28.156250,98.55,68.55
256518,2018-06-29 10:58:28.187500,93.92,68.55
256519,2018-06-29 10:58:28.218750,95.32,68.55
256520,2018-06-29 10:58:28.250000,99.61,68.55
256521,2018-06-29 10:58:28.281250,101.86,68.55
256522,2018-06-29 10:58:28.312500,100.86,68.55
256523,2018-06-29 10:58:28.343750,97.02,68.55
256524,2018-06-29 10:58:28.375000,88.19,68.55
256525,2018-06-29 10:58:28.406250,72.17,68.55
256526,2018-06-29 10:58:28.437500,52.14,68.55
256527,2018-06-29 10:58:28.468750,34.23,68.55
256528,2018-06-29 10:58:28.500000,19.21,68.55
256529,2018-06-29 10:58:28.531250,2.12,68.63
256530,2018-06-29 10:58:28.562500,-18.7,68.63
256531,2018-06-29 10:58:28.593750,-37.97,68.63
256532,2018-06-29 10:58:28.625000,-51.04,68.63
256533,2018-06-29 10:58:28.656250,-60.79,68.63
256534,2018-06-29 10:58:28.687500,-74.58,68.63
256535,2018-06-29 10:58:28.718750,-95.56,68.63
256536,2018-06-29 10:58:28.750000,-114.52,68.63
256537,2018-06-29 10:58:28.781250,-111.24,68.63
256538,2018-06-29 10:58:28.812500,-72.93,68.63
256539,2018-06-29 10:58:28.843750,-11.43,68.63
256540,2018-06-29 10:58:28.875000,47.27,68.63
256541,2018-06-29 10:58:28.906250,87.44,68.63
256542,2018-06-29 10:58:28.937500,108.78,68.63
256543,2018-06-29 10:58:28.968750,115.29,68.63
256544,2018-06-29 10:58:29.000000,111.43,68.63
256545,2018-06-29 10:58:29.031250,104.7,68.63
256546,2018-06-29 10:58:29.062500,101.78,68.63
256547,2018-06-29 10:58:29.093750,103.11,68.63
256548,2018-06-29 10:58:29.125000,105.17,68.63
256549,2018-06-29 10:58:29.156250,106.12,68.63
256550,2018-06-29 10:58:29.187500,105.62,68.63
256551,2018-06-29 10:58:29.218750,102.15,68.63
256552,2018-06-29 10:58:29.250000,94.2,68.63
256553,2018-06-29 10:58:29.281250,82.29,68.63
256554,2018-06-29 10:58:29.312500,68.07,68.63
256555,2018-06-29 10:58:29.343750,53.13,68.63
256556,2018-06-29 10:58:29.375000,39.04,68.63
256557,2018-06-29 10:58:29.406250,25.94,68.63
256558,2018-06-29 10:58:29.437500,11.2,68.63
256559,2018-06-29 10:58:29.468750,-7.03,68.63
256560,2018-06-29 10:58:29.500000,-25.5,68.63
256561,2018-06-29 10:58:29.531250,-38.63,68.72
256562,2018-06-29 10:58:29.562500,-45.74,68.72
256563,2018-06-29 10:58:29.593750,-52.9,68.72
256564,2018-06-29 10:58:29.625000,-67.15,68.72
256565,2018-06-29 10:58:29.656250,-85.26,68.72
256566,2018-06-29 10:58:29.687500,-87.62,68.72
256567,2018-06-29 10:58:29.718750,-54.77,68.72
256568,2018-06-29 10:58:29.750000,6.31,68.72
256569,2018-06-29 10:58:29.781250,65.61,68.72
256570,2018-06-29 10:58:29.812500,101.52,68.72
256571,2018-06-29 10:58:29.843750,114.59,68.72
256572,2018-06-29 10:58:29.875000,113.32,68.72
256573,2018-06-29 10:58:29.906250,102.58,68.72
256574,2018-06-29 10:58:29.937500,84.32,68.72
256575,2018-06-29 10:58:29.968750,58.55,68.72
256576,2018-06-29 10:58:30.000000,25.72,68.72
256577,2018-06-29 10:58:30.031250,-7.66,68.72
256578,2018-06-29 10:58:30.062500,-29.93,68.72
256579,2018-06-29 10:58:30.093750,-34.99,68.72
256580,2018-06-29 10:58:30.125000,-28.14,68.72
256581,2018-06-29 10:58:30.156250,-19.46,68.72
256582,2018-06-29 10:58:30.187500,-15.64,68.72
256583,2018-06-29 10:58:30.218750,-18.11,68.72
256584,2018-06-29 10:58:30.250000,-23.89,68.72
256585,2018-06-29 10:58:30.281250,-28.72,68.72
256586,2018-06-29 10:58:30.312500,-32.6,68.72
256587,2018-06-29 10:58:30.343750,-40.61,68.72
256588,2018-06-29 10:58:30.375000,-56.26,68.72
256589,2018-06-29 10:58:30.406250,-76.81,68.72
256590,2018-06-29 10:58:30.437500,-95.43,68.72
256591,2018-06-29 10:58:30.468750,-106.53,68.72
256592,2018-06-29 10:58:30.500000,-111.3,68.72
256593,2018-06-29 10:58:30.531250,-115.25,68.8
256594,2018-06-29 10:58:30.562500,-112.83,68.8
256595,2018-06-29 10:58:30.593750,-82.54,68.8
256596,2018-06-29 10:58:30.625000,-11.33,68.8
256597,2018-06-29 10:58:30.656250,83.26,68.8
256598,2018-06-29 10:58:30.687500,167.28,68.8
256599,2018-06-29 10:58:30.718750,217.08,68.8
256600,2018-06-29 10:58:30.750000,224.76,68.8
256601,2018-06-29 10:58:30.781250,191.57,68.8
256602,2018-06-29 10:58:30.812500,129.7,68.8
256603,2018-06-29 10:58:30.843750,66.0,68.8
256604,2018-06-29 10:58:30.875000,28.56,68.8
256605,2018-06-29 10:58:30.906250,21.36,68.8
256606,2018-06-29 10:58:30.937500,21.26,68.8
256607,2018-06-29 10:58:30.968750,6.44,68.8
256608,2018-06-29 10:58:31.000000,-22.53,68.8
256609,2018-06-29 10:58:31.031250,-45.54,68.8
256610,2018-06-29 10:58:31.062500,-32.92,68.8
256611,2018-06-29 10:58:31.093750,25.82,68.8
256612,2018-06-29 10:58:31.125000,90.68,68.8
256613,2018-06-29 10:58:31.156250,102.1,68.8
256614,2018-06-29 10:58:31.187500,47.21,68.8
256615,2018-06-29 10:58:31.218750,-42.03,68.8
256616,2018-06-29 10:58:31.250000,-144.92,68.8
256617,2018-06-29 10:58:31.281250,-257.64,68.8
256618,2018-06-29 10:58:31.312500,-350.79,68.8
256619,2018-06-29 10:58:31.343750,-377.76,68.8
256620,2018-06-29 10:58:31.375000,-336.64,68.8
256621,2018-06-29 10:58:31.406250,-274.95,68.8
256622,2018-06-29 10:58:31.437500,-215.91,68.8
256623,2018-06-29 10:58:31.468750,-134.94,68.8
256624,2018-06-29 10:58:31.500000,-27.0,68.8
256625,2018-06-29 10:58:31.531250,67.11,68.87
256626,2018-06-29 10:58:31.562500,119.93,68.87
256627,2018-06-29 10:58:31.593750,144.63,68.87
256628,2018-06-29 10:58:31.625000,156.61,68.87
256629,2018-06-29 10:58:31.656250,157.21,68.87
256630,2018-06-29 10:58:31.687500,156.52,68.87
256631,2018-06-29 10:58:31.718750,170.82,68.87
256632,2018-06-29 10:58:31.750000,191.94,68.87
256633,2018-06-29 10:58:31.781250,188.45,68.87
256634,2018-06-29 10:58:31.812500,141.38,68.87
256635,2018-06-29 10:58:31.843750,59.31,68.87
256636,2018-06-29 10:58:31.875000,-33.97,68.87
256637,2018-06-29 10:58:31.906250,-108.24,68.87
256638,2018-06-29 10:58:31.937500,-137.89,68.87
256639,2018-06-29 10:58:31.968750,-122.4,68.87
256640,2018-06-29 10:58:32.000000,-87.09,68.87
256641,2018-06-29 10:58:32.031250,-59.74,68.87
256642,2018-06-29 10:58:32.062500,-52.57,68.87
256643,2018-06-29 10:58:32.093750,-59.63,68.87
256644,2018-06-29 10:58:32.125000,-66.53,68.87
256645,2018-06-29 10:58:32.156250,-67.05,68.87
256646,2018-06-29 10:58:32.187500,-66.65,68.87
256647,2018-06-29 10:58:32.218750,-68.13,68.87
256648,2018-06-29 10:58:32.250000,-62.32,68.87
256649,2018-06-29 10:58:32.281250,-36.22,68.87
256650,2018-06-29 10:58:32.312500,13.68,68.87
256651,2018-06-29 10:58:32.343750,76.71,68.87
256652,2018-06-29 10:58:32.375000,135.28,68.87
256653,2018-06-29 10:58:32.406250,174.91,68.87
256654,2018-06-29 10:58:32.437500,188.62,68.87
256655,2018-06-29 10:58:32.468750,177.69,68.87
256656,2018-06-29 10:58:32.500000,148.45,68.87
256657,2018-06-29 10:58:32.531250,110.52,68.93
256658,2018-06-29 10:58:32.562500,78.81,68.93
256659,2018-06-29 10:58:32.593750,58.59,68.93
256660,2018-06-29 10:58:32.625000,31.5,68.93
256661,2018-06-29 10:58:32.656250,-14.52,68.93
256662,2018-06-29 10:58:32.687500,-59.48,68.93
256663,2018-06-29 10:58:32.718750,-87.1,68.93
256664,2018-06-29 10:58:32.750000,-108.56,68.93
256665,2018-06-29 10:58:32.781250,-125.26,68.93
256666,2018-06-29 10:58:32.812500,-120.78,68.93
256667,2018-06-29 10:58:32.843750,-103.82,68.93
256668,2018-06-29 10:58:32.875000,-107.17,68.93
256669,2018-06-29 10:58:32.906250,-141.45,68.93
256670,2018-06-29 10:58:32.937500,-186.41,68.93
256671,2018-06-29 10:58:32.968750,-219.51,68.93
256672,2018-06-29 10:58:33.000000,-231.4,68.93
256673,2018-06-29 10:58:33.031250,-221.51,68.93
256674,2018-06-29 10:58:33.062500,-189.7,68.93
256675,2018-06-29 10:58:33.093750,-136.23,68.93
256676,2018-06-29 10:58:33.125000,-69.49,68.93
256677,2018-06-29 10:58:33.156250,-4.62,68.93
256678,2018-06-29 10:58:33.187500,48.73,68.93
256679,2018-06-29 10:58:33.218750,89.58,68.93
256680,2018-06-29 10:58:33.250000,118.39,68.93
256681,2018-06-29 10:58:33.281250,137.62,68.93
256682,2018-06-29 10:58:33.312500,156.59,68.93
256683,2018-06-29 10:58:33.343750,183.32,68.93
256684,2018-06-29 10:58:33.375000,213.11,68.93
256685,2018-06-29 10:58:33.406250,236.19,68.93
256686,2018-06-29 10:58:33.437500,254.54,68.93
256687,2018-06-29 10:58:33.468750,274.8,68.93
256688,2018-06-29 10:58:33.500000,285.22,68.93
256689,2018-06-29 10:58:33.531250,261.28,69.0
256690,2018-06-29 10:58:33.562500,201.37,69.0
256691,2018-06-29 10:58:33.593750,145.08,69.0
256692,2018-06-29 10:58:33.625000,136.09,69.0
256693,2018-06-29 10:58:33.656250,160.92,69.0
256694,2018-06-29 10:58:33.687500,156.65,69.0
256695,2018-06-29 10:58:33.718750,94.26,69.0
256696,2018-06-29 10:58:33.750000,11.66,69.0
256697,2018-06-29 10:58:33.781250,-51.06,69.0
256698,2018-06-29 10:58:33.812500,-97.46,69.0
256699,2018-06-29 10:58:33.843750,-147.25,69.0
256700,2018-06-29 10:58:33.875000,-212.52,69.0
256701,2018-06-29 10:58:33.906250,-286.94,69.0
256702,2018-06-29 10:58:33.937500,-325.6,69.0
256703,2018-06-29 10:58:33.968750,-280.2,69.0
256704,2018-06-29 10:58:34.000000,-172.78,69.0
256705,2018-06-29 10:58:34.031250,-78.17,69.0
256706,2018-06-29 10:58:34.062500,-32.88,69.0
256707,2018-06-29 10:58:34.093750,-22.87,69.0
256708,2018-06-29 10:58:34.125000,-43.33,69.0
256709,2018-06-29 10:58:34.156250,-103.89,69.0
256710,2018-06-29 10:58:34.187500,-186.08,69.0
256711,2018-06-29 10:58:34.218750,-238.18,69.0
256712,2018-06-29 10:58:34.250000,-213.16,69.0
256713,2018-06-29 10:58:34.281250,-116.65,69.0
256714,2018-06-29 10:58:34.312500,-21.54,69.0
256715,2018-06-29 10:58:34.343750,-10.47,69.0
256716,2018-06-29 10:58:34.375000,-101.99,69.0
256717,2018-06-29 10:58:34.406250,-248.22,69.0
256718,2018-06-29 10:58:34.437500,-379.62,69.0
256719,2018-06-29 10:58:34.468750,-437.98,69.0
256720,2018-06-29 10:58:34.500000,-408.99,69.0
256721,2018-06-29 10:58:34.531250,-337.44,69.07
256722,2018-06-29 10:58:34.562500,-279.2,69.07
256723,2018-06-29 10:58:34.593750,-247.49,69.07
256724,2018-06-29 10:58:34.625000,-228.05,69.07
256725,2018-06-29 10:58:34.656250,-211.15,69.07
256726,2018-06-29 10:58:34.687500,-187.33,69.07
256727,2018-06-29 10:58:34.718750,-145.01,69.07
256728,2018-06-29 10:58:34.750000,-85.93,69.07
256729,2018-06-29 10:58:34.781250,-22.69,69.07
256730,2018-06-29 10:58:34.812500,37.08,69.07
256731,2018-06-29 10:58:34.843750,91.72,69.07
256732,2018-06-29 10:58:34.875000,141.91,69.07
256733,2018-06-29 10:58:34.906250,193.73,69.07
256734,2018-06-29 10:58:34.937500,254.5,69.07
256735,2018-06-29 10:58:34.968750,319.05,69.07
256736,2018-06-29 10:58:35.000000,369.14,69.07
256737,2018-06-29 10:58:35.031250,395.23,69.07
256738,2018-06-29 10:58:35.062500,408.9,69.07
256739,2018-06-29 10:58:35.093750,419.87,69.07
256740,2018-06-29 10:58:35.125000,416.03,69.07
256741,2018-06-29 10:58:35.156250,386.34,69.07
256742,2018-06-29 10:58:35.187500,347.42,69.07
256743,2018-06-29 10:58:35.218750,324.96,69.07
256744,2018-06-29 10:58:35.250000,317.33,69.07
256745,2018-06-29 10:58:35.281250,292.82,69.07
256746,2018-06-29 10:58:35.312500,223.26,69.07
256747,2018-06-29 10:58:35.343750,113.7,69.07
256748,2018-06-29 10:58:35.375000,-8.33,69.07
256749,2018-06-29 10:58:35.406250,-127.4,69.07
256750,2018-06-29 10:58:35.437500,-249.85,69.07
256751,2018-06-29 10:58:35.468750,-379.84,69.07
256752,2018-06-29 10:58:35.500000,-488.82,69.07
256753,2018-06-29 10:58:35.531250,-522.05,69.15
256754,2018-06-29 10:58:35.562500,-455.28,69.15
256755,2018-06-29 10:58:35.593750,-328.08,69.15
256756,2018-06-29 10:58:35.625000,-196.03,69.15
256757,2018-06-29 10:58:35.656250,-77.41,69.15
256758,2018-06-29 10:58:35.687500,31.96,69.15
256759,2018-06-29 10:58:35.718750,129.83,69.15
256760,2018-06-29 10:58:35.750000,212.68,69.15
256761,2018-06-29 10:58:35.781250,281.17,69.15
256762,2018-06-29 10:58:35.812500,332.41,69.15
256763,2018-06-29 10:58:35.843750,360.31,69.15
256764,2018-06-29 10:58:35.875000,366.91,69.15
256765,2018-06-29 10:58:35.906250,366.78,69.15
256766,2018-06-29 10:58:35.937500,374.44,69.15
256767,2018-06-29 10:58:35.968750,388.03,69.15
256768,2018-06-29 10:58:36.000000,390.64,69.15
256769,2018-06-29 10:58:36.031250,367.14,69.15
256770,2018-06-29 10:58:36.062500,315.67,69.15
256771,2018-06-29 10:58:36.093750,243.15,69.15
256772,2018-06-29 10:58:36.125000,156.2,69.15
256773,2018-06-29 10:58:36.156250,61.51,69.15
256774,2018-06-29 10:58:36.187500,-32.49,69.15
256775,2018-06-29 10:58:36.218750,-121.21,69.15
256776,2018-06-29 10:58:36.250000,-197.86,69.15
256777,2018-06-29 10:58:36.281250,-246.57,69.15
256778,2018-06-29 10:58:36.312500,-264.26,69.15
256779,2018-06-29 10:58:36.343750,-278.66,69.15
256780,2018-06-29 10:58:36.375000,-320.19,69.15
256781,2018-06-29 10:58:36.406250,-385.79,69.15
256782,2018-06-29 10:58:36.437500,-438.89,69.15
256783,2018-06-29 10:58:36.468750,-430.87,69.15
256784,2018-06-29 10:58:36.500000,-334.14,69.15
256785,2018-06-29 10:58:36.531250,-189.07,69.22
256786,2018-06-29 10:58:36.562500,-98.53,69.22
256787,2018-06-29 10:58:36.593750,-132.74,69.22
256788,2018-06-29 10:58:36.625000,-250.72,69.22
256789,2018-06-29 10:58:36.656250,-345.39,69.22
256790,2018-06-29 10:58:36.687500,-350.39,69.22
256791,2018-06-29 10:58:36.718750,-280.17,69.22
256792,2018-06-29 10:58:36.750000,-188.08,69.22
256793,2018-06-29 10:58:36.781250,-112.96,69.22
256794,2018-06-29 10:58:36.812500,-62.07,69.22
256795,2018-06-29 10:58:36.843750,-28.0,69.22
256796,2018-06-29 10:58:36.875000,-5.32,69.22
256797,2018-06-29 10:58:36.906250,10.37,69.22
256798,2018-06-29 10:58:36.937500,20.19,69.22
256799,2018-06-29 10:58:36.968750,15.91,69.22
256800,2018-06-29 10:58:37.000000,-6.02,69.22
256801,2018-06-29 10:58:37.031250,-28.22,69.22
256802,2018-06-29 10:58:37.062500,-30.98,69.22
256803,2018-06-29 10:58:37.093750,-20.4,69.22
256804,2018-06-29 10:58:37.125000,-19.4,69.22
256805,2018-06-29 10:58:37.156250,-35.3,69.22
256806,2018-06-29 10:58:37.187500,-49.17,69.22
256807,2018-06-29 10:58:37.218750,-37.72,69.22
256808,2018-06-29 10:58:37.250000,2.09,69.22
256809,2018-06-29 10:58:37.281250,57.06,69.22
256810,2018-06-29 10:58:37.312500,119.66,69.22
256811,2018-06-29 10:58:37.343750,188.74,69.22
256812,2018-06-29 10:58:37.375000,250.06,69.22
256813,2018-06-29 10:58:37.406250,281.08,69.22
256814,2018-06-29 10:58:37.437500,280.15,69.22
256815,2018-06-29 10:58:37.468750,268.75,69.22
256816,2018-06-29 10:58:37.500000,261.99,69.22
256817,2018-06-29 10:58:37.531250,258.96,69.27
256818,2018-06-29 10:58:37.562500,261.06,69.27
256819,2018-06-29 10:58:37.593750,274.79,69.27
256820,2018-06-29 10:58:37.625000,295.21,69.27
256821,2018-06-29 10:58:37.656250,307.53,69.27
256822,2018-06-29 10:58:37.687500,305.02,69.27
256823,2018-06-29 10:58:37.718750,292.09,69.27
256824,2018-06-29 10:58:37.750000,273.43,69.27
256825,2018-06-29 10:58:37.781250,248.94,69.27
256826,2018-06-29 10:58:37.812500,218.03,69.27
256827,2018-06-29 10:58:37.843750,185.66,69.27
256828,2018-06-29 10:58:37.875000,161.7,69.27
256829,2018-06-29 10:58:37.906250,149.2,69.27
256830,2018-06-29 10:58:37.937500,136.26,69.27
256831,2018-06-29 10:58:37.968750,108.12,69.27
256832,2018-06-29 10:58:38.000000,62.19,69.27
256833,2018-06-29 10:58:38.031250,4.6,69.27
256834,2018-06-29 10:58:38.062500,-58.43,69.27
256835,2018-06-29 10:58:38.093750,-120.8,69.27
256836,2018-06-29 10:58:38.125000,-179.71,69.27
256837,2018-06-29 10:58:38.156250,-236.61,69.27
256838,2018-06-29 10:58:38.187500,-280.17,69.27
256839,2018-06-29 10:58:38.218750,-284.01,69.27
256840,2018-06-29 10:58:38.250000,-242.44,69.27
256841,2018-06-29 10:58:38.281250,-186.21,69.27
256842,2018-06-29 10:58:38.312500,-145.03,69.27
256843,2018-06-29 10:58:38.343750,-121.46,69.27
256844,2018-06-29 10:58:38.375000,-108.93,69.27
256845,2018-06-29 10:58:38.406250,-103.34,69.27
256846,2018-06-29 10:58:38.437500,-94.44,69.27
256847,2018-06-29 10:58:38.468750,-72.97,69.27
256848,2018-06-29 10:58:38.500000,-45.77,69.27
256849,2018-06-29 10:58:38.531250,-28.07,69.32
256850,2018-06-29 10:58:38.562500,-24.18,69.32
256851,2018-06-29 10:58:38.593750,-23.94,69.32
256852,2018-06-29 10:58:38.625000,-16.09,69.32
256853,2018-06-29 10:58:38.656250,-1.71,69.32
256854,2018-06-29 10:58:38.687500,5.79,69.32
256855,2018-06-29 10:58:38.718750,-4.95,69.32
256856,2018-06-29 10:58:38.750000,-28.48,69.32
256857,2018-06-29 10:58:38.781250,-47.98,69.32
256858,2018-06-29 10:58:38.812500,-59.46,69.32
256859,2018-06-29 10:58:38.843750,-82.31,69.32
256860,2018-06-29 10:58:38.875000,-132.9,69.32
256861,2018-06-29 10:58:38.906250,-187.08,69.32
256862,2018-06-29 10:58:38.937500,-184.68,69.32
256863,2018-06-29 10:58:38.968750,-92.18,69.32
256864,2018-06-29 10:58:39.000000,39.58,69.32
256865,2018-06-29 10:58:39.031250,111.33,69.32
256866,2018-06-29 10:58:39.062500,83.03,69.32
256867,2018-06-29 10:58:39.093750,9.17,69.32
256868,2018-06-29 10:58:39.125000,-44.52,69.32
256869,2018-06-29 10:58:39.156250,-68.91,69.32
256870,2018-06-29 10:58:39.187500,-78.97,69.32
256871,2018-06-29 10:58:39.218750,-70.74,69.32
256872,2018-06-29 10:58:39.250000,-40.32,69.32
256873,2018-06-29 10:58:39.281250,-5.28,69.32
256874,2018-06-29 10:58:39.312500,18.58,69.32
256875,2018-06-29 10:58:39.343750,35.9,69.32
256876,2018-06-29 10:58:39.375000,52.51,69.32
256877,2018-06-29 10:58:39.406250,60.49,69.32
256878,2018-06-29 10:58:39.437500,56.37,69.32
256879,2018-06-29 10:58:39.468750,52.1,69.32
256880,2018-06-29 10:58:39.500000,53.34,69.32
256881,2018-06-29 10:58:39.531250,45.94,69.33
256882,2018-06-29 10:58:39.562500,17.71,69.33
256883,2018-06-29 10:58:39.593750,-22.36,69.33
256884,2018-06-29 10:58:39.625000,-57.64,69.33
256885,2018-06-29 10:58:39.656250,-84.19,69.33
256886,2018-06-29 10:58:39.687500,-109.74,69.33
256887,2018-06-29 10:58:39.718750,-138.17,69.33
256888,2018-06-29 10:58:39.750000,-156.18,69.33
256889,2018-06-29 10:58:39.781250,-137.27,69.33
256890,2018-06-29 10:58:39.812500,-68.66,69.33
256891,2018-06-29 10:58:39.843750,27.27,69.33
256892,2018-06-29 10:58:39.875000,108.05,69.33
256893,2018-06-29 10:58:39.906250,145.15,69.33
256894,2018-06-29 10:58:39.937500,140.43,69.33
256895,2018-06-29 10:58:39.968750,116.38,69.33
256896,2018-06-29 10:58:40.000000,96.8,69.33
256897,2018-06-29 10:58:40.031250,95.19,69.33
256898,2018-06-29 10:58:40.062500,114.25,69.33
256899,2018-06-29 10:58:40.093750,147.66,69.33
256900,2018-06-29 10:58:40.125000,182.09,69.33
256901,2018-06-29 10:58:40.156250,206.03,69.33
256902,2018-06-29 10:58:40.187500,217.32,69.33
256903,2018-06-29 10:58:40.218750,220.93,69.33
256904,2018-06-29 10:58:40.250000,223.94,69.33
256905,2018-06-29 10:58:40.281250,230.12,69.33
256906,2018-06-29 10:58:40.312500,229.97,69.33
256907,2018-06-29 10:58:40.343750,200.41,69.33
256908,2018-06-29 10:58:40.375000,126.37,69.33
256909,2018-06-29 10:58:40.406250,22.56,69.33
256910,2018-06-29 10:58:40.437500,-70.78,69.33
256911,2018-06-29 10:58:40.468750,-112.08,69.33
256912,2018-06-29 10:58:40.500000,-92.29,69.33
256913,2018-06-29 10:58:40.531250,-54.52,69.38
256914,2018-06-29 10:58:40.562500,-59.33,69.38
256915,2018-06-29 10:58:40.593750,-127.0,69.38
256916,2018-06-29 10:58:40.625000,-230.4,69.38
256917,2018-06-29 10:58:40.656250,-323.56,69.38
256918,2018-06-29 10:58:40.687500,-361.73,69.38
256919,2018-06-29 10:58:40.718750,-325.7,69.38
256920,2018-06-29 10:58:40.750000,-239.62,69.38
256921,2018-06-29 10:58:40.781250,-146.95,69.38
256922,2018-06-29 10:58:40.812500,-75.04,69.38
256923,2018-06-29 10:58:40.843750,-29.19,69.38
256924,2018-06-29 10:58:40.875000,0.4,69.38
256925,2018-06-29 10:58:40.906250,29.86,69.38
256926,2018-06-29 10:58:40.937500,67.4,69.38
256927,2018-06-29 10:58:40.968750,108.96,69.38
256928,2018-06-29 10:58:41.000000,145.83,69.38
256929,2018-06-29 10:58:41.031250,171.84,69.38
256930,2018-06-29 10:58:41.062500,185.46,69.38
256931,2018-06-29 10:58:41.093750,188.84,69.38
256932,2018-06-29 10:58:41.125000,186.04,69.38
256933,2018-06-29 10:58:41.156250,181.39,69.38
256934,2018-06-29 10:58:41.187500,174.7,69.38
256935,2018-06-29 10:58:41.218750,157.7,69.38
256936,2018-06-29 10:58:41.250000,121.79,69.38
256937,2018-06-29 10:58:41.281250,70.67,69.38
256938,2018-06-29 10:58:41.312500,18.57,69.38
256939,2018-06-29 10:58:41.343750,-23.93,69.38
256940,2018-06-29 10:58:41.375000,-56.14,69.38
256941,2018-06-29 10:58:41.406250,-83.44,69.38
256942,2018-06-29 10:58:41.437500,-114.26,69.38
256943,2018-06-29 10:58:41.468750,-151.83,69.38
256944,2018-06-29 10:58:41.500000,-179.66,69.38
256945,2018-06-29 10:58:41.531250,-169.67,69.43
256946,2018-06-29 10:58:41.562500,-116.62,69.43
256947,2018-06-29 10:58:41.593750,-48.62,69.43
256948,2018-06-29 10:58:41.625000,3.45,69.43
256949,2018-06-29 10:58:41.656250,30.36,69.43
256950,2018-06-29 10:58:41.687500,37.08,69.43
256951,2018-06-29 10:58:41.718750,31.53,69.43
256952,2018-06-29 10:58:41.750000,23.99,69.43
256953,2018-06-29 10:58:41.781250,23.04,69.43
256954,2018-06-29 10:58:41.812500,29.01,69.43
256955,2018-06-29 10:58:41.843750,37.68,69.43
256956,2018-06-29 10:58:41.875000,48.05,69.43
256957,2018-06-29 10:58:41.906250,60.24,69.43
256958,2018-06-29 10:58:41.937500,68.92,69.43
256959,2018-06-29 10:58:41.968750,66.49,69.43
256960,2018-06-29 10:58:42.000000,52.18,69.43
256961,2018-06-29 10:58:42.031250,34.75,69.43
256962,2018-06-29 10:58:42.062500,24.67,69.43
256963,2018-06-29 10:58:42.093750,17.99,69.43
256964,2018-06-29 10:58:42.125000,-6.62,69.43
256965,2018-06-29 10:58:42.156250,-62.35,69.43
256966,2018-06-29 10:58:42.187500,-134.86,69.43
256967,2018-06-29 10:58:42.218750,-197.91,69.43
256968,2018-06-29 10:58:42.250000,-234.57,69.43
256969,2018-06-29 10:58:42.281250,-240.08,69.43
256970,2018-06-29 10:58:42.312500,-222.79,69.43
256971,2018-06-29 10:58:42.343750,-205.13,69.43
256972,2018-06-29 10:58:42.375000,-203.48,69.43
256973,2018-06-29 10:58:42.406250,-202.64,69.43
256974,2018-06-29 10:58:42.437500,-170.45,69.43
256975,2018-06-29 10:58:42.468750,-101.49,69.43
256976,2018-06-29 10:58:42.500000,-24.42,69.43
256977,2018-06-29 10:58:42.531250,35.91,69.47
256978,2018-06-29 10:58:42.562500,77.49,69.47
256979,2018-06-29 10:58:42.593750,104.23,69.47
256980,2018-06-29 10:58:42.625000,117.33,69.47
256981,2018-06-29 10:58:42.656250,121.79,69.47
256982,2018-06-29 10:58:42.687500,122.19,69.47
256983,2018-06-29 10:58:42.718750,115.22,69.47
256984,2018-06-29 10:58:42.750000,97.38,69.47
256985,2018-06-29 10:58:42.781250,76.36,69.47
256986,2018-06-29 10:58:42.812500,64.21,69.47
256987,2018-06-29 10:58:42.843750,60.85,69.47
256988,2018-06-29 10:58:42.875000,52.38,69.47
256989,2018-06-29 10:58:42.906250,26.6,69.47
256990,2018-06-29 10:58:42.937500,-9.45,69.47
256991,2018-06-29 10:58:42.968750,-30.62,69.47
256992,2018-06-29 10:58:43.000000,-21.94,69.47
256993,2018-06-29 10:58:43.031250,1.95,69.47
256994,2018-06-29 10:58:43.062500,18.61,69.47
256995,2018-06-29 10:58:43.093750,24.43,69.47
256996,2018-06-29 10:58:43.125000,25.73,69.47
256997,2018-06-29 10:58:43.156250,22.66,69.47
256998,2018-06-29 10:58:43.187500,14.87,69.47
256999,2018-06-29 10:58:43.218750,6.52,69.47
257000,2018-06-29 10:58:43.250000,0.14,69.47
257001,2018-06-29 10:58:43.281250,-1.08,69.47
257002,2018-06-29 10:58:43.312500,12.3,69.47
257003,2018-06-29 10:58:43.343750,45.11,69.47
257004,2018-06-29 10:58:43.375000,84.38,69.47
257005,2018-06-29 10:58:43.406250,109.49,69.47
257006,2018-06-29 10:58:43.437500,113.4,69.47
257007,2018-06-29 10:58:43.468750,103.92,69.47
257008,2018-06-29 10:58:43.500000,87.95,69.47
257009,2018-06-29 10:58:43.531250,66.09,69.5
257010,2018-06-29 10:58:43.562500,41.66,69.5
257011,2018-06-29 10:58:43.593750,21.74,69.5
257012,2018-06-29 10:58:43.625000,7.75,69.5
257013,2018-06-29 10:58:43.656250,-5.0,69.5
257014,2018-06-29 10:58:43.687500,-20.1,69.5
257015,2018-06-29 10:58:43.718750,-40.41,69.5
257016,2018-06-29 10:58:43.750000,-69.24,69.5
257017,2018-06-29 10:58:43.781250,-102.55,69.5
257018,2018-06-29 10:58:43.812500,-127.7,69.5
257019,2018-06-29 10:58:43.843750,-137.06,69.5
257020,2018-06-29 10:58:43.875000,-136.45,69.5
257021,2018-06-29 10:58:43.906250,-136.53,69.5
257022,2018-06-29 10:58:43.937500,-141.52,69.5
257023,2018-06-29 10:58:43.968750,-148.76,69.5
257024,2018-06-29 10:58:44.000000,-155.28,69.5
257025,2018-06-29 10:58:44.031250,-162.05,69.5
257026,2018-06-29 10:58:44.062500,-173.86,69.5
257027,2018-06-29 10:58:44.093750,-194.26,69.5
257028,2018-06-29 10:58:44.125000,-214.82,69.5
257029,2018-06-29 10:58:44.156250,-213.36,69.5
257030,2018-06-29 10:58:44.187500,-174.52,69.5
257031,2018-06-29 10:58:44.218750,-108.85,69.5
257032,2018-06-29 10:58:44.250000,-41.5,69.5
257033,2018-06-29 10:58:44.281250,11.16,69.5
257034,2018-06-29 10:58:44.312500,46.35,69.5
257035,2018-06-29 10:58:44.343750,65.18,69.5
257036,2018-06-29 10:58:44.375000,67.9,69.5
257037,2018-06-29 10:58:44.406250,57.31,69.5
257038,2018-06-29 10:58:44.437500,41.63,69.5
257039,2018-06-29 10:58:44.468750,29.99,69.5
257040,2018-06-29 10:58:44.500000,25.67,69.5
257041,2018-06-29 10:58:44.531250,26.04,69.55
257042,2018-06-29 10:58:44.562500,26.33,69.55
257043,2018-06-29 10:58:44.593750,21.75,69.55
257044,2018-06-29 10:58:44.625000,11.5,69.55
257045,2018-06-29 10:58:44.656250,1.8,69.55
257046,2018-06-29 10:58:44.687500,-0.71,69.55
257047,2018-06-29 10:58:44.718750,0.87,69.55
257048,2018-06-29 10:58:44.750000,-3.11,69.55
257049,2018-06-29 10:58:44.781250,-15.86,69.55
257050,2018-06-29 10:58:44.812500,-31.64,69.55
257051,2018-06-29 10:58:44.843750,-44.94,69.55
257052,2018-06-29 10:58:44.875000,-56.28,69.55
257053,2018-06-29 10:58:44.906250,-70.78,69.55
257054,2018-06-29 10:58:44.937500,-92.16,69.55
257055,2018-06-29 10:58:44.968750,-111.38,69.55
257056,2018-06-29 10:58:45.000000,-105.6,69.55
257057,2018-06-29 10:58:45.031250,-60.94,69.55
257058,2018-06-29 10:58:45.062500,8.81,69.55
257059,2018-06-29 10:58:45.093750,76.93,69.55
257060,2018-06-29 10:58:45.125000,127.83,69.55
257061,2018-06-29 10:58:45.156250,158.15,69.55
257062,2018-06-29 10:58:45.187500,168.08,69.55
257063,2018-06-29 10:58:45.218750,163.18,69.55
257064,2018-06-29 10:58:45.250000,154.7,69.55
257065,2018-06-29 10:58:45.281250,149.96,69.55
257066,2018-06-29 10:58:45.312500,147.29,69.55
257067,2018-06-29 10:58:45.343750,142.76,69.55
257068,2018-06-29 10:58:45.375000,136.96,69.55
257069,2018-06-29 10:58:45.406250,131.69,69.55
257070,2018-06-29 10:58:45.437500,124.09,69.55
257071,2018-06-29 10:58:45.468750,109.48,69.55
257072,2018-06-29 10:58:45.500000,88.48,69.55
257073,2018-06-29 10:58:45.531250,65.48,69.6
257074,2018-06-29 10:58:45.562500,41.53,69.6
257075,2018-06-29 10:58:45.593750,14.93,69.6
257076,2018-06-29 10:58:45.625000,-12.41,69.6
257077,2018-06-29 10:58:45.656250,-35.41,69.6
257078,2018-06-29 10:58:45.687500,-52.12,69.6
257079,2018-06-29 10:58:45.718750,-65.71,69.6
257080,2018-06-29 10:58:45.750000,-81.9,69.6
257081,2018-06-29 10:58:45.781250,-103.71,69.6
257082,2018-06-29 10:58:45.812500,-122.5,69.6
257083,2018-06-29 10:58:45.843750,-117.75,69.6
257084,2018-06-29 10:58:45.875000,-77.53,69.6
257085,2018-06-29 10:58:45.906250,-16.17,69.6
257086,2018-06-29 10:58:45.937500,38.73,69.6
257087,2018-06-29 10:58:45.968750,71.67,69.6
257088,2018-06-29 10:58:46.000000,84.13,69.6
257089,2018-06-29 10:58:46.031250,83.02,69.6
257090,2018-06-29 10:58:46.062500,75.0,69.6
257091,2018-06-29 10:58:46.093750,67.13,69.6
257092,2018-06-29 10:58:46.125000,64.37,69.6
257093,2018-06-29 10:58:46.156250,66.17,69.6
257094,2018-06-29 10:58:46.187500,69.19,69.6
257095,2018-06-29 10:58:46.218750,71.52,69.6
257096,2018-06-29 10:58:46.250000,70.9,69.6
257097,2018-06-29 10:58:46.281250,63.27,69.6
257098,2018-06-29 10:58:46.312500,47.9,69.6
257099,2018-06-29 10:58:46.343750,30.12,69.6
257100,2018-06-29 10:58:46.375000,14.55,69.6
257101,2018-06-29 10:58:46.406250,-0.99,69.6
257102,2018-06-29 10:58:46.437500,-20.25,69.6
257103,2018-06-29 10:58:46.468750,-40.37,69.6
257104,2018-06-29 10:58:46.500000,-55.16,69.6
257105,2018-06-29 10:58:46.531250,-64.92,69.65
257106,2018-06-29 10:58:46.562500,-77.02,69.65
257107,2018-06-29 10:58:46.593750,-96.59,69.65
257108,2018-06-29 10:58:46.625000,-116.31,69.65
257109,2018-06-29 10:58:46.656250,-116.25,69.65
257110,2018-06-29 10:58:46.687500,-81.72,69.65
257111,2018-06-29 10:58:46.718750,-22.41,69.65
257112,2018-06-29 10:58:46.750000,35.07,69.65
257113,2018-06-29 10:58:46.781250,72.6,69.65
257114,2018-06-29 10:58:46.812500,89.23,69.65
257115,2018-06-29 10:58:46.843750,90.85,69.65
257116,2018-06-29 10:58:46.875000,83.69,69.65
257117,2018-06-29 10:58:46.906250,74.46,69.65
257118,2018-06-29 10:58:46.937500,68.0,69.65
257119,2018-06-29 10:58:46.968750,64.78,69.65
257120,2018-06-29 10:58:47.000000,63.24,69.65
257121,2018-06-29 10:58:47.031250,62.71,69.65
257122,2018-06-29 10:58:47.062500,62.07,69.65
257123,2018-06-29 10:58:47.093750,58.05,69.65
257124,2018-06-29 10:58:47.125000,47.69,69.65
257125,2018-06-29 10:58:47.156250,32.33,69.65
257126,2018-06-29 10:58:47.187500,16.54,69.65
257127,2018-06-29 10:58:47.218750,2.37,69.65
257128,2018-06-29 10:58:47.250000,-12.6,69.65
257129,2018-06-29 10:58:47.281250,-29.75,69.65
257130,2018-06-29 10:58:47.312500,-45.54,69.65
257131,2018-06-29 10:58:47.343750,-56.25,69.65
257132,2018-06-29 10:58:47.375000,-64.41,69.65
257133,2018-06-29 10:58:47.406250,-77.54,69.65
257134,2018-06-29 10:58:47.437500,-98.7,69.65
257135,2018-06-29 10:58:47.468750,-116.86,69.65
257136,2018-06-29 10:58:47.500000,-110.73,69.65
257137,2018-06-29 10:58:47.531250,-70.49,69.65
257138,2018-06-29 10:58:47.562500,-12.3,69.65
257139,2018-06-29 10:58:47.593750,37.86,69.65
257140,2018-06-29 10:58:47.625000,68.03,69.65
257141,2018-06-29 10:58:47.656250,80.74,69.65
257142,2018-06-29 10:58:47.687500,80.57,69.65
257143,2018-06-29 10:58:47.718750,72.24,69.65
257144,2018-06-29 10:58:47.750000,63.55,69.65
257145,2018-06-29 10:58:47.781250,60.9,69.65
257146,2018-06-29 10:58:47.812500,63.55,69.65
257147,2018-06-29 10:58:47.843750,67.08,69.65
257148,2018-06-29 10:58:47.875000,69.58,69.65
257149,2018-06-29 10:58:47.906250,70.26,69.65
257150,2018-06-29 10:58:47.937500,65.87,69.65
257151,2018-06-29 10:58:47.968750,54.08,69.65
257152,2018-06-29 10:58:48.000000,37.91,69.65
257153,2018-06-29 10:58:48.031250,22.71,69.65
257154,2018-06-29 10:58:48.062500,10.04,69.65
257155,2018-06-29 10:58:48.093750,-3.06,69.65
257156,2018-06-29 10:58:48.125000,-18.78,69.65
257157,2018-06-29 10:58:48.156250,-34.02,69.65
257158,2018-06-29 10:58:48.187500,-44.08,69.65
257159,2018-06-29 10:58:48.218750,-49.96,69.65
257160,2018-06-29 10:58:48.250000,-58.26,69.65
257161,2018-06-29 10:58:48.281250,-74.13,69.65
257162,2018-06-29 10:58:48.312500,-94.39,69.65
257163,2018-06-29 10:58:48.343750,-104.97,69.65
257164,2018-06-29 10:58:48.375000,-89.47,69.65
257165,2018-06-29 10:58:48.406250,-47.27,69.65
257166,2018-06-29 10:58:48.437500,2.61,69.65
257167,2018-06-29 10:58:48.468750,40.2,69.65
257168,2018-06-29 10:58:48.500000,58.91,69.65
257169,2018-06-29 10:58:48.531250,60.71,69.6
257170,2018-06-29 10:58:48.562500,49.9,69.6
257171,2018-06-29 10:58:48.593750,34.34,69.6
257172,2018-06-29 10:58:48.625000,22.19,69.6
257173,2018-06-29 10:58:48.656250,15.23,69.6
257174,2018-06-29 10:58:48.687500,10.69,69.6
257175,2018-06-29 10:58:48.718750,8.09,69.6
257176,2018-06-29 10:58:48.750000,8.55,69.6
257177,2018-06-29 10:58:48.781250,9.53,69.6
257178,2018-06-29 10:58:48.812500,6.35,69.6
257179,2018-06-29 10:58:48.843750,-1.57,69.6
257180,2018-06-29 10:58:48.875000,-10.26,69.6
257181,2018-06-29 10:58:48.906250,-17.35,69.6
257182,2018-06-29 10:58:48.937500,-24.98,69.6
257183,2018-06-29 10:58:48.968750,-35.2,69.6
257184,2018-06-29 10:58:49.000000,-45.49,69.6
257185,2018-06-29 10:58:49.031250,-52.07,69.6
257186,2018-06-29 10:58:49.062500,-55.91,69.6
257187,2018-06-29 10:58:49.093750,-62.12,69.6
257188,2018-06-29 10:58:49.125000,-73.71,69.6
257189,2018-06-29 10:58:49.156250,-85.12,69.6
257190,2018-06-29 10:58:49.187500,-82.03,69.6
257191,2018-06-29 10:58:49.218750,-53.88,69.6
257192,2018-06-29 10:58:49.250000,-8.5,69.6
257193,2018-06-29 10:58:49.281250,33.06,69.6
257194,2018-06-29 10:58:49.312500,56.79,69.6
257195,2018-06-29 10:58:49.343750,63.5,69.6
257196,2018-06-29 10:58:49.375000,59.33,69.6
257197,2018-06-29 10:58:49.406250,49.24,69.6
257198,2018-06-29 10:58:49.437500,38.82,69.6
257199,2018-06-29 10:58:49.468750,33.41,69.6
257200,2018-06-29 10:58:49.500000,33.42,69.6
257201,2018-06-29 10:58:49.531250,34.98,69.55
257202,2018-06-29 10:58:49.562500,35.08,69.55
257203,2018-06-29 10:58:49.593750,32.38,69.55
257204,2018-06-29 10:58:49.625000,25.36,69.55
257205,2018-06-29 10:58:49.656250,14.02,69.55
257206,2018-06-29 10:58:49.687500,1.26,69.55
257207,2018-06-29 10:58:49.718750,-10.69,69.55
257208,2018-06-29 10:58:49.750000,-23.17,69.55
257209,2018-06-29 10:58:49.781250,-37.71,69.55
257210,2018-06-29 10:58:49.812500,-51.86,69.55
257211,2018-06-29 10:58:49.843750,-62.18,69.55
257212,2018-06-29 10:58:49.875000,-70.08,69.55
257213,2018-06-29 10:58:49.906250,-81.25,69.55
257214,2018-06-29 10:58:49.937500,-97.64,69.55
257215,2018-06-29 10:58:49.968750,-109.38,69.55
257216,2018-06-29 10:58:50.000000,-99.08,69.55
257217,2018-06-29 10:58:50.031250,-60.52,69.55
257218,2018-06-29 10:58:50.062500,-9.49,69.55
257219,2018-06-29 10:58:50.093750,31.54,69.55
257220,2018-06-29 10:58:50.125000,53.69,69.55
257221,2018-06-29 10:58:50.156250,60.67,69.55
257222,2018-06-29 10:58:50.187500,57.66,69.55
257223,2018-06-29 10:58:50.218750,49.87,69.55
257224,2018-06-29 10:58:50.250000,43.83,69.55
257225,2018-06-29 10:58:50.281250,42.9,69.55
257226,2018-06-29 10:58:50.312500,44.98,69.55
257227,2018-06-29 10:58:50.343750,47.3,69.55
257228,2018-06-29 10:58:50.375000,48.45,69.55
257229,2018-06-29 10:58:50.406250,45.86,69.55
257230,2018-06-29 10:58:50.437500,37.09,69.55
257231,2018-06-29 10:58:50.468750,24.1,69.55
257232,2018-06-29 10:58:50.500000,10.89,69.55
257233,2018-06-29 10:58:50.531250,-2.37,69.48
257234,2018-06-29 10:58:50.562500,-17.88,69.48
257235,2018-06-29 10:58:50.593750,-34.35,69.48
257236,2018-06-29 10:58:50.625000,-47.85,69.48
257237,2018-06-29 10:58:50.656250,-57.85,69.48
257238,2018-06-29 10:58:50.687500,-68.59,69.48
257239,2018-06-29 10:58:50.718750,-83.96,69.48
257240,2018-06-29 10:58:50.750000,-99.23,69.48
257241,2018-06-29 10:58:50.781250,-99.13,69.48
257242,2018-06-29 10:58:50.812500,-71.34,69.48
257243,2018-06-29 10:58:50.843750,-23.07,69.48
257244,2018-06-29 10:58:50.875000,23.88,69.48
257245,2018-06-29 10:58:50.906250,53.97,69.48
257246,2018-06-29 10:58:50.937500,66.25,69.48
257247,2018-06-29 10:58:50.968750,66.3,69.48
257248,2018-06-29 10:58:51.000000,59.63,69.48
257249,2018-06-29 10:58:51.031250,52.07,69.48
257250,2018-06-29 10:58:51.062500,48.4,69.48
257251,2018-06-29 10:58:51.093750,48.44,69.48
257252,2018-06-29 10:58:51.125000,48.96,69.48
257253,2018-06-29 10:58:51.156250,49.06,69.48
257254,2018-06-29 10:58:51.187500,48.83,69.48
257255,2018-06-29 10:58:51.218750,44.84,69.48
257256,2018-06-29 10:58:51.250000,34.19,69.48
257257,2018-06-29 10:58:51.281250,20.19,69.48
257258,2018-06-29 10:58:51.312500,7.56,69.48
257259,2018-06-29 10:58:51.343750,-4.31,69.48
257260,2018-06-29 10:58:51.375000,-18.4,69.48
257261,2018-06-29 10:58:51.406250,-33.83,69.48
257262,2018-06-29 10:58:51.437500,-46.86,69.48
257263,2018-06-29 10:58:51.468750,-56.23,69.48
257264,2018-06-29 10:58:51.500000,-65.08,69.48
257265,2018-06-29 10:58:51.531250,-78.2,69.42
257266,2018-06-29 10:58:51.562500,-94.84,69.42
257267,2018-06-29 10:58:51.593750,-102.09,69.42
257268,2018-06-29 10:58:51.625000,-83.62,69.42
257269,2018-06-29 10:58:51.656250,-40.29,69.42
257270,2018-06-29 10:58:51.687500,7.17,69.42
257271,2018-06-29 10:58:51.718750,39.52,69.42
257272,2018-06-29 10:58:51.750000,52.77,69.42
257273,2018-06-29 10:58:51.781250,51.29,69.42
257274,2018-06-29 10:58:51.812500,40.44,69.42
257275,2018-06-29 10:58:51.843750,27.16,69.42
257276,2018-06-29 10:58:51.875000,18.13,69.42
257277,2018-06-29 10:58:51.906250,15.16,69.42
257278,2018-06-29 10:58:51.937500,15.91,69.42
257279,2018-06-29 10:58:51.968750,17.67,69.42
257280,2018-06-29 10:58:52.000000,18.04,69.42
257281,2018-06-29 10:58:52.031250,13.89,69.42
257282,2018-06-29 10:58:52.062500,4.07,69.42
257283,2018-06-29 10:58:52.093750,-7.96,69.42
257284,2018-06-29 10:58:52.125000,-18.07,69.42
257285,2018-06-29 10:58:52.156250,-26.83,69.42
257286,2018-06-29 10:58:52.187500,-36.92,69.42
257287,2018-06-29 10:58:52.218750,-47.41,69.42
257288,2018-06-29 10:58:52.250000,-55.31,69.42
257289,2018-06-29 10:58:52.281250,-61.26,69.42
257290,2018-06-29 10:58:52.312500,-70.2,69.42
257291,2018-06-29 10:58:52.343750,-84.97,69.42
257292,2018-06-29 10:58:52.375000,-97.36,69.42
257293,2018-06-29 10:58:52.406250,-89.52,69.42
257294,2018-06-29 10:58:52.437500,-52.38,69.42
257295,2018-06-29 10:58:52.468750,0.54,69.42
257296,2018-06-29 10:58:52.500000,45.67,69.42
257297,2018-06-29 10:58:52.531250,70.88,69.38
257298,2018-06-29 10:58:52.562500,78.13,69.38
257299,2018-06-29 10:58:52.593750,73.14,69.38
257300,2018-06-29 10:58:52.625000,61.66,69.38
257301,2018-06-29 10:58:52.656250,50.58,69.38
257302,2018-06-29 10:58:52.687500,44.83,69.38
257303,2018-06-29 10:58:52.718750,43.72,69.38
257304,2018-06-29 10:58:52.750000,43.8,69.38
257305,2018-06-29 10:58:52.781250,42.53,69.38
257306,2018-06-29 10:58:52.812500,37.78,69.38
257307,2018-06-29 10:58:52.843750,28.31,69.38
257308,2018-06-29 10:58:52.875000,15.63,69.38
257309,2018-06-29 10:58:52.906250,2.23,69.38
257310,2018-06-29 10:58:52.937500,-11.72,69.38
257311,2018-06-29 10:58:52.968750,-26.64,69.38
257312,2018-06-29 10:58:53.000000,-40.94,69.38
257313,2018-06-29 10:58:53.031250,-53.0,69.38
257314,2018-06-29 10:58:53.062500,-64.08,69.38
257315,2018-06-29 10:58:53.093750,-78.12,69.38
257316,2018-06-29 10:58:53.125000,-97.24,69.38
257317,2018-06-29 10:58:53.156250,-113.29,69.38
257318,2018-06-29 10:58:53.187500,-107.47,69.38
257319,2018-06-29 10:58:53.218750,-69.68,69.38
257320,2018-06-29 10:58:53.250000,-14.59,69.38
257321,2018-06-29 10:58:53.281250,32.79,69.38
257322,2018-06-29 10:58:53.312500,61.18,69.38
257323,2018-06-29 10:58:53.343750,73.26,69.38
257324,2018-06-29 10:58:53.375000,73.31,69.38
257325,2018-06-29 10:58:53.406250,65.6,69.38
257326,2018-06-29 10:58:53.437500,56.75,69.38
257327,2018-06-29 10:58:53.468750,52.15,69.38
257328,2018-06-29 10:58:53.500000,52.19,69.38
257329,2018-06-29 10:58:53.531250,53.75,69.38
257330,2018-06-29 10:58:53.562500,53.58,69.38
257331,2018-06-29 10:58:53.593750,50.08,69.38
257332,2018-06-29 10:58:53.625000,42.82,69.38
257333,2018-06-29 10:58:53.656250,31.78,69.38
257334,2018-06-29 10:58:53.687500,17.67,69.38
257335,2018-06-29 10:58:53.718750,1.91,69.38
257336,2018-06-29 10:58:53.750000,-13.87,69.38
257337,2018-06-29 10:58:53.781250,-27.94,69.38
257338,2018-06-29 10:58:53.812500,-39.18,69.38
257339,2018-06-29 10:58:53.843750,-49.15,69.38
257340,2018-06-29 10:58:53.875000,-62.29,69.38
257341,2018-06-29 10:58:53.906250,-79.88,69.38
257342,2018-06-29 10:58:53.937500,-91.19,69.38
257343,2018-06-29 10:58:53.968750,-78.18,69.38
257344,2018-06-29 10:58:54.000000,-36.61,69.38
257345,2018-06-29 10:58:54.031250,15.3,69.38
257346,2018-06-29 10:58:54.062500,55.47,69.38
257347,2018-06-29 10:58:54.093750,76.45,69.38
257348,2018-06-29 10:58:54.125000,81.4,69.38
257349,2018-06-29 10:58:54.156250,74.23,69.38
257350,2018-06-29 10:58:54.187500,60.39,69.38
257351,2018-06-29 10:58:54.218750,48.02,69.38
257352,2018-06-29 10:58:54.250000,42.13,69.38
257353,2018-06-29 10:58:54.281250,40.68,69.38
257354,2018-06-29 10:58:54.312500,38.88,69.38
257355,2018-06-29 10:58:54.343750,34.09,69.38
257356,2018-06-29 10:58:54.375000,25.76,69.38
257357,2018-06-29 10:58:54.406250,14.1,69.38
257358,2018-06-29 10:58:54.437500,0.28,69.38
257359,2018-06-29 10:58:54.468750,-14.16,69.38
257360,2018-06-29 10:58:54.500000,-28.65,69.38
257361,2018-06-29 10:58:54.531250,-42.62,69.43
257362,2018-06-29 10:58:54.562500,-54.24,69.43
257363,2018-06-29 10:58:54.593750,-62.72,69.43
257364,2018-06-29 10:58:54.625000,-70.62,69.43
257365,2018-06-29 10:58:54.656250,-82.44,69.43
257366,2018-06-29 10:58:54.687500,-97.27,69.43
257367,2018-06-29 10:58:54.718750,-101.94,69.43
257368,2018-06-29 10:58:54.750000,-79.67,69.43
257369,2018-06-29 10:58:54.781250,-31.56,69.43
257370,2018-06-29 10:58:54.812500,20.37,69.43
257371,2018-06-29 10:58:54.843750,55.93,69.43
257372,2018-06-29 10:58:54.875000,71.47,69.43
257373,2018-06-29 10:58:54.906250,71.44,69.43
257374,2018-06-29 10:58:54.937500,60.58,69.43
257375,2018-06-29 10:58:54.968750,46.62,69.43
257376,2018-06-29 10:58:55.000000,38.26,69.43
257377,2018-06-29 10:58:55.031250,37.3,69.43
257378,2018-06-29 10:58:55.062500,38.37,69.43
257379,2018-06-29 10:58:55.093750,36.29,69.43
257380,2018-06-29 10:58:55.125000,30.22,69.43
257381,2018-06-29 10:58:55.156250,22.13,69.43
257382,2018-06-29 10:58:55.187500,12.82,69.43
257383,2018-06-29 10:58:55.218750,0.46,69.43
257384,2018-06-29 10:58:55.250000,-15.92,69.43
257385,2018-06-29 10:58:55.281250,-33.08,69.43
257386,2018-06-29 10:58:55.312500,-46.83,69.43
257387,2018-06-29 10:58:55.343750,-57.17,69.43
257388,2018-06-29 10:58:55.375000,-67.78,69.43
257389,2018-06-29 10:58:55.406250,-82.05,69.43
257390,2018-06-29 10:58:55.437500,-98.31,69.43
257391,2018-06-29 10:58:55.468750,-104.33,69.43
257392,2018-06-29 10:58:55.500000,-83.84,69.43
257393,2018-06-29 10:58:55.531250,-36.87,69.53
257394,2018-06-29 10:58:55.562500,15.26,69.53
257395,2018-06-29 10:58:55.593750,52.25,69.53
257396,2018-06-29 10:58:55.625000,70.64,69.53
257397,2018-06-29 10:58:55.656250,74.68,69.53
257398,2018-06-29 10:58:55.687500,67.69,69.53
257399,2018-06-29 10:58:55.718750,56.23,69.53
257400,2018-06-29 10:58:55.750000,48.81,69.53
257401,2018-06-29 10:58:55.781250,46.69,69.53
257402,2018-06-29 10:58:55.812500,44.68,69.53
257403,2018-06-29 10:58:55.843750,40.5,69.53
257404,2018-06-29 10:58:55.875000,36.1,69.53
257405,2018-06-29 10:58:55.906250,30.56,69.53
257406,2018-06-29 10:58:55.937500,19.44,69.53
257407,2018-06-29 10:58:55.968750,2.26,69.53
257408,2018-06-29 10:58:56.000000,-15.06,69.53
257409,2018-06-29 10:58:56.031250,-27.34,69.53
257410,2018-06-29 10:58:56.062500,-36.6,69.53
257411,2018-06-29 10:58:56.093750,-49.4,69.53
257412,2018-06-29 10:58:56.125000,-68.99,69.53
257413,2018-06-29 10:58:56.156250,-88.23,69.53
257414,2018-06-29 10:58:56.187500,-90.34,69.53
257415,2018-06-29 10:58:56.218750,-63.69,69.53
257416,2018-06-29 10:58:56.250000,-16.93,69.53
257417,2018-06-29 10:58:56.281250,28.15,69.53
257418,2018-06-29 10:58:56.312500,57.58,69.53
257419,2018-06-29 10:58:56.343750,71.14,69.53
257420,2018-06-29 10:58:56.375000,72.29,69.53
257421,2018-06-29 10:58:56.406250,64.29,69.53
257422,2018-06-29 10:58:56.437500,53.62,69.53
257423,2018-06-29 10:58:56.468750,46.74,69.53
257424,2018-06-29 10:58:56.500000,43.18,69.53
257425,2018-06-29 10:58:56.531250,38.88,69.63
257426,2018-06-29 10:58:56.562500,33.73,69.63
257427,2018-06-29 10:58:56.593750,29.08,69.63
257428,2018-06-29 10:58:56.625000,21.31,69.63
257429,2018-06-29 10:58:56.656250,6.18,69.63
257430,2018-06-29 10:58:56.687500,-13.1,69.63
257431,2018-06-29 10:58:56.718750,-29.1,69.63
257432,2018-06-29 10:58:56.750000,-39.84,69.63
257433,2018-06-29 10:58:56.781250,-50.4,69.63
257434,2018-06-29 10:58:56.812500,-65.94,69.63
257435,2018-06-29 10:58:56.843750,-84.14,69.63
257436,2018-06-29 10:58:56.875000,-92.07,69.63
257437,2018-06-29 10:58:56.906250,-74.77,69.63
257438,2018-06-29 10:58:56.937500,-32.93,69.63
257439,2018-06-29 10:58:56.968750,14.61,69.63
257440,2018-06-29 10:58:57.000000,49.93,69.63
257441,2018-06-29 10:58:57.031250,69.05,69.63
257442,2018-06-29 10:58:57.062500,74.61,69.63
257443,2018-06-29 10:58:57.093750,69.91,69.63
257444,2018-06-29 10:58:57.125000,62.32,69.63
257445,2018-06-29 10:58:57.156250,60.13,69.63
257446,2018-06-29 10:58:57.187500,63.23,69.63
257447,2018-06-29 10:58:57.218750,64.98,69.63
257448,2018-06-29 10:58:57.250000,62.51,69.63
257449,2018-06-29 10:58:57.281250,58.67,69.63
257450,2018-06-29 10:58:57.312500,54.95,69.63
257451,2018-06-29 10:58:57.343750,48.59,69.63
257452,2018-06-29 10:58:57.375000,37.46,69.63
257453,2018-06-29 10:58:57.406250,24.0,69.63
257454,2018-06-29 10:58:57.437500,12.13,69.63
257455,2018-06-29 10:58:57.468750,1.72,69.63
257456,2018-06-29 10:58:57.500000,-10.46,69.63
257457,2018-06-29 10:58:57.531250,-24.47,69.77
257458,2018-06-29 10:58:57.562500,-36.65,69.77
257459,2018-06-29 10:58:57.593750,-45.39,69.77
257460,2018-06-29 10:58:57.625000,-53.57,69.77
257461,2018-06-29 10:58:57.656250,-65.42,69.77
257462,2018-06-29 10:58:57.687500,-82.3,69.77
257463,2018-06-29 10:58:57.718750,-96.99,69.77
257464,2018-06-29 10:58:57.750000,-93.18,69.77
257465,2018-06-29 10:58:57.781250,-61.23,69.77
257466,2018-06-29 10:58:57.812500,-13.23,69.77
257467,2018-06-29 10:58:57.843750,28.04,69.77
257468,2018-06-29 10:58:57.875000,51.7,69.77
257469,2018-06-29 10:58:57.906250,60.89,69.77
257470,2018-06-29 10:58:57.937500,60.7,69.77
257471,2018-06-29 10:58:57.968750,54.95,69.77
257472,2018-06-29 10:58:58.000000,49.36,69.77
257473,2018-06-29 10:58:58.031250,48.44,69.77
257474,2018-06-29 10:58:58.062500,50.48,69.77
257475,2018-06-29 10:58:58.093750,50.56,69.77
257476,2018-06-29 10:58:58.125000,47.13,69.77
257477,2018-06-29 10:58:58.156250,41.87,69.77
257478,2018-06-29 10:58:58.187500,34.58,69.77
257479,2018-06-29 10:58:58.218750,23.3,69.77
257480,2018-06-29 10:58:58.250000,8.82,69.77
257481,2018-06-29 10:58:58.281250,-5.01,69.77
257482,2018-06-29 10:58:58.312500,-15.91,69.77
257483,2018-06-29 10:58:58.343750,-25.45,69.77
257484,2018-06-29 10:58:58.375000,-36.48,69.77
257485,2018-06-29 10:58:58.406250,-49.15,69.77
257486,2018-06-29 10:58:58.437500,-60.72,69.77
257487,2018-06-29 10:58:58.468750,-69.4,69.77
257488,2018-06-29 10:58:58.500000,-76.49,69.77
257489,2018-06-29 10:58:58.531250,-84.66,69.9
257490,2018-06-29 10:58:58.562500,-95.67,69.9
257491,2018-06-29 10:58:58.593750,-106.02,69.9
257492,2018-06-29 10:58:58.625000,-104.07,69.9
257493,2018-06-29 10:58:58.656250,-79.56,69.9
257494,2018-06-29 10:58:58.687500,-38.3,69.9
257495,2018-06-29 10:58:58.718750,1.58,69.9
257496,2018-06-29 10:58:58.750000,27.85,69.9
257497,2018-06-29 10:58:58.781250,40.01,69.9
257498,2018-06-29 10:58:58.812500,41.21,69.9
257499,2018-06-29 10:58:58.843750,34.93,69.9
257500,2018-06-29 10:58:58.875000,27.37,69.9
257501,2018-06-29 10:58:58.906250,24.6,69.9
257502,2018-06-29 10:58:58.937500,27.05,69.9
257503,2018-06-29 10:58:58.968750,30.84,69.9
257504,2018-06-29 10:58:59.000000,33.37,69.9
257505,2018-06-29 10:58:59.031250,33.93,69.9
257506,2018-06-29 10:58:59.062500,30.37,69.9
257507,2018-06-29 10:58:59.093750,21.4,69.9
257508,2018-06-29 10:58:59.125000,10.62,69.9
257509,2018-06-29 10:58:59.156250,2.58,69.9
257510,2018-06-29 10:58:59.187500,-3.7,69.9
257511,2018-06-29 10:58:59.218750,-12.2,69.9
257512,2018-06-29 10:58:59.250000,-23.15,69.9
257513,2018-06-29 10:58:59.281250,-33.25,69.9
257514,2018-06-29 10:58:59.312500,-40.89,69.9
257515,2018-06-29 10:58:59.343750,-48.34,69.9
257516,2018-06-29 10:58:59.375000,-59.49,69.9
257517,2018-06-29 10:58:59.406250,-74.57,69.9
257518,2018-06-29 10:58:59.437500,-84.38,69.9
257519,2018-06-29 10:58:59.468750,-74.83,69.9
257520,2018-06-29 10:58:59.500000,-43.02,69.9
257521,2018-06-29 10:58:59.531250,-3.39,70.02
257522,2018-06-29 10:58:59.562500,27.35,70.02
257523,2018-06-29 10:58:59.593750,44.38,70.02
257524,2018-06-29 10:58:59.625000,50.94,70.02
257525,2018-06-29 10:58:59.656250,50.11,70.02
257526,2018-06-29 10:58:59.687500,45.29,70.02
257527,2018-06-29 10:58:59.718750,41.06,70.02
257528,2018-06-29 10:58:59.750000,39.29,70.02
257529,2018-06-29 10:58:59.781250,37.92,70.02
257530,2018-06-29 10:58:59.812500,35.85,70.02
257531,2018-06-29 10:58:59.843750,35.02,70.02
257532,2018-06-29 10:58:59.875000,35.71,70.02
257533,2018-06-29 10:58:59.906250,34.02,70.02
257534,2018-06-29 10:58:59.937500,26.93,70.02
257535,2018-06-29 10:58:59.968750,16.78,70.02
257536,2018-06-29 10:59:00.000000,7.9,70.02
257537,2018-06-29 10:59:00.031250,0.46,70.02
257538,2018-06-29 10:59:00.062500,-9.05,70.02
257539,2018-06-29 10:59:00.093750,-21.7,70.02
257540,2018-06-29 10:59:00.125000,-33.81,70.02
257541,2018-06-29 10:59:00.156250,-42.5,70.02
257542,2018-06-29 10:59:00.187500,-49.87,70.02
257543,2018-06-29 10:59:00.218750,-60.46,70.02
257544,2018-06-29 10:59:00.250000,-75.74,70.02
257545,2018-06-29 10:59:00.281250,-88.7,70.02
257546,2018-06-29 10:59:00.312500,-85.34,70.02
257547,2018-06-29 10:59:00.343750,-58.43,70.02
257548,2018-06-29 10:59:00.375000,-18.35,70.02
257549,2018-06-29 10:59:00.406250,16.86,70.02
257550,2018-06-29 10:59:00.437500,38.76,70.02
257551,2018-06-29 10:59:00.468750,49.33,70.02
257552,2018-06-29 10:59:00.500000,51.79,70.02
257553,2018-06-29 10:59:00.531250,48.91,70.12
257554,2018-06-29 10:59:00.562500,45.33,70.12
257555,2018-06-29 10:59:00.593750,44.38,70.12
257556,2018-06-29 10:59:00.625000,45.44,70.12
257557,2018-06-29 10:59:00.656250,46.93,70.12
257558,2018-06-29 10:59:00.687500,48.49,70.12
257559,2018-06-29 10:59:00.718750,48.97,70.12
257560,2018-06-29 10:59:00.750000,46.5,70.12
257561,2018-06-29 10:59:00.781250,40.68,70.12
257562,2018-06-29 10:59:00.812500,32.39,70.12
257563,2018-06-29 10:59:00.843750,22.8,70.12
257564,2018-06-29 10:59:00.875000,13.53,70.12
257565,2018-06-29 10:59:00.906250,5.74,70.12
257566,2018-06-29 10:59:00.937500,-1.6,70.12
257567,2018-06-29 10:59:00.968750,-10.61,70.12
257568,2018-06-29 10:59:01.000000,-21.67,70.12
257569,2018-06-29 10:59:01.031250,-32.68,70.12
257570,2018-06-29 10:59:01.062500,-41.9,70.12
257571,2018-06-29 10:59:01.093750,-49.95,70.12
257572,2018-06-29 10:59:01.125000,-59.42,70.12
257573,2018-06-29 10:59:01.156250,-72.71,70.12
257574,2018-06-29 10:59:01.187500,-86.6,70.12
257575,2018-06-29 10:59:01.218750,-88.4,70.12
257576,2018-06-29 10:59:01.250000,-66.8,70.12
257577,2018-06-29 10:59:01.281250,-27.97,70.12
257578,2018-06-29 10:59:01.312500,9.4,70.12
257579,2018-06-29 10:59:01.343750,33.79,70.12
257580,2018-06-29 10:59:01.375000,45.28,70.12
257581,2018-06-29 10:59:01.406250,46.46,70.12
257582,2018-06-29 10:59:01.437500,40.34,70.12
257583,2018-06-29 10:59:01.468750,33.11,70.12
257584,2018-06-29 10:59:01.500000,30.29,70.12
257585,2018-06-29 10:59:01.531250,31.57,70.22
257586,2018-06-29 10:59:01.562500,33.01,70.22
257587,2018-06-29 10:59:01.593750,32.48,70.22
257588,2018-06-29 10:59:01.625000,30.62,70.22
257589,2018-06-29 10:59:01.656250,27.7,70.22
257590,2018-06-29 10:59:01.687500,22.39,70.22
257591,2018-06-29 10:59:01.718750,13.48,70.22
257592,2018-06-29 10:59:01.750000,1.99,70.22
257593,2018-06-29 10:59:01.781250,-9.06,70.22
257594,2018-06-29 10:59:01.812500,-17.87,70.22
257595,2018-06-29 10:59:01.843750,-25.9,70.22
257596,2018-06-29 10:59:01.875000,-35.17,70.22
257597,2018-06-29 10:59:01.906250,-44.87,70.22
257598,2018-06-29 10:59:01.937500,-53.08,70.22
257599,2018-06-29 10:59:01.968750,-59.76,70.22
257600,2018-06-29 10:59:02.000000,-66.11,70.22
257601,2018-06-29 10:59:02.031250,-74.06,70.22
257602,2018-06-29 10:59:02.062500,-85.53,70.22
257603,2018-06-29 10:59:02.093750,-95.54,70.22
257604,2018-06-29 10:59:02.125000,-89.77,70.22
257605,2018-06-29 10:59:02.156250,-60.06,70.22
257606,2018-06-29 10:59:02.187500,-17.75,70.22
257607,2018-06-29 10:59:02.218750,18.27,70.22
257608,2018-06-29 10:59:02.250000,39.77,70.22
257609,2018-06-29 10:59:02.281250,47.95,70.22
257610,2018-06-29 10:59:02.312500,44.98,70.22
257611,2018-06-29 10:59:02.343750,35.85,70.22
257612,2018-06-29 10:59:02.375000,29.22,70.22
257613,2018-06-29 10:59:02.406250,29.39,70.22
257614,2018-06-29 10:59:02.437500,32.53,70.22
257615,2018-06-29 10:59:02.468750,34.16,70.22
257616,2018-06-29 10:59:02.500000,34.52,70.22
257617,2018-06-29 10:59:02.531250,34.38,70.32
257618,2018-06-29 10:59:02.562500,31.26,70.32
257619,2018-06-29 10:59:02.593750,23.25,70.32
257620,2018-06-29 10:59:02.625000,12.94,70.32
257621,2018-06-29 10:59:02.656250,4.07,70.32
257622,2018-06-29 10:59:02.687500,-4.26,70.32
257623,2018-06-29 10:59:02.718750,-15.97,70.32
257624,2018-06-29 10:59:02.750000,-30.84,70.32
257625,2018-06-29 10:59:02.781250,-43.93,70.32
257626,2018-06-29 10:59:02.812500,-52.87,70.32
257627,2018-06-29 10:59:02.843750,-61.88,70.32
257628,2018-06-29 10:59:02.875000,-77.04,70.32
257629,2018-06-29 10:59:02.906250,-96.65,70.32
257630,2018-06-29 10:59:02.937500,-106.5,70.32
257631,2018-06-29 10:59:02.968750,-90.63,70.32
257632,2018-06-29 10:59:03.000000,-49.6,70.32
257633,2018-06-29 10:59:03.031250,-1.62,70.32
257634,2018-06-29 10:59:03.062500,35.46,70.32
257635,2018-06-29 10:59:03.093750,56.11,70.32
257636,2018-06-29 10:59:03.125000,63.12,70.32
257637,2018-06-29 10:59:03.156250,61.18,70.32
257638,2018-06-29 10:59:03.187500,55.47,70.32
257639,2018-06-29 10:59:03.218750,50.52,70.32
257640,2018-06-29 10:59:03.250000,48.18,70.32
257641,2018-06-29 10:59:03.281250,47.92,70.32
257642,2018-06-29 10:59:03.312500,49.0,70.32
257643,2018-06-29 10:59:03.343750,49.84,70.32
257644,2018-06-29 10:59:03.375000,47.07,70.32
257645,2018-06-29 10:59:03.406250,38.75,70.32
257646,2018-06-29 10:59:03.437500,26.79,70.32
257647,2018-06-29 10:59:03.468750,14.0,70.32
257648,2018-06-29 10:59:03.500000,0.46,70.32
257649,2018-06-29 10:59:03.531250,-14.77,70.4
257650,2018-06-29 10:59:03.562500,-30.27,70.4
257651,2018-06-29 10:59:03.593750,-43.0,70.4
257652,2018-06-29 10:59:03.625000,-52.59,70.4
257653,2018-06-29 10:59:03.656250,-63.77,70.4
257654,2018-06-29 10:59:03.687500,-80.98,70.4
257655,2018-06-29 10:59:03.718750,-97.24,70.4
257656,2018-06-29 10:59:03.750000,-93.81,70.4
257657,2018-06-29 10:59:03.781250,-59.74,70.4
257658,2018-06-29 10:59:03.812500,-7.56,70.4
257659,2018-06-29 10:59:03.843750,39.21,70.4
257660,2018-06-29 10:59:03.875000,68.54,70.4
257661,2018-06-29 10:59:03.906250,81.79,70.4
257662,2018-06-29 10:59:03.937500,83.04,70.4
257663,2018-06-29 10:59:03.968750,77.2,70.4
257664,2018-06-29 10:59:04.000000,71.22,70.4
257665,2018-06-29 10:59:04.031250,68.99,70.4
257666,2018-06-29 10:59:04.062500,68.74,70.4
257667,2018-06-29 10:59:04.093750,68.14,70.4
257668,2018-06-29 10:59:04.125000,66.91,70.4
257669,2018-06-29 10:59:04.156250,63.7,70.4
257670,2018-06-29 10:59:04.187500,55.78,70.4
257671,2018-06-29 10:59:04.218750,42.93,70.4
257672,2018-06-29 10:59:04.250000,28.59,70.4
257673,2018-06-29 10:59:04.281250,15.05,70.4
257674,2018-06-29 10:59:04.312500,0.46,70.4
257675,2018-06-29 10:59:04.343750,-16.72,70.4
257676,2018-06-29 10:59:04.375000,-33.89,70.4
257677,2018-06-29 10:59:04.406250,-48.07,70.4
257678,2018-06-29 10:59:04.437500,-60.38,70.4
257679,2018-06-29 10:59:04.468750,-74.76,70.4
257680,2018-06-29 10:59:04.500000,-93.58,70.4
257681,2018-06-29 10:59:04.531250,-109.96,70.48
257682,2018-06-29 10:59:04.562500,-106.77,70.48
257683,2018-06-29 10:59:04.593750,-73.63,70.48
257684,2018-06-29 10:59:04.625000,-23.07,70.48
257685,2018-06-29 10:59:04.656250,20.89,70.48
257686,2018-06-29 10:59:04.687500,45.64,70.48
257687,2018-06-29 10:59:04.718750,52.73,70.48
257688,2018-06-29 10:59:04.750000,47.08,70.48
257689,2018-06-29 10:59:04.781250,34.38,70.48
257690,2018-06-29 10:59:04.812500,23.24,70.48
257691,2018-06-29 10:59:04.843750,20.15,70.48
257692,2018-06-29 10:59:04.875000,23.66,70.48
257693,2018-06-29 10:59:04.906250,27.58,70.48
257694,2018-06-29 10:59:04.937500,28.05,70.48
257695,2018-06-29 10:59:04.968750,24.8,70.48
257696,2018-06-29 10:59:05.000000,18.51,70.48
257697,2018-06-29 10:59:05.031250,9.63,70.48
257698,2018-06-29 10:59:05.062500,-1.94,70.48
257699,2018-06-29 10:59:05.093750,-15.87,70.48
257700,2018-06-29 10:59:05.125000,-30.02,70.48
257701,2018-06-29 10:59:05.156250,-41.73,70.48
257702,2018-06-29 10:59:05.187500,-50.85,70.48
257703,2018-06-29 10:59:05.218750,-60.11,70.48
257704,2018-06-29 10:59:05.250000,-73.34,70.48
257705,2018-06-29 10:59:05.281250,-90.21,70.48
257706,2018-06-29 10:59:05.312500,-98.89,70.48
257707,2018-06-29 10:59:05.343750,-81.76,70.48
257708,2018-06-29 10:59:05.375000,-36.61,70.48
257709,2018-06-29 10:59:05.406250,16.46,70.48
257710,2018-06-29 10:59:05.437500,55.64,70.48
257711,2018-06-29 10:59:05.468750,75.38,70.48
257712,2018-06-29 10:59:05.500000,80.28,70.48
257713,2018-06-29 10:59:05.531250,74.83,70.55
257714,2018-06-29 10:59:05.562500,64.18,70.55
257715,2018-06-29 10:59:05.593750,55.23,70.55
257716,2018-06-29 10:59:05.625000,51.59,70.55
257717,2018-06-29 10:59:05.656250,51.62,70.55
257718,2018-06-29 10:59:05.687500,52.14,70.55
257719,2018-06-29 10:59:05.718750,50.58,70.55
257720,2018-06-29 10:59:05.750000,44.83,70.55
257721,2018-06-29 10:59:05.781250,34.65,70.55
257722,2018-06-29 10:59:05.812500,21.49,70.55
257723,2018-06-29 10:59:05.843750,6.33,70.55
257724,2018-06-29 10:59:05.875000,-10.32,70.55
257725,2018-06-29 10:59:05.906250,-26.77,70.55
257726,2018-06-29 10:59:05.937500,-40.93,70.55
257727,2018-06-29 10:59:05.968750,-52.37,70.55
257728,2018-06-29 10:59:06.000000,-63.62,70.55
257729,2018-06-29 10:59:06.031250,-79.3,70.55
257730,2018-06-29 10:59:06.062500,-99.83,70.55
257731,2018-06-29 10:59:06.093750,-112.93,70.55
257732,2018-06-29 10:59:06.125000,-99.55,70.55
257733,2018-06-29 10:59:06.156250,-55.43,70.55
257734,2018-06-29 10:59:06.187500,0.49,70.55
257735,2018-06-29 10:59:06.218750,45.45,70.55
257736,2018-06-29 10:59:06.250000,71.79,70.55
257737,2018-06-29 10:59:06.281250,82.73,70.55
257738,2018-06-29 10:59:06.312500,82.09,70.55
257739,2018-06-29 10:59:06.343750,75.12,70.55
257740,2018-06-29 10:59:06.375000,69.39,70.55
257741,2018-06-29 10:59:06.406250,68.23,70.55
257742,2018-06-29 10:59:06.437500,68.21,70.55
257743,2018-06-29 10:59:06.468750,66.42,70.55
257744,2018-06-29 10:59:06.500000,64.71,70.55
257745,2018-06-29 10:59:06.531250,63.32,70.6
257746,2018-06-29 10:59:06.562500,57.31,70.6
257747,2018-06-29 10:59:06.593750,43.81,70.6
257748,2018-06-29 10:59:06.625000,27.5,70.6
257749,2018-06-29 10:59:06.656250,13.85,70.6
257750,2018-06-29 10:59:06.687500,1.51,70.6
257751,2018-06-29 10:59:06.718750,-13.72,70.6
257752,2018-06-29 10:59:06.750000,-31.06,70.6
257753,2018-06-29 10:59:06.781250,-45.88,70.6
257754,2018-06-29 10:59:06.812500,-56.62,70.6
257755,2018-06-29 10:59:06.843750,-66.96,70.6
257756,2018-06-29 10:59:06.875000,-82.25,70.6
257757,2018-06-29 10:59:06.906250,-102.27,70.6
257758,2018-06-29 10:59:06.937500,-114.3,70.6
257759,2018-06-29 10:59:06.968750,-99.88,70.6
257760,2018-06-29 10:59:07.000000,-56.3,70.6
257761,2018-06-29 10:59:07.031250,-3.24,70.6
257762,2018-06-29 10:59:07.062500,37.9,70.6
257763,2018-06-29 10:59:07.093750,61.72,70.6
257764,2018-06-29 10:59:07.125000,72.6,70.6
257765,2018-06-29 10:59:07.156250,73.93,70.6
257766,2018-06-29 10:59:07.187500,69.36,70.6
257767,2018-06-29 10:59:07.218750,65.29,70.6
257768,2018-06-29 10:59:07.250000,65.94,70.6
257769,2018-06-29 10:59:07.281250,69.44,70.6
257770,2018-06-29 10:59:07.312500,71.98,70.6
257771,2018-06-29 10:59:07.343750,72.46,70.6
257772,2018-06-29 10:59:07.375000,70.64,70.6
257773,2018-06-29 10:59:07.406250,64.92,70.6
257774,2018-06-29 10:59:07.437500,55.28,70.6
257775,2018-06-29 10:59:07.468750,44.94,70.6
257776,2018-06-29 10:59:07.500000,35.53,70.6
257777,2018-06-29 10:59:07.531250,25.0,70.65
257778,2018-06-29 10:59:07.562500,12.69,70.65
257779,2018-06-29 10:59:07.593750,1.41,70.65
257780,2018-06-29 10:59:07.625000,-7.65,70.65
257781,2018-06-29 10:59:07.656250,-17.24,70.65
257782,2018-06-29 10:59:07.687500,-29.46,70.65
257783,2018-06-29 10:59:07.718750,-42.22,70.65
257784,2018-06-29 10:59:07.750000,-52.98,70.65
257785,2018-06-29 10:59:07.781250,-63.33,70.65
257786,2018-06-29 10:59:07.812500,-77.38,70.65
257787,2018-06-29 10:59:07.843750,-96.54,70.65
257788,2018-06-29 10:59:07.875000,-114.15,70.65
257789,2018-06-29 10:59:07.906250,-115.21,70.65
257790,2018-06-29 10:59:07.937500,-89.2,70.65
257791,2018-06-29 10:59:07.968750,-44.65,70.65
257792,2018-06-29 10:59:08.000000,-2.82,70.65
257793,2018-06-29 10:59:08.031250,22.77,70.65
257794,2018-06-29 10:59:08.062500,32.45,70.65
257795,2018-06-29 10:59:08.093750,31.24,70.65
257796,2018-06-29 10:59:08.125000,23.93,70.65
257797,2018-06-29 10:59:08.156250,16.7,70.65
257798,2018-06-29 10:59:08.187500,14.87,70.65
257799,2018-06-29 10:59:08.218750,17.87,70.65
257800,2018-06-29 10:59:08.250000,21.07,70.65
257801,2018-06-29 10:59:08.281250,22.41,70.65
257802,2018-06-29 10:59:08.312500,22.73,70.65
257803,2018-06-29 10:59:08.343750,21.21,70.65
257804,2018-06-29 10:59:08.375000,15.49,70.65
257805,2018-06-29 10:59:08.406250,6.06,70.65
257806,2018-06-29 10:59:08.437500,-3.56,70.65
257807,2018-06-29 10:59:08.468750,-10.68,70.65
257808,2018-06-29 10:59:08.500000,-16.22,70.65
257809,2018-06-29 10:59:08.531250,-23.18,70.68
257810,2018-06-29 10:59:08.562500,-31.98,70.68
257811,2018-06-29 10:59:08.593750,-39.43,70.68
257812,2018-06-29 10:59:08.625000,-43.98,70.68
257813,2018-06-29 10:59:08.656250,-49.46,70.68
257814,2018-06-29 10:59:08.687500,-60.92,70.68
257815,2018-06-29 10:59:08.718750,-77.39,70.68
257816,2018-06-29 10:59:08.750000,-88.35,70.68
257817,2018-06-29 10:59:08.781250,-79.77,70.68
257818,2018-06-29 10:59:08.812500,-48.77,70.68
257819,2018-06-29 10:59:08.843750,-9.0,70.68
257820,2018-06-29 10:59:08.875000,23.37,70.68
257821,2018-06-29 10:59:08.906250,43.19,70.68
257822,2018-06-29 10:59:08.937500,52.43,70.68
257823,2018-06-29 10:59:08.968750,52.88,70.68
257824,2018-06-29 10:59:09.000000,47.75,70.68
257825,2018-06-29 10:59:09.031250,42.87,70.68
257826,2018-06-29 10:59:09.062500,41.66,70.68
257827,2018-06-29 10:59:09.093750,42.64,70.68
257828,2018-06-29 10:59:09.125000,43.77,70.68
257829,2018-06-29 10:59:09.156250,44.96,70.68
257830,2018-06-29 10:59:09.187500,44.55,70.68
257831,2018-06-29 10:59:09.218750,38.53,70.68
257832,2018-06-29 10:59:09.250000,26.74,70.68
257833,2018-06-29 10:59:09.281250,14.69,70.68
257834,2018-06-29 10:59:09.312500,6.03,70.68
257835,2018-06-29 10:59:09.343750,-2.07,70.68
257836,2018-06-29 10:59:09.375000,-13.46,70.68
257837,2018-06-29 10:59:09.406250,-27.51,70.68
257838,2018-06-29 10:59:09.437500,-40.6,70.68
257839,2018-06-29 10:59:09.468750,-50.22,70.68
257840,2018-06-29 10:59:09.500000,-58.02,70.68
257841,2018-06-29 10:59:09.531250,-69.35,70.73
257842,2018-06-29 10:59:09.562500,-85.51,70.73
257843,2018-06-29 10:59:09.593750,-95.12,70.73
257844,2018-06-29 10:59:09.625000,-81.82,70.73
257845,2018-06-29 10:59:09.656250,-44.64,70.73
257846,2018-06-29 10:59:09.687500,-1.46,70.73
257847,2018-06-29 10:59:09.718750,31.2,70.73
257848,2018-06-29 10:59:09.750000,51.35,70.73
257849,2018-06-29 10:59:09.781250,62.84,70.73
257850,2018-06-29 10:59:09.812500,66.55,70.73
257851,2018-06-29 10:59:09.843750,64.28,70.73
257852,2018-06-29 10:59:09.875000,61.17,70.73
257853,2018-06-29 10:59:09.906250,60.49,70.73
257854,2018-06-29 10:59:09.937500,61.08,70.73
257855,2018-06-29 10:59:09.968750,61.75,70.73
257856,2018-06-29 10:59:10.000000,63.41,70.73
257857,2018-06-29 10:59:10.031250,65.19,70.73
257858,2018-06-29 10:59:10.062500,62.88,70.73
257859,2018-06-29 10:59:10.093750,53.75,70.73
257860,2018-06-29 10:59:10.125000,40.37,70.73
257861,2018-06-29 10:59:10.156250,27.37,70.73
257862,2018-06-29 10:59:10.187500,16.0,70.73
257863,2018-06-29 10:59:10.218750,4.17,70.73
257864,2018-06-29 10:59:10.250000,-9.55,70.73
257865,2018-06-29 10:59:10.281250,-24.27,70.73
257866,2018-06-29 10:59:10.312500,-38.2,70.73
257867,2018-06-29 10:59:10.343750,-50.65,70.73
257868,2018-06-29 10:59:10.375000,-63.15,70.73
257869,2018-06-29 10:59:10.406250,-78.21,70.73
257870,2018-06-29 10:59:10.437500,-94.3,70.73
257871,2018-06-29 10:59:10.468750,-102.56,70.73
257872,2018-06-29 10:59:10.500000,-92.69,70.73
257873,2018-06-29 10:59:10.531250,-62.82,70.8
257874,2018-06-29 10:59:10.562500,-21.12,70.8
257875,2018-06-29 10:59:10.593750,22.12,70.8
257876,2018-06-29 10:59:10.625000,62.7,70.8
257877,2018-06-29 10:59:10.656250,101.97,70.8
257878,2018-06-29 10:59:10.687500,139.18,70.8
257879,2018-06-29 10:59:10.718750,169.54,70.8
257880,2018-06-29 10:59:10.750000,191.42,70.8
257881,2018-06-29 10:59:10.781250,207.65,70.8
257882,2018-06-29 10:59:10.812500,217.82,70.8
257883,2018-06-29 10:59:10.843750,216.97,70.8
257884,2018-06-29 10:59:10.875000,202.84,70.8
257885,2018-06-29 10:59:10.906250,178.25,70.8
257886,2018-06-29 10:59:10.937500,147.31,70.8
257887,2018-06-29 10:59:10.968750,112.83,70.8
257888,2018-06-29 10:59:11.000000,76.86,70.8
257889,2018-06-29 10:59:11.031250,42.01,70.8
257890,2018-06-29 10:59:11.062500,10.14,70.8
257891,2018-06-29 10:59:11.093750,-19.29,70.8
257892,2018-06-29 10:59:11.125000,-46.12,70.8
257893,2018-06-29 10:59:11.156250,-67.79,70.8
257894,2018-06-29 10:59:11.187500,-85.67,70.8
257895,2018-06-29 10:59:11.218750,-107.61,70.8
257896,2018-06-29 10:59:11.250000,-137.93,70.8
257897,2018-06-29 10:59:11.281250,-169.66,70.8
257898,2018-06-29 10:59:11.312500,-190.37,70.8
257899,2018-06-29 10:59:11.343750,-193.01,70.8
257900,2018-06-29 10:59:11.375000,-180.41,70.8
257901,2018-06-29 10:59:11.406250,-160.85,70.8
257902,2018-06-29 10:59:11.437500,-137.24,70.8
257903,2018-06-29 10:59:11.468750,-104.22,70.8
257904,2018-06-29 10:59:11.500000,-62.13,70.8
257905,2018-06-29 10:59:11.531250,-24.7,70.87
257906,2018-06-29 10:59:11.562500,-3.69,70.87
257907,2018-06-29 10:59:11.593750,3.41,70.87
257908,2018-06-29 10:59:11.625000,4.32,70.87
257909,2018-06-29 10:59:11.656250,3.06,70.87
257910,2018-06-29 10:59:11.687500,2.73,70.87
257911,2018-06-29 10:59:11.718750,5.67,70.87
257912,2018-06-29 10:59:11.750000,9.97,70.87
257913,2018-06-29 10:59:11.781250,11.82,70.87
257914,2018-06-29 10:59:11.812500,10.15,70.87
257915,2018-06-29 10:59:11.843750,7.56,70.87
257916,2018-06-29 10:59:11.875000,6.17,70.87
257917,2018-06-29 10:59:11.906250,4.31,70.87
257918,2018-06-29 10:59:11.937500,0.44,70.87
257919,2018-06-29 10:59:11.968750,-1.19,70.87
257920,2018-06-29 10:59:12.000000,5.23,70.87
257921,2018-06-29 10:59:12.031250,18.32,70.87
257922,2018-06-29 10:59:12.062500,32.35,70.87
257923,2018-06-29 10:59:12.093750,47.51,70.87
257924,2018-06-29 10:59:12.125000,69.1,70.87
257925,2018-06-29 10:59:12.156250,96.03,70.87
257926,2018-06-29 10:59:12.187500,118.9,70.87
257927,2018-06-29 10:59:12.218750,130.29,70.87
257928,2018-06-29 10:59:12.250000,130.25,70.87
257929,2018-06-29 10:59:12.281250,123.05,70.87
257930,2018-06-29 10:59:12.312500,114.74,70.87
257931,2018-06-29 10:59:12.343750,109.79,70.87
257932,2018-06-29 10:59:12.375000,104.64,70.87
257933,2018-06-29 10:59:12.406250,86.68,70.87
257934,2018-06-29 10:59:12.437500,45.66,70.87
257935,2018-06-29 10:59:12.468750,-13.55,70.87
257936,2018-06-29 10:59:12.500000,-76.53,70.87
257937,2018-06-29 10:59:12.531250,-134.87,70.97
257938,2018-06-29 10:59:12.562500,-188.04,70.97
257939,2018-06-29 10:59:12.593750,-238.2,70.97
257940,2018-06-29 10:59:12.625000,-297.25,70.97
257941,2018-06-29 10:59:12.656250,-380.94,70.97
257942,2018-06-29 10:59:12.687500,-467.75,70.97
257943,2018-06-29 10:59:12.718750,-491.77,70.97
257944,2018-06-29 10:59:12.750000,-415.58,70.97
257945,2018-06-29 10:59:12.781250,-281.89,70.97
257946,2018-06-29 10:59:12.812500,-161.4,70.97
257947,2018-06-29 10:59:12.843750,-83.32,70.97
257948,2018-06-29 10:59:12.875000,-42.92,70.97
257949,2018-06-29 10:59:12.906250,-33.4,70.97
257950,2018-06-29 10:59:12.937500,-41.56,70.97
257951,2018-06-29 10:59:12.968750,-44.13,70.97
257952,2018-06-29 10:59:13.000000,-31.24,70.97
257953,2018-06-29 10:59:13.031250,-20.95,70.97
257954,2018-06-29 10:59:13.062500,-37.57,70.97
257955,2018-06-29 10:59:13.093750,-81.43,70.97
257956,2018-06-29 10:59:13.125000,-126.69,70.97
257957,2018-06-29 10:59:13.156250,-143.02,70.97
257958,2018-06-29 10:59:13.187500,-115.78,70.97
257959,2018-06-29 10:59:13.218750,-53.14,70.97
257960,2018-06-29 10:59:13.250000,19.13,70.97
257961,2018-06-29 10:59:13.281250,71.76,70.97
257962,2018-06-29 10:59:13.312500,88.55,70.97
257963,2018-06-29 10:59:13.343750,75.09,70.97
257964,2018-06-29 10:59:13.375000,53.91,70.97
257965,2018-06-29 10:59:13.406250,49.23,70.97
257966,2018-06-29 10:59:13.437500,68.39,70.97
257967,2018-06-29 10:59:13.468750,95.85,70.97
257968,2018-06-29 10:59:13.500000,112.55,70.97
257969,2018-06-29 10:59:13.531250,117.5,71.07
257970,2018-06-29 10:59:13.562500,120.73,71.07
257971,2018-06-29 10:59:13.593750,124.41,71.07
257972,2018-06-29 10:59:13.625000,124.79,71.07
257973,2018-06-29 10:59:13.656250,121.98,71.07
257974,2018-06-29 10:59:13.687500,116.12,71.07
257975,2018-06-29 10:59:13.718750,103.76,71.07
257976,2018-06-29 10:59:13.750000,85.48,71.07
257977,2018-06-29 10:59:13.781250,68.63,71.07
257978,2018-06-29 10:59:13.812500,57.43,71.07
257979,2018-06-29 10:59:13.843750,46.0,71.07
257980,2018-06-29 10:59:13.875000,24.59,71.07
257981,2018-06-29 10:59:13.906250,-10.26,71.07
257982,2018-06-29 10:59:13.937500,-49.17,71.07
257983,2018-06-29 10:59:13.968750,-71.38,71.07
257984,2018-06-29 10:59:14.000000,-62.83,71.07
257985,2018-06-29 10:59:14.031250,-35.35,71.07
257986,2018-06-29 10:59:14.062500,-15.97,71.07
257987,2018-06-29 10:59:14.093750,-18.93,71.07
257988,2018-06-29 10:59:14.125000,-38.99,71.07
257989,2018-06-29 10:59:14.156250,-65.37,71.07
257990,2018-06-29 10:59:14.187500,-88.54,71.07
257991,2018-06-29 10:59:14.218750,-98.44,71.07
257992,2018-06-29 10:59:14.250000,-89.16,71.07
257993,2018-06-29 10:59:14.281250,-65.51,71.07
257994,2018-06-29 10:59:14.312500,-38.62,71.07
257995,2018-06-29 10:59:14.343750,-16.15,71.07
257996,2018-06-29 10:59:14.375000,-0.42,71.07
257997,2018-06-29 10:59:14.406250,7.58,71.07
257998,2018-06-29 10:59:14.437500,6.92,71.07
257999,2018-06-29 10:59:14.468750,-2.5,71.07
258000,2018-06-29 10:59:14.500000,-19.31,71.07
258001,2018-06-29 10:59:14.531250,-39.54,71.15
258002,2018-06-29 10:59:14.562500,-58.0,71.15
258003,2018-06-29 10:59:14.593750,-72.79,71.15
258004,2018-06-29 10:59:14.625000,-86.72,71.15
258005,2018-06-29 10:59:14.656250,-104.52,71.15
258006,2018-06-29 10:59:14.687500,-127.6,71.15
258007,2018-06-29 10:59:14.718750,-145.62,71.15
258008,2018-06-29 10:59:14.750000,-136.17,71.15
258009,2018-06-29 10:59:14.781250,-85.8,71.15
258010,2018-06-29 10:59:14.812500,-10.0,71.15
258011,2018-06-29 10:59:14.843750,60.72,71.15
258012,2018-06-29 10:59:14.875000,109.2,71.15
258013,2018-06-29 10:59:14.906250,134.91,71.15
258014,2018-06-29 10:59:14.937500,140.09,71.15
258015,2018-06-29 10:59:14.968750,129.28,71.15
258016,2018-06-29 10:59:15.000000,114.4,71.15
258017,2018-06-29 10:59:15.031250,106.2,71.15
258018,2018-06-29 10:59:15.062500,104.03,71.15
258019,2018-06-29 10:59:15.093750,101.82,71.15
258020,2018-06-29 10:59:15.125000,98.78,71.15
258021,2018-06-29 10:59:15.156250,96.22,71.15
258022,2018-06-29 10:59:15.187500,89.76,71.15
258023,2018-06-29 10:59:15.218750,73.53,71.15
258024,2018-06-29 10:59:15.250000,49.39,71.15
258025,2018-06-29 10:59:15.281250,26.93,71.15
258026,2018-06-29 10:59:15.312500,14.23,71.15
258027,2018-06-29 10:59:15.343750,10.27,71.15
258028,2018-06-29 10:59:15.375000,5.88,71.15
258029,2018-06-29 10:59:15.406250,-9.07,71.15
258030,2018-06-29 10:59:15.437500,-35.76,71.15
258031,2018-06-29 10:59:15.468750,-57.39,71.15
258032,2018-06-29 10:59:15.500000,-47.71,71.15
258033,2018-06-29 10:59:15.531250,0.86,71.23
258034,2018-06-29 10:59:15.562500,65.96,71.23
258035,2018-06-29 10:59:15.593750,119.6,71.23
258036,2018-06-29 10:59:15.625000,150.75,71.23
258037,2018-06-29 10:59:15.656250,160.52,71.23
258038,2018-06-29 10:59:15.687500,152.7,71.23
258039,2018-06-29 10:59:15.718750,135.2,71.23
258040,2018-06-29 10:59:15.750000,119.09,71.23
258041,2018-06-29 10:59:15.781250,110.54,71.23
258042,2018-06-29 10:59:15.812500,106.93,71.23
258043,2018-06-29 10:59:15.843750,101.83,71.23
258044,2018-06-29 10:59:15.875000,91.8,71.23
258045,2018-06-29 10:59:15.906250,77.24,71.23
258046,2018-06-29 10:59:15.937500,59.4,71.23
258047,2018-06-29 10:59:15.968750,38.99,71.23
258048,2018-06-29 10:59:16.000000,16.15,71.23
258049,2018-06-29 10:59:16.031250,-8.46,71.23
258050,2018-06-29 10:59:16.062500,-32.1,71.23
258051,2018-06-29 10:59:16.093750,-51.28,71.23
258052,2018-06-29 10:59:16.125000,-65.83,71.23
258053,2018-06-29 10:59:16.156250,-81.08,71.23
258054,2018-06-29 10:59:16.187500,-103.49,71.23
258055,2018-06-29 10:59:16.218750,-128.69,71.23
258056,2018-06-29 10:59:16.250000,-134.48,71.23
258057,2018-06-29 10:59:16.281250,-99.55,71.23
258058,2018-06-29 10:59:16.312500,-31.29,71.23
258059,2018-06-29 10:59:16.343750,39.55,71.23
258060,2018-06-29 10:59:16.375000,90.39,71.23
258061,2018-06-29 10:59:16.406250,118.57,71.23
258062,2018-06-29 10:59:16.437500,128.74,71.23
258063,2018-06-29 10:59:16.468750,125.62,71.23
258064,2018-06-29 10:59:16.500000,116.05,71.23
258065,2018-06-29 10:59:16.531250,107.17,71.33
258066,2018-06-29 10:59:16.562500,102.02,71.33
258067,2018-06-29 10:59:16.593750,99.15,71.33
258068,2018-06-29 10:59:16.625000,95.83,71.33
258069,2018-06-29 10:59:16.656250,90.42,71.33
258070,2018-06-29 10:59:16.687500,82.27,71.33
258071,2018-06-29 10:59:16.718750,70.84,71.33
258072,2018-06-29 10:59:16.750000,55.59,71.33
258073,2018-06-29 10:59:16.781250,37.55,71.33
258074,2018-06-29 10:59:16.812500,19.95,71.33
258075,2018-06-29 10:59:16.843750,4.97,71.33
258076,2018-06-29 10:59:16.875000,-9.46,71.33
258077,2018-06-29 10:59:16.906250,-27.19,71.33
258078,2018-06-29 10:59:16.937500,-48.33,71.33
258079,2018-06-29 10:59:16.968750,-68.84,71.33
258080,2018-06-29 10:59:17.000000,-85.6,71.33
258081,2018-06-29 10:59:17.031250,-100.29,71.33
258082,2018-06-29 10:59:17.062500,-118.48,71.33
258083,2018-06-29 10:59:17.093750,-144.04,71.33
258084,2018-06-29 10:59:17.125000,-169.43,71.33
258085,2018-06-29 10:59:17.156250,-173.24,71.33
258086,2018-06-29 10:59:17.187500,-138.86,71.33
258087,2018-06-29 10:59:17.218750,-75.82,71.33
258088,2018-06-29 10:59:17.250000,-11.81,71.33
258089,2018-06-29 10:59:17.281250,34.48,71.33
258090,2018-06-29 10:59:17.312500,61.94,71.33
258091,2018-06-29 10:59:17.343750,75.08,71.33
258092,2018-06-29 10:59:17.375000,77.89,71.33
258093,2018-06-29 10:59:17.406250,76.39,71.33
258094,2018-06-29 10:59:17.437500,76.62,71.33
258095,2018-06-29 10:59:17.468750,80.06,71.33
258096,2018-06-29 10:59:17.500000,84.43,71.33
258097,2018-06-29 10:59:17.531250,88.08,71.42
258098,2018-06-29 10:59:17.562500,90.81,71.42
258099,2018-06-29 10:59:17.593750,91.25,71.42
258100,2018-06-29 10:59:17.625000,85.97,71.42
258101,2018-06-29 10:59:17.656250,73.98,71.42
258102,2018-06-29 10:59:17.687500,59.73,71.42
258103,2018-06-29 10:59:17.718750,48.19,71.42
258104,2018-06-29 10:59:17.750000,38.59,71.42
258105,2018-06-29 10:59:17.781250,26.99,71.42
258106,2018-06-29 10:59:17.812500,12.87,71.42
258107,2018-06-29 10:59:17.843750,-0.52,71.42
258108,2018-06-29 10:59:17.875000,-11.46,71.42
258109,2018-06-29 10:59:17.906250,-22.67,71.42
258110,2018-06-29 10:59:17.937500,-37.22,71.42
258111,2018-06-29 10:59:17.968750,-53.48,71.42
258112,2018-06-29 10:59:18.000000,-67.18,71.42
258113,2018-06-29 10:59:18.031250,-77.66,71.42
258114,2018-06-29 10:59:18.062500,-88.54,71.42
258115,2018-06-29 10:59:18.093750,-103.64,71.42
258116,2018-06-29 10:59:18.125000,-121.15,71.42
258117,2018-06-29 10:59:18.156250,-128.6,71.42
258118,2018-06-29 10:59:18.187500,-110.0,71.42
258119,2018-06-29 10:59:18.218750,-64.87,71.42
258120,2018-06-29 10:59:18.250000,-12.63,71.42
258121,2018-06-29 10:59:18.281250,26.95,71.42
258122,2018-06-29 10:59:18.312500,48.92,71.42
258123,2018-06-29 10:59:18.343750,57.59,71.42
258124,2018-06-29 10:59:18.375000,57.2,71.42
258125,2018-06-29 10:59:18.406250,52.1,71.42
258126,2018-06-29 10:59:18.437500,48.14,71.42
258127,2018-06-29 10:59:18.468750,47.78,71.42
258128,2018-06-29 10:59:18.500000,48.15,71.42
258129,2018-06-29 10:59:18.531250,47.13,71.48
258130,2018-06-29 10:59:18.562500,46.3,71.48
258131,2018-06-29 10:59:18.593750,45.13,71.48
258132,2018-06-29 10:59:18.625000,39.7,71.48
258133,2018-06-29 10:59:18.656250,29.45,71.48
258134,2018-06-29 10:59:18.687500,18.63,71.48
258135,2018-06-29 10:59:18.718750,10.03,71.48
258136,2018-06-29 10:59:18.750000,2.26,71.48
258137,2018-06-29 10:59:18.781250,-6.65,71.48
258138,2018-06-29 10:59:18.812500,-16.05,71.48
258139,2018-06-29 10:59:18.843750,-23.89,71.48
258140,2018-06-29 10:59:18.875000,-30.07,71.48
258141,2018-06-29 10:59:18.906250,-37.0,71.48
258142,2018-06-29 10:59:18.937500,-45.78,71.48
258143,2018-06-29 10:59:18.968750,-54.25,71.48
258144,2018-06-29 10:59:19.000000,-60.5,71.48
258145,2018-06-29 10:59:19.031250,-66.25,71.48
258146,2018-06-29 10:59:19.062500,-74.87,71.48
258147,2018-06-29 10:59:19.093750,-86.48,71.48
258148,2018-06-29 10:59:19.125000,-93.36,71.48
258149,2018-06-29 10:59:19.156250,-83.29,71.48
258150,2018-06-29 10:59:19.187500,-52.89,71.48
258151,2018-06-29 10:59:19.218750,-14.45,71.48
258152,2018-06-29 10:59:19.250000,15.97,71.48
258153,2018-06-29 10:59:19.281250,32.41,71.48
258154,2018-06-29 10:59:19.312500,37.55,71.48
258155,2018-06-29 10:59:19.343750,35.06,71.48
258156,2018-06-29 10:59:19.375000,28.85,71.48
258157,2018-06-29 10:59:19.406250,24.08,71.48
258158,2018-06-29 10:59:19.437500,23.61,71.48
258159,2018-06-29 10:59:19.468750,25.71,71.48
258160,2018-06-29 10:59:19.500000,27.62,71.48
258161,2018-06-29 10:59:19.531250,28.63,71.52
258162,2018-06-29 10:59:19.562500,28.36,71.52
258163,2018-06-29 10:59:19.593750,25.58,71.52
258164,2018-06-29 10:59:19.625000,20.44,71.52
258165,2018-06-29 10:59:19.656250,14.54,71.52
258166,2018-06-29 10:59:19.687500,8.49,71.52
258167,2018-06-29 10:59:19.718750,2.13,71.52
258168,2018-06-29 10:59:19.750000,-3.88,71.52
258169,2018-06-29 10:59:19.781250,-9.23,71.52
258170,2018-06-29 10:59:19.812500,-15.96,71.52
258171,2018-06-29 10:59:19.843750,-25.54,71.52
258172,2018-06-29 10:59:19.875000,-35.66,71.52
258173,2018-06-29 10:59:19.906250,-43.24,71.52
258174,2018-06-29 10:59:19.937500,-48.76,71.52
258175,2018-06-29 10:59:19.968750,-54.93,71.52
258176,2018-06-29 10:59:20.000000,-64.18,71.52
258177,2018-06-29 10:59:20.031250,-76.62,71.52
258178,2018-06-29 10:59:20.062500,-85.04,71.52
258179,2018-06-29 10:59:20.093750,-76.6,71.52
258180,2018-06-29 10:59:20.125000,-48.11,71.52
258181,2018-06-29 10:59:20.156250,-13.19,71.52
258182,2018-06-29 10:59:20.187500,12.8,71.52
258183,2018-06-29 10:59:20.218750,26.66,71.52
258184,2018-06-29 10:59:20.250000,31.93,71.52
258185,2018-06-29 10:59:20.281250,30.77,71.52
258186,2018-06-29 10:59:20.312500,25.9,71.52
258187,2018-06-29 10:59:20.343750,22.14,71.52
258188,2018-06-29 10:59:20.375000,22.19,71.52
258189,2018-06-29 10:59:20.406250,24.84,71.52
258190,2018-06-29 10:59:20.437500,27.76,71.52
258191,2018-06-29 10:59:20.468750,29.44,71.52
258192,2018-06-29 10:59:20.500000,28.79,71.52
258193,2018-06-29 10:59:20.531250,25.5,71.47
258194,2018-06-29 10:59:20.562500,20.62,71.47
258195,2018-06-29 10:59:20.593750,15.15,71.47
258196,2018-06-29 10:59:20.625000,9.01,71.47
258197,2018-06-29 10:59:20.656250,1.87,71.47
258198,2018-06-29 10:59:20.687500,-5.81,71.47
258199,2018-06-29 10:59:20.718750,-13.31,71.47
258200,2018-06-29 10:59:20.750000,-20.33,71.47
258201,2018-06-29 10:59:20.781250,-27.0,71.47
258202,2018-06-29 10:59:20.812500,-33.23,71.47
258203,2018-06-29 10:59:20.843750,-38.21,71.47
258204,2018-06-29 10:59:20.875000,-41.9,71.47
258205,2018-06-29 10:59:20.906250,-47.04,71.47
258206,2018-06-29 10:59:20.937500,-56.86,71.47
258207,2018-06-29 10:59:20.968750,-67.69,71.47
258208,2018-06-29 10:59:21.000000,-67.22,71.47
258209,2018-06-29 10:59:21.031250,-46.63,71.47
258210,2018-06-29 10:59:21.062500,-12.39,71.47
258211,2018-06-29 10:59:21.093750,20.14,71.47
258212,2018-06-29 10:59:21.125000,41.49,71.47
258213,2018-06-29 10:59:21.156250,50.64,71.47
258214,2018-06-29 10:59:21.187500,49.28,71.47
258215,2018-06-29 10:59:21.218750,41.14,71.47
258216,2018-06-29 10:59:21.250000,32.6,71.47
258217,2018-06-29 10:59:21.281250,28.09,71.47
258218,2018-06-29 10:59:21.312500,26.55,71.47
258219,2018-06-29 10:59:21.343750,24.65,71.47
258220,2018-06-29 10:59:21.375000,21.62,71.47
258221,2018-06-29 10:59:21.406250,18.51,71.47
258222,2018-06-29 10:59:21.437500,14.21,71.47
258223,2018-06-29 10:59:21.468750,6.24,71.47
258224,2018-06-29 10:59:21.500000,-5.06,71.47
258225,2018-06-29 10:59:21.531250,-16.05,71.42
258226,2018-06-29 10:59:21.562500,-24.16,71.42
258227,2018-06-29 10:59:21.593750,-30.78,71.42
258228,2018-06-29 10:59:21.625000,-38.77,71.42
258229,2018-06-29 10:59:21.656250,-48.4,71.42
258230,2018-06-29 10:59:21.687500,-56.69,71.42
258231,2018-06-29 10:59:21.718750,-61.59,71.42
258232,2018-06-29 10:59:21.750000,-65.35,71.42
258233,2018-06-29 10:59:21.781250,-72.36,71.42
258234,2018-06-29 10:59:21.812500,-83.54,71.42
258235,2018-06-29 10:59:21.843750,-91.94,71.42
258236,2018-06-29 10:59:21.875000,-85.5,71.42
258237,2018-06-29 10:59:21.906250,-58.82,71.42
258238,2018-06-29 10:59:21.937500,-20.99,71.42
258239,2018-06-29 10:59:21.968750,12.62,71.42
258240,2018-06-29 10:59:22.000000,33.41,71.42
258241,2018-06-29 10:59:22.031250,41.04,71.42
258242,2018-06-29 10:59:22.062500,38.75,71.42
258243,2018-06-29 10:59:22.093750,32.31,71.42
258244,2018-06-29 10:59:22.125000,28.38,71.42
258245,2018-06-29 10:59:22.156250,29.8,71.42
258246,2018-06-29 10:59:22.187500,34.35,71.42
258247,2018-06-29 10:59:22.218750,38.68,71.42
258248,2018-06-29 10:59:22.250000,41.0,71.42
258249,2018-06-29 10:59:22.281250,40.12,71.42
258250,2018-06-29 10:59:22.312500,34.9,71.42
258251,2018-06-29 10:59:22.343750,25.67,71.42
258252,2018-06-29 10:59:22.375000,14.34,71.42
258253,2018-06-29 10:59:22.406250,1.82,71.42
258254,2018-06-29 10:59:22.437500,-12.29,71.42
258255,2018-06-29 10:59:22.468750,-26.94,71.42
258256,2018-06-29 10:59:22.500000,-39.16,71.42
258257,2018-06-29 10:59:22.531250,-48.08,71.3
258258,2018-06-29 10:59:22.562500,-57.54,71.3
258259,2018-06-29 10:59:22.593750,-72.58,71.3
258260,2018-06-29 10:59:22.625000,-89.34,71.3
258261,2018-06-29 10:59:22.656250,-91.25,71.3
258262,2018-06-29 10:59:22.687500,-64.91,71.3
258263,2018-06-29 10:59:22.718750,-18.6,71.3
258264,2018-06-29 10:59:22.750000,25.64,71.3
258265,2018-06-29 10:59:22.781250,55.03,71.3
258266,2018-06-29 10:59:22.812500,71.17,71.3
258267,2018-06-29 10:59:22.843750,77.54,71.3
258268,2018-06-29 10:59:22.875000,74.31,71.3
258269,2018-06-29 10:59:22.906250,63.27,71.3
258270,2018-06-29 10:59:22.937500,51.87,71.3
258271,2018-06-29 10:59:22.968750,52.37,71.3
258272,2018-06-29 10:59:23.000000,75.49,71.3
258273,2018-06-29 10:59:23.031250,118.31,71.3
258274,2018-06-29 10:59:23.062500,161.29,71.3
258275,2018-06-29 10:59:23.093750,187.19,71.3
258276,2018-06-29 10:59:23.125000,199.08,71.3
258277,2018-06-29 10:59:23.156250,210.09,71.3
258278,2018-06-29 10:59:23.187500,222.9,71.3
258279,2018-06-29 10:59:23.218750,231.02,71.3
258280,2018-06-29 10:59:23.250000,232.5,71.3
258281,2018-06-29 10:59:23.281250,230.27,71.3
258282,2018-06-29 10:59:23.312500,226.38,71.3
258283,2018-06-29 10:59:23.343750,223.56,71.3
258284,2018-06-29 10:59:23.375000,221.18,71.3
258285,2018-06-29 10:59:23.406250,204.98,71.3
258286,2018-06-29 10:59:23.437500,157.53,71.3
258287,2018-06-29 10:59:23.468750,81.94,71.3
258288,2018-06-29 10:59:23.500000,1.04,71.3
258289,2018-06-29 10:59:23.531250,-64.18,71.32
258290,2018-06-29 10:59:23.562500,-105.93,71.32
258291,2018-06-29 10:59:23.593750,-130.49,71.32
258292,2018-06-29 10:59:23.625000,-153.23,71.32
258293,2018-06-29 10:59:23.656250,-182.53,71.32
258294,2018-06-29 10:59:23.687500,-210.79,71.32
258295,2018-06-29 10:59:23.718750,-229.45,71.32
258296,2018-06-29 10:59:23.750000,-245.92,71.32
258297,2018-06-29 10:59:23.781250,-280.74,71.32
258298,2018-06-29 10:59:23.812500,-344.54,71.32
258299,2018-06-29 10:59:23.843750,-404.38,71.32
258300,2018-06-29 10:59:23.875000,-396.51,71.32
258301,2018-06-29 10:59:23.906250,-302.81,71.32
258302,2018-06-29 10:59:23.937500,-182.75,71.32
258303,2018-06-29 10:59:23.968750,-101.24,71.32
258304,2018-06-29 10:59:24.000000,-62.32,71.32
258305,2018-06-29 10:59:24.031250,-29.27,71.32
258306,2018-06-29 10:59:24.062500,18.96,71.32
258307,2018-06-29 10:59:24.093750,60.04,71.32
258308,2018-06-29 10:59:24.125000,55.28,71.32
258309,2018-06-29 10:59:24.156250,-1.82,71.32
258310,2018-06-29 10:59:24.187500,-83.01,71.32
258311,2018-06-29 10:59:24.218750,-147.72,71.32
258312,2018-06-29 10:59:24.250000,-152.58,71.32
258313,2018-06-29 10:59:24.281250,-83.7,71.32
258314,2018-06-29 10:59:24.312500,13.55,71.32
258315,2018-06-29 10:59:24.343750,81.78,71.32
258316,2018-06-29 10:59:24.375000,112.5,71.32
258317,2018-06-29 10:59:24.406250,126.42,71.32
258318,2018-06-29 10:59:24.437500,129.82,71.32
258319,2018-06-29 10:59:24.468750,118.51,71.32
258320,2018-06-29 10:59:24.500000,95.77,71.32
258321,2018-06-29 10:59:24.531250,67.94,71.33
258322,2018-06-29 10:59:24.562500,35.64,71.33
258323,2018-06-29 10:59:24.593750,0.17,71.33
258324,2018-06-29 10:59:24.625000,-30.1,71.33
258325,2018-06-29 10:59:24.656250,-50.06,71.33
258326,2018-06-29 10:59:24.687500,-66.45,71.33
258327,2018-06-29 10:59:24.718750,-86.81,71.33
258328,2018-06-29 10:59:24.750000,-106.68,71.33
258329,2018-06-29 10:59:24.781250,-114.42,71.33
258330,2018-06-29 10:59:24.812500,-104.84,71.33
258331,2018-06-29 10:59:24.843750,-84.86,71.33
258332,2018-06-29 10:59:24.875000,-67.09,71.33
258333,2018-06-29 10:59:24.906250,-60.61,71.33
258334,2018-06-29 10:59:24.937500,-66.73,71.33
258335,2018-06-29 10:59:24.968750,-76.13,71.33
258336,2018-06-29 10:59:25.000000,-70.58,71.33
258337,2018-06-29 10:59:25.031250,-40.35,71.33
258338,2018-06-29 10:59:25.062500,1.37,71.33
258339,2018-06-29 10:59:25.093750,33.68,71.33
258340,2018-06-29 10:59:25.125000,50.56,71.33
258341,2018-06-29 10:59:25.156250,57.21,71.33
258342,2018-06-29 10:59:25.187500,56.56,71.33
258343,2018-06-29 10:59:25.218750,51.24,71.33
258344,2018-06-29 10:59:25.250000,48.38,71.33
258345,2018-06-29 10:59:25.281250,51.8,71.33
258346,2018-06-29 10:59:25.312500,55.76,71.33
258347,2018-06-29 10:59:25.343750,52.87,71.33
258348,2018-06-29 10:59:25.375000,44.4,71.33
258349,2018-06-29 10:59:25.406250,36.62,71.33
258350,2018-06-29 10:59:25.437500,30.9,71.33
258351,2018-06-29 10:59:25.468750,24.07,71.33
258352,2018-06-29 10:59:25.500000,14.95,71.33
258353,2018-06-29 10:59:25.531250,5.09,71.32
258354,2018-06-29 10:59:25.562500,-4.53,71.32
258355,2018-06-29 10:59:25.593750,-14.14,71.32
258356,2018-06-29 10:59:25.625000,-23.77,71.32
258357,2018-06-29 10:59:25.656250,-32.83,71.32
258358,2018-06-29 10:59:25.687500,-40.71,71.32
258359,2018-06-29 10:59:25.718750,-47.27,71.32
258360,2018-06-29 10:59:25.750000,-53.12,71.32
258361,2018-06-29 10:59:25.781250,-59.96,71.32
258362,2018-06-29 10:59:25.812500,-67.54,71.32
258363,2018-06-29 10:59:25.843750,-67.49,71.32
258364,2018-06-29 10:59:25.875000,-47.49,71.32
258365,2018-06-29 10:59:25.906250,-7.29,71.32
258366,2018-06-29 10:59:25.937500,37.78,71.32
258367,2018-06-29 10:59:25.968750,73.58,71.32
258368,2018-06-29 10:59:26.000000,97.24,71.32
258369,2018-06-29 10:59:26.031250,109.31,71.32
258370,2018-06-29 10:59:26.062500,109.42,71.32
258371,2018-06-29 10:59:26.093750,102.09,71.32
258372,2018-06-29 10:59:26.125000,94.71,71.32
258373,2018-06-29 10:59:26.156250,88.38,71.32
258374,2018-06-29 10:59:26.187500,80.04,71.32
258375,2018-06-29 10:59:26.218750,70.87,71.32
258376,2018-06-29 10:59:26.250000,63.74,71.32
258377,2018-06-29 10:59:26.281250,56.18,71.32
258378,2018-06-29 10:59:26.312500,43.92,71.32
258379,2018-06-29 10:59:26.343750,28.4,71.32
258380,2018-06-29 10:59:26.375000,14.76,71.32
258381,2018-06-29 10:59:26.406250,4.44,71.32
258382,2018-06-29 10:59:26.437500,-6.13,71.32
258383,2018-06-29 10:59:26.468750,-19.6,71.32
258384,2018-06-29 10:59:26.500000,-33.32,71.32
258385,2018-06-29 10:59:26.531250,-43.45,71.32
258386,2018-06-29 10:59:26.562500,-50.5,71.32
258387,2018-06-29 10:59:26.593750,-58.69,71.32
258388,2018-06-29 10:59:26.625000,-72.59,71.32
258389,2018-06-29 10:59:26.656250,-91.68,71.32
258390,2018-06-29 10:59:26.687500,-103.56,71.32
258391,2018-06-29 10:59:26.718750,-90.24,71.32
258392,2018-06-29 10:59:26.750000,-49.22,71.32
258393,2018-06-29 10:59:26.781250,1.37,71.32
258394,2018-06-29 10:59:26.812500,43.43,71.32
258395,2018-06-29 10:59:26.843750,72.71,71.32
258396,2018-06-29 10:59:26.875000,90.83,71.32
258397,2018-06-29 10:59:26.906250,98.08,71.32
258398,2018-06-29 10:59:26.937500,96.9,71.32
258399,2018-06-29 10:59:26.968750,92.71,71.32
258400,2018-06-29 10:59:27.000000,88.7,71.32
258401,2018-06-29 10:59:27.031250,84.01,71.32
258402,2018-06-29 10:59:27.062500,78.21,71.32
258403,2018-06-29 10:59:27.093750,73.23,71.32
258404,2018-06-29 10:59:27.125000,68.36,71.32
258405,2018-06-29 10:59:27.156250,58.86,71.32
258406,2018-06-29 10:59:27.187500,43.05,71.32
258407,2018-06-29 10:59:27.218750,25.49,71.32
258408,2018-06-29 10:59:27.250000,9.43,71.32
258409,2018-06-29 10:59:27.281250,-7.16,71.32
258410,2018-06-29 10:59:27.312500,-24.92,71.32
258411,2018-06-29 10:59:27.343750,-39.73,71.32
258412,2018-06-29 10:59:27.375000,-49.67,71.32
258413,2018-06-29 10:59:27.406250,-59.23,71.32
258414,2018-06-29 10:59:27.437500,-74.11,71.32
258415,2018-06-29 10:59:27.468750,-94.86,71.32
258416,2018-06-29 10:59:27.500000,-112.65,71.32
258417,2018-06-29 10:59:27.531250,-111.39,71.33
258418,2018-06-29 10:59:27.562500,-82.29,71.33
258419,2018-06-29 10:59:27.593750,-35.99,71.33
258420,2018-06-29 10:59:27.625000,7.7,71.33
258421,2018-06-29 10:59:27.656250,38.04,71.33
258422,2018-06-29 10:59:27.687500,54.74,71.33
258423,2018-06-29 10:59:27.718750,59.79,71.33
258424,2018-06-29 10:59:27.750000,56.56,71.33
258425,2018-06-29 10:59:27.781250,51.28,71.33
258426,2018-06-29 10:59:27.812500,48.89,71.33
258427,2018-06-29 10:59:27.843750,48.83,71.33
258428,2018-06-29 10:59:27.875000,47.98,71.33
258429,2018-06-29 10:59:27.906250,45.68,71.33
258430,2018-06-29 10:59:27.937500,42.26,71.33
258431,2018-06-29 10:59:27.968750,36.15,71.33
258432,2018-06-29 10:59:28.000000,26.38,71.33
258433,2018-06-29 10:59:28.031250,14.07,71.33
258434,2018-06-29 10:59:28.062500,-0.34,71.33
258435,2018-06-29 10:59:28.093750,-16.34,71.33
258436,2018-06-29 10:59:28.125000,-30.8,71.33
258437,2018-06-29 10:59:28.156250,-41.08,71.33
258438,2018-06-29 10:59:28.187500,-49.1,71.33
258439,2018-06-29 10:59:28.218750,-59.57,71.33
258440,2018-06-29 10:59:28.250000,-75.23,71.33
258441,2018-06-29 10:59:28.281250,-90.88,71.33
258442,2018-06-29 10:59:28.312500,-91.95,71.33
258443,2018-06-29 10:59:28.343750,-67.41,71.33
258444,2018-06-29 10:59:28.375000,-24.75,71.33
258445,2018-06-29 10:59:28.406250,17.12,71.33
258446,2018-06-29 10:59:28.437500,47.28,71.33
258447,2018-06-29 10:59:28.468750,66.0,71.33
258448,2018-06-29 10:59:28.500000,74.63,71.33
258449,2018-06-29 10:59:28.531250,73.73,71.37
258450,2018-06-29 10:59:28.562500,67.67,71.37
258451,2018-06-29 10:59:28.593750,61.38,71.37
258452,2018-06-29 10:59:28.625000,54.7,71.37
258453,2018-06-29 10:59:28.656250,45.22,71.37
258454,2018-06-29 10:59:28.687500,34.4,71.37
258455,2018-06-29 10:59:28.718750,26.23,71.37
258456,2018-06-29 10:59:28.750000,20.96,71.37
258457,2018-06-29 10:59:28.781250,14.04,71.37
258458,2018-06-29 10:59:28.812500,2.28,71.37
258459,2018-06-29 10:59:28.843750,-10.94,71.37
258460,2018-06-29 10:59:28.875000,-19.84,71.37
258461,2018-06-29 10:59:28.906250,-24.44,71.37
258462,2018-06-29 10:59:28.937500,-30.58,71.37
258463,2018-06-29 10:59:28.968750,-42.73,71.37
258464,2018-06-29 10:59:29.000000,-58.42,71.37
258465,2018-06-29 10:59:29.031250,-66.24,71.37
258466,2018-06-29 10:59:29.062500,-52.88,71.37
258467,2018-06-29 10:59:29.093750,-18.87,71.37
258468,2018-06-29 10:59:29.125000,17.89,71.37
258469,2018-06-29 10:59:29.156250,39.89,71.37
258470,2018-06-29 10:59:29.187500,44.23,71.37
258471,2018-06-29 10:59:29.218750,36.59,71.37
258472,2018-06-29 10:59:29.250000,22.57,71.37
258473,2018-06-29 10:59:29.281250,8.47,71.37
258474,2018-06-29 10:59:29.312500,0.3,71.37
258475,2018-06-29 10:59:29.343750,-1.46,71.37
258476,2018-06-29 10:59:29.375000,-1.02,71.37
258477,2018-06-29 10:59:29.406250,-0.68,71.37
258478,2018-06-29 10:59:29.437500,0.12,71.37
258479,2018-06-29 10:59:29.468750,0.24,71.37
258480,2018-06-29 10:59:29.500000,-4.32,71.37
258481,2018-06-29 10:59:29.531250,-18.82,71.42
258482,2018-06-29 10:59:29.562500,-47.71,71.42
258483,2018-06-29 10:59:29.593750,-89.0,71.42
258484,2018-06-29 10:59:29.625000,-129.83,71.42
258485,2018-06-29 10:59:29.656250,-155.85,71.42
258486,2018-06-29 10:59:29.687500,-164.03,71.42
258487,2018-06-29 10:59:29.718750,-156.25,71.42
258488,2018-06-29 10:59:29.750000,-128.35,71.42
258489,2018-06-29 10:59:29.781250,-80.77,71.42
258490,2018-06-29 10:59:29.812500,-29.39,71.42
258491,2018-06-29 10:59:29.843750,9.63,71.42
258492,2018-06-29 10:59:29.875000,34.72,71.42
258493,2018-06-29 10:59:29.906250,48.67,71.42
258494,2018-06-29 10:59:29.937500,49.59,71.42
258495,2018-06-29 10:59:29.968750,39.69,71.42
258496,2018-06-29 10:59:30.000000,29.21,71.42
258497,2018-06-29 10:59:30.031250,24.92,71.42
258498,2018-06-29 10:59:30.062500,23.58,71.42
258499,2018-06-29 10:59:30.093750,19.71,71.42
258500,2018-06-29 10:59:30.125000,12.61,71.42
258501,2018-06-29 10:59:30.156250,2.93,71.42
258502,2018-06-29 10:59:30.187500,-11.14,71.42
258503,2018-06-29 10:59:30.218750,-30.19,71.42
258504,2018-06-29 10:59:30.250000,-50.66,71.42
258505,2018-06-29 10:59:30.281250,-69.01,71.42
258506,2018-06-29 10:59:30.312500,-85.59,71.42
258507,2018-06-29 10:59:30.343750,-102.54,71.42
258508,2018-06-29 10:59:30.375000,-120.57,71.42
258509,2018-06-29 10:59:30.406250,-134.93,71.42
258510,2018-06-29 10:59:30.437500,-132.87,71.42
258511,2018-06-29 10:59:30.468750,-104.42,71.42
258512,2018-06-29 10:59:30.500000,-57.78,71.42
258513,2018-06-29 10:59:30.531250,-12.32,71.5
258514,2018-06-29 10:59:30.562500,22.4,71.5
258515,2018-06-29 10:59:30.593750,48.59,71.5
258516,2018-06-29 10:59:30.625000,67.01,71.5
258517,2018-06-29 10:59:30.656250,76.4,71.5
258518,2018-06-29 10:59:30.687500,80.39,71.5
258519,2018-06-29 10:59:30.718750,83.96,71.5
258520,2018-06-29 10:59:30.750000,86.37,71.5
258521,2018-06-29 10:59:30.781250,83.71,71.5
258522,2018-06-29 10:59:30.812500,75.59,71.5
258523,2018-06-29 10:59:30.843750,64.29,71.5
258524,2018-06-29 10:59:30.875000,49.37,71.5
258525,2018-06-29 10:59:30.906250,28.12,71.5
258526,2018-06-29 10:59:30.937500,1.44,71.5
258527,2018-06-29 10:59:30.968750,-24.78,71.5
258528,2018-06-29 10:59:31.000000,-46.1,71.5
258529,2018-06-29 10:59:31.031250,-63.9,71.5
258530,2018-06-29 10:59:31.062500,-82.91,71.5
258531,2018-06-29 10:59:31.093750,-107.91,71.5
258532,2018-06-29 10:59:31.125000,-137.76,71.5
258533,2018-06-29 10:59:31.156250,-157.4,71.5
258534,2018-06-29 10:59:31.187500,-145.86,71.5
258535,2018-06-29 10:59:31.218750,-98.88,71.5
258536,2018-06-29 10:59:31.250000,-33.58,71.5
258537,2018-06-29 10:59:31.281250,29.56,71.5
258538,2018-06-29 10:59:31.312500,77.41,71.5
258539,2018-06-29 10:59:31.343750,101.91,71.5
258540,2018-06-29 10:59:31.375000,102.71,71.5
258541,2018-06-29 10:59:31.406250,91.2,71.5
258542,2018-06-29 10:59:31.437500,81.8,71.5
258543,2018-06-29 10:59:31.468750,79.27,71.5
258544,2018-06-29 10:59:31.500000,78.48,71.5
258545,2018-06-29 10:59:31.531250,74.98,71.65
258546,2018-06-29 10:59:31.562500,70.34,71.65
258547,2018-06-29 10:59:31.593750,66.27,71.65
258548,2018-06-29 10:59:31.625000,59.79,71.65
258549,2018-06-29 10:59:31.656250,47.44,71.65
258550,2018-06-29 10:59:31.687500,30.77,71.65
258551,2018-06-29 10:59:31.718750,14.42,71.65
258552,2018-06-29 10:59:31.750000,0.94,71.65
258553,2018-06-29 10:59:31.781250,-11.74,71.65
258554,2018-06-29 10:59:31.812500,-28.0,71.65
258555,2018-06-29 10:59:31.843750,-46.36,71.65
258556,2018-06-29 10:59:31.875000,-53.01,71.65
258557,2018-06-29 10:59:31.906250,-30.58,71.65
258558,2018-06-29 10:59:31.937500,23.07,71.65
258559,2018-06-29 10:59:31.968750,90.28,71.65
258560,2018-06-29 10:59:32.000000,148.7,71.65
258561,2018-06-29 10:59:32.031250,186.37,71.65
258562,2018-06-29 10:59:32.062500,203.04,71.65
258563,2018-06-29 10:59:32.093750,204.8,71.65
258564,2018-06-29 10:59:32.125000,200.43,71.65
258565,2018-06-29 10:59:32.156250,197.41,71.65
258566,2018-06-29 10:59:32.187500,196.34,71.65
258567,2018-06-29 10:59:32.218750,191.28,71.65
258568,2018-06-29 10:59:32.250000,178.27,71.65
258569,2018-06-29 10:59:32.281250,162.0,71.65
258570,2018-06-29 10:59:32.312500,153.25,71.65
258571,2018-06-29 10:59:32.343750,160.01,71.65
258572,2018-06-29 10:59:32.375000,175.08,71.65
258573,2018-06-29 10:59:32.406250,173.43,71.65
258574,2018-06-29 10:59:32.437500,135.51,71.65
258575,2018-06-29 10:59:32.468750,72.23,71.65
258576,2018-06-29 10:59:32.500000,10.72,71.65
258577,2018-06-29 10:59:32.531250,-39.14,71.82
258578,2018-06-29 10:59:32.562500,-89.55,71.82
258579,2018-06-29 10:59:32.593750,-160.03,71.82
258580,2018-06-29 10:59:32.625000,-261.92,71.82
258581,2018-06-29 10:59:32.656250,-366.68,71.82
258582,2018-06-29 10:59:32.687500,-405.06,71.82
258583,2018-06-29 10:59:32.718750,-339.67,71.82
258584,2018-06-29 10:59:32.750000,-212.55,71.82
258585,2018-06-29 10:59:32.781250,-89.63,71.82
258586,2018-06-29 10:59:32.812500,1.83,71.82
258587,2018-06-29 10:59:32.843750,62.37,71.82
258588,2018-06-29 10:59:32.875000,98.29,71.82
258589,2018-06-29 10:59:32.906250,122.58,71.82
258590,2018-06-29 10:59:32.937500,140.15,71.82
