,Time,ppg,hr
259200,2018-06-29 10:59:52.000000,-65.72,75.7
259201,2018-06-29 10:59:52.031250,-88.59,75.7
259202,2018-06-29 10:59:52.062500,-100.93,75.7
259203,2018-06-29 10:59:52.093750,-82.53,75.7
259204,2018-06-29 10:59:52.125000,-33.1,75.7
259205,2018-06-29 10:59:52.156250,23.79,75.7
259206,2018-06-29 10:59:52.187500,65.92,75.7
259207,2018-06-29 10:59:52.218750,88.33,75.7
259208,2018-06-29 10:59:52.250000,94.2,75.7
259209,2018-06-29 10:59:52.281250,87.51,75.7
259210,2018-06-29 10:59:52.312500,76.02,75.7
259211,2018-06-29 10:59:52.343750,68.33,75.7
259212,2018-06-29 10:59:52.375000,66.25,75.7
259213,2018-06-29 10:59:52.406250,65.42,75.7
259214,2018-06-29 10:59:52.437500,62.9,75.7
259215,2018-06-29 10:59:52.468750,59.48,75.7
259216,2018-06-29 10:59:52.500000,54.4,75.7
259217,2018-06-29 10:59:52.531250,43.8,75.87
259218,2018-06-29 10:59:52.562500,27.2,75.87
259219,2018-06-29 10:59:52.593750,10.64,75.87
259220,2018-06-29 10:59:52.625000,-1.5,75.87
259221,2018-06-29 10:59:52.656250,-12.86,75.87
259222,2018-06-29 10:59:52.687500,-28.47,75.87
259223,2018-06-29 10:59:52.718750,-46.07,75.87
259224,2018-06-29 10:59:52.750000,-59.62,75.87
259225,2018-06-29 10:59:52.781250,-68.26,75.87
259226,2018-06-29 10:59:52.812500,-77.7,75.87
259227,2018-06-29 10:59:52.843750,-93.62,75.87
259228,2018-06-29 10:59:52.875000,-112.13,75.87
259229,2018-06-29 10:59:52.906250,-115.64,75.87
259230,2018-06-29 10:59:52.937500,-87.25,75.87
259231,2018-06-29 10:59:52.968750,-32.59,75.87
259232,2018-06-29 10:59:53.000000,23.16,75.87
259233,2018-06-29 10:59:53.031250,61.03,75.87
259234,2018-06-29 10:59:53.062500,79.04,75.87
259235,2018-06-29 10:59:53.093750,81.22,75.87
259236,2018-06-29 10:59:53.125000,72.48,75.87
259237,2018-06-29 10:59:53.156250,61.88,75.87
259238,2018-06-29 10:59:53.187500,57.81,75.87
259239,2018-06-29 10:59:53.218750,59.95,75.87
259240,2018-06-29 10:59:53.250000,62.21,75.87
259241,2018-06-29 10:59:53.281250,61.26,75.87
259242,2018-06-29 10:59:53.312500,57.91,75.87
259243,2018-06-29 10:59:53.343750,52.43,75.87
259244,2018-06-29 10:59:53.375000,42.91,75.87
259245,2018-06-29 10:59:53.406250,29.18,75.87
259246,2018-06-29 10:59:53.437500,14.93,75.87
259247,2018-06-29 10:59:53.468750,3.71,75.87
259248,2018-06-29 10:59:53.500000,-5.86,75.87
259249,2018-06-29 10:59:53.531250,-17.84,76.0
259250,2018-06-29 10:59:53.562500,-32.22,76.0
259251,2018-06-29 10:59:53.593750,-44.61,76.0
259252,2018-06-29 10:59:53.625000,-52.96,76.0
259253,2018-06-29 10:59:53.656250,-60.6,76.0
259254,2018-06-29 10:59:53.687500,-71.9,76.0
259255,2018-06-29 10:59:53.718750,-86.98,76.0
259256,2018-06-29 10:59:53.750000,-98.2,76.0
259257,2018-06-29 10:59:53.781250,-92.02,76.0
259258,2018-06-29 10:59:53.812500,-61.97,76.0
259259,2018-06-29 10:59:53.843750,-18.73,76.0
259260,2018-06-29 10:59:53.875000,19.39,76.0
259261,2018-06-29 10:59:53.906250,42.21,76.0
259262,2018-06-29 10:59:53.937500,48.81,76.0
259263,2018-06-29 10:59:53.968750,42.23,76.0
259264,2018-06-29 10:59:54.000000,29.67,76.0
259265,2018-06-29 10:59:54.031250,20.23,76.0
259266,2018-06-29 10:59:54.062500,17.4,76.0
259267,2018-06-29 10:59:54.093750,17.74,76.0
259268,2018-06-29 10:59:54.125000,17.6,76.0
259269,2018-06-29 10:59:54.156250,16.73,76.0
259270,2018-06-29 10:59:54.187500,15.2,76.0
259271,2018-06-29 10:59:54.218750,11.1,76.0
259272,2018-06-29 10:59:54.250000,3.32,76.0
259273,2018-06-29 10:59:54.281250,-6.04,76.0
259274,2018-06-29 10:59:54.312500,-14.15,76.0
259275,2018-06-29 10:59:54.343750,-21.72,76.0
259276,2018-06-29 10:59:54.375000,-31.21,76.0
259277,2018-06-29 10:59:54.406250,-41.66,76.0
259278,2018-06-29 10:59:54.437500,-49.17,76.0
259279,2018-06-29 10:59:54.468750,-52.65,76.0
259280,2018-06-29 10:59:54.500000,-55.69,76.0
259281,2018-06-29 10:59:54.531250,-62.97,76.12
259282,2018-06-29 10:59:54.562500,-74.62,76.12
259283,2018-06-29 10:59:54.593750,-81.31,76.12
259284,2018-06-29 10:59:54.625000,-69.79,76.12
259285,2018-06-29 10:59:54.656250,-38.58,76.12
259286,2018-06-29 10:59:54.687500,-2.07,76.12
259287,2018-06-29 10:59:54.718750,24.95,76.12
259288,2018-06-29 10:59:54.750000,38.76,76.12
259289,2018-06-29 10:59:54.781250,41.52,76.12
259290,2018-06-29 10:59:54.812500,35.79,76.12
259291,2018-06-29 10:59:54.843750,26.7,76.12
259292,2018-06-29 10:59:54.875000,20.57,76.12
259293,2018-06-29 10:59:54.906250,19.2,76.12
259294,2018-06-29 10:59:54.937500,20.11,76.12
259295,2018-06-29 10:59:54.968750,21.43,76.12
259296,2018-06-29 10:59:55.000000,22.11,76.12
259297,2018-06-29 10:59:55.031250,19.88,76.12
259298,2018-06-29 10:59:55.062500,13.77,76.12
259299,2018-06-29 10:59:55.093750,5.94,76.12
259300,2018-06-29 10:59:55.125000,-2.16,76.12
259301,2018-06-29 10:59:55.156250,-11.79,76.12
259302,2018-06-29 10:59:55.187500,-23.27,76.12
259303,2018-06-29 10:59:55.218750,-34.39,76.12
259304,2018-06-29 10:59:55.250000,-43.58,76.12
259305,2018-06-29 10:59:55.281250,-52.09,76.12
259306,2018-06-29 10:59:55.312500,-62.48,76.12
259307,2018-06-29 10:59:55.343750,-74.82,76.12
259308,2018-06-29 10:59:55.375000,-81.9,76.12
259309,2018-06-29 10:59:55.406250,-72.16,76.12
259310,2018-06-29 10:59:55.437500,-43.04,76.12
259311,2018-06-29 10:59:55.468750,-7.08,76.12
259312,2018-06-29 10:59:55.500000,20.65,76.12
259313,2018-06-29 10:59:55.531250,35.63,76.08
259314,2018-06-29 10:59:55.562500,40.78,76.08
259315,2018-06-29 10:59:55.593750,38.9,76.08
259316,2018-06-29 10:59:55.625000,32.94,76.08
259317,2018-06-29 10:59:55.656250,27.29,76.08
259318,2018-06-29 10:59:55.687500,24.54,76.08
259319,2018-06-29 10:59:55.718750,24.0,76.08
259320,2018-06-29 10:59:55.750000,24.15,76.08
259321,2018-06-29 10:59:55.781250,23.79,76.08
259322,2018-06-29 10:59:55.812500,21.14,76.08
259323,2018-06-29 10:59:55.843750,15.35,76.08
259324,2018-06-29 10:59:55.875000,8.11,76.08
259325,2018-06-29 10:59:55.906250,0.88,76.08
259326,2018-06-29 10:59:55.937500,-7.06,76.08
259327,2018-06-29 10:59:55.968750,-16.15,76.08
259328,2018-06-29 10:59:56.000000,-24.91,76.08
259329,2018-06-29 10:59:56.031250,-32.18,76.08
259330,2018-06-29 10:59:56.062500,-38.72,76.08
259331,2018-06-29 10:59:56.093750,-46.86,76.08
259332,2018-06-29 10:59:56.125000,-58.54,76.08
259333,2018-06-29 10:59:56.156250,-69.73,76.08
259334,2018-06-29 10:59:56.187500,-68.82,76.08
259335,2018-06-29 10:59:56.218750,-48.32,76.08
259336,2018-06-29 10:59:56.250000,-15.84,76.08
259337,2018-06-29 10:59:56.281250,13.36,76.08
259338,2018-06-29 10:59:56.312500,31.12,76.08
259339,2018-06-29 10:59:56.343750,38.2,76.08
259340,2018-06-29 10:59:56.375000,37.6,76.08
259341,2018-06-29 10:59:56.406250,32.89,76.08
259342,2018-06-29 10:59:56.437500,28.88,76.08
259343,2018-06-29 10:59:56.468750,28.0,76.08
259344,2018-06-29 10:59:56.500000,28.52,76.08
259345,2018-06-29 10:59:56.531250,28.39,76.05
259346,2018-06-29 10:59:56.562500,27.92,76.05
259347,2018-06-29 10:59:56.593750,27.12,76.05
259348,2018-06-29 10:59:56.625000,24.13,76.05
259349,2018-06-29 10:59:56.656250,18.18,76.05
259350,2018-06-29 10:59:56.687500,11.25,76.05
259351,2018-06-29 10:59:56.718750,5.22,76.05
259352,2018-06-29 10:59:56.750000,-0.98,76.05
259353,2018-06-29 10:59:56.781250,-9.47,76.05
259354,2018-06-29 10:59:56.812500,-19.72,76.05
259355,2018-06-29 10:59:56.843750,-29.06,76.05
259356,2018-06-29 10:59:56.875000,-36.54,76.05
259357,2018-06-29 10:59:56.906250,-44.37,76.05
259358,2018-06-29 10:59:56.937500,-55.54,76.05
259359,2018-06-29 10:59:56.968750,-68.46,76.05
259360,2018-06-29 10:59:57.000000,-73.08,76.05
259361,2018-06-29 10:59:57.031250,-58.69,76.05
259362,2018-06-29 10:59:57.062500,-27.99,76.05
259363,2018-06-29 10:59:57.093750,4.08,76.05
259364,2018-06-29 10:59:57.125000,26.09,76.05
259365,2018-06-29 10:59:57.156250,36.79,76.05
259366,2018-06-29 10:59:57.187500,38.44,76.05
259367,2018-06-29 10:59:57.218750,33.92,76.05
259368,2018-06-29 10:59:57.250000,28.69,76.05
259369,2018-06-29 10:59:57.281250,27.23,76.05
259370,2018-06-29 10:59:57.312500,28.74,76.05
259371,2018-06-29 10:59:57.343750,29.78,76.05
259372,2018-06-29 10:59:57.375000,29.7,76.05
259373,2018-06-29 10:59:57.406250,29.75,76.05
259374,2018-06-29 10:59:57.437500,28.61,76.05
259375,2018-06-29 10:59:57.468750,22.93,76.05
259376,2018-06-29 10:59:57.500000,12.67,76.05
259377,2018-06-29 10:59:57.531250,2.1,76.02
259378,2018-06-29 10:59:57.562500,-6.4,76.02
259379,2018-06-29 10:59:57.593750,-15.04,76.02
259380,2018-06-29 10:59:57.625000,-25.03,76.02
259381,2018-06-29 10:59:57.656250,-33.93,76.02
259382,2018-06-29 10:59:57.687500,-40.11,76.02
259383,2018-06-29 10:59:57.718750,-45.17,76.02
259384,2018-06-29 10:59:57.750000,-51.81,76.02
259385,2018-06-29 10:59:57.781250,-61.73,76.02
259386,2018-06-29 10:59:57.812500,-72.14,76.02
259387,2018-06-29 10:59:57.843750,-72.98,76.02
259388,2018-06-29 10:59:57.875000,-55.08,76.02
259389,2018-06-29 10:59:57.906250,-22.47,76.02
259390,2018-06-29 10:59:57.937500,10.5,76.02
259391,2018-06-29 10:59:57.968750,33.14,76.02
259392,2018-06-29 10:59:58.000000,43.22,76.02
259393,2018-06-29 10:59:58.031250,42.06,76.02
259394,2018-06-29 10:59:58.062500,33.6,76.02
259395,2018-06-29 10:59:58.093750,25.05,76.02
259396,2018-06-29 10:59:58.125000,21.54,76.02
259397,2018-06-29 10:59:58.156250,21.72,76.02
259398,2018-06-29 10:59:58.187500,21.54,76.02
259399,2018-06-29 10:59:58.218750,19.41,76.02
259400,2018-06-29 10:59:58.250000,15.63,76.02
259401,2018-06-29 10:59:58.281250,10.23,76.02
259402,2018-06-29 10:59:58.312500,3.4,76.02
259403,2018-06-29 10:59:58.343750,-4.41,76.02
259404,2018-06-29 10:59:58.375000,-13.5,76.02
259405,2018-06-29 10:59:58.406250,-24.06,76.02
259406,2018-06-29 10:59:58.437500,-34.5,76.02
259407,2018-06-29 10:59:58.468750,-43.02,76.02
259408,2018-06-29 10:59:58.500000,-50.21,76.02
259409,2018-06-29 10:59:58.531250,-58.91,75.98
259410,2018-06-29 10:59:58.562500,-71.66,75.98
259411,2018-06-29 10:59:58.593750,-85.11,75.98
259412,2018-06-29 10:59:58.625000,-86.63,75.98
259413,2018-06-29 10:59:58.656250,-64.63,75.98
259414,2018-06-29 10:59:58.687500,-24.29,75.98
259415,2018-06-29 10:59:58.718750,15.72,75.98
259416,2018-06-29 10:59:58.750000,42.28,75.98
259417,2018-06-29 10:59:58.781250,55.06,75.98
259418,2018-06-29 10:59:58.812500,58.0,75.98
259419,2018-06-29 10:59:58.843750,54.09,75.98
259420,2018-06-29 10:59:58.875000,47.36,75.98
259421,2018-06-29 10:59:58.906250,42.0,75.98
259422,2018-06-29 10:59:58.937500,39.68,75.98
259423,2018-06-29 10:59:58.968750,39.51,75.98
259424,2018-06-29 10:59:59.000000,39.67,75.98
259425,2018-06-29 10:59:59.031250,38.23,75.98
259426,2018-06-29 10:59:59.062500,33.96,75.98
259427,2018-06-29 10:59:59.093750,27.07,75.98
259428,2018-06-29 10:59:59.125000,17.56,75.98
259429,2018-06-29 10:59:59.156250,4.88,75.98
259430,2018-06-29 10:59:59.187500,-9.74,75.98
259431,2018-06-29 10:59:59.218750,-23.41,75.98
259432,2018-06-29 10:59:59.250000,-34.58,75.98
259433,2018-06-29 10:59:59.281250,-44.43,75.98
259434,2018-06-29 10:59:59.312500,-55.63,75.98
259435,2018-06-29 10:59:59.343750,-69.95,75.98
259436,2018-06-29 10:59:59.375000,-82.4,75.98
259437,2018-06-29 10:59:59.406250,-79.56,75.98
259438,2018-06-29 10:59:59.437500,-52.58,75.98
259439,2018-06-29 10:59:59.468750,-10.45,75.98
259440,2018-06-29 10:59:59.500000,27.96,75.98
259441,2018-06-29 10:59:59.531250,52.19,75.97
259442,2018-06-29 10:59:59.562500,63.25,75.97
259443,2018-06-29 10:59:59.593750,64.79,75.97
259444,2018-06-29 10:59:59.625000,60.4,75.97
259445,2018-06-29 10:59:59.656250,55.07,75.97
259446,2018-06-29 10:59:59.687500,52.36,75.97
259447,2018-06-29 10:59:59.718750,51.53,75.97
259448,2018-06-29 10:59:59.750000,50.75,75.97
259449,2018-06-29 10:59:59.781250,50.24,75.97
259450,2018-06-29 10:59:59.812500,49.52,75.97
259451,2018-06-29 10:59:59.843750,45.3,75.97
259452,2018-06-29 10:59:59.875000,35.87,75.97
259453,2018-06-29 10:59:59.906250,24.18,75.97
259454,2018-06-29 10:59:59.937500,13.52,75.97
259455,2018-06-29 10:59:59.968750,2.99,75.97
259456,2018-06-29 11:00:00.000000,-9.47,75.97
259457,2018-06-29 11:00:00.031250,-22.4,75.97
259458,2018-06-29 11:00:00.062500,-32.68,75.97
259459,2018-06-29 11:00:00.093750,-40.62,75.97
259460,2018-06-29 11:00:00.125000,-50.37,75.97
259461,2018-06-29 11:00:00.156250,-65.24,75.97
259462,2018-06-29 11:00:00.187500,-81.35,75.97
259463,2018-06-29 11:00:00.218750,-85.32,75.97
259464,2018-06-29 11:00:00.250000,-64.73,75.97
259465,2018-06-29 11:00:00.281250,-23.85,75.97
259466,2018-06-29 11:00:00.312500,18.32,75.97
259467,2018-06-29 11:00:00.343750,47.25,75.97
259468,2018-06-29 11:00:00.375000,61.05,75.97
259469,2018-06-29 11:00:00.406250,62.32,75.97
259470,2018-06-29 11:00:00.437500,54.59,75.97
259471,2018-06-29 11:00:00.468750,45.31,75.97
259472,2018-06-29 11:00:00.500000,41.42,75.97
259473,2018-06-29 11:00:00.531250,42.32,75.95
259474,2018-06-29 11:00:00.562500,42.79,75.95
259475,2018-06-29 11:00:00.593750,40.93,75.95
259476,2018-06-29 11:00:00.625000,38.41,75.95
259477,2018-06-29 11:00:00.656250,34.6,75.95
259478,2018-06-29 11:00:00.687500,26.14,75.95
259479,2018-06-29 11:00:00.718750,13.3,75.95
259480,2018-06-29 11:00:00.750000,1.31,75.95
259481,2018-06-29 11:00:00.781250,-6.81,75.95
259482,2018-06-29 11:00:00.812500,-14.1,75.95
259483,2018-06-29 11:00:00.843750,-23.94,75.95
259484,2018-06-29 11:00:00.875000,-34.84,75.95
259485,2018-06-29 11:00:00.906250,-43.53,75.95
259486,2018-06-29 11:00:00.937500,-49.86,75.95
259487,2018-06-29 11:00:00.968750,-56.84,75.95
259488,2018-06-29 11:00:01.000000,-67.73,75.95
259489,2018-06-29 11:00:01.031250,-81.36,75.95
259490,2018-06-29 11:00:01.062500,-87.65,75.95
259491,2018-06-29 11:00:01.093750,-73.32,75.95
259492,2018-06-29 11:00:01.125000,-37.78,75.95
259493,2018-06-29 11:00:01.156250,3.06,75.95
259494,2018-06-29 11:00:01.187500,33.01,75.95
259495,2018-06-29 11:00:01.218750,48.06,75.95
259496,2018-06-29 11:00:01.250000,51.24,75.95
259497,2018-06-29 11:00:01.281250,46.15,75.95
259498,2018-06-29 11:00:01.312500,38.61,75.95
259499,2018-06-29 11:00:01.343750,35.17,75.95
259500,2018-06-29 11:00:01.375000,36.78,75.95
259501,2018-06-29 11:00:01.406250,39.01,75.95
259502,2018-06-29 11:00:01.437500,39.17,75.95
259503,2018-06-29 11:00:01.468750,37.96,75.95
259504,2018-06-29 11:00:01.500000,34.56,75.95
259505,2018-06-29 11:00:01.531250,26.61,75.93
259506,2018-06-29 11:00:01.562500,15.08,75.93
259507,2018-06-29 11:00:01.593750,3.71,75.93
259508,2018-06-29 11:00:01.625000,-6.66,75.93
259509,2018-06-29 11:00:01.656250,-18.7,75.93
259510,2018-06-29 11:00:01.687500,-32.66,75.93
259511,2018-06-29 11:00:01.718750,-44.51,75.93
259512,2018-06-29 11:00:01.750000,-51.99,75.93
259513,2018-06-29 11:00:01.781250,-58.6,75.93
259514,2018-06-29 11:00:01.812500,-69.68,75.93
259515,2018-06-29 11:00:01.843750,-84.78,75.93
259516,2018-06-29 11:00:01.875000,-92.98,75.93
259517,2018-06-29 11:00:01.906250,-80.02,75.93
259518,2018-06-29 11:00:01.937500,-44.09,75.93
259519,2018-06-29 11:00:01.968750,-0.41,75.93
259520,2018-06-29 11:00:02.000000,33.86,75.93
259521,2018-06-29 11:00:02.031250,53.31,75.93
259522,2018-06-29 11:00:02.062500,60.93,75.93
259523,2018-06-29 11:00:02.093750,60.42,75.93
259524,2018-06-29 11:00:02.125000,55.62,75.93
259525,2018-06-29 11:00:02.156250,50.86,75.93
259526,2018-06-29 11:00:02.187500,48.28,75.93
259527,2018-06-29 11:00:02.218750,46.86,75.93
259528,2018-06-29 11:00:02.250000,45.32,75.93
259529,2018-06-29 11:00:02.281250,43.52,75.93
259530,2018-06-29 11:00:02.312500,40.24,75.93
259531,2018-06-29 11:00:02.343750,33.26,75.93
259532,2018-06-29 11:00:02.375000,22.86,75.93
259533,2018-06-29 11:00:02.406250,12.1,75.93
259534,2018-06-29 11:00:02.437500,2.0,75.93
259535,2018-06-29 11:00:02.468750,-9.72,75.93
259536,2018-06-29 11:00:02.500000,-23.56,75.93
259537,2018-06-29 11:00:02.531250,-36.18,75.92
259538,2018-06-29 11:00:02.562500,-45.37,75.92
259539,2018-06-29 11:00:02.593750,-54.0,75.92
259540,2018-06-29 11:00:02.625000,-66.58,75.92
259541,2018-06-29 11:00:02.656250,-81.12,75.92
259542,2018-06-29 11:00:02.687500,-85.61,75.92
259543,2018-06-29 11:00:02.718750,-67.93,75.92
259544,2018-06-29 11:00:02.750000,-30.83,75.92
259545,2018-06-29 11:00:02.781250,8.82,75.92
259546,2018-06-29 11:00:02.812500,36.85,75.92
259547,2018-06-29 11:00:02.843750,51.29,75.92
259548,2018-06-29 11:00:02.875000,55.98,75.92
259549,2018-06-29 11:00:02.906250,54.23,75.92
259550,2018-06-29 11:00:02.937500,49.64,75.92
259551,2018-06-29 11:00:02.968750,46.23,75.92
259552,2018-06-29 11:00:03.000000,45.41,75.92
259553,2018-06-29 11:00:03.031250,45.55,75.92
259554,2018-06-29 11:00:03.062500,45.17,75.92
259555,2018-06-29 11:00:03.093750,44.31,75.92
259556,2018-06-29 11:00:03.125000,42.22,75.92
259557,2018-06-29 11:00:03.156250,36.5,75.92
259558,2018-06-29 11:00:03.187500,26.49,75.92
259559,2018-06-29 11:00:03.218750,15.62,75.92
259560,2018-06-29 11:00:03.250000,7.2,75.92
259561,2018-06-29 11:00:03.281250,-0.68,75.92
259562,2018-06-29 11:00:03.312500,-12.13,75.92
259563,2018-06-29 11:00:03.343750,-26.2,75.92
259564,2018-06-29 11:00:03.375000,-37.45,75.92
259565,2018-06-29 11:00:03.406250,-43.98,75.92
259566,2018-06-29 11:00:03.437500,-50.01,75.92
259567,2018-06-29 11:00:03.468750,-60.1,75.92
259568,2018-06-29 11:00:03.500000,-73.36,75.92
259569,2018-06-29 11:00:03.531250,-81.63,75.92
259570,2018-06-29 11:00:03.562500,-73.14,75.92
259571,2018-06-29 11:00:03.593750,-44.11,75.92
259572,2018-06-29 11:00:03.625000,-6.07,75.92
259573,2018-06-29 11:00:03.656250,24.88,75.92
259574,2018-06-29 11:00:03.687500,42.47,75.92
259575,2018-06-29 11:00:03.718750,48.59,75.92
259576,2018-06-29 11:00:03.750000,45.75,75.92
259577,2018-06-29 11:00:03.781250,37.82,75.92
259578,2018-06-29 11:00:03.812500,31.05,75.92
259579,2018-06-29 11:00:03.843750,28.43,75.92
259580,2018-06-29 11:00:03.875000,27.8,75.92
259581,2018-06-29 11:00:03.906250,26.93,75.92
259582,2018-06-29 11:00:03.937500,25.9,75.92
259583,2018-06-29 11:00:03.968750,24.34,75.92
259584,2018-06-29 11:00:04.000000,20.24,75.92
259585,2018-06-29 11:00:04.031250,12.72,75.92
259586,2018-06-29 11:00:04.062500,3.89,75.92
259587,2018-06-29 11:00:04.093750,-3.55,75.92
259588,2018-06-29 11:00:04.125000,-9.98,75.92
259589,2018-06-29 11:00:04.156250,-18.04,75.92
259590,2018-06-29 11:00:04.187500,-27.63,75.92
259591,2018-06-29 11:00:04.218750,-35.15,75.92
259592,2018-06-29 11:00:04.250000,-39.17,75.92
259593,2018-06-29 11:00:04.281250,-43.36,75.92
259594,2018-06-29 11:00:04.312500,-51.76,75.92
259595,2018-06-29 11:00:04.343750,-62.96,75.92
259596,2018-06-29 11:00:04.375000,-68.57,75.92
259597,2018-06-29 11:00:04.406250,-58.69,75.92
259598,2018-06-29 11:00:04.437500,-32.02,75.92
259599,2018-06-29 11:00:04.468750,0.62,75.92
259600,2018-06-29 11:00:04.500000,26.09,75.92
259601,2018-06-29 11:00:04.531250,39.3,75.92
259602,2018-06-29 11:00:04.562500,41.81,75.92
259603,2018-06-29 11:00:04.593750,36.75,75.92
259604,2018-06-29 11:00:04.625000,28.94,75.92
259605,2018-06-29 11:00:04.656250,23.98,75.92
259606,2018-06-29 11:00:04.687500,23.41,75.92
259607,2018-06-29 11:00:04.718750,24.32,75.92
259608,2018-06-29 11:00:04.750000,24.71,75.92
259609,2018-06-29 11:00:04.781250,24.81,75.92
259610,2018-06-29 11:00:04.812500,23.21,75.92
259611,2018-06-29 11:00:04.843750,17.3,75.92
259612,2018-06-29 11:00:04.875000,7.99,75.92
259613,2018-06-29 11:00:04.906250,-1.09,75.92
259614,2018-06-29 11:00:04.937500,-9.09,75.92
259615,2018-06-29 11:00:04.968750,-18.45,75.92
259616,2018-06-29 11:00:05.000000,-29.59,75.92
259617,2018-06-29 11:00:05.031250,-39.34,75.92
259618,2018-06-29 11:00:05.062500,-45.91,75.92
259619,2018-06-29 11:00:05.093750,-52.24,75.92
259620,2018-06-29 11:00:05.125000,-62.83,75.92
259621,2018-06-29 11:00:05.156250,-77.34,75.92
259622,2018-06-29 11:00:05.187500,-86.33,75.92
259623,2018-06-29 11:00:05.218750,-76.81,75.92
259624,2018-06-29 11:00:05.250000,-46.89,75.92
259625,2018-06-29 11:00:05.281250,-9.91,75.92
259626,2018-06-29 11:00:05.312500,19.67,75.92
259627,2018-06-29 11:00:05.343750,37.66,75.92
259628,2018-06-29 11:00:05.375000,45.9,75.92
259629,2018-06-29 11:00:05.406250,46.29,75.92
259630,2018-06-29 11:00:05.437500,41.76,75.92
259631,2018-06-29 11:00:05.468750,36.98,75.92
259632,2018-06-29 11:00:05.500000,34.95,75.92
259633,2018-06-29 11:00:05.531250,34.97,75.92
259634,2018-06-29 11:00:05.562500,35.1,75.92
259635,2018-06-29 11:00:05.593750,34.94,75.92
259636,2018-06-29 11:00:05.625000,33.59,75.92
259637,2018-06-29 11:00:05.656250,28.42,75.92
259638,2018-06-29 11:00:05.687500,19.04,75.92
259639,2018-06-29 11:00:05.718750,8.75,75.92
259640,2018-06-29 11:00:05.750000,-0.34,75.92
259641,2018-06-29 11:00:05.781250,-9.98,75.92
259642,2018-06-29 11:00:05.812500,-21.78,75.92
259643,2018-06-29 11:00:05.843750,-33.67,75.92
259644,2018-06-29 11:00:05.875000,-42.68,75.92
259645,2018-06-29 11:00:05.906250,-49.73,75.92
259646,2018-06-29 11:00:05.937500,-59.48,75.92
259647,2018-06-29 11:00:05.968750,-73.47,75.92
259648,2018-06-29 11:00:06.000000,-83.52,75.92
259649,2018-06-29 11:00:06.031250,-76.15,75.92
259650,2018-06-29 11:00:06.062500,-47.26,75.92
259651,2018-06-29 11:00:06.093750,-8.39,75.92
259652,2018-06-29 11:00:06.125000,24.96,75.92
259653,2018-06-29 11:00:06.156250,46.15,75.92
259654,2018-06-29 11:00:06.187500,56.14,75.92
259655,2018-06-29 11:00:06.218750,57.14,75.92
259656,2018-06-29 11:00:06.250000,52.33,75.92
259657,2018-06-29 11:00:06.281250,46.84,75.92
259658,2018-06-29 11:00:06.312500,44.69,75.92
259659,2018-06-29 11:00:06.343750,45.87,75.92
259660,2018-06-29 11:00:06.375000,47.65,75.92
259661,2018-06-29 11:00:06.406250,48.09,75.92
259662,2018-06-29 11:00:06.437500,46.82,75.92
259663,2018-06-29 11:00:06.468750,42.68,75.92
259664,2018-06-29 11:00:06.500000,34.09,75.92
259665,2018-06-29 11:00:06.531250,22.48,75.93
259666,2018-06-29 11:00:06.562500,12.1,75.93
259667,2018-06-29 11:00:06.593750,4.37,75.93
259668,2018-06-29 11:00:06.625000,-3.89,75.93
259669,2018-06-29 11:00:06.656250,-14.67,75.93
259670,2018-06-29 11:00:06.687500,-25.5,75.93
259671,2018-06-29 11:00:06.718750,-33.67,75.93
259672,2018-06-29 11:00:06.750000,-40.2,75.93
259673,2018-06-29 11:00:06.781250,-48.48,75.93
259674,2018-06-29 11:00:06.812500,-61.14,75.93
259675,2018-06-29 11:00:06.843750,-75.47,75.93
259676,2018-06-29 11:00:06.875000,-79.69,75.93
259677,2018-06-29 11:00:06.906250,-61.42,75.93
259678,2018-06-29 11:00:06.937500,-23.91,75.93
259679,2018-06-29 11:00:06.968750,15.12,75.93
259680,2018-06-29 11:00:07.000000,42.14,75.93
259681,2018-06-29 11:00:07.031250,55.22,75.93
259682,2018-06-29 11:00:07.062500,56.09,75.93
259683,2018-06-29 11:00:07.093750,47.63,75.93
259684,2018-06-29 11:00:07.125000,37.26,75.93
259685,2018-06-29 11:00:07.156250,32.03,75.93
259686,2018-06-29 11:00:07.187500,31.83,75.93
259687,2018-06-29 11:00:07.218750,32.51,75.93
259688,2018-06-29 11:00:07.250000,32.54,75.93
259689,2018-06-29 11:00:07.281250,32.15,75.93
259690,2018-06-29 11:00:07.312500,29.41,75.93
259691,2018-06-29 11:00:07.343750,21.86,75.93
259692,2018-06-29 11:00:07.375000,10.71,75.93
259693,2018-06-29 11:00:07.406250,-0.1,75.93
259694,2018-06-29 11:00:07.437500,-9.15,75.93
259695,2018-06-29 11:00:07.468750,-18.48,75.93
259696,2018-06-29 11:00:07.500000,-29.05,75.93
259697,2018-06-29 11:00:07.531250,-38.62,75.95
259698,2018-06-29 11:00:07.562500,-45.27,75.95
259699,2018-06-29 11:00:07.593750,-50.91,75.95
259700,2018-06-29 11:00:07.625000,-59.21,75.95
259701,2018-06-29 11:00:07.656250,-70.79,75.95
259702,2018-06-29 11:00:07.687500,-79.26,75.95
259703,2018-06-29 11:00:07.718750,-72.78,75.95
259704,2018-06-29 11:00:07.750000,-45.62,75.95
259705,2018-06-29 11:00:07.781250,-7.51,75.95
259706,2018-06-29 11:00:07.812500,24.68,75.95
259707,2018-06-29 11:00:07.843750,42.67,75.95
259708,2018-06-29 11:00:07.875000,48.03,75.95
259709,2018-06-29 11:00:07.906250,44.16,75.95
259710,2018-06-29 11:00:07.937500,35.12,75.95
259711,2018-06-29 11:00:07.968750,27.37,75.95
259712,2018-06-29 11:00:08.000000,25.37,75.95
259713,2018-06-29 11:00:08.031250,27.86,75.95
259714,2018-06-29 11:00:08.062500,30.66,75.95
259715,2018-06-29 11:00:08.093750,30.59,75.95
259716,2018-06-29 11:00:08.125000,26.42,75.95
259717,2018-06-29 11:00:08.156250,19.07,75.95
259718,2018-06-29 11:00:08.187500,10.37,75.95
259719,2018-06-29 11:00:08.218750,0.89,75.95
259720,2018-06-29 11:00:08.250000,-9.87,75.95
259721,2018-06-29 11:00:08.281250,-21.62,75.95
259722,2018-06-29 11:00:08.312500,-33.27,75.95
259723,2018-06-29 11:00:08.343750,-43.57,75.95
259724,2018-06-29 11:00:08.375000,-52.67,75.95
259725,2018-06-29 11:00:08.406250,-63.98,75.95
259726,2018-06-29 11:00:08.437500,-78.88,75.95
259727,2018-06-29 11:00:08.468750,-87.51,75.95
259728,2018-06-29 11:00:08.500000,-74.84,75.95
259729,2018-06-29 11:00:08.531250,-39.91,75.98
259730,2018-06-29 11:00:08.562500,1.01,75.98
259731,2018-06-29 11:00:08.593750,32.47,75.98
259732,2018-06-29 11:00:08.625000,50.96,75.98
259733,2018-06-29 11:00:08.656250,58.47,75.98
259734,2018-06-29 11:00:08.687500,56.43,75.98
259735,2018-06-29 11:00:08.718750,48.45,75.98
259736,2018-06-29 11:00:08.750000,41.22,75.98
259737,2018-06-29 11:00:08.781250,38.78,75.98
259738,2018-06-29 11:00:08.812500,39.21,75.98
259739,2018-06-29 11:00:08.843750,38.28,75.98
259740,2018-06-29 11:00:08.875000,34.31,75.98
259741,2018-06-29 11:00:08.906250,27.94,75.98
259742,2018-06-29 11:00:08.937500,19.26,75.98
259743,2018-06-29 11:00:08.968750,7.77,75.98
259744,2018-06-29 11:00:09.000000,-5.97,75.98
259745,2018-06-29 11:00:09.031250,-20.19,75.98
259746,2018-06-29 11:00:09.062500,-33.29,75.98
259747,2018-06-29 11:00:09.093750,-44.57,75.98
259748,2018-06-29 11:00:09.125000,-54.68,75.98
259749,2018-06-29 11:00:09.156250,-66.19,75.98
259750,2018-06-29 11:00:09.187500,-81.04,75.98
259751,2018-06-29 11:00:09.218750,-93.1,75.98
259752,2018-06-29 11:00:09.250000,-87.53,75.98
259753,2018-06-29 11:00:09.281250,-55.97,75.98
259754,2018-06-29 11:00:09.312500,-9.51,75.98
259755,2018-06-29 11:00:09.343750,32.13,75.98
259756,2018-06-29 11:00:09.375000,58.97,75.98
259757,2018-06-29 11:00:09.406250,71.8,75.98
259758,2018-06-29 11:00:09.437500,73.69,75.98
259759,2018-06-29 11:00:09.468750,68.06,75.98
259760,2018-06-29 11:00:09.500000,59.74,75.98
259761,2018-06-29 11:00:09.531250,52.89,76.02
259762,2018-06-29 11:00:09.562500,48.97,76.02
259763,2018-06-29 11:00:09.593750,46.85,76.02
259764,2018-06-29 11:00:09.625000,44.35,76.02
259765,2018-06-29 11:00:09.656250,39.98,76.02
259766,2018-06-29 11:00:09.687500,33.21,76.02
259767,2018-06-29 11:00:09.718750,23.76,76.02
259768,2018-06-29 11:00:09.750000,11.29,76.02
259769,2018-06-29 11:00:09.781250,-3.69,76.02
259770,2018-06-29 11:00:09.812500,-18.87,76.02
259771,2018-06-29 11:00:09.843750,-31.68,76.02
259772,2018-06-29 11:00:09.875000,-41.69,76.02
259773,2018-06-29 11:00:09.906250,-51.36,76.02
259774,2018-06-29 11:00:09.937500,-64.27,76.02
259775,2018-06-29 11:00:09.968750,-80.27,76.02
259776,2018-06-29 11:00:10.000000,-89.42,76.02
259777,2018-06-29 11:00:10.031250,-77.06,76.02
259778,2018-06-29 11:00:10.062500,-40.49,76.02
259779,2018-06-29 11:00:10.093750,5.11,76.02
259780,2018-06-29 11:00:10.125000,41.8,76.02
259781,2018-06-29 11:00:10.156250,62.98,76.02
259782,2018-06-29 11:00:10.187500,70.48,76.02
259783,2018-06-29 11:00:10.218750,67.51,76.02
259784,2018-06-29 11:00:10.250000,58.97,76.02
259785,2018-06-29 11:00:10.281250,51.21,76.02
259786,2018-06-29 11:00:10.312500,47.64,76.02
259787,2018-06-29 11:00:10.343750,47.31,76.02
259788,2018-06-29 11:00:10.375000,48.16,76.02
259789,2018-06-29 11:00:10.406250,48.57,76.02
259790,2018-06-29 11:00:10.437500,46.03,76.02
259791,2018-06-29 11:00:10.468750,38.4,76.02
259792,2018-06-29 11:00:10.500000,27.02,76.02
259793,2018-06-29 11:00:10.531250,15.44,76.07
259794,2018-06-29 11:00:10.562500,4.57,76.07
259795,2018-06-29 11:00:10.593750,-7.57,76.07
259796,2018-06-29 11:00:10.625000,-21.22,76.07
259797,2018-06-29 11:00:10.656250,-33.7,76.07
259798,2018-06-29 11:00:10.687500,-43.61,76.07
259799,2018-06-29 11:00:10.718750,-53.11,76.07
259800,2018-06-29 11:00:10.750000,-65.76,76.07
259801,2018-06-29 11:00:10.781250,-81.83,76.07
259802,2018-06-29 11:00:10.812500,-92.53,76.07
259803,2018-06-29 11:00:10.843750,-83.26,76.07
259804,2018-06-29 11:00:10.875000,-49.92,76.07
259805,2018-06-29 11:00:10.906250,-7.04,76.07
259806,2018-06-29 11:00:10.937500,26.67,76.07
259807,2018-06-29 11:00:10.968750,44.32,76.07
259808,2018-06-29 11:00:11.000000,48.29,76.07
259809,2018-06-29 11:00:11.031250,42.29,76.07
259810,2018-06-29 11:00:11.062500,31.65,76.07
259811,2018-06-29 11:00:11.093750,23.73,76.07
259812,2018-06-29 11:00:11.125000,21.98,76.07
259813,2018-06-29 11:00:11.156250,23.67,76.07
259814,2018-06-29 11:00:11.187500,24.88,76.07
259815,2018-06-29 11:00:11.218750,24.17,76.07
259816,2018-06-29 11:00:11.250000,21.02,76.07
259817,2018-06-29 11:00:11.281250,15.05,76.07
259818,2018-06-29 11:00:11.312500,6.88,76.07
259819,2018-06-29 11:00:11.343750,-2.93,76.07
259820,2018-06-29 11:00:11.375000,-14.3,76.07
259821,2018-06-29 11:00:11.406250,-25.93,76.07
259822,2018-06-29 11:00:11.437500,-35.65,76.07
259823,2018-06-29 11:00:11.468750,-43.18,76.07
259824,2018-06-29 11:00:11.500000,-50.33,76.07
259825,2018-06-29 11:00:11.531250,-59.45,76.12
259826,2018-06-29 11:00:11.562500,-70.78,76.12
259827,2018-06-29 11:00:11.593750,-77.31,76.12
259828,2018-06-29 11:00:11.625000,-66.39,76.12
259829,2018-06-29 11:00:11.656250,-34.01,76.12
259830,2018-06-29 11:00:11.687500,6.69,76.12
259831,2018-06-29 11:00:11.718750,38.4,76.12
259832,2018-06-29 11:00:11.750000,55.1,76.12
259833,2018-06-29 11:00:11.781250,59.68,76.12
259834,2018-06-29 11:00:11.812500,55.12,76.12
259835,2018-06-29 11:00:11.843750,45.07,76.12
259836,2018-06-29 11:00:11.875000,36.21,76.12
259837,2018-06-29 11:00:11.906250,33.33,76.12
259838,2018-06-29 11:00:11.937500,34.65,76.12
259839,2018-06-29 11:00:11.968750,35.52,76.12
259840,2018-06-29 11:00:12.000000,33.52,76.12
259841,2018-06-29 11:00:12.031250,28.15,76.12
259842,2018-06-29 11:00:12.062500,19.49,76.12
259843,2018-06-29 11:00:12.093750,8.95,76.12
259844,2018-06-29 11:00:12.125000,-2.17,76.12
259845,2018-06-29 11:00:12.156250,-14.25,76.12
259846,2018-06-29 11:00:12.187500,-27.04,76.12
259847,2018-06-29 11:00:12.218750,-38.58,76.12
259848,2018-06-29 11:00:12.250000,-48.16,76.12
259849,2018-06-29 11:00:12.281250,-57.92,76.12
259850,2018-06-29 11:00:12.312500,-70.87,76.12
259851,2018-06-29 11:00:12.343750,-86.2,76.12
259852,2018-06-29 11:00:12.375000,-93.62,76.12
259853,2018-06-29 11:00:12.406250,-78.89,76.12
259854,2018-06-29 11:00:12.437500,-41.13,76.12
259855,2018-06-29 11:00:12.468750,2.69,76.12
259856,2018-06-29 11:00:12.500000,35.66,76.12
259857,2018-06-29 11:00:12.531250,54.0,76.15
259858,2018-06-29 11:00:12.562500,60.66,76.15
259859,2018-06-29 11:00:12.593750,58.23,76.15
259860,2018-06-29 11:00:12.625000,51.16,76.15
259861,2018-06-29 11:00:12.656250,45.51,76.15
259862,2018-06-29 11:00:12.687500,44.02,76.15
259863,2018-06-29 11:00:12.718750,45.13,76.15
259864,2018-06-29 11:00:12.750000,46.51,76.15
259865,2018-06-29 11:00:12.781250,46.15,76.15
259866,2018-06-29 11:00:12.812500,41.68,76.15
259867,2018-06-29 11:00:12.843750,32.13,76.15
259868,2018-06-29 11:00:12.875000,19.93,76.15
259869,2018-06-29 11:00:12.906250,8.34,76.15
259870,2018-06-29 11:00:12.937500,-2.52,76.15
259871,2018-06-29 11:00:12.968750,-14.72,76.15
259872,2018-06-29 11:00:13.000000,-27.8,76.15
259873,2018-06-29 11:00:13.031250,-38.63,76.15
259874,2018-06-29 11:00:13.062500,-46.48,76.15
259875,2018-06-29 11:00:13.093750,-54.84,76.15
259876,2018-06-29 11:00:13.125000,-67.7,76.15
259877,2018-06-29 11:00:13.156250,-82.82,76.15
259878,2018-06-29 11:00:13.187500,-87.64,76.15
259879,2018-06-29 11:00:13.218750,-68.44,76.15
259880,2018-06-29 11:00:13.250000,-27.89,76.15
259881,2018-06-29 11:00:13.281250,14.99,76.15
259882,2018-06-29 11:00:13.312500,44.77,76.15
259883,2018-06-29 11:00:13.343750,59.68,76.15
259884,2018-06-29 11:00:13.375000,63.38,76.15
259885,2018-06-29 11:00:13.406250,59.14,76.15
259886,2018-06-29 11:00:13.437500,52.12,76.15
259887,2018-06-29 11:00:13.468750,47.99,76.15
259888,2018-06-29 11:00:13.500000,47.96,76.15
259889,2018-06-29 11:00:13.531250,48.77,76.22
259890,2018-06-29 11:00:13.562500,48.12,76.22
259891,2018-06-29 11:00:13.593750,46.53,76.22
259892,2018-06-29 11:00:13.625000,43.55,76.22
259893,2018-06-29 11:00:13.656250,36.51,76.22
259894,2018-06-29 11:00:13.687500,24.94,76.22
259895,2018-06-29 11:00:13.718750,12.81,76.22
259896,2018-06-29 11:00:13.750000,3.38,76.22
259897,2018-06-29 11:00:13.781250,-5.32,76.22
259898,2018-06-29 11:00:13.812500,-16.46,76.22
259899,2018-06-29 11:00:13.843750,-28.43,76.22
259900,2018-06-29 11:00:13.875000,-37.22,76.22
259901,2018-06-29 11:00:13.906250,-42.9,76.22
259902,2018-06-29 11:00:13.937500,-49.75,76.22
259903,2018-06-29 11:00:13.968750,-61.69,76.22
259904,2018-06-29 11:00:14.000000,-76.96,76.22
259905,2018-06-29 11:00:14.031250,-84.59,76.22
259906,2018-06-29 11:00:14.062500,-71.33,76.22
259907,2018-06-29 11:00:14.093750,-37.24,76.22
259908,2018-06-29 11:00:14.125000,2.27,76.22
259909,2018-06-29 11:00:14.156250,32.1,76.22
259910,2018-06-29 11:00:14.187500,47.96,76.22
259911,2018-06-29 11:00:14.218750,52.0,76.22
259912,2018-06-29 11:00:14.250000,47.23,76.22
259913,2018-06-29 11:00:14.281250,38.45,76.22
259914,2018-06-29 11:00:14.312500,32.28,76.22
259915,2018-06-29 11:00:14.343750,32.03,76.22
259916,2018-06-29 11:00:14.375000,34.27,76.22
259917,2018-06-29 11:00:14.406250,34.45,76.22
259918,2018-06-29 11:00:14.437500,32.76,76.22
259919,2018-06-29 11:00:14.468750,30.54,76.22
259920,2018-06-29 11:00:14.500000,25.71,76.22
259921,2018-06-29 11:00:14.531250,16.54,76.28
259922,2018-06-29 11:00:14.562500,5.96,76.28
259923,2018-06-29 11:00:14.593750,-2.19,76.28
259924,2018-06-29 11:00:14.625000,-8.77,76.28
259925,2018-06-29 11:00:14.656250,-17.24,76.28
259926,2018-06-29 11:00:14.687500,-27.84,76.28
259927,2018-06-29 11:00:14.718750,-37.28,76.28
259928,2018-06-29 11:00:14.750000,-43.72,76.28
259929,2018-06-29 11:00:14.781250,-49.26,76.28
259930,2018-06-29 11:00:14.812500,-57.45,76.28
259931,2018-06-29 11:00:14.843750,-69.65,76.28
259932,2018-06-29 11:00:14.875000,-80.12,76.28
259933,2018-06-29 11:00:14.906250,-75.8,76.28
259934,2018-06-29 11:00:14.937500,-49.06,76.28
259935,2018-06-29 11:00:14.968750,-9.71,76.28
259936,2018-06-29 11:00:15.000000,24.33,76.28
259937,2018-06-29 11:00:15.031250,44.14,76.28
259938,2018-06-29 11:00:15.062500,50.78,76.28
259939,2018-06-29 11:00:15.093750,47.35,76.28
259940,2018-06-29 11:00:15.125000,38.48,76.28
259941,2018-06-29 11:00:15.156250,31.13,76.28
259942,2018-06-29 11:00:15.187500,29.28,76.28
259943,2018-06-29 11:00:15.218750,30.7,76.28
259944,2018-06-29 11:00:15.250000,31.71,76.28
259945,2018-06-29 11:00:15.281250,31.9,76.28
259946,2018-06-29 11:00:15.312500,31.77,76.28
259947,2018-06-29 11:00:15.343750,28.95,76.28
259948,2018-06-29 11:00:15.375000,20.98,76.28
259949,2018-06-29 11:00:15.406250,9.91,76.28
259950,2018-06-29 11:00:15.437500,0.21,76.28
259951,2018-06-29 11:00:15.468750,-7.33,76.28
259952,2018-06-29 11:00:15.500000,-16.07,76.28
259953,2018-06-29 11:00:15.531250,-27.69,76.35
259954,2018-06-29 11:00:15.562500,-38.89,76.35
259955,2018-06-29 11:00:15.593750,-46.22,76.35
259956,2018-06-29 11:00:15.625000,-51.65,76.35
259957,2018-06-29 11:00:15.656250,-60.71,76.35
259958,2018-06-29 11:00:15.687500,-75.01,76.35
259959,2018-06-29 11:00:15.718750,-86.55,76.35
259960,2018-06-29 11:00:15.750000,-81.54,76.35
259961,2018-06-29 11:00:15.781250,-53.98,76.35
259962,2018-06-29 11:00:15.812500,-14.05,76.35
259963,2018-06-29 11:00:15.843750,21.23,76.35
259964,2018-06-29 11:00:15.875000,42.99,76.35
259965,2018-06-29 11:00:15.906250,52.03,76.35
259966,2018-06-29 11:00:15.937500,51.88,76.35
259967,2018-06-29 11:00:15.968750,46.72,76.35
259968,2018-06-29 11:00:16.000000,41.79,76.35
259969,2018-06-29 11:00:16.031250,40.18,76.35
259970,2018-06-29 11:00:16.062500,40.78,76.35
259971,2018-06-29 11:00:16.093750,41.52,76.35
259972,2018-06-29 11:00:16.125000,42.19,76.35
259973,2018-06-29 11:00:16.156250,42.01,76.35
259974,2018-06-29 11:00:16.187500,38.1,76.35
259975,2018-06-29 11:00:16.218750,29.61,76.35
259976,2018-06-29 11:00:16.250000,19.74,76.35
259977,2018-06-29 11:00:16.281250,11.66,76.35
259978,2018-06-29 11:00:16.312500,4.51,76.35
259979,2018-06-29 11:00:16.343750,-4.49,76.35
259980,2018-06-29 11:00:16.375000,-15.51,76.35
259981,2018-06-29 11:00:16.406250,-25.3,76.35
259982,2018-06-29 11:00:16.437500,-31.11,76.35
259983,2018-06-29 11:00:16.468750,-34.91,76.35
259984,2018-06-29 11:00:16.500000,-41.37,76.35
259985,2018-06-29 11:00:16.531250,-51.26,76.4
259986,2018-06-29 11:00:16.562500,-56.27,76.4
259987,2018-06-29 11:00:16.593750,-43.03,76.4
259988,2018-06-29 11:00:16.625000,-7.05,76.4
259989,2018-06-29 11:00:16.656250,39.48,76.4
259990,2018-06-29 11:00:16.687500,79.0,76.4
259991,2018-06-29 11:00:16.718750,104.12,76.4
259992,2018-06-29 11:00:16.750000,117.47,76.4
259993,2018-06-29 11:00:16.781250,122.45,76.4
259994,2018-06-29 11:00:16.812500,120.92,76.4
259995,2018-06-29 11:00:16.843750,116.08,76.4
259996,2018-06-29 11:00:16.875000,111.78,76.4
259997,2018-06-29 11:00:16.906250,109.63,76.4
259998,2018-06-29 11:00:16.937500,108.92,76.4
259999,2018-06-29 11:00:16.968750,107.84,76.4
260000,2018-06-29 11:00:17.000000,103.24,76.4
260001,2018-06-29 11:00:17.031250,91.91,76.4
260002,2018-06-29 11:00:17.062500,74.71,76.4
260003,2018-06-29 11:00:17.093750,57.28,76.4
260004,2018-06-29 11:00:17.125000,44.82,76.4
260005,2018-06-29 11:00:17.156250,37.42,76.4
260006,2018-06-29 11:00:17.187500,32.81,76.4
260007,2018-06-29 11:00:17.218750,32.05,76.4
260008,2018-06-29 11:00:17.250000,36.27,76.4
260009,2018-06-29 11:00:17.281250,38.08,76.4
260010,2018-06-29 11:00:17.312500,26.6,76.4
260011,2018-06-29 11:00:17.343750,2.25,76.4
260012,2018-06-29 11:00:17.375000,-22.87,76.4
260013,2018-06-29 11:00:17.406250,-36.02,76.4
260014,2018-06-29 11:00:17.437500,-30.42,76.4
260015,2018-06-29 11:00:17.468750,-10.6,76.4
260016,2018-06-29 11:00:17.500000,6.77,76.4
260017,2018-06-29 11:00:17.531250,7.89,76.47
260018,2018-06-29 11:00:17.562500,-4.7,76.47
260019,2018-06-29 11:00:17.593750,-21.65,76.47
260020,2018-06-29 11:00:17.625000,-41.33,76.47
260021,2018-06-29 11:00:17.656250,-65.52,76.47
260022,2018-06-29 11:00:17.687500,-89.14,76.47
260023,2018-06-29 11:00:17.718750,-104.49,76.47
260024,2018-06-29 11:00:17.750000,-111.61,76.47
260025,2018-06-29 11:00:17.781250,-115.12,76.47
260026,2018-06-29 11:00:17.812500,-114.81,76.47
260027,2018-06-29 11:00:17.843750,-108.74,76.47
260028,2018-06-29 11:00:17.875000,-97.39,76.47
260029,2018-06-29 11:00:17.906250,-76.9,76.47
260030,2018-06-29 11:00:17.937500,-41.39,76.47
260031,2018-06-29 11:00:17.968750,2.86,76.47
260032,2018-06-29 11:00:18.000000,39.46,76.47
260033,2018-06-29 11:00:18.031250,59.7,76.47
260034,2018-06-29 11:00:18.062500,65.78,76.47
260035,2018-06-29 11:00:18.093750,59.0,76.47
260036,2018-06-29 11:00:18.125000,37.98,76.47
260037,2018-06-29 11:00:18.156250,6.57,76.47
260038,2018-06-29 11:00:18.187500,-25.97,76.47
260039,2018-06-29 11:00:18.218750,-49.97,76.47
260040,2018-06-29 11:00:18.250000,-57.35,76.47
260041,2018-06-29 11:00:18.281250,-47.21,76.47
260042,2018-06-29 11:00:18.312500,-31.44,76.47
260043,2018-06-29 11:00:18.343750,-23.98,76.47
260044,2018-06-29 11:00:18.375000,-25.35,76.47
260045,2018-06-29 11:00:18.406250,-29.18,76.47
260046,2018-06-29 11:00:18.437500,-35.87,76.47
260047,2018-06-29 11:00:18.468750,-46.58,76.47
260048,2018-06-29 11:00:18.500000,-54.69,76.47
260049,2018-06-29 11:00:18.531250,-54.94,76.52
260050,2018-06-29 11:00:18.562500,-50.41,76.52
260051,2018-06-29 11:00:18.593750,-44.74,76.52
260052,2018-06-29 11:00:18.625000,-38.3,76.52
260053,2018-06-29 11:00:18.656250,-33.8,76.52
260054,2018-06-29 11:00:18.687500,-35.33,76.52
260055,2018-06-29 11:00:18.718750,-41.18,76.52
260056,2018-06-29 11:00:18.750000,-45.67,76.52
260057,2018-06-29 11:00:18.781250,-47.22,76.52
260058,2018-06-29 11:00:18.812500,-49.7,76.52
260059,2018-06-29 11:00:18.843750,-55.84,76.52
260060,2018-06-29 11:00:18.875000,-62.73,76.52
260061,2018-06-29 11:00:18.906250,-66.43,76.52
260062,2018-06-29 11:00:18.937500,-69.94,76.52
260063,2018-06-29 11:00:18.968750,-81.69,76.52
260064,2018-06-29 11:00:19.000000,-101.36,76.52
260065,2018-06-29 11:00:19.031250,-110.66,76.52
260066,2018-06-29 11:00:19.062500,-85.35,76.52
260067,2018-06-29 11:00:19.093750,-22.09,76.52
260068,2018-06-29 11:00:19.125000,47.5,76.52
260069,2018-06-29 11:00:19.156250,81.56,76.52
260070,2018-06-29 11:00:19.187500,69.35,76.52
260071,2018-06-29 11:00:19.218750,35.72,76.52
260072,2018-06-29 11:00:19.250000,6.75,76.52
260073,2018-06-29 11:00:19.281250,-11.08,76.52
260074,2018-06-29 11:00:19.312500,-20.9,76.52
260075,2018-06-29 11:00:19.343750,-24.67,76.52
260076,2018-06-29 11:00:19.375000,-23.77,76.52
260077,2018-06-29 11:00:19.406250,-19.47,76.52
260078,2018-06-29 11:00:19.437500,-12.24,76.52
260079,2018-06-29 11:00:19.468750,-2.77,76.52
260080,2018-06-29 11:00:19.500000,7.63,76.52
260081,2018-06-29 11:00:19.531250,17.68,76.57
260082,2018-06-29 11:00:19.562500,24.48,76.57
260083,2018-06-29 11:00:19.593750,22.73,76.57
260084,2018-06-29 11:00:19.625000,9.73,76.57
260085,2018-06-29 11:00:19.656250,-10.61,76.57
260086,2018-06-29 11:00:19.687500,-32.06,76.57
260087,2018-06-29 11:00:19.718750,-51.98,76.57
260088,2018-06-29 11:00:19.750000,-71.95,76.57
260089,2018-06-29 11:00:19.781250,-94.64,76.57
260090,2018-06-29 11:00:19.812500,-116.07,76.57
260091,2018-06-29 11:00:19.843750,-120.66,76.57
260092,2018-06-29 11:00:19.875000,-95.0,76.57
260093,2018-06-29 11:00:19.906250,-46.8,76.57
260094,2018-06-29 11:00:19.937500,0.75,76.57
260095,2018-06-29 11:00:19.968750,31.71,76.57
260096,2018-06-29 11:00:20.000000,45.56,76.57
260097,2018-06-29 11:00:20.031250,48.03,76.57
260098,2018-06-29 11:00:20.062500,44.72,76.57
260099,2018-06-29 11:00:20.093750,41.18,76.57
260100,2018-06-29 11:00:20.125000,41.33,76.57
260101,2018-06-29 11:00:20.156250,44.48,76.57
260102,2018-06-29 11:00:20.187500,47.07,76.57
260103,2018-06-29 11:00:20.218750,47.27,76.57
260104,2018-06-29 11:00:20.250000,44.48,76.57
260105,2018-06-29 11:00:20.281250,38.87,76.57
260106,2018-06-29 11:00:20.312500,34.76,76.57
260107,2018-06-29 11:00:20.343750,36.4,76.57
260108,2018-06-29 11:00:20.375000,37.17,76.57
260109,2018-06-29 11:00:20.406250,23.57,76.57
260110,2018-06-29 11:00:20.437500,-5.86,76.57
260111,2018-06-29 11:00:20.468750,-36.69,76.57
260112,2018-06-29 11:00:20.500000,-56.86,76.57
260113,2018-06-29 11:00:20.531250,-68.65,76.67
260114,2018-06-29 11:00:20.562500,-80.24,76.67
260115,2018-06-29 11:00:20.593750,-96.65,76.67
260116,2018-06-29 11:00:20.625000,-118.18,76.67
260117,2018-06-29 11:00:20.656250,-134.52,76.67
260118,2018-06-29 11:00:20.687500,-125.35,76.67
260119,2018-06-29 11:00:20.718750,-82.49,76.67
260120,2018-06-29 11:00:20.750000,-24.16,76.67
260121,2018-06-29 11:00:20.781250,24.59,76.67
260122,2018-06-29 11:00:20.812500,55.04,76.67
260123,2018-06-29 11:00:20.843750,70.63,76.67
260124,2018-06-29 11:00:20.875000,74.52,76.67
260125,2018-06-29 11:00:20.906250,70.05,76.67
260126,2018-06-29 11:00:20.937500,64.39,76.67
260127,2018-06-29 11:00:20.968750,63.83,76.67
260128,2018-06-29 11:00:21.000000,67.07,76.67
260129,2018-06-29 11:00:21.031250,68.09,76.67
260130,2018-06-29 11:00:21.062500,64.28,76.67
260131,2018-06-29 11:00:21.093750,57.18,76.67
260132,2018-06-29 11:00:21.125000,46.81,76.67
260133,2018-06-29 11:00:21.156250,31.77,76.67
260134,2018-06-29 11:00:21.187500,13.14,76.67
260135,2018-06-29 11:00:21.218750,-6.45,76.67
260136,2018-06-29 11:00:21.250000,-25.9,76.67
260137,2018-06-29 11:00:21.281250,-44.3,76.67
260138,2018-06-29 11:00:21.312500,-60.42,76.67
260139,2018-06-29 11:00:21.343750,-75.57,76.67
260140,2018-06-29 11:00:21.375000,-93.54,76.67
260141,2018-06-29 11:00:21.406250,-117.58,76.67
260142,2018-06-29 11:00:21.437500,-145.67,76.67
260143,2018-06-29 11:00:21.468750,-167.15,76.67
260144,2018-06-29 11:00:21.500000,-173.93,76.67
260145,2018-06-29 11:00:21.531250,-172.42,76.77
260146,2018-06-29 11:00:21.562500,-169.21,76.77
260147,2018-06-29 11:00:21.593750,-154.86,76.77
260148,2018-06-29 11:00:21.625000,-119.86,76.77
260149,2018-06-29 11:00:21.656250,-70.82,76.77
260150,2018-06-29 11:00:21.687500,-17.88,76.77
260151,2018-06-29 11:00:21.718750,34.86,76.77
260152,2018-06-29 11:00:21.750000,81.01,76.77
260153,2018-06-29 11:00:21.781250,114.07,76.77
260154,2018-06-29 11:00:21.812500,137.56,76.77
260155,2018-06-29 11:00:21.843750,158.63,76.77
260156,2018-06-29 11:00:21.875000,176.29,76.77
260157,2018-06-29 11:00:21.906250,185.94,76.77
260158,2018-06-29 11:00:21.937500,187.55,76.77
260159,2018-06-29 11:00:21.968750,181.17,76.77
260160,2018-06-29 11:00:22.000000,162.24,76.77
260161,2018-06-29 11:00:22.031250,127.3,76.77
260162,2018-06-29 11:00:22.062500,81.11,76.77
260163,2018-06-29 11:00:22.093750,36.94,76.77
260164,2018-06-29 11:00:22.125000,7.15,76.77
260165,2018-06-29 11:00:22.156250,-9.22,76.77
260166,2018-06-29 11:00:22.187500,-22.56,76.77
260167,2018-06-29 11:00:22.218750,-36.39,76.77
260168,2018-06-29 11:00:22.250000,-46.54,76.77
260169,2018-06-29 11:00:22.281250,-53.32,76.77
260170,2018-06-29 11:00:22.312500,-63.52,76.77
260171,2018-06-29 11:00:22.343750,-85.34,76.77
260172,2018-06-29 11:00:22.375000,-122.15,76.77
260173,2018-06-29 11:00:22.406250,-160.91,76.77
260174,2018-06-29 11:00:22.437500,-174.67,76.77
260175,2018-06-29 11:00:22.468750,-150.79,76.77
260176,2018-06-29 11:00:22.500000,-105.99,76.77
260177,2018-06-29 11:00:22.531250,-64.65,76.9
260178,2018-06-29 11:00:22.562500,-35.77,76.9
260179,2018-06-29 11:00:22.593750,-17.08,76.9
260180,2018-06-29 11:00:22.625000,-6.09,76.9
260181,2018-06-29 11:00:22.656250,0.44,76.9
260182,2018-06-29 11:00:22.687500,7.93,76.9
260183,2018-06-29 11:00:22.718750,19.72,76.9
260184,2018-06-29 11:00:22.750000,34.87,76.9
260185,2018-06-29 11:00:22.781250,50.41,76.9
260186,2018-06-29 11:00:22.812500,62.05,76.9
260187,2018-06-29 11:00:22.843750,65.09,76.9
260188,2018-06-29 11:00:22.875000,57.94,76.9
260189,2018-06-29 11:00:22.906250,43.83,76.9
260190,2018-06-29 11:00:22.937500,27.65,76.9
260191,2018-06-29 11:00:22.968750,12.15,76.9
260192,2018-06-29 11:00:23.000000,-2.84,76.9
260193,2018-06-29 11:00:23.031250,-17.84,76.9
260194,2018-06-29 11:00:23.062500,-31.67,76.9
260195,2018-06-29 11:00:23.093750,-44.14,76.9
260196,2018-06-29 11:00:23.125000,-59.79,76.9
260197,2018-06-29 11:00:23.156250,-84.52,76.9
260198,2018-06-29 11:00:23.187500,-113.1,76.9
260199,2018-06-29 11:00:23.218750,-122.63,76.9
260200,2018-06-29 11:00:23.250000,-90.26,76.9
260201,2018-06-29 11:00:23.281250,-20.25,76.9
260202,2018-06-29 11:00:23.312500,57.1,76.9
260203,2018-06-29 11:00:23.343750,114.32,76.9
260204,2018-06-29 11:00:23.375000,144.39,76.9
260205,2018-06-29 11:00:23.406250,153.17,76.9
260206,2018-06-29 11:00:23.437500,148.58,76.9
260207,2018-06-29 11:00:23.468750,139.16,76.9
260208,2018-06-29 11:00:23.500000,132.65,76.9
260209,2018-06-29 11:00:23.531250,131.45,76.88
260210,2018-06-29 11:00:23.562500,132.61,76.88
260211,2018-06-29 11:00:23.593750,133.17,76.88
260212,2018-06-29 11:00:23.625000,131.04,76.88
260213,2018-06-29 11:00:23.656250,122.61,76.88
260214,2018-06-29 11:00:23.687500,105.55,76.88
260215,2018-06-29 11:00:23.718750,83.06,76.88
260216,2018-06-29 11:00:23.750000,60.58,76.88
260217,2018-06-29 11:00:23.781250,39.99,76.88
260218,2018-06-29 11:00:23.812500,20.41,76.88
260219,2018-06-29 11:00:23.843750,2.34,76.88
260220,2018-06-29 11:00:23.875000,-12.79,76.88
260221,2018-06-29 11:00:23.906250,-26.37,76.88
260222,2018-06-29 11:00:23.937500,-43.73,76.88
260223,2018-06-29 11:00:23.968750,-68.5,76.88
260224,2018-06-29 11:00:24.000000,-91.68,76.88
260225,2018-06-29 11:00:24.031250,-90.78,76.88
260226,2018-06-29 11:00:24.062500,-51.86,76.88
260227,2018-06-29 11:00:24.093750,10.44,76.88
260228,2018-06-29 11:00:24.125000,67.23,76.88
260229,2018-06-29 11:00:24.156250,102.87,76.88
260230,2018-06-29 11:00:24.187500,117.59,76.88
260231,2018-06-29 11:00:24.218750,115.12,76.88
260232,2018-06-29 11:00:24.250000,101.63,76.88
260233,2018-06-29 11:00:24.281250,87.81,76.88
260234,2018-06-29 11:00:24.312500,81.52,76.88
260235,2018-06-29 11:00:24.343750,81.93,76.88
260236,2018-06-29 11:00:24.375000,83.74,76.88
260237,2018-06-29 11:00:24.406250,82.86,76.88
260238,2018-06-29 11:00:24.437500,76.99,76.88
260239,2018-06-29 11:00:24.468750,65.49,76.88
260240,2018-06-29 11:00:24.500000,50.09,76.88
260241,2018-06-29 11:00:24.531250,32.98,76.9
260242,2018-06-29 11:00:24.562500,14.61,76.9
260243,2018-06-29 11:00:24.593750,-4.88,76.9
260244,2018-06-29 11:00:24.625000,-23.85,76.9
260245,2018-06-29 11:00:24.656250,-40.48,76.9
260246,2018-06-29 11:00:24.687500,-55.03,76.9
260247,2018-06-29 11:00:24.718750,-70.65,76.9
260248,2018-06-29 11:00:24.750000,-90.51,76.9
260249,2018-06-29 11:00:24.781250,-108.39,76.9
260250,2018-06-29 11:00:24.812500,-105.33,76.9
260251,2018-06-29 11:00:24.843750,-68.41,76.9
260252,2018-06-29 11:00:24.875000,-10.3,76.9
260253,2018-06-29 11:00:24.906250,42.5,76.9
260254,2018-06-29 11:00:24.937500,75.78,76.9
260255,2018-06-29 11:00:24.968750,90.94,76.9
260256,2018-06-29 11:00:25.000000,92.32,76.9
260257,2018-06-29 11:00:25.031250,84.48,76.9
260258,2018-06-29 11:00:25.062500,74.57,76.9
260259,2018-06-29 11:00:25.093750,68.09,76.9
260260,2018-06-29 11:00:25.125000,64.77,76.9
260261,2018-06-29 11:00:25.156250,61.86,76.9
260262,2018-06-29 11:00:25.187500,58.42,76.9
260263,2018-06-29 11:00:25.218750,53.57,76.9
260264,2018-06-29 11:00:25.250000,44.25,76.9
260265,2018-06-29 11:00:25.281250,29.11,76.9
260266,2018-06-29 11:00:25.312500,11.9,76.9
260267,2018-06-29 11:00:25.343750,-3.47,76.9
260268,2018-06-29 11:00:25.375000,-18.51,76.9
260269,2018-06-29 11:00:25.406250,-36.1,76.9
260270,2018-06-29 11:00:25.437500,-53.83,76.9
260271,2018-06-29 11:00:25.468750,-67.09,76.9
260272,2018-06-29 11:00:25.500000,-76.33,76.9
260273,2018-06-29 11:00:25.531250,-87.37,76.95
260274,2018-06-29 11:00:25.562500,-104.92,76.95
260275,2018-06-29 11:00:25.593750,-122.82,76.95
260276,2018-06-29 11:00:25.625000,-121.68,76.95
260277,2018-06-29 11:00:25.656250,-87.06,76.95
260278,2018-06-29 11:00:25.687500,-29.97,76.95
260279,2018-06-29 11:00:25.718750,23.14,76.95
260280,2018-06-29 11:00:25.750000,57.4,76.95
260281,2018-06-29 11:00:25.781250,74.75,76.95
260282,2018-06-29 11:00:25.812500,80.08,76.95
260283,2018-06-29 11:00:25.843750,76.7,76.95
260284,2018-06-29 11:00:25.875000,70.28,76.95
260285,2018-06-29 11:00:25.906250,66.36,76.95
260286,2018-06-29 11:00:25.937500,64.98,76.95
260287,2018-06-29 11:00:25.968750,62.97,76.95
260288,2018-06-29 11:00:26.000000,59.7,76.95
260289,2018-06-29 11:00:26.031250,56.38,76.95
260290,2018-06-29 11:00:26.062500,51.51,76.95
260291,2018-06-29 11:00:26.093750,41.67,76.95
260292,2018-06-29 11:00:26.125000,27.1,76.95
260293,2018-06-29 11:00:26.156250,12.55,76.95
260294,2018-06-29 11:00:26.187500,1.06,76.95
260295,2018-06-29 11:00:26.218750,-9.97,76.95
260296,2018-06-29 11:00:26.250000,-24.29,76.95
260297,2018-06-29 11:00:26.281250,-40.62,76.95
260298,2018-06-29 11:00:26.312500,-54.16,76.95
260299,2018-06-29 11:00:26.343750,-63.27,76.95
260300,2018-06-29 11:00:26.375000,-71.84,76.95
260301,2018-06-29 11:00:26.406250,-85.28,76.95
260302,2018-06-29 11:00:26.437500,-103.83,76.95
260303,2018-06-29 11:00:26.468750,-116.59,76.95
260304,2018-06-29 11:00:26.500000,-106.37,76.95
260305,2018-06-29 11:00:26.531250,-67.78,77.0
260306,2018-06-29 11:00:26.562500,-16.47,77.0
260307,2018-06-29 11:00:26.593750,26.01,77.0
260308,2018-06-29 11:00:26.625000,51.19,77.0
260309,2018-06-29 11:00:26.656250,62.43,77.0
260310,2018-06-29 11:00:26.687500,63.98,77.0
260311,2018-06-29 11:00:26.718750,59.68,77.0
260312,2018-06-29 11:00:26.750000,55.14,77.0
260313,2018-06-29 11:00:26.781250,53.77,77.0
260314,2018-06-29 11:00:26.812500,53.41,77.0
260315,2018-06-29 11:00:26.843750,51.23,77.0
260316,2018-06-29 11:00:26.875000,48.23,77.0
260317,2018-06-29 11:00:26.906250,45.61,77.0
260318,2018-06-29 11:00:26.937500,40.94,77.0
260319,2018-06-29 11:00:26.968750,31.52,77.0
260320,2018-06-29 11:00:27.000000,19.05,77.0
260321,2018-06-29 11:00:27.031250,7.73,77.0
260322,2018-06-29 11:00:27.062500,-1.02,77.0
260323,2018-06-29 11:00:27.093750,-9.47,77.0
260324,2018-06-29 11:00:27.125000,-19.94,77.0
260325,2018-06-29 11:00:27.156250,-32.14,77.0
260326,2018-06-29 11:00:27.187500,-43.61,77.0
260327,2018-06-29 11:00:27.218750,-52.48,77.0
260328,2018-06-29 11:00:27.250000,-59.33,77.0
260329,2018-06-29 11:00:27.281250,-67.03,77.0
260330,2018-06-29 11:00:27.312500,-78.39,77.0
260331,2018-06-29 11:00:27.343750,-90.86,77.0
260332,2018-06-29 11:00:27.375000,-93.16,77.0
260333,2018-06-29 11:00:27.406250,-74.06,77.0
260334,2018-06-29 11:00:27.437500,-36.83,77.0
260335,2018-06-29 11:00:27.468750,1.89,77.0
260336,2018-06-29 11:00:27.500000,28.76,77.0
260337,2018-06-29 11:00:27.531250,41.63,77.03
260338,2018-06-29 11:00:27.562500,43.49,77.03
260339,2018-06-29 11:00:27.593750,38.24,77.03
260340,2018-06-29 11:00:27.625000,31.72,77.03
260341,2018-06-29 11:00:27.656250,29.1,77.03
260342,2018-06-29 11:00:27.687500,30.43,77.03
260343,2018-06-29 11:00:27.718750,32.19,77.03
260344,2018-06-29 11:00:27.750000,32.35,77.03
260345,2018-06-29 11:00:27.781250,31.25,77.03
260346,2018-06-29 11:00:27.812500,28.16,77.03
260347,2018-06-29 11:00:27.843750,20.84,77.03
260348,2018-06-29 11:00:27.875000,9.69,77.03
260349,2018-06-29 11:00:27.906250,-1.24,77.03
260350,2018-06-29 11:00:27.937500,-9.58,77.03
260351,2018-06-29 11:00:27.968750,-18.04,77.03
260352,2018-06-29 11:00:28.000000,-29.54,77.03
260353,2018-06-29 11:00:28.031250,-42.08,77.03
260354,2018-06-29 11:00:28.062500,-51.64,77.03
260355,2018-06-29 11:00:28.093750,-57.93,77.03
260356,2018-06-29 11:00:28.125000,-64.68,77.03
260357,2018-06-29 11:00:28.156250,-75.34,77.03
260358,2018-06-29 11:00:28.187500,-88.3,77.03
260359,2018-06-29 11:00:28.218750,-93.19,77.03
260360,2018-06-29 11:00:28.250000,-77.57,77.03
260361,2018-06-29 11:00:28.281250,-42.57,77.03
260362,2018-06-29 11:00:28.312500,-4.61,77.03
260363,2018-06-29 11:00:28.343750,22.16,77.03
260364,2018-06-29 11:00:28.375000,36.21,77.03
260365,2018-06-29 11:00:28.406250,41.5,77.03
260366,2018-06-29 11:00:28.437500,41.05,77.03
260367,2018-06-29 11:00:28.468750,38.25,77.03
260368,2018-06-29 11:00:28.500000,36.08,77.03
260369,2018-06-29 11:00:28.531250,35.1,77.02
260370,2018-06-29 11:00:28.562500,34.75,77.02
260371,2018-06-29 11:00:28.593750,34.62,77.02
260372,2018-06-29 11:00:28.625000,34.18,77.02
260373,2018-06-29 11:00:28.656250,32.4,77.02
260374,2018-06-29 11:00:28.687500,28.18,77.02
260375,2018-06-29 11:00:28.718750,21.23,77.02
260376,2018-06-29 11:00:28.750000,12.58,77.02
260377,2018-06-29 11:00:28.781250,3.93,77.02
260378,2018-06-29 11:00:28.812500,-3.79,77.02
260379,2018-06-29 11:00:28.843750,-11.06,77.02
260380,2018-06-29 11:00:28.875000,-19.29,77.02
260381,2018-06-29 11:00:28.906250,-29.39,77.02
260382,2018-06-29 11:00:28.937500,-40.08,77.02
260383,2018-06-29 11:00:28.968750,-49.26,77.02
260384,2018-06-29 11:00:29.000000,-57.09,77.02
260385,2018-06-29 11:00:29.031250,-65.68,77.02
260386,2018-06-29 11:00:29.062500,-76.74,77.02
260387,2018-06-29 11:00:29.093750,-88.62,77.02
260388,2018-06-29 11:00:29.125000,-93.06,77.02
260389,2018-06-29 11:00:29.156250,-79.46,77.02
260390,2018-06-29 11:00:29.187500,-47.71,77.02
260391,2018-06-29 11:00:29.218750,-11.18,77.02
260392,2018-06-29 11:00:29.250000,16.98,77.02
260393,2018-06-29 11:00:29.281250,33.83,77.02
260394,2018-06-29 11:00:29.312500,41.86,77.02
260395,2018-06-29 11:00:29.343750,43.08,77.02
260396,2018-06-29 11:00:29.375000,40.16,77.02
260397,2018-06-29 11:00:29.406250,37.33,77.02
260398,2018-06-29 11:00:29.437500,37.29,77.02
260399,2018-06-29 11:00:29.468750,39.13,77.02
260400,2018-06-29 11:00:29.500000,40.73,77.02
260401,2018-06-29 11:00:29.531250,41.27,76.97
260402,2018-06-29 11:00:29.562500,40.32,76.97
260403,2018-06-29 11:00:29.593750,37.23,76.97
260404,2018-06-29 11:00:29.625000,32.35,76.97
260405,2018-06-29 11:00:29.656250,26.52,76.97
260406,2018-06-29 11:00:29.687500,19.44,76.97
260407,2018-06-29 11:00:29.718750,10.75,76.97
260408,2018-06-29 11:00:29.750000,1.63,76.97
260409,2018-06-29 11:00:29.781250,-6.61,76.97
260410,2018-06-29 11:00:29.812500,-14.69,76.97
260411,2018-06-29 11:00:29.843750,-23.93,76.97
260412,2018-06-29 11:00:29.875000,-33.45,76.97
260413,2018-06-29 11:00:29.906250,-41.18,76.97
260414,2018-06-29 11:00:29.937500,-47.4,76.97
260415,2018-06-29 11:00:29.968750,-54.96,76.97
260416,2018-06-29 11:00:30.000000,-65.93,76.97
260417,2018-06-29 11:00:30.031250,-76.83,76.97
260418,2018-06-29 11:00:30.062500,-76.96,76.97
260419,2018-06-29 11:00:30.093750,-57.35,76.97
260420,2018-06-29 11:00:30.125000,-23.27,76.97
260421,2018-06-29 11:00:30.156250,8.99,76.97
260422,2018-06-29 11:00:30.187500,28.33,76.97
260423,2018-06-29 11:00:30.218750,35.13,76.97
260424,2018-06-29 11:00:30.250000,34.08,76.97
260425,2018-06-29 11:00:30.281250,28.82,76.97
260426,2018-06-29 11:00:30.312500,23.06,76.97
260427,2018-06-29 11:00:30.343750,20.5,76.97
260428,2018-06-29 11:00:30.375000,22.05,76.97
260429,2018-06-29 11:00:30.406250,25.18,76.97
260430,2018-06-29 11:00:30.437500,27.6,76.97
260431,2018-06-29 11:00:30.468750,29.26,76.97
260432,2018-06-29 11:00:30.500000,29.59,76.97
260433,2018-06-29 11:00:30.531250,26.32,76.87
260434,2018-06-29 11:00:30.562500,18.73,76.87
260435,2018-06-29 11:00:30.593750,9.56,76.87
260436,2018-06-29 11:00:30.625000,1.98,76.87
260437,2018-06-29 11:00:30.656250,-4.13,76.87
260438,2018-06-29 11:00:30.687500,-11.42,76.87
260439,2018-06-29 11:00:30.718750,-20.9,76.87
260440,2018-06-29 11:00:30.750000,-30.41,76.87
260441,2018-06-29 11:00:30.781250,-37.91,76.87
260442,2018-06-29 11:00:30.812500,-44.48,76.87
260443,2018-06-29 11:00:30.843750,-52.73,76.87
260444,2018-06-29 11:00:30.875000,-64.24,76.87
260445,2018-06-29 11:00:30.906250,-76.04,76.87
260446,2018-06-29 11:00:30.937500,-78.41,76.87
260447,2018-06-29 11:00:30.968750,-62.14,76.87
260448,2018-06-29 11:00:31.000000,-30.42,76.87
260449,2018-06-29 11:00:31.031250,2.34,76.87
260450,2018-06-29 11:00:31.062500,24.52,76.87
260451,2018-06-29 11:00:31.093750,34.38,76.87
260452,2018-06-29 11:00:31.125000,35.27,76.87
260453,2018-06-29 11:00:31.156250,31.28,76.87
260454,2018-06-29 11:00:31.187500,27.05,76.87
260455,2018-06-29 11:00:31.218750,26.62,76.87
260456,2018-06-29 11:00:31.250000,30.1,76.87
260457,2018-06-29 11:00:31.281250,33.94,76.87
260458,2018-06-29 11:00:31.312500,35.73,76.87
260459,2018-06-29 11:00:31.343750,36.07,76.87
260460,2018-06-29 11:00:31.375000,35.05,76.87
260461,2018-06-29 11:00:31.406250,30.31,76.87
260462,2018-06-29 11:00:31.437500,20.56,76.87
260463,2018-06-29 11:00:31.468750,8.47,76.87
260464,2018-06-29 11:00:31.500000,-2.19,76.87
260465,2018-06-29 11:00:31.531250,-11.39,76.72
260466,2018-06-29 11:00:31.562500,-22.06,76.72
260467,2018-06-29 11:00:31.593750,-34.74,76.72
260468,2018-06-29 11:00:31.625000,-46.54,76.72
260469,2018-06-29 11:00:31.656250,-55.79,76.72
260470,2018-06-29 11:00:31.687500,-64.43,76.72
260471,2018-06-29 11:00:31.718750,-75.76,76.72
260472,2018-06-29 11:00:31.750000,-91.16,76.72
260473,2018-06-29 11:00:31.781250,-105.09,76.72
260474,2018-06-29 11:00:31.812500,-103.93,76.72
260475,2018-06-29 11:00:31.843750,-78.43,76.72
260476,2018-06-29 11:00:31.875000,-36.68,76.72
260477,2018-06-29 11:00:31.906250,3.17,76.72
260478,2018-06-29 11:00:31.937500,30.58,76.72
260479,2018-06-29 11:00:31.968750,46.05,76.72
260480,2018-06-29 11:00:32.000000,52.37,76.72
260481,2018-06-29 11:00:32.031250,52.03,76.72
260482,2018-06-29 11:00:32.062500,49.56,76.72
260483,2018-06-29 11:00:32.093750,49.14,76.72
260484,2018-06-29 11:00:32.125000,50.91,76.72
260485,2018-06-29 11:00:32.156250,52.41,76.72
260486,2018-06-29 11:00:32.187500,52.38,76.72
260487,2018-06-29 11:00:32.218750,51.21,76.72
260488,2018-06-29 11:00:32.250000,48.77,76.72
260489,2018-06-29 11:00:32.281250,43.07,76.72
260490,2018-06-29 11:00:32.312500,32.54,76.72
260491,2018-06-29 11:00:32.343750,19.59,76.72
260492,2018-06-29 11:00:32.375000,8.54,76.72
260493,2018-06-29 11:00:32.406250,-0.44,76.72
260494,2018-06-29 11:00:32.437500,-11.14,76.72
260495,2018-06-29 11:00:32.468750,-24.92,76.72
260496,2018-06-29 11:00:32.500000,-38.59,76.72
260497,2018-06-29 11:00:32.531250,-49.02,76.55
260498,2018-06-29 11:00:32.562500,-57.14,76.55
260499,2018-06-29 11:00:32.593750,-67.14,76.55
260500,2018-06-29 11:00:32.625000,-82.14,76.55
260501,2018-06-29 11:00:32.656250,-97.1,76.55
260502,2018-06-29 11:00:32.687500,-97.26,76.55
260503,2018-06-29 11:00:32.718750,-71.19,76.55
260504,2018-06-29 11:00:32.750000,-25.81,76.55
260505,2018-06-29 11:00:32.781250,19.03,76.55
260506,2018-06-29 11:00:32.812500,49.76,76.55
260507,2018-06-29 11:00:32.843750,65.24,76.55
260508,2018-06-29 11:00:32.875000,68.63,76.55
260509,2018-06-29 11:00:32.906250,63.88,76.55
260510,2018-06-29 11:00:32.937500,57.34,76.55
260511,2018-06-29 11:00:32.968750,54.51,76.55
260512,2018-06-29 11:00:33.000000,55.7,76.55
260513,2018-06-29 11:00:33.031250,58.13,76.55
260514,2018-06-29 11:00:33.062500,60.38,76.55
260515,2018-06-29 11:00:33.093750,61.81,76.55
260516,2018-06-29 11:00:33.125000,60.21,76.55
260517,2018-06-29 11:00:33.156250,53.27,76.55
260518,2018-06-29 11:00:33.187500,41.7,76.55
260519,2018-06-29 11:00:33.218750,28.75,76.55
260520,2018-06-29 11:00:33.250000,16.79,76.55
260521,2018-06-29 11:00:33.281250,5.25,76.55
260522,2018-06-29 11:00:33.312500,-7.75,76.55
260523,2018-06-29 11:00:33.343750,-22.12,76.55
260524,2018-06-29 11:00:33.375000,-35.42,76.55
260525,2018-06-29 11:00:33.406250,-45.41,76.55
260526,2018-06-29 11:00:33.437500,-52.35,76.55
260527,2018-06-29 11:00:33.468750,-59.22,76.55
260528,2018-06-29 11:00:33.500000,-69.67,76.55
260529,2018-06-29 11:00:33.531250,-82.8,76.38
260530,2018-06-29 11:00:33.562500,-88.24,76.38
260531,2018-06-29 11:00:33.593750,-73.21,76.38
260532,2018-06-29 11:00:33.625000,-37.66,76.38
260533,2018-06-29 11:00:33.656250,3.53,76.38
260534,2018-06-29 11:00:33.687500,35.31,76.38
260535,2018-06-29 11:00:33.718750,52.69,76.38
260536,2018-06-29 11:00:33.750000,56.55,76.38
260537,2018-06-29 11:00:33.781250,50.13,76.38
260538,2018-06-29 11:00:33.812500,40.97,76.38
260539,2018-06-29 11:00:33.843750,36.91,76.38
260540,2018-06-29 11:00:33.875000,38.38,76.38
260541,2018-06-29 11:00:33.906250,40.28,76.38
260542,2018-06-29 11:00:33.937500,40.44,76.38
260543,2018-06-29 11:00:33.968750,39.91,76.38
260544,2018-06-29 11:00:34.000000,37.23,76.38
260545,2018-06-29 11:00:34.031250,29.31,76.38
260546,2018-06-29 11:00:34.062500,17.02,76.38
260547,2018-06-29 11:00:34.093750,4.61,76.38
260548,2018-06-29 11:00:34.125000,-6.38,76.38
260549,2018-06-29 11:00:34.156250,-18.49,76.38
260550,2018-06-29 11:00:34.187500,-33.38,76.38
260551,2018-06-29 11:00:34.218750,-48.77,76.38
260552,2018-06-29 11:00:34.250000,-61.36,76.38
260553,2018-06-29 11:00:34.281250,-71.15,76.38
260554,2018-06-29 11:00:34.312500,-82.04,76.38
260555,2018-06-29 11:00:34.343750,-97.67,76.38
260556,2018-06-29 11:00:34.375000,-113.14,76.38
260557,2018-06-29 11:00:34.406250,-112.62,76.38
260558,2018-06-29 11:00:34.437500,-83.65,76.38
260559,2018-06-29 11:00:34.468750,-33.99,76.38
260560,2018-06-29 11:00:34.500000,14.68,76.38
260561,2018-06-29 11:00:34.531250,47.77,76.2
260562,2018-06-29 11:00:34.562500,64.2,76.2
260563,2018-06-29 11:00:34.593750,68.17,76.2
260564,2018-06-29 11:00:34.625000,64.45,76.2
260565,2018-06-29 11:00:34.656250,58.68,76.2
260566,2018-06-29 11:00:34.687500,54.99,76.2
260567,2018-06-29 11:00:34.718750,53.81,76.2
260568,2018-06-29 11:00:34.750000,53.52,76.2
260569,2018-06-29 11:00:34.781250,53.01,76.2
260570,2018-06-29 11:00:34.812500,51.12,76.2
260571,2018-06-29 11:00:34.843750,45.93,76.2
260572,2018-06-29 11:00:34.875000,36.67,76.2
260573,2018-06-29 11:00:34.906250,25.26,76.2
260574,2018-06-29 11:00:34.937500,13.23,76.2
260575,2018-06-29 11:00:34.968750,-0.5,76.2
260576,2018-06-29 11:00:35.000000,-16.55,76.2
260577,2018-06-29 11:00:35.031250,-32.26,76.2
260578,2018-06-29 11:00:35.062500,-44.87,76.2
260579,2018-06-29 11:00:35.093750,-55.47,76.2
260580,2018-06-29 11:00:35.125000,-68.05,76.2
260581,2018-06-29 11:00:35.156250,-84.87,76.2
260582,2018-06-29 11:00:35.187500,-99.49,76.2
260583,2018-06-29 11:00:35.218750,-95.82,76.2
260584,2018-06-29 11:00:35.250000,-63.56,76.2
260585,2018-06-29 11:00:35.281250,-13.55,76.2
260586,2018-06-29 11:00:35.312500,32.26,76.2
260587,2018-06-29 11:00:35.343750,61.78,76.2
260588,2018-06-29 11:00:35.375000,75.37,76.2
260589,2018-06-29 11:00:35.406250,76.55,76.2
260590,2018-06-29 11:00:35.437500,69.89,76.2
260591,2018-06-29 11:00:35.468750,62.04,76.2
260592,2018-06-29 11:00:35.500000,57.57,76.2
260593,2018-06-29 11:00:35.531250,55.83,75.98
260594,2018-06-29 11:00:35.562500,54.33,75.98
260595,2018-06-29 11:00:35.593750,52.75,75.98
260596,2018-06-29 11:00:35.625000,50.78,75.98
260597,2018-06-29 11:00:35.656250,45.03,75.98
260598,2018-06-29 11:00:35.687500,33.36,75.98
260599,2018-06-29 11:00:35.718750,19.38,75.98
260600,2018-06-29 11:00:35.750000,7.32,75.98
260601,2018-06-29 11:00:35.781250,-4.17,75.98
260602,2018-06-29 11:00:35.812500,-18.02,75.98
260603,2018-06-29 11:00:35.843750,-32.73,75.98
260604,2018-06-29 11:00:35.875000,-44.87,75.98
260605,2018-06-29 11:00:35.906250,-54.31,75.98
260606,2018-06-29 11:00:35.937500,-64.41,75.98
260607,2018-06-29 11:00:35.968750,-78.54,75.98
260608,2018-06-29 11:00:36.000000,-93.97,75.98
260609,2018-06-29 11:00:36.031250,-97.28,75.98
260610,2018-06-29 11:00:36.062500,-74.39,75.98
260611,2018-06-29 11:00:36.093750,-28.84,75.98
260612,2018-06-29 11:00:36.125000,19.02,75.98
260613,2018-06-29 11:00:36.156250,52.39,75.98
260614,2018-06-29 11:00:36.187500,68.22,75.98
260615,2018-06-29 11:00:36.218750,69.69,75.98
260616,2018-06-29 11:00:36.250000,61.54,75.98
260617,2018-06-29 11:00:36.281250,51.46,75.98
260618,2018-06-29 11:00:36.312500,46.16,75.98
260619,2018-06-29 11:00:36.343750,46.02,75.98
260620,2018-06-29 11:00:36.375000,47.19,75.98
260621,2018-06-29 11:00:36.406250,47.35,75.98
260622,2018-06-29 11:00:36.437500,46.4,75.98
260623,2018-06-29 11:00:36.468750,43.21,75.98
260624,2018-06-29 11:00:36.500000,35.24,75.98
260625,2018-06-29 11:00:36.531250,22.31,75.77
260626,2018-06-29 11:00:36.562500,8.81,75.77
260627,2018-06-29 11:00:36.593750,-1.39,75.77
260628,2018-06-29 11:00:36.625000,-10.43,75.77
260629,2018-06-29 11:00:36.656250,-22.63,75.77
260630,2018-06-29 11:00:36.687500,-36.86,75.77
260631,2018-06-29 11:00:36.718750,-48.36,75.77
260632,2018-06-29 11:00:36.750000,-56.02,75.77
260633,2018-06-29 11:00:36.781250,-63.45,75.77
260634,2018-06-29 11:00:36.812500,-74.83,75.77
260635,2018-06-29 11:00:36.843750,-89.2,75.77
260636,2018-06-29 11:00:36.875000,-95.51,75.77
260637,2018-06-29 11:00:36.906250,-78.98,75.77
260638,2018-06-29 11:00:36.937500,-38.97,75.77
260639,2018-06-29 11:00:36.968750,7.31,75.77
260640,2018-06-29 11:00:37.000000,42.27,75.77
260641,2018-06-29 11:00:37.031250,60.17,75.77
260642,2018-06-29 11:00:37.062500,62.59,75.77
260643,2018-06-29 11:00:37.093750,54.19,75.77
260644,2018-06-29 11:00:37.125000,43.65,75.77
260645,2018-06-29 11:00:37.156250,38.79,75.77
260646,2018-06-29 11:00:37.187500,39.82,75.77
260647,2018-06-29 11:00:37.218750,41.67,75.77
260648,2018-06-29 11:00:37.250000,41.52,75.77
260649,2018-06-29 11:00:37.281250,40.17,75.77
260650,2018-06-29 11:00:37.312500,37.18,75.77
260651,2018-06-29 11:00:37.343750,29.96,75.77
260652,2018-06-29 11:00:37.375000,18.43,75.77
260653,2018-06-29 11:00:37.406250,6.5,75.77
260654,2018-06-29 11:00:37.437500,-3.12,75.77
260655,2018-06-29 11:00:37.468750,-12.25,75.77
260656,2018-06-29 11:00:37.500000,-23.06,75.77
260657,2018-06-29 11:00:37.531250,-34.21,75.55
260658,2018-06-29 11:00:37.562500,-43.15,75.55
260659,2018-06-29 11:00:37.593750,-50.07,75.55
260660,2018-06-29 11:00:37.625000,-58.25,75.55
260661,2018-06-29 11:00:37.656250,-70.89,75.55
260662,2018-06-29 11:00:37.687500,-84.69,75.55
260663,2018-06-29 11:00:37.718750,-86.81,75.55
260664,2018-06-29 11:00:37.750000,-65.24,75.55
260665,2018-06-29 11:00:37.781250,-24.46,75.55
260666,2018-06-29 11:00:37.812500,16.92,75.55
260667,2018-06-29 11:00:37.843750,44.56,75.55
260668,2018-06-29 11:00:37.875000,56.62,75.55
260669,2018-06-29 11:00:37.906250,56.61,75.55
260670,2018-06-29 11:00:37.937500,48.56,75.55
260671,2018-06-29 11:00:37.968750,38.77,75.55
260672,2018-06-29 11:00:38.000000,33.38,75.55
260673,2018-06-29 11:00:38.031250,33.22,75.55
260674,2018-06-29 11:00:38.062500,34.77,75.55
260675,2018-06-29 11:00:38.093750,35.35,75.55
260676,2018-06-29 11:00:38.125000,34.35,75.55
260677,2018-06-29 11:00:38.156250,30.88,75.55
260678,2018-06-29 11:00:38.187500,23.6,75.55
260679,2018-06-29 11:00:38.218750,12.45,75.55
260680,2018-06-29 11:00:38.250000,-0.96,75.55
260681,2018-06-29 11:00:38.281250,-14.93,75.55
260682,2018-06-29 11:00:38.312500,-28.45,75.55
260683,2018-06-29 11:00:38.343750,-40.23,75.55
260684,2018-06-29 11:00:38.375000,-49.65,75.55
260685,2018-06-29 11:00:38.406250,-59.23,75.55
260686,2018-06-29 11:00:38.437500,-72.43,75.55
260687,2018-06-29 11:00:38.468750,-84.88,75.55
260688,2018-06-29 11:00:38.500000,-82.55,75.55
260689,2018-06-29 11:00:38.531250,-56.22,75.37
260690,2018-06-29 11:00:38.562500,-14.78,75.37
260691,2018-06-29 11:00:38.593750,23.44,75.37
260692,2018-06-29 11:00:38.625000,48.14,75.37
260693,2018-06-29 11:00:38.656250,58.91,75.37
260694,2018-06-29 11:00:38.687500,57.45,75.37
260695,2018-06-29 11:00:38.718750,47.79,75.37
260696,2018-06-29 11:00:38.750000,38.31,75.37
260697,2018-06-29 11:00:38.781250,35.2,75.37
260698,2018-06-29 11:00:38.812500,36.57,75.37
260699,2018-06-29 11:00:38.843750,36.93,75.37
260700,2018-06-29 11:00:38.875000,34.38,75.37
260701,2018-06-29 11:00:38.906250,30.07,75.37
260702,2018-06-29 11:00:38.937500,23.67,75.37
260703,2018-06-29 11:00:38.968750,13.65,75.37
260704,2018-06-29 11:00:39.000000,0.36,75.37
260705,2018-06-29 11:00:39.031250,-13.61,75.37
260706,2018-06-29 11:00:39.062500,-25.83,75.37
260707,2018-06-29 11:00:39.093750,-35.87,75.37
260708,2018-06-29 11:00:39.125000,-45.39,75.37
260709,2018-06-29 11:00:39.156250,-57.17,75.37
260710,2018-06-29 11:00:39.187500,-71.53,75.37
260711,2018-06-29 11:00:39.218750,-80.6,75.37
260712,2018-06-29 11:00:39.250000,-70.77,75.37
260713,2018-06-29 11:00:39.281250,-37.71,75.37
260714,2018-06-29 11:00:39.312500,5.27,75.37
260715,2018-06-29 11:00:39.343750,40.01,75.37
260716,2018-06-29 11:00:39.375000,58.52,75.37
260717,2018-06-29 11:00:39.406250,62.27,75.37
260718,2018-06-29 11:00:39.437500,55.91,75.37
260719,2018-06-29 11:00:39.468750,46.19,75.37
260720,2018-06-29 11:00:39.500000,39.57,75.37
260721,2018-06-29 11:00:39.531250,37.68,75.18
260722,2018-06-29 11:00:39.562500,38.02,75.18
260723,2018-06-29 11:00:39.593750,38.32,75.18
260724,2018-06-29 11:00:39.625000,37.47,75.18
260725,2018-06-29 11:00:39.656250,33.92,75.18
260726,2018-06-29 11:00:39.687500,26.51,75.18
260727,2018-06-29 11:00:39.718750,16.52,75.18
260728,2018-06-29 11:00:39.750000,6.15,75.18
260729,2018-06-29 11:00:39.781250,-4.34,75.18
260730,2018-06-29 11:00:39.812500,-15.96,75.18
260731,2018-06-29 11:00:39.843750,-27.64,75.18
260732,2018-06-29 11:00:39.875000,-36.8,75.18
260733,2018-06-29 11:00:39.906250,-43.46,75.18
260734,2018-06-29 11:00:39.937500,-51.69,75.18
260735,2018-06-29 11:00:39.968750,-64.87,75.18
260736,2018-06-29 11:00:40.000000,-77.81,75.18
260737,2018-06-29 11:00:40.031250,-76.52,75.18
260738,2018-06-29 11:00:40.062500,-52.45,75.18
260739,2018-06-29 11:00:40.093750,-15.2,75.18
260740,2018-06-29 11:00:40.125000,17.26,75.18
260741,2018-06-29 11:00:40.156250,36.47,75.18
260742,2018-06-29 11:00:40.187500,43.37,75.18
260743,2018-06-29 11:00:40.218750,36.99,75.18
260744,2018-06-29 11:00:40.250000,16.52,75.18
260745,2018-06-29 11:00:40.281250,-9.14,75.18
260746,2018-06-29 11:00:40.312500,-23.91,75.18
260747,2018-06-29 11:00:40.343750,-16.03,75.18
260748,2018-06-29 11:00:40.375000,12.3,75.18
260749,2018-06-29 11:00:40.406250,43.57,75.18
260750,2018-06-29 11:00:40.437500,58.05,75.18
260751,2018-06-29 11:00:40.468750,51.76,75.18
260752,2018-06-29 11:00:40.500000,37.15,75.18
260753,2018-06-29 11:00:40.531250,26.26,75.02
260754,2018-06-29 11:00:40.562500,20.19,75.02
260755,2018-06-29 11:00:40.593750,13.08,75.02
260756,2018-06-29 11:00:40.625000,-1.17,75.02
260757,2018-06-29 11:00:40.656250,-24.54,75.02
260758,2018-06-29 11:00:40.687500,-52.93,75.02
260759,2018-06-29 11:00:40.718750,-79.35,75.02
260760,2018-06-29 11:00:40.750000,-97.55,75.02
260761,2018-06-29 11:00:40.781250,-99.46,75.02
260762,2018-06-29 11:00:40.812500,-75.24,75.02
260763,2018-06-29 11:00:40.843750,-24.96,75.02
260764,2018-06-29 11:00:40.875000,33.88,75.02
260765,2018-06-29 11:00:40.906250,79.53,75.02
260766,2018-06-29 11:00:40.937500,103.29,75.02
260767,2018-06-29 11:00:40.968750,111.23,75.02
260768,2018-06-29 11:00:41.000000,115.38,75.02
260769,2018-06-29 11:00:41.031250,122.26,75.02
260770,2018-06-29 11:00:41.062500,123.21,75.02
260771,2018-06-29 11:00:41.093750,102.33,75.02
260772,2018-06-29 11:00:41.125000,58.56,75.02
260773,2018-06-29 11:00:41.156250,8.83,75.02
260774,2018-06-29 11:00:41.187500,-31.42,75.02
260775,2018-06-29 11:00:41.218750,-58.05,75.02
260776,2018-06-29 11:00:41.250000,-74.26,75.02
260777,2018-06-29 11:00:41.281250,-88.91,75.02
260778,2018-06-29 11:00:41.312500,-110.76,75.02
260779,2018-06-29 11:00:41.343750,-137.17,75.02
260780,2018-06-29 11:00:41.375000,-157.42,75.02
260781,2018-06-29 11:00:41.406250,-167.76,75.02
260782,2018-06-29 11:00:41.437500,-174.57,75.02
260783,2018-06-29 11:00:41.468750,-183.73,75.02
260784,2018-06-29 11:00:41.500000,-190.58,75.02
260785,2018-06-29 11:00:41.531250,-180.12,74.88
260786,2018-06-29 11:00:41.562500,-140.48,74.88
260787,2018-06-29 11:00:41.593750,-78.13,74.88
260788,2018-06-29 11:00:41.625000,-14.05,74.88
260789,2018-06-29 11:00:41.656250,35.72,74.88
260790,2018-06-29 11:00:41.687500,68.33,74.88
260791,2018-06-29 11:00:41.718750,85.25,74.88
260792,2018-06-29 11:00:41.750000,87.07,74.88
260793,2018-06-29 11:00:41.781250,77.86,74.88
260794,2018-06-29 11:00:41.812500,66.19,74.88
260795,2018-06-29 11:00:41.843750,58.59,74.88
260796,2018-06-29 11:00:41.875000,56.15,74.88
260797,2018-06-29 11:00:41.906250,57.42,74.88
260798,2018-06-29 11:00:41.937500,59.88,74.88
260799,2018-06-29 11:00:41.968750,59.93,74.88
260800,2018-06-29 11:00:42.000000,56.46,74.88
260801,2018-06-29 11:00:42.031250,52.23,74.88
260802,2018-06-29 11:00:42.062500,49.06,74.88
260803,2018-06-29 11:00:42.093750,45.04,74.88
260804,2018-06-29 11:00:42.125000,38.01,74.88
260805,2018-06-29 11:00:42.156250,27.51,74.88
260806,2018-06-29 11:00:42.187500,12.3,74.88
260807,2018-06-29 11:00:42.218750,-9.87,74.88
260808,2018-06-29 11:00:42.250000,-40.52,74.88
260809,2018-06-29 11:00:42.281250,-77.96,74.88
260810,2018-06-29 11:00:42.312500,-111.0,74.88
260811,2018-06-29 11:00:42.343750,-119.88,74.88
260812,2018-06-29 11:00:42.375000,-95.4,74.88
260813,2018-06-29 11:00:42.406250,-52.68,74.88
260814,2018-06-29 11:00:42.437500,-15.02,74.88
260815,2018-06-29 11:00:42.468750,8.78,74.88
260816,2018-06-29 11:00:42.500000,22.88,74.88
260817,2018-06-29 11:00:42.531250,31.01,74.75
260818,2018-06-29 11:00:42.562500,34.67,74.75
260819,2018-06-29 11:00:42.593750,37.85,74.75
260820,2018-06-29 11:00:42.625000,45.01,74.75
260821,2018-06-29 11:00:42.656250,56.62,74.75
260822,2018-06-29 11:00:42.687500,71.36,74.75
260823,2018-06-29 11:00:42.718750,88.56,74.75
260824,2018-06-29 11:00:42.750000,105.34,74.75
260825,2018-06-29 11:00:42.781250,114.95,74.75
260826,2018-06-29 11:00:42.812500,111.64,74.75
260827,2018-06-29 11:00:42.843750,95.78,74.75
260828,2018-06-29 11:00:42.875000,74.2,74.75
260829,2018-06-29 11:00:42.906250,54.43,74.75
260830,2018-06-29 11:00:42.937500,36.2,74.75
260831,2018-06-29 11:00:42.968750,13.07,74.75
260832,2018-06-29 11:00:43.000000,-16.42,74.75
260833,2018-06-29 11:00:43.031250,-45.24,74.75
260834,2018-06-29 11:00:43.062500,-64.56,74.75
260835,2018-06-29 11:00:43.093750,-69.3,74.75
260836,2018-06-29 11:00:43.125000,-60.77,74.75
260837,2018-06-29 11:00:43.156250,-45.56,74.75
260838,2018-06-29 11:00:43.187500,-25.54,74.75
260839,2018-06-29 11:00:43.218750,7.58,74.75
260840,2018-06-29 11:00:43.250000,58.46,74.75
260841,2018-06-29 11:00:43.281250,115.25,74.75
260842,2018-06-29 11:00:43.312500,159.29,74.75
260843,2018-06-29 11:00:43.343750,180.28,74.75
260844,2018-06-29 11:00:43.375000,175.38,74.75
260845,2018-06-29 11:00:43.406250,144.31,74.75
260846,2018-06-29 11:00:43.437500,95.76,74.75
260847,2018-06-29 11:00:43.468750,50.84,74.75
260848,2018-06-29 11:00:43.500000,27.54,74.75
260849,2018-06-29 11:00:43.531250,23.36,74.62
260850,2018-06-29 11:00:43.562500,21.16,74.62
260851,2018-06-29 11:00:43.593750,8.89,74.62
260852,2018-06-29 11:00:43.625000,-13.71,74.62
260853,2018-06-29 11:00:43.656250,-42.66,74.62
260854,2018-06-29 11:00:43.687500,-73.89,74.62
260855,2018-06-29 11:00:43.718750,-100.62,74.62
260856,2018-06-29 11:00:43.750000,-115.15,74.62
260857,2018-06-29 11:00:43.781250,-116.41,74.62
260858,2018-06-29 11:00:43.812500,-112.21,74.62
260859,2018-06-29 11:00:43.843750,-110.54,74.62
260860,2018-06-29 11:00:43.875000,-111.82,74.62
260861,2018-06-29 11:00:43.906250,-113.02,74.62
260862,2018-06-29 11:00:43.937500,-114.72,74.62
260863,2018-06-29 11:00:43.968750,-120.25,74.62
260864,2018-06-29 11:00:44.000000,-130.87,74.62
260865,2018-06-29 11:00:44.031250,-143.06,74.62
260866,2018-06-29 11:00:44.062500,-145.97,74.62
260867,2018-06-29 11:00:44.093750,-124.8,74.62
260868,2018-06-29 11:00:44.125000,-75.41,74.62
260869,2018-06-29 11:00:44.156250,-13.4,74.62
260870,2018-06-29 11:00:44.187500,39.16,74.62
260871,2018-06-29 11:00:44.218750,72.2,74.62
260872,2018-06-29 11:00:44.250000,88.8,74.62
260873,2018-06-29 11:00:44.281250,94.9,74.62
260874,2018-06-29 11:00:44.312500,94.42,74.62
260875,2018-06-29 11:00:44.343750,90.81,74.62
260876,2018-06-29 11:00:44.375000,87.05,74.62
260877,2018-06-29 11:00:44.406250,83.86,74.62
260878,2018-06-29 11:00:44.437500,80.66,74.62
260879,2018-06-29 11:00:44.468750,77.9,74.62
260880,2018-06-29 11:00:44.500000,75.93,74.62
260881,2018-06-29 11:00:44.531250,72.35,74.48
260882,2018-06-29 11:00:44.562500,64.42,74.48
260883,2018-06-29 11:00:44.593750,53.08,74.48
260884,2018-06-29 11:00:44.625000,41.59,74.48
260885,2018-06-29 11:00:44.656250,30.82,74.48
260886,2018-06-29 11:00:44.687500,19.0,74.48
260887,2018-06-29 11:00:44.718750,5.81,74.48
260888,2018-06-29 11:00:44.750000,-6.33,74.48
260889,2018-06-29 11:00:44.781250,-15.91,74.48
260890,2018-06-29 11:00:44.812500,-24.76,74.48
260891,2018-06-29 11:00:44.843750,-35.64,74.48
260892,2018-06-29 11:00:44.875000,-48.73,74.48
260893,2018-06-29 11:00:44.906250,-62.19,74.48
260894,2018-06-29 11:00:44.937500,-75.24,74.48
260895,2018-06-29 11:00:44.968750,-89.37,74.48
260896,2018-06-29 11:00:45.000000,-106.83,74.48
260897,2018-06-29 11:00:45.031250,-125.71,74.48
260898,2018-06-29 11:00:45.062500,-134.82,74.48
260899,2018-06-29 11:00:45.093750,-119.94,74.48
260900,2018-06-29 11:00:45.125000,-80.0,74.48
260901,2018-06-29 11:00:45.156250,-31.21,74.48
260902,2018-06-29 11:00:45.187500,9.26,74.48
260903,2018-06-29 11:00:45.218750,36.47,74.48
260904,2018-06-29 11:00:45.250000,53.31,74.48
260905,2018-06-29 11:00:45.281250,62.37,74.48
260906,2018-06-29 11:00:45.312500,66.22,74.48
260907,2018-06-29 11:00:45.343750,68.92,74.48
260908,2018-06-29 11:00:45.375000,72.54,74.48
260909,2018-06-29 11:00:45.406250,75.47,74.48
260910,2018-06-29 11:00:45.437500,76.71,74.48
260911,2018-06-29 11:00:45.468750,77.74,74.48
260912,2018-06-29 11:00:45.500000,78.51,74.48
260913,2018-06-29 11:00:45.531250,76.19,74.33
260914,2018-06-29 11:00:45.562500,69.54,74.33
260915,2018-06-29 11:00:45.593750,60.82,74.33
260916,2018-06-29 11:00:45.625000,52.59,74.33
260917,2018-06-29 11:00:45.656250,45.28,74.33
260918,2018-06-29 11:00:45.687500,38.3,74.33
260919,2018-06-29 11:00:45.718750,31.14,74.33
260920,2018-06-29 11:00:45.750000,23.29,74.33
260921,2018-06-29 11:00:45.781250,14.61,74.33
260922,2018-06-29 11:00:45.812500,5.21,74.33
260923,2018-06-29 11:00:45.843750,-6.27,74.33
260924,2018-06-29 11:00:45.875000,-22.26,74.33
260925,2018-06-29 11:00:45.906250,-42.23,74.33
260926,2018-06-29 11:00:45.937500,-61.31,74.33
260927,2018-06-29 11:00:45.968750,-74.7,74.33
260928,2018-06-29 11:00:46.000000,-82.56,74.33
260929,2018-06-29 11:00:46.031250,-89.02,74.33
260930,2018-06-29 11:00:46.062500,-96.33,74.33
260931,2018-06-29 11:00:46.093750,-100.26,74.33
260932,2018-06-29 11:00:46.125000,-92.09,74.33
260933,2018-06-29 11:00:46.156250,-67.87,74.33
260934,2018-06-29 11:00:46.187500,-34.58,74.33
260935,2018-06-29 11:00:46.218750,-4.23,74.33
260936,2018-06-29 11:00:46.250000,16.15,74.33
260937,2018-06-29 11:00:46.281250,25.8,74.33
260938,2018-06-29 11:00:46.312500,26.57,74.33
260939,2018-06-29 11:00:46.343750,23.1,74.33
260940,2018-06-29 11:00:46.375000,21.53,74.33
260941,2018-06-29 11:00:46.406250,24.52,74.33
260942,2018-06-29 11:00:46.437500,29.94,74.33
260943,2018-06-29 11:00:46.468750,35.14,74.33
260944,2018-06-29 11:00:46.500000,38.91,74.33
260945,2018-06-29 11:00:46.531250,39.85,74.22
260946,2018-06-29 11:00:46.562500,36.84,74.22
260947,2018-06-29 11:00:46.593750,31.06,74.22
260948,2018-06-29 11:00:46.625000,24.44,74.22
260949,2018-06-29 11:00:46.656250,16.97,74.22
260950,2018-06-29 11:00:46.687500,7.98,74.22
260951,2018-06-29 11:00:46.718750,-1.46,74.22
260952,2018-06-29 11:00:46.750000,-9.56,74.22
260953,2018-06-29 11:00:46.781250,-16.19,74.22
260954,2018-06-29 11:00:46.812500,-23.25,74.22
260955,2018-06-29 11:00:46.843750,-32.53,74.22
260956,2018-06-29 11:00:46.875000,-43.14,74.22
260957,2018-06-29 11:00:46.906250,-52.43,74.22
260958,2018-06-29 11:00:46.937500,-60.01,74.22
260959,2018-06-29 11:00:46.968750,-68.96,74.22
260960,2018-06-29 11:00:47.000000,-82.3,74.22
260961,2018-06-29 11:00:47.031250,-97.21,74.22
260962,2018-06-29 11:00:47.062500,-102.1,74.22
260963,2018-06-29 11:00:47.093750,-84.73,74.22
260964,2018-06-29 11:00:47.125000,-46.4,74.22
260965,2018-06-29 11:00:47.156250,-2.42,74.22
260966,2018-06-29 11:00:47.187500,32.76,74.22
260967,2018-06-29 11:00:47.218750,55.02,74.22
260968,2018-06-29 11:00:47.250000,67.08,74.22
260969,2018-06-29 11:00:47.281250,73.38,74.22
260970,2018-06-29 11:00:47.312500,77.33,74.22
260971,2018-06-29 11:00:47.343750,78.93,74.22
260972,2018-06-29 11:00:47.375000,75.98,74.22
260973,2018-06-29 11:00:47.406250,69.12,74.22
260974,2018-06-29 11:00:47.437500,63.68,74.22
260975,2018-06-29 11:00:47.468750,63.55,74.22
260976,2018-06-29 11:00:47.500000,63.76,74.22
260977,2018-06-29 11:00:47.531250,51.76,74.1
260978,2018-06-29 11:00:47.562500,20.1,74.1
260979,2018-06-29 11:00:47.593750,-19.92,74.1
260980,2018-06-29 11:00:47.625000,-42.84,74.1
260981,2018-06-29 11:00:47.656250,-34.26,74.1
260982,2018-06-29 11:00:47.687500,-5.18,74.1
260983,2018-06-29 11:00:47.718750,25.41,74.1
260984,2018-06-29 11:00:47.750000,49.29,74.1
260985,2018-06-29 11:00:47.781250,62.57,74.1
260986,2018-06-29 11:00:47.812500,58.68,74.1
260987,2018-06-29 11:00:47.843750,38.26,74.1
260988,2018-06-29 11:00:47.875000,11.31,74.1
260989,2018-06-29 11:00:47.906250,-15.37,74.1
260990,2018-06-29 11:00:47.937500,-37.28,74.1
260991,2018-06-29 11:00:47.968750,-42.05,74.1
260992,2018-06-29 11:00:48.000000,-20.78,74.1
260993,2018-06-29 11:00:48.031250,14.48,74.1
260994,2018-06-29 11:00:48.062500,42.26,74.1
260995,2018-06-29 11:00:48.093750,54.69,74.1
260996,2018-06-29 11:00:48.125000,56.25,74.1
260997,2018-06-29 11:00:48.156250,50.51,74.1
260998,2018-06-29 11:00:48.187500,40.82,74.1
260999,2018-06-29 11:00:48.218750,34.42,74.1
261000,2018-06-29 11:00:48.250000,35.96,74.1
261001,2018-06-29 11:00:48.281250,40.86,74.1
261002,2018-06-29 11:00:48.312500,37.3,74.1
261003,2018-06-29 11:00:48.343750,16.36,74.1
261004,2018-06-29 11:00:48.375000,-14.4,74.1
261005,2018-06-29 11:00:48.406250,-34.7,74.1
261006,2018-06-29 11:00:48.437500,-36.51,74.1
261007,2018-06-29 11:00:48.468750,-32.24,74.1
261008,2018-06-29 11:00:48.500000,-32.52,74.1
261009,2018-06-29 11:00:48.531250,-35.14,73.97
261010,2018-06-29 11:00:48.562500,-39.18,73.97
261011,2018-06-29 11:00:48.593750,-49.17,73.97
261012,2018-06-29 11:00:48.625000,-64.6,73.97
261013,2018-06-29 11:00:48.656250,-79.82,73.97
261014,2018-06-29 11:00:48.687500,-91.98,73.97
261015,2018-06-29 11:00:48.718750,-101.48,73.97
261016,2018-06-29 11:00:48.750000,-109.15,73.97
261017,2018-06-29 11:00:48.781250,-116.9,73.97
261018,2018-06-29 11:00:48.812500,-124.42,73.97
261019,2018-06-29 11:00:48.843750,-123.81,73.97
261020,2018-06-29 11:00:48.875000,-105.94,73.97
261021,2018-06-29 11:00:48.906250,-72.86,73.97
261022,2018-06-29 11:00:48.937500,-36.81,73.97
261023,2018-06-29 11:00:48.968750,-8.18,73.97
261024,2018-06-29 11:00:49.000000,11.06,73.97
261025,2018-06-29 11:00:49.031250,24.86,73.97
261026,2018-06-29 11:00:49.062500,38.16,73.97
261027,2018-06-29 11:00:49.093750,53.4,73.97
261028,2018-06-29 11:00:49.125000,70.63,73.97
261029,2018-06-29 11:00:49.156250,89.63,73.97
261030,2018-06-29 11:00:49.187500,109.43,73.97
261031,2018-06-29 11:00:49.218750,126.97,73.97
261032,2018-06-29 11:00:49.250000,137.26,73.97
261033,2018-06-29 11:00:49.281250,135.87,73.97
261034,2018-06-29 11:00:49.312500,122.86,73.97
261035,2018-06-29 11:00:49.343750,103.75,73.97
261036,2018-06-29 11:00:49.375000,84.5,73.97
261037,2018-06-29 11:00:49.406250,66.52,73.97
261038,2018-06-29 11:00:49.437500,46.82,73.97
261039,2018-06-29 11:00:49.468750,22.27,73.97
261040,2018-06-29 11:00:49.500000,-5.82,73.97
261041,2018-06-29 11:00:49.531250,-34.76,73.82
261042,2018-06-29 11:00:49.562500,-70.45,73.82
261043,2018-06-29 11:00:49.593750,-123.78,73.82
261044,2018-06-29 11:00:49.625000,-187.25,73.82
261045,2018-06-29 11:00:49.656250,-230.14,73.82
261046,2018-06-29 11:00:49.687500,-228.03,73.82
261047,2018-06-29 11:00:49.718750,-183.13,73.82
261048,2018-06-29 11:00:49.750000,-113.13,73.82
261049,2018-06-29 11:00:49.781250,-39.12,73.82
261050,2018-06-29 11:00:49.812500,17.27,73.82
261051,2018-06-29 11:00:49.843750,44.87,73.82
261052,2018-06-29 11:00:49.875000,51.01,73.82
261053,2018-06-29 11:00:49.906250,48.44,73.82
261054,2018-06-29 11:00:49.937500,41.81,73.82
261055,2018-06-29 11:00:49.968750,31.98,73.82
261056,2018-06-29 11:00:50.000000,22.95,73.82
261057,2018-06-29 11:00:50.031250,17.92,73.82
261058,2018-06-29 11:00:50.062500,15.13,73.82
261059,2018-06-29 11:00:50.093750,13.25,73.82
261060,2018-06-29 11:00:50.125000,15.85,73.82
261061,2018-06-29 11:00:50.156250,25.53,73.82
261062,2018-06-29 11:00:50.187500,36.02,73.82
261063,2018-06-29 11:00:50.218750,36.89,73.82
261064,2018-06-29 11:00:50.250000,27.76,73.82
261065,2018-06-29 11:00:50.281250,19.14,73.82
261066,2018-06-29 11:00:50.312500,16.44,73.82
261067,2018-06-29 11:00:50.343750,14.18,73.82
261068,2018-06-29 11:00:50.375000,8.23,73.82
261069,2018-06-29 11:00:50.406250,1.39,73.82
261070,2018-06-29 11:00:50.437500,-6.62,73.82
261071,2018-06-29 11:00:50.468750,-24.67,73.82
261072,2018-06-29 11:00:50.500000,-61.63,73.82
261073,2018-06-29 11:00:50.531250,-115.9,73.65
261074,2018-06-29 11:00:50.562500,-171.47,73.65
261075,2018-06-29 11:00:50.593750,-204.78,73.65
261076,2018-06-29 11:00:50.625000,-203.24,73.65
261077,2018-06-29 11:00:50.656250,-176.61,73.65
261078,2018-06-29 11:00:50.687500,-143.11,73.65
261079,2018-06-29 11:00:50.718750,-110.67,73.65
261080,2018-06-29 11:00:50.750000,-79.58,73.65
261081,2018-06-29 11:00:50.781250,-53.67,73.65
261082,2018-06-29 11:00:50.812500,-36.95,73.65
261083,2018-06-29 11:00:50.843750,-25.82,73.65
261084,2018-06-29 11:00:50.875000,-12.94,73.65
261085,2018-06-29 11:00:50.906250,4.51,73.65
261086,2018-06-29 11:00:50.937500,24.29,73.65
261087,2018-06-29 11:00:50.968750,43.82,73.65
261088,2018-06-29 11:00:51.000000,61.04,73.65
261089,2018-06-29 11:00:51.031250,72.5,73.65
261090,2018-06-29 11:00:51.062500,75.58,73.65
261091,2018-06-29 11:00:51.093750,71.58,73.65
261092,2018-06-29 11:00:51.125000,63.95,73.65
261093,2018-06-29 11:00:51.156250,54.87,73.65
261094,2018-06-29 11:00:51.187500,45.41,73.65
261095,2018-06-29 11:00:51.218750,36.09,73.65
261096,2018-06-29 11:00:51.250000,25.76,73.65
261097,2018-06-29 11:00:51.281250,12.58,73.65
261098,2018-06-29 11:00:51.312500,-3.33,73.65
261099,2018-06-29 11:00:51.343750,-20.43,73.65
261100,2018-06-29 11:00:51.375000,-38.36,73.65
261101,2018-06-29 11:00:51.406250,-58.91,73.65
261102,2018-06-29 11:00:51.437500,-84.18,73.65
261103,2018-06-29 11:00:51.468750,-109.81,73.65
261104,2018-06-29 11:00:51.500000,-118.55,73.65
261105,2018-06-29 11:00:51.531250,-92.56,73.47
261106,2018-06-29 11:00:51.562500,-36.89,73.47
261107,2018-06-29 11:00:51.593750,22.64,73.47
261108,2018-06-29 11:00:51.625000,66.17,73.47
261109,2018-06-29 11:00:51.656250,90.66,73.47
261110,2018-06-29 11:00:51.687500,98.89,73.47
261111,2018-06-29 11:00:51.718750,94.99,73.47
261112,2018-06-29 11:00:51.750000,87.55,73.47
261113,2018-06-29 11:00:51.781250,84.98,73.47
261114,2018-06-29 11:00:51.812500,88.4,73.47
261115,2018-06-29 11:00:51.843750,93.3,73.47
261116,2018-06-29 11:00:51.875000,96.11,73.47
261117,2018-06-29 11:00:51.906250,96.42,73.47
261118,2018-06-29 11:00:51.937500,94.32,73.47
261119,2018-06-29 11:00:51.968750,88.23,73.47
261120,2018-06-29 11:00:52.000000,76.89,73.47
261121,2018-06-29 11:00:52.031250,62.12,73.47
261122,2018-06-29 11:00:52.062500,47.28,73.47
261123,2018-06-29 11:00:52.093750,33.04,73.47
261124,2018-06-29 11:00:52.125000,17.11,73.47
261125,2018-06-29 11:00:52.156250,-0.99,73.47
261126,2018-06-29 11:00:52.187500,-17.61,73.47
261127,2018-06-29 11:00:52.218750,-29.54,73.47
261128,2018-06-29 11:00:52.250000,-38.96,73.47
261129,2018-06-29 11:00:52.281250,-52.07,73.47
261130,2018-06-29 11:00:52.312500,-73.28,73.47
261131,2018-06-29 11:00:52.343750,-97.79,73.47
261132,2018-06-29 11:00:52.375000,-107.68,73.47
261133,2018-06-29 11:00:52.406250,-84.43,73.47
261134,2018-06-29 11:00:52.437500,-31.28,73.47
261135,2018-06-29 11:00:52.468750,27.0,73.47
261136,2018-06-29 11:00:52.500000,69.05,73.47
261137,2018-06-29 11:00:52.531250,90.12,73.28
261138,2018-06-29 11:00:52.562500,93.33,73.28
261139,2018-06-29 11:00:52.593750,83.91,73.28
261140,2018-06-29 11:00:52.625000,71.35,73.28
261141,2018-06-29 11:00:52.656250,64.33,73.28
261142,2018-06-29 11:00:52.687500,63.31,73.28
261143,2018-06-29 11:00:52.718750,63.77,73.28
261144,2018-06-29 11:00:52.750000,64.15,73.28
261145,2018-06-29 11:00:52.781250,65.04,73.28
261146,2018-06-29 11:00:52.812500,63.59,73.28
261147,2018-06-29 11:00:52.843750,55.05,73.28
261148,2018-06-29 11:00:52.875000,39.97,73.28
261149,2018-06-29 11:00:52.906250,24.24,73.28
261150,2018-06-29 11:00:52.937500,10.92,73.28
261151,2018-06-29 11:00:52.968750,-3.21,73.28
261152,2018-06-29 11:00:53.000000,-20.84,73.28
261153,2018-06-29 11:00:53.031250,-38.34,73.28
261154,2018-06-29 11:00:53.062500,-50.37,73.28
261155,2018-06-29 11:00:53.093750,-57.78,73.28
261156,2018-06-29 11:00:53.125000,-67.52,73.28
261157,2018-06-29 11:00:53.156250,-84.56,73.28
261158,2018-06-29 11:00:53.187500,-103.16,73.28
261159,2018-06-29 11:00:53.218750,-105.7,73.28
261160,2018-06-29 11:00:53.250000,-77.12,73.28
261161,2018-06-29 11:00:53.281250,-23.9,73.28
261162,2018-06-29 11:00:53.312500,29.35,73.28
261163,2018-06-29 11:00:53.343750,64.11,73.28
261164,2018-06-29 11:00:53.375000,79.27,73.28
261165,2018-06-29 11:00:53.406250,80.48,73.28
261166,2018-06-29 11:00:53.437500,72.67,73.28
261167,2018-06-29 11:00:53.468750,62.49,73.28
261168,2018-06-29 11:00:53.500000,56.0,73.28
261169,2018-06-29 11:00:53.531250,53.63,73.15
261170,2018-06-29 11:00:53.562500,52.88,73.15
261171,2018-06-29 11:00:53.593750,52.92,73.15
261172,2018-06-29 11:00:53.625000,52.44,73.15
261173,2018-06-29 11:00:53.656250,47.4,73.15
261174,2018-06-29 11:00:53.687500,35.38,73.15
261175,2018-06-29 11:00:53.718750,19.7,73.15
261176,2018-06-29 11:00:53.750000,5.67,73.15
261177,2018-06-29 11:00:53.781250,-6.51,73.15
261178,2018-06-29 11:00:53.812500,-21.0,73.15
261179,2018-06-29 11:00:53.843750,-38.31,73.15
261180,2018-06-29 11:00:53.875000,-53.18,73.15
261181,2018-06-29 11:00:53.906250,-62.14,73.15
261182,2018-06-29 11:00:53.937500,-69.4,73.15
261183,2018-06-29 11:00:53.968750,-82.33,73.15
261184,2018-06-29 11:00:54.000000,-99.87,73.15
261185,2018-06-29 11:00:54.031250,-106.2,73.15
261186,2018-06-29 11:00:54.062500,-83.85,73.15
261187,2018-06-29 11:00:54.093750,-35.18,73.15
261188,2018-06-29 11:00:54.125000,18.01,73.15
261189,2018-06-29 11:00:54.156250,57.0,73.15
261190,2018-06-29 11:00:54.187500,78.31,73.15
261191,2018-06-29 11:00:54.218750,85.37,73.15
261192,2018-06-29 11:00:54.250000,81.38,73.15
261193,2018-06-29 11:00:54.281250,71.94,73.15
261194,2018-06-29 11:00:54.312500,64.67,73.15
261195,2018-06-29 11:00:54.343750,62.43,73.15
261196,2018-06-29 11:00:54.375000,61.74,73.15
261197,2018-06-29 11:00:54.406250,59.74,73.15
261198,2018-06-29 11:00:54.437500,57.62,73.15
261199,2018-06-29 11:00:54.468750,54.89,73.15
261200,2018-06-29 11:00:54.500000,46.96,73.15
261201,2018-06-29 11:00:54.531250,31.97,72.93
261202,2018-06-29 11:00:54.562500,14.91,72.93
261203,2018-06-29 11:00:54.593750,1.29,72.93
261204,2018-06-29 11:00:54.625000,-9.84,72.93
261205,2018-06-29 11:00:54.656250,-22.7,72.93
261206,2018-06-29 11:00:54.687500,-37.06,72.93
261207,2018-06-29 11:00:54.718750,-48.59,72.93
261208,2018-06-29 11:00:54.750000,-56.16,72.93
261209,2018-06-29 11:00:54.781250,-64.99,72.93
261210,2018-06-29 11:00:54.812500,-80.84,72.93
261211,2018-06-29 11:00:54.843750,-100.31,72.93
261212,2018-06-29 11:00:54.875000,-107.64,72.93
261213,2018-06-29 11:00:54.906250,-87.12,72.93
261214,2018-06-29 11:00:54.937500,-41.75,72.93
261215,2018-06-29 11:00:54.968750,7.52,72.93
261216,2018-06-29 11:00:55.000000,42.66,72.93
261217,2018-06-29 11:00:55.031250,60.59,72.93
261218,2018-06-29 11:00:55.062500,65.81,72.93
261219,2018-06-29 11:00:55.093750,62.39,72.93
261220,2018-06-29 11:00:55.125000,54.96,72.93
261221,2018-06-29 11:00:55.156250,49.25,72.93
261222,2018-06-29 11:00:55.187500,47.97,72.93
261223,2018-06-29 11:00:55.218750,48.67,72.93
261224,2018-06-29 11:00:55.250000,48.21,72.93
261225,2018-06-29 11:00:55.281250,46.53,72.93
261226,2018-06-29 11:00:55.312500,43.8,72.93
261227,2018-06-29 11:00:55.343750,37.47,72.93
261228,2018-06-29 11:00:55.375000,25.89,72.93
261229,2018-06-29 11:00:55.406250,12.42,72.93
261230,2018-06-29 11:00:55.437500,2.16,72.93
261231,2018-06-29 11:00:55.468750,-5.03,72.93
261232,2018-06-29 11:00:55.500000,-14.05,72.93
261233,2018-06-29 11:00:55.531250,-26.47,72.85
261234,2018-06-29 11:00:55.562500,-38.14,72.85
261235,2018-06-29 11:00:55.593750,-45.94,72.85
261236,2018-06-29 11:00:55.625000,-52.05,72.85
261237,2018-06-29 11:00:55.656250,-61.02,72.85
261238,2018-06-29 11:00:55.687500,-75.18,72.85
261239,2018-06-29 11:00:55.718750,-89.23,72.85
261240,2018-06-29 11:00:55.750000,-89.08,72.85
261241,2018-06-29 11:00:55.781250,-64.18,72.85
261242,2018-06-29 11:00:55.812500,-21.9,72.85
261243,2018-06-29 11:00:55.843750,18.55,72.85
261244,2018-06-29 11:00:55.875000,45.14,72.85
261245,2018-06-29 11:00:55.906250,58.12,72.85
261246,2018-06-29 11:00:55.937500,61.05,72.85
261247,2018-06-29 11:00:55.968750,56.78,72.85
261248,2018-06-29 11:00:56.000000,50.28,72.85
261249,2018-06-29 11:00:56.031250,47.28,72.85
261250,2018-06-29 11:00:56.062500,49.01,72.85
261251,2018-06-29 11:00:56.093750,52.31,72.85
261252,2018-06-29 11:00:56.125000,54.78,72.85
261253,2018-06-29 11:00:56.156250,56.36,72.85
261254,2018-06-29 11:00:56.187500,56.04,72.85
261255,2018-06-29 11:00:56.218750,52.06,72.85
261256,2018-06-29 11:00:56.250000,45.72,72.85
261257,2018-06-29 11:00:56.281250,40.38,72.85
261258,2018-06-29 11:00:56.312500,37.01,72.85
261259,2018-06-29 11:00:56.343750,34.29,72.85
261260,2018-06-29 11:00:56.375000,31.77,72.85
261261,2018-06-29 11:00:56.406250,32.09,72.85
261262,2018-06-29 11:00:56.437500,41.1,72.85
261263,2018-06-29 11:00:56.468750,62.04,72.85
261264,2018-06-29 11:00:56.500000,88.77,72.85
261265,2018-06-29 11:00:56.531250,109.63,72.77
261266,2018-06-29 11:00:56.562500,118.95,72.77
261267,2018-06-29 11:00:56.593750,120.93,72.77
261268,2018-06-29 11:00:56.625000,122.97,72.77
261269,2018-06-29 11:00:56.656250,127.09,72.77
261270,2018-06-29 11:00:56.687500,128.25,72.77
261271,2018-06-29 11:00:56.718750,119.98,72.77
261272,2018-06-29 11:00:56.750000,98.8,72.77
261273,2018-06-29 11:00:56.781250,64.12,72.77
261274,2018-06-29 11:00:56.812500,19.2,72.77
261275,2018-06-29 11:00:56.843750,-28.74,72.77
261276,2018-06-29 11:00:56.875000,-71.23,72.77
261277,2018-06-29 11:00:56.906250,-98.33,72.77
261278,2018-06-29 11:00:56.937500,-99.1,72.77
261279,2018-06-29 11:00:56.968750,-70.63,72.77
261280,2018-06-29 11:00:57.000000,-25.1,72.77
261281,2018-06-29 11:00:57.031250,16.6,72.77
261282,2018-06-29 11:00:57.062500,37.17,72.77
261283,2018-06-29 11:00:57.093750,28.79,72.77
261284,2018-06-29 11:00:57.125000,-5.82,72.77
261285,2018-06-29 11:00:57.156250,-47.7,72.77
261286,2018-06-29 11:00:57.187500,-66.47,72.77
261287,2018-06-29 11:00:57.218750,-56.92,72.77
261288,2018-06-29 11:00:57.250000,-56.42,72.77
261289,2018-06-29 11:00:57.281250,-92.04,72.77
261290,2018-06-29 11:00:57.312500,-134.76,72.77
261291,2018-06-29 11:00:57.343750,-142.57,72.77
261292,2018-06-29 11:00:57.375000,-116.65,72.77
261293,2018-06-29 11:00:57.406250,-85.59,72.77
261294,2018-06-29 11:00:57.437500,-68.23,72.77
261295,2018-06-29 11:00:57.468750,-67.41,72.77
261296,2018-06-29 11:00:57.500000,-70.32,72.77
261297,2018-06-29 11:00:57.531250,-54.74,72.7
261298,2018-06-29 11:00:57.562500,-15.71,72.7
261299,2018-06-29 11:00:57.593750,25.11,72.7
261300,2018-06-29 11:00:57.625000,50.45,72.7
261301,2018-06-29 11:00:57.656250,68.08,72.7
261302,2018-06-29 11:00:57.687500,87.93,72.7
261303,2018-06-29 11:00:57.718750,99.32,72.7
261304,2018-06-29 11:00:57.750000,84.32,72.7
261305,2018-06-29 11:00:57.781250,39.95,72.7
261306,2018-06-29 11:00:57.812500,-22.0,72.7
261307,2018-06-29 11:00:57.843750,-84.17,72.7
261308,2018-06-29 11:00:57.875000,-125.33,72.7
261309,2018-06-29 11:00:57.906250,-128.44,72.7
261310,2018-06-29 11:00:57.937500,-104.32,72.7
261311,2018-06-29 11:00:57.968750,-95.91,72.7
261312,2018-06-29 11:00:58.000000,-140.73,72.7
261313,2018-06-29 11:00:58.031250,-235.26,72.7
261314,2018-06-29 11:00:58.062500,-335.83,72.7
261315,2018-06-29 11:00:58.093750,-385.07,72.7
261316,2018-06-29 11:00:58.125000,-356.43,72.7
261317,2018-06-29 11:00:58.156250,-287.53,72.7
261318,2018-06-29 11:00:58.187500,-244.4,72.7
261319,2018-06-29 11:00:58.218750,-247.08,72.7
261320,2018-06-29 11:00:58.250000,-260.91,72.7
261321,2018-06-29 11:00:58.281250,-251.72,72.7
261322,2018-06-29 11:00:58.312500,-216.03,72.7
261323,2018-06-29 11:00:58.343750,-169.51,72.7
261324,2018-06-29 11:00:58.375000,-127.84,72.7
261325,2018-06-29 11:00:58.406250,-91.64,72.7
261326,2018-06-29 11:00:58.437500,-47.91,72.7
261327,2018-06-29 11:00:58.468750,8.48,72.7
261328,2018-06-29 11:00:58.500000,66.44,72.7
261329,2018-06-29 11:00:58.531250,113.88,72.63
261330,2018-06-29 11:00:58.562500,146.59,72.63
261331,2018-06-29 11:00:58.593750,163.32,72.63
261332,2018-06-29 11:00:58.625000,166.15,72.63
261333,2018-06-29 11:00:58.656250,161.0,72.63
261334,2018-06-29 11:00:58.687500,150.3,72.63
261335,2018-06-29 11:00:58.718750,133.57,72.63
261336,2018-06-29 11:00:58.750000,116.02,72.63
261337,2018-06-29 11:00:58.781250,105.85,72.63
261338,2018-06-29 11:00:58.812500,102.91,72.63
261339,2018-06-29 11:00:58.843750,98.91,72.63
261340,2018-06-29 11:00:58.875000,88.25,72.63
261341,2018-06-29 11:00:58.906250,72.49,72.63
261342,2018-06-29 11:00:58.937500,55.75,72.63
261343,2018-06-29 11:00:58.968750,40.33,72.63
261344,2018-06-29 11:00:59.000000,25.27,72.63
261345,2018-06-29 11:00:59.031250,6.1,72.63
261346,2018-06-29 11:00:59.062500,-22.05,72.63
261347,2018-06-29 11:00:59.093750,-57.2,72.63
261348,2018-06-29 11:00:59.125000,-89.42,72.63
261349,2018-06-29 11:00:59.156250,-110.96,72.63
261350,2018-06-29 11:00:59.187500,-124.13,72.63
261351,2018-06-29 11:00:59.218750,-136.72,72.63
261352,2018-06-29 11:00:59.250000,-155.0,72.63
261353,2018-06-29 11:00:59.281250,-178.16,72.63
261354,2018-06-29 11:00:59.312500,-190.88,72.63
261355,2018-06-29 11:00:59.343750,-170.67,72.63
261356,2018-06-29 11:00:59.375000,-113.65,72.63
261357,2018-06-29 11:00:59.406250,-43.8,72.63
261358,2018-06-29 11:00:59.437500,11.24,72.63
261359,2018-06-29 11:00:59.468750,43.31,72.63
261360,2018-06-29 11:00:59.500000,58.47,72.63
261361,2018-06-29 11:00:59.531250,62.82,72.55
261362,2018-06-29 11:00:59.562500,61.75,72.55
261363,2018-06-29 11:00:59.593750,62.87,72.55
261364,2018-06-29 11:00:59.625000,70.14,72.55
261365,2018-06-29 11:00:59.656250,79.53,72.55
261366,2018-06-29 11:00:59.687500,86.45,72.55
261367,2018-06-29 11:00:59.718750,91.92,72.55
261368,2018-06-29 11:00:59.750000,96.39,72.55
261369,2018-06-29 11:00:59.781250,94.4,72.55
261370,2018-06-29 11:00:59.812500,81.6,72.55
261371,2018-06-29 11:00:59.843750,62.74,72.55
261372,2018-06-29 11:00:59.875000,46.33,72.55
261373,2018-06-29 11:00:59.906250,33.18,72.55
261374,2018-06-29 11:00:59.937500,17.07,72.55
261375,2018-06-29 11:00:59.968750,-3.67,72.55
261376,2018-06-29 11:01:00.000000,-22.97,72.55
261377,2018-06-29 11:01:00.031250,-36.84,72.55
261378,2018-06-29 11:01:00.062500,-49.85,72.55
261379,2018-06-29 11:01:00.093750,-69.86,72.55
261380,2018-06-29 11:01:00.125000,-97.32,72.55
261381,2018-06-29 11:01:00.156250,-116.55,72.55
261382,2018-06-29 11:01:00.187500,-103.15,72.55
261383,2018-06-29 11:01:00.218750,-49.91,72.55
261384,2018-06-29 11:01:00.250000,21.48,72.55
261385,2018-06-29 11:01:00.281250,82.45,72.55
261386,2018-06-29 11:01:00.312500,121.17,72.55
261387,2018-06-29 11:01:00.343750,139.45,72.55
261388,2018-06-29 11:01:00.375000,141.77,72.55
261389,2018-06-29 11:01:00.406250,134.46,72.55
261390,2018-06-29 11:01:00.437500,125.88,72.55
261391,2018-06-29 11:01:00.468750,121.24,72.55
261392,2018-06-29 11:01:00.500000,119.28,72.55
261393,2018-06-29 11:01:00.531250,116.48,72.47
261394,2018-06-29 11:01:00.562500,112.42,72.47
261395,2018-06-29 11:01:00.593750,108.0,72.47
261396,2018-06-29 11:01:00.625000,100.16,72.47
261397,2018-06-29 11:01:00.656250,84.29,72.47
261398,2018-06-29 11:01:00.687500,62.19,72.47
261399,2018-06-29 11:01:00.718750,41.33,72.47
261400,2018-06-29 11:01:00.750000,25.02,72.47
261401,2018-06-29 11:01:00.781250,8.73,72.47
261402,2018-06-29 11:01:00.812500,-11.71,72.47
261403,2018-06-29 11:01:00.843750,-32.87,72.47
261404,2018-06-29 11:01:00.875000,-48.53,72.47
261405,2018-06-29 11:01:00.906250,-58.59,72.47
261406,2018-06-29 11:01:00.937500,-70.63,72.47
261407,2018-06-29 11:01:00.968750,-91.96,72.47
261408,2018-06-29 11:01:01.000000,-116.78,72.47
261409,2018-06-29 11:01:01.031250,-121.9,72.47
261410,2018-06-29 11:01:01.062500,-86.81,72.47
261411,2018-06-29 11:01:01.093750,-19.72,72.47
261412,2018-06-29 11:01:01.125000,48.72,72.47
261413,2018-06-29 11:01:01.156250,95.76,72.47
261414,2018-06-29 11:01:01.187500,118.26,72.47
261415,2018-06-29 11:01:01.218750,121.88,72.47
261416,2018-06-29 11:01:01.250000,114.05,72.47
261417,2018-06-29 11:01:01.281250,103.61,72.47
261418,2018-06-29 11:01:01.312500,96.75,72.47
261419,2018-06-29 11:01:01.343750,93.85,72.47
261420,2018-06-29 11:01:01.375000,92.54,72.47
261421,2018-06-29 11:01:01.406250,91.52,72.47
261422,2018-06-29 11:01:01.437500,89.68,72.47
261423,2018-06-29 11:01:01.468750,83.53,72.47
261424,2018-06-29 11:01:01.500000,69.82,72.47
261425,2018-06-29 11:01:01.531250,50.96,72.38
261426,2018-06-29 11:01:01.562500,33.03,72.38
261427,2018-06-29 11:01:01.593750,17.39,72.38
261428,2018-06-29 11:01:01.625000,-0.04,72.38
261429,2018-06-29 11:01:01.656250,-20.35,72.38
261430,2018-06-29 11:01:01.687500,-38.59,72.38
261431,2018-06-29 11:01:01.718750,-50.42,72.38
261432,2018-06-29 11:01:01.750000,-58.49,72.38
261433,2018-06-29 11:01:01.781250,-70.7,72.38
261434,2018-06-29 11:01:01.812500,-90.92,72.38
261435,2018-06-29 11:01:01.843750,-107.77,72.38
261436,2018-06-29 11:01:01.875000,-98.09,72.38
261437,2018-06-29 11:01:01.906250,-51.95,72.38
261438,2018-06-29 11:01:01.937500,11.95,72.38
261439,2018-06-29 11:01:01.968750,65.07,72.38
261440,2018-06-29 11:01:02.000000,94.83,72.38
261441,2018-06-29 11:01:02.031250,104.15,72.38
261442,2018-06-29 11:01:02.062500,98.92,72.38
261443,2018-06-29 11:01:02.093750,86.11,72.38
261444,2018-06-29 11:01:02.125000,74.24,72.38
261445,2018-06-29 11:01:02.156250,67.41,72.38
261446,2018-06-29 11:01:02.187500,63.54,72.38
261447,2018-06-29 11:01:02.218750,59.93,72.38
261448,2018-06-29 11:01:02.250000,55.5,72.38
261449,2018-06-29 11:01:02.281250,48.46,72.38
261450,2018-06-29 11:01:02.312500,37.79,72.38
261451,2018-06-29 11:01:02.343750,25.3,72.38
261452,2018-06-29 11:01:02.375000,13.1,72.38
261453,2018-06-29 11:01:02.406250,2.49,72.38
261454,2018-06-29 11:01:02.437500,-4.49,72.38
261455,2018-06-29 11:01:02.468750,-5.08,72.38
261456,2018-06-29 11:01:02.500000,3.8,72.38
261457,2018-06-29 11:01:02.531250,23.46,72.32
261458,2018-06-29 11:01:02.562500,46.67,72.32
261459,2018-06-29 11:01:02.593750,57.85,72.32
261460,2018-06-29 11:01:02.625000,47.79,72.32
261461,2018-06-29 11:01:02.656250,27.5,72.32
261462,2018-06-29 11:01:02.687500,21.2,72.32
261463,2018-06-29 11:01:02.718750,43.36,72.32
261464,2018-06-29 11:01:02.750000,84.94,72.32
261465,2018-06-29 11:01:02.781250,123.54,72.32
261466,2018-06-29 11:01:02.812500,142.87,72.32
261467,2018-06-29 11:01:02.843750,139.13,72.32
261468,2018-06-29 11:01:02.875000,116.1,72.32
261469,2018-06-29 11:01:02.906250,82.96,72.32
261470,2018-06-29 11:01:02.937500,52.29,72.32
261471,2018-06-29 11:01:02.968750,32.35,72.32
261472,2018-06-29 11:01:03.000000,23.21,72.32
261473,2018-06-29 11:01:03.031250,21.64,72.32
261474,2018-06-29 11:01:03.062500,24.72,72.32
261475,2018-06-29 11:01:03.093750,28.54,72.32
261476,2018-06-29 11:01:03.125000,27.43,72.32
261477,2018-06-29 11:01:03.156250,16.33,72.32
261478,2018-06-29 11:01:03.187500,-6.07,72.32
261479,2018-06-29 11:01:03.218750,-35.82,72.32
261480,2018-06-29 11:01:03.250000,-66.5,72.32
261481,2018-06-29 11:01:03.281250,-93.32,72.32
261482,2018-06-29 11:01:03.312500,-113.0,72.32
261483,2018-06-29 11:01:03.343750,-122.99,72.32
261484,2018-06-29 11:01:03.375000,-124.91,72.32
261485,2018-06-29 11:01:03.406250,-122.67,72.32
261486,2018-06-29 11:01:03.437500,-112.69,72.32
261487,2018-06-29 11:01:03.468750,-84.88,72.32
261488,2018-06-29 11:01:03.500000,-37.0,72.32
261489,2018-06-29 11:01:03.531250,18.61,72.25
261490,2018-06-29 11:01:03.562500,64.34,72.25
261491,2018-06-29 11:01:03.593750,89.02,72.25
261492,2018-06-29 11:01:03.625000,92.11,72.25
261493,2018-06-29 11:01:03.656250,83.1,72.25
261494,2018-06-29 11:01:03.687500,75.95,72.25
261495,2018-06-29 11:01:03.718750,78.41,72.25
261496,2018-06-29 11:01:03.750000,85.06,72.25
261497,2018-06-29 11:01:03.781250,83.64,72.25
261498,2018-06-29 11:01:03.812500,68.18,72.25
261499,2018-06-29 11:01:03.843750,42.72,72.25
261500,2018-06-29 11:01:03.875000,14.83,72.25
261501,2018-06-29 11:01:03.906250,-11.77,72.25
261502,2018-06-29 11:01:03.937500,-40.54,72.25
261503,2018-06-29 11:01:03.968750,-75.83,72.25
261504,2018-06-29 11:01:04.000000,-112.18,72.25
261505,2018-06-29 11:01:04.031250,-138.15,72.25
261506,2018-06-29 11:01:04.062500,-150.2,72.25
261507,2018-06-29 11:01:04.093750,-154.02,72.25
261508,2018-06-29 11:01:04.125000,-154.45,72.25
261509,2018-06-29 11:01:04.156250,-146.72,72.25
261510,2018-06-29 11:01:04.187500,-116.17,72.25
261511,2018-06-29 11:01:04.218750,-56.24,72.25
261512,2018-06-29 11:01:04.250000,12.2,72.25
261513,2018-06-29 11:01:04.281250,57.5,72.25
261514,2018-06-29 11:01:04.312500,72.51,72.25
261515,2018-06-29 11:01:04.343750,73.27,72.25
261516,2018-06-29 11:01:04.375000,69.36,72.25
261517,2018-06-29 11:01:04.406250,57.88,72.25
261518,2018-06-29 11:01:04.437500,40.32,72.25
261519,2018-06-29 11:01:04.468750,26.34,72.25
261520,2018-06-29 11:01:04.500000,21.56,72.25
261521,2018-06-29 11:01:04.531250,20.68,72.22
261522,2018-06-29 11:01:04.562500,13.52,72.22
261523,2018-06-29 11:01:04.593750,-5.43,72.22
261524,2018-06-29 11:01:04.625000,-32.51,72.22
261525,2018-06-29 11:01:04.656250,-55.07,72.22
261526,2018-06-29 11:01:04.687500,-62.36,72.22
261527,2018-06-29 11:01:04.718750,-65.22,72.22
261528,2018-06-29 11:01:04.750000,-90.39,72.22
261529,2018-06-29 11:01:04.781250,-143.2,72.22
261530,2018-06-29 11:01:04.812500,-196.33,72.22
261531,2018-06-29 11:01:04.843750,-225.51,72.22
261532,2018-06-29 11:01:04.875000,-231.04,72.22
261533,2018-06-29 11:01:04.906250,-215.89,72.22
261534,2018-06-29 11:01:04.937500,-169.1,72.22
261535,2018-06-29 11:01:04.968750,-84.26,72.22
261536,2018-06-29 11:01:05.000000,19.26,72.22
261537,2018-06-29 11:01:05.031250,107.88,72.22
261538,2018-06-29 11:01:05.062500,165.35,72.22
261539,2018-06-29 11:01:05.093750,198.8,72.22
261540,2018-06-29 11:01:05.125000,214.2,72.22
261541,2018-06-29 11:01:05.156250,206.83,72.22
261542,2018-06-29 11:01:05.187500,179.58,72.22
261543,2018-06-29 11:01:05.218750,149.0,72.22
261544,2018-06-29 11:01:05.250000,125.35,72.22
261545,2018-06-29 11:01:05.281250,102.94,72.22
261546,2018-06-29 11:01:05.312500,76.12,72.22
261547,2018-06-29 11:01:05.343750,46.19,72.22
261548,2018-06-29 11:01:05.375000,9.38,72.22
261549,2018-06-29 11:01:05.406250,-34.05,72.22
261550,2018-06-29 11:01:05.437500,-59.54,72.22
261551,2018-06-29 11:01:05.468750,-48.47,72.22
261552,2018-06-29 11:01:05.500000,-31.79,72.22
261553,2018-06-29 11:01:05.531250,-57.28,72.23
261554,2018-06-29 11:01:05.562500,-128.74,72.23
261555,2018-06-29 11:01:05.593750,-215.13,72.23
261556,2018-06-29 11:01:05.625000,-286.68,72.23
261557,2018-06-29 11:01:05.656250,-316.52,72.23
261558,2018-06-29 11:01:05.687500,-292.05,72.23
261559,2018-06-29 11:01:05.718750,-239.92,72.23
261560,2018-06-29 11:01:05.750000,-195.96,72.23
261561,2018-06-29 11:01:05.781250,-151.08,72.23
261562,2018-06-29 11:01:05.812500,-70.47,72.23
261563,2018-06-29 11:01:05.843750,41.03,72.23
261564,2018-06-29 11:01:05.875000,135.82,72.23
261565,2018-06-29 11:01:05.906250,182.75,72.23
261566,2018-06-29 11:01:05.937500,194.02,72.23
261567,2018-06-29 11:01:05.968750,193.21,72.23
261568,2018-06-29 11:01:06.000000,187.43,72.23
261569,2018-06-29 11:01:06.031250,175.76,72.23
261570,2018-06-29 11:01:06.062500,159.87,72.23
261571,2018-06-29 11:01:06.093750,141.13,72.23
261572,2018-06-29 11:01:06.125000,129.46,72.23
261573,2018-06-29 11:01:06.156250,145.73,72.23
261574,2018-06-29 11:01:06.187500,182.96,72.23
261575,2018-06-29 11:01:06.218750,192.02,72.23
261576,2018-06-29 11:01:06.250000,142.15,72.23
261577,2018-06-29 11:01:06.281250,58.81,72.23
261578,2018-06-29 11:01:06.312500,-23.34,72.23
261579,2018-06-29 11:01:06.343750,-98.72,72.23
261580,2018-06-29 11:01:06.375000,-169.18,72.23
261581,2018-06-29 11:01:06.406250,-230.8,72.23
261582,2018-06-29 11:01:06.437500,-290.37,72.23
261583,2018-06-29 11:01:06.468750,-362.2,72.23
261584,2018-06-29 11:01:06.500000,-436.71,72.23
261585,2018-06-29 11:01:06.531250,-474.77,72.23
261586,2018-06-29 11:01:06.562500,-448.57,72.23
261587,2018-06-29 11:01:06.593750,-366.39,72.23
261588,2018-06-29 11:01:06.625000,-249.79,72.23
261589,2018-06-29 11:01:06.656250,-119.5,72.23
261590,2018-06-29 11:01:06.687500,-6.8,72.23
261591,2018-06-29 11:01:06.718750,59.54,72.23
261592,2018-06-29 11:01:06.750000,81.69,72.23
261593,2018-06-29 11:01:06.781250,84.96,72.23
261594,2018-06-29 11:01:06.812500,88.4,72.23
261595,2018-06-29 11:01:06.843750,94.38,72.23
261596,2018-06-29 11:01:06.875000,97.1,72.23
261597,2018-06-29 11:01:06.906250,95.4,72.23
261598,2018-06-29 11:01:06.937500,97.27,72.23
261599,2018-06-29 11:01:06.968750,107.55,72.23
261600,2018-06-29 11:01:07.000000,115.4,72.23
261601,2018-06-29 11:01:07.031250,105.63,72.23
261602,2018-06-29 11:01:07.062500,80.24,72.23
261603,2018-06-29 11:01:07.093750,55.32,72.23
261604,2018-06-29 11:01:07.125000,37.02,72.23
261605,2018-06-29 11:01:07.156250,13.71,72.23
261606,2018-06-29 11:01:07.187500,-27.53,72.23
261607,2018-06-29 11:01:07.218750,-80.59,72.23
261608,2018-06-29 11:01:07.250000,-108.76,72.23
261609,2018-06-29 11:01:07.281250,-75.03,72.23
261610,2018-06-29 11:01:07.312500,-9.24,72.23
261611,2018-06-29 11:01:07.343750,-1.28,72.23
261612,2018-06-29 11:01:07.375000,-87.44,72.23
261613,2018-06-29 11:01:07.406250,-194.77,72.23
261614,2018-06-29 11:01:07.437500,-236.45,72.23
261615,2018-06-29 11:01:07.468750,-203.26,72.23
261616,2018-06-29 11:01:07.500000,-134.38,72.23
261617,2018-06-29 11:01:07.531250,-61.27,72.23
261618,2018-06-29 11:01:07.562500,-5.32,72.23
261619,2018-06-29 11:01:07.593750,17.65,72.23
261620,2018-06-29 11:01:07.625000,14.74,72.23
261621,2018-06-29 11:01:07.656250,12.54,72.23
261622,2018-06-29 11:01:07.687500,22.69,72.23
261623,2018-06-29 11:01:07.718750,31.0,72.23
261624,2018-06-29 11:01:07.750000,25.96,72.23
261625,2018-06-29 11:01:07.781250,17.42,72.23
261626,2018-06-29 11:01:07.812500,17.16,72.23
261627,2018-06-29 11:01:07.843750,17.88,72.23
261628,2018-06-29 11:01:07.875000,5.41,72.23
261629,2018-06-29 11:01:07.906250,-18.36,72.23
261630,2018-06-29 11:01:07.937500,-38.73,72.23
261631,2018-06-29 11:01:07.968750,-49.13,72.23
261632,2018-06-29 11:01:08.000000,-56.86,72.23
261633,2018-06-29 11:01:08.031250,-68.61,72.23
261634,2018-06-29 11:01:08.062500,-80.48,72.23
261635,2018-06-29 11:01:08.093750,-85.64,72.23
261636,2018-06-29 11:01:08.125000,-85.53,72.23
261637,2018-06-29 11:01:08.156250,-89.38,72.23
261638,2018-06-29 11:01:08.187500,-102.53,72.23
261639,2018-06-29 11:01:08.218750,-113.3,72.23
261640,2018-06-29 11:01:08.250000,-95.26,72.23
261641,2018-06-29 11:01:08.281250,-32.43,72.23
261642,2018-06-29 11:01:08.312500,57.93,72.23
261643,2018-06-29 11:01:08.343750,137.9,72.23
261644,2018-06-29 11:01:08.375000,183.47,72.23
261645,2018-06-29 11:01:08.406250,197.12,72.23
261646,2018-06-29 11:01:08.437500,192.46,72.23
261647,2018-06-29 11:01:08.468750,181.98,72.23
261648,2018-06-29 11:01:08.500000,176.41,72.23
261649,2018-06-29 11:01:08.531250,180.02,72.27
261650,2018-06-29 11:01:08.562500,186.34,72.27
261651,2018-06-29 11:01:08.593750,188.02,72.27
261652,2018-06-29 11:01:08.625000,186.93,72.27
261653,2018-06-29 11:01:08.656250,187.1,72.27
261654,2018-06-29 11:01:08.687500,185.01,72.27
261655,2018-06-29 11:01:08.718750,175.63,72.27
261656,2018-06-29 11:01:08.750000,163.16,72.27
261657,2018-06-29 11:01:08.781250,155.64,72.27
261658,2018-06-29 11:01:08.812500,147.27,72.27
261659,2018-06-29 11:01:08.843750,118.14,72.27
261660,2018-06-29 11:01:08.875000,60.42,72.27
261661,2018-06-29 11:01:08.906250,-6.65,72.27
261662,2018-06-29 11:01:08.937500,-58.75,72.27
261663,2018-06-29 11:01:08.968750,-92.07,72.27
261664,2018-06-29 11:01:09.000000,-117.58,72.27
261665,2018-06-29 11:01:09.031250,-143.93,72.27
261666,2018-06-29 11:01:09.062500,-170.42,72.27
261667,2018-06-29 11:01:09.093750,-181.35,72.27
261668,2018-06-29 11:01:09.125000,-149.81,72.27
261669,2018-06-29 11:01:09.156250,-62.35,72.27
261670,2018-06-29 11:01:09.187500,63.61,72.27
261671,2018-06-29 11:01:09.218750,190.21,72.27
261672,2018-06-29 11:01:09.250000,277.9,72.27
261673,2018-06-29 11:01:09.281250,297.16,72.27
261674,2018-06-29 11:01:09.312500,244.45,72.27
261675,2018-06-29 11:01:09.343750,158.69,72.27
261676,2018-06-29 11:01:09.375000,103.34,72.27
261677,2018-06-29 11:01:09.406250,102.02,72.27
261678,2018-06-29 11:01:09.437500,107.1,72.27
261679,2018-06-29 11:01:09.468750,65.31,72.27
261680,2018-06-29 11:01:09.500000,-17.4,72.27
261681,2018-06-29 11:01:09.531250,-112.0,72.28
261682,2018-06-29 11:01:09.562500,-210.31,72.28
261683,2018-06-29 11:01:09.593750,-292.75,72.28
261684,2018-06-29 11:01:09.625000,-320.25,72.28
261685,2018-06-29 11:01:09.656250,-292.34,72.28
261686,2018-06-29 11:01:09.687500,-255.49,72.28
261687,2018-06-29 11:01:09.718750,-239.62,72.28
261688,2018-06-29 11:01:09.750000,-233.91,72.28
261689,2018-06-29 11:01:09.781250,-225.85,72.28
261690,2018-06-29 11:01:09.812500,-221.94,72.28
261691,2018-06-29 11:01:09.843750,-227.73,72.28
261692,2018-06-29 11:01:09.875000,-238.02,72.28
261693,2018-06-29 11:01:09.906250,-248.09,72.28
261694,2018-06-29 11:01:09.937500,-251.45,72.28
261695,2018-06-29 11:01:09.968750,-229.63,72.28
261696,2018-06-29 11:01:10.000000,-168.49,72.28
261697,2018-06-29 11:01:10.031250,-79.29,72.28
261698,2018-06-29 11:01:10.062500,12.18,72.28
261699,2018-06-29 11:01:10.093750,84.75,72.28
261700,2018-06-29 11:01:10.125000,125.03,72.28
261701,2018-06-29 11:01:10.156250,131.21,72.28
261702,2018-06-29 11:01:10.187500,116.73,72.28
261703,2018-06-29 11:01:10.218750,98.61,72.28
261704,2018-06-29 11:01:10.250000,85.31,72.28
261705,2018-06-29 11:01:10.281250,78.21,72.28
261706,2018-06-29 11:01:10.312500,76.4,72.28
261707,2018-06-29 11:01:10.343750,77.29,72.28
261708,2018-06-29 11:01:10.375000,76.09,72.28
261709,2018-06-29 11:01:10.406250,66.88,72.28
261710,2018-06-29 11:01:10.437500,46.54,72.28
261711,2018-06-29 11:01:10.468750,17.44,72.28
261712,2018-06-29 11:01:10.500000,-15.03,72.28
261713,2018-06-29 11:01:10.531250,-47.31,72.28
261714,2018-06-29 11:01:10.562500,-80.15,72.28
261715,2018-06-29 11:01:10.593750,-115.96,72.28
261716,2018-06-29 11:01:10.625000,-154.82,72.28
261717,2018-06-29 11:01:10.656250,-191.59,72.28
261718,2018-06-29 11:01:10.687500,-215.1,72.28
261719,2018-06-29 11:01:10.718750,-214.35,72.28
261720,2018-06-29 11:01:10.750000,-190.3,72.28
261721,2018-06-29 11:01:10.781250,-155.74,72.28
261722,2018-06-29 11:01:10.812500,-120.77,72.28
261723,2018-06-29 11:01:10.843750,-86.24,72.28
261724,2018-06-29 11:01:10.875000,-51.03,72.28
261725,2018-06-29 11:01:10.906250,-15.49,72.28
261726,2018-06-29 11:01:10.937500,19.68,72.28
261727,2018-06-29 11:01:10.968750,51.94,72.28
261728,2018-06-29 11:01:11.000000,79.91,72.28
261729,2018-06-29 11:01:11.031250,109.65,72.28
261730,2018-06-29 11:01:11.062500,148.62,72.28
261731,2018-06-29 11:01:11.093750,193.7,72.28
261732,2018-06-29 11:01:11.125000,235.2,72.28
261733,2018-06-29 11:01:11.156250,271.19,72.28
261734,2018-06-29 11:01:11.187500,312.5,72.28
261735,2018-06-29 11:01:11.218750,375.0,72.28
261736,2018-06-29 11:01:11.250000,454.47,72.28
261737,2018-06-29 11:01:11.281250,506.53,72.28
261738,2018-06-29 11:01:11.312500,483.27,72.28
261739,2018-06-29 11:01:11.343750,392.77,72.28
261740,2018-06-29 11:01:11.375000,284.87,72.28
261741,2018-06-29 11:01:11.406250,188.3,72.28
261742,2018-06-29 11:01:11.437500,103.47,72.28
261743,2018-06-29 11:01:11.468750,35.54,72.28
261744,2018-06-29 11:01:11.500000,-8.18,72.28
261745,2018-06-29 11:01:11.531250,-35.99,72.23
261746,2018-06-29 11:01:11.562500,-62.03,72.23
261747,2018-06-29 11:01:11.593750,-93.0,72.23
261748,2018-06-29 11:01:11.625000,-128.16,72.23
261749,2018-06-29 11:01:11.656250,-156.32,72.23
261750,2018-06-29 11:01:11.687500,-156.1,72.23
261751,2018-06-29 11:01:11.718750,-115.89,72.23
261752,2018-06-29 11:01:11.750000,-51.98,72.23
261753,2018-06-29 11:01:11.781250,2.56,72.23
261754,2018-06-29 11:01:11.812500,23.73,72.23
261755,2018-06-29 11:01:11.843750,8.9,72.23
261756,2018-06-29 11:01:11.875000,-27.49,72.23
261757,2018-06-29 11:01:11.906250,-64.68,72.23
261758,2018-06-29 11:01:11.937500,-85.65,72.23
261759,2018-06-29 11:01:11.968750,-83.66,72.23
261760,2018-06-29 11:01:12.000000,-65.44,72.23
261761,2018-06-29 11:01:12.031250,-46.76,72.23
261762,2018-06-29 11:01:12.062500,-39.9,72.23
261763,2018-06-29 11:01:12.093750,-45.15,72.23
261764,2018-06-29 11:01:12.125000,-55.26,72.23
261765,2018-06-29 11:01:12.156250,-65.08,72.23
261766,2018-06-29 11:01:12.187500,-73.59,72.23
261767,2018-06-29 11:01:12.218750,-79.14,72.23
261768,2018-06-29 11:01:12.250000,-78.76,72.23
261769,2018-06-29 11:01:12.281250,-73.13,72.23
261770,2018-06-29 11:01:12.312500,-68.47,72.23
261771,2018-06-29 11:01:12.343750,-72.08,72.23
261772,2018-06-29 11:01:12.375000,-85.85,72.23
261773,2018-06-29 11:01:12.406250,-99.56,72.23
261774,2018-06-29 11:01:12.437500,-91.37,72.23
261775,2018-06-29 11:01:12.468750,-46.15,72.23
261776,2018-06-29 11:01:12.500000,24.44,72.23
261777,2018-06-29 11:01:12.531250,90.52,72.2
261778,2018-06-29 11:01:12.562500,132.31,72.2
261779,2018-06-29 11:01:12.593750,149.36,72.2
261780,2018-06-29 11:01:12.625000,146.89,72.2
261781,2018-06-29 11:01:12.656250,130.36,72.2
261782,2018-06-29 11:01:12.687500,111.72,72.2
261783,2018-06-29 11:01:12.718750,103.92,72.2
261784,2018-06-29 11:01:12.750000,106.7,72.2
261785,2018-06-29 11:01:12.781250,108.92,72.2
261786,2018-06-29 11:01:12.812500,104.54,72.2
261787,2018-06-29 11:01:12.843750,96.08,72.2
261788,2018-06-29 11:01:12.875000,84.59,72.2
261789,2018-06-29 11:01:12.906250,66.32,72.2
261790,2018-06-29 11:01:12.937500,40.59,72.2
