,Time,ppg,hr
262400,2018-06-29 11:01:32.000000,-81.59,73.12
262401,2018-06-29 11:01:32.031250,-89.98,73.12
262402,2018-06-29 11:01:32.062500,-77.71,73.12
262403,2018-06-29 11:01:32.093750,-42.83,73.12
262404,2018-06-29 11:01:32.125000,-0.11,73.12
262405,2018-06-29 11:01:32.156250,33.42,73.12
262406,2018-06-29 11:01:32.187500,52.48,73.12
262407,2018-06-29 11:01:32.218750,60.3,73.12
262408,2018-06-29 11:01:32.250000,60.28,73.12
262409,2018-06-29 11:01:32.281250,55.44,73.12
262410,2018-06-29 11:01:32.312500,50.62,73.12
262411,2018-06-29 11:01:32.343750,49.58,73.12
262412,2018-06-29 11:01:32.375000,51.27,73.12
262413,2018-06-29 11:01:32.406250,52.14,73.12
262414,2018-06-29 11:01:32.437500,50.81,73.12
262415,2018-06-29 11:01:32.468750,48.06,73.12
262416,2018-06-29 11:01:32.500000,43.6,73.12
262417,2018-06-29 11:01:32.531250,36.27,73.22
262418,2018-06-29 11:01:32.562500,26.49,73.22
262419,2018-06-29 11:01:32.593750,16.39,73.22
262420,2018-06-29 11:01:32.625000,7.53,73.22
262421,2018-06-29 11:01:32.656250,-0.73,73.22
262422,2018-06-29 11:01:32.687500,-10.28,73.22
262423,2018-06-29 11:01:32.718750,-21.51,73.22
262424,2018-06-29 11:01:32.750000,-32.52,73.22
262425,2018-06-29 11:01:32.781250,-41.7,73.22
262426,2018-06-29 11:01:32.812500,-49.51,73.22
262427,2018-06-29 11:01:32.843750,-57.84,73.22
262428,2018-06-29 11:01:32.875000,-69.11,73.22
262429,2018-06-29 11:01:32.906250,-82.74,73.22
262430,2018-06-29 11:01:32.937500,-89.74,73.22
262431,2018-06-29 11:01:32.968750,-77.11,73.22
262432,2018-06-29 11:01:33.000000,-43.28,73.22
262433,2018-06-29 11:01:33.031250,-3.19,73.22
262434,2018-06-29 11:01:33.062500,26.64,73.22
262435,2018-06-29 11:01:33.093750,41.3,73.22
262436,2018-06-29 11:01:33.125000,44.08,73.22
262437,2018-06-29 11:01:33.156250,39.28,73.22
262438,2018-06-29 11:01:33.187500,32.13,73.22
262439,2018-06-29 11:01:33.218750,28.44,73.22
262440,2018-06-29 11:01:33.250000,29.86,73.22
262441,2018-06-29 11:01:33.281250,32.72,73.22
262442,2018-06-29 11:01:33.312500,33.46,73.22
262443,2018-06-29 11:01:33.343750,32.48,73.22
262444,2018-06-29 11:01:33.375000,30.62,73.22
262445,2018-06-29 11:01:33.406250,25.82,73.22
262446,2018-06-29 11:01:33.437500,16.71,73.22
262447,2018-06-29 11:01:33.468750,6.61,73.22
262448,2018-06-29 11:01:33.500000,-0.64,73.22
262449,2018-06-29 11:01:33.531250,-6.57,73.33
262450,2018-06-29 11:01:33.562500,-15.46,73.33
262451,2018-06-29 11:01:33.593750,-27.13,73.33
262452,2018-06-29 11:01:33.625000,-37.18,73.33
262453,2018-06-29 11:01:33.656250,-43.53,73.33
262454,2018-06-29 11:01:33.687500,-49.55,73.33
262455,2018-06-29 11:01:33.718750,-60.22,73.33
262456,2018-06-29 11:01:33.750000,-75.0,73.33
262457,2018-06-29 11:01:33.781250,-82.87,73.33
262458,2018-06-29 11:01:33.812500,-70.06,73.33
262459,2018-06-29 11:01:33.843750,-36.35,73.33
262460,2018-06-29 11:01:33.875000,2.57,73.33
262461,2018-06-29 11:01:33.906250,31.91,73.33
262462,2018-06-29 11:01:33.937500,48.49,73.33
262463,2018-06-29 11:01:33.968750,54.72,73.33
262464,2018-06-29 11:01:34.000000,52.82,73.33
262465,2018-06-29 11:01:34.031250,46.69,73.33
262466,2018-06-29 11:01:34.062500,41.98,73.33
262467,2018-06-29 11:01:34.093750,41.38,73.33
262468,2018-06-29 11:01:34.125000,42.55,73.33
262469,2018-06-29 11:01:34.156250,42.23,73.33
262470,2018-06-29 11:01:34.187500,40.36,73.33
262471,2018-06-29 11:01:34.218750,37.93,73.33
262472,2018-06-29 11:01:34.250000,33.26,73.33
262473,2018-06-29 11:01:34.281250,24.6,73.33
262474,2018-06-29 11:01:34.312500,14.1,73.33
262475,2018-06-29 11:01:34.343750,4.84,73.33
262476,2018-06-29 11:01:34.375000,-3.76,73.33
262477,2018-06-29 11:01:34.406250,-13.96,73.33
262478,2018-06-29 11:01:34.437500,-25.45,73.33
262479,2018-06-29 11:01:34.468750,-36.0,73.33
262480,2018-06-29 11:01:34.500000,-44.47,73.33
262481,2018-06-29 11:01:34.531250,-51.68,73.42
262482,2018-06-29 11:01:34.562500,-60.27,73.42
262483,2018-06-29 11:01:34.593750,-73.12,73.42
262484,2018-06-29 11:01:34.625000,-87.13,73.42
262485,2018-06-29 11:01:34.656250,-89.51,73.42
262486,2018-06-29 11:01:34.687500,-69.0,73.42
262487,2018-06-29 11:01:34.718750,-31.11,73.42
262488,2018-06-29 11:01:34.750000,6.5,73.42
262489,2018-06-29 11:01:34.781250,32.33,73.42
262490,2018-06-29 11:01:34.812500,46.35,73.42
262491,2018-06-29 11:01:34.843750,51.38,73.42
262492,2018-06-29 11:01:34.875000,49.67,73.42
262493,2018-06-29 11:01:34.906250,45.37,73.42
262494,2018-06-29 11:01:34.937500,43.05,73.42
262495,2018-06-29 11:01:34.968750,43.9,73.42
262496,2018-06-29 11:01:35.000000,45.73,73.42
262497,2018-06-29 11:01:35.031250,46.22,73.42
262498,2018-06-29 11:01:35.062500,44.91,73.42
262499,2018-06-29 11:01:35.093750,41.78,73.42
262500,2018-06-29 11:01:35.125000,35.57,73.42
262501,2018-06-29 11:01:35.156250,25.75,73.42
262502,2018-06-29 11:01:35.187500,14.99,73.42
262503,2018-06-29 11:01:35.218750,6.56,73.42
262504,2018-06-29 11:01:35.250000,-0.41,73.42
262505,2018-06-29 11:01:35.281250,-9.63,73.42
262506,2018-06-29 11:01:35.312500,-21.5,73.42
262507,2018-06-29 11:01:35.343750,-32.09,73.42
262508,2018-06-29 11:01:35.375000,-39.21,73.42
262509,2018-06-29 11:01:35.406250,-45.75,73.42
262510,2018-06-29 11:01:35.437500,-56.05,73.42
262511,2018-06-29 11:01:35.468750,-70.18,73.42
262512,2018-06-29 11:01:35.500000,-80.25,73.42
262513,2018-06-29 11:01:35.531250,-73.57,73.47
262514,2018-06-29 11:01:35.562500,-45.46,73.47
262515,2018-06-29 11:01:35.593750,-6.98,73.47
262516,2018-06-29 11:01:35.625000,25.51,73.47
262517,2018-06-29 11:01:35.656250,44.52,73.47
262518,2018-06-29 11:01:35.687500,51.6,73.47
262519,2018-06-29 11:01:35.718750,50.47,73.47
262520,2018-06-29 11:01:35.750000,45.46,73.47
262521,2018-06-29 11:01:35.781250,41.62,73.47
262522,2018-06-29 11:01:35.812500,41.14,73.47
262523,2018-06-29 11:01:35.843750,41.92,73.47
262524,2018-06-29 11:01:35.875000,41.52,73.47
262525,2018-06-29 11:01:35.906250,40.23,73.47
262526,2018-06-29 11:01:35.937500,38.62,73.47
262527,2018-06-29 11:01:35.968750,35.09,73.47
262528,2018-06-29 11:01:36.000000,27.77,73.47
262529,2018-06-29 11:01:36.031250,17.77,73.47
262530,2018-06-29 11:01:36.062500,8.31,73.47
262531,2018-06-29 11:01:36.093750,0.04,73.47
262532,2018-06-29 11:01:36.125000,-9.54,73.47
262533,2018-06-29 11:01:36.156250,-20.9,73.47
262534,2018-06-29 11:01:36.187500,-31.2,73.47
262535,2018-06-29 11:01:36.218750,-39.11,73.47
262536,2018-06-29 11:01:36.250000,-46.49,73.47
262537,2018-06-29 11:01:36.281250,-55.96,73.47
262538,2018-06-29 11:01:36.312500,-68.63,73.47
262539,2018-06-29 11:01:36.343750,-79.53,73.47
262540,2018-06-29 11:01:36.375000,-77.11,73.47
262541,2018-06-29 11:01:36.406250,-55.04,73.47
262542,2018-06-29 11:01:36.437500,-21.92,73.47
262543,2018-06-29 11:01:36.468750,7.78,73.47
262544,2018-06-29 11:01:36.500000,26.61,73.47
262545,2018-06-29 11:01:36.531250,34.18,73.5
262546,2018-06-29 11:01:36.562500,32.7,73.5
262547,2018-06-29 11:01:36.593750,26.76,73.5
262548,2018-06-29 11:01:36.625000,22.25,73.5
262549,2018-06-29 11:01:36.656250,21.93,73.5
262550,2018-06-29 11:01:36.687500,24.04,73.5
262551,2018-06-29 11:01:36.718750,26.08,73.5
262552,2018-06-29 11:01:36.750000,27.21,73.5
262553,2018-06-29 11:01:36.781250,26.08,73.5
262554,2018-06-29 11:01:36.812500,20.51,73.5
262555,2018-06-29 11:01:36.843750,10.99,73.5
262556,2018-06-29 11:01:36.875000,0.75,73.5
262557,2018-06-29 11:01:36.906250,-8.65,73.5
262558,2018-06-29 11:01:36.937500,-18.14,73.5
262559,2018-06-29 11:01:36.968750,-27.78,73.5
262560,2018-06-29 11:01:37.000000,-36.07,73.5
262561,2018-06-29 11:01:37.031250,-42.45,73.5
262562,2018-06-29 11:01:37.062500,-48.62,73.5
262563,2018-06-29 11:01:37.093750,-57.3,73.5
262564,2018-06-29 11:01:37.125000,-67.37,73.5
262565,2018-06-29 11:01:37.156250,-69.49,73.5
262566,2018-06-29 11:01:37.187500,-52.98,73.5
262567,2018-06-29 11:01:37.218750,-19.26,73.5
262568,2018-06-29 11:01:37.250000,17.73,73.5
262569,2018-06-29 11:01:37.281250,45.79,73.5
262570,2018-06-29 11:01:37.312500,62.18,73.5
262571,2018-06-29 11:01:37.343750,68.55,73.5
262572,2018-06-29 11:01:37.375000,67.53,73.5
262573,2018-06-29 11:01:37.406250,64.26,73.5
262574,2018-06-29 11:01:37.437500,63.84,73.5
262575,2018-06-29 11:01:37.468750,66.76,73.5
262576,2018-06-29 11:01:37.500000,70.36,73.5
262577,2018-06-29 11:01:37.531250,73.5,73.5
262578,2018-06-29 11:01:37.562500,75.91,73.5
262579,2018-06-29 11:01:37.593750,75.64,73.5
262580,2018-06-29 11:01:37.625000,71.2,73.5
262581,2018-06-29 11:01:37.656250,64.43,73.5
262582,2018-06-29 11:01:37.687500,58.39,73.5
262583,2018-06-29 11:01:37.718750,53.32,73.5
262584,2018-06-29 11:01:37.750000,45.4,73.5
262585,2018-06-29 11:01:37.781250,28.86,73.5
262586,2018-06-29 11:01:37.812500,1.1,73.5
262587,2018-06-29 11:01:37.843750,-31.34,73.5
262588,2018-06-29 11:01:37.875000,-53.57,73.5
262589,2018-06-29 11:01:37.906250,-51.56,73.5
262590,2018-06-29 11:01:37.937500,-19.0,73.5
262591,2018-06-29 11:01:37.968750,41.18,73.5
262592,2018-06-29 11:01:38.000000,113.07,73.5
262593,2018-06-29 11:01:38.031250,168.76,73.5
262594,2018-06-29 11:01:38.062500,187.44,73.5
262595,2018-06-29 11:01:38.093750,172.8,73.5
262596,2018-06-29 11:01:38.125000,141.85,73.5
262597,2018-06-29 11:01:38.156250,102.63,73.5
262598,2018-06-29 11:01:38.187500,54.21,73.5
262599,2018-06-29 11:01:38.218750,0.19,73.5
262600,2018-06-29 11:01:38.250000,-49.88,73.5
262601,2018-06-29 11:01:38.281250,-86.97,73.5
262602,2018-06-29 11:01:38.312500,-101.4,73.5
262603,2018-06-29 11:01:38.343750,-83.27,73.5
262604,2018-06-29 11:01:38.375000,-36.81,73.5
262605,2018-06-29 11:01:38.406250,12.74,73.5
262606,2018-06-29 11:01:38.437500,41.53,73.5
262607,2018-06-29 11:01:38.468750,50.51,73.5
262608,2018-06-29 11:01:38.500000,53.83,73.5
262609,2018-06-29 11:01:38.531250,52.32,73.47
262610,2018-06-29 11:01:38.562500,34.44,73.47
262611,2018-06-29 11:01:38.593750,-3.59,73.47
262612,2018-06-29 11:01:38.625000,-52.76,73.47
262613,2018-06-29 11:01:38.656250,-100.61,73.47
262614,2018-06-29 11:01:38.687500,-139.37,73.47
262615,2018-06-29 11:01:38.718750,-174.23,73.47
262616,2018-06-29 11:01:38.750000,-223.42,73.47
262617,2018-06-29 11:01:38.781250,-289.78,73.47
262618,2018-06-29 11:01:38.812500,-335.04,73.47
262619,2018-06-29 11:01:38.843750,-315.32,73.47
262620,2018-06-29 11:01:38.875000,-238.62,73.47
262621,2018-06-29 11:01:38.906250,-152.17,73.47
262622,2018-06-29 11:01:38.937500,-84.75,73.47
262623,2018-06-29 11:01:38.968750,-36.32,73.47
262624,2018-06-29 11:01:39.000000,-4.78,73.47
262625,2018-06-29 11:01:39.031250,12.71,73.47
262626,2018-06-29 11:01:39.062500,28.35,73.47
262627,2018-06-29 11:01:39.093750,48.51,73.47
262628,2018-06-29 11:01:39.125000,64.15,73.47
262629,2018-06-29 11:01:39.156250,65.95,73.47
262630,2018-06-29 11:01:39.187500,56.78,73.47
262631,2018-06-29 11:01:39.218750,45.97,73.47
262632,2018-06-29 11:01:39.250000,39.11,73.47
262633,2018-06-29 11:01:39.281250,34.31,73.47
262634,2018-06-29 11:01:39.312500,25.06,73.47
262635,2018-06-29 11:01:39.343750,6.73,73.47
262636,2018-06-29 11:01:39.375000,-18.43,73.47
262637,2018-06-29 11:01:39.406250,-44.02,73.47
262638,2018-06-29 11:01:39.437500,-65.51,73.47
262639,2018-06-29 11:01:39.468750,-80.73,73.47
262640,2018-06-29 11:01:39.500000,-87.92,73.47
262641,2018-06-29 11:01:39.531250,-86.75,73.45
262642,2018-06-29 11:01:39.562500,-76.79,73.45
262643,2018-06-29 11:01:39.593750,-53.29,73.45
262644,2018-06-29 11:01:39.625000,-12.94,73.45
262645,2018-06-29 11:01:39.656250,35.76,73.45
262646,2018-06-29 11:01:39.687500,77.24,73.45
262647,2018-06-29 11:01:39.718750,102.86,73.45
262648,2018-06-29 11:01:39.750000,112.27,73.45
262649,2018-06-29 11:01:39.781250,107.14,73.45
262650,2018-06-29 11:01:39.812500,92.88,73.45
262651,2018-06-29 11:01:39.843750,79.82,73.45
262652,2018-06-29 11:01:39.875000,74.23,73.45
262653,2018-06-29 11:01:39.906250,72.72,73.45
262654,2018-06-29 11:01:39.937500,67.73,73.45
262655,2018-06-29 11:01:39.968750,53.31,73.45
262656,2018-06-29 11:01:40.000000,25.95,73.45
262657,2018-06-29 11:01:40.031250,-13.93,73.45
262658,2018-06-29 11:01:40.062500,-61.26,73.45
262659,2018-06-29 11:01:40.093750,-110.41,73.45
262660,2018-06-29 11:01:40.125000,-158.72,73.45
262661,2018-06-29 11:01:40.156250,-203.65,73.45
262662,2018-06-29 11:01:40.187500,-239.9,73.45
262663,2018-06-29 11:01:40.218750,-262.92,73.45
262664,2018-06-29 11:01:40.250000,-274.25,73.45
262665,2018-06-29 11:01:40.281250,-281.23,73.45
262666,2018-06-29 11:01:40.312500,-290.94,73.45
262667,2018-06-29 11:01:40.343750,-301.51,73.45
262668,2018-06-29 11:01:40.375000,-297.38,73.45
262669,2018-06-29 11:01:40.406250,-260.92,73.45
262670,2018-06-29 11:01:40.437500,-192.12,73.45
262671,2018-06-29 11:01:40.468750,-110.16,73.45
262672,2018-06-29 11:01:40.500000,-35.22,73.45
262673,2018-06-29 11:01:40.531250,23.85,73.43
262674,2018-06-29 11:01:40.562500,66.42,73.43
262675,2018-06-29 11:01:40.593750,94.74,73.43
262676,2018-06-29 11:01:40.625000,113.0,73.43
262677,2018-06-29 11:01:40.656250,126.56,73.43
262678,2018-06-29 11:01:40.687500,139.02,73.43
262679,2018-06-29 11:01:40.718750,149.99,73.43
262680,2018-06-29 11:01:40.750000,157.43,73.43
262681,2018-06-29 11:01:40.781250,160.81,73.43
262682,2018-06-29 11:01:40.812500,159.12,73.43
262683,2018-06-29 11:01:40.843750,149.27,73.43
262684,2018-06-29 11:01:40.875000,131.0,73.43
262685,2018-06-29 11:01:40.906250,110.19,73.43
262686,2018-06-29 11:01:40.937500,92.75,73.43
262687,2018-06-29 11:01:40.968750,77.71,73.43
262688,2018-06-29 11:01:41.000000,60.41,73.43
262689,2018-06-29 11:01:41.031250,40.25,73.43
262690,2018-06-29 11:01:41.062500,20.8,73.43
262691,2018-06-29 11:01:41.093750,3.12,73.43
262692,2018-06-29 11:01:41.125000,-16.84,73.43
262693,2018-06-29 11:01:41.156250,-43.78,73.43
262694,2018-06-29 11:01:41.187500,-74.03,73.43
262695,2018-06-29 11:01:41.218750,-89.28,73.43
262696,2018-06-29 11:01:41.250000,-68.78,73.43
262697,2018-06-29 11:01:41.281250,-13.71,73.43
262698,2018-06-29 11:01:41.312500,50.45,73.43
262699,2018-06-29 11:01:41.343750,99.86,73.43
262700,2018-06-29 11:01:41.375000,129.13,73.43
262701,2018-06-29 11:01:41.406250,142.2,73.43
262702,2018-06-29 11:01:41.437500,142.29,73.43
262703,2018-06-29 11:01:41.468750,134.47,73.43
262704,2018-06-29 11:01:41.500000,126.84,73.43
262705,2018-06-29 11:01:41.531250,123.35,73.38
262706,2018-06-29 11:01:41.562500,121.07,73.38
262707,2018-06-29 11:01:41.593750,117.75,73.38
262708,2018-06-29 11:01:41.625000,114.52,73.38
262709,2018-06-29 11:01:41.656250,110.15,73.38
262710,2018-06-29 11:01:41.687500,101.08,73.38
262711,2018-06-29 11:01:41.718750,87.47,73.38
262712,2018-06-29 11:01:41.750000,72.64,73.38
262713,2018-06-29 11:01:41.781250,58.42,73.38
262714,2018-06-29 11:01:41.812500,45.31,73.38
262715,2018-06-29 11:01:41.843750,33.85,73.38
262716,2018-06-29 11:01:41.875000,22.98,73.38
262717,2018-06-29 11:01:41.906250,9.59,73.38
262718,2018-06-29 11:01:41.937500,-7.88,73.38
262719,2018-06-29 11:01:41.968750,-26.82,73.38
262720,2018-06-29 11:01:42.000000,-43.3,73.38
262721,2018-06-29 11:01:42.031250,-57.27,73.38
262722,2018-06-29 11:01:42.062500,-73.79,73.38
262723,2018-06-29 11:01:42.093750,-96.43,73.38
262724,2018-06-29 11:01:42.125000,-116.8,73.38
262725,2018-06-29 11:01:42.156250,-114.39,73.38
262726,2018-06-29 11:01:42.187500,-76.38,73.38
262727,2018-06-29 11:01:42.218750,-15.46,73.38
262728,2018-06-29 11:01:42.250000,41.08,73.38
262729,2018-06-29 11:01:42.281250,76.56,73.38
262730,2018-06-29 11:01:42.312500,91.54,73.38
262731,2018-06-29 11:01:42.343750,92.7,73.38
262732,2018-06-29 11:01:42.375000,85.91,73.38
262733,2018-06-29 11:01:42.406250,77.58,73.38
262734,2018-06-29 11:01:42.437500,73.24,73.38
262735,2018-06-29 11:01:42.468750,73.09,73.38
262736,2018-06-29 11:01:42.500000,72.97,73.38
262737,2018-06-29 11:01:42.531250,70.67,73.33
262738,2018-06-29 11:01:42.562500,67.26,73.33
262739,2018-06-29 11:01:42.593750,62.13,73.33
262740,2018-06-29 11:01:42.625000,52.13,73.33
262741,2018-06-29 11:01:42.656250,36.67,73.33
262742,2018-06-29 11:01:42.687500,19.85,73.33
262743,2018-06-29 11:01:42.718750,6.09,73.33
262744,2018-06-29 11:01:42.750000,-4.87,73.33
262745,2018-06-29 11:01:42.781250,-16.67,73.33
262746,2018-06-29 11:01:42.812500,-30.24,73.33
262747,2018-06-29 11:01:42.843750,-42.4,73.33
262748,2018-06-29 11:01:42.875000,-51.04,73.33
262749,2018-06-29 11:01:42.906250,-58.49,73.33
262750,2018-06-29 11:01:42.937500,-69.35,73.33
262751,2018-06-29 11:01:42.968750,-85.72,73.33
262752,2018-06-29 11:01:43.000000,-100.73,73.33
262753,2018-06-29 11:01:43.031250,-97.53,73.33
262754,2018-06-29 11:01:43.062500,-65.04,73.33
262755,2018-06-29 11:01:43.093750,-14.06,73.33
262756,2018-06-29 11:01:43.125000,32.32,73.33
262757,2018-06-29 11:01:43.156250,61.55,73.33
262758,2018-06-29 11:01:43.187500,75.14,73.33
262759,2018-06-29 11:01:43.218750,76.56,73.33
262760,2018-06-29 11:01:43.250000,68.78,73.33
262761,2018-06-29 11:01:43.281250,59.08,73.33
262762,2018-06-29 11:01:43.312500,54.6,73.33
262763,2018-06-29 11:01:43.343750,54.6,73.33
262764,2018-06-29 11:01:43.375000,54.09,73.33
262765,2018-06-29 11:01:43.406250,51.81,73.33
262766,2018-06-29 11:01:43.437500,49.03,73.33
262767,2018-06-29 11:01:43.468750,44.14,73.33
262768,2018-06-29 11:01:43.500000,34.57,73.33
262769,2018-06-29 11:01:43.531250,21.81,73.28
262770,2018-06-29 11:01:43.562500,10.32,73.28
262771,2018-06-29 11:01:43.593750,1.92,73.28
262772,2018-06-29 11:01:43.625000,-5.97,73.28
262773,2018-06-29 11:01:43.656250,-16.74,73.28
262774,2018-06-29 11:01:43.687500,-30.49,73.28
262775,2018-06-29 11:01:43.718750,-43.87,73.28
262776,2018-06-29 11:01:43.750000,-53.98,73.28
262777,2018-06-29 11:01:43.781250,-62.39,73.28
262778,2018-06-29 11:01:43.812500,-74.26,73.28
262779,2018-06-29 11:01:43.843750,-91.66,73.28
262780,2018-06-29 11:01:43.875000,-106.28,73.28
262781,2018-06-29 11:01:43.906250,-102.66,73.28
262782,2018-06-29 11:01:43.937500,-74.01,73.28
262783,2018-06-29 11:01:43.968750,-31.56,73.28
262784,2018-06-29 11:01:44.000000,6.49,73.28
262785,2018-06-29 11:01:44.031250,30.98,73.28
262786,2018-06-29 11:01:44.062500,42.75,73.28
262787,2018-06-29 11:01:44.093750,44.94,73.28
262788,2018-06-29 11:01:44.125000,41.23,73.28
262789,2018-06-29 11:01:44.156250,36.76,73.28
262790,2018-06-29 11:01:44.187500,35.37,73.28
262791,2018-06-29 11:01:44.218750,37.15,73.28
262792,2018-06-29 11:01:44.250000,39.65,73.28
262793,2018-06-29 11:01:44.281250,40.83,73.28
262794,2018-06-29 11:01:44.312500,40.1,73.28
262795,2018-06-29 11:01:44.343750,37.18,73.28
262796,2018-06-29 11:01:44.375000,31.09,73.28
262797,2018-06-29 11:01:44.406250,21.71,73.28
262798,2018-06-29 11:01:44.437500,11.58,73.28
262799,2018-06-29 11:01:44.468750,3.37,73.28
262800,2018-06-29 11:01:44.500000,-3.96,73.28
262801,2018-06-29 11:01:44.531250,-13.2,73.23
262802,2018-06-29 11:01:44.562500,-24.33,73.23
262803,2018-06-29 11:01:44.593750,-34.69,73.23
262804,2018-06-29 11:01:44.625000,-42.48,73.23
262805,2018-06-29 11:01:44.656250,-48.83,73.23
262806,2018-06-29 11:01:44.687500,-57.21,73.23
262807,2018-06-29 11:01:44.718750,-69.92,73.23
262808,2018-06-29 11:01:44.750000,-82.25,73.23
262809,2018-06-29 11:01:44.781250,-82.19,73.23
262810,2018-06-29 11:01:44.812500,-61.97,73.23
262811,2018-06-29 11:01:44.843750,-28.69,73.23
262812,2018-06-29 11:01:44.875000,2.26,73.23
262813,2018-06-29 11:01:44.906250,22.29,73.23
262814,2018-06-29 11:01:44.937500,32.08,73.23
262815,2018-06-29 11:01:44.968750,33.92,73.23
262816,2018-06-29 11:01:45.000000,30.19,73.23
262817,2018-06-29 11:01:45.031250,25.84,73.23
262818,2018-06-29 11:01:45.062500,25.01,73.23
262819,2018-06-29 11:01:45.093750,26.68,73.23
262820,2018-06-29 11:01:45.125000,27.42,73.23
262821,2018-06-29 11:01:45.156250,26.55,73.23
262822,2018-06-29 11:01:45.187500,25.18,73.23
262823,2018-06-29 11:01:45.218750,22.95,73.23
262824,2018-06-29 11:01:45.250000,18.49,73.23
262825,2018-06-29 11:01:45.281250,11.67,73.23
262826,2018-06-29 11:01:45.312500,4.05,73.23
262827,2018-06-29 11:01:45.343750,-2.81,73.23
262828,2018-06-29 11:01:45.375000,-8.82,73.23
262829,2018-06-29 11:01:45.406250,-15.37,73.23
262830,2018-06-29 11:01:45.437500,-23.23,73.23
262831,2018-06-29 11:01:45.468750,-31.38,73.23
262832,2018-06-29 11:01:45.500000,-38.44,73.23
262833,2018-06-29 11:01:45.531250,-44.79,73.17
262834,2018-06-29 11:01:45.562500,-52.39,73.17
262835,2018-06-29 11:01:45.593750,-62.18,73.17
262836,2018-06-29 11:01:45.625000,-69.7,73.17
262837,2018-06-29 11:01:45.656250,-65.58,73.17
262838,2018-06-29 11:01:45.687500,-45.13,73.17
262839,2018-06-29 11:01:45.718750,-16.07,73.17
262840,2018-06-29 11:01:45.750000,8.68,73.17
262841,2018-06-29 11:01:45.781250,22.92,73.17
262842,2018-06-29 11:01:45.812500,27.54,73.17
262843,2018-06-29 11:01:45.843750,25.09,73.17
262844,2018-06-29 11:01:45.875000,19.32,73.17
262845,2018-06-29 11:01:45.906250,15.27,73.17
262846,2018-06-29 11:01:45.937500,15.41,73.17
262847,2018-06-29 11:01:45.968750,17.8,73.17
262848,2018-06-29 11:01:46.000000,19.5,73.17
262849,2018-06-29 11:01:46.031250,19.8,73.17
262850,2018-06-29 11:01:46.062500,19.21,73.17
262851,2018-06-29 11:01:46.093750,16.89,73.17
262852,2018-06-29 11:01:46.125000,11.17,73.17
262853,2018-06-29 11:01:46.156250,2.81,73.17
262854,2018-06-29 11:01:46.187500,-4.87,73.17
262855,2018-06-29 11:01:46.218750,-9.87,73.17
262856,2018-06-29 11:01:46.250000,-13.96,73.17
262857,2018-06-29 11:01:46.281250,-20.14,73.17
262858,2018-06-29 11:01:46.312500,-28.81,73.17
262859,2018-06-29 11:01:46.343750,-37.24,73.17
262860,2018-06-29 11:01:46.375000,-42.99,73.17
262861,2018-06-29 11:01:46.406250,-47.22,73.17
262862,2018-06-29 11:01:46.437500,-53.96,73.17
262863,2018-06-29 11:01:46.468750,-64.09,73.17
262864,2018-06-29 11:01:46.500000,-70.4,73.17
262865,2018-06-29 11:01:46.531250,-62.58,73.05
262866,2018-06-29 11:01:46.562500,-39.35,73.05
262867,2018-06-29 11:01:46.593750,-10.97,73.05
262868,2018-06-29 11:01:46.625000,11.92,73.05
262869,2018-06-29 11:01:46.656250,26.19,73.05
262870,2018-06-29 11:01:46.687500,32.42,73.05
262871,2018-06-29 11:01:46.718750,31.64,73.05
262872,2018-06-29 11:01:46.750000,27.5,73.05
262873,2018-06-29 11:01:46.781250,25.0,73.05
262874,2018-06-29 11:01:46.812500,25.84,73.05
262875,2018-06-29 11:01:46.843750,27.72,73.05
262876,2018-06-29 11:01:46.875000,28.31,73.05
262877,2018-06-29 11:01:46.906250,27.61,73.05
262878,2018-06-29 11:01:46.937500,25.96,73.05
262879,2018-06-29 11:01:46.968750,22.02,73.05
262880,2018-06-29 11:01:47.000000,14.98,73.05
262881,2018-06-29 11:01:47.031250,7.07,73.05
262882,2018-06-29 11:01:47.062500,0.76,73.05
262883,2018-06-29 11:01:47.093750,-5.27,73.05
262884,2018-06-29 11:01:47.125000,-14.11,73.05
262885,2018-06-29 11:01:47.156250,-25.19,73.05
262886,2018-06-29 11:01:47.187500,-34.31,73.05
262887,2018-06-29 11:01:47.218750,-39.74,73.05
262888,2018-06-29 11:01:47.250000,-45.06,73.05
262889,2018-06-29 11:01:47.281250,-54.74,73.05
262890,2018-06-29 11:01:47.312500,-67.66,73.05
262891,2018-06-29 11:01:47.343750,-74.56,73.05
262892,2018-06-29 11:01:47.375000,-64.51,73.05
262893,2018-06-29 11:01:47.406250,-36.94,73.05
262894,2018-06-29 11:01:47.437500,-4.4,73.05
262895,2018-06-29 11:01:47.468750,19.97,73.05
262896,2018-06-29 11:01:47.500000,32.96,73.05
262897,2018-06-29 11:01:47.531250,37.81,72.95
262898,2018-06-29 11:01:47.562500,37.41,72.95
262899,2018-06-29 11:01:47.593750,34.16,72.95
262900,2018-06-29 11:01:47.625000,31.43,72.95
262901,2018-06-29 11:01:47.656250,31.23,72.95
262902,2018-06-29 11:01:47.687500,32.56,72.95
262903,2018-06-29 11:01:47.718750,33.84,72.95
262904,2018-06-29 11:01:47.750000,34.62,72.95
262905,2018-06-29 11:01:47.781250,33.77,72.95
262906,2018-06-29 11:01:47.812500,29.29,72.95
262907,2018-06-29 11:01:47.843750,21.45,72.95
262908,2018-06-29 11:01:47.875000,12.73,72.95
262909,2018-06-29 11:01:47.906250,4.06,72.95
262910,2018-06-29 11:01:47.937500,-5.94,72.95
262911,2018-06-29 11:01:47.968750,-17.48,72.95
262912,2018-06-29 11:01:48.000000,-27.92,72.95
262913,2018-06-29 11:01:48.031250,-35.4,72.95
262914,2018-06-29 11:01:48.062500,-41.97,72.95
262915,2018-06-29 11:01:48.093750,-51.56,72.95
262916,2018-06-29 11:01:48.125000,-65.57,72.95
262917,2018-06-29 11:01:48.156250,-78.16,72.95
262918,2018-06-29 11:01:48.187500,-76.76,72.95
262919,2018-06-29 11:01:48.218750,-53.86,72.95
262920,2018-06-29 11:01:48.250000,-18.02,72.95
262921,2018-06-29 11:01:48.281250,13.79,72.95
262922,2018-06-29 11:01:48.312500,32.26,72.95
262923,2018-06-29 11:01:48.343750,38.48,72.95
262924,2018-06-29 11:01:48.375000,36.34,72.95
262925,2018-06-29 11:01:48.406250,29.79,72.95
262926,2018-06-29 11:01:48.437500,23.86,72.95
262927,2018-06-29 11:01:48.468750,22.49,72.95
262928,2018-06-29 11:01:48.500000,25.61,72.95
262929,2018-06-29 11:01:48.531250,30.02,72.88
262930,2018-06-29 11:01:48.562500,32.56,72.88
262931,2018-06-29 11:01:48.593750,31.39,72.88
262932,2018-06-29 11:01:48.625000,26.19,72.88
262933,2018-06-29 11:01:48.656250,18.59,72.88
262934,2018-06-29 11:01:48.687500,10.34,72.88
262935,2018-06-29 11:01:48.718750,1.45,72.88
262936,2018-06-29 11:01:48.750000,-8.2,72.88
262937,2018-06-29 11:01:48.781250,-17.93,72.88
262938,2018-06-29 11:01:48.812500,-27.51,72.88
262939,2018-06-29 11:01:48.843750,-37.1,72.88
262940,2018-06-29 11:01:48.875000,-46.65,72.88
262941,2018-06-29 11:01:48.906250,-57.38,72.88
262942,2018-06-29 11:01:48.937500,-68.46,72.88
262943,2018-06-29 11:01:48.968750,-70.98,72.88
262944,2018-06-29 11:01:49.000000,-55.05,72.88
262945,2018-06-29 11:01:49.031250,-23.63,72.88
262946,2018-06-29 11:01:49.062500,9.89,72.88
262947,2018-06-29 11:01:49.093750,32.74,72.88
262948,2018-06-29 11:01:49.125000,30.82,72.88
262949,2018-06-29 11:01:49.156250,-7.06,72.88
262950,2018-06-29 11:01:49.187500,-65.78,72.88
262951,2018-06-29 11:01:49.218750,-104.86,72.88
262952,2018-06-29 11:01:49.250000,-97.87,72.88
262953,2018-06-29 11:01:49.281250,-51.07,72.88
262954,2018-06-29 11:01:49.312500,20.39,72.88
262955,2018-06-29 11:01:49.343750,104.5,72.88
262956,2018-06-29 11:01:49.375000,184.62,72.88
262957,2018-06-29 11:01:49.406250,243.08,72.88
262958,2018-06-29 11:01:49.437500,263.83,72.88
262959,2018-06-29 11:01:49.468750,227.99,72.88
262960,2018-06-29 11:01:49.500000,134.07,72.88
262961,2018-06-29 11:01:49.531250,22.19,72.78
262962,2018-06-29 11:01:49.562500,-52.14,72.78
262963,2018-06-29 11:01:49.593750,-65.24,72.78
262964,2018-06-29 11:01:49.625000,-29.01,72.78
262965,2018-06-29 11:01:49.656250,36.65,72.78
262966,2018-06-29 11:01:49.687500,114.56,72.78
262967,2018-06-29 11:01:49.718750,182.98,72.78
262968,2018-06-29 11:01:49.750000,218.58,72.78
262969,2018-06-29 11:01:49.781250,213.66,72.78
262970,2018-06-29 11:01:49.812500,181.63,72.78
262971,2018-06-29 11:01:49.843750,140.3,72.78
262972,2018-06-29 11:01:49.875000,97.45,72.78
262973,2018-06-29 11:01:49.906250,57.15,72.78
262974,2018-06-29 11:01:49.937500,24.12,72.78
262975,2018-06-29 11:01:49.968750,-3.76,72.78
262976,2018-06-29 11:01:50.000000,-34.27,72.78
262977,2018-06-29 11:01:50.031250,-68.17,72.78
262978,2018-06-29 11:01:50.062500,-97.98,72.78
262979,2018-06-29 11:01:50.093750,-119.83,72.78
262980,2018-06-29 11:01:50.125000,-137.48,72.78
262981,2018-06-29 11:01:50.156250,-154.65,72.78
262982,2018-06-29 11:01:50.187500,-170.63,72.78
262983,2018-06-29 11:01:50.218750,-183.37,72.78
262984,2018-06-29 11:01:50.250000,-191.36,72.78
262985,2018-06-29 11:01:50.281250,-193.07,72.78
262986,2018-06-29 11:01:50.312500,-187.84,72.78
262987,2018-06-29 11:01:50.343750,-178.3,72.78
262988,2018-06-29 11:01:50.375000,-169.25,72.78
262989,2018-06-29 11:01:50.406250,-161.97,72.78
262990,2018-06-29 11:01:50.437500,-151.88,72.78
262991,2018-06-29 11:01:50.468750,-134.71,72.78
262992,2018-06-29 11:01:50.500000,-109.94,72.78
262993,2018-06-29 11:01:50.531250,-75.09,72.65
262994,2018-06-29 11:01:50.562500,-24.89,72.65
262995,2018-06-29 11:01:50.593750,38.73,72.65
262996,2018-06-29 11:01:50.625000,101.84,72.65
262997,2018-06-29 11:01:50.656250,148.07,72.65
262998,2018-06-29 11:01:50.687500,170.13,72.65
262999,2018-06-29 11:01:50.718750,171.4,72.65
263000,2018-06-29 11:01:50.750000,159.88,72.65
263001,2018-06-29 11:01:50.781250,142.2,72.65
263002,2018-06-29 11:01:50.812500,119.42,72.65
263003,2018-06-29 11:01:50.843750,86.3,72.65
263004,2018-06-29 11:01:50.875000,40.15,72.65
263005,2018-06-29 11:01:50.906250,-9.42,72.65
263006,2018-06-29 11:01:50.937500,-46.85,72.65
263007,2018-06-29 11:01:50.968750,-64.12,72.65
263008,2018-06-29 11:01:51.000000,-59.89,72.65
263009,2018-06-29 11:01:51.031250,-33.22,72.65
263010,2018-06-29 11:01:51.062500,8.42,72.65
263011,2018-06-29 11:01:51.093750,47.39,72.65
263012,2018-06-29 11:01:51.125000,72.49,72.65
263013,2018-06-29 11:01:51.156250,84.11,72.65
263014,2018-06-29 11:01:51.187500,81.3,72.65
263015,2018-06-29 11:01:51.218750,61.34,72.65
263016,2018-06-29 11:01:51.250000,29.01,72.65
263017,2018-06-29 11:01:51.281250,-7.05,72.65
263018,2018-06-29 11:01:51.312500,-42.44,72.65
263019,2018-06-29 11:01:51.343750,-75.65,72.65
263020,2018-06-29 11:01:51.375000,-106.52,72.65
263021,2018-06-29 11:01:51.406250,-136.8,72.65
263022,2018-06-29 11:01:51.437500,-165.63,72.65
263023,2018-06-29 11:01:51.468750,-184.6,72.65
263024,2018-06-29 11:01:51.500000,-182.53,72.65
263025,2018-06-29 11:01:51.531250,-154.22,72.52
263026,2018-06-29 11:01:51.562500,-99.23,72.52
263027,2018-06-29 11:01:51.593750,-20.35,72.52
263028,2018-06-29 11:01:51.625000,72.22,72.52
263029,2018-06-29 11:01:51.656250,159.72,72.52
263030,2018-06-29 11:01:51.687500,222.16,72.52
263031,2018-06-29 11:01:51.718750,244.17,72.52
263032,2018-06-29 11:01:51.750000,219.56,72.52
263033,2018-06-29 11:01:51.781250,158.54,72.52
263034,2018-06-29 11:01:51.812500,84.46,72.52
263035,2018-06-29 11:01:51.843750,22.9,72.52
263036,2018-06-29 11:01:51.875000,-13.48,72.52
263037,2018-06-29 11:01:51.906250,-25.96,72.52
263038,2018-06-29 11:01:51.937500,-29.62,72.52
263039,2018-06-29 11:01:51.968750,-40.52,72.52
263040,2018-06-29 11:01:52.000000,-66.98,72.52
263041,2018-06-29 11:01:52.031250,-103.08,72.52
263042,2018-06-29 11:01:52.062500,-130.3,72.52
263043,2018-06-29 11:01:52.093750,-143.35,72.52
263044,2018-06-29 11:01:52.125000,-151.83,72.52
263045,2018-06-29 11:01:52.156250,-172.2,72.52
263046,2018-06-29 11:01:52.187500,-191.78,72.52
263047,2018-06-29 11:01:52.218750,-189.14,72.52
263048,2018-06-29 11:01:52.250000,-162.1,72.52
263049,2018-06-29 11:01:52.281250,-138.61,72.52
263050,2018-06-29 11:01:52.312500,-146.59,72.52
263051,2018-06-29 11:01:52.343750,-171.84,72.52
263052,2018-06-29 11:01:52.375000,-189.8,72.52
263053,2018-06-29 11:01:52.406250,-123.58,72.52
263054,2018-06-29 11:01:52.437500,25.87,72.52
263055,2018-06-29 11:01:52.468750,146.23,72.52
263056,2018-06-29 11:01:52.500000,223.7,72.52
263057,2018-06-29 11:01:52.531250,283.05,72.53
263058,2018-06-29 11:01:52.562500,317.92,72.53
263059,2018-06-29 11:01:52.593750,317.71,72.53
263060,2018-06-29 11:01:52.625000,297.49,72.53
263061,2018-06-29 11:01:52.656250,267.7,72.53
263062,2018-06-29 11:01:52.687500,228.23,72.53
263063,2018-06-29 11:01:52.718750,175.42,72.53
263064,2018-06-29 11:01:52.750000,126.62,72.53
263065,2018-06-29 11:01:52.781250,94.11,72.53
263066,2018-06-29 11:01:52.812500,69.28,72.53
263067,2018-06-29 11:01:52.843750,39.2,72.53
263068,2018-06-29 11:01:52.875000,3.11,72.53
263069,2018-06-29 11:01:52.906250,-24.21,72.53
263070,2018-06-29 11:01:52.937500,-40.44,72.53
263071,2018-06-29 11:01:52.968750,-52.97,72.53
263072,2018-06-29 11:01:53.000000,-66.35,72.53
263073,2018-06-29 11:01:53.031250,-68.7,72.53
263074,2018-06-29 11:01:53.062500,-46.88,72.53
263075,2018-06-29 11:01:53.093750,-6.01,72.53
263076,2018-06-29 11:01:53.125000,33.95,72.53
263077,2018-06-29 11:01:53.156250,57.01,72.53
263078,2018-06-29 11:01:53.187500,64.45,72.53
263079,2018-06-29 11:01:53.218750,63.93,72.53
263080,2018-06-29 11:01:53.250000,58.11,72.53
263081,2018-06-29 11:01:53.281250,45.19,72.53
263082,2018-06-29 11:01:53.312500,24.83,72.53
263083,2018-06-29 11:01:53.343750,-0.7,72.53
263084,2018-06-29 11:01:53.375000,-27.99,72.53
263085,2018-06-29 11:01:53.406250,-51.68,72.53
263086,2018-06-29 11:01:53.437500,-66.33,72.53
263087,2018-06-29 11:01:53.468750,-72.43,72.53
263088,2018-06-29 11:01:53.500000,-76.51,72.53
263089,2018-06-29 11:01:53.531250,-84.2,72.53
263090,2018-06-29 11:01:53.562500,-96.86,72.53
263091,2018-06-29 11:01:53.593750,-114.51,72.53
263092,2018-06-29 11:01:53.625000,-136.73,72.53
263093,2018-06-29 11:01:53.656250,-160.7,72.53
263094,2018-06-29 11:01:53.687500,-182.45,72.53
263095,2018-06-29 11:01:53.718750,-200.22,72.53
263096,2018-06-29 11:01:53.750000,-214.88,72.53
263097,2018-06-29 11:01:53.781250,-225.46,72.53
263098,2018-06-29 11:01:53.812500,-224.04,72.53
263099,2018-06-29 11:01:53.843750,-200.68,72.53
263100,2018-06-29 11:01:53.875000,-155.67,72.53
263101,2018-06-29 11:01:53.906250,-101.31,72.53
263102,2018-06-29 11:01:53.937500,-51.28,72.53
263103,2018-06-29 11:01:53.968750,-14.5,72.53
263104,2018-06-29 11:01:54.000000,4.99,72.53
263105,2018-06-29 11:01:54.031250,10.34,72.53
263106,2018-06-29 11:01:54.062500,11.65,72.53
263107,2018-06-29 11:01:54.093750,18.1,72.53
263108,2018-06-29 11:01:54.125000,30.82,72.53
263109,2018-06-29 11:01:54.156250,44.78,72.53
263110,2018-06-29 11:01:54.187500,55.4,72.53
263111,2018-06-29 11:01:54.218750,62.33,72.53
263112,2018-06-29 11:01:54.250000,67.39,72.53
263113,2018-06-29 11:01:54.281250,70.6,72.53
263114,2018-06-29 11:01:54.312500,69.47,72.53
263115,2018-06-29 11:01:54.343750,62.33,72.53
263116,2018-06-29 11:01:54.375000,51.07,72.53
263117,2018-06-29 11:01:54.406250,39.16,72.53
263118,2018-06-29 11:01:54.437500,28.04,72.53
263119,2018-06-29 11:01:54.468750,16.23,72.53
263120,2018-06-29 11:01:54.500000,0.89,72.53
263121,2018-06-29 11:01:54.531250,-18.12,72.63
263122,2018-06-29 11:01:54.562500,-32.49,72.63
263123,2018-06-29 11:01:54.593750,-28.8,72.63
263124,2018-06-29 11:01:54.625000,-3.14,72.63
263125,2018-06-29 11:01:54.656250,32.77,72.63
263126,2018-06-29 11:01:54.687500,63.95,72.63
263127,2018-06-29 11:01:54.718750,83.89,72.63
263128,2018-06-29 11:01:54.750000,92.47,72.63
263129,2018-06-29 11:01:54.781250,91.28,72.63
263130,2018-06-29 11:01:54.812500,84.34,72.63
263131,2018-06-29 11:01:54.843750,77.9,72.63
263132,2018-06-29 11:01:54.875000,75.62,72.63
263133,2018-06-29 11:01:54.906250,75.7,72.63
263134,2018-06-29 11:01:54.937500,74.95,72.63
263135,2018-06-29 11:01:54.968750,72.37,72.63
263136,2018-06-29 11:01:55.000000,67.07,72.63
263137,2018-06-29 11:01:55.031250,57.25,72.63
263138,2018-06-29 11:01:55.062500,43.63,72.63
263139,2018-06-29 11:01:55.093750,28.69,72.63
263140,2018-06-29 11:01:55.125000,12.28,72.63
263141,2018-06-29 11:01:55.156250,-6.93,72.63
263142,2018-06-29 11:01:55.187500,-26.52,72.63
263143,2018-06-29 11:01:55.218750,-41.74,72.63
263144,2018-06-29 11:01:55.250000,-51.86,72.63
263145,2018-06-29 11:01:55.281250,-62.37,72.63
263146,2018-06-29 11:01:55.312500,-79.75,72.63
263147,2018-06-29 11:01:55.343750,-100.59,72.63
263148,2018-06-29 11:01:55.375000,-107.35,72.63
263149,2018-06-29 11:01:55.406250,-83.99,72.63
263150,2018-06-29 11:01:55.437500,-35.6,72.63
263151,2018-06-29 11:01:55.468750,16.3,72.63
263152,2018-06-29 11:01:55.500000,55.38,72.63
263153,2018-06-29 11:01:55.531250,78.99,72.72
263154,2018-06-29 11:01:55.562500,90.26,72.72
263155,2018-06-29 11:01:55.593750,92.34,72.72
263156,2018-06-29 11:01:55.625000,89.2,72.72
263157,2018-06-29 11:01:55.656250,85.39,72.72
263158,2018-06-29 11:01:55.687500,83.32,72.72
263159,2018-06-29 11:01:55.718750,82.05,72.72
263160,2018-06-29 11:01:55.750000,79.86,72.72
263161,2018-06-29 11:01:55.781250,76.66,72.72
263162,2018-06-29 11:01:55.812500,72.23,72.72
263163,2018-06-29 11:01:55.843750,63.97,72.72
263164,2018-06-29 11:01:55.875000,49.69,72.72
263165,2018-06-29 11:01:55.906250,32.13,72.72
263166,2018-06-29 11:01:55.937500,16.5,72.72
263167,2018-06-29 11:01:55.968750,3.75,72.72
263168,2018-06-29 11:01:56.000000,-9.65,72.72
263169,2018-06-29 11:01:56.031250,-25.4,72.72
263170,2018-06-29 11:01:56.062500,-40.96,72.72
263171,2018-06-29 11:01:56.093750,-53.59,72.72
263172,2018-06-29 11:01:56.125000,-64.09,72.72
263173,2018-06-29 11:01:56.156250,-76.52,72.72
263174,2018-06-29 11:01:56.187500,-94.15,72.72
263175,2018-06-29 11:01:56.218750,-111.88,72.72
263176,2018-06-29 11:01:56.250000,-113.97,72.72
263177,2018-06-29 11:01:56.281250,-87.38,72.72
263178,2018-06-29 11:01:56.312500,-38.0,72.72
263179,2018-06-29 11:01:56.343750,13.74,72.72
263180,2018-06-29 11:01:56.375000,52.44,72.72
263181,2018-06-29 11:01:56.406250,75.69,72.72
263182,2018-06-29 11:01:56.437500,86.19,72.72
263183,2018-06-29 11:01:56.468750,86.51,72.72
263184,2018-06-29 11:01:56.500000,81.51,72.72
263185,2018-06-29 11:01:56.531250,77.66,72.8
263186,2018-06-29 11:01:56.562500,77.32,72.8
263187,2018-06-29 11:01:56.593750,78.01,72.8
263188,2018-06-29 11:01:56.625000,77.6,72.8
263189,2018-06-29 11:01:56.656250,76.11,72.8
263190,2018-06-29 11:01:56.687500,72.86,72.8
263191,2018-06-29 11:01:56.718750,66.21,72.8
263192,2018-06-29 11:01:56.750000,56.4,72.8
263193,2018-06-29 11:01:56.781250,45.76,72.8
263194,2018-06-29 11:01:56.812500,36.31,72.8
263195,2018-06-29 11:01:56.843750,27.86,72.8
263196,2018-06-29 11:01:56.875000,18.89,72.8
263197,2018-06-29 11:01:56.906250,8.76,72.8
263198,2018-06-29 11:01:56.937500,-1.4,72.8
263199,2018-06-29 11:01:56.968750,-10.43,72.8
263200,2018-06-29 11:01:57.000000,-18.59,72.8
263201,2018-06-29 11:01:57.031250,-26.9,72.8
263202,2018-06-29 11:01:57.062500,-36.64,72.8
263203,2018-06-29 11:01:57.093750,-48.67,72.8
263204,2018-06-29 11:01:57.125000,-61.57,72.8
263205,2018-06-29 11:01:57.156250,-72.61,72.8
263206,2018-06-29 11:01:57.187500,-81.4,72.8
263207,2018-06-29 11:01:57.218750,-91.04,72.8
263208,2018-06-29 11:01:57.250000,-104.22,72.8
263209,2018-06-29 11:01:57.281250,-116.09,72.8
263210,2018-06-29 11:01:57.312500,-112.31,72.8
263211,2018-06-29 11:01:57.343750,-82.41,72.8
263212,2018-06-29 11:01:57.375000,-35.01,72.8
263213,2018-06-29 11:01:57.406250,9.45,72.8
263214,2018-06-29 11:01:57.437500,39.11,72.8
263215,2018-06-29 11:01:57.468750,55.1,72.8
263216,2018-06-29 11:01:57.500000,61.42,72.8
263217,2018-06-29 11:01:57.531250,60.75,72.83
263218,2018-06-29 11:01:57.562500,56.99,72.83
263219,2018-06-29 11:01:57.593750,54.76,72.83
263220,2018-06-29 11:01:57.625000,55.62,72.83
263221,2018-06-29 11:01:57.656250,57.36,72.83
263222,2018-06-29 11:01:57.687500,57.9,72.83
263223,2018-06-29 11:01:57.718750,57.33,72.83
263224,2018-06-29 11:01:57.750000,55.24,72.83
263225,2018-06-29 11:01:57.781250,49.52,72.83
263226,2018-06-29 11:01:57.812500,40.13,72.83
263227,2018-06-29 11:01:57.843750,30.37,72.83
263228,2018-06-29 11:01:57.875000,22.66,72.83
263229,2018-06-29 11:01:57.906250,16.25,72.83
263230,2018-06-29 11:01:57.937500,9.63,72.83
263231,2018-06-29 11:01:57.968750,2.65,72.83
263232,2018-06-29 11:01:58.000000,-3.49,72.83
263233,2018-06-29 11:01:58.031250,-7.96,72.83
263234,2018-06-29 11:01:58.062500,-12.43,72.83
263235,2018-06-29 11:01:58.093750,-19.76,72.83
263236,2018-06-29 11:01:58.125000,-29.86,72.83
263237,2018-06-29 11:01:58.156250,-39.36,72.83
263238,2018-06-29 11:01:58.187500,-46.28,72.83
263239,2018-06-29 11:01:58.218750,-52.21,72.83
263240,2018-06-29 11:01:58.250000,-60.27,72.83
263241,2018-06-29 11:01:58.281250,-71.58,72.83
263242,2018-06-29 11:01:58.312500,-80.69,72.83
263243,2018-06-29 11:01:58.343750,-76.17,72.83
263244,2018-06-29 11:01:58.375000,-51.97,72.83
263245,2018-06-29 11:01:58.406250,-16.29,72.83
263246,2018-06-29 11:01:58.437500,16.12,72.83
263247,2018-06-29 11:01:58.468750,37.48,72.83
263248,2018-06-29 11:01:58.500000,48.41,72.83
263249,2018-06-29 11:01:58.531250,50.98,72.82
263250,2018-06-29 11:01:58.562500,46.2,72.82
263251,2018-06-29 11:01:58.593750,37.72,72.82
263252,2018-06-29 11:01:58.625000,31.74,72.82
263253,2018-06-29 11:01:58.656250,30.36,72.82
263254,2018-06-29 11:01:58.687500,29.47,72.82
263255,2018-06-29 11:01:58.718750,26.28,72.82
263256,2018-06-29 11:01:58.750000,22.84,72.82
263257,2018-06-29 11:01:58.781250,20.28,72.82
263258,2018-06-29 11:01:58.812500,16.39,72.82
263259,2018-06-29 11:01:58.843750,10.5,72.82
263260,2018-06-29 11:01:58.875000,4.74,72.82
263261,2018-06-29 11:01:58.906250,-0.17,72.82
263262,2018-06-29 11:01:58.937500,-5.88,72.82
263263,2018-06-29 11:01:58.968750,-12.65,72.82
263264,2018-06-29 11:01:59.000000,-18.27,72.82
263265,2018-06-29 11:01:59.031250,-21.77,72.82
263266,2018-06-29 11:01:59.062500,-25.45,72.82
263267,2018-06-29 11:01:59.093750,-31.09,72.82
263268,2018-06-29 11:01:59.125000,-37.01,72.82
263269,2018-06-29 11:01:59.156250,-40.9,72.82
263270,2018-06-29 11:01:59.187500,-43.45,72.82
263271,2018-06-29 11:01:59.218750,-47.5,72.82
263272,2018-06-29 11:01:59.250000,-54.99,72.82
263273,2018-06-29 11:01:59.281250,-62.88,72.82
263274,2018-06-29 11:01:59.312500,-61.68,72.82
263275,2018-06-29 11:01:59.343750,-44.75,72.82
263276,2018-06-29 11:01:59.375000,-18.32,72.82
263277,2018-06-29 11:01:59.406250,4.13,72.82
263278,2018-06-29 11:01:59.437500,15.67,72.82
263279,2018-06-29 11:01:59.468750,18.45,72.82
263280,2018-06-29 11:01:59.500000,16.42,72.82
263281,2018-06-29 11:01:59.531250,11.82,72.82
263282,2018-06-29 11:01:59.562500,6.93,72.82
263283,2018-06-29 11:01:59.593750,4.64,72.82
263284,2018-06-29 11:01:59.625000,6.16,72.82
263285,2018-06-29 11:01:59.656250,9.28,72.82
263286,2018-06-29 11:01:59.687500,11.03,72.82
263287,2018-06-29 11:01:59.718750,10.93,72.82
263288,2018-06-29 11:01:59.750000,9.7,72.82
263289,2018-06-29 11:01:59.781250,6.62,72.82
263290,2018-06-29 11:01:59.812500,1.17,72.82
263291,2018-06-29 11:01:59.843750,-4.93,72.82
263292,2018-06-29 11:01:59.875000,-9.85,72.82
263293,2018-06-29 11:01:59.906250,-14.04,72.82
263294,2018-06-29 11:01:59.937500,-18.78,72.82
263295,2018-06-29 11:01:59.968750,-24.63,72.82
263296,2018-06-29 11:02:00.000000,-31.35,72.82
263297,2018-06-29 11:02:00.031250,-37.65,72.82
263298,2018-06-29 11:02:00.062500,-42.25,72.82
263299,2018-06-29 11:02:00.093750,-46.1,72.82
263300,2018-06-29 11:02:00.125000,-51.96,72.82
263301,2018-06-29 11:02:00.156250,-60.94,72.82
263302,2018-06-29 11:02:00.187500,-68.34,72.82
263303,2018-06-29 11:02:00.218750,-64.66,72.82
263304,2018-06-29 11:02:00.250000,-45.29,72.82
263305,2018-06-29 11:02:00.281250,-17.98,72.82
263306,2018-06-29 11:02:00.312500,5.0,72.82
263307,2018-06-29 11:02:00.343750,18.72,72.82
263308,2018-06-29 11:02:00.375000,24.56,72.82
263309,2018-06-29 11:02:00.406250,24.07,72.82
263310,2018-06-29 11:02:00.437500,19.67,72.82
263311,2018-06-29 11:02:00.468750,15.71,72.82
263312,2018-06-29 11:02:00.500000,14.74,72.82
263313,2018-06-29 11:02:00.531250,15.83,72.92
263314,2018-06-29 11:02:00.562500,17.49,72.92
263315,2018-06-29 11:02:00.593750,19.23,72.92
263316,2018-06-29 11:02:00.625000,20.33,72.92
263317,2018-06-29 11:02:00.656250,19.37,72.92
263318,2018-06-29 11:02:00.687500,15.11,72.92
263319,2018-06-29 11:02:00.718750,7.86,72.92
263320,2018-06-29 11:02:00.750000,-0.04,72.92
263321,2018-06-29 11:02:00.781250,-6.48,72.92
263322,2018-06-29 11:02:00.812500,-12.66,72.92
263323,2018-06-29 11:02:00.843750,-21.21,72.92
263324,2018-06-29 11:02:00.875000,-31.13,72.92
263325,2018-06-29 11:02:00.906250,-38.47,72.92
263326,2018-06-29 11:02:00.937500,-42.22,72.92
263327,2018-06-29 11:02:00.968750,-45.86,72.92
263328,2018-06-29 11:02:01.000000,-53.03,72.92
263329,2018-06-29 11:02:01.031250,-62.51,72.92
263330,2018-06-29 11:02:01.062500,-66.33,72.92
263331,2018-06-29 11:02:01.093750,-55.28,72.92
263332,2018-06-29 11:02:01.125000,-29.05,72.92
263333,2018-06-29 11:02:01.156250,2.14,72.92
263334,2018-06-29 11:02:01.187500,27.25,72.92
263335,2018-06-29 11:02:01.218750,42.02,72.92
263336,2018-06-29 11:02:01.250000,47.7,72.92
263337,2018-06-29 11:02:01.281250,47.15,72.92
263338,2018-06-29 11:02:01.312500,43.44,72.92
263339,2018-06-29 11:02:01.343750,39.86,72.92
263340,2018-06-29 11:02:01.375000,38.98,72.92
263341,2018-06-29 11:02:01.406250,40.58,72.92
263342,2018-06-29 11:02:01.437500,42.51,72.92
263343,2018-06-29 11:02:01.468750,43.37,72.92
263344,2018-06-29 11:02:01.500000,42.02,72.92
263345,2018-06-29 11:02:01.531250,36.64,73.02
263346,2018-06-29 11:02:01.562500,27.78,73.02
263347,2018-06-29 11:02:01.593750,18.4,73.02
263348,2018-06-29 11:02:01.625000,8.96,73.02
263349,2018-06-29 11:02:01.656250,-2.82,73.02
263350,2018-06-29 11:02:01.687500,-16.29,73.02
263351,2018-06-29 11:02:01.718750,-27.87,73.02
263352,2018-06-29 11:02:01.750000,-36.56,73.02
263353,2018-06-29 11:02:01.781250,-44.66,73.02
263354,2018-06-29 11:02:01.812500,-54.88,73.02
263355,2018-06-29 11:02:01.843750,-66.94,73.02
263356,2018-06-29 11:02:01.875000,-74.11,73.02
263357,2018-06-29 11:02:01.906250,-67.17,73.02
263358,2018-06-29 11:02:01.937500,-45.59,73.02
263359,2018-06-29 11:02:01.968750,-19.7,73.02
263360,2018-06-29 11:02:02.000000,0.24,73.02
263361,2018-06-29 11:02:02.031250,11.01,73.02
263362,2018-06-29 11:02:02.062500,13.11,73.02
263363,2018-06-29 11:02:02.093750,8.3,73.02
263364,2018-06-29 11:02:02.125000,1.03,73.02
263365,2018-06-29 11:02:02.156250,-2.75,73.02
263366,2018-06-29 11:02:02.187500,-0.54,73.02
263367,2018-06-29 11:02:02.218750,4.38,73.02
263368,2018-06-29 11:02:02.250000,6.91,73.02
263369,2018-06-29 11:02:02.281250,5.46,73.02
263370,2018-06-29 11:02:02.312500,1.68,73.02
263371,2018-06-29 11:02:02.343750,-3.36,73.02
263372,2018-06-29 11:02:02.375000,-9.98,73.02
263373,2018-06-29 11:02:02.406250,-17.94,73.02
263374,2018-06-29 11:02:02.437500,-26.02,73.02
263375,2018-06-29 11:02:02.468750,-33.58,73.02
263376,2018-06-29 11:02:02.500000,-40.69,73.02
263377,2018-06-29 11:02:02.531250,-48.33,73.02
263378,2018-06-29 11:02:02.562500,-58.82,73.02
263379,2018-06-29 11:02:02.593750,-71.66,73.02
263380,2018-06-29 11:02:02.625000,-77.36,73.02
263381,2018-06-29 11:02:02.656250,-63.13,73.02
263382,2018-06-29 11:02:02.687500,-28.69,73.02
263383,2018-06-29 11:02:02.718750,11.19,73.02
263384,2018-06-29 11:02:02.750000,42.06,73.02
263385,2018-06-29 11:02:02.781250,59.64,73.02
263386,2018-06-29 11:02:02.812500,64.45,73.02
263387,2018-06-29 11:02:02.843750,57.99,73.02
263388,2018-06-29 11:02:02.875000,46.12,73.02
263389,2018-06-29 11:02:02.906250,37.45,73.02
263390,2018-06-29 11:02:02.937500,35.59,73.02
263391,2018-06-29 11:02:02.968750,37.18,73.02
263392,2018-06-29 11:02:03.000000,37.32,73.02
263393,2018-06-29 11:02:03.031250,34.0,73.02
263394,2018-06-29 11:02:03.062500,27.67,73.02
263395,2018-06-29 11:02:03.093750,18.84,73.02
263396,2018-06-29 11:02:03.125000,6.89,73.02
263397,2018-06-29 11:02:03.156250,-8.88,73.02
263398,2018-06-29 11:02:03.187500,-26.8,73.02
263399,2018-06-29 11:02:03.218750,-43.03,73.02
263400,2018-06-29 11:02:03.250000,-55.49,73.02
263401,2018-06-29 11:02:03.281250,-67.02,73.02
263402,2018-06-29 11:02:03.312500,-83.04,73.02
263403,2018-06-29 11:02:03.343750,-103.32,73.02
263404,2018-06-29 11:02:03.375000,-115.12,73.02
263405,2018-06-29 11:02:03.406250,-100.74,73.02
263406,2018-06-29 11:02:03.437500,-56.29,73.02
263407,2018-06-29 11:02:03.468750,1.6,73.02
263408,2018-06-29 11:02:03.500000,51.07,73.02
263409,2018-06-29 11:02:03.531250,81.3,73.03
263410,2018-06-29 11:02:03.562500,93.42,73.03
263411,2018-06-29 11:02:03.593750,93.11,73.03
263412,2018-06-29 11:02:03.625000,86.49,73.03
263413,2018-06-29 11:02:03.656250,79.45,73.03
263414,2018-06-29 11:02:03.687500,76.02,73.03
263415,2018-06-29 11:02:03.718750,76.1,73.03
263416,2018-06-29 11:02:03.750000,76.63,73.03
263417,2018-06-29 11:02:03.781250,74.58,73.03
263418,2018-06-29 11:02:03.812500,67.74,73.03
263419,2018-06-29 11:02:03.843750,55.67,73.03
263420,2018-06-29 11:02:03.875000,40.46,73.03
263421,2018-06-29 11:02:03.906250,23.84,73.03
263422,2018-06-29 11:02:03.937500,5.39,73.03
263423,2018-06-29 11:02:03.968750,-14.02,73.03
263424,2018-06-29 11:02:04.000000,-31.34,73.03
263425,2018-06-29 11:02:04.031250,-45.95,73.03
263426,2018-06-29 11:02:04.062500,-61.57,73.03
263427,2018-06-29 11:02:04.093750,-82.01,73.03
263428,2018-06-29 11:02:04.125000,-103.44,73.03
263429,2018-06-29 11:02:04.156250,-110.1,73.03
263430,2018-06-29 11:02:04.187500,-85.16,73.03
263431,2018-06-29 11:02:04.218750,-30.85,73.03
263432,2018-06-29 11:02:04.250000,29.34,73.03
263433,2018-06-29 11:02:04.281250,73.01,73.03
263434,2018-06-29 11:02:04.312500,95.02,73.03
263435,2018-06-29 11:02:04.343750,100.47,73.03
263436,2018-06-29 11:02:04.375000,94.63,73.03
263437,2018-06-29 11:02:04.406250,83.87,73.03
263438,2018-06-29 11:02:04.437500,75.83,73.03
263439,2018-06-29 11:02:04.468750,72.8,73.03
263440,2018-06-29 11:02:04.500000,70.65,73.03
263441,2018-06-29 11:02:04.531250,66.55,73.0
263442,2018-06-29 11:02:04.562500,61.75,73.0
263443,2018-06-29 11:02:04.593750,55.9,73.0
263444,2018-06-29 11:02:04.625000,45.48,73.0
263445,2018-06-29 11:02:04.656250,29.88,73.0
263446,2018-06-29 11:02:04.687500,13.54,73.0
263447,2018-06-29 11:02:04.718750,-0.48,73.0
263448,2018-06-29 11:02:04.750000,-14.39,73.0
263449,2018-06-29 11:02:04.781250,-30.18,73.0
263450,2018-06-29 11:02:04.812500,-44.8,73.0
263451,2018-06-29 11:02:04.843750,-54.98,73.0
263452,2018-06-29 11:02:04.875000,-63.32,73.0
263453,2018-06-29 11:02:04.906250,-75.79,73.0
263454,2018-06-29 11:02:04.937500,-94.54,73.0
263455,2018-06-29 11:02:04.968750,-110.55,73.0
263456,2018-06-29 11:02:05.000000,-104.42,73.0
263457,2018-06-29 11:02:05.031250,-64.51,73.0
263458,2018-06-29 11:02:05.062500,-4.08,73.0
263459,2018-06-29 11:02:05.093750,49.96,73.0
263460,2018-06-29 11:02:05.125000,82.43,73.0
263461,2018-06-29 11:02:05.156250,94.84,73.0
263462,2018-06-29 11:02:05.187500,93.25,73.0
263463,2018-06-29 11:02:05.218750,83.65,73.0
263464,2018-06-29 11:02:05.250000,73.64,73.0
263465,2018-06-29 11:02:05.281250,68.8,73.0
263466,2018-06-29 11:02:05.312500,68.27,73.0
263467,2018-06-29 11:02:05.343750,67.82,73.0
263468,2018-06-29 11:02:05.375000,65.51,73.0
263469,2018-06-29 11:02:05.406250,61.58,73.0
263470,2018-06-29 11:02:05.437500,55.15,73.0
263471,2018-06-29 11:02:05.468750,44.39,73.0
263472,2018-06-29 11:02:05.500000,29.75,73.0
263473,2018-06-29 11:02:05.531250,14.92,72.92
263474,2018-06-29 11:02:05.562500,3.38,72.92
263475,2018-06-29 11:02:05.593750,-5.54,72.92
263476,2018-06-29 11:02:05.625000,-15.82,72.92
263477,2018-06-29 11:02:05.656250,-28.93,72.92
263478,2018-06-29 11:02:05.687500,-41.74,72.92
263479,2018-06-29 11:02:05.718750,-51.5,72.92
263480,2018-06-29 11:02:05.750000,-59.73,72.92
263481,2018-06-29 11:02:05.781250,-70.24,72.92
263482,2018-06-29 11:02:05.812500,-85.55,72.92
263483,2018-06-29 11:02:05.843750,-101.11,72.92
263484,2018-06-29 11:02:05.875000,-101.69,72.92
263485,2018-06-29 11:02:05.906250,-73.46,72.92
263486,2018-06-29 11:02:05.937500,-22.6,72.92
263487,2018-06-29 11:02:05.968750,28.13,72.92
263488,2018-06-29 11:02:06.000000,61.4,72.92
263489,2018-06-29 11:02:06.031250,75.11,72.92
263490,2018-06-29 11:02:06.062500,74.19,72.92
263491,2018-06-29 11:02:06.093750,64.48,72.92
263492,2018-06-29 11:02:06.125000,53.77,72.92
263493,2018-06-29 11:02:06.156250,49.03,72.92
263494,2018-06-29 11:02:06.187500,50.07,72.92
263495,2018-06-29 11:02:06.218750,51.05,72.92
263496,2018-06-29 11:02:06.250000,48.91,72.92
263497,2018-06-29 11:02:06.281250,45.05,72.92
263498,2018-06-29 11:02:06.312500,39.85,72.92
263499,2018-06-29 11:02:06.343750,31.3,72.92
263500,2018-06-29 11:02:06.375000,19.06,72.92
263501,2018-06-29 11:02:06.406250,6.24,72.92
263502,2018-06-29 11:02:06.437500,-3.95,72.92
263503,2018-06-29 11:02:06.468750,-12.12,72.92
263504,2018-06-29 11:02:06.500000,-21.22,72.92
263505,2018-06-29 11:02:06.531250,-31.53,72.85
263506,2018-06-29 11:02:06.562500,-39.93,72.85
263507,2018-06-29 11:02:06.593750,-44.97,72.85
263508,2018-06-29 11:02:06.625000,-49.41,72.85
263509,2018-06-29 11:02:06.656250,-57.3,72.85
263510,2018-06-29 11:02:06.687500,-69.74,72.85
263511,2018-06-29 11:02:06.718750,-80.61,72.85
263512,2018-06-29 11:02:06.750000,-77.38,72.85
263513,2018-06-29 11:02:06.781250,-52.93,72.85
263514,2018-06-29 11:02:06.812500,-15.73,72.85
263515,2018-06-29 11:02:06.843750,17.57,72.85
263516,2018-06-29 11:02:06.875000,37.31,72.85
263517,2018-06-29 11:02:06.906250,43.49,72.85
263518,2018-06-29 11:02:06.937500,39.81,72.85
263519,2018-06-29 11:02:06.968750,31.61,72.85
263520,2018-06-29 11:02:07.000000,25.38,72.85
263521,2018-06-29 11:02:07.031250,24.42,72.85
263522,2018-06-29 11:02:07.062500,26.48,72.85
263523,2018-06-29 11:02:07.093750,27.91,72.85
263524,2018-06-29 11:02:07.125000,27.99,72.85
263525,2018-06-29 11:02:07.156250,26.6,72.85
263526,2018-06-29 11:02:07.187500,21.58,72.85
263527,2018-06-29 11:02:07.218750,12.02,72.85
263528,2018-06-29 11:02:07.250000,1.25,72.85
263529,2018-06-29 11:02:07.281250,-7.25,72.85
263530,2018-06-29 11:02:07.312500,-14.73,72.85
263531,2018-06-29 11:02:07.343750,-24.46,72.85
263532,2018-06-29 11:02:07.375000,-35.93,72.85
263533,2018-06-29 11:02:07.406250,-45.17,72.85
263534,2018-06-29 11:02:07.437500,-51.07,72.85
263535,2018-06-29 11:02:07.468750,-57.51,72.85
263536,2018-06-29 11:02:07.500000,-68.26,72.85
263537,2018-06-29 11:02:07.531250,-80.2,72.8
263538,2018-06-29 11:02:07.562500,-82.62,72.8
263539,2018-06-29 11:02:07.593750,-65.94,72.8
263540,2018-06-29 11:02:07.625000,-32.91,72.8
263541,2018-06-29 11:02:07.656250,2.46,72.8
263542,2018-06-29 11:02:07.687500,28.05,72.8
263543,2018-06-29 11:02:07.718750,40.81,72.8
263544,2018-06-29 11:02:07.750000,42.89,72.8
263545,2018-06-29 11:02:07.781250,38.62,72.8
263546,2018-06-29 11:02:07.812500,33.77,72.8
263547,2018-06-29 11:02:07.843750,31.77,72.8
263548,2018-06-29 11:02:07.875000,31.8,72.8
263549,2018-06-29 11:02:07.906250,31.97,72.8
263550,2018-06-29 11:02:07.937500,32.06,72.8
263551,2018-06-29 11:02:07.968750,31.84,72.8
263552,2018-06-29 11:02:08.000000,29.13,72.8
263553,2018-06-29 11:02:08.031250,21.47,72.8
263554,2018-06-29 11:02:08.062500,10.01,72.8
263555,2018-06-29 11:02:08.093750,-0.98,72.8
263556,2018-06-29 11:02:08.125000,-9.58,72.8
263557,2018-06-29 11:02:08.156250,-18.49,72.8
263558,2018-06-29 11:02:08.187500,-29.77,72.8
263559,2018-06-29 11:02:08.218750,-41.02,72.8
263560,2018-06-29 11:02:08.250000,-49.07,72.8
263561,2018-06-29 11:02:08.281250,-54.75,72.8
263562,2018-06-29 11:02:08.312500,-62.35,72.8
263563,2018-06-29 11:02:08.343750,-74.5,72.8
263564,2018-06-29 11:02:08.375000,-85.69,72.8
263565,2018-06-29 11:02:08.406250,-82.74,72.8
263566,2018-06-29 11:02:08.437500,-58.11,72.8
263567,2018-06-29 11:02:08.468750,-20.84,72.8
263568,2018-06-29 11:02:08.500000,12.43,72.8
263569,2018-06-29 11:02:08.531250,33.46,72.75
263570,2018-06-29 11:02:08.562500,43.54,72.75
263571,2018-06-29 11:02:08.593750,45.96,72.75
263572,2018-06-29 11:02:08.625000,43.91,72.75
263573,2018-06-29 11:02:08.656250,41.06,72.75
263574,2018-06-29 11:02:08.687500,39.52,72.75
263575,2018-06-29 11:02:08.718750,39.0,72.75
263576,2018-06-29 11:02:08.750000,38.53,72.75
263577,2018-06-29 11:02:08.781250,37.62,72.75
263578,2018-06-29 11:02:08.812500,36.15,72.75
263579,2018-06-29 11:02:08.843750,33.43,72.75
263580,2018-06-29 11:02:08.875000,27.83,72.75
263581,2018-06-29 11:02:08.906250,18.82,72.75
263582,2018-06-29 11:02:08.937500,8.71,72.75
263583,2018-06-29 11:02:08.968750,0.24,72.75
263584,2018-06-29 11:02:09.000000,-7.27,72.75
263585,2018-06-29 11:02:09.031250,-16.33,72.75
263586,2018-06-29 11:02:09.062500,-26.95,72.75
263587,2018-06-29 11:02:09.093750,-36.48,72.75
263588,2018-06-29 11:02:09.125000,-43.51,72.75
263589,2018-06-29 11:02:09.156250,-49.76,72.75
263590,2018-06-29 11:02:09.187500,-58.3,72.75
263591,2018-06-29 11:02:09.218750,-70.31,72.75
263592,2018-06-29 11:02:09.250000,-80.51,72.75
263593,2018-06-29 11:02:09.281250,-77.4,72.75
263594,2018-06-29 11:02:09.312500,-54.58,72.75
263595,2018-06-29 11:02:09.343750,-20.07,72.75
263596,2018-06-29 11:02:09.375000,11.12,72.75
263597,2018-06-29 11:02:09.406250,30.98,72.75
263598,2018-06-29 11:02:09.437500,40.54,72.75
263599,2018-06-29 11:02:09.468750,43.08,72.75
263600,2018-06-29 11:02:09.500000,41.01,72.75
263601,2018-06-29 11:02:09.531250,37.23,72.72
263602,2018-06-29 11:02:09.562500,35.32,72.72
263603,2018-06-29 11:02:09.593750,36.72,72.72
263604,2018-06-29 11:02:09.625000,39.28,72.72
263605,2018-06-29 11:02:09.656250,40.38,72.72
263606,2018-06-29 11:02:09.687500,39.5,72.72
263607,2018-06-29 11:02:09.718750,36.82,72.72
263608,2018-06-29 11:02:09.750000,31.48,72.72
263609,2018-06-29 11:02:09.781250,23.09,72.72
263610,2018-06-29 11:02:09.812500,13.22,72.72
263611,2018-06-29 11:02:09.843750,4.14,72.72
263612,2018-06-29 11:02:09.875000,-3.32,72.72
263613,2018-06-29 11:02:09.906250,-10.37,72.72
263614,2018-06-29 11:02:09.937500,-18.82,72.72
263615,2018-06-29 11:02:09.968750,-28.51,72.72
263616,2018-06-29 11:02:10.000000,-37.11,72.72
263617,2018-06-29 11:02:10.031250,-43.6,72.72
263618,2018-06-29 11:02:10.062500,-50.31,72.72
263619,2018-06-29 11:02:10.093750,-60.59,72.72
263620,2018-06-29 11:02:10.125000,-73.64,72.72
263621,2018-06-29 11:02:10.156250,-81.09,72.72
263622,2018-06-29 11:02:10.187500,-71.8,72.72
263623,2018-06-29 11:02:10.218750,-44.08,72.72
263624,2018-06-29 11:02:10.250000,-9.68,72.72
263625,2018-06-29 11:02:10.281250,17.41,72.72
263626,2018-06-29 11:02:10.312500,31.61,72.72
263627,2018-06-29 11:02:10.343750,34.41,72.72
263628,2018-06-29 11:02:10.375000,30.03,72.72
263629,2018-06-29 11:02:10.406250,24.02,72.72
263630,2018-06-29 11:02:10.437500,20.76,72.72
263631,2018-06-29 11:02:10.468750,20.81,72.72
263632,2018-06-29 11:02:10.500000,22.28,72.72
263633,2018-06-29 11:02:10.531250,23.58,72.68
263634,2018-06-29 11:02:10.562500,23.74,72.68
263635,2018-06-29 11:02:10.593750,21.53,72.68
263636,2018-06-29 11:02:10.625000,16.05,72.68
263637,2018-06-29 11:02:10.656250,8.05,72.68
263638,2018-06-29 11:02:10.687500,-0.33,72.68
263639,2018-06-29 11:02:10.718750,-7.87,72.68
263640,2018-06-29 11:02:10.750000,-15.73,72.68
263641,2018-06-29 11:02:10.781250,-25.37,72.68
263642,2018-06-29 11:02:10.812500,-35.68,72.68
263643,2018-06-29 11:02:10.843750,-44.11,72.68
263644,2018-06-29 11:02:10.875000,-50.24,72.68
263645,2018-06-29 11:02:10.906250,-56.78,72.68
263646,2018-06-29 11:02:10.937500,-65.58,72.68
263647,2018-06-29 11:02:10.968750,-71.98,72.68
263648,2018-06-29 11:02:11.000000,-66.14,72.68
263649,2018-06-29 11:02:11.031250,-43.65,72.68
263650,2018-06-29 11:02:11.062500,-11.86,72.68
263651,2018-06-29 11:02:11.093750,17.66,72.68
263652,2018-06-29 11:02:11.125000,38.54,72.68
263653,2018-06-29 11:02:11.156250,49.08,72.68
263654,2018-06-29 11:02:11.187500,49.42,72.68
263655,2018-06-29 11:02:11.218750,43.39,72.68
263656,2018-06-29 11:02:11.250000,37.64,72.68
263657,2018-06-29 11:02:11.281250,35.77,72.68
263658,2018-06-29 11:02:11.312500,36.14,72.68
263659,2018-06-29 11:02:11.343750,35.91,72.68
263660,2018-06-29 11:02:11.375000,33.96,72.68
263661,2018-06-29 11:02:11.406250,29.89,72.68
263662,2018-06-29 11:02:11.437500,23.6,72.68
263663,2018-06-29 11:02:11.468750,15.77,72.68
263664,2018-06-29 11:02:11.500000,6.47,72.68
263665,2018-06-29 11:02:11.531250,-5.08,72.7
263666,2018-06-29 11:02:11.562500,-18.11,72.7
263667,2018-06-29 11:02:11.593750,-30.09,72.7
263668,2018-06-29 11:02:11.625000,-39.29,72.7
263669,2018-06-29 11:02:11.656250,-46.83,72.7
263670,2018-06-29 11:02:11.687500,-56.71,72.7
263671,2018-06-29 11:02:11.718750,-71.64,72.7
263672,2018-06-29 11:02:11.750000,-84.73,72.7
263673,2018-06-29 11:02:11.781250,-80.66,72.7
263674,2018-06-29 11:02:11.812500,-51.94,72.7
263675,2018-06-29 11:02:11.843750,-9.41,72.7
263676,2018-06-29 11:02:11.875000,28.79,72.7
263677,2018-06-29 11:02:11.906250,52.98,72.7
263678,2018-06-29 11:02:11.937500,63.15,72.7
263679,2018-06-29 11:02:11.968750,62.81,72.7
263680,2018-06-29 11:02:12.000000,56.95,72.7
263681,2018-06-29 11:02:12.031250,50.88,72.7
263682,2018-06-29 11:02:12.062500,47.33,72.7
263683,2018-06-29 11:02:12.093750,45.83,72.7
263684,2018-06-29 11:02:12.125000,45.01,72.7
263685,2018-06-29 11:02:12.156250,43.45,72.7
263686,2018-06-29 11:02:12.187500,38.92,72.7
263687,2018-06-29 11:02:12.218750,30.13,72.7
263688,2018-06-29 11:02:12.250000,18.6,72.7
263689,2018-06-29 11:02:12.281250,6.38,72.7
263690,2018-06-29 11:02:12.312500,-6.97,72.7
263691,2018-06-29 11:02:12.343750,-22.15,72.7
263692,2018-06-29 11:02:12.375000,-37.26,72.7
263693,2018-06-29 11:02:12.406250,-50.04,72.7
263694,2018-06-29 11:02:12.437500,-60.77,72.7
263695,2018-06-29 11:02:12.468750,-71.74,72.7
263696,2018-06-29 11:02:12.500000,-85.87,72.7
263697,2018-06-29 11:02:12.531250,-101.84,72.7
263698,2018-06-29 11:02:12.562500,-107.57,72.7
263699,2018-06-29 11:02:12.593750,-87.77,72.7
263700,2018-06-29 11:02:12.625000,-43.37,72.7
263701,2018-06-29 11:02:12.656250,6.18,72.7
263702,2018-06-29 11:02:12.687500,43.14,72.7
263703,2018-06-29 11:02:12.718750,63.75,72.7
263704,2018-06-29 11:02:12.750000,71.22,72.7
263705,2018-06-29 11:02:12.781250,68.99,72.7
263706,2018-06-29 11:02:12.812500,62.56,72.7
263707,2018-06-29 11:02:12.843750,58.36,72.7
263708,2018-06-29 11:02:12.875000,58.24,72.7
263709,2018-06-29 11:02:12.906250,59.14,72.7
263710,2018-06-29 11:02:12.937500,58.5,72.7
263711,2018-06-29 11:02:12.968750,56.76,72.7
263712,2018-06-29 11:02:13.000000,53.46,72.7
263713,2018-06-29 11:02:13.031250,45.53,72.7
263714,2018-06-29 11:02:13.062500,32.22,72.7
263715,2018-06-29 11:02:13.093750,18.08,72.7
263716,2018-06-29 11:02:13.125000,6.71,72.7
263717,2018-06-29 11:02:13.156250,-4.5,72.7
263718,2018-06-29 11:02:13.187500,-19.08,72.7
263719,2018-06-29 11:02:13.218750,-34.72,72.7
263720,2018-06-29 11:02:13.250000,-46.56,72.7
263721,2018-06-29 11:02:13.281250,-54.78,72.7
263722,2018-06-29 11:02:13.312500,-65.0,72.7
263723,2018-06-29 11:02:13.343750,-81.51,72.7
263724,2018-06-29 11:02:13.375000,-99.42,72.7
263725,2018-06-29 11:02:13.406250,-102.87,72.7
263726,2018-06-29 11:02:13.437500,-77.82,72.7
263727,2018-06-29 11:02:13.468750,-29.5,72.7
263728,2018-06-29 11:02:13.500000,20.23,72.7
263729,2018-06-29 11:02:13.531250,54.56,72.7
263730,2018-06-29 11:02:13.562500,71.73,72.7
263731,2018-06-29 11:02:13.593750,76.06,72.7
263732,2018-06-29 11:02:13.625000,71.45,72.7
263733,2018-06-29 11:02:13.656250,63.68,72.7
263734,2018-06-29 11:02:13.687500,59.19,72.7
263735,2018-06-29 11:02:13.718750,59.54,72.7
263736,2018-06-29 11:02:13.750000,61.21,72.7
263737,2018-06-29 11:02:13.781250,61.66,72.7
263738,2018-06-29 11:02:13.812500,61.1,72.7
263739,2018-06-29 11:02:13.843750,58.68,72.7
263740,2018-06-29 11:02:13.875000,51.93,72.7
263741,2018-06-29 11:02:13.906250,40.35,72.7
263742,2018-06-29 11:02:13.937500,26.5,72.7
263743,2018-06-29 11:02:13.968750,13.42,72.7
263744,2018-06-29 11:02:14.000000,2.4,72.7
263745,2018-06-29 11:02:14.031250,-7.41,72.7
263746,2018-06-29 11:02:14.062500,-17.84,72.7
263747,2018-06-29 11:02:14.093750,-29.72,72.7
263748,2018-06-29 11:02:14.125000,-41.89,72.7
263749,2018-06-29 11:02:14.156250,-52.36,72.7
263750,2018-06-29 11:02:14.187500,-61.12,72.7
263751,2018-06-29 11:02:14.218750,-71.44,72.7
263752,2018-06-29 11:02:14.250000,-86.23,72.7
263753,2018-06-29 11:02:14.281250,-99.74,72.7
263754,2018-06-29 11:02:14.312500,-96.08,72.7
263755,2018-06-29 11:02:14.343750,-64.86,72.7
263756,2018-06-29 11:02:14.375000,-15.92,72.7
263757,2018-06-29 11:02:14.406250,29.38,72.7
263758,2018-06-29 11:02:14.437500,58.14,72.7
263759,2018-06-29 11:02:14.468750,70.18,72.7
263760,2018-06-29 11:02:14.500000,69.8,72.7
263761,2018-06-29 11:02:14.531250,62.44,72.68
263762,2018-06-29 11:02:14.562500,54.8,72.68
263763,2018-06-29 11:02:14.593750,51.47,72.68
263764,2018-06-29 11:02:14.625000,52.17,72.68
263765,2018-06-29 11:02:14.656250,53.75,72.68
263766,2018-06-29 11:02:14.687500,53.63,72.68
263767,2018-06-29 11:02:14.718750,50.92,72.68
263768,2018-06-29 11:02:14.750000,45.64,72.68
263769,2018-06-29 11:02:14.781250,37.89,72.68
263770,2018-06-29 11:02:14.812500,27.8,72.68
263771,2018-06-29 11:02:14.843750,16.45,72.68
263772,2018-06-29 11:02:14.875000,5.71,72.68
263773,2018-06-29 11:02:14.906250,-3.58,72.68
263774,2018-06-29 11:02:14.937500,-12.28,72.68
263775,2018-06-29 11:02:14.968750,-21.43,72.68
263776,2018-06-29 11:02:15.000000,-30.89,72.68
263777,2018-06-29 11:02:15.031250,-39.75,72.68
263778,2018-06-29 11:02:15.062500,-47.61,72.68
263779,2018-06-29 11:02:15.093750,-55.2,72.68
263780,2018-06-29 11:02:15.125000,-64.52,72.68
263781,2018-06-29 11:02:15.156250,-77.22,72.68
263782,2018-06-29 11:02:15.187500,-89.34,72.68
263783,2018-06-29 11:02:15.218750,-88.51,72.68
263784,2018-06-29 11:02:15.250000,-64.36,72.68
263785,2018-06-29 11:02:15.281250,-23.09,72.68
263786,2018-06-29 11:02:15.312500,16.38,72.68
263787,2018-06-29 11:02:15.343750,40.88,72.68
263788,2018-06-29 11:02:15.375000,49.89,72.68
263789,2018-06-29 11:02:15.406250,47.59,72.68
263790,2018-06-29 11:02:15.437500,39.06,72.68
263791,2018-06-29 11:02:15.468750,31.59,72.68
263792,2018-06-29 11:02:15.500000,30.69,72.68
263793,2018-06-29 11:02:15.531250,34.53,72.63
263794,2018-06-29 11:02:15.562500,37.46,72.63
263795,2018-06-29 11:02:15.593750,37.88,72.63
263796,2018-06-29 11:02:15.625000,37.42,72.63
263797,2018-06-29 11:02:15.656250,34.62,72.63
263798,2018-06-29 11:02:15.687500,26.24,72.63
263799,2018-06-29 11:02:15.718750,13.95,72.63
263800,2018-06-29 11:02:15.750000,3.27,72.63
263801,2018-06-29 11:02:15.781250,-4.18,72.63
263802,2018-06-29 11:02:15.812500,-12.2,72.63
263803,2018-06-29 11:02:15.843750,-23.09,72.63
263804,2018-06-29 11:02:15.875000,-34.25,72.63
263805,2018-06-29 11:02:15.906250,-42.9,72.63
263806,2018-06-29 11:02:15.937500,-50.07,72.63
263807,2018-06-29 11:02:15.968750,-58.97,72.63
263808,2018-06-29 11:02:16.000000,-71.24,72.63
263809,2018-06-29 11:02:16.031250,-82.35,72.63
263810,2018-06-29 11:02:16.062500,-80.25,72.63
263811,2018-06-29 11:02:16.093750,-56.36,72.63
263812,2018-06-29 11:02:16.125000,-17.87,72.63
263813,2018-06-29 11:02:16.156250,18.45,72.63
263814,2018-06-29 11:02:16.187500,42.28,72.63
263815,2018-06-29 11:02:16.218750,53.02,72.63
263816,2018-06-29 11:02:16.250000,53.22,72.63
263817,2018-06-29 11:02:16.281250,46.74,72.63
263818,2018-06-29 11:02:16.312500,39.36,72.63
263819,2018-06-29 11:02:16.343750,35.84,72.63
263820,2018-06-29 11:02:16.375000,36.17,72.63
263821,2018-06-29 11:02:16.406250,36.97,72.63
263822,2018-06-29 11:02:16.437500,36.59,72.63
263823,2018-06-29 11:02:16.468750,35.69,72.63
263824,2018-06-29 11:02:16.500000,32.99,72.63
263825,2018-06-29 11:02:16.531250,25.47,72.55
263826,2018-06-29 11:02:16.562500,13.59,72.55
263827,2018-06-29 11:02:16.593750,1.72,72.55
263828,2018-06-29 11:02:16.625000,-7.35,72.55
263829,2018-06-29 11:02:16.656250,-15.31,72.55
263830,2018-06-29 11:02:16.687500,-25.05,72.55
263831,2018-06-29 11:02:16.718750,-36.12,72.55
263832,2018-06-29 11:02:16.750000,-45.52,72.55
263833,2018-06-29 11:02:16.781250,-52.69,72.55
263834,2018-06-29 11:02:16.812500,-60.91,72.55
263835,2018-06-29 11:02:16.843750,-73.16,72.55
263836,2018-06-29 11:02:16.875000,-86.32,72.55
263837,2018-06-29 11:02:16.906250,-89.32,72.55
263838,2018-06-29 11:02:16.937500,-71.41,72.55
263839,2018-06-29 11:02:16.968750,-35.24,72.55
263840,2018-06-29 11:02:17.000000,3.38,72.55
263841,2018-06-29 11:02:17.031250,30.82,72.55
263842,2018-06-29 11:02:17.062500,44.72,72.55
263843,2018-06-29 11:02:17.093750,48.42,72.55
263844,2018-06-29 11:02:17.125000,45.39,72.55
263845,2018-06-29 11:02:17.156250,40.38,72.55
263846,2018-06-29 11:02:17.187500,38.47,72.55
263847,2018-06-29 11:02:17.218750,40.32,72.55
263848,2018-06-29 11:02:17.250000,42.19,72.55
263849,2018-06-29 11:02:17.281250,41.58,72.55
263850,2018-06-29 11:02:17.312500,39.72,72.55
263851,2018-06-29 11:02:17.343750,37.53,72.55
263852,2018-06-29 11:02:17.375000,32.71,72.55
263853,2018-06-29 11:02:17.406250,23.2,72.55
263854,2018-06-29 11:02:17.437500,11.29,72.55
263855,2018-06-29 11:02:17.468750,1.4,72.55
263856,2018-06-29 11:02:17.500000,-5.81,72.55
263857,2018-06-29 11:02:17.531250,-14.13,72.48
263858,2018-06-29 11:02:17.562500,-25.63,72.48
263859,2018-06-29 11:02:17.593750,-37.29,72.48
263860,2018-06-29 11:02:17.625000,-45.51,72.48
263861,2018-06-29 11:02:17.656250,-51.61,72.48
263862,2018-06-29 11:02:17.687500,-60.28,72.48
263863,2018-06-29 11:02:17.718750,-73.61,72.48
263864,2018-06-29 11:02:17.750000,-85.47,72.48
263865,2018-06-29 11:02:17.781250,-82.77,72.48
263866,2018-06-29 11:02:17.812500,-57.71,72.48
263867,2018-06-29 11:02:17.843750,-18.52,72.48
263868,2018-06-29 11:02:17.875000,17.66,72.48
263869,2018-06-29 11:02:17.906250,40.45,72.48
263870,2018-06-29 11:02:17.937500,49.82,72.48
263871,2018-06-29 11:02:17.968750,49.75,72.48
263872,2018-06-29 11:02:18.000000,44.9,72.48
263873,2018-06-29 11:02:18.031250,40.14,72.48
263874,2018-06-29 11:02:18.062500,38.6,72.48
263875,2018-06-29 11:02:18.093750,39.88,72.48
263876,2018-06-29 11:02:18.125000,41.41,72.48
263877,2018-06-29 11:02:18.156250,41.6,72.48
263878,2018-06-29 11:02:18.187500,40.5,72.48
263879,2018-06-29 11:02:18.218750,37.72,72.48
263880,2018-06-29 11:02:18.250000,31.88,72.48
263881,2018-06-29 11:02:18.281250,22.87,72.48
263882,2018-06-29 11:02:18.312500,12.89,72.48
263883,2018-06-29 11:02:18.343750,4.2,72.48
263884,2018-06-29 11:02:18.375000,-3.37,72.48
263885,2018-06-29 11:02:18.406250,-11.91,72.48
263886,2018-06-29 11:02:18.437500,-22.19,72.48
263887,2018-06-29 11:02:18.468750,-32.11,72.48
263888,2018-06-29 11:02:18.500000,-39.66,72.48
263889,2018-06-29 11:02:18.531250,-45.96,72.4
263890,2018-06-29 11:02:18.562500,-54.13,72.4
263891,2018-06-29 11:02:18.593750,-66.27,72.4
263892,2018-06-29 11:02:18.625000,-79.82,72.4
263893,2018-06-29 11:02:18.656250,-84.6,72.4
263894,2018-06-29 11:02:18.687500,-69.22,72.4
263895,2018-06-29 11:02:18.718750,-34.87,72.4
263896,2018-06-29 11:02:18.750000,3.29,72.4
263897,2018-06-29 11:02:18.781250,31.1,72.4
263898,2018-06-29 11:02:18.812500,45.4,72.4
263899,2018-06-29 11:02:18.843750,49.49,72.4
263900,2018-06-29 11:02:18.875000,46.83,72.4
263901,2018-06-29 11:02:18.906250,41.16,72.4
263902,2018-06-29 11:02:18.937500,37.13,72.4
263903,2018-06-29 11:02:18.968750,37.14,72.4
263904,2018-06-29 11:02:19.000000,39.22,72.4
263905,2018-06-29 11:02:19.031250,40.2,72.4
263906,2018-06-29 11:02:19.062500,39.39,72.4
263907,2018-06-29 11:02:19.093750,37.23,72.4
263908,2018-06-29 11:02:19.125000,32.7,72.4
263909,2018-06-29 11:02:19.156250,24.73,72.4
263910,2018-06-29 11:02:19.187500,14.69,72.4
263911,2018-06-29 11:02:19.218750,5.16,72.4
263912,2018-06-29 11:02:19.250000,-2.89,72.4
263913,2018-06-29 11:02:19.281250,-10.77,72.4
263914,2018-06-29 11:02:19.312500,-19.79,72.4
263915,2018-06-29 11:02:19.343750,-29.13,72.4
263916,2018-06-29 11:02:19.375000,-36.9,72.4
263917,2018-06-29 11:02:19.406250,-42.94,72.4
263918,2018-06-29 11:02:19.437500,-49.4,72.4
263919,2018-06-29 11:02:19.468750,-58.84,72.4
263920,2018-06-29 11:02:19.500000,-70.99,72.4
263921,2018-06-29 11:02:19.531250,-78.57,72.28
263922,2018-06-29 11:02:19.562500,-69.73,72.28
263923,2018-06-29 11:02:19.593750,-40.89,72.28
263924,2018-06-29 11:02:19.625000,-3.49,72.28
263925,2018-06-29 11:02:19.656250,27.23,72.28
263926,2018-06-29 11:02:19.687500,44.89,72.28
263927,2018-06-29 11:02:19.718750,50.28,72.28
263928,2018-06-29 11:02:19.750000,45.71,72.28
263929,2018-06-29 11:02:19.781250,36.05,72.28
263930,2018-06-29 11:02:19.812500,28.97,72.28
263931,2018-06-29 11:02:19.843750,28.56,72.28
263932,2018-06-29 11:02:19.875000,31.97,72.28
263933,2018-06-29 11:02:19.906250,34.66,72.28
263934,2018-06-29 11:02:19.937500,35.46,72.28
263935,2018-06-29 11:02:19.968750,34.51,72.28
263936,2018-06-29 11:02:20.000000,30.33,72.28
263937,2018-06-29 11:02:20.031250,21.9,72.28
263938,2018-06-29 11:02:20.062500,11.17,72.28
263939,2018-06-29 11:02:20.093750,1.3,72.28
263940,2018-06-29 11:02:20.125000,-7.03,72.28
263941,2018-06-29 11:02:20.156250,-16.38,72.28
263942,2018-06-29 11:02:20.187500,-28.4,72.28
263943,2018-06-29 11:02:20.218750,-40.42,72.28
263944,2018-06-29 11:02:20.250000,-48.91,72.28
263945,2018-06-29 11:02:20.281250,-54.88,72.28
263946,2018-06-29 11:02:20.312500,-63.06,72.28
263947,2018-06-29 11:02:20.343750,-76.74,72.28
263948,2018-06-29 11:02:20.375000,-91.68,72.28
263949,2018-06-29 11:02:20.406250,-94.25,72.28
263950,2018-06-29 11:02:20.437500,-72.79,72.28
263951,2018-06-29 11:02:20.468750,-32.79,72.28
263952,2018-06-29 11:02:20.500000,7.24,72.28
263953,2018-06-29 11:02:20.531250,34.77,72.17
263954,2018-06-29 11:02:20.562500,49.22,72.17
263955,2018-06-29 11:02:20.593750,53.38,72.17
263956,2018-06-29 11:02:20.625000,50.1,72.17
263957,2018-06-29 11:02:20.656250,44.92,72.17
263958,2018-06-29 11:02:20.687500,43.04,72.17
263959,2018-06-29 11:02:20.718750,44.39,72.17
263960,2018-06-29 11:02:20.750000,45.67,72.17
263961,2018-06-29 11:02:20.781250,45.8,72.17
263962,2018-06-29 11:02:20.812500,45.44,72.17
263963,2018-06-29 11:02:20.843750,42.85,72.17
263964,2018-06-29 11:02:20.875000,35.02,72.17
263965,2018-06-29 11:02:20.906250,22.87,72.17
263966,2018-06-29 11:02:20.937500,11.13,72.17
263967,2018-06-29 11:02:20.968750,2.17,72.17
263968,2018-06-29 11:02:21.000000,-6.73,72.17
263969,2018-06-29 11:02:21.031250,-18.07,72.17
263970,2018-06-29 11:02:21.062500,-30.0,72.17
263971,2018-06-29 11:02:21.093750,-39.48,72.17
263972,2018-06-29 11:02:21.125000,-46.64,72.17
263973,2018-06-29 11:02:21.156250,-55.05,72.17
263974,2018-06-29 11:02:21.187500,-68.54,72.17
263975,2018-06-29 11:02:21.218750,-84.74,72.17
263976,2018-06-29 11:02:21.250000,-90.7,72.17
263977,2018-06-29 11:02:21.281250,-72.9,72.17
263978,2018-06-29 11:02:21.312500,-33.86,72.17
263979,2018-06-29 11:02:21.343750,8.77,72.17
263980,2018-06-29 11:02:21.375000,39.73,72.17
263981,2018-06-29 11:02:21.406250,55.79,72.17
263982,2018-06-29 11:02:21.437500,60.36,72.17
263983,2018-06-29 11:02:21.468750,57.62,72.17
263984,2018-06-29 11:02:21.500000,52.28,72.17
263985,2018-06-29 11:02:21.531250,48.96,72.08
263986,2018-06-29 11:02:21.562500,49.37,72.08
263987,2018-06-29 11:02:21.593750,51.4,72.08
263988,2018-06-29 11:02:21.625000,52.37,72.08
263989,2018-06-29 11:02:21.656250,51.83,72.08
263990,2018-06-29 11:02:21.687500,49.94,72.08
263991,2018-06-29 11:02:21.718750,45.04,72.08
263992,2018-06-29 11:02:21.750000,35.15,72.08
263993,2018-06-29 11:02:21.781250,21.0,72.08
263994,2018-06-29 11:02:21.812500,6.15,72.08
263995,2018-06-29 11:02:21.843750,-6.29,72.08
263996,2018-06-29 11:02:21.875000,-16.82,72.08
263997,2018-06-29 11:02:21.906250,-27.99,72.08
263998,2018-06-29 11:02:21.937500,-40.01,72.08
263999,2018-06-29 11:02:21.968750,-50.33,72.08
264000,2018-06-29 11:02:22.000000,-58.15,72.08
264001,2018-06-29 11:02:22.031250,-65.97,72.08
264002,2018-06-29 11:02:22.062500,-76.8,72.08
264003,2018-06-29 11:02:22.093750,-90.76,72.08
264004,2018-06-29 11:02:22.125000,-100.32,72.08
264005,2018-06-29 11:02:22.156250,-91.19,72.08
264006,2018-06-29 11:02:22.187500,-56.86,72.08
264007,2018-06-29 11:02:22.218750,-9.64,72.08
264008,2018-06-29 11:02:22.250000,30.87,72.08
264009,2018-06-29 11:02:22.281250,55.67,72.08
264010,2018-06-29 11:02:22.312500,66.44,72.08
264011,2018-06-29 11:02:22.343750,67.03,72.08
264012,2018-06-29 11:02:22.375000,62.26,72.08
264013,2018-06-29 11:02:22.406250,58.07,72.08
264014,2018-06-29 11:02:22.437500,57.03,72.08
264015,2018-06-29 11:02:22.468750,56.9,72.08
264016,2018-06-29 11:02:22.500000,55.53,72.08
264017,2018-06-29 11:02:22.531250,53.33,72.0
264018,2018-06-29 11:02:22.562500,49.99,72.0
264019,2018-06-29 11:02:22.593750,42.97,72.0
264020,2018-06-29 11:02:22.625000,31.28,72.0
264021,2018-06-29 11:02:22.656250,17.84,72.0
264022,2018-06-29 11:02:22.687500,5.83,72.0
264023,2018-06-29 11:02:22.718750,-5.33,72.0
264024,2018-06-29 11:02:22.750000,-18.03,72.0
264025,2018-06-29 11:02:22.781250,-32.06,72.0
264026,2018-06-29 11:02:22.812500,-44.54,72.0
264027,2018-06-29 11:02:22.843750,-53.54,72.0
264028,2018-06-29 11:02:22.875000,-60.84,72.0
264029,2018-06-29 11:02:22.906250,-70.48,72.0
264030,2018-06-29 11:02:22.937500,-82.25,72.0
264031,2018-06-29 11:02:22.968750,-86.31,72.0
264032,2018-06-29 11:02:23.000000,-70.75,72.0
264033,2018-06-29 11:02:23.031250,-36.63,72.0
264034,2018-06-29 11:02:23.062500,1.44,72.0
264035,2018-06-29 11:02:23.093750,29.96,72.0
264036,2018-06-29 11:02:23.125000,44.88,72.0
264037,2018-06-29 11:02:23.156250,47.45,72.0
264038,2018-06-29 11:02:23.187500,41.09,72.0
264039,2018-06-29 11:02:23.218750,32.42,72.0
264040,2018-06-29 11:02:23.250000,27.98,72.0
264041,2018-06-29 11:02:23.281250,28.74,72.0
264042,2018-06-29 11:02:23.312500,30.88,72.0
264043,2018-06-29 11:02:23.343750,30.99,72.0
264044,2018-06-29 11:02:23.375000,28.21,72.0
264045,2018-06-29 11:02:23.406250,22.73,72.0
264046,2018-06-29 11:02:23.437500,14.76,72.0
264047,2018-06-29 11:02:23.468750,4.63,72.0
264048,2018-06-29 11:02:23.500000,-6.9,72.0
264049,2018-06-29 11:02:23.531250,-18.63,71.92
264050,2018-06-29 11:02:23.562500,-29.15,71.92
264051,2018-06-29 11:02:23.593750,-37.9,71.92
264052,2018-06-29 11:02:23.625000,-46.47,71.92
264053,2018-06-29 11:02:23.656250,-57.98,71.92
264054,2018-06-29 11:02:23.687500,-72.62,71.92
264055,2018-06-29 11:02:23.718750,-81.83,71.92
264056,2018-06-29 11:02:23.750000,-71.85,71.92
264057,2018-06-29 11:02:23.781250,-39.05,71.92
264058,2018-06-29 11:02:23.812500,2.69,71.92
264059,2018-06-29 11:02:23.843750,35.66,71.92
264060,2018-06-29 11:02:23.875000,53.82,71.92
264061,2018-06-29 11:02:23.906250,60.12,71.92
264062,2018-06-29 11:02:23.937500,57.25,71.92
264063,2018-06-29 11:02:23.968750,48.21,71.92
264064,2018-06-29 11:02:24.000000,39.25,71.92
264065,2018-06-29 11:02:24.031250,35.65,71.92
264066,2018-06-29 11:02:24.062500,36.32,71.92
264067,2018-06-29 11:02:24.093750,36.16,71.92
264068,2018-06-29 11:02:24.125000,32.41,71.92
264069,2018-06-29 11:02:24.156250,26.18,71.92
264070,2018-06-29 11:02:24.187500,18.54,71.92
264071,2018-06-29 11:02:24.218750,8.42,71.92
264072,2018-06-29 11:02:24.250000,-5.13,71.92
264073,2018-06-29 11:02:24.281250,-20.57,71.92
264074,2018-06-29 11:02:24.312500,-35.03,71.92
264075,2018-06-29 11:02:24.343750,-47.12,71.92
264076,2018-06-29 11:02:24.375000,-58.06,71.92
264077,2018-06-29 11:02:24.406250,-70.96,71.92
264078,2018-06-29 11:02:24.437500,-87.18,71.92
264079,2018-06-29 11:02:24.468750,-99.63,71.92
264080,2018-06-29 11:02:24.500000,-93.56,71.92
264081,2018-06-29 11:02:24.531250,-61.66,71.83
264082,2018-06-29 11:02:24.562500,-15.54,71.83
264083,2018-06-29 11:02:24.593750,25.14,71.83
264084,2018-06-29 11:02:24.625000,50.82,71.83
264085,2018-06-29 11:02:24.656250,63.47,71.83
264086,2018-06-29 11:02:24.687500,67.15,71.83
264087,2018-06-29 11:02:24.718750,64.91,71.83
264088,2018-06-29 11:02:24.750000,60.42,71.83
264089,2018-06-29 11:02:24.781250,56.53,71.83
264090,2018-06-29 11:02:24.812500,53.58,71.83
264091,2018-06-29 11:02:24.843750,51.46,71.83
264092,2018-06-29 11:02:24.875000,50.32,71.83
264093,2018-06-29 11:02:24.906250,47.81,71.83
264094,2018-06-29 11:02:24.937500,40.06,71.83
264095,2018-06-29 11:02:24.968750,27.42,71.83
264096,2018-06-29 11:02:25.000000,14.4,71.83
264097,2018-06-29 11:02:25.031250,2.67,71.83
264098,2018-06-29 11:02:25.062500,-10.32,71.83
264099,2018-06-29 11:02:25.093750,-25.37,71.83
264100,2018-06-29 11:02:25.125000,-39.45,71.83
264101,2018-06-29 11:02:25.156250,-50.41,71.83
264102,2018-06-29 11:02:25.187500,-60.44,71.83
264103,2018-06-29 11:02:25.218750,-73.77,71.83
264104,2018-06-29 11:02:25.250000,-89.49,71.83
264105,2018-06-29 11:02:25.281250,-96.02,71.83
264106,2018-06-29 11:02:25.312500,-78.91,71.83
264107,2018-06-29 11:02:25.343750,-38.24,71.83
264108,2018-06-29 11:02:25.375000,8.48,71.83
264109,2018-06-29 11:02:25.406250,44.05,71.83
264110,2018-06-29 11:02:25.437500,64.26,71.83
264111,2018-06-29 11:02:25.468750,72.3,71.83
264112,2018-06-29 11:02:25.500000,71.52,71.83
264113,2018-06-29 11:02:25.531250,66.18,71.78
264114,2018-06-29 11:02:25.562500,61.29,71.78
264115,2018-06-29 11:02:25.593750,59.01,71.78
264116,2018-06-29 11:02:25.625000,57.93,71.78
264117,2018-06-29 11:02:25.656250,56.3,71.78
264118,2018-06-29 11:02:25.687500,53.91,71.78
264119,2018-06-29 11:02:25.718750,50.47,71.78
264120,2018-06-29 11:02:25.750000,44.19,71.78
264121,2018-06-29 11:02:25.781250,33.47,71.78
264122,2018-06-29 11:02:25.812500,19.94,71.78
264123,2018-06-29 11:02:25.843750,7.94,71.78
264124,2018-06-29 11:02:25.875000,-0.43,71.78
264125,2018-06-29 11:02:25.906250,-8.33,71.78
264126,2018-06-29 11:02:25.937500,-19.75,71.78
264127,2018-06-29 11:02:25.968750,-33.33,71.78
264128,2018-06-29 11:02:26.000000,-44.55,71.78
264129,2018-06-29 11:02:26.031250,-52.72,71.78
264130,2018-06-29 11:02:26.062500,-61.99,71.78
264131,2018-06-29 11:02:26.093750,-76.22,71.78
264132,2018-06-29 11:02:26.125000,-93.36,71.78
264133,2018-06-29 11:02:26.156250,-101.69,71.78
264134,2018-06-29 11:02:26.187500,-86.86,71.78
264135,2018-06-29 11:02:26.218750,-48.48,71.78
264136,2018-06-29 11:02:26.250000,-3.76,71.78
264137,2018-06-29 11:02:26.281250,29.9,71.78
264138,2018-06-29 11:02:26.312500,48.46,71.78
264139,2018-06-29 11:02:26.343750,56.0,71.78
264140,2018-06-29 11:02:26.375000,56.21,71.78
264141,2018-06-29 11:02:26.406250,52.53,71.78
264142,2018-06-29 11:02:26.437500,49.41,71.78
264143,2018-06-29 11:02:26.468750,49.36,71.78
264144,2018-06-29 11:02:26.500000,51.33,71.78
264145,2018-06-29 11:02:26.531250,53.26,71.67
264146,2018-06-29 11:02:26.562500,54.07,71.67
264147,2018-06-29 11:02:26.593750,52.57,71.67
264148,2018-06-29 11:02:26.625000,47.51,71.67
264149,2018-06-29 11:02:26.656250,39.75,71.67
264150,2018-06-29 11:02:26.687500,31.47,71.67
264151,2018-06-29 11:02:26.718750,23.07,71.67
264152,2018-06-29 11:02:26.750000,13.54,71.67
264153,2018-06-29 11:02:26.781250,3.41,71.67
264154,2018-06-29 11:02:26.812500,-5.87,71.67
264155,2018-06-29 11:02:26.843750,-14.66,71.67
264156,2018-06-29 11:02:26.875000,-24.4,71.67
264157,2018-06-29 11:02:26.906250,-34.99,71.67
264158,2018-06-29 11:02:26.937500,-44.9,71.67
264159,2018-06-29 11:02:26.968750,-53.35,71.67
264160,2018-06-29 11:02:27.000000,-61.59,71.67
264161,2018-06-29 11:02:27.031250,-72.46,71.67
264162,2018-06-29 11:02:27.062500,-85.65,71.67
264163,2018-06-29 11:02:27.093750,-91.41,71.67
264164,2018-06-29 11:02:27.125000,-76.84,71.67
264165,2018-06-29 11:02:27.156250,-42.43,71.67
264166,2018-06-29 11:02:27.187500,-3.86,71.67
264167,2018-06-29 11:02:27.218750,24.77,71.67
264168,2018-06-29 11:02:27.250000,40.52,71.67
264169,2018-06-29 11:02:27.281250,45.51,71.67
264170,2018-06-29 11:02:27.312500,42.38,71.67
264171,2018-06-29 11:02:27.343750,36.49,71.67
264172,2018-06-29 11:02:27.375000,34.06,71.67
264173,2018-06-29 11:02:27.406250,36.4,71.67
264174,2018-06-29 11:02:27.437500,39.71,71.67
264175,2018-06-29 11:02:27.468750,40.89,71.67
264176,2018-06-29 11:02:27.500000,40.0,71.67
264177,2018-06-29 11:02:27.531250,37.38,71.55
264178,2018-06-29 11:02:27.562500,31.94,71.55
264179,2018-06-29 11:02:27.593750,23.31,71.55
264180,2018-06-29 11:02:27.625000,13.25,71.55
264181,2018-06-29 11:02:27.656250,4.2,71.55
264182,2018-06-29 11:02:27.687500,-2.73,71.55
264183,2018-06-29 11:02:27.718750,-8.96,71.55
264184,2018-06-29 11:02:27.750000,-17.18,71.55
264185,2018-06-29 11:02:27.781250,-27.68,71.55
264186,2018-06-29 11:02:27.812500,-37.59,71.55
264187,2018-06-29 11:02:27.843750,-45.02,71.55
264188,2018-06-29 11:02:27.875000,-51.64,71.55
264189,2018-06-29 11:02:27.906250,-60.7,71.55
264190,2018-06-29 11:02:27.937500,-73.53,71.55
264191,2018-06-29 11:02:27.968750,-84.2,71.55
264192,2018-06-29 11:02:28.000000,-79.45,71.55
264193,2018-06-29 11:02:28.031250,-52.57,71.55
264194,2018-06-29 11:02:28.062500,-14.6,71.55
264195,2018-06-29 11:02:28.093750,17.0,71.55
264196,2018-06-29 11:02:28.125000,35.07,71.55
264197,2018-06-29 11:02:28.156250,42.14,71.55
264198,2018-06-29 11:02:28.187500,42.15,71.55
264199,2018-06-29 11:02:28.218750,38.83,71.55
264200,2018-06-29 11:02:28.250000,35.96,71.55
264201,2018-06-29 11:02:28.281250,35.67,71.55
264202,2018-06-29 11:02:28.312500,37.72,71.55
264203,2018-06-29 11:02:28.343750,40.25,71.55
264204,2018-06-29 11:02:28.375000,41.2,71.55
264205,2018-06-29 11:02:28.406250,39.66,71.55
264206,2018-06-29 11:02:28.437500,35.54,71.55
264207,2018-06-29 11:02:28.468750,29.22,71.55
264208,2018-06-29 11:02:28.500000,21.68,71.55
264209,2018-06-29 11:02:28.531250,13.4,71.43
264210,2018-06-29 11:02:28.562500,4.4,71.43
264211,2018-06-29 11:02:28.593750,-4.27,71.43
264212,2018-06-29 11:02:28.625000,-11.28,71.43
264213,2018-06-29 11:02:28.656250,-17.65,71.43
264214,2018-06-29 11:02:28.687500,-25.65,71.43
264215,2018-06-29 11:02:28.718750,-35.17,71.43
264216,2018-06-29 11:02:28.750000,-43.58,71.43
264217,2018-06-29 11:02:28.781250,-49.47,71.43
264218,2018-06-29 11:02:28.812500,-54.84,71.43
264219,2018-06-29 11:02:28.843750,-63.26,71.43
264220,2018-06-29 11:02:28.875000,-75.47,71.43
264221,2018-06-29 11:02:28.906250,-84.28,71.43
264222,2018-06-29 11:02:28.937500,-76.75,71.43
264223,2018-06-29 11:02:28.968750,-48.26,71.43
264224,2018-06-29 11:02:29.000000,-10.76,71.43
264225,2018-06-29 11:02:29.031250,19.38,71.43
264226,2018-06-29 11:02:29.062500,36.28,71.43
264227,2018-06-29 11:02:29.093750,42.96,71.43
264228,2018-06-29 11:02:29.125000,43.17,71.43
264229,2018-06-29 11:02:29.156250,40.19,71.43
264230,2018-06-29 11:02:29.187500,37.68,71.43
264231,2018-06-29 11:02:29.218750,37.52,71.43
264232,2018-06-29 11:02:29.250000,38.42,71.43
264233,2018-06-29 11:02:29.281250,38.52,71.43
264234,2018-06-29 11:02:29.312500,37.78,71.43
264235,2018-06-29 11:02:29.343750,36.48,71.43
264236,2018-06-29 11:02:29.375000,33.0,71.43
264237,2018-06-29 11:02:29.406250,25.68,71.43
264238,2018-06-29 11:02:29.437500,15.67,71.43
264239,2018-06-29 11:02:29.468750,6.25,71.43
264240,2018-06-29 11:02:29.500000,-0.79,71.43
264241,2018-06-29 11:02:29.531250,-7.15,71.3
264242,2018-06-29 11:02:29.562500,-15.29,71.3
264243,2018-06-29 11:02:29.593750,-24.71,71.3
264244,2018-06-29 11:02:29.625000,-32.81,71.3
264245,2018-06-29 11:02:29.656250,-38.8,71.3
264246,2018-06-29 11:02:29.687500,-44.84,71.3
264247,2018-06-29 11:02:29.718750,-53.57,71.3
264248,2018-06-29 11:02:29.750000,-65.16,71.3
264249,2018-06-29 11:02:29.781250,-73.59,71.3
264250,2018-06-29 11:02:29.812500,-68.04,71.3
264251,2018-06-29 11:02:29.843750,-44.2,71.3
264252,2018-06-29 11:02:29.875000,-11.57,71.3
264253,2018-06-29 11:02:29.906250,16.0,71.3
264254,2018-06-29 11:02:29.937500,32.76,71.3
264255,2018-06-29 11:02:29.968750,40.11,71.3
264256,2018-06-29 11:02:30.000000,40.46,71.3
264257,2018-06-29 11:02:30.031250,36.6,71.3
264258,2018-06-29 11:02:30.062500,32.41,71.3
264259,2018-06-29 11:02:30.093750,30.64,71.3
264260,2018-06-29 11:02:30.125000,31.24,71.3
264261,2018-06-29 11:02:30.156250,32.54,71.3
264262,2018-06-29 11:02:30.187500,33.26,71.3
264263,2018-06-29 11:02:30.218750,33.02,71.3
264264,2018-06-29 11:02:30.250000,30.95,71.3
264265,2018-06-29 11:02:30.281250,25.28,71.3
264266,2018-06-29 11:02:30.312500,15.85,71.3
264267,2018-06-29 11:02:30.343750,5.85,71.3
264268,2018-06-29 11:02:30.375000,-1.64,71.3
264269,2018-06-29 11:02:30.406250,-7.78,71.3
264270,2018-06-29 11:02:30.437500,-15.6,71.3
264271,2018-06-29 11:02:30.468750,-24.6,71.3
264272,2018-06-29 11:02:30.500000,-31.76,71.3
264273,2018-06-29 11:02:30.531250,-36.76,71.18
264274,2018-06-29 11:02:30.562500,-42.19,71.18
264275,2018-06-29 11:02:30.593750,-50.32,71.18
264276,2018-06-29 11:02:30.625000,-61.34,71.18
264277,2018-06-29 11:02:30.656250,-70.38,71.18
264278,2018-06-29 11:02:30.687500,-66.98,71.18
264279,2018-06-29 11:02:30.718750,-45.06,71.18
264280,2018-06-29 11:02:30.750000,-12.38,71.18
264281,2018-06-29 11:02:30.781250,16.58,71.18
264282,2018-06-29 11:02:30.812500,33.97,71.18
264283,2018-06-29 11:02:30.843750,39.81,71.18
264284,2018-06-29 11:02:30.875000,36.51,71.18
264285,2018-06-29 11:02:30.906250,28.58,71.18
264286,2018-06-29 11:02:30.937500,22.86,71.18
264287,2018-06-29 11:02:30.968750,23.41,71.18
264288,2018-06-29 11:02:31.000000,27.7,71.18
264289,2018-06-29 11:02:31.031250,30.61,71.18
264290,2018-06-29 11:02:31.062500,30.7,71.18
264291,2018-06-29 11:02:31.093750,29.32,71.18
264292,2018-06-29 11:02:31.125000,25.53,71.18
264293,2018-06-29 11:02:31.156250,17.31,71.18
264294,2018-06-29 11:02:31.187500,6.49,71.18
264295,2018-06-29 11:02:31.218750,-2.73,71.18
264296,2018-06-29 11:02:31.250000,-9.91,71.18
264297,2018-06-29 11:02:31.281250,-18.4,71.18
264298,2018-06-29 11:02:31.312500,-29.31,71.18
264299,2018-06-29 11:02:31.343750,-39.88,71.18
264300,2018-06-29 11:02:31.375000,-47.87,71.18
264301,2018-06-29 11:02:31.406250,-54.59,71.18
264302,2018-06-29 11:02:31.437500,-63.58,71.18
264303,2018-06-29 11:02:31.468750,-76.71,71.18
264304,2018-06-29 11:02:31.500000,-88.38,71.18
264305,2018-06-29 11:02:31.531250,-85.52,71.07
264306,2018-06-29 11:02:31.562500,-60.61,71.07
264307,2018-06-29 11:02:31.593750,-22.56,71.07
264308,2018-06-29 11:02:31.625000,12.4,71.07
264309,2018-06-29 11:02:31.656250,35.81,71.07
264310,2018-06-29 11:02:31.687500,47.53,71.07
264311,2018-06-29 11:02:31.718750,49.37,71.07
264312,2018-06-29 11:02:31.750000,45.12,71.07
264313,2018-06-29 11:02:31.781250,40.79,71.07
264314,2018-06-29 11:02:31.812500,40.07,71.07
264315,2018-06-29 11:02:31.843750,41.58,71.07
264316,2018-06-29 11:02:31.875000,42.68,71.07
264317,2018-06-29 11:02:31.906250,43.02,71.07
264318,2018-06-29 11:02:31.937500,42.76,71.07
264319,2018-06-29 11:02:31.968750,39.67,71.07
264320,2018-06-29 11:02:32.000000,31.17,71.07
264321,2018-06-29 11:02:32.031250,18.77,71.07
264322,2018-06-29 11:02:32.062500,7.33,71.07
264323,2018-06-29 11:02:32.093750,-1.33,71.07
264324,2018-06-29 11:02:32.125000,-10.7,71.07
264325,2018-06-29 11:02:32.156250,-23.5,71.07
264326,2018-06-29 11:02:32.187500,-36.67,71.07
264327,2018-06-29 11:02:32.218750,-46.0,71.07
264328,2018-06-29 11:02:32.250000,-52.46,71.07
264329,2018-06-29 11:02:32.281250,-61.59,71.07
264330,2018-06-29 11:02:32.312500,-77.1,71.07
264331,2018-06-29 11:02:32.343750,-93.37,71.07
264332,2018-06-29 11:02:32.375000,-94.86,71.07
264333,2018-06-29 11:02:32.406250,-70.5,71.07
264334,2018-06-29 11:02:32.437500,-28.02,71.07
264335,2018-06-29 11:02:32.468750,13.3,71.07
264336,2018-06-29 11:02:32.500000,41.46,71.07
264337,2018-06-29 11:02:32.531250,56.28,70.97
264338,2018-06-29 11:02:32.562500,61.08,70.97
264339,2018-06-29 11:02:32.593750,58.79,70.97
264340,2018-06-29 11:02:32.625000,54.01,70.97
264341,2018-06-29 11:02:32.656250,51.43,70.97
264342,2018-06-29 11:02:32.687500,51.85,70.97
264343,2018-06-29 11:02:32.718750,52.97,70.97
264344,2018-06-29 11:02:32.750000,53.51,70.97
264345,2018-06-29 11:02:32.781250,53.6,70.97
264346,2018-06-29 11:02:32.812500,51.54,70.97
264347,2018-06-29 11:02:32.843750,44.2,70.97
264348,2018-06-29 11:02:32.875000,31.79,70.97
264349,2018-06-29 11:02:32.906250,19.18,70.97
264350,2018-06-29 11:02:32.937500,9.82,70.97
264351,2018-06-29 11:02:32.968750,1.13,70.97
264352,2018-06-29 11:02:33.000000,-10.71,70.97
264353,2018-06-29 11:02:33.031250,-24.54,70.97
264354,2018-06-29 11:02:33.062500,-36.22,70.97
264355,2018-06-29 11:02:33.093750,-44.66,70.97
264356,2018-06-29 11:02:33.125000,-53.27,70.97
264357,2018-06-29 11:02:33.156250,-66.42,70.97
264358,2018-06-29 11:02:33.187500,-83.01,70.97
264359,2018-06-29 11:02:33.218750,-90.94,70.97
264360,2018-06-29 11:02:33.250000,-75.36,70.97
264361,2018-06-29 11:02:33.281250,-36.56,70.97
264362,2018-06-29 11:02:33.312500,8.07,70.97
264363,2018-06-29 11:02:33.343750,42.42,70.97
264364,2018-06-29 11:02:33.375000,62.87,70.97
264365,2018-06-29 11:02:33.406250,71.89,70.97
264366,2018-06-29 11:02:33.437500,72.78,70.97
264367,2018-06-29 11:02:33.468750,70.87,70.97
264368,2018-06-29 11:02:33.500000,71.36,70.97
264369,2018-06-29 11:02:33.531250,75.32,70.85
264370,2018-06-29 11:02:33.562500,81.31,70.85
264371,2018-06-29 11:02:33.593750,88.91,70.85
264372,2018-06-29 11:02:33.625000,97.6,70.85
264373,2018-06-29 11:02:33.656250,104.66,70.85
264374,2018-06-29 11:02:33.687500,107.03,70.85
264375,2018-06-29 11:02:33.718750,105.42,70.85
264376,2018-06-29 11:02:33.750000,104.06,70.85
264377,2018-06-29 11:02:33.781250,105.27,70.85
264378,2018-06-29 11:02:33.812500,106.99,70.85
264379,2018-06-29 11:02:33.843750,106.58,70.85
264380,2018-06-29 11:02:33.875000,104.56,70.85
264381,2018-06-29 11:02:33.906250,104.32,70.85
264382,2018-06-29 11:02:33.937500,106.05,70.85
264383,2018-06-29 11:02:33.968750,97.93,70.85
264384,2018-06-29 11:02:34.000000,60.33,70.85
264385,2018-06-29 11:02:34.031250,-15.06,70.85
264386,2018-06-29 11:02:34.062500,-115.63,70.85
264387,2018-06-29 11:02:34.093750,-215.26,70.85
264388,2018-06-29 11:02:34.125000,-284.9,70.85
264389,2018-06-29 11:02:34.156250,-304.54,70.85
264390,2018-06-29 11:02:34.187500,-274.38,70.85
264391,2018-06-29 11:02:34.218750,-212.87,70.85
264392,2018-06-29 11:02:34.250000,-143.86,70.85
264393,2018-06-29 11:02:34.281250,-86.6,70.85
264394,2018-06-29 11:02:34.312500,-49.45,70.85
264395,2018-06-29 11:02:34.343750,-28.89,70.85
264396,2018-06-29 11:02:34.375000,-16.73,70.85
264397,2018-06-29 11:02:34.406250,-6.87,70.85
264398,2018-06-29 11:02:34.437500,3.21,70.85
264399,2018-06-29 11:02:34.468750,12.24,70.85
264400,2018-06-29 11:02:34.500000,16.97,70.85
264401,2018-06-29 11:02:34.531250,17.27,70.77
264402,2018-06-29 11:02:34.562500,16.61,70.77
264403,2018-06-29 11:02:34.593750,15.49,70.77
264404,2018-06-29 11:02:34.625000,9.51,70.77
264405,2018-06-29 11:02:34.656250,-3.54,70.77
264406,2018-06-29 11:02:34.687500,-19.23,70.77
264407,2018-06-29 11:02:34.718750,-32.28,70.77
264408,2018-06-29 11:02:34.750000,-43.24,70.77
264409,2018-06-29 11:02:34.781250,-56.81,70.77
264410,2018-06-29 11:02:34.812500,-73.81,70.77
264411,2018-06-29 11:02:34.843750,-85.76,70.77
264412,2018-06-29 11:02:34.875000,-80.79,70.77
264413,2018-06-29 11:02:34.906250,-56.5,70.77
264414,2018-06-29 11:02:34.937500,-23.83,70.77
264415,2018-06-29 11:02:34.968750,3.69,70.77
264416,2018-06-29 11:02:35.000000,20.59,70.77
264417,2018-06-29 11:02:35.031250,27.65,70.77
264418,2018-06-29 11:02:35.062500,26.24,70.77
264419,2018-06-29 11:02:35.093750,19.34,70.77
264420,2018-06-29 11:02:35.125000,13.42,70.77
264421,2018-06-29 11:02:35.156250,13.26,70.77
264422,2018-06-29 11:02:35.187500,16.84,70.77
264423,2018-06-29 11:02:35.218750,19.29,70.77
264424,2018-06-29 11:02:35.250000,19.31,70.77
264425,2018-06-29 11:02:35.281250,18.16,70.77
264426,2018-06-29 11:02:35.312500,15.24,70.77
264427,2018-06-29 11:02:35.343750,8.59,70.77
264428,2018-06-29 11:02:35.375000,-1.69,70.77
264429,2018-06-29 11:02:35.406250,-13.23,70.77
264430,2018-06-29 11:02:35.437500,-24.1,70.77
264431,2018-06-29 11:02:35.468750,-34.33,70.77
264432,2018-06-29 11:02:35.500000,-45.72,70.77
264433,2018-06-29 11:02:35.531250,-60.37,70.73
264434,2018-06-29 11:02:35.562500,-75.38,70.73
264435,2018-06-29 11:02:35.593750,-79.35,70.73
264436,2018-06-29 11:02:35.625000,-61.18,70.73
264437,2018-06-29 11:02:35.656250,-23.81,70.73
264438,2018-06-29 11:02:35.687500,16.99,70.73
264439,2018-06-29 11:02:35.718750,47.57,70.73
264440,2018-06-29 11:02:35.750000,64.89,70.73
264441,2018-06-29 11:02:35.781250,71.79,70.73
264442,2018-06-29 11:02:35.812500,71.01,70.73
264443,2018-06-29 11:02:35.843750,65.42,70.73
264444,2018-06-29 11:02:35.875000,59.74,70.73
264445,2018-06-29 11:02:35.906250,57.6,70.73
264446,2018-06-29 11:02:35.937500,57.32,70.73
264447,2018-06-29 11:02:35.968750,54.7,70.73
264448,2018-06-29 11:02:36.000000,49.01,70.73
264449,2018-06-29 11:02:36.031250,42.18,70.73
264450,2018-06-29 11:02:36.062500,33.74,70.73
264451,2018-06-29 11:02:36.093750,21.43,70.73
264452,2018-06-29 11:02:36.125000,5.77,70.73
264453,2018-06-29 11:02:36.156250,-9.73,70.73
264454,2018-06-29 11:02:36.187500,-22.84,70.73
264455,2018-06-29 11:02:36.218750,-34.43,70.73
264456,2018-06-29 11:02:36.250000,-47.18,70.73
264457,2018-06-29 11:02:36.281250,-63.54,70.73
264458,2018-06-29 11:02:36.312500,-80.74,70.73
264459,2018-06-29 11:02:36.343750,-86.78,70.73
264460,2018-06-29 11:02:36.375000,-69.04,70.73
264461,2018-06-29 11:02:36.406250,-29.75,70.73
264462,2018-06-29 11:02:36.437500,14.0,70.73
264463,2018-06-29 11:02:36.468750,46.94,70.73
264464,2018-06-29 11:02:36.500000,65.07,70.73
264465,2018-06-29 11:02:36.531250,70.63,70.73
264466,2018-06-29 11:02:36.562500,67.49,70.73
264467,2018-06-29 11:02:36.593750,61.55,70.73
264468,2018-06-29 11:02:36.625000,58.27,70.73
264469,2018-06-29 11:02:36.656250,58.1,70.73
264470,2018-06-29 11:02:36.687500,57.67,70.73
264471,2018-06-29 11:02:36.718750,55.72,70.73
264472,2018-06-29 11:02:36.750000,53.75,70.73
264473,2018-06-29 11:02:36.781250,50.83,70.73
264474,2018-06-29 11:02:36.812500,42.83,70.73
264475,2018-06-29 11:02:36.843750,29.02,70.73
264476,2018-06-29 11:02:36.875000,14.63,70.73
264477,2018-06-29 11:02:36.906250,3.7,70.73
264478,2018-06-29 11:02:36.937500,-6.48,70.73
264479,2018-06-29 11:02:36.968750,-19.79,70.73
264480,2018-06-29 11:02:37.000000,-34.26,70.73
264481,2018-06-29 11:02:37.031250,-45.64,70.73
264482,2018-06-29 11:02:37.062500,-54.13,70.73
264483,2018-06-29 11:02:37.093750,-64.37,70.73
264484,2018-06-29 11:02:37.125000,-80.05,70.73
264485,2018-06-29 11:02:37.156250,-96.29,70.73
264486,2018-06-29 11:02:37.187500,-97.4,70.73
264487,2018-06-29 11:02:37.218750,-70.81,70.73
264488,2018-06-29 11:02:37.250000,-24.32,70.73
264489,2018-06-29 11:02:37.281250,20.26,70.73
264490,2018-06-29 11:02:37.312500,49.2,70.73
264491,2018-06-29 11:02:37.343750,63.03,70.73
264492,2018-06-29 11:02:37.375000,65.93,70.73
264493,2018-06-29 11:02:37.406250,61.31,70.73
264494,2018-06-29 11:02:37.437500,54.95,70.73
264495,2018-06-29 11:02:37.468750,52.63,70.73
264496,2018-06-29 11:02:37.500000,54.62,70.73
264497,2018-06-29 11:02:37.531250,57.19,70.77
264498,2018-06-29 11:02:37.562500,58.23,70.77
264499,2018-06-29 11:02:37.593750,57.47,70.77
264500,2018-06-29 11:02:37.625000,53.69,70.77
264501,2018-06-29 11:02:37.656250,45.8,70.77
264502,2018-06-29 11:02:37.687500,34.69,70.77
264503,2018-06-29 11:02:37.718750,22.25,70.77
264504,2018-06-29 11:02:37.750000,10.13,70.77
264505,2018-06-29 11:02:37.781250,-0.26,70.77
264506,2018-06-29 11:02:37.812500,-8.78,70.77
264507,2018-06-29 11:02:37.843750,-17.6,70.77
264508,2018-06-29 11:02:37.875000,-28.35,70.77
264509,2018-06-29 11:02:37.906250,-39.33,70.77
264510,2018-06-29 11:02:37.937500,-48.21,70.77
264511,2018-06-29 11:02:37.968750,-56.3,70.77
264512,2018-06-29 11:02:38.000000,-67.27,70.77
264513,2018-06-29 11:02:38.031250,-82.74,70.77
264514,2018-06-29 11:02:38.062500,-97.22,70.77
264515,2018-06-29 11:02:38.093750,-96.95,70.77
264516,2018-06-29 11:02:38.125000,-71.33,70.77
264517,2018-06-29 11:02:38.156250,-27.33,70.77
264518,2018-06-29 11:02:38.187500,15.52,70.77
264519,2018-06-29 11:02:38.218750,44.21,70.77
264520,2018-06-29 11:02:38.250000,57.94,70.77
264521,2018-06-29 11:02:38.281250,59.79,70.77
264522,2018-06-29 11:02:38.312500,53.66,70.77
264523,2018-06-29 11:02:38.343750,46.7,70.77
264524,2018-06-29 11:02:38.375000,45.13,70.77
264525,2018-06-29 11:02:38.406250,47.83,70.77
264526,2018-06-29 11:02:38.437500,49.2,70.77
264527,2018-06-29 11:02:38.468750,47.66,70.77
264528,2018-06-29 11:02:38.500000,45.25,70.77
264529,2018-06-29 11:02:38.531250,41.03,70.8
264530,2018-06-29 11:02:38.562500,32.09,70.8
264531,2018-06-29 11:02:38.593750,20.05,70.8
264532,2018-06-29 11:02:38.625000,9.51,70.8
264533,2018-06-29 11:02:38.656250,0.54,70.8
264534,2018-06-29 11:02:38.687500,-10.6,70.8
264535,2018-06-29 11:02:38.718750,-23.93,70.8
264536,2018-06-29 11:02:38.750000,-35.43,70.8
264537,2018-06-29 11:02:38.781250,-43.86,70.8
264538,2018-06-29 11:02:38.812500,-52.29,70.8
264539,2018-06-29 11:02:38.843750,-63.81,70.8
264540,2018-06-29 11:02:38.875000,-77.41,70.8
264541,2018-06-29 11:02:38.906250,-84.32,70.8
264542,2018-06-29 11:02:38.937500,-71.74,70.8
264543,2018-06-29 11:02:38.968750,-37.69,70.8
264544,2018-06-29 11:02:39.000000,3.17,70.8
264545,2018-06-29 11:02:39.031250,34.39,70.8
264546,2018-06-29 11:02:39.062500,50.97,70.8
264547,2018-06-29 11:02:39.093750,55.23,70.8
264548,2018-06-29 11:02:39.125000,50.12,70.8
264549,2018-06-29 11:02:39.156250,40.95,70.8
264550,2018-06-29 11:02:39.187500,34.82,70.8
264551,2018-06-29 11:02:39.218750,34.39,70.8
264552,2018-06-29 11:02:39.250000,36.07,70.8
264553,2018-06-29 11:02:39.281250,35.63,70.8
264554,2018-06-29 11:02:39.312500,32.17,70.8
264555,2018-06-29 11:02:39.343750,26.63,70.8
264556,2018-06-29 11:02:39.375000,19.43,70.8
264557,2018-06-29 11:02:39.406250,9.84,70.8
264558,2018-06-29 11:02:39.437500,-2.35,70.8
264559,2018-06-29 11:02:39.468750,-15.06,70.8
264560,2018-06-29 11:02:39.500000,-25.72,70.8
264561,2018-06-29 11:02:39.531250,-34.11,70.83
264562,2018-06-29 11:02:39.562500,-41.91,70.83
264563,2018-06-29 11:02:39.593750,-51.18,70.83
264564,2018-06-29 11:02:39.625000,-62.9,70.83
264565,2018-06-29 11:02:39.656250,-71.92,70.83
264566,2018-06-29 11:02:39.687500,-66.15,70.83
264567,2018-06-29 11:02:39.718750,-39.38,70.83
264568,2018-06-29 11:02:39.750000,-1.97,70.83
264569,2018-06-29 11:02:39.781250,29.3,70.83
264570,2018-06-29 11:02:39.812500,46.77,70.83
264571,2018-06-29 11:02:39.843750,51.62,70.83
264572,2018-06-29 11:02:39.875000,46.9,70.83
264573,2018-06-29 11:02:39.906250,37.46,70.83
264574,2018-06-29 11:02:39.937500,29.86,70.83
264575,2018-06-29 11:02:39.968750,27.36,70.83
264576,2018-06-29 11:02:40.000000,28.26,70.83
264577,2018-06-29 11:02:40.031250,29.58,70.83
264578,2018-06-29 11:02:40.062500,29.28,70.83
264579,2018-06-29 11:02:40.093750,26.05,70.83
264580,2018-06-29 11:02:40.125000,19.71,70.83
264581,2018-06-29 11:02:40.156250,11.32,70.83
264582,2018-06-29 11:02:40.187500,2.08,70.83
264583,2018-06-29 11:02:40.218750,-7.64,70.83
264584,2018-06-29 11:02:40.250000,-18.01,70.83
264585,2018-06-29 11:02:40.281250,-28.55,70.83
264586,2018-06-29 11:02:40.312500,-37.65,70.83
264587,2018-06-29 11:02:40.343750,-44.55,70.83
264588,2018-06-29 11:02:40.375000,-51.76,70.83
264589,2018-06-29 11:02:40.406250,-62.31,70.83
264590,2018-06-29 11:02:40.437500,-72.12,70.83
264591,2018-06-29 11:02:40.468750,-68.78,70.83
264592,2018-06-29 11:02:40.500000,-44.26,70.83
264593,2018-06-29 11:02:40.531250,-6.97,70.87
264594,2018-06-29 11:02:40.562500,25.74,70.87
264595,2018-06-29 11:02:40.593750,44.08,70.87
264596,2018-06-29 11:02:40.625000,49.12,70.87
264597,2018-06-29 11:02:40.656250,44.7,70.87
264598,2018-06-29 11:02:40.687500,35.31,70.87
264599,2018-06-29 11:02:40.718750,27.76,70.87
264600,2018-06-29 11:02:40.750000,26.64,70.87
264601,2018-06-29 11:02:40.781250,29.57,70.87
264602,2018-06-29 11:02:40.812500,31.72,70.87
264603,2018-06-29 11:02:40.843750,31.93,70.87
264604,2018-06-29 11:02:40.875000,30.57,70.87
264605,2018-06-29 11:02:40.906250,26.01,70.87
264606,2018-06-29 11:02:40.937500,17.62,70.87
264607,2018-06-29 11:02:40.968750,8.58,70.87
264608,2018-06-29 11:02:41.000000,1.48,70.87
264609,2018-06-29 11:02:41.031250,-5.69,70.87
264610,2018-06-29 11:02:41.062500,-16.1,70.87
264611,2018-06-29 11:02:41.093750,-27.96,70.87
264612,2018-06-29 11:02:41.125000,-36.51,70.87
264613,2018-06-29 11:02:41.156250,-41.24,70.87
264614,2018-06-29 11:02:41.187500,-46.67,70.87
264615,2018-06-29 11:02:41.218750,-56.44,70.87
264616,2018-06-29 11:02:41.250000,-67.96,70.87
264617,2018-06-29 11:02:41.281250,-70.97,70.87
264618,2018-06-29 11:02:41.312500,-55.03,70.87
264619,2018-06-29 11:02:41.343750,-22.81,70.87
264620,2018-06-29 11:02:41.375000,9.71,70.87
264621,2018-06-29 11:02:41.406250,29.6,70.87
264622,2018-06-29 11:02:41.437500,36.14,70.87
264623,2018-06-29 11:02:41.468750,33.9,70.87
264624,2018-06-29 11:02:41.500000,26.75,70.87
264625,2018-06-29 11:02:41.531250,19.39,70.9
264626,2018-06-29 11:02:41.562500,16.39,70.9
264627,2018-06-29 11:02:41.593750,17.94,70.9
264628,2018-06-29 11:02:41.625000,20.64,70.9
264629,2018-06-29 11:02:41.656250,21.64,70.9
264630,2018-06-29 11:02:41.687500,19.99,70.9
264631,2018-06-29 11:02:41.718750,15.59,70.9
264632,2018-06-29 11:02:41.750000,8.79,70.9
264633,2018-06-29 11:02:41.781250,0.27,70.9
264634,2018-06-29 11:02:41.812500,-9.21,70.9
264635,2018-06-29 11:02:41.843750,-18.98,70.9
264636,2018-06-29 11:02:41.875000,-28.49,70.9
264637,2018-06-29 11:02:41.906250,-36.89,70.9
264638,2018-06-29 11:02:41.937500,-44.1,70.9
264639,2018-06-29 11:02:41.968750,-52.4,70.9
264640,2018-06-29 11:02:42.000000,-62.91,70.9
264641,2018-06-29 11:02:42.031250,-69.19,70.9
264642,2018-06-29 11:02:42.062500,-60.29,70.9
264643,2018-06-29 11:02:42.093750,-33.91,70.9
264644,2018-06-29 11:02:42.125000,-0.98,70.9
264645,2018-06-29 11:02:42.156250,25.49,70.9
264646,2018-06-29 11:02:42.187500,40.15,70.9
264647,2018-06-29 11:02:42.218750,43.68,70.9
264648,2018-06-29 11:02:42.250000,38.75,70.9
264649,2018-06-29 11:02:42.281250,29.62,70.9
264650,2018-06-29 11:02:42.312500,21.67,70.9
264651,2018-06-29 11:02:42.343750,18.54,70.9
264652,2018-06-29 11:02:42.375000,19.8,70.9
264653,2018-06-29 11:02:42.406250,21.62,70.9
264654,2018-06-29 11:02:42.437500,20.75,70.9
264655,2018-06-29 11:02:42.468750,17.06,70.9
264656,2018-06-29 11:02:42.500000,11.47,70.9
264657,2018-06-29 11:02:42.531250,3.34,70.97
264658,2018-06-29 11:02:42.562500,-8.43,70.97
264659,2018-06-29 11:02:42.593750,-22.39,70.97
264660,2018-06-29 11:02:42.625000,-35.12,70.97
264661,2018-06-29 11:02:42.656250,-44.97,70.97
264662,2018-06-29 11:02:42.687500,-53.66,70.97
264663,2018-06-29 11:02:42.718750,-64.4,70.97
264664,2018-06-29 11:02:42.750000,-78.45,70.97
264665,2018-06-29 11:02:42.781250,-89.98,70.97
264666,2018-06-29 11:02:42.812500,-85.92,70.97
264667,2018-06-29 11:02:42.843750,-58.5,70.97
264668,2018-06-29 11:02:42.875000,-17.13,70.97
264669,2018-06-29 11:02:42.906250,19.75,70.97
264670,2018-06-29 11:02:42.937500,42.57,70.97
264671,2018-06-29 11:02:42.968750,53.01,70.97
264672,2018-06-29 11:02:43.000000,54.63,70.97
264673,2018-06-29 11:02:43.031250,49.86,70.97
264674,2018-06-29 11:02:43.062500,43.07,70.97
264675,2018-06-29 11:02:43.093750,38.9,70.97
264676,2018-06-29 11:02:43.125000,38.16,70.97
264677,2018-06-29 11:02:43.156250,38.55,70.97
264678,2018-06-29 11:02:43.187500,38.02,70.97
264679,2018-06-29 11:02:43.218750,35.49,70.97
264680,2018-06-29 11:02:43.250000,30.02,70.97
264681,2018-06-29 11:02:43.281250,21.38,70.97
264682,2018-06-29 11:02:43.312500,10.42,70.97
264683,2018-06-29 11:02:43.343750,-2.16,70.97
264684,2018-06-29 11:02:43.375000,-15.79,70.97
264685,2018-06-29 11:02:43.406250,-29.1,70.97
264686,2018-06-29 11:02:43.437500,-40.53,70.97
264687,2018-06-29 11:02:43.468750,-50.46,70.97
264688,2018-06-29 11:02:43.500000,-61.84,70.97
264689,2018-06-29 11:02:43.531250,-76.68,71.03
264690,2018-06-29 11:02:43.562500,-89.05,71.03
264691,2018-06-29 11:02:43.593750,-84.68,71.03
264692,2018-06-29 11:02:43.625000,-55.24,71.03
264693,2018-06-29 11:02:43.656250,-10.92,71.03
264694,2018-06-29 11:02:43.687500,28.53,71.03
264695,2018-06-29 11:02:43.718750,52.2,71.03
264696,2018-06-29 11:02:43.750000,61.12,71.03
264697,2018-06-29 11:02:43.781250,59.58,71.03
264698,2018-06-29 11:02:43.812500,52.21,71.03
264699,2018-06-29 11:02:43.843750,45.04,71.03
264700,2018-06-29 11:02:43.875000,42.17,71.03
264701,2018-06-29 11:02:43.906250,42.77,71.03
264702,2018-06-29 11:02:43.937500,44.13,71.03
264703,2018-06-29 11:02:43.968750,44.99,71.03
264704,2018-06-29 11:02:44.000000,43.98,71.03
264705,2018-06-29 11:02:44.031250,38.89,71.03
264706,2018-06-29 11:02:44.062500,29.74,71.03
264707,2018-06-29 11:02:44.093750,19.01,71.03
264708,2018-06-29 11:02:44.125000,8.22,71.03
264709,2018-06-29 11:02:44.156250,-3.49,71.03
264710,2018-06-29 11:02:44.187500,-16.85,71.03
264711,2018-06-29 11:02:44.218750,-30.17,71.03
264712,2018-06-29 11:02:44.250000,-40.88,71.03
264713,2018-06-29 11:02:44.281250,-49.32,71.03
264714,2018-06-29 11:02:44.312500,-59.41,71.03
264715,2018-06-29 11:02:44.343750,-73.69,71.03
264716,2018-06-29 11:02:44.375000,-85.44,71.03
264717,2018-06-29 11:02:44.406250,-79.19,71.03
264718,2018-06-29 11:02:44.437500,-46.59,71.03
264719,2018-06-29 11:02:44.468750,0.93,71.03
264720,2018-06-29 11:02:44.500000,42.78,71.03
264721,2018-06-29 11:02:44.531250,67.82,71.1
264722,2018-06-29 11:02:44.562500,76.71,71.1
264723,2018-06-29 11:02:44.593750,74.48,71.1
264724,2018-06-29 11:02:44.625000,68.36,71.1
264725,2018-06-29 11:02:44.656250,65.73,71.1
264726,2018-06-29 11:02:44.687500,68.25,71.1
264727,2018-06-29 11:02:44.718750,71.2,71.1
264728,2018-06-29 11:02:44.750000,70.25,71.1
264729,2018-06-29 11:02:44.781250,65.32,71.1
264730,2018-06-29 11:02:44.812500,56.9,71.1
264731,2018-06-29 11:02:44.843750,43.53,71.1
264732,2018-06-29 11:02:44.875000,25.56,71.1
264733,2018-06-29 11:02:44.906250,7.33,71.1
264734,2018-06-29 11:02:44.937500,-7.6,71.1
264735,2018-06-29 11:02:44.968750,-20.65,71.1
264736,2018-06-29 11:02:45.000000,-35.06,71.1
264737,2018-06-29 11:02:45.031250,-50.45,71.1
264738,2018-06-29 11:02:45.062500,-63.01,71.1
264739,2018-06-29 11:02:45.093750,-70.84,71.1
264740,2018-06-29 11:02:45.125000,-77.78,71.1
264741,2018-06-29 11:02:45.156250,-89.74,71.1
264742,2018-06-29 11:02:45.187500,-104.61,71.1
264743,2018-06-29 11:02:45.218750,-107.88,71.1
264744,2018-06-29 11:02:45.250000,-85.82,71.1
264745,2018-06-29 11:02:45.281250,-43.49,71.1
264746,2018-06-29 11:02:45.312500,-0.79,71.1
264747,2018-06-29 11:02:45.343750,27.87,71.1
264748,2018-06-29 11:02:45.375000,41.22,71.1
264749,2018-06-29 11:02:45.406250,42.45,71.1
264750,2018-06-29 11:02:45.437500,35.39,71.1
264751,2018-06-29 11:02:45.468750,26.91,71.1
264752,2018-06-29 11:02:45.500000,23.51,71.1
264753,2018-06-29 11:02:45.531250,26.03,71.17
264754,2018-06-29 11:02:45.562500,30.87,71.17
264755,2018-06-29 11:02:45.593750,34.74,71.17
264756,2018-06-29 11:02:45.625000,35.96,71.17
264757,2018-06-29 11:02:45.656250,33.67,71.17
264758,2018-06-29 11:02:45.687500,27.79,71.17
264759,2018-06-29 11:02:45.718750,19.43,71.17
264760,2018-06-29 11:02:45.750000,10.29,71.17
264761,2018-06-29 11:02:45.781250,1.39,71.17
264762,2018-06-29 11:02:45.812500,-7.02,71.17
264763,2018-06-29 11:02:45.843750,-14.61,71.17
264764,2018-06-29 11:02:45.875000,-21.38,71.17
264765,2018-06-29 11:02:45.906250,-29.23,71.17
264766,2018-06-29 11:02:45.937500,-40.18,71.17
264767,2018-06-29 11:02:45.968750,-49.19,71.17
264768,2018-06-29 11:02:46.000000,-42.85,71.17
264769,2018-06-29 11:02:46.031250,-13.12,71.17
264770,2018-06-29 11:02:46.062500,30.57,71.17
264771,2018-06-29 11:02:46.093750,70.03,71.17
264772,2018-06-29 11:02:46.125000,95.38,71.17
264773,2018-06-29 11:02:46.156250,107.61,71.17
264774,2018-06-29 11:02:46.187500,110.39,71.17
264775,2018-06-29 11:02:46.218750,108.44,71.17
264776,2018-06-29 11:02:46.250000,109.02,71.17
264777,2018-06-29 11:02:46.281250,116.44,71.17
264778,2018-06-29 11:02:46.312500,127.53,71.17
264779,2018-06-29 11:02:46.343750,137.44,71.17
264780,2018-06-29 11:02:46.375000,144.56,71.17
264781,2018-06-29 11:02:46.406250,146.6,71.17
264782,2018-06-29 11:02:46.437500,142.1,71.17
264783,2018-06-29 11:02:46.468750,137.65,71.17
264784,2018-06-29 11:02:46.500000,143.62,71.17
264785,2018-06-29 11:02:46.531250,160.66,71.25
264786,2018-06-29 11:02:46.562500,175.42,71.25
264787,2018-06-29 11:02:46.593750,170.36,71.25
264788,2018-06-29 11:02:46.625000,136.63,71.25
264789,2018-06-29 11:02:46.656250,79.39,71.25
264790,2018-06-29 11:02:46.687500,13.26,71.25
264791,2018-06-29 11:02:46.718750,-47.61,71.25
264792,2018-06-29 11:02:46.750000,-98.17,71.25
264793,2018-06-29 11:02:46.781250,-142.08,71.25
264794,2018-06-29 11:02:46.812500,-178.04,71.25
264795,2018-06-29 11:02:46.843750,-192.13,71.25
264796,2018-06-29 11:02:46.875000,-173.43,71.25
264797,2018-06-29 11:02:46.906250,-129.9,71.25
264798,2018-06-29 11:02:46.937500,-76.87,71.25
264799,2018-06-29 11:02:46.968750,-17.1,71.25
264800,2018-06-29 11:02:47.000000,53.67,71.25
264801,2018-06-29 11:02:47.031250,128.94,71.25
264802,2018-06-29 11:02:47.062500,190.86,71.25
264803,2018-06-29 11:02:47.093750,220.92,71.25
264804,2018-06-29 11:02:47.125000,209.04,71.25
264805,2018-06-29 11:02:47.156250,164.97,71.25
264806,2018-06-29 11:02:47.187500,119.26,71.25
264807,2018-06-29 11:02:47.218750,92.67,71.25
264808,2018-06-29 11:02:47.250000,72.7,71.25
264809,2018-06-29 11:02:47.281250,40.05,71.25
264810,2018-06-29 11:02:47.312500,1.21,71.25
264811,2018-06-29 11:02:47.343750,-27.82,71.25
264812,2018-06-29 11:02:47.375000,-50.49,71.25
264813,2018-06-29 11:02:47.406250,-80.6,71.25
264814,2018-06-29 11:02:47.437500,-120.03,71.25
264815,2018-06-29 11:02:47.468750,-162.09,71.25
264816,2018-06-29 11:02:47.500000,-205.63,71.25
264817,2018-06-29 11:02:47.531250,-256.38,71.33
264818,2018-06-29 11:02:47.562500,-322.1,71.33
264819,2018-06-29 11:02:47.593750,-407.93,71.33
264820,2018-06-29 11:02:47.625000,-493.52,71.33
264821,2018-06-29 11:02:47.656250,-525.72,71.33
264822,2018-06-29 11:02:47.687500,-472.0,71.33
264823,2018-06-29 11:02:47.718750,-365.06,71.33
264824,2018-06-29 11:02:47.750000,-259.6,71.33
264825,2018-06-29 11:02:47.781250,-175.35,71.33
264826,2018-06-29 11:02:47.812500,-110.57,71.33
264827,2018-06-29 11:02:47.843750,-68.85,71.33
264828,2018-06-29 11:02:47.875000,-46.72,71.33
264829,2018-06-29 11:02:47.906250,-27.98,71.33
264830,2018-06-29 11:02:47.937500,-4.74,71.33
264831,2018-06-29 11:02:47.968750,13.89,71.33
264832,2018-06-29 11:02:48.000000,18.07,71.33
264833,2018-06-29 11:02:48.031250,10.39,71.33
264834,2018-06-29 11:02:48.062500,-0.09,71.33
264835,2018-06-29 11:02:48.093750,-8.62,71.33
264836,2018-06-29 11:02:48.125000,-15.74,71.33
264837,2018-06-29 11:02:48.156250,-23.78,71.33
264838,2018-06-29 11:02:48.187500,-34.38,71.33
264839,2018-06-29 11:02:48.218750,-42.37,71.33
264840,2018-06-29 11:02:48.250000,-33.33,71.33
264841,2018-06-29 11:02:48.281250,1.93,71.33
264842,2018-06-29 11:02:48.312500,52.39,71.33
264843,2018-06-29 11:02:48.343750,97.45,71.33
264844,2018-06-29 11:02:48.375000,127.42,71.33
264845,2018-06-29 11:02:48.406250,143.52,71.33
264846,2018-06-29 11:02:48.437500,147.94,71.33
264847,2018-06-29 11:02:48.468750,145.67,71.33
264848,2018-06-29 11:02:48.500000,146.55,71.33
264849,2018-06-29 11:02:48.531250,155.98,71.4
264850,2018-06-29 11:02:48.562500,167.32,71.4
264851,2018-06-29 11:02:48.593750,168.06,71.4
264852,2018-06-29 11:02:48.625000,152.71,71.4
264853,2018-06-29 11:02:48.656250,127.95,71.4
264854,2018-06-29 11:02:48.687500,103.32,71.4
264855,2018-06-29 11:02:48.718750,79.94,71.4
264856,2018-06-29 11:02:48.750000,54.3,71.4
264857,2018-06-29 11:02:48.781250,29.71,71.4
264858,2018-06-29 11:02:48.812500,12.97,71.4
264859,2018-06-29 11:02:48.843750,1.12,71.4
264860,2018-06-29 11:02:48.875000,-17.13,71.4
264861,2018-06-29 11:02:48.906250,-46.45,71.4
264862,2018-06-29 11:02:48.937500,-78.46,71.4
264863,2018-06-29 11:02:48.968750,-101.75,71.4
264864,2018-06-29 11:02:49.000000,-121.53,71.4
264865,2018-06-29 11:02:49.031250,-161.11,71.4
264866,2018-06-29 11:02:49.062500,-227.89,71.4
264867,2018-06-29 11:02:49.093750,-289.72,71.4
264868,2018-06-29 11:02:49.125000,-306.03,71.4
264869,2018-06-29 11:02:49.156250,-272.36,71.4
264870,2018-06-29 11:02:49.187500,-219.32,71.4
264871,2018-06-29 11:02:49.218750,-180.73,71.4
264872,2018-06-29 11:02:49.250000,-171.56,71.4
264873,2018-06-29 11:02:49.281250,-182.52,71.4
264874,2018-06-29 11:02:49.312500,-191.12,71.4
264875,2018-06-29 11:02:49.343750,-182.3,71.4
264876,2018-06-29 11:02:49.375000,-157.91,71.4
264877,2018-06-29 11:02:49.406250,-128.98,71.4
264878,2018-06-29 11:02:49.437500,-105.29,71.4
264879,2018-06-29 11:02:49.468750,-91.31,71.4
264880,2018-06-29 11:02:49.500000,-84.21,71.4
264881,2018-06-29 11:02:49.531250,-76.76,71.52
264882,2018-06-29 11:02:49.562500,-66.95,71.52
264883,2018-06-29 11:02:49.593750,-58.68,71.52
264884,2018-06-29 11:02:49.625000,-51.22,71.52
264885,2018-06-29 11:02:49.656250,-38.75,71.52
264886,2018-06-29 11:02:49.687500,-22.88,71.52
264887,2018-06-29 11:02:49.718750,-14.97,71.52
264888,2018-06-29 11:02:49.750000,-23.19,71.52
264889,2018-06-29 11:02:49.781250,-44.71,71.52
264890,2018-06-29 11:02:49.812500,-67.5,71.52
264891,2018-06-29 11:02:49.843750,-73.53,71.52
264892,2018-06-29 11:02:49.875000,-50.37,71.52
264893,2018-06-29 11:02:49.906250,-4.51,71.52
264894,2018-06-29 11:02:49.937500,47.05,71.52
264895,2018-06-29 11:02:49.968750,95.96,71.52
264896,2018-06-29 11:02:50.000000,142.42,71.52
264897,2018-06-29 11:02:50.031250,185.07,71.52
264898,2018-06-29 11:02:50.062500,223.11,71.52
264899,2018-06-29 11:02:50.093750,261.81,71.52
264900,2018-06-29 11:02:50.125000,308.91,71.52
264901,2018-06-29 11:02:50.156250,365.57,71.52
264902,2018-06-29 11:02:50.187500,416.38,71.52
264903,2018-06-29 11:02:50.218750,435.26,71.52
264904,2018-06-29 11:02:50.250000,411.09,71.52
264905,2018-06-29 11:02:50.281250,358.41,71.52
264906,2018-06-29 11:02:50.312500,297.97,71.52
264907,2018-06-29 11:02:50.343750,240.73,71.52
264908,2018-06-29 11:02:50.375000,187.95,71.52
264909,2018-06-29 11:02:50.406250,130.09,71.52
264910,2018-06-29 11:02:50.437500,56.39,71.52
264911,2018-06-29 11:02:50.468750,-22.19,71.52
264912,2018-06-29 11:02:50.500000,-78.14,71.52
264913,2018-06-29 11:02:50.531250,-101.55,71.68
264914,2018-06-29 11:02:50.562500,-110.48,71.68
264915,2018-06-29 11:02:50.593750,-127.08,71.68
264916,2018-06-29 11:02:50.625000,-154.58,71.68
264917,2018-06-29 11:02:50.656250,-171.07,71.68
264918,2018-06-29 11:02:50.687500,-146.34,71.68
264919,2018-06-29 11:02:50.718750,-76.6,71.68
264920,2018-06-29 11:02:50.750000,6.61,71.68
264921,2018-06-29 11:02:50.781250,72.41,71.68
264922,2018-06-29 11:02:50.812500,117.57,71.68
264923,2018-06-29 11:02:50.843750,150.99,71.68
264924,2018-06-29 11:02:50.875000,175.22,71.68
264925,2018-06-29 11:02:50.906250,190.53,71.68
264926,2018-06-29 11:02:50.937500,197.44,71.68
264927,2018-06-29 11:02:50.968750,191.28,71.68
264928,2018-06-29 11:02:51.000000,167.93,71.68
264929,2018-06-29 11:02:51.031250,135.19,71.68
264930,2018-06-29 11:02:51.062500,110.14,71.68
264931,2018-06-29 11:02:51.093750,104.21,71.68
264932,2018-06-29 11:02:51.125000,111.64,71.68
264933,2018-06-29 11:02:51.156250,107.71,71.68
264934,2018-06-29 11:02:51.187500,64.18,71.68
264935,2018-06-29 11:02:51.218750,-23.07,71.68
264936,2018-06-29 11:02:51.250000,-126.93,71.68
264937,2018-06-29 11:02:51.281250,-214.43,71.68
264938,2018-06-29 11:02:51.312500,-267.58,71.68
264939,2018-06-29 11:02:51.343750,-280.31,71.68
264940,2018-06-29 11:02:51.375000,-258.82,71.68
264941,2018-06-29 11:02:51.406250,-227.47,71.68
264942,2018-06-29 11:02:51.437500,-212.09,71.68
264943,2018-06-29 11:02:51.468750,-213.28,71.68
264944,2018-06-29 11:02:51.500000,-206.08,71.68
264945,2018-06-29 11:02:51.531250,-166.76,71.88
264946,2018-06-29 11:02:51.562500,-96.4,71.88
264947,2018-06-29 11:02:51.593750,-18.51,71.88
264948,2018-06-29 11:02:51.625000,43.63,71.88
264949,2018-06-29 11:02:51.656250,82.14,71.88
264950,2018-06-29 11:02:51.687500,100.12,71.88
264951,2018-06-29 11:02:51.718750,104.47,71.88
264952,2018-06-29 11:02:51.750000,104.94,71.88
264953,2018-06-29 11:02:51.781250,109.0,71.88
264954,2018-06-29 11:02:51.812500,115.75,71.88
264955,2018-06-29 11:02:51.843750,118.8,71.88
264956,2018-06-29 11:02:51.875000,115.28,71.88
264957,2018-06-29 11:02:51.906250,108.83,71.88
264958,2018-06-29 11:02:51.937500,101.71,71.88
264959,2018-06-29 11:02:51.968750,93.12,71.88
264960,2018-06-29 11:02:52.000000,80.87,71.88
264961,2018-06-29 11:02:52.031250,66.15,71.88
264962,2018-06-29 11:02:52.062500,51.3,71.88
264963,2018-06-29 11:02:52.093750,37.56,71.88
264964,2018-06-29 11:02:52.125000,23.59,71.88
264965,2018-06-29 11:02:52.156250,8.39,71.88
264966,2018-06-29 11:02:52.187500,-4.41,71.88
264967,2018-06-29 11:02:52.218750,-13.85,71.88
264968,2018-06-29 11:02:52.250000,-18.03,71.88
264969,2018-06-29 11:02:52.281250,-27.93,71.88
264970,2018-06-29 11:02:52.312500,-43.12,71.88
264971,2018-06-29 11:02:52.343750,-44.3,71.88
264972,2018-06-29 11:02:52.375000,-2.69,71.88
264973,2018-06-29 11:02:52.406250,75.42,71.88
264974,2018-06-29 11:02:52.437500,144.0,71.88
264975,2018-06-29 11:02:52.468750,183.62,71.88
264976,2018-06-29 11:02:52.500000,206.06,71.88
264977,2018-06-29 11:02:52.531250,246.87,71.95
264978,2018-06-29 11:02:52.562500,288.23,71.95
264979,2018-06-29 11:02:52.593750,315.16,71.95
264980,2018-06-29 11:02:52.625000,338.25,71.95
264981,2018-06-29 11:02:52.656250,392.34,71.95
264982,2018-06-29 11:02:52.687500,476.99,71.95
264983,2018-06-29 11:02:52.718750,538.98,71.95
264984,2018-06-29 11:02:52.750000,565.93,71.95
264985,2018-06-29 11:02:52.781250,390.53,71.95
264986,2018-06-29 11:02:52.812500,20.4,71.95
264987,2018-06-29 11:02:52.843750,-260.93,71.95
264988,2018-06-29 11:02:52.875000,-400.4,71.95
264989,2018-06-29 11:02:52.906250,-464.15,71.95
264990,2018-06-29 11:02:52.937500,-473.28,71.95
264991,2018-06-29 11:02:52.968750,-442.63,71.95
264992,2018-06-29 11:02:53.000000,-419.13,71.95
264993,2018-06-29 11:02:53.031250,-407.56,71.95
264994,2018-06-29 11:02:53.062500,-392.9,71.95
264995,2018-06-29 11:02:53.093750,-346.66,71.95
264996,2018-06-29 11:02:53.125000,-296.5,71.95
