,Time,ppg,hr
268800,2018-06-29 11:04:52.000000,35.26,70.82
268801,2018-06-29 11:04:52.031250,49.09,70.82
268802,2018-06-29 11:04:52.062500,52.04,70.82
268803,2018-06-29 11:04:52.093750,47.57,70.82
268804,2018-06-29 11:04:52.125000,40.99,70.82
268805,2018-06-29 11:04:52.156250,38.0,70.82
268806,2018-06-29 11:04:52.187500,39.46,70.82
268807,2018-06-29 11:04:52.218750,41.81,70.82
268808,2018-06-29 11:04:52.250000,42.65,70.82
268809,2018-06-29 11:04:52.281250,42.28,70.82
268810,2018-06-29 11:04:52.312500,40.45,70.82
268811,2018-06-29 11:04:52.343750,35.3,70.82
268812,2018-06-29 11:04:52.375000,26.19,70.82
268813,2018-06-29 11:04:52.406250,15.25,70.82
268814,2018-06-29 11:04:52.437500,5.39,70.82
268815,2018-06-29 11:04:52.468750,-2.61,70.82
268816,2018-06-29 11:04:52.500000,-11.05,70.82
268817,2018-06-29 11:04:52.531250,-22.17,70.83
268818,2018-06-29 11:04:52.562500,-34.41,70.83
268819,2018-06-29 11:04:52.593750,-44.35,70.83
268820,2018-06-29 11:04:52.625000,-51.48,70.83
268821,2018-06-29 11:04:52.656250,-58.88,70.83
268822,2018-06-29 11:04:52.687500,-70.27,70.83
268823,2018-06-29 11:04:52.718750,-86.09,70.83
268824,2018-06-29 11:04:52.750000,-97.37,70.83
268825,2018-06-29 11:04:52.781250,-88.2,70.83
268826,2018-06-29 11:04:52.812500,-53.3,70.83
268827,2018-06-29 11:04:52.843750,-7.71,70.83
268828,2018-06-29 11:04:52.875000,28.98,70.83
268829,2018-06-29 11:04:52.906250,50.1,70.83
268830,2018-06-29 11:04:52.937500,58.2,70.83
268831,2018-06-29 11:04:52.968750,56.02,70.83
268832,2018-06-29 11:04:53.000000,48.3,70.83
268833,2018-06-29 11:04:53.031250,42.77,70.83
268834,2018-06-29 11:04:53.062500,43.45,70.83
268835,2018-06-29 11:04:53.093750,47.33,70.83
268836,2018-06-29 11:04:53.125000,50.38,70.83
268837,2018-06-29 11:04:53.156250,52.33,70.83
268838,2018-06-29 11:04:53.187500,53.41,70.83
268839,2018-06-29 11:04:53.218750,50.62,70.83
268840,2018-06-29 11:04:53.250000,41.19,70.83
268841,2018-06-29 11:04:53.281250,27.28,70.83
268842,2018-06-29 11:04:53.312500,13.67,70.83
268843,2018-06-29 11:04:53.343750,1.79,70.83
268844,2018-06-29 11:04:53.375000,-10.95,70.83
268845,2018-06-29 11:04:53.406250,-26.32,70.83
268846,2018-06-29 11:04:53.437500,-42.35,70.83
268847,2018-06-29 11:04:53.468750,-56.34,70.83
268848,2018-06-29 11:04:53.500000,-68.62,70.83
268849,2018-06-29 11:04:53.531250,-82.49,70.87
268850,2018-06-29 11:04:53.562500,-101.29,70.87
268851,2018-06-29 11:04:53.593750,-121.88,70.87
268852,2018-06-29 11:04:53.625000,-129.62,70.87
268853,2018-06-29 11:04:53.656250,-109.37,70.87
268854,2018-06-29 11:04:53.687500,-64.86,70.87
268855,2018-06-29 11:04:53.718750,-17.58,70.87
268856,2018-06-29 11:04:53.750000,15.37,70.87
268857,2018-06-29 11:04:53.781250,31.72,70.87
268858,2018-06-29 11:04:53.812500,35.41,70.87
268859,2018-06-29 11:04:53.843750,30.51,70.87
268860,2018-06-29 11:04:53.875000,23.43,70.87
268861,2018-06-29 11:04:53.906250,20.65,70.87
268862,2018-06-29 11:04:53.937500,22.91,70.87
268863,2018-06-29 11:04:53.968750,26.05,70.87
268864,2018-06-29 11:04:54.000000,27.04,70.87
268865,2018-06-29 11:04:54.031250,25.99,70.87
268866,2018-06-29 11:04:54.062500,22.83,70.87
268867,2018-06-29 11:04:54.093750,15.03,70.87
268868,2018-06-29 11:04:54.125000,0.36,70.87
268869,2018-06-29 11:04:54.156250,-18.54,70.87
268870,2018-06-29 11:04:54.187500,-36.21,70.87
268871,2018-06-29 11:04:54.218750,-51.45,70.87
268872,2018-06-29 11:04:54.250000,-66.77,70.87
268873,2018-06-29 11:04:54.281250,-80.79,70.87
268874,2018-06-29 11:04:54.312500,-87.97,70.87
268875,2018-06-29 11:04:54.343750,-85.97,70.87
268876,2018-06-29 11:04:54.375000,-78.35,70.87
268877,2018-06-29 11:04:54.406250,-71.53,70.87
268878,2018-06-29 11:04:54.437500,-70.34,70.87
268879,2018-06-29 11:04:54.468750,-70.29,70.87
268880,2018-06-29 11:04:54.500000,-55.6,70.87
268881,2018-06-29 11:04:54.531250,-15.49,70.92
268882,2018-06-29 11:04:54.562500,39.81,70.92
268883,2018-06-29 11:04:54.593750,90.12,70.92
268884,2018-06-29 11:04:54.625000,127.11,70.92
268885,2018-06-29 11:04:54.656250,152.92,70.92
268886,2018-06-29 11:04:54.687500,166.22,70.92
268887,2018-06-29 11:04:54.718750,164.75,70.92
268888,2018-06-29 11:04:54.750000,154.83,70.92
268889,2018-06-29 11:04:54.781250,144.96,70.92
268890,2018-06-29 11:04:54.812500,134.84,70.92
268891,2018-06-29 11:04:54.843750,119.63,70.92
268892,2018-06-29 11:04:54.875000,99.49,70.92
268893,2018-06-29 11:04:54.906250,77.11,70.92
268894,2018-06-29 11:04:54.937500,51.9,70.92
268895,2018-06-29 11:04:54.968750,23.79,70.92
268896,2018-06-29 11:04:55.000000,-2.78,70.92
268897,2018-06-29 11:04:55.031250,-24.38,70.92
268898,2018-06-29 11:04:55.062500,-42.98,70.92
268899,2018-06-29 11:04:55.093750,-61.25,70.92
268900,2018-06-29 11:04:55.125000,-77.36,70.92
268901,2018-06-29 11:04:55.156250,-87.3,70.92
268902,2018-06-29 11:04:55.187500,-90.66,70.92
268903,2018-06-29 11:04:55.218750,-93.13,70.92
268904,2018-06-29 11:04:55.250000,-102.31,70.92
268905,2018-06-29 11:04:55.281250,-117.54,70.92
268906,2018-06-29 11:04:55.312500,-123.68,70.92
268907,2018-06-29 11:04:55.343750,-103.0,70.92
268908,2018-06-29 11:04:55.375000,-56.18,70.92
268909,2018-06-29 11:04:55.406250,-3.47,70.92
268910,2018-06-29 11:04:55.437500,36.14,70.92
268911,2018-06-29 11:04:55.468750,57.51,70.92
268912,2018-06-29 11:04:55.500000,62.59,70.92
268913,2018-06-29 11:04:55.531250,54.53,70.95
268914,2018-06-29 11:04:55.562500,40.58,70.95
268915,2018-06-29 11:04:55.593750,30.77,70.95
268916,2018-06-29 11:04:55.625000,30.15,70.95
268917,2018-06-29 11:04:55.656250,35.2,70.95
268918,2018-06-29 11:04:55.687500,39.23,70.95
268919,2018-06-29 11:04:55.718750,39.11,70.95
268920,2018-06-29 11:04:55.750000,35.66,70.95
268921,2018-06-29 11:04:55.781250,28.94,70.95
268922,2018-06-29 11:04:55.812500,16.77,70.95
268923,2018-06-29 11:04:55.843750,-0.4,70.95
268924,2018-06-29 11:04:55.875000,-16.9,70.95
268925,2018-06-29 11:04:55.906250,-28.14,70.95
268926,2018-06-29 11:04:55.937500,-36.44,70.95
268927,2018-06-29 11:04:55.968750,-47.42,70.95
268928,2018-06-29 11:04:56.000000,-63.85,70.95
268929,2018-06-29 11:04:56.031250,-81.77,70.95
268930,2018-06-29 11:04:56.062500,-87.91,70.95
268931,2018-06-29 11:04:56.093750,-67.5,70.95
268932,2018-06-29 11:04:56.125000,-22.16,70.95
268933,2018-06-29 11:04:56.156250,27.83,70.95
268934,2018-06-29 11:04:56.187500,63.53,70.95
268935,2018-06-29 11:04:56.218750,80.82,70.95
268936,2018-06-29 11:04:56.250000,83.13,70.95
268937,2018-06-29 11:04:56.281250,73.94,70.95
268938,2018-06-29 11:04:56.312500,59.48,70.95
268939,2018-06-29 11:04:56.343750,49.23,70.95
268940,2018-06-29 11:04:56.375000,47.78,70.95
268941,2018-06-29 11:04:56.406250,50.3,70.95
268942,2018-06-29 11:04:56.437500,49.83,70.95
268943,2018-06-29 11:04:56.468750,45.42,70.95
268944,2018-06-29 11:04:56.500000,38.79,70.95
268945,2018-06-29 11:04:56.531250,27.62,71.0
268946,2018-06-29 11:04:56.562500,9.17,71.0
268947,2018-06-29 11:04:56.593750,-13.03,71.0
268948,2018-06-29 11:04:56.625000,-32.54,71.0
268949,2018-06-29 11:04:56.656250,-47.29,71.0
268950,2018-06-29 11:04:56.687500,-60.13,71.0
268951,2018-06-29 11:04:56.718750,-75.13,71.0
268952,2018-06-29 11:04:56.750000,-93.57,71.0
268953,2018-06-29 11:04:56.781250,-107.42,71.0
268954,2018-06-29 11:04:56.812500,-99.94,71.0
268955,2018-06-29 11:04:56.843750,-62.28,71.0
268956,2018-06-29 11:04:56.875000,-6.91,71.0
268957,2018-06-29 11:04:56.906250,43.03,71.0
268958,2018-06-29 11:04:56.937500,74.39,71.0
268959,2018-06-29 11:04:56.968750,88.37,71.0
268960,2018-06-29 11:04:57.000000,90.55,71.0
268961,2018-06-29 11:04:57.031250,85.29,71.0
268962,2018-06-29 11:04:57.062500,77.07,71.0
268963,2018-06-29 11:04:57.093750,70.26,71.0
268964,2018-06-29 11:04:57.125000,66.14,71.0
268965,2018-06-29 11:04:57.156250,62.95,71.0
268966,2018-06-29 11:04:57.187500,58.65,71.0
268967,2018-06-29 11:04:57.218750,52.42,71.0
268968,2018-06-29 11:04:57.250000,43.76,71.0
268969,2018-06-29 11:04:57.281250,31.68,71.0
268970,2018-06-29 11:04:57.312500,15.23,71.0
268971,2018-06-29 11:04:57.343750,-4.42,71.0
268972,2018-06-29 11:04:57.375000,-23.09,71.0
268973,2018-06-29 11:04:57.406250,-37.32,71.0
268974,2018-06-29 11:04:57.437500,-48.46,71.0
268975,2018-06-29 11:04:57.468750,-60.59,71.0
268976,2018-06-29 11:04:57.500000,-76.29,71.0
268977,2018-06-29 11:04:57.531250,-93.16,71.07
268978,2018-06-29 11:04:57.562500,-99.86,71.07
268979,2018-06-29 11:04:57.593750,-81.44,71.07
268980,2018-06-29 11:04:57.625000,-37.07,71.07
268981,2018-06-29 11:04:57.656250,14.37,71.07
268982,2018-06-29 11:04:57.687500,53.58,71.07
268983,2018-06-29 11:04:57.718750,75.88,71.07
268984,2018-06-29 11:04:57.750000,83.6,71.07
268985,2018-06-29 11:04:57.781250,78.49,71.07
268986,2018-06-29 11:04:57.812500,66.51,71.07
268987,2018-06-29 11:04:57.843750,57.61,71.07
268988,2018-06-29 11:04:57.875000,55.59,71.07
268989,2018-06-29 11:04:57.906250,55.96,71.07
268990,2018-06-29 11:04:57.937500,54.93,71.07
268991,2018-06-29 11:04:57.968750,53.22,71.07
268992,2018-06-29 11:04:58.000000,50.43,71.07
268993,2018-06-29 11:04:58.031250,43.25,71.07
268994,2018-06-29 11:04:58.062500,31.02,71.07
268995,2018-06-29 11:04:58.093750,18.06,71.07
268996,2018-06-29 11:04:58.125000,8.03,71.07
268997,2018-06-29 11:04:58.156250,-0.87,71.07
268998,2018-06-29 11:04:58.187500,-12.38,71.07
268999,2018-06-29 11:04:58.218750,-25.79,71.07
269000,2018-06-29 11:04:58.250000,-37.05,71.07
269001,2018-06-29 11:04:58.281250,-44.86,71.07
269002,2018-06-29 11:04:58.312500,-53.08,71.07
269003,2018-06-29 11:04:58.343750,-66.6,71.07
269004,2018-06-29 11:04:58.375000,-83.94,71.07
269005,2018-06-29 11:04:58.406250,-92.62,71.07
269006,2018-06-29 11:04:58.437500,-78.19,71.07
269007,2018-06-29 11:04:58.468750,-41.25,71.07
269008,2018-06-29 11:04:58.500000,1.02,71.07
269009,2018-06-29 11:04:58.531250,32.38,71.15
269010,2018-06-29 11:04:58.562500,49.45,71.15
269011,2018-06-29 11:04:58.593750,56.03,71.15
269012,2018-06-29 11:04:58.625000,55.23,71.15
269013,2018-06-29 11:04:58.656250,50.17,71.15
269014,2018-06-29 11:04:58.687500,45.73,71.15
269015,2018-06-29 11:04:58.718750,45.05,71.15
269016,2018-06-29 11:04:58.750000,46.54,71.15
269017,2018-06-29 11:04:58.781250,46.89,71.15
269018,2018-06-29 11:04:58.812500,44.58,71.15
269019,2018-06-29 11:04:58.843750,39.18,71.15
269020,2018-06-29 11:04:58.875000,30.97,71.15
269021,2018-06-29 11:04:58.906250,21.63,71.15
269022,2018-06-29 11:04:58.937500,12.86,71.15
269023,2018-06-29 11:04:58.968750,4.68,71.15
269024,2018-06-29 11:04:59.000000,-3.53,71.15
269025,2018-06-29 11:04:59.031250,-11.46,71.15
269026,2018-06-29 11:04:59.062500,-18.38,71.15
269027,2018-06-29 11:04:59.093750,-24.72,71.15
269028,2018-06-29 11:04:59.125000,-31.51,71.15
269029,2018-06-29 11:04:59.156250,-38.35,71.15
269030,2018-06-29 11:04:59.187500,-43.91,71.15
269031,2018-06-29 11:04:59.218750,-48.51,71.15
269032,2018-06-29 11:04:59.250000,-54.56,71.15
269033,2018-06-29 11:04:59.281250,-63.88,71.15
269034,2018-06-29 11:04:59.312500,-73.27,71.15
269035,2018-06-29 11:04:59.343750,-72.35,71.15
269036,2018-06-29 11:04:59.375000,-52.36,71.15
269037,2018-06-29 11:04:59.406250,-18.66,71.15
269038,2018-06-29 11:04:59.437500,12.89,71.15
269039,2018-06-29 11:04:59.468750,32.12,71.15
269040,2018-06-29 11:04:59.500000,39.86,71.15
269041,2018-06-29 11:04:59.531250,40.28,71.25
269042,2018-06-29 11:04:59.562500,36.71,71.25
269043,2018-06-29 11:04:59.593750,33.02,71.25
269044,2018-06-29 11:04:59.625000,32.37,71.25
269045,2018-06-29 11:04:59.656250,34.2,71.25
269046,2018-06-29 11:04:59.687500,35.39,71.25
269047,2018-06-29 11:04:59.718750,34.33,71.25
269048,2018-06-29 11:04:59.750000,31.67,71.25
269049,2018-06-29 11:04:59.781250,27.77,71.25
269050,2018-06-29 11:04:59.812500,21.52,71.25
269051,2018-06-29 11:04:59.843750,12.58,71.25
269052,2018-06-29 11:04:59.875000,2.87,71.25
269053,2018-06-29 11:04:59.906250,-5.6,71.25
269054,2018-06-29 11:04:59.937500,-13.29,71.25
269055,2018-06-29 11:04:59.968750,-21.59,71.25
269056,2018-06-29 11:05:00.000000,-30.05,71.25
269057,2018-06-29 11:05:00.031250,-37.09,71.25
269058,2018-06-29 11:05:00.062500,-42.3,71.25
269059,2018-06-29 11:05:00.093750,-47.09,71.25
269060,2018-06-29 11:05:00.125000,-54.07,71.25
269061,2018-06-29 11:05:00.156250,-64.97,71.25
269062,2018-06-29 11:05:00.187500,-75.36,71.25
269063,2018-06-29 11:05:00.218750,-74.5,71.25
269064,2018-06-29 11:05:00.250000,-56.35,71.25
269065,2018-06-29 11:05:00.281250,-27.95,71.25
269066,2018-06-29 11:05:00.312500,-2.05,71.25
269067,2018-06-29 11:05:00.343750,15.1,71.25
269068,2018-06-29 11:05:00.375000,24.43,71.25
269069,2018-06-29 11:05:00.406250,27.88,71.25
269070,2018-06-29 11:05:00.437500,26.79,71.25
269071,2018-06-29 11:05:00.468750,23.79,71.25
269072,2018-06-29 11:05:00.500000,22.45,71.25
269073,2018-06-29 11:05:00.531250,24.05,71.33
269074,2018-06-29 11:05:00.562500,26.58,71.33
269075,2018-06-29 11:05:00.593750,27.65,71.33
269076,2018-06-29 11:05:00.625000,27.03,71.33
269077,2018-06-29 11:05:00.656250,25.05,71.33
269078,2018-06-29 11:05:00.687500,20.92,71.33
269079,2018-06-29 11:05:00.718750,14.38,71.33
269080,2018-06-29 11:05:00.750000,6.98,71.33
269081,2018-06-29 11:05:00.781250,0.48,71.33
269082,2018-06-29 11:05:00.812500,-4.97,71.33
269083,2018-06-29 11:05:00.843750,-10.02,71.33
269084,2018-06-29 11:05:00.875000,-15.36,71.33
269085,2018-06-29 11:05:00.906250,-21.58,71.33
269086,2018-06-29 11:05:00.937500,-28.42,71.33
269087,2018-06-29 11:05:00.968750,-34.74,71.33
269088,2018-06-29 11:05:01.000000,-40.37,71.33
269089,2018-06-29 11:05:01.031250,-46.99,71.33
269090,2018-06-29 11:05:01.062500,-56.39,71.33
269091,2018-06-29 11:05:01.093750,-65.67,71.33
269092,2018-06-29 11:05:01.125000,-65.74,71.33
269093,2018-06-29 11:05:01.156250,-49.81,71.33
269094,2018-06-29 11:05:01.187500,-23.37,71.33
269095,2018-06-29 11:05:01.218750,0.87,71.33
269096,2018-06-29 11:05:01.250000,15.85,71.33
269097,2018-06-29 11:05:01.281250,22.33,71.33
269098,2018-06-29 11:05:01.312500,22.85,71.33
269099,2018-06-29 11:05:01.343750,20.09,71.33
269100,2018-06-29 11:05:01.375000,17.78,71.33
269101,2018-06-29 11:05:01.406250,18.39,71.33
269102,2018-06-29 11:05:01.437500,20.99,71.33
269103,2018-06-29 11:05:01.468750,23.08,71.33
269104,2018-06-29 11:05:01.500000,23.67,71.33
269105,2018-06-29 11:05:01.531250,23.49,71.42
269106,2018-06-29 11:05:01.562500,22.71,71.42
269107,2018-06-29 11:05:01.593750,20.21,71.42
269108,2018-06-29 11:05:01.625000,15.28,71.42
269109,2018-06-29 11:05:01.656250,8.98,71.42
269110,2018-06-29 11:05:01.687500,3.24,71.42
269111,2018-06-29 11:05:01.718750,-1.3,71.42
269112,2018-06-29 11:05:01.750000,-6.27,71.42
269113,2018-06-29 11:05:01.781250,-13.73,71.42
269114,2018-06-29 11:05:01.812500,-22.74,71.42
269115,2018-06-29 11:05:01.843750,-30.04,71.42
269116,2018-06-29 11:05:01.875000,-34.9,71.42
269117,2018-06-29 11:05:01.906250,-39.91,71.42
269118,2018-06-29 11:05:01.937500,-47.07,71.42
269119,2018-06-29 11:05:01.968750,-55.82,71.42
269120,2018-06-29 11:05:02.000000,-61.69,71.42
269121,2018-06-29 11:05:02.031250,-56.65,71.42
269122,2018-06-29 11:05:02.062500,-37.11,71.42
269123,2018-06-29 11:05:02.093750,-11.4,71.42
269124,2018-06-29 11:05:02.125000,7.87,71.42
269125,2018-06-29 11:05:02.156250,16.44,71.42
269126,2018-06-29 11:05:02.187500,17.78,71.42
269127,2018-06-29 11:05:02.218750,15.36,71.42
269128,2018-06-29 11:05:02.250000,11.38,71.42
269129,2018-06-29 11:05:02.281250,8.63,71.42
269130,2018-06-29 11:05:02.312500,8.58,71.42
269131,2018-06-29 11:05:02.343750,9.91,71.42
269132,2018-06-29 11:05:02.375000,11.16,71.42
269133,2018-06-29 11:05:02.406250,12.44,71.42
269134,2018-06-29 11:05:02.437500,13.22,71.42
269135,2018-06-29 11:05:02.468750,11.41,71.42
269136,2018-06-29 11:05:02.500000,6.46,71.42
269137,2018-06-29 11:05:02.531250,0.88,71.48
269138,2018-06-29 11:05:02.562500,-3.36,71.48
269139,2018-06-29 11:05:02.593750,-7.83,71.48
269140,2018-06-29 11:05:02.625000,-14.57,71.48
269141,2018-06-29 11:05:02.656250,-22.3,71.48
269142,2018-06-29 11:05:02.687500,-28.46,71.48
269143,2018-06-29 11:05:02.718750,-33.03,71.48
269144,2018-06-29 11:05:02.750000,-38.21,71.48
269145,2018-06-29 11:05:02.781250,-46.22,71.48
269146,2018-06-29 11:05:02.812500,-56.72,71.48
269147,2018-06-29 11:05:02.843750,-63.2,71.48
269148,2018-06-29 11:05:02.875000,-56.08,71.48
269149,2018-06-29 11:05:02.906250,-33.91,71.48
269150,2018-06-29 11:05:02.937500,-6.85,71.48
269151,2018-06-29 11:05:02.968750,14.11,71.48
269152,2018-06-29 11:05:03.000000,25.8,71.48
269153,2018-06-29 11:05:03.031250,30.03,71.48
269154,2018-06-29 11:05:03.062500,28.89,71.48
269155,2018-06-29 11:05:03.093750,25.07,71.48
269156,2018-06-29 11:05:03.125000,22.25,71.48
269157,2018-06-29 11:05:03.156250,22.19,71.48
269158,2018-06-29 11:05:03.187500,23.47,71.48
269159,2018-06-29 11:05:03.218750,24.72,71.48
269160,2018-06-29 11:05:03.250000,25.7,71.48
269161,2018-06-29 11:05:03.281250,24.59,71.48
269162,2018-06-29 11:05:03.312500,19.13,71.48
269163,2018-06-29 11:05:03.343750,10.2,71.48
269164,2018-06-29 11:05:03.375000,0.47,71.48
269165,2018-06-29 11:05:03.406250,-9.12,71.48
269166,2018-06-29 11:05:03.437500,-19.54,71.48
269167,2018-06-29 11:05:03.468750,-30.95,71.48
269168,2018-06-29 11:05:03.500000,-41.65,71.48
269169,2018-06-29 11:05:03.531250,-50.62,71.55
269170,2018-06-29 11:05:03.562500,-60.12,71.55
269171,2018-06-29 11:05:03.593750,-73.2,71.55
269172,2018-06-29 11:05:03.625000,-86.38,71.55
269173,2018-06-29 11:05:03.656250,-88.24,71.55
269174,2018-06-29 11:05:03.687500,-69.76,71.55
269175,2018-06-29 11:05:03.718750,-35.54,71.55
269176,2018-06-29 11:05:03.750000,-0.18,71.55
269177,2018-06-29 11:05:03.781250,25.45,71.55
269178,2018-06-29 11:05:03.812500,39.75,71.55
269179,2018-06-29 11:05:03.843750,45.4,71.55
269180,2018-06-29 11:05:03.875000,45.32,71.55
269181,2018-06-29 11:05:03.906250,43.06,71.55
269182,2018-06-29 11:05:03.937500,41.84,71.55
269183,2018-06-29 11:05:03.968750,42.53,71.55
269184,2018-06-29 11:05:04.000000,44.06,71.55
269185,2018-06-29 11:05:04.031250,45.73,71.55
269186,2018-06-29 11:05:04.062500,46.84,71.55
269187,2018-06-29 11:05:04.093750,44.53,71.55
269188,2018-06-29 11:05:04.125000,36.39,71.55
269189,2018-06-29 11:05:04.156250,24.35,71.55
269190,2018-06-29 11:05:04.187500,12.29,71.55
269191,2018-06-29 11:05:04.218750,0.81,71.55
269192,2018-06-29 11:05:04.250000,-12.02,71.55
269193,2018-06-29 11:05:04.281250,-25.77,71.55
269194,2018-06-29 11:05:04.312500,-37.65,71.55
269195,2018-06-29 11:05:04.343750,-47.27,71.55
269196,2018-06-29 11:05:04.375000,-58.39,71.55
269197,2018-06-29 11:05:04.406250,-74.27,71.55
269198,2018-06-29 11:05:04.437500,-89.88,71.55
269199,2018-06-29 11:05:04.468750,-90.82,71.55
269200,2018-06-29 11:05:04.500000,-66.36,71.55
269201,2018-06-29 11:05:04.531250,-23.41,71.6
269202,2018-06-29 11:05:04.562500,19.06,71.6
269203,2018-06-29 11:05:04.593750,48.35,71.6
269204,2018-06-29 11:05:04.625000,63.57,71.6
269205,2018-06-29 11:05:04.656250,67.66,71.6
269206,2018-06-29 11:05:04.687500,63.83,71.6
269207,2018-06-29 11:05:04.718750,57.85,71.6
269208,2018-06-29 11:05:04.750000,55.4,71.6
269209,2018-06-29 11:05:04.781250,56.66,71.6
269210,2018-06-29 11:05:04.812500,58.19,71.6
269211,2018-06-29 11:05:04.843750,58.84,71.6
269212,2018-06-29 11:05:04.875000,58.87,71.6
269213,2018-06-29 11:05:04.906250,55.4,71.6
269214,2018-06-29 11:05:04.937500,45.42,71.6
269215,2018-06-29 11:05:04.968750,31.6,71.6
269216,2018-06-29 11:05:05.000000,18.78,71.6
269217,2018-06-29 11:05:05.031250,6.87,71.6
269218,2018-06-29 11:05:05.062500,-7.25,71.6
269219,2018-06-29 11:05:05.093750,-23.19,71.6
269220,2018-06-29 11:05:05.125000,-37.52,71.6
269221,2018-06-29 11:05:05.156250,-48.53,71.6
269222,2018-06-29 11:05:05.187500,-58.02,71.6
269223,2018-06-29 11:05:05.218750,-69.9,71.6
269224,2018-06-29 11:05:05.250000,-84.55,71.6
269225,2018-06-29 11:05:05.281250,-91.56,71.6
269226,2018-06-29 11:05:05.312500,-75.62,71.6
269227,2018-06-29 11:05:05.343750,-35.2,71.6
269228,2018-06-29 11:05:05.375000,12.07,71.6
269229,2018-06-29 11:05:05.406250,47.19,71.6
269230,2018-06-29 11:05:05.437500,64.52,71.6
269231,2018-06-29 11:05:05.468750,67.24,71.6
269232,2018-06-29 11:05:05.500000,59.85,71.6
269233,2018-06-29 11:05:05.531250,49.08,71.63
269234,2018-06-29 11:05:05.562500,42.74,71.63
269235,2018-06-29 11:05:05.593750,43.3,71.63
269236,2018-06-29 11:05:05.625000,46.83,71.63
269237,2018-06-29 11:05:05.656250,48.47,71.63
269238,2018-06-29 11:05:05.687500,45.99,71.63
269239,2018-06-29 11:05:05.718750,39.27,71.63
269240,2018-06-29 11:05:05.750000,29.39,71.63
269241,2018-06-29 11:05:05.781250,17.21,71.63
269242,2018-06-29 11:05:05.812500,2.65,71.63
269243,2018-06-29 11:05:05.843750,-13.16,71.63
269244,2018-06-29 11:05:05.875000,-27.06,71.63
269245,2018-06-29 11:05:05.906250,-37.2,71.63
269246,2018-06-29 11:05:05.937500,-45.56,71.63
269247,2018-06-29 11:05:05.968750,-56.13,71.63
269248,2018-06-29 11:05:06.000000,-70.6,71.63
269249,2018-06-29 11:05:06.031250,-82.69,71.63
269250,2018-06-29 11:05:06.062500,-78.18,71.63
269251,2018-06-29 11:05:06.093750,-48.73,71.63
269252,2018-06-29 11:05:06.125000,-4.3,71.63
269253,2018-06-29 11:05:06.156250,35.63,71.63
269254,2018-06-29 11:05:06.187500,60.06,71.63
269255,2018-06-29 11:05:06.218750,69.2,71.63
269256,2018-06-29 11:05:06.250000,66.15,71.63
269257,2018-06-29 11:05:06.281250,55.07,71.63
269258,2018-06-29 11:05:06.312500,43.55,71.63
269259,2018-06-29 11:05:06.343750,38.31,71.63
269260,2018-06-29 11:05:06.375000,38.81,71.63
269261,2018-06-29 11:05:06.406250,39.47,71.63
269262,2018-06-29 11:05:06.437500,36.78,71.63
269263,2018-06-29 11:05:06.468750,31.15,71.63
269264,2018-06-29 11:05:06.500000,23.55,71.63
269265,2018-06-29 11:05:06.531250,13.06,71.72
269266,2018-06-29 11:05:06.562500,-1.55,71.72
269267,2018-06-29 11:05:06.593750,-18.77,71.72
269268,2018-06-29 11:05:06.625000,-34.78,71.72
269269,2018-06-29 11:05:06.656250,-47.53,71.72
269270,2018-06-29 11:05:06.687500,-58.42,71.72
269271,2018-06-29 11:05:06.718750,-70.43,71.72
269272,2018-06-29 11:05:06.750000,-85.73,71.72
269273,2018-06-29 11:05:06.781250,-100.05,71.72
269274,2018-06-29 11:05:06.812500,-98.89,71.72
269275,2018-06-29 11:05:06.843750,-70.16,71.72
269276,2018-06-29 11:05:06.875000,-21.55,71.72
269277,2018-06-29 11:05:06.906250,25.22,71.72
269278,2018-06-29 11:05:06.937500,55.84,71.72
269279,2018-06-29 11:05:06.968750,69.68,71.72
269280,2018-06-29 11:05:07.000000,70.89,71.72
269281,2018-06-29 11:05:07.031250,64.26,71.72
269282,2018-06-29 11:05:07.062500,56.11,71.72
269283,2018-06-29 11:05:07.093750,51.37,71.72
269284,2018-06-29 11:05:07.125000,50.3,71.72
269285,2018-06-29 11:05:07.156250,49.97,71.72
269286,2018-06-29 11:05:07.187500,47.95,71.72
269287,2018-06-29 11:05:07.218750,43.68,71.72
269288,2018-06-29 11:05:07.250000,37.16,71.72
269289,2018-06-29 11:05:07.281250,27.41,71.72
269290,2018-06-29 11:05:07.312500,13.11,71.72
269291,2018-06-29 11:05:07.343750,-4.79,71.72
269292,2018-06-29 11:05:07.375000,-22.34,71.72
269293,2018-06-29 11:05:07.406250,-36.08,71.72
269294,2018-06-29 11:05:07.437500,-46.52,71.72
269295,2018-06-29 11:05:07.468750,-57.24,71.72
269296,2018-06-29 11:05:07.500000,-71.51,71.72
269297,2018-06-29 11:05:07.531250,-87.0,71.82
269298,2018-06-29 11:05:07.562500,-91.93,71.82
269299,2018-06-29 11:05:07.593750,-73.03,71.82
269300,2018-06-29 11:05:07.625000,-31.82,71.82
269301,2018-06-29 11:05:07.656250,13.87,71.82
269302,2018-06-29 11:05:07.687500,47.3,71.82
269303,2018-06-29 11:05:07.718750,64.28,71.82
269304,2018-06-29 11:05:07.750000,68.46,71.82
269305,2018-06-29 11:05:07.781250,64.81,71.82
269306,2018-06-29 11:05:07.812500,58.68,71.82
269307,2018-06-29 11:05:07.843750,54.3,71.82
269308,2018-06-29 11:05:07.875000,52.59,71.82
269309,2018-06-29 11:05:07.906250,52.2,71.82
269310,2018-06-29 11:05:07.937500,51.93,71.82
269311,2018-06-29 11:05:07.968750,50.51,71.82
269312,2018-06-29 11:05:08.000000,45.64,71.82
269313,2018-06-29 11:05:08.031250,36.02,71.82
269314,2018-06-29 11:05:08.062500,23.61,71.82
269315,2018-06-29 11:05:08.093750,11.56,71.82
269316,2018-06-29 11:05:08.125000,0.12,71.82
269317,2018-06-29 11:05:08.156250,-12.64,71.82
269318,2018-06-29 11:05:08.187500,-26.47,71.82
269319,2018-06-29 11:05:08.218750,-38.1,71.82
269320,2018-06-29 11:05:08.250000,-46.14,71.82
269321,2018-06-29 11:05:08.281250,-54.46,71.82
269322,2018-06-29 11:05:08.312500,-67.99,71.82
269323,2018-06-29 11:05:08.343750,-83.51,71.82
269324,2018-06-29 11:05:08.375000,-86.69,71.82
269325,2018-06-29 11:05:08.406250,-65.15,71.82
269326,2018-06-29 11:05:08.437500,-24.31,71.82
269327,2018-06-29 11:05:08.468750,17.06,71.82
269328,2018-06-29 11:05:08.500000,44.96,71.82
269329,2018-06-29 11:05:08.531250,56.75,71.9
269330,2018-06-29 11:05:08.562500,55.36,71.9
269331,2018-06-29 11:05:08.593750,46.51,71.9
269332,2018-06-29 11:05:08.625000,37.29,71.9
269333,2018-06-29 11:05:08.656250,31.44,71.9
269334,2018-06-29 11:05:08.687500,27.69,71.9
269335,2018-06-29 11:05:08.718750,22.88,71.9
269336,2018-06-29 11:05:08.750000,15.17,71.9
269337,2018-06-29 11:05:08.781250,4.87,71.9
269338,2018-06-29 11:05:08.812500,-5.75,71.9
269339,2018-06-29 11:05:08.843750,-11.94,71.9
269340,2018-06-29 11:05:08.875000,-6.72,71.9
269341,2018-06-29 11:05:08.906250,14.97,71.9
269342,2018-06-29 11:05:08.937500,51.18,71.9
269343,2018-06-29 11:05:08.968750,93.1,71.9
269344,2018-06-29 11:05:09.000000,127.99,71.9
269345,2018-06-29 11:05:09.031250,144.89,71.9
269346,2018-06-29 11:05:09.062500,143.28,71.9
269347,2018-06-29 11:05:09.093750,131.9,71.9
269348,2018-06-29 11:05:09.125000,116.43,71.9
269349,2018-06-29 11:05:09.156250,99.59,71.9
269350,2018-06-29 11:05:09.187500,90.84,71.9
269351,2018-06-29 11:05:09.218750,98.08,71.9
269352,2018-06-29 11:05:09.250000,112.12,71.9
269353,2018-06-29 11:05:09.281250,116.02,71.9
269354,2018-06-29 11:05:09.312500,104.77,71.9
269355,2018-06-29 11:05:09.343750,84.24,71.9
269356,2018-06-29 11:05:09.375000,58.8,71.9
269357,2018-06-29 11:05:09.406250,30.39,71.9
269358,2018-06-29 11:05:09.437500,3.71,71.9
269359,2018-06-29 11:05:09.468750,-16.8,71.9
269360,2018-06-29 11:05:09.500000,-33.33,71.9
269361,2018-06-29 11:05:09.531250,-52.97,72.0
269362,2018-06-29 11:05:09.562500,-79.78,72.0
269363,2018-06-29 11:05:09.593750,-110.65,72.0
269364,2018-06-29 11:05:09.625000,-139.46,72.0
269365,2018-06-29 11:05:09.656250,-163.47,72.0
269366,2018-06-29 11:05:09.687500,-183.52,72.0
269367,2018-06-29 11:05:09.718750,-200.14,72.0
269368,2018-06-29 11:05:09.750000,-212.59,72.0
269369,2018-06-29 11:05:09.781250,-220.78,72.0
269370,2018-06-29 11:05:09.812500,-223.67,72.0
269371,2018-06-29 11:05:09.843750,-218.43,72.0
269372,2018-06-29 11:05:09.875000,-203.76,72.0
269373,2018-06-29 11:05:09.906250,-179.26,72.0
269374,2018-06-29 11:05:09.937500,-141.94,72.0
269375,2018-06-29 11:05:09.968750,-92.19,72.0
269376,2018-06-29 11:05:10.000000,-41.3,72.0
269377,2018-06-29 11:05:10.031250,-3.32,72.0
269378,2018-06-29 11:05:10.062500,18.3,72.0
269379,2018-06-29 11:05:10.093750,28.68,72.0
269380,2018-06-29 11:05:10.125000,31.28,72.0
269381,2018-06-29 11:05:10.156250,27.26,72.0
269382,2018-06-29 11:05:10.187500,21.06,72.0
269383,2018-06-29 11:05:10.218750,18.88,72.0
269384,2018-06-29 11:05:10.250000,22.84,72.0
269385,2018-06-29 11:05:10.281250,30.58,72.0
269386,2018-06-29 11:05:10.312500,38.81,72.0
269387,2018-06-29 11:05:10.343750,44.69,72.0
269388,2018-06-29 11:05:10.375000,46.77,72.0
269389,2018-06-29 11:05:10.406250,46.77,72.0
269390,2018-06-29 11:05:10.437500,47.12,72.0
269391,2018-06-29 11:05:10.468750,46.68,72.0
269392,2018-06-29 11:05:10.500000,42.78,72.0
269393,2018-06-29 11:05:10.531250,35.8,72.08
269394,2018-06-29 11:05:10.562500,28.63,72.08
269395,2018-06-29 11:05:10.593750,22.95,72.08
269396,2018-06-29 11:05:10.625000,17.06,72.08
269397,2018-06-29 11:05:10.656250,8.05,72.08
269398,2018-06-29 11:05:10.687500,-1.24,72.08
269399,2018-06-29 11:05:10.718750,0.66,72.08
269400,2018-06-29 11:05:10.750000,22.52,72.08
269401,2018-06-29 11:05:10.781250,58.47,72.08
269402,2018-06-29 11:05:10.812500,93.67,72.08
269403,2018-06-29 11:05:10.843750,118.55,72.08
269404,2018-06-29 11:05:10.875000,132.93,72.08
269405,2018-06-29 11:05:10.906250,140.76,72.08
269406,2018-06-29 11:05:10.937500,145.37,72.08
269407,2018-06-29 11:05:10.968750,147.95,72.08
269408,2018-06-29 11:05:11.000000,147.99,72.08
269409,2018-06-29 11:05:11.031250,144.62,72.08
269410,2018-06-29 11:05:11.062500,137.7,72.08
269411,2018-06-29 11:05:11.093750,127.9,72.08
269412,2018-06-29 11:05:11.125000,115.04,72.08
269413,2018-06-29 11:05:11.156250,96.74,72.08
269414,2018-06-29 11:05:11.187500,72.16,72.08
269415,2018-06-29 11:05:11.218750,44.85,72.08
269416,2018-06-29 11:05:11.250000,15.93,72.08
269417,2018-06-29 11:05:11.281250,-19.22,72.08
269418,2018-06-29 11:05:11.312500,-57.47,72.08
269419,2018-06-29 11:05:11.343750,-80.48,72.08
269420,2018-06-29 11:05:11.375000,-70.61,72.08
269421,2018-06-29 11:05:11.406250,-32.65,72.08
269422,2018-06-29 11:05:11.437500,1.85,72.08
269423,2018-06-29 11:05:11.468750,-0.36,72.08
269424,2018-06-29 11:05:11.500000,-39.97,72.08
269425,2018-06-29 11:05:11.531250,-89.76,72.15
269426,2018-06-29 11:05:11.562500,-136.11,72.15
269427,2018-06-29 11:05:11.593750,-193.09,72.15
269428,2018-06-29 11:05:11.625000,-264.09,72.15
269429,2018-06-29 11:05:11.656250,-312.98,72.15
269430,2018-06-29 11:05:11.687500,-301.45,72.15
269431,2018-06-29 11:05:11.718750,-241.35,72.15
269432,2018-06-29 11:05:11.750000,-178.74,72.15
269433,2018-06-29 11:05:11.781250,-137.45,72.15
269434,2018-06-29 11:05:11.812500,-112.57,72.15
269435,2018-06-29 11:05:11.843750,-98.4,72.15
269436,2018-06-29 11:05:11.875000,-88.94,72.15
269437,2018-06-29 11:05:11.906250,-72.54,72.15
269438,2018-06-29 11:05:11.937500,-48.8,72.15
269439,2018-06-29 11:05:11.968750,-31.73,72.15
269440,2018-06-29 11:05:12.000000,-28.98,72.15
269441,2018-06-29 11:05:12.031250,-32.09,72.15
269442,2018-06-29 11:05:12.062500,-31.5,72.15
269443,2018-06-29 11:05:12.093750,-29.62,72.15
269444,2018-06-29 11:05:12.125000,-33.8,72.15
269445,2018-06-29 11:05:12.156250,-43.16,72.15
269446,2018-06-29 11:05:12.187500,-50.22,72.15
269447,2018-06-29 11:05:12.218750,-52.09,72.15
269448,2018-06-29 11:05:12.250000,-52.37,72.15
269449,2018-06-29 11:05:12.281250,-54.27,72.15
269450,2018-06-29 11:05:12.312500,-58.02,72.15
269451,2018-06-29 11:05:12.343750,-63.96,72.15
269452,2018-06-29 11:05:12.375000,-73.89,72.15
269453,2018-06-29 11:05:12.406250,-87.19,72.15
269454,2018-06-29 11:05:12.437500,-92.85,72.15
269455,2018-06-29 11:05:12.468750,-72.48,72.15
269456,2018-06-29 11:05:12.500000,-21.97,72.15
269457,2018-06-29 11:05:12.531250,37.79,72.22
269458,2018-06-29 11:05:12.562500,82.06,72.22
269459,2018-06-29 11:05:12.593750,103.6,72.22
269460,2018-06-29 11:05:12.625000,106.73,72.22
269461,2018-06-29 11:05:12.656250,96.98,72.22
269462,2018-06-29 11:05:12.687500,83.6,72.22
269463,2018-06-29 11:05:12.718750,77.5,72.22
269464,2018-06-29 11:05:12.750000,80.53,72.22
269465,2018-06-29 11:05:12.781250,84.37,72.22
269466,2018-06-29 11:05:12.812500,82.48,72.22
269467,2018-06-29 11:05:12.843750,76.46,72.22
269468,2018-06-29 11:05:12.875000,70.14,72.22
269469,2018-06-29 11:05:12.906250,62.51,72.22
269470,2018-06-29 11:05:12.937500,49.95,72.22
269471,2018-06-29 11:05:12.968750,32.7,72.22
269472,2018-06-29 11:05:13.000000,15.82,72.22
269473,2018-06-29 11:05:13.031250,2.92,72.22
269474,2018-06-29 11:05:13.062500,-8.53,72.22
269475,2018-06-29 11:05:13.093750,-22.8,72.22
269476,2018-06-29 11:05:13.125000,-39.14,72.22
269477,2018-06-29 11:05:13.156250,-52.67,72.22
269478,2018-06-29 11:05:13.187500,-61.39,72.22
269479,2018-06-29 11:05:13.218750,-69.72,72.22
269480,2018-06-29 11:05:13.250000,-84.76,72.22
269481,2018-06-29 11:05:13.281250,-106.86,72.22
269482,2018-06-29 11:05:13.312500,-120.72,72.22
269483,2018-06-29 11:05:13.343750,-103.53,72.22
269484,2018-06-29 11:05:13.375000,-50.57,72.22
269485,2018-06-29 11:05:13.406250,15.4,72.22
269486,2018-06-29 11:05:13.437500,67.5,72.22
269487,2018-06-29 11:05:13.468750,97.19,72.22
269488,2018-06-29 11:05:13.500000,109.45,72.22
269489,2018-06-29 11:05:13.531250,110.28,72.28
269490,2018-06-29 11:05:13.562500,105.7,72.28
269491,2018-06-29 11:05:13.593750,102.45,72.28
269492,2018-06-29 11:05:13.625000,103.94,72.28
269493,2018-06-29 11:05:13.656250,107.79,72.28
269494,2018-06-29 11:05:13.687500,109.92,72.28
269495,2018-06-29 11:05:13.718750,109.57,72.28
269496,2018-06-29 11:05:13.750000,108.38,72.28
269497,2018-06-29 11:05:13.781250,105.6,72.28
269498,2018-06-29 11:05:13.812500,98.01,72.28
269499,2018-06-29 11:05:13.843750,85.43,72.28
269500,2018-06-29 11:05:13.875000,72.78,72.28
269501,2018-06-29 11:05:13.906250,64.32,72.28
269502,2018-06-29 11:05:13.937500,57.97,72.28
269503,2018-06-29 11:05:13.968750,48.96,72.28
269504,2018-06-29 11:05:14.000000,38.2,72.28
269505,2018-06-29 11:05:14.031250,32.66,72.28
269506,2018-06-29 11:05:14.062500,35.65,72.28
269507,2018-06-29 11:05:14.093750,40.55,72.28
269508,2018-06-29 11:05:14.125000,35.47,72.28
269509,2018-06-29 11:05:14.156250,11.2,72.28
269510,2018-06-29 11:05:14.187500,-31.09,72.28
269511,2018-06-29 11:05:14.218750,-72.05,72.28
269512,2018-06-29 11:05:14.250000,-82.26,72.28
269513,2018-06-29 11:05:14.281250,-49.61,72.28
269514,2018-06-29 11:05:14.312500,9.64,72.28
269515,2018-06-29 11:05:14.343750,70.79,72.28
269516,2018-06-29 11:05:14.375000,110.92,72.28
269517,2018-06-29 11:05:14.406250,103.7,72.28
269518,2018-06-29 11:05:14.437500,40.32,72.28
269519,2018-06-29 11:05:14.468750,-45.35,72.28
269520,2018-06-29 11:05:14.500000,-104.32,72.28
269521,2018-06-29 11:05:14.531250,-119.31,72.32
269522,2018-06-29 11:05:14.562500,-104.93,72.32
269523,2018-06-29 11:05:14.593750,-79.51,72.32
269524,2018-06-29 11:05:14.625000,-56.37,72.32
269525,2018-06-29 11:05:14.656250,-45.24,72.32
269526,2018-06-29 11:05:14.687500,-47.56,72.32
269527,2018-06-29 11:05:14.718750,-56.49,72.32
269528,2018-06-29 11:05:14.750000,-65.78,72.32
269529,2018-06-29 11:05:14.781250,-73.11,72.32
269530,2018-06-29 11:05:14.812500,-76.39,72.32
269531,2018-06-29 11:05:14.843750,-74.47,72.32
269532,2018-06-29 11:05:14.875000,-71.91,72.32
269533,2018-06-29 11:05:14.906250,-76.15,72.32
269534,2018-06-29 11:05:14.937500,-87.83,72.32
269535,2018-06-29 11:05:14.968750,-98.89,72.32
269536,2018-06-29 11:05:15.000000,-102.81,72.32
269537,2018-06-29 11:05:15.031250,-103.49,72.32
269538,2018-06-29 11:05:15.062500,-111.63,72.32
269539,2018-06-29 11:05:15.093750,-127.92,72.32
269540,2018-06-29 11:05:15.125000,-129.43,72.32
269541,2018-06-29 11:05:15.156250,-88.67,72.32
269542,2018-06-29 11:05:15.187500,-11.69,72.32
269543,2018-06-29 11:05:15.218750,62.71,72.32
269544,2018-06-29 11:05:15.250000,105.54,72.32
269545,2018-06-29 11:05:15.281250,117.93,72.32
269546,2018-06-29 11:05:15.312500,111.45,72.32
269547,2018-06-29 11:05:15.343750,94.29,72.32
269548,2018-06-29 11:05:15.375000,76.23,72.32
269549,2018-06-29 11:05:15.406250,66.5,72.32
269550,2018-06-29 11:05:15.437500,65.08,72.32
269551,2018-06-29 11:05:15.468750,65.68,72.32
269552,2018-06-29 11:05:15.500000,65.71,72.32
269553,2018-06-29 11:05:15.531250,66.86,72.32
269554,2018-06-29 11:05:15.562500,67.77,72.32
269555,2018-06-29 11:05:15.593750,62.63,72.32
269556,2018-06-29 11:05:15.625000,47.78,72.32
269557,2018-06-29 11:05:15.656250,27.23,72.32
269558,2018-06-29 11:05:15.687500,9.13,72.32
269559,2018-06-29 11:05:15.718750,-3.32,72.32
269560,2018-06-29 11:05:15.750000,-14.53,72.32
269561,2018-06-29 11:05:15.781250,-28.85,72.32
269562,2018-06-29 11:05:15.812500,-44.4,72.32
269563,2018-06-29 11:05:15.843750,-56.63,72.32
269564,2018-06-29 11:05:15.875000,-64.67,72.32
269565,2018-06-29 11:05:15.906250,-72.69,72.32
269566,2018-06-29 11:05:15.937500,-86.91,72.32
269567,2018-06-29 11:05:15.968750,-108.0,72.32
269568,2018-06-29 11:05:16.000000,-120.77,72.32
269569,2018-06-29 11:05:16.031250,-100.92,72.32
269570,2018-06-29 11:05:16.062500,-43.9,72.32
269571,2018-06-29 11:05:16.093750,24.12,72.32
269572,2018-06-29 11:05:16.125000,74.53,72.32
269573,2018-06-29 11:05:16.156250,101.33,72.32
269574,2018-06-29 11:05:16.187500,111.36,72.32
269575,2018-06-29 11:05:16.218750,109.37,72.32
269576,2018-06-29 11:05:16.250000,101.52,72.32
269577,2018-06-29 11:05:16.281250,97.54,72.32
269578,2018-06-29 11:05:16.312500,101.83,72.32
269579,2018-06-29 11:05:16.343750,110.12,72.32
269580,2018-06-29 11:05:16.375000,117.01,72.32
269581,2018-06-29 11:05:16.406250,121.24,72.32
269582,2018-06-29 11:05:16.437500,122.65,72.32
269583,2018-06-29 11:05:16.468750,119.47,72.32
269584,2018-06-29 11:05:16.500000,109.83,72.32
269585,2018-06-29 11:05:16.531250,93.55,72.25
269586,2018-06-29 11:05:16.562500,72.52,72.25
269587,2018-06-29 11:05:16.593750,49.29,72.25
269588,2018-06-29 11:05:16.625000,24.97,72.25
269589,2018-06-29 11:05:16.656250,0.41,72.25
269590,2018-06-29 11:05:16.687500,-21.22,72.25
269591,2018-06-29 11:05:16.718750,-36.28,72.25
269592,2018-06-29 11:05:16.750000,-44.69,72.25
269593,2018-06-29 11:05:16.781250,-50.32,72.25
269594,2018-06-29 11:05:16.812500,-59.29,72.25
269595,2018-06-29 11:05:16.843750,-73.57,72.25
269596,2018-06-29 11:05:16.875000,-77.52,72.25
269597,2018-06-29 11:05:16.906250,-43.09,72.25
269598,2018-06-29 11:05:16.937500,34.58,72.25
269599,2018-06-29 11:05:16.968750,118.6,72.25
269600,2018-06-29 11:05:17.000000,164.34,72.25
269601,2018-06-29 11:05:17.031250,160.81,72.25
269602,2018-06-29 11:05:17.062500,127.44,72.25
269603,2018-06-29 11:05:17.093750,85.23,72.25
269604,2018-06-29 11:05:17.125000,42.59,72.25
269605,2018-06-29 11:05:17.156250,-1.34,72.25
269606,2018-06-29 11:05:17.187500,-48.22,72.25
269607,2018-06-29 11:05:17.218750,-85.7,72.25
269608,2018-06-29 11:05:17.250000,-81.83,72.25
269609,2018-06-29 11:05:17.281250,-22.27,72.25
269610,2018-06-29 11:05:17.312500,45.33,72.25
269611,2018-06-29 11:05:17.343750,46.84,72.25
269612,2018-06-29 11:05:17.375000,-33.2,72.25
269613,2018-06-29 11:05:17.406250,-138.65,72.25
269614,2018-06-29 11:05:17.437500,-208.94,72.25
269615,2018-06-29 11:05:17.468750,-226.1,72.25
269616,2018-06-29 11:05:17.500000,-207.49,72.25
269617,2018-06-29 11:05:17.531250,-181.12,72.17
269618,2018-06-29 11:05:17.562500,-165.52,72.17
269619,2018-06-29 11:05:17.593750,-161.47,72.17
269620,2018-06-29 11:05:17.625000,-161.44,72.17
269621,2018-06-29 11:05:17.656250,-162.61,72.17
269622,2018-06-29 11:05:17.687500,-168.81,72.17
269623,2018-06-29 11:05:17.718750,-176.42,72.17
269624,2018-06-29 11:05:17.750000,-162.18,72.17
269625,2018-06-29 11:05:17.781250,-103.02,72.17
269626,2018-06-29 11:05:17.812500,-11.95,72.17
269627,2018-06-29 11:05:17.843750,67.4,72.17
269628,2018-06-29 11:05:17.875000,105.91,72.17
269629,2018-06-29 11:05:17.906250,108.51,72.17
269630,2018-06-29 11:05:17.937500,92.64,72.17
269631,2018-06-29 11:05:17.968750,71.95,72.17
269632,2018-06-29 11:05:18.000000,58.32,72.17
269633,2018-06-29 11:05:18.031250,58.44,72.17
269634,2018-06-29 11:05:18.062500,66.81,72.17
269635,2018-06-29 11:05:18.093750,72.79,72.17
269636,2018-06-29 11:05:18.125000,72.87,72.17
269637,2018-06-29 11:05:18.156250,68.41,72.17
269638,2018-06-29 11:05:18.187500,57.53,72.17
269639,2018-06-29 11:05:18.218750,38.72,72.17
269640,2018-06-29 11:05:18.250000,17.52,72.17
269641,2018-06-29 11:05:18.281250,0.26,72.17
269642,2018-06-29 11:05:18.312500,-15.0,72.17
269643,2018-06-29 11:05:18.343750,-33.22,72.17
269644,2018-06-29 11:05:18.375000,-51.88,72.17
269645,2018-06-29 11:05:18.406250,-63.95,72.17
269646,2018-06-29 11:05:18.437500,-69.09,72.17
269647,2018-06-29 11:05:18.468750,-75.84,72.17
269648,2018-06-29 11:05:18.500000,-92.29,72.17
269649,2018-06-29 11:05:18.531250,-112.76,72.07
269650,2018-06-29 11:05:18.562500,-113.3,72.07
269651,2018-06-29 11:05:18.593750,-73.31,72.07
269652,2018-06-29 11:05:18.625000,-3.41,72.07
269653,2018-06-29 11:05:18.656250,62.44,72.07
269654,2018-06-29 11:05:18.687500,101.34,72.07
269655,2018-06-29 11:05:18.718750,112.96,72.07
269656,2018-06-29 11:05:18.750000,105.07,72.07
269657,2018-06-29 11:05:18.781250,86.73,72.07
269658,2018-06-29 11:05:18.812500,69.96,72.07
269659,2018-06-29 11:05:18.843750,63.85,72.07
269660,2018-06-29 11:05:18.875000,67.45,72.07
269661,2018-06-29 11:05:18.906250,73.52,72.07
269662,2018-06-29 11:05:18.937500,77.11,72.07
269663,2018-06-29 11:05:18.968750,75.8,72.07
269664,2018-06-29 11:05:19.000000,66.18,72.07
269665,2018-06-29 11:05:19.031250,47.31,72.07
269666,2018-06-29 11:05:19.062500,25.2,72.07
269667,2018-06-29 11:05:19.093750,6.12,72.07
269668,2018-06-29 11:05:19.125000,-11.96,72.07
269669,2018-06-29 11:05:19.156250,-34.17,72.07
269670,2018-06-29 11:05:19.187500,-58.55,72.07
269671,2018-06-29 11:05:19.218750,-78.4,72.07
269672,2018-06-29 11:05:19.250000,-92.81,72.07
269673,2018-06-29 11:05:19.281250,-109.38,72.07
269674,2018-06-29 11:05:19.312500,-135.88,72.07
269675,2018-06-29 11:05:19.343750,-164.7,72.07
269676,2018-06-29 11:05:19.375000,-167.14,72.07
269677,2018-06-29 11:05:19.406250,-119.81,72.07
269678,2018-06-29 11:05:19.437500,-37.61,72.07
269679,2018-06-29 11:05:19.468750,38.87,72.07
269680,2018-06-29 11:05:19.500000,85.49,72.07
269681,2018-06-29 11:05:19.531250,104.58,71.97
269682,2018-06-29 11:05:19.562500,104.44,71.97
269683,2018-06-29 11:05:19.593750,92.35,71.97
269684,2018-06-29 11:05:19.625000,79.81,71.97
269685,2018-06-29 11:05:19.656250,76.29,71.97
269686,2018-06-29 11:05:19.687500,80.05,71.97
269687,2018-06-29 11:05:19.718750,83.43,71.97
269688,2018-06-29 11:05:19.750000,84.38,71.97
269689,2018-06-29 11:05:19.781250,85.04,71.97
269690,2018-06-29 11:05:19.812500,81.86,71.97
269691,2018-06-29 11:05:19.843750,68.07,71.97
269692,2018-06-29 11:05:19.875000,45.83,71.97
269693,2018-06-29 11:05:19.906250,25.37,71.97
269694,2018-06-29 11:05:19.937500,10.48,71.97
269695,2018-06-29 11:05:19.968750,-5.33,71.97
269696,2018-06-29 11:05:20.000000,-26.04,71.97
269697,2018-06-29 11:05:20.031250,-45.8,71.97
269698,2018-06-29 11:05:20.062500,-58.43,71.97
269699,2018-06-29 11:05:20.093750,-66.87,71.97
269700,2018-06-29 11:05:20.125000,-80.08,71.97
269701,2018-06-29 11:05:20.156250,-102.95,71.97
269702,2018-06-29 11:05:20.187500,-124.36,71.97
269703,2018-06-29 11:05:20.218750,-115.31,71.97
269704,2018-06-29 11:05:20.250000,-55.86,71.97
269705,2018-06-29 11:05:20.281250,35.4,71.97
269706,2018-06-29 11:05:20.312500,117.81,71.97
269707,2018-06-29 11:05:20.343750,169.17,71.97
269708,2018-06-29 11:05:20.375000,192.22,71.97
269709,2018-06-29 11:05:20.406250,196.47,71.97
269710,2018-06-29 11:05:20.437500,193.49,71.97
269711,2018-06-29 11:05:20.468750,195.85,71.97
269712,2018-06-29 11:05:20.500000,204.79,71.97
269713,2018-06-29 11:05:20.531250,209.72,71.88
269714,2018-06-29 11:05:20.562500,205.4,71.88
269715,2018-06-29 11:05:20.593750,196.45,71.88
269716,2018-06-29 11:05:20.625000,181.1,71.88
269717,2018-06-29 11:05:20.656250,146.16,71.88
269718,2018-06-29 11:05:20.687500,85.37,71.88
269719,2018-06-29 11:05:20.718750,17.01,71.88
269720,2018-06-29 11:05:20.750000,-21.16,71.88
269721,2018-06-29 11:05:20.781250,-7.74,71.88
269722,2018-06-29 11:05:20.812500,26.87,71.88
269723,2018-06-29 11:05:20.843750,25.12,71.88
269724,2018-06-29 11:05:20.875000,-31.26,71.88
269725,2018-06-29 11:05:20.906250,-110.8,71.88
269726,2018-06-29 11:05:20.937500,-186.98,71.88
269727,2018-06-29 11:05:20.968750,-265.17,71.88
269728,2018-06-29 11:05:21.000000,-352.49,71.88
269729,2018-06-29 11:05:21.031250,-427.22,71.88
269730,2018-06-29 11:05:21.062500,-448.35,71.88
269731,2018-06-29 11:05:21.093750,-394.82,71.88
269732,2018-06-29 11:05:21.125000,-287.9,71.88
269733,2018-06-29 11:05:21.156250,-170.18,71.88
269734,2018-06-29 11:05:21.187500,-74.44,71.88
269735,2018-06-29 11:05:21.218750,-16.56,71.88
269736,2018-06-29 11:05:21.250000,4.07,71.88
269737,2018-06-29 11:05:21.281250,5.68,71.88
269738,2018-06-29 11:05:21.312500,10.74,71.88
269739,2018-06-29 11:05:21.343750,26.93,71.88
269740,2018-06-29 11:05:21.375000,46.78,71.88
269741,2018-06-29 11:05:21.406250,62.32,71.88
269742,2018-06-29 11:05:21.437500,73.25,71.88
269743,2018-06-29 11:05:21.468750,81.83,71.88
269744,2018-06-29 11:05:21.500000,85.11,71.88
269745,2018-06-29 11:05:21.531250,77.04,71.75
269746,2018-06-29 11:05:21.562500,58.0,71.75
269747,2018-06-29 11:05:21.593750,37.86,71.75
269748,2018-06-29 11:05:21.625000,25.13,71.75
269749,2018-06-29 11:05:21.656250,16.35,71.75
269750,2018-06-29 11:05:21.687500,1.97,71.75
269751,2018-06-29 11:05:21.718750,-19.26,71.75
269752,2018-06-29 11:05:21.750000,-39.43,71.75
269753,2018-06-29 11:05:21.781250,-53.73,71.75
269754,2018-06-29 11:05:21.812500,-66.16,71.75
269755,2018-06-29 11:05:21.843750,-83.49,71.75
269756,2018-06-29 11:05:21.875000,-107.94,71.75
269757,2018-06-29 11:05:21.906250,-128.27,71.75
269758,2018-06-29 11:05:21.937500,-117.93,71.75
269759,2018-06-29 11:05:21.968750,-61.08,71.75
269760,2018-06-29 11:05:22.000000,20.2,71.75
269761,2018-06-29 11:05:22.031250,85.0,71.75
269762,2018-06-29 11:05:22.062500,114.76,71.75
269763,2018-06-29 11:05:22.093750,117.36,71.75
269764,2018-06-29 11:05:22.125000,104.48,71.75
269765,2018-06-29 11:05:22.156250,85.67,71.75
269766,2018-06-29 11:05:22.187500,71.64,71.75
269767,2018-06-29 11:05:22.218750,67.39,71.75
269768,2018-06-29 11:05:22.250000,67.9,71.75
269769,2018-06-29 11:05:22.281250,67.09,71.75
269770,2018-06-29 11:05:22.312500,64.63,71.75
269771,2018-06-29 11:05:22.343750,60.09,71.75
269772,2018-06-29 11:05:22.375000,49.07,71.75
269773,2018-06-29 11:05:22.406250,31.09,71.75
269774,2018-06-29 11:05:22.437500,13.13,71.75
269775,2018-06-29 11:05:22.468750,-0.86,71.75
269776,2018-06-29 11:05:22.500000,-15.85,71.75
269777,2018-06-29 11:05:22.531250,-35.46,71.67
269778,2018-06-29 11:05:22.562500,-54.43,71.67
269779,2018-06-29 11:05:22.593750,-67.18,71.67
269780,2018-06-29 11:05:22.625000,-76.78,71.67
269781,2018-06-29 11:05:22.656250,-91.76,71.67
269782,2018-06-29 11:05:22.687500,-114.94,71.67
269783,2018-06-29 11:05:22.718750,-130.99,71.67
269784,2018-06-29 11:05:22.750000,-111.54,71.67
269785,2018-06-29 11:05:22.781250,-47.65,71.67
269786,2018-06-29 11:05:22.812500,31.76,71.67
269787,2018-06-29 11:05:22.843750,89.53,71.67
269788,2018-06-29 11:05:22.875000,115.36,71.67
269789,2018-06-29 11:05:22.906250,119.21,71.67
269790,2018-06-29 11:05:22.937500,110.23,71.67
269791,2018-06-29 11:05:22.968750,96.56,71.67
269792,2018-06-29 11:05:23.000000,88.46,71.67
269793,2018-06-29 11:05:23.031250,89.44,71.67
269794,2018-06-29 11:05:23.062500,93.92,71.67
269795,2018-06-29 11:05:23.093750,97.35,71.67
269796,2018-06-29 11:05:23.125000,99.49,71.67
269797,2018-06-29 11:05:23.156250,97.71,71.67
269798,2018-06-29 11:05:23.187500,88.77,71.67
269799,2018-06-29 11:05:23.218750,76.33,71.67
269800,2018-06-29 11:05:23.250000,66.6,71.67
269801,2018-06-29 11:05:23.281250,58.48,71.67
269802,2018-06-29 11:05:23.312500,47.38,71.67
269803,2018-06-29 11:05:23.343750,35.58,71.67
269804,2018-06-29 11:05:23.375000,29.08,71.67
269805,2018-06-29 11:05:23.406250,26.71,71.67
269806,2018-06-29 11:05:23.437500,20.27,71.67
269807,2018-06-29 11:05:23.468750,3.36,71.67
269808,2018-06-29 11:05:23.500000,-19.87,71.67
269809,2018-06-29 11:05:23.531250,-30.78,71.58
269810,2018-06-29 11:05:23.562500,-13.45,71.58
269811,2018-06-29 11:05:23.593750,20.41,71.58
269812,2018-06-29 11:05:23.625000,42.75,71.58
269813,2018-06-29 11:05:23.656250,44.44,71.58
269814,2018-06-29 11:05:23.687500,35.72,71.58
269815,2018-06-29 11:05:23.718750,20.43,71.58
269816,2018-06-29 11:05:23.750000,-3.4,71.58
269817,2018-06-29 11:05:23.781250,-26.62,71.58
269818,2018-06-29 11:05:23.812500,-36.19,71.58
269819,2018-06-29 11:05:23.843750,-31.01,71.58
269820,2018-06-29 11:05:23.875000,-14.39,71.58
269821,2018-06-29 11:05:23.906250,17.32,71.58
269822,2018-06-29 11:05:23.937500,63.5,71.58
269823,2018-06-29 11:05:23.968750,109.34,71.58
269824,2018-06-29 11:05:24.000000,136.92,71.58
269825,2018-06-29 11:05:24.031250,133.11,71.58
269826,2018-06-29 11:05:24.062500,90.25,71.58
269827,2018-06-29 11:05:24.093750,14.61,71.58
269828,2018-06-29 11:05:24.125000,-76.58,71.58
269829,2018-06-29 11:05:24.156250,-173.01,71.58
269830,2018-06-29 11:05:24.187500,-263.38,71.58
269831,2018-06-29 11:05:24.218750,-319.49,71.58
269832,2018-06-29 11:05:24.250000,-325.38,71.58
269833,2018-06-29 11:05:24.281250,-308.64,71.58
269834,2018-06-29 11:05:24.312500,-306.45,71.58
269835,2018-06-29 11:05:24.343750,-314.39,71.58
269836,2018-06-29 11:05:24.375000,-295.23,71.58
269837,2018-06-29 11:05:24.406250,-228.13,71.58
269838,2018-06-29 11:05:24.437500,-131.25,71.58
269839,2018-06-29 11:05:24.468750,-40.81,71.58
269840,2018-06-29 11:05:24.500000,20.04,71.58
269841,2018-06-29 11:05:24.531250,49.44,71.52
269842,2018-06-29 11:05:24.562500,54.67,71.52
269843,2018-06-29 11:05:24.593750,44.5,71.52
269844,2018-06-29 11:05:24.625000,30.74,71.52
269845,2018-06-29 11:05:24.656250,23.8,71.52
269846,2018-06-29 11:05:24.687500,22.86,71.52
269847,2018-06-29 11:05:24.718750,18.57,71.52
269848,2018-06-29 11:05:24.750000,6.99,71.52
269849,2018-06-29 11:05:24.781250,-8.31,71.52
269850,2018-06-29 11:05:24.812500,-27.19,71.52
269851,2018-06-29 11:05:24.843750,-54.79,71.52
269852,2018-06-29 11:05:24.875000,-91.74,71.52
269853,2018-06-29 11:05:24.906250,-130.82,71.52
269854,2018-06-29 11:05:24.937500,-162.48,71.52
269855,2018-06-29 11:05:24.968750,-179.49,71.52
269856,2018-06-29 11:05:25.000000,-179.5,71.52
269857,2018-06-29 11:05:25.031250,-165.59,71.52
269858,2018-06-29 11:05:25.062500,-142.46,71.52
269859,2018-06-29 11:05:25.093750,-113.15,71.52
269860,2018-06-29 11:05:25.125000,-83.28,71.52
269861,2018-06-29 11:05:25.156250,-66.36,71.52
269862,2018-06-29 11:05:25.187500,-75.96,71.52
269863,2018-06-29 11:05:25.218750,-106.02,71.52
269864,2018-06-29 11:05:25.250000,-126.48,71.52
269865,2018-06-29 11:05:25.281250,-111.19,71.52
269866,2018-06-29 11:05:25.312500,-63.87,71.52
269867,2018-06-29 11:05:25.343750,-4.69,71.52
269868,2018-06-29 11:05:25.375000,55.97,71.52
269869,2018-06-29 11:05:25.406250,118.51,71.52
269870,2018-06-29 11:05:25.437500,181.72,71.52
269871,2018-06-29 11:05:25.468750,237.87,71.52
269872,2018-06-29 11:05:25.500000,277.54,71.52
269873,2018-06-29 11:05:25.531250,302.26,71.47
269874,2018-06-29 11:05:25.562500,326.21,71.47
269875,2018-06-29 11:05:25.593750,355.56,71.47
269876,2018-06-29 11:05:25.625000,377.62,71.47
269877,2018-06-29 11:05:25.656250,377.07,71.47
269878,2018-06-29 11:05:25.687500,348.84,71.47
269879,2018-06-29 11:05:25.718750,296.2,71.47
269880,2018-06-29 11:05:25.750000,232.41,71.47
269881,2018-06-29 11:05:25.781250,177.94,71.47
269882,2018-06-29 11:05:25.812500,143.17,71.47
269883,2018-06-29 11:05:25.843750,119.86,71.47
269884,2018-06-29 11:05:25.875000,95.34,71.47
269885,2018-06-29 11:05:25.906250,65.08,71.47
269886,2018-06-29 11:05:25.937500,28.76,71.47
269887,2018-06-29 11:05:25.968750,-14.8,71.47
269888,2018-06-29 11:05:26.000000,-64.23,71.47
269889,2018-06-29 11:05:26.031250,-112.71,71.47
269890,2018-06-29 11:05:26.062500,-148.0,71.47
269891,2018-06-29 11:05:26.093750,-157.39,71.47
269892,2018-06-29 11:05:26.125000,-139.79,71.47
269893,2018-06-29 11:05:26.156250,-108.52,71.47
269894,2018-06-29 11:05:26.187500,-76.61,71.47
269895,2018-06-29 11:05:26.218750,-48.82,71.47
269896,2018-06-29 11:05:26.250000,-30.18,71.47
269897,2018-06-29 11:05:26.281250,-27.79,71.47
269898,2018-06-29 11:05:26.312500,-39.83,71.47
269899,2018-06-29 11:05:26.343750,-53.07,71.47
269900,2018-06-29 11:05:26.375000,-55.85,71.47
269901,2018-06-29 11:05:26.406250,-49.72,71.47
269902,2018-06-29 11:05:26.437500,-44.92,71.47
269903,2018-06-29 11:05:26.468750,-46.53,71.47
269904,2018-06-29 11:05:26.500000,-50.78,71.47
269905,2018-06-29 11:05:26.531250,-54.45,71.4
269906,2018-06-29 11:05:26.562500,-60.78,71.4
269907,2018-06-29 11:05:26.593750,-73.43,71.4
269908,2018-06-29 11:05:26.625000,-89.77,71.4
269909,2018-06-29 11:05:26.656250,-103.77,71.4
269910,2018-06-29 11:05:26.687500,-113.22,71.4
269911,2018-06-29 11:05:26.718750,-121.72,71.4
269912,2018-06-29 11:05:26.750000,-134.11,71.4
269913,2018-06-29 11:05:26.781250,-148.11,71.4
269914,2018-06-29 11:05:26.812500,-149.07,71.4
269915,2018-06-29 11:05:26.843750,-119.39,71.4
269916,2018-06-29 11:05:26.875000,-58.22,71.4
269917,2018-06-29 11:05:26.906250,14.34,71.4
269918,2018-06-29 11:05:26.937500,75.17,71.4
269919,2018-06-29 11:05:26.968750,113.49,71.4
269920,2018-06-29 11:05:27.000000,129.15,71.4
269921,2018-06-29 11:05:27.031250,127.26,71.4
269922,2018-06-29 11:05:27.062500,117.7,71.4
269923,2018-06-29 11:05:27.093750,111.44,71.4
269924,2018-06-29 11:05:27.125000,111.97,71.4
269925,2018-06-29 11:05:27.156250,113.72,71.4
269926,2018-06-29 11:05:27.187500,110.44,71.4
269927,2018-06-29 11:05:27.218750,101.32,71.4
269928,2018-06-29 11:05:27.250000,87.58,71.4
269929,2018-06-29 11:05:27.281250,67.82,71.4
269930,2018-06-29 11:05:27.312500,40.43,71.4
269931,2018-06-29 11:05:27.343750,9.16,71.4
269932,2018-06-29 11:05:27.375000,-18.38,71.4
269933,2018-06-29 11:05:27.406250,-39.38,71.4
269934,2018-06-29 11:05:27.437500,-58.77,71.4
269935,2018-06-29 11:05:27.468750,-82.61,71.4
269936,2018-06-29 11:05:27.500000,-107.94,71.4
269937,2018-06-29 11:05:27.531250,-117.44,71.35
269938,2018-06-29 11:05:27.562500,-90.49,71.35
269939,2018-06-29 11:05:27.593750,-26.81,71.35
269940,2018-06-29 11:05:27.625000,47.7,71.35
269941,2018-06-29 11:05:27.656250,105.56,71.35
269942,2018-06-29 11:05:27.687500,139.31,71.35
269943,2018-06-29 11:05:27.718750,154.1,71.35
269944,2018-06-29 11:05:27.750000,153.47,71.35
269945,2018-06-29 11:05:27.781250,141.27,71.35
269946,2018-06-29 11:05:27.812500,126.49,71.35
269947,2018-06-29 11:05:27.843750,116.6,71.35
269948,2018-06-29 11:05:27.875000,110.73,71.35
269949,2018-06-29 11:05:27.906250,104.09,71.35
269950,2018-06-29 11:05:27.937500,94.26,71.35
269951,2018-06-29 11:05:27.968750,81.19,71.35
269952,2018-06-29 11:05:28.000000,64.08,71.35
269953,2018-06-29 11:05:28.031250,41.11,71.35
269954,2018-06-29 11:05:28.062500,13.06,71.35
269955,2018-06-29 11:05:28.093750,-14.44,71.35
269956,2018-06-29 11:05:28.125000,-36.02,71.35
269957,2018-06-29 11:05:28.156250,-52.48,71.35
269958,2018-06-29 11:05:28.187500,-69.46,71.35
269959,2018-06-29 11:05:28.218750,-91.6,71.35
269960,2018-06-29 11:05:28.250000,-115.62,71.35
269961,2018-06-29 11:05:28.281250,-124.86,71.35
269962,2018-06-29 11:05:28.312500,-99.39,71.35
269963,2018-06-29 11:05:28.343750,-39.49,71.35
269964,2018-06-29 11:05:28.375000,29.98,71.35
269965,2018-06-29 11:05:28.406250,83.93,71.35
269966,2018-06-29 11:05:28.437500,115.32,71.35
269967,2018-06-29 11:05:28.468750,128.06,71.35
269968,2018-06-29 11:05:28.500000,126.28,71.35
269969,2018-06-29 11:05:28.531250,115.41,71.27
269970,2018-06-29 11:05:28.562500,103.57,71.27
269971,2018-06-29 11:05:28.593750,95.93,71.27
269972,2018-06-29 11:05:28.625000,91.33,71.27
269973,2018-06-29 11:05:28.656250,86.8,71.27
269974,2018-06-29 11:05:28.687500,81.94,71.27
269975,2018-06-29 11:05:28.718750,76.19,71.27
269976,2018-06-29 11:05:28.750000,66.08,71.27
269977,2018-06-29 11:05:28.781250,48.75,71.27
269978,2018-06-29 11:05:28.812500,27.46,71.27
269979,2018-06-29 11:05:28.843750,9.06,71.27
269980,2018-06-29 11:05:28.875000,-4.48,71.27
269981,2018-06-29 11:05:28.906250,-18.25,71.27
269982,2018-06-29 11:05:28.937500,-36.36,71.27
269983,2018-06-29 11:05:28.968750,-55.57,71.27
269984,2018-06-29 11:05:29.000000,-70.13,71.27
269985,2018-06-29 11:05:29.031250,-79.98,71.27
269986,2018-06-29 11:05:29.062500,-90.9,71.27
269987,2018-06-29 11:05:29.093750,-108.13,71.27
269988,2018-06-29 11:05:29.125000,-128.2,71.27
269989,2018-06-29 11:05:29.156250,-134.54,71.27
269990,2018-06-29 11:05:29.187500,-108.66,71.27
269991,2018-06-29 11:05:29.218750,-52.42,71.27
269992,2018-06-29 11:05:29.250000,9.9,71.27
269993,2018-06-29 11:05:29.281250,55.84,71.27
269994,2018-06-29 11:05:29.312500,80.52,71.27
269995,2018-06-29 11:05:29.343750,87.99,71.27
269996,2018-06-29 11:05:29.375000,82.6,71.27
269997,2018-06-29 11:05:29.406250,71.28,71.27
269998,2018-06-29 11:05:29.437500,62.08,71.27
269999,2018-06-29 11:05:29.468750,57.19,71.27
270000,2018-06-29 11:05:29.500000,53.53,71.27
270001,2018-06-29 11:05:29.531250,50.32,71.23
270002,2018-06-29 11:05:29.562500,49.89,71.23
270003,2018-06-29 11:05:29.593750,51.2,71.23
270004,2018-06-29 11:05:29.625000,48.8,71.23
270005,2018-06-29 11:05:29.656250,40.12,71.23
270006,2018-06-29 11:05:29.687500,28.8,71.23
270007,2018-06-29 11:05:29.718750,18.81,71.23
270008,2018-06-29 11:05:29.750000,9.48,71.23
270009,2018-06-29 11:05:29.781250,-1.15,71.23
270010,2018-06-29 11:05:29.812500,-11.63,71.23
270011,2018-06-29 11:05:29.843750,-19.16,71.23
270012,2018-06-29 11:05:29.875000,-24.57,71.23
270013,2018-06-29 11:05:29.906250,-31.68,71.23
270014,2018-06-29 11:05:29.937500,-41.93,71.23
270015,2018-06-29 11:05:29.968750,-52.62,71.23
270016,2018-06-29 11:05:30.000000,-61.18,71.23
270017,2018-06-29 11:05:30.031250,-68.66,71.23
270018,2018-06-29 11:05:30.062500,-78.67,71.23
270019,2018-06-29 11:05:30.093750,-93.35,71.23
270020,2018-06-29 11:05:30.125000,-107.38,71.23
270021,2018-06-29 11:05:30.156250,-106.69,71.23
270022,2018-06-29 11:05:30.187500,-81.46,71.23
270023,2018-06-29 11:05:30.218750,-39.96,71.23
270024,2018-06-29 11:05:30.250000,-0.92,71.23
270025,2018-06-29 11:05:30.281250,24.87,71.23
270026,2018-06-29 11:05:30.312500,37.84,71.23
270027,2018-06-29 11:05:30.343750,41.34,71.23
270028,2018-06-29 11:05:30.375000,39.23,71.23
270029,2018-06-29 11:05:30.406250,36.55,71.23
270030,2018-06-29 11:05:30.437500,36.26,71.23
270031,2018-06-29 11:05:30.468750,37.67,71.23
270032,2018-06-29 11:05:30.500000,39.65,71.23
270033,2018-06-29 11:05:30.531250,42.16,71.2
270034,2018-06-29 11:05:30.562500,44.15,71.2
270035,2018-06-29 11:05:30.593750,43.38,71.2
270036,2018-06-29 11:05:30.625000,38.84,71.2
270037,2018-06-29 11:05:30.656250,31.58,71.2
270038,2018-06-29 11:05:30.687500,23.58,71.2
270039,2018-06-29 11:05:30.718750,16.64,71.2
270040,2018-06-29 11:05:30.750000,11.25,71.2
270041,2018-06-29 11:05:30.781250,6.47,71.2
270042,2018-06-29 11:05:30.812500,1.59,71.2
270043,2018-06-29 11:05:30.843750,-3.22,71.2
270044,2018-06-29 11:05:30.875000,-7.72,71.2
270045,2018-06-29 11:05:30.906250,-11.93,71.2
270046,2018-06-29 11:05:30.937500,-15.94,71.2
270047,2018-06-29 11:05:30.968750,-19.52,71.2
270048,2018-06-29 11:05:31.000000,-22.95,71.2
270049,2018-06-29 11:05:31.031250,-27.67,71.2
270050,2018-06-29 11:05:31.062500,-31.67,71.2
270051,2018-06-29 11:05:31.093750,-25.27,71.2
270052,2018-06-29 11:05:31.125000,-0.39,71.2
270053,2018-06-29 11:05:31.156250,38.16,71.2
270054,2018-06-29 11:05:31.187500,79.16,71.2
270055,2018-06-29 11:05:31.218750,117.52,71.2
270056,2018-06-29 11:05:31.250000,153.03,71.2
270057,2018-06-29 11:05:31.281250,184.78,71.2
270058,2018-06-29 11:05:31.312500,209.65,71.2
270059,2018-06-29 11:05:31.343750,216.92,71.2
270060,2018-06-29 11:05:31.375000,190.71,71.2
270061,2018-06-29 11:05:31.406250,130.46,71.2
270062,2018-06-29 11:05:31.437500,58.94,71.2
270063,2018-06-29 11:05:31.468750,0.1,71.2
270064,2018-06-29 11:05:31.500000,-40.44,71.2
270065,2018-06-29 11:05:31.531250,-70.93,71.15
270066,2018-06-29 11:05:31.562500,-103.24,71.15
270067,2018-06-29 11:05:31.593750,-140.21,71.15
270068,2018-06-29 11:05:31.625000,-163.69,71.15
270069,2018-06-29 11:05:31.656250,-150.09,71.15
270070,2018-06-29 11:05:31.687500,-101.59,71.15
270071,2018-06-29 11:05:31.718750,-43.31,71.15
270072,2018-06-29 11:05:31.750000,8.24,71.15
270073,2018-06-29 11:05:31.781250,53.29,71.15
270074,2018-06-29 11:05:31.812500,90.99,71.15
270075,2018-06-29 11:05:31.843750,111.84,71.15
270076,2018-06-29 11:05:31.875000,107.14,71.15
270077,2018-06-29 11:05:31.906250,80.0,71.15
270078,2018-06-29 11:05:31.937500,50.38,71.15
270079,2018-06-29 11:05:31.968750,46.84,71.15
270080,2018-06-29 11:05:32.000000,77.12,71.15
270081,2018-06-29 11:05:32.031250,108.78,71.15
270082,2018-06-29 11:05:32.062500,101.02,71.15
270083,2018-06-29 11:05:32.093750,51.66,71.15
270084,2018-06-29 11:05:32.125000,-7.79,71.15
270085,2018-06-29 11:05:32.156250,-51.12,71.15
270086,2018-06-29 11:05:32.187500,-71.31,71.15
270087,2018-06-29 11:05:32.218750,-74.88,71.15
270088,2018-06-29 11:05:32.250000,-78.54,71.15
270089,2018-06-29 11:05:32.281250,-95.69,71.15
270090,2018-06-29 11:05:32.312500,-123.6,71.15
270091,2018-06-29 11:05:32.343750,-154.75,71.15
270092,2018-06-29 11:05:32.375000,-194.86,71.15
270093,2018-06-29 11:05:32.406250,-261.97,71.15
270094,2018-06-29 11:05:32.437500,-362.59,71.15
270095,2018-06-29 11:05:32.468750,-457.98,71.15
270096,2018-06-29 11:05:32.500000,-480.02,71.15
270097,2018-06-29 11:05:32.531250,-409.97,71.08
270098,2018-06-29 11:05:32.562500,-306.06,71.08
270099,2018-06-29 11:05:32.593750,-227.06,71.08
270100,2018-06-29 11:05:32.625000,-177.41,71.08
270101,2018-06-29 11:05:32.656250,-143.45,71.08
270102,2018-06-29 11:05:32.687500,-124.46,71.08
270103,2018-06-29 11:05:32.718750,-115.03,71.08
270104,2018-06-29 11:05:32.750000,-102.81,71.08
270105,2018-06-29 11:05:32.781250,-85.72,71.08
270106,2018-06-29 11:05:32.812500,-67.83,71.08
270107,2018-06-29 11:05:32.843750,-45.45,71.08
270108,2018-06-29 11:05:32.875000,-12.59,71.08
270109,2018-06-29 11:05:32.906250,26.67,71.08
270110,2018-06-29 11:05:32.937500,60.96,71.08
270111,2018-06-29 11:05:32.968750,83.69,71.08
270112,2018-06-29 11:05:33.000000,96.72,71.08
270113,2018-06-29 11:05:33.031250,103.65,71.08
270114,2018-06-29 11:05:33.062500,103.97,71.08
270115,2018-06-29 11:05:33.093750,96.16,71.08
270116,2018-06-29 11:05:33.125000,83.95,71.08
270117,2018-06-29 11:05:33.156250,74.65,71.08
270118,2018-06-29 11:05:33.187500,71.3,71.08
270119,2018-06-29 11:05:33.218750,70.26,71.08
270120,2018-06-29 11:05:33.250000,66.58,71.08
270121,2018-06-29 11:05:33.281250,58.21,71.08
270122,2018-06-29 11:05:33.312500,45.81,71.08
270123,2018-06-29 11:05:33.343750,31.89,71.08
270124,2018-06-29 11:05:33.375000,18.93,71.08
270125,2018-06-29 11:05:33.406250,6.67,71.08
270126,2018-06-29 11:05:33.437500,-7.79,71.08
270127,2018-06-29 11:05:33.468750,-26.63,71.08
270128,2018-06-29 11:05:33.500000,-49.25,71.08
270129,2018-06-29 11:05:33.531250,-72.84,71.02
270130,2018-06-29 11:05:33.562500,-92.62,71.02
270131,2018-06-29 11:05:33.593750,-101.28,71.02
270132,2018-06-29 11:05:33.625000,-93.62,71.02
270133,2018-06-29 11:05:33.656250,-74.73,71.02
270134,2018-06-29 11:05:33.687500,-57.09,71.02
270135,2018-06-29 11:05:33.718750,-47.73,71.02
270136,2018-06-29 11:05:33.750000,-44.15,71.02
270137,2018-06-29 11:05:33.781250,-42.6,71.02
270138,2018-06-29 11:05:33.812500,-42.28,71.02
270139,2018-06-29 11:05:33.843750,-41.88,71.02
270140,2018-06-29 11:05:33.875000,-38.32,71.02
270141,2018-06-29 11:05:33.906250,-30.01,71.02
270142,2018-06-29 11:05:33.937500,-18.87,71.02
270143,2018-06-29 11:05:33.968750,-8.95,71.02
270144,2018-06-29 11:05:34.000000,-3.22,71.02
270145,2018-06-29 11:05:34.031250,-1.69,71.02
270146,2018-06-29 11:05:34.062500,-2.76,71.02
270147,2018-06-29 11:05:34.093750,-5.84,71.02
270148,2018-06-29 11:05:34.125000,-11.24,71.02
270149,2018-06-29 11:05:34.156250,-18.23,71.02
270150,2018-06-29 11:05:34.187500,-25.61,71.02
270151,2018-06-29 11:05:34.218750,-33.31,71.02
270152,2018-06-29 11:05:34.250000,-42.7,71.02
270153,2018-06-29 11:05:34.281250,-56.02,71.02
270154,2018-06-29 11:05:34.312500,-72.36,71.02
270155,2018-06-29 11:05:34.343750,-81.6,71.02
270156,2018-06-29 11:05:34.375000,-69.49,71.02
270157,2018-06-29 11:05:34.406250,-34.8,71.02
270158,2018-06-29 11:05:34.437500,6.57,71.02
270159,2018-06-29 11:05:34.468750,38.52,71.02
270160,2018-06-29 11:05:34.500000,56.68,71.02
270161,2018-06-29 11:05:34.531250,62.26,71.0
270162,2018-06-29 11:05:34.562500,56.54,71.0
270163,2018-06-29 11:05:34.593750,45.34,71.0
270164,2018-06-29 11:05:34.625000,38.7,71.0
270165,2018-06-29 11:05:34.656250,41.0,71.0
270166,2018-06-29 11:05:34.687500,46.82,71.0
270167,2018-06-29 11:05:34.718750,49.49,71.0
270168,2018-06-29 11:05:34.750000,48.37,71.0
270169,2018-06-29 11:05:34.781250,45.27,71.0
270170,2018-06-29 11:05:34.812500,38.84,71.0
270171,2018-06-29 11:05:34.843750,26.23,71.0
270172,2018-06-29 11:05:34.875000,8.42,71.0
270173,2018-06-29 11:05:34.906250,-9.44,71.0
270174,2018-06-29 11:05:34.937500,-23.77,71.0
270175,2018-06-29 11:05:34.968750,-35.89,71.0
270176,2018-06-29 11:05:35.000000,-49.82,71.0
270177,2018-06-29 11:05:35.031250,-68.8,71.0
270178,2018-06-29 11:05:35.062500,-90.2,71.0
270179,2018-06-29 11:05:35.093750,-99.77,71.0
270180,2018-06-29 11:05:35.125000,-80.25,71.0
270181,2018-06-29 11:05:35.156250,-31.83,71.0
270182,2018-06-29 11:05:35.187500,24.78,71.0
270183,2018-06-29 11:05:35.218750,68.87,71.0
270184,2018-06-29 11:05:35.250000,94.61,71.0
270185,2018-06-29 11:05:35.281250,105.59,71.0
270186,2018-06-29 11:05:35.312500,106.39,71.0
270187,2018-06-29 11:05:35.343750,102.27,71.0
270188,2018-06-29 11:05:35.375000,99.45,71.0
270189,2018-06-29 11:05:35.406250,100.84,71.0
270190,2018-06-29 11:05:35.437500,103.74,71.0
270191,2018-06-29 11:05:35.468750,103.89,71.0
270192,2018-06-29 11:05:35.500000,99.93,71.0
270193,2018-06-29 11:05:35.531250,92.76,70.98
270194,2018-06-29 11:05:35.562500,82.8,70.98
270195,2018-06-29 11:05:35.593750,68.51,70.98
270196,2018-06-29 11:05:35.625000,48.52,70.98
270197,2018-06-29 11:05:35.656250,25.54,70.98
270198,2018-06-29 11:05:35.687500,4.78,70.98
270199,2018-06-29 11:05:35.718750,-12.43,70.98
270200,2018-06-29 11:05:35.750000,-29.63,70.98
270201,2018-06-29 11:05:35.781250,-50.52,70.98
270202,2018-06-29 11:05:35.812500,-74.87,70.98
270203,2018-06-29 11:05:35.843750,-93.11,70.98
270204,2018-06-29 11:05:35.875000,-86.99,70.98
270205,2018-06-29 11:05:35.906250,-47.9,70.98
270206,2018-06-29 11:05:35.937500,8.34,70.98
270207,2018-06-29 11:05:35.968750,56.91,70.98
270208,2018-06-29 11:05:36.000000,87.12,70.98
270209,2018-06-29 11:05:36.031250,101.04,70.98
270210,2018-06-29 11:05:36.062500,101.52,70.98
270211,2018-06-29 11:05:36.093750,92.45,70.98
270212,2018-06-29 11:05:36.125000,82.07,70.98
270213,2018-06-29 11:05:36.156250,77.27,70.98
270214,2018-06-29 11:05:36.187500,77.8,70.98
270215,2018-06-29 11:05:36.218750,79.13,70.98
270216,2018-06-29 11:05:36.250000,78.01,70.98
270217,2018-06-29 11:05:36.281250,73.36,70.98
270218,2018-06-29 11:05:36.312500,64.57,70.98
270219,2018-06-29 11:05:36.343750,51.4,70.98
270220,2018-06-29 11:05:36.375000,34.5,70.98
270221,2018-06-29 11:05:36.406250,15.66,70.98
270222,2018-06-29 11:05:36.437500,-2.71,70.98
270223,2018-06-29 11:05:36.468750,-18.83,70.98
270224,2018-06-29 11:05:36.500000,-32.62,70.98
270225,2018-06-29 11:05:36.531250,-45.99,70.97
270226,2018-06-29 11:05:36.562500,-62.74,70.97
270227,2018-06-29 11:05:36.593750,-83.34,70.97
270228,2018-06-29 11:05:36.625000,-95.56,70.97
270229,2018-06-29 11:05:36.656250,-79.78,70.97
270230,2018-06-29 11:05:36.687500,-32.44,70.97
270231,2018-06-29 11:05:36.718750,25.78,70.97
270232,2018-06-29 11:05:36.750000,70.9,70.97
270233,2018-06-29 11:05:36.781250,94.04,70.97
270234,2018-06-29 11:05:36.812500,97.75,70.97
270235,2018-06-29 11:05:36.843750,88.45,70.97
270236,2018-06-29 11:05:36.875000,75.13,70.97
270237,2018-06-29 11:05:36.906250,65.9,70.97
270238,2018-06-29 11:05:36.937500,62.98,70.97
270239,2018-06-29 11:05:36.968750,63.63,70.97
270240,2018-06-29 11:05:37.000000,64.38,70.97
270241,2018-06-29 11:05:37.031250,62.29,70.97
270242,2018-06-29 11:05:37.062500,54.96,70.97
270243,2018-06-29 11:05:37.093750,42.63,70.97
270244,2018-06-29 11:05:37.125000,28.29,70.97
270245,2018-06-29 11:05:37.156250,13.62,70.97
270246,2018-06-29 11:05:37.187500,-2.12,70.97
270247,2018-06-29 11:05:37.218750,-18.74,70.97
270248,2018-06-29 11:05:37.250000,-33.92,70.97
270249,2018-06-29 11:05:37.281250,-46.05,70.97
270250,2018-06-29 11:05:37.312500,-56.58,70.97
270251,2018-06-29 11:05:37.343750,-69.68,70.97
270252,2018-06-29 11:05:37.375000,-87.38,70.97
270253,2018-06-29 11:05:37.406250,-100.37,70.97
270254,2018-06-29 11:05:37.437500,-90.17,70.97
270255,2018-06-29 11:05:37.468750,-49.39,70.97
270256,2018-06-29 11:05:37.500000,5.68,70.97
270257,2018-06-29 11:05:37.531250,50.84,70.98
270258,2018-06-29 11:05:37.562500,75.24,70.98
270259,2018-06-29 11:05:37.593750,81.44,70.98
270260,2018-06-29 11:05:37.625000,75.37,70.98
270261,2018-06-29 11:05:37.656250,63.91,70.98
270262,2018-06-29 11:05:37.687500,54.45,70.98
270263,2018-06-29 11:05:37.718750,50.53,70.98
270264,2018-06-29 11:05:37.750000,49.96,70.98
270265,2018-06-29 11:05:37.781250,48.32,70.98
270266,2018-06-29 11:05:37.812500,42.76,70.98
270267,2018-06-29 11:05:37.843750,32.59,70.98
270268,2018-06-29 11:05:37.875000,18.6,70.98
270269,2018-06-29 11:05:37.906250,2.5,70.98
270270,2018-06-29 11:05:37.937500,-14.09,70.98
270271,2018-06-29 11:05:37.968750,-30.48,70.98
270272,2018-06-29 11:05:38.000000,-45.91,70.98
270273,2018-06-29 11:05:38.031250,-58.77,70.98
270274,2018-06-29 11:05:38.062500,-68.12,70.98
270275,2018-06-29 11:05:38.093750,-75.06,70.98
270276,2018-06-29 11:05:38.125000,-82.88,70.98
270277,2018-06-29 11:05:38.156250,-93.86,70.98
270278,2018-06-29 11:05:38.187500,-101.22,70.98
270279,2018-06-29 11:05:38.218750,-88.44,70.98
270280,2018-06-29 11:05:38.250000,-47.81,70.98
270281,2018-06-29 11:05:38.281250,5.52,70.98
270282,2018-06-29 11:05:38.312500,48.78,70.98
270283,2018-06-29 11:05:38.343750,73.16,70.98
270284,2018-06-29 11:05:38.375000,81.67,70.98
270285,2018-06-29 11:05:38.406250,77.98,70.98
270286,2018-06-29 11:05:38.437500,67.26,70.98
270287,2018-06-29 11:05:38.468750,57.86,70.98
270288,2018-06-29 11:05:38.500000,54.06,70.98
270289,2018-06-29 11:05:38.531250,52.6,71.03
270290,2018-06-29 11:05:38.562500,49.77,71.03
270291,2018-06-29 11:05:38.593750,45.97,71.03
270292,2018-06-29 11:05:38.625000,41.3,71.03
270293,2018-06-29 11:05:38.656250,32.59,71.03
270294,2018-06-29 11:05:38.687500,18.17,71.03
270295,2018-06-29 11:05:38.718750,1.73,71.03
270296,2018-06-29 11:05:38.750000,-12.16,71.03
270297,2018-06-29 11:05:38.781250,-23.9,71.03
270298,2018-06-29 11:05:38.812500,-36.88,71.03
270299,2018-06-29 11:05:38.843750,-51.05,71.03
270300,2018-06-29 11:05:38.875000,-62.55,71.03
270301,2018-06-29 11:05:38.906250,-69.55,71.03
270302,2018-06-29 11:05:38.937500,-75.89,71.03
270303,2018-06-29 11:05:38.968750,-87.16,71.03
270304,2018-06-29 11:05:39.000000,-102.02,71.03
270305,2018-06-29 11:05:39.031250,-107.05,71.03
270306,2018-06-29 11:05:39.062500,-86.67,71.03
270307,2018-06-29 11:05:39.093750,-41.92,71.03
270308,2018-06-29 11:05:39.125000,7.99,71.03
270309,2018-06-29 11:05:39.156250,44.64,71.03
270310,2018-06-29 11:05:39.187500,63.32,71.03
270311,2018-06-29 11:05:39.218750,67.74,71.03
270312,2018-06-29 11:05:39.250000,62.83,71.03
270313,2018-06-29 11:05:39.281250,54.62,71.03
270314,2018-06-29 11:05:39.312500,49.19,71.03
270315,2018-06-29 11:05:39.343750,48.57,71.03
270316,2018-06-29 11:05:39.375000,49.98,71.03
270317,2018-06-29 11:05:39.406250,49.94,71.03
270318,2018-06-29 11:05:39.437500,47.6,71.03
270319,2018-06-29 11:05:39.468750,44.03,71.03
270320,2018-06-29 11:05:39.500000,39.18,71.03
270321,2018-06-29 11:05:39.531250,31.56,71.1
270322,2018-06-29 11:05:39.562500,21.46,71.1
270323,2018-06-29 11:05:39.593750,11.94,71.1
270324,2018-06-29 11:05:39.625000,4.47,71.1
270325,2018-06-29 11:05:39.656250,-3.84,71.1
270326,2018-06-29 11:05:39.687500,-16.09,71.1
270327,2018-06-29 11:05:39.718750,-30.74,71.1
270328,2018-06-29 11:05:39.750000,-43.74,71.1
270329,2018-06-29 11:05:39.781250,-53.77,71.1
270330,2018-06-29 11:05:39.812500,-63.3,71.1
270331,2018-06-29 11:05:39.843750,-76.56,71.1
270332,2018-06-29 11:05:39.875000,-95.04,71.1
270333,2018-06-29 11:05:39.906250,-110.13,71.1
270334,2018-06-29 11:05:39.937500,-105.02,71.1
270335,2018-06-29 11:05:39.968750,-72.58,71.1
270336,2018-06-29 11:05:40.000000,-26.24,71.1
270337,2018-06-29 11:05:40.031250,13.89,71.1
270338,2018-06-29 11:05:40.062500,38.46,71.1
270339,2018-06-29 11:05:40.093750,48.79,71.1
270340,2018-06-29 11:05:40.125000,49.33,71.1
270341,2018-06-29 11:05:40.156250,45.4,71.1
270342,2018-06-29 11:05:40.187500,42.2,71.1
270343,2018-06-29 11:05:40.218750,42.38,71.1
270344,2018-06-29 11:05:40.250000,45.22,71.1
270345,2018-06-29 11:05:40.281250,48.15,71.1
270346,2018-06-29 11:05:40.312500,49.44,71.1
270347,2018-06-29 11:05:40.343750,48.73,71.1
270348,2018-06-29 11:05:40.375000,44.66,71.1
270349,2018-06-29 11:05:40.406250,35.19,71.1
270350,2018-06-29 11:05:40.437500,21.48,71.1
270351,2018-06-29 11:05:40.468750,7.49,71.1
270352,2018-06-29 11:05:40.500000,-4.48,71.1
270353,2018-06-29 11:05:40.531250,-14.61,71.15
270354,2018-06-29 11:05:40.562500,-23.7,71.15
270355,2018-06-29 11:05:40.593750,-32.86,71.15
270356,2018-06-29 11:05:40.625000,-42.2,71.15
270357,2018-06-29 11:05:40.656250,-50.04,71.15
270358,2018-06-29 11:05:40.687500,-55.92,71.15
270359,2018-06-29 11:05:40.718750,-62.65,71.15
270360,2018-06-29 11:05:40.750000,-73.61,71.15
270361,2018-06-29 11:05:40.781250,-86.59,71.15
270362,2018-06-29 11:05:40.812500,-89.8,71.15
270363,2018-06-29 11:05:40.843750,-70.46,71.15
270364,2018-06-29 11:05:40.875000,-30.95,71.15
270365,2018-06-29 11:05:40.906250,11.39,71.15
270366,2018-06-29 11:05:40.937500,41.68,71.15
270367,2018-06-29 11:05:40.968750,56.0,71.15
270368,2018-06-29 11:05:41.000000,56.18,71.15
270369,2018-06-29 11:05:41.031250,47.07,71.15
270370,2018-06-29 11:05:41.062500,36.7,71.15
270371,2018-06-29 11:05:41.093750,31.24,71.15
270372,2018-06-29 11:05:41.125000,30.21,71.15
270373,2018-06-29 11:05:41.156250,29.69,71.15
270374,2018-06-29 11:05:41.187500,28.06,71.15
270375,2018-06-29 11:05:41.218750,26.3,71.15
270376,2018-06-29 11:05:41.250000,23.97,71.15
270377,2018-06-29 11:05:41.281250,18.21,71.15
270378,2018-06-29 11:05:41.312500,7.91,71.15
270379,2018-06-29 11:05:41.343750,-3.63,71.15
270380,2018-06-29 11:05:41.375000,-12.37,71.15
270381,2018-06-29 11:05:41.406250,-18.77,71.15
270382,2018-06-29 11:05:41.437500,-26.45,71.15
270383,2018-06-29 11:05:41.468750,-35.96,71.15
270384,2018-06-29 11:05:41.500000,-44.22,71.15
270385,2018-06-29 11:05:41.531250,-50.05,71.2
270386,2018-06-29 11:05:41.562500,-56.36,71.2
270387,2018-06-29 11:05:41.593750,-66.44,71.2
270388,2018-06-29 11:05:41.625000,-79.15,71.2
270389,2018-06-29 11:05:41.656250,-85.51,71.2
270390,2018-06-29 11:05:41.687500,-73.02,71.2
270391,2018-06-29 11:05:41.718750,-39.37,71.2
270392,2018-06-29 11:05:41.750000,1.8,71.2
270393,2018-06-29 11:05:41.781250,33.64,71.2
270394,2018-06-29 11:05:41.812500,49.89,71.2
270395,2018-06-29 11:05:41.843750,53.34,71.2
270396,2018-06-29 11:05:41.875000,48.39,71.2
270397,2018-06-29 11:05:41.906250,40.04,71.2
270398,2018-06-29 11:05:41.937500,33.77,71.2
270399,2018-06-29 11:05:41.968750,31.87,71.2
270400,2018-06-29 11:05:42.000000,32.32,71.2
270401,2018-06-29 11:05:42.031250,32.85,71.2
270402,2018-06-29 11:05:42.062500,32.52,71.2
270403,2018-06-29 11:05:42.093750,29.27,71.2
270404,2018-06-29 11:05:42.125000,21.21,71.2
270405,2018-06-29 11:05:42.156250,9.99,71.2
270406,2018-06-29 11:05:42.187500,-1.11,71.2
270407,2018-06-29 11:05:42.218750,-11.78,71.2
270408,2018-06-29 11:05:42.250000,-24.32,71.2
270409,2018-06-29 11:05:42.281250,-38.74,71.2
270410,2018-06-29 11:05:42.312500,-51.56,71.2
270411,2018-06-29 11:05:42.343750,-60.37,71.2
270412,2018-06-29 11:05:42.375000,-67.96,71.2
270413,2018-06-29 11:05:42.406250,-80.16,71.2
270414,2018-06-29 11:05:42.437500,-97.53,71.2
270415,2018-06-29 11:05:42.468750,-108.64,71.2
270416,2018-06-29 11:05:42.500000,-96.65,71.2
270417,2018-06-29 11:05:42.531250,-57.95,71.25
270418,2018-06-29 11:05:42.562500,-8.67,71.25
270419,2018-06-29 11:05:42.593750,31.49,71.25
270420,2018-06-29 11:05:42.625000,55.15,71.25
270421,2018-06-29 11:05:42.656250,64.71,71.25
270422,2018-06-29 11:05:42.687500,64.1,71.25
270423,2018-06-29 11:05:42.718750,58.28,71.25
270424,2018-06-29 11:05:42.750000,53.39,71.25
270425,2018-06-29 11:05:42.781250,52.44,71.25
270426,2018-06-29 11:05:42.812500,53.52,71.25
270427,2018-06-29 11:05:42.843750,54.0,71.25
270428,2018-06-29 11:05:42.875000,53.25,71.25
270429,2018-06-29 11:05:42.906250,50.39,71.25
270430,2018-06-29 11:05:42.937500,43.11,71.25
270431,2018-06-29 11:05:42.968750,31.25,71.25
270432,2018-06-29 11:05:43.000000,18.28,71.25
270433,2018-06-29 11:05:43.031250,6.37,71.25
270434,2018-06-29 11:05:43.062500,-6.85,71.25
270435,2018-06-29 11:05:43.093750,-23.07,71.25
270436,2018-06-29 11:05:43.125000,-38.96,71.25
270437,2018-06-29 11:05:43.156250,-50.66,71.25
270438,2018-06-29 11:05:43.187500,-59.38,71.25
270439,2018-06-29 11:05:43.218750,-70.21,71.25
270440,2018-06-29 11:05:43.250000,-86.87,71.25
270441,2018-06-29 11:05:43.281250,-104.02,71.25
270442,2018-06-29 11:05:43.312500,-104.87,71.25
270443,2018-06-29 11:05:43.343750,-76.22,71.25
270444,2018-06-29 11:05:43.375000,-26.39,71.25
270445,2018-06-29 11:05:43.406250,21.82,71.25
270446,2018-06-29 11:05:43.437500,53.99,71.25
270447,2018-06-29 11:05:43.468750,70.0,71.25
270448,2018-06-29 11:05:43.500000,73.52,71.25
270449,2018-06-29 11:05:43.531250,68.47,71.3
270450,2018-06-29 11:05:43.562500,61.63,71.3
270451,2018-06-29 11:05:43.593750,58.74,71.3
270452,2018-06-29 11:05:43.625000,58.92,71.3
270453,2018-06-29 11:05:43.656250,58.23,71.3
270454,2018-06-29 11:05:43.687500,56.1,71.3
270455,2018-06-29 11:05:43.718750,53.9,71.3
270456,2018-06-29 11:05:43.750000,49.79,71.3
270457,2018-06-29 11:05:43.781250,40.18,71.3
270458,2018-06-29 11:05:43.812500,25.98,71.3
270459,2018-06-29 11:05:43.843750,12.52,71.3
270460,2018-06-29 11:05:43.875000,1.86,71.3
270461,2018-06-29 11:05:43.906250,-9.8,71.3
270462,2018-06-29 11:05:43.937500,-24.75,71.3
270463,2018-06-29 11:05:43.968750,-39.28,71.3
270464,2018-06-29 11:05:44.000000,-49.63,71.3
270465,2018-06-29 11:05:44.031250,-57.81,71.3
270466,2018-06-29 11:05:44.062500,-68.96,71.3
270467,2018-06-29 11:05:44.093750,-85.43,71.3
270468,2018-06-29 11:05:44.125000,-101.5,71.3
270469,2018-06-29 11:05:44.156250,-101.96,71.3
270470,2018-06-29 11:05:44.187500,-74.38,71.3
270471,2018-06-29 11:05:44.218750,-25.82,71.3
270472,2018-06-29 11:05:44.250000,22.03,71.3
270473,2018-06-29 11:05:44.281250,54.49,71.3
270474,2018-06-29 11:05:44.312500,70.88,71.3
270475,2018-06-29 11:05:44.343750,74.49,71.3
270476,2018-06-29 11:05:44.375000,68.65,71.3
270477,2018-06-29 11:05:44.406250,60.3,71.3
270478,2018-06-29 11:05:44.437500,56.19,71.3
270479,2018-06-29 11:05:44.468750,56.27,71.3
270480,2018-06-29 11:05:44.500000,56.61,71.3
270481,2018-06-29 11:05:44.531250,56.1,71.35
270482,2018-06-29 11:05:44.562500,55.19,71.35
270483,2018-06-29 11:05:44.593750,51.61,71.35
270484,2018-06-29 11:05:44.625000,42.26,71.35
270485,2018-06-29 11:05:44.656250,27.89,71.35
270486,2018-06-29 11:05:44.687500,13.2,71.35
270487,2018-06-29 11:05:44.718750,1.6,71.35
270488,2018-06-29 11:05:44.750000,-8.96,71.35
270489,2018-06-29 11:05:44.781250,-22.23,71.35
270490,2018-06-29 11:05:44.812500,-37.06,71.35
270491,2018-06-29 11:05:44.843750,-49.12,71.35
270492,2018-06-29 11:05:44.875000,-57.95,71.35
270493,2018-06-29 11:05:44.906250,-67.3,71.35
270494,2018-06-29 11:05:44.937500,-80.35,71.35
270495,2018-06-29 11:05:44.968750,-95.88,71.35
270496,2018-06-29 11:05:45.000000,-104.61,71.35
270497,2018-06-29 11:05:45.031250,-92.27,71.35
270498,2018-06-29 11:05:45.062500,-54.62,71.35
270499,2018-06-29 11:05:45.093750,-6.58,71.35
270500,2018-06-29 11:05:45.125000,31.31,71.35
270501,2018-06-29 11:05:45.156250,50.7,71.35
270502,2018-06-29 11:05:45.187500,54.85,71.35
270503,2018-06-29 11:05:45.218750,49.4,71.35
270504,2018-06-29 11:05:45.250000,40.69,71.35
270505,2018-06-29 11:05:45.281250,35.8,71.35
270506,2018-06-29 11:05:45.312500,37.57,71.35
270507,2018-06-29 11:05:45.343750,42.42,71.35
270508,2018-06-29 11:05:45.375000,45.59,71.35
270509,2018-06-29 11:05:45.406250,45.34,71.35
270510,2018-06-29 11:05:45.437500,41.37,71.35
270511,2018-06-29 11:05:45.468750,33.05,71.35
270512,2018-06-29 11:05:45.500000,21.15,71.35
270513,2018-06-29 11:05:45.531250,8.31,71.4
270514,2018-06-29 11:05:45.562500,-4.13,71.4
270515,2018-06-29 11:05:45.593750,-17.39,71.4
270516,2018-06-29 11:05:45.625000,-31.44,71.4
270517,2018-06-29 11:05:45.656250,-43.57,71.4
270518,2018-06-29 11:05:45.687500,-52.65,71.4
270519,2018-06-29 11:05:45.718750,-61.65,71.4
270520,2018-06-29 11:05:45.750000,-74.46,71.4
270521,2018-06-29 11:05:45.781250,-89.61,71.4
270522,2018-06-29 11:05:45.812500,-95.69,71.4
270523,2018-06-29 11:05:45.843750,-78.78,71.4
270524,2018-06-29 11:05:45.875000,-38.94,71.4
270525,2018-06-29 11:05:45.906250,6.55,71.4
270526,2018-06-29 11:05:45.937500,40.55,71.4
270527,2018-06-29 11:05:45.968750,58.71,71.4
270528,2018-06-29 11:05:46.000000,64.01,71.4
270529,2018-06-29 11:05:46.031250,59.97,71.4
270530,2018-06-29 11:05:46.062500,51.81,71.4
270531,2018-06-29 11:05:46.093750,45.64,71.4
270532,2018-06-29 11:05:46.125000,43.49,71.4
270533,2018-06-29 11:05:46.156250,43.12,71.4
270534,2018-06-29 11:05:46.187500,42.72,71.4
270535,2018-06-29 11:05:46.218750,41.55,71.4
270536,2018-06-29 11:05:46.250000,37.57,71.4
270537,2018-06-29 11:05:46.281250,28.89,71.4
270538,2018-06-29 11:05:46.312500,17.24,71.4
270539,2018-06-29 11:05:46.343750,5.85,71.4
270540,2018-06-29 11:05:46.375000,-5.4,71.4
270541,2018-06-29 11:05:46.406250,-18.58,71.4
270542,2018-06-29 11:05:46.437500,-32.72,71.4
270543,2018-06-29 11:05:46.468750,-44.31,71.4
270544,2018-06-29 11:05:46.500000,-52.36,71.4
270545,2018-06-29 11:05:46.531250,-60.45,71.47
270546,2018-06-29 11:05:46.562500,-73.06,71.47
270547,2018-06-29 11:05:46.593750,-87.48,71.47
270548,2018-06-29 11:05:46.625000,-89.75,71.47
270549,2018-06-29 11:05:46.656250,-67.29,71.47
270550,2018-06-29 11:05:46.687500,-26.13,71.47
270551,2018-06-29 11:05:46.718750,14.08,71.47
270552,2018-06-29 11:05:46.750000,40.5,71.47
270553,2018-06-29 11:05:46.781250,52.89,71.47
270554,2018-06-29 11:05:46.812500,54.38,71.47
270555,2018-06-29 11:05:46.843750,48.15,71.47
270556,2018-06-29 11:05:46.875000,40.06,71.47
270557,2018-06-29 11:05:46.906250,35.57,71.47
270558,2018-06-29 11:05:46.937500,35.21,71.47
270559,2018-06-29 11:05:46.968750,36.2,71.47
270560,2018-06-29 11:05:47.000000,36.32,71.47
270561,2018-06-29 11:05:47.031250,34.01,71.47
270562,2018-06-29 11:05:47.062500,27.62,71.47
270563,2018-06-29 11:05:47.093750,17.62,71.47
270564,2018-06-29 11:05:47.125000,6.93,71.47
270565,2018-06-29 11:05:47.156250,-2.63,71.47
270566,2018-06-29 11:05:47.187500,-12.06,71.47
270567,2018-06-29 11:05:47.218750,-22.06,71.47
270568,2018-06-29 11:05:47.250000,-31.4,71.47
270569,2018-06-29 11:05:47.281250,-39.26,71.47
270570,2018-06-29 11:05:47.312500,-46.83,71.47
270571,2018-06-29 11:05:47.343750,-56.69,71.47
270572,2018-06-29 11:05:47.375000,-69.09,71.47
270573,2018-06-29 11:05:47.406250,-75.98,71.47
270574,2018-06-29 11:05:47.437500,-64.16,71.47
270575,2018-06-29 11:05:47.468750,-30.99,71.47
270576,2018-06-29 11:05:47.500000,9.68,71.47
270577,2018-06-29 11:05:47.531250,41.77,71.57
270578,2018-06-29 11:05:47.562500,59.6,71.57
270579,2018-06-29 11:05:47.593750,64.6,71.57
270580,2018-06-29 11:05:47.625000,60.25,71.57
270581,2018-06-29 11:05:47.656250,52.35,71.57
270582,2018-06-29 11:05:47.687500,46.97,71.57
270583,2018-06-29 11:05:47.718750,46.13,71.57
270584,2018-06-29 11:05:47.750000,47.57,71.57
270585,2018-06-29 11:05:47.781250,47.99,71.57
270586,2018-06-29 11:05:47.812500,45.51,71.57
270587,2018-06-29 11:05:47.843750,39.57,71.57
270588,2018-06-29 11:05:47.875000,30.39,71.57
270589,2018-06-29 11:05:47.906250,19.44,71.57
270590,2018-06-29 11:05:47.937500,8.69,71.57
270591,2018-06-29 11:05:47.968750,-1.67,71.57
270592,2018-06-29 11:05:48.000000,-12.57,71.57
270593,2018-06-29 11:05:48.031250,-23.28,71.57
270594,2018-06-29 11:05:48.062500,-32.36,71.57
270595,2018-06-29 11:05:48.093750,-40.76,71.57
270596,2018-06-29 11:05:48.125000,-51.41,71.57
270597,2018-06-29 11:05:48.156250,-65.67,71.57
270598,2018-06-29 11:05:48.187500,-78.1,71.57
270599,2018-06-29 11:05:48.218750,-76.34,71.57
270600,2018-06-29 11:05:48.250000,-53.94,71.57
270601,2018-06-29 11:05:48.281250,-21.31,71.57
270602,2018-06-29 11:05:48.312500,5.11,71.57
270603,2018-06-29 11:05:48.343750,19.38,71.57
270604,2018-06-29 11:05:48.375000,23.92,71.57
270605,2018-06-29 11:05:48.406250,20.29,71.57
270606,2018-06-29 11:05:48.437500,10.97,71.57
270607,2018-06-29 11:05:48.468750,2.94,71.57
270608,2018-06-29 11:05:48.500000,1.82,71.57
270609,2018-06-29 11:05:48.531250,6.15,71.65
270610,2018-06-29 11:05:48.562500,10.59,71.65
270611,2018-06-29 11:05:48.593750,12.54,71.65
270612,2018-06-29 11:05:48.625000,13.14,71.65
270613,2018-06-29 11:05:48.656250,12.84,71.65
270614,2018-06-29 11:05:48.687500,9.4,71.65
270615,2018-06-29 11:05:48.718750,2.01,71.65
270616,2018-06-29 11:05:48.750000,-5.78,71.65
270617,2018-06-29 11:05:48.781250,-11.12,71.65
270618,2018-06-29 11:05:48.812500,-16.21,71.65
270619,2018-06-29 11:05:48.843750,-24.51,71.65
270620,2018-06-29 11:05:48.875000,-36.64,71.65
270621,2018-06-29 11:05:48.906250,-50.04,71.65
270622,2018-06-29 11:05:48.937500,-56.86,71.65
270623,2018-06-29 11:05:48.968750,-47.13,71.65
270624,2018-06-29 11:05:49.000000,-21.3,71.65
270625,2018-06-29 11:05:49.031250,6.27,71.65
270626,2018-06-29 11:05:49.062500,21.38,71.65
270627,2018-06-29 11:05:49.093750,21.3,71.65
270628,2018-06-29 11:05:49.125000,11.52,71.65
270629,2018-06-29 11:05:49.156250,-1.02,71.65
270630,2018-06-29 11:05:49.187500,-9.96,71.65
270631,2018-06-29 11:05:49.218750,-10.79,71.65
270632,2018-06-29 11:05:49.250000,-3.71,71.65
270633,2018-06-29 11:05:49.281250,5.5,71.65
270634,2018-06-29 11:05:49.312500,10.62,71.65
270635,2018-06-29 11:05:49.343750,11.12,71.65
270636,2018-06-29 11:05:49.375000,10.0,71.65
270637,2018-06-29 11:05:49.406250,7.82,71.65
270638,2018-06-29 11:05:49.437500,2.65,71.65
270639,2018-06-29 11:05:49.468750,-5.58,71.65
270640,2018-06-29 11:05:49.500000,-14.43,71.65
270641,2018-06-29 11:05:49.531250,-22.1,71.77
270642,2018-06-29 11:05:49.562500,-29.03,71.77
270643,2018-06-29 11:05:49.593750,-37.11,71.77
270644,2018-06-29 11:05:49.625000,-48.82,71.77
270645,2018-06-29 11:05:49.656250,-63.93,71.77
270646,2018-06-29 11:05:49.687500,-73.64,71.77
270647,2018-06-29 11:05:49.718750,-64.43,71.77
270648,2018-06-29 11:05:49.750000,-33.41,71.77
270649,2018-06-29 11:05:49.781250,5.86,71.77
270650,2018-06-29 11:05:49.812500,37.18,71.77
270651,2018-06-29 11:05:49.843750,55.27,71.77
270652,2018-06-29 11:05:49.875000,62.77,71.77
270653,2018-06-29 11:05:49.906250,62.61,71.77
270654,2018-06-29 11:05:49.937500,57.35,71.77
270655,2018-06-29 11:05:49.968750,51.08,71.77
270656,2018-06-29 11:05:50.000000,47.36,71.77
270657,2018-06-29 11:05:50.031250,46.72,71.77
270658,2018-06-29 11:05:50.062500,47.5,71.77
270659,2018-06-29 11:05:50.093750,47.37,71.77
270660,2018-06-29 11:05:50.125000,43.88,71.77
270661,2018-06-29 11:05:50.156250,36.03,71.77
270662,2018-06-29 11:05:50.187500,25.49,71.77
270663,2018-06-29 11:05:50.218750,14.28,71.77
270664,2018-06-29 11:05:50.250000,2.18,71.77
270665,2018-06-29 11:05:50.281250,-11.44,71.77
270666,2018-06-29 11:05:50.312500,-24.61,71.77
270667,2018-06-29 11:05:50.343750,-35.03,71.77
270668,2018-06-29 11:05:50.375000,-44.51,71.77
270669,2018-06-29 11:05:50.406250,-57.46,71.77
270670,2018-06-29 11:05:50.437500,-74.47,71.77
270671,2018-06-29 11:05:50.468750,-87.66,71.77
270672,2018-06-29 11:05:50.500000,-83.7,71.77
270673,2018-06-29 11:05:50.531250,-56.26,71.87
270674,2018-06-29 11:05:50.562500,-15.58,71.87
270675,2018-06-29 11:05:50.593750,20.9,71.87
270676,2018-06-29 11:05:50.625000,45.13,71.87
270677,2018-06-29 11:05:50.656250,58.97,71.87
270678,2018-06-29 11:05:50.687500,64.5,71.87
270679,2018-06-29 11:05:50.718750,63.26,71.87
270680,2018-06-29 11:05:50.750000,59.78,71.87
270681,2018-06-29 11:05:50.781250,58.13,71.87
270682,2018-06-29 11:05:50.812500,57.87,71.87
270683,2018-06-29 11:05:50.843750,57.18,71.87
270684,2018-06-29 11:05:50.875000,56.46,71.87
270685,2018-06-29 11:05:50.906250,55.88,71.87
270686,2018-06-29 11:05:50.937500,52.88,71.87
270687,2018-06-29 11:05:50.968750,44.95,71.87
270688,2018-06-29 11:05:51.000000,33.11,71.87
270689,2018-06-29 11:05:51.031250,20.88,71.87
270690,2018-06-29 11:05:51.062500,10.48,71.87
270691,2018-06-29 11:05:51.093750,0.57,71.87
270692,2018-06-29 11:05:51.125000,-11.58,71.87
270693,2018-06-29 11:05:51.156250,-25.67,71.87
270694,2018-06-29 11:05:51.187500,-38.12,71.87
270695,2018-06-29 11:05:51.218750,-46.83,71.87
270696,2018-06-29 11:05:51.250000,-54.22,71.87
270697,2018-06-29 11:05:51.281250,-64.96,71.87
270698,2018-06-29 11:05:51.312500,-80.59,71.87
270699,2018-06-29 11:05:51.343750,-94.01,71.87
270700,2018-06-29 11:05:51.375000,-91.2,71.87
270701,2018-06-29 11:05:51.406250,-65.11,71.87
270702,2018-06-29 11:05:51.437500,-25.67,71.87
270703,2018-06-29 11:05:51.468750,9.91,71.87
270704,2018-06-29 11:05:51.500000,33.19,71.87
270705,2018-06-29 11:05:51.531250,45.54,71.98
270706,2018-06-29 11:05:51.562500,49.43,71.98
270707,2018-06-29 11:05:51.593750,46.66,71.98
270708,2018-06-29 11:05:51.625000,41.9,71.98
270709,2018-06-29 11:05:51.656250,40.2,71.98
270710,2018-06-29 11:05:51.687500,41.62,71.98
270711,2018-06-29 11:05:51.718750,42.7,71.98
270712,2018-06-29 11:05:51.750000,42.11,71.98
270713,2018-06-29 11:05:51.781250,40.81,71.98
270714,2018-06-29 11:05:51.812500,38.13,71.98
270715,2018-06-29 11:05:51.843750,31.78,71.98
270716,2018-06-29 11:05:51.875000,21.7,71.98
270717,2018-06-29 11:05:51.906250,11.12,71.98
270718,2018-06-29 11:05:51.937500,2.79,71.98
270719,2018-06-29 11:05:51.968750,-4.13,71.98
270720,2018-06-29 11:05:52.000000,-12.41,71.98
270721,2018-06-29 11:05:52.031250,-22.76,71.98
270722,2018-06-29 11:05:52.062500,-32.55,71.98
270723,2018-06-29 11:05:52.093750,-39.12,71.98
270724,2018-06-29 11:05:52.125000,-43.82,71.98
270725,2018-06-29 11:05:52.156250,-51.02,71.98
270726,2018-06-29 11:05:52.187500,-63.18,71.98
270727,2018-06-29 11:05:52.218750,-75.88,71.98
270728,2018-06-29 11:05:52.250000,-77.6,71.98
270729,2018-06-29 11:05:52.281250,-59.2,71.98
270730,2018-06-29 11:05:52.312500,-25.57,71.98
270731,2018-06-29 11:05:52.343750,7.93,71.98
270732,2018-06-29 11:05:52.375000,30.65,71.98
270733,2018-06-29 11:05:52.406250,42.01,71.98
270734,2018-06-29 11:05:52.437500,44.61,71.98
270735,2018-06-29 11:05:52.468750,40.88,71.98
270736,2018-06-29 11:05:52.500000,35.59,71.98
270737,2018-06-29 11:05:52.531250,33.98,72.08
270738,2018-06-29 11:05:52.562500,36.53,72.08
270739,2018-06-29 11:05:52.593750,39.63,72.08
270740,2018-06-29 11:05:52.625000,40.94,72.08
270741,2018-06-29 11:05:52.656250,40.76,72.08
270742,2018-06-29 11:05:52.687500,38.59,72.08
270743,2018-06-29 11:05:52.718750,33.0,72.08
270744,2018-06-29 11:05:52.750000,24.68,72.08
270745,2018-06-29 11:05:52.781250,15.76,72.08
270746,2018-06-29 11:05:52.812500,6.72,72.08
270747,2018-06-29 11:05:52.843750,-2.64,72.08
270748,2018-06-29 11:05:52.875000,-11.15,72.08
270749,2018-06-29 11:05:52.906250,-18.64,72.08
270750,2018-06-29 11:05:52.937500,-27.01,72.08
270751,2018-06-29 11:05:52.968750,-36.48,72.08
270752,2018-06-29 11:05:53.000000,-44.74,72.08
270753,2018-06-29 11:05:53.031250,-51.26,72.08
270754,2018-06-29 11:05:53.062500,-58.81,72.08
270755,2018-06-29 11:05:53.093750,-70.32,72.08
270756,2018-06-29 11:05:53.125000,-83.42,72.08
270757,2018-06-29 11:05:53.156250,-87.53,72.08
270758,2018-06-29 11:05:53.187500,-71.77,72.08
270759,2018-06-29 11:05:53.218750,-38.33,72.08
270760,2018-06-29 11:05:53.250000,-1.97,72.08
270761,2018-06-29 11:05:53.281250,24.42,72.08
270762,2018-06-29 11:05:53.312500,38.17,72.08
270763,2018-06-29 11:05:53.343750,42.96,72.08
270764,2018-06-29 11:05:53.375000,43.2,72.08
270765,2018-06-29 11:05:53.406250,41.97,72.08
270766,2018-06-29 11:05:53.437500,41.12,72.08
270767,2018-06-29 11:05:53.468750,41.66,72.08
270768,2018-06-29 11:05:53.500000,43.41,72.08
270769,2018-06-29 11:05:53.531250,45.1,72.18
270770,2018-06-29 11:05:53.562500,45.35,72.18
270771,2018-06-29 11:05:53.593750,43.42,72.18
270772,2018-06-29 11:05:53.625000,38.98,72.18
270773,2018-06-29 11:05:53.656250,32.17,72.18
270774,2018-06-29 11:05:53.687500,24.08,72.18
270775,2018-06-29 11:05:53.718750,16.21,72.18
270776,2018-06-29 11:05:53.750000,8.81,72.18
270777,2018-06-29 11:05:53.781250,0.92,72.18
270778,2018-06-29 11:05:53.812500,-8.43,72.18
270779,2018-06-29 11:05:53.843750,-19.95,72.18
270780,2018-06-29 11:05:53.875000,-32.94,72.18
270781,2018-06-29 11:05:53.906250,-44.76,72.18
270782,2018-06-29 11:05:53.937500,-53.76,72.18
270783,2018-06-29 11:05:53.968750,-61.68,72.18
270784,2018-06-29 11:05:54.000000,-71.69,72.18
270785,2018-06-29 11:05:54.031250,-84.14,72.18
270786,2018-06-29 11:05:54.062500,-92.21,72.18
270787,2018-06-29 11:05:54.093750,-83.95,72.18
270788,2018-06-29 11:05:54.125000,-55.38,72.18
270789,2018-06-29 11:05:54.156250,-18.32,72.18
270790,2018-06-29 11:05:54.187500,12.0,72.18
270791,2018-06-29 11:05:54.218750,30.99,72.18
270792,2018-06-29 11:05:54.250000,41.47,72.18
270793,2018-06-29 11:05:54.281250,45.37,72.18
270794,2018-06-29 11:05:54.312500,44.59,72.18
270795,2018-06-29 11:05:54.343750,43.44,72.18
270796,2018-06-29 11:05:54.375000,44.98,72.18
270797,2018-06-29 11:05:54.406250,47.96,72.18
270798,2018-06-29 11:05:54.437500,49.74,72.18
270799,2018-06-29 11:05:54.468750,49.84,72.18
270800,2018-06-29 11:05:54.500000,48.04,72.18
270801,2018-06-29 11:05:54.531250,43.08,72.25
270802,2018-06-29 11:05:54.562500,35.13,72.25
270803,2018-06-29 11:05:54.593750,26.04,72.25
270804,2018-06-29 11:05:54.625000,16.41,72.25
270805,2018-06-29 11:05:54.656250,6.21,72.25
270806,2018-06-29 11:05:54.687500,-2.88,72.25
270807,2018-06-29 11:05:54.718750,-9.14,72.25
270808,2018-06-29 11:05:54.750000,-13.73,72.25
270809,2018-06-29 11:05:54.781250,-19.14,72.25
270810,2018-06-29 11:05:54.812500,-26.38,72.25
270811,2018-06-29 11:05:54.843750,-34.61,72.25
270812,2018-06-29 11:05:54.875000,-42.49,72.25
270813,2018-06-29 11:05:54.906250,-49.97,72.25
270814,2018-06-29 11:05:54.937500,-59.3,72.25
270815,2018-06-29 11:05:54.968750,-70.97,72.25
270816,2018-06-29 11:05:55.000000,-77.47,72.25
270817,2018-06-29 11:05:55.031250,-67.61,72.25
270818,2018-06-29 11:05:55.062500,-40.53,72.25
270819,2018-06-29 11:05:55.093750,-8.73,72.25
270820,2018-06-29 11:05:55.125000,14.86,72.25
270821,2018-06-29 11:05:55.156250,26.7,72.25
270822,2018-06-29 11:05:55.187500,29.13,72.25
270823,2018-06-29 11:05:55.218750,25.24,72.25
270824,2018-06-29 11:05:55.250000,19.66,72.25
270825,2018-06-29 11:05:55.281250,17.62,72.25
270826,2018-06-29 11:05:55.312500,20.3,72.25
270827,2018-06-29 11:05:55.343750,24.45,72.25
270828,2018-06-29 11:05:55.375000,27.46,72.25
270829,2018-06-29 11:05:55.406250,29.33,72.25
270830,2018-06-29 11:05:55.437500,30.05,72.25
270831,2018-06-29 11:05:55.468750,28.67,72.25
270832,2018-06-29 11:05:55.500000,24.51,72.25
270833,2018-06-29 11:05:55.531250,17.87,72.28
270834,2018-06-29 11:05:55.562500,10.41,72.28
270835,2018-06-29 11:05:55.593750,3.96,72.28
270836,2018-06-29 11:05:55.625000,-1.88,72.28
270837,2018-06-29 11:05:55.656250,-9.45,72.28
270838,2018-06-29 11:05:55.687500,-19.68,72.28
270839,2018-06-29 11:05:55.718750,-30.92,72.28
270840,2018-06-29 11:05:55.750000,-41.58,72.28
270841,2018-06-29 11:05:55.781250,-51.93,72.28
270842,2018-06-29 11:05:55.812500,-63.76,72.28
270843,2018-06-29 11:05:55.843750,-79.05,72.28
270844,2018-06-29 11:05:55.875000,-95.08,72.28
270845,2018-06-29 11:05:55.906250,-100.09,72.28
270846,2018-06-29 11:05:55.937500,-82.7,72.28
270847,2018-06-29 11:05:55.968750,-47.09,72.28
270848,2018-06-29 11:05:56.000000,-9.82,72.28
270849,2018-06-29 11:05:56.031250,17.59,72.28
270850,2018-06-29 11:05:56.062500,34.21,72.28
270851,2018-06-29 11:05:56.093750,42.16,72.28
270852,2018-06-29 11:05:56.125000,43.22,72.28
270853,2018-06-29 11:05:56.156250,41.53,72.28
270854,2018-06-29 11:05:56.187500,41.99,72.28
270855,2018-06-29 11:05:56.218750,45.56,72.28
270856,2018-06-29 11:05:56.250000,49.5,72.28
270857,2018-06-29 11:05:56.281250,51.85,72.28
270858,2018-06-29 11:05:56.312500,52.53,72.28
270859,2018-06-29 11:05:56.343750,50.77,72.28
270860,2018-06-29 11:05:56.375000,45.07,72.28
270861,2018-06-29 11:05:56.406250,35.43,72.28
270862,2018-06-29 11:05:56.437500,23.58,72.28
270863,2018-06-29 11:05:56.468750,11.67,72.28
270864,2018-06-29 11:05:56.500000,0.73,72.28
270865,2018-06-29 11:05:56.531250,-10.42,72.28
270866,2018-06-29 11:05:56.562500,-23.19,72.28
270867,2018-06-29 11:05:56.593750,-36.38,72.28
270868,2018-06-29 11:05:56.625000,-47.12,72.28
270869,2018-06-29 11:05:56.656250,-54.75,72.28
270870,2018-06-29 11:05:56.687500,-62.0,72.28
270871,2018-06-29 11:05:56.718750,-72.39,72.28
270872,2018-06-29 11:05:56.750000,-85.59,72.28
270873,2018-06-29 11:05:56.781250,-92.65,72.28
270874,2018-06-29 11:05:56.812500,-80.71,72.28
270875,2018-06-29 11:05:56.843750,-47.6,72.28
270876,2018-06-29 11:05:56.875000,-6.73,72.28
270877,2018-06-29 11:05:56.906250,26.44,72.28
270878,2018-06-29 11:05:56.937500,46.12,72.28
270879,2018-06-29 11:05:56.968750,53.37,72.28
270880,2018-06-29 11:05:57.000000,51.32,72.28
270881,2018-06-29 11:05:57.031250,45.44,72.28
270882,2018-06-29 11:05:57.062500,41.66,72.28
270883,2018-06-29 11:05:57.093750,42.1,72.28
270884,2018-06-29 11:05:57.125000,44.67,72.28
270885,2018-06-29 11:05:57.156250,47.32,72.28
270886,2018-06-29 11:05:57.187500,49.74,72.28
270887,2018-06-29 11:05:57.218750,50.44,72.28
270888,2018-06-29 11:05:57.250000,46.06,72.28
270889,2018-06-29 11:05:57.281250,35.96,72.28
270890,2018-06-29 11:05:57.312500,24.07,72.28
270891,2018-06-29 11:05:57.343750,14.01,72.28
270892,2018-06-29 11:05:57.375000,4.99,72.28
270893,2018-06-29 11:05:57.406250,-5.79,72.28
270894,2018-06-29 11:05:57.437500,-18.65,72.28
270895,2018-06-29 11:05:57.468750,-31.14,72.28
270896,2018-06-29 11:05:57.500000,-41.45,72.28
270897,2018-06-29 11:05:57.531250,-50.9,72.27
270898,2018-06-29 11:05:57.562500,-63.1,72.27
270899,2018-06-29 11:05:57.593750,-78.73,72.27
270900,2018-06-29 11:05:57.625000,-89.12,72.27
270901,2018-06-29 11:05:57.656250,-79.6,72.27
270902,2018-06-29 11:05:57.687500,-46.09,72.27
270903,2018-06-29 11:05:57.718750,-3.01,72.27
270904,2018-06-29 11:05:57.750000,31.59,72.27
270905,2018-06-29 11:05:57.781250,51.13,72.27
270906,2018-06-29 11:05:57.812500,57.13,72.27
270907,2018-06-29 11:05:57.843750,52.86,72.27
270908,2018-06-29 11:05:57.875000,44.43,72.27
270909,2018-06-29 11:05:57.906250,38.49,72.27
270910,2018-06-29 11:05:57.937500,36.71,72.27
270911,2018-06-29 11:05:57.968750,36.95,72.27
270912,2018-06-29 11:05:58.000000,37.85,72.27
270913,2018-06-29 11:05:58.031250,38.44,72.27
270914,2018-06-29 11:05:58.062500,36.14,72.27
270915,2018-06-29 11:05:58.093750,29.17,72.27
270916,2018-06-29 11:05:58.125000,19.08,72.27
270917,2018-06-29 11:05:58.156250,8.31,72.27
270918,2018-06-29 11:05:58.187500,-3.18,72.27
270919,2018-06-29 11:05:58.218750,-16.41,72.27
270920,2018-06-29 11:05:58.250000,-30.1,72.27
270921,2018-06-29 11:05:58.281250,-41.52,72.27
270922,2018-06-29 11:05:58.312500,-49.75,72.27
270923,2018-06-29 11:05:58.343750,-57.19,72.27
270924,2018-06-29 11:05:58.375000,-68.05,72.27
270925,2018-06-29 11:05:58.406250,-82.06,72.27
270926,2018-06-29 11:05:58.437500,-88.04,72.27
270927,2018-06-29 11:05:58.468750,-71.34,72.27
270928,2018-06-29 11:05:58.500000,-32.36,72.27
270929,2018-06-29 11:05:58.531250,10.93,72.23
270930,2018-06-29 11:05:58.562500,41.95,72.23
270931,2018-06-29 11:05:58.593750,57.5,72.23
270932,2018-06-29 11:05:58.625000,60.95,72.23
270933,2018-06-29 11:05:58.656250,55.3,72.23
270934,2018-06-29 11:05:58.687500,45.53,72.23
270935,2018-06-29 11:05:58.718750,38.88,72.23
270936,2018-06-29 11:05:58.750000,38.97,72.23
270937,2018-06-29 11:05:58.781250,42.83,72.23
270938,2018-06-29 11:05:58.812500,45.0,72.23
270939,2018-06-29 11:05:58.843750,42.55,72.23
270940,2018-06-29 11:05:58.875000,35.56,72.23
270941,2018-06-29 11:05:58.906250,25.35,72.23
270942,2018-06-29 11:05:58.937500,12.78,72.23
270943,2018-06-29 11:05:58.968750,-2.33,72.23
270944,2018-06-29 11:05:59.000000,-19.17,72.23
270945,2018-06-29 11:05:59.031250,-34.9,72.23
270946,2018-06-29 11:05:59.062500,-47.45,72.23
270947,2018-06-29 11:05:59.093750,-57.98,72.23
270948,2018-06-29 11:05:59.125000,-69.77,72.23
270949,2018-06-29 11:05:59.156250,-85.57,72.23
270950,2018-06-29 11:05:59.187500,-100.9,72.23
270951,2018-06-29 11:05:59.218750,-100.27,72.23
270952,2018-06-29 11:05:59.250000,-71.6,72.23
270953,2018-06-29 11:05:59.281250,-24.08,72.23
270954,2018-06-29 11:05:59.312500,20.13,72.23
270955,2018-06-29 11:05:59.343750,48.26,72.23
270956,2018-06-29 11:05:59.375000,60.81,72.23
270957,2018-06-29 11:05:59.406250,61.39,72.23
270958,2018-06-29 11:05:59.437500,54.12,72.23
270959,2018-06-29 11:05:59.468750,45.99,72.23
270960,2018-06-29 11:05:59.500000,43.1,72.23
270961,2018-06-29 11:05:59.531250,44.69,72.18
270962,2018-06-29 11:05:59.562500,45.23,72.18
270963,2018-06-29 11:05:59.593750,42.03,72.18
270964,2018-06-29 11:05:59.625000,36.65,72.18
270965,2018-06-29 11:05:59.656250,30.05,72.18
270966,2018-06-29 11:05:59.687500,20.9,72.18
270967,2018-06-29 11:05:59.718750,8.07,72.18
270968,2018-06-29 11:05:59.750000,-7.63,72.18
270969,2018-06-29 11:05:59.781250,-23.71,72.18
270970,2018-06-29 11:05:59.812500,-37.51,72.18
270971,2018-06-29 11:05:59.843750,-48.83,72.18
270972,2018-06-29 11:05:59.875000,-61.1,72.18
270973,2018-06-29 11:05:59.906250,-78.08,72.18
270974,2018-06-29 11:05:59.937500,-95.21,72.18
270975,2018-06-29 11:05:59.968750,-96.37,72.18
270976,2018-06-29 11:06:00.000000,-68.87,72.18
270977,2018-06-29 11:06:00.031250,-21.24,72.18
270978,2018-06-29 11:06:00.062500,24.16,72.18
270979,2018-06-29 11:06:00.093750,53.43,72.18
270980,2018-06-29 11:06:00.125000,66.18,72.18
270981,2018-06-29 11:06:00.156250,65.76,72.18
270982,2018-06-29 11:06:00.187500,56.84,72.18
270983,2018-06-29 11:06:00.218750,47.63,72.18
270984,2018-06-29 11:06:00.250000,44.46,72.18
270985,2018-06-29 11:06:00.281250,45.95,72.18
270986,2018-06-29 11:06:00.312500,46.88,72.18
270987,2018-06-29 11:06:00.343750,45.17,72.18
270988,2018-06-29 11:06:00.375000,42.39,72.18
270989,2018-06-29 11:06:00.406250,38.71,72.18
270990,2018-06-29 11:06:00.437500,30.75,72.18
270991,2018-06-29 11:06:00.468750,16.44,72.18
270992,2018-06-29 11:06:00.500000,-0.73,72.18
270993,2018-06-29 11:06:00.531250,-15.53,72.15
270994,2018-06-29 11:06:00.562500,-27.0,72.15
270995,2018-06-29 11:06:00.593750,-38.27,72.15
270996,2018-06-29 11:06:00.625000,-52.87,72.15
270997,2018-06-29 11:06:00.656250,-70.71,72.15
270998,2018-06-29 11:06:00.687500,-82.72,72.15
270999,2018-06-29 11:06:00.718750,-73.53,72.15
271000,2018-06-29 11:06:00.750000,-38.44,72.15
271001,2018-06-29 11:06:00.781250,7.51,72.15
271002,2018-06-29 11:06:00.812500,44.16,72.15
271003,2018-06-29 11:06:00.843750,63.0,72.15
271004,2018-06-29 11:06:00.875000,65.49,72.15
271005,2018-06-29 11:06:00.906250,55.62,72.15
271006,2018-06-29 11:06:00.937500,40.48,72.15
271007,2018-06-29 11:06:00.968750,29.29,72.15
271008,2018-06-29 11:06:01.000000,25.87,72.15
271009,2018-06-29 11:06:01.031250,25.92,72.15
271010,2018-06-29 11:06:01.062500,24.26,72.15
271011,2018-06-29 11:06:01.093750,20.64,72.15
271012,2018-06-29 11:06:01.125000,15.91,72.15
271013,2018-06-29 11:06:01.156250,7.48,72.15
271014,2018-06-29 11:06:01.187500,-6.57,72.15
271015,2018-06-29 11:06:01.218750,-22.59,72.15
271016,2018-06-29 11:06:01.250000,-35.34,72.15
271017,2018-06-29 11:06:01.281250,-44.37,72.15
271018,2018-06-29 11:06:01.312500,-53.51,72.15
271019,2018-06-29 11:06:01.343750,-66.3,72.15
271020,2018-06-29 11:06:01.375000,-81.46,72.15
271021,2018-06-29 11:06:01.406250,-88.83,72.15
271022,2018-06-29 11:06:01.437500,-74.39,72.15
271023,2018-06-29 11:06:01.468750,-36.12,72.15
271024,2018-06-29 11:06:01.500000,10.49,72.15
271025,2018-06-29 11:06:01.531250,47.28,72.17
271026,2018-06-29 11:06:01.562500,66.8,72.17
271027,2018-06-29 11:06:01.593750,69.43,72.17
271028,2018-06-29 11:06:01.625000,58.78,72.17
271029,2018-06-29 11:06:01.656250,43.61,72.17
271030,2018-06-29 11:06:01.687500,34.02,72.17
271031,2018-06-29 11:06:01.718750,32.03,72.17
271032,2018-06-29 11:06:01.750000,31.23,72.17
271033,2018-06-29 11:06:01.781250,26.99,72.17
271034,2018-06-29 11:06:01.812500,20.92,72.17
271035,2018-06-29 11:06:01.843750,14.3,72.17
271036,2018-06-29 11:06:01.875000,3.78,72.17
271037,2018-06-29 11:06:01.906250,-12.99,72.17
271038,2018-06-29 11:06:01.937500,-32.01,72.17
271039,2018-06-29 11:06:01.968750,-47.11,72.17
271040,2018-06-29 11:06:02.000000,-57.45,72.17
271041,2018-06-29 11:06:02.031250,-68.5,72.17
271042,2018-06-29 11:06:02.062500,-85.07,72.17
271043,2018-06-29 11:06:02.093750,-101.82,72.17
271044,2018-06-29 11:06:02.125000,-101.92,72.17
271045,2018-06-29 11:06:02.156250,-72.57,72.17
271046,2018-06-29 11:06:02.187500,-21.98,72.17
271047,2018-06-29 11:06:02.218750,27.38,72.17
271048,2018-06-29 11:06:02.250000,60.52,72.17
271049,2018-06-29 11:06:02.281250,76.51,72.17
271050,2018-06-29 11:06:02.312500,78.76,72.17
271051,2018-06-29 11:06:02.343750,71.04,72.17
271052,2018-06-29 11:06:02.375000,61.06,72.17
271053,2018-06-29 11:06:02.406250,56.29,72.17
271054,2018-06-29 11:06:02.437500,55.82,72.17
271055,2018-06-29 11:06:02.468750,53.56,72.17
271056,2018-06-29 11:06:02.500000,48.07,72.17
271057,2018-06-29 11:06:02.531250,42.0,72.22
271058,2018-06-29 11:06:02.562500,34.42,72.22
271059,2018-06-29 11:06:02.593750,21.26,72.22
271060,2018-06-29 11:06:02.625000,2.35,72.22
271061,2018-06-29 11:06:02.656250,-17.47,72.22
271062,2018-06-29 11:06:02.687500,-33.8,72.22
271063,2018-06-29 11:06:02.718750,-46.58,72.22
271064,2018-06-29 11:06:02.750000,-59.23,72.22
271065,2018-06-29 11:06:02.781250,-75.8,72.22
271066,2018-06-29 11:06:02.812500,-95.54,72.22
271067,2018-06-29 11:06:02.843750,-106.4,72.22
271068,2018-06-29 11:06:02.875000,-91.28,72.22
271069,2018-06-29 11:06:02.906250,-48.35,72.22
271070,2018-06-29 11:06:02.937500,2.74,72.22
271071,2018-06-29 11:06:02.968750,41.32,72.22
271072,2018-06-29 11:06:03.000000,62.81,72.22
271073,2018-06-29 11:06:03.031250,71.53,72.22
271074,2018-06-29 11:06:03.062500,70.59,72.22
271075,2018-06-29 11:06:03.093750,64.63,72.22
271076,2018-06-29 11:06:03.125000,60.7,72.22
271077,2018-06-29 11:06:03.156250,61.15,72.22
271078,2018-06-29 11:06:03.187500,62.64,72.22
271079,2018-06-29 11:06:03.218750,63.02,72.22
271080,2018-06-29 11:06:03.250000,62.77,72.22
271081,2018-06-29 11:06:03.281250,59.79,72.22
271082,2018-06-29 11:06:03.312500,50.45,72.22
271083,2018-06-29 11:06:03.343750,35.94,72.22
271084,2018-06-29 11:06:03.375000,21.82,72.22
271085,2018-06-29 11:06:03.406250,10.06,72.22
271086,2018-06-29 11:06:03.437500,-3.11,72.22
271087,2018-06-29 11:06:03.468750,-19.78,72.22
271088,2018-06-29 11:06:03.500000,-36.19,72.22
271089,2018-06-29 11:06:03.531250,-48.39,72.28
271090,2018-06-29 11:06:03.562500,-58.15,72.28
271091,2018-06-29 11:06:03.593750,-70.98,72.28
271092,2018-06-29 11:06:03.625000,-89.73,72.28
271093,2018-06-29 11:06:03.656250,-106.98,72.28
271094,2018-06-29 11:06:03.687500,-105.01,72.28
271095,2018-06-29 11:06:03.718750,-72.62,72.28
271096,2018-06-29 11:06:03.750000,-21.17,72.28
271097,2018-06-29 11:06:03.781250,26.13,72.28
271098,2018-06-29 11:06:03.812500,56.6,72.28
271099,2018-06-29 11:06:03.843750,70.97,72.28
271100,2018-06-29 11:06:03.875000,72.99,72.28
271101,2018-06-29 11:06:03.906250,67.51,72.28
271102,2018-06-29 11:06:03.937500,62.02,72.28
271103,2018-06-29 11:06:03.968750,61.28,72.28
271104,2018-06-29 11:06:04.000000,63.06,72.28
271105,2018-06-29 11:06:04.031250,62.9,72.28
271106,2018-06-29 11:06:04.062500,60.07,72.28
271107,2018-06-29 11:06:04.093750,56.33,72.28
271108,2018-06-29 11:06:04.125000,51.22,72.28
271109,2018-06-29 11:06:04.156250,42.24,72.28
271110,2018-06-29 11:06:04.187500,29.32,72.28
271111,2018-06-29 11:06:04.218750,16.24,72.28
271112,2018-06-29 11:06:04.250000,5.73,72.28
271113,2018-06-29 11:06:04.281250,-4.3,72.28
271114,2018-06-29 11:06:04.312500,-17.18,72.28
271115,2018-06-29 11:06:04.343750,-31.61,72.28
271116,2018-06-29 11:06:04.375000,-43.4,72.28
271117,2018-06-29 11:06:04.406250,-51.86,72.28
271118,2018-06-29 11:06:04.437500,-60.69,72.28
271119,2018-06-29 11:06:04.468750,-73.41,72.28
271120,2018-06-29 11:06:04.500000,-88.91,72.28
271121,2018-06-29 11:06:04.531250,-98.09,72.38
271122,2018-06-29 11:06:04.562500,-87.45,72.38
271123,2018-06-29 11:06:04.593750,-53.61,72.38
271124,2018-06-29 11:06:04.625000,-10.64,72.38
271125,2018-06-29 11:06:04.656250,23.49,72.38
271126,2018-06-29 11:06:04.687500,41.99,72.38
271127,2018-06-29 11:06:04.718750,47.15,72.38
271128,2018-06-29 11:06:04.750000,43.03,72.38
271129,2018-06-29 11:06:04.781250,35.55,72.38
271130,2018-06-29 11:06:04.812500,31.57,72.38
271131,2018-06-29 11:06:04.843750,32.9,72.38
271132,2018-06-29 11:06:04.875000,35.43,72.38
271133,2018-06-29 11:06:04.906250,35.95,72.38
271134,2018-06-29 11:06:04.937500,35.18,72.38
271135,2018-06-29 11:06:04.968750,33.09,72.38
271136,2018-06-29 11:06:05.000000,27.03,72.38
271137,2018-06-29 11:06:05.031250,16.52,72.38
271138,2018-06-29 11:06:05.062500,5.39,72.38
271139,2018-06-29 11:06:05.093750,-3.14,72.38
271140,2018-06-29 11:06:05.125000,-10.72,72.38
271141,2018-06-29 11:06:05.156250,-20.61,72.38
271142,2018-06-29 11:06:05.187500,-32.12,72.38
271143,2018-06-29 11:06:05.218750,-41.44,72.38
271144,2018-06-29 11:06:05.250000,-47.72,72.38
271145,2018-06-29 11:06:05.281250,-54.8,72.38
271146,2018-06-29 11:06:05.312500,-67.13,72.38
271147,2018-06-29 11:06:05.343750,-83.2,72.38
271148,2018-06-29 11:06:05.375000,-91.46,72.38
271149,2018-06-29 11:06:05.406250,-78.04,72.38
271150,2018-06-29 11:06:05.437500,-43.0,72.38
271151,2018-06-29 11:06:05.468750,-2.69,72.38
271152,2018-06-29 11:06:05.500000,27.63,72.38
271153,2018-06-29 11:06:05.531250,45.26,72.47
271154,2018-06-29 11:06:05.562500,52.85,72.47
271155,2018-06-29 11:06:05.593750,51.75,72.47
271156,2018-06-29 11:06:05.625000,45.87,72.47
271157,2018-06-29 11:06:05.656250,42.25,72.47
271158,2018-06-29 11:06:05.687500,43.54,72.47
271159,2018-06-29 11:06:05.718750,45.8,72.47
271160,2018-06-29 11:06:05.750000,45.82,72.47
271161,2018-06-29 11:06:05.781250,44.72,72.47
271162,2018-06-29 11:06:05.812500,42.53,72.47
271163,2018-06-29 11:06:05.843750,36.05,72.47
271164,2018-06-29 11:06:05.875000,24.51,72.47
271165,2018-06-29 11:06:05.906250,12.47,72.47
271166,2018-06-29 11:06:05.937500,3.75,72.47
271167,2018-06-29 11:06:05.968750,-4.2,72.47
271168,2018-06-29 11:06:06.000000,-15.61,72.47
271169,2018-06-29 11:06:06.031250,-29.3,72.47
271170,2018-06-29 11:06:06.062500,-40.25,72.47
271171,2018-06-29 11:06:06.093750,-47.14,72.47
271172,2018-06-29 11:06:06.125000,-54.26,72.47
271173,2018-06-29 11:06:06.156250,-66.29,72.47
271174,2018-06-29 11:06:06.187500,-82.28,72.47
271175,2018-06-29 11:06:06.218750,-92.09,72.47
271176,2018-06-29 11:06:06.250000,-82.22,72.47
271177,2018-06-29 11:06:06.281250,-50.5,72.47
271178,2018-06-29 11:06:06.312500,-11.1,72.47
271179,2018-06-29 11:06:06.343750,19.71,72.47
271180,2018-06-29 11:06:06.375000,37.01,72.47
271181,2018-06-29 11:06:06.406250,43.96,72.47
271182,2018-06-29 11:06:06.437500,43.87,72.47
271183,2018-06-29 11:06:06.468750,40.03,72.47
271184,2018-06-29 11:06:06.500000,36.98,72.47
271185,2018-06-29 11:06:06.531250,36.96,72.53
271186,2018-06-29 11:06:06.562500,37.87,72.53
271187,2018-06-29 11:06:06.593750,37.59,72.53
271188,2018-06-29 11:06:06.625000,37.13,72.53
271189,2018-06-29 11:06:06.656250,36.6,72.53
271190,2018-06-29 11:06:06.687500,32.71,72.53
271191,2018-06-29 11:06:06.718750,23.84,72.53
271192,2018-06-29 11:06:06.750000,13.42,72.53
271193,2018-06-29 11:06:06.781250,5.18,72.53
271194,2018-06-29 11:06:06.812500,-1.84,72.53
271195,2018-06-29 11:06:06.843750,-10.53,72.53
271196,2018-06-29 11:06:06.875000,-20.36,72.53
271197,2018-06-29 11:06:06.906250,-28.42,72.53
271198,2018-06-29 11:06:06.937500,-34.17,72.53
271199,2018-06-29 11:06:06.968750,-40.35,72.53
271200,2018-06-29 11:06:07.000000,-49.99,72.53
271201,2018-06-29 11:06:07.031250,-62.06,72.53
271202,2018-06-29 11:06:07.062500,-67.69,72.53
271203,2018-06-29 11:06:07.093750,-55.42,72.53
271204,2018-06-29 11:06:07.125000,-25.1,72.53
271205,2018-06-29 11:06:07.156250,8.99,72.53
271206,2018-06-29 11:06:07.187500,32.73,72.53
271207,2018-06-29 11:06:07.218750,42.93,72.53
271208,2018-06-29 11:06:07.250000,42.92,72.53
271209,2018-06-29 11:06:07.281250,36.64,72.53
271210,2018-06-29 11:06:07.312500,28.57,72.53
271211,2018-06-29 11:06:07.343750,22.87,72.53
271212,2018-06-29 11:06:07.375000,20.55,72.53
271213,2018-06-29 11:06:07.406250,19.54,72.53
271214,2018-06-29 11:06:07.437500,17.76,72.53
271215,2018-06-29 11:06:07.468750,14.61,72.53
271216,2018-06-29 11:06:07.500000,9.73,72.53
271217,2018-06-29 11:06:07.531250,2.64,72.57
271218,2018-06-29 11:06:07.562500,-6.0,72.57
271219,2018-06-29 11:06:07.593750,-14.98,72.57
271220,2018-06-29 11:06:07.625000,-23.89,72.57
271221,2018-06-29 11:06:07.656250,-32.65,72.57
271222,2018-06-29 11:06:07.687500,-40.52,72.57
271223,2018-06-29 11:06:07.718750,-46.69,72.57
271224,2018-06-29 11:06:07.750000,-51.51,72.57
271225,2018-06-29 11:06:07.781250,-57.13,72.57
271226,2018-06-29 11:06:07.812500,-65.59,72.57
271227,2018-06-29 11:06:07.843750,-72.79,72.57
271228,2018-06-29 11:06:07.875000,-67.55,72.57
271229,2018-06-29 11:06:07.906250,-43.77,72.57
271230,2018-06-29 11:06:07.937500,-10.1,72.57
271231,2018-06-29 11:06:07.968750,18.86,72.57
271232,2018-06-29 11:06:08.000000,35.94,72.57
271233,2018-06-29 11:06:08.031250,41.59,72.57
271234,2018-06-29 11:06:08.062500,38.17,72.57
271235,2018-06-29 11:06:08.093750,29.95,72.57
271236,2018-06-29 11:06:08.125000,22.97,72.57
271237,2018-06-29 11:06:08.156250,20.67,72.57
271238,2018-06-29 11:06:08.187500,21.79,72.57
271239,2018-06-29 11:06:08.218750,23.29,72.57
271240,2018-06-29 11:06:08.250000,22.98,72.57
271241,2018-06-29 11:06:08.281250,19.82,72.57
271242,2018-06-29 11:06:08.312500,13.68,72.57
271243,2018-06-29 11:06:08.343750,5.28,72.57
271244,2018-06-29 11:06:08.375000,-4.42,72.57
271245,2018-06-29 11:06:08.406250,-14.87,72.57
271246,2018-06-29 11:06:08.437500,-25.63,72.57
271247,2018-06-29 11:06:08.468750,-35.71,72.57
271248,2018-06-29 11:06:08.500000,-44.47,72.57
271249,2018-06-29 11:06:08.531250,-53.3,72.62
271250,2018-06-29 11:06:08.562500,-65.03,72.62
271251,2018-06-29 11:06:08.593750,-79.59,72.62
271252,2018-06-29 11:06:08.625000,-88.62,72.62
271253,2018-06-29 11:06:08.656250,-79.06,72.62
271254,2018-06-29 11:06:08.687500,-47.59,72.62
271255,2018-06-29 11:06:08.718750,-7.28,72.62
271256,2018-06-29 11:06:08.750000,25.16,72.62
271257,2018-06-29 11:06:08.781250,43.48,72.62
271258,2018-06-29 11:06:08.812500,50.3,72.62
271259,2018-06-29 11:06:08.843750,49.53,72.62
271260,2018-06-29 11:06:08.875000,45.21,72.62
271261,2018-06-29 11:06:08.906250,41.68,72.62
271262,2018-06-29 11:06:08.937500,40.85,72.62
271263,2018-06-29 11:06:08.968750,41.32,72.62
271264,2018-06-29 11:06:09.000000,41.59,72.62
271265,2018-06-29 11:06:09.031250,41.07,72.62
271266,2018-06-29 11:06:09.062500,38.05,72.62
271267,2018-06-29 11:06:09.093750,30.7,72.62
271268,2018-06-29 11:06:09.125000,20.12,72.62
271269,2018-06-29 11:06:09.156250,8.93,72.62
271270,2018-06-29 11:06:09.187500,-2.45,72.62
271271,2018-06-29 11:06:09.218750,-15.08,72.62
271272,2018-06-29 11:06:09.250000,-28.38,72.62
271273,2018-06-29 11:06:09.281250,-40.27,72.62
271274,2018-06-29 11:06:09.312500,-50.15,72.62
271275,2018-06-29 11:06:09.343750,-60.46,72.62
271276,2018-06-29 11:06:09.375000,-74.76,72.62
271277,2018-06-29 11:06:09.406250,-90.43,72.62
271278,2018-06-29 11:06:09.437500,-94.15,72.62
271279,2018-06-29 11:06:09.468750,-72.81,72.62
271280,2018-06-29 11:06:09.500000,-30.61,72.62
271281,2018-06-29 11:06:09.531250,13.23,72.63
271282,2018-06-29 11:06:09.562500,43.96,72.63
271283,2018-06-29 11:06:09.593750,60.0,72.63
271284,2018-06-29 11:06:09.625000,64.91,72.63
271285,2018-06-29 11:06:09.656250,62.02,72.63
271286,2018-06-29 11:06:09.687500,56.44,72.63
271287,2018-06-29 11:06:09.718750,53.48,72.63
271288,2018-06-29 11:06:09.750000,53.9,72.63
271289,2018-06-29 11:06:09.781250,55.14,72.63
271290,2018-06-29 11:06:09.812500,55.92,72.63
271291,2018-06-29 11:06:09.843750,55.54,72.63
271292,2018-06-29 11:06:09.875000,51.4,72.63
271293,2018-06-29 11:06:09.906250,41.89,72.63
271294,2018-06-29 11:06:09.937500,29.53,72.63
271295,2018-06-29 11:06:09.968750,17.68,72.63
271296,2018-06-29 11:06:10.000000,6.09,72.63
271297,2018-06-29 11:06:10.031250,-7.18,72.63
271298,2018-06-29 11:06:10.062500,-21.02,72.63
271299,2018-06-29 11:06:10.093750,-32.55,72.63
271300,2018-06-29 11:06:10.125000,-41.6,72.63
271301,2018-06-29 11:06:10.156250,-51.87,72.63
271302,2018-06-29 11:06:10.187500,-66.54,72.63
271303,2018-06-29 11:06:10.218750,-80.76,72.63
271304,2018-06-29 11:06:10.250000,-79.87,72.63
271305,2018-06-29 11:06:10.281250,-52.9,72.63
271306,2018-06-29 11:06:10.312500,-7.93,72.63
271307,2018-06-29 11:06:10.343750,34.79,72.63
271308,2018-06-29 11:06:10.375000,63.15,72.63
271309,2018-06-29 11:06:10.406250,77.71,72.63
271310,2018-06-29 11:06:10.437500,81.84,72.63
271311,2018-06-29 11:06:10.468750,79.06,72.63
271312,2018-06-29 11:06:10.500000,75.32,72.63
271313,2018-06-29 11:06:10.531250,75.15,72.62
271314,2018-06-29 11:06:10.562500,78.21,72.62
271315,2018-06-29 11:06:10.593750,82.73,72.62
271316,2018-06-29 11:06:10.625000,87.88,72.62
271317,2018-06-29 11:06:10.656250,90.33,72.62
271318,2018-06-29 11:06:10.687500,83.12,72.62
271319,2018-06-29 11:06:10.718750,63.09,72.62
271320,2018-06-29 11:06:10.750000,36.3,72.62
271321,2018-06-29 11:06:10.781250,9.59,72.62
271322,2018-06-29 11:06:10.812500,-18.32,72.62
271323,2018-06-29 11:06:10.843750,-50.25,72.62
271324,2018-06-29 11:06:10.875000,-81.78,72.62
271325,2018-06-29 11:06:10.906250,-105.52,72.62
271326,2018-06-29 11:06:10.937500,-118.19,72.62
271327,2018-06-29 11:06:10.968750,-121.47,72.62
271328,2018-06-29 11:06:11.000000,-120.6,72.62
271329,2018-06-29 11:06:11.031250,-118.27,72.62
271330,2018-06-29 11:06:11.062500,-107.76,72.62
271331,2018-06-29 11:06:11.093750,-80.55,72.62
271332,2018-06-29 11:06:11.125000,-40.66,72.62
271333,2018-06-29 11:06:11.156250,-2.39,72.62
271334,2018-06-29 11:06:11.187500,24.14,72.62
271335,2018-06-29 11:06:11.218750,37.25,72.62
271336,2018-06-29 11:06:11.250000,37.99,72.62
271337,2018-06-29 11:06:11.281250,28.97,72.62
271338,2018-06-29 11:06:11.312500,17.25,72.62
271339,2018-06-29 11:06:11.343750,10.76,72.62
271340,2018-06-29 11:06:11.375000,10.74,72.62
271341,2018-06-29 11:06:11.406250,11.8,72.62
271342,2018-06-29 11:06:11.437500,9.21,72.62
271343,2018-06-29 11:06:11.468750,3.66,72.62
271344,2018-06-29 11:06:11.500000,-2.13,72.62
271345,2018-06-29 11:06:11.531250,-8.24,72.62
271346,2018-06-29 11:06:11.562500,-16.89,72.62
271347,2018-06-29 11:06:11.593750,-27.94,72.62
271348,2018-06-29 11:06:11.625000,-37.77,72.62
271349,2018-06-29 11:06:11.656250,-43.55,72.62
271350,2018-06-29 11:06:11.687500,-47.17,72.62
271351,2018-06-29 11:06:11.718750,-53.58,72.62
271352,2018-06-29 11:06:11.750000,-64.54,72.62
271353,2018-06-29 11:06:11.781250,-72.84,72.62
271354,2018-06-29 11:06:11.812500,-64.8,72.62
271355,2018-06-29 11:06:11.843750,-34.13,72.62
271356,2018-06-29 11:06:11.875000,8.88,72.62
271357,2018-06-29 11:06:11.906250,46.98,72.62
271358,2018-06-29 11:06:11.937500,70.98,72.62
271359,2018-06-29 11:06:11.968750,80.65,72.62
271360,2018-06-29 11:06:12.000000,78.2,72.62
271361,2018-06-29 11:06:12.031250,67.04,72.62
271362,2018-06-29 11:06:12.062500,52.86,72.62
271363,2018-06-29 11:06:12.093750,41.31,72.62
271364,2018-06-29 11:06:12.125000,34.43,72.62
271365,2018-06-29 11:06:12.156250,30.57,72.62
271366,2018-06-29 11:06:12.187500,27.59,72.62
271367,2018-06-29 11:06:12.218750,24.45,72.62
271368,2018-06-29 11:06:12.250000,19.02,72.62
271369,2018-06-29 11:06:12.281250,8.28,72.62
271370,2018-06-29 11:06:12.312500,-7.09,72.62
271371,2018-06-29 11:06:12.343750,-21.57,72.62
271372,2018-06-29 11:06:12.375000,-31.27,72.62
271373,2018-06-29 11:06:12.406250,-39.09,72.62
271374,2018-06-29 11:06:12.437500,-50.87,72.62
271375,2018-06-29 11:06:12.468750,-66.64,72.62
271376,2018-06-29 11:06:12.500000,-75.49,72.62
271377,2018-06-29 11:06:12.531250,-63.07,72.6
271378,2018-06-29 11:06:12.562500,-27.78,72.6
271379,2018-06-29 11:06:12.593750,15.38,72.6
271380,2018-06-29 11:06:12.625000,50.1,72.6
271381,2018-06-29 11:06:12.656250,70.8,72.6
271382,2018-06-29 11:06:12.687500,78.75,72.6
271383,2018-06-29 11:06:12.718750,76.42,72.6
271384,2018-06-29 11:06:12.750000,69.3,72.6
271385,2018-06-29 11:06:12.781250,64.99,72.6
271386,2018-06-29 11:06:12.812500,66.69,72.6
271387,2018-06-29 11:06:12.843750,71.16,72.6
271388,2018-06-29 11:06:12.875000,74.36,72.6
271389,2018-06-29 11:06:12.906250,75.96,72.6
271390,2018-06-29 11:06:12.937500,76.79,72.6
271391,2018-06-29 11:06:12.968750,75.7,72.6
271392,2018-06-29 11:06:13.000000,70.87,72.6
271393,2018-06-29 11:06:13.031250,62.38,72.6
271394,2018-06-29 11:06:13.062500,52.83,72.6
