,Time,ppg,hr
272000,2018-06-29 11:06:32.000000,-61.9,72.98
272001,2018-06-29 11:06:32.031250,-80.06,72.98
272002,2018-06-29 11:06:32.062500,-100.39,72.98
272003,2018-06-29 11:06:32.093750,-125.49,72.98
272004,2018-06-29 11:06:32.125000,-143.98,72.98
272005,2018-06-29 11:06:32.156250,-137.05,72.98
272006,2018-06-29 11:06:32.187500,-99.8,72.98
272007,2018-06-29 11:06:32.218750,-49.35,72.98
272008,2018-06-29 11:06:32.250000,-7.56,72.98
272009,2018-06-29 11:06:32.281250,15.48,72.98
272010,2018-06-29 11:06:32.312500,20.33,72.98
272011,2018-06-29 11:06:32.343750,13.51,72.98
272012,2018-06-29 11:06:32.375000,7.27,72.98
272013,2018-06-29 11:06:32.406250,13.13,72.98
272014,2018-06-29 11:06:32.437500,30.83,72.98
272015,2018-06-29 11:06:32.468750,47.94,72.98
272016,2018-06-29 11:06:32.500000,53.37,72.98
272017,2018-06-29 11:06:32.531250,47.81,72.88
272018,2018-06-29 11:06:32.562500,37.28,72.88
272019,2018-06-29 11:06:32.593750,21.82,72.88
272020,2018-06-29 11:06:32.625000,-3.1,72.88
272021,2018-06-29 11:06:32.656250,-37.02,72.88
272022,2018-06-29 11:06:32.687500,-73.14,72.88
272023,2018-06-29 11:06:32.718750,-105.24,72.88
272024,2018-06-29 11:06:32.750000,-130.72,72.88
272025,2018-06-29 11:06:32.781250,-147.59,72.88
272026,2018-06-29 11:06:32.812500,-153.67,72.88
272027,2018-06-29 11:06:32.843750,-150.23,72.88
272028,2018-06-29 11:06:32.875000,-144.32,72.88
272029,2018-06-29 11:06:32.906250,-146.04,72.88
272030,2018-06-29 11:06:32.937500,-161.61,72.88
272031,2018-06-29 11:06:32.968750,-183.41,72.88
272032,2018-06-29 11:06:33.000000,-188.8,72.88
272033,2018-06-29 11:06:33.031250,-159.12,72.88
272034,2018-06-29 11:06:33.062500,-100.11,72.88
272035,2018-06-29 11:06:33.093750,-35.17,72.88
272036,2018-06-29 11:06:33.125000,17.98,72.88
272037,2018-06-29 11:06:33.156250,55.52,72.88
272038,2018-06-29 11:06:33.187500,79.63,72.88
272039,2018-06-29 11:06:33.218750,94.42,72.88
272040,2018-06-29 11:06:33.250000,106.79,72.88
272041,2018-06-29 11:06:33.281250,121.96,72.88
272042,2018-06-29 11:06:33.312500,138.05,72.88
272043,2018-06-29 11:06:33.343750,150.06,72.88
272044,2018-06-29 11:06:33.375000,157.48,72.88
272045,2018-06-29 11:06:33.406250,162.97,72.88
272046,2018-06-29 11:06:33.437500,165.4,72.88
272047,2018-06-29 11:06:33.468750,160.12,72.88
272048,2018-06-29 11:06:33.500000,146.89,72.88
272049,2018-06-29 11:06:33.531250,132.22,72.77
272050,2018-06-29 11:06:33.562500,119.52,72.77
272051,2018-06-29 11:06:33.593750,103.49,72.77
272052,2018-06-29 11:06:33.625000,80.88,72.77
272053,2018-06-29 11:06:33.656250,58.1,72.77
272054,2018-06-29 11:06:33.687500,41.24,72.77
272055,2018-06-29 11:06:33.718750,27.5,72.77
272056,2018-06-29 11:06:33.750000,10.62,72.77
272057,2018-06-29 11:06:33.781250,-12.72,72.77
272058,2018-06-29 11:06:33.812500,-37.23,72.77
272059,2018-06-29 11:06:33.843750,-44.42,72.77
272060,2018-06-29 11:06:33.875000,-16.58,72.77
272061,2018-06-29 11:06:33.906250,39.36,72.77
272062,2018-06-29 11:06:33.937500,95.91,72.77
272063,2018-06-29 11:06:33.968750,132.95,72.77
272064,2018-06-29 11:06:34.000000,148.44,72.77
272065,2018-06-29 11:06:34.031250,147.18,72.77
272066,2018-06-29 11:06:34.062500,134.81,72.77
272067,2018-06-29 11:06:34.093750,120.03,72.77
272068,2018-06-29 11:06:34.125000,110.67,72.77
272069,2018-06-29 11:06:34.156250,106.81,72.77
272070,2018-06-29 11:06:34.187500,103.14,72.77
272071,2018-06-29 11:06:34.218750,97.66,72.77
272072,2018-06-29 11:06:34.250000,91.9,72.77
272073,2018-06-29 11:06:34.281250,84.07,72.77
272074,2018-06-29 11:06:34.312500,69.36,72.77
272075,2018-06-29 11:06:34.343750,47.8,72.77
272076,2018-06-29 11:06:34.375000,25.55,72.77
272077,2018-06-29 11:06:34.406250,7.76,72.77
272078,2018-06-29 11:06:34.437500,-6.55,72.77
272079,2018-06-29 11:06:34.468750,-21.99,72.77
272080,2018-06-29 11:06:34.500000,-40.44,72.77
272081,2018-06-29 11:06:34.531250,-58.8,72.67
272082,2018-06-29 11:06:34.562500,-73.39,72.67
272083,2018-06-29 11:06:34.593750,-84.96,72.67
272084,2018-06-29 11:06:34.625000,-98.81,72.67
272085,2018-06-29 11:06:34.656250,-119.84,72.67
272086,2018-06-29 11:06:34.687500,-142.2,72.67
272087,2018-06-29 11:06:34.718750,-144.26,72.67
272088,2018-06-29 11:06:34.750000,-107.65,72.67
272089,2018-06-29 11:06:34.781250,-41.67,72.67
272090,2018-06-29 11:06:34.812500,24.33,72.67
272091,2018-06-29 11:06:34.843750,70.2,72.67
272092,2018-06-29 11:06:34.875000,94.15,72.67
272093,2018-06-29 11:06:34.906250,101.02,72.67
272094,2018-06-29 11:06:34.937500,96.16,72.67
272095,2018-06-29 11:06:34.968750,87.37,72.67
272096,2018-06-29 11:06:35.000000,81.89,72.67
272097,2018-06-29 11:06:35.031250,80.88,72.67
272098,2018-06-29 11:06:35.062500,80.76,72.67
272099,2018-06-29 11:06:35.093750,78.95,72.67
272100,2018-06-29 11:06:35.125000,75.27,72.67
272101,2018-06-29 11:06:35.156250,69.27,72.67
272102,2018-06-29 11:06:35.187500,59.55,72.67
272103,2018-06-29 11:06:35.218750,46.15,72.67
272104,2018-06-29 11:06:35.250000,31.26,72.67
272105,2018-06-29 11:06:35.281250,17.29,72.67
272106,2018-06-29 11:06:35.312500,4.98,72.67
272107,2018-06-29 11:06:35.343750,-6.66,72.67
272108,2018-06-29 11:06:35.375000,-19.35,72.67
272109,2018-06-29 11:06:35.406250,-33.68,72.67
272110,2018-06-29 11:06:35.437500,-47.63,72.67
272111,2018-06-29 11:06:35.468750,-58.7,72.67
272112,2018-06-29 11:06:35.500000,-68.23,72.67
272113,2018-06-29 11:06:35.531250,-81.04,72.62
272114,2018-06-29 11:06:35.562500,-99.81,72.62
272115,2018-06-29 11:06:35.593750,-116.43,72.62
272116,2018-06-29 11:06:35.625000,-111.82,72.62
272117,2018-06-29 11:06:35.656250,-73.99,72.62
272118,2018-06-29 11:06:35.687500,-14.96,72.62
272119,2018-06-29 11:06:35.718750,39.47,72.62
272120,2018-06-29 11:06:35.750000,73.14,72.62
272121,2018-06-29 11:06:35.781250,85.65,72.62
272122,2018-06-29 11:06:35.812500,83.48,72.62
272123,2018-06-29 11:06:35.843750,74.31,72.62
272124,2018-06-29 11:06:35.875000,65.43,72.62
272125,2018-06-29 11:06:35.906250,61.06,72.62
272126,2018-06-29 11:06:35.937500,60.86,72.62
272127,2018-06-29 11:06:35.968750,61.97,72.62
272128,2018-06-29 11:06:36.000000,62.16,72.62
272129,2018-06-29 11:06:36.031250,60.25,72.62
272130,2018-06-29 11:06:36.062500,55.19,72.62
272131,2018-06-29 11:06:36.093750,46.46,72.62
272132,2018-06-29 11:06:36.125000,34.8,72.62
272133,2018-06-29 11:06:36.156250,22.1,72.62
272134,2018-06-29 11:06:36.187500,10.43,72.62
272135,2018-06-29 11:06:36.218750,0.49,72.62
272136,2018-06-29 11:06:36.250000,-8.51,72.62
272137,2018-06-29 11:06:36.281250,-17.79,72.62
272138,2018-06-29 11:06:36.312500,-28.06,72.62
272139,2018-06-29 11:06:36.343750,-38.71,72.62
272140,2018-06-29 11:06:36.375000,-48.32,72.62
272141,2018-06-29 11:06:36.406250,-56.92,72.62
272142,2018-06-29 11:06:36.437500,-66.76,72.62
272143,2018-06-29 11:06:36.468750,-80.19,72.62
272144,2018-06-29 11:06:36.500000,-94.61,72.62
272145,2018-06-29 11:06:36.531250,-98.47,72.57
272146,2018-06-29 11:06:36.562500,-78.89,72.57
272147,2018-06-29 11:06:36.593750,-37.99,72.57
272148,2018-06-29 11:06:36.625000,5.82,72.57
272149,2018-06-29 11:06:36.656250,36.32,72.57
272150,2018-06-29 11:06:36.687500,51.13,72.57
272151,2018-06-29 11:06:36.718750,54.09,72.57
272152,2018-06-29 11:06:36.750000,48.57,72.57
272153,2018-06-29 11:06:36.781250,39.97,72.57
272154,2018-06-29 11:06:36.812500,34.93,72.57
272155,2018-06-29 11:06:36.843750,35.21,72.57
272156,2018-06-29 11:06:36.875000,37.33,72.57
272157,2018-06-29 11:06:36.906250,38.18,72.57
272158,2018-06-29 11:06:36.937500,37.25,72.57
272159,2018-06-29 11:06:36.968750,34.21,72.57
272160,2018-06-29 11:06:37.000000,28.09,72.57
272161,2018-06-29 11:06:37.031250,18.94,72.57
272162,2018-06-29 11:06:37.062500,8.38,72.57
272163,2018-06-29 11:06:37.093750,-1.82,72.57
272164,2018-06-29 11:06:37.125000,-10.94,72.57
272165,2018-06-29 11:06:37.156250,-19.55,72.57
272166,2018-06-29 11:06:37.187500,-28.81,72.57
272167,2018-06-29 11:06:37.218750,-38.98,72.57
272168,2018-06-29 11:06:37.250000,-48.74,72.57
272169,2018-06-29 11:06:37.281250,-56.79,72.57
272170,2018-06-29 11:06:37.312500,-63.88,72.57
272171,2018-06-29 11:06:37.343750,-72.73,72.57
272172,2018-06-29 11:06:37.375000,-84.46,72.57
272173,2018-06-29 11:06:37.406250,-92.76,72.57
272174,2018-06-29 11:06:37.437500,-85.29,72.57
272175,2018-06-29 11:06:37.468750,-57.1,72.57
272176,2018-06-29 11:06:37.500000,-19.43,72.57
272177,2018-06-29 11:06:37.531250,11.53,72.5
272178,2018-06-29 11:06:37.562500,29.75,72.5
272179,2018-06-29 11:06:37.593750,37.7,72.5
272180,2018-06-29 11:06:37.625000,37.94,72.5
272181,2018-06-29 11:06:37.656250,33.31,72.5
272182,2018-06-29 11:06:37.687500,28.97,72.5
272183,2018-06-29 11:06:37.718750,28.43,72.5
272184,2018-06-29 11:06:37.750000,30.68,72.5
272185,2018-06-29 11:06:37.781250,32.95,72.5
272186,2018-06-29 11:06:37.812500,33.79,72.5
272187,2018-06-29 11:06:37.843750,32.98,72.5
272188,2018-06-29 11:06:37.875000,30.26,72.5
272189,2018-06-29 11:06:37.906250,24.89,72.5
272190,2018-06-29 11:06:37.937500,16.75,72.5
272191,2018-06-29 11:06:37.968750,7.23,72.5
272192,2018-06-29 11:06:38.000000,-1.77,72.5
272193,2018-06-29 11:06:38.031250,-9.18,72.5
272194,2018-06-29 11:06:38.062500,-15.55,72.5
272195,2018-06-29 11:06:38.093750,-22.77,72.5
272196,2018-06-29 11:06:38.125000,-31.96,72.5
272197,2018-06-29 11:06:38.156250,-41.67,72.5
272198,2018-06-29 11:06:38.187500,-49.66,72.5
272199,2018-06-29 11:06:38.218750,-56.06,72.5
272200,2018-06-29 11:06:38.250000,-63.67,72.5
272201,2018-06-29 11:06:38.281250,-74.79,72.5
272202,2018-06-29 11:06:38.312500,-85.12,72.5
272203,2018-06-29 11:06:38.343750,-82.88,72.5
272204,2018-06-29 11:06:38.375000,-60.81,72.5
272205,2018-06-29 11:06:38.406250,-26.78,72.5
272206,2018-06-29 11:06:38.437500,4.02,72.5
272207,2018-06-29 11:06:38.468750,23.5,72.5
272208,2018-06-29 11:06:38.500000,32.13,72.5
272209,2018-06-29 11:06:38.531250,32.67,72.4
272210,2018-06-29 11:06:38.562500,28.74,72.4
272211,2018-06-29 11:06:38.593750,25.09,72.4
272212,2018-06-29 11:06:38.625000,24.8,72.4
272213,2018-06-29 11:06:38.656250,26.98,72.4
272214,2018-06-29 11:06:38.687500,28.72,72.4
272215,2018-06-29 11:06:38.718750,28.9,72.4
272216,2018-06-29 11:06:38.750000,28.58,72.4
272217,2018-06-29 11:06:38.781250,27.72,72.4
272218,2018-06-29 11:06:38.812500,24.75,72.4
272219,2018-06-29 11:06:38.843750,19.37,72.4
272220,2018-06-29 11:06:38.875000,12.92,72.4
272221,2018-06-29 11:06:38.906250,6.02,72.4
272222,2018-06-29 11:06:38.937500,-1.43,72.4
272223,2018-06-29 11:06:38.968750,-9.18,72.4
272224,2018-06-29 11:06:39.000000,-17.21,72.4
272225,2018-06-29 11:06:39.031250,-25.91,72.4
272226,2018-06-29 11:06:39.062500,-34.93,72.4
272227,2018-06-29 11:06:39.093750,-43.14,72.4
272228,2018-06-29 11:06:39.125000,-49.99,72.4
272229,2018-06-29 11:06:39.156250,-56.85,72.4
272230,2018-06-29 11:06:39.187500,-66.58,72.4
272231,2018-06-29 11:06:39.218750,-78.39,72.4
272232,2018-06-29 11:06:39.250000,-82.95,72.4
272233,2018-06-29 11:06:39.281250,-69.6,72.4
272234,2018-06-29 11:06:39.312500,-39.83,72.4
272235,2018-06-29 11:06:39.343750,-7.06,72.4
272236,2018-06-29 11:06:39.375000,16.94,72.4
272237,2018-06-29 11:06:39.406250,29.51,72.4
272238,2018-06-29 11:06:39.437500,32.95,72.4
272239,2018-06-29 11:06:39.468750,30.62,72.4
272240,2018-06-29 11:06:39.500000,26.75,72.4
272241,2018-06-29 11:06:39.531250,25.18,72.32
272242,2018-06-29 11:06:39.562500,26.98,72.32
272243,2018-06-29 11:06:39.593750,30.18,72.32
272244,2018-06-29 11:06:39.625000,32.15,72.32
272245,2018-06-29 11:06:39.656250,31.87,72.32
272246,2018-06-29 11:06:39.687500,29.55,72.32
272247,2018-06-29 11:06:39.718750,25.18,72.32
272248,2018-06-29 11:06:39.750000,18.85,72.32
272249,2018-06-29 11:06:39.781250,11.42,72.32
272250,2018-06-29 11:06:39.812500,3.85,72.32
272251,2018-06-29 11:06:39.843750,-3.34,72.32
272252,2018-06-29 11:06:39.875000,-10.53,72.32
272253,2018-06-29 11:06:39.906250,-18.89,72.32
272254,2018-06-29 11:06:39.937500,-28.56,72.32
272255,2018-06-29 11:06:39.968750,-37.48,72.32
272256,2018-06-29 11:06:40.000000,-44.2,72.32
272257,2018-06-29 11:06:40.031250,-50.29,72.32
272258,2018-06-29 11:06:40.062500,-58.87,72.32
272259,2018-06-29 11:06:40.093750,-71.38,72.32
272260,2018-06-29 11:06:40.125000,-83.53,72.32
272261,2018-06-29 11:06:40.156250,-83.9,72.32
272262,2018-06-29 11:06:40.187500,-63.86,72.32
272263,2018-06-29 11:06:40.218750,-28.98,72.32
272264,2018-06-29 11:06:40.250000,5.7,72.32
272265,2018-06-29 11:06:40.281250,29.75,72.32
272266,2018-06-29 11:06:40.312500,41.2,72.32
272267,2018-06-29 11:06:40.343750,41.8,72.32
272268,2018-06-29 11:06:40.375000,36.0,72.32
272269,2018-06-29 11:06:40.406250,30.59,72.32
272270,2018-06-29 11:06:40.437500,29.5,72.32
272271,2018-06-29 11:06:40.468750,31.1,72.32
272272,2018-06-29 11:06:40.500000,32.86,72.32
272273,2018-06-29 11:06:40.531250,34.82,72.27
272274,2018-06-29 11:06:40.562500,36.34,72.27
272275,2018-06-29 11:06:40.593750,34.13,72.27
272276,2018-06-29 11:06:40.625000,25.95,72.27
272277,2018-06-29 11:06:40.656250,13.97,72.27
272278,2018-06-29 11:06:40.687500,2.48,72.27
272279,2018-06-29 11:06:40.718750,-7.26,72.27
272280,2018-06-29 11:06:40.750000,-18.07,72.27
272281,2018-06-29 11:06:40.781250,-31.93,72.27
272282,2018-06-29 11:06:40.812500,-46.17,72.27
272283,2018-06-29 11:06:40.843750,-56.97,72.27
272284,2018-06-29 11:06:40.875000,-65.1,72.27
272285,2018-06-29 11:06:40.906250,-75.61,72.27
272286,2018-06-29 11:06:40.937500,-91.1,72.27
272287,2018-06-29 11:06:40.968750,-104.48,72.27
272288,2018-06-29 11:06:41.000000,-100.85,72.27
272289,2018-06-29 11:06:41.031250,-71.82,72.27
272290,2018-06-29 11:06:41.062500,-26.59,72.27
272291,2018-06-29 11:06:41.093750,16.53,72.27
272292,2018-06-29 11:06:41.125000,46.07,72.27
272293,2018-06-29 11:06:41.156250,61.14,72.27
272294,2018-06-29 11:06:41.187500,65.24,72.27
272295,2018-06-29 11:06:41.218750,63.12,72.27
272296,2018-06-29 11:06:41.250000,60.08,72.27
272297,2018-06-29 11:06:41.281250,59.04,72.27
272298,2018-06-29 11:06:41.312500,59.27,72.27
272299,2018-06-29 11:06:41.343750,59.54,72.27
272300,2018-06-29 11:06:41.375000,59.64,72.27
272301,2018-06-29 11:06:41.406250,58.19,72.27
272302,2018-06-29 11:06:41.437500,52.13,72.27
272303,2018-06-29 11:06:41.468750,40.29,72.27
272304,2018-06-29 11:06:41.500000,25.92,72.27
272305,2018-06-29 11:06:41.531250,13.03,72.2
272306,2018-06-29 11:06:41.562500,0.62,72.2
272307,2018-06-29 11:06:41.593750,-15.02,72.2
272308,2018-06-29 11:06:41.625000,-32.53,72.2
272309,2018-06-29 11:06:41.656250,-46.72,72.2
272310,2018-06-29 11:06:41.687500,-56.99,72.2
272311,2018-06-29 11:06:41.718750,-68.62,72.2
272312,2018-06-29 11:06:41.750000,-85.71,72.2
272313,2018-06-29 11:06:41.781250,-103.41,72.2
272314,2018-06-29 11:06:41.812500,-106.19,72.2
272315,2018-06-29 11:06:41.843750,-80.38,72.2
272316,2018-06-29 11:06:41.875000,-31.19,72.2
272317,2018-06-29 11:06:41.906250,20.41,72.2
272318,2018-06-29 11:06:41.937500,57.65,72.2
272319,2018-06-29 11:06:41.968750,76.78,72.2
272320,2018-06-29 11:06:42.000000,80.79,72.2
272321,2018-06-29 11:06:42.031250,75.24,72.2
272322,2018-06-29 11:06:42.062500,68.03,72.2
272323,2018-06-29 11:06:42.093750,65.14,72.2
272324,2018-06-29 11:06:42.125000,65.8,72.2
272325,2018-06-29 11:06:42.156250,65.8,72.2
272326,2018-06-29 11:06:42.187500,64.22,72.2
272327,2018-06-29 11:06:42.218750,62.38,72.2
272328,2018-06-29 11:06:42.250000,58.06,72.2
272329,2018-06-29 11:06:42.281250,47.19,72.2
272330,2018-06-29 11:06:42.312500,30.88,72.2
272331,2018-06-29 11:06:42.343750,15.03,72.2
272332,2018-06-29 11:06:42.375000,2.72,72.2
272333,2018-06-29 11:06:42.406250,-8.9,72.2
272334,2018-06-29 11:06:42.437500,-23.09,72.2
272335,2018-06-29 11:06:42.468750,-38.21,72.2
272336,2018-06-29 11:06:42.500000,-50.48,72.2
272337,2018-06-29 11:06:42.531250,-60.3,72.12
272338,2018-06-29 11:06:42.562500,-72.49,72.12
272339,2018-06-29 11:06:42.593750,-90.23,72.12
272340,2018-06-29 11:06:42.625000,-107.75,72.12
272341,2018-06-29 11:06:42.656250,-109.13,72.12
272342,2018-06-29 11:06:42.687500,-80.95,72.12
272343,2018-06-29 11:06:42.718750,-29.22,72.12
272344,2018-06-29 11:06:42.750000,23.7,72.12
272345,2018-06-29 11:06:42.781250,59.84,72.12
272346,2018-06-29 11:06:42.812500,75.52,72.12
272347,2018-06-29 11:06:42.843750,74.87,72.12
272348,2018-06-29 11:06:42.875000,64.9,72.12
272349,2018-06-29 11:06:42.906250,54.69,72.12
272350,2018-06-29 11:06:42.937500,50.18,72.12
272351,2018-06-29 11:06:42.968750,50.45,72.12
272352,2018-06-29 11:06:43.000000,51.83,72.12
272353,2018-06-29 11:06:43.031250,52.17,72.12
272354,2018-06-29 11:06:43.062500,49.4,72.12
272355,2018-06-29 11:06:43.093750,41.1,72.12
272356,2018-06-29 11:06:43.125000,27.75,72.12
272357,2018-06-29 11:06:43.156250,12.99,72.12
272358,2018-06-29 11:06:43.187500,-0.75,72.12
272359,2018-06-29 11:06:43.218750,-14.51,72.12
272360,2018-06-29 11:06:43.250000,-29.87,72.12
272361,2018-06-29 11:06:43.281250,-45.11,72.12
272362,2018-06-29 11:06:43.312500,-56.92,72.12
272363,2018-06-29 11:06:43.343750,-65.96,72.12
272364,2018-06-29 11:06:43.375000,-77.55,72.12
272365,2018-06-29 11:06:43.406250,-94.97,72.12
272366,2018-06-29 11:06:43.437500,-110.65,72.12
272367,2018-06-29 11:06:43.468750,-106.87,72.12
272368,2018-06-29 11:06:43.500000,-72.37,72.12
272369,2018-06-29 11:06:43.531250,-17.66,72.05
272370,2018-06-29 11:06:43.562500,33.87,72.05
272371,2018-06-29 11:06:43.593750,66.96,72.05
272372,2018-06-29 11:06:43.625000,80.41,72.05
272373,2018-06-29 11:06:43.656250,79.4,72.05
272374,2018-06-29 11:06:43.687500,70.96,72.05
272375,2018-06-29 11:06:43.718750,62.29,72.05
272376,2018-06-29 11:06:43.750000,57.35,72.05
272377,2018-06-29 11:06:43.781250,55.67,72.05
272378,2018-06-29 11:06:43.812500,55.16,72.05
272379,2018-06-29 11:06:43.843750,54.72,72.05
272380,2018-06-29 11:06:43.875000,52.96,72.05
272381,2018-06-29 11:06:43.906250,46.57,72.05
272382,2018-06-29 11:06:43.937500,33.94,72.05
272383,2018-06-29 11:06:43.968750,18.5,72.05
272384,2018-06-29 11:06:44.000000,4.26,72.05
272385,2018-06-29 11:06:44.031250,-9.41,72.05
272386,2018-06-29 11:06:44.062500,-24.95,72.05
272387,2018-06-29 11:06:44.093750,-40.98,72.05
272388,2018-06-29 11:06:44.125000,-53.79,72.05
272389,2018-06-29 11:06:44.156250,-63.05,72.05
272390,2018-06-29 11:06:44.187500,-73.46,72.05
272391,2018-06-29 11:06:44.218750,-89.79,72.05
272392,2018-06-29 11:06:44.250000,-107.97,72.05
272393,2018-06-29 11:06:44.281250,-111.73,72.05
272394,2018-06-29 11:06:44.312500,-85.52,72.05
272395,2018-06-29 11:06:44.343750,-33.56,72.05
272396,2018-06-29 11:06:44.375000,21.67,72.05
272397,2018-06-29 11:06:44.406250,60.98,72.05
272398,2018-06-29 11:06:44.437500,80.42,72.05
272399,2018-06-29 11:06:44.468750,84.18,72.05
272400,2018-06-29 11:06:44.500000,77.36,72.05
272401,2018-06-29 11:06:44.531250,66.89,72.0
272402,2018-06-29 11:06:44.562500,59.75,72.0
272403,2018-06-29 11:06:44.593750,57.19,72.0
272404,2018-06-29 11:06:44.625000,55.67,72.0
272405,2018-06-29 11:06:44.656250,53.59,72.0
272406,2018-06-29 11:06:44.687500,51.81,72.0
272407,2018-06-29 11:06:44.718750,48.05,72.0
272408,2018-06-29 11:06:44.750000,38.06,72.0
272409,2018-06-29 11:06:44.781250,22.39,72.0
272410,2018-06-29 11:06:44.812500,6.37,72.0
272411,2018-06-29 11:06:44.843750,-6.58,72.0
272412,2018-06-29 11:06:44.875000,-17.88,72.0
272413,2018-06-29 11:06:44.906250,-30.1,72.0
272414,2018-06-29 11:06:44.937500,-42.91,72.0
272415,2018-06-29 11:06:44.968750,-53.63,72.0
272416,2018-06-29 11:06:45.000000,-61.86,72.0
272417,2018-06-29 11:06:45.031250,-71.87,72.0
272418,2018-06-29 11:06:45.062500,-87.47,72.0
272419,2018-06-29 11:06:45.093750,-103.1,72.0
272420,2018-06-29 11:06:45.125000,-102.5,72.0
272421,2018-06-29 11:06:45.156250,-73.29,72.0
272422,2018-06-29 11:06:45.187500,-22.62,72.0
272423,2018-06-29 11:06:45.218750,27.56,72.0
272424,2018-06-29 11:06:45.250000,60.69,72.0
272425,2018-06-29 11:06:45.281250,74.59,72.0
272426,2018-06-29 11:06:45.312500,73.91,72.0
272427,2018-06-29 11:06:45.343750,64.06,72.0
272428,2018-06-29 11:06:45.375000,52.39,72.0
272429,2018-06-29 11:06:45.406250,46.19,72.0
272430,2018-06-29 11:06:45.437500,46.38,72.0
272431,2018-06-29 11:06:45.468750,48.03,72.0
272432,2018-06-29 11:06:45.500000,47.83,72.0
272433,2018-06-29 11:06:45.531250,45.89,71.97
272434,2018-06-29 11:06:45.562500,40.78,71.97
272435,2018-06-29 11:06:45.593750,30.02,71.97
272436,2018-06-29 11:06:45.625000,15.55,71.97
272437,2018-06-29 11:06:45.656250,2.68,71.97
272438,2018-06-29 11:06:45.687500,-7.36,71.97
272439,2018-06-29 11:06:45.718750,-18.25,71.97
272440,2018-06-29 11:06:45.750000,-31.29,71.97
272441,2018-06-29 11:06:45.781250,-42.82,71.97
272442,2018-06-29 11:06:45.812500,-50.6,71.97
272443,2018-06-29 11:06:45.843750,-58.01,71.97
272444,2018-06-29 11:06:45.875000,-69.91,71.97
272445,2018-06-29 11:06:45.906250,-84.38,71.97
272446,2018-06-29 11:06:45.937500,-88.51,71.97
272447,2018-06-29 11:06:45.968750,-67.58,71.97
272448,2018-06-29 11:06:46.000000,-22.66,71.97
272449,2018-06-29 11:06:46.031250,26.99,71.97
272450,2018-06-29 11:06:46.062500,62.59,71.97
272451,2018-06-29 11:06:46.093750,79.28,71.97
272452,2018-06-29 11:06:46.125000,81.04,71.97
272453,2018-06-29 11:06:46.156250,73.35,71.97
272454,2018-06-29 11:06:46.187500,62.89,71.97
272455,2018-06-29 11:06:46.218750,56.37,71.97
272456,2018-06-29 11:06:46.250000,56.04,71.97
272457,2018-06-29 11:06:46.281250,59.26,71.97
272458,2018-06-29 11:06:46.312500,62.94,71.97
272459,2018-06-29 11:06:46.343750,65.74,71.97
272460,2018-06-29 11:06:46.375000,65.14,71.97
272461,2018-06-29 11:06:46.406250,57.38,71.97
272462,2018-06-29 11:06:46.437500,42.78,71.97
272463,2018-06-29 11:06:46.468750,27.22,71.97
272464,2018-06-29 11:06:46.500000,14.87,71.97
272465,2018-06-29 11:06:46.531250,3.59,71.95
272466,2018-06-29 11:06:46.562500,-9.86,71.95
272467,2018-06-29 11:06:46.593750,-24.41,71.95
272468,2018-06-29 11:06:46.625000,-36.78,71.95
272469,2018-06-29 11:06:46.656250,-45.2,71.95
272470,2018-06-29 11:06:46.687500,-51.01,71.95
272471,2018-06-29 11:06:46.718750,-57.69,71.95
272472,2018-06-29 11:06:46.750000,-62.63,71.95
272473,2018-06-29 11:06:46.781250,-50.44,71.95
272474,2018-06-29 11:06:46.812500,-5.94,71.95
272475,2018-06-29 11:06:46.843750,64.83,71.95
272476,2018-06-29 11:06:46.875000,137.07,71.95
272477,2018-06-29 11:06:46.906250,189.78,71.95
272478,2018-06-29 11:06:46.937500,218.02,71.95
272479,2018-06-29 11:06:46.968750,228.11,71.95
272480,2018-06-29 11:06:47.000000,229.8,71.95
272481,2018-06-29 11:06:47.031250,231.09,71.95
272482,2018-06-29 11:06:47.062500,233.25,71.95
272483,2018-06-29 11:06:47.093750,230.98,71.95
272484,2018-06-29 11:06:47.125000,220.48,71.95
272485,2018-06-29 11:06:47.156250,204.43,71.95
272486,2018-06-29 11:06:47.187500,185.38,71.95
272487,2018-06-29 11:06:47.218750,161.6,71.95
272488,2018-06-29 11:06:47.250000,134.06,71.95
272489,2018-06-29 11:06:47.281250,107.42,71.95
272490,2018-06-29 11:06:47.312500,81.71,71.95
272491,2018-06-29 11:06:47.343750,52.17,71.95
272492,2018-06-29 11:06:47.375000,16.01,71.95
272493,2018-06-29 11:06:47.406250,-27.31,71.95
272494,2018-06-29 11:06:47.437500,-77.68,71.95
272495,2018-06-29 11:06:47.468750,-131.87,71.95
272496,2018-06-29 11:06:47.500000,-182.98,71.95
272497,2018-06-29 11:06:47.531250,-218.7,71.92
272498,2018-06-29 11:06:47.562500,-225.47,71.92
272499,2018-06-29 11:06:47.593750,-207.84,71.92
272500,2018-06-29 11:06:47.625000,-192.78,71.92
272501,2018-06-29 11:06:47.656250,-200.86,71.92
272502,2018-06-29 11:06:47.687500,-230.99,71.92
272503,2018-06-29 11:06:47.718750,-281.95,71.92
272504,2018-06-29 11:06:47.750000,-350.08,71.92
272505,2018-06-29 11:06:47.781250,-397.46,71.92
272506,2018-06-29 11:06:47.812500,-377.41,71.92
272507,2018-06-29 11:06:47.843750,-300.58,71.92
272508,2018-06-29 11:06:47.875000,-225.33,71.92
272509,2018-06-29 11:06:47.906250,-183.71,71.92
272510,2018-06-29 11:06:47.937500,-163.39,71.92
272511,2018-06-29 11:06:47.968750,-149.18,71.92
272512,2018-06-29 11:06:48.000000,-137.39,71.92
272513,2018-06-29 11:06:48.031250,-122.14,71.92
272514,2018-06-29 11:06:48.062500,-98.72,71.92
272515,2018-06-29 11:06:48.093750,-72.97,71.92
272516,2018-06-29 11:06:48.125000,-53.34,71.92
272517,2018-06-29 11:06:48.156250,-39.45,71.92
272518,2018-06-29 11:06:48.187500,-27.62,71.92
272519,2018-06-29 11:06:48.218750,-22.54,71.92
272520,2018-06-29 11:06:48.250000,-35.9,71.92
272521,2018-06-29 11:06:48.281250,-72.57,71.92
272522,2018-06-29 11:06:48.312500,-122.34,71.92
272523,2018-06-29 11:06:48.343750,-170.45,71.92
272524,2018-06-29 11:06:48.375000,-211.8,71.92
272525,2018-06-29 11:06:48.406250,-244.19,71.92
272526,2018-06-29 11:06:48.437500,-253.25,71.92
272527,2018-06-29 11:06:48.468750,-223.44,71.92
272528,2018-06-29 11:06:48.500000,-162.32,71.92
272529,2018-06-29 11:06:48.531250,-96.27,71.9
272530,2018-06-29 11:06:48.562500,-44.02,71.9
272531,2018-06-29 11:06:48.593750,-7.51,71.9
272532,2018-06-29 11:06:48.625000,16.4,71.9
272533,2018-06-29 11:06:48.656250,29.81,71.9
272534,2018-06-29 11:06:48.687500,37.85,71.9
272535,2018-06-29 11:06:48.718750,47.79,71.9
272536,2018-06-29 11:06:48.750000,62.2,71.9
272537,2018-06-29 11:06:48.781250,78.51,71.9
272538,2018-06-29 11:06:48.812500,94.46,71.9
272539,2018-06-29 11:06:48.843750,108.2,71.9
272540,2018-06-29 11:06:48.875000,114.94,71.9
272541,2018-06-29 11:06:48.906250,110.37,71.9
272542,2018-06-29 11:06:48.937500,97.43,71.9
272543,2018-06-29 11:06:48.968750,83.83,71.9
272544,2018-06-29 11:06:49.000000,72.64,71.9
272545,2018-06-29 11:06:49.031250,60.05,71.9
272546,2018-06-29 11:06:49.062500,43.1,71.9
272547,2018-06-29 11:06:49.093750,24.93,71.9
272548,2018-06-29 11:06:49.125000,9.94,71.9
272549,2018-06-29 11:06:49.156250,-2.54,71.9
272550,2018-06-29 11:06:49.187500,-18.07,71.9
272551,2018-06-29 11:06:49.218750,-39.69,71.9
272552,2018-06-29 11:06:49.250000,-58.0,71.9
272553,2018-06-29 11:06:49.281250,-53.5,71.9
272554,2018-06-29 11:06:49.312500,-16.71,71.9
272555,2018-06-29 11:06:49.343750,38.96,71.9
272556,2018-06-29 11:06:49.375000,91.13,71.9
272557,2018-06-29 11:06:49.406250,127.54,71.9
272558,2018-06-29 11:06:49.437500,147.05,71.9
272559,2018-06-29 11:06:49.468750,152.4,71.9
272560,2018-06-29 11:06:49.500000,148.39,71.9
272561,2018-06-29 11:06:49.531250,141.38,71.87
272562,2018-06-29 11:06:49.562500,136.08,71.87
272563,2018-06-29 11:06:49.593750,133.29,71.87
272564,2018-06-29 11:06:49.625000,131.03,71.87
272565,2018-06-29 11:06:49.656250,127.44,71.87
272566,2018-06-29 11:06:49.687500,121.8,71.87
272567,2018-06-29 11:06:49.718750,113.15,71.87
272568,2018-06-29 11:06:49.750000,99.6,71.87
272569,2018-06-29 11:06:49.781250,80.73,71.87
272570,2018-06-29 11:06:49.812500,59.78,71.87
272571,2018-06-29 11:06:49.843750,40.94,71.87
272572,2018-06-29 11:06:49.875000,24.77,71.87
272573,2018-06-29 11:06:49.906250,7.95,71.87
272574,2018-06-29 11:06:49.937500,-11.49,71.87
272575,2018-06-29 11:06:49.968750,-30.84,71.87
272576,2018-06-29 11:06:50.000000,-46.14,71.87
272577,2018-06-29 11:06:50.031250,-57.92,71.87
272578,2018-06-29 11:06:50.062500,-71.84,71.87
272579,2018-06-29 11:06:50.093750,-92.6,71.87
272580,2018-06-29 11:06:50.125000,-114.45,71.87
272581,2018-06-29 11:06:50.156250,-118.65,71.87
272582,2018-06-29 11:06:50.187500,-88.7,71.87
272583,2018-06-29 11:06:50.218750,-30.36,71.87
272584,2018-06-29 11:06:50.250000,31.96,71.87
272585,2018-06-29 11:06:50.281250,78.23,71.87
272586,2018-06-29 11:06:50.312500,104.33,71.87
272587,2018-06-29 11:06:50.343750,114.26,71.87
272588,2018-06-29 11:06:50.375000,112.58,71.87
272589,2018-06-29 11:06:50.406250,104.92,71.87
272590,2018-06-29 11:06:50.437500,98.06,71.87
272591,2018-06-29 11:06:50.468750,95.92,71.87
272592,2018-06-29 11:06:50.500000,97.38,71.87
272593,2018-06-29 11:06:50.531250,98.75,71.83
272594,2018-06-29 11:06:50.562500,96.96,71.83
272595,2018-06-29 11:06:50.593750,90.5,71.83
272596,2018-06-29 11:06:50.625000,79.46,71.83
272597,2018-06-29 11:06:50.656250,65.36,71.83
272598,2018-06-29 11:06:50.687500,50.14,71.83
272599,2018-06-29 11:06:50.718750,34.8,71.83
272600,2018-06-29 11:06:50.750000,19.97,71.83
272601,2018-06-29 11:06:50.781250,6.6,71.83
272602,2018-06-29 11:06:50.812500,-5.68,71.83
272603,2018-06-29 11:06:50.843750,-19.26,71.83
272604,2018-06-29 11:06:50.875000,-34.65,71.83
272605,2018-06-29 11:06:50.906250,-48.93,71.83
272606,2018-06-29 11:06:50.937500,-60.56,71.83
272607,2018-06-29 11:06:50.968750,-72.0,71.83
272608,2018-06-29 11:06:51.000000,-86.59,71.83
272609,2018-06-29 11:06:51.031250,-104.3,71.83
272610,2018-06-29 11:06:51.062500,-115.89,71.83
272611,2018-06-29 11:06:51.093750,-103.54,71.83
272612,2018-06-29 11:06:51.125000,-58.88,71.83
272613,2018-06-29 11:06:51.156250,1.91,71.83
272614,2018-06-29 11:06:51.187500,52.45,71.83
272615,2018-06-29 11:06:51.218750,80.29,71.83
272616,2018-06-29 11:06:51.250000,88.39,71.83
272617,2018-06-29 11:06:51.281250,82.89,71.83
272618,2018-06-29 11:06:51.312500,70.79,71.83
272619,2018-06-29 11:06:51.343750,61.33,71.83
272620,2018-06-29 11:06:51.375000,59.62,71.83
272621,2018-06-29 11:06:51.406250,62.48,71.83
272622,2018-06-29 11:06:51.437500,64.7,71.83
272623,2018-06-29 11:06:51.468750,64.4,71.83
272624,2018-06-29 11:06:51.500000,60.98,71.83
272625,2018-06-29 11:06:51.531250,53.63,71.78
272626,2018-06-29 11:06:51.562500,43.01,71.78
272627,2018-06-29 11:06:51.593750,30.87,71.78
272628,2018-06-29 11:06:51.625000,18.27,71.78
272629,2018-06-29 11:06:51.656250,5.72,71.78
272630,2018-06-29 11:06:51.687500,-5.95,71.78
272631,2018-06-29 11:06:51.718750,-15.89,71.78
272632,2018-06-29 11:06:51.750000,-24.84,71.78
272633,2018-06-29 11:06:51.781250,-34.91,71.78
272634,2018-06-29 11:06:51.812500,-46.48,71.78
272635,2018-06-29 11:06:51.843750,-57.42,71.78
272636,2018-06-29 11:06:51.875000,-67.07,71.78
272637,2018-06-29 11:06:51.906250,-78.26,71.78
272638,2018-06-29 11:06:51.937500,-94.52,71.78
272639,2018-06-29 11:06:51.968750,-113.77,71.78
272640,2018-06-29 11:06:52.000000,-123.09,71.78
272641,2018-06-29 11:06:52.031250,-105.94,71.78
272642,2018-06-29 11:06:52.062500,-61.05,71.78
272643,2018-06-29 11:06:52.093750,-7.3,71.78
272644,2018-06-29 11:06:52.125000,35.0,71.78
272645,2018-06-29 11:06:52.156250,59.44,71.78
272646,2018-06-29 11:06:52.187500,68.78,71.78
272647,2018-06-29 11:06:52.218750,67.12,71.78
272648,2018-06-29 11:06:52.250000,60.34,71.78
272649,2018-06-29 11:06:52.281250,55.19,71.78
272650,2018-06-29 11:06:52.312500,54.52,71.78
272651,2018-06-29 11:06:52.343750,56.3,71.78
272652,2018-06-29 11:06:52.375000,58.14,71.78
272653,2018-06-29 11:06:52.406250,59.59,71.78
272654,2018-06-29 11:06:52.437500,59.39,71.78
272655,2018-06-29 11:06:52.468750,54.42,71.78
272656,2018-06-29 11:06:52.500000,44.13,71.78
272657,2018-06-29 11:06:52.531250,32.51,71.73
272658,2018-06-29 11:06:52.562500,22.68,71.73
272659,2018-06-29 11:06:52.593750,13.02,71.73
272660,2018-06-29 11:06:52.625000,1.68,71.73
272661,2018-06-29 11:06:52.656250,-9.09,71.73
272662,2018-06-29 11:06:52.687500,-16.99,71.73
272663,2018-06-29 11:06:52.718750,-24.56,71.73
272664,2018-06-29 11:06:52.750000,-35.3,71.73
272665,2018-06-29 11:06:52.781250,-48.0,71.73
272666,2018-06-29 11:06:52.812500,-58.88,71.73
272667,2018-06-29 11:06:52.843750,-67.16,71.73
272668,2018-06-29 11:06:52.875000,-75.84,71.73
272669,2018-06-29 11:06:52.906250,-88.44,71.73
272670,2018-06-29 11:06:52.937500,-102.86,71.73
272671,2018-06-29 11:06:52.968750,-106.25,71.73
272672,2018-06-29 11:06:53.000000,-84.62,71.73
272673,2018-06-29 11:06:53.031250,-41.52,71.73
272674,2018-06-29 11:06:53.062500,3.3,71.73
272675,2018-06-29 11:06:53.093750,34.59,71.73
272676,2018-06-29 11:06:53.125000,50.59,71.73
272677,2018-06-29 11:06:53.156250,54.42,71.73
272678,2018-06-29 11:06:53.187500,49.87,71.73
272679,2018-06-29 11:06:53.218750,43.62,71.73
272680,2018-06-29 11:06:53.250000,41.39,71.73
272681,2018-06-29 11:06:53.281250,42.69,71.73
272682,2018-06-29 11:06:53.312500,43.75,71.73
272683,2018-06-29 11:06:53.343750,43.44,71.73
272684,2018-06-29 11:06:53.375000,42.85,71.73
272685,2018-06-29 11:06:53.406250,41.3,71.73
272686,2018-06-29 11:06:53.437500,36.91,71.73
272687,2018-06-29 11:06:53.468750,30.09,71.73
272688,2018-06-29 11:06:53.500000,22.85,71.73
272689,2018-06-29 11:06:53.531250,15.8,71.67
272690,2018-06-29 11:06:53.562500,7.96,71.67
272691,2018-06-29 11:06:53.593750,-0.9,71.67
272692,2018-06-29 11:06:53.625000,-9.72,71.67
272693,2018-06-29 11:06:53.656250,-17.62,71.67
272694,2018-06-29 11:06:53.687500,-25.25,71.67
272695,2018-06-29 11:06:53.718750,-33.73,71.67
272696,2018-06-29 11:06:53.750000,-42.38,71.67
272697,2018-06-29 11:06:53.781250,-49.46,71.67
272698,2018-06-29 11:06:53.812500,-55.09,71.67
272699,2018-06-29 11:06:53.843750,-62.29,71.67
272700,2018-06-29 11:06:53.875000,-73.61,71.67
272701,2018-06-29 11:06:53.906250,-85.07,71.67
272702,2018-06-29 11:06:53.937500,-84.79,71.67
272703,2018-06-29 11:06:53.968750,-64.09,71.67
272704,2018-06-29 11:06:54.000000,-29.01,71.67
272705,2018-06-29 11:06:54.031250,5.03,71.67
272706,2018-06-29 11:06:54.062500,27.74,71.67
272707,2018-06-29 11:06:54.093750,37.54,71.67
272708,2018-06-29 11:06:54.125000,36.95,71.67
272709,2018-06-29 11:06:54.156250,30.92,71.67
272710,2018-06-29 11:06:54.187500,25.5,71.67
272711,2018-06-29 11:06:54.218750,23.92,71.67
272712,2018-06-29 11:06:54.250000,25.2,71.67
272713,2018-06-29 11:06:54.281250,27.04,71.67
272714,2018-06-29 11:06:54.312500,28.51,71.67
272715,2018-06-29 11:06:54.343750,29.07,71.67
272716,2018-06-29 11:06:54.375000,27.16,71.67
272717,2018-06-29 11:06:54.406250,22.08,71.67
272718,2018-06-29 11:06:54.437500,15.78,71.67
272719,2018-06-29 11:06:54.468750,10.2,71.67
272720,2018-06-29 11:06:54.500000,4.84,71.67
272721,2018-06-29 11:06:54.531250,-1.02,71.58
272722,2018-06-29 11:06:54.562500,-6.32,71.58
272723,2018-06-29 11:06:54.593750,-10.77,71.58
272724,2018-06-29 11:06:54.625000,-16.58,71.58
272725,2018-06-29 11:06:54.656250,-25.1,71.58
272726,2018-06-29 11:06:54.687500,-34.23,71.58
272727,2018-06-29 11:06:54.718750,-41.06,71.58
272728,2018-06-29 11:06:54.750000,-45.68,71.58
272729,2018-06-29 11:06:54.781250,-51.08,71.58
272730,2018-06-29 11:06:54.812500,-59.86,71.58
272731,2018-06-29 11:06:54.843750,-69.64,71.58
272732,2018-06-29 11:06:54.875000,-70.84,71.58
272733,2018-06-29 11:06:54.906250,-54.45,71.58
272734,2018-06-29 11:06:54.937500,-23.69,71.58
272735,2018-06-29 11:06:54.968750,7.68,71.58
272736,2018-06-29 11:06:55.000000,28.82,71.58
272737,2018-06-29 11:06:55.031250,37.93,71.58
272738,2018-06-29 11:06:55.062500,37.73,71.58
272739,2018-06-29 11:06:55.093750,31.95,71.58
272740,2018-06-29 11:06:55.125000,25.43,71.58
272741,2018-06-29 11:06:55.156250,22.4,71.58
272742,2018-06-29 11:06:55.187500,23.6,71.58
272743,2018-06-29 11:06:55.218750,26.27,71.58
272744,2018-06-29 11:06:55.250000,27.58,71.58
272745,2018-06-29 11:06:55.281250,26.99,71.58
272746,2018-06-29 11:06:55.312500,24.93,71.58
272747,2018-06-29 11:06:55.343750,20.94,71.58
272748,2018-06-29 11:06:55.375000,14.34,71.58
272749,2018-06-29 11:06:55.406250,5.86,71.58
272750,2018-06-29 11:06:55.437500,-2.39,71.58
272751,2018-06-29 11:06:55.468750,-8.88,71.58
272752,2018-06-29 11:06:55.500000,-14.63,71.58
272753,2018-06-29 11:06:55.531250,-22.01,71.52
272754,2018-06-29 11:06:55.562500,-31.38,71.52
272755,2018-06-29 11:06:55.593750,-40.58,71.52
272756,2018-06-29 11:06:55.625000,-47.9,71.52
272757,2018-06-29 11:06:55.656250,-53.86,71.52
272758,2018-06-29 11:06:55.687500,-61.05,71.52
272759,2018-06-29 11:06:55.718750,-72.09,71.52
272760,2018-06-29 11:06:55.750000,-83.85,71.52
272761,2018-06-29 11:06:55.781250,-84.92,71.52
272762,2018-06-29 11:06:55.812500,-66.3,71.52
272763,2018-06-29 11:06:55.843750,-33.12,71.52
272764,2018-06-29 11:06:55.875000,0.3,71.52
272765,2018-06-29 11:06:55.906250,23.87,71.52
272766,2018-06-29 11:06:55.937500,35.49,71.52
272767,2018-06-29 11:06:55.968750,37.26,71.52
272768,2018-06-29 11:06:56.000000,33.51,71.52
272769,2018-06-29 11:06:56.031250,29.6,71.52
272770,2018-06-29 11:06:56.062500,28.95,71.52
272771,2018-06-29 11:06:56.093750,31.41,71.52
272772,2018-06-29 11:06:56.125000,34.72,71.52
272773,2018-06-29 11:06:56.156250,37.0,71.52
272774,2018-06-29 11:06:56.187500,37.64,71.52
272775,2018-06-29 11:06:56.218750,36.33,71.52
272776,2018-06-29 11:06:56.250000,32.77,71.52
272777,2018-06-29 11:06:56.281250,26.88,71.52
272778,2018-06-29 11:06:56.312500,18.92,71.52
272779,2018-06-29 11:06:56.343750,9.77,71.52
272780,2018-06-29 11:06:56.375000,0.89,71.52
272781,2018-06-29 11:06:56.406250,-7.01,71.52
272782,2018-06-29 11:06:56.437500,-15.14,71.52
272783,2018-06-29 11:06:56.468750,-24.94,71.52
272784,2018-06-29 11:06:56.500000,-35.65,71.52
272785,2018-06-29 11:06:56.531250,-45.2,71.45
272786,2018-06-29 11:06:56.562500,-53.09,71.45
272787,2018-06-29 11:06:56.593750,-61.34,71.45
272788,2018-06-29 11:06:56.625000,-72.86,71.45
272789,2018-06-29 11:06:56.656250,-87.8,71.45
272790,2018-06-29 11:06:56.687500,-97.91,71.45
272791,2018-06-29 11:06:56.718750,-89.28,71.45
272792,2018-06-29 11:06:56.750000,-57.69,71.45
272793,2018-06-29 11:06:56.781250,-16.09,71.45
272794,2018-06-29 11:06:56.812500,18.99,71.45
272795,2018-06-29 11:06:56.843750,41.49,71.45
272796,2018-06-29 11:06:56.875000,52.58,71.45
272797,2018-06-29 11:06:56.906250,54.2,71.45
272798,2018-06-29 11:06:56.937500,50.45,71.45
272799,2018-06-29 11:06:56.968750,47.31,71.45
272800,2018-06-29 11:06:57.000000,47.72,71.45
272801,2018-06-29 11:06:57.031250,50.32,71.45
272802,2018-06-29 11:06:57.062500,53.08,71.45
272803,2018-06-29 11:06:57.093750,55.01,71.45
272804,2018-06-29 11:06:57.125000,55.04,71.45
272805,2018-06-29 11:06:57.156250,51.61,71.45
272806,2018-06-29 11:06:57.187500,44.18,71.45
272807,2018-06-29 11:06:57.218750,33.89,71.45
272808,2018-06-29 11:06:57.250000,22.65,71.45
272809,2018-06-29 11:06:57.281250,11.8,71.45
272810,2018-06-29 11:06:57.312500,1.82,71.45
272811,2018-06-29 11:06:57.343750,-7.54,71.45
272812,2018-06-29 11:06:57.375000,-17.35,71.45
272813,2018-06-29 11:06:57.406250,-28.53,71.45
272814,2018-06-29 11:06:57.437500,-40.46,71.45
272815,2018-06-29 11:06:57.468750,-51.19,71.45
272816,2018-06-29 11:06:57.500000,-59.55,71.45
272817,2018-06-29 11:06:57.531250,-67.73,71.37
272818,2018-06-29 11:06:57.562500,-80.11,71.37
272819,2018-06-29 11:06:57.593750,-95.11,71.37
272820,2018-06-29 11:06:57.625000,-99.86,71.37
272821,2018-06-29 11:06:57.656250,-80.74,71.37
272822,2018-06-29 11:06:57.687500,-39.99,71.37
272823,2018-06-29 11:06:57.718750,4.98,71.37
272824,2018-06-29 11:06:57.750000,38.27,71.37
272825,2018-06-29 11:06:57.781250,55.51,71.37
272826,2018-06-29 11:06:57.812500,59.17,71.37
272827,2018-06-29 11:06:57.843750,53.44,71.37
272828,2018-06-29 11:06:57.875000,45.13,71.37
272829,2018-06-29 11:06:57.906250,41.49,71.37
272830,2018-06-29 11:06:57.937500,43.76,71.37
272831,2018-06-29 11:06:57.968750,47.6,71.37
272832,2018-06-29 11:06:58.000000,49.81,71.37
272833,2018-06-29 11:06:58.031250,50.14,71.37
272834,2018-06-29 11:06:58.062500,47.81,71.37
272835,2018-06-29 11:06:58.093750,40.92,71.37
272836,2018-06-29 11:06:58.125000,29.61,71.37
272837,2018-06-29 11:06:58.156250,17.03,71.37
272838,2018-06-29 11:06:58.187500,5.88,71.37
272839,2018-06-29 11:06:58.218750,-4.88,71.37
272840,2018-06-29 11:06:58.250000,-17.88,71.37
272841,2018-06-29 11:06:58.281250,-32.9,71.37
272842,2018-06-29 11:06:58.312500,-46.49,71.37
272843,2018-06-29 11:06:58.343750,-56.12,71.37
272844,2018-06-29 11:06:58.375000,-63.58,71.37
272845,2018-06-29 11:06:58.406250,-74.28,71.37
272846,2018-06-29 11:06:58.437500,-91.34,71.37
272847,2018-06-29 11:06:58.468750,-107.67,71.37
272848,2018-06-29 11:06:58.500000,-106.46,71.37
272849,2018-06-29 11:06:58.531250,-76.5,71.28
272850,2018-06-29 11:06:58.562500,-26.45,71.28
272851,2018-06-29 11:06:58.593750,22.69,71.28
272852,2018-06-29 11:06:58.625000,57.02,71.28
272853,2018-06-29 11:06:58.656250,75.18,71.28
272854,2018-06-29 11:06:58.687500,80.34,71.28
272855,2018-06-29 11:06:58.718750,76.37,71.28
272856,2018-06-29 11:06:58.750000,69.48,71.28
272857,2018-06-29 11:06:58.781250,65.85,71.28
272858,2018-06-29 11:06:58.812500,66.73,71.28
272859,2018-06-29 11:06:58.843750,68.74,71.28
272860,2018-06-29 11:06:58.875000,69.07,71.28
272861,2018-06-29 11:06:58.906250,67.78,71.28
272862,2018-06-29 11:06:58.937500,64.59,71.28
272863,2018-06-29 11:06:58.968750,56.73,71.28
272864,2018-06-29 11:06:59.000000,42.75,71.28
272865,2018-06-29 11:06:59.031250,26.22,71.28
272866,2018-06-29 11:06:59.062500,12.06,71.28
272867,2018-06-29 11:06:59.093750,0.7,71.28
272868,2018-06-29 11:06:59.125000,-11.47,71.28
272869,2018-06-29 11:06:59.156250,-26.21,71.28
272870,2018-06-29 11:06:59.187500,-40.9,71.28
272871,2018-06-29 11:06:59.218750,-52.39,71.28
272872,2018-06-29 11:06:59.250000,-61.44,71.28
272873,2018-06-29 11:06:59.281250,-71.92,71.28
272874,2018-06-29 11:06:59.312500,-87.37,71.28
272875,2018-06-29 11:06:59.343750,-105.29,71.28
272876,2018-06-29 11:06:59.375000,-111.93,71.28
272877,2018-06-29 11:06:59.406250,-91.07,71.28
272878,2018-06-29 11:06:59.437500,-43.68,71.28
272879,2018-06-29 11:06:59.468750,9.99,71.28
272880,2018-06-29 11:06:59.500000,50.85,71.28
272881,2018-06-29 11:06:59.531250,73.91,71.2
272882,2018-06-29 11:06:59.562500,81.55,71.2
272883,2018-06-29 11:06:59.593750,77.62,71.2
272884,2018-06-29 11:06:59.625000,69.24,71.2
272885,2018-06-29 11:06:59.656250,64.27,71.2
272886,2018-06-29 11:06:59.687500,64.47,71.2
272887,2018-06-29 11:06:59.718750,66.34,71.2
272888,2018-06-29 11:06:59.750000,67.62,71.2
272889,2018-06-29 11:06:59.781250,68.16,71.2
272890,2018-06-29 11:06:59.812500,66.18,71.2
272891,2018-06-29 11:06:59.843750,59.16,71.2
272892,2018-06-29 11:06:59.875000,47.79,71.2
272893,2018-06-29 11:06:59.906250,35.46,71.2
272894,2018-06-29 11:06:59.937500,24.35,71.2
272895,2018-06-29 11:06:59.968750,13.77,71.2
272896,2018-06-29 11:07:00.000000,2.6,71.2
272897,2018-06-29 11:07:00.031250,-7.86,71.2
272898,2018-06-29 11:07:00.062500,-16.18,71.2
272899,2018-06-29 11:07:00.093750,-24.36,71.2
272900,2018-06-29 11:07:00.125000,-35.67,71.2
272901,2018-06-29 11:07:00.156250,-49.26,71.2
272902,2018-06-29 11:07:00.187500,-61.06,71.2
272903,2018-06-29 11:07:00.218750,-69.76,71.2
272904,2018-06-29 11:07:00.250000,-78.73,71.2
272905,2018-06-29 11:07:00.281250,-92.5,71.2
272906,2018-06-29 11:07:00.312500,-110.13,71.2
272907,2018-06-29 11:07:00.343750,-119.08,71.2
272908,2018-06-29 11:07:00.375000,-101.68,71.2
272909,2018-06-29 11:07:00.406250,-55.63,71.2
272910,2018-06-29 11:07:00.437500,-0.97,71.2
272911,2018-06-29 11:07:00.468750,40.15,71.2
272912,2018-06-29 11:07:00.500000,61.56,71.2
272913,2018-06-29 11:07:00.531250,67.76,71.1
272914,2018-06-29 11:07:00.562500,64.2,71.1
272915,2018-06-29 11:07:00.593750,57.01,71.1
272916,2018-06-29 11:07:00.625000,52.63,71.1
272917,2018-06-29 11:07:00.656250,53.52,71.1
272918,2018-06-29 11:07:00.687500,57.32,71.1
272919,2018-06-29 11:07:00.718750,61.43,71.1
272920,2018-06-29 11:07:00.750000,64.89,71.1
272921,2018-06-29 11:07:00.781250,65.68,71.1
272922,2018-06-29 11:07:00.812500,60.5,71.1
272923,2018-06-29 11:07:00.843750,49.58,71.1
272924,2018-06-29 11:07:00.875000,37.83,71.1
272925,2018-06-29 11:07:00.906250,28.4,71.1
272926,2018-06-29 11:07:00.937500,19.48,71.1
272927,2018-06-29 11:07:00.968750,9.03,71.1
272928,2018-06-29 11:07:01.000000,-1.22,71.1
272929,2018-06-29 11:07:01.031250,-8.8,71.1
272930,2018-06-29 11:07:01.062500,-15.0,71.1
272931,2018-06-29 11:07:01.093750,-23.39,71.1
272932,2018-06-29 11:07:01.125000,-34.82,71.1
272933,2018-06-29 11:07:01.156250,-46.18,71.1
272934,2018-06-29 11:07:01.187500,-54.65,71.1
272935,2018-06-29 11:07:01.218750,-61.55,71.1
272936,2018-06-29 11:07:01.250000,-71.16,71.1
272937,2018-06-29 11:07:01.281250,-85.78,71.1
272938,2018-06-29 11:07:01.312500,-99.02,71.1
272939,2018-06-29 11:07:01.343750,-96.19,71.1
272940,2018-06-29 11:07:01.375000,-67.99,71.1
272941,2018-06-29 11:07:01.406250,-23.57,71.1
272942,2018-06-29 11:07:01.437500,17.11,71.1
272943,2018-06-29 11:07:01.468750,42.18,71.1
272944,2018-06-29 11:07:01.500000,52.42,71.1
272945,2018-06-29 11:07:01.531250,52.06,70.95
272946,2018-06-29 11:07:01.562500,45.23,70.95
272947,2018-06-29 11:07:01.593750,38.15,70.95
272948,2018-06-29 11:07:01.625000,36.38,70.95
272949,2018-06-29 11:07:01.656250,39.61,70.95
272950,2018-06-29 11:07:01.687500,43.36,70.95
272951,2018-06-29 11:07:01.718750,44.61,70.95
272952,2018-06-29 11:07:01.750000,43.41,70.95
272953,2018-06-29 11:07:01.781250,40.04,70.95
272954,2018-06-29 11:07:01.812500,33.98,70.95
272955,2018-06-29 11:07:01.843750,25.17,70.95
272956,2018-06-29 11:07:01.875000,15.06,70.95
272957,2018-06-29 11:07:01.906250,5.74,70.95
272958,2018-06-29 11:07:01.937500,-2.25,70.95
272959,2018-06-29 11:07:01.968750,-10.91,70.95
272960,2018-06-29 11:07:02.000000,-22.04,70.95
272961,2018-06-29 11:07:02.031250,-34.01,70.95
272962,2018-06-29 11:07:02.062500,-43.38,70.95
272963,2018-06-29 11:07:02.093750,-49.7,70.95
272964,2018-06-29 11:07:02.125000,-56.12,70.95
272965,2018-06-29 11:07:02.156250,-66.32,70.95
272966,2018-06-29 11:07:02.187500,-80.56,70.95
272967,2018-06-29 11:07:02.218750,-90.57,70.95
272968,2018-06-29 11:07:02.250000,-81.87,70.95
272969,2018-06-29 11:07:02.281250,-49.42,70.95
272970,2018-06-29 11:07:02.312500,-6.84,70.95
272971,2018-06-29 11:07:02.343750,27.35,70.95
272972,2018-06-29 11:07:02.375000,46.55,70.95
272973,2018-06-29 11:07:02.406250,53.85,70.95
272974,2018-06-29 11:07:02.437500,52.61,70.95
272975,2018-06-29 11:07:02.468750,46.26,70.95
272976,2018-06-29 11:07:02.500000,40.34,70.95
272977,2018-06-29 11:07:02.531250,38.62,70.78
272978,2018-06-29 11:07:02.562500,40.25,70.78
272979,2018-06-29 11:07:02.593750,42.36,70.78
272980,2018-06-29 11:07:02.625000,43.14,70.78
272981,2018-06-29 11:07:02.656250,42.05,70.78
272982,2018-06-29 11:07:02.687500,38.64,70.78
272983,2018-06-29 11:07:02.718750,32.07,70.78
272984,2018-06-29 11:07:02.750000,22.07,70.78
272985,2018-06-29 11:07:02.781250,10.62,70.78
272986,2018-06-29 11:07:02.812500,0.62,70.78
272987,2018-06-29 11:07:02.843750,-7.57,70.78
272988,2018-06-29 11:07:02.875000,-16.22,70.78
272989,2018-06-29 11:07:02.906250,-26.47,70.78
272990,2018-06-29 11:07:02.937500,-36.94,70.78
272991,2018-06-29 11:07:02.968750,-45.59,70.78
272992,2018-06-29 11:07:03.000000,-52.4,70.78
272993,2018-06-29 11:07:03.031250,-60.21,70.78
272994,2018-06-29 11:07:03.062500,-72.22,70.78
272995,2018-06-29 11:07:03.093750,-85.51,70.78
272996,2018-06-29 11:07:03.125000,-88.23,70.78
272997,2018-06-29 11:07:03.156250,-69.61,70.78
272998,2018-06-29 11:07:03.187500,-33.38,70.78
272999,2018-06-29 11:07:03.218750,4.69,70.78
273000,2018-06-29 11:07:03.250000,31.93,70.78
273001,2018-06-29 11:07:03.281250,45.86,70.78
273002,2018-06-29 11:07:03.312500,49.49,70.78
273003,2018-06-29 11:07:03.343750,46.88,70.78
273004,2018-06-29 11:07:03.375000,42.42,70.78
273005,2018-06-29 11:07:03.406250,39.57,70.78
273006,2018-06-29 11:07:03.437500,39.24,70.78
273007,2018-06-29 11:07:03.468750,40.34,70.78
273008,2018-06-29 11:07:03.500000,41.59,70.78
273009,2018-06-29 11:07:03.531250,42.06,70.62
273010,2018-06-29 11:07:03.562500,40.54,70.62
273011,2018-06-29 11:07:03.593750,36.2,70.62
273012,2018-06-29 11:07:03.625000,29.62,70.62
273013,2018-06-29 11:07:03.656250,22.17,70.62
273014,2018-06-29 11:07:03.687500,14.56,70.62
273015,2018-06-29 11:07:03.718750,6.93,70.62
273016,2018-06-29 11:07:03.750000,-0.46,70.62
273017,2018-06-29 11:07:03.781250,-7.83,70.62
273018,2018-06-29 11:07:03.812500,-16.34,70.62
273019,2018-06-29 11:07:03.843750,-26.57,70.62
273020,2018-06-29 11:07:03.875000,-37.03,70.62
273021,2018-06-29 11:07:03.906250,-45.55,70.62
273022,2018-06-29 11:07:03.937500,-52.29,70.62
273023,2018-06-29 11:07:03.968750,-59.96,70.62
273024,2018-06-29 11:07:04.000000,-71.18,70.62
273025,2018-06-29 11:07:04.031250,-83.17,70.62
273026,2018-06-29 11:07:04.062500,-84.82,70.62
273027,2018-06-29 11:07:04.093750,-65.73,70.62
273028,2018-06-29 11:07:04.125000,-29.92,70.62
273029,2018-06-29 11:07:04.156250,6.55,70.62
273030,2018-06-29 11:07:04.187500,31.81,70.62
273031,2018-06-29 11:07:04.218750,44.74,70.62
273032,2018-06-29 11:07:04.250000,48.39,70.62
273033,2018-06-29 11:07:04.281250,45.48,70.62
273034,2018-06-29 11:07:04.312500,39.98,70.62
273035,2018-06-29 11:07:04.343750,36.78,70.62
273036,2018-06-29 11:07:04.375000,37.97,70.62
273037,2018-06-29 11:07:04.406250,41.27,70.62
273038,2018-06-29 11:07:04.437500,43.61,70.62
273039,2018-06-29 11:07:04.468750,44.19,70.62
273040,2018-06-29 11:07:04.500000,42.72,70.62
273041,2018-06-29 11:07:04.531250,37.88,70.43
273042,2018-06-29 11:07:04.562500,29.18,70.43
273043,2018-06-29 11:07:04.593750,18.45,70.43
273044,2018-06-29 11:07:04.625000,8.43,70.43
273045,2018-06-29 11:07:04.656250,0.22,70.43
273046,2018-06-29 11:07:04.687500,-7.22,70.43
273047,2018-06-29 11:07:04.718750,-15.16,70.43
273048,2018-06-29 11:07:04.750000,-23.29,70.43
273049,2018-06-29 11:07:04.781250,-30.62,70.43
273050,2018-06-29 11:07:04.812500,-37.12,70.43
273051,2018-06-29 11:07:04.843750,-43.57,70.43
273052,2018-06-29 11:07:04.875000,-51.0,70.43
273053,2018-06-29 11:07:04.906250,-60.65,70.43
273054,2018-06-29 11:07:04.937500,-71.02,70.43
273055,2018-06-29 11:07:04.968750,-73.94,70.43
273056,2018-06-29 11:07:05.000000,-59.84,70.43
273057,2018-06-29 11:07:05.031250,-30.11,70.43
273058,2018-06-29 11:07:05.062500,2.34,70.43
273059,2018-06-29 11:07:05.093750,26.38,70.43
273060,2018-06-29 11:07:05.125000,39.67,70.43
273061,2018-06-29 11:07:05.156250,43.67,70.43
273062,2018-06-29 11:07:05.187500,40.29,70.43
273063,2018-06-29 11:07:05.218750,33.88,70.43
273064,2018-06-29 11:07:05.250000,29.72,70.43
273065,2018-06-29 11:07:05.281250,29.76,70.43
273066,2018-06-29 11:07:05.312500,31.97,70.43
273067,2018-06-29 11:07:05.343750,33.42,70.43
273068,2018-06-29 11:07:05.375000,32.65,70.43
273069,2018-06-29 11:07:05.406250,29.71,70.43
273070,2018-06-29 11:07:05.437500,25.19,70.43
273071,2018-06-29 11:07:05.468750,19.37,70.43
273072,2018-06-29 11:07:05.500000,12.42,70.43
273073,2018-06-29 11:07:05.531250,5.15,70.27
273074,2018-06-29 11:07:05.562500,-1.36,70.27
273075,2018-06-29 11:07:05.593750,-7.45,70.27
273076,2018-06-29 11:07:05.625000,-14.47,70.27
273077,2018-06-29 11:07:05.656250,-23.16,70.27
273078,2018-06-29 11:07:05.687500,-32.76,70.27
273079,2018-06-29 11:07:05.718750,-41.51,70.27
273080,2018-06-29 11:07:05.750000,-48.49,70.27
273081,2018-06-29 11:07:05.781250,-55.77,70.27
273082,2018-06-29 11:07:05.812500,-66.89,70.27
273083,2018-06-29 11:07:05.843750,-80.48,70.27
273084,2018-06-29 11:07:05.875000,-86.37,70.27
273085,2018-06-29 11:07:05.906250,-73.36,70.27
273086,2018-06-29 11:07:05.937500,-42.22,70.27
273087,2018-06-29 11:07:05.968750,-6.48,70.27
273088,2018-06-29 11:07:06.000000,21.06,70.27
273089,2018-06-29 11:07:06.031250,37.03,70.27
273090,2018-06-29 11:07:06.062500,43.5,70.27
273091,2018-06-29 11:07:06.093750,43.22,70.27
273092,2018-06-29 11:07:06.125000,40.34,70.27
273093,2018-06-29 11:07:06.156250,39.09,70.27
273094,2018-06-29 11:07:06.187500,40.26,70.27
273095,2018-06-29 11:07:06.218750,41.86,70.27
273096,2018-06-29 11:07:06.250000,43.16,70.27
273097,2018-06-29 11:07:06.281250,44.29,70.27
273098,2018-06-29 11:07:06.312500,43.49,70.27
273099,2018-06-29 11:07:06.343750,38.68,70.27
273100,2018-06-29 11:07:06.375000,31.11,70.27
273101,2018-06-29 11:07:06.406250,23.82,70.27
273102,2018-06-29 11:07:06.437500,17.56,70.27
273103,2018-06-29 11:07:06.468750,10.7,70.27
273104,2018-06-29 11:07:06.500000,2.75,70.27
273105,2018-06-29 11:07:06.531250,-4.9,70.08
273106,2018-06-29 11:07:06.562500,-11.52,70.08
273107,2018-06-29 11:07:06.593750,-18.55,70.08
273108,2018-06-29 11:07:06.625000,-27.13,70.08
273109,2018-06-29 11:07:06.656250,-36.09,70.08
273110,2018-06-29 11:07:06.687500,-43.54,70.08
273111,2018-06-29 11:07:06.718750,-49.7,70.08
273112,2018-06-29 11:07:06.750000,-57.24,70.08
273113,2018-06-29 11:07:06.781250,-68.23,70.08
273114,2018-06-29 11:07:06.812500,-78.0,70.08
273115,2018-06-29 11:07:06.843750,-74.69,70.08
273116,2018-06-29 11:07:06.875000,-51.25,70.08
273117,2018-06-29 11:07:06.906250,-15.48,70.08
273118,2018-06-29 11:07:06.937500,17.48,70.08
273119,2018-06-29 11:07:06.968750,39.34,70.08
273120,2018-06-29 11:07:07.000000,50.88,70.08
273121,2018-06-29 11:07:07.031250,55.52,70.08
273122,2018-06-29 11:07:07.062500,56.28,70.08
273123,2018-06-29 11:07:07.093750,56.2,70.08
273124,2018-06-29 11:07:07.125000,57.56,70.08
273125,2018-06-29 11:07:07.156250,60.46,70.08
273126,2018-06-29 11:07:07.187500,63.54,70.08
273127,2018-06-29 11:07:07.218750,65.89,70.08
273128,2018-06-29 11:07:07.250000,67.05,70.08
273129,2018-06-29 11:07:07.281250,66.03,70.08
273130,2018-06-29 11:07:07.312500,62.52,70.08
273131,2018-06-29 11:07:07.343750,58.13,70.08
273132,2018-06-29 11:07:07.375000,54.16,70.08
273133,2018-06-29 11:07:07.406250,48.84,70.08
273134,2018-06-29 11:07:07.437500,39.84,70.08
273135,2018-06-29 11:07:07.468750,28.6,70.08
273136,2018-06-29 11:07:07.500000,18.76,70.08
273137,2018-06-29 11:07:07.531250,10.67,69.88
273138,2018-06-29 11:07:07.562500,1.45,69.88
273139,2018-06-29 11:07:07.593750,-9.95,69.88
273140,2018-06-29 11:07:07.625000,-21.23,69.88
273141,2018-06-29 11:07:07.656250,-30.91,69.88
273142,2018-06-29 11:07:07.687500,-40.6,69.88
273143,2018-06-29 11:07:07.718750,-53.12,69.88
273144,2018-06-29 11:07:07.750000,-69.49,69.88
273145,2018-06-29 11:07:07.781250,-84.49,69.88
273146,2018-06-29 11:07:07.812500,-86.82,69.88
273147,2018-06-29 11:07:07.843750,-70.22,69.88
273148,2018-06-29 11:07:07.875000,-42.74,69.88
273149,2018-06-29 11:07:07.906250,-18.47,69.88
273150,2018-06-29 11:07:07.937500,-3.94,69.88
273151,2018-06-29 11:07:07.968750,2.11,69.88
273152,2018-06-29 11:07:08.000000,1.85,69.88
273153,2018-06-29 11:07:08.031250,-2.39,69.88
273154,2018-06-29 11:07:08.062500,-6.55,69.88
273155,2018-06-29 11:07:08.093750,-7.11,69.88
273156,2018-06-29 11:07:08.125000,-3.91,69.88
273157,2018-06-29 11:07:08.156250,0.96,69.88
273158,2018-06-29 11:07:08.187500,5.53,69.88
273159,2018-06-29 11:07:08.218750,8.01,69.88
273160,2018-06-29 11:07:08.250000,7.16,69.88
273161,2018-06-29 11:07:08.281250,3.92,69.88
273162,2018-06-29 11:07:08.312500,0.28,69.88
273163,2018-06-29 11:07:08.343750,-3.71,69.88
273164,2018-06-29 11:07:08.375000,-9.31,69.88
273165,2018-06-29 11:07:08.406250,-16.26,69.88
273166,2018-06-29 11:07:08.437500,-22.38,69.88
273167,2018-06-29 11:07:08.468750,-26.71,69.88
273168,2018-06-29 11:07:08.500000,-30.9,69.88
273169,2018-06-29 11:07:08.531250,-36.75,69.68
273170,2018-06-29 11:07:08.562500,-43.6,69.68
273171,2018-06-29 11:07:08.593750,-50.31,69.68
273172,2018-06-29 11:07:08.625000,-57.34,69.68
273173,2018-06-29 11:07:08.656250,-65.61,69.68
273174,2018-06-29 11:07:08.687500,-75.47,69.68
273175,2018-06-29 11:07:08.718750,-84.37,69.68
273176,2018-06-29 11:07:08.750000,-83.69,69.68
273177,2018-06-29 11:07:08.781250,-65.04,69.68
273178,2018-06-29 11:07:08.812500,-32.65,69.68
273179,2018-06-29 11:07:08.843750,-0.89,69.68
273180,2018-06-29 11:07:08.875000,21.12,69.68
273181,2018-06-29 11:07:08.906250,33.86,69.68
273182,2018-06-29 11:07:08.937500,39.62,69.68
273183,2018-06-29 11:07:08.968750,39.86,69.68
273184,2018-06-29 11:07:09.000000,37.79,69.68
273185,2018-06-29 11:07:09.031250,36.9,69.68
273186,2018-06-29 11:07:09.062500,37.79,69.68
273187,2018-06-29 11:07:09.093750,39.42,69.68
273188,2018-06-29 11:07:09.125000,41.35,69.68
273189,2018-06-29 11:07:09.156250,42.58,69.68
273190,2018-06-29 11:07:09.187500,40.8,69.68
273191,2018-06-29 11:07:09.218750,35.19,69.68
273192,2018-06-29 11:07:09.250000,28.06,69.68
273193,2018-06-29 11:07:09.281250,21.32,69.68
273194,2018-06-29 11:07:09.312500,14.2,69.68
273195,2018-06-29 11:07:09.343750,5.93,69.68
273196,2018-06-29 11:07:09.375000,-2.17,69.68
273197,2018-06-29 11:07:09.406250,-8.95,69.68
273198,2018-06-29 11:07:09.437500,-15.57,69.68
273199,2018-06-29 11:07:09.468750,-23.61,69.68
273200,2018-06-29 11:07:09.500000,-32.93,69.68
273201,2018-06-29 11:07:09.531250,-41.95,69.48
273202,2018-06-29 11:07:09.562500,-49.71,69.48
273203,2018-06-29 11:07:09.593750,-57.6,69.48
273204,2018-06-29 11:07:09.625000,-68.83,69.48
273205,2018-06-29 11:07:09.656250,-82.74,69.48
273206,2018-06-29 11:07:09.687500,-89.41,69.48
273207,2018-06-29 11:07:09.718750,-76.32,69.48
273208,2018-06-29 11:07:09.750000,-43.62,69.48
273209,2018-06-29 11:07:09.781250,-6.04,69.48
273210,2018-06-29 11:07:09.812500,22.36,69.48
273211,2018-06-29 11:07:09.843750,38.53,69.48
273212,2018-06-29 11:07:09.875000,45.64,69.48
273213,2018-06-29 11:07:09.906250,46.56,69.48
273214,2018-06-29 11:07:09.937500,44.15,69.48
273215,2018-06-29 11:07:09.968750,41.96,69.48
273216,2018-06-29 11:07:10.000000,41.84,69.48
273217,2018-06-29 11:07:10.031250,42.89,69.48
273218,2018-06-29 11:07:10.062500,43.81,69.48
273219,2018-06-29 11:07:10.093750,44.59,69.48
273220,2018-06-29 11:07:10.125000,44.74,69.48
273221,2018-06-29 11:07:10.156250,42.53,69.48
273222,2018-06-29 11:07:10.187500,37.39,69.48
273223,2018-06-29 11:07:10.218750,31.14,69.48
273224,2018-06-29 11:07:10.250000,25.26,69.48
273225,2018-06-29 11:07:10.281250,19.04,69.48
273226,2018-06-29 11:07:10.312500,11.74,69.48
273227,2018-06-29 11:07:10.343750,4.4,69.48
273228,2018-06-29 11:07:10.375000,-2.64,69.48
273229,2018-06-29 11:07:10.406250,-11.15,69.48
273230,2018-06-29 11:07:10.437500,-22.3,69.48
273231,2018-06-29 11:07:10.468750,-34.5,69.48
273232,2018-06-29 11:07:10.500000,-45.47,69.48
273233,2018-06-29 11:07:10.531250,-55.23,69.33
273234,2018-06-29 11:07:10.562500,-66.71,69.33
273235,2018-06-29 11:07:10.593750,-81.75,69.33
273236,2018-06-29 11:07:10.625000,-93.82,69.33
273237,2018-06-29 11:07:10.656250,-89.39,69.33
273238,2018-06-29 11:07:10.687500,-62.58,69.33
273239,2018-06-29 11:07:10.718750,-23.85,69.33
273240,2018-06-29 11:07:10.750000,10.83,69.33
273241,2018-06-29 11:07:10.781250,33.63,69.33
273242,2018-06-29 11:07:10.812500,44.61,69.33
273243,2018-06-29 11:07:10.843750,46.04,69.33
273244,2018-06-29 11:07:10.875000,42.17,69.33
273245,2018-06-29 11:07:10.906250,39.61,69.33
273246,2018-06-29 11:07:10.937500,42.6,69.33
273247,2018-06-29 11:07:10.968750,48.94,69.33
273248,2018-06-29 11:07:11.000000,54.22,69.33
273249,2018-06-29 11:07:11.031250,57.97,69.33
273250,2018-06-29 11:07:11.062500,61.62,69.33
273251,2018-06-29 11:07:11.093750,63.04,69.33
273252,2018-06-29 11:07:11.125000,59.05,69.33
273253,2018-06-29 11:07:11.156250,51.58,69.33
273254,2018-06-29 11:07:11.187500,45.79,69.33
273255,2018-06-29 11:07:11.218750,42.64,69.33
273256,2018-06-29 11:07:11.250000,38.4,69.33
273257,2018-06-29 11:07:11.281250,31.54,69.33
273258,2018-06-29 11:07:11.312500,26.32,69.33
273259,2018-06-29 11:07:11.343750,26.96,69.33
273260,2018-06-29 11:07:11.375000,32.2,69.33
273261,2018-06-29 11:07:11.406250,35.92,69.33
273262,2018-06-29 11:07:11.437500,31.61,69.33
273263,2018-06-29 11:07:11.468750,20.47,69.33
273264,2018-06-29 11:07:11.500000,15.15,69.33
273265,2018-06-29 11:07:11.531250,25.35,69.18
273266,2018-06-29 11:07:11.562500,36.71,69.18
273267,2018-06-29 11:07:11.593750,21.91,69.18
273268,2018-06-29 11:07:11.625000,-26.48,69.18
273269,2018-06-29 11:07:11.656250,-87.44,69.18
273270,2018-06-29 11:07:11.687500,-136.73,69.18
273271,2018-06-29 11:07:11.718750,-162.88,69.18
273272,2018-06-29 11:07:11.750000,-165.93,69.18
273273,2018-06-29 11:07:11.781250,-157.46,69.18
273274,2018-06-29 11:07:11.812500,-149.42,69.18
273275,2018-06-29 11:07:11.843750,-140.37,69.18
273276,2018-06-29 11:07:11.875000,-113.21,69.18
273277,2018-06-29 11:07:11.906250,-68.09,69.18
273278,2018-06-29 11:07:11.937500,-27.88,69.18
273279,2018-06-29 11:07:11.968750,-10.34,69.18
273280,2018-06-29 11:07:12.000000,-4.88,69.18
273281,2018-06-29 11:07:12.031250,11.0,69.18
273282,2018-06-29 11:07:12.062500,35.53,69.18
273283,2018-06-29 11:07:12.093750,57.1,69.18
273284,2018-06-29 11:07:12.125000,72.66,69.18
273285,2018-06-29 11:07:12.156250,102.16,69.18
273286,2018-06-29 11:07:12.187500,153.72,69.18
273287,2018-06-29 11:07:12.218750,217.6,69.18
273288,2018-06-29 11:07:12.250000,266.65,69.18
273289,2018-06-29 11:07:12.281250,226.04,69.18
273290,2018-06-29 11:07:12.312500,141.38,69.18
273291,2018-06-29 11:07:12.343750,80.17,69.18
273292,2018-06-29 11:07:12.375000,31.08,69.18
273293,2018-06-29 11:07:12.406250,-21.65,69.18
273294,2018-06-29 11:07:12.437500,-60.85,69.18
273295,2018-06-29 11:07:12.468750,-83.83,69.18
273296,2018-06-29 11:07:12.500000,-102.08,69.18
273297,2018-06-29 11:07:12.531250,-117.06,69.1
273298,2018-06-29 11:07:12.562500,-116.17,69.1
273299,2018-06-29 11:07:12.593750,-80.29,69.1
273300,2018-06-29 11:07:12.625000,-27.16,69.1
273301,2018-06-29 11:07:12.656250,19.97,69.1
273302,2018-06-29 11:07:12.687500,47.71,69.1
273303,2018-06-29 11:07:12.718750,59.31,69.1
273304,2018-06-29 11:07:12.750000,57.97,69.1
273305,2018-06-29 11:07:12.781250,43.75,69.1
273306,2018-06-29 11:07:12.812500,24.19,69.1
273307,2018-06-29 11:07:12.843750,9.06,69.1
273308,2018-06-29 11:07:12.875000,14.48,69.1
273309,2018-06-29 11:07:12.906250,39.7,69.1
273310,2018-06-29 11:07:12.937500,69.24,69.1
273311,2018-06-29 11:07:12.968750,82.33,69.1
273312,2018-06-29 11:07:13.000000,73.06,69.1
273313,2018-06-29 11:07:13.031250,46.8,69.1
273314,2018-06-29 11:07:13.062500,-7.97,69.1
273315,2018-06-29 11:07:13.093750,-99.45,69.1
273316,2018-06-29 11:07:13.125000,-220.06,69.1
273317,2018-06-29 11:07:13.156250,-321.22,69.1
273318,2018-06-29 11:07:13.187500,-362.93,69.1
273319,2018-06-29 11:07:13.218750,-322.63,69.1
273320,2018-06-29 11:07:13.250000,-148.5,69.1
273321,2018-06-29 11:07:13.281250,34.76,69.1
273322,2018-06-29 11:07:13.312500,138.63,69.1
273323,2018-06-29 11:07:13.343750,185.45,69.1
273324,2018-06-29 11:07:13.375000,202.7,69.1
273325,2018-06-29 11:07:13.406250,193.4,69.1
273326,2018-06-29 11:07:13.437500,180.82,69.1
273327,2018-06-29 11:07:13.468750,178.06,69.1
273328,2018-06-29 11:07:13.500000,178.5,69.1
273329,2018-06-29 11:07:13.531250,166.33,69.07
273330,2018-06-29 11:07:13.562500,140.68,69.07
273331,2018-06-29 11:07:13.593750,116.6,69.07
273332,2018-06-29 11:07:13.625000,96.42,69.07
273333,2018-06-29 11:07:13.656250,77.71,69.07
273334,2018-06-29 11:07:13.687500,57.9,69.07
273335,2018-06-29 11:07:13.718750,45.08,69.07
273336,2018-06-29 11:07:13.750000,38.25,69.07
273337,2018-06-29 11:07:13.781250,23.99,69.07
273338,2018-06-29 11:07:13.812500,-3.7,69.07
273339,2018-06-29 11:07:13.843750,-31.02,69.07
273340,2018-06-29 11:07:13.875000,-39.38,69.07
273341,2018-06-29 11:07:13.906250,-33.4,69.07
273342,2018-06-29 11:07:13.937500,-33.44,69.07
273343,2018-06-29 11:07:13.968750,-50.05,69.07
273344,2018-06-29 11:07:14.000000,-73.66,69.07
273345,2018-06-29 11:07:14.031250,-84.35,69.07
273346,2018-06-29 11:07:14.062500,-66.26,69.07
273347,2018-06-29 11:07:14.093750,-25.42,69.07
273348,2018-06-29 11:07:14.125000,6.69,69.07
273349,2018-06-29 11:07:14.156250,1.68,69.07
273350,2018-06-29 11:07:14.187500,-39.2,69.07
273351,2018-06-29 11:07:14.218750,-93.06,69.07
273352,2018-06-29 11:07:14.250000,-136.35,69.07
273353,2018-06-29 11:07:14.281250,-156.74,69.07
273354,2018-06-29 11:07:14.312500,-158.04,69.07
273355,2018-06-29 11:07:14.343750,-153.01,69.07
273356,2018-06-29 11:07:14.375000,-146.55,69.07
273357,2018-06-29 11:07:14.406250,-132.7,69.07
273358,2018-06-29 11:07:14.437500,-108.88,69.07
273359,2018-06-29 11:07:14.468750,-82.83,69.07
273360,2018-06-29 11:07:14.500000,-63.91,69.07
273361,2018-06-29 11:07:14.531250,-55.72,69.08
273362,2018-06-29 11:07:14.562500,-57.11,69.08
273363,2018-06-29 11:07:14.593750,-64.45,69.08
273364,2018-06-29 11:07:14.625000,-73.01,69.08
273365,2018-06-29 11:07:14.656250,-80.01,69.08
273366,2018-06-29 11:07:14.687500,-85.79,69.08
273367,2018-06-29 11:07:14.718750,-91.25,69.08
273368,2018-06-29 11:07:14.750000,-96.47,69.08
273369,2018-06-29 11:07:14.781250,-102.42,69.08
273370,2018-06-29 11:07:14.812500,-109.37,69.08
273371,2018-06-29 11:07:14.843750,-111.62,69.08
273372,2018-06-29 11:07:14.875000,-99.15,69.08
273373,2018-06-29 11:07:14.906250,-68.61,69.08
273374,2018-06-29 11:07:14.937500,-28.3,69.08
273375,2018-06-29 11:07:14.968750,10.47,69.08
273376,2018-06-29 11:07:15.000000,42.07,69.08
273377,2018-06-29 11:07:15.031250,64.81,69.08
273378,2018-06-29 11:07:15.062500,77.02,69.08
273379,2018-06-29 11:07:15.093750,79.51,69.08
273380,2018-06-29 11:07:15.125000,77.63,69.08
273381,2018-06-29 11:07:15.156250,75.57,69.08
273382,2018-06-29 11:07:15.187500,72.19,69.08
273383,2018-06-29 11:07:15.218750,66.54,69.08
273384,2018-06-29 11:07:15.250000,61.25,69.08
273385,2018-06-29 11:07:15.281250,56.12,69.08
273386,2018-06-29 11:07:15.312500,45.95,69.08
273387,2018-06-29 11:07:15.343750,28.98,69.08
273388,2018-06-29 11:07:15.375000,11.07,69.08
273389,2018-06-29 11:07:15.406250,-2.14,69.08
273390,2018-06-29 11:07:15.437500,-12.15,69.08
273391,2018-06-29 11:07:15.468750,-23.32,69.08
273392,2018-06-29 11:07:15.500000,-35.78,69.08
273393,2018-06-29 11:07:15.531250,-46.41,68.95
273394,2018-06-29 11:07:15.562500,-53.59,68.95
273395,2018-06-29 11:07:15.593750,-59.25,68.95
273396,2018-06-29 11:07:15.625000,-68.42,68.95
273397,2018-06-29 11:07:15.656250,-84.34,68.95
273398,2018-06-29 11:07:15.687500,-98.71,68.95
273399,2018-06-29 11:07:15.718750,-93.51,68.95
273400,2018-06-29 11:07:15.750000,-60.01,68.95
273401,2018-06-29 11:07:15.781250,-9.65,68.95
273402,2018-06-29 11:07:15.812500,37.87,68.95
273403,2018-06-29 11:07:15.843750,71.09,68.95
273404,2018-06-29 11:07:15.875000,89.8,68.95
273405,2018-06-29 11:07:15.906250,98.59,68.95
273406,2018-06-29 11:07:15.937500,101.98,68.95
273407,2018-06-29 11:07:15.968750,103.52,68.95
273408,2018-06-29 11:07:16.000000,105.49,68.95
273409,2018-06-29 11:07:16.031250,107.84,68.95
273410,2018-06-29 11:07:16.062500,109.37,68.95
273411,2018-06-29 11:07:16.093750,109.79,68.95
273412,2018-06-29 11:07:16.125000,108.72,68.95
273413,2018-06-29 11:07:16.156250,103.79,68.95
273414,2018-06-29 11:07:16.187500,93.42,68.95
273415,2018-06-29 11:07:16.218750,80.11,68.95
273416,2018-06-29 11:07:16.250000,67.8,68.95
273417,2018-06-29 11:07:16.281250,56.6,68.95
273418,2018-06-29 11:07:16.312500,43.66,68.95
273419,2018-06-29 11:07:16.343750,28.95,68.95
273420,2018-06-29 11:07:16.375000,15.6,68.95
273421,2018-06-29 11:07:16.406250,4.45,68.95
273422,2018-06-29 11:07:16.437500,-7.05,68.95
273423,2018-06-29 11:07:16.468750,-20.2,68.95
273424,2018-06-29 11:07:16.500000,-33.45,68.95
273425,2018-06-29 11:07:16.531250,-45.7,68.83
273426,2018-06-29 11:07:16.562500,-58.15,68.83
273427,2018-06-29 11:07:16.593750,-73.04,68.83
273428,2018-06-29 11:07:16.625000,-89.65,68.83
273429,2018-06-29 11:07:16.656250,-98.48,68.83
273430,2018-06-29 11:07:16.687500,-84.64,68.83
273431,2018-06-29 11:07:16.718750,-44.67,68.83
273432,2018-06-29 11:07:16.750000,5.72,68.83
273433,2018-06-29 11:07:16.781250,47.12,68.83
273434,2018-06-29 11:07:16.812500,72.93,68.83
273435,2018-06-29 11:07:16.843750,86.49,68.83
273436,2018-06-29 11:07:16.875000,91.52,68.83
273437,2018-06-29 11:07:16.906250,90.85,68.83
273438,2018-06-29 11:07:16.937500,88.48,68.83
273439,2018-06-29 11:07:16.968750,87.35,68.83
273440,2018-06-29 11:07:17.000000,87.29,68.83
273441,2018-06-29 11:07:17.031250,87.09,68.83
273442,2018-06-29 11:07:17.062500,86.61,68.83
273443,2018-06-29 11:07:17.093750,85.31,68.83
273444,2018-06-29 11:07:17.125000,81.07,68.83
273445,2018-06-29 11:07:17.156250,72.38,68.83
273446,2018-06-29 11:07:17.187500,60.36,68.83
273447,2018-06-29 11:07:17.218750,48.1,68.83
273448,2018-06-29 11:07:17.250000,38.31,68.83
273449,2018-06-29 11:07:17.281250,31.15,68.83
273450,2018-06-29 11:07:17.312500,24.21,68.83
273451,2018-06-29 11:07:17.343750,15.55,68.83
273452,2018-06-29 11:07:17.375000,5.97,68.83
273453,2018-06-29 11:07:17.406250,-2.69,68.83
273454,2018-06-29 11:07:17.437500,-10.61,68.83
273455,2018-06-29 11:07:17.468750,-20.11,68.83
273456,2018-06-29 11:07:17.500000,-32.41,68.83
273457,2018-06-29 11:07:17.531250,-45.5,68.73
273458,2018-06-29 11:07:17.562500,-56.59,68.73
273459,2018-06-29 11:07:17.593750,-65.7,68.73
273460,2018-06-29 11:07:17.625000,-75.77,68.73
273461,2018-06-29 11:07:17.656250,-89.65,68.73
273462,2018-06-29 11:07:17.687500,-103.71,68.73
273463,2018-06-29 11:07:17.718750,-104.1,68.73
273464,2018-06-29 11:07:17.750000,-78.44,68.73
273465,2018-06-29 11:07:17.781250,-33.54,68.73
273466,2018-06-29 11:07:17.812500,9.51,68.73
273467,2018-06-29 11:07:17.843750,37.14,68.73
273468,2018-06-29 11:07:17.875000,50.06,68.73
273469,2018-06-29 11:07:17.906250,52.99,68.73
273470,2018-06-29 11:07:17.937500,50.11,68.73
273471,2018-06-29 11:07:17.968750,47.06,68.73
273472,2018-06-29 11:07:18.000000,47.54,68.73
273473,2018-06-29 11:07:18.031250,49.88,68.73
273474,2018-06-29 11:07:18.062500,51.48,68.73
273475,2018-06-29 11:07:18.093750,52.84,68.73
273476,2018-06-29 11:07:18.125000,54.27,68.73
273477,2018-06-29 11:07:18.156250,52.68,68.73
273478,2018-06-29 11:07:18.187500,45.59,68.73
273479,2018-06-29 11:07:18.218750,35.1,68.73
273480,2018-06-29 11:07:18.250000,24.7,68.73
273481,2018-06-29 11:07:18.281250,15.26,68.73
273482,2018-06-29 11:07:18.312500,5.96,68.73
273483,2018-06-29 11:07:18.343750,-2.99,68.73
273484,2018-06-29 11:07:18.375000,-10.91,68.73
273485,2018-06-29 11:07:18.406250,-18.76,68.73
273486,2018-06-29 11:07:18.437500,-28.38,68.73
273487,2018-06-29 11:07:18.468750,-39.35,68.73
273488,2018-06-29 11:07:18.500000,-48.72,68.73
273489,2018-06-29 11:07:18.531250,-55.42,68.62
273490,2018-06-29 11:07:18.562500,-63.12,68.62
273491,2018-06-29 11:07:18.593750,-75.82,68.62
273492,2018-06-29 11:07:18.625000,-89.79,68.62
273493,2018-06-29 11:07:18.656250,-91.94,68.62
273494,2018-06-29 11:07:18.687500,-71.65,68.62
273495,2018-06-29 11:07:18.718750,-33.83,68.62
273496,2018-06-29 11:07:18.750000,5.15,68.62
273497,2018-06-29 11:07:18.781250,32.86,68.62
273498,2018-06-29 11:07:18.812500,47.15,68.62
273499,2018-06-29 11:07:18.843750,51.07,68.62
273500,2018-06-29 11:07:18.875000,48.7,68.62
273501,2018-06-29 11:07:18.906250,44.19,68.62
273502,2018-06-29 11:07:18.937500,40.52,68.62
273503,2018-06-29 11:07:18.968750,38.7,68.62
273504,2018-06-29 11:07:19.000000,38.42,68.62
273505,2018-06-29 11:07:19.031250,38.83,68.62
273506,2018-06-29 11:07:19.062500,38.62,68.62
273507,2018-06-29 11:07:19.093750,36.39,68.62
273508,2018-06-29 11:07:19.125000,31.54,68.62
273509,2018-06-29 11:07:19.156250,24.67,68.62
273510,2018-06-29 11:07:19.187500,16.8,68.62
273511,2018-06-29 11:07:19.218750,8.65,68.62
273512,2018-06-29 11:07:19.250000,0.5,68.62
273513,2018-06-29 11:07:19.281250,-7.46,68.62
273514,2018-06-29 11:07:19.312500,-15.0,68.62
273515,2018-06-29 11:07:19.343750,-22.64,68.62
273516,2018-06-29 11:07:19.375000,-31.11,68.62
273517,2018-06-29 11:07:19.406250,-39.76,68.62
273518,2018-06-29 11:07:19.437500,-46.96,68.62
273519,2018-06-29 11:07:19.468750,-52.66,68.62
273520,2018-06-29 11:07:19.500000,-59.34,68.62
273521,2018-06-29 11:07:19.531250,-69.68,68.52
273522,2018-06-29 11:07:19.562500,-80.49,68.52
273523,2018-06-29 11:07:19.593750,-80.22,68.52
273524,2018-06-29 11:07:19.625000,-59.54,68.52
273525,2018-06-29 11:07:19.656250,-24.13,68.52
273526,2018-06-29 11:07:19.687500,10.04,68.52
273527,2018-06-29 11:07:19.718750,32.16,68.52
273528,2018-06-29 11:07:19.750000,41.82,68.52
273529,2018-06-29 11:07:19.781250,42.92,68.52
273530,2018-06-29 11:07:19.812500,39.31,68.52
273531,2018-06-29 11:07:19.843750,34.92,68.52
273532,2018-06-29 11:07:19.875000,32.65,68.52
273533,2018-06-29 11:07:19.906250,32.59,68.52
273534,2018-06-29 11:07:19.937500,33.62,68.52
273535,2018-06-29 11:07:19.968750,35.5,68.52
273536,2018-06-29 11:07:20.000000,37.14,68.52
273537,2018-06-29 11:07:20.031250,35.8,68.52
273538,2018-06-29 11:07:20.062500,30.47,68.52
273539,2018-06-29 11:07:20.093750,23.11,68.52
273540,2018-06-29 11:07:20.125000,15.23,68.52
273541,2018-06-29 11:07:20.156250,6.7,68.52
273542,2018-06-29 11:07:20.187500,-1.84,68.52
273543,2018-06-29 11:07:20.218750,-9.1,68.52
273544,2018-06-29 11:07:20.250000,-15.69,68.52
273545,2018-06-29 11:07:20.281250,-23.5,68.52
273546,2018-06-29 11:07:20.312500,-32.33,68.52
273547,2018-06-29 11:07:20.343750,-39.83,68.52
273548,2018-06-29 11:07:20.375000,-45.0,68.52
273549,2018-06-29 11:07:20.406250,-49.95,68.52
273550,2018-06-29 11:07:20.437500,-57.8,68.52
273551,2018-06-29 11:07:20.468750,-67.36,68.52
273552,2018-06-29 11:07:20.500000,-70.04,68.52
273553,2018-06-29 11:07:20.531250,-56.64,68.38
273554,2018-06-29 11:07:20.562500,-28.65,68.38
273555,2018-06-29 11:07:20.593750,2.2,68.38
273556,2018-06-29 11:07:20.625000,25.64,68.38
273557,2018-06-29 11:07:20.656250,38.56,68.38
273558,2018-06-29 11:07:20.687500,41.73,68.38
273559,2018-06-29 11:07:20.718750,37.95,68.38
273560,2018-06-29 11:07:20.750000,32.21,68.38
273561,2018-06-29 11:07:20.781250,28.88,68.38
273562,2018-06-29 11:07:20.812500,28.65,68.38
273563,2018-06-29 11:07:20.843750,29.41,68.38
273564,2018-06-29 11:07:20.875000,29.21,68.38
273565,2018-06-29 11:07:20.906250,27.9,68.38
273566,2018-06-29 11:07:20.937500,25.75,68.38
273567,2018-06-29 11:07:20.968750,21.74,68.38
273568,2018-06-29 11:07:21.000000,14.75,68.38
273569,2018-06-29 11:07:21.031250,6.06,68.38
273570,2018-06-29 11:07:21.062500,-1.22,68.38
273571,2018-06-29 11:07:21.093750,-5.76,68.38
273572,2018-06-29 11:07:21.125000,-9.66,68.38
273573,2018-06-29 11:07:21.156250,-15.78,68.38
273574,2018-06-29 11:07:21.187500,-23.88,68.38
273575,2018-06-29 11:07:21.218750,-31.22,68.38
273576,2018-06-29 11:07:21.250000,-36.61,68.38
273577,2018-06-29 11:07:21.281250,-41.8,68.38
273578,2018-06-29 11:07:21.312500,-49.29,68.38
273579,2018-06-29 11:07:21.343750,-59.31,68.38
273580,2018-06-29 11:07:21.375000,-65.95,68.38
273581,2018-06-29 11:07:21.406250,-59.51,68.38
273582,2018-06-29 11:07:21.437500,-37.39,68.38
273583,2018-06-29 11:07:21.468750,-9.02,68.38
273584,2018-06-29 11:07:21.500000,13.44,68.38
273585,2018-06-29 11:07:21.531250,25.09,68.27
273586,2018-06-29 11:07:21.562500,27.12,68.27
273587,2018-06-29 11:07:21.593750,22.65,68.27
273588,2018-06-29 11:07:21.625000,16.24,68.27
273589,2018-06-29 11:07:21.656250,12.79,68.27
273590,2018-06-29 11:07:21.687500,13.67,68.27
273591,2018-06-29 11:07:21.718750,16.34,68.27
273592,2018-06-29 11:07:21.750000,18.62,68.27
273593,2018-06-29 11:07:21.781250,20.71,68.27
273594,2018-06-29 11:07:21.812500,21.83,68.27
273595,2018-06-29 11:07:21.843750,19.27,68.27
273596,2018-06-29 11:07:21.875000,12.17,68.27
273597,2018-06-29 11:07:21.906250,3.1,68.27
273598,2018-06-29 11:07:21.937500,-5.54,68.27
273599,2018-06-29 11:07:21.968750,-14.28,68.27
273600,2018-06-29 11:07:22.000000,-24.13,68.27
273601,2018-06-29 11:07:22.031250,-33.6,68.27
273602,2018-06-29 11:07:22.062500,-40.57,68.27
273603,2018-06-29 11:07:22.093750,-45.54,68.27
273604,2018-06-29 11:07:22.125000,-50.97,68.27
273605,2018-06-29 11:07:22.156250,-58.75,68.27
273606,2018-06-29 11:07:22.187500,-66.43,68.27
273607,2018-06-29 11:07:22.218750,-65.32,68.27
273608,2018-06-29 11:07:22.250000,-47.89,68.27
273609,2018-06-29 11:07:22.281250,-18.26,68.27
273610,2018-06-29 11:07:22.312500,10.83,68.27
273611,2018-06-29 11:07:22.343750,30.52,68.27
273612,2018-06-29 11:07:22.375000,39.44,68.27
273613,2018-06-29 11:07:22.406250,39.38,68.27
273614,2018-06-29 11:07:22.437500,34.2,68.27
273615,2018-06-29 11:07:22.468750,29.96,68.27
273616,2018-06-29 11:07:22.500000,30.48,68.27
273617,2018-06-29 11:07:22.531250,33.98,68.12
273618,2018-06-29 11:07:22.562500,36.82,68.12
273619,2018-06-29 11:07:22.593750,38.46,68.12
273620,2018-06-29 11:07:22.625000,39.45,68.12
273621,2018-06-29 11:07:22.656250,37.63,68.12
273622,2018-06-29 11:07:22.687500,30.63,68.12
273623,2018-06-29 11:07:22.718750,20.1,68.12
273624,2018-06-29 11:07:22.750000,9.83,68.12
273625,2018-06-29 11:07:22.781250,1.09,68.12
273626,2018-06-29 11:07:22.812500,-7.67,68.12
273627,2018-06-29 11:07:22.843750,-17.22,68.12
273628,2018-06-29 11:07:22.875000,-25.8,68.12
273629,2018-06-29 11:07:22.906250,-31.72,68.12
273630,2018-06-29 11:07:22.937500,-36.79,68.12
273631,2018-06-29 11:07:22.968750,-45.39,68.12
273632,2018-06-29 11:07:23.000000,-58.78,68.12
273633,2018-06-29 11:07:23.031250,-69.84,68.12
273634,2018-06-29 11:07:23.062500,-66.2,68.12
273635,2018-06-29 11:07:23.093750,-43.18,68.12
273636,2018-06-29 11:07:23.125000,-10.7,68.12
273637,2018-06-29 11:07:23.156250,16.52,68.12
273638,2018-06-29 11:07:23.187500,31.39,68.12
273639,2018-06-29 11:07:23.218750,34.88,68.12
273640,2018-06-29 11:07:23.250000,30.91,68.12
273641,2018-06-29 11:07:23.281250,24.17,68.12
273642,2018-06-29 11:07:23.312500,18.71,68.12
273643,2018-06-29 11:07:23.343750,16.04,68.12
273644,2018-06-29 11:07:23.375000,15.19,68.12
273645,2018-06-29 11:07:23.406250,14.63,68.12
273646,2018-06-29 11:07:23.437500,14.07,68.12
273647,2018-06-29 11:07:23.468750,13.7,68.12
273648,2018-06-29 11:07:23.500000,11.97,68.12
273649,2018-06-29 11:07:23.531250,6.64,68.05
273650,2018-06-29 11:07:23.562500,-1.75,68.05
273651,2018-06-29 11:07:23.593750,-9.8,68.05
273652,2018-06-29 11:07:23.625000,-15.86,68.05
273653,2018-06-29 11:07:23.656250,-22.36,68.05
273654,2018-06-29 11:07:23.687500,-31.28,68.05
273655,2018-06-29 11:07:23.718750,-40.4,68.05
273656,2018-06-29 11:07:23.750000,-46.88,68.05
273657,2018-06-29 11:07:23.781250,-51.74,68.05
273658,2018-06-29 11:07:23.812500,-58.67,68.05
273659,2018-06-29 11:07:23.843750,-70.17,68.05
273660,2018-06-29 11:07:23.875000,-83.18,68.05
273661,2018-06-29 11:07:23.906250,-86.28,68.05
273662,2018-06-29 11:07:23.937500,-68.02,68.05
273663,2018-06-29 11:07:23.968750,-31.58,68.05
273664,2018-06-29 11:07:24.000000,6.57,68.05
273665,2018-06-29 11:07:24.031250,33.76,68.05
273666,2018-06-29 11:07:24.062500,48.39,68.05
273667,2018-06-29 11:07:24.093750,53.08,68.05
273668,2018-06-29 11:07:24.125000,50.7,68.05
273669,2018-06-29 11:07:24.156250,46.01,68.05
273670,2018-06-29 11:07:24.187500,44.02,68.05
273671,2018-06-29 11:07:24.218750,45.6,68.05
273672,2018-06-29 11:07:24.250000,47.64,68.05
273673,2018-06-29 11:07:24.281250,48.09,68.05
273674,2018-06-29 11:07:24.312500,48.02,68.05
273675,2018-06-29 11:07:24.343750,47.4,68.05
273676,2018-06-29 11:07:24.375000,43.14,68.05
273677,2018-06-29 11:07:24.406250,33.79,68.05
273678,2018-06-29 11:07:24.437500,22.63,68.05
273679,2018-06-29 11:07:24.468750,13.57,68.05
273680,2018-06-29 11:07:24.500000,6.12,68.05
273681,2018-06-29 11:07:24.531250,-3.3,67.97
273682,2018-06-29 11:07:24.562500,-15.88,67.97
273683,2018-06-29 11:07:24.593750,-28.44,67.97
273684,2018-06-29 11:07:24.625000,-37.97,67.97
273685,2018-06-29 11:07:24.656250,-45.91,67.97
273686,2018-06-29 11:07:24.687500,-56.42,67.97
273687,2018-06-29 11:07:24.718750,-71.48,67.97
273688,2018-06-29 11:07:24.750000,-85.53,67.97
273689,2018-06-29 11:07:24.781250,-85.36,67.97
273690,2018-06-29 11:07:24.812500,-62.19,67.97
273691,2018-06-29 11:07:24.843750,-23.54,67.97
273692,2018-06-29 11:07:24.875000,13.38,67.97
273693,2018-06-29 11:07:24.906250,37.65,67.97
273694,2018-06-29 11:07:24.937500,48.08,67.97
273695,2018-06-29 11:07:24.968750,47.45,67.97
273696,2018-06-29 11:07:25.000000,40.72,67.97
273697,2018-06-29 11:07:25.031250,34.41,67.97
273698,2018-06-29 11:07:25.062500,32.46,67.97
273699,2018-06-29 11:07:25.093750,34.09,67.97
273700,2018-06-29 11:07:25.125000,36.68,67.97
273701,2018-06-29 11:07:25.156250,38.76,67.97
273702,2018-06-29 11:07:25.187500,39.14,67.97
273703,2018-06-29 11:07:25.218750,35.61,67.97
273704,2018-06-29 11:07:25.250000,27.23,67.97
273705,2018-06-29 11:07:25.281250,16.44,67.97
273706,2018-06-29 11:07:25.312500,6.48,67.97
273707,2018-06-29 11:07:25.343750,-2.35,67.97
273708,2018-06-29 11:07:25.375000,-12.02,67.97
273709,2018-06-29 11:07:25.406250,-23.07,67.97
273710,2018-06-29 11:07:25.437500,-33.25,67.97
273711,2018-06-29 11:07:25.468750,-40.62,67.97
273712,2018-06-29 11:07:25.500000,-47.09,67.97
273713,2018-06-29 11:07:25.531250,-57.15,67.87
273714,2018-06-29 11:07:25.562500,-70.96,67.87
273715,2018-06-29 11:07:25.593750,-78.72,67.87
273716,2018-06-29 11:07:25.625000,-67.25,67.87
273717,2018-06-29 11:07:25.656250,-34.75,67.87
273718,2018-06-29 11:07:25.687500,5.58,67.87
273719,2018-06-29 11:07:25.718750,38.64,67.87
273720,2018-06-29 11:07:25.750000,57.83,67.87
273721,2018-06-29 11:07:25.781250,63.2,67.87
273722,2018-06-29 11:07:25.812500,58.18,67.87
273723,2018-06-29 11:07:25.843750,49.87,67.87
273724,2018-06-29 11:07:25.875000,45.15,67.87
273725,2018-06-29 11:07:25.906250,45.16,67.87
273726,2018-06-29 11:07:25.937500,46.49,67.87
273727,2018-06-29 11:07:25.968750,47.09,67.87
273728,2018-06-29 11:07:26.000000,47.18,67.87
273729,2018-06-29 11:07:26.031250,45.42,67.87
273730,2018-06-29 11:07:26.062500,39.03,67.87
273731,2018-06-29 11:07:26.093750,28.02,67.87
273732,2018-06-29 11:07:26.125000,16.11,67.87
273733,2018-06-29 11:07:26.156250,5.95,67.87
273734,2018-06-29 11:07:26.187500,-4.34,67.87
273735,2018-06-29 11:07:26.218750,-17.54,67.87
273736,2018-06-29 11:07:26.250000,-32.09,67.87
273737,2018-06-29 11:07:26.281250,-44.15,67.87
273738,2018-06-29 11:07:26.312500,-53.19,67.87
273739,2018-06-29 11:07:26.343750,-62.72,67.87
273740,2018-06-29 11:07:26.375000,-76.5,67.87
273741,2018-06-29 11:07:26.406250,-93.05,67.87
273742,2018-06-29 11:07:26.437500,-100.78,67.87
273743,2018-06-29 11:07:26.468750,-85.08,67.87
273744,2018-06-29 11:07:26.500000,-45.63,67.87
273745,2018-06-29 11:07:26.531250,0.47,67.77
273746,2018-06-29 11:07:26.562500,35.95,67.77
273747,2018-06-29 11:07:26.593750,55.97,67.77
273748,2018-06-29 11:07:26.625000,63.62,67.77
273749,2018-06-29 11:07:26.656250,62.96,67.77
273750,2018-06-29 11:07:26.687500,58.59,67.77
273751,2018-06-29 11:07:26.718750,55.57,67.77
273752,2018-06-29 11:07:26.750000,55.98,67.77
273753,2018-06-29 11:07:26.781250,57.9,67.77
273754,2018-06-29 11:07:26.812500,59.17,67.77
273755,2018-06-29 11:07:26.843750,59.4,67.77
273756,2018-06-29 11:07:26.875000,57.5,67.77
273757,2018-06-29 11:07:26.906250,51.87,67.77
273758,2018-06-29 11:07:26.937500,43.4,67.77
273759,2018-06-29 11:07:26.968750,34.73,67.77
273760,2018-06-29 11:07:27.000000,26.4,67.77
273761,2018-06-29 11:07:27.031250,16.86,67.77
273762,2018-06-29 11:07:27.062500,5.73,67.77
273763,2018-06-29 11:07:27.093750,-5.37,67.77
273764,2018-06-29 11:07:27.125000,-15.77,67.77
273765,2018-06-29 11:07:27.156250,-26.82,67.77
273766,2018-06-29 11:07:27.187500,-38.94,67.77
273767,2018-06-29 11:07:27.218750,-50.32,67.77
273768,2018-06-29 11:07:27.250000,-59.59,67.77
273769,2018-06-29 11:07:27.281250,-68.32,67.77
273770,2018-06-29 11:07:27.312500,-80.14,67.77
273771,2018-06-29 11:07:27.343750,-95.61,67.77
273772,2018-06-29 11:07:27.375000,-105.22,67.77
273773,2018-06-29 11:07:27.406250,-93.61,67.77
273774,2018-06-29 11:07:27.437500,-57.09,67.77
273775,2018-06-29 11:07:27.468750,-10.69,67.77
273776,2018-06-29 11:07:27.500000,27.26,67.77
273777,2018-06-29 11:07:27.531250,49.78,67.72
273778,2018-06-29 11:07:27.562500,58.86,67.72
273779,2018-06-29 11:07:27.593750,58.63,67.72
273780,2018-06-29 11:07:27.625000,54.26,67.72
273781,2018-06-29 11:07:27.656250,51.02,67.72
273782,2018-06-29 11:07:27.687500,51.29,67.72
273783,2018-06-29 11:07:27.718750,53.5,67.72
273784,2018-06-29 11:07:27.750000,55.48,67.72
273785,2018-06-29 11:07:27.781250,56.9,67.72
273786,2018-06-29 11:07:27.812500,57.33,67.72
273787,2018-06-29 11:07:27.843750,54.55,67.72
273788,2018-06-29 11:07:27.875000,47.19,67.72
273789,2018-06-29 11:07:27.906250,37.44,67.72
273790,2018-06-29 11:07:27.937500,28.82,67.72
273791,2018-06-29 11:07:27.968750,21.89,67.72
273792,2018-06-29 11:07:28.000000,14.14,67.72
273793,2018-06-29 11:07:28.031250,4.36,67.72
273794,2018-06-29 11:07:28.062500,-5.0,67.72
273795,2018-06-29 11:07:28.093750,-11.84,67.72
273796,2018-06-29 11:07:28.125000,-17.94,67.72
273797,2018-06-29 11:07:28.156250,-26.16,67.72
273798,2018-06-29 11:07:28.187500,-36.4,67.72
273799,2018-06-29 11:07:28.218750,-46.29,67.72
273800,2018-06-29 11:07:28.250000,-54.46,67.72
273801,2018-06-29 11:07:28.281250,-62.35,67.72
273802,2018-06-29 11:07:28.312500,-73.06,67.72
273803,2018-06-29 11:07:28.343750,-86.92,67.72
273804,2018-06-29 11:07:28.375000,-95.71,67.72
273805,2018-06-29 11:07:28.406250,-85.98,67.72
273806,2018-06-29 11:07:28.437500,-53.68,67.72
273807,2018-06-29 11:07:28.468750,-11.4,67.72
273808,2018-06-29 11:07:28.500000,23.57,67.72
273809,2018-06-29 11:07:28.531250,43.63,67.67
273810,2018-06-29 11:07:28.562500,50.5,67.67
273811,2018-06-29 11:07:28.593750,48.28,67.67
273812,2018-06-29 11:07:28.625000,41.8,67.67
273813,2018-06-29 11:07:28.656250,36.52,67.67
273814,2018-06-29 11:07:28.687500,35.48,67.67
273815,2018-06-29 11:07:28.718750,37.42,67.67
273816,2018-06-29 11:07:28.750000,39.54,67.67
273817,2018-06-29 11:07:28.781250,40.18,67.67
273818,2018-06-29 11:07:28.812500,38.61,67.67
273819,2018-06-29 11:07:28.843750,34.53,67.67
273820,2018-06-29 11:07:28.875000,28.19,67.67
273821,2018-06-29 11:07:28.906250,20.04,67.67
273822,2018-06-29 11:07:28.937500,10.81,67.67
273823,2018-06-29 11:07:28.968750,1.88,67.67
273824,2018-06-29 11:07:29.000000,-5.76,67.67
273825,2018-06-29 11:07:29.031250,-12.86,67.67
273826,2018-06-29 11:07:29.062500,-20.97,67.67
273827,2018-06-29 11:07:29.093750,-29.87,67.67
273828,2018-06-29 11:07:29.125000,-37.62,67.67
273829,2018-06-29 11:07:29.156250,-43.29,67.67
273830,2018-06-29 11:07:29.187500,-48.28,67.67
273831,2018-06-29 11:07:29.218750,-55.28,67.67
273832,2018-06-29 11:07:29.250000,-66.19,67.67
273833,2018-06-29 11:07:29.281250,-77.03,67.67
273834,2018-06-29 11:07:29.312500,-75.9,67.67
273835,2018-06-29 11:07:29.343750,-53.86,67.67
273836,2018-06-29 11:07:29.375000,-17.61,67.67
273837,2018-06-29 11:07:29.406250,16.31,67.67
273838,2018-06-29 11:07:29.437500,37.9,67.67
273839,2018-06-29 11:07:29.468750,47.23,67.67
273840,2018-06-29 11:07:29.500000,47.17,67.67
273841,2018-06-29 11:07:29.531250,40.9,67.67
273842,2018-06-29 11:07:29.562500,33.61,67.67
273843,2018-06-29 11:07:29.593750,30.57,67.67
273844,2018-06-29 11:07:29.625000,32.2,67.67
273845,2018-06-29 11:07:29.656250,34.56,67.67
273846,2018-06-29 11:07:29.687500,35.13,67.67
273847,2018-06-29 11:07:29.718750,34.48,67.67
273848,2018-06-29 11:07:29.750000,32.12,67.67
273849,2018-06-29 11:07:29.781250,25.79,67.67
273850,2018-06-29 11:07:29.812500,15.81,67.67
273851,2018-06-29 11:07:29.843750,5.8,67.67
273852,2018-06-29 11:07:29.875000,-1.87,67.67
273853,2018-06-29 11:07:29.906250,-8.96,67.67
273854,2018-06-29 11:07:29.937500,-18.44,67.67
273855,2018-06-29 11:07:29.968750,-30.14,67.67
273856,2018-06-29 11:07:30.000000,-40.54,67.67
273857,2018-06-29 11:07:30.031250,-47.42,67.67
273858,2018-06-29 11:07:30.062500,-53.04,67.67
273859,2018-06-29 11:07:30.093750,-61.6,67.67
273860,2018-06-29 11:07:30.125000,-74.36,67.67
273861,2018-06-29 11:07:30.156250,-85.44,67.67
273862,2018-06-29 11:07:30.187500,-82.57,67.67
273863,2018-06-29 11:07:30.218750,-58.22,67.67
273864,2018-06-29 11:07:30.250000,-20.14,67.67
273865,2018-06-29 11:07:30.281250,15.11,67.67
273866,2018-06-29 11:07:30.312500,37.44,67.67
273867,2018-06-29 11:07:30.343750,47.01,67.67
273868,2018-06-29 11:07:30.375000,47.55,67.67
273869,2018-06-29 11:07:30.406250,43.21,67.67
273870,2018-06-29 11:07:30.437500,38.81,67.67
273871,2018-06-29 11:07:30.468750,37.17,67.67
273872,2018-06-29 11:07:30.500000,37.0,67.67
273873,2018-06-29 11:07:30.531250,36.3,67.65
273874,2018-06-29 11:07:30.562500,35.67,67.65
273875,2018-06-29 11:07:30.593750,35.51,67.65
273876,2018-06-29 11:07:30.625000,33.18,67.65
273877,2018-06-29 11:07:30.656250,26.25,67.65
273878,2018-06-29 11:07:30.687500,15.95,67.65
273879,2018-06-29 11:07:30.718750,5.73,67.65
273880,2018-06-29 11:07:30.750000,-2.44,67.65
273881,2018-06-29 11:07:30.781250,-10.14,67.65
273882,2018-06-29 11:07:30.812500,-20.0,67.65
273883,2018-06-29 11:07:30.843750,-31.19,67.65
273884,2018-06-29 11:07:30.875000,-40.24,67.65
273885,2018-06-29 11:07:30.906250,-46.26,67.65
273886,2018-06-29 11:07:30.937500,-52.64,67.65
273887,2018-06-29 11:07:30.968750,-62.99,67.65
273888,2018-06-29 11:07:31.000000,-76.12,67.65
273889,2018-06-29 11:07:31.031250,-83.02,67.65
273890,2018-06-29 11:07:31.062500,-71.69,67.65
273891,2018-06-29 11:07:31.093750,-40.25,67.65
273892,2018-06-29 11:07:31.125000,-1.71,67.65
273893,2018-06-29 11:07:31.156250,28.61,67.65
273894,2018-06-29 11:07:31.187500,45.64,67.65
273895,2018-06-29 11:07:31.218750,52.54,67.65
273896,2018-06-29 11:07:31.250000,52.89,67.65
273897,2018-06-29 11:07:31.281250,49.42,67.65
273898,2018-06-29 11:07:31.312500,45.93,67.65
273899,2018-06-29 11:07:31.343750,45.19,67.65
273900,2018-06-29 11:07:31.375000,46.1,67.65
273901,2018-06-29 11:07:31.406250,46.41,67.65
273902,2018-06-29 11:07:31.437500,46.02,67.65
273903,2018-06-29 11:07:31.468750,44.76,67.65
273904,2018-06-29 11:07:31.500000,40.49,67.65
273905,2018-06-29 11:07:31.531250,31.93,67.65
273906,2018-06-29 11:07:31.562500,20.67,67.65
273907,2018-06-29 11:07:31.593750,9.83,67.65
273908,2018-06-29 11:07:31.625000,1.49,67.65
273909,2018-06-29 11:07:31.656250,-5.49,67.65
273910,2018-06-29 11:07:31.687500,-14.49,67.65
273911,2018-06-29 11:07:31.718750,-25.89,67.65
273912,2018-06-29 11:07:31.750000,-36.1,67.65
273913,2018-06-29 11:07:31.781250,-43.33,67.65
273914,2018-06-29 11:07:31.812500,-50.54,67.65
273915,2018-06-29 11:07:31.843750,-61.22,67.65
273916,2018-06-29 11:07:31.875000,-74.29,67.65
273917,2018-06-29 11:07:31.906250,-81.75,67.65
273918,2018-06-29 11:07:31.937500,-72.69,67.65
273919,2018-06-29 11:07:31.968750,-44.5,67.65
273920,2018-06-29 11:07:32.000000,-8.03,67.65
273921,2018-06-29 11:07:32.031250,22.24,67.65
273922,2018-06-29 11:07:32.062500,39.7,67.65
273923,2018-06-29 11:07:32.093750,45.31,67.65
273924,2018-06-29 11:07:32.125000,42.78,67.65
273925,2018-06-29 11:07:32.156250,37.07,67.65
273926,2018-06-29 11:07:32.187500,33.31,67.65
273927,2018-06-29 11:07:32.218750,33.79,67.65
273928,2018-06-29 11:07:32.250000,36.63,67.65
273929,2018-06-29 11:07:32.281250,38.39,67.65
273930,2018-06-29 11:07:32.312500,37.79,67.65
273931,2018-06-29 11:07:32.343750,35.65,67.65
273932,2018-06-29 11:07:32.375000,31.53,67.65
273933,2018-06-29 11:07:32.406250,23.6,67.65
273934,2018-06-29 11:07:32.437500,12.59,67.65
273935,2018-06-29 11:07:32.468750,2.5,67.65
273936,2018-06-29 11:07:32.500000,-4.54,67.65
273937,2018-06-29 11:07:32.531250,-11.21,67.65
273938,2018-06-29 11:07:32.562500,-20.5,67.65
273939,2018-06-29 11:07:32.593750,-31.2,67.65
273940,2018-06-29 11:07:32.625000,-40.1,67.65
273941,2018-06-29 11:07:32.656250,-46.82,67.65
273942,2018-06-29 11:07:32.687500,-54.55,67.65
273943,2018-06-29 11:07:32.718750,-66.02,67.65
273944,2018-06-29 11:07:32.750000,-77.64,67.65
273945,2018-06-29 11:07:32.781250,-78.28,67.65
273946,2018-06-29 11:07:32.812500,-59.16,67.65
273947,2018-06-29 11:07:32.843750,-24.77,67.65
273948,2018-06-29 11:07:32.875000,10.75,67.65
273949,2018-06-29 11:07:32.906250,36.49,67.65
273950,2018-06-29 11:07:32.937500,49.92,67.65
273951,2018-06-29 11:07:32.968750,52.83,67.65
273952,2018-06-29 11:07:33.000000,48.75,67.65
273953,2018-06-29 11:07:33.031250,43.13,67.65
273954,2018-06-29 11:07:33.062500,40.58,67.65
273955,2018-06-29 11:07:33.093750,41.25,67.65
273956,2018-06-29 11:07:33.125000,42.11,67.65
273957,2018-06-29 11:07:33.156250,41.85,67.65
273958,2018-06-29 11:07:33.187500,41.27,67.65
273959,2018-06-29 11:07:33.218750,40.0,67.65
273960,2018-06-29 11:07:33.250000,35.66,67.65
273961,2018-06-29 11:07:33.281250,26.83,67.65
273962,2018-06-29 11:07:33.312500,15.36,67.65
273963,2018-06-29 11:07:33.343750,4.65,67.65
273964,2018-06-29 11:07:33.375000,-4.2,67.65
273965,2018-06-29 11:07:33.406250,-13.04,67.65
273966,2018-06-29 11:07:33.437500,-23.73,67.65
273967,2018-06-29 11:07:33.468750,-35.45,67.65
273968,2018-06-29 11:07:33.500000,-45.53,67.65
273969,2018-06-29 11:07:33.531250,-52.81,67.67
273970,2018-06-29 11:07:33.562500,-60.08,67.67
273971,2018-06-29 11:07:33.593750,-71.48,67.67
273972,2018-06-29 11:07:33.625000,-85.4,67.67
273973,2018-06-29 11:07:33.656250,-90.61,67.67
273974,2018-06-29 11:07:33.687500,-75.02,67.67
273975,2018-06-29 11:07:33.718750,-39.79,67.67
273976,2018-06-29 11:07:33.750000,0.22,67.67
273977,2018-06-29 11:07:33.781250,30.86,67.67
273978,2018-06-29 11:07:33.812500,48.03,67.67
273979,2018-06-29 11:07:33.843750,54.07,67.67
273980,2018-06-29 11:07:33.875000,52.62,67.67
273981,2018-06-29 11:07:33.906250,48.08,67.67
273982,2018-06-29 11:07:33.937500,45.09,67.67
273983,2018-06-29 11:07:33.968750,45.48,67.67
273984,2018-06-29 11:07:34.000000,47.48,67.67
273985,2018-06-29 11:07:34.031250,48.68,67.67
273986,2018-06-29 11:07:34.062500,48.14,67.67
273987,2018-06-29 11:07:34.093750,45.1,67.67
273988,2018-06-29 11:07:34.125000,38.08,67.67
273989,2018-06-29 11:07:34.156250,26.74,67.67
273990,2018-06-29 11:07:34.187500,13.77,67.67
273991,2018-06-29 11:07:34.218750,3.24,67.67
273992,2018-06-29 11:07:34.250000,-3.84,67.67
273993,2018-06-29 11:07:34.281250,-10.85,67.67
273994,2018-06-29 11:07:34.312500,-20.43,67.67
273995,2018-06-29 11:07:34.343750,-30.65,67.67
273996,2018-06-29 11:07:34.375000,-38.37,67.67
273997,2018-06-29 11:07:34.406250,-43.8,67.67
273998,2018-06-29 11:07:34.437500,-50.24,67.67
273999,2018-06-29 11:07:34.468750,-60.37,67.67
274000,2018-06-29 11:07:34.500000,-71.34,67.67
274001,2018-06-29 11:07:34.531250,-72.55,67.67
274002,2018-06-29 11:07:34.562500,-53.78,67.67
274003,2018-06-29 11:07:34.593750,-17.98,67.67
274004,2018-06-29 11:07:34.625000,19.59,67.67
274005,2018-06-29 11:07:34.656250,46.13,67.67
274006,2018-06-29 11:07:34.687500,59.59,67.67
274007,2018-06-29 11:07:34.718750,62.99,67.67
274008,2018-06-29 11:07:34.750000,59.24,67.67
274009,2018-06-29 11:07:34.781250,52.69,67.67
274010,2018-06-29 11:07:34.812500,48.08,67.67
274011,2018-06-29 11:07:34.843750,46.19,67.67
274012,2018-06-29 11:07:34.875000,44.52,67.67
274013,2018-06-29 11:07:34.906250,42.28,67.67
274014,2018-06-29 11:07:34.937500,40.28,67.67
274015,2018-06-29 11:07:34.968750,37.13,67.67
274016,2018-06-29 11:07:35.000000,30.05,67.67
274017,2018-06-29 11:07:35.031250,19.11,67.67
274018,2018-06-29 11:07:35.062500,7.46,67.67
274019,2018-06-29 11:07:35.093750,-2.65,67.67
274020,2018-06-29 11:07:35.125000,-12.13,67.67
274021,2018-06-29 11:07:35.156250,-22.51,67.67
274022,2018-06-29 11:07:35.187500,-32.57,67.67
274023,2018-06-29 11:07:35.218750,-40.1,67.67
274024,2018-06-29 11:07:35.250000,-45.69,67.67
274025,2018-06-29 11:07:35.281250,-52.75,67.67
274026,2018-06-29 11:07:35.312500,-63.13,67.67
274027,2018-06-29 11:07:35.343750,-72.63,67.67
274028,2018-06-29 11:07:35.375000,-70.94,67.67
274029,2018-06-29 11:07:35.406250,-51.02,67.67
274030,2018-06-29 11:07:35.437500,-19.05,67.67
274031,2018-06-29 11:07:35.468750,10.65,67.67
274032,2018-06-29 11:07:35.500000,29.63,67.67
274033,2018-06-29 11:07:35.531250,38.45,67.67
274034,2018-06-29 11:07:35.562500,39.32,67.67
274035,2018-06-29 11:07:35.593750,34.12,67.67
274036,2018-06-29 11:07:35.625000,27.66,67.67
274037,2018-06-29 11:07:35.656250,25.03,67.67
274038,2018-06-29 11:07:35.687500,26.26,67.67
274039,2018-06-29 11:07:35.718750,27.99,67.67
274040,2018-06-29 11:07:35.750000,28.74,67.67
274041,2018-06-29 11:07:35.781250,28.11,67.67
274042,2018-06-29 11:07:35.812500,24.2,67.67
274043,2018-06-29 11:07:35.843750,16.16,67.67
274044,2018-06-29 11:07:35.875000,6.3,67.67
274045,2018-06-29 11:07:35.906250,-2.74,67.67
274046,2018-06-29 11:07:35.937500,-10.84,67.67
274047,2018-06-29 11:07:35.968750,-19.59,67.67
274048,2018-06-29 11:07:36.000000,-29.63,67.67
274049,2018-06-29 11:07:36.031250,-39.28,67.67
274050,2018-06-29 11:07:36.062500,-46.69,67.67
274051,2018-06-29 11:07:36.093750,-53.27,67.67
274052,2018-06-29 11:07:36.125000,-62.74,67.67
274053,2018-06-29 11:07:36.156250,-75.2,67.67
274054,2018-06-29 11:07:36.187500,-82.51,67.67
274055,2018-06-29 11:07:36.218750,-73.19,67.67
274056,2018-06-29 11:07:36.250000,-45.01,67.67
274057,2018-06-29 11:07:36.281250,-9.17,67.67
274058,2018-06-29 11:07:36.312500,20.42,67.67
274059,2018-06-29 11:07:36.343750,38.14,67.67
274060,2018-06-29 11:07:36.375000,45.45,67.67
274061,2018-06-29 11:07:36.406250,45.4,67.67
274062,2018-06-29 11:07:36.437500,41.75,67.67
274063,2018-06-29 11:07:36.468750,38.8,67.67
274064,2018-06-29 11:07:36.500000,38.62,67.67
274065,2018-06-29 11:07:36.531250,39.77,67.67
274066,2018-06-29 11:07:36.562500,40.35,67.67
274067,2018-06-29 11:07:36.593750,40.09,67.67
274068,2018-06-29 11:07:36.625000,38.57,67.67
274069,2018-06-29 11:07:36.656250,34.28,67.67
274070,2018-06-29 11:07:36.687500,26.6,67.67
274071,2018-06-29 11:07:36.718750,16.83,67.67
274072,2018-06-29 11:07:36.750000,7.19,67.67
274073,2018-06-29 11:07:36.781250,-0.85,67.67
274074,2018-06-29 11:07:36.812500,-8.17,67.67
274075,2018-06-29 11:07:36.843750,-17.1,67.67
274076,2018-06-29 11:07:36.875000,-27.7,67.67
274077,2018-06-29 11:07:36.906250,-37.24,67.67
274078,2018-06-29 11:07:36.937500,-44.14,67.67
274079,2018-06-29 11:07:36.968750,-50.55,67.67
274080,2018-06-29 11:07:37.000000,-60.02,67.67
274081,2018-06-29 11:07:37.031250,-72.49,67.67
274082,2018-06-29 11:07:37.062500,-80.75,67.67
274083,2018-06-29 11:07:37.093750,-74.03,67.67
274084,2018-06-29 11:07:37.125000,-48.49,67.67
274085,2018-06-29 11:07:37.156250,-13.21,67.67
274086,2018-06-29 11:07:37.187500,17.41,67.67
274087,2018-06-29 11:07:37.218750,35.97,67.67
274088,2018-06-29 11:07:37.250000,44.01,67.67
274089,2018-06-29 11:07:37.281250,44.95,67.67
274090,2018-06-29 11:07:37.312500,41.15,67.67
274091,2018-06-29 11:07:37.343750,36.04,67.67
274092,2018-06-29 11:07:37.375000,32.99,67.67
274093,2018-06-29 11:07:37.406250,32.35,67.67
274094,2018-06-29 11:07:37.437500,32.37,67.67
274095,2018-06-29 11:07:37.468750,32.17,67.67
274096,2018-06-29 11:07:37.500000,31.22,67.67
274097,2018-06-29 11:07:37.531250,27.4,67.68
274098,2018-06-29 11:07:37.562500,19.23,67.68
274099,2018-06-29 11:07:37.593750,8.99,67.68
274100,2018-06-29 11:07:37.625000,0.01,67.68
274101,2018-06-29 11:07:37.656250,-8.09,67.68
274102,2018-06-29 11:07:37.687500,-17.48,67.68
274103,2018-06-29 11:07:37.718750,-27.15,67.68
274104,2018-06-29 11:07:37.750000,-34.24,67.68
274105,2018-06-29 11:07:37.781250,-39.32,67.68
274106,2018-06-29 11:07:37.812500,-46.71,67.68
274107,2018-06-29 11:07:37.843750,-58.65,67.68
274108,2018-06-29 11:07:37.875000,-69.45,67.68
274109,2018-06-29 11:07:37.906250,-67.3,67.68
274110,2018-06-29 11:07:37.937500,-45.72,67.68
274111,2018-06-29 11:07:37.968750,-12.26,67.68
274112,2018-06-29 11:07:38.000000,18.33,67.68
274113,2018-06-29 11:07:38.031250,37.3,67.68
274114,2018-06-29 11:07:38.062500,44.88,67.68
274115,2018-06-29 11:07:38.093750,44.26,67.68
274116,2018-06-29 11:07:38.125000,38.66,67.68
274117,2018-06-29 11:07:38.156250,32.19,67.68
274118,2018-06-29 11:07:38.187500,28.38,67.68
274119,2018-06-29 11:07:38.218750,27.83,67.68
274120,2018-06-29 11:07:38.250000,28.64,67.68
274121,2018-06-29 11:07:38.281250,28.94,67.68
274122,2018-06-29 11:07:38.312500,27.65,67.68
274123,2018-06-29 11:07:38.343750,23.79,67.68
274124,2018-06-29 11:07:38.375000,16.91,67.68
274125,2018-06-29 11:07:38.406250,7.92,67.68
274126,2018-06-29 11:07:38.437500,-1.71,67.68
274127,2018-06-29 11:07:38.468750,-11.03,67.68
274128,2018-06-29 11:07:38.500000,-19.37,67.68
274129,2018-06-29 11:07:38.531250,-26.11,67.72
274130,2018-06-29 11:07:38.562500,-31.84,67.72
274131,2018-06-29 11:07:38.593750,-39.01,67.72
274132,2018-06-29 11:07:38.625000,-49.34,67.72
274133,2018-06-29 11:07:38.656250,-58.48,67.72
274134,2018-06-29 11:07:38.687500,-55.96,67.72
274135,2018-06-29 11:07:38.718750,-35.5,67.72
274136,2018-06-29 11:07:38.750000,-3.68,67.72
274137,2018-06-29 11:07:38.781250,26.06,67.72
274138,2018-06-29 11:07:38.812500,45.33,67.72
274139,2018-06-29 11:07:38.843750,53.08,67.72
274140,2018-06-29 11:07:38.875000,51.8,67.72
274141,2018-06-29 11:07:38.906250,45.82,67.72
274142,2018-06-29 11:07:38.937500,40.21,67.72
274143,2018-06-29 11:07:38.968750,37.81,67.72
274144,2018-06-29 11:07:39.000000,37.93,67.72
274145,2018-06-29 11:07:39.031250,38.43,67.72
274146,2018-06-29 11:07:39.062500,38.26,67.72
274147,2018-06-29 11:07:39.093750,37.16,67.72
274148,2018-06-29 11:07:39.125000,33.94,67.72
274149,2018-06-29 11:07:39.156250,26.94,67.72
274150,2018-06-29 11:07:39.187500,16.77,67.72
274151,2018-06-29 11:07:39.218750,6.45,67.72
274152,2018-06-29 11:07:39.250000,-2.06,67.72
274153,2018-06-29 11:07:39.281250,-9.88,67.72
274154,2018-06-29 11:07:39.312500,-18.66,67.72
274155,2018-06-29 11:07:39.343750,-27.54,67.72
274156,2018-06-29 11:07:39.375000,-34.43,67.72
274157,2018-06-29 11:07:39.406250,-39.58,67.72
274158,2018-06-29 11:07:39.437500,-45.78,67.72
274159,2018-06-29 11:07:39.468750,-55.6,67.72
274160,2018-06-29 11:07:39.500000,-67.13,67.72
274161,2018-06-29 11:07:39.531250,-71.3,67.73
274162,2018-06-29 11:07:39.562500,-58.2,67.73
274163,2018-06-29 11:07:39.593750,-29.12,67.73
274164,2018-06-29 11:07:39.625000,2.94,67.73
274165,2018-06-29 11:07:39.656250,26.23,67.73
274166,2018-06-29 11:07:39.687500,37.59,67.73
274167,2018-06-29 11:07:39.718750,38.51,67.73
274168,2018-06-29 11:07:39.750000,32.57,67.73
274169,2018-06-29 11:07:39.781250,25.56,67.73
274170,2018-06-29 11:07:39.812500,22.26,67.73
274171,2018-06-29 11:07:39.843750,22.67,67.73
274172,2018-06-29 11:07:39.875000,23.92,67.73
274173,2018-06-29 11:07:39.906250,24.67,67.73
274174,2018-06-29 11:07:39.937500,25.2,67.73
274175,2018-06-29 11:07:39.968750,24.23,67.73
274176,2018-06-29 11:07:40.000000,19.22,67.73
274177,2018-06-29 11:07:40.031250,10.5,67.73
274178,2018-06-29 11:07:40.062500,1.6,67.73
274179,2018-06-29 11:07:40.093750,-5.45,67.73
274180,2018-06-29 11:07:40.125000,-12.51,67.73
274181,2018-06-29 11:07:40.156250,-21.45,67.73
274182,2018-06-29 11:07:40.187500,-30.39,67.73
274183,2018-06-29 11:07:40.218750,-36.42,67.73
274184,2018-06-29 11:07:40.250000,-40.21,67.73
274185,2018-06-29 11:07:40.281250,-45.75,67.73
274186,2018-06-29 11:07:40.312500,-55.86,67.73
274187,2018-06-29 11:07:40.343750,-66.99,67.73
274188,2018-06-29 11:07:40.375000,-68.33,67.73
274189,2018-06-29 11:07:40.406250,-50.87,67.73
274190,2018-06-29 11:07:40.437500,-19.0,67.73
274191,2018-06-29 11:07:40.468750,12.73,67.73
274192,2018-06-29 11:07:40.500000,33.92,67.73
274193,2018-06-29 11:07:40.531250,43.57,67.75
274194,2018-06-29 11:07:40.562500,44.29,67.75
274195,2018-06-29 11:07:40.593750,39.15,67.75
274196,2018-06-29 11:07:40.625000,32.78,67.75
274197,2018-06-29 11:07:40.656250,29.34,67.75
274198,2018-06-29 11:07:40.687500,29.05,67.75
274199,2018-06-29 11:07:40.718750,29.56,67.75
274200,2018-06-29 11:07:40.750000,29.95,67.75
274201,2018-06-29 11:07:40.781250,30.08,67.75
274202,2018-06-29 11:07:40.812500,28.26,67.75
274203,2018-06-29 11:07:40.843750,22.47,67.75
274204,2018-06-29 11:07:40.875000,13.14,67.75
274205,2018-06-29 11:07:40.906250,3.15,67.75
274206,2018-06-29 11:07:40.937500,-5.05,67.75
274207,2018-06-29 11:07:40.968750,-12.4,67.75
274208,2018-06-29 11:07:41.000000,-21.92,67.75
274209,2018-06-29 11:07:41.031250,-33.39,67.75
274210,2018-06-29 11:07:41.062500,-42.97,67.75
274211,2018-06-29 11:07:41.093750,-49.37,67.75
274212,2018-06-29 11:07:41.125000,-55.95,67.75
274213,2018-06-29 11:07:41.156250,-66.3,67.75
274214,2018-06-29 11:07:41.187500,-79.18,67.75
274215,2018-06-29 11:07:41.218750,-85.49,67.75
274216,2018-06-29 11:07:41.250000,-73.44,67.75
274217,2018-06-29 11:07:41.281250,-42.26,67.75
274218,2018-06-29 11:07:41.312500,-5.19,67.75
274219,2018-06-29 11:07:41.343750,24.31,67.75
274220,2018-06-29 11:07:41.375000,41.88,67.75
274221,2018-06-29 11:07:41.406250,48.45,67.75
274222,2018-06-29 11:07:41.437500,46.62,67.75
274223,2018-06-29 11:07:41.468750,41.61,67.75
274224,2018-06-29 11:07:41.500000,38.83,67.75
274225,2018-06-29 11:07:41.531250,39.65,67.78
274226,2018-06-29 11:07:41.562500,41.52,67.78
274227,2018-06-29 11:07:41.593750,41.9,67.78
274228,2018-06-29 11:07:41.625000,40.96,67.78
274229,2018-06-29 11:07:41.656250,39.39,67.78
274230,2018-06-29 11:07:41.687500,35.43,67.78
274231,2018-06-29 11:07:41.718750,27.26,67.78
274232,2018-06-29 11:07:41.750000,16.53,67.78
274233,2018-06-29 11:07:41.781250,6.66,67.78
274234,2018-06-29 11:07:41.812500,-1.85,67.78
274235,2018-06-29 11:07:41.843750,-11.59,67.78
274236,2018-06-29 11:07:41.875000,-23.51,67.78
274237,2018-06-29 11:07:41.906250,-34.85,67.78
274238,2018-06-29 11:07:41.937500,-42.98,67.78
274239,2018-06-29 11:07:41.968750,-49.13,67.78
274240,2018-06-29 11:07:42.000000,-57.47,67.78
274241,2018-06-29 11:07:42.031250,-70.69,67.78
274242,2018-06-29 11:07:42.062500,-84.28,67.78
274243,2018-06-29 11:07:42.093750,-85.51,67.78
274244,2018-06-29 11:07:42.125000,-64.23,67.78
274245,2018-06-29 11:07:42.156250,-25.61,67.78
274246,2018-06-29 11:07:42.187500,13.66,67.78
274247,2018-06-29 11:07:42.218750,40.83,67.78
274248,2018-06-29 11:07:42.250000,54.08,67.78
274249,2018-06-29 11:07:42.281250,56.8,67.78
274250,2018-06-29 11:07:42.312500,52.96,67.78
274251,2018-06-29 11:07:42.343750,47.54,67.78
274252,2018-06-29 11:07:42.375000,44.99,67.78
274253,2018-06-29 11:07:42.406250,45.52,67.78
274254,2018-06-29 11:07:42.437500,46.11,67.78
274255,2018-06-29 11:07:42.468750,45.43,67.78
274256,2018-06-29 11:07:42.500000,44.34,67.78
274257,2018-06-29 11:07:42.531250,42.16,67.83
274258,2018-06-29 11:07:42.562500,36.27,67.83
274259,2018-06-29 11:07:42.593750,26.06,67.83
274260,2018-06-29 11:07:42.625000,14.94,67.83
274261,2018-06-29 11:07:42.656250,6.39,67.83
274262,2018-06-29 11:07:42.687500,-0.64,67.83
274263,2018-06-29 11:07:42.718750,-9.56,67.83
274264,2018-06-29 11:07:42.750000,-20.65,67.83
274265,2018-06-29 11:07:42.781250,-30.87,67.83
274266,2018-06-29 11:07:42.812500,-38.42,67.83
274267,2018-06-29 11:07:42.843750,-44.71,67.83
274268,2018-06-29 11:07:42.875000,-52.8,67.83
274269,2018-06-29 11:07:42.906250,-64.63,67.83
274270,2018-06-29 11:07:42.937500,-75.92,67.83
274271,2018-06-29 11:07:42.968750,-74.68,67.83
274272,2018-06-29 11:07:43.000000,-51.96,67.83
274273,2018-06-29 11:07:43.031250,-14.4,67.83
274274,2018-06-29 11:07:43.062500,21.05,67.83
274275,2018-06-29 11:07:43.093750,43.34,67.83
274276,2018-06-29 11:07:43.125000,52.06,67.83
274277,2018-06-29 11:07:43.156250,50.65,67.83
274278,2018-06-29 11:07:43.187500,43.55,67.83
274279,2018-06-29 11:07:43.218750,36.41,67.83
274280,2018-06-29 11:07:43.250000,33.06,67.83
274281,2018-06-29 11:07:43.281250,32.84,67.83
274282,2018-06-29 11:07:43.312500,33.3,67.83
274283,2018-06-29 11:07:43.343750,33.48,67.83
274284,2018-06-29 11:07:43.375000,32.67,67.83
274285,2018-06-29 11:07:43.406250,28.64,67.83
274286,2018-06-29 11:07:43.437500,20.07,67.83
274287,2018-06-29 11:07:43.468750,9.32,67.83
274288,2018-06-29 11:07:43.500000,-0.23,67.83
274289,2018-06-29 11:07:43.531250,-8.54,67.87
274290,2018-06-29 11:07:43.562500,-18.24,67.87
274291,2018-06-29 11:07:43.593750,-29.66,67.87
274292,2018-06-29 11:07:43.625000,-39.5,67.87
274293,2018-06-29 11:07:43.656250,-45.61,67.87
274294,2018-06-29 11:07:43.687500,-50.49,67.87
274295,2018-06-29 11:07:43.718750,-58.33,67.87
274296,2018-06-29 11:07:43.750000,-69.15,67.87
274297,2018-06-29 11:07:43.781250,-74.82,67.87
274298,2018-06-29 11:07:43.812500,-63.54,67.87
274299,2018-06-29 11:07:43.843750,-33.0,67.87
274300,2018-06-29 11:07:43.875000,4.5,67.87
274301,2018-06-29 11:07:43.906250,33.96,67.87
274302,2018-06-29 11:07:43.937500,49.47,67.87
274303,2018-06-29 11:07:43.968750,52.33,67.87
274304,2018-06-29 11:07:44.000000,45.91,67.87
274305,2018-06-29 11:07:44.031250,35.96,67.87
274306,2018-06-29 11:07:44.062500,28.96,67.87
274307,2018-06-29 11:07:44.093750,27.13,67.87
274308,2018-06-29 11:07:44.125000,27.95,67.87
274309,2018-06-29 11:07:44.156250,28.51,67.87
274310,2018-06-29 11:07:44.187500,27.49,67.87
274311,2018-06-29 11:07:44.218750,23.85,67.87
274312,2018-06-29 11:07:44.250000,16.95,67.87
274313,2018-06-29 11:07:44.281250,7.93,67.87
274314,2018-06-29 11:07:44.312500,-1.33,67.87
274315,2018-06-29 11:07:44.343750,-11.0,67.87
274316,2018-06-29 11:07:44.375000,-22.52,67.87
274317,2018-06-29 11:07:44.406250,-34.77,67.87
274318,2018-06-29 11:07:44.437500,-44.71,67.87
274319,2018-06-29 11:07:44.468750,-52.14,67.87
274320,2018-06-29 11:07:44.500000,-60.64,67.87
274321,2018-06-29 11:07:44.531250,-73.39,67.88
274322,2018-06-29 11:07:44.562500,-87.48,67.88
274323,2018-06-29 11:07:44.593750,-91.02,67.88
274324,2018-06-29 11:07:44.625000,-71.57,67.88
274325,2018-06-29 11:07:44.656250,-31.54,67.88
274326,2018-06-29 11:07:44.687500,11.46,67.88
274327,2018-06-29 11:07:44.718750,41.99,67.88
274328,2018-06-29 11:07:44.750000,56.97,67.88
274329,2018-06-29 11:07:44.781250,60.13,67.88
274330,2018-06-29 11:07:44.812500,56.05,67.88
274331,2018-06-29 11:07:44.843750,49.79,67.88
274332,2018-06-29 11:07:44.875000,45.56,67.88
274333,2018-06-29 11:07:44.906250,44.43,67.88
274334,2018-06-29 11:07:44.937500,44.98,67.88
274335,2018-06-29 11:07:44.968750,45.95,67.88
274336,2018-06-29 11:07:45.000000,46.03,67.88
274337,2018-06-29 11:07:45.031250,42.41,67.88
274338,2018-06-29 11:07:45.062500,33.34,67.88
274339,2018-06-29 11:07:45.093750,21.34,67.88
274340,2018-06-29 11:07:45.125000,10.11,67.88
274341,2018-06-29 11:07:45.156250,-0.49,67.88
274342,2018-06-29 11:07:45.187500,-12.6,67.88
274343,2018-06-29 11:07:45.218750,-25.35,67.88
274344,2018-06-29 11:07:45.250000,-35.71,67.88
274345,2018-06-29 11:07:45.281250,-43.53,67.88
274346,2018-06-29 11:07:45.312500,-52.68,67.88
274347,2018-06-29 11:07:45.343750,-66.6,67.88
274348,2018-06-29 11:07:45.375000,-81.49,67.88
274349,2018-06-29 11:07:45.406250,-84.18,67.88
274350,2018-06-29 11:07:45.437500,-63.1,67.88
274351,2018-06-29 11:07:45.468750,-22.8,67.88
274352,2018-06-29 11:07:45.500000,18.91,67.88
274353,2018-06-29 11:07:45.531250,48.01,67.92
274354,2018-06-29 11:07:45.562500,62.07,67.92
274355,2018-06-29 11:07:45.593750,64.41,67.92
274356,2018-06-29 11:07:45.625000,59.28,67.92
274357,2018-06-29 11:07:45.656250,52.23,67.92
274358,2018-06-29 11:07:45.687500,48.66,67.92
274359,2018-06-29 11:07:45.718750,49.73,67.92
274360,2018-06-29 11:07:45.750000,51.86,67.92
274361,2018-06-29 11:07:45.781250,51.89,67.92
274362,2018-06-29 11:07:45.812500,50.22,67.92
274363,2018-06-29 11:07:45.843750,47.23,67.92
274364,2018-06-29 11:07:45.875000,40.88,67.92
274365,2018-06-29 11:07:45.906250,29.97,67.92
274366,2018-06-29 11:07:45.937500,16.94,67.92
274367,2018-06-29 11:07:45.968750,5.81,67.92
274368,2018-06-29 11:07:46.000000,-2.02,67.92
274369,2018-06-29 11:07:46.031250,-9.24,67.92
274370,2018-06-29 11:07:46.062500,-19.19,67.92
274371,2018-06-29 11:07:46.093750,-31.08,67.92
274372,2018-06-29 11:07:46.125000,-41.25,67.92
274373,2018-06-29 11:07:46.156250,-49.0,67.92
274374,2018-06-29 11:07:46.187500,-57.71,67.92
274375,2018-06-29 11:07:46.218750,-70.48,67.92
274376,2018-06-29 11:07:46.250000,-85.54,67.92
274377,2018-06-29 11:07:46.281250,-92.72,67.92
274378,2018-06-29 11:07:46.312500,-78.45,67.92
274379,2018-06-29 11:07:46.343750,-41.25,67.92
274380,2018-06-29 11:07:46.375000,2.57,67.92
274381,2018-06-29 11:07:46.406250,35.25,67.92
274382,2018-06-29 11:07:46.437500,52.15,67.92
274383,2018-06-29 11:07:46.468750,56.37,67.92
274384,2018-06-29 11:07:46.500000,51.05,67.92
274385,2018-06-29 11:07:46.531250,41.64,67.92
274386,2018-06-29 11:07:46.562500,35.65,67.92
274387,2018-06-29 11:07:46.593750,35.5,67.92
274388,2018-06-29 11:07:46.625000,37.44,67.92
274389,2018-06-29 11:07:46.656250,38.29,67.92
274390,2018-06-29 11:07:46.687500,38.27,67.92
274391,2018-06-29 11:07:46.718750,37.2,67.92
274392,2018-06-29 11:07:46.750000,32.47,67.92
274393,2018-06-29 11:07:46.781250,22.67,67.92
274394,2018-06-29 11:07:46.812500,10.55,67.92
274395,2018-06-29 11:07:46.843750,0.34,67.92
274396,2018-06-29 11:07:46.875000,-7.25,67.92
274397,2018-06-29 11:07:46.906250,-15.22,67.92
274398,2018-06-29 11:07:46.937500,-25.58,67.92
274399,2018-06-29 11:07:46.968750,-36.27,67.92
274400,2018-06-29 11:07:47.000000,-44.21,67.92
274401,2018-06-29 11:07:47.031250,-50.25,67.92
274402,2018-06-29 11:07:47.062500,-58.71,67.92
274403,2018-06-29 11:07:47.093750,-71.83,67.92
274404,2018-06-29 11:07:47.125000,-84.74,67.92
274405,2018-06-29 11:07:47.156250,-85.02,67.92
274406,2018-06-29 11:07:47.187500,-62.45,67.92
274407,2018-06-29 11:07:47.218750,-22.11,67.92
274408,2018-06-29 11:07:47.250000,18.48,67.92
274409,2018-06-29 11:07:47.281250,46.09,67.92
274410,2018-06-29 11:07:47.312500,58.86,67.92
274411,2018-06-29 11:07:47.343750,59.76,67.92
274412,2018-06-29 11:07:47.375000,53.08,67.92
274413,2018-06-29 11:07:47.406250,45.02,67.92
274414,2018-06-29 11:07:47.437500,40.99,67.92
274415,2018-06-29 11:07:47.468750,41.63,67.92
274416,2018-06-29 11:07:47.500000,43.49,67.92
274417,2018-06-29 11:07:47.531250,43.54,67.92
274418,2018-06-29 11:07:47.562500,41.7,67.92
274419,2018-06-29 11:07:47.593750,38.34,67.92
274420,2018-06-29 11:07:47.625000,31.97,67.92
274421,2018-06-29 11:07:47.656250,21.79,67.92
274422,2018-06-29 11:07:47.687500,10.33,67.92
274423,2018-06-29 11:07:47.718750,0.77,67.92
274424,2018-06-29 11:07:47.750000,-6.89,67.92
274425,2018-06-29 11:07:47.781250,-15.28,67.92
274426,2018-06-29 11:07:47.812500,-26.21,67.92
274427,2018-06-29 11:07:47.843750,-38.53,67.92
274428,2018-06-29 11:07:47.875000,-49.25,67.92
274429,2018-06-29 11:07:47.906250,-57.11,67.92
274430,2018-06-29 11:07:47.937500,-64.77,67.92
274431,2018-06-29 11:07:47.968750,-76.56,67.92
274432,2018-06-29 11:07:48.000000,-91.28,67.92
274433,2018-06-29 11:07:48.031250,-97.07,67.92
274434,2018-06-29 11:07:48.062500,-79.9,67.92
274435,2018-06-29 11:07:48.093750,-40.56,67.92
274436,2018-06-29 11:07:48.125000,3.44,67.92
274437,2018-06-29 11:07:48.156250,35.86,67.92
274438,2018-06-29 11:07:48.187500,53.62,67.92
274439,2018-06-29 11:07:48.218750,60.3,67.92
274440,2018-06-29 11:07:48.250000,58.63,67.92
274441,2018-06-29 11:07:48.281250,52.49,67.92
274442,2018-06-29 11:07:48.312500,47.52,67.92
274443,2018-06-29 11:07:48.343750,46.26,67.92
274444,2018-06-29 11:07:48.375000,47.17,67.92
274445,2018-06-29 11:07:48.406250,48.4,67.92
274446,2018-06-29 11:07:48.437500,48.73,67.92
274447,2018-06-29 11:07:48.468750,46.59,67.92
274448,2018-06-29 11:07:48.500000,41.35,67.92
274449,2018-06-29 11:07:48.531250,33.76,67.88
274450,2018-06-29 11:07:48.562500,24.5,67.88
274451,2018-06-29 11:07:48.593750,14.03,67.88
274452,2018-06-29 11:07:48.625000,3.53,67.88
274453,2018-06-29 11:07:48.656250,-5.56,67.88
274454,2018-06-29 11:07:48.687500,-13.35,67.88
274455,2018-06-29 11:07:48.718750,-21.58,67.88
274456,2018-06-29 11:07:48.750000,-31.29,67.88
274457,2018-06-29 11:07:48.781250,-41.08,67.88
274458,2018-06-29 11:07:48.812500,-49.48,67.88
274459,2018-06-29 11:07:48.843750,-57.86,67.88
274460,2018-06-29 11:07:48.875000,-69.16,67.88
274461,2018-06-29 11:07:48.906250,-83.19,67.88
274462,2018-06-29 11:07:48.937500,-91.87,67.88
274463,2018-06-29 11:07:48.968750,-82.26,67.88
274464,2018-06-29 11:07:49.000000,-50.09,67.88
274465,2018-06-29 11:07:49.031250,-7.82,67.88
274466,2018-06-29 11:07:49.062500,27.04,67.88
274467,2018-06-29 11:07:49.093750,47.4,67.88
274468,2018-06-29 11:07:49.125000,55.55,67.88
274469,2018-06-29 11:07:49.156250,55.01,67.88
274470,2018-06-29 11:07:49.187500,50.03,67.88
274471,2018-06-29 11:07:49.218750,46.23,67.88
274472,2018-06-29 11:07:49.250000,46.39,67.88
274473,2018-06-29 11:07:49.281250,48.38,67.88
274474,2018-06-29 11:07:49.312500,49.6,67.88
274475,2018-06-29 11:07:49.343750,49.8,67.88
274476,2018-06-29 11:07:49.375000,48.54,67.88
274477,2018-06-29 11:07:49.406250,43.9,67.88
274478,2018-06-29 11:07:49.437500,35.49,67.88
274479,2018-06-29 11:07:49.468750,25.58,67.88
274480,2018-06-29 11:07:49.500000,16.09,67.88
274481,2018-06-29 11:07:49.531250,7.01,67.85
274482,2018-06-29 11:07:49.562500,-1.82,67.85
274483,2018-06-29 11:07:49.593750,-9.63,67.85
274484,2018-06-29 11:07:49.625000,-16.59,67.85
274485,2018-06-29 11:07:49.656250,-24.43,67.85
274486,2018-06-29 11:07:49.687500,-33.72,67.85
274487,2018-06-29 11:07:49.718750,-42.78,67.85
274488,2018-06-29 11:07:49.750000,-50.36,67.85
274489,2018-06-29 11:07:49.781250,-58.12,67.85
274490,2018-06-29 11:07:49.812500,-69.02,67.85
274491,2018-06-29 11:07:49.843750,-82.54,67.85
274492,2018-06-29 11:07:49.875000,-90.03,67.85
274493,2018-06-29 11:07:49.906250,-78.9,67.85
274494,2018-06-29 11:07:49.937500,-46.7,67.85
274495,2018-06-29 11:07:49.968750,-7.03,67.85
274496,2018-06-29 11:07:50.000000,23.74,67.85
274497,2018-06-29 11:07:50.031250,40.16,67.85
274498,2018-06-29 11:07:50.062500,45.12,67.85
274499,2018-06-29 11:07:50.093750,42.25,67.85
274500,2018-06-29 11:07:50.125000,35.73,67.85
274501,2018-06-29 11:07:50.156250,31.18,67.85
274502,2018-06-29 11:07:50.187500,31.39,67.85
274503,2018-06-29 11:07:50.218750,33.89,67.85
274504,2018-06-29 11:07:50.250000,35.43,67.85
274505,2018-06-29 11:07:50.281250,36.04,67.85
274506,2018-06-29 11:07:50.312500,36.19,67.85
274507,2018-06-29 11:07:50.343750,33.29,67.85
274508,2018-06-29 11:07:50.375000,25.08,67.85
274509,2018-06-29 11:07:50.406250,13.93,67.85
274510,2018-06-29 11:07:50.437500,4.02,67.85
274511,2018-06-29 11:07:50.468750,-4.11,67.85
274512,2018-06-29 11:07:50.500000,-13.17,67.85
274513,2018-06-29 11:07:50.531250,-24.0,67.8
274514,2018-06-29 11:07:50.562500,-34.41,67.8
274515,2018-06-29 11:07:50.593750,-42.85,67.8
274516,2018-06-29 11:07:50.625000,-50.77,67.8
274517,2018-06-29 11:07:50.656250,-60.71,67.8
274518,2018-06-29 11:07:50.687500,-73.79,67.8
274519,2018-06-29 11:07:50.718750,-85.99,67.8
274520,2018-06-29 11:07:50.750000,-86.12,67.8
274521,2018-06-29 11:07:50.781250,-64.8,67.8
274522,2018-06-29 11:07:50.812500,-27.52,67.8
274523,2018-06-29 11:07:50.843750,9.15,67.8
274524,2018-06-29 11:07:50.875000,34.39,67.8
274525,2018-06-29 11:07:50.906250,48.11,67.8
274526,2018-06-29 11:07:50.937500,52.61,67.8
274527,2018-06-29 11:07:50.968750,49.92,67.8
274528,2018-06-29 11:07:51.000000,44.91,67.8
274529,2018-06-29 11:07:51.031250,42.57,67.8
274530,2018-06-29 11:07:51.062500,42.92,67.8
274531,2018-06-29 11:07:51.093750,43.0,67.8
274532,2018-06-29 11:07:51.125000,41.76,67.8
274533,2018-06-29 11:07:51.156250,40.03,67.8
274534,2018-06-29 11:07:51.187500,37.66,67.8
274535,2018-06-29 11:07:51.218750,32.78,67.8
274536,2018-06-29 11:07:51.250000,24.25,67.8
274537,2018-06-29 11:07:51.281250,13.78,67.8
274538,2018-06-29 11:07:51.312500,4.34,67.8
274539,2018-06-29 11:07:51.343750,-3.39,67.8
274540,2018-06-29 11:07:51.375000,-11.56,67.8
274541,2018-06-29 11:07:51.406250,-21.6,67.8
274542,2018-06-29 11:07:51.437500,-32.02,67.8
274543,2018-06-29 11:07:51.468750,-40.33,67.8
274544,2018-06-29 11:07:51.500000,-46.39,67.8
274545,2018-06-29 11:07:51.531250,-53.18,67.77
274546,2018-06-29 11:07:51.562500,-64.17,67.77
274547,2018-06-29 11:07:51.593750,-76.51,67.77
274548,2018-06-29 11:07:51.625000,-77.83,67.77
274549,2018-06-29 11:07:51.656250,-56.45,67.77
274550,2018-06-29 11:07:51.687500,-16.26,67.77
274551,2018-06-29 11:07:51.718750,26.14,67.77
274552,2018-06-29 11:07:51.750000,57.73,67.77
274553,2018-06-29 11:07:51.781250,76.33,67.77
274554,2018-06-29 11:07:51.812500,85.56,67.77
274555,2018-06-29 11:07:51.843750,89.78,67.77
274556,2018-06-29 11:07:51.875000,92.42,67.77
274557,2018-06-29 11:07:51.906250,95.93,67.77
274558,2018-06-29 11:07:51.937500,102.23,67.77
274559,2018-06-29 11:07:51.968750,112.58,67.77
274560,2018-06-29 11:07:52.000000,126.36,67.77
274561,2018-06-29 11:07:52.031250,140.18,67.77
274562,2018-06-29 11:07:52.062500,150.14,67.77
274563,2018-06-29 11:07:52.093750,156.63,67.77
274564,2018-06-29 11:07:52.125000,164.49,67.77
274565,2018-06-29 11:07:52.156250,174.4,67.77
274566,2018-06-29 11:07:52.187500,177.74,67.77
274567,2018-06-29 11:07:52.218750,165.83,67.77
274568,2018-06-29 11:07:52.250000,141.92,67.77
274569,2018-06-29 11:07:52.281250,118.17,67.77
274570,2018-06-29 11:07:52.312500,102.42,67.77
274571,2018-06-29 11:07:52.343750,93.22,67.77
274572,2018-06-29 11:07:52.375000,82.94,67.77
274573,2018-06-29 11:07:52.406250,60.02,67.77
274574,2018-06-29 11:07:52.437500,15.32,67.77
274575,2018-06-29 11:07:52.468750,-49.17,67.77
274576,2018-06-29 11:07:52.500000,-122.46,67.77
274577,2018-06-29 11:07:52.531250,-187.58,67.72
274578,2018-06-29 11:07:52.562500,-220.59,67.72
274579,2018-06-29 11:07:52.593750,-208.04,67.72
274580,2018-06-29 11:07:52.625000,-166.49,67.72
274581,2018-06-29 11:07:52.656250,-122.8,67.72
274582,2018-06-29 11:07:52.687500,-82.93,67.72
274583,2018-06-29 11:07:52.718750,-40.4,67.72
274584,2018-06-29 11:07:52.750000,4.17,67.72
274585,2018-06-29 11:07:52.781250,49.32,67.72
274586,2018-06-29 11:07:52.812500,98.02,67.72
274587,2018-06-29 11:07:52.843750,145.71,67.72
274588,2018-06-29 11:07:52.875000,178.68,67.72
274589,2018-06-29 11:07:52.906250,186.51,67.72
274590,2018-06-29 11:07:52.937500,165.69,67.72
274591,2018-06-29 11:07:52.968750,116.69,67.72
274592,2018-06-29 11:07:53.000000,47.93,67.72
274593,2018-06-29 11:07:53.031250,-23.58,67.72
274594,2018-06-29 11:07:53.062500,-83.1,67.72
274595,2018-06-29 11:07:53.093750,-128.01,67.72
