,Time,ppg,hr
281600,2018-06-29 11:11:32.000000,-0.06,70.5
281601,2018-06-29 11:11:32.031250,-6.74,70.5
281602,2018-06-29 11:11:32.062500,-13.13,70.5
281603,2018-06-29 11:11:32.093750,-19.89,70.5
281604,2018-06-29 11:11:32.125000,-28.35,70.5
281605,2018-06-29 11:11:32.156250,-37.91,70.5
281606,2018-06-29 11:11:32.187500,-46.44,70.5
281607,2018-06-29 11:11:32.218750,-53.04,70.5
281608,2018-06-29 11:11:32.250000,-59.23,70.5
281609,2018-06-29 11:11:32.281250,-68.02,70.5
281610,2018-06-29 11:11:32.312500,-79.59,70.5
281611,2018-06-29 11:11:32.343750,-86.32,70.5
281612,2018-06-29 11:11:32.375000,-76.97,70.5
281613,2018-06-29 11:11:32.406250,-49.46,70.5
281614,2018-06-29 11:11:32.437500,-14.91,70.5
281615,2018-06-29 11:11:32.468750,13.2,70.5
281616,2018-06-29 11:11:32.500000,29.67,70.5
281617,2018-06-29 11:11:32.531250,36.87,70.23
281618,2018-06-29 11:11:32.562500,38.89,70.23
281619,2018-06-29 11:11:32.593750,38.83,70.23
281620,2018-06-29 11:11:32.625000,38.94,70.23
281621,2018-06-29 11:11:32.656250,40.21,70.23
281622,2018-06-29 11:11:32.687500,41.76,70.23
281623,2018-06-29 11:11:32.718750,42.58,70.23
281624,2018-06-29 11:11:32.750000,42.94,70.23
281625,2018-06-29 11:11:32.781250,42.72,70.23
281626,2018-06-29 11:11:32.812500,40.32,70.23
281627,2018-06-29 11:11:32.843750,35.01,70.23
281628,2018-06-29 11:11:32.875000,28.07,70.23
281629,2018-06-29 11:11:32.906250,21.27,70.23
281630,2018-06-29 11:11:32.937500,15.47,70.23
281631,2018-06-29 11:11:32.968750,10.62,70.23
281632,2018-06-29 11:11:33.000000,5.62,70.23
281633,2018-06-29 11:11:33.031250,-0.67,70.23
281634,2018-06-29 11:11:33.062500,-7.74,70.23
281635,2018-06-29 11:11:33.093750,-14.15,70.23
281636,2018-06-29 11:11:33.125000,-19.78,70.23
281637,2018-06-29 11:11:33.156250,-26.23,70.23
281638,2018-06-29 11:11:33.187500,-34.61,70.23
281639,2018-06-29 11:11:33.218750,-43.5,70.23
281640,2018-06-29 11:11:33.250000,-50.31,70.23
281641,2018-06-29 11:11:33.281250,-54.99,70.23
281642,2018-06-29 11:11:33.312500,-60.82,70.23
281643,2018-06-29 11:11:33.343750,-70.51,70.23
281644,2018-06-29 11:11:33.375000,-81.25,70.23
281645,2018-06-29 11:11:33.406250,-83.17,70.23
281646,2018-06-29 11:11:33.437500,-67.02,70.23
281647,2018-06-29 11:11:33.468750,-35.71,70.23
281648,2018-06-29 11:11:33.500000,-3.26,70.23
281649,2018-06-29 11:11:33.531250,19.51,69.97
281650,2018-06-29 11:11:33.562500,31.71,69.97
281651,2018-06-29 11:11:33.593750,36.17,69.97
281652,2018-06-29 11:11:33.625000,35.01,69.97
281653,2018-06-29 11:11:33.656250,31.81,69.97
281654,2018-06-29 11:11:33.687500,31.04,69.97
281655,2018-06-29 11:11:33.718750,33.59,69.97
281656,2018-06-29 11:11:33.750000,36.7,69.97
281657,2018-06-29 11:11:33.781250,38.61,69.97
281658,2018-06-29 11:11:33.812500,39.98,69.97
281659,2018-06-29 11:11:33.843750,40.3,69.97
281660,2018-06-29 11:11:33.875000,37.28,69.97
281661,2018-06-29 11:11:33.906250,30.7,69.97
281662,2018-06-29 11:11:33.937500,23.31,69.97
281663,2018-06-29 11:11:33.968750,17.37,69.97
281664,2018-06-29 11:11:34.000000,12.28,69.97
281665,2018-06-29 11:11:34.031250,5.95,69.97
281666,2018-06-29 11:11:34.062500,-2.15,69.97
281667,2018-06-29 11:11:34.093750,-10.23,69.97
281668,2018-06-29 11:11:34.125000,-16.57,69.97
281669,2018-06-29 11:11:34.156250,-22.45,69.97
281670,2018-06-29 11:11:34.187500,-30.89,69.97
281671,2018-06-29 11:11:34.218750,-42.09,69.97
281672,2018-06-29 11:11:34.250000,-52.71,69.97
281673,2018-06-29 11:11:34.281250,-60.8,69.97
281674,2018-06-29 11:11:34.312500,-68.83,69.97
281675,2018-06-29 11:11:34.343750,-80.22,69.97
281676,2018-06-29 11:11:34.375000,-93.39,69.97
281677,2018-06-29 11:11:34.406250,-98.73,69.97
281678,2018-06-29 11:11:34.437500,-84.89,69.97
281679,2018-06-29 11:11:34.468750,-51.58,69.97
281680,2018-06-29 11:11:34.500000,-12.05,69.97
281681,2018-06-29 11:11:34.531250,19.72,69.7
281682,2018-06-29 11:11:34.562500,39.0,69.7
281683,2018-06-29 11:11:34.593750,47.75,69.7
281684,2018-06-29 11:11:34.625000,49.74,69.7
281685,2018-06-29 11:11:34.656250,49.39,69.7
281686,2018-06-29 11:11:34.687500,50.32,69.7
281687,2018-06-29 11:11:34.718750,53.03,69.7
281688,2018-06-29 11:11:34.750000,55.66,69.7
281689,2018-06-29 11:11:34.781250,57.32,69.7
281690,2018-06-29 11:11:34.812500,58.76,69.7
281691,2018-06-29 11:11:34.843750,59.12,69.7
281692,2018-06-29 11:11:34.875000,55.61,69.7
281693,2018-06-29 11:11:34.906250,47.71,69.7
281694,2018-06-29 11:11:34.937500,38.26,69.7
281695,2018-06-29 11:11:34.968750,30.05,69.7
281696,2018-06-29 11:11:35.000000,23.19,69.7
281697,2018-06-29 11:11:35.031250,16.13,69.7
281698,2018-06-29 11:11:35.062500,7.95,69.7
281699,2018-06-29 11:11:35.093750,-0.3,69.7
281700,2018-06-29 11:11:35.125000,-7.28,69.7
281701,2018-06-29 11:11:35.156250,-14.23,69.7
281702,2018-06-29 11:11:35.187500,-23.94,69.7
281703,2018-06-29 11:11:35.218750,-36.46,69.7
281704,2018-06-29 11:11:35.250000,-48.47,69.7
281705,2018-06-29 11:11:35.281250,-57.64,69.7
281706,2018-06-29 11:11:35.312500,-65.96,69.7
281707,2018-06-29 11:11:35.343750,-77.75,69.7
281708,2018-06-29 11:11:35.375000,-93.24,69.7
281709,2018-06-29 11:11:35.406250,-102.89,69.7
281710,2018-06-29 11:11:35.437500,-92.88,69.7
281711,2018-06-29 11:11:35.468750,-60.55,69.7
281712,2018-06-29 11:11:35.500000,-19.42,69.7
281713,2018-06-29 11:11:35.531250,14.56,69.43
281714,2018-06-29 11:11:35.562500,35.54,69.43
281715,2018-06-29 11:11:35.593750,45.17,69.43
281716,2018-06-29 11:11:35.625000,46.92,69.43
281717,2018-06-29 11:11:35.656250,45.17,69.43
281718,2018-06-29 11:11:35.687500,44.07,69.43
281719,2018-06-29 11:11:35.718750,44.89,69.43
281720,2018-06-29 11:11:35.750000,46.38,69.43
281721,2018-06-29 11:11:35.781250,47.67,69.43
281722,2018-06-29 11:11:35.812500,49.31,69.43
281723,2018-06-29 11:11:35.843750,51.0,69.43
281724,2018-06-29 11:11:35.875000,50.15,69.43
281725,2018-06-29 11:11:35.906250,45.01,69.43
281726,2018-06-29 11:11:35.937500,37.4,69.43
281727,2018-06-29 11:11:35.968750,30.27,69.43
281728,2018-06-29 11:11:36.000000,24.13,69.43
281729,2018-06-29 11:11:36.031250,17.51,69.43
281730,2018-06-29 11:11:36.062500,9.59,69.43
281731,2018-06-29 11:11:36.093750,1.21,69.43
281732,2018-06-29 11:11:36.125000,-6.32,69.43
281733,2018-06-29 11:11:36.156250,-13.59,69.43
281734,2018-06-29 11:11:36.187500,-22.75,69.43
281735,2018-06-29 11:11:36.218750,-34.09,69.43
281736,2018-06-29 11:11:36.250000,-44.84,69.43
281737,2018-06-29 11:11:36.281250,-53.29,69.43
281738,2018-06-29 11:11:36.312500,-61.43,69.43
281739,2018-06-29 11:11:36.343750,-72.85,69.43
281740,2018-06-29 11:11:36.375000,-88.05,69.43
281741,2018-06-29 11:11:36.406250,-99.41,69.43
281742,2018-06-29 11:11:36.437500,-92.95,69.43
281743,2018-06-29 11:11:36.468750,-62.48,69.43
281744,2018-06-29 11:11:36.500000,-19.47,69.43
281745,2018-06-29 11:11:36.531250,18.07,69.15
281746,2018-06-29 11:11:36.562500,41.69,69.15
281747,2018-06-29 11:11:36.593750,52.59,69.15
281748,2018-06-29 11:11:36.625000,53.98,69.15
281749,2018-06-29 11:11:36.656250,50.11,69.15
281750,2018-06-29 11:11:36.687500,46.93,69.15
281751,2018-06-29 11:11:36.718750,47.73,69.15
281752,2018-06-29 11:11:36.750000,50.97,69.15
281753,2018-06-29 11:11:36.781250,54.14,69.15
281754,2018-06-29 11:11:36.812500,56.6,69.15
281755,2018-06-29 11:11:36.843750,57.04,69.15
281756,2018-06-29 11:11:36.875000,52.81,69.15
281757,2018-06-29 11:11:36.906250,43.96,69.15
281758,2018-06-29 11:11:36.937500,34.16,69.15
281759,2018-06-29 11:11:36.968750,26.0,69.15
281760,2018-06-29 11:11:37.000000,18.16,69.15
281761,2018-06-29 11:11:37.031250,8.43,69.15
281762,2018-06-29 11:11:37.062500,-2.39,69.15
281763,2018-06-29 11:11:37.093750,-11.62,69.15
281764,2018-06-29 11:11:37.125000,-19.42,69.15
281765,2018-06-29 11:11:37.156250,-28.82,69.15
281766,2018-06-29 11:11:37.187500,-40.48,69.15
281767,2018-06-29 11:11:37.218750,-51.75,69.15
281768,2018-06-29 11:11:37.250000,-61.37,69.15
281769,2018-06-29 11:11:37.281250,-71.83,69.15
281770,2018-06-29 11:11:37.312500,-86.4,69.15
281771,2018-06-29 11:11:37.343750,-102.43,69.15
281772,2018-06-29 11:11:37.375000,-107.03,69.15
281773,2018-06-29 11:11:37.406250,-86.4,69.15
281774,2018-06-29 11:11:37.437500,-43.51,69.15
281775,2018-06-29 11:11:37.468750,2.01,69.15
281776,2018-06-29 11:11:37.500000,33.94,69.15
281777,2018-06-29 11:11:37.531250,50.73,68.9
281778,2018-06-29 11:11:37.562500,57.64,68.9
281779,2018-06-29 11:11:37.593750,58.79,68.9
281780,2018-06-29 11:11:37.625000,57.3,68.9
281781,2018-06-29 11:11:37.656250,56.12,68.9
281782,2018-06-29 11:11:37.687500,56.63,68.9
281783,2018-06-29 11:11:37.718750,58.15,68.9
281784,2018-06-29 11:11:37.750000,59.32,68.9
281785,2018-06-29 11:11:37.781250,59.09,68.9
281786,2018-06-29 11:11:37.812500,56.37,68.9
281787,2018-06-29 11:11:37.843750,50.21,68.9
281788,2018-06-29 11:11:37.875000,41.42,68.9
281789,2018-06-29 11:11:37.906250,31.94,68.9
281790,2018-06-29 11:11:37.937500,22.32,68.9
281791,2018-06-29 11:11:37.968750,11.82,68.9
281792,2018-06-29 11:11:38.000000,0.79,68.9
281793,2018-06-29 11:11:38.031250,-9.42,68.9
281794,2018-06-29 11:11:38.062500,-18.73,68.9
281795,2018-06-29 11:11:38.093750,-28.22,68.9
281796,2018-06-29 11:11:38.125000,-38.2,68.9
281797,2018-06-29 11:11:38.156250,-47.69,68.9
281798,2018-06-29 11:11:38.187500,-56.29,68.9
281799,2018-06-29 11:11:38.218750,-65.92,68.9
281800,2018-06-29 11:11:38.250000,-79.3,68.9
281801,2018-06-29 11:11:38.281250,-92.89,68.9
281802,2018-06-29 11:11:38.312500,-93.07,68.9
281803,2018-06-29 11:11:38.343750,-68.32,68.9
281804,2018-06-29 11:11:38.375000,-25.19,68.9
281805,2018-06-29 11:11:38.406250,17.0,68.9
281806,2018-06-29 11:11:38.437500,45.38,68.9
281807,2018-06-29 11:11:38.468750,59.55,68.9
281808,2018-06-29 11:11:38.500000,63.74,68.9
281809,2018-06-29 11:11:38.531250,62.11,68.7
281810,2018-06-29 11:11:38.562500,59.24,68.7
281811,2018-06-29 11:11:38.593750,58.49,68.7
281812,2018-06-29 11:11:38.625000,59.86,68.7
281813,2018-06-29 11:11:38.656250,61.28,68.7
281814,2018-06-29 11:11:38.687500,61.37,68.7
281815,2018-06-29 11:11:38.718750,59.75,68.7
281816,2018-06-29 11:11:38.750000,55.82,68.7
281817,2018-06-29 11:11:38.781250,49.05,68.7
281818,2018-06-29 11:11:38.812500,39.98,68.7
281819,2018-06-29 11:11:38.843750,29.7,68.7
281820,2018-06-29 11:11:38.875000,18.88,68.7
281821,2018-06-29 11:11:38.906250,8.19,68.7
281822,2018-06-29 11:11:38.937500,-1.69,68.7
281823,2018-06-29 11:11:38.968750,-11.18,68.7
281824,2018-06-29 11:11:39.000000,-21.8,68.7
281825,2018-06-29 11:11:39.031250,-34.01,68.7
281826,2018-06-29 11:11:39.062500,-45.92,68.7
281827,2018-06-29 11:11:39.093750,-55.54,68.7
281828,2018-06-29 11:11:39.125000,-63.75,68.7
281829,2018-06-29 11:11:39.156250,-74.05,68.7
281830,2018-06-29 11:11:39.187500,-88.3,68.7
281831,2018-06-29 11:11:39.218750,-100.2,68.7
281832,2018-06-29 11:11:39.250000,-95.97,68.7
281833,2018-06-29 11:11:39.281250,-68.12,68.7
281834,2018-06-29 11:11:39.312500,-26.91,68.7
281835,2018-06-29 11:11:39.343750,9.12,68.7
281836,2018-06-29 11:11:39.375000,30.84,68.7
281837,2018-06-29 11:11:39.406250,40.11,68.7
281838,2018-06-29 11:11:39.437500,40.6,68.7
281839,2018-06-29 11:11:39.468750,36.27,68.7
281840,2018-06-29 11:11:39.500000,33.55,68.7
281841,2018-06-29 11:11:39.531250,36.05,68.5
281842,2018-06-29 11:11:39.562500,40.35,68.5
281843,2018-06-29 11:11:39.593750,41.9,68.5
281844,2018-06-29 11:11:39.625000,41.32,68.5
281845,2018-06-29 11:11:39.656250,40.73,68.5
281846,2018-06-29 11:11:39.687500,38.39,68.5
281847,2018-06-29 11:11:39.718750,31.62,68.5
281848,2018-06-29 11:11:39.750000,21.6,68.5
281849,2018-06-29 11:11:39.781250,11.65,68.5
281850,2018-06-29 11:11:39.812500,3.0,68.5
281851,2018-06-29 11:11:39.843750,-5.35,68.5
281852,2018-06-29 11:11:39.875000,-14.61,68.5
281853,2018-06-29 11:11:39.906250,-24.88,68.5
281854,2018-06-29 11:11:39.937500,-34.56,68.5
281855,2018-06-29 11:11:39.968750,-42.16,68.5
281856,2018-06-29 11:11:40.000000,-49.64,68.5
281857,2018-06-29 11:11:40.031250,-61.16,68.5
281858,2018-06-29 11:11:40.062500,-76.11,68.5
281859,2018-06-29 11:11:40.093750,-84.32,68.5
281860,2018-06-29 11:11:40.125000,-72.99,68.5
281861,2018-06-29 11:11:40.156250,-41.26,68.5
281862,2018-06-29 11:11:40.187500,-3.21,68.5
281863,2018-06-29 11:11:40.218750,26.47,68.5
281864,2018-06-29 11:11:40.250000,43.71,68.5
281865,2018-06-29 11:11:40.281250,51.1,68.5
281866,2018-06-29 11:11:40.312500,51.56,68.5
281867,2018-06-29 11:11:40.343750,48.34,68.5
281868,2018-06-29 11:11:40.375000,45.08,68.5
281869,2018-06-29 11:11:40.406250,43.94,68.5
281870,2018-06-29 11:11:40.437500,44.79,68.5
281871,2018-06-29 11:11:40.468750,46.12,68.5
281872,2018-06-29 11:11:40.500000,46.39,68.5
281873,2018-06-29 11:11:40.531250,44.5,68.32
281874,2018-06-29 11:11:40.562500,39.96,68.32
281875,2018-06-29 11:11:40.593750,33.1,68.32
281876,2018-06-29 11:11:40.625000,25.01,68.32
281877,2018-06-29 11:11:40.656250,16.49,68.32
281878,2018-06-29 11:11:40.687500,7.97,68.32
281879,2018-06-29 11:11:40.718750,0.11,68.32
281880,2018-06-29 11:11:40.750000,-7.1,68.32
281881,2018-06-29 11:11:40.781250,-15.09,68.32
281882,2018-06-29 11:11:40.812500,-24.76,68.32
281883,2018-06-29 11:11:40.843750,-34.79,68.32
281884,2018-06-29 11:11:40.875000,-43.22,68.32
281885,2018-06-29 11:11:40.906250,-50.27,68.32
281886,2018-06-29 11:11:40.937500,-58.68,68.32
281887,2018-06-29 11:11:40.968750,-70.84,68.32
281888,2018-06-29 11:11:41.000000,-82.9,68.32
281889,2018-06-29 11:11:41.031250,-82.76,68.32
281890,2018-06-29 11:11:41.062500,-61.12,68.32
281891,2018-06-29 11:11:41.093750,-24.62,68.32
281892,2018-06-29 11:11:41.125000,10.07,68.32
281893,2018-06-29 11:11:41.156250,32.76,68.32
281894,2018-06-29 11:11:41.187500,43.7,68.32
281895,2018-06-29 11:11:41.218750,46.52,68.32
281896,2018-06-29 11:11:41.250000,45.26,68.32
281897,2018-06-29 11:11:41.281250,44.22,68.32
281898,2018-06-29 11:11:41.312500,45.15,68.32
281899,2018-06-29 11:11:41.343750,46.66,68.32
281900,2018-06-29 11:11:41.375000,47.56,68.32
281901,2018-06-29 11:11:41.406250,48.28,68.32
281902,2018-06-29 11:11:41.437500,48.29,68.32
281903,2018-06-29 11:11:41.468750,45.27,68.32
281904,2018-06-29 11:11:41.500000,38.52,68.32
281905,2018-06-29 11:11:41.531250,30.43,68.17
281906,2018-06-29 11:11:41.562500,23.27,68.17
281907,2018-06-29 11:11:41.593750,16.82,68.17
281908,2018-06-29 11:11:41.625000,9.75,68.17
281909,2018-06-29 11:11:41.656250,1.52,68.17
281910,2018-06-29 11:11:41.687500,-7.48,68.17
281911,2018-06-29 11:11:41.718750,-16.72,68.17
281912,2018-06-29 11:11:41.750000,-26.5,68.17
281913,2018-06-29 11:11:41.781250,-37.12,68.17
281914,2018-06-29 11:11:41.812500,-47.24,68.17
281915,2018-06-29 11:11:41.843750,-55.56,68.17
281916,2018-06-29 11:11:41.875000,-63.88,68.17
281917,2018-06-29 11:11:41.906250,-75.63,68.17
281918,2018-06-29 11:11:41.937500,-89.64,68.17
281919,2018-06-29 11:11:41.968750,-96.25,68.17
281920,2018-06-29 11:11:42.000000,-83.93,68.17
281921,2018-06-29 11:11:42.031250,-52.49,68.17
281922,2018-06-29 11:11:42.062500,-15.51,68.17
281923,2018-06-29 11:11:42.093750,13.17,68.17
281924,2018-06-29 11:11:42.125000,29.84,68.17
281925,2018-06-29 11:11:42.156250,37.13,68.17
281926,2018-06-29 11:11:42.187500,38.08,68.17
281927,2018-06-29 11:11:42.218750,36.25,68.17
281928,2018-06-29 11:11:42.250000,35.48,68.17
281929,2018-06-29 11:11:42.281250,37.14,68.17
281930,2018-06-29 11:11:42.312500,39.52,68.17
281931,2018-06-29 11:11:42.343750,40.86,68.17
281932,2018-06-29 11:11:42.375000,41.46,68.17
281933,2018-06-29 11:11:42.406250,41.41,68.17
281934,2018-06-29 11:11:42.437500,38.92,68.17
281935,2018-06-29 11:11:42.468750,32.99,68.17
281936,2018-06-29 11:11:42.500000,25.62,68.17
281937,2018-06-29 11:11:42.531250,19.09,68.02
281938,2018-06-29 11:11:42.562500,12.79,68.02
281939,2018-06-29 11:11:42.593750,5.19,68.02
281940,2018-06-29 11:11:42.625000,-2.71,68.02
281941,2018-06-29 11:11:42.656250,-8.98,68.02
281942,2018-06-29 11:11:42.687500,-14.39,68.02
281943,2018-06-29 11:11:42.718750,-21.31,68.02
281944,2018-06-29 11:11:42.750000,-30.08,68.02
281945,2018-06-29 11:11:42.781250,-38.81,68.02
281946,2018-06-29 11:11:42.812500,-46.29,68.02
281947,2018-06-29 11:11:42.843750,-53.45,68.02
281948,2018-06-29 11:11:42.875000,-62.79,68.02
281949,2018-06-29 11:11:42.906250,-74.85,68.02
281950,2018-06-29 11:11:42.937500,-82.79,68.02
281951,2018-06-29 11:11:42.968750,-74.81,68.02
281952,2018-06-29 11:11:43.000000,-47.64,68.02
281953,2018-06-29 11:11:43.031250,-12.96,68.02
281954,2018-06-29 11:11:43.062500,14.47,68.02
281955,2018-06-29 11:11:43.093750,29.6,68.02
281956,2018-06-29 11:11:43.125000,34.93,68.02
281957,2018-06-29 11:11:43.156250,33.77,68.02
281958,2018-06-29 11:11:43.187500,30.07,68.02
281959,2018-06-29 11:11:43.218750,28.44,68.02
281960,2018-06-29 11:11:43.250000,30.34,68.02
281961,2018-06-29 11:11:43.281250,33.42,68.02
281962,2018-06-29 11:11:43.312500,34.79,68.02
281963,2018-06-29 11:11:43.343750,33.26,68.02
281964,2018-06-29 11:11:43.375000,29.18,68.02
281965,2018-06-29 11:11:43.406250,23.93,68.02
281966,2018-06-29 11:11:43.437500,18.69,68.02
281967,2018-06-29 11:11:43.468750,13.22,68.02
281968,2018-06-29 11:11:43.500000,6.77,68.02
281969,2018-06-29 11:11:43.531250,-0.37,67.88
281970,2018-06-29 11:11:43.562500,-6.86,67.88
281971,2018-06-29 11:11:43.593750,-12.13,67.88
281972,2018-06-29 11:11:43.625000,-17.1,67.88
281973,2018-06-29 11:11:43.656250,-23.06,67.88
281974,2018-06-29 11:11:43.687500,-30.16,67.88
281975,2018-06-29 11:11:43.718750,-37.23,67.88
281976,2018-06-29 11:11:43.750000,-43.43,67.88
281977,2018-06-29 11:11:43.781250,-50.0,67.88
281978,2018-06-29 11:11:43.812500,-59.39,67.88
281979,2018-06-29 11:11:43.843750,-70.7,67.88
281980,2018-06-29 11:11:43.875000,-75.31,67.88
281981,2018-06-29 11:11:43.906250,-62.6,67.88
281982,2018-06-29 11:11:43.937500,-32.68,67.88
281983,2018-06-29 11:11:43.968750,1.38,67.88
281984,2018-06-29 11:11:44.000000,26.37,67.88
281985,2018-06-29 11:11:44.031250,38.95,67.88
281986,2018-06-29 11:11:44.062500,42.51,67.88
281987,2018-06-29 11:11:44.093750,41.27,67.88
281988,2018-06-29 11:11:44.125000,38.87,67.88
281989,2018-06-29 11:11:44.156250,38.0,67.88
281990,2018-06-29 11:11:44.187500,39.29,67.88
281991,2018-06-29 11:11:44.218750,41.48,67.88
281992,2018-06-29 11:11:44.250000,43.38,67.88
281993,2018-06-29 11:11:44.281250,45.2,67.88
281994,2018-06-29 11:11:44.312500,46.41,67.88
281995,2018-06-29 11:11:44.343750,44.35,67.88
281996,2018-06-29 11:11:44.375000,37.68,67.88
281997,2018-06-29 11:11:44.406250,29.19,67.88
281998,2018-06-29 11:11:44.437500,22.59,67.88
281999,2018-06-29 11:11:44.468750,17.82,67.88
282000,2018-06-29 11:11:44.500000,12.22,67.88
282001,2018-06-29 11:11:44.531250,5.12,67.75
282002,2018-06-29 11:11:44.562500,-1.84,67.75
282003,2018-06-29 11:11:44.593750,-8.09,67.75
282004,2018-06-29 11:11:44.625000,-15.23,67.75
282005,2018-06-29 11:11:44.656250,-24.36,67.75
282006,2018-06-29 11:11:44.687500,-34.46,67.75
282007,2018-06-29 11:11:44.718750,-43.69,67.75
282008,2018-06-29 11:11:44.750000,-51.49,67.75
282009,2018-06-29 11:11:44.781250,-59.77,67.75
282010,2018-06-29 11:11:44.812500,-71.56,67.75
282011,2018-06-29 11:11:44.843750,-85.11,67.75
282012,2018-06-29 11:11:44.875000,-89.23,67.75
282013,2018-06-29 11:11:44.906250,-72.07,67.75
282014,2018-06-29 11:11:44.937500,-36.46,67.75
282015,2018-06-29 11:11:44.968750,1.17,67.75
282016,2018-06-29 11:11:45.000000,27.66,67.75
282017,2018-06-29 11:11:45.031250,41.65,67.75
282018,2018-06-29 11:11:45.062500,46.85,67.75
282019,2018-06-29 11:11:45.093750,46.45,67.75
282020,2018-06-29 11:11:45.125000,44.41,67.75
282021,2018-06-29 11:11:45.156250,44.6,67.75
282022,2018-06-29 11:11:45.187500,47.03,67.75
282023,2018-06-29 11:11:45.218750,49.21,67.75
282024,2018-06-29 11:11:45.250000,50.68,67.75
282025,2018-06-29 11:11:45.281250,52.1,67.75
282026,2018-06-29 11:11:45.312500,51.78,67.75
282027,2018-06-29 11:11:45.343750,47.12,67.75
282028,2018-06-29 11:11:45.375000,38.54,67.75
282029,2018-06-29 11:11:45.406250,29.52,67.75
282030,2018-06-29 11:11:45.437500,22.58,67.75
282031,2018-06-29 11:11:45.468750,16.69,67.75
282032,2018-06-29 11:11:45.500000,9.52,67.75
282033,2018-06-29 11:11:45.531250,1.48,67.62
282034,2018-06-29 11:11:45.562500,-5.46,67.62
282035,2018-06-29 11:11:45.593750,-12.16,67.62
282036,2018-06-29 11:11:45.625000,-21.11,67.62
282037,2018-06-29 11:11:45.656250,-31.53,67.62
282038,2018-06-29 11:11:45.687500,-40.06,67.62
282039,2018-06-29 11:11:45.718750,-46.03,67.62
282040,2018-06-29 11:11:45.750000,-52.63,67.62
282041,2018-06-29 11:11:45.781250,-62.9,67.62
282042,2018-06-29 11:11:45.812500,-75.53,67.62
282043,2018-06-29 11:11:45.843750,-82.29,67.62
282044,2018-06-29 11:11:45.875000,-71.85,67.62
282045,2018-06-29 11:11:45.906250,-41.82,67.62
282046,2018-06-29 11:11:45.937500,-4.84,67.62
282047,2018-06-29 11:11:45.968750,23.17,67.62
282048,2018-06-29 11:11:46.000000,37.09,67.62
282049,2018-06-29 11:11:46.031250,40.89,67.62
282050,2018-06-29 11:11:46.062500,38.98,67.62
282051,2018-06-29 11:11:46.093750,34.98,67.62
282052,2018-06-29 11:11:46.125000,32.91,67.62
282053,2018-06-29 11:11:46.156250,34.21,67.62
282054,2018-06-29 11:11:46.187500,36.66,67.62
282055,2018-06-29 11:11:46.218750,38.36,67.62
282056,2018-06-29 11:11:46.250000,39.33,67.62
282057,2018-06-29 11:11:46.281250,38.46,67.62
282058,2018-06-29 11:11:46.312500,33.57,67.62
282059,2018-06-29 11:11:46.343750,25.33,67.62
282060,2018-06-29 11:11:46.375000,17.46,67.62
282061,2018-06-29 11:11:46.406250,11.92,67.62
282062,2018-06-29 11:11:46.437500,6.94,67.62
282063,2018-06-29 11:11:46.468750,0.68,67.62
282064,2018-06-29 11:11:46.500000,-5.78,67.62
282065,2018-06-29 11:11:46.531250,-11.07,67.48
282066,2018-06-29 11:11:46.562500,-16.7,67.48
282067,2018-06-29 11:11:46.593750,-24.49,67.48
282068,2018-06-29 11:11:46.625000,-33.24,67.48
282069,2018-06-29 11:11:46.656250,-40.6,67.48
282070,2018-06-29 11:11:46.687500,-46.74,67.48
282071,2018-06-29 11:11:46.718750,-54.61,67.48
282072,2018-06-29 11:11:46.750000,-66.17,67.48
282073,2018-06-29 11:11:46.781250,-77.33,67.48
282074,2018-06-29 11:11:46.812500,-77.4,67.48
282075,2018-06-29 11:11:46.843750,-58.4,67.48
282076,2018-06-29 11:11:46.875000,-25.3,67.48
282077,2018-06-29 11:11:46.906250,7.35,67.48
282078,2018-06-29 11:11:46.937500,28.86,67.48
282079,2018-06-29 11:11:46.968750,38.44,67.48
282080,2018-06-29 11:11:47.000000,40.17,67.48
282081,2018-06-29 11:11:47.031250,37.94,67.48
282082,2018-06-29 11:11:47.062500,35.17,67.48
282083,2018-06-29 11:11:47.093750,34.63,67.48
282084,2018-06-29 11:11:47.125000,36.62,67.48
282085,2018-06-29 11:11:47.156250,38.88,67.48
282086,2018-06-29 11:11:47.187500,39.73,67.48
282087,2018-06-29 11:11:47.218750,39.36,67.48
282088,2018-06-29 11:11:47.250000,37.67,67.48
282089,2018-06-29 11:11:47.281250,33.48,67.48
282090,2018-06-29 11:11:47.312500,26.53,67.48
282091,2018-06-29 11:11:47.343750,18.5,67.48
282092,2018-06-29 11:11:47.375000,11.1,67.48
282093,2018-06-29 11:11:47.406250,4.42,67.48
282094,2018-06-29 11:11:47.437500,-2.07,67.48
282095,2018-06-29 11:11:47.468750,-8.41,67.48
282096,2018-06-29 11:11:47.500000,-15.1,67.48
282097,2018-06-29 11:11:47.531250,-23.13,67.33
282098,2018-06-29 11:11:47.562500,-31.81,67.33
282099,2018-06-29 11:11:47.593750,-39.64,67.33
282100,2018-06-29 11:11:47.625000,-47.16,67.33
282101,2018-06-29 11:11:47.656250,-56.56,67.33
282102,2018-06-29 11:11:47.687500,-68.87,67.33
282103,2018-06-29 11:11:47.718750,-80.42,67.33
282104,2018-06-29 11:11:47.750000,-81.11,67.33
282105,2018-06-29 11:11:47.781250,-62.37,67.33
282106,2018-06-29 11:11:47.812500,-28.89,67.33
282107,2018-06-29 11:11:47.843750,4.45,67.33
282108,2018-06-29 11:11:47.875000,27.42,67.33
282109,2018-06-29 11:11:47.906250,39.81,67.33
282110,2018-06-29 11:11:47.937500,44.9,67.33
282111,2018-06-29 11:11:47.968750,45.07,67.33
282112,2018-06-29 11:11:48.000000,43.02,67.33
282113,2018-06-29 11:11:48.031250,42.05,67.33
282114,2018-06-29 11:11:48.062500,43.21,67.33
282115,2018-06-29 11:11:48.093750,44.64,67.33
282116,2018-06-29 11:11:48.125000,44.91,67.33
282117,2018-06-29 11:11:48.156250,44.09,67.33
282118,2018-06-29 11:11:48.187500,41.69,67.33
282119,2018-06-29 11:11:48.218750,36.45,67.33
282120,2018-06-29 11:11:48.250000,28.56,67.33
282121,2018-06-29 11:11:48.281250,19.42,67.33
282122,2018-06-29 11:11:48.312500,10.35,67.33
282123,2018-06-29 11:11:48.343750,2.52,67.33
282124,2018-06-29 11:11:48.375000,-3.79,67.33
282125,2018-06-29 11:11:48.406250,-10.22,67.33
282126,2018-06-29 11:11:48.437500,-18.16,67.33
282127,2018-06-29 11:11:48.468750,-26.13,67.33
282128,2018-06-29 11:11:48.500000,-32.21,67.33
282129,2018-06-29 11:11:48.531250,-37.35,67.22
282130,2018-06-29 11:11:48.562500,-44.16,67.22
282131,2018-06-29 11:11:48.593750,-54.29,67.22
282132,2018-06-29 11:11:48.625000,-65.43,67.22
282133,2018-06-29 11:11:48.656250,-68.56,67.22
282134,2018-06-29 11:11:48.687500,-54.05,67.22
282135,2018-06-29 11:11:48.718750,-23.86,67.22
282136,2018-06-29 11:11:48.750000,8.5,67.22
282137,2018-06-29 11:11:48.781250,31.6,67.22
282138,2018-06-29 11:11:48.812500,43.0,67.22
282139,2018-06-29 11:11:48.843750,44.86,67.22
282140,2018-06-29 11:11:48.875000,41.05,67.22
282141,2018-06-29 11:11:48.906250,37.01,67.22
282142,2018-06-29 11:11:48.937500,36.16,67.22
282143,2018-06-29 11:11:48.968750,37.25,67.22
282144,2018-06-29 11:11:49.000000,37.38,67.22
282145,2018-06-29 11:11:49.031250,35.75,67.22
282146,2018-06-29 11:11:49.062500,33.24,67.22
282147,2018-06-29 11:11:49.093750,29.82,67.22
282148,2018-06-29 11:11:49.125000,24.12,67.22
282149,2018-06-29 11:11:49.156250,15.53,67.22
282150,2018-06-29 11:11:49.187500,5.87,67.22
282151,2018-06-29 11:11:49.218750,-2.15,67.22
282152,2018-06-29 11:11:49.250000,-8.33,67.22
282153,2018-06-29 11:11:49.281250,-15.11,67.22
282154,2018-06-29 11:11:49.312500,-23.72,67.22
282155,2018-06-29 11:11:49.343750,-32.66,67.22
282156,2018-06-29 11:11:49.375000,-40.69,67.22
282157,2018-06-29 11:11:49.406250,-48.42,67.22
282158,2018-06-29 11:11:49.437500,-57.27,67.22
282159,2018-06-29 11:11:49.468750,-68.15,67.22
282160,2018-06-29 11:11:49.500000,-78.2,67.22
282161,2018-06-29 11:11:49.531250,-78.63,67.1
282162,2018-06-29 11:11:49.562500,-62.42,67.1
282163,2018-06-29 11:11:49.593750,-34.44,67.1
282164,2018-06-29 11:11:49.625000,-7.38,67.1
282165,2018-06-29 11:11:49.656250,10.57,67.1
282166,2018-06-29 11:11:49.687500,18.88,67.1
282167,2018-06-29 11:11:49.718750,19.44,67.1
282168,2018-06-29 11:11:49.750000,14.94,67.1
282169,2018-06-29 11:11:49.781250,10.1,67.1
282170,2018-06-29 11:11:49.812500,9.63,67.1
282171,2018-06-29 11:11:49.843750,14.22,67.1
282172,2018-06-29 11:11:49.875000,20.38,67.1
282173,2018-06-29 11:11:49.906250,24.25,67.1
282174,2018-06-29 11:11:49.937500,24.08,67.1
282175,2018-06-29 11:11:49.968750,20.11,67.1
282176,2018-06-29 11:11:50.000000,13.66,67.1
282177,2018-06-29 11:11:50.031250,6.16,67.1
282178,2018-06-29 11:11:50.062500,-1.68,67.1
282179,2018-06-29 11:11:50.093750,-9.58,67.1
282180,2018-06-29 11:11:50.125000,-17.37,67.1
282181,2018-06-29 11:11:50.156250,-25.25,67.1
282182,2018-06-29 11:11:50.187500,-33.97,67.1
282183,2018-06-29 11:11:50.218750,-45.02,67.1
282184,2018-06-29 11:11:50.250000,-59.08,67.1
282185,2018-06-29 11:11:50.281250,-70.59,67.1
282186,2018-06-29 11:11:50.312500,-68.03,67.1
282187,2018-06-29 11:11:50.343750,-46.16,67.1
282188,2018-06-29 11:11:50.375000,-13.95,67.1
282189,2018-06-29 11:11:50.406250,14.72,67.1
282190,2018-06-29 11:11:50.437500,33.29,67.1
282191,2018-06-29 11:11:50.468750,42.25,67.1
282192,2018-06-29 11:11:50.500000,44.32,67.1
282193,2018-06-29 11:11:50.531250,43.27,67.03
282194,2018-06-29 11:11:50.562500,42.7,67.03
282195,2018-06-29 11:11:50.593750,43.93,67.03
282196,2018-06-29 11:11:50.625000,46.39,67.03
282197,2018-06-29 11:11:50.656250,48.66,67.03
282198,2018-06-29 11:11:50.687500,48.76,67.03
282199,2018-06-29 11:11:50.718750,45.23,67.03
282200,2018-06-29 11:11:50.750000,38.46,67.03
282201,2018-06-29 11:11:50.781250,29.99,67.03
282202,2018-06-29 11:11:50.812500,20.43,67.03
282203,2018-06-29 11:11:50.843750,9.15,67.03
282204,2018-06-29 11:11:50.875000,-3.81,67.03
282205,2018-06-29 11:11:50.906250,-16.55,67.03
282206,2018-06-29 11:11:50.937500,-27.43,67.03
282207,2018-06-29 11:11:50.968750,-37.23,67.03
282208,2018-06-29 11:11:51.000000,-49.2,67.03
282209,2018-06-29 11:11:51.031250,-66.08,67.03
282210,2018-06-29 11:11:51.062500,-83.28,67.03
282211,2018-06-29 11:11:51.093750,-86.87,67.03
282212,2018-06-29 11:11:51.125000,-66.41,67.03
282213,2018-06-29 11:11:51.156250,-28.7,67.03
282214,2018-06-29 11:11:51.187500,8.82,67.03
282215,2018-06-29 11:11:51.218750,35.8,67.03
282216,2018-06-29 11:11:51.250000,52.35,67.03
282217,2018-06-29 11:11:51.281250,60.45,67.03
282218,2018-06-29 11:11:51.312500,61.27,67.03
282219,2018-06-29 11:11:51.343750,58.56,67.03
282220,2018-06-29 11:11:51.375000,56.84,67.03
282221,2018-06-29 11:11:51.406250,56.89,67.03
282222,2018-06-29 11:11:51.437500,56.55,67.03
282223,2018-06-29 11:11:51.468750,55.03,67.03
282224,2018-06-29 11:11:51.500000,53.2,67.03
282225,2018-06-29 11:11:51.531250,49.87,67.0
282226,2018-06-29 11:11:51.562500,42.05,67.0
282227,2018-06-29 11:11:51.593750,30.02,67.0
282228,2018-06-29 11:11:51.625000,18.17,67.0
282229,2018-06-29 11:11:51.656250,8.86,67.0
282230,2018-06-29 11:11:51.687500,-0.36,67.0
282231,2018-06-29 11:11:51.718750,-12.17,67.0
282232,2018-06-29 11:11:51.750000,-25.17,67.0
282233,2018-06-29 11:11:51.781250,-36.14,67.0
282234,2018-06-29 11:11:51.812500,-44.61,67.0
282235,2018-06-29 11:11:51.843750,-53.5,67.0
282236,2018-06-29 11:11:51.875000,-66.22,67.0
282237,2018-06-29 11:11:51.906250,-82.2,67.0
282238,2018-06-29 11:11:51.937500,-92.34,67.0
282239,2018-06-29 11:11:51.968750,-83.15,67.0
282240,2018-06-29 11:11:52.000000,-51.5,67.0
282241,2018-06-29 11:11:52.031250,-10.47,67.0
282242,2018-06-29 11:11:52.062500,24.07,67.0
282243,2018-06-29 11:11:52.093750,46.66,67.0
282244,2018-06-29 11:11:52.125000,59.16,67.0
282245,2018-06-29 11:11:52.156250,63.65,67.0
282246,2018-06-29 11:11:52.187500,63.02,67.0
282247,2018-06-29 11:11:52.218750,61.79,67.0
282248,2018-06-29 11:11:52.250000,62.28,67.0
282249,2018-06-29 11:11:52.281250,63.17,67.0
282250,2018-06-29 11:11:52.312500,63.44,67.0
282251,2018-06-29 11:11:52.343750,63.47,67.0
282252,2018-06-29 11:11:52.375000,62.31,67.0
282253,2018-06-29 11:11:52.406250,57.77,67.0
282254,2018-06-29 11:11:52.437500,50.01,67.0
282255,2018-06-29 11:11:52.468750,41.89,67.0
282256,2018-06-29 11:11:52.500000,35.15,67.0
282257,2018-06-29 11:11:52.531250,28.72,67.0
282258,2018-06-29 11:11:52.562500,21.7,67.0
282259,2018-06-29 11:11:52.593750,15.15,67.0
282260,2018-06-29 11:11:52.625000,9.91,67.0
282261,2018-06-29 11:11:52.656250,4.95,67.0
282262,2018-06-29 11:11:52.687500,-1.25,67.0
282263,2018-06-29 11:11:52.718750,-9.0,67.0
282264,2018-06-29 11:11:52.750000,-17.2,67.0
282265,2018-06-29 11:11:52.781250,-25.05,67.0
282266,2018-06-29 11:11:52.812500,-33.66,67.0
282267,2018-06-29 11:11:52.843750,-44.05,67.0
282268,2018-06-29 11:11:52.875000,-54.37,67.0
282269,2018-06-29 11:11:52.906250,-61.93,67.0
282270,2018-06-29 11:11:52.937500,-67.77,67.0
282271,2018-06-29 11:11:52.968750,-76.23,67.0
282272,2018-06-29 11:11:53.000000,-88.89,67.0
282273,2018-06-29 11:11:53.031250,-98.03,67.0
282274,2018-06-29 11:11:53.062500,-89.85,67.0
282275,2018-06-29 11:11:53.093750,-59.51,67.0
282276,2018-06-29 11:11:53.125000,-19.12,67.0
282277,2018-06-29 11:11:53.156250,14.55,67.0
282278,2018-06-29 11:11:53.187500,34.78,67.0
282279,2018-06-29 11:11:53.218750,43.81,67.0
282280,2018-06-29 11:11:53.250000,45.28,67.0
282281,2018-06-29 11:11:53.281250,42.98,67.0
282282,2018-06-29 11:11:53.312500,41.14,67.0
282283,2018-06-29 11:11:53.343750,42.03,67.0
282284,2018-06-29 11:11:53.375000,44.66,67.0
282285,2018-06-29 11:11:53.406250,46.71,67.0
282286,2018-06-29 11:11:53.437500,46.87,67.0
282287,2018-06-29 11:11:53.468750,45.54,67.0
282288,2018-06-29 11:11:53.500000,43.19,67.0
282289,2018-06-29 11:11:53.531250,39.03,67.02
282290,2018-06-29 11:11:53.562500,33.06,67.02
282291,2018-06-29 11:11:53.593750,27.44,67.02
282292,2018-06-29 11:11:53.625000,23.88,67.02
282293,2018-06-29 11:11:53.656250,21.54,67.02
282294,2018-06-29 11:11:53.687500,19.18,67.02
282295,2018-06-29 11:11:53.718750,16.92,67.02
282296,2018-06-29 11:11:53.750000,15.48,67.02
282297,2018-06-29 11:11:53.781250,15.31,67.02
282298,2018-06-29 11:11:53.812500,15.67,67.02
282299,2018-06-29 11:11:53.843750,14.35,67.02
282300,2018-06-29 11:11:53.875000,10.74,67.02
282301,2018-06-29 11:11:53.906250,7.59,67.02
282302,2018-06-29 11:11:53.937500,6.7,67.02
282303,2018-06-29 11:11:53.968750,5.71,67.02
282304,2018-06-29 11:11:54.000000,2.27,67.02
282305,2018-06-29 11:11:54.031250,-1.34,67.02
282306,2018-06-29 11:11:54.062500,0.9,67.02
282307,2018-06-29 11:11:54.093750,16.37,67.02
282308,2018-06-29 11:11:54.125000,50.4,67.02
282309,2018-06-29 11:11:54.156250,99.57,67.02
282310,2018-06-29 11:11:54.187500,148.13,67.02
282311,2018-06-29 11:11:54.218750,177.06,67.02
282312,2018-06-29 11:11:54.250000,179.54,67.02
282313,2018-06-29 11:11:54.281250,164.82,67.02
282314,2018-06-29 11:11:54.312500,146.8,67.02
282315,2018-06-29 11:11:54.343750,132.17,67.02
282316,2018-06-29 11:11:54.375000,116.86,67.02
282317,2018-06-29 11:11:54.406250,89.04,67.02
282318,2018-06-29 11:11:54.437500,41.99,67.02
282319,2018-06-29 11:11:54.468750,-8.0,67.02
282320,2018-06-29 11:11:54.500000,-30.76,67.02
282321,2018-06-29 11:11:54.531250,-21.2,67.02
282322,2018-06-29 11:11:54.562500,-8.99,67.02
282323,2018-06-29 11:11:54.593750,-17.55,67.02
282324,2018-06-29 11:11:54.625000,-38.59,67.02
282325,2018-06-29 11:11:54.656250,-57.43,67.02
282326,2018-06-29 11:11:54.687500,-74.91,67.02
282327,2018-06-29 11:11:54.718750,-94.27,67.02
282328,2018-06-29 11:11:54.750000,-110.08,67.02
282329,2018-06-29 11:11:54.781250,-120.03,67.02
282330,2018-06-29 11:11:54.812500,-130.43,67.02
282331,2018-06-29 11:11:54.843750,-143.48,67.02
282332,2018-06-29 11:11:54.875000,-151.06,67.02
282333,2018-06-29 11:11:54.906250,-147.75,67.02
282334,2018-06-29 11:11:54.937500,-139.08,67.02
282335,2018-06-29 11:11:54.968750,-130.09,67.02
282336,2018-06-29 11:11:55.000000,-116.46,67.02
282337,2018-06-29 11:11:55.031250,-92.77,67.02
282338,2018-06-29 11:11:55.062500,-58.05,67.02
282339,2018-06-29 11:11:55.093750,-9.22,67.02
282340,2018-06-29 11:11:55.125000,57.83,67.02
282341,2018-06-29 11:11:55.156250,137.39,67.02
282342,2018-06-29 11:11:55.187500,214.64,67.02
282343,2018-06-29 11:11:55.218750,275.81,67.02
282344,2018-06-29 11:11:55.250000,309.03,67.02
282345,2018-06-29 11:11:55.281250,303.05,67.02
282346,2018-06-29 11:11:55.312500,257.63,67.02
282347,2018-06-29 11:11:55.343750,189.22,67.02
282348,2018-06-29 11:11:55.375000,116.33,67.02
282349,2018-06-29 11:11:55.406250,46.18,67.02
282350,2018-06-29 11:11:55.437500,-18.05,67.02
282351,2018-06-29 11:11:55.468750,-70.18,67.02
282352,2018-06-29 11:11:55.500000,-109.38,67.02
282353,2018-06-29 11:11:55.531250,-145.07,67.02
282354,2018-06-29 11:11:55.562500,-188.8,67.02
282355,2018-06-29 11:11:55.593750,-240.7,67.02
282356,2018-06-29 11:11:55.625000,-277.14,67.02
282357,2018-06-29 11:11:55.656250,-265.8,67.02
282358,2018-06-29 11:11:55.687500,-208.5,67.02
282359,2018-06-29 11:11:55.718750,-146.5,67.02
282360,2018-06-29 11:11:55.750000,-110.56,67.02
282361,2018-06-29 11:11:55.781250,-94.41,67.02
282362,2018-06-29 11:11:55.812500,-82.56,67.02
282363,2018-06-29 11:11:55.843750,-70.95,67.02
282364,2018-06-29 11:11:55.875000,-59.89,67.02
282365,2018-06-29 11:11:55.906250,-57.43,67.02
282366,2018-06-29 11:11:55.937500,-82.21,67.02
282367,2018-06-29 11:11:55.968750,-136.77,67.02
282368,2018-06-29 11:11:56.000000,-186.84,67.02
282369,2018-06-29 11:11:56.031250,-190.5,67.02
282370,2018-06-29 11:11:56.062500,-143.54,67.02
282371,2018-06-29 11:11:56.093750,-79.94,67.02
282372,2018-06-29 11:11:56.125000,-33.42,67.02
282373,2018-06-29 11:11:56.156250,-13.28,67.02
282374,2018-06-29 11:11:56.187500,-12.24,67.02
282375,2018-06-29 11:11:56.218750,-20.81,67.02
282376,2018-06-29 11:11:56.250000,-30.15,67.02
282377,2018-06-29 11:11:56.281250,-32.82,67.02
282378,2018-06-29 11:11:56.312500,-28.02,67.02
282379,2018-06-29 11:11:56.343750,-20.51,67.02
282380,2018-06-29 11:11:56.375000,-12.9,67.02
282381,2018-06-29 11:11:56.406250,-4.84,67.02
282382,2018-06-29 11:11:56.437500,1.04,67.02
282383,2018-06-29 11:11:56.468750,-0.17,67.02
282384,2018-06-29 11:11:56.500000,-8.52,67.02
282385,2018-06-29 11:11:56.531250,-18.29,67.02
282386,2018-06-29 11:11:56.562500,-25.22,67.02
282387,2018-06-29 11:11:56.593750,-31.35,67.02
282388,2018-06-29 11:11:56.625000,-41.61,67.02
282389,2018-06-29 11:11:56.656250,-56.41,67.02
282390,2018-06-29 11:11:56.687500,-70.57,67.02
282391,2018-06-29 11:11:56.718750,-79.84,67.02
282392,2018-06-29 11:11:56.750000,-85.8,67.02
282393,2018-06-29 11:11:56.781250,-93.93,67.02
282394,2018-06-29 11:11:56.812500,-106.88,67.02
282395,2018-06-29 11:11:56.843750,-116.51,67.02
282396,2018-06-29 11:11:56.875000,-105.84,67.02
282397,2018-06-29 11:11:56.906250,-67.82,67.02
282398,2018-06-29 11:11:56.937500,-17.17,67.02
282399,2018-06-29 11:11:56.968750,24.55,67.02
282400,2018-06-29 11:11:57.000000,48.83,67.02
282401,2018-06-29 11:11:57.031250,58.85,67.02
282402,2018-06-29 11:11:57.062500,58.5,67.02
282403,2018-06-29 11:11:57.093750,51.55,67.02
282404,2018-06-29 11:11:57.125000,44.85,67.02
282405,2018-06-29 11:11:57.156250,44.06,67.02
282406,2018-06-29 11:11:57.187500,48.11,67.02
282407,2018-06-29 11:11:57.218750,51.49,67.02
282408,2018-06-29 11:11:57.250000,50.55,67.02
282409,2018-06-29 11:11:57.281250,44.98,67.02
282410,2018-06-29 11:11:57.312500,35.28,67.02
282411,2018-06-29 11:11:57.343750,20.96,67.02
282412,2018-06-29 11:11:57.375000,1.87,67.02
282413,2018-06-29 11:11:57.406250,-19.12,67.02
282414,2018-06-29 11:11:57.437500,-37.38,67.02
282415,2018-06-29 11:11:57.468750,-51.67,67.02
282416,2018-06-29 11:11:57.500000,-65.56,67.02
282417,2018-06-29 11:11:57.531250,-83.64,67.02
282418,2018-06-29 11:11:57.562500,-106.59,67.02
282419,2018-06-29 11:11:57.593750,-123.9,67.02
282420,2018-06-29 11:11:57.625000,-114.37,67.02
282421,2018-06-29 11:11:57.656250,-66.44,67.02
282422,2018-06-29 11:11:57.687500,4.44,67.02
282423,2018-06-29 11:11:57.718750,69.76,67.02
282424,2018-06-29 11:11:57.750000,113.37,67.02
282425,2018-06-29 11:11:57.781250,135.14,67.02
282426,2018-06-29 11:11:57.812500,140.56,67.02
282427,2018-06-29 11:11:57.843750,136.46,67.02
282428,2018-06-29 11:11:57.875000,130.36,67.02
282429,2018-06-29 11:11:57.906250,127.43,67.02
282430,2018-06-29 11:11:57.937500,128.51,67.02
282431,2018-06-29 11:11:57.968750,130.9,67.02
282432,2018-06-29 11:11:58.000000,129.83,67.02
282433,2018-06-29 11:11:58.031250,121.59,67.02
282434,2018-06-29 11:11:58.062500,106.7,67.02
282435,2018-06-29 11:11:58.093750,88.3,67.02
282436,2018-06-29 11:11:58.125000,67.26,67.02
282437,2018-06-29 11:11:58.156250,42.11,67.02
282438,2018-06-29 11:11:58.187500,13.54,67.02
282439,2018-06-29 11:11:58.218750,-14.36,67.02
282440,2018-06-29 11:11:58.250000,-37.9,67.02
282441,2018-06-29 11:11:58.281250,-58.43,67.02
282442,2018-06-29 11:11:58.312500,-82.85,67.02
282443,2018-06-29 11:11:58.343750,-114.73,67.02
282444,2018-06-29 11:11:58.375000,-141.08,67.02
282445,2018-06-29 11:11:58.406250,-137.17,67.02
282446,2018-06-29 11:11:58.437500,-94.12,67.02
282447,2018-06-29 11:11:58.468750,-32.67,67.02
282448,2018-06-29 11:11:58.500000,18.61,67.02
282449,2018-06-29 11:11:58.531250,49.5,67.02
282450,2018-06-29 11:11:58.562500,65.16,67.02
282451,2018-06-29 11:11:58.593750,70.18,67.02
282452,2018-06-29 11:11:58.625000,67.91,67.02
282453,2018-06-29 11:11:58.656250,66.07,67.02
282454,2018-06-29 11:11:58.687500,71.04,67.02
282455,2018-06-29 11:11:58.718750,79.61,67.02
282456,2018-06-29 11:11:58.750000,83.49,67.02
282457,2018-06-29 11:11:58.781250,80.09,67.02
282458,2018-06-29 11:11:58.812500,73.12,67.02
282459,2018-06-29 11:11:58.843750,64.11,67.02
282460,2018-06-29 11:11:58.875000,49.56,67.02
282461,2018-06-29 11:11:58.906250,28.4,67.02
282462,2018-06-29 11:11:58.937500,6.86,67.02
282463,2018-06-29 11:11:58.968750,-9.04,67.02
282464,2018-06-29 11:11:59.000000,-21.7,67.02
282465,2018-06-29 11:11:59.031250,-37.75,67.02
282466,2018-06-29 11:11:59.062500,-59.11,67.02
282467,2018-06-29 11:11:59.093750,-78.86,67.02
282468,2018-06-29 11:11:59.125000,-82.07,67.02
282469,2018-06-29 11:11:59.156250,-56.28,67.02
282470,2018-06-29 11:11:59.187500,-7.88,67.02
282471,2018-06-29 11:11:59.218750,39.65,67.02
282472,2018-06-29 11:11:59.250000,68.46,67.02
282473,2018-06-29 11:11:59.281250,77.99,67.02
282474,2018-06-29 11:11:59.312500,74.55,67.02
282475,2018-06-29 11:11:59.343750,62.64,67.02
282476,2018-06-29 11:11:59.375000,48.32,67.02
282477,2018-06-29 11:11:59.406250,39.41,67.02
282478,2018-06-29 11:11:59.437500,37.43,67.02
282479,2018-06-29 11:11:59.468750,36.01,67.02
282480,2018-06-29 11:11:59.500000,30.43,67.02
282481,2018-06-29 11:11:59.531250,22.19,66.98
282482,2018-06-29 11:11:59.562500,12.03,66.98
282483,2018-06-29 11:11:59.593750,-3.65,66.98
282484,2018-06-29 11:11:59.625000,-25.61,66.98
282485,2018-06-29 11:11:59.656250,-48.23,66.98
282486,2018-06-29 11:11:59.687500,-66.14,66.98
282487,2018-06-29 11:11:59.718750,-79.97,66.98
282488,2018-06-29 11:11:59.750000,-94.26,66.98
282489,2018-06-29 11:11:59.781250,-113.24,66.98
282490,2018-06-29 11:11:59.812500,-134.94,66.98
282491,2018-06-29 11:11:59.843750,-143.99,66.98
282492,2018-06-29 11:11:59.875000,-120.01,66.98
282493,2018-06-29 11:11:59.906250,-62.23,66.98
282494,2018-06-29 11:11:59.937500,4.46,66.98
282495,2018-06-29 11:11:59.968750,54.98,66.98
282496,2018-06-29 11:12:00.000000,83.04,66.98
282497,2018-06-29 11:12:00.031250,92.9,66.98
282498,2018-06-29 11:12:00.062500,89.55,66.98
282499,2018-06-29 11:12:00.093750,81.54,66.98
282500,2018-06-29 11:12:00.125000,78.6,66.98
282501,2018-06-29 11:12:00.156250,82.41,66.98
282502,2018-06-29 11:12:00.187500,86.83,66.98
282503,2018-06-29 11:12:00.218750,87.73,66.98
282504,2018-06-29 11:12:00.250000,86.4,66.98
282505,2018-06-29 11:12:00.281250,82.93,66.98
282506,2018-06-29 11:12:00.312500,73.05,66.98
282507,2018-06-29 11:12:00.343750,54.73,66.98
282508,2018-06-29 11:12:00.375000,33.38,66.98
282509,2018-06-29 11:12:00.406250,16.41,66.98
282510,2018-06-29 11:12:00.437500,4.31,66.98
282511,2018-06-29 11:12:00.468750,-8.37,66.98
282512,2018-06-29 11:12:00.500000,-24.08,66.98
282513,2018-06-29 11:12:00.531250,-39.01,66.88
282514,2018-06-29 11:12:00.562500,-49.84,66.88
282515,2018-06-29 11:12:00.593750,-59.8,66.88
282516,2018-06-29 11:12:00.625000,-76.58,66.88
282517,2018-06-29 11:12:00.656250,-103.96,66.88
282518,2018-06-29 11:12:00.687500,-131.19,66.88
282519,2018-06-29 11:12:00.718750,-133.13,66.88
282520,2018-06-29 11:12:00.750000,-93.26,66.88
282521,2018-06-29 11:12:00.781250,-26.07,66.88
282522,2018-06-29 11:12:00.812500,35.66,66.88
282523,2018-06-29 11:12:00.843750,72.45,66.88
282524,2018-06-29 11:12:00.875000,85.82,66.88
282525,2018-06-29 11:12:00.906250,83.38,66.88
282526,2018-06-29 11:12:00.937500,72.42,66.88
282527,2018-06-29 11:12:00.968750,62.89,66.88
282528,2018-06-29 11:12:01.000000,62.55,66.88
282529,2018-06-29 11:12:01.031250,69.81,66.88
282530,2018-06-29 11:12:01.062500,77.66,66.88
282531,2018-06-29 11:12:01.093750,81.8,66.88
282532,2018-06-29 11:12:01.125000,81.0,66.88
282533,2018-06-29 11:12:01.156250,74.06,66.88
282534,2018-06-29 11:12:01.187500,61.42,66.88
282535,2018-06-29 11:12:01.218750,46.69,66.88
282536,2018-06-29 11:12:01.250000,33.1,66.88
282537,2018-06-29 11:12:01.281250,20.97,66.88
282538,2018-06-29 11:12:01.312500,9.98,66.88
282539,2018-06-29 11:12:01.343750,0.21,66.88
282540,2018-06-29 11:12:01.375000,-10.52,66.88
282541,2018-06-29 11:12:01.406250,-25.82,66.88
282542,2018-06-29 11:12:01.437500,-44.68,66.88
282543,2018-06-29 11:12:01.468750,-60.87,66.88
282544,2018-06-29 11:12:01.500000,-71.08,66.88
282545,2018-06-29 11:12:01.531250,-79.55,66.77
282546,2018-06-29 11:12:01.562500,-92.78,66.77
282547,2018-06-29 11:12:01.593750,-108.85,66.77
282548,2018-06-29 11:12:01.625000,-109.68,66.77
282549,2018-06-29 11:12:01.656250,-72.0,66.77
282550,2018-06-29 11:12:01.687500,4.39,66.77
282551,2018-06-29 11:12:01.718750,87.87,66.77
282552,2018-06-29 11:12:01.750000,143.71,66.77
282553,2018-06-29 11:12:01.781250,163.17,66.77
282554,2018-06-29 11:12:01.812500,160.01,66.77
282555,2018-06-29 11:12:01.843750,151.98,66.77
282556,2018-06-29 11:12:01.875000,150.55,66.77
282557,2018-06-29 11:12:01.906250,157.9,66.77
282558,2018-06-29 11:12:01.937500,167.09,66.77
282559,2018-06-29 11:12:01.968750,169.18,66.77
282560,2018-06-29 11:12:02.000000,163.41,66.77
282561,2018-06-29 11:12:02.031250,155.64,66.77
282562,2018-06-29 11:12:02.062500,144.46,66.77
282563,2018-06-29 11:12:02.093750,114.81,66.77
282564,2018-06-29 11:12:02.125000,52.54,66.77
282565,2018-06-29 11:12:02.156250,-37.27,66.77
282566,2018-06-29 11:12:02.187500,-135.67,66.77
282567,2018-06-29 11:12:02.218750,-232.35,66.77
282568,2018-06-29 11:12:02.250000,-329.92,66.77
282569,2018-06-29 11:12:02.281250,-419.26,66.77
282570,2018-06-29 11:12:02.312500,-470.88,66.77
282571,2018-06-29 11:12:02.343750,-468.67,66.77
282572,2018-06-29 11:12:02.375000,-434.92,66.77
282573,2018-06-29 11:12:02.406250,-403.13,66.77
282574,2018-06-29 11:12:02.437500,-379.07,66.77
282575,2018-06-29 11:12:02.468750,-343.44,66.77
282576,2018-06-29 11:12:02.500000,-282.23,66.77
282577,2018-06-29 11:12:02.531250,-201.39,66.63
282578,2018-06-29 11:12:02.562500,-118.83,66.63
282579,2018-06-29 11:12:02.593750,-51.27,66.63
282580,2018-06-29 11:12:02.625000,-5.97,66.63
282581,2018-06-29 11:12:02.656250,21.64,66.63
282582,2018-06-29 11:12:02.687500,43.28,66.63
282583,2018-06-29 11:12:02.718750,68.19,66.63
282584,2018-06-29 11:12:02.750000,96.44,66.63
282585,2018-06-29 11:12:02.781250,121.19,66.63
282586,2018-06-29 11:12:02.812500,136.79,66.63
282587,2018-06-29 11:12:02.843750,144.33,66.63
282588,2018-06-29 11:12:02.875000,147.66,66.63
282589,2018-06-29 11:12:02.906250,146.82,66.63
282590,2018-06-29 11:12:02.937500,140.2,66.63
282591,2018-06-29 11:12:02.968750,130.08,66.63
282592,2018-06-29 11:12:03.000000,120.07,66.63
282593,2018-06-29 11:12:03.031250,107.25,66.63
282594,2018-06-29 11:12:03.062500,82.7,66.63
282595,2018-06-29 11:12:03.093750,42.64,66.63
282596,2018-06-29 11:12:03.125000,-3.68,66.63
282597,2018-06-29 11:12:03.156250,-42.35,66.63
282598,2018-06-29 11:12:03.187500,-70.67,66.63
282599,2018-06-29 11:12:03.218750,-98.6,66.63
282600,2018-06-29 11:12:03.250000,-135.06,66.63
282601,2018-06-29 11:12:03.281250,-174.49,66.63
282602,2018-06-29 11:12:03.312500,-195.71,66.63
282603,2018-06-29 11:12:03.343750,-177.94,66.63
282604,2018-06-29 11:12:03.375000,-123.11,66.63
282605,2018-06-29 11:12:03.406250,-56.09,66.63
282606,2018-06-29 11:12:03.437500,0.29,66.63
282607,2018-06-29 11:12:03.468750,40.77,66.63
282608,2018-06-29 11:12:03.500000,68.62,66.63
282609,2018-06-29 11:12:03.531250,86.46,66.5
282610,2018-06-29 11:12:03.562500,98.46,66.5
282611,2018-06-29 11:12:03.593750,110.35,66.5
282612,2018-06-29 11:12:03.625000,123.73,66.5
282613,2018-06-29 11:12:03.656250,134.67,66.5
282614,2018-06-29 11:12:03.687500,140.13,66.5
282615,2018-06-29 11:12:03.718750,142.35,66.5
282616,2018-06-29 11:12:03.750000,144.04,66.5
282617,2018-06-29 11:12:03.781250,142.8,66.5
282618,2018-06-29 11:12:03.812500,134.67,66.5
282619,2018-06-29 11:12:03.843750,120.19,66.5
282620,2018-06-29 11:12:03.875000,103.62,66.5
282621,2018-06-29 11:12:03.906250,87.56,66.5
282622,2018-06-29 11:12:03.937500,70.72,66.5
282623,2018-06-29 11:12:03.968750,50.62,66.5
282624,2018-06-29 11:12:04.000000,28.25,66.5
282625,2018-06-29 11:12:04.031250,8.15,66.5
282626,2018-06-29 11:12:04.062500,-7.56,66.5
282627,2018-06-29 11:12:04.093750,-22.72,66.5
282628,2018-06-29 11:12:04.125000,-43.6,66.5
282629,2018-06-29 11:12:04.156250,-70.85,66.5
282630,2018-06-29 11:12:04.187500,-92.05,66.5
282631,2018-06-29 11:12:04.218750,-86.08,66.5
282632,2018-06-29 11:12:04.250000,-43.67,66.5
282633,2018-06-29 11:12:04.281250,18.33,66.5
282634,2018-06-29 11:12:04.312500,71.43,66.5
282635,2018-06-29 11:12:04.343750,100.91,66.5
282636,2018-06-29 11:12:04.375000,109.86,66.5
282637,2018-06-29 11:12:04.406250,106.48,66.5
282638,2018-06-29 11:12:04.437500,97.23,66.5
282639,2018-06-29 11:12:04.468750,88.46,66.5
282640,2018-06-29 11:12:04.500000,84.86,66.5
282641,2018-06-29 11:12:04.531250,85.76,66.38
282642,2018-06-29 11:12:04.562500,87.51,66.38
282643,2018-06-29 11:12:04.593750,88.17,66.38
282644,2018-06-29 11:12:04.625000,86.79,66.38
282645,2018-06-29 11:12:04.656250,81.43,66.38
282646,2018-06-29 11:12:04.687500,71.29,66.38
282647,2018-06-29 11:12:04.718750,58.46,66.38
282648,2018-06-29 11:12:04.750000,45.72,66.38
282649,2018-06-29 11:12:04.781250,34.24,66.38
282650,2018-06-29 11:12:04.812500,23.98,66.38
282651,2018-06-29 11:12:04.843750,14.83,66.38
282652,2018-06-29 11:12:04.875000,5.69,66.38
282653,2018-06-29 11:12:04.906250,-5.98,66.38
282654,2018-06-29 11:12:04.937500,-21.0,66.38
282655,2018-06-29 11:12:04.968750,-35.87,66.38
282656,2018-06-29 11:12:05.000000,-47.23,66.38
282657,2018-06-29 11:12:05.031250,-57.85,66.38
282658,2018-06-29 11:12:05.062500,-73.98,66.38
282659,2018-06-29 11:12:05.093750,-95.17,66.38
282660,2018-06-29 11:12:05.125000,-107.07,66.38
282661,2018-06-29 11:12:05.156250,-90.26,66.38
282662,2018-06-29 11:12:05.187500,-42.02,66.38
282663,2018-06-29 11:12:05.218750,16.37,66.38
282664,2018-06-29 11:12:05.250000,60.43,66.38
282665,2018-06-29 11:12:05.281250,82.45,66.38
282666,2018-06-29 11:12:05.312500,87.12,66.38
282667,2018-06-29 11:12:05.343750,80.49,66.38
282668,2018-06-29 11:12:05.375000,69.88,66.38
282669,2018-06-29 11:12:05.406250,63.35,66.38
282670,2018-06-29 11:12:05.437500,63.43,66.38
282671,2018-06-29 11:12:05.468750,66.29,66.38
282672,2018-06-29 11:12:05.500000,67.98,66.38
282673,2018-06-29 11:12:05.531250,67.02,66.28
282674,2018-06-29 11:12:05.562500,62.67,66.28
282675,2018-06-29 11:12:05.593750,54.78,66.28
282676,2018-06-29 11:12:05.625000,44.54,66.28
282677,2018-06-29 11:12:05.656250,33.11,66.28
282678,2018-06-29 11:12:05.687500,20.71,66.28
282679,2018-06-29 11:12:05.718750,8.0,66.28
282680,2018-06-29 11:12:05.750000,-3.31,66.28
282681,2018-06-29 11:12:05.781250,-12.42,66.28
282682,2018-06-29 11:12:05.812500,-20.85,66.28
282683,2018-06-29 11:12:05.843750,-30.58,66.28
282684,2018-06-29 11:12:05.875000,-41.66,66.28
282685,2018-06-29 11:12:05.906250,-52.36,66.28
282686,2018-06-29 11:12:05.937500,-61.91,66.28
282687,2018-06-29 11:12:05.968750,-72.75,66.28
282688,2018-06-29 11:12:06.000000,-88.41,66.28
282689,2018-06-29 11:12:06.031250,-105.46,66.28
282690,2018-06-29 11:12:06.062500,-109.38,66.28
282691,2018-06-29 11:12:06.093750,-86.39,66.28
282692,2018-06-29 11:12:06.125000,-40.95,66.28
282693,2018-06-29 11:12:06.156250,6.37,66.28
282694,2018-06-29 11:12:06.187500,38.92,66.28
282695,2018-06-29 11:12:06.218750,54.01,66.28
282696,2018-06-29 11:12:06.250000,55.33,66.28
282697,2018-06-29 11:12:06.281250,47.42,66.28
282698,2018-06-29 11:12:06.312500,37.92,66.28
282699,2018-06-29 11:12:06.343750,34.6,66.28
282700,2018-06-29 11:12:06.375000,37.66,66.28
282701,2018-06-29 11:12:06.406250,41.39,66.28
282702,2018-06-29 11:12:06.437500,42.6,66.28
282703,2018-06-29 11:12:06.468750,41.69,66.28
282704,2018-06-29 11:12:06.500000,38.05,66.28
282705,2018-06-29 11:12:06.531250,30.3,66.17
282706,2018-06-29 11:12:06.562500,19.5,66.17
282707,2018-06-29 11:12:06.593750,8.39,66.17
282708,2018-06-29 11:12:06.625000,-1.19,66.17
282709,2018-06-29 11:12:06.656250,-9.67,66.17
282710,2018-06-29 11:12:06.687500,-19.26,66.17
282711,2018-06-29 11:12:06.718750,-31.23,66.17
282712,2018-06-29 11:12:06.750000,-43.54,66.17
282713,2018-06-29 11:12:06.781250,-52.94,66.17
282714,2018-06-29 11:12:06.812500,-59.9,66.17
282715,2018-06-29 11:12:06.843750,-68.82,66.17
282716,2018-06-29 11:12:06.875000,-83.1,66.17
282717,2018-06-29 11:12:06.906250,-98.86,66.17
282718,2018-06-29 11:12:06.937500,-103.4,66.17
282719,2018-06-29 11:12:06.968750,-84.66,66.17
282720,2018-06-29 11:12:07.000000,-45.32,66.17
282721,2018-06-29 11:12:07.031250,-2.7,66.17
282722,2018-06-29 11:12:07.062500,27.2,66.17
282723,2018-06-29 11:12:07.093750,40.6,66.17
282724,2018-06-29 11:12:07.125000,42.01,66.17
282725,2018-06-29 11:12:07.156250,37.23,66.17
282726,2018-06-29 11:12:07.187500,31.9,66.17
282727,2018-06-29 11:12:07.218750,30.56,66.17
282728,2018-06-29 11:12:07.250000,33.99,66.17
282729,2018-06-29 11:12:07.281250,38.91,66.17
282730,2018-06-29 11:12:07.312500,42.0,66.17
282731,2018-06-29 11:12:07.343750,42.63,66.17
282732,2018-06-29 11:12:07.375000,41.1,66.17
282733,2018-06-29 11:12:07.406250,36.94,66.17
282734,2018-06-29 11:12:07.437500,30.11,66.17
282735,2018-06-29 11:12:07.468750,22.04,66.17
282736,2018-06-29 11:12:07.500000,14.84,66.17
282737,2018-06-29 11:12:07.531250,9.51,66.1
282738,2018-06-29 11:12:07.562500,5.03,66.1
282739,2018-06-29 11:12:07.593750,-0.42,66.1
282740,2018-06-29 11:12:07.625000,-6.69,66.1
282741,2018-06-29 11:12:07.656250,-11.04,66.1
282742,2018-06-29 11:12:07.687500,-11.64,66.1
282743,2018-06-29 11:12:07.718750,-10.73,66.1
282744,2018-06-29 11:12:07.750000,-12.88,66.1
282745,2018-06-29 11:12:07.781250,-18.94,66.1
282746,2018-06-29 11:12:07.812500,-20.68,66.1
282747,2018-06-29 11:12:07.843750,-5.05,66.1
282748,2018-06-29 11:12:07.875000,30.99,66.1
282749,2018-06-29 11:12:07.906250,73.24,66.1
282750,2018-06-29 11:12:07.937500,103.0,66.1
282751,2018-06-29 11:12:07.968750,114.8,66.1
282752,2018-06-29 11:12:08.000000,116.84,66.1
282753,2018-06-29 11:12:08.031250,116.35,66.1
282754,2018-06-29 11:12:08.062500,112.23,66.1
282755,2018-06-29 11:12:08.093750,103.42,66.1
282756,2018-06-29 11:12:08.125000,95.74,66.1
282757,2018-06-29 11:12:08.156250,93.06,66.1
282758,2018-06-29 11:12:08.187500,88.25,66.1
282759,2018-06-29 11:12:08.218750,71.02,66.1
282760,2018-06-29 11:12:08.250000,40.3,66.1
282761,2018-06-29 11:12:08.281250,4.02,66.1
282762,2018-06-29 11:12:08.312500,-29.21,66.1
282763,2018-06-29 11:12:08.343750,-54.69,66.1
282764,2018-06-29 11:12:08.375000,-72.61,66.1
282765,2018-06-29 11:12:08.406250,-87.49,66.1
282766,2018-06-29 11:12:08.437500,-103.16,66.1
282767,2018-06-29 11:12:08.468750,-117.23,66.1
282768,2018-06-29 11:12:08.500000,-124.8,66.1
282769,2018-06-29 11:12:08.531250,-125.32,66.03
282770,2018-06-29 11:12:08.562500,-121.06,66.03
282771,2018-06-29 11:12:08.593750,-113.58,66.03
282772,2018-06-29 11:12:08.625000,-106.22,66.03
282773,2018-06-29 11:12:08.656250,-103.83,66.03
282774,2018-06-29 11:12:08.687500,-105.93,66.03
282775,2018-06-29 11:12:08.718750,-102.94,66.03
282776,2018-06-29 11:12:08.750000,-81.72,66.03
282777,2018-06-29 11:12:08.781250,-36.61,66.03
282778,2018-06-29 11:12:08.812500,23.85,66.03
282779,2018-06-29 11:12:08.843750,82.51,66.03
282780,2018-06-29 11:12:08.875000,126.01,66.03
282781,2018-06-29 11:12:08.906250,151.38,66.03
282782,2018-06-29 11:12:08.937500,165.49,66.03
282783,2018-06-29 11:12:08.968750,182.2,66.03
282784,2018-06-29 11:12:09.000000,213.58,66.03
282785,2018-06-29 11:12:09.031250,254.86,66.03
282786,2018-06-29 11:12:09.062500,280.58,66.03
282787,2018-06-29 11:12:09.093750,265.87,66.03
282788,2018-06-29 11:12:09.125000,212.12,66.03
282789,2018-06-29 11:12:09.156250,141.89,66.03
282790,2018-06-29 11:12:09.187500,71.91,66.03
282791,2018-06-29 11:12:09.218750,5.75,66.03
282792,2018-06-29 11:12:09.250000,-51.15,66.03
282793,2018-06-29 11:12:09.281250,-90.19,66.03
282794,2018-06-29 11:12:09.312500,-115.32,66.03
282795,2018-06-29 11:12:09.343750,-144.02,66.03
282796,2018-06-29 11:12:09.375000,-190.55,66.03
282797,2018-06-29 11:12:09.406250,-248.33,66.03
282798,2018-06-29 11:12:09.437500,-287.38,66.03
282799,2018-06-29 11:12:09.468750,-282.83,66.03
282800,2018-06-29 11:12:09.500000,-249.45,66.03
282801,2018-06-29 11:12:09.531250,-226.99,65.97
282802,2018-06-29 11:12:09.562500,-229.35,65.97
282803,2018-06-29 11:12:09.593750,-232.8,65.97
282804,2018-06-29 11:12:09.625000,-213.28,65.97
282805,2018-06-29 11:12:09.656250,-171.74,65.97
282806,2018-06-29 11:12:09.687500,-124.2,65.97
282807,2018-06-29 11:12:09.718750,-84.67,65.97
282808,2018-06-29 11:12:09.750000,-58.71,65.97
282809,2018-06-29 11:12:09.781250,-43.51,65.97
282810,2018-06-29 11:12:09.812500,-30.17,65.97
282811,2018-06-29 11:12:09.843750,-10.76,65.97
282812,2018-06-29 11:12:09.875000,14.32,65.97
282813,2018-06-29 11:12:09.906250,38.83,65.97
282814,2018-06-29 11:12:09.937500,59.36,65.97
282815,2018-06-29 11:12:09.968750,77.33,65.97
282816,2018-06-29 11:12:10.000000,92.74,65.97
282817,2018-06-29 11:12:10.031250,101.65,65.97
282818,2018-06-29 11:12:10.062500,102.62,65.97
282819,2018-06-29 11:12:10.093750,100.67,65.97
282820,2018-06-29 11:12:10.125000,101.48,65.97
282821,2018-06-29 11:12:10.156250,104.4,65.97
282822,2018-06-29 11:12:10.187500,105.64,65.97
282823,2018-06-29 11:12:10.218750,109.87,65.97
282824,2018-06-29 11:12:10.250000,127.55,65.97
282825,2018-06-29 11:12:10.281250,148.42,65.97
282826,2018-06-29 11:12:10.312500,135.33,65.97
282827,2018-06-29 11:12:10.343750,68.11,65.97
282828,2018-06-29 11:12:10.375000,-26.82,65.97
282829,2018-06-29 11:12:10.406250,-112.88,65.97
282830,2018-06-29 11:12:10.437500,-183.18,65.97
282831,2018-06-29 11:12:10.468750,-250.31,65.97
282832,2018-06-29 11:12:10.500000,-325.09,65.97
282833,2018-06-29 11:12:10.531250,-401.15,65.88
282834,2018-06-29 11:12:10.562500,-444.15,65.88
282835,2018-06-29 11:12:10.593750,-426.25,65.88
282836,2018-06-29 11:12:10.625000,-370.36,65.88
282837,2018-06-29 11:12:10.656250,-319.66,65.88
282838,2018-06-29 11:12:10.687500,-283.33,65.88
282839,2018-06-29 11:12:10.718750,-248.84,65.88
282840,2018-06-29 11:12:10.750000,-213.98,65.88
282841,2018-06-29 11:12:10.781250,-181.22,65.88
282842,2018-06-29 11:12:10.812500,-153.07,65.88
282843,2018-06-29 11:12:10.843750,-138.26,65.88
282844,2018-06-29 11:12:10.875000,-137.81,65.88
282845,2018-06-29 11:12:10.906250,-135.44,65.88
282846,2018-06-29 11:12:10.937500,-115.69,65.88
282847,2018-06-29 11:12:10.968750,-81.81,65.88
282848,2018-06-29 11:12:11.000000,-48.53,65.88
282849,2018-06-29 11:12:11.031250,-24.02,65.88
282850,2018-06-29 11:12:11.062500,-3.62,65.88
282851,2018-06-29 11:12:11.093750,21.62,65.88
282852,2018-06-29 11:12:11.125000,54.2,65.88
282853,2018-06-29 11:12:11.156250,87.09,65.88
282854,2018-06-29 11:12:11.187500,109.72,65.88
282855,2018-06-29 11:12:11.218750,121.45,65.88
282856,2018-06-29 11:12:11.250000,136.4,65.88
282857,2018-06-29 11:12:11.281250,164.52,65.88
282858,2018-06-29 11:12:11.312500,192.3,65.88
282859,2018-06-29 11:12:11.343750,196.56,65.88
282860,2018-06-29 11:12:11.375000,172.93,65.88
282861,2018-06-29 11:12:11.406250,138.61,65.88
282862,2018-06-29 11:12:11.437500,111.28,65.88
282863,2018-06-29 11:12:11.468750,96.69,65.88
282864,2018-06-29 11:12:11.500000,93.1,65.88
282865,2018-06-29 11:12:11.531250,97.23,65.8
282866,2018-06-29 11:12:11.562500,104.81,65.8
282867,2018-06-29 11:12:11.593750,112.13,65.8
282868,2018-06-29 11:12:11.625000,120.01,65.8
282869,2018-06-29 11:12:11.656250,132.1,65.8
282870,2018-06-29 11:12:11.687500,147.96,65.8
282871,2018-06-29 11:12:11.718750,162.65,65.8
282872,2018-06-29 11:12:11.750000,170.23,65.8
282873,2018-06-29 11:12:11.781250,164.14,65.8
282874,2018-06-29 11:12:11.812500,144.26,65.8
282875,2018-06-29 11:12:11.843750,130.5,65.8
282876,2018-06-29 11:12:11.875000,142.45,65.8
282877,2018-06-29 11:12:11.906250,155.72,65.8
282878,2018-06-29 11:12:11.937500,118.3,65.8
282879,2018-06-29 11:12:11.968750,15.49,65.8
282880,2018-06-29 11:12:12.000000,-114.96,65.8
282881,2018-06-29 11:12:12.031250,-216.35,65.8
282882,2018-06-29 11:12:12.062500,-240.81,65.8
282883,2018-06-29 11:12:12.093750,-181.46,65.8
282884,2018-06-29 11:12:12.125000,-87.39,65.8
282885,2018-06-29 11:12:12.156250,-11.85,65.8
282886,2018-06-29 11:12:12.187500,39.77,65.8
282887,2018-06-29 11:12:12.218750,84.27,65.8
282888,2018-06-29 11:12:12.250000,123.35,65.8
282889,2018-06-29 11:12:12.281250,157.93,65.8
282890,2018-06-29 11:12:12.312500,198.47,65.8
282891,2018-06-29 11:12:12.343750,236.45,65.8
282892,2018-06-29 11:12:12.375000,238.03,65.8
282893,2018-06-29 11:12:12.406250,185.85,65.8
282894,2018-06-29 11:12:12.437500,103.84,65.8
282895,2018-06-29 11:12:12.468750,33.38,65.8
282896,2018-06-29 11:12:12.500000,-1.71,65.8
282897,2018-06-29 11:12:12.531250,-16.96,65.75
282898,2018-06-29 11:12:12.562500,-58.17,65.75
282899,2018-06-29 11:12:12.593750,-152.8,65.75
282900,2018-06-29 11:12:12.625000,-274.23,65.75
282901,2018-06-29 11:12:12.656250,-370.72,65.75
282902,2018-06-29 11:12:12.687500,-418.13,65.75
282903,2018-06-29 11:12:12.718750,-428.32,65.75
282904,2018-06-29 11:12:12.750000,-416.83,65.75
282905,2018-06-29 11:12:12.781250,-382.32,65.75
282906,2018-06-29 11:12:12.812500,-321.03,65.75
282907,2018-06-29 11:12:12.843750,-244.16,65.75
282908,2018-06-29 11:12:12.875000,-165.87,65.75
282909,2018-06-29 11:12:12.906250,-89.84,65.75
282910,2018-06-29 11:12:12.937500,-17.75,65.75
282911,2018-06-29 11:12:12.968750,46.99,65.75
282912,2018-06-29 11:12:13.000000,108.55,65.75
282913,2018-06-29 11:12:13.031250,170.58,65.75
282914,2018-06-29 11:12:13.062500,220.9,65.75
282915,2018-06-29 11:12:13.093750,244.18,65.75
282916,2018-06-29 11:12:13.125000,244.08,65.75
282917,2018-06-29 11:12:13.156250,237.68,65.75
282918,2018-06-29 11:12:13.187500,235.73,65.75
282919,2018-06-29 11:12:13.218750,237.75,65.75
282920,2018-06-29 11:12:13.250000,237.23,65.75
282921,2018-06-29 11:12:13.281250,227.79,65.75
282922,2018-06-29 11:12:13.312500,210.93,65.75
282923,2018-06-29 11:12:13.343750,194.29,65.75
282924,2018-06-29 11:12:13.375000,178.9,65.75
282925,2018-06-29 11:12:13.406250,156.63,65.75
282926,2018-06-29 11:12:13.437500,122.5,65.75
282927,2018-06-29 11:12:13.468750,80.69,65.75
282928,2018-06-29 11:12:13.500000,41.02,65.75
282929,2018-06-29 11:12:13.531250,12.86,65.72
282930,2018-06-29 11:12:13.562500,-10.66,65.72
282931,2018-06-29 11:12:13.593750,-54.22,65.72
282932,2018-06-29 11:12:13.625000,-119.77,65.72
282933,2018-06-29 11:12:13.656250,-164.06,65.72
282934,2018-06-29 11:12:13.687500,-150.58,65.72
282935,2018-06-29 11:12:13.718750,-98.21,65.72
282936,2018-06-29 11:12:13.750000,-50.43,65.72
282937,2018-06-29 11:12:13.781250,-27.68,65.72
282938,2018-06-29 11:12:13.812500,-26.86,65.72
282939,2018-06-29 11:12:13.843750,-35.32,65.72
282940,2018-06-29 11:12:13.875000,-34.66,65.72
282941,2018-06-29 11:12:13.906250,-13.4,65.72
282942,2018-06-29 11:12:13.937500,19.34,65.72
282943,2018-06-29 11:12:13.968750,43.74,65.72
282944,2018-06-29 11:12:14.000000,51.52,65.72
282945,2018-06-29 11:12:14.031250,49.95,65.72
282946,2018-06-29 11:12:14.062500,47.24,65.72
282947,2018-06-29 11:12:14.093750,43.99,65.72
282948,2018-06-29 11:12:14.125000,38.83,65.72
282949,2018-06-29 11:12:14.156250,32.35,65.72
282950,2018-06-29 11:12:14.187500,23.79,65.72
282951,2018-06-29 11:12:14.218750,11.26,65.72
282952,2018-06-29 11:12:14.250000,-3.39,65.72
282953,2018-06-29 11:12:14.281250,-16.42,65.72
282954,2018-06-29 11:12:14.312500,-28.33,65.72
282955,2018-06-29 11:12:14.343750,-44.53,65.72
282956,2018-06-29 11:12:14.375000,-67.76,65.72
282957,2018-06-29 11:12:14.406250,-87.72,65.72
282958,2018-06-29 11:12:14.437500,-83.11,65.72
282959,2018-06-29 11:12:14.468750,-43.05,65.72
282960,2018-06-29 11:12:14.500000,17.09,65.72
282961,2018-06-29 11:12:14.531250,70.79,65.7
282962,2018-06-29 11:12:14.562500,104.88,65.7
282963,2018-06-29 11:12:14.593750,121.16,65.7
282964,2018-06-29 11:12:14.625000,123.85,65.7
282965,2018-06-29 11:12:14.656250,116.82,65.7
282966,2018-06-29 11:12:14.687500,107.74,65.7
282967,2018-06-29 11:12:14.718750,104.58,65.7
282968,2018-06-29 11:12:14.750000,108.52,65.7
282969,2018-06-29 11:12:14.781250,114.89,65.7
282970,2018-06-29 11:12:14.812500,119.71,65.7
282971,2018-06-29 11:12:14.843750,121.48,65.7
282972,2018-06-29 11:12:14.875000,119.03,65.7
282973,2018-06-29 11:12:14.906250,112.15,65.7
282974,2018-06-29 11:12:14.937500,102.79,65.7
282975,2018-06-29 11:12:14.968750,93.02,65.7
282976,2018-06-29 11:12:15.000000,82.87,65.7
282977,2018-06-29 11:12:15.031250,71.11,65.7
282978,2018-06-29 11:12:15.062500,56.95,65.7
282979,2018-06-29 11:12:15.093750,40.83,65.7
282980,2018-06-29 11:12:15.125000,23.9,65.7
282981,2018-06-29 11:12:15.156250,5.69,65.7
282982,2018-06-29 11:12:15.187500,-18.21,65.7
282983,2018-06-29 11:12:15.218750,-51.43,65.7
282984,2018-06-29 11:12:15.250000,-88.4,65.7
282985,2018-06-29 11:12:15.281250,-116.81,65.7
282986,2018-06-29 11:12:15.312500,-130.05,65.7
282987,2018-06-29 11:12:15.343750,-132.3,65.7
282988,2018-06-29 11:12:15.375000,-132.33,65.7
282989,2018-06-29 11:12:15.406250,-136.79,65.7
282990,2018-06-29 11:12:15.437500,-144.82,65.7
282991,2018-06-29 11:12:15.468750,-142.77,65.7
282992,2018-06-29 11:12:15.500000,-113.43,65.7
282993,2018-06-29 11:12:15.531250,-58.46,65.68
282994,2018-06-29 11:12:15.562500,-1.3,65.68
282995,2018-06-29 11:12:15.593750,38.26,65.68
282996,2018-06-29 11:12:15.625000,58.84,65.68
282997,2018-06-29 11:12:15.656250,65.62,65.68
282998,2018-06-29 11:12:15.687500,61.36,65.68
282999,2018-06-29 11:12:15.718750,51.76,65.68
283000,2018-06-29 11:12:15.750000,45.89,65.68
283001,2018-06-29 11:12:15.781250,47.67,65.68
283002,2018-06-29 11:12:15.812500,53.27,65.68
283003,2018-06-29 11:12:15.843750,57.33,65.68
283004,2018-06-29 11:12:15.875000,58.17,65.68
283005,2018-06-29 11:12:15.906250,56.28,65.68
283006,2018-06-29 11:12:15.937500,51.36,65.68
283007,2018-06-29 11:12:15.968750,43.33,65.68
283008,2018-06-29 11:12:16.000000,34.28,65.68
283009,2018-06-29 11:12:16.031250,26.51,65.68
283010,2018-06-29 11:12:16.062500,19.55,65.68
283011,2018-06-29 11:12:16.093750,11.12,65.68
283012,2018-06-29 11:12:16.125000,0.99,65.68
283013,2018-06-29 11:12:16.156250,-8.03,65.68
283014,2018-06-29 11:12:16.187500,-14.26,65.68
283015,2018-06-29 11:12:16.218750,-20.86,65.68
283016,2018-06-29 11:12:16.250000,-32.5,65.68
283017,2018-06-29 11:12:16.281250,-49.02,65.68
283018,2018-06-29 11:12:16.312500,-65.74,65.68
283019,2018-06-29 11:12:16.343750,-79.07,65.68
283020,2018-06-29 11:12:16.375000,-89.1,65.68
283021,2018-06-29 11:12:16.406250,-98.58,65.68
283022,2018-06-29 11:12:16.437500,-110.82,65.68
283023,2018-06-29 11:12:16.468750,-122.42,65.68
283024,2018-06-29 11:12:16.500000,-118.78,65.68
283025,2018-06-29 11:12:16.531250,-87.92,65.65
283026,2018-06-29 11:12:16.562500,-38.44,65.65
283027,2018-06-29 11:12:16.593750,8.11,65.65
283028,2018-06-29 11:12:16.625000,40.47,65.65
283029,2018-06-29 11:12:16.656250,62.13,65.65
283030,2018-06-29 11:12:16.687500,77.9,65.65
283031,2018-06-29 11:12:16.718750,88.8,65.65
283032,2018-06-29 11:12:16.750000,96.95,65.65
283033,2018-06-29 11:12:16.781250,106.15,65.65
283034,2018-06-29 11:12:16.812500,117.94,65.65
283035,2018-06-29 11:12:16.843750,131.31,65.65
283036,2018-06-29 11:12:16.875000,144.74,65.65
283037,2018-06-29 11:12:16.906250,156.5,65.65
283038,2018-06-29 11:12:16.937500,164.65,65.65
283039,2018-06-29 11:12:16.968750,168.57,65.65
283040,2018-06-29 11:12:17.000000,169.77,65.65
283041,2018-06-29 11:12:17.031250,170.46,65.65
283042,2018-06-29 11:12:17.062500,170.69,65.65
283043,2018-06-29 11:12:17.093750,166.43,65.65
283044,2018-06-29 11:12:17.125000,154.12,65.65
283045,2018-06-29 11:12:17.156250,134.63,65.65
283046,2018-06-29 11:12:17.187500,106.84,65.65
283047,2018-06-29 11:12:17.218750,64.31,65.65
283048,2018-06-29 11:12:17.250000,8.48,65.65
283049,2018-06-29 11:12:17.281250,-43.47,65.65
283050,2018-06-29 11:12:17.312500,-75.24,65.65
283051,2018-06-29 11:12:17.343750,-87.61,65.65
283052,2018-06-29 11:12:17.375000,-93.36,65.65
283053,2018-06-29 11:12:17.406250,-108.47,65.65
283054,2018-06-29 11:12:17.437500,-147.54,65.65
283055,2018-06-29 11:12:17.468750,-207.95,65.65
283056,2018-06-29 11:12:17.500000,-260.81,65.65
283057,2018-06-29 11:12:17.531250,-275.99,65.68
283058,2018-06-29 11:12:17.562500,-251.39,65.68
283059,2018-06-29 11:12:17.593750,-206.49,65.68
283060,2018-06-29 11:12:17.625000,-160.01,65.68
283061,2018-06-29 11:12:17.656250,-123.05,65.68
283062,2018-06-29 11:12:17.687500,-100.14,65.68
283063,2018-06-29 11:12:17.718750,-88.21,65.68
283064,2018-06-29 11:12:17.750000,-81.74,65.68
283065,2018-06-29 11:12:17.781250,-78.97,65.68
283066,2018-06-29 11:12:17.812500,-78.86,65.68
283067,2018-06-29 11:12:17.843750,-75.73,65.68
283068,2018-06-29 11:12:17.875000,-64.16,65.68
283069,2018-06-29 11:12:17.906250,-46.83,65.68
283070,2018-06-29 11:12:17.937500,-31.62,65.68
283071,2018-06-29 11:12:17.968750,-22.85,65.68
283072,2018-06-29 11:12:18.000000,-19.13,65.68
283073,2018-06-29 11:12:18.031250,-17.65,65.68
283074,2018-06-29 11:12:18.062500,-17.04,65.68
283075,2018-06-29 11:12:18.093750,-16.34,65.68
283076,2018-06-29 11:12:18.125000,-13.99,65.68
283077,2018-06-29 11:12:18.156250,-10.3,65.68
283078,2018-06-29 11:12:18.187500,-8.94,65.68
283079,2018-06-29 11:12:18.218750,-12.57,65.68
283080,2018-06-29 11:12:18.250000,-18.15,65.68
283081,2018-06-29 11:12:18.281250,-19.03,65.68
283082,2018-06-29 11:12:18.312500,-11.95,65.68
283083,2018-06-29 11:12:18.343750,-1.76,65.68
283084,2018-06-29 11:12:18.375000,3.04,65.68
283085,2018-06-29 11:12:18.406250,2.01,65.68
283086,2018-06-29 11:12:18.437500,4.84,65.68
283087,2018-06-29 11:12:18.468750,17.98,65.68
283088,2018-06-29 11:12:18.500000,35.58,65.68
283089,2018-06-29 11:12:18.531250,47.94,65.75
283090,2018-06-29 11:12:18.562500,53.85,65.75
283091,2018-06-29 11:12:18.593750,62.75,65.75
283092,2018-06-29 11:12:18.625000,86.0,65.75
283093,2018-06-29 11:12:18.656250,122.82,65.75
283094,2018-06-29 11:12:18.687500,153.73,65.75
283095,2018-06-29 11:12:18.718750,152.78,65.75
283096,2018-06-29 11:12:18.750000,110.51,65.75
283097,2018-06-29 11:12:18.781250,47.24,65.75
283098,2018-06-29 11:12:18.812500,2.94,65.75
283099,2018-06-29 11:12:18.843750,8.95,65.75
283100,2018-06-29 11:12:18.875000,65.26,65.75
283101,2018-06-29 11:12:18.906250,143.51,65.75
283102,2018-06-29 11:12:18.937500,203.27,65.75
283103,2018-06-29 11:12:18.968750,207.95,65.75
283104,2018-06-29 11:12:19.000000,147.74,65.75
283105,2018-06-29 11:12:19.031250,50.39,65.75
283106,2018-06-29 11:12:19.062500,-49.9,65.75
283107,2018-06-29 11:12:19.093750,-145.32,65.75
283108,2018-06-29 11:12:19.125000,-231.53,65.75
283109,2018-06-29 11:12:19.156250,-279.69,65.75
283110,2018-06-29 11:12:19.187500,-269.42,65.75
283111,2018-06-29 11:12:19.218750,-223.0,65.75
283112,2018-06-29 11:12:19.250000,-176.77,65.75
283113,2018-06-29 11:12:19.281250,-146.05,65.75
283114,2018-06-29 11:12:19.312500,-133.29,65.75
283115,2018-06-29 11:12:19.343750,-138.69,65.75
283116,2018-06-29 11:12:19.375000,-150.84,65.75
283117,2018-06-29 11:12:19.406250,-152.82,65.75
283118,2018-06-29 11:12:19.437500,-143.15,65.75
283119,2018-06-29 11:12:19.468750,-133.85,65.75
283120,2018-06-29 11:12:19.500000,-131.22,65.75
283121,2018-06-29 11:12:19.531250,-132.61,65.8
283122,2018-06-29 11:12:19.562500,-134.24,65.8
283123,2018-06-29 11:12:19.593750,-128.48,65.8
283124,2018-06-29 11:12:19.625000,-104.06,65.8
283125,2018-06-29 11:12:19.656250,-61.18,65.8
283126,2018-06-29 11:12:19.687500,-15.65,65.8
283127,2018-06-29 11:12:19.718750,19.13,65.8
283128,2018-06-29 11:12:19.750000,42.45,65.8
283129,2018-06-29 11:12:19.781250,57.78,65.8
283130,2018-06-29 11:12:19.812500,66.82,65.8
283131,2018-06-29 11:12:19.843750,72.46,65.8
283132,2018-06-29 11:12:19.875000,78.65,65.8
283133,2018-06-29 11:12:19.906250,86.38,65.8
283134,2018-06-29 11:12:19.937500,93.4,65.8
283135,2018-06-29 11:12:19.968750,97.82,65.8
283136,2018-06-29 11:12:20.000000,99.9,65.8
283137,2018-06-29 11:12:20.031250,100.3,65.8
283138,2018-06-29 11:12:20.062500,98.7,65.8
283139,2018-06-29 11:12:20.093750,95.05,65.8
283140,2018-06-29 11:12:20.125000,90.73,65.8
283141,2018-06-29 11:12:20.156250,86.78,65.8
283142,2018-06-29 11:12:20.187500,82.11,65.8
283143,2018-06-29 11:12:20.218750,75.16,65.8
283144,2018-06-29 11:12:20.250000,67.18,65.8
283145,2018-06-29 11:12:20.281250,60.77,65.8
283146,2018-06-29 11:12:20.312500,55.21,65.8
283147,2018-06-29 11:12:20.343750,47.27,65.8
283148,2018-06-29 11:12:20.375000,36.97,65.8
283149,2018-06-29 11:12:20.406250,27.83,65.8
283150,2018-06-29 11:12:20.437500,20.21,65.8
283151,2018-06-29 11:12:20.468750,8.45,65.8
283152,2018-06-29 11:12:20.500000,-13.6,65.8
283153,2018-06-29 11:12:20.531250,-44.56,65.87
283154,2018-06-29 11:12:20.562500,-71.61,65.87
283155,2018-06-29 11:12:20.593750,-77.23,65.87
283156,2018-06-29 11:12:20.625000,-55.55,65.87
283157,2018-06-29 11:12:20.656250,-19.91,65.87
283158,2018-06-29 11:12:20.687500,10.15,65.87
283159,2018-06-29 11:12:20.718750,26.04,65.87
283160,2018-06-29 11:12:20.750000,30.6,65.87
283161,2018-06-29 11:12:20.781250,27.95,65.87
283162,2018-06-29 11:12:20.812500,20.67,65.87
283163,2018-06-29 11:12:20.843750,13.97,65.87
283164,2018-06-29 11:12:20.875000,14.42,65.87
283165,2018-06-29 11:12:20.906250,23.5,65.87
283166,2018-06-29 11:12:20.937500,38.38,65.87
283167,2018-06-29 11:12:20.968750,59.51,65.87
283168,2018-06-29 11:12:21.000000,89.9,65.87
283169,2018-06-29 11:12:21.031250,124.98,65.87
283170,2018-06-29 11:12:21.062500,153.73,65.87
283171,2018-06-29 11:12:21.093750,174.09,65.87
283172,2018-06-29 11:12:21.125000,196.3,65.87
283173,2018-06-29 11:12:21.156250,225.45,65.87
283174,2018-06-29 11:12:21.187500,251.01,65.87
283175,2018-06-29 11:12:21.218750,256.57,65.87
283176,2018-06-29 11:12:21.250000,231.29,65.87
283177,2018-06-29 11:12:21.281250,175.95,65.87
283178,2018-06-29 11:12:21.312500,103.95,65.87
283179,2018-06-29 11:12:21.343750,28.68,65.87
283180,2018-06-29 11:12:21.375000,-50.28,65.87
283181,2018-06-29 11:12:21.406250,-128.11,65.87
283182,2018-06-29 11:12:21.437500,-170.62,65.87
283183,2018-06-29 11:12:21.468750,-149.56,65.87
283184,2018-06-29 11:12:21.500000,-98.79,65.87
283185,2018-06-29 11:12:21.531250,-88.18,65.93
283186,2018-06-29 11:12:21.562500,-139.74,65.93
283187,2018-06-29 11:12:21.593750,-206.93,65.93
283188,2018-06-29 11:12:21.625000,-235.62,65.93
283189,2018-06-29 11:12:21.656250,-215.23,65.93
283190,2018-06-29 11:12:21.687500,-172.27,65.93
283191,2018-06-29 11:12:21.718750,-137.64,65.93
283192,2018-06-29 11:12:21.750000,-125.99,65.93
283193,2018-06-29 11:12:21.781250,-133.54,65.93
283194,2018-06-29 11:12:21.812500,-143.26,65.93
283195,2018-06-29 11:12:21.843750,-136.37,65.93
283196,2018-06-29 11:12:21.875000,-109.5,65.93
283197,2018-06-29 11:12:21.906250,-78.14,65.93
283198,2018-06-29 11:12:21.937500,-59.44,65.93
283199,2018-06-29 11:12:21.968750,-56.55,65.93
283200,2018-06-29 11:12:22.000000,-60.84,65.93
283201,2018-06-29 11:12:22.031250,-65.02,65.93
283202,2018-06-29 11:12:22.062500,-69.33,65.93
283203,2018-06-29 11:12:22.093750,-74.52,65.93
283204,2018-06-29 11:12:22.125000,-75.99,65.93
283205,2018-06-29 11:12:22.156250,-70.34,65.93
283206,2018-06-29 11:12:22.187500,-62.4,65.93
283207,2018-06-29 11:12:22.218750,-59.01,65.93
283208,2018-06-29 11:12:22.250000,-60.05,65.93
283209,2018-06-29 11:12:22.281250,-60.53,65.93
283210,2018-06-29 11:12:22.312500,-58.35,65.93
283211,2018-06-29 11:12:22.343750,-57.64,65.93
283212,2018-06-29 11:12:22.375000,-66.46,65.93
283213,2018-06-29 11:12:22.406250,-88.22,65.93
283214,2018-06-29 11:12:22.437500,-109.47,65.93
283215,2018-06-29 11:12:22.468750,-104.72,65.93
283216,2018-06-29 11:12:22.500000,-63.47,65.93
283217,2018-06-29 11:12:22.531250,-3.92,66.0
283218,2018-06-29 11:12:22.562500,47.98,66.0
283219,2018-06-29 11:12:22.593750,81.96,66.0
283220,2018-06-29 11:12:22.625000,100.58,66.0
283221,2018-06-29 11:12:22.656250,107.37,66.0
283222,2018-06-29 11:12:22.687500,106.1,66.0
283223,2018-06-29 11:12:22.718750,102.92,66.0
283224,2018-06-29 11:12:22.750000,102.21,66.0
283225,2018-06-29 11:12:22.781250,102.99,66.0
283226,2018-06-29 11:12:22.812500,102.87,66.0
283227,2018-06-29 11:12:22.843750,102.96,66.0
283228,2018-06-29 11:12:22.875000,105.3,66.0
283229,2018-06-29 11:12:22.906250,106.72,66.0
283230,2018-06-29 11:12:22.937500,99.93,66.0
283231,2018-06-29 11:12:22.968750,81.44,66.0
283232,2018-06-29 11:12:23.000000,55.3,66.0
283233,2018-06-29 11:12:23.031250,28.2,66.0
283234,2018-06-29 11:12:23.062500,2.79,66.0
283235,2018-06-29 11:12:23.093750,-23.16,66.0
283236,2018-06-29 11:12:23.125000,-52.26,66.0
283237,2018-06-29 11:12:23.156250,-83.26,66.0
283238,2018-06-29 11:12:23.187500,-111.62,66.0
283239,2018-06-29 11:12:23.218750,-134.33,66.0
283240,2018-06-29 11:12:23.250000,-154.75,66.0
283241,2018-06-29 11:12:23.281250,-179.54,66.0
283242,2018-06-29 11:12:23.312500,-205.45,66.0
283243,2018-06-29 11:12:23.343750,-213.64,66.0
283244,2018-06-29 11:12:23.375000,-188.44,66.0
283245,2018-06-29 11:12:23.406250,-138.01,66.0
283246,2018-06-29 11:12:23.437500,-85.63,66.0
283247,2018-06-29 11:12:23.468750,-46.69,66.0
283248,2018-06-29 11:12:23.500000,-23.5,66.0
283249,2018-06-29 11:12:23.531250,-13.49,66.08
283250,2018-06-29 11:12:23.562500,-10.79,66.08
283251,2018-06-29 11:12:23.593750,-5.68,66.08
283252,2018-06-29 11:12:23.625000,8.27,66.08
283253,2018-06-29 11:12:23.656250,29.07,66.08
283254,2018-06-29 11:12:23.687500,51.14,66.08
283255,2018-06-29 11:12:23.718750,71.08,66.08
283256,2018-06-29 11:12:23.750000,86.64,66.08
283257,2018-06-29 11:12:23.781250,94.63,66.08
283258,2018-06-29 11:12:23.812500,92.77,66.08
283259,2018-06-29 11:12:23.843750,82.35,66.08
283260,2018-06-29 11:12:23.875000,68.59,66.08
283261,2018-06-29 11:12:23.906250,56.67,66.08
283262,2018-06-29 11:12:23.937500,46.15,66.08
283263,2018-06-29 11:12:23.968750,32.49,66.08
283264,2018-06-29 11:12:24.000000,14.61,66.08
283265,2018-06-29 11:12:24.031250,-3.15,66.08
283266,2018-06-29 11:12:24.062500,-16.86,66.08
283267,2018-06-29 11:12:24.093750,-27.37,66.08
283268,2018-06-29 11:12:24.125000,-39.33,66.08
283269,2018-06-29 11:12:24.156250,-56.14,66.08
283270,2018-06-29 11:12:24.187500,-70.7,66.08
283271,2018-06-29 11:12:24.218750,-64.02,66.08
283272,2018-06-29 11:12:24.250000,-23.85,66.08
283273,2018-06-29 11:12:24.281250,37.07,66.08
283274,2018-06-29 11:12:24.312500,91.97,66.08
283275,2018-06-29 11:12:24.343750,125.52,66.08
283276,2018-06-29 11:12:24.375000,138.58,66.08
283277,2018-06-29 11:12:24.406250,135.97,66.08
283278,2018-06-29 11:12:24.437500,123.4,66.08
283279,2018-06-29 11:12:24.468750,110.27,66.08
283280,2018-06-29 11:12:24.500000,103.76,66.08
283281,2018-06-29 11:12:24.531250,102.46,66.1
283282,2018-06-29 11:12:24.562500,101.28,66.1
283283,2018-06-29 11:12:24.593750,98.27,66.1
283284,2018-06-29 11:12:24.625000,93.16,66.1
283285,2018-06-29 11:12:24.656250,84.69,66.1
283286,2018-06-29 11:12:24.687500,72.18,66.1
283287,2018-06-29 11:12:24.718750,56.66,66.1
283288,2018-06-29 11:12:24.750000,39.35,66.1
283289,2018-06-29 11:12:24.781250,21.47,66.1
283290,2018-06-29 11:12:24.812500,4.92,66.1
283291,2018-06-29 11:12:24.843750,-8.58,66.1
283292,2018-06-29 11:12:24.875000,-19.48,66.1
283293,2018-06-29 11:12:24.906250,-31.41,66.1
283294,2018-06-29 11:12:24.937500,-47.63,66.1
283295,2018-06-29 11:12:24.968750,-62.19,66.1
283296,2018-06-29 11:12:25.000000,-59.6,66.1
283297,2018-06-29 11:12:25.031250,-30.95,66.1
283298,2018-06-29 11:12:25.062500,13.83,66.1
283299,2018-06-29 11:12:25.093750,55.59,66.1
283300,2018-06-29 11:12:25.125000,82.3,66.1
283301,2018-06-29 11:12:25.156250,91.73,66.1
283302,2018-06-29 11:12:25.187500,86.47,66.1
283303,2018-06-29 11:12:25.218750,72.69,66.1
283304,2018-06-29 11:12:25.250000,58.97,66.1
283305,2018-06-29 11:12:25.281250,51.26,66.1
283306,2018-06-29 11:12:25.312500,49.09,66.1
283307,2018-06-29 11:12:25.343750,48.38,66.1
283308,2018-06-29 11:12:25.375000,46.51,66.1
283309,2018-06-29 11:12:25.406250,42.5,66.1
283310,2018-06-29 11:12:25.437500,34.68,66.1
283311,2018-06-29 11:12:25.468750,21.57,66.1
283312,2018-06-29 11:12:25.500000,4.29,66.1
283313,2018-06-29 11:12:25.531250,-14.24,66.15
283314,2018-06-29 11:12:25.562500,-31.48,66.15
283315,2018-06-29 11:12:25.593750,-45.68,66.15
283316,2018-06-29 11:12:25.625000,-56.85,66.15
283317,2018-06-29 11:12:25.656250,-68.19,66.15
283318,2018-06-29 11:12:25.687500,-81.83,66.15
283319,2018-06-29 11:12:25.718750,-90.42,66.15
283320,2018-06-29 11:12:25.750000,-78.79,66.15
283321,2018-06-29 11:12:25.781250,-40.23,66.15
283322,2018-06-29 11:12:25.812500,13.07,66.15
283323,2018-06-29 11:12:25.843750,60.2,66.15
283324,2018-06-29 11:12:25.875000,88.26,66.15
283325,2018-06-29 11:12:25.906250,96.31,66.15
283326,2018-06-29 11:12:25.937500,88.94,66.15
283327,2018-06-29 11:12:25.968750,72.8,66.15
283328,2018-06-29 11:12:26.000000,56.6,66.15
283329,2018-06-29 11:12:26.031250,47.48,66.15
283330,2018-06-29 11:12:26.062500,45.47,66.15
283331,2018-06-29 11:12:26.093750,44.83,66.15
283332,2018-06-29 11:12:26.125000,41.18,66.15
283333,2018-06-29 11:12:26.156250,34.34,66.15
283334,2018-06-29 11:12:26.187500,24.62,66.15
283335,2018-06-29 11:12:26.218750,10.6,66.15
283336,2018-06-29 11:12:26.250000,-7.8,66.15
283337,2018-06-29 11:12:26.281250,-26.66,66.15
283338,2018-06-29 11:12:26.312500,-40.93,66.15
283339,2018-06-29 11:12:26.343750,-49.93,66.15
283340,2018-06-29 11:12:26.375000,-58.2,66.15
283341,2018-06-29 11:12:26.406250,-70.61,66.15
283342,2018-06-29 11:12:26.437500,-86.08,66.15
283343,2018-06-29 11:12:26.468750,-93.65,66.15
283344,2018-06-29 11:12:26.500000,-77.83,66.15
283345,2018-06-29 11:12:26.531250,-35.34,66.23
283346,2018-06-29 11:12:26.562500,17.34,66.23
283347,2018-06-29 11:12:26.593750,59.3,66.23
283348,2018-06-29 11:12:26.625000,83.0,66.23
283349,2018-06-29 11:12:26.656250,91.74,66.23
283350,2018-06-29 11:12:26.687500,89.19,66.23
283351,2018-06-29 11:12:26.718750,79.27,66.23
283352,2018-06-29 11:12:26.750000,69.13,66.23
283353,2018-06-29 11:12:26.781250,63.7,66.23
283354,2018-06-29 11:12:26.812500,60.92,66.23
283355,2018-06-29 11:12:26.843750,57.28,66.23
283356,2018-06-29 11:12:26.875000,53.74,66.23
283357,2018-06-29 11:12:26.906250,50.96,66.23
283358,2018-06-29 11:12:26.937500,44.44,66.23
283359,2018-06-29 11:12:26.968750,30.75,66.23
283360,2018-06-29 11:12:27.000000,13.75,66.23
283361,2018-06-29 11:12:27.031250,-0.17,66.23
283362,2018-06-29 11:12:27.062500,-10.4,66.23
283363,2018-06-29 11:12:27.093750,-21.2,66.23
283364,2018-06-29 11:12:27.125000,-34.55,66.23
283365,2018-06-29 11:12:27.156250,-47.64,66.23
283366,2018-06-29 11:12:27.187500,-57.48,66.23
283367,2018-06-29 11:12:27.218750,-65.52,66.23
283368,2018-06-29 11:12:27.250000,-76.38,66.23
283369,2018-06-29 11:12:27.281250,-92.44,66.23
283370,2018-06-29 11:12:27.312500,-107.59,66.23
283371,2018-06-29 11:12:27.343750,-106.43,66.23
283372,2018-06-29 11:12:27.375000,-77.15,66.23
283373,2018-06-29 11:12:27.406250,-26.87,66.23
283374,2018-06-29 11:12:27.437500,23.54,66.23
283375,2018-06-29 11:12:27.468750,59.11,66.23
283376,2018-06-29 11:12:27.500000,77.95,66.23
283377,2018-06-29 11:12:27.531250,83.67,66.32
283378,2018-06-29 11:12:27.562500,80.64,66.32
283379,2018-06-29 11:12:27.593750,74.46,66.32
283380,2018-06-29 11:12:27.625000,69.86,66.32
283381,2018-06-29 11:12:27.656250,67.76,66.32
283382,2018-06-29 11:12:27.687500,66.54,66.32
283383,2018-06-29 11:12:27.718750,65.85,66.32
283384,2018-06-29 11:12:27.750000,66.1,66.32
283385,2018-06-29 11:12:27.781250,64.93,66.32
283386,2018-06-29 11:12:27.812500,58.13,66.32
283387,2018-06-29 11:12:27.843750,45.14,66.32
283388,2018-06-29 11:12:27.875000,30.26,66.32
283389,2018-06-29 11:12:27.906250,18.06,66.32
283390,2018-06-29 11:12:27.937500,9.12,66.32
283391,2018-06-29 11:12:27.968750,1.93,66.32
283392,2018-06-29 11:12:28.000000,-2.68,66.32
283393,2018-06-29 11:12:28.031250,-2.59,66.32
283394,2018-06-29 11:12:28.062500,0.12,66.32
283395,2018-06-29 11:12:28.093750,0.21,66.32
283396,2018-06-29 11:12:28.125000,-3.81,66.32
283397,2018-06-29 11:12:28.156250,-9.39,66.32
283398,2018-06-29 11:12:28.187500,-16.23,66.32
283399,2018-06-29 11:12:28.218750,-27.09,66.32
283400,2018-06-29 11:12:28.250000,-42.26,66.32
283401,2018-06-29 11:12:28.281250,-57.56,66.32
283402,2018-06-29 11:12:28.312500,-69.07,66.32
283403,2018-06-29 11:12:28.343750,-77.25,66.32
283404,2018-06-29 11:12:28.375000,-86.1,66.32
283405,2018-06-29 11:12:28.406250,-98.74,66.32
283406,2018-06-29 11:12:28.437500,-111.68,66.32
283407,2018-06-29 11:12:28.468750,-112.9,66.32
283408,2018-06-29 11:12:28.500000,-92.31,66.32
283409,2018-06-29 11:12:28.531250,-55.31,66.42
283410,2018-06-29 11:12:28.562500,-18.64,66.42
283411,2018-06-29 11:12:28.593750,6.79,66.42
283412,2018-06-29 11:12:28.625000,21.06,66.42
283413,2018-06-29 11:12:28.656250,27.47,66.42
283414,2018-06-29 11:12:28.687500,28.85,66.42
283415,2018-06-29 11:12:28.718750,28.78,66.42
283416,2018-06-29 11:12:28.750000,29.83,66.42
283417,2018-06-29 11:12:28.781250,31.88,66.42
283418,2018-06-29 11:12:28.812500,33.84,66.42
283419,2018-06-29 11:12:28.843750,35.33,66.42
283420,2018-06-29 11:12:28.875000,36.12,66.42
283421,2018-06-29 11:12:28.906250,35.24,66.42
283422,2018-06-29 11:12:28.937500,31.76,66.42
283423,2018-06-29 11:12:28.968750,26.29,66.42
283424,2018-06-29 11:12:29.000000,20.87,66.42
283425,2018-06-29 11:12:29.031250,16.59,66.42
283426,2018-06-29 11:12:29.062500,12.67,66.42
283427,2018-06-29 11:12:29.093750,8.42,66.42
283428,2018-06-29 11:12:29.125000,4.15,66.42
283429,2018-06-29 11:12:29.156250,-0.01,66.42
283430,2018-06-29 11:12:29.187500,-4.69,66.42
283431,2018-06-29 11:12:29.218750,-10.07,66.42
283432,2018-06-29 11:12:29.250000,-15.43,66.42
283433,2018-06-29 11:12:29.281250,-20.32,66.42
283434,2018-06-29 11:12:29.312500,-25.63,66.42
283435,2018-06-29 11:12:29.343750,-32.41,66.42
283436,2018-06-29 11:12:29.375000,-39.82,66.42
283437,2018-06-29 11:12:29.406250,-45.99,66.42
283438,2018-06-29 11:12:29.437500,-50.54,66.42
283439,2018-06-29 11:12:29.468750,-55.48,66.42
283440,2018-06-29 11:12:29.500000,-63.05,66.42
283441,2018-06-29 11:12:29.531250,-71.33,66.52
283442,2018-06-29 11:12:29.562500,-72.1,66.52
283443,2018-06-29 11:12:29.593750,-57.97,66.52
283444,2018-06-29 11:12:29.625000,-32.49,66.52
283445,2018-06-29 11:12:29.656250,-7.45,66.52
283446,2018-06-29 11:12:29.687500,9.24,66.52
283447,2018-06-29 11:12:29.718750,17.67,66.52
283448,2018-06-29 11:12:29.750000,20.31,66.52
283449,2018-06-29 11:12:29.781250,18.9,66.52
283450,2018-06-29 11:12:29.812500,16.02,66.52
283451,2018-06-29 11:12:29.843750,14.95,66.52
283452,2018-06-29 11:12:29.875000,16.52,66.52
283453,2018-06-29 11:12:29.906250,18.7,66.52
283454,2018-06-29 11:12:29.937500,20.15,66.52
283455,2018-06-29 11:12:29.968750,21.32,66.52
283456,2018-06-29 11:12:30.000000,22.06,66.52
283457,2018-06-29 11:12:30.031250,21.02,66.52
283458,2018-06-29 11:12:30.062500,17.79,66.52
283459,2018-06-29 11:12:30.093750,13.68,66.52
283460,2018-06-29 11:12:30.125000,10.04,66.52
283461,2018-06-29 11:12:30.156250,6.89,66.52
283462,2018-06-29 11:12:30.187500,3.61,66.52
283463,2018-06-29 11:12:30.218750,0.68,66.52
283464,2018-06-29 11:12:30.250000,-1.13,66.52
283465,2018-06-29 11:12:30.281250,-2.45,66.52
283466,2018-06-29 11:12:30.312500,-4.28,66.52
283467,2018-06-29 11:12:30.343750,-6.62,66.52
283468,2018-06-29 11:12:30.375000,-9.47,66.52
283469,2018-06-29 11:12:30.406250,-13.69,66.52
283470,2018-06-29 11:12:30.437500,-19.54,66.52
283471,2018-06-29 11:12:30.468750,-25.65,66.52
283472,2018-06-29 11:12:30.500000,-30.4,66.52
283473,2018-06-29 11:12:30.531250,-33.49,66.52
283474,2018-06-29 11:12:30.562500,-36.19,66.52
283475,2018-06-29 11:12:30.593750,-40.59,66.52
283476,2018-06-29 11:12:30.625000,-47.2,66.52
283477,2018-06-29 11:12:30.656250,-51.94,66.52
283478,2018-06-29 11:12:30.687500,-47.59,66.52
283479,2018-06-29 11:12:30.718750,-31.64,66.52
283480,2018-06-29 11:12:30.750000,-10.64,66.52
283481,2018-06-29 11:12:30.781250,6.39,66.52
283482,2018-06-29 11:12:30.812500,15.42,66.52
283483,2018-06-29 11:12:30.843750,17.34,66.52
283484,2018-06-29 11:12:30.875000,14.87,66.52
283485,2018-06-29 11:12:30.906250,11.58,66.52
283486,2018-06-29 11:12:30.937500,10.16,66.52
283487,2018-06-29 11:12:30.968750,10.96,66.52
283488,2018-06-29 11:12:31.000000,12.7,66.52
283489,2018-06-29 11:12:31.031250,14.09,66.52
283490,2018-06-29 11:12:31.062500,15.06,66.52
283491,2018-06-29 11:12:31.093750,15.95,66.52
283492,2018-06-29 11:12:31.125000,15.85,66.52
283493,2018-06-29 11:12:31.156250,13.74,66.52
283494,2018-06-29 11:12:31.187500,10.79,66.52
283495,2018-06-29 11:12:31.218750,8.71,66.52
283496,2018-06-29 11:12:31.250000,6.97,66.52
283497,2018-06-29 11:12:31.281250,4.62,66.52
283498,2018-06-29 11:12:31.312500,2.41,66.52
283499,2018-06-29 11:12:31.343750,0.94,66.52
283500,2018-06-29 11:12:31.375000,-0.87,66.52
283501,2018-06-29 11:12:31.406250,-3.77,66.52
283502,2018-06-29 11:12:31.437500,-6.92,66.52
283503,2018-06-29 11:12:31.468750,-9.7,66.52
283504,2018-06-29 11:12:31.500000,-12.87,66.52
283505,2018-06-29 11:12:31.531250,-17.28,66.52
283506,2018-06-29 11:12:31.562500,-22.46,66.52
283507,2018-06-29 11:12:31.593750,-27.03,66.52
283508,2018-06-29 11:12:31.625000,-29.96,66.52
283509,2018-06-29 11:12:31.656250,-31.96,66.52
283510,2018-06-29 11:12:31.687500,-35.44,66.52
283511,2018-06-29 11:12:31.718750,-42.02,66.52
283512,2018-06-29 11:12:31.750000,-48.45,66.52
283513,2018-06-29 11:12:31.781250,-46.91,66.52
283514,2018-06-29 11:12:31.812500,-33.3,66.52
283515,2018-06-29 11:12:31.843750,-13.24,66.52
283516,2018-06-29 11:12:31.875000,3.75,66.52
283517,2018-06-29 11:12:31.906250,13.07,66.52
283518,2018-06-29 11:12:31.937500,15.61,66.52
283519,2018-06-29 11:12:31.968750,13.44,66.52
283520,2018-06-29 11:12:32.000000,8.98,66.52
283521,2018-06-29 11:12:32.031250,5.15,66.52
283522,2018-06-29 11:12:32.062500,4.04,66.52
283523,2018-06-29 11:12:32.093750,5.75,66.52
283524,2018-06-29 11:12:32.125000,8.81,66.52
283525,2018-06-29 11:12:32.156250,11.85,66.52
283526,2018-06-29 11:12:32.187500,14.35,66.52
283527,2018-06-29 11:12:32.218750,15.63,66.52
283528,2018-06-29 11:12:32.250000,14.73,66.52
283529,2018-06-29 11:12:32.281250,11.75,66.52
283530,2018-06-29 11:12:32.312500,8.12,66.52
283531,2018-06-29 11:12:32.343750,5.1,66.52
283532,2018-06-29 11:12:32.375000,2.42,66.52
283533,2018-06-29 11:12:32.406250,-1.18,66.52
283534,2018-06-29 11:12:32.437500,-5.95,66.52
283535,2018-06-29 11:12:32.468750,-10.68,66.52
283536,2018-06-29 11:12:32.500000,-14.63,66.52
283537,2018-06-29 11:12:32.531250,-18.22,66.52
283538,2018-06-29 11:12:32.562500,-21.87,66.52
283539,2018-06-29 11:12:32.593750,-25.76,66.52
283540,2018-06-29 11:12:32.625000,-29.92,66.52
283541,2018-06-29 11:12:32.656250,-33.58,66.52
283542,2018-06-29 11:12:32.687500,-36.45,66.52
283543,2018-06-29 11:12:32.718750,-40.35,66.52
283544,2018-06-29 11:12:32.750000,-46.62,66.52
283545,2018-06-29 11:12:32.781250,-51.19,66.52
283546,2018-06-29 11:12:32.812500,-46.78,66.52
283547,2018-06-29 11:12:32.843750,-31.49,66.52
283548,2018-06-29 11:12:32.875000,-11.58,66.52
283549,2018-06-29 11:12:32.906250,5.38,66.52
283550,2018-06-29 11:12:32.937500,16.11,66.52
283551,2018-06-29 11:12:32.968750,20.18,66.52
283552,2018-06-29 11:12:33.000000,18.4,66.52
283553,2018-06-29 11:12:33.031250,13.57,66.52
283554,2018-06-29 11:12:33.062500,9.6,66.52
283555,2018-06-29 11:12:33.093750,8.74,66.52
283556,2018-06-29 11:12:33.125000,10.64,66.52
283557,2018-06-29 11:12:33.156250,13.31,66.52
283558,2018-06-29 11:12:33.187500,15.27,66.52
283559,2018-06-29 11:12:33.218750,16.2,66.52
283560,2018-06-29 11:12:33.250000,15.56,66.52
283561,2018-06-29 11:12:33.281250,12.38,66.52
283562,2018-06-29 11:12:33.312500,6.88,66.52
283563,2018-06-29 11:12:33.343750,0.58,66.52
283564,2018-06-29 11:12:33.375000,-5.64,66.52
283565,2018-06-29 11:12:33.406250,-12.05,66.52
283566,2018-06-29 11:12:33.437500,-19.21,66.52
283567,2018-06-29 11:12:33.468750,-27.34,66.52
283568,2018-06-29 11:12:33.500000,-35.62,66.52
283569,2018-06-29 11:12:33.531250,-42.76,66.5
283570,2018-06-29 11:12:33.562500,-48.65,66.5
283571,2018-06-29 11:12:33.593750,-55.34,66.5
283572,2018-06-29 11:12:33.625000,-65.66,66.5
283573,2018-06-29 11:12:33.656250,-78.57,66.5
283574,2018-06-29 11:12:33.687500,-85.64,66.5
283575,2018-06-29 11:12:33.718750,-76.7,66.5
283576,2018-06-29 11:12:33.750000,-50.9,66.5
283577,2018-06-29 11:12:33.781250,-18.11,66.5
283578,2018-06-29 11:12:33.812500,10.3,66.5
283579,2018-06-29 11:12:33.843750,28.32,66.5
283580,2018-06-29 11:12:33.875000,35.29,66.5
283581,2018-06-29 11:12:33.906250,34.25,66.5
283582,2018-06-29 11:12:33.937500,30.08,66.5
283583,2018-06-29 11:12:33.968750,27.13,66.5
283584,2018-06-29 11:12:34.000000,28.03,66.5
283585,2018-06-29 11:12:34.031250,32.89,66.5
283586,2018-06-29 11:12:34.062500,39.42,66.5
283587,2018-06-29 11:12:34.093750,44.89,66.5
283588,2018-06-29 11:12:34.125000,47.72,66.5
283589,2018-06-29 11:12:34.156250,46.8,66.5
283590,2018-06-29 11:12:34.187500,41.0,66.5
283591,2018-06-29 11:12:34.218750,31.03,66.5
283592,2018-06-29 11:12:34.250000,20.07,66.5
283593,2018-06-29 11:12:34.281250,9.94,66.5
283594,2018-06-29 11:12:34.312500,-1.02,66.5
283595,2018-06-29 11:12:34.343750,-13.8,66.5
283596,2018-06-29 11:12:34.375000,-25.47,66.5
283597,2018-06-29 11:12:34.406250,-33.28,66.5
283598,2018-06-29 11:12:34.437500,-39.33,66.5
283599,2018-06-29 11:12:34.468750,-48.38,66.5
283600,2018-06-29 11:12:34.500000,-62.27,66.5
283601,2018-06-29 11:12:34.531250,-75.14,66.5
283602,2018-06-29 11:12:34.562500,-74.32,66.5
283603,2018-06-29 11:12:34.593750,-51.25,66.5
283604,2018-06-29 11:12:34.625000,-12.52,66.5
283605,2018-06-29 11:12:34.656250,25.37,66.5
283606,2018-06-29 11:12:34.687500,50.92,66.5
283607,2018-06-29 11:12:34.718750,62.75,66.5
283608,2018-06-29 11:12:34.750000,63.96,66.5
283609,2018-06-29 11:12:34.781250,58.47,66.5
283610,2018-06-29 11:12:34.812500,51.78,66.5
283611,2018-06-29 11:12:34.843750,49.37,66.5
283612,2018-06-29 11:12:34.875000,52.28,66.5
283613,2018-06-29 11:12:34.906250,56.95,66.5
283614,2018-06-29 11:12:34.937500,59.81,66.5
283615,2018-06-29 11:12:34.968750,59.97,66.5
283616,2018-06-29 11:12:35.000000,57.3,66.5
283617,2018-06-29 11:12:35.031250,51.0,66.5
283618,2018-06-29 11:12:35.062500,41.26,66.5
283619,2018-06-29 11:12:35.093750,30.26,66.5
283620,2018-06-29 11:12:35.125000,20.67,66.5
283621,2018-06-29 11:12:35.156250,12.85,66.5
283622,2018-06-29 11:12:35.187500,4.58,66.5
283623,2018-06-29 11:12:35.218750,-5.81,66.5
283624,2018-06-29 11:12:35.250000,-16.7,66.5
283625,2018-06-29 11:12:35.281250,-25.46,66.5
283626,2018-06-29 11:12:35.312500,-32.84,66.5
283627,2018-06-29 11:12:35.343750,-42.79,66.5
283628,2018-06-29 11:12:35.375000,-57.5,66.5
283629,2018-06-29 11:12:35.406250,-72.23,66.5
283630,2018-06-29 11:12:35.437500,-74.98,66.5
283631,2018-06-29 11:12:35.468750,-55.45,66.5
283632,2018-06-29 11:12:35.500000,-18.13,66.5
283633,2018-06-29 11:12:35.531250,19.34,66.52
283634,2018-06-29 11:12:35.562500,43.17,66.52
283635,2018-06-29 11:12:35.593750,52.12,66.52
283636,2018-06-29 11:12:35.625000,49.7,66.52
283637,2018-06-29 11:12:35.656250,39.75,66.52
283638,2018-06-29 11:12:35.687500,29.79,66.52
283639,2018-06-29 11:12:35.718750,27.47,66.52
283640,2018-06-29 11:12:35.750000,32.11,66.52
283641,2018-06-29 11:12:35.781250,37.1,66.52
283642,2018-06-29 11:12:35.812500,39.4,66.52
283643,2018-06-29 11:12:35.843750,40.01,66.52
283644,2018-06-29 11:12:35.875000,38.14,66.52
283645,2018-06-29 11:12:35.906250,31.49,66.52
283646,2018-06-29 11:12:35.937500,20.86,66.52
283647,2018-06-29 11:12:35.968750,9.7,66.52
283648,2018-06-29 11:12:36.000000,-0.16,66.52
283649,2018-06-29 11:12:36.031250,-10.14,66.52
283650,2018-06-29 11:12:36.062500,-22.31,66.52
283651,2018-06-29 11:12:36.093750,-35.78,66.52
283652,2018-06-29 11:12:36.125000,-47.1,66.52
283653,2018-06-29 11:12:36.156250,-54.77,66.52
283654,2018-06-29 11:12:36.187500,-61.39,66.52
283655,2018-06-29 11:12:36.218750,-71.15,66.52
283656,2018-06-29 11:12:36.250000,-84.17,66.52
283657,2018-06-29 11:12:36.281250,-90.94,66.52
283658,2018-06-29 11:12:36.312500,-77.17,66.52
283659,2018-06-29 11:12:36.343750,-40.17,66.52
283660,2018-06-29 11:12:36.375000,5.13,66.52
283661,2018-06-29 11:12:36.406250,40.93,66.52
283662,2018-06-29 11:12:36.437500,60.72,66.52
283663,2018-06-29 11:12:36.468750,66.54,66.52
283664,2018-06-29 11:12:36.500000,62.13,66.52
283665,2018-06-29 11:12:36.531250,53.41,66.57
283666,2018-06-29 11:12:36.562500,48.21,66.57
283667,2018-06-29 11:12:36.593750,49.69,66.57
283668,2018-06-29 11:12:36.625000,53.65,66.57
283669,2018-06-29 11:12:36.656250,55.15,66.57
283670,2018-06-29 11:12:36.687500,53.85,66.57
283671,2018-06-29 11:12:36.718750,50.59,66.57
283672,2018-06-29 11:12:36.750000,43.81,66.57
283673,2018-06-29 11:12:36.781250,32.35,66.57
283674,2018-06-29 11:12:36.812500,18.81,66.57
283675,2018-06-29 11:12:36.843750,7.15,66.57
283676,2018-06-29 11:12:36.875000,-2.3,66.57
283677,2018-06-29 11:12:36.906250,-12.52,66.57
283678,2018-06-29 11:12:36.937500,-24.38,66.57
283679,2018-06-29 11:12:36.968750,-35.02,66.57
283680,2018-06-29 11:12:37.000000,-42.67,66.57
283681,2018-06-29 11:12:37.031250,-49.7,66.57
283682,2018-06-29 11:12:37.062500,-59.91,66.57
283683,2018-06-29 11:12:37.093750,-74.23,66.57
283684,2018-06-29 11:12:37.125000,-86.77,66.57
283685,2018-06-29 11:12:37.156250,-84.46,66.57
283686,2018-06-29 11:12:37.187500,-57.59,66.57
283687,2018-06-29 11:12:37.218750,-13.36,66.57
283688,2018-06-29 11:12:37.250000,28.42,66.57
283689,2018-06-29 11:12:37.281250,54.04,66.57
283690,2018-06-29 11:12:37.312500,63.43,66.57
283691,2018-06-29 11:12:37.343750,61.84,66.57
283692,2018-06-29 11:12:37.375000,54.39,66.57
283693,2018-06-29 11:12:37.406250,47.21,66.57
283694,2018-06-29 11:12:37.437500,45.37,66.57
283695,2018-06-29 11:12:37.468750,48.1,66.57
283696,2018-06-29 11:12:37.500000,50.96,66.57
283697,2018-06-29 11:12:37.531250,51.77,66.6
283698,2018-06-29 11:12:37.562500,50.61,66.6
283699,2018-06-29 11:12:37.593750,46.4,66.6
283700,2018-06-29 11:12:37.625000,38.39,66.6
283701,2018-06-29 11:12:37.656250,29.04,66.6
283702,2018-06-29 11:12:37.687500,21.14,66.6
283703,2018-06-29 11:12:37.718750,13.8,66.6
283704,2018-06-29 11:12:37.750000,4.88,66.6
283705,2018-06-29 11:12:37.781250,-4.68,66.6
283706,2018-06-29 11:12:37.812500,-12.66,66.6
283707,2018-06-29 11:12:37.843750,-19.9,66.6
283708,2018-06-29 11:12:37.875000,-28.8,66.6
283709,2018-06-29 11:12:37.906250,-39.17,66.6
283710,2018-06-29 11:12:37.937500,-48.58,66.6
283711,2018-06-29 11:12:37.968750,-56.15,66.6
283712,2018-06-29 11:12:38.000000,-64.11,66.6
283713,2018-06-29 11:12:38.031250,-76.17,66.6
283714,2018-06-29 11:12:38.062500,-92.0,66.6
283715,2018-06-29 11:12:38.093750,-100.98,66.6
283716,2018-06-29 11:12:38.125000,-87.86,66.6
283717,2018-06-29 11:12:38.156250,-49.95,66.6
283718,2018-06-29 11:12:38.187500,-3.43,66.6
283719,2018-06-29 11:12:38.218750,32.57,66.6
283720,2018-06-29 11:12:38.250000,51.67,66.6
283721,2018-06-29 11:12:38.281250,57.44,66.6
283722,2018-06-29 11:12:38.312500,54.38,66.6
283723,2018-06-29 11:12:38.343750,47.79,66.6
283724,2018-06-29 11:12:38.375000,44.26,66.6
283725,2018-06-29 11:12:38.406250,46.19,66.6
283726,2018-06-29 11:12:38.437500,49.87,66.6
283727,2018-06-29 11:12:38.468750,52.17,66.6
283728,2018-06-29 11:12:38.500000,53.65,66.6
283729,2018-06-29 11:12:38.531250,53.68,66.65
283730,2018-06-29 11:12:38.562500,49.06,66.65
283731,2018-06-29 11:12:38.593750,39.53,66.65
283732,2018-06-29 11:12:38.625000,29.06,66.65
283733,2018-06-29 11:12:38.656250,20.1,66.65
283734,2018-06-29 11:12:38.687500,11.52,66.65
283735,2018-06-29 11:12:38.718750,3.01,66.65
283736,2018-06-29 11:12:38.750000,-3.51,66.65
283737,2018-06-29 11:12:38.781250,-8.23,66.65
283738,2018-06-29 11:12:38.812500,-14.77,66.65
283739,2018-06-29 11:12:38.843750,-25.18,66.65
283740,2018-06-29 11:12:38.875000,-36.86,66.65
283741,2018-06-29 11:12:38.906250,-46.24,66.65
283742,2018-06-29 11:12:38.937500,-53.38,66.65
283743,2018-06-29 11:12:38.968750,-61.6,66.65
283744,2018-06-29 11:12:39.000000,-73.45,66.65
283745,2018-06-29 11:12:39.031250,-84.82,66.65
283746,2018-06-29 11:12:39.062500,-83.36,66.65
283747,2018-06-29 11:12:39.093750,-59.26,66.65
283748,2018-06-29 11:12:39.125000,-18.8,66.65
283749,2018-06-29 11:12:39.156250,20.15,66.65
283750,2018-06-29 11:12:39.187500,45.41,66.65
283751,2018-06-29 11:12:39.218750,56.05,66.65
283752,2018-06-29 11:12:39.250000,55.28,66.65
283753,2018-06-29 11:12:39.281250,47.49,66.65
283754,2018-06-29 11:12:39.312500,39.45,66.65
283755,2018-06-29 11:12:39.343750,36.71,66.65
283756,2018-06-29 11:12:39.375000,38.94,66.65
283757,2018-06-29 11:12:39.406250,41.89,66.65
283758,2018-06-29 11:12:39.437500,42.91,66.65
283759,2018-06-29 11:12:39.468750,42.13,66.65
283760,2018-06-29 11:12:39.500000,39.54,66.65
283761,2018-06-29 11:12:39.531250,34.12,66.68
283762,2018-06-29 11:12:39.562500,26.15,66.68
283763,2018-06-29 11:12:39.593750,17.77,66.68
283764,2018-06-29 11:12:39.625000,10.55,66.68
283765,2018-06-29 11:12:39.656250,4.01,66.68
283766,2018-06-29 11:12:39.687500,-2.93,66.68
283767,2018-06-29 11:12:39.718750,-9.91,66.68
283768,2018-06-29 11:12:39.750000,-15.75,66.68
283769,2018-06-29 11:12:39.781250,-21.32,66.68
283770,2018-06-29 11:12:39.812500,-29.51,66.68
283771,2018-06-29 11:12:39.843750,-40.54,66.68
283772,2018-06-29 11:12:39.875000,-50.54,66.68
283773,2018-06-29 11:12:39.906250,-56.82,66.68
283774,2018-06-29 11:12:39.937500,-62.07,66.68
283775,2018-06-29 11:12:39.968750,-71.14,66.68
283776,2018-06-29 11:12:40.000000,-83.94,66.68
283777,2018-06-29 11:12:40.031250,-91.26,66.68
283778,2018-06-29 11:12:40.062500,-80.29,66.68
283779,2018-06-29 11:12:40.093750,-48.13,66.68
283780,2018-06-29 11:12:40.125000,-7.26,66.68
283781,2018-06-29 11:12:40.156250,26.25,66.68
283782,2018-06-29 11:12:40.187500,45.56,66.68
283783,2018-06-29 11:12:40.218750,52.44,66.68
283784,2018-06-29 11:12:40.250000,50.72,66.68
283785,2018-06-29 11:12:40.281250,44.68,66.68
283786,2018-06-29 11:12:40.312500,39.27,66.68
283787,2018-06-29 11:12:40.343750,37.76,66.68
283788,2018-06-29 11:12:40.375000,39.26,66.68
283789,2018-06-29 11:12:40.406250,40.96,66.68
283790,2018-06-29 11:12:40.437500,42.18,66.68
283791,2018-06-29 11:12:40.468750,43.25,66.68
283792,2018-06-29 11:12:40.500000,41.81,66.68
283793,2018-06-29 11:12:40.531250,35.23,66.73
283794,2018-06-29 11:12:40.562500,25.59,66.73
283795,2018-06-29 11:12:40.593750,17.54,66.73
283796,2018-06-29 11:12:40.625000,11.85,66.73
283797,2018-06-29 11:12:40.656250,5.42,66.73
283798,2018-06-29 11:12:40.687500,-2.89,66.73
283799,2018-06-29 11:12:40.718750,-10.46,66.73
283800,2018-06-29 11:12:40.750000,-15.85,66.73
283801,2018-06-29 11:12:40.781250,-21.74,66.73
283802,2018-06-29 11:12:40.812500,-31.09,66.73
283803,2018-06-29 11:12:40.843750,-42.56,66.73
283804,2018-06-29 11:12:40.875000,-51.98,66.73
283805,2018-06-29 11:12:40.906250,-58.03,66.73
283806,2018-06-29 11:12:40.937500,-64.2,66.73
283807,2018-06-29 11:12:40.968750,-74.67,66.73
283808,2018-06-29 11:12:41.000000,-87.41,66.73
283809,2018-06-29 11:12:41.031250,-91.49,66.73
283810,2018-06-29 11:12:41.062500,-75.26,66.73
283811,2018-06-29 11:12:41.093750,-39.96,66.73
283812,2018-06-29 11:12:41.125000,-0.64,66.73
283813,2018-06-29 11:12:41.156250,28.21,66.73
283814,2018-06-29 11:12:41.187500,43.04,66.73
283815,2018-06-29 11:12:41.218750,47.35,66.73
283816,2018-06-29 11:12:41.250000,45.12,66.73
283817,2018-06-29 11:12:41.281250,40.38,66.73
283818,2018-06-29 11:12:41.312500,37.25,66.73
283819,2018-06-29 11:12:41.343750,37.03,66.73
283820,2018-06-29 11:12:41.375000,37.64,66.73
283821,2018-06-29 11:12:41.406250,37.29,66.73
283822,2018-06-29 11:12:41.437500,36.49,66.73
283823,2018-06-29 11:12:41.468750,34.89,66.73
283824,2018-06-29 11:12:41.500000,29.97,66.73
283825,2018-06-29 11:12:41.531250,20.97,66.78
283826,2018-06-29 11:12:41.562500,10.93,66.78
283827,2018-06-29 11:12:41.593750,2.46,66.78
283828,2018-06-29 11:12:41.625000,-5.59,66.78
283829,2018-06-29 11:12:41.656250,-15.11,66.78
283830,2018-06-29 11:12:41.687500,-25.11,66.78
283831,2018-06-29 11:12:41.718750,-33.35,66.78
283832,2018-06-29 11:12:41.750000,-39.74,66.78
283833,2018-06-29 11:12:41.781250,-46.83,66.78
283834,2018-06-29 11:12:41.812500,-57.59,66.78
283835,2018-06-29 11:12:41.843750,-70.76,66.78
283836,2018-06-29 11:12:41.875000,-77.1,66.78
283837,2018-06-29 11:12:41.906250,-65.27,66.78
283838,2018-06-29 11:12:41.937500,-34.74,66.78
283839,2018-06-29 11:12:41.968750,1.6,66.78
283840,2018-06-29 11:12:42.000000,29.78,66.78
283841,2018-06-29 11:12:42.031250,45.04,66.78
283842,2018-06-29 11:12:42.062500,49.57,66.78
283843,2018-06-29 11:12:42.093750,47.16,66.78
283844,2018-06-29 11:12:42.125000,41.99,66.78
283845,2018-06-29 11:12:42.156250,37.97,66.78
283846,2018-06-29 11:12:42.187500,36.4,66.78
283847,2018-06-29 11:12:42.218750,36.07,66.78
283848,2018-06-29 11:12:42.250000,35.67,66.78
283849,2018-06-29 11:12:42.281250,34.54,66.78
283850,2018-06-29 11:12:42.312500,31.15,66.78
283851,2018-06-29 11:12:42.343750,24.02,66.78
283852,2018-06-29 11:12:42.375000,13.94,66.78
283853,2018-06-29 11:12:42.406250,3.33,66.78
283854,2018-06-29 11:12:42.437500,-6.64,66.78
283855,2018-06-29 11:12:42.468750,-16.67,66.78
283856,2018-06-29 11:12:42.500000,-27.03,66.78
283857,2018-06-29 11:12:42.531250,-36.23,66.85
283858,2018-06-29 11:12:42.562500,-43.05,66.85
283859,2018-06-29 11:12:42.593750,-49.35,66.85
283860,2018-06-29 11:12:42.625000,-58.65,66.85
283861,2018-06-29 11:12:42.656250,-69.36,66.85
283862,2018-06-29 11:12:42.687500,-71.11,66.85
283863,2018-06-29 11:12:42.718750,-53.97,66.85
283864,2018-06-29 11:12:42.750000,-21.38,66.85
283865,2018-06-29 11:12:42.781250,12.13,66.85
283866,2018-06-29 11:12:42.812500,35.07,66.85
283867,2018-06-29 11:12:42.843750,45.28,66.85
283868,2018-06-29 11:12:42.875000,45.49,66.85
283869,2018-06-29 11:12:42.906250,39.86,66.85
283870,2018-06-29 11:12:42.937500,33.73,66.85
283871,2018-06-29 11:12:42.968750,31.27,66.85
283872,2018-06-29 11:12:43.000000,32.53,66.85
283873,2018-06-29 11:12:43.031250,34.34,66.85
283874,2018-06-29 11:12:43.062500,34.41,66.85
283875,2018-06-29 11:12:43.093750,32.56,66.85
283876,2018-06-29 11:12:43.125000,28.53,66.85
283877,2018-06-29 11:12:43.156250,21.75,66.85
283878,2018-06-29 11:12:43.187500,13.49,66.85
283879,2018-06-29 11:12:43.218750,6.31,66.85
283880,2018-06-29 11:12:43.250000,0.65,66.85
283881,2018-06-29 11:12:43.281250,-6.05,66.85
283882,2018-06-29 11:12:43.312500,-15.48,66.85
283883,2018-06-29 11:12:43.343750,-25.37,66.85
283884,2018-06-29 11:12:43.375000,-32.66,66.85
283885,2018-06-29 11:12:43.406250,-38.29,66.85
283886,2018-06-29 11:12:43.437500,-46.16,66.85
283887,2018-06-29 11:12:43.468750,-57.74,66.85
283888,2018-06-29 11:12:43.500000,-67.93,66.85
283889,2018-06-29 11:12:43.531250,-66.05,66.92
283890,2018-06-29 11:12:43.562500,-45.06,66.92
283891,2018-06-29 11:12:43.593750,-11.46,66.92
283892,2018-06-29 11:12:43.625000,19.5,66.92
283893,2018-06-29 11:12:43.656250,38.35,66.92
283894,2018-06-29 11:12:43.687500,45.28,66.92
283895,2018-06-29 11:12:43.718750,43.51,66.92
283896,2018-06-29 11:12:43.750000,36.69,66.92
283897,2018-06-29 11:12:43.781250,30.2,66.92
283898,2018-06-29 11:12:43.812500,28.18,66.92
283899,2018-06-29 11:12:43.843750,29.92,66.92
283900,2018-06-29 11:12:43.875000,32.24,66.92
283901,2018-06-29 11:12:43.906250,33.48,66.92
283902,2018-06-29 11:12:43.937500,33.01,66.92
283903,2018-06-29 11:12:43.968750,29.44,66.92
283904,2018-06-29 11:12:44.000000,21.88,66.92
283905,2018-06-29 11:12:44.031250,12.12,66.92
283906,2018-06-29 11:12:44.062500,3.22,66.92
283907,2018-06-29 11:12:44.093750,-4.25,66.92
283908,2018-06-29 11:12:44.125000,-12.61,66.92
283909,2018-06-29 11:12:44.156250,-22.32,66.92
283910,2018-06-29 11:12:44.187500,-30.19,66.92
283911,2018-06-29 11:12:44.218750,-34.42,66.92
283912,2018-06-29 11:12:44.250000,-37.89,66.92
283913,2018-06-29 11:12:44.281250,-44.99,66.92
283914,2018-06-29 11:12:44.312500,-56.64,66.92
283915,2018-06-29 11:12:44.343750,-66.66,66.92
283916,2018-06-29 11:12:44.375000,-62.96,66.92
283917,2018-06-29 11:12:44.406250,-39.48,66.92
283918,2018-06-29 11:12:44.437500,-5.68,66.92
283919,2018-06-29 11:12:44.468750,22.84,66.92
283920,2018-06-29 11:12:44.500000,39.06,66.92
283921,2018-06-29 11:12:44.531250,44.19,67.0
283922,2018-06-29 11:12:44.562500,40.58,67.0
283923,2018-06-29 11:12:44.593750,32.33,67.0
283924,2018-06-29 11:12:44.625000,26.3,67.0
283925,2018-06-29 11:12:44.656250,26.25,67.0
283926,2018-06-29 11:12:44.687500,29.32,67.0
283927,2018-06-29 11:12:44.718750,31.22,67.0
283928,2018-06-29 11:12:44.750000,31.09,67.0
283929,2018-06-29 11:12:44.781250,29.03,67.0
283930,2018-06-29 11:12:44.812500,23.78,67.0
283931,2018-06-29 11:12:44.843750,15.46,67.0
283932,2018-06-29 11:12:44.875000,6.79,67.0
283933,2018-06-29 11:12:44.906250,-0.92,67.0
283934,2018-06-29 11:12:44.937500,-9.24,67.0
283935,2018-06-29 11:12:44.968750,-18.79,67.0
283936,2018-06-29 11:12:45.000000,-27.43,67.0
283937,2018-06-29 11:12:45.031250,-33.34,67.0
283938,2018-06-29 11:12:45.062500,-37.73,67.0
283939,2018-06-29 11:12:45.093750,-43.75,67.0
283940,2018-06-29 11:12:45.125000,-53.46,67.0
283941,2018-06-29 11:12:45.156250,-63.34,67.0
283942,2018-06-29 11:12:45.187500,-62.9,67.0
283943,2018-06-29 11:12:45.218750,-44.4,67.0
283944,2018-06-29 11:12:45.250000,-13.72,67.0
283945,2018-06-29 11:12:45.281250,14.84,67.0
283946,2018-06-29 11:12:45.312500,32.72,67.0
283947,2018-06-29 11:12:45.343750,39.94,67.0
283948,2018-06-29 11:12:45.375000,38.85,67.0
283949,2018-06-29 11:12:45.406250,32.44,67.0
283950,2018-06-29 11:12:45.437500,25.99,67.0
283951,2018-06-29 11:12:45.468750,23.85,67.0
283952,2018-06-29 11:12:45.500000,25.5,67.0
283953,2018-06-29 11:12:45.531250,27.53,67.08
283954,2018-06-29 11:12:45.562500,28.49,67.08
283955,2018-06-29 11:12:45.593750,28.34,67.08
283956,2018-06-29 11:12:45.625000,25.23,67.08
283957,2018-06-29 11:12:45.656250,18.02,67.08
283958,2018-06-29 11:12:45.687500,9.69,67.08
283959,2018-06-29 11:12:45.718750,3.51,67.08
283960,2018-06-29 11:12:45.750000,-1.89,67.08
283961,2018-06-29 11:12:45.781250,-9.43,67.08
283962,2018-06-29 11:12:45.812500,-18.3,67.08
283963,2018-06-29 11:12:45.843750,-25.37,67.08
283964,2018-06-29 11:12:45.875000,-30.01,67.08
283965,2018-06-29 11:12:45.906250,-35.15,67.08
283966,2018-06-29 11:12:45.937500,-44.08,67.08
283967,2018-06-29 11:12:45.968750,-55.48,67.08
283968,2018-06-29 11:12:46.000000,-60.44,67.08
283969,2018-06-29 11:12:46.031250,-48.89,67.08
283970,2018-06-29 11:12:46.062500,-21.69,67.08
283971,2018-06-29 11:12:46.093750,8.54,67.08
283972,2018-06-29 11:12:46.125000,29.98,67.08
283973,2018-06-29 11:12:46.156250,39.41,67.08
283974,2018-06-29 11:12:46.187500,38.82,67.08
283975,2018-06-29 11:12:46.218750,32.04,67.08
283976,2018-06-29 11:12:46.250000,24.76,67.08
283977,2018-06-29 11:12:46.281250,21.56,67.08
283978,2018-06-29 11:12:46.312500,22.4,67.08
283979,2018-06-29 11:12:46.343750,24.58,67.08
283980,2018-06-29 11:12:46.375000,26.42,67.08
283981,2018-06-29 11:12:46.406250,26.97,67.08
283982,2018-06-29 11:12:46.437500,24.92,67.08
283983,2018-06-29 11:12:46.468750,19.85,67.08
283984,2018-06-29 11:12:46.500000,13.26,67.08
283985,2018-06-29 11:12:46.531250,6.53,67.17
283986,2018-06-29 11:12:46.562500,-1.06,67.17
283987,2018-06-29 11:12:46.593750,-10.51,67.17
283988,2018-06-29 11:12:46.625000,-20.22,67.17
283989,2018-06-29 11:12:46.656250,-27.52,67.17
283990,2018-06-29 11:12:46.687500,-32.53,67.17
283991,2018-06-29 11:12:46.718750,-38.36,67.17
283992,2018-06-29 11:12:46.750000,-47.46,67.17
283993,2018-06-29 11:12:46.781250,-57.77,67.17
283994,2018-06-29 11:12:46.812500,-60.86,67.17
283995,2018-06-29 11:12:46.843750,-47.73,67.17
283996,2018-06-29 11:12:46.875000,-20.11,67.17
283997,2018-06-29 11:12:46.906250,8.57,67.17
283998,2018-06-29 11:12:46.937500,26.7,67.17
283999,2018-06-29 11:12:46.968750,33.01,67.17
284000,2018-06-29 11:12:47.000000,31.04,67.17
284001,2018-06-29 11:12:47.031250,24.08,67.17
284002,2018-06-29 11:12:47.062500,17.05,67.17
284003,2018-06-29 11:12:47.093750,14.88,67.17
284004,2018-06-29 11:12:47.125000,17.73,67.17
284005,2018-06-29 11:12:47.156250,21.93,67.17
284006,2018-06-29 11:12:47.187500,24.39,67.17
284007,2018-06-29 11:12:47.218750,23.97,67.17
284008,2018-06-29 11:12:47.250000,20.14,67.17
284009,2018-06-29 11:12:47.281250,12.9,67.17
284010,2018-06-29 11:12:47.312500,3.59,67.17
284011,2018-06-29 11:12:47.343750,-6.1,67.17
284012,2018-06-29 11:12:47.375000,-15.64,67.17
284013,2018-06-29 11:12:47.406250,-25.14,67.17
284014,2018-06-29 11:12:47.437500,-33.61,67.17
284015,2018-06-29 11:12:47.468750,-40.45,67.17
284016,2018-06-29 11:12:47.500000,-47.42,67.17
284017,2018-06-29 11:12:47.531250,-56.68,67.27
284018,2018-06-29 11:12:47.562500,-65.45,67.27
284019,2018-06-29 11:12:47.593750,-64.66,67.27
284020,2018-06-29 11:12:47.625000,-46.75,67.27
284021,2018-06-29 11:12:47.656250,-15.89,67.27
284022,2018-06-29 11:12:47.687500,14.19,67.27
284023,2018-06-29 11:12:47.718750,33.06,67.27
284024,2018-06-29 11:12:47.750000,39.9,67.27
284025,2018-06-29 11:12:47.781250,38.58,67.27
284026,2018-06-29 11:12:47.812500,33.4,67.27
284027,2018-06-29 11:12:47.843750,28.94,67.27
284028,2018-06-29 11:12:47.875000,28.12,67.27
284029,2018-06-29 11:12:47.906250,30.04,67.27
284030,2018-06-29 11:12:47.937500,32.24,67.27
284031,2018-06-29 11:12:47.968750,33.56,67.27
284032,2018-06-29 11:12:48.000000,32.99,67.27
284033,2018-06-29 11:12:48.031250,28.66,67.27
284034,2018-06-29 11:12:48.062500,20.44,67.27
284035,2018-06-29 11:12:48.093750,10.53,67.27
284036,2018-06-29 11:12:48.125000,0.77,67.27
284037,2018-06-29 11:12:48.156250,-8.78,67.27
284038,2018-06-29 11:12:48.187500,-18.21,67.27
284039,2018-06-29 11:12:48.218750,-27.01,67.27
284040,2018-06-29 11:12:48.250000,-34.71,67.27
284041,2018-06-29 11:12:48.281250,-42.08,67.27
284042,2018-06-29 11:12:48.312500,-51.49,67.27
284043,2018-06-29 11:12:48.343750,-64.17,67.27
284044,2018-06-29 11:12:48.375000,-73.99,67.27
284045,2018-06-29 11:12:48.406250,-68.91,67.27
284046,2018-06-29 11:12:48.437500,-44.06,67.27
284047,2018-06-29 11:12:48.468750,-9.4,67.27
284048,2018-06-29 11:12:48.500000,20.09,67.27
284049,2018-06-29 11:12:48.531250,37.43,67.38
284050,2018-06-29 11:12:48.562500,44.14,67.38
284051,2018-06-29 11:12:48.593750,43.8,67.38
284052,2018-06-29 11:12:48.625000,40.13,67.38
284053,2018-06-29 11:12:48.656250,37.39,67.38
284054,2018-06-29 11:12:48.687500,37.92,67.38
284055,2018-06-29 11:12:48.718750,40.02,67.38
284056,2018-06-29 11:12:48.750000,40.93,67.38
284057,2018-06-29 11:12:48.781250,40.44,67.38
284058,2018-06-29 11:12:48.812500,38.78,67.38
284059,2018-06-29 11:12:48.843750,33.94,67.38
284060,2018-06-29 11:12:48.875000,24.78,67.38
284061,2018-06-29 11:12:48.906250,14.27,67.38
284062,2018-06-29 11:12:48.937500,5.76,67.38
284063,2018-06-29 11:12:48.968750,-2.01,67.38
284064,2018-06-29 11:12:49.000000,-11.91,67.38
284065,2018-06-29 11:12:49.031250,-22.68,67.38
284066,2018-06-29 11:12:49.062500,-31.01,67.38
284067,2018-06-29 11:12:49.093750,-37.18,67.38
284068,2018-06-29 11:12:49.125000,-44.61,67.38
284069,2018-06-29 11:12:49.156250,-55.47,67.38
284070,2018-06-29 11:12:49.187500,-67.63,67.38
284071,2018-06-29 11:12:49.218750,-72.57,67.38
284072,2018-06-29 11:12:49.250000,-59.84,67.38
284073,2018-06-29 11:12:49.281250,-29.24,67.38
284074,2018-06-29 11:12:49.312500,5.81,67.38
284075,2018-06-29 11:12:49.343750,31.17,67.38
284076,2018-06-29 11:12:49.375000,43.27,67.38
284077,2018-06-29 11:12:49.406250,45.98,67.38
284078,2018-06-29 11:12:49.437500,43.41,67.38
284079,2018-06-29 11:12:49.468750,39.15,67.38
284080,2018-06-29 11:12:49.500000,37.0,67.38
284081,2018-06-29 11:12:49.531250,38.18,67.52
284082,2018-06-29 11:12:49.562500,40.13,67.52
284083,2018-06-29 11:12:49.593750,40.39,67.52
284084,2018-06-29 11:12:49.625000,39.18,67.52
284085,2018-06-29 11:12:49.656250,36.59,67.52
284086,2018-06-29 11:12:49.687500,30.95,67.52
284087,2018-06-29 11:12:49.718750,21.69,67.52
284088,2018-06-29 11:12:49.750000,11.51,67.52
284089,2018-06-29 11:12:49.781250,3.37,67.52
284090,2018-06-29 11:12:49.812500,-3.44,67.52
284091,2018-06-29 11:12:49.843750,-11.82,67.52
284092,2018-06-29 11:12:49.875000,-21.48,67.52
284093,2018-06-29 11:12:49.906250,-29.22,67.52
284094,2018-06-29 11:12:49.937500,-34.41,67.52
284095,2018-06-29 11:12:49.968750,-40.35,67.52
284096,2018-06-29 11:12:50.000000,-50.29,67.52
284097,2018-06-29 11:12:50.031250,-63.29,67.52
284098,2018-06-29 11:12:50.062500,-71.0,67.52
284099,2018-06-29 11:12:50.093750,-61.77,67.52
284100,2018-06-29 11:12:50.125000,-33.57,67.52
284101,2018-06-29 11:12:50.156250,1.18,67.52
284102,2018-06-29 11:12:50.187500,27.81,67.52
284103,2018-06-29 11:12:50.218750,41.25,67.52
284104,2018-06-29 11:12:50.250000,43.96,67.52
284105,2018-06-29 11:12:50.281250,40.21,67.52
284106,2018-06-29 11:12:50.312500,34.96,67.52
284107,2018-06-29 11:12:50.343750,32.33,67.52
284108,2018-06-29 11:12:50.375000,32.76,67.52
284109,2018-06-29 11:12:50.406250,33.8,67.52
284110,2018-06-29 11:12:50.437500,33.74,67.52
284111,2018-06-29 11:12:50.468750,32.4,67.52
284112,2018-06-29 11:12:50.500000,28.78,67.52
284113,2018-06-29 11:12:50.531250,21.39,67.63
284114,2018-06-29 11:12:50.562500,11.54,67.63
284115,2018-06-29 11:12:50.593750,2.95,67.63
284116,2018-06-29 11:12:50.625000,-3.35,67.63
284117,2018-06-29 11:12:50.656250,-9.97,67.63
284118,2018-06-29 11:12:50.687500,-18.25,67.63
284119,2018-06-29 11:12:50.718750,-26.2,67.63
284120,2018-06-29 11:12:50.750000,-32.17,67.63
284121,2018-06-29 11:12:50.781250,-37.21,67.63
284122,2018-06-29 11:12:50.812500,-43.91,67.63
284123,2018-06-29 11:12:50.843750,-52.87,67.63
284124,2018-06-29 11:12:50.875000,-58.19,67.63
284125,2018-06-29 11:12:50.906250,-50.17,67.63
284126,2018-06-29 11:12:50.937500,-27.09,67.63
284127,2018-06-29 11:12:50.968750,0.77,67.63
284128,2018-06-29 11:12:51.000000,22.24,67.63
284129,2018-06-29 11:12:51.031250,33.89,67.63
284130,2018-06-29 11:12:51.062500,35.99,67.63
284131,2018-06-29 11:12:51.093750,29.62,67.63
284132,2018-06-29 11:12:51.125000,20.05,67.63
284133,2018-06-29 11:12:51.156250,14.64,67.63
284134,2018-06-29 11:12:51.187500,15.66,67.63
284135,2018-06-29 11:12:51.218750,19.52,67.63
284136,2018-06-29 11:12:51.250000,21.92,67.63
284137,2018-06-29 11:12:51.281250,20.66,67.63
284138,2018-06-29 11:12:51.312500,15.71,67.63
284139,2018-06-29 11:12:51.343750,8.43,67.63
284140,2018-06-29 11:12:51.375000,-0.33,67.63
284141,2018-06-29 11:12:51.406250,-10.59,67.63
284142,2018-06-29 11:12:51.437500,-21.38,67.63
284143,2018-06-29 11:12:51.468750,-30.59,67.63
284144,2018-06-29 11:12:51.500000,-37.51,67.63
284145,2018-06-29 11:12:51.531250,-43.89,67.75
284146,2018-06-29 11:12:51.562500,-52.35,67.75
284147,2018-06-29 11:12:51.593750,-63.11,67.75
284148,2018-06-29 11:12:51.625000,-70.28,67.75
284149,2018-06-29 11:12:51.656250,-63.6,67.75
284150,2018-06-29 11:12:51.687500,-39.12,67.75
284151,2018-06-29 11:12:51.718750,-5.96,67.75
284152,2018-06-29 11:12:51.750000,21.85,67.75
284153,2018-06-29 11:12:51.781250,37.93,67.75
284154,2018-06-29 11:12:51.812500,44.39,67.75
284155,2018-06-29 11:12:51.843750,44.38,67.75
284156,2018-06-29 11:12:51.875000,39.91,67.75
284157,2018-06-29 11:12:51.906250,34.52,67.75
284158,2018-06-29 11:12:51.937500,31.91,67.75
284159,2018-06-29 11:12:51.968750,32.2,67.75
284160,2018-06-29 11:12:52.000000,32.67,67.75
284161,2018-06-29 11:12:52.031250,31.2,67.75
284162,2018-06-29 11:12:52.062500,27.27,67.75
284163,2018-06-29 11:12:52.093750,20.82,67.75
284164,2018-06-29 11:12:52.125000,11.89,67.75
284165,2018-06-29 11:12:52.156250,1.02,67.75
284166,2018-06-29 11:12:52.187500,-10.42,67.75
284167,2018-06-29 11:12:52.218750,-20.97,67.75
284168,2018-06-29 11:12:52.250000,-30.37,67.75
284169,2018-06-29 11:12:52.281250,-39.18,67.75
284170,2018-06-29 11:12:52.312500,-48.54,67.75
284171,2018-06-29 11:12:52.343750,-60.36,67.75
284172,2018-06-29 11:12:52.375000,-73.22,67.75
284173,2018-06-29 11:12:52.406250,-77.26,67.75
284174,2018-06-29 11:12:52.437500,-61.59,67.75
284175,2018-06-29 11:12:52.468750,-28.96,67.75
284176,2018-06-29 11:12:52.500000,5.6,67.75
284177,2018-06-29 11:12:52.531250,30.72,67.88
284178,2018-06-29 11:12:52.562500,45.41,67.88
284179,2018-06-29 11:12:52.593750,51.7,67.88
284180,2018-06-29 11:12:52.625000,50.78,67.88
284181,2018-06-29 11:12:52.656250,46.4,67.88
284182,2018-06-29 11:12:52.687500,43.79,67.88
284183,2018-06-29 11:12:52.718750,43.92,67.88
284184,2018-06-29 11:12:52.750000,44.05,67.88
284185,2018-06-29 11:12:52.781250,43.43,67.88
284186,2018-06-29 11:12:52.812500,43.28,67.88
284187,2018-06-29 11:12:52.843750,41.91,67.88
284188,2018-06-29 11:12:52.875000,35.66,67.88
284189,2018-06-29 11:12:52.906250,24.76,67.88
284190,2018-06-29 11:12:52.937500,13.44,67.88
284191,2018-06-29 11:12:52.968750,4.07,67.88
284192,2018-06-29 11:12:53.000000,-5.27,67.88
284193,2018-06-29 11:12:53.031250,-16.36,67.88
284194,2018-06-29 11:12:53.062500,-27.43,67.88
284195,2018-06-29 11:12:53.093750,-36.09,67.88
284196,2018-06-29 11:12:53.125000,-43.09,67.88
284197,2018-06-29 11:12:53.156250,-52.01,67.88
