,Time,ppg,hr
288000,2018-06-29 11:14:52.000000,30.14,68.38
288001,2018-06-29 11:14:52.031250,20.09,68.38
288002,2018-06-29 11:14:52.062500,9.14,68.38
288003,2018-06-29 11:14:52.093750,-4.26,68.38
288004,2018-06-29 11:14:52.125000,-19.25,68.38
288005,2018-06-29 11:14:52.156250,-31.76,68.38
288006,2018-06-29 11:14:52.187500,-39.79,68.38
288007,2018-06-29 11:14:52.218750,-46.39,68.38
288008,2018-06-29 11:14:52.250000,-56.31,68.38
288009,2018-06-29 11:14:52.281250,-69.9,68.38
288010,2018-06-29 11:14:52.312500,-77.75,68.38
288011,2018-06-29 11:14:52.343750,-65.37,68.38
288012,2018-06-29 11:14:52.375000,-30.74,68.38
288013,2018-06-29 11:14:52.406250,9.92,68.38
288014,2018-06-29 11:14:52.437500,39.68,68.38
288015,2018-06-29 11:14:52.468750,54.19,68.38
288016,2018-06-29 11:14:52.500000,55.36,68.38
288017,2018-06-29 11:14:52.531250,46.22,68.47
288018,2018-06-29 11:14:52.562500,34.3,68.47
288019,2018-06-29 11:14:52.593750,27.75,68.47
288020,2018-06-29 11:14:52.625000,27.62,68.47
288021,2018-06-29 11:14:52.656250,29.42,68.47
288022,2018-06-29 11:14:52.687500,29.87,68.47
288023,2018-06-29 11:14:52.718750,28.09,68.47
288024,2018-06-29 11:14:52.750000,23.5,68.47
288025,2018-06-29 11:14:52.781250,15.74,68.47
288026,2018-06-29 11:14:52.812500,4.54,68.47
288027,2018-06-29 11:14:52.843750,-9.97,68.47
288028,2018-06-29 11:14:52.875000,-25.54,68.47
288029,2018-06-29 11:14:52.906250,-38.5,68.47
288030,2018-06-29 11:14:52.937500,-47.65,68.47
288031,2018-06-29 11:14:52.968750,-55.14,68.47
288032,2018-06-29 11:14:53.000000,-64.38,68.47
288033,2018-06-29 11:14:53.031250,-76.8,68.47
288034,2018-06-29 11:14:53.062500,-86.73,68.47
288035,2018-06-29 11:14:53.093750,-81.32,68.47
288036,2018-06-29 11:14:53.125000,-53.23,68.47
288037,2018-06-29 11:14:53.156250,-11.81,68.47
288038,2018-06-29 11:14:53.187500,24.96,68.47
288039,2018-06-29 11:14:53.218750,46.63,68.47
288040,2018-06-29 11:14:53.250000,52.97,68.47
288041,2018-06-29 11:14:53.281250,47.34,68.47
288042,2018-06-29 11:14:53.312500,35.65,68.47
288043,2018-06-29 11:14:53.343750,26.99,68.47
288044,2018-06-29 11:14:53.375000,26.57,68.47
288045,2018-06-29 11:14:53.406250,30.23,68.47
288046,2018-06-29 11:14:53.437500,31.07,68.47
288047,2018-06-29 11:14:53.468750,27.96,68.47
288048,2018-06-29 11:14:53.500000,23.21,68.47
288049,2018-06-29 11:14:53.531250,16.11,68.55
288050,2018-06-29 11:14:53.562500,4.01,68.55
288051,2018-06-29 11:14:53.593750,-11.78,68.55
288052,2018-06-29 11:14:53.625000,-26.5,68.55
288053,2018-06-29 11:14:53.656250,-38.03,68.55
288054,2018-06-29 11:14:53.687500,-48.41,68.55
288055,2018-06-29 11:14:53.718750,-60.53,68.55
288056,2018-06-29 11:14:53.750000,-75.11,68.55
288057,2018-06-29 11:14:53.781250,-86.0,68.55
288058,2018-06-29 11:14:53.812500,-79.23,68.55
288059,2018-06-29 11:14:53.843750,-46.75,68.55
288060,2018-06-29 11:14:53.875000,0.0,68.55
288061,2018-06-29 11:14:53.906250,40.27,68.55
288062,2018-06-29 11:14:53.937500,63.87,68.55
288063,2018-06-29 11:14:53.968750,72.57,68.55
288064,2018-06-29 11:14:54.000000,70.13,68.55
288065,2018-06-29 11:14:54.031250,60.48,68.55
288066,2018-06-29 11:14:54.062500,50.66,68.55
288067,2018-06-29 11:14:54.093750,46.67,68.55
288068,2018-06-29 11:14:54.125000,47.07,68.55
288069,2018-06-29 11:14:54.156250,45.65,68.55
288070,2018-06-29 11:14:54.187500,40.03,68.55
288071,2018-06-29 11:14:54.218750,33.06,68.55
288072,2018-06-29 11:14:54.250000,25.33,68.55
288073,2018-06-29 11:14:54.281250,12.77,68.55
288074,2018-06-29 11:14:54.312500,-5.94,68.55
288075,2018-06-29 11:14:54.343750,-25.69,68.55
288076,2018-06-29 11:14:54.375000,-41.66,68.55
288077,2018-06-29 11:14:54.406250,-54.96,68.55
288078,2018-06-29 11:14:54.437500,-69.83,68.55
288079,2018-06-29 11:14:54.468750,-88.79,68.55
288080,2018-06-29 11:14:54.500000,-107.74,68.55
288081,2018-06-29 11:14:54.531250,-112.61,68.65
288082,2018-06-29 11:14:54.562500,-89.11,68.65
288083,2018-06-29 11:14:54.593750,-40.52,68.65
288084,2018-06-29 11:14:54.625000,12.5,68.65
288085,2018-06-29 11:14:54.656250,51.83,68.65
288086,2018-06-29 11:14:54.687500,73.2,68.65
288087,2018-06-29 11:14:54.718750,79.97,68.65
288088,2018-06-29 11:14:54.750000,76.85,68.65
288089,2018-06-29 11:14:54.781250,69.86,68.65
288090,2018-06-29 11:14:54.812500,64.8,68.65
288091,2018-06-29 11:14:54.843750,63.4,68.65
288092,2018-06-29 11:14:54.875000,63.49,68.65
288093,2018-06-29 11:14:54.906250,62.79,68.65
288094,2018-06-29 11:14:54.937500,59.87,68.65
288095,2018-06-29 11:14:54.968750,52.79,68.65
288096,2018-06-29 11:14:55.000000,40.6,68.65
288097,2018-06-29 11:14:55.031250,25.56,68.65
288098,2018-06-29 11:14:55.062500,10.6,68.65
288099,2018-06-29 11:14:55.093750,-4.04,68.65
288100,2018-06-29 11:14:55.125000,-19.74,68.65
288101,2018-06-29 11:14:55.156250,-36.0,68.65
288102,2018-06-29 11:14:55.187500,-50.08,68.65
288103,2018-06-29 11:14:55.218750,-60.68,68.65
288104,2018-06-29 11:14:55.250000,-71.41,68.65
288105,2018-06-29 11:14:55.281250,-88.13,68.65
288106,2018-06-29 11:14:55.312500,-107.95,68.65
288107,2018-06-29 11:14:55.343750,-112.86,68.65
288108,2018-06-29 11:14:55.375000,-85.73,68.65
288109,2018-06-29 11:14:55.406250,-33.08,68.65
288110,2018-06-29 11:14:55.437500,20.06,68.65
288111,2018-06-29 11:14:55.468750,56.43,68.65
288112,2018-06-29 11:14:55.500000,75.49,68.65
288113,2018-06-29 11:14:55.531250,81.51,68.77
288114,2018-06-29 11:14:55.562500,78.17,68.77
288115,2018-06-29 11:14:55.593750,71.91,68.77
288116,2018-06-29 11:14:55.625000,68.94,68.77
288117,2018-06-29 11:14:55.656250,69.37,68.77
288118,2018-06-29 11:14:55.687500,69.31,68.77
288119,2018-06-29 11:14:55.718750,67.17,68.77
288120,2018-06-29 11:14:55.750000,64.09,68.77
288121,2018-06-29 11:14:55.781250,59.8,68.77
288122,2018-06-29 11:14:55.812500,51.59,68.77
288123,2018-06-29 11:14:55.843750,37.81,68.77
288124,2018-06-29 11:14:55.875000,20.69,68.77
288125,2018-06-29 11:14:55.906250,4.56,68.77
288126,2018-06-29 11:14:55.937500,-8.92,68.77
288127,2018-06-29 11:14:55.968750,-21.79,68.77
288128,2018-06-29 11:14:56.000000,-35.46,68.77
288129,2018-06-29 11:14:56.031250,-47.91,68.77
288130,2018-06-29 11:14:56.062500,-57.0,68.77
288131,2018-06-29 11:14:56.093750,-63.91,68.77
288132,2018-06-29 11:14:56.125000,-71.94,68.77
288133,2018-06-29 11:14:56.156250,-84.24,68.77
288134,2018-06-29 11:14:56.187500,-99.7,68.77
288135,2018-06-29 11:14:56.218750,-106.66,68.77
288136,2018-06-29 11:14:56.250000,-88.56,68.77
288137,2018-06-29 11:14:56.281250,-43.83,68.77
288138,2018-06-29 11:14:56.312500,8.29,68.77
288139,2018-06-29 11:14:56.343750,47.66,68.77
288140,2018-06-29 11:14:56.375000,69.02,68.77
288141,2018-06-29 11:14:56.406250,75.67,68.77
288142,2018-06-29 11:14:56.437500,71.63,68.77
288143,2018-06-29 11:14:56.468750,63.55,68.77
288144,2018-06-29 11:14:56.500000,59.13,68.77
288145,2018-06-29 11:14:56.531250,59.47,68.9
288146,2018-06-29 11:14:56.562500,59.31,68.9
288147,2018-06-29 11:14:56.593750,55.28,68.9
288148,2018-06-29 11:14:56.625000,48.88,68.9
288149,2018-06-29 11:14:56.656250,41.39,68.9
288150,2018-06-29 11:14:56.687500,31.56,68.9
288151,2018-06-29 11:14:56.718750,18.79,68.9
288152,2018-06-29 11:14:56.750000,5.2,68.9
288153,2018-06-29 11:14:56.781250,-6.46,68.9
288154,2018-06-29 11:14:56.812500,-15.9,68.9
288155,2018-06-29 11:14:56.843750,-25.24,68.9
288156,2018-06-29 11:14:56.875000,-35.91,68.9
288157,2018-06-29 11:14:56.906250,-46.19,68.9
288158,2018-06-29 11:14:56.937500,-53.71,68.9
288159,2018-06-29 11:14:56.968750,-59.66,68.9
288160,2018-06-29 11:14:57.000000,-67.99,68.9
288161,2018-06-29 11:14:57.031250,-80.79,68.9
288162,2018-06-29 11:14:57.062500,-94.03,68.9
288163,2018-06-29 11:14:57.093750,-96.14,68.9
288164,2018-06-29 11:14:57.125000,-75.98,68.9
288165,2018-06-29 11:14:57.156250,-36.44,68.9
288166,2018-06-29 11:14:57.187500,5.43,68.9
288167,2018-06-29 11:14:57.218750,34.6,68.9
288168,2018-06-29 11:14:57.250000,47.67,68.9
288169,2018-06-29 11:14:57.281250,47.58,68.9
288170,2018-06-29 11:14:57.312500,39.56,68.9
288171,2018-06-29 11:14:57.343750,31.6,68.9
288172,2018-06-29 11:14:57.375000,29.52,68.9
288173,2018-06-29 11:14:57.406250,31.64,68.9
288174,2018-06-29 11:14:57.437500,33.1,68.9
288175,2018-06-29 11:14:57.468750,32.55,68.9
288176,2018-06-29 11:14:57.500000,30.45,68.9
288177,2018-06-29 11:14:57.531250,25.24,69.03
288178,2018-06-29 11:14:57.562500,15.57,69.03
288179,2018-06-29 11:14:57.593750,3.73,69.03
288180,2018-06-29 11:14:57.625000,-6.95,69.03
288181,2018-06-29 11:14:57.656250,-16.1,69.03
288182,2018-06-29 11:14:57.687500,-25.34,69.03
288183,2018-06-29 11:14:57.718750,-34.33,69.03
288184,2018-06-29 11:14:57.750000,-41.44,69.03
288185,2018-06-29 11:14:57.781250,-47.59,69.03
288186,2018-06-29 11:14:57.812500,-56.57,69.03
288187,2018-06-29 11:14:57.843750,-70.94,69.03
288188,2018-06-29 11:14:57.875000,-85.81,69.03
288189,2018-06-29 11:14:57.906250,-87.09,69.03
288190,2018-06-29 11:14:57.937500,-63.09,69.03
288191,2018-06-29 11:14:57.968750,-19.51,69.03
288192,2018-06-29 11:14:58.000000,24.58,69.03
288193,2018-06-29 11:14:58.031250,54.73,69.03
288194,2018-06-29 11:14:58.062500,68.46,69.03
288195,2018-06-29 11:14:58.093750,69.23,69.03
288196,2018-06-29 11:14:58.125000,62.19,69.03
288197,2018-06-29 11:14:58.156250,53.99,69.03
288198,2018-06-29 11:14:58.187500,49.58,69.03
288199,2018-06-29 11:14:58.218750,48.62,69.03
288200,2018-06-29 11:14:58.250000,47.75,69.03
288201,2018-06-29 11:14:58.281250,45.49,69.03
288202,2018-06-29 11:14:58.312500,42.39,69.03
288203,2018-06-29 11:14:58.343750,37.6,69.03
288204,2018-06-29 11:14:58.375000,28.96,69.03
288205,2018-06-29 11:14:58.406250,16.83,69.03
288206,2018-06-29 11:14:58.437500,4.56,69.03
288207,2018-06-29 11:14:58.468750,-6.2,69.03
288208,2018-06-29 11:14:58.500000,-18.05,69.03
288209,2018-06-29 11:14:58.531250,-32.42,69.17
288210,2018-06-29 11:14:58.562500,-45.68,69.17
288211,2018-06-29 11:14:58.593750,-54.61,69.17
288212,2018-06-29 11:14:58.625000,-62.27,69.17
288213,2018-06-29 11:14:58.656250,-74.55,69.17
288214,2018-06-29 11:14:58.687500,-92.11,69.17
288215,2018-06-29 11:14:58.718750,-104.98,69.17
288216,2018-06-29 11:14:58.750000,-97.3,69.17
288217,2018-06-29 11:14:58.781250,-63.58,69.17
288218,2018-06-29 11:14:58.812500,-17.47,69.17
288219,2018-06-29 11:14:58.843750,21.97,69.17
288220,2018-06-29 11:14:58.875000,46.97,69.17
288221,2018-06-29 11:14:58.906250,59.19,69.17
288222,2018-06-29 11:14:58.937500,61.01,69.17
288223,2018-06-29 11:14:58.968750,56.19,69.17
288224,2018-06-29 11:14:59.000000,51.39,69.17
288225,2018-06-29 11:14:59.031250,50.68,69.17
288226,2018-06-29 11:14:59.062500,51.92,69.17
288227,2018-06-29 11:14:59.093750,51.77,69.17
288228,2018-06-29 11:14:59.125000,50.66,69.17
288229,2018-06-29 11:14:59.156250,49.35,69.17
288230,2018-06-29 11:14:59.187500,45.1,69.17
288231,2018-06-29 11:14:59.218750,35.51,69.17
288232,2018-06-29 11:14:59.250000,23.14,69.17
288233,2018-06-29 11:14:59.281250,12.25,69.17
288234,2018-06-29 11:14:59.312500,3.38,69.17
288235,2018-06-29 11:14:59.343750,-6.35,69.17
288236,2018-06-29 11:14:59.375000,-18.52,69.17
288237,2018-06-29 11:14:59.406250,-31.15,69.17
288238,2018-06-29 11:14:59.437500,-41.38,69.17
288239,2018-06-29 11:14:59.468750,-49.64,69.17
288240,2018-06-29 11:14:59.500000,-59.58,69.17
288241,2018-06-29 11:14:59.531250,-74.29,69.28
288242,2018-06-29 11:14:59.562500,-91.0,69.28
288243,2018-06-29 11:14:59.593750,-97.89,69.28
288244,2018-06-29 11:14:59.625000,-81.52,69.28
288245,2018-06-29 11:14:59.656250,-42.35,69.28
288246,2018-06-29 11:14:59.687500,2.91,69.28
288247,2018-06-29 11:14:59.718750,37.4,69.28
288248,2018-06-29 11:14:59.750000,56.42,69.28
288249,2018-06-29 11:14:59.781250,63.05,69.28
288250,2018-06-29 11:14:59.812500,61.09,69.28
288251,2018-06-29 11:14:59.843750,54.98,69.28
288252,2018-06-29 11:14:59.875000,50.19,69.28
288253,2018-06-29 11:14:59.906250,49.6,69.28
288254,2018-06-29 11:14:59.937500,51.19,69.28
288255,2018-06-29 11:14:59.968750,51.42,69.28
288256,2018-06-29 11:15:00.000000,49.17,69.28
288257,2018-06-29 11:15:00.031250,44.98,69.28
288258,2018-06-29 11:15:00.062500,38.34,69.28
288259,2018-06-29 11:15:00.093750,28.09,69.28
288260,2018-06-29 11:15:00.125000,15.46,69.28
288261,2018-06-29 11:15:00.156250,4.28,69.28
288262,2018-06-29 11:15:00.187500,-3.89,69.28
288263,2018-06-29 11:15:00.218750,-12.09,69.28
288264,2018-06-29 11:15:00.250000,-23.15,69.28
288265,2018-06-29 11:15:00.281250,-35.45,69.28
288266,2018-06-29 11:15:00.312500,-45.77,69.28
288267,2018-06-29 11:15:00.343750,-53.42,69.28
288268,2018-06-29 11:15:00.375000,-60.7,69.28
288269,2018-06-29 11:15:00.406250,-70.69,69.28
288270,2018-06-29 11:15:00.437500,-83.86,69.28
288271,2018-06-29 11:15:00.468750,-93.11,69.28
288272,2018-06-29 11:15:00.500000,-85.48,69.28
288273,2018-06-29 11:15:00.531250,-55.46,69.4
288274,2018-06-29 11:15:00.562500,-14.29,69.4
288275,2018-06-29 11:15:00.593750,20.41,69.4
288276,2018-06-29 11:15:00.625000,40.72,69.4
288277,2018-06-29 11:15:00.656250,48.33,69.4
288278,2018-06-29 11:15:00.687500,46.12,69.4
288279,2018-06-29 11:15:00.718750,38.09,69.4
288280,2018-06-29 11:15:00.750000,31.76,69.4
288281,2018-06-29 11:15:00.781250,31.82,69.4
288282,2018-06-29 11:15:00.812500,35.06,69.4
288283,2018-06-29 11:15:00.843750,36.43,69.4
288284,2018-06-29 11:15:00.875000,35.61,69.4
288285,2018-06-29 11:15:00.906250,33.69,69.4
288286,2018-06-29 11:15:00.937500,28.77,69.4
288287,2018-06-29 11:15:00.968750,19.17,69.4
288288,2018-06-29 11:15:01.000000,7.77,69.4
288289,2018-06-29 11:15:01.031250,-1.22,69.4
288290,2018-06-29 11:15:01.062500,-8.37,69.4
288291,2018-06-29 11:15:01.093750,-17.74,69.4
288292,2018-06-29 11:15:01.125000,-30.03,69.4
288293,2018-06-29 11:15:01.156250,-41.48,69.4
288294,2018-06-29 11:15:01.187500,-50.09,69.4
288295,2018-06-29 11:15:01.218750,-57.8,69.4
288296,2018-06-29 11:15:01.250000,-67.89,69.4
288297,2018-06-29 11:15:01.281250,-81.83,69.4
288298,2018-06-29 11:15:01.312500,-93.96,69.4
288299,2018-06-29 11:15:01.343750,-90.59,69.4
288300,2018-06-29 11:15:01.375000,-63.69,69.4
288301,2018-06-29 11:15:01.406250,-23.08,69.4
288302,2018-06-29 11:15:01.437500,13.25,69.4
288303,2018-06-29 11:15:01.468750,36.39,69.4
288304,2018-06-29 11:15:01.500000,47.4,69.4
288305,2018-06-29 11:15:01.531250,48.66,69.47
288306,2018-06-29 11:15:01.562500,43.22,69.47
288307,2018-06-29 11:15:01.593750,37.59,69.47
288308,2018-06-29 11:15:01.625000,36.88,69.47
288309,2018-06-29 11:15:01.656250,39.33,69.47
288310,2018-06-29 11:15:01.687500,40.68,69.47
288311,2018-06-29 11:15:01.718750,40.67,69.47
288312,2018-06-29 11:15:01.750000,40.56,69.47
288313,2018-06-29 11:15:01.781250,38.04,69.47
288314,2018-06-29 11:15:01.812500,29.75,69.47
288315,2018-06-29 11:15:01.843750,17.25,69.47
288316,2018-06-29 11:15:01.875000,5.83,69.47
288317,2018-06-29 11:15:01.906250,-2.8,69.47
288318,2018-06-29 11:15:01.937500,-12.46,69.47
288319,2018-06-29 11:15:01.968750,-25.61,69.47
288320,2018-06-29 11:15:02.000000,-39.12,69.47
288321,2018-06-29 11:15:02.031250,-48.87,69.47
288322,2018-06-29 11:15:02.062500,-55.48,69.47
288323,2018-06-29 11:15:02.093750,-63.63,69.47
288324,2018-06-29 11:15:02.125000,-76.56,69.47
288325,2018-06-29 11:15:02.156250,-89.08,69.47
288326,2018-06-29 11:15:02.187500,-87.14,69.47
288327,2018-06-29 11:15:02.218750,-60.86,69.47
288328,2018-06-29 11:15:02.250000,-17.83,69.47
288329,2018-06-29 11:15:02.281250,23.03,69.47
288330,2018-06-29 11:15:02.312500,49.08,69.47
288331,2018-06-29 11:15:02.343750,59.49,69.47
288332,2018-06-29 11:15:02.375000,58.45,69.47
288333,2018-06-29 11:15:02.406250,51.37,69.47
288334,2018-06-29 11:15:02.437500,44.75,69.47
288335,2018-06-29 11:15:02.468750,43.4,69.47
288336,2018-06-29 11:15:02.500000,46.76,69.47
288337,2018-06-29 11:15:02.531250,50.3,69.52
288338,2018-06-29 11:15:02.562500,51.15,69.52
288339,2018-06-29 11:15:02.593750,50.4,69.52
288340,2018-06-29 11:15:02.625000,48.57,69.52
288341,2018-06-29 11:15:02.656250,43.04,69.52
288342,2018-06-29 11:15:02.687500,32.79,69.52
288343,2018-06-29 11:15:02.718750,21.66,69.52
288344,2018-06-29 11:15:02.750000,13.66,69.52
288345,2018-06-29 11:15:02.781250,7.83,69.52
288346,2018-06-29 11:15:02.812500,0.51,69.52
288347,2018-06-29 11:15:02.843750,-9.28,69.52
288348,2018-06-29 11:15:02.875000,-19.07,69.52
288349,2018-06-29 11:15:02.906250,-27.27,69.52
288350,2018-06-29 11:15:02.937500,-36.08,69.52
288351,2018-06-29 11:15:02.968750,-49.08,69.52
288352,2018-06-29 11:15:03.000000,-66.69,69.52
288353,2018-06-29 11:15:03.031250,-81.64,69.52
288354,2018-06-29 11:15:03.062500,-80.45,69.52
288355,2018-06-29 11:15:03.093750,-55.92,69.52
288356,2018-06-29 11:15:03.125000,-17.73,69.52
288357,2018-06-29 11:15:03.156250,16.3,69.52
288358,2018-06-29 11:15:03.187500,36.68,69.52
288359,2018-06-29 11:15:03.218750,44.12,69.52
288360,2018-06-29 11:15:03.250000,41.73,69.52
288361,2018-06-29 11:15:03.281250,33.47,69.52
288362,2018-06-29 11:15:03.312500,25.69,69.52
288363,2018-06-29 11:15:03.343750,22.74,69.52
288364,2018-06-29 11:15:03.375000,23.03,69.52
288365,2018-06-29 11:15:03.406250,23.11,69.52
288366,2018-06-29 11:15:03.437500,22.64,69.52
288367,2018-06-29 11:15:03.468750,22.09,69.52
288368,2018-06-29 11:15:03.500000,19.03,69.52
288369,2018-06-29 11:15:03.531250,11.08,69.55
288370,2018-06-29 11:15:03.562500,0.13,69.55
288371,2018-06-29 11:15:03.593750,-9.46,69.55
288372,2018-06-29 11:15:03.625000,-16.0,69.55
288373,2018-06-29 11:15:03.656250,-22.21,69.55
288374,2018-06-29 11:15:03.687500,-30.8,69.55
288375,2018-06-29 11:15:03.718750,-39.77,69.55
288376,2018-06-29 11:15:03.750000,-44.96,69.55
288377,2018-06-29 11:15:03.781250,-46.67,69.55
288378,2018-06-29 11:15:03.812500,-49.97,69.55
288379,2018-06-29 11:15:03.843750,-58.69,69.55
288380,2018-06-29 11:15:03.875000,-69.81,69.55
288381,2018-06-29 11:15:03.906250,-72.23,69.55
288382,2018-06-29 11:15:03.937500,-54.97,69.55
288383,2018-06-29 11:15:03.968750,-20.35,69.55
288384,2018-06-29 11:15:04.000000,16.14,69.55
288385,2018-06-29 11:15:04.031250,41.6,69.55
288386,2018-06-29 11:15:04.062500,53.97,69.55
288387,2018-06-29 11:15:04.093750,55.51,69.55
288388,2018-06-29 11:15:04.125000,48.93,69.55
288389,2018-06-29 11:15:04.156250,40.72,69.55
288390,2018-06-29 11:15:04.187500,38.09,69.55
288391,2018-06-29 11:15:04.218750,41.35,69.55
288392,2018-06-29 11:15:04.250000,44.98,69.55
288393,2018-06-29 11:15:04.281250,45.73,69.55
288394,2018-06-29 11:15:04.312500,44.49,69.55
288395,2018-06-29 11:15:04.343750,41.13,69.55
288396,2018-06-29 11:15:04.375000,33.33,69.55
288397,2018-06-29 11:15:04.406250,21.45,69.55
288398,2018-06-29 11:15:04.437500,9.78,69.55
288399,2018-06-29 11:15:04.468750,1.05,69.55
288400,2018-06-29 11:15:04.500000,-7.11,69.55
288401,2018-06-29 11:15:04.531250,-17.98,69.57
288402,2018-06-29 11:15:04.562500,-30.83,69.57
288403,2018-06-29 11:15:04.593750,-42.24,69.57
288404,2018-06-29 11:15:04.625000,-50.79,69.57
288405,2018-06-29 11:15:04.656250,-59.2,69.57
288406,2018-06-29 11:15:04.687500,-71.83,69.57
288407,2018-06-29 11:15:04.718750,-87.73,69.57
288408,2018-06-29 11:15:04.750000,-95.84,69.57
288409,2018-06-29 11:15:04.781250,-82.65,69.57
288410,2018-06-29 11:15:04.812500,-47.77,69.57
288411,2018-06-29 11:15:04.843750,-6.07,69.57
288412,2018-06-29 11:15:04.875000,27.27,69.57
288413,2018-06-29 11:15:04.906250,47.2,69.57
288414,2018-06-29 11:15:04.937500,54.91,69.57
288415,2018-06-29 11:15:04.968750,53.26,69.57
288416,2018-06-29 11:15:05.000000,47.57,69.57
288417,2018-06-29 11:15:05.031250,44.14,69.57
288418,2018-06-29 11:15:05.062500,45.16,69.57
288419,2018-06-29 11:15:05.093750,47.41,69.57
288420,2018-06-29 11:15:05.125000,47.39,69.57
288421,2018-06-29 11:15:05.156250,45.49,69.57
288422,2018-06-29 11:15:05.187500,43.03,69.57
288423,2018-06-29 11:15:05.218750,38.12,69.57
288424,2018-06-29 11:15:05.250000,28.5,69.57
288425,2018-06-29 11:15:05.281250,16.43,69.57
288426,2018-06-29 11:15:05.312500,6.46,69.57
288427,2018-06-29 11:15:05.343750,-0.97,69.57
288428,2018-06-29 11:15:05.375000,-9.48,69.57
288429,2018-06-29 11:15:05.406250,-20.65,69.57
288430,2018-06-29 11:15:05.437500,-31.73,69.57
288431,2018-06-29 11:15:05.468750,-40.29,69.57
288432,2018-06-29 11:15:05.500000,-47.84,69.57
288433,2018-06-29 11:15:05.531250,-57.82,69.58
288434,2018-06-29 11:15:05.562500,-72.05,69.58
288435,2018-06-29 11:15:05.593750,-87.46,69.58
288436,2018-06-29 11:15:05.625000,-93.01,69.58
288437,2018-06-29 11:15:05.656250,-76.34,69.58
288438,2018-06-29 11:15:05.687500,-38.88,69.58
288439,2018-06-29 11:15:05.718750,2.59,69.58
288440,2018-06-29 11:15:05.750000,32.97,69.58
288441,2018-06-29 11:15:05.781250,49.17,69.58
288442,2018-06-29 11:15:05.812500,53.91,69.58
288443,2018-06-29 11:15:05.843750,50.62,69.58
288444,2018-06-29 11:15:05.875000,45.2,69.58
288445,2018-06-29 11:15:05.906250,43.76,69.58
288446,2018-06-29 11:15:05.937500,46.7,69.58
288447,2018-06-29 11:15:05.968750,49.5,69.58
288448,2018-06-29 11:15:06.000000,49.52,69.58
288449,2018-06-29 11:15:06.031250,47.91,69.58
288450,2018-06-29 11:15:06.062500,45.31,69.58
288451,2018-06-29 11:15:06.093750,39.97,69.58
288452,2018-06-29 11:15:06.125000,31.04,69.58
288453,2018-06-29 11:15:06.156250,20.48,69.58
288454,2018-06-29 11:15:06.187500,10.99,69.58
288455,2018-06-29 11:15:06.218750,3.42,69.58
288456,2018-06-29 11:15:06.250000,-3.52,69.58
288457,2018-06-29 11:15:06.281250,-11.48,69.58
288458,2018-06-29 11:15:06.312500,-20.54,69.58
288459,2018-06-29 11:15:06.343750,-29.48,69.58
288460,2018-06-29 11:15:06.375000,-37.99,69.58
288461,2018-06-29 11:15:06.406250,-48.04,69.58
288462,2018-06-29 11:15:06.437500,-61.85,69.58
288463,2018-06-29 11:15:06.468750,-77.64,69.58
288464,2018-06-29 11:15:06.500000,-85.99,69.58
288465,2018-06-29 11:15:06.531250,-75.11,69.62
288466,2018-06-29 11:15:06.562500,-43.84,69.62
288467,2018-06-29 11:15:06.593750,-5.77,69.62
288468,2018-06-29 11:15:06.625000,23.38,69.62
288469,2018-06-29 11:15:06.656250,37.83,69.62
288470,2018-06-29 11:15:06.687500,40.13,69.62
288471,2018-06-29 11:15:06.718750,35.11,69.62
288472,2018-06-29 11:15:06.750000,28.64,69.62
288473,2018-06-29 11:15:06.781250,26.17,69.62
288474,2018-06-29 11:15:06.812500,29.11,69.62
288475,2018-06-29 11:15:06.843750,33.97,69.62
288476,2018-06-29 11:15:06.875000,36.74,69.62
288477,2018-06-29 11:15:06.906250,36.64,69.62
288478,2018-06-29 11:15:06.937500,34.26,69.62
288479,2018-06-29 11:15:06.968750,28.66,69.62
288480,2018-06-29 11:15:07.000000,19.37,69.62
288481,2018-06-29 11:15:07.031250,9.11,69.62
288482,2018-06-29 11:15:07.062500,0.5,69.62
288483,2018-06-29 11:15:07.093750,-7.71,69.62
288484,2018-06-29 11:15:07.125000,-17.47,69.62
288485,2018-06-29 11:15:07.156250,-27.22,69.62
288486,2018-06-29 11:15:07.187500,-34.35,69.62
288487,2018-06-29 11:15:07.218750,-39.93,69.62
288488,2018-06-29 11:15:07.250000,-48.17,69.62
288489,2018-06-29 11:15:07.281250,-61.22,69.62
288490,2018-06-29 11:15:07.312500,-74.05,69.62
288491,2018-06-29 11:15:07.343750,-75.15,69.62
288492,2018-06-29 11:15:07.375000,-56.1,69.62
288493,2018-06-29 11:15:07.406250,-21.54,69.62
288494,2018-06-29 11:15:07.437500,13.97,69.62
288495,2018-06-29 11:15:07.468750,38.48,69.62
288496,2018-06-29 11:15:07.500000,49.29,69.62
288497,2018-06-29 11:15:07.531250,49.66,69.67
288498,2018-06-29 11:15:07.562500,44.29,69.67
288499,2018-06-29 11:15:07.593750,38.24,69.67
288500,2018-06-29 11:15:07.625000,35.42,69.67
288501,2018-06-29 11:15:07.656250,36.17,69.67
288502,2018-06-29 11:15:07.687500,37.87,69.67
288503,2018-06-29 11:15:07.718750,38.6,69.67
288504,2018-06-29 11:15:07.750000,37.55,69.67
288505,2018-06-29 11:15:07.781250,33.03,69.67
288506,2018-06-29 11:15:07.812500,23.98,69.67
288507,2018-06-29 11:15:07.843750,12.64,69.67
288508,2018-06-29 11:15:07.875000,2.1,69.67
288509,2018-06-29 11:15:07.906250,-8.08,69.67
288510,2018-06-29 11:15:07.937500,-20.18,69.67
288511,2018-06-29 11:15:07.968750,-33.22,69.67
288512,2018-06-29 11:15:08.000000,-43.91,69.67
288513,2018-06-29 11:15:08.031250,-51.62,69.67
288514,2018-06-29 11:15:08.062500,-60.0,69.67
288515,2018-06-29 11:15:08.093750,-72.88,69.67
288516,2018-06-29 11:15:08.125000,-87.62,69.67
288517,2018-06-29 11:15:08.156250,-92.27,69.67
288518,2018-06-29 11:15:08.187500,-74.72,69.67
288519,2018-06-29 11:15:08.218750,-37.17,69.67
288520,2018-06-29 11:15:08.250000,4.18,69.67
288521,2018-06-29 11:15:08.281250,34.73,69.67
288522,2018-06-29 11:15:08.312500,51.04,69.67
288523,2018-06-29 11:15:08.343750,56.38,69.67
288524,2018-06-29 11:15:08.375000,54.86,69.67
288525,2018-06-29 11:15:08.406250,50.73,69.67
288526,2018-06-29 11:15:08.437500,47.88,69.67
288527,2018-06-29 11:15:08.468750,47.49,69.67
288528,2018-06-29 11:15:08.500000,47.96,69.67
288529,2018-06-29 11:15:08.531250,47.98,69.73
288530,2018-06-29 11:15:08.562500,47.16,69.73
288531,2018-06-29 11:15:08.593750,43.82,69.73
288532,2018-06-29 11:15:08.625000,35.88,69.73
288533,2018-06-29 11:15:08.656250,24.52,69.73
288534,2018-06-29 11:15:08.687500,13.03,69.73
288535,2018-06-29 11:15:08.718750,2.36,69.73
288536,2018-06-29 11:15:08.750000,-9.19,69.73
288537,2018-06-29 11:15:08.781250,-22.19,69.73
288538,2018-06-29 11:15:08.812500,-34.31,69.73
288539,2018-06-29 11:15:08.843750,-43.4,69.73
288540,2018-06-29 11:15:08.875000,-51.2,69.73
288541,2018-06-29 11:15:08.906250,-62.47,69.73
288542,2018-06-29 11:15:08.937500,-77.75,69.73
288543,2018-06-29 11:15:08.968750,-86.95,69.73
288544,2018-06-29 11:15:09.000000,-75.57,69.73
288545,2018-06-29 11:15:09.031250,-41.31,69.73
288546,2018-06-29 11:15:09.062500,1.03,69.73
288547,2018-06-29 11:15:09.093750,34.28,69.73
288548,2018-06-29 11:15:09.125000,52.61,69.73
288549,2018-06-29 11:15:09.156250,58.6,69.73
288550,2018-06-29 11:15:09.187500,55.93,69.73
288551,2018-06-29 11:15:09.218750,49.68,69.73
288552,2018-06-29 11:15:09.250000,46.04,69.73
288553,2018-06-29 11:15:09.281250,47.02,69.73
288554,2018-06-29 11:15:09.312500,49.21,69.73
288555,2018-06-29 11:15:09.343750,49.94,69.73
288556,2018-06-29 11:15:09.375000,49.83,69.73
288557,2018-06-29 11:15:09.406250,48.23,69.73
288558,2018-06-29 11:15:09.437500,41.95,69.73
288559,2018-06-29 11:15:09.468750,30.4,69.73
288560,2018-06-29 11:15:09.500000,17.79,69.73
288561,2018-06-29 11:15:09.531250,7.73,69.8
288562,2018-06-29 11:15:09.562500,-1.35,69.8
288563,2018-06-29 11:15:09.593750,-12.93,69.8
288564,2018-06-29 11:15:09.625000,-26.19,69.8
288565,2018-06-29 11:15:09.656250,-36.88,69.8
288566,2018-06-29 11:15:09.687500,-43.79,69.8
288567,2018-06-29 11:15:09.718750,-50.59,69.8
288568,2018-06-29 11:15:09.750000,-61.39,69.8
288569,2018-06-29 11:15:09.781250,-75.73,69.8
288570,2018-06-29 11:15:09.812500,-84.9,69.8
288571,2018-06-29 11:15:09.843750,-75.85,69.8
288572,2018-06-29 11:15:09.875000,-45.12,69.8
288573,2018-06-29 11:15:09.906250,-5.59,69.8
288574,2018-06-29 11:15:09.937500,26.02,69.8
288575,2018-06-29 11:15:09.968750,43.09,69.8
288576,2018-06-29 11:15:10.000000,47.12,69.8
288577,2018-06-29 11:15:10.031250,41.74,69.8
288578,2018-06-29 11:15:10.062500,33.37,69.8
288579,2018-06-29 11:15:10.093750,29.33,69.8
288580,2018-06-29 11:15:10.125000,31.13,69.8
288581,2018-06-29 11:15:10.156250,34.66,69.8
288582,2018-06-29 11:15:10.187500,37.21,69.8
288583,2018-06-29 11:15:10.218750,39.02,69.8
288584,2018-06-29 11:15:10.250000,38.88,69.8
288585,2018-06-29 11:15:10.281250,34.21,69.8
288586,2018-06-29 11:15:10.312500,25.54,69.8
288587,2018-06-29 11:15:10.343750,16.67,69.8
288588,2018-06-29 11:15:10.375000,9.99,69.8
288589,2018-06-29 11:15:10.406250,4.08,69.8
288590,2018-06-29 11:15:10.437500,-3.22,69.8
288591,2018-06-29 11:15:10.468750,-11.21,69.8
288592,2018-06-29 11:15:10.500000,-17.4,69.8
288593,2018-06-29 11:15:10.531250,-21.23,69.9
288594,2018-06-29 11:15:10.562500,-24.95,69.9
288595,2018-06-29 11:15:10.593750,-31.31,69.9
288596,2018-06-29 11:15:10.625000,-38.91,69.9
288597,2018-06-29 11:15:10.656250,-37.77,69.9
288598,2018-06-29 11:15:10.687500,-16.38,69.9
288599,2018-06-29 11:15:10.718750,23.2,69.9
288600,2018-06-29 11:15:10.750000,65.34,69.9
288601,2018-06-29 11:15:10.781250,96.94,69.9
288602,2018-06-29 11:15:10.812500,111.43,69.9
288603,2018-06-29 11:15:10.843750,101.26,69.9
288604,2018-06-29 11:15:10.875000,64.72,69.9
288605,2018-06-29 11:15:10.906250,17.76,69.9
288606,2018-06-29 11:15:10.937500,-17.52,69.9
288607,2018-06-29 11:15:10.968750,-32.82,69.9
288608,2018-06-29 11:15:11.000000,-34.33,69.9
288609,2018-06-29 11:15:11.031250,-32.57,69.9
288610,2018-06-29 11:15:11.062500,-38.88,69.9
288611,2018-06-29 11:15:11.093750,-58.08,69.9
288612,2018-06-29 11:15:11.125000,-77.71,69.9
288613,2018-06-29 11:15:11.156250,-77.94,69.9
288614,2018-06-29 11:15:11.187500,-57.26,69.9
288615,2018-06-29 11:15:11.218750,-35.24,69.9
288616,2018-06-29 11:15:11.250000,-27.34,69.9
288617,2018-06-29 11:15:11.281250,-30.22,69.9
288618,2018-06-29 11:15:11.312500,-33.97,69.9
288619,2018-06-29 11:15:11.343750,-35.75,69.9
288620,2018-06-29 11:15:11.375000,-37.95,69.9
288621,2018-06-29 11:15:11.406250,-43.36,69.9
288622,2018-06-29 11:15:11.437500,-55.1,69.9
288623,2018-06-29 11:15:11.468750,-71.47,69.9
288624,2018-06-29 11:15:11.500000,-79.27,69.9
288625,2018-06-29 11:15:11.531250,-63.91,70.0
288626,2018-06-29 11:15:11.562500,-28.23,70.0
288627,2018-06-29 11:15:11.593750,8.98,70.0
288628,2018-06-29 11:15:11.625000,33.11,70.0
288629,2018-06-29 11:15:11.656250,43.39,70.0
288630,2018-06-29 11:15:11.687500,45.68,70.0
288631,2018-06-29 11:15:11.718750,44.97,70.0
288632,2018-06-29 11:15:11.750000,44.41,70.0
288633,2018-06-29 11:15:11.781250,45.73,70.0
288634,2018-06-29 11:15:11.812500,49.18,70.0
288635,2018-06-29 11:15:11.843750,55.23,70.0
288636,2018-06-29 11:15:11.875000,64.83,70.0
288637,2018-06-29 11:15:11.906250,75.68,70.0
288638,2018-06-29 11:15:11.937500,82.73,70.0
288639,2018-06-29 11:15:11.968750,86.59,70.0
288640,2018-06-29 11:15:12.000000,95.37,70.0
288641,2018-06-29 11:15:12.031250,111.8,70.0
288642,2018-06-29 11:15:12.062500,127.43,70.0
288643,2018-06-29 11:15:12.093750,137.83,70.0
288644,2018-06-29 11:15:12.125000,151.95,70.0
288645,2018-06-29 11:15:12.156250,176.3,70.0
288646,2018-06-29 11:15:12.187500,201.5,70.0
288647,2018-06-29 11:15:12.218750,211.44,70.0
288648,2018-06-29 11:15:12.250000,194.86,70.0
288649,2018-06-29 11:15:12.281250,155.88,70.0
288650,2018-06-29 11:15:12.312500,120.22,70.0
288651,2018-06-29 11:15:12.343750,106.04,70.0
288652,2018-06-29 11:15:12.375000,94.17,70.0
288653,2018-06-29 11:15:12.406250,60.08,70.0
288654,2018-06-29 11:15:12.437500,11.41,70.0
288655,2018-06-29 11:15:12.468750,-39.36,70.0
288656,2018-06-29 11:15:12.500000,-102.87,70.0
288657,2018-06-29 11:15:12.531250,-187.27,70.07
288658,2018-06-29 11:15:12.562500,-269.42,70.07
288659,2018-06-29 11:15:12.593750,-306.17,70.07
288660,2018-06-29 11:15:12.625000,-275.21,70.07
288661,2018-06-29 11:15:12.656250,-197.72,70.07
288662,2018-06-29 11:15:12.687500,-103.33,70.07
288663,2018-06-29 11:15:12.718750,0.47,70.07
288664,2018-06-29 11:15:12.750000,96.77,70.07
288665,2018-06-29 11:15:12.781250,142.45,70.07
288666,2018-06-29 11:15:12.812500,117.96,70.07
288667,2018-06-29 11:15:12.843750,54.31,70.07
288668,2018-06-29 11:15:12.875000,-8.27,70.07
288669,2018-06-29 11:15:12.906250,-59.26,70.07
288670,2018-06-29 11:15:12.937500,-110.4,70.07
288671,2018-06-29 11:15:12.968750,-169.03,70.07
288672,2018-06-29 11:15:13.000000,-226.71,70.07
288673,2018-06-29 11:15:13.031250,-270.81,70.07
288674,2018-06-29 11:15:13.062500,-297.54,70.07
288675,2018-06-29 11:15:13.093750,-305.24,70.07
288676,2018-06-29 11:15:13.125000,-283.25,70.07
288677,2018-06-29 11:15:13.156250,-222.99,70.07
288678,2018-06-29 11:15:13.187500,-136.88,70.07
288679,2018-06-29 11:15:13.218750,-50.04,70.07
288680,2018-06-29 11:15:13.250000,24.15,70.07
288681,2018-06-29 11:15:13.281250,85.14,70.07
288682,2018-06-29 11:15:13.312500,129.57,70.07
288683,2018-06-29 11:15:13.343750,155.75,70.07
288684,2018-06-29 11:15:13.375000,177.98,70.07
288685,2018-06-29 11:15:13.406250,213.92,70.07
288686,2018-06-29 11:15:13.437500,257.76,70.07
288687,2018-06-29 11:15:13.468750,281.13,70.07
288688,2018-06-29 11:15:13.500000,266.02,70.07
288689,2018-06-29 11:15:13.531250,226.96,70.17
288690,2018-06-29 11:15:13.562500,192.03,70.17
288691,2018-06-29 11:15:13.593750,168.51,70.17
288692,2018-06-29 11:15:13.625000,138.64,70.17
288693,2018-06-29 11:15:13.656250,86.72,70.17
288694,2018-06-29 11:15:13.687500,18.55,70.17
288695,2018-06-29 11:15:13.718750,-45.77,70.17
288696,2018-06-29 11:15:13.750000,-91.45,70.17
288697,2018-06-29 11:15:13.781250,-119.93,70.17
288698,2018-06-29 11:15:13.812500,-143.24,70.17
288699,2018-06-29 11:15:13.843750,-168.26,70.17
288700,2018-06-29 11:15:13.875000,-183.99,70.17
288701,2018-06-29 11:15:13.906250,-169.73,70.17
288702,2018-06-29 11:15:13.937500,-121.71,70.17
288703,2018-06-29 11:15:13.968750,-63.26,70.17
288704,2018-06-29 11:15:14.000000,-21.11,70.17
288705,2018-06-29 11:15:14.031250,-3.16,70.17
288706,2018-06-29 11:15:14.062500,-4.99,70.17
288707,2018-06-29 11:15:14.093750,-22.29,70.17
288708,2018-06-29 11:15:14.125000,-48.05,70.17
288709,2018-06-29 11:15:14.156250,-69.81,70.17
288710,2018-06-29 11:15:14.187500,-78.5,70.17
288711,2018-06-29 11:15:14.218750,-76.81,70.17
288712,2018-06-29 11:15:14.250000,-74.95,70.17
288713,2018-06-29 11:15:14.281250,-79.32,70.17
288714,2018-06-29 11:15:14.312500,-88.45,70.17
288715,2018-06-29 11:15:14.343750,-100.93,70.17
288716,2018-06-29 11:15:14.375000,-122.29,70.17
288717,2018-06-29 11:15:14.406250,-159.55,70.17
288718,2018-06-29 11:15:14.437500,-211.32,70.17
288719,2018-06-29 11:15:14.468750,-263.71,70.17
288720,2018-06-29 11:15:14.500000,-293.78,70.17
288721,2018-06-29 11:15:14.531250,-290.04,70.28
288722,2018-06-29 11:15:14.562500,-274.29,70.28
288723,2018-06-29 11:15:14.593750,-284.22,70.28
288724,2018-06-29 11:15:14.625000,-330.97,70.28
288725,2018-06-29 11:15:14.656250,-389.08,70.28
288726,2018-06-29 11:15:14.687500,-421.34,70.28
288727,2018-06-29 11:15:14.718750,-404.04,70.28
288728,2018-06-29 11:15:14.750000,-341.61,70.28
288729,2018-06-29 11:15:14.781250,-262.67,70.28
288730,2018-06-29 11:15:14.812500,-193.76,70.28
288731,2018-06-29 11:15:14.843750,-140.0,70.28
288732,2018-06-29 11:15:14.875000,-91.94,70.28
288733,2018-06-29 11:15:14.906250,-41.08,70.28
288734,2018-06-29 11:15:14.937500,13.23,70.28
288735,2018-06-29 11:15:14.968750,66.21,70.28
288736,2018-06-29 11:15:15.000000,114.41,70.28
288737,2018-06-29 11:15:15.031250,159.79,70.28
288738,2018-06-29 11:15:15.062500,207.32,70.28
288739,2018-06-29 11:15:15.093750,256.77,70.28
288740,2018-06-29 11:15:15.125000,295.52,70.28
288741,2018-06-29 11:15:15.156250,307.73,70.28
288742,2018-06-29 11:15:15.187500,293.1,70.28
288743,2018-06-29 11:15:15.218750,265.95,70.28
288744,2018-06-29 11:15:15.250000,234.09,70.28
288745,2018-06-29 11:15:15.281250,192.45,70.28
288746,2018-06-29 11:15:15.312500,140.02,70.28
288747,2018-06-29 11:15:15.343750,86.39,70.28
288748,2018-06-29 11:15:15.375000,38.33,70.28
288749,2018-06-29 11:15:15.406250,-5.25,70.28
288750,2018-06-29 11:15:15.437500,-44.13,70.28
288751,2018-06-29 11:15:15.468750,-76.72,70.28
288752,2018-06-29 11:15:15.500000,-103.68,70.28
288753,2018-06-29 11:15:15.531250,-117.01,70.43
288754,2018-06-29 11:15:15.562500,-99.29,70.43
288755,2018-06-29 11:15:15.593750,-47.52,70.43
288756,2018-06-29 11:15:15.625000,19.83,70.43
288757,2018-06-29 11:15:15.656250,85.15,70.43
288758,2018-06-29 11:15:15.687500,141.51,70.43
288759,2018-06-29 11:15:15.718750,183.24,70.43
288760,2018-06-29 11:15:15.750000,206.41,70.43
288761,2018-06-29 11:15:15.781250,215.85,70.43
288762,2018-06-29 11:15:15.812500,219.94,70.43
288763,2018-06-29 11:15:15.843750,222.15,70.43
288764,2018-06-29 11:15:15.875000,221.52,70.43
288765,2018-06-29 11:15:15.906250,217.71,70.43
288766,2018-06-29 11:15:15.937500,211.17,70.43
288767,2018-06-29 11:15:15.968750,199.85,70.43
288768,2018-06-29 11:15:16.000000,180.51,70.43
288769,2018-06-29 11:15:16.031250,153.97,70.43
288770,2018-06-29 11:15:16.062500,125.05,70.43
288771,2018-06-29 11:15:16.093750,98.06,70.43
288772,2018-06-29 11:15:16.125000,74.91,70.43
288773,2018-06-29 11:15:16.156250,55.05,70.43
288774,2018-06-29 11:15:16.187500,35.38,70.43
288775,2018-06-29 11:15:16.218750,13.75,70.43
288776,2018-06-29 11:15:16.250000,-7.55,70.43
288777,2018-06-29 11:15:16.281250,-24.86,70.43
288778,2018-06-29 11:15:16.312500,-38.91,70.43
288779,2018-06-29 11:15:16.343750,-54.73,70.43
288780,2018-06-29 11:15:16.375000,-75.56,70.43
288781,2018-06-29 11:15:16.406250,-94.29,70.43
288782,2018-06-29 11:15:16.437500,-92.82,70.43
288783,2018-06-29 11:15:16.468750,-58.59,70.43
288784,2018-06-29 11:15:16.500000,-2.06,70.43
288785,2018-06-29 11:15:16.531250,51.17,70.57
288786,2018-06-29 11:15:16.562500,84.31,70.57
288787,2018-06-29 11:15:16.593750,97.28,70.57
288788,2018-06-29 11:15:16.625000,96.21,70.57
288789,2018-06-29 11:15:16.656250,86.87,70.57
288790,2018-06-29 11:15:16.687500,76.5,70.57
288791,2018-06-29 11:15:16.718750,72.16,70.57
288792,2018-06-29 11:15:16.750000,74.18,70.57
288793,2018-06-29 11:15:16.781250,76.76,70.57
288794,2018-06-29 11:15:16.812500,76.6,70.57
288795,2018-06-29 11:15:16.843750,74.73,70.57
288796,2018-06-29 11:15:16.875000,69.82,70.57
288797,2018-06-29 11:15:16.906250,58.06,70.57
288798,2018-06-29 11:15:16.937500,41.07,70.57
288799,2018-06-29 11:15:16.968750,26.2,70.57
288800,2018-06-29 11:15:17.000000,17.01,70.57
288801,2018-06-29 11:15:17.031250,8.94,70.57
288802,2018-06-29 11:15:17.062500,-2.93,70.57
288803,2018-06-29 11:15:17.093750,-16.84,70.57
288804,2018-06-29 11:15:17.125000,-28.51,70.57
288805,2018-06-29 11:15:17.156250,-37.92,70.57
288806,2018-06-29 11:15:17.187500,-48.95,70.57
288807,2018-06-29 11:15:17.218750,-64.58,70.57
288808,2018-06-29 11:15:17.250000,-81.56,70.57
288809,2018-06-29 11:15:17.281250,-86.84,70.57
288810,2018-06-29 11:15:17.312500,-65.98,70.57
288811,2018-06-29 11:15:17.343750,-21.32,70.57
288812,2018-06-29 11:15:17.375000,26.01,70.57
288813,2018-06-29 11:15:17.406250,57.54,70.57
288814,2018-06-29 11:15:17.437500,71.23,70.57
288815,2018-06-29 11:15:17.468750,72.67,70.57
288816,2018-06-29 11:15:17.500000,65.71,70.57
288817,2018-06-29 11:15:17.531250,55.29,70.68
288818,2018-06-29 11:15:17.562500,48.17,70.68
288819,2018-06-29 11:15:17.593750,46.7,70.68
288820,2018-06-29 11:15:17.625000,47.44,70.68
288821,2018-06-29 11:15:17.656250,46.86,70.68
288822,2018-06-29 11:15:17.687500,44.58,70.68
288823,2018-06-29 11:15:17.718750,40.77,70.68
288824,2018-06-29 11:15:17.750000,33.79,70.68
288825,2018-06-29 11:15:17.781250,22.37,70.68
288826,2018-06-29 11:15:17.812500,8.42,70.68
288827,2018-06-29 11:15:17.843750,-3.95,70.68
288828,2018-06-29 11:15:17.875000,-13.11,70.68
288829,2018-06-29 11:15:17.906250,-21.54,70.68
288830,2018-06-29 11:15:17.937500,-31.98,70.68
288831,2018-06-29 11:15:17.968750,-43.59,70.68
288832,2018-06-29 11:15:18.000000,-53.51,70.68
288833,2018-06-29 11:15:18.031250,-61.04,70.68
288834,2018-06-29 11:15:18.062500,-68.63,70.68
288835,2018-06-29 11:15:18.093750,-79.39,70.68
288836,2018-06-29 11:15:18.125000,-93.02,70.68
288837,2018-06-29 11:15:18.156250,-101.23,70.68
288838,2018-06-29 11:15:18.187500,-90.45,70.68
288839,2018-06-29 11:15:18.218750,-56.13,70.68
288840,2018-06-29 11:15:18.250000,-11.4,70.68
288841,2018-06-29 11:15:18.281250,25.47,70.68
288842,2018-06-29 11:15:18.312500,47.27,70.68
288843,2018-06-29 11:15:18.343750,56.64,70.68
288844,2018-06-29 11:15:18.375000,56.95,70.68
288845,2018-06-29 11:15:18.406250,51.13,70.68
288846,2018-06-29 11:15:18.437500,44.13,70.68
288847,2018-06-29 11:15:18.468750,40.28,70.68
288848,2018-06-29 11:15:18.500000,39.62,70.68
288849,2018-06-29 11:15:18.531250,39.31,70.8
288850,2018-06-29 11:15:18.562500,37.77,70.8
288851,2018-06-29 11:15:18.593750,35.34,70.8
288852,2018-06-29 11:15:18.625000,31.59,70.8
288853,2018-06-29 11:15:18.656250,24.67,70.8
288854,2018-06-29 11:15:18.687500,14.62,70.8
288855,2018-06-29 11:15:18.718750,4.55,70.8
288856,2018-06-29 11:15:18.750000,-3.14,70.8
288857,2018-06-29 11:15:18.781250,-10.02,70.8
288858,2018-06-29 11:15:18.812500,-19.07,70.8
288859,2018-06-29 11:15:18.843750,-30.13,70.8
288860,2018-06-29 11:15:18.875000,-39.7,70.8
288861,2018-06-29 11:15:18.906250,-45.44,70.8
288862,2018-06-29 11:15:18.937500,-49.68,70.8
288863,2018-06-29 11:15:18.968750,-57.17,70.8
288864,2018-06-29 11:15:19.000000,-68.96,70.8
288865,2018-06-29 11:15:19.031250,-77.96,70.8
288866,2018-06-29 11:15:19.062500,-72.4,70.8
288867,2018-06-29 11:15:19.093750,-47.76,70.8
288868,2018-06-29 11:15:19.125000,-14.09,70.8
288869,2018-06-29 11:15:19.156250,13.67,70.8
288870,2018-06-29 11:15:19.187500,29.52,70.8
288871,2018-06-29 11:15:19.218750,35.85,70.8
288872,2018-06-29 11:15:19.250000,35.28,70.8
288873,2018-06-29 11:15:19.281250,29.96,70.8
288874,2018-06-29 11:15:19.312500,24.21,70.8
288875,2018-06-29 11:15:19.343750,21.82,70.8
288876,2018-06-29 11:15:19.375000,22.49,70.8
288877,2018-06-29 11:15:19.406250,23.95,70.8
288878,2018-06-29 11:15:19.437500,25.06,70.8
288879,2018-06-29 11:15:19.468750,25.19,70.8
288880,2018-06-29 11:15:19.500000,23.0,70.8
288881,2018-06-29 11:15:19.531250,17.58,70.92
288882,2018-06-29 11:15:19.562500,9.65,70.92
288883,2018-06-29 11:15:19.593750,1.1,70.92
288884,2018-06-29 11:15:19.625000,-6.0,70.92
288885,2018-06-29 11:15:19.656250,-11.03,70.92
288886,2018-06-29 11:15:19.687500,-15.9,70.92
288887,2018-06-29 11:15:19.718750,-22.44,70.92
288888,2018-06-29 11:15:19.750000,-29.09,70.92
288889,2018-06-29 11:15:19.781250,-33.12,70.92
288890,2018-06-29 11:15:19.812500,-35.31,70.92
288891,2018-06-29 11:15:19.843750,-38.9,70.92
288892,2018-06-29 11:15:19.875000,-45.24,70.92
288893,2018-06-29 11:15:19.906250,-52.33,70.92
288894,2018-06-29 11:15:19.937500,-54.17,70.92
288895,2018-06-29 11:15:19.968750,-42.69,70.92
288896,2018-06-29 11:15:20.000000,-16.16,70.92
288897,2018-06-29 11:15:20.031250,16.01,70.92
288898,2018-06-29 11:15:20.062500,42.37,70.92
288899,2018-06-29 11:15:20.093750,58.92,70.92
288900,2018-06-29 11:15:20.125000,66.53,70.92
288901,2018-06-29 11:15:20.156250,67.38,70.92
288902,2018-06-29 11:15:20.187500,67.69,70.92
288903,2018-06-29 11:15:20.218750,74.74,70.92
288904,2018-06-29 11:15:20.250000,88.08,70.92
288905,2018-06-29 11:15:20.281250,100.41,70.92
288906,2018-06-29 11:15:20.312500,108.28,70.92
288907,2018-06-29 11:15:20.343750,116.06,70.92
288908,2018-06-29 11:15:20.375000,127.79,70.92
288909,2018-06-29 11:15:20.406250,138.07,70.92
288910,2018-06-29 11:15:20.437500,133.08,70.92
288911,2018-06-29 11:15:20.468750,104.37,70.92
288912,2018-06-29 11:15:20.500000,61.89,70.92
288913,2018-06-29 11:15:20.531250,24.93,70.97
288914,2018-06-29 11:15:20.562500,-0.61,70.97
288915,2018-06-29 11:15:20.593750,-22.86,70.97
288916,2018-06-29 11:15:20.625000,-45.71,70.97
288917,2018-06-29 11:15:20.656250,-67.59,70.97
288918,2018-06-29 11:15:20.687500,-92.99,70.97
288919,2018-06-29 11:15:20.718750,-126.43,70.97
288920,2018-06-29 11:15:20.750000,-160.24,70.97
288921,2018-06-29 11:15:20.781250,-179.93,70.97
288922,2018-06-29 11:15:20.812500,-177.27,70.97
288923,2018-06-29 11:15:20.843750,-154.74,70.97
288924,2018-06-29 11:15:20.875000,-123.7,70.97
288925,2018-06-29 11:15:20.906250,-98.8,70.97
288926,2018-06-29 11:15:20.937500,-87.67,70.97
288927,2018-06-29 11:15:20.968750,-85.82,70.97
288928,2018-06-29 11:15:21.000000,-84.22,70.97
288929,2018-06-29 11:15:21.031250,-78.79,70.97
288930,2018-06-29 11:15:21.062500,-69.2,70.97
288931,2018-06-29 11:15:21.093750,-54.92,70.97
288932,2018-06-29 11:15:21.125000,-38.6,70.97
288933,2018-06-29 11:15:21.156250,-26.02,70.97
288934,2018-06-29 11:15:21.187500,-17.9,70.97
288935,2018-06-29 11:15:21.218750,-10.43,70.97
288936,2018-06-29 11:15:21.250000,-4.52,70.97
288937,2018-06-29 11:15:21.281250,-4.6,70.97
288938,2018-06-29 11:15:21.312500,-8.95,70.97
288939,2018-06-29 11:15:21.343750,-11.56,70.97
288940,2018-06-29 11:15:21.375000,-11.93,70.97
288941,2018-06-29 11:15:21.406250,-13.6,70.97
288942,2018-06-29 11:15:21.437500,-15.14,70.97
288943,2018-06-29 11:15:21.468750,-11.15,70.97
288944,2018-06-29 11:15:21.500000,-2.2,70.97
288945,2018-06-29 11:15:21.531250,3.59,71.07
288946,2018-06-29 11:15:21.562500,1.52,71.07
288947,2018-06-29 11:15:21.593750,-0.48,71.07
288948,2018-06-29 11:15:21.625000,12.02,71.07
288949,2018-06-29 11:15:21.656250,42.83,71.07
288950,2018-06-29 11:15:21.687500,79.52,71.07
288951,2018-06-29 11:15:21.718750,108.68,71.07
288952,2018-06-29 11:15:21.750000,130.73,71.07
288953,2018-06-29 11:15:21.781250,155.46,71.07
288954,2018-06-29 11:15:21.812500,183.99,71.07
288955,2018-06-29 11:15:21.843750,199.05,71.07
288956,2018-06-29 11:15:21.875000,183.45,71.07
288957,2018-06-29 11:15:21.906250,151.02,71.07
288958,2018-06-29 11:15:21.937500,131.57,71.07
288959,2018-06-29 11:15:21.968750,121.25,71.07
288960,2018-06-29 11:15:22.000000,87.52,71.07
288961,2018-06-29 11:15:22.031250,21.18,71.07
288962,2018-06-29 11:15:22.062500,-52.19,71.07
288963,2018-06-29 11:15:22.093750,-103.12,71.07
288964,2018-06-29 11:15:22.125000,-119.25,71.07
288965,2018-06-29 11:15:22.156250,-110.38,71.07
288966,2018-06-29 11:15:22.187500,-100.14,71.07
288967,2018-06-29 11:15:22.218750,-105.0,71.07
288968,2018-06-29 11:15:22.250000,-127.23,71.07
288969,2018-06-29 11:15:22.281250,-161.39,71.07
288970,2018-06-29 11:15:22.312500,-195.25,71.07
288971,2018-06-29 11:15:22.343750,-217.55,71.07
288972,2018-06-29 11:15:22.375000,-231.54,71.07
288973,2018-06-29 11:15:22.406250,-248.4,71.07
288974,2018-06-29 11:15:22.437500,-267.96,71.07
288975,2018-06-29 11:15:22.468750,-274.63,71.07
288976,2018-06-29 11:15:22.500000,-253.33,71.07
288977,2018-06-29 11:15:22.531250,-207.07,71.15
288978,2018-06-29 11:15:22.562500,-155.64,71.15
288979,2018-06-29 11:15:22.593750,-116.36,71.15
288980,2018-06-29 11:15:22.625000,-92.32,71.15
288981,2018-06-29 11:15:22.656250,-80.23,71.15
288982,2018-06-29 11:15:22.687500,-77.78,71.15
288983,2018-06-29 11:15:22.718750,-79.98,71.15
288984,2018-06-29 11:15:22.750000,-79.09,71.15
288985,2018-06-29 11:15:22.781250,-71.06,71.15
288986,2018-06-29 11:15:22.812500,-56.5,71.15
288987,2018-06-29 11:15:22.843750,-36.38,71.15
288988,2018-06-29 11:15:22.875000,-12.08,71.15
288989,2018-06-29 11:15:22.906250,11.53,71.15
288990,2018-06-29 11:15:22.937500,28.31,71.15
288991,2018-06-29 11:15:22.968750,36.44,71.15
288992,2018-06-29 11:15:23.000000,38.69,71.15
288993,2018-06-29 11:15:23.031250,37.61,71.15
288994,2018-06-29 11:15:23.062500,33.25,71.15
288995,2018-06-29 11:15:23.093750,25.63,71.15
288996,2018-06-29 11:15:23.125000,16.75,71.15
288997,2018-06-29 11:15:23.156250,8.64,71.15
288998,2018-06-29 11:15:23.187500,0.22,71.15
288999,2018-06-29 11:15:23.218750,-12.25,71.15
289000,2018-06-29 11:15:23.250000,-28.76,71.15
289001,2018-06-29 11:15:23.281250,-38.81,71.15
289002,2018-06-29 11:15:23.312500,-27.28,71.15
289003,2018-06-29 11:15:23.343750,8.92,71.15
289004,2018-06-29 11:15:23.375000,54.81,71.15
289005,2018-06-29 11:15:23.406250,91.4,71.15
289006,2018-06-29 11:15:23.437500,110.79,71.15
289007,2018-06-29 11:15:23.468750,115.09,71.15
289008,2018-06-29 11:15:23.500000,109.12,71.15
289009,2018-06-29 11:15:23.531250,99.61,71.2
289010,2018-06-29 11:15:23.562500,94.5,71.2
289011,2018-06-29 11:15:23.593750,96.67,71.2
289012,2018-06-29 11:15:23.625000,101.83,71.2
289013,2018-06-29 11:15:23.656250,104.9,71.2
289014,2018-06-29 11:15:23.687500,103.84,71.2
289015,2018-06-29 11:15:23.718750,98.21,71.2
289016,2018-06-29 11:15:23.750000,89.09,71.2
289017,2018-06-29 11:15:23.781250,78.54,71.2
289018,2018-06-29 11:15:23.812500,66.46,71.2
289019,2018-06-29 11:15:23.843750,51.02,71.2
289020,2018-06-29 11:15:23.875000,32.7,71.2
289021,2018-06-29 11:15:23.906250,14.52,71.2
289022,2018-06-29 11:15:23.937500,-1.16,71.2
289023,2018-06-29 11:15:23.968750,-15.18,71.2
289024,2018-06-29 11:15:24.000000,-32.01,71.2
289025,2018-06-29 11:15:24.031250,-54.39,71.2
289026,2018-06-29 11:15:24.062500,-72.92,71.2
289027,2018-06-29 11:15:24.093750,-68.58,71.2
289028,2018-06-29 11:15:24.125000,-33.79,71.2
289029,2018-06-29 11:15:24.156250,16.39,71.2
289030,2018-06-29 11:15:24.187500,60.61,71.2
289031,2018-06-29 11:15:24.218750,89.42,71.2
289032,2018-06-29 11:15:24.250000,103.04,71.2
289033,2018-06-29 11:15:24.281250,103.6,71.2
289034,2018-06-29 11:15:24.312500,96.02,71.2
289035,2018-06-29 11:15:24.343750,87.94,71.2
289036,2018-06-29 11:15:24.375000,83.09,71.2
289037,2018-06-29 11:15:24.406250,79.36,71.2
289038,2018-06-29 11:15:24.437500,74.86,71.2
289039,2018-06-29 11:15:24.468750,70.8,71.2
289040,2018-06-29 11:15:24.500000,66.63,71.2
289041,2018-06-29 11:15:24.531250,58.29,71.23
289042,2018-06-29 11:15:24.562500,44.17,71.23
289043,2018-06-29 11:15:24.593750,28.44,71.23
289044,2018-06-29 11:15:24.625000,15.44,71.23
289045,2018-06-29 11:15:24.656250,3.73,71.23
289046,2018-06-29 11:15:24.687500,-10.91,71.23
289047,2018-06-29 11:15:24.718750,-27.97,71.23
289048,2018-06-29 11:15:24.750000,-42.3,71.23
289049,2018-06-29 11:15:24.781250,-51.91,71.23
289050,2018-06-29 11:15:24.812500,-61.61,71.23
289051,2018-06-29 11:15:24.843750,-77.19,71.23
289052,2018-06-29 11:15:24.875000,-96.06,71.23
289053,2018-06-29 11:15:24.906250,-103.54,71.23
289054,2018-06-29 11:15:24.937500,-83.65,71.23
289055,2018-06-29 11:15:24.968750,-37.19,71.23
289056,2018-06-29 11:15:25.000000,16.39,71.23
289057,2018-06-29 11:15:25.031250,57.59,71.23
289058,2018-06-29 11:15:25.062500,80.44,71.23
289059,2018-06-29 11:15:25.093750,88.04,71.23
289060,2018-06-29 11:15:25.125000,85.01,71.23
289061,2018-06-29 11:15:25.156250,77.27,71.23
289062,2018-06-29 11:15:25.187500,71.73,71.23
289063,2018-06-29 11:15:25.218750,71.42,71.23
289064,2018-06-29 11:15:25.250000,73.29,71.23
289065,2018-06-29 11:15:25.281250,73.06,71.23
289066,2018-06-29 11:15:25.312500,69.96,71.23
289067,2018-06-29 11:15:25.343750,64.52,71.23
289068,2018-06-29 11:15:25.375000,55.33,71.23
289069,2018-06-29 11:15:25.406250,41.47,71.23
289070,2018-06-29 11:15:25.437500,26.07,71.23
289071,2018-06-29 11:15:25.468750,13.71,71.23
289072,2018-06-29 11:15:25.500000,4.37,71.23
289073,2018-06-29 11:15:25.531250,-6.24,71.27
289074,2018-06-29 11:15:25.562500,-20.04,71.27
289075,2018-06-29 11:15:25.593750,-33.83,71.27
289076,2018-06-29 11:15:25.625000,-44.34,71.27
289077,2018-06-29 11:15:25.656250,-53.08,71.27
289078,2018-06-29 11:15:25.687500,-65.13,71.27
289079,2018-06-29 11:15:25.718750,-82.85,71.27
289080,2018-06-29 11:15:25.750000,-98.89,71.27
289081,2018-06-29 11:15:25.781250,-97.31,71.27
289082,2018-06-29 11:15:25.812500,-68.23,71.27
289083,2018-06-29 11:15:25.843750,-20.46,71.27
289084,2018-06-29 11:15:25.875000,25.93,71.27
289085,2018-06-29 11:15:25.906250,57.14,71.27
289086,2018-06-29 11:15:25.937500,71.05,71.27
289087,2018-06-29 11:15:25.968750,71.09,71.27
289088,2018-06-29 11:15:26.000000,62.97,71.27
289089,2018-06-29 11:15:26.031250,54.37,71.27
289090,2018-06-29 11:15:26.062500,50.63,71.27
289091,2018-06-29 11:15:26.093750,51.27,71.27
289092,2018-06-29 11:15:26.125000,52.58,71.27
289093,2018-06-29 11:15:26.156250,52.11,71.27
289094,2018-06-29 11:15:26.187500,49.19,71.27
289095,2018-06-29 11:15:26.218750,43.35,71.27
289096,2018-06-29 11:15:26.250000,34.34,71.27
289097,2018-06-29 11:15:26.281250,23.02,71.27
289098,2018-06-29 11:15:26.312500,11.3,71.27
289099,2018-06-29 11:15:26.343750,0.98,71.27
289100,2018-06-29 11:15:26.375000,-7.52,71.27
289101,2018-06-29 11:15:26.406250,-15.74,71.27
289102,2018-06-29 11:15:26.437500,-25.44,71.27
289103,2018-06-29 11:15:26.468750,-35.65,71.27
289104,2018-06-29 11:15:26.500000,-43.81,71.27
289105,2018-06-29 11:15:26.531250,-50.03,71.32
289106,2018-06-29 11:15:26.562500,-57.9,71.32
289107,2018-06-29 11:15:26.593750,-70.21,71.32
289108,2018-06-29 11:15:26.625000,-83.98,71.32
289109,2018-06-29 11:15:26.656250,-88.74,71.32
289110,2018-06-29 11:15:26.687500,-72.9,71.32
289111,2018-06-29 11:15:26.718750,-36.64,71.32
289112,2018-06-29 11:15:26.750000,4.98,71.32
289113,2018-06-29 11:15:26.781250,35.94,71.32
289114,2018-06-29 11:15:26.812500,51.57,71.32
289115,2018-06-29 11:15:26.843750,54.72,71.32
289116,2018-06-29 11:15:26.875000,48.97,71.32
289117,2018-06-29 11:15:26.906250,40.04,71.32
289118,2018-06-29 11:15:26.937500,35.15,71.32
289119,2018-06-29 11:15:26.968750,36.5,71.32
289120,2018-06-29 11:15:27.000000,39.77,71.32
289121,2018-06-29 11:15:27.031250,40.82,71.32
289122,2018-06-29 11:15:27.062500,39.56,71.32
289123,2018-06-29 11:15:27.093750,36.74,71.32
289124,2018-06-29 11:15:27.125000,31.0,71.32
289125,2018-06-29 11:15:27.156250,21.14,71.32
289126,2018-06-29 11:15:27.187500,9.14,71.32
289127,2018-06-29 11:15:27.218750,-1.49,71.32
289128,2018-06-29 11:15:27.250000,-9.58,71.32
289129,2018-06-29 11:15:27.281250,-17.09,71.32
289130,2018-06-29 11:15:27.312500,-26.3,71.32
289131,2018-06-29 11:15:27.343750,-36.9,71.32
289132,2018-06-29 11:15:27.375000,-46.15,71.32
289133,2018-06-29 11:15:27.406250,-52.74,71.32
289134,2018-06-29 11:15:27.437500,-59.31,71.32
289135,2018-06-29 11:15:27.468750,-69.74,71.32
289136,2018-06-29 11:15:27.500000,-83.71,71.32
289137,2018-06-29 11:15:27.531250,-92.61,71.37
289138,2018-06-29 11:15:27.562500,-83.69,71.37
289139,2018-06-29 11:15:27.593750,-53.64,71.37
289140,2018-06-29 11:15:27.625000,-14.85,71.37
289141,2018-06-29 11:15:27.656250,16.77,71.37
289142,2018-06-29 11:15:27.687500,35.41,71.37
289143,2018-06-29 11:15:27.718750,43.37,71.37
289144,2018-06-29 11:15:27.750000,43.62,71.37
289145,2018-06-29 11:15:27.781250,39.29,71.37
289146,2018-06-29 11:15:27.812500,35.19,71.37
289147,2018-06-29 11:15:27.843750,34.84,71.37
289148,2018-06-29 11:15:27.875000,37.31,71.37
289149,2018-06-29 11:15:27.906250,39.28,71.37
289150,2018-06-29 11:15:27.937500,39.4,71.37
289151,2018-06-29 11:15:27.968750,38.07,71.37
289152,2018-06-29 11:15:28.000000,34.19,71.37
289153,2018-06-29 11:15:28.031250,26.05,71.37
289154,2018-06-29 11:15:28.062500,15.09,71.37
289155,2018-06-29 11:15:28.093750,4.93,71.37
289156,2018-06-29 11:15:28.125000,-3.01,71.37
289157,2018-06-29 11:15:28.156250,-10.25,71.37
289158,2018-06-29 11:15:28.187500,-18.68,71.37
289159,2018-06-29 11:15:28.218750,-28.33,71.37
289160,2018-06-29 11:15:28.250000,-37.26,71.37
289161,2018-06-29 11:15:28.281250,-43.64,71.37
289162,2018-06-29 11:15:28.312500,-48.61,71.37
289163,2018-06-29 11:15:28.343750,-55.55,71.37
289164,2018-06-29 11:15:28.375000,-66.61,71.37
289165,2018-06-29 11:15:28.406250,-78.73,71.37
289166,2018-06-29 11:15:28.437500,-82.07,71.37
289167,2018-06-29 11:15:28.468750,-66.64,71.37
289168,2018-06-29 11:15:28.500000,-34.84,71.37
289169,2018-06-29 11:15:28.531250,-1.41,71.2
289170,2018-06-29 11:15:28.562500,21.73,71.2
289171,2018-06-29 11:15:28.593750,33.71,71.2
289172,2018-06-29 11:15:28.625000,37.85,71.2
289173,2018-06-29 11:15:28.656250,36.31,71.2
289174,2018-06-29 11:15:28.687500,32.21,71.2
289175,2018-06-29 11:15:28.718750,29.7,71.2
289176,2018-06-29 11:15:28.750000,30.06,71.2
289177,2018-06-29 11:15:28.781250,30.88,71.2
289178,2018-06-29 11:15:28.812500,30.34,71.2
289179,2018-06-29 11:15:28.843750,29.28,71.2
289180,2018-06-29 11:15:28.875000,28.18,71.2
289181,2018-06-29 11:15:28.906250,25.15,71.2
289182,2018-06-29 11:15:28.937500,18.86,71.2
289183,2018-06-29 11:15:28.968750,10.95,71.2
289184,2018-06-29 11:15:29.000000,3.95,71.2
289185,2018-06-29 11:15:29.031250,-1.92,71.2
289186,2018-06-29 11:15:29.062500,-8.61,71.2
289187,2018-06-29 11:15:29.093750,-17.46,71.2
289188,2018-06-29 11:15:29.125000,-27.05,71.2
289189,2018-06-29 11:15:29.156250,-34.87,71.2
289190,2018-06-29 11:15:29.187500,-40.69,71.2
289191,2018-06-29 11:15:29.218750,-46.83,71.2
289192,2018-06-29 11:15:29.250000,-55.86,71.2
289193,2018-06-29 11:15:29.281250,-67.6,71.2
289194,2018-06-29 11:15:29.312500,-75.22,71.2
289195,2018-06-29 11:15:29.343750,-67.84,71.2
289196,2018-06-29 11:15:29.375000,-42.96,71.2
289197,2018-06-29 11:15:29.406250,-11.94,71.2
289198,2018-06-29 11:15:29.437500,12.21,71.2
289199,2018-06-29 11:15:29.468750,26.15,71.2
289200,2018-06-29 11:15:29.500000,31.82,71.2
289201,2018-06-29 11:15:29.531250,30.41,71.1
289202,2018-06-29 11:15:29.562500,25.14,71.1
289203,2018-06-29 11:15:29.593750,21.93,71.1
289204,2018-06-29 11:15:29.625000,23.21,71.1
289205,2018-06-29 11:15:29.656250,26.12,71.1
289206,2018-06-29 11:15:29.687500,27.98,71.1
289207,2018-06-29 11:15:29.718750,28.86,71.1
289208,2018-06-29 11:15:29.750000,28.19,71.1
289209,2018-06-29 11:15:29.781250,23.55,71.1
289210,2018-06-29 11:15:29.812500,14.63,71.1
289211,2018-06-29 11:15:29.843750,5.31,71.1
289212,2018-06-29 11:15:29.875000,-0.54,71.1
289213,2018-06-29 11:15:29.906250,-4.51,71.1
289214,2018-06-29 11:15:29.937500,-11.31,71.1
289215,2018-06-29 11:15:29.968750,-21.72,71.1
289216,2018-06-29 11:15:30.000000,-31.71,71.1
289217,2018-06-29 11:15:30.031250,-38.47,71.1
289218,2018-06-29 11:15:30.062500,-43.96,71.1
289219,2018-06-29 11:15:30.093750,-52.11,71.1
289220,2018-06-29 11:15:30.125000,-63.42,71.1
289221,2018-06-29 11:15:30.156250,-71.37,71.1
289222,2018-06-29 11:15:30.187500,-65.8,71.1
289223,2018-06-29 11:15:30.218750,-43.29,71.1
289224,2018-06-29 11:15:30.250000,-12.59,71.1
289225,2018-06-29 11:15:30.281250,13.65,71.1
289226,2018-06-29 11:15:30.312500,29.54,71.1
289227,2018-06-29 11:15:30.343750,35.54,71.1
289228,2018-06-29 11:15:30.375000,33.47,71.1
289229,2018-06-29 11:15:30.406250,27.44,71.1
289230,2018-06-29 11:15:30.437500,23.79,71.1
289231,2018-06-29 11:15:30.468750,24.91,71.1
289232,2018-06-29 11:15:30.500000,27.33,71.1
289233,2018-06-29 11:15:30.531250,28.22,71.02
289234,2018-06-29 11:15:30.562500,28.56,71.02
289235,2018-06-29 11:15:30.593750,28.34,71.02
289236,2018-06-29 11:15:30.625000,24.45,71.02
289237,2018-06-29 11:15:30.656250,15.7,71.02
289238,2018-06-29 11:15:30.687500,5.59,71.02
289239,2018-06-29 11:15:30.718750,-2.59,71.02
289240,2018-06-29 11:15:30.750000,-9.83,71.02
289241,2018-06-29 11:15:30.781250,-18.37,71.02
289242,2018-06-29 11:15:30.812500,-27.98,71.02
289243,2018-06-29 11:15:30.843750,-36.9,71.02
289244,2018-06-29 11:15:30.875000,-44.01,71.02
289245,2018-06-29 11:15:30.906250,-50.1,71.02
289246,2018-06-29 11:15:30.937500,-58.66,71.02
289247,2018-06-29 11:15:30.968750,-71.68,71.02
289248,2018-06-29 11:15:31.000000,-81.86,71.02
289249,2018-06-29 11:15:31.031250,-75.78,71.02
289250,2018-06-29 11:15:31.062500,-49.17,71.02
289251,2018-06-29 11:15:31.093750,-12.84,71.02
289252,2018-06-29 11:15:31.125000,18.78,71.02
289253,2018-06-29 11:15:31.156250,38.88,71.02
289254,2018-06-29 11:15:31.187500,47.75,71.02
289255,2018-06-29 11:15:31.218750,48.16,71.02
289256,2018-06-29 11:15:31.250000,44.05,71.02
289257,2018-06-29 11:15:31.281250,40.45,71.02
289258,2018-06-29 11:15:31.312500,40.49,71.02
289259,2018-06-29 11:15:31.343750,42.55,71.02
289260,2018-06-29 11:15:31.375000,43.55,71.02
289261,2018-06-29 11:15:31.406250,43.35,71.02
289262,2018-06-29 11:15:31.437500,42.16,71.02
289263,2018-06-29 11:15:31.468750,37.37,71.02
289264,2018-06-29 11:15:31.500000,27.54,71.02
289265,2018-06-29 11:15:31.531250,15.86,70.98
289266,2018-06-29 11:15:31.562500,6.2,70.98
289267,2018-06-29 11:15:31.593750,-1.95,70.98
289268,2018-06-29 11:15:31.625000,-11.98,70.98
289269,2018-06-29 11:15:31.656250,-24.19,70.98
289270,2018-06-29 11:15:31.687500,-35.01,70.98
289271,2018-06-29 11:15:31.718750,-42.73,70.98
289272,2018-06-29 11:15:31.750000,-50.26,70.98
289273,2018-06-29 11:15:31.781250,-61.26,70.98
289274,2018-06-29 11:15:31.812500,-74.66,70.98
289275,2018-06-29 11:15:31.843750,-81.39,70.98
289276,2018-06-29 11:15:31.875000,-69.14,70.98
289277,2018-06-29 11:15:31.906250,-36.44,70.98
289278,2018-06-29 11:15:31.937500,2.35,70.98
289279,2018-06-29 11:15:31.968750,31.49,70.98
289280,2018-06-29 11:15:32.000000,46.69,70.98
289281,2018-06-29 11:15:32.031250,50.92,70.98
289282,2018-06-29 11:15:32.062500,47.67,70.98
289283,2018-06-29 11:15:32.093750,41.64,70.98
289284,2018-06-29 11:15:32.125000,38.17,70.98
289285,2018-06-29 11:15:32.156250,38.78,70.98
289286,2018-06-29 11:15:32.187500,41.01,70.98
289287,2018-06-29 11:15:32.218750,43.11,70.98
289288,2018-06-29 11:15:32.250000,44.68,70.98
289289,2018-06-29 11:15:32.281250,43.49,70.98
289290,2018-06-29 11:15:32.312500,36.65,70.98
289291,2018-06-29 11:15:32.343750,25.35,70.98
289292,2018-06-29 11:15:32.375000,14.46,70.98
289293,2018-06-29 11:15:32.406250,6.37,70.98
289294,2018-06-29 11:15:32.437500,-1.5,70.98
289295,2018-06-29 11:15:32.468750,-11.86,70.98
289296,2018-06-29 11:15:32.500000,-23.47,70.98
289297,2018-06-29 11:15:32.531250,-33.52,70.98
289298,2018-06-29 11:15:32.562500,-41.3,70.98
289299,2018-06-29 11:15:32.593750,-49.26,70.98
289300,2018-06-29 11:15:32.625000,-60.64,70.98
289301,2018-06-29 11:15:32.656250,-72.93,70.98
289302,2018-06-29 11:15:32.687500,-74.25,70.98
289303,2018-06-29 11:15:32.718750,-53.98,70.98
289304,2018-06-29 11:15:32.750000,-17.74,70.98
289305,2018-06-29 11:15:32.781250,16.79,70.98
289306,2018-06-29 11:15:32.812500,38.07,70.98
289307,2018-06-29 11:15:32.843750,46.2,70.98
289308,2018-06-29 11:15:32.875000,44.64,70.98
289309,2018-06-29 11:15:32.906250,36.9,70.98
289310,2018-06-29 11:15:32.937500,29.06,70.98
289311,2018-06-29 11:15:32.968750,26.74,70.98
289312,2018-06-29 11:15:33.000000,29.65,70.98
289313,2018-06-29 11:15:33.031250,32.94,70.98
289314,2018-06-29 11:15:33.062500,32.87,70.98
289315,2018-06-29 11:15:33.093750,29.04,70.98
289316,2018-06-29 11:15:33.125000,22.33,70.98
289317,2018-06-29 11:15:33.156250,13.16,70.98
289318,2018-06-29 11:15:33.187500,1.97,70.98
289319,2018-06-29 11:15:33.218750,-9.91,70.98
289320,2018-06-29 11:15:33.250000,-20.75,70.98
289321,2018-06-29 11:15:33.281250,-29.89,70.98
289322,2018-06-29 11:15:33.312500,-38.01,70.98
289323,2018-06-29 11:15:33.343750,-46.49,70.98
289324,2018-06-29 11:15:33.375000,-56.97,70.98
289325,2018-06-29 11:15:33.406250,-68.85,70.98
289326,2018-06-29 11:15:33.437500,-74.29,70.98
289327,2018-06-29 11:15:33.468750,-61.69,70.98
289328,2018-06-29 11:15:33.500000,-29.73,70.98
289329,2018-06-29 11:15:33.531250,8.01,71.0
289330,2018-06-29 11:15:33.562500,36.54,71.0
289331,2018-06-29 11:15:33.593750,51.21,71.0
289332,2018-06-29 11:15:33.625000,54.22,71.0
289333,2018-06-29 11:15:33.656250,48.66,71.0
289334,2018-06-29 11:15:33.687500,39.25,71.0
289335,2018-06-29 11:15:33.718750,32.53,71.0
289336,2018-06-29 11:15:33.750000,31.62,71.0
289337,2018-06-29 11:15:33.781250,33.11,71.0
289338,2018-06-29 11:15:33.812500,31.78,71.0
289339,2018-06-29 11:15:33.843750,26.48,71.0
289340,2018-06-29 11:15:33.875000,19.33,71.0
289341,2018-06-29 11:15:33.906250,10.91,71.0
289342,2018-06-29 11:15:33.937500,-0.74,71.0
289343,2018-06-29 11:15:33.968750,-15.92,71.0
289344,2018-06-29 11:15:34.000000,-31.08,71.0
289345,2018-06-29 11:15:34.031250,-42.55,71.0
289346,2018-06-29 11:15:34.062500,-50.98,71.0
289347,2018-06-29 11:15:34.093750,-60.54,71.0
289348,2018-06-29 11:15:34.125000,-74.19,71.0
289349,2018-06-29 11:15:34.156250,-87.88,71.0
289350,2018-06-29 11:15:34.187500,-89.04,71.0
289351,2018-06-29 11:15:34.218750,-67.02,71.0
289352,2018-06-29 11:15:34.250000,-26.43,71.0
289353,2018-06-29 11:15:34.281250,15.51,71.0
289354,2018-06-29 11:15:34.312500,45.26,71.0
289355,2018-06-29 11:15:34.343750,60.91,71.0
289356,2018-06-29 11:15:34.375000,66.16,71.0
289357,2018-06-29 11:15:34.406250,64.0,71.0
289358,2018-06-29 11:15:34.437500,57.55,71.0
289359,2018-06-29 11:15:34.468750,51.52,71.0
289360,2018-06-29 11:15:34.500000,48.96,71.0
289361,2018-06-29 11:15:34.531250,48.22,71.0
289362,2018-06-29 11:15:34.562500,45.75,71.0
289363,2018-06-29 11:15:34.593750,40.25,71.0
289364,2018-06-29 11:15:34.625000,32.29,71.0
289365,2018-06-29 11:15:34.656250,22.2,71.0
289366,2018-06-29 11:15:34.687500,10.12,71.0
289367,2018-06-29 11:15:34.718750,-3.63,71.0
289368,2018-06-29 11:15:34.750000,-18.31,71.0
289369,2018-06-29 11:15:34.781250,-32.11,71.0
289370,2018-06-29 11:15:34.812500,-43.53,71.0
289371,2018-06-29 11:15:34.843750,-53.9,71.0
289372,2018-06-29 11:15:34.875000,-66.73,71.0
289373,2018-06-29 11:15:34.906250,-83.4,71.0
289374,2018-06-29 11:15:34.937500,-97.56,71.0
289375,2018-06-29 11:15:34.968750,-95.47,71.0
289376,2018-06-29 11:15:35.000000,-68.29,71.0
289377,2018-06-29 11:15:35.031250,-23.91,71.0
289378,2018-06-29 11:15:35.062500,19.58,71.0
289379,2018-06-29 11:15:35.093750,50.42,71.0
289380,2018-06-29 11:15:35.125000,67.78,71.0
289381,2018-06-29 11:15:35.156250,74.85,71.0
289382,2018-06-29 11:15:35.187500,74.91,71.0
289383,2018-06-29 11:15:35.218750,71.95,71.0
289384,2018-06-29 11:15:35.250000,69.54,71.0
289385,2018-06-29 11:15:35.281250,68.45,71.0
289386,2018-06-29 11:15:35.312500,67.32,71.0
289387,2018-06-29 11:15:35.343750,65.56,71.0
289388,2018-06-29 11:15:35.375000,63.25,71.0
289389,2018-06-29 11:15:35.406250,58.8,71.0
289390,2018-06-29 11:15:35.437500,50.45,71.0
289391,2018-06-29 11:15:35.468750,39.94,71.0
289392,2018-06-29 11:15:35.500000,30.24,71.0
289393,2018-06-29 11:15:35.531250,21.02,71.0
289394,2018-06-29 11:15:35.562500,10.4,71.0
289395,2018-06-29 11:15:35.593750,-1.06,71.0
289396,2018-06-29 11:15:35.625000,-11.36,71.0
289397,2018-06-29 11:15:35.656250,-20.56,71.0
289398,2018-06-29 11:15:35.687500,-30.61,71.0
289399,2018-06-29 11:15:35.718750,-42.2,71.0
289400,2018-06-29 11:15:35.750000,-53.55,71.0
289401,2018-06-29 11:15:35.781250,-62.78,71.0
289402,2018-06-29 11:15:35.812500,-71.18,71.0
289403,2018-06-29 11:15:35.843750,-82.77,71.0
289404,2018-06-29 11:15:35.875000,-97.54,71.0
289405,2018-06-29 11:15:35.906250,-104.73,71.0
289406,2018-06-29 11:15:35.937500,-90.09,71.0
289407,2018-06-29 11:15:35.968750,-53.07,71.0
289408,2018-06-29 11:15:36.000000,-9.19,71.0
289409,2018-06-29 11:15:36.031250,26.26,71.0
289410,2018-06-29 11:15:36.062500,48.86,71.0
289411,2018-06-29 11:15:36.093750,60.17,71.0
289412,2018-06-29 11:15:36.125000,62.69,71.0
289413,2018-06-29 11:15:36.156250,60.47,71.0
289414,2018-06-29 11:15:36.187500,58.03,71.0
289415,2018-06-29 11:15:36.218750,57.43,71.0
289416,2018-06-29 11:15:36.250000,58.16,71.0
289417,2018-06-29 11:15:36.281250,58.87,71.0
289418,2018-06-29 11:15:36.312500,58.58,71.0
289419,2018-06-29 11:15:36.343750,56.58,71.0
289420,2018-06-29 11:15:36.375000,51.85,71.0
289421,2018-06-29 11:15:36.406250,43.95,71.0
289422,2018-06-29 11:15:36.437500,34.62,71.0
289423,2018-06-29 11:15:36.468750,26.61,71.0
289424,2018-06-29 11:15:36.500000,20.71,71.0
289425,2018-06-29 11:15:36.531250,15.13,70.97
289426,2018-06-29 11:15:36.562500,8.47,70.97
289427,2018-06-29 11:15:36.593750,1.34,70.97
289428,2018-06-29 11:15:36.625000,-5.14,70.97
289429,2018-06-29 11:15:36.656250,-11.42,70.97
289430,2018-06-29 11:15:36.687500,-19.41,70.97
289431,2018-06-29 11:15:36.718750,-29.83,70.97
289432,2018-06-29 11:15:36.750000,-40.31,70.97
289433,2018-06-29 11:15:36.781250,-48.09,70.97
289434,2018-06-29 11:15:36.812500,-54.16,70.97
289435,2018-06-29 11:15:36.843750,-62.25,70.97
289436,2018-06-29 11:15:36.875000,-74.25,70.97
289437,2018-06-29 11:15:36.906250,-86.29,70.97
289438,2018-06-29 11:15:36.937500,-88.22,70.97
289439,2018-06-29 11:15:36.968750,-71.28,70.97
289440,2018-06-29 11:15:37.000000,-38.74,70.97
289441,2018-06-29 11:15:37.031250,-4.3,70.97
289442,2018-06-29 11:15:37.062500,21.25,70.97
289443,2018-06-29 11:15:37.093750,36.18,70.97
289444,2018-06-29 11:15:37.125000,42.54,70.97
289445,2018-06-29 11:15:37.156250,42.49,70.97
289446,2018-06-29 11:15:37.187500,39.75,70.97
289447,2018-06-29 11:15:37.218750,38.54,70.97
289448,2018-06-29 11:15:37.250000,39.82,70.97
289449,2018-06-29 11:15:37.281250,41.29,70.97
289450,2018-06-29 11:15:37.312500,41.8,70.97
289451,2018-06-29 11:15:37.343750,42.11,70.97
289452,2018-06-29 11:15:37.375000,41.72,70.97
289453,2018-06-29 11:15:37.406250,38.38,70.97
289454,2018-06-29 11:15:37.437500,31.69,70.97
289455,2018-06-29 11:15:37.468750,24.33,70.97
289456,2018-06-29 11:15:37.500000,18.49,70.97
289457,2018-06-29 11:15:37.531250,13.33,70.92
289458,2018-06-29 11:15:37.562500,7.51,70.92
289459,2018-06-29 11:15:37.593750,1.55,70.92
289460,2018-06-29 11:15:37.625000,-3.62,70.92
289461,2018-06-29 11:15:37.656250,-8.14,70.92
289462,2018-06-29 11:15:37.687500,-12.79,70.92
289463,2018-06-29 11:15:37.718750,-18.47,70.92
289464,2018-06-29 11:15:37.750000,-25.37,70.92
289465,2018-06-29 11:15:37.781250,-32.29,70.92
289466,2018-06-29 11:15:37.812500,-38.12,70.92
289467,2018-06-29 11:15:37.843750,-43.61,70.92
289468,2018-06-29 11:15:37.875000,-50.52,70.92
289469,2018-06-29 11:15:37.906250,-58.85,70.92
289470,2018-06-29 11:15:37.937500,-63.4,70.92
289471,2018-06-29 11:15:37.968750,-55.5,70.92
289472,2018-06-29 11:15:38.000000,-32.68,70.92
289473,2018-06-29 11:15:38.031250,-3.84,70.92
289474,2018-06-29 11:15:38.062500,19.28,70.92
289475,2018-06-29 11:15:38.093750,32.17,70.92
289476,2018-06-29 11:15:38.125000,36.32,70.92
289477,2018-06-29 11:15:38.156250,34.5,70.92
289478,2018-06-29 11:15:38.187500,30.83,70.92
289479,2018-06-29 11:15:38.218750,30.29,70.92
289480,2018-06-29 11:15:38.250000,34.58,70.92
289481,2018-06-29 11:15:38.281250,40.65,70.92
289482,2018-06-29 11:15:38.312500,44.92,70.92
289483,2018-06-29 11:15:38.343750,46.81,70.92
289484,2018-06-29 11:15:38.375000,47.47,70.92
289485,2018-06-29 11:15:38.406250,46.98,70.92
289486,2018-06-29 11:15:38.437500,44.14,70.92
289487,2018-06-29 11:15:38.468750,38.14,70.92
289488,2018-06-29 11:15:38.500000,29.27,70.92
289489,2018-06-29 11:15:38.531250,18.63,70.82
289490,2018-06-29 11:15:38.562500,7.35,70.82
289491,2018-06-29 11:15:38.593750,-5.61,70.82
289492,2018-06-29 11:15:38.625000,-24.63,70.82
289493,2018-06-29 11:15:38.656250,-52.31,70.82
289494,2018-06-29 11:15:38.687500,-82.43,70.82
289495,2018-06-29 11:15:38.718750,-103.1,70.82
289496,2018-06-29 11:15:38.750000,-108.69,70.82
289497,2018-06-29 11:15:38.781250,-105.17,70.82
289498,2018-06-29 11:15:38.812500,-102.84,70.82
289499,2018-06-29 11:15:38.843750,-105.29,70.82
289500,2018-06-29 11:15:38.875000,-105.23,70.82
289501,2018-06-29 11:15:38.906250,-92.8,70.82
289502,2018-06-29 11:15:38.937500,-67.81,70.82
289503,2018-06-29 11:15:38.968750,-39.41,70.82
289504,2018-06-29 11:15:39.000000,-14.67,70.82
289505,2018-06-29 11:15:39.031250,5.59,70.82
289506,2018-06-29 11:15:39.062500,22.57,70.82
289507,2018-06-29 11:15:39.093750,39.27,70.82
289508,2018-06-29 11:15:39.125000,61.93,70.82
289509,2018-06-29 11:15:39.156250,94.74,70.82
289510,2018-06-29 11:15:39.187500,134.17,70.82
289511,2018-06-29 11:15:39.218750,173.0,70.82
289512,2018-06-29 11:15:39.250000,208.46,70.82
289513,2018-06-29 11:15:39.281250,244.66,70.82
289514,2018-06-29 11:15:39.312500,288.09,70.82
289515,2018-06-29 11:15:39.343750,338.88,70.82
289516,2018-06-29 11:15:39.375000,381.91,70.82
289517,2018-06-29 11:15:39.406250,392.77,70.82
289518,2018-06-29 11:15:39.437500,362.41,70.82
289519,2018-06-29 11:15:39.468750,309.35,70.82
289520,2018-06-29 11:15:39.500000,257.14,70.82
289521,2018-06-29 11:15:39.531250,220.12,70.7
289522,2018-06-29 11:15:39.562500,196.24,70.7
289523,2018-06-29 11:15:39.593750,176.11,70.7
289524,2018-06-29 11:15:39.625000,146.9,70.7
289525,2018-06-29 11:15:39.656250,102.41,70.7
289526,2018-06-29 11:15:39.687500,51.13,70.7
289527,2018-06-29 11:15:39.718750,3.05,70.7
289528,2018-06-29 11:15:39.750000,-39.58,70.7
289529,2018-06-29 11:15:39.781250,-86.29,70.7
289530,2018-06-29 11:15:39.812500,-125.06,70.7
289531,2018-06-29 11:15:39.843750,-141.91,70.7
289532,2018-06-29 11:15:39.875000,-136.53,70.7
289533,2018-06-29 11:15:39.906250,-138.79,70.7
289534,2018-06-29 11:15:39.937500,-157.86,70.7
289535,2018-06-29 11:15:39.968750,-160.62,70.7
289536,2018-06-29 11:15:40.000000,-145.67,70.7
289537,2018-06-29 11:15:40.031250,-144.79,70.7
289538,2018-06-29 11:15:40.062500,-224.89,70.7
289539,2018-06-29 11:15:40.093750,-329.82,70.7
289540,2018-06-29 11:15:40.125000,-405.29,70.7
289541,2018-06-29 11:15:40.156250,-460.59,70.7
289542,2018-06-29 11:15:40.187500,-588.99,70.7
289543,2018-06-29 11:15:40.218750,-799.61,70.7
289544,2018-06-29 11:15:40.250000,-962.36,70.7
289545,2018-06-29 11:15:40.281250,-1049.63,70.7
289546,2018-06-29 11:15:40.312500,-1119.29,70.7
289547,2018-06-29 11:15:40.343750,-1307.16,70.7
289548,2018-06-29 11:15:40.375000,-1510.75,70.7
289549,2018-06-29 11:15:40.406250,-1626.95,70.7
289550,2018-06-29 11:15:40.437500,-1484.18,70.7
289551,2018-06-29 11:15:40.468750,-550.61,70.7
289552,2018-06-29 11:15:40.500000,347.56,70.7
289553,2018-06-29 11:15:40.531250,727.47,70.65
289554,2018-06-29 11:15:40.562500,799.22,70.65
289555,2018-06-29 11:15:40.593750,788.63,70.65
289556,2018-06-29 11:15:40.625000,674.46,70.65
289557,2018-06-29 11:15:40.656250,574.91,70.65
289558,2018-06-29 11:15:40.687500,577.01,70.65
289559,2018-06-29 11:15:40.718750,641.93,70.65
289560,2018-06-29 11:15:40.750000,667.86,70.65
289561,2018-06-29 11:15:40.781250,628.22,70.65
289562,2018-06-29 11:15:40.812500,606.63,70.65
289563,2018-06-29 11:15:40.843750,609.01,70.65
289564,2018-06-29 11:15:40.875000,605.11,70.65
289565,2018-06-29 11:15:40.906250,541.53,70.65
289566,2018-06-29 11:15:40.937500,460.09,70.65
289567,2018-06-29 11:15:40.968750,399.83,70.65
289568,2018-06-29 11:15:41.000000,339.29,70.65
289569,2018-06-29 11:15:41.031250,190.28,70.65
289570,2018-06-29 11:15:41.062500,34.32,70.65
289571,2018-06-29 11:15:41.093750,-58.3,70.65
289572,2018-06-29 11:15:41.125000,-94.03,70.65
289573,2018-06-29 11:15:41.156250,-78.89,70.65
289574,2018-06-29 11:15:41.187500,-43.37,70.65
289575,2018-06-29 11:15:41.218750,-39.94,70.65
289576,2018-06-29 11:15:41.250000,-73.39,70.65
289577,2018-06-29 11:15:41.281250,-95.74,70.65
289578,2018-06-29 11:15:41.312500,-60.83,70.65
289579,2018-06-29 11:15:41.343750,13.88,70.65
289580,2018-06-29 11:15:41.375000,82.53,70.65
289581,2018-06-29 11:15:41.406250,129.22,70.65
289582,2018-06-29 11:15:41.437500,168.64,70.65
289583,2018-06-29 11:15:41.468750,215.1,70.65
289584,2018-06-29 11:15:41.500000,253.87,70.65
289585,2018-06-29 11:15:41.531250,259.77,70.57
289586,2018-06-29 11:15:41.562500,216.78,70.57
289587,2018-06-29 11:15:41.593750,128.27,70.57
289588,2018-06-29 11:15:41.625000,14.28,70.57
289589,2018-06-29 11:15:41.656250,-103.99,70.57
289590,2018-06-29 11:15:41.687500,-209.24,70.57
289591,2018-06-29 11:15:41.718750,-278.27,70.57
289592,2018-06-29 11:15:41.750000,-275.25,70.57
289593,2018-06-29 11:15:41.781250,-186.68,70.57
289594,2018-06-29 11:15:41.812500,-51.51,70.57
289595,2018-06-29 11:15:41.843750,77.08,70.57
289596,2018-06-29 11:15:41.875000,182.65,70.57
289597,2018-06-29 11:15:41.906250,266.67,70.57
289598,2018-06-29 11:15:41.937500,307.22,70.57
289599,2018-06-29 11:15:41.968750,281.0,70.57
289600,2018-06-29 11:15:42.000000,204.56,70.57
289601,2018-06-29 11:15:42.031250,118.28,70.57
289602,2018-06-29 11:15:42.062500,43.85,70.57
289603,2018-06-29 11:15:42.093750,-18.39,70.57
289604,2018-06-29 11:15:42.125000,-60.1,70.57
289605,2018-06-29 11:15:42.156250,-67.83,70.57
289606,2018-06-29 11:15:42.187500,-52.71,70.57
289607,2018-06-29 11:15:42.218750,-43.56,70.57
289608,2018-06-29 11:15:42.250000,-47.07,70.57
289609,2018-06-29 11:15:42.281250,-49.12,70.57
289610,2018-06-29 11:15:42.312500,-56.77,70.57
289611,2018-06-29 11:15:42.343750,-98.25,70.57
289612,2018-06-29 11:15:42.375000,-177.81,70.57
289613,2018-06-29 11:15:42.406250,-260.63,70.57
289614,2018-06-29 11:15:42.437500,-300.56,70.57
289615,2018-06-29 11:15:42.468750,-272.03,70.57
289616,2018-06-29 11:15:42.500000,-191.32,70.57
289617,2018-06-29 11:15:42.531250,-113.53,70.5
289618,2018-06-29 11:15:42.562500,-87.57,70.5
289619,2018-06-29 11:15:42.593750,-110.44,70.5
289620,2018-06-29 11:15:42.625000,-138.66,70.5
289621,2018-06-29 11:15:42.656250,-136.62,70.5
289622,2018-06-29 11:15:42.687500,-103.63,70.5
289623,2018-06-29 11:15:42.718750,-66.84,70.5
289624,2018-06-29 11:15:42.750000,-60.12,70.5
289625,2018-06-29 11:15:42.781250,-90.82,70.5
289626,2018-06-29 11:15:42.812500,-122.28,70.5
289627,2018-06-29 11:15:42.843750,-111.19,70.5
289628,2018-06-29 11:15:42.875000,-56.62,70.5
289629,2018-06-29 11:15:42.906250,9.65,70.5
289630,2018-06-29 11:15:42.937500,64.01,70.5
289631,2018-06-29 11:15:42.968750,99.72,70.5
289632,2018-06-29 11:15:43.000000,113.96,70.5
289633,2018-06-29 11:15:43.031250,109.7,70.5
289634,2018-06-29 11:15:43.062500,100.92,70.5
289635,2018-06-29 11:15:43.093750,103.24,70.5
289636,2018-06-29 11:15:43.125000,121.22,70.5
289637,2018-06-29 11:15:43.156250,147.21,70.5
289638,2018-06-29 11:15:43.187500,170.01,70.5
289639,2018-06-29 11:15:43.218750,182.66,70.5
289640,2018-06-29 11:15:43.250000,181.75,70.5
289641,2018-06-29 11:15:43.281250,162.61,70.5
289642,2018-06-29 11:15:43.312500,123.79,70.5
289643,2018-06-29 11:15:43.343750,77.46,70.5
289644,2018-06-29 11:15:43.375000,42.28,70.5
289645,2018-06-29 11:15:43.406250,23.55,70.5
289646,2018-06-29 11:15:43.437500,11.9,70.5
289647,2018-06-29 11:15:43.468750,-2.07,70.5
289648,2018-06-29 11:15:43.500000,-24.08,70.5
289649,2018-06-29 11:15:43.531250,-57.74,70.47
289650,2018-06-29 11:15:43.562500,-91.63,70.47
289651,2018-06-29 11:15:43.593750,-96.61,70.47
289652,2018-06-29 11:15:43.625000,-58.17,70.47
289653,2018-06-29 11:15:43.656250,-0.16,70.47
289654,2018-06-29 11:15:43.687500,42.66,70.47
289655,2018-06-29 11:15:43.718750,61.66,70.47
289656,2018-06-29 11:15:43.750000,67.33,70.47
289657,2018-06-29 11:15:43.781250,64.69,70.47
289658,2018-06-29 11:15:43.812500,54.67,70.47
289659,2018-06-29 11:15:43.843750,45.56,70.47
289660,2018-06-29 11:15:43.875000,45.98,70.47
289661,2018-06-29 11:15:43.906250,52.52,70.47
289662,2018-06-29 11:15:43.937500,55.92,70.47
289663,2018-06-29 11:15:43.968750,53.87,70.47
289664,2018-06-29 11:15:44.000000,47.14,70.47
289665,2018-06-29 11:15:44.031250,31.69,70.47
289666,2018-06-29 11:15:44.062500,4.81,70.47
289667,2018-06-29 11:15:44.093750,-27.26,70.47
289668,2018-06-29 11:15:44.125000,-53.78,70.47
289669,2018-06-29 11:15:44.156250,-69.02,70.47
289670,2018-06-29 11:15:44.187500,-77.07,70.47
289671,2018-06-29 11:15:44.218750,-86.31,70.47
289672,2018-06-29 11:15:44.250000,-97.96,70.47
289673,2018-06-29 11:15:44.281250,-105.27,70.47
289674,2018-06-29 11:15:44.312500,-105.9,70.47
289675,2018-06-29 11:15:44.343750,-107.28,70.47
289676,2018-06-29 11:15:44.375000,-118.6,70.47
289677,2018-06-29 11:15:44.406250,-141.82,70.47
289678,2018-06-29 11:15:44.437500,-163.12,70.47
289679,2018-06-29 11:15:44.468750,-151.46,70.47
289680,2018-06-29 11:15:44.500000,-87.87,70.47
289681,2018-06-29 11:15:44.531250,2.29,70.57
289682,2018-06-29 11:15:44.562500,71.79,70.57
289683,2018-06-29 11:15:44.593750,101.55,70.57
289684,2018-06-29 11:15:44.625000,102.47,70.57
289685,2018-06-29 11:15:44.656250,85.35,70.57
289686,2018-06-29 11:15:44.687500,57.96,70.57
289687,2018-06-29 11:15:44.718750,33.95,70.57
289688,2018-06-29 11:15:44.750000,21.03,70.57
289689,2018-06-29 11:15:44.781250,12.81,70.57
289690,2018-06-29 11:15:44.812500,1.66,70.57
289691,2018-06-29 11:15:44.843750,-10.43,70.57
289692,2018-06-29 11:15:44.875000,-18.95,70.57
289693,2018-06-29 11:15:44.906250,-23.78,70.57
289694,2018-06-29 11:15:44.937500,-28.23,70.57
289695,2018-06-29 11:15:44.968750,-34.88,70.57
289696,2018-06-29 11:15:45.000000,-43.42,70.57
289697,2018-06-29 11:15:45.031250,-53.55,70.57
289698,2018-06-29 11:15:45.062500,-66.26,70.57
289699,2018-06-29 11:15:45.093750,-81.8,70.57
289700,2018-06-29 11:15:45.125000,-95.25,70.57
289701,2018-06-29 11:15:45.156250,-102.69,70.57
289702,2018-06-29 11:15:45.187500,-106.88,70.57
289703,2018-06-29 11:15:45.218750,-113.49,70.57
289704,2018-06-29 11:15:45.250000,-120.32,70.57
289705,2018-06-29 11:15:45.281250,-122.6,70.57
289706,2018-06-29 11:15:45.312500,-130.13,70.57
289707,2018-06-29 11:15:45.343750,-148.75,70.57
289708,2018-06-29 11:15:45.375000,-161.47,70.57
289709,2018-06-29 11:15:45.406250,-138.34,70.57
289710,2018-06-29 11:15:45.437500,-88.12,70.57
289711,2018-06-29 11:15:45.468750,-43.49,70.57
289712,2018-06-29 11:15:45.500000,-15.6,70.57
289713,2018-06-29 11:15:45.531250,10.01,70.62
289714,2018-06-29 11:15:45.562500,38.99,70.62
289715,2018-06-29 11:15:45.593750,46.42,70.62
289716,2018-06-29 11:15:45.625000,29.72,70.62
289717,2018-06-29 11:15:45.656250,18.96,70.62
289718,2018-06-29 11:15:45.687500,67.95,70.62
289719,2018-06-29 11:15:45.718750,185.68,70.62
289720,2018-06-29 11:15:45.750000,334.15,70.62
289721,2018-06-29 11:15:45.781250,451.51,70.62
289722,2018-06-29 11:15:45.812500,399.94,70.62
289723,2018-06-29 11:15:45.843750,245.85,70.62
289724,2018-06-29 11:15:45.875000,112.71,70.62
289725,2018-06-29 11:15:45.906250,16.29,70.62
289726,2018-06-29 11:15:45.937500,-46.38,70.62
289727,2018-06-29 11:15:45.968750,-67.18,70.62
289728,2018-06-29 11:15:46.000000,-70.09,70.62
289729,2018-06-29 11:15:46.031250,-83.2,70.62
289730,2018-06-29 11:15:46.062500,-103.97,70.62
289731,2018-06-29 11:15:46.093750,-114.69,70.62
289732,2018-06-29 11:15:46.125000,-109.7,70.62
289733,2018-06-29 11:15:46.156250,-104.45,70.62
289734,2018-06-29 11:15:46.187500,-116.44,70.62
289735,2018-06-29 11:15:46.218750,-136.05,70.62
289736,2018-06-29 11:15:46.250000,-139.21,70.62
289737,2018-06-29 11:15:46.281250,-110.05,70.62
289738,2018-06-29 11:15:46.312500,-57.69,70.62
289739,2018-06-29 11:15:46.343750,-5.05,70.62
289740,2018-06-29 11:15:46.375000,43.25,70.62
289741,2018-06-29 11:15:46.406250,78.08,70.62
289742,2018-06-29 11:15:46.437500,109.0,70.62
289743,2018-06-29 11:15:46.468750,124.89,70.62
289744,2018-06-29 11:15:46.500000,145.56,70.62
289745,2018-06-29 11:15:46.531250,171.45,70.65
289746,2018-06-29 11:15:46.562500,147.65,70.65
289747,2018-06-29 11:15:46.593750,180.75,70.65
289748,2018-06-29 11:15:46.625000,255.03,70.65
289749,2018-06-29 11:15:46.656250,363.67,70.65
289750,2018-06-29 11:15:46.687500,449.92,70.65
289751,2018-06-29 11:15:46.718750,493.56,70.65
289752,2018-06-29 11:15:46.750000,444.85,70.65
289753,2018-06-29 11:15:46.781250,202.53,70.65
289754,2018-06-29 11:15:46.812500,-32.82,70.65
289755,2018-06-29 11:15:46.843750,-208.3,70.65
289756,2018-06-29 11:15:46.875000,-355.61,70.65
289757,2018-06-29 11:15:46.906250,-468.98,70.65
289758,2018-06-29 11:15:46.937500,-516.68,70.65
289759,2018-06-29 11:15:46.968750,-522.61,70.65
289760,2018-06-29 11:15:47.000000,-499.62,70.65
289761,2018-06-29 11:15:47.031250,-462.29,70.65
289762,2018-06-29 11:15:47.062500,-404.45,70.65
289763,2018-06-29 11:15:47.093750,-322.72,70.65
289764,2018-06-29 11:15:47.125000,-223.85,70.65
289765,2018-06-29 11:15:47.156250,-97.03,70.65
289766,2018-06-29 11:15:47.187500,46.57,70.65
289767,2018-06-29 11:15:47.218750,188.67,70.65
289768,2018-06-29 11:15:47.250000,293.22,70.65
289769,2018-06-29 11:15:47.281250,347.24,70.65
289770,2018-06-29 11:15:47.312500,351.18,70.65
289771,2018-06-29 11:15:47.343750,317.16,70.65
289772,2018-06-29 11:15:47.375000,265.07,70.65
289773,2018-06-29 11:15:47.406250,211.65,70.65
289774,2018-06-29 11:15:47.437500,172.21,70.65
289775,2018-06-29 11:15:47.468750,149.05,70.65
289776,2018-06-29 11:15:47.500000,138.97,70.65
289777,2018-06-29 11:15:47.531250,132.88,70.7
289778,2018-06-29 11:15:47.562500,122.43,70.7
289779,2018-06-29 11:15:47.593750,102.54,70.7
289780,2018-06-29 11:15:47.625000,74.34,70.7
289781,2018-06-29 11:15:47.656250,45.91,70.7
289782,2018-06-29 11:15:47.687500,23.46,70.7
289783,2018-06-29 11:15:47.718750,3.53,70.7
289784,2018-06-29 11:15:47.750000,-21.74,70.7
289785,2018-06-29 11:15:47.781250,-52.63,70.7
289786,2018-06-29 11:15:47.812500,-82.0,70.7
289787,2018-06-29 11:15:47.843750,-106.72,70.7
289788,2018-06-29 11:15:47.875000,-130.53,70.7
289789,2018-06-29 11:15:47.906250,-155.45,70.7
289790,2018-06-29 11:15:47.937500,-175.92,70.7
289791,2018-06-29 11:15:47.968750,-180.22,70.7
289792,2018-06-29 11:15:48.000000,-156.79,70.7
289793,2018-06-29 11:15:48.031250,-104.68,70.7
289794,2018-06-29 11:15:48.062500,-38.26,70.7
289795,2018-06-29 11:15:48.093750,22.41,70.7
289796,2018-06-29 11:15:48.125000,63.85,70.7
289797,2018-06-29 11:15:48.156250,80.84,70.7
289798,2018-06-29 11:15:48.187500,74.73,70.7
289799,2018-06-29 11:15:48.218750,54.51,70.7
289800,2018-06-29 11:15:48.250000,32.98,70.7
289801,2018-06-29 11:15:48.281250,18.62,70.7
289802,2018-06-29 11:15:48.312500,12.71,70.7
289803,2018-06-29 11:15:48.343750,13.2,70.7
289804,2018-06-29 11:15:48.375000,17.9,70.7
289805,2018-06-29 11:15:48.406250,24.12,70.7
289806,2018-06-29 11:15:48.437500,28.36,70.7
289807,2018-06-29 11:15:48.468750,28.42,70.7
289808,2018-06-29 11:15:48.500000,24.42,70.7
289809,2018-06-29 11:15:48.531250,16.8,70.63
289810,2018-06-29 11:15:48.562500,4.97,70.63
289811,2018-06-29 11:15:48.593750,-9.88,70.63
289812,2018-06-29 11:15:48.625000,-23.64,70.63
289813,2018-06-29 11:15:48.656250,-33.33,70.63
289814,2018-06-29 11:15:48.687500,-40.5,70.63
289815,2018-06-29 11:15:48.718750,-49.11,70.63
289816,2018-06-29 11:15:48.750000,-59.5,70.63
289817,2018-06-29 11:15:48.781250,-63.11,70.63
289818,2018-06-29 11:15:48.812500,-47.79,70.63
289819,2018-06-29 11:15:48.843750,-11.74,70.63
289820,2018-06-29 11:15:48.875000,32.99,70.63
289821,2018-06-29 11:15:48.906250,72.71,70.63
289822,2018-06-29 11:15:48.937500,99.19,70.63
289823,2018-06-29 11:15:48.968750,107.17,70.63
289824,2018-06-29 11:15:49.000000,95.67,70.63
289825,2018-06-29 11:15:49.031250,70.74,70.63
289826,2018-06-29 11:15:49.062500,40.26,70.63
289827,2018-06-29 11:15:49.093750,9.18,70.63
289828,2018-06-29 11:15:49.125000,-19.04,70.63
289829,2018-06-29 11:15:49.156250,-41.01,70.63
289830,2018-06-29 11:15:49.187500,-52.91,70.63
289831,2018-06-29 11:15:49.218750,-51.82,70.63
289832,2018-06-29 11:15:49.250000,-41.56,70.63
289833,2018-06-29 11:15:49.281250,-31.96,70.63
289834,2018-06-29 11:15:49.312500,-26.21,70.63
289835,2018-06-29 11:15:49.343750,-16.92,70.63
289836,2018-06-29 11:15:49.375000,0.71,70.63
289837,2018-06-29 11:15:49.406250,19.75,70.63
289838,2018-06-29 11:15:49.437500,27.13,70.63
289839,2018-06-29 11:15:49.468750,12.93,70.63
289840,2018-06-29 11:15:49.500000,-24.8,70.63
289841,2018-06-29 11:15:49.531250,-79.01,70.57
289842,2018-06-29 11:15:49.562500,-133.84,70.57
289843,2018-06-29 11:15:49.593750,-167.62,70.57
289844,2018-06-29 11:15:49.625000,-165.12,70.57
289845,2018-06-29 11:15:49.656250,-131.39,70.57
289846,2018-06-29 11:15:49.687500,-86.91,70.57
289847,2018-06-29 11:15:49.718750,-48.18,70.57
289848,2018-06-29 11:15:49.750000,-20.0,70.57
289849,2018-06-29 11:15:49.781250,-2.17,70.57
289850,2018-06-29 11:15:49.812500,6.57,70.57
289851,2018-06-29 11:15:49.843750,9.94,70.57
289852,2018-06-29 11:15:49.875000,13.14,70.57
289853,2018-06-29 11:15:49.906250,19.01,70.57
289854,2018-06-29 11:15:49.937500,26.43,70.57
289855,2018-06-29 11:15:49.968750,33.4,70.57
289856,2018-06-29 11:15:50.000000,39.58,70.57
289857,2018-06-29 11:15:50.031250,45.01,70.57
289858,2018-06-29 11:15:50.062500,48.2,70.57
289859,2018-06-29 11:15:50.093750,47.82,70.57
289860,2018-06-29 11:15:50.125000,44.53,70.57
289861,2018-06-29 11:15:50.156250,39.56,70.57
289862,2018-06-29 11:15:50.187500,32.64,70.57
289863,2018-06-29 11:15:50.218750,23.03,70.57
289864,2018-06-29 11:15:50.250000,10.74,70.57
289865,2018-06-29 11:15:50.281250,-4.53,70.57
289866,2018-06-29 11:15:50.312500,-22.36,70.57
289867,2018-06-29 11:15:50.343750,-37.04,70.57
289868,2018-06-29 11:15:50.375000,-39.07,70.57
289869,2018-06-29 11:15:50.406250,-24.84,70.57
289870,2018-06-29 11:15:50.437500,-1.38,70.57
289871,2018-06-29 11:15:50.468750,20.74,70.57
289872,2018-06-29 11:15:50.500000,35.47,70.57
289873,2018-06-29 11:15:50.531250,41.35,70.45
289874,2018-06-29 11:15:50.562500,39.53,70.45
289875,2018-06-29 11:15:50.593750,34.19,70.45
289876,2018-06-29 11:15:50.625000,30.73,70.45
289877,2018-06-29 11:15:50.656250,31.33,70.45
289878,2018-06-29 11:15:50.687500,33.46,70.45
289879,2018-06-29 11:15:50.718750,33.91,70.45
289880,2018-06-29 11:15:50.750000,32.52,70.45
289881,2018-06-29 11:15:50.781250,30.65,70.45
289882,2018-06-29 11:15:50.812500,27.95,70.45
289883,2018-06-29 11:15:50.843750,22.83,70.45
289884,2018-06-29 11:15:50.875000,15.5,70.45
289885,2018-06-29 11:15:50.906250,7.88,70.45
289886,2018-06-29 11:15:50.937500,0.23,70.45
289887,2018-06-29 11:15:50.968750,-9.45,70.45
289888,2018-06-29 11:15:51.000000,-23.05,70.45
289889,2018-06-29 11:15:51.031250,-40.65,70.45
289890,2018-06-29 11:15:51.062500,-58.98,70.45
289891,2018-06-29 11:15:51.093750,-70.58,70.45
289892,2018-06-29 11:15:51.125000,-69.36,70.45
289893,2018-06-29 11:15:51.156250,-58.16,70.45
289894,2018-06-29 11:15:51.187500,-45.91,70.45
289895,2018-06-29 11:15:51.218750,-38.74,70.45
289896,2018-06-29 11:15:51.250000,-38.7,70.45
289897,2018-06-29 11:15:51.281250,-46.56,70.45
289898,2018-06-29 11:15:51.312500,-59.81,70.45
289899,2018-06-29 11:15:51.343750,-71.72,70.45
289900,2018-06-29 11:15:51.375000,-76.82,70.45
289901,2018-06-29 11:15:51.406250,-73.89,70.45
289902,2018-06-29 11:15:51.437500,-62.31,70.45
289903,2018-06-29 11:15:51.468750,-40.26,70.45
289904,2018-06-29 11:15:51.500000,-8.67,70.45
289905,2018-06-29 11:15:51.531250,25.95,70.37
289906,2018-06-29 11:15:51.562500,55.24,70.37
289907,2018-06-29 11:15:51.593750,75.3,70.37
289908,2018-06-29 11:15:51.625000,87.42,70.37
289909,2018-06-29 11:15:51.656250,93.52,70.37
289910,2018-06-29 11:15:51.687500,94.29,70.37
289911,2018-06-29 11:15:51.718750,91.78,70.37
289912,2018-06-29 11:15:51.750000,90.0,70.37
289913,2018-06-29 11:15:51.781250,94.08,70.37
289914,2018-06-29 11:15:51.812500,108.77,70.37
289915,2018-06-29 11:15:51.843750,133.44,70.37
289916,2018-06-29 11:15:51.875000,159.95,70.37
289917,2018-06-29 11:15:51.906250,180.43,70.37
289918,2018-06-29 11:15:51.937500,193.51,70.37
289919,2018-06-29 11:15:51.968750,199.31,70.37
289920,2018-06-29 11:15:52.000000,195.22,70.37
289921,2018-06-29 11:15:52.031250,180.78,70.37
289922,2018-06-29 11:15:52.062500,158.76,70.37
289923,2018-06-29 11:15:52.093750,129.4,70.37
289924,2018-06-29 11:15:52.125000,91.0,70.37
289925,2018-06-29 11:15:52.156250,46.2,70.37
289926,2018-06-29 11:15:52.187500,1.88,70.37
289927,2018-06-29 11:15:52.218750,-36.77,70.37
289928,2018-06-29 11:15:52.250000,-69.11,70.37
289929,2018-06-29 11:15:52.281250,-97.99,70.37
289930,2018-06-29 11:15:52.312500,-127.0,70.37
289931,2018-06-29 11:15:52.343750,-156.63,70.37
289932,2018-06-29 11:15:52.375000,-182.94,70.37
289933,2018-06-29 11:15:52.406250,-201.66,70.37
289934,2018-06-29 11:15:52.437500,-211.68,70.37
289935,2018-06-29 11:15:52.468750,-210.63,70.37
289936,2018-06-29 11:15:52.500000,-191.81,70.37
289937,2018-06-29 11:15:52.531250,-154.16,70.25
289938,2018-06-29 11:15:52.562500,-110.99,70.25
289939,2018-06-29 11:15:52.593750,-77.36,70.25
289940,2018-06-29 11:15:52.625000,-52.5,70.25
289941,2018-06-29 11:15:52.656250,-25.39,70.25
289942,2018-06-29 11:15:52.687500,5.77,70.25
289943,2018-06-29 11:15:52.718750,30.59,70.25
289944,2018-06-29 11:15:52.750000,40.97,70.25
289945,2018-06-29 11:15:52.781250,39.89,70.25
289946,2018-06-29 11:15:52.812500,36.23,70.25
289947,2018-06-29 11:15:52.843750,35.69,70.25
289948,2018-06-29 11:15:52.875000,38.15,70.25
289949,2018-06-29 11:15:52.906250,42.36,70.25
289950,2018-06-29 11:15:52.937500,50.14,70.25
289951,2018-06-29 11:15:52.968750,62.82,70.25
289952,2018-06-29 11:15:53.000000,76.12,70.25
289953,2018-06-29 11:15:53.031250,83.61,70.25
289954,2018-06-29 11:15:53.062500,83.92,70.25
289955,2018-06-29 11:15:53.093750,77.68,70.25
289956,2018-06-29 11:15:53.125000,59.79,70.25
289957,2018-06-29 11:15:53.156250,24.15,70.25
289958,2018-06-29 11:15:53.187500,-23.61,70.25
289959,2018-06-29 11:15:53.218750,-66.54,70.25
289960,2018-06-29 11:15:53.250000,-91.2,70.25
289961,2018-06-29 11:15:53.281250,-97.51,70.25
289962,2018-06-29 11:15:53.312500,-94.66,70.25
289963,2018-06-29 11:15:53.343750,-91.11,70.25
289964,2018-06-29 11:15:53.375000,-90.14,70.25
289965,2018-06-29 11:15:53.406250,-92.59,70.25
289966,2018-06-29 11:15:53.437500,-99.9,70.25
289967,2018-06-29 11:15:53.468750,-111.56,70.25
289968,2018-06-29 11:15:53.500000,-119.97,70.25
289969,2018-06-29 11:15:53.531250,-113.24,70.13
289970,2018-06-29 11:15:53.562500,-87.48,70.13
289971,2018-06-29 11:15:53.593750,-52.32,70.13
289972,2018-06-29 11:15:53.625000,-21.29,70.13
289973,2018-06-29 11:15:53.656250,-1.29,70.13
289974,2018-06-29 11:15:53.687500,6.69,70.13
289975,2018-06-29 11:15:53.718750,4.07,70.13
289976,2018-06-29 11:15:53.750000,-4.4,70.13
289977,2018-06-29 11:15:53.781250,-11.33,70.13
289978,2018-06-29 11:15:53.812500,-13.52,70.13
289979,2018-06-29 11:15:53.843750,-16.24,70.13
289980,2018-06-29 11:15:53.875000,-26.05,70.13
289981,2018-06-29 11:15:53.906250,-41.04,70.13
289982,2018-06-29 11:15:53.937500,-54.32,70.13
289983,2018-06-29 11:15:53.968750,-65.24,70.13
289984,2018-06-29 11:15:54.000000,-79.72,70.13
289985,2018-06-29 11:15:54.031250,-99.85,70.13
289986,2018-06-29 11:15:54.062500,-117.47,70.13
289987,2018-06-29 11:15:54.093750,-118.46,70.13
289988,2018-06-29 11:15:54.125000,-94.64,70.13
289989,2018-06-29 11:15:54.156250,-52.24,70.13
289990,2018-06-29 11:15:54.187500,-6.65,70.13
289991,2018-06-29 11:15:54.218750,30.78,70.13
289992,2018-06-29 11:15:54.250000,57.43,70.13
289993,2018-06-29 11:15:54.281250,73.99,70.13
289994,2018-06-29 11:15:54.312500,81.63,70.13
289995,2018-06-29 11:15:54.343750,84.14,70.13
289996,2018-06-29 11:15:54.375000,86.84,70.13
289997,2018-06-29 11:15:54.406250,91.92,70.13
289998,2018-06-29 11:15:54.437500,97.22,70.13
289999,2018-06-29 11:15:54.468750,99.99,70.13
290000,2018-06-29 11:15:54.500000,99.11,70.13
290001,2018-06-29 11:15:54.531250,94.1,70.02
290002,2018-06-29 11:15:54.562500,85.33,70.02
290003,2018-06-29 11:15:54.593750,75.25,70.02
290004,2018-06-29 11:15:54.625000,66.81,70.02
290005,2018-06-29 11:15:54.656250,60.12,70.02
290006,2018-06-29 11:15:54.687500,52.19,70.02
290007,2018-06-29 11:15:54.718750,40.47,70.02
290008,2018-06-29 11:15:54.750000,25.17,70.02
290009,2018-06-29 11:15:54.781250,8.1,70.02
290010,2018-06-29 11:15:54.812500,-9.04,70.02
290011,2018-06-29 11:15:54.843750,-25.26,70.02
290012,2018-06-29 11:15:54.875000,-40.73,70.02
290013,2018-06-29 11:15:54.906250,-57.4,70.02
290014,2018-06-29 11:15:54.937500,-76.21,70.02
290015,2018-06-29 11:15:54.968750,-90.76,70.02
290016,2018-06-29 11:15:55.000000,-87.67,70.02
290017,2018-06-29 11:15:55.031250,-59.8,70.02
290018,2018-06-29 11:15:55.062500,-16.56,70.02
290019,2018-06-29 11:15:55.093750,24.97,70.02
290020,2018-06-29 11:15:55.125000,55.03,70.02
290021,2018-06-29 11:15:55.156250,72.74,70.02
290022,2018-06-29 11:15:55.187500,79.75,70.02
290023,2018-06-29 11:15:55.218750,79.18,70.02
290024,2018-06-29 11:15:55.250000,76.11,70.02
290025,2018-06-29 11:15:55.281250,74.16,70.02
290026,2018-06-29 11:15:55.312500,73.71,70.02
290027,2018-06-29 11:15:55.343750,74.32,70.02
290028,2018-06-29 11:15:55.375000,75.85,70.02
290029,2018-06-29 11:15:55.406250,76.87,70.02
290030,2018-06-29 11:15:55.437500,74.47,70.02
290031,2018-06-29 11:15:55.468750,66.69,70.02
290032,2018-06-29 11:15:55.500000,54.58,70.02
290033,2018-06-29 11:15:55.531250,42.16,69.88
290034,2018-06-29 11:15:55.562500,32.57,69.88
290035,2018-06-29 11:15:55.593750,24.31,69.88
290036,2018-06-29 11:15:55.625000,14.13,69.88
290037,2018-06-29 11:15:55.656250,2.96,69.88
290038,2018-06-29 11:15:55.687500,-5.78,69.88
290039,2018-06-29 11:15:55.718750,-12.52,69.88
290040,2018-06-29 11:15:55.750000,-21.06,69.88
290041,2018-06-29 11:15:55.781250,-32.44,69.88
290042,2018-06-29 11:15:55.812500,-44.14,69.88
290043,2018-06-29 11:15:55.843750,-54.52,69.88
290044,2018-06-29 11:15:55.875000,-64.89,69.88
290045,2018-06-29 11:15:55.906250,-77.43,69.88
290046,2018-06-29 11:15:55.937500,-91.15,69.88
290047,2018-06-29 11:15:55.968750,-97.58,69.88
290048,2018-06-29 11:15:56.000000,-84.26,69.88
290049,2018-06-29 11:15:56.031250,-48.52,69.88
290050,2018-06-29 11:15:56.062500,-3.4,69.88
290051,2018-06-29 11:15:56.093750,34.74,69.88
290052,2018-06-29 11:15:56.125000,58.9,69.88
290053,2018-06-29 11:15:56.156250,69.93,69.88
290054,2018-06-29 11:15:56.187500,70.55,69.88
290055,2018-06-29 11:15:56.218750,64.65,69.88
290056,2018-06-29 11:15:56.250000,57.44,69.88
290057,2018-06-29 11:15:56.281250,52.52,69.88
290058,2018-06-29 11:15:56.312500,49.9,69.88
290059,2018-06-29 11:15:56.343750,48.36,69.88
290060,2018-06-29 11:15:56.375000,48.0,69.88
290061,2018-06-29 11:15:56.406250,48.24,69.88
290062,2018-06-29 11:15:56.437500,46.31,69.88
290063,2018-06-29 11:15:56.468750,40.3,69.88
290064,2018-06-29 11:15:56.500000,31.8,69.88
290065,2018-06-29 11:15:56.531250,23.65,69.75
290066,2018-06-29 11:15:56.562500,16.68,69.75
290067,2018-06-29 11:15:56.593750,9.74,69.75
290068,2018-06-29 11:15:56.625000,1.8,69.75
290069,2018-06-29 11:15:56.656250,-6.41,69.75
290070,2018-06-29 11:15:56.687500,-13.1,69.75
290071,2018-06-29 11:15:56.718750,-18.03,69.75
290072,2018-06-29 11:15:56.750000,-22.94,69.75
290073,2018-06-29 11:15:56.781250,-28.99,69.75
290074,2018-06-29 11:15:56.812500,-35.39,69.75
290075,2018-06-29 11:15:56.843750,-40.89,69.75
290076,2018-06-29 11:15:56.875000,-45.51,69.75
290077,2018-06-29 11:15:56.906250,-51.31,69.75
290078,2018-06-29 11:15:56.937500,-60.43,69.75
290079,2018-06-29 11:15:56.968750,-69.14,69.75
290080,2018-06-29 11:15:57.000000,-66.95,69.75
290081,2018-06-29 11:15:57.031250,-47.55,69.75
290082,2018-06-29 11:15:57.062500,-17.7,69.75
290083,2018-06-29 11:15:57.093750,9.75,69.75
290084,2018-06-29 11:15:57.125000,27.74,69.75
290085,2018-06-29 11:15:57.156250,36.01,69.75
290086,2018-06-29 11:15:57.187500,36.1,69.75
290087,2018-06-29 11:15:57.218750,30.89,69.75
290088,2018-06-29 11:15:57.250000,25.16,69.75
290089,2018-06-29 11:15:57.281250,22.52,69.75
290090,2018-06-29 11:15:57.312500,23.07,69.75
290091,2018-06-29 11:15:57.343750,25.07,69.75
290092,2018-06-29 11:15:57.375000,26.74,69.75
290093,2018-06-29 11:15:57.406250,26.52,69.75
290094,2018-06-29 11:15:57.437500,23.63,69.75
290095,2018-06-29 11:15:57.468750,18.5,69.75
290096,2018-06-29 11:15:57.500000,12.0,69.75
290097,2018-06-29 11:15:57.531250,5.24,69.58
290098,2018-06-29 11:15:57.562500,-0.66,69.58
290099,2018-06-29 11:15:57.593750,-5.64,69.58
290100,2018-06-29 11:15:57.625000,-10.63,69.58
290101,2018-06-29 11:15:57.656250,-16.28,69.58
290102,2018-06-29 11:15:57.687500,-22.36,69.58
290103,2018-06-29 11:15:57.718750,-28.32,69.58
290104,2018-06-29 11:15:57.750000,-33.42,69.58
290105,2018-06-29 11:15:57.781250,-37.76,69.58
290106,2018-06-29 11:15:57.812500,-43.31,69.58
290107,2018-06-29 11:15:57.843750,-51.56,69.58
290108,2018-06-29 11:15:57.875000,-58.52,69.58
290109,2018-06-29 11:15:57.906250,-55.47,69.58
290110,2018-06-29 11:15:57.937500,-38.86,69.58
290111,2018-06-29 11:15:57.968750,-15.4,69.58
290112,2018-06-29 11:15:58.000000,5.64,69.58
290113,2018-06-29 11:15:58.031250,20.35,69.58
290114,2018-06-29 11:15:58.062500,28.12,69.58
290115,2018-06-29 11:15:58.093750,28.71,69.58
290116,2018-06-29 11:15:58.125000,24.38,69.58
290117,2018-06-29 11:15:58.156250,19.81,69.58
290118,2018-06-29 11:15:58.187500,17.64,69.58
290119,2018-06-29 11:15:58.218750,17.03,69.58
290120,2018-06-29 11:15:58.250000,16.78,69.58
290121,2018-06-29 11:15:58.281250,16.86,69.58
290122,2018-06-29 11:15:58.312500,17.26,69.58
290123,2018-06-29 11:15:58.343750,17.14,69.58
290124,2018-06-29 11:15:58.375000,15.26,69.58
290125,2018-06-29 11:15:58.406250,10.9,69.58
290126,2018-06-29 11:15:58.437500,4.91,69.58
290127,2018-06-29 11:15:58.468750,-0.61,69.58
290128,2018-06-29 11:15:58.500000,-4.72,69.58
290129,2018-06-29 11:15:58.531250,-9.04,69.42
290130,2018-06-29 11:15:58.562500,-15.45,69.42
290131,2018-06-29 11:15:58.593750,-23.16,69.42
290132,2018-06-29 11:15:58.625000,-29.59,69.42
290133,2018-06-29 11:15:58.656250,-34.05,69.42
290134,2018-06-29 11:15:58.687500,-38.61,69.42
290135,2018-06-29 11:15:58.718750,-45.24,69.42
290136,2018-06-29 11:15:58.750000,-52.52,69.42
290137,2018-06-29 11:15:58.781250,-54.51,69.42
290138,2018-06-29 11:15:58.812500,-44.99,69.42
290139,2018-06-29 11:15:58.843750,-24.68,69.42
290140,2018-06-29 11:15:58.875000,-2.09,69.42
290141,2018-06-29 11:15:58.906250,14.43,69.42
290142,2018-06-29 11:15:58.937500,22.73,69.42
290143,2018-06-29 11:15:58.968750,24.73,69.42
290144,2018-06-29 11:15:59.000000,22.59,69.42
290145,2018-06-29 11:15:59.031250,18.53,69.42
290146,2018-06-29 11:15:59.062500,15.28,69.42
290147,2018-06-29 11:15:59.093750,14.61,69.42
290148,2018-06-29 11:15:59.125000,15.98,69.42
290149,2018-06-29 11:15:59.156250,17.69,69.42
290150,2018-06-29 11:15:59.187500,18.73,69.42
290151,2018-06-29 11:15:59.218750,18.65,69.42
290152,2018-06-29 11:15:59.250000,16.6,69.42
290153,2018-06-29 11:15:59.281250,12.03,69.42
290154,2018-06-29 11:15:59.312500,6.28,69.42
290155,2018-06-29 11:15:59.343750,1.73,69.42
290156,2018-06-29 11:15:59.375000,-1.35,69.42
290157,2018-06-29 11:15:59.406250,-4.87,69.42
290158,2018-06-29 11:15:59.437500,-9.29,69.42
290159,2018-06-29 11:15:59.468750,-12.67,69.42
290160,2018-06-29 11:15:59.500000,-13.83,69.42
290161,2018-06-29 11:15:59.531250,-13.99,69.28
290162,2018-06-29 11:15:59.562500,-14.87,69.28
290163,2018-06-29 11:15:59.593750,-17.12,69.28
290164,2018-06-29 11:15:59.625000,-18.2,69.28
290165,2018-06-29 11:15:59.656250,-11.44,69.28
290166,2018-06-29 11:15:59.687500,8.46,69.28
290167,2018-06-29 11:15:59.718750,38.07,69.28
290168,2018-06-29 11:15:59.750000,67.73,69.28
290169,2018-06-29 11:15:59.781250,90.87,69.28
290170,2018-06-29 11:15:59.812500,106.63,69.28
290171,2018-06-29 11:15:59.843750,114.54,69.28
290172,2018-06-29 11:15:59.875000,116.21,69.28
290173,2018-06-29 11:15:59.906250,116.92,69.28
290174,2018-06-29 11:15:59.937500,120.65,69.28
290175,2018-06-29 11:15:59.968750,128.59,69.28
290176,2018-06-29 11:16:00.000000,137.7,69.28
290177,2018-06-29 11:16:00.031250,148.19,69.28
290178,2018-06-29 11:16:00.062500,161.25,69.28
290179,2018-06-29 11:16:00.093750,173.42,69.28
290180,2018-06-29 11:16:00.125000,172.52,69.28
290181,2018-06-29 11:16:00.156250,156.09,69.28
290182,2018-06-29 11:16:00.187500,135.69,69.28
290183,2018-06-29 11:16:00.218750,115.18,69.28
290184,2018-06-29 11:16:00.250000,91.92,69.28
290185,2018-06-29 11:16:00.281250,61.27,69.28
290186,2018-06-29 11:16:00.312500,36.36,69.28
290187,2018-06-29 11:16:00.343750,1.71,69.28
290188,2018-06-29 11:16:00.375000,-65.36,69.28
290189,2018-06-29 11:16:00.406250,-173.79,69.28
290190,2018-06-29 11:16:00.437500,-287.92,69.28
290191,2018-06-29 11:16:00.468750,-360.83,69.28
290192,2018-06-29 11:16:00.500000,-402.7,69.28
290193,2018-06-29 11:16:00.531250,-441.24,69.27
290194,2018-06-29 11:16:00.562500,-514.34,69.27
290195,2018-06-29 11:16:00.593750,-571.53,69.27
290196,2018-06-29 11:16:00.625000,-595.26,69.27
290197,2018-06-29 11:16:00.656250,-615.53,69.27
290198,2018-06-29 11:16:00.687500,-700.72,69.27
290199,2018-06-29 11:16:00.718750,-830.75,69.27
290200,2018-06-29 11:16:00.750000,-878.74,69.27
290201,2018-06-29 11:16:00.781250,-801.59,69.27
290202,2018-06-29 11:16:00.812500,-388.89,69.27
290203,2018-06-29 11:16:00.843750,160.32,69.27
290204,2018-06-29 11:16:00.875000,434.47,69.27
290205,2018-06-29 11:16:00.906250,508.64,69.27
290206,2018-06-29 11:16:00.937500,511.62,69.27
290207,2018-06-29 11:16:00.968750,455.55,69.27
290208,2018-06-29 11:16:01.000000,366.55,69.27
290209,2018-06-29 11:16:01.031250,309.74,69.27
290210,2018-06-29 11:16:01.062500,275.64,69.27
290211,2018-06-29 11:16:01.093750,246.76,69.27
290212,2018-06-29 11:16:01.125000,195.79,69.27
290213,2018-06-29 11:16:01.156250,171.15,69.27
290214,2018-06-29 11:16:01.187500,184.69,69.27
290215,2018-06-29 11:16:01.218750,206.4,69.27
290216,2018-06-29 11:16:01.250000,196.84,69.27
290217,2018-06-29 11:16:01.281250,164.41,69.27
290218,2018-06-29 11:16:01.312500,156.94,69.27
290219,2018-06-29 11:16:01.343750,175.59,69.27
290220,2018-06-29 11:16:01.375000,195.42,69.27
290221,2018-06-29 11:16:01.406250,190.35,69.27
290222,2018-06-29 11:16:01.437500,174.8,69.27
290223,2018-06-29 11:16:01.468750,160.77,69.27
290224,2018-06-29 11:16:01.500000,145.19,69.27
290225,2018-06-29 11:16:01.531250,122.09,69.3
290226,2018-06-29 11:16:01.562500,95.3,69.3
290227,2018-06-29 11:16:01.593750,75.59,69.3
290228,2018-06-29 11:16:01.625000,64.39,69.3
290229,2018-06-29 11:16:01.656250,57.39,69.3
290230,2018-06-29 11:16:01.687500,50.62,69.3
290231,2018-06-29 11:16:01.718750,43.21,69.3
290232,2018-06-29 11:16:01.750000,35.73,69.3
290233,2018-06-29 11:16:01.781250,27.23,69.3
290234,2018-06-29 11:16:01.812500,16.1,69.3
290235,2018-06-29 11:16:01.843750,3.33,69.3
290236,2018-06-29 11:16:01.875000,-7.78,69.3
290237,2018-06-29 11:16:01.906250,-15.53,69.3
290238,2018-06-29 11:16:01.937500,-21.81,69.3
290239,2018-06-29 11:16:01.968750,-29.79,69.3
290240,2018-06-29 11:16:02.000000,-39.43,69.3
290241,2018-06-29 11:16:02.031250,-44.11,69.3
290242,2018-06-29 11:16:02.062500,-35.02,69.3
290243,2018-06-29 11:16:02.093750,-12.88,69.3
290244,2018-06-29 11:16:02.125000,9.26,69.3
290245,2018-06-29 11:16:02.156250,19.38,69.3
290246,2018-06-29 11:16:02.187500,16.97,69.3
290247,2018-06-29 11:16:02.218750,7.48,69.3
290248,2018-06-29 11:16:02.250000,-5.56,69.3
290249,2018-06-29 11:16:02.281250,-19.45,69.3
290250,2018-06-29 11:16:02.312500,-29.82,69.3
290251,2018-06-29 11:16:02.343750,-32.84,69.3
290252,2018-06-29 11:16:02.375000,-29.02,69.3
290253,2018-06-29 11:16:02.406250,-23.11,69.3
290254,2018-06-29 11:16:02.437500,-19.3,69.3
290255,2018-06-29 11:16:02.468750,-17.87,69.3
290256,2018-06-29 11:16:02.500000,-17.62,69.3
290257,2018-06-29 11:16:02.531250,-18.38,69.35
290258,2018-06-29 11:16:02.562500,-20.81,69.35
290259,2018-06-29 11:16:02.593750,-27.85,69.35
290260,2018-06-29 11:16:02.625000,-44.25,69.35
290261,2018-06-29 11:16:02.656250,-69.71,69.35
290262,2018-06-29 11:16:02.687500,-96.31,69.35
290263,2018-06-29 11:16:02.718750,-115.73,69.35
290264,2018-06-29 11:16:02.750000,-123.19,69.35
290265,2018-06-29 11:16:02.781250,-114.21,69.35
290266,2018-06-29 11:16:02.812500,-87.68,69.35
290267,2018-06-29 11:16:02.843750,-52.89,69.35
290268,2018-06-29 11:16:02.875000,-23.37,69.35
290269,2018-06-29 11:16:02.906250,-3.81,69.35
290270,2018-06-29 11:16:02.937500,8.91,69.35
290271,2018-06-29 11:16:02.968750,15.03,69.35
290272,2018-06-29 11:16:03.000000,12.65,69.35
290273,2018-06-29 11:16:03.031250,6.47,69.35
290274,2018-06-29 11:16:03.062500,4.93,69.35
290275,2018-06-29 11:16:03.093750,9.22,69.35
290276,2018-06-29 11:16:03.125000,13.15,69.35
290277,2018-06-29 11:16:03.156250,12.71,69.35
290278,2018-06-29 11:16:03.187500,9.5,69.35
290279,2018-06-29 11:16:03.218750,5.29,69.35
290280,2018-06-29 11:16:03.250000,-1.74,69.35
290281,2018-06-29 11:16:03.281250,-13.09,69.35
290282,2018-06-29 11:16:03.312500,-25.61,69.35
290283,2018-06-29 11:16:03.343750,-34.79,69.35
290284,2018-06-29 11:16:03.375000,-41.25,69.35
290285,2018-06-29 11:16:03.406250,-50.06,69.35
290286,2018-06-29 11:16:03.437500,-62.56,69.35
290287,2018-06-29 11:16:03.468750,-71.72,69.35
290288,2018-06-29 11:16:03.500000,-67.34,69.35
290289,2018-06-29 11:16:03.531250,-45.73,69.4
290290,2018-06-29 11:16:03.562500,-14.05,69.4
290291,2018-06-29 11:16:03.593750,16.07,69.4
290292,2018-06-29 11:16:03.625000,37.42,69.4
290293,2018-06-29 11:16:03.656250,48.27,69.4
290294,2018-06-29 11:16:03.687500,49.03,69.4
290295,2018-06-29 11:16:03.718750,42.87,69.4
290296,2018-06-29 11:16:03.750000,36.41,69.4
290297,2018-06-29 11:16:03.781250,33.88,69.4
290298,2018-06-29 11:16:03.812500,32.85,69.4
290299,2018-06-29 11:16:03.843750,29.12,69.4
290300,2018-06-29 11:16:03.875000,22.88,69.4
290301,2018-06-29 11:16:03.906250,16.02,69.4
290302,2018-06-29 11:16:03.937500,7.27,69.4
290303,2018-06-29 11:16:03.968750,-5.5,69.4
290304,2018-06-29 11:16:04.000000,-20.82,69.4
290305,2018-06-29 11:16:04.031250,-35.13,69.4
290306,2018-06-29 11:16:04.062500,-46.94,69.4
290307,2018-06-29 11:16:04.093750,-57.28,69.4
290308,2018-06-29 11:16:04.125000,-68.44,69.4
290309,2018-06-29 11:16:04.156250,-82.29,69.4
290310,2018-06-29 11:16:04.187500,-94.2,69.4
290311,2018-06-29 11:16:04.218750,-90.21,69.4
290312,2018-06-29 11:16:04.250000,-60.55,69.4
290313,2018-06-29 11:16:04.281250,-14.67,69.4
290314,2018-06-29 11:16:04.312500,27.96,69.4
290315,2018-06-29 11:16:04.343750,57.69,69.4
290316,2018-06-29 11:16:04.375000,75.54,69.4
290317,2018-06-29 11:16:04.406250,83.07,69.4
290318,2018-06-29 11:16:04.437500,82.14,69.4
290319,2018-06-29 11:16:04.468750,78.49,69.4
290320,2018-06-29 11:16:04.500000,77.45,69.4
290321,2018-06-29 11:16:04.531250,78.05,69.65
290322,2018-06-29 11:16:04.562500,75.36,69.65
290323,2018-06-29 11:16:04.593750,68.01,69.65
290324,2018-06-29 11:16:04.625000,60.05,69.65
290325,2018-06-29 11:16:04.656250,54.15,69.65
290326,2018-06-29 11:16:04.687500,46.14,69.65
290327,2018-06-29 11:16:04.718750,29.88,69.65
290328,2018-06-29 11:16:04.750000,5.31,69.65
290329,2018-06-29 11:16:04.781250,-22.58,69.65
290330,2018-06-29 11:16:04.812500,-51.4,69.65
290331,2018-06-29 11:16:04.843750,-82.66,69.65
290332,2018-06-29 11:16:04.875000,-117.51,69.65
290333,2018-06-29 11:16:04.906250,-154.76,69.65
290334,2018-06-29 11:16:04.937500,-186.94,69.65
290335,2018-06-29 11:16:04.968750,-197.7,69.65
290336,2018-06-29 11:16:05.000000,-174.48,69.65
290337,2018-06-29 11:16:05.031250,-124.59,69.65
290338,2018-06-29 11:16:05.062500,-68.66,69.65
290339,2018-06-29 11:16:05.093750,-21.41,69.65
290340,2018-06-29 11:16:05.125000,12.04,69.65
290341,2018-06-29 11:16:05.156250,28.91,69.65
290342,2018-06-29 11:16:05.187500,29.62,69.65
290343,2018-06-29 11:16:05.218750,21.73,69.65
290344,2018-06-29 11:16:05.250000,14.07,69.65
290345,2018-06-29 11:16:05.281250,7.44,69.65
290346,2018-06-29 11:16:05.312500,-2.85,69.65
290347,2018-06-29 11:16:05.343750,-17.47,69.65
290348,2018-06-29 11:16:05.375000,-33.31,69.65
290349,2018-06-29 11:16:05.406250,-51.42,69.65
290350,2018-06-29 11:16:05.437500,-76.21,69.65
290351,2018-06-29 11:16:05.468750,-107.05,69.65
290352,2018-06-29 11:16:05.500000,-138.6,69.65
290353,2018-06-29 11:16:05.531250,-168.93,69.88
290354,2018-06-29 11:16:05.562500,-200.54,69.88
290355,2018-06-29 11:16:05.593750,-235.01,69.88
290356,2018-06-29 11:16:05.625000,-269.85,69.88
290357,2018-06-29 11:16:05.656250,-295.14,69.88
290358,2018-06-29 11:16:05.687500,-293.96,69.88
290359,2018-06-29 11:16:05.718750,-257.15,69.88
290360,2018-06-29 11:16:05.750000,-195.51,69.88
290361,2018-06-29 11:16:05.781250,-127.46,69.88
290362,2018-06-29 11:16:05.812500,-60.77,69.88
290363,2018-06-29 11:16:05.843750,4.48,69.88
290364,2018-06-29 11:16:05.875000,63.86,69.88
290365,2018-06-29 11:16:05.906250,111.12,69.88
290366,2018-06-29 11:16:05.937500,147.18,69.88
290367,2018-06-29 11:16:05.968750,178.0,69.88
290368,2018-06-29 11:16:06.000000,206.13,69.88
290369,2018-06-29 11:16:06.031250,229.29,69.88
290370,2018-06-29 11:16:06.062500,243.87,69.88
290371,2018-06-29 11:16:06.093750,246.71,69.88
290372,2018-06-29 11:16:06.125000,236.66,69.88
290373,2018-06-29 11:16:06.156250,216.97,69.88
290374,2018-06-29 11:16:06.187500,193.65,69.88
290375,2018-06-29 11:16:06.218750,170.2,69.88
290376,2018-06-29 11:16:06.250000,145.7,69.88
290377,2018-06-29 11:16:06.281250,118.6,69.88
290378,2018-06-29 11:16:06.312500,90.82,69.88
290379,2018-06-29 11:16:06.343750,65.6,69.88
290380,2018-06-29 11:16:06.375000,42.39,69.88
290381,2018-06-29 11:16:06.406250,16.72,69.88
290382,2018-06-29 11:16:06.437500,-12.46,69.88
290383,2018-06-29 11:16:06.468750,-33.94,69.88
290384,2018-06-29 11:16:06.500000,-28.15,69.88
290385,2018-06-29 11:16:06.531250,12.52,70.1
290386,2018-06-29 11:16:06.562500,72.37,70.1
290387,2018-06-29 11:16:06.593750,126.75,70.1
290388,2018-06-29 11:16:06.625000,162.2,70.1
290389,2018-06-29 11:16:06.656250,179.8,70.1
290390,2018-06-29 11:16:06.687500,187.41,70.1
290391,2018-06-29 11:16:06.718750,191.61,70.1
290392,2018-06-29 11:16:06.750000,193.91,70.1
290393,2018-06-29 11:16:06.781250,195.05,70.1
290394,2018-06-29 11:16:06.812500,200.35,70.1
290395,2018-06-29 11:16:06.843750,214.22,70.1
290396,2018-06-29 11:16:06.875000,231.08,70.1
290397,2018-06-29 11:16:06.906250,237.54,70.1
290398,2018-06-29 11:16:06.937500,223.43,70.1
290399,2018-06-29 11:16:06.968750,192.59,70.1
290400,2018-06-29 11:16:07.000000,164.67,70.1
290401,2018-06-29 11:16:07.031250,151.97,70.1
290402,2018-06-29 11:16:07.062500,134.99,70.1
290403,2018-06-29 11:16:07.093750,90.1,70.1
290404,2018-06-29 11:16:07.125000,33.49,70.1
290405,2018-06-29 11:16:07.156250,-2.0,70.1
290406,2018-06-29 11:16:07.187500,-18.79,70.1
290407,2018-06-29 11:16:07.218750,-46.77,70.1
290408,2018-06-29 11:16:07.250000,-104.13,70.1
290409,2018-06-29 11:16:07.281250,-181.58,70.1
290410,2018-06-29 11:16:07.312500,-246.1,70.1
290411,2018-06-29 11:16:07.343750,-265.94,70.1
290412,2018-06-29 11:16:07.375000,-241.77,70.1
290413,2018-06-29 11:16:07.406250,-197.47,70.1
290414,2018-06-29 11:16:07.437500,-151.37,70.1
290415,2018-06-29 11:16:07.468750,-115.94,70.1
290416,2018-06-29 11:16:07.500000,-102.46,70.1
290417,2018-06-29 11:16:07.531250,-106.82,70.3
290418,2018-06-29 11:16:07.562500,-111.71,70.3
290419,2018-06-29 11:16:07.593750,-109.74,70.3
290420,2018-06-29 11:16:07.625000,-106.14,70.3
290421,2018-06-29 11:16:07.656250,-101.59,70.3
290422,2018-06-29 11:16:07.687500,-88.34,70.3
290423,2018-06-29 11:16:07.718750,-64.07,70.3
290424,2018-06-29 11:16:07.750000,-36.39,70.3
290425,2018-06-29 11:16:07.781250,-10.69,70.3
290426,2018-06-29 11:16:07.812500,14.14,70.3
290427,2018-06-29 11:16:07.843750,39.04,70.3
290428,2018-06-29 11:16:07.875000,57.88,70.3
290429,2018-06-29 11:16:07.906250,65.12,70.3
290430,2018-06-29 11:16:07.937500,63.31,70.3
290431,2018-06-29 11:16:07.968750,61.58,70.3
290432,2018-06-29 11:16:08.000000,64.98,70.3
290433,2018-06-29 11:16:08.031250,69.76,70.3
290434,2018-06-29 11:16:08.062500,72.7,70.3
290435,2018-06-29 11:16:08.093750,75.61,70.3
290436,2018-06-29 11:16:08.125000,88.46,70.3
290437,2018-06-29 11:16:08.156250,104.36,70.3
290438,2018-06-29 11:16:08.187500,109.67,70.3
290439,2018-06-29 11:16:08.218750,98.73,70.3
290440,2018-06-29 11:16:08.250000,86.46,70.3
290441,2018-06-29 11:16:08.281250,84.18,70.3
290442,2018-06-29 11:16:08.312500,84.15,70.3
290443,2018-06-29 11:16:08.343750,93.99,70.3
290444,2018-06-29 11:16:08.375000,124.43,70.3
290445,2018-06-29 11:16:08.406250,185.33,70.3
290446,2018-06-29 11:16:08.437500,234.23,70.3
290447,2018-06-29 11:16:08.468750,243.87,70.3
290448,2018-06-29 11:16:08.500000,230.28,70.3
290449,2018-06-29 11:16:08.531250,236.85,70.47
290450,2018-06-29 11:16:08.562500,275.76,70.47
290451,2018-06-29 11:16:08.593750,305.32,70.47
290452,2018-06-29 11:16:08.625000,305.02,70.47
290453,2018-06-29 11:16:08.656250,121.13,70.47
290454,2018-06-29 11:16:08.687500,-211.96,70.47
290455,2018-06-29 11:16:08.718750,-413.43,70.47
290456,2018-06-29 11:16:08.750000,-456.12,70.47
290457,2018-06-29 11:16:08.781250,-427.69,70.47
290458,2018-06-29 11:16:08.812500,-363.14,70.47
290459,2018-06-29 11:16:08.843750,-283.41,70.47
290460,2018-06-29 11:16:08.875000,-233.19,70.47
290461,2018-06-29 11:16:08.906250,-195.31,70.47
290462,2018-06-29 11:16:08.937500,-134.02,70.47
290463,2018-06-29 11:16:08.968750,-41.31,70.47
290464,2018-06-29 11:16:09.000000,33.7,70.47
290465,2018-06-29 11:16:09.031250,50.61,70.47
290466,2018-06-29 11:16:09.062500,10.98,70.47
290467,2018-06-29 11:16:09.093750,-50.72,70.47
290468,2018-06-29 11:16:09.125000,-93.98,70.47
290469,2018-06-29 11:16:09.156250,-109.44,70.47
290470,2018-06-29 11:16:09.187500,-107.74,70.47
290471,2018-06-29 11:16:09.218750,-103.31,70.47
290472,2018-06-29 11:16:09.250000,-85.27,70.47
290473,2018-06-29 11:16:09.281250,-48.25,70.47
290474,2018-06-29 11:16:09.312500,-6.06,70.47
290475,2018-06-29 11:16:09.343750,24.91,70.47
290476,2018-06-29 11:16:09.375000,36.68,70.47
290477,2018-06-29 11:16:09.406250,32.48,70.47
290478,2018-06-29 11:16:09.437500,23.24,70.47
290479,2018-06-29 11:16:09.468750,25.91,70.47
290480,2018-06-29 11:16:09.500000,41.51,70.47
290481,2018-06-29 11:16:09.531250,53.73,70.65
290482,2018-06-29 11:16:09.562500,56.81,70.65
290483,2018-06-29 11:16:09.593750,61.42,70.65
290484,2018-06-29 11:16:09.625000,74.18,70.65
290485,2018-06-29 11:16:09.656250,90.38,70.65
290486,2018-06-29 11:16:09.687500,104.49,70.65
290487,2018-06-29 11:16:09.718750,111.66,70.65
290488,2018-06-29 11:16:09.750000,108.2,70.65
290489,2018-06-29 11:16:09.781250,95.94,70.65
290490,2018-06-29 11:16:09.812500,78.46,70.65
290491,2018-06-29 11:16:09.843750,55.06,70.65
290492,2018-06-29 11:16:09.875000,24.37,70.65
290493,2018-06-29 11:16:09.906250,-9.74,70.65
290494,2018-06-29 11:16:09.937500,-39.95,70.65
290495,2018-06-29 11:16:09.968750,-61.43,70.65
290496,2018-06-29 11:16:10.000000,-74.21,70.65
290497,2018-06-29 11:16:10.031250,-81.57,70.65
290498,2018-06-29 11:16:10.062500,-87.98,70.65
290499,2018-06-29 11:16:10.093750,-95.45,70.65
290500,2018-06-29 11:16:10.125000,-100.43,70.65
290501,2018-06-29 11:16:10.156250,-96.34,70.65
290502,2018-06-29 11:16:10.187500,-80.28,70.65
290503,2018-06-29 11:16:10.218750,-57.11,70.65
290504,2018-06-29 11:16:10.250000,-36.13,70.65
290505,2018-06-29 11:16:10.281250,-23.08,70.65
290506,2018-06-29 11:16:10.312500,-17.6,70.65
290507,2018-06-29 11:16:10.343750,-18.96,70.65
290508,2018-06-29 11:16:10.375000,-27.1,70.65
290509,2018-06-29 11:16:10.406250,-36.64,70.65
290510,2018-06-29 11:16:10.437500,-38.48,70.65
290511,2018-06-29 11:16:10.468750,-29.66,70.65
290512,2018-06-29 11:16:10.500000,-14.97,70.65
290513,2018-06-29 11:16:10.531250,1.04,70.73
290514,2018-06-29 11:16:10.562500,17.16,70.73
290515,2018-06-29 11:16:10.593750,32.26,70.73
290516,2018-06-29 11:16:10.625000,43.13,70.73
290517,2018-06-29 11:16:10.656250,44.91,70.73
290518,2018-06-29 11:16:10.687500,33.3,70.73
290519,2018-06-29 11:16:10.718750,8.56,70.73
290520,2018-06-29 11:16:10.750000,-22.49,70.73
290521,2018-06-29 11:16:10.781250,-49.97,70.73
290522,2018-06-29 11:16:10.812500,-67.16,70.73
290523,2018-06-29 11:16:10.843750,-74.52,70.73
290524,2018-06-29 11:16:10.875000,-78.06,70.73
290525,2018-06-29 11:16:10.906250,-83.78,70.73
290526,2018-06-29 11:16:10.937500,-93.84,70.73
290527,2018-06-29 11:16:10.968750,-106.53,70.73
290528,2018-06-29 11:16:11.000000,-116.35,70.73
290529,2018-06-29 11:16:11.031250,-115.45,70.73
290530,2018-06-29 11:16:11.062500,-100.63,70.73
290531,2018-06-29 11:16:11.093750,-78.04,70.73
290532,2018-06-29 11:16:11.125000,-56.57,70.73
290533,2018-06-29 11:16:11.156250,-40.53,70.73
290534,2018-06-29 11:16:11.187500,-30.28,70.73
290535,2018-06-29 11:16:11.218750,-24.65,70.73
290536,2018-06-29 11:16:11.250000,-20.44,70.73
290537,2018-06-29 11:16:11.281250,-14.4,70.73
290538,2018-06-29 11:16:11.312500,-6.6,70.73
290539,2018-06-29 11:16:11.343750,0.42,70.73
290540,2018-06-29 11:16:11.375000,4.95,70.73
290541,2018-06-29 11:16:11.406250,7.68,70.73
290542,2018-06-29 11:16:11.437500,10.25,70.73
290543,2018-06-29 11:16:11.468750,12.74,70.73
290544,2018-06-29 11:16:11.500000,14.3,70.73
290545,2018-06-29 11:16:11.531250,15.15,70.85
290546,2018-06-29 11:16:11.562500,15.9,70.85
290547,2018-06-29 11:16:11.593750,15.29,70.85
290548,2018-06-29 11:16:11.625000,11.73,70.85
290549,2018-06-29 11:16:11.656250,6.55,70.85
290550,2018-06-29 11:16:11.687500,2.51,70.85
290551,2018-06-29 11:16:11.718750,0.02,70.85
290552,2018-06-29 11:16:11.750000,-3.57,70.85
290553,2018-06-29 11:16:11.781250,-11.0,70.85
290554,2018-06-29 11:16:11.812500,-20.74,70.85
290555,2018-06-29 11:16:11.843750,-25.41,70.85
290556,2018-06-29 11:16:11.875000,-18.2,70.85
290557,2018-06-29 11:16:11.906250,-1.6,70.85
290558,2018-06-29 11:16:11.937500,14.61,70.85
290559,2018-06-29 11:16:11.968750,24.14,70.85
290560,2018-06-29 11:16:12.000000,27.57,70.85
290561,2018-06-29 11:16:12.031250,27.16,70.85
290562,2018-06-29 11:16:12.062500,24.02,70.85
290563,2018-06-29 11:16:12.093750,19.91,70.85
290564,2018-06-29 11:16:12.125000,16.8,70.85
290565,2018-06-29 11:16:12.156250,15.07,70.85
290566,2018-06-29 11:16:12.187500,14.27,70.85
290567,2018-06-29 11:16:12.218750,14.58,70.85
290568,2018-06-29 11:16:12.250000,15.4,70.85
290569,2018-06-29 11:16:12.281250,14.46,70.85
290570,2018-06-29 11:16:12.312500,10.24,70.85
290571,2018-06-29 11:16:12.343750,4.14,70.85
290572,2018-06-29 11:16:12.375000,-1.69,70.85
290573,2018-06-29 11:16:12.406250,-7.08,70.85
290574,2018-06-29 11:16:12.437500,-12.9,70.85
290575,2018-06-29 11:16:12.468750,-18.46,70.85
290576,2018-06-29 11:16:12.500000,-22.54,70.85
290577,2018-06-29 11:16:12.531250,-26.13,71.0
290578,2018-06-29 11:16:12.562500,-32.22,71.0
290579,2018-06-29 11:16:12.593750,-42.05,71.0
290580,2018-06-29 11:16:12.625000,-50.87,71.0
290581,2018-06-29 11:16:12.656250,-49.23,71.0
290582,2018-06-29 11:16:12.687500,-32.52,71.0
290583,2018-06-29 11:16:12.718750,-7.62,71.0
290584,2018-06-29 11:16:12.750000,14.18,71.0
290585,2018-06-29 11:16:12.781250,27.57,71.0
290586,2018-06-29 11:16:12.812500,32.93,71.0
290587,2018-06-29 11:16:12.843750,31.49,71.0
290588,2018-06-29 11:16:12.875000,25.68,71.0
290589,2018-06-29 11:16:12.906250,19.75,71.0
290590,2018-06-29 11:16:12.937500,16.65,71.0
290591,2018-06-29 11:16:12.968750,16.34,71.0
290592,2018-06-29 11:16:13.000000,17.68,71.0
290593,2018-06-29 11:16:13.031250,19.57,71.0
